[Header]
Application Name	LabSolutions
Version	5.110
Data File Name	C:\Users\User\Desktop\GC Analyses\Jack\UIC Prairie Sampling\7.22.22\220722_044.gcd
Output Date	10/5/2022
Output Time	2:13:40 PM

[File Information]
Type	Data File
Generated	9/28/2022 12:42:29 PM
Generated by	System Administrator
Modified	9/28/2022 12:47:19 PM
Modified by	System Administrator

[Sample Information]
Operator Name	System Administrator
Acquired	9/28/2022 12:43:18 PM
Sample Type	1:Standard
Level	1
Sample Name	220722_UICPrairie
Sample ID	220722_UICPrairie
ISTD Amount1	1
ISTD Amount2	1
ISTD Amount3	1
ISTD Amount4	1
ISTD Amount5	1
ISTD Amount6	1
ISTD Amount7	1
ISTD Amount8	1
ISTD Amount9	1
ISTD Amount10	1
ISTD Amount11	1
ISTD Amount12	1
ISTD Amount13	1
ISTD Amount14	1
ISTD Amount15	1
ISTD Amount16	1
ISTD Amount17	1
ISTD Amount18	1
ISTD Amount19	1
ISTD Amount20	1
ISTD Amount21	1
ISTD Amount22	1
ISTD Amount23	1
ISTD Amount24	1
ISTD Amount25	1
ISTD Amount26	1
ISTD Amount27	1
ISTD Amount28	1
ISTD Amount29	1
ISTD Amount30	1
ISTD Amount31	1
ISTD Amount32	1
Sample Amount	1
Dilution Factor	1
Vial#	1
Injection Volume	1
Injection Count	1
Bar Code	

[Original Files]
Data File	C:\Users\User\Desktop\GC Analyses\Jack\UIC Prairie Sampling\7.22.22\220722_044.gcd
Method File	C:\LabSolutions\Data\GHG_4min_2022\ghg3_togas_w_acet_4 min_new_int.gcm
Batch File	
Report Format File	c:\LabSolutions\System\DEFAULT.lsr

[File Description]


[Configuration]
Instrument Name	C0B7VH3-Instrument1
Instrument #	1
Line #	1
# of Detectors	3
Detector ID	DET#1	DET#2	DET#3
Detector Name	FID	PTCD	ECD
# of Channels	1	1	1

[Peak Table(Ch1)]
# of Peaks	3
Peak#	R.Time	I.Time	F.Time	Area	Height	A/H	Conc.	Mark	ID#	Name	k'	Plate #	Plate Ht.	Tailing	Resolution	Sep.Factor	Area Ratio	Height Ratio	Conc. %	Norm Conc.
1	1.476	1.439	1.538	16838	7514	2.241	100.000	   	1	CO	0.000	8423	17.809	1.287	0.000	0.000	0	0	16.667	16.667
2	1.571	1.538	1.622	5335	2695	1.979	100.000	 V 	2	CH4	0.065	11467	13.081	1.166	1.550	0.000	0	0	16.667	16.667
3	2.000	1.938	2.264	1216065	593882	2.048	400.000	   	3	CO2	0.355	17847	8.405	1.208	7.236	5.500	0	0	66.667	66.667

[Peak Table(Ch2)]
# of Peaks	0

[Peak Table(Ch3)]
# of Peaks	2
Peak#	R.Time	I.Time	F.Time	Area	Height	A/H	Conc.	Mark	ID#	Name	k'	Plate #	Plate Ht.	Tailing	Resolution	Sep.Factor	Area Ratio	Height Ratio	Conc. %	Norm Conc.
1	2.598	2.488	2.642	725	161	4.495	0.000	   			0.000	6540	22.935	0.694	0.000	0.000	0	0	0.000	0.000
2	2.880	2.660	3.584	26776	5567	4.810	1.000	   	1	N2O	0.109	12554	11.948	1.707	2.441	0.000	0	0	100.000	100.000

[Compound Results(Ch1)]
# of IDs	6
ID#	Name	R.Time	Area	Height	Conc.	Curve	3rd	2nd	1st	Constant	Area Ratio	Height Ratio	Conc. %	Norm Conc.
1	CO	1.476	16838	7514	100.000	Linear	0.000000e+00	0.000000e+00	1.683781e+002	0.000000e+00	0	0	16.667	16.667
2	CH4	1.571	5335	2695	100.000	Linear	0.000000e+00	0.000000e+00	5.335325e+001	0.000000e+00	0	0	16.667	16.667
3	CO2	2.000	1216065	593882	400.000	Linear	0.000000e+00	0.000000e+00	3.040164e+003	0.000000e+00	0	0	66.667	66.667
4	Ethylene	0.000	0	0	0.000	Linear	0.000000e+00	0.000000e+00	0.000000e+00	0.000000e+00	0	0	0.000	0.000
5	Acetylene	0.000	0	0	0.000	Linear	0.000000e+00	0.000000e+00	0.000000e+00	0.000000e+00	0	0	0.000	0.000
6	Ethane	0.000	0	0	0.000	Linear	0.000000e+00	0.000000e+00	0.000000e+00	0.000000e+00	0	0	0.000	0.000

[Compound Results(Ch2)]
# of IDs	5
ID#	Name	R.Time	Area	Height	Conc.	Curve	3rd	2nd	1st	Constant	Area Ratio	Height Ratio	Conc. %	Norm Conc.
1	Hydrogen	0.000	0	0	0.000	Linear	0.000000e+00	0.000000e+00	0.000000e+00	0.000000e+00	0	0	0.000	0.000
2	Oxygen	0.000	0	0	0.000	Linear	0.000000e+00	0.000000e+00	0.000000e+00	0.000000e+00	0	0	0.000	0.000
3	Nitrogen	0.000	0	0	0.000	Linear	0.000000e+00	0.000000e+00	0.000000e+00	0.000000e+00	0	0	0.000	0.000
4	Methane	0.000	0	0	0.000	Linear	0.000000e+00	0.000000e+00	0.000000e+00	0.000000e+00	0	0	0.000	0.000
5	Carbon Monoxide	0.000	0	0	0.000	Linear	0.000000e+00	0.000000e+00	0.000000e+00	0.000000e+00	0	0	0.000	0.000

[Compound Results(Ch3)]
# of IDs	2
ID#	Name	R.Time	Area	Height	Conc.	Curve	3rd	2nd	1st	Constant	Area Ratio	Height Ratio	Conc. %	Norm Conc.
1	N2O	2.880	26776	5567	1.000	Linear	0.000000e+00	0.000000e+00	2.677562e+004	0.000000e+00	0	0	100.000	100.000
2	SF6	0.000	0	0	0.000	Linear	0.000000e+00	0.000000e+00	0.000000e+00	0.000000e+00	0	0	0.000	0.000

[Group Results(Ch1)]
# of Groups	0

[Group Results(Ch2)]
# of Groups	0

[Group Results(Ch3)]
# of Groups	0

[Chromatogram (Ch1)]
Interval(msec)	220
# of Points	1091
Start Time(min)	0.002
End Time(min)	3.998
R.Time (min)	Intensity
0.00167	18
0.00533	22
0.00900	24
0.01267	22
0.01633	19
0.02000	20
0.02367	27
0.02733	34
0.03100	39
0.03467	37
0.03833	27
0.04200	15
0.04567	6
0.04933	4
0.05300	7
0.05667	13
0.06033	17
0.06400	18
0.06767	16
0.07133	14
0.07500	11
0.07867	9
0.08233	10
0.08600	14
0.08967	18
0.09333	20
0.09700	19
0.10067	18
0.10433	14
0.10800	9
0.11167	2
0.11533	-7
0.11900	-14
0.12267	-18
0.12633	-16
0.13000	-15
0.13367	-13
0.13733	-14
0.14100	-14
0.14467	-11
0.14833	-9
0.15200	-8
0.15567	-8
0.15933	-8
0.16300	-9
0.16667	-10
0.17033	-11
0.17400	-8
0.17767	-1
0.18133	4
0.18500	10
0.18867	14
0.19233	15
0.19600	12
0.19967	9
0.20333	7
0.20700	6
0.21067	3
0.21433	-5
0.21800	-12
0.22167	-13
0.22533	-12
0.22900	-7
0.23267	-0
0.23633	5
0.24000	13
0.24367	19
0.24733	20
0.25100	15
0.25467	9
0.25833	8
0.26200	11
0.26567	16
0.26933	20
0.27300	20
0.27667	17
0.28033	13
0.28400	8
0.28767	2
0.29133	-4
0.29500	-9
0.29867	-10
0.30233	-9
0.30600	-7
0.30967	-7
0.31333	-9
0.31700	-13
0.32067	-16
0.32433	-15
0.32800	-11
0.33167	-9
0.33533	-7
0.33900	-6
0.34267	-7
0.34633	-7
0.35000	-4
0.35367	0
0.35733	-1
0.36100	-8
0.36467	-18
0.36833	-28
0.37200	-31
0.37567	-31
0.37933	-30
0.38300	-29
0.38667	-27
0.39033	-24
0.39400	-18
0.39767	-10
0.40133	-5
0.40500	-0
0.40867	5
0.41233	12
0.41600	18
0.41967	25
0.42333	31
0.42700	32
0.43067	27
0.43433	14
0.43800	-5
0.44167	-21
0.44533	-33
0.44900	-42
0.45267	-45
0.45633	-45
0.46000	-42
0.46367	-39
0.46733	-34
0.47100	-31
0.47467	-28
0.47833	-24
0.48200	-19
0.48567	-11
0.48933	-2
0.49300	4
0.49667	5
0.50033	1
0.50400	-4
0.50767	-8
0.51133	-10
0.51500	-11
0.51867	-11
0.52233	-10
0.52600	-10
0.52967	-11
0.53333	-12
0.53700	-16
0.54067	-20
0.54433	-22
0.54800	-21
0.55167	-19
0.55533	-18
0.55900	-18
0.56267	-18
0.56633	-16
0.57000	-16
0.57367	-19
0.57733	-22
0.58100	-26
0.58467	-29
0.58833	-31
0.59200	-34
0.59567	-35
0.59933	-32
0.60300	-24
0.60667	-20
0.61033	-15
0.61400	-10
0.61767	-10
0.62133	-13
0.62500	-14
0.62867	-12
0.63233	-8
0.63600	-5
0.63967	-7
0.64333	-9
0.64700	-10
0.65067	-7
0.65433	-1
0.65800	-1
0.66167	-6
0.66533	-12
0.66900	-17
0.67267	-21
0.67633	-22
0.68000	-19
0.68367	-11
0.68733	-4
0.69100	-2
0.69467	-8
0.69833	-17
0.70200	-22
0.70567	-24
0.70933	-25
0.71300	-25
0.71667	-28
0.72033	-33
0.72400	-37
0.72767	-39
0.73133	-37
0.73500	-32
0.73867	-27
0.74233	-26
0.74600	-28
0.74967	-29
0.75333	-33
0.75700	-36
0.76067	-33
0.76433	-29
0.76800	-28
0.77167	-28
0.77533	-26
0.77900	-23
0.78267	-20
0.78633	-17
0.79000	-13
0.79367	-11
0.79733	-11
0.80100	-11
0.80467	-17
0.80833	-21
0.81200	-21
0.81567	-19
0.81933	-19
0.82300	-22
0.82667	-26
0.83033	-28
0.83400	-28
0.83767	-27
0.84133	-23
0.84500	-18
0.84867	-16
0.85233	-18
0.85600	-20
0.85967	-19
0.86333	-18
0.86700	-14
0.87067	-10
0.87433	-13
0.87800	-17
0.88167	-23
0.88533	-28
0.88900	-30
0.89267	-33
0.89633	-35
0.90000	-33
0.90367	-30
0.90733	-29
0.91100	-31
0.91467	-34
0.91833	-36
0.92200	-40
0.92567	-42
0.92933	-42
0.93300	-43
0.93667	-42
0.94033	-39
0.94400	-35
0.94767	-34
0.95133	-35
0.95500	-35
0.95867	-32
0.96233	-29
0.96600	-26
0.96967	-23
0.97333	-22
0.97700	-23
0.98067	-27
0.98433	-31
0.98800	-33
0.99167	-31
0.99533	-27
0.99900	-23
1.00267	-19
1.00633	-17
1.01000	-19
1.01367	-26
1.01733	-32
1.02100	-40
1.02467	-46
1.02833	-46
1.03200	-44
1.03567	-42
1.03933	-36
1.04300	-28
1.04667	-19
1.05033	-14
1.05400	-19
1.05767	-31
1.06133	-40
1.06500	-49
1.06867	-58
1.07233	-64
1.07600	-62
1.07967	-55
1.08333	-49
1.08700	-48
1.09067	-51
1.09433	-56
1.09800	-61
1.10167	-62
1.10533	-58
1.10900	-53
1.11267	-46
1.11633	-39
1.12000	-34
1.12367	-33
1.12733	-34
1.13100	-36
1.13467	-35
1.13833	-36
1.14200	-38
1.14567	-39
1.14933	-38
1.15300	-34
1.15667	-31
1.16033	-26
1.16400	-22
1.16767	-21
1.17133	-18
1.17500	-18
1.17867	-22
1.18233	-25
1.18600	-30
1.18967	-36
1.19333	-40
1.19700	-42
1.20067	-45
1.20433	-50
1.20800	-54
1.21167	-60
1.21533	-63
1.21900	-62
1.22267	-58
1.22633	-54
1.23000	-50
1.23367	-46
1.23733	-43
1.24100	-41
1.24467	-41
1.24833	-41
1.25200	-44
1.25567	-44
1.25933	-41
1.26300	-38
1.26667	-34
1.27033	-35
1.27400	-36
1.27767	-39
1.28133	-44
1.28500	-46
1.28867	-43
1.29233	-37
1.29600	-31
1.29967	-31
1.30333	-33
1.30700	-41
1.31067	-48
1.31433	-48
1.31800	-42
1.32167	-34
1.32533	-29
1.32900	-29
1.33267	-37
1.33633	-47
1.34000	-54
1.34367	-61
1.34733	-70
1.35100	-76
1.35467	-79
1.35833	-77
1.36200	-73
1.36567	-68
1.36933	-67
1.37300	-67
1.37667	-67
1.38033	-70
1.38400	-74
1.38767	-71
1.39133	-66
1.39500	-59
1.39867	-51
1.40233	-44
1.40600	-42
1.40967	-44
1.41333	-46
1.41700	-42
1.42067	-35
1.42433	-32
1.42800	-34
1.43167	-42
1.43533	-52
1.43900	-52
1.44267	6
1.44633	233
1.45000	707
1.45367	1472
1.45733	2579
1.46100	3921
1.46467	5238
1.46833	6325
1.47200	7080
1.47567	7457
1.47933	7431
1.48300	6990
1.48667	6182
1.49033	5144
1.49400	4058
1.49767	3067
1.50133	2247
1.50500	1612
1.50867	1138
1.51233	790
1.51600	535
1.51967	351
1.52333	218
1.52700	125
1.53067	61
1.53433	16
1.53800	-9
1.54167	6
1.54533	117
1.54900	391
1.55267	830
1.55633	1353
1.56000	1851
1.56367	2249
1.56733	2516
1.57100	2626
1.57467	2548
1.57833	2284
1.58200	1890
1.58567	1451
1.58933	1043
1.59300	708
1.59667	455
1.60033	271
1.60400	141
1.60767	52
1.61133	-8
1.61500	-46
1.61867	-67
1.62233	-77
1.62600	-84
1.62967	-87
1.63333	-85
1.63700	-80
1.64067	-78
1.64433	-76
1.64800	-74
1.65167	-78
1.65533	-84
1.65900	-87
1.66267	-89
1.66633	-92
1.67000	-93
1.67367	-94
1.67733	-93
1.68100	-90
1.68467	-86
1.68833	-85
1.69200	-84
1.69567	-84
1.69933	-83
1.70300	-81
1.70667	-81
1.71033	-83
1.71400	-86
1.71767	-92
1.72133	-96
1.72500	-101
1.72867	-106
1.73233	-110
1.73600	-112
1.73967	-114
1.74333	-114
1.74700	-114
1.75067	-115
1.75433	-116
1.75800	-118
1.76167	-114
1.76533	-100
1.76900	-86
1.77267	-80
1.77633	-74
1.78000	-72
1.78367	-74
1.78733	-77
1.79100	-84
1.79467	-91
1.79833	-92
1.80200	-92
1.80567	-92
1.80933	-94
1.81300	-97
1.81667	-100
1.82033	-105
1.82400	-106
1.82767	-102
1.83133	-99
1.83500	-100
1.83867	-100
1.84233	-97
1.84600	-96
1.84967	-97
1.85333	-101
1.85700	-102
1.86067	-96
1.86433	-85
1.86800	-77
1.87167	-75
1.87533	-75
1.87900	-75
1.88267	-75
1.88633	-72
1.89000	-62
1.89367	-53
1.89733	-51
1.90100	-55
1.90467	-62
1.90833	-71
1.91200	-80
1.91567	-91
1.91933	-101
1.92300	-110
1.92667	-117
1.93033	-124
1.93400	-127
1.93767	-123
1.94133	-112
1.94500	-100
1.94867	-91
1.95233	-85
1.95600	-60
1.95967	131
1.96333	1173
1.96700	5460
1.97067	18786
1.97433	50751
1.97800	110725
1.98167	200354
1.98533	309231
1.98900	419159
1.99267	511793
1.99633	572926
2.00000	593799
2.00367	572117
2.00733	513631
2.01100	431280
2.01467	340898
2.01833	255980
2.02200	184558
2.02567	129162
2.02933	88635
2.03300	60182
2.03667	40754
2.04033	27724
2.04400	19069
2.04767	13341
2.05133	9535
2.05500	6983
2.05867	5250
2.06233	4054
2.06600	3208
2.06967	2593
2.07333	2135
2.07700	1789
2.08067	1523
2.08433	1316
2.08800	1151
2.09167	1021
2.09533	919
2.09900	830
2.10267	754
2.10633	691
2.11000	638
2.11367	593
2.11733	553
2.12100	518
2.12467	489
2.12833	462
2.13200	432
2.13567	404
2.13933	378
2.14300	355
2.14667	335
2.15033	320
2.15400	310
2.15767	299
2.16133	284
2.16500	268
2.16867	251
2.17233	238
2.17600	228
2.17967	219
2.18333	213
2.18700	208
2.19067	201
2.19433	194
2.19800	190
2.20167	188
2.20533	185
2.20900	179
2.21267	172
2.21633	168
2.22000	169
2.22367	166
2.22733	155
2.23100	145
2.23467	131
2.23833	113
2.24200	96
2.24567	83
2.24933	77
2.25300	78
2.25667	82
2.26033	84
2.26400	82
2.26767	78
2.27133	75
2.27500	71
2.27867	71
2.28233	71
2.28600	69
2.28967	68
2.29333	70
2.29700	73
2.30067	72
2.30433	69
2.30800	67
2.31167	67
2.31533	68
2.31900	67
2.32267	66
2.32633	65
2.33000	64
2.33367	60
2.33733	57
2.34100	51
2.34467	45
2.34833	41
2.35200	41
2.35567	41
2.35933	40
2.36300	38
2.36667	36
2.37033	35
2.37400	37
2.37767	37
2.38133	37
2.38500	36
2.38867	35
2.39233	36
2.39600	38
2.39967	43
2.40333	48
2.40700	49
2.41067	51
2.41433	52
2.41800	47
2.42167	41
2.42533	38
2.42900	35
2.43267	34
2.43633	32
2.44000	29
2.44367	27
2.44733	28
2.45100	33
2.45467	38
2.45833	43
2.46200	47
2.46567	49
2.46933	47
2.47300	42
2.47667	31
2.48033	22
2.48400	16
2.48767	12
2.49133	7
2.49500	2
2.49867	-1
2.50233	-5
2.50600	-6
2.50967	-6
2.51333	-1
2.51700	8
2.52067	20
2.52433	29
2.52800	37
2.53167	42
2.53533	49
2.53900	53
2.54267	53
2.54633	50
2.55000	48
2.55367	42
2.55733	34
2.56100	26
2.56467	17
2.56833	9
2.57200	1
2.57567	-4
2.57933	-6
2.58300	-5
2.58667	-5
2.59033	-7
2.59400	-12
2.59767	-11
2.60133	-9
2.60500	-6
2.60867	-5
2.61233	-6
2.61600	-9
2.61967	-11
2.62333	-8
2.62700	-2
2.63067	1
2.63433	3
2.63800	5
2.64167	6
2.64533	7
2.64900	9
2.65267	12
2.65633	12
2.66000	10
2.66367	5
2.66733	-6
2.67100	-19
2.67467	-29
2.67833	-34
2.68200	-35
2.68567	-37
2.68933	-40
2.69300	-41
2.69667	-36
2.70033	-30
2.70400	-24
2.70767	-21
2.71133	-20
2.71500	-20
2.71867	-18
2.72233	-14
2.72600	-9
2.72967	-8
2.73333	-6
2.73700	-4
2.74067	-2
2.74433	2
2.74800	8
2.75167	11
2.75533	7
2.75900	-4
2.76267	-20
2.76633	-32
2.77000	-42
2.77367	-47
2.77733	-49
2.78100	-48
2.78467	-38
2.78833	-23
2.79200	-10
2.79567	-2
2.79933	4
2.80300	5
2.80667	2
2.81033	-3
2.81400	-9
2.81767	-13
2.82133	-17
2.82500	-20
2.82867	-23
2.83233	-24
2.83600	-24
2.83967	-23
2.84333	-22
2.84700	-24
2.85067	-28
2.85433	-36
2.85800	-44
2.86167	-50
2.86533	-53
2.86900	-53
2.87267	-50
2.87633	-44
2.88000	-35
2.88367	-25
2.88733	-16
2.89100	-13
2.89467	-18
2.89833	-27
2.90200	-37
2.90567	-45
2.90933	-49
2.91300	-49
2.91667	-45
2.92033	-41
2.92400	-39
2.92767	-36
2.93133	-33
2.93500	-29
2.93867	-25
2.94233	-20
2.94600	-19
2.94967	-22
2.95333	-25
2.95700	-28
2.96067	-26
2.96433	-24
2.96800	-25
2.97167	-29
2.97533	-34
2.97900	-39
2.98267	-39
2.98633	-32
2.99000	-23
2.99367	-19
2.99733	-20
3.00100	-20
3.00467	-17
3.00833	-13
3.01200	-8
3.01567	-0
3.01933	7
3.02300	10
3.02667	7
3.03033	-0
3.03400	-7
3.03767	-12
3.04133	-16
3.04500	-21
3.04867	-26
3.05233	-27
3.05600	-28
3.05967	-30
3.06333	-33
3.06700	-36
3.07067	-36
3.07433	-34
3.07800	-31
3.08167	-28
3.08533	-25
3.08900	-23
3.09267	-22
3.09633	-22
3.10000	-24
3.10367	-26
3.10733	-27
3.11100	-20
3.11467	-10
3.11833	-1
3.12200	4
3.12567	1
3.12933	-11
3.13300	-25
3.13667	-39
3.14033	-52
3.14400	-62
3.14767	-67
3.15133	-69
3.15500	-68
3.15867	-66
3.16233	-59
3.16600	-51
3.16967	-44
3.17333	-38
3.17700	-31
3.18067	-22
3.18433	-22
3.18800	-29
3.19167	-37
3.19533	-44
3.19900	-48
3.20267	-47
3.20633	-46
3.21000	-48
3.21367	-49
3.21733	-46
3.22100	-40
3.22467	-35
3.22833	-32
3.23200	-32
3.23567	-36
3.23933	-40
3.24300	-42
3.24667	-40
3.25033	-35
3.25400	-32
3.25767	-27
3.26133	-23
3.26500	-18
3.26867	-14
3.27233	-13
3.27600	-15
3.27967	-21
3.28333	-30
3.28700	-38
3.29067	-44
3.29433	-47
3.29800	-48
3.30167	-45
3.30533	-39
3.30900	-34
3.31267	-32
3.31633	-35
3.32000	-36
3.32367	-36
3.32733	-32
3.33100	-24
3.33467	-20
3.33833	-19
3.34200	-17
3.34567	-14
3.34933	-12
3.35300	-11
3.35667	-13
3.36033	-19
3.36400	-27
3.36767	-35
3.37133	-42
3.37500	-49
3.37867	-57
3.38233	-61
3.38600	-63
3.38967	-62
3.39333	-57
3.39700	-49
3.40067	-39
3.40433	-34
3.40800	-33
3.41167	-36
3.41533	-39
3.41900	-43
3.42267	-47
3.42633	-49
3.43000	-51
3.43367	-51
3.43733	-49
3.44100	-46
3.44467	-41
3.44833	-37
3.45200	-35
3.45567	-35
3.45933	-36
3.46300	-34
3.46667	-28
3.47033	-24
3.47400	-23
3.47767	-25
3.48133	-29
3.48500	-35
3.48867	-43
3.49233	-49
3.49600	-53
3.49967	-58
3.50333	-58
3.50700	-56
3.51067	-54
3.51433	-52
3.51800	-47
3.52167	-41
3.52533	-35
3.52900	-34
3.53267	-34
3.53633	-36
3.54000	-37
3.54367	-39
3.54733	-44
3.55100	-47
3.55467	-45
3.55833	-42
3.56200	-40
3.56567	-40
3.56933	-40
3.57300	-38
3.57667	-37
3.58033	-35
3.58400	-33
3.58767	-31
3.59133	-28
3.59500	-28
3.59867	-34
3.60233	-41
3.60600	-46
3.60967	-51
3.61333	-51
3.61700	-47
3.62067	-40
3.62433	-31
3.62800	-26
3.63167	-26
3.63533	-32
3.63900	-38
3.64267	-40
3.64633	-42
3.65000	-42
3.65367	-39
3.65733	-35
3.66100	-30
3.66467	-26
3.66833	-26
3.67200	-31
3.67567	-39
3.67933	-43
3.68300	-47
3.68667	-50
3.69033	-53
3.69400	-55
3.69767	-53
3.70133	-47
3.70500	-43
3.70867	-42
3.71233	-46
3.71600	-53
3.71967	-60
3.72333	-64
3.72700	-63
3.73067	-61
3.73433	-57
3.73800	-50
3.74167	-41
3.74533	-32
3.74900	-27
3.75267	-25
3.75633	-28
3.76000	-34
3.76367	-41
3.76733	-44
3.77100	-44
3.77467	-43
3.77833	-47
3.78200	-53
3.78567	-63
3.78933	-70
3.79300	-75
3.79667	-76
3.80033	-72
3.80400	-65
3.80767	-60
3.81133	-56
3.81500	-51
3.81867	-44
3.82233	-38
3.82600	-34
3.82967	-34
3.83333	-38
3.83700	-48
3.84067	-56
3.84433	-60
3.84800	-61
3.85167	-63
3.85533	-65
3.85900	-65
3.86267	-63
3.86633	-58
3.87000	-53
3.87367	-51
3.87733	-52
3.88100	-50
3.88467	-48
3.88833	-47
3.89200	-50
3.89567	-53
3.89933	-55
3.90300	-57
3.90667	-55
3.91033	-49
3.91400	-40
3.91767	-33
3.92133	-31
3.92500	-33
3.92867	-37
3.93233	-42
3.93600	-45
3.93967	-46
3.94333	-45
3.94700	-43
3.95067	-41
3.95433	-40
3.95800	-41
3.96167	-44
3.96533	-45
3.96900	-44
3.97267	-46
3.97633	-48
3.98000	-47
3.98367	-40
3.98733	-32
3.99100	-26
3.99467	-25
3.99833	-30

[Chromatogram (Ch2)]
Interval(msec)	220
# of Points	1091
Start Time(min)	0.002
End Time(min)	3.998
R.Time (min)	Intensity
0.00167	-0
0.00533	-0
0.00900	-0
0.01267	-0
0.01633	-1
0.02000	-1
0.02367	-1
0.02733	-1
0.03100	-1
0.03467	-1
0.03833	-1
0.04200	-1
0.04567	-1
0.04933	-1
0.05300	-1
0.05667	-1
0.06033	-1
0.06400	-1
0.06767	-1
0.07133	-1
0.07500	-1
0.07867	-1
0.08233	-1
0.08600	-2
0.08967	-2
0.09333	-2
0.09700	-2
0.10067	-2
0.10433	-2
0.10800	-2
0.11167	-3
0.11533	-2
0.11900	-2
0.12267	-2
0.12633	-2
0.13000	-1
0.13367	-1
0.13733	-1
0.14100	-0
0.14467	0
0.14833	1
0.15200	1
0.15567	1
0.15933	1
0.16300	2
0.16667	2
0.17033	2
0.17400	2
0.17767	2
0.18133	1
0.18500	1
0.18867	1
0.19233	0
0.19600	-0
0.19967	-1
0.20333	-1
0.20700	-2
0.21067	-2
0.21433	-3
0.21800	-4
0.22167	-4
0.22533	-5
0.22900	-5
0.23267	-6
0.23633	-6
0.24000	-6
0.24367	-6
0.24733	-6
0.25100	-6
0.25467	-6
0.25833	-6
0.26200	-5
0.26567	-5
0.26933	-5
0.27300	-4
0.27667	-4
0.28033	-3
0.28400	-3
0.28767	-3
0.29133	-3
0.29500	-3
0.29867	-2
0.30233	-2
0.30600	-2
0.30967	-2
0.31333	-2
0.31700	-2
0.32067	-2
0.32433	-2
0.32800	-2
0.33167	-2
0.33533	-2
0.33900	-3
0.34267	-3
0.34633	-3
0.35000	-3
0.35367	-3
0.35733	-2
0.36100	-2
0.36467	-2
0.36833	-2
0.37200	-2
0.37567	-1
0.37933	-1
0.38300	-1
0.38667	-2
0.39033	-2
0.39400	-2
0.39767	-2
0.40133	-3
0.40500	-3
0.40867	-3
0.41233	-4
0.41600	-4
0.41967	-4
0.42333	-4
0.42700	-4
0.43067	-3
0.43433	-3
0.43800	-3
0.44167	-3
0.44533	-3
0.44900	-3
0.45267	-2
0.45633	-2
0.46000	-2
0.46367	-2
0.46733	-2
0.47100	-2
0.47467	-2
0.47833	-2
0.48200	-2
0.48567	-2
0.48933	-2
0.49300	-2
0.49667	-2
0.50033	-2
0.50400	-1
0.50767	-1
0.51133	-1
0.51500	-1
0.51867	-1
0.52233	-0
0.52600	-0
0.52967	-0
0.53333	0
0.53700	0
0.54067	0
0.54433	0
0.54800	1
0.55167	1
0.55533	1
0.55900	1
0.56267	1
0.56633	0
0.57000	-0
0.57367	-0
0.57733	-0
0.58100	-0
0.58467	-0
0.58833	-0
0.59200	-0
0.59567	-0
0.59933	-0
0.60300	-0
0.60667	-0
0.61033	-0
0.61400	-0
0.61767	-1
0.62133	-1
0.62500	-1
0.62867	-2
0.63233	-2
0.63600	-3
0.63967	-3
0.64333	-3
0.64700	-4
0.65067	-4
0.65433	-4
0.65800	-4
0.66167	-3
0.66533	-3
0.66900	-3
0.67267	-3
0.67633	-4
0.68000	-4
0.68367	-4
0.68733	-4
0.69100	-4
0.69467	-4
0.69833	-4
0.70200	-4
0.70567	-4
0.70933	-4
0.71300	-4
0.71667	-4
0.72033	-4
0.72400	-4
0.72767	-4
0.73133	-3
0.73500	-4
0.73867	-4
0.74233	-4
0.74600	-4
0.74967	-4
0.75333	-4
0.75700	-4
0.76067	-4
0.76433	-4
0.76800	-4
0.77167	-4
0.77533	-3
0.77900	-3
0.78267	-3
0.78633	-2
0.79000	-2
0.79367	-1
0.79733	-1
0.80100	-1
0.80467	-1
0.80833	-1
0.81200	-1
0.81567	-1
0.81933	-2
0.82300	-2
0.82667	-2
0.83033	-2
0.83400	-2
0.83767	-3
0.84133	-3
0.84500	-3
0.84867	-3
0.85233	-3
0.85600	-3
0.85967	-3
0.86333	-2
0.86700	-2
0.87067	-2
0.87433	-1
0.87800	-1
0.88167	-1
0.88533	-1
0.88900	-1
0.89267	-1
0.89633	-1
0.90000	-1
0.90367	-1
0.90733	-1
0.91100	-1
0.91467	-1
0.91833	-1
0.92200	-1
0.92567	-1
0.92933	-1
0.93300	-1
0.93667	-1
0.94033	-1
0.94400	-1
0.94767	-1
0.95133	-2
0.95500	-2
0.95867	-2
0.96233	-3
0.96600	-3
0.96967	-3
0.97333	-3
0.97700	-3
0.98067	-3
0.98433	-3
0.98800	-3
0.99167	-3
0.99533	-3
0.99900	-3
1.00267	-3
1.00633	-3
1.01000	-3
1.01367	-3
1.01733	-2
1.02100	-2
1.02467	-2
1.02833	-2
1.03200	-2
1.03567	-2
1.03933	-2
1.04300	-3
1.04667	-3
1.05033	-3
1.05400	-3
1.05767	-3
1.06133	-3
1.06500	-3
1.06867	-3
1.07233	-4
1.07600	-4
1.07967	-4
1.08333	-3
1.08700	-3
1.09067	-3
1.09433	-2
1.09800	-2
1.10167	-2
1.10533	-2
1.10900	-2
1.11267	-2
1.11633	-2
1.12000	-2
1.12367	-2
1.12733	-2
1.13100	-2
1.13467	-2
1.13833	-2
1.14200	-2
1.14567	-2
1.14933	-2
1.15300	-2
1.15667	-2
1.16033	-3
1.16400	-3
1.16767	-3
1.17133	-3
1.17500	-3
1.17867	-4
1.18233	-4
1.18600	-4
1.18967	-5
1.19333	-5
1.19700	-5
1.20067	-6
1.20433	-6
1.20800	-6
1.21167	-6
1.21533	-6
1.21900	-6
1.22267	-6
1.22633	-5
1.23000	-5
1.23367	-5
1.23733	-5
1.24100	-4
1.24467	-4
1.24833	-3
1.25200	-3
1.25567	-3
1.25933	-2
1.26300	-2
1.26667	-2
1.27033	-1
1.27400	-1
1.27767	-1
1.28133	-1
1.28500	-1
1.28867	-1
1.29233	-1
1.29600	-1
1.29967	-1
1.30333	-1
1.30700	-1
1.31067	-1
1.31433	-1
1.31800	-1
1.32167	-1
1.32533	-1
1.32900	-2
1.33267	-2
1.33633	-2
1.34000	-2
1.34367	-2
1.34733	-1
1.35100	-1
1.35467	-2
1.35833	-2
1.36200	-1
1.36567	-1
1.36933	-1
1.37300	-1
1.37667	-1
1.38033	-1
1.38400	-0
1.38767	-0
1.39133	0
1.39500	0
1.39867	1
1.40233	1
1.40600	1
1.40967	1
1.41333	0
1.41700	-0
1.42067	-1
1.42433	-1
1.42800	-1
1.43167	-2
1.43533	-2
1.43900	-2
1.44267	-2
1.44633	-2
1.45000	-2
1.45367	-2
1.45733	-2
1.46100	-2
1.46467	-2
1.46833	-2
1.47200	-2
1.47567	-3
1.47933	-3
1.48300	-3
1.48667	-3
1.49033	-3
1.49400	-4
1.49767	-4
1.50133	-4
1.50500	-5
1.50867	-4
1.51233	-4
1.51600	-4
1.51967	-3
1.52333	-3
1.52700	-3
1.53067	-2
1.53433	-2
1.53800	-2
1.54167	-2
1.54533	-1
1.54900	-1
1.55267	-1
1.55633	-1
1.56000	-1
1.56367	-1
1.56733	-1
1.57100	-1
1.57467	-1
1.57833	-1
1.58200	-1
1.58567	-1
1.58933	-2
1.59300	-3
1.59667	-4
1.60033	-5
1.60400	-6
1.60767	-8
1.61133	-10
1.61500	-12
1.61867	-14
1.62233	-17
1.62600	-20
1.62967	-23
1.63333	-26
1.63700	-29
1.64067	-32
1.64433	-36
1.64800	-40
1.65167	-43
1.65533	-47
1.65900	-51
1.66267	-54
1.66633	-59
1.67000	-63
1.67367	-68
1.67733	-73
1.68100	-79
1.68467	-84
1.68833	-88
1.69200	-93
1.69567	-96
1.69933	-100
1.70300	-103
1.70667	-106
1.71033	-108
1.71400	-110
1.71767	-111
1.72133	-113
1.72500	-114
1.72867	-115
1.73233	-117
1.73600	-118
1.73967	-119
1.74333	-120
1.74700	-121
1.75067	-121
1.75433	-121
1.75800	-121
1.76167	-121
1.76533	-120
1.76900	-120
1.77267	-120
1.77633	-120
1.78000	-120
1.78367	-120
1.78733	-121
1.79100	-122
1.79467	-122
1.79833	-123
1.80200	-123
1.80567	-124
1.80933	-123
1.81300	-123
1.81667	-123
1.82033	-123
1.82400	-123
1.82767	-123
1.83133	-124
1.83500	-125
1.83867	-125
1.84233	-125
1.84600	-126
1.84967	-126
1.85333	-126
1.85700	-126
1.86067	-126
1.86433	-127
1.86800	-127
1.87167	-126
1.87533	-126
1.87900	-125
1.88267	-125
1.88633	-124
1.89000	-123
1.89367	-123
1.89733	-122
1.90100	-122
1.90467	-122
1.90833	-122
1.91200	-122
1.91567	-122
1.91933	-122
1.92300	-122
1.92667	-121
1.93033	-120
1.93400	-119
1.93767	-118
1.94133	-118
1.94500	-118
1.94867	-118
1.95233	-118
1.95600	-117
1.95967	-117
1.96333	-117
1.96700	-117
1.97067	-117
1.97433	-117
1.97800	-118
1.98167	-118
1.98533	-118
1.98900	-118
1.99267	-118
1.99633	-118
2.00000	-117
2.00367	-117
2.00733	-116
2.01100	-116
2.01467	-116
2.01833	-115
2.02200	-114
2.02567	-114
2.02933	-113
2.03300	-113
2.03667	-113
2.04033	-113
2.04400	-113
2.04767	-114
2.05133	-114
2.05500	-114
2.05867	-115
2.06233	-115
2.06600	-114
2.06967	-113
2.07333	-113
2.07700	-112
2.08067	-111
2.08433	-110
2.08800	-109
2.09167	-109
2.09533	-108
2.09900	-108
2.10267	-108
2.10633	-107
2.11000	-107
2.11367	-107
2.11733	-107
2.12100	-107
2.12467	-107
2.12833	-106
2.13200	-106
2.13567	-105
2.13933	-105
2.14300	-105
2.14667	-105
2.15033	-105
2.15400	-105
2.15767	-104
2.16133	-104
2.16500	-104
2.16867	-104
2.17233	-104
2.17600	-104
2.17967	-104
2.18333	-104
2.18700	-104
2.19067	-104
2.19433	-104
2.19800	-103
2.20167	-103
2.20533	-102
2.20900	-101
2.21267	-101
2.21633	-100
2.22000	-99
2.22367	-99
2.22733	-98
2.23100	-97
2.23467	-97
2.23833	-96
2.24200	-96
2.24567	-96
2.24933	-96
2.25300	-96
2.25667	-96
2.26033	-97
2.26400	-97
2.26767	-96
2.27133	-96
2.27500	-96
2.27867	-95
2.28233	-95
2.28600	-95
2.28967	-94
2.29333	-94
2.29700	-93
2.30067	-92
2.30433	-92
2.30800	-91
2.31167	-90
2.31533	-90
2.31900	-90
2.32267	-90
2.32633	-90
2.33000	-91
2.33367	-91
2.33733	-91
2.34100	-91
2.34467	-90
2.34833	-89
2.35200	-88
2.35567	-88
2.35933	-87
2.36300	-87
2.36667	-85
2.37033	-84
2.37400	-82
2.37767	-80
2.38133	-76
2.38500	-73
2.38867	-69
2.39233	-64
2.39600	-60
2.39967	-55
2.40333	-50
2.40700	-45
2.41067	-40
2.41433	-36
2.41800	-32
2.42167	-28
2.42533	-25
2.42900	-23
2.43267	-21
2.43633	-18
2.44000	-16
2.44367	-14
2.44733	-12
2.45100	-10
2.45467	-8
2.45833	-6
2.46200	-5
2.46567	-3
2.46933	-2
2.47300	-1
2.47667	1
2.48033	2
2.48400	2
2.48767	3
2.49133	4
2.49500	5
2.49867	6
2.50233	7
2.50600	8
2.50967	9
2.51333	9
2.51700	10
2.52067	10
2.52433	10
2.52800	11
2.53167	11
2.53533	12
2.53900	12
2.54267	12
2.54633	13
2.55000	13
2.55367	13
2.55733	13
2.56100	13
2.56467	13
2.56833	13
2.57200	13
2.57567	13
2.57933	13
2.58300	13
2.58667	13
2.59033	13
2.59400	13
2.59767	13
2.60133	13
2.60500	14
2.60867	14
2.61233	15
2.61600	15
2.61967	16
2.62333	16
2.62700	16
2.63067	17
2.63433	17
2.63800	17
2.64167	17
2.64533	17
2.64900	18
2.65267	18
2.65633	18
2.66000	18
2.66367	19
2.66733	19
2.67100	20
2.67467	20
2.67833	20
2.68200	20
2.68567	20
2.68933	20
2.69300	20
2.69667	21
2.70033	21
2.70400	21
2.70767	21
2.71133	22
2.71500	22
2.71867	23
2.72233	23
2.72600	24
2.72967	24
2.73333	24
2.73700	24
2.74067	23
2.74433	23
2.74800	22
2.75167	21
2.75533	21
2.75900	21
2.76267	21
2.76633	21
2.77000	22
2.77367	22
2.77733	22
2.78100	22
2.78467	22
2.78833	22
2.79200	22
2.79567	23
2.79933	23
2.80300	23
2.80667	24
2.81033	24
2.81400	24
2.81767	25
2.82133	25
2.82500	25
2.82867	25
2.83233	25
2.83600	26
2.83967	26
2.84333	25
2.84700	24
2.85067	22
2.85433	19
2.85800	13
2.86167	4
2.86533	-8
2.86900	-24
2.87267	-43
2.87633	-67
2.88000	-95
2.88367	-127
2.88733	-162
2.89100	-201
2.89467	-243
2.89833	-287
2.90200	-334
2.90567	-383
2.90933	-433
2.91300	-483
2.91667	-535
2.92033	-586
2.92400	-638
2.92767	-689
2.93133	-740
2.93500	-790
2.93867	-841
2.94233	-895
2.94600	-955
2.94967	-1019
2.95333	-1077
2.95700	-1118
2.96067	-1133
2.96433	-1121
2.96800	-1084
2.97167	-1028
2.97533	-957
2.97900	-879
2.98267	-796
2.98633	-714
2.99000	-635
2.99367	-560
2.99733	-490
3.00100	-427
3.00467	-370
3.00833	-319
3.01200	-274
3.01567	-235
3.01933	-200
3.02300	-170
3.02667	-144
3.03033	-121
3.03400	-102
3.03767	-86
3.04133	-71
3.04500	-59
3.04867	-49
3.05233	-40
3.05600	-32
3.05967	-25
3.06333	-20
3.06700	-15
3.07067	-11
3.07433	-8
3.07800	-5
3.08167	-2
3.08533	0
3.08900	2
3.09267	4
3.09633	6
3.10000	7
3.10367	8
3.10733	9
3.11100	10
3.11467	11
3.11833	11
3.12200	12
3.12567	13
3.12933	13
3.13300	13
3.13667	14
3.14033	14
3.14400	15
3.14767	15
3.15133	15
3.15500	16
3.15867	16
3.16233	16
3.16600	17
3.16967	17
3.17333	18
3.17700	18
3.18067	18
3.18433	18
3.18800	18
3.19167	18
3.19533	18
3.19900	18
3.20267	19
3.20633	19
3.21000	19
3.21367	19
3.21733	19
3.22100	19
3.22467	20
3.22833	19
3.23200	20
3.23567	20
3.23933	20
3.24300	20
3.24667	20
3.25033	19
3.25400	19
3.25767	19
3.26133	19
3.26500	19
3.26867	20
3.27233	20
3.27600	20
3.27967	21
3.28333	21
3.28700	22
3.29067	22
3.29433	22
3.29800	23
3.30167	23
3.30533	23
3.30900	23
3.31267	24
3.31633	24
3.32000	25
3.32367	25
3.32733	26
3.33100	26
3.33467	26
3.33833	26
3.34200	26
3.34567	26
3.34933	26
3.35300	26
3.35667	26
3.36033	26
3.36400	26
3.36767	26
3.37133	26
3.37500	26
3.37867	27
3.38233	27
3.38600	27
3.38967	27
3.39333	27
3.39700	27
3.40067	27
3.40433	27
3.40800	27
3.41167	27
3.41533	27
3.41900	27
3.42267	28
3.42633	28
3.43000	28
3.43367	28
3.43733	28
3.44100	28
3.44467	28
3.44833	28
3.45200	28
3.45567	28
3.45933	28
3.46300	28
3.46667	28
3.47033	28
3.47400	28
3.47767	28
3.48133	28
3.48500	28
3.48867	28
3.49233	27
3.49600	27
3.49967	27
3.50333	27
3.50700	27
3.51067	27
3.51433	27
3.51800	27
3.52167	26
3.52533	26
3.52900	26
3.53267	25
3.53633	25
3.54000	25
3.54367	25
3.54733	25
3.55100	25
3.55467	24
3.55833	25
3.56200	25
3.56567	25
3.56933	25
3.57300	26
3.57667	26
3.58033	26
3.58400	26
3.58767	26
3.59133	26
3.59500	26
3.59867	26
3.60233	26
3.60600	26
3.60967	26
3.61333	26
3.61700	26
3.62067	26
3.62433	25
3.62800	25
3.63167	25
3.63533	25
3.63900	25
3.64267	25
3.64633	25
3.65000	25
3.65367	25
3.65733	25
3.66100	25
3.66467	25
3.66833	26
3.67200	26
3.67567	26
3.67933	27
3.68300	27
3.68667	26
3.69033	26
3.69400	26
3.69767	26
3.70133	26
3.70500	25
3.70867	25
3.71233	25
3.71600	25
3.71967	25
3.72333	25
3.72700	25
3.73067	25
3.73433	25
3.73800	25
3.74167	25
3.74533	25
3.74900	25
3.75267	25
3.75633	25
3.76000	25
3.76367	25
3.76733	25
3.77100	25
3.77467	25
3.77833	25
3.78200	25
3.78567	25
3.78933	25
3.79300	25
3.79667	25
3.80033	24
3.80400	24
3.80767	24
3.81133	25
3.81500	25
3.81867	25
3.82233	25
3.82600	25
3.82967	25
3.83333	25
3.83700	25
3.84067	25
3.84433	25
3.84800	25
3.85167	25
3.85533	25
3.85900	25
3.86267	25
3.86633	25
3.87000	25
3.87367	24
3.87733	24
3.88100	24
3.88467	24
3.88833	24
3.89200	25
3.89567	25
3.89933	25
3.90300	25
3.90667	26
3.91033	26
3.91400	26
3.91767	26
3.92133	26
3.92500	27
3.92867	27
3.93233	27
3.93600	27
3.93967	27
3.94333	27
3.94700	27
3.95067	27
3.95433	27
3.95800	27
3.96167	27
3.96533	27
3.96900	28
3.97267	28
3.97633	28
3.98000	28
3.98367	28
3.98733	28
3.99100	28
3.99467	28
3.99833	28

[Chromatogram (Ch3)]
Interval(msec)	220
# of Points	1091
Start Time(min)	0.002
End Time(min)	3.998
R.Time (min)	Intensity
0.00167	1
0.00533	3
0.00900	4
0.01267	4
0.01633	1
0.02000	0
0.02367	-1
0.02733	-4
0.03100	-5
0.03467	-7
0.03833	-9
0.04200	-10
0.04567	-12
0.04933	-11
0.05300	-9
0.05667	-8
0.06033	-7
0.06400	-5
0.06767	-3
0.07133	-1
0.07500	-1
0.07867	-2
0.08233	-2
0.08600	-3
0.08967	-4
0.09333	-4
0.09700	-5
0.10067	-4
0.10433	-4
0.10800	-4
0.11167	-6
0.11533	-8
0.11900	-6
0.12267	-6
0.12633	-6
0.13000	-8
0.13367	-7
0.13733	-6
0.14100	-5
0.14467	-4
0.14833	-4
0.15200	-5
0.15567	-6
0.15933	-7
0.16300	-8
0.16667	-10
0.17033	-11
0.17400	-11
0.17767	-8
0.18133	-6
0.18500	-4
0.18867	-4
0.19233	-3
0.19600	-3
0.19967	-4
0.20333	-6
0.20700	-8
0.21067	-8
0.21433	-8
0.21800	-9
0.22167	-8
0.22533	-7
0.22900	-8
0.23267	-10
0.23633	-9
0.24000	-9
0.24367	-11
0.24733	-12
0.25100	-9
0.25467	-8
0.25833	-7
0.26200	-7
0.26567	-7
0.26933	-8
0.27300	-10
0.27667	-10
0.28033	-10
0.28400	-14
0.28767	-16
0.29133	-16
0.29500	-14
0.29867	-11
0.30233	-8
0.30600	-7
0.30967	-7
0.31333	-5
0.31700	-4
0.32067	-2
0.32433	-1
0.32800	-2
0.33167	-4
0.33533	-8
0.33900	-10
0.34267	-10
0.34633	-8
0.35000	-7
0.35367	-8
0.35733	-10
0.36100	-10
0.36467	-10
0.36833	-11
0.37200	-12
0.37567	-12
0.37933	-10
0.38300	-8
0.38667	-7
0.39033	-8
0.39400	-8
0.39767	-7
0.40133	-6
0.40500	-5
0.40867	-4
0.41233	-6
0.41600	-6
0.41967	-8
0.42333	-10
0.42700	-13
0.43067	-11
0.43433	-11
0.43800	-12
0.44167	-12
0.44533	-10
0.44900	-10
0.45267	-10
0.45633	-12
0.46000	-11
0.46367	-10
0.46733	-9
0.47100	-11
0.47467	-13
0.47833	-14
0.48200	-14
0.48567	-12
0.48933	-10
0.49300	-10
0.49667	-10
0.50033	-11
0.50400	-14
0.50767	-14
0.51133	-13
0.51500	-13
0.51867	-15
0.52233	-15
0.52600	-16
0.52967	-16
0.53333	-15
0.53700	-14
0.54067	-14
0.54433	-14
0.54800	-11
0.55167	-9
0.55533	-9
0.55900	-9
0.56267	-10
0.56633	-9
0.57000	-11
0.57367	-12
0.57733	-13
0.58100	-15
0.58467	-15
0.58833	-14
0.59200	-12
0.59567	-12
0.59933	-14
0.60300	-13
0.60667	-13
0.61033	-13
0.61400	-14
0.61767	-12
0.62133	-10
0.62500	-8
0.62867	-8
0.63233	-9
0.63600	-9
0.63967	-7
0.64333	-6
0.64700	-9
0.65067	-9
0.65433	-8
0.65800	-8
0.66167	-8
0.66533	-8
0.66900	-9
0.67267	-10
0.67633	-11
0.68000	-12
0.68367	-13
0.68733	-15
0.69100	-16
0.69467	-16
0.69833	-18
0.70200	-19
0.70567	-19
0.70933	-17
0.71300	-15
0.71667	-13
0.72033	-9
0.72400	-8
0.72767	-10
0.73133	-11
0.73500	-12
0.73867	-14
0.74233	-14
0.74600	-13
0.74967	-12
0.75333	-12
0.75700	-14
0.76067	-14
0.76433	-13
0.76800	-13
0.77167	-13
0.77533	-13
0.77900	-13
0.78267	-14
0.78633	-16
0.79000	-17
0.79367	-18
0.79733	-18
0.80100	-17
0.80467	-16
0.80833	-16
0.81200	-16
0.81567	-15
0.81933	-15
0.82300	-14
0.82667	-13
0.83033	-12
0.83400	-11
0.83767	-12
0.84133	-12
0.84500	-10
0.84867	-8
0.85233	-9
0.85600	-10
0.85967	-11
0.86333	-11
0.86700	-12
0.87067	-13
0.87433	-14
0.87800	-15
0.88167	-14
0.88533	-15
0.88900	-17
0.89267	-17
0.89633	-16
0.90000	-14
0.90367	-12
0.90733	-10
0.91100	-9
0.91467	-10
0.91833	-11
0.92200	-10
0.92567	-10
0.92933	-10
0.93300	-11
0.93667	-11
0.94033	-10
0.94400	-11
0.94767	-12
0.95133	-11
0.95500	-12
0.95867	-14
0.96233	-15
0.96600	-16
0.96967	-16
0.97333	-14
0.97700	-12
0.98067	-9
0.98433	-10
0.98800	-11
0.99167	-12
0.99533	-12
0.99900	-12
1.00267	-12
1.00633	-11
1.01000	-11
1.01367	-10
1.01733	-9
1.02100	-9
1.02467	-8
1.02833	-8
1.03200	-8
1.03567	-8
1.03933	-7
1.04300	-6
1.04667	-8
1.05033	-9
1.05400	-11
1.05767	-13
1.06133	-13
1.06500	-11
1.06867	-12
1.07233	-13
1.07600	-13
1.07967	-12
1.08333	-11
1.08700	-11
1.09067	-9
1.09433	-10
1.09800	-11
1.10167	-10
1.10533	-10
1.10900	-11
1.11267	-13
1.11633	-14
1.12000	-14
1.12367	-16
1.12733	-18
1.13100	-19
1.13467	-18
1.13833	-18
1.14200	-16
1.14567	-15
1.14933	-15
1.15300	-15
1.15667	-17
1.16033	-17
1.16400	-15
1.16767	-13
1.17133	-12
1.17500	-12
1.17867	-12
1.18233	-11
1.18600	-13
1.18967	-14
1.19333	-13
1.19700	-11
1.20067	-8
1.20433	-7
1.20800	-7
1.21167	-7
1.21533	-7
1.21900	-8
1.22267	-10
1.22633	-11
1.23000	-10
1.23367	-10
1.23733	-11
1.24100	-13
1.24467	-11
1.24833	-9
1.25200	-8
1.25567	-10
1.25933	-12
1.26300	-11
1.26667	-11
1.27033	-10
1.27400	-12
1.27767	-13
1.28133	-14
1.28500	-15
1.28867	-15
1.29233	-14
1.29600	-13
1.29967	-13
1.30333	-14
1.30700	-13
1.31067	-12
1.31433	-12
1.31800	-12
1.32167	-10
1.32533	-12
1.32900	-13
1.33267	-13
1.33633	-12
1.34000	-10
1.34367	-7
1.34733	-7
1.35100	-9
1.35467	-11
1.35833	-11
1.36200	-9
1.36567	-9
1.36933	-11
1.37300	-11
1.37667	-10
1.38033	-10
1.38400	-10
1.38767	-13
1.39133	-15
1.39500	-16
1.39867	-16
1.40233	-17
1.40600	-17
1.40967	-16
1.41333	-15
1.41700	-17
1.42067	-17
1.42433	-16
1.42800	-14
1.43167	-12
1.43533	-12
1.43900	-11
1.44267	-9
1.44633	-7
1.45000	-7
1.45367	-9
1.45733	-10
1.46100	-12
1.46467	-13
1.46833	-14
1.47200	-15
1.47567	-13
1.47933	-12
1.48300	-12
1.48667	-13
1.49033	-15
1.49400	-15
1.49767	-15
1.50133	-15
1.50500	-15
1.50867	-13
1.51233	-12
1.51600	-11
1.51967	-11
1.52333	-11
1.52700	-12
1.53067	-13
1.53433	-14
1.53800	-14
1.54167	-13
1.54533	-12
1.54900	-12
1.55267	-12
1.55633	-13
1.56000	-12
1.56367	-10
1.56733	-9
1.57100	-11
1.57467	-14
1.57833	-16
1.58200	-15
1.58567	-15
1.58933	-16
1.59300	-16
1.59667	-16
1.60033	-16
1.60400	-16
1.60767	-14
1.61133	-14
1.61500	-15
1.61867	-17
1.62233	-16
1.62600	-14
1.62967	-13
1.63333	-13
1.63700	-12
1.64067	-12
1.64433	-13
1.64800	-14
1.65167	-13
1.65533	-13
1.65900	-11
1.66267	-12
1.66633	-12
1.67000	-10
1.67367	-10
1.67733	-12
1.68100	-12
1.68467	-12
1.68833	-10
1.69200	-6
1.69567	-4
1.69933	-4
1.70300	-6
1.70667	-8
1.71033	-6
1.71400	-5
1.71767	-5
1.72133	-7
1.72500	-5
1.72867	-3
1.73233	0
1.73600	2
1.73967	4
1.74333	4
1.74700	4
1.75067	2
1.75433	-0
1.75800	1
1.76167	3
1.76533	1
1.76900	1
1.77267	1
1.77633	1
1.78000	1
1.78367	3
1.78733	4
1.79100	8
1.79467	11
1.79833	13
1.80200	14
1.80567	14
1.80933	12
1.81300	11
1.81667	11
1.82033	11
1.82400	12
1.82767	11
1.83133	12
1.83500	15
1.83867	15
1.84233	17
1.84600	19
1.84967	20
1.85333	19
1.85700	18
1.86067	19
1.86433	18
1.86800	16
1.87167	15
1.87533	14
1.87900	15
1.88267	15
1.88633	15
1.89000	14
1.89367	15
1.89733	16
1.90100	15
1.90467	16
1.90833	17
1.91200	16
1.91567	15
1.91933	16
1.92300	16
1.92667	18
1.93033	18
1.93400	17
1.93767	17
1.94133	17
1.94500	16
1.94867	18
1.95233	19
1.95600	21
1.95967	24
1.96333	26
1.96700	29
1.97067	33
1.97433	35
1.97800	36
1.98167	38
1.98533	39
1.98900	39
1.99267	37
1.99633	35
2.00000	36
2.00367	40
2.00733	43
2.01100	44
2.01467	44
2.01833	46
2.02200	47
2.02567	48
2.02933	46
2.03300	46
2.03667	47
2.04033	49
2.04400	50
2.04767	48
2.05133	49
2.05500	51
2.05867	51
2.06233	52
2.06600	54
2.06967	56
2.07333	59
2.07700	62
2.08067	64
2.08433	64
2.08800	61
2.09167	61
2.09533	63
2.09900	67
2.10267	69
2.10633	69
2.11000	68
2.11367	69
2.11733	70
2.12100	70
2.12467	72
2.12833	74
2.13200	77
2.13567	81
2.13933	85
2.14300	87
2.14667	88
2.15033	88
2.15400	88
2.15767	90
2.16133	92
2.16500	91
2.16867	90
2.17233	92
2.17600	96
2.17967	99
2.18333	102
2.18700	103
2.19067	104
2.19433	104
2.19800	105
2.20167	106
2.20533	107
2.20900	109
2.21267	110
2.21633	108
2.22000	109
2.22367	112
2.22733	113
2.23100	113
2.23467	112
2.23833	112
2.24200	113
2.24567	114
2.24933	117
2.25300	119
2.25667	122
2.26033	126
2.26400	126
2.26767	128
2.27133	128
2.27500	129
2.27867	130
2.28233	131
2.28600	133
2.28967	135
2.29333	134
2.29700	132
2.30067	131
2.30433	132
2.30800	136
2.31167	139
2.31533	141
2.31900	142
2.32267	144
2.32633	147
2.33000	149
2.33367	151
2.33733	153
2.34100	155
2.34467	155
2.34833	154
2.35200	154
2.35567	156
2.35933	158
2.36300	158
2.36667	158
2.37033	159
2.37400	160
2.37767	158
2.38133	157
2.38500	158
2.38867	159
2.39233	160
2.39600	160
2.39967	162
2.40333	164
2.40700	165
2.41067	166
2.41433	167
2.41800	170
2.42167	173
2.42533	175
2.42900	173
2.43267	171
2.43633	171
2.44000	172
2.44367	174
2.44733	177
2.45100	180
2.45467	183
2.45833	179
2.46200	171
2.46567	162
2.46933	152
2.47300	144
2.47667	136
2.48033	129
2.48400	124
2.48767	119
2.49133	116
2.49500	115
2.49867	112
2.50233	109
2.50600	107
2.50967	103
2.51333	101
2.51700	100
2.52067	98
2.52433	95
2.52800	92
2.53167	92
2.53533	92
2.53900	93
2.54267	94
2.54633	95
2.55000	95
2.55367	94
2.55733	92
2.56100	90
2.56467	89
2.56833	88
2.57200	88
2.57567	88
2.57933	90
2.58300	93
2.58667	93
2.59033	91
2.59400	89
2.59767	87
2.60133	80
2.60500	69
2.60867	53
2.61233	32
2.61600	6
2.61967	-22
2.62333	-48
2.62700	-75
2.63067	-99
2.63433	-121
2.63800	-139
2.64167	-152
2.64533	-161
2.64900	-165
2.65267	-166
2.65633	-165
2.66000	-160
2.66367	-153
2.66733	-149
2.67100	-143
2.67467	-135
2.67833	-126
2.68200	-117
2.68567	-108
2.68933	-99
2.69300	-89
2.69667	-78
2.70033	-70
2.70400	-63
2.70767	-56
2.71133	-50
2.71500	-45
2.71867	-40
2.72233	-35
2.72600	-29
2.72967	-24
2.73333	-19
2.73700	-13
2.74067	-8
2.74433	0
2.74800	9
2.75167	16
2.75533	19
2.75900	20
2.76267	21
2.76633	24
2.77000	26
2.77367	28
2.77733	32
2.78100	36
2.78467	38
2.78833	39
2.79200	42
2.79567	44
2.79933	47
2.80300	50
2.80667	53
2.81033	54
2.81400	55
2.81767	56
2.82133	57
2.82500	63
2.82867	83
2.83233	130
2.83600	221
2.83967	382
2.84333	632
2.84700	991
2.85067	1464
2.85433	2035
2.85800	2675
2.86167	3341
2.86533	3982
2.86900	4548
2.87267	4994
2.87633	5293
2.88000	5432
2.88367	5418
2.88733	5270
2.89100	5019
2.89467	4694
2.89833	4326
2.90200	3937
2.90567	3547
2.90933	3169
2.91300	2814
2.91667	2487
2.92033	2187
2.92400	1916
2.92767	1675
2.93133	1463
2.93500	1276
2.93867	1110
2.94233	968
2.94600	844
2.94967	734
2.95333	640
2.95700	557
2.96067	483
2.96433	420
2.96800	368
2.97167	325
2.97533	287
2.97900	253
2.98267	223
2.98633	200
2.99000	178
2.99367	159
2.99733	143
3.00100	130
3.00467	118
3.00833	107
3.01200	98
3.01567	92
3.01933	89
3.02300	85
3.02667	81
3.03033	74
3.03400	69
3.03767	67
3.04133	65
3.04500	62
3.04867	58
3.05233	54
3.05600	50
3.05967	48
3.06333	50
3.06700	50
3.07067	49
3.07433	47
3.07800	45
3.08167	46
3.08533	44
3.08900	42
3.09267	42
3.09633	41
3.10000	38
3.10367	37
3.10733	37
3.11100	36
3.11467	35
3.11833	37
3.12200	37
3.12567	36
3.12933	35
3.13300	36
3.13667	35
3.14033	35
3.14400	32
3.14767	30
3.15133	29
3.15500	29
3.15867	29
3.16233	30
3.16600	32
3.16967	34
3.17333	33
3.17700	32
3.18067	31
3.18433	29
3.18800	30
3.19167	30
3.19533	30
3.19900	29
3.20267	30
3.20633	29
3.21000	28
3.21367	28
3.21733	29
3.22100	29
3.22467	30
3.22833	31
3.23200	32
3.23567	33
3.23933	33
3.24300	32
3.24667	33
3.25033	32
3.25400	32
3.25767	34
3.26133	34
3.26500	33
3.26867	31
3.27233	28
3.27600	24
3.27967	22
3.28333	22
3.28700	23
3.29067	25
3.29433	27
3.29800	25
3.30167	21
3.30533	21
3.30900	22
3.31267	22
3.31633	22
3.32000	20
3.32367	18
3.32733	17
3.33100	15
3.33467	13
3.33833	12
3.34200	13
3.34567	11
3.34933	7
3.35300	6
3.35667	6
3.36033	6
3.36400	5
3.36767	4
3.37133	5
3.37500	3
3.37867	4
3.38233	5
3.38600	4
3.38967	0
3.39333	-2
3.39700	-6
3.40067	-7
3.40433	-8
3.40800	-7
3.41167	-8
3.41533	-10
3.41900	-11
3.42267	-11
3.42633	-13
3.43000	-15
3.43367	-16
3.43733	-18
3.44100	-19
3.44467	-21
3.44833	-22
3.45200	-23
3.45567	-24
3.45933	-22
3.46300	-20
3.46667	-21
3.47033	-25
3.47400	-27
3.47767	-29
3.48133	-30
3.48500	-29
3.48867	-29
3.49233	-29
3.49600	-29
3.49967	-32
3.50333	-33
3.50700	-32
3.51067	-32
3.51433	-33
3.51800	-33
3.52167	-33
3.52533	-35
3.52900	-37
3.53267	-37
3.53633	-38
3.54000	-42
3.54367	-46
3.54733	-47
3.55100	-47
3.55467	-48
3.55833	-48
3.56200	-47
3.56567	-46
3.56933	-48
3.57300	-48
3.57667	-50
3.58033	-53
3.58400	-54
3.58767	-54
3.59133	-53
3.59500	-53
3.59867	-53
3.60233	-53
3.60600	-53
3.60967	-52
3.61333	-53
3.61700	-55
3.62067	-57
3.62433	-59
3.62800	-59
3.63167	-60
3.63533	-62
3.63900	-65
3.64267	-67
3.64633	-68
3.65000	-68
3.65367	-67
3.65733	-67
3.66100	-67
3.66467	-66
3.66833	-64
3.67200	-64
3.67567	-66
3.67933	-67
3.68300	-66
3.68667	-65
3.69033	-62
3.69400	-63
3.69767	-63
3.70133	-64
3.70500	-66
3.70867	-66
3.71233	-66
3.71600	-66
3.71967	-67
3.72333	-68
3.72700	-69
3.73067	-71
3.73433	-71
3.73800	-72
3.74167	-73
3.74533	-73
3.74900	-72
3.75267	-73
3.75633	-75
3.76000	-76
3.76367	-75
3.76733	-72
3.77100	-71
3.77467	-72
3.77833	-71
3.78200	-71
3.78567	-73
3.78933	-73
3.79300	-72
3.79667	-73
3.80033	-71
3.80400	-70
3.80767	-71
3.81133	-69
3.81500	-69
3.81867	-71
3.82233	-72
3.82600	-74
3.82967	-73
3.83333	-73
3.83700	-73
3.84067	-71
3.84433	-69
3.84800	-71
3.85167	-76
3.85533	-78
3.85900	-77
3.86267	-74
3.86633	-71
3.87000	-70
3.87367	-70
3.87733	-72
3.88100	-75
3.88467	-77
3.88833	-78
3.89200	-78
3.89567	-77
3.89933	-78
3.90300	-79
3.90667	-78
3.91033	-78
3.91400	-80
3.91767	-83
3.92133	-84
3.92500	-82
3.92867	-82
3.93233	-84
3.93600	-84
3.93967	-83
3.94333	-83
3.94700	-84
3.95067	-82
3.95433	-81
3.95800	-80
3.96167	-81
3.96533	-83
3.96900	-84
3.97267	-86
3.97633	-86
3.98000	-85
3.98367	-83
3.98733	-80
3.99100	-79
3.99467	-80
3.99833	-81

[Status Trace (Column Oven Temperature)]
Interval(msec)	1000
# of Points	240
Start Time(min)	0.003
End Time(min)	3.986
Intensity Units	
Intensity Multiplier	1
R.Time (min)	Intensity
0.00313	35.00
0.01980	35.00
0.03647	35.00
0.05313	34.99
0.06980	35.00
0.08647	35.00
0.10313	35.01
0.11980	35.01
0.13647	35.00
0.15313	34.99
0.16980	34.99
0.18647	34.98
0.20313	35.00
0.21980	35.01
0.23647	35.03
0.25313	35.03
0.26980	35.02
0.28647	35.01
0.30313	35.01
0.31980	35.01
0.33647	35.02
0.35313	35.02
0.36980	35.00
0.38647	35.01
0.40313	35.01
0.41980	35.01
0.43647	35.01
0.45313	35.01
0.46980	35.00
0.48647	35.00
0.50313	34.99
0.51980	34.98
0.53647	34.97
0.55313	34.97
0.56980	34.96
0.58647	34.96
0.60313	34.97
0.61980	34.97
0.63647	34.98
0.65313	34.98
0.66980	34.98
0.68647	35.00
0.70313	35.00
0.71980	35.01
0.73647	35.01
0.75313	35.01
0.76980	35.01
0.78647	35.00
0.80313	35.00
0.81980	35.01
0.83647	35.00
0.85313	34.99
0.86980	34.98
0.88647	34.98
0.90313	34.98
0.91980	34.97
0.93647	34.98
0.95313	34.98
0.96980	34.99
0.98647	34.99
1.00313	35.00
1.01980	35.00
1.03647	34.99
1.05313	34.99
1.06980	34.99
1.08647	34.99
1.10313	34.99
1.11980	35.00
1.13647	35.00
1.15313	35.00
1.16980	35.00
1.18647	35.02
1.20313	35.03
1.21980	35.04
1.23647	35.03
1.25313	35.03
1.26980	35.02
1.28647	35.00
1.30313	35.01
1.31980	35.01
1.33647	35.02
1.35313	35.02
1.36980	35.00
1.38647	35.00
1.40313	34.99
1.41980	34.99
1.43647	34.99
1.45313	34.99
1.46980	35.00
1.48647	35.01
1.50313	35.00
1.51980	34.99
1.53647	34.99
1.55313	34.97
1.56980	34.97
1.58647	34.99
1.60313	35.04
1.61980	35.14
1.63647	35.31
1.65313	35.53
1.66980	35.85
1.68647	36.22
1.70313	36.57
1.71980	36.92
1.73647	37.27
1.75313	37.59
1.76980	37.89
1.78647	38.22
1.80313	38.56
1.81980	38.89
1.83647	39.22
1.85313	39.57
1.86980	39.90
1.88647	40.22
1.90313	40.55
1.91980	40.88
1.93647	41.19
1.95313	41.52
1.96980	41.84
1.98647	42.18
2.00313	42.51
2.01980	42.82
2.03647	43.14
2.05313	43.48
2.06980	43.81
2.08647	44.11
2.10313	44.43
2.11980	44.76
2.13647	45.08
2.15313	45.42
2.16980	45.75
2.18647	46.09
2.20313	46.42
2.21980	46.74
2.23647	47.07
2.25313	47.40
2.26980	47.73
2.28647	48.07
2.30313	48.38
2.31980	48.74
2.33647	49.07
2.35313	49.34
2.36980	49.57
2.38647	49.66
2.40313	49.66
2.41980	49.67
2.43647	49.70
2.45313	49.70
2.46980	49.70
2.48647	49.72
2.50313	49.73
2.51980	49.75
2.53647	49.76
2.55313	49.78
2.56980	49.80
2.58647	49.80
2.60313	49.81
2.61980	49.82
2.63647	49.84
2.65313	49.85
2.66980	49.85
2.68647	49.86
2.70313	49.86
2.71980	49.84
2.73647	49.85
2.75313	49.88
2.76980	49.90
2.78647	49.91
2.80313	49.91
2.81980	49.91
2.83647	49.91
2.85313	49.91
2.86980	49.91
2.88647	49.91
2.90313	49.93
2.91980	49.94
2.93647	49.96
2.95313	49.98
2.96980	49.99
2.98647	50.00
3.00313	50.00
3.01980	50.01
3.03647	50.01
3.05313	50.01
3.06980	50.02
3.08647	50.02
3.10313	50.02
3.11980	50.03
3.13647	50.04
3.15313	50.05
3.16980	50.05
3.18647	50.06
3.20313	50.06
3.21980	50.07
3.23647	50.10
3.25313	50.11
3.26980	50.13
3.28647	50.12
3.30313	50.10
3.31980	50.09
3.33647	50.08
3.35313	50.08
3.36980	50.07
3.38647	50.05
3.40313	50.04
3.41980	50.01
3.43647	50.01
3.45313	50.00
3.46980	49.99
3.48647	49.99
3.50313	50.00
3.51980	50.00
3.53647	50.01
3.55313	50.01
3.56980	50.01
3.58647	50.02
3.60313	50.02
3.61980	50.03
3.63647	50.03
3.65313	50.03
3.66980	50.02
3.68647	50.02
3.70313	50.03
3.71980	50.03
3.73647	50.04
3.75313	50.04
3.76980	50.06
3.78647	50.06
3.80313	50.06
3.81980	50.07
3.83647	50.07
3.85313	50.08
3.86980	50.09
3.88647	50.10
3.90313	50.09
3.91980	50.08
3.93647	50.08
3.95313	50.08
3.96980	50.07
3.98647	50.06

[Status Trace (Injection Unit Temperature)]
Interval(msec)	1000
# of Points	240
Start Time(min)	0.003
End Time(min)	3.986
Intensity Units	
Intensity Multiplier	1
R.Time (min)	Intensity
0.00313	99.99
0.01980	99.99
0.03647	100.00
0.05313	99.99
0.06980	100.00
0.08647	99.99
0.10313	99.99
0.11980	99.99
0.13647	100.00
0.15313	100.00
0.16980	100.00
0.18647	100.00
0.20313	100.00
0.21980	100.00
0.23647	100.00
0.25313	99.99
0.26980	100.00
0.28647	100.00
0.30313	100.00
0.31980	100.00
0.33647	99.99
0.35313	100.00
0.36980	100.00
0.38647	100.00
0.40313	100.00
0.41980	100.00
0.43647	100.00
0.45313	100.00
0.46980	100.00
0.48647	100.00
0.50313	100.00
0.51980	100.00
0.53647	100.00
0.55313	99.99
0.56980	100.00
0.58647	100.00
0.60313	99.99
0.61980	100.00
0.63647	100.00
0.65313	100.00
0.66980	100.00
0.68647	100.00
0.70313	100.00
0.71980	100.00
0.73647	100.00
0.75313	100.00
0.76980	100.00
0.78647	100.00
0.80313	100.00
0.81980	100.00
0.83647	100.00
0.85313	100.00
0.86980	100.00
0.88647	100.00
0.90313	100.00
0.91980	100.00
0.93647	100.00
0.95313	100.00
0.96980	100.00
0.98647	100.00
1.00313	100.00
1.01980	100.00
1.03647	100.00
1.05313	99.99
1.06980	100.00
1.08647	100.00
1.10313	100.00
1.11980	100.00
1.13647	100.00
1.15313	100.00
1.16980	100.00
1.18647	100.00
1.20313	100.00
1.21980	100.00
1.23647	100.00
1.25313	100.00
1.26980	99.99
1.28647	100.00
1.30313	100.00
1.31980	100.00
1.33647	100.00
1.35313	99.99
1.36980	100.00
1.38647	100.00
1.40313	100.00
1.41980	100.00
1.43647	100.00
1.45313	100.00
1.46980	100.00
1.48647	100.00
1.50313	100.00
1.51980	99.99
1.53647	99.99
1.55313	99.99
1.56980	100.00
1.58647	100.00
1.60313	99.99
1.61980	100.00
1.63647	99.99
1.65313	100.00
1.66980	99.99
1.68647	99.99
1.70313	99.99
1.71980	99.99
1.73647	99.99
1.75313	99.99
1.76980	99.99
1.78647	99.99
1.80313	99.99
1.81980	99.99
1.83647	99.99
1.85313	99.99
1.86980	99.99
1.88647	99.98
1.90313	99.99
1.91980	99.99
1.93647	99.98
1.95313	99.98
1.96980	99.99
1.98647	99.98
2.00313	99.98
2.01980	99.98
2.03647	99.98
2.05313	99.98
2.06980	99.98
2.08647	99.98
2.10313	99.98
2.11980	99.98
2.13647	99.97
2.15313	99.98
2.16980	99.98
2.18647	99.97
2.20313	99.98
2.21980	99.97
2.23647	99.98
2.25313	99.98
2.26980	99.98
2.28647	99.98
2.30313	99.97
2.31980	99.98
2.33647	99.97
2.35313	99.98
2.36980	99.97
2.38647	99.98
2.40313	99.98
2.41980	99.98
2.43647	99.97
2.45313	99.97
2.46980	99.98
2.48647	99.98
2.50313	99.98
2.51980	99.98
2.53647	99.98
2.55313	99.98
2.56980	99.98
2.58647	99.99
2.60313	99.99
2.61980	99.99
2.63647	99.99
2.65313	99.99
2.66980	100.00
2.68647	99.99
2.70313	100.00
2.71980	100.00
2.73647	99.99
2.75313	100.00
2.76980	100.00
2.78647	100.00
2.80313	100.00
2.81980	100.01
2.83647	100.01
2.85313	100.01
2.86980	100.01
2.88647	100.01
2.90313	100.01
2.91980	100.02
2.93647	100.02
2.95313	100.02
2.96980	100.02
2.98647	100.02
3.00313	100.02
3.01980	100.02
3.03647	100.03
3.05313	100.03
3.06980	100.02
3.08647	100.03
3.10313	100.03
3.11980	100.03
3.13647	100.03
3.15313	100.03
3.16980	100.03
3.18647	100.03
3.20313	100.03
3.21980	100.03
3.23647	100.03
3.25313	100.04
3.26980	100.04
3.28647	100.04
3.30313	100.04
3.31980	100.04
3.33647	100.04
3.35313	100.04
3.36980	100.04
3.38647	100.04
3.40313	100.04
3.41980	100.04
3.43647	100.04
3.45313	100.05
3.46980	100.04
3.48647	100.04
3.50313	100.05
3.51980	100.05
3.53647	100.05
3.55313	100.05
3.56980	100.05
3.58647	100.05
3.60313	100.05
3.61980	100.05
3.63647	100.05
3.65313	100.05
3.66980	100.05
3.68647	100.05
3.70313	100.05
3.71980	100.05
3.73647	100.05
3.75313	100.05
3.76980	100.05
3.78647	100.05
3.80313	100.05
3.81980	100.05
3.83647	100.06
3.85313	100.05
3.86980	100.05
3.88647	100.05
3.90313	100.06
3.91980	100.06
3.93647	100.06
3.95313	100.06
3.96980	100.06
3.98647	100.06

[Status Trace (Carrier Gas Pressure)]
Interval(msec)	1000
# of Points	240
Start Time(min)	0.003
End Time(min)	3.986
Intensity Units	
Intensity Multiplier	1
R.Time (min)	Intensity
0.00313	58.00
0.01980	56.21
0.03647	56.37
0.05313	58.61
0.06980	59.90
0.08647	58.32
0.10313	57.97
0.11980	58.00
0.13647	58.01
0.15313	58.01
0.16980	58.00
0.18647	58.00
0.20313	58.00
0.21980	58.00
0.23647	58.00
0.25313	58.00
0.26980	58.00
0.28647	58.00
0.30313	58.00
0.31980	58.00
0.33647	58.00
0.35313	58.00
0.36980	58.00
0.38647	58.00
0.40313	58.00
0.41980	58.00
0.43647	58.00
0.45313	58.00
0.46980	58.00
0.48647	58.00
0.50313	58.00
0.51980	58.00
0.53647	58.00
0.55313	58.00
0.56980	58.00
0.58647	58.00
0.60313	58.00
0.61980	58.00
0.63647	58.00
0.65313	58.00
0.66980	58.00
0.68647	58.00
0.70313	58.00
0.71980	58.00
0.73647	58.00
0.75313	58.00
0.76980	58.00
0.78647	58.00
0.80313	58.00
0.81980	58.00
0.83647	58.00
0.85313	58.00
0.86980	58.00
0.88647	58.00
0.90313	58.00
0.91980	58.00
0.93647	58.00
0.95313	58.00
0.96980	58.00
0.98647	58.00
1.00313	58.00
1.01980	58.00
1.03647	58.00
1.05313	58.00
1.06980	58.00
1.08647	58.00
1.10313	58.00
1.11980	58.00
1.13647	58.00
1.15313	58.00
1.16980	58.00
1.18647	58.00
1.20313	58.00
1.21980	58.00
1.23647	58.00
1.25313	58.00
1.26980	58.00
1.28647	58.00
1.30313	58.00
1.31980	58.00
1.33647	58.00
1.35313	58.00
1.36980	58.00
1.38647	58.00
1.40313	58.00
1.41980	58.00
1.43647	58.00
1.45313	58.00
1.46980	58.00
1.48647	58.00
1.50313	58.00
1.51980	58.00
1.53647	58.00
1.55313	58.00
1.56980	58.00
1.58647	58.00
1.60313	58.00
1.61980	58.00
1.63647	58.00
1.65313	58.00
1.66980	58.01
1.68647	58.01
1.70313	58.00
1.71980	58.00
1.73647	58.00
1.75313	58.00
1.76980	58.00
1.78647	58.00
1.80313	58.00
1.81980	58.00
1.83647	58.00
1.85313	58.00
1.86980	58.00
1.88647	58.00
1.90313	58.00
1.91980	58.00
1.93647	58.00
1.95313	58.00
1.96980	58.00
1.98647	58.00
2.00313	58.00
2.01980	58.00
2.03647	58.00
2.05313	58.00
2.06980	58.00
2.08647	58.00
2.10313	58.00
2.11980	58.00
2.13647	58.00
2.15313	58.00
2.16980	58.00
2.18647	58.00
2.20313	58.00
2.21980	58.00
2.23647	58.00
2.25313	58.00
2.26980	58.00
2.28647	58.00
2.30313	58.00
2.31980	58.00
2.33647	58.00
2.35313	58.00
2.36980	58.00
2.38647	57.99
2.40313	57.99
2.41980	58.00
2.43647	58.00
2.45313	58.00
2.46980	58.00
2.48647	58.00
2.50313	57.97
2.51980	58.02
2.53647	57.99
2.55313	58.00
2.56980	58.00
2.58647	58.00
2.60313	58.00
2.61980	58.00
2.63647	58.00
2.65313	58.00
2.66980	58.00
2.68647	58.00
2.70313	58.00
2.71980	58.00
2.73647	58.00
2.75313	58.00
2.76980	58.00
2.78647	58.00
2.80313	58.00
2.81980	58.00
2.83647	58.00
2.85313	58.00
2.86980	58.00
2.88647	58.00
2.90313	58.00
2.91980	58.00
2.93647	58.00
2.95313	58.00
2.96980	58.00
2.98647	58.00
3.00313	58.00
3.01980	58.00
3.03647	58.00
3.05313	58.00
3.06980	58.00
3.08647	58.00
3.10313	58.00
3.11980	58.00
3.13647	58.00
3.15313	58.00
3.16980	58.00
3.18647	58.00
3.20313	58.00
3.21980	58.00
3.23647	58.00
3.25313	58.00
3.26980	58.00
3.28647	58.00
3.30313	58.00
3.31980	58.00
3.33647	58.00
3.35313	58.00
3.36980	58.00
3.38647	58.00
3.40313	58.00
3.41980	58.00
3.43647	58.00
3.45313	58.00
3.46980	58.00
3.48647	58.00
3.50313	58.00
3.51980	58.00
3.53647	58.00
3.55313	58.00
3.56980	58.00
3.58647	58.00
3.60313	58.00
3.61980	58.00
3.63647	58.00
3.65313	58.00
3.66980	58.00
3.68647	58.00
3.70313	58.00
3.71980	58.00
3.73647	58.00
3.75313	58.00
3.76980	58.00
3.78647	58.00
3.80313	58.00
3.81980	58.00
3.83647	58.00
3.85313	58.00
3.86980	58.00
3.88647	58.00
3.90313	58.00
3.91980	58.00
3.93647	58.00
3.95313	58.00
3.96980	58.00
3.98647	58.00

[Status Trace (Carrier Gas Flow)]
Interval(msec)	1000
# of Points	240
Start Time(min)	0.003
End Time(min)	3.986
Intensity Units	
Intensity Multiplier	1
R.Time (min)	Intensity
0.00313	34.52
0.01980	34.61
0.03647	34.54
0.05313	34.54
0.06980	34.51
0.08647	34.50
0.10313	34.52
0.11980	34.52
0.13647	34.52
0.15313	34.52
0.16980	34.52
0.18647	34.52
0.20313	34.52
0.21980	34.52
0.23647	34.52
0.25313	34.52
0.26980	34.52
0.28647	34.52
0.30313	34.52
0.31980	34.52
0.33647	34.52
0.35313	34.52
0.36980	34.52
0.38647	34.52
0.40313	34.52
0.41980	34.52
0.43647	34.52
0.45313	34.52
0.46980	34.52
0.48647	34.52
0.50313	34.52
0.51980	34.52
0.53647	34.52
0.55313	34.52
0.56980	34.52
0.58647	34.52
0.60313	34.52
0.61980	34.52
0.63647	34.52
0.65313	34.52
0.66980	34.52
0.68647	34.52
0.70313	34.52
0.71980	34.52
0.73647	34.52
0.75313	34.52
0.76980	34.52
0.78647	34.52
0.80313	34.52
0.81980	34.52
0.83647	34.52
0.85313	34.52
0.86980	34.52
0.88647	34.52
0.90313	34.52
0.91980	34.52
0.93647	34.52
0.95313	34.52
0.96980	34.52
0.98647	34.52
1.00313	34.52
1.01980	34.52
1.03647	34.52
1.05313	34.52
1.06980	34.52
1.08647	34.52
1.10313	34.52
1.11980	34.52
1.13647	34.52
1.15313	34.52
1.16980	34.52
1.18647	34.52
1.20313	34.52
1.21980	34.52
1.23647	34.52
1.25313	34.52
1.26980	34.52
1.28647	34.52
1.30313	34.52
1.31980	34.52
1.33647	34.52
1.35313	34.52
1.36980	34.52
1.38647	34.52
1.40313	34.52
1.41980	34.52
1.43647	34.52
1.45313	34.52
1.46980	34.52
1.48647	34.52
1.50313	34.52
1.51980	34.52
1.53647	34.52
1.55313	34.52
1.56980	34.52
1.58647	34.52
1.60313	34.52
1.61980	34.52
1.63647	34.52
1.65313	34.52
1.66980	34.52
1.68647	34.52
1.70313	34.52
1.71980	34.52
1.73647	34.52
1.75313	34.52
1.76980	34.52
1.78647	34.52
1.80313	34.52
1.81980	34.52
1.83647	34.52
1.85313	34.52
1.86980	34.52
1.88647	34.52
1.90313	34.52
1.91980	34.52
1.93647	34.52
1.95313	34.52
1.96980	34.52
1.98647	34.52
2.00313	34.52
2.01980	34.52
2.03647	34.52
2.05313	34.52
2.06980	34.52
2.08647	34.52
2.10313	34.52
2.11980	34.52
2.13647	34.52
2.15313	34.52
2.16980	34.52
2.18647	34.52
2.20313	34.52
2.21980	34.52
2.23647	34.52
2.25313	34.52
2.26980	34.52
2.28647	34.52
2.30313	34.52
2.31980	34.52
2.33647	34.52
2.35313	34.52
2.36980	34.52
2.38647	34.52
2.40313	34.52
2.41980	34.52
2.43647	34.52
2.45313	34.52
2.46980	34.52
2.48647	34.52
2.50313	34.69
2.51980	34.52
2.53647	34.52
2.55313	34.50
2.56980	34.52
2.58647	34.52
2.60313	34.52
2.61980	34.52
2.63647	34.53
2.65313	34.51
2.66980	34.53
2.68647	34.52
2.70313	34.52
2.71980	34.52
2.73647	34.53
2.75313	34.52
2.76980	34.52
2.78647	34.52
2.80313	34.52
2.81980	34.52
2.83647	34.52
2.85313	34.51
2.86980	34.52
2.88647	34.51
2.90313	34.52
2.91980	34.52
2.93647	34.52
2.95313	34.52
2.96980	34.52
2.98647	34.52
3.00313	34.52
3.01980	34.52
3.03647	34.51
3.05313	34.52
3.06980	34.52
3.08647	34.52
3.10313	34.52
3.11980	34.52
3.13647	34.52
3.15313	34.52
3.16980	34.52
3.18647	34.52
3.20313	34.52
3.21980	34.52
3.23647	34.52
3.25313	34.52
3.26980	34.52
3.28647	34.52
3.30313	34.52
3.31980	34.52
3.33647	34.52
3.35313	34.52
3.36980	34.52
3.38647	34.52
3.40313	34.52
3.41980	34.52
3.43647	34.52
3.45313	34.52
3.46980	34.52
3.48647	34.52
3.50313	34.52
3.51980	34.52
3.53647	34.52
3.55313	34.52
3.56980	34.52
3.58647	34.52
3.60313	34.52
3.61980	34.52
3.63647	34.52
3.65313	34.52
3.66980	34.52
3.68647	34.52
3.70313	34.52
3.71980	34.52
3.73647	34.52
3.75313	34.52
3.76980	34.52
3.78647	34.52
3.80313	34.52
3.81980	34.52
3.83647	34.52
3.85313	34.52
3.86980	34.52
3.88647	34.52
3.90313	34.52
3.91980	34.52
3.93647	34.52
3.95313	34.52
3.96980	34.52
3.98647	34.52

[Status Trace (Column Flow)]
Interval(msec)	1000
# of Points	240
Start Time(min)	0.003
End Time(min)	3.986
Intensity Units	
Intensity Multiplier	1
R.Time (min)	Intensity
0.00313	5.57
0.01980	5.36
0.03647	5.38
0.05313	5.65
0.06980	5.80
0.08647	5.61
0.10313	5.57
0.11980	5.57
0.13647	5.57
0.15313	5.57
0.16980	5.57
0.18647	5.57
0.20313	5.57
0.21980	5.57
0.23647	5.57
0.25313	5.57
0.26980	5.57
0.28647	5.57
0.30313	5.57
0.31980	5.57
0.33647	5.57
0.35313	5.57
0.36980	5.57
0.38647	5.57
0.40313	5.57
0.41980	5.57
0.43647	5.57
0.45313	5.57
0.46980	5.57
0.48647	5.57
0.50313	5.57
0.51980	5.57
0.53647	5.57
0.55313	5.57
0.56980	5.57
0.58647	5.57
0.60313	5.57
0.61980	5.57
0.63647	5.57
0.65313	5.57
0.66980	5.57
0.68647	5.57
0.70313	5.57
0.71980	5.57
0.73647	5.57
0.75313	5.57
0.76980	5.57
0.78647	5.57
0.80313	5.57
0.81980	5.57
0.83647	5.57
0.85313	5.57
0.86980	5.57
0.88647	5.57
0.90313	5.57
0.91980	5.57
0.93647	5.57
0.95313	5.57
0.96980	5.57
0.98647	5.57
1.00313	5.57
1.01980	5.57
1.03647	5.57
1.05313	5.57
1.06980	5.57
1.08647	5.57
1.10313	5.57
1.11980	5.57
1.13647	5.57
1.15313	5.57
1.16980	5.57
1.18647	5.57
1.20313	5.57
1.21980	5.57
1.23647	5.57
1.25313	5.57
1.26980	5.57
1.28647	5.57
1.30313	5.57
1.31980	5.57
1.33647	5.57
1.35313	5.57
1.36980	5.57
1.38647	5.57
1.40313	5.57
1.41980	5.57
1.43647	5.57
1.45313	5.57
1.46980	5.57
1.48647	5.57
1.50313	5.57
1.51980	5.57
1.53647	5.57
1.55313	5.57
1.56980	5.57
1.58647	5.57
1.60313	5.57
1.61980	5.57
1.63647	5.56
1.65313	5.56
1.66980	5.55
1.68647	5.54
1.70313	5.52
1.71980	5.51
1.73647	5.50
1.75313	5.49
1.76980	5.48
1.78647	5.47
1.80313	5.46
1.81980	5.45
1.83647	5.44
1.85313	5.43
1.86980	5.42
1.88647	5.41
1.90313	5.40
1.91980	5.39
1.93647	5.38
1.95313	5.37
1.96980	5.36
1.98647	5.35
2.00313	5.34
2.01980	5.33
2.03647	5.32
2.05313	5.31
2.06980	5.30
2.08647	5.30
2.10313	5.29
2.11980	5.28
2.13647	5.27
2.15313	5.26
2.16980	5.25
2.18647	5.24
2.20313	5.23
2.21980	5.22
2.23647	5.21
2.25313	5.20
2.26980	5.19
2.28647	5.18
2.30313	5.17
2.31980	5.16
2.33647	5.15
2.35313	5.14
2.36980	5.14
2.38647	5.13
2.40313	5.13
2.41980	5.14
2.43647	5.13
2.45313	5.13
2.46980	5.13
2.48647	5.13
2.50313	5.13
2.51980	5.14
2.53647	5.13
2.55313	5.13
2.56980	5.13
2.58647	5.13
2.60313	5.13
2.61980	5.13
2.63647	5.13
2.65313	5.13
2.66980	5.13
2.68647	5.13
2.70313	5.13
2.71980	5.13
2.73647	5.13
2.75313	5.13
2.76980	5.13
2.78647	5.13
2.80313	5.13
2.81980	5.13
2.83647	5.13
2.85313	5.13
2.86980	5.13
2.88647	5.13
2.90313	5.13
2.91980	5.13
2.93647	5.13
2.95313	5.13
2.96980	5.13
2.98647	5.13
3.00313	5.13
3.01980	5.13
3.03647	5.13
3.05313	5.13
3.06980	5.13
3.08647	5.13
3.10313	5.13
3.11980	5.13
3.13647	5.13
3.15313	5.12
3.16980	5.12
3.18647	5.12
3.20313	5.12
3.21980	5.12
3.23647	5.12
3.25313	5.12
3.26980	5.12
3.28647	5.12
3.30313	5.12
3.31980	5.12
3.33647	5.12
3.35313	5.12
3.36980	5.12
3.38647	5.12
3.40313	5.13
3.41980	5.13
3.43647	5.13
3.45313	5.13
3.46980	5.13
3.48647	5.13
3.50313	5.13
3.51980	5.13
3.53647	5.13
3.55313	5.13
3.56980	5.13
3.58647	5.13
3.60313	5.13
3.61980	5.13
3.63647	5.13
3.65313	5.13
3.66980	5.13
3.68647	5.13
3.70313	5.13
3.71980	5.13
3.73647	5.13
3.75313	5.12
3.76980	5.12
3.78647	5.12
3.80313	5.12
3.81980	5.12
3.83647	5.12
3.85313	5.12
3.86980	5.12
3.88647	5.12
3.90313	5.12
3.91980	5.12
3.93647	5.12
3.95313	5.12
3.96980	5.12
3.98647	5.12

[Status Trace (Linear Velocity)]
Interval(msec)	1000
# of Points	240
Start Time(min)	0.003
End Time(min)	3.986
Intensity Units	
Intensity Multiplier	1
R.Time (min)	Intensity
0.00313	39.03
0.01980	37.85
0.03647	37.96
0.05313	39.43
0.06980	40.28
0.08647	39.24
0.10313	39.01
0.11980	39.03
0.13647	39.04
0.15313	39.03
0.16980	39.03
0.18647	39.03
0.20313	39.03
0.21980	39.03
0.23647	39.03
0.25313	39.03
0.26980	39.03
0.28647	39.03
0.30313	39.03
0.31980	39.03
0.33647	39.03
0.35313	39.03
0.36980	39.03
0.38647	39.03
0.40313	39.03
0.41980	39.03
0.43647	39.03
0.45313	39.03
0.46980	39.03
0.48647	39.03
0.50313	39.03
0.51980	39.03
0.53647	39.03
0.55313	39.03
0.56980	39.03
0.58647	39.03
0.60313	39.03
0.61980	39.03
0.63647	39.03
0.65313	39.03
0.66980	39.03
0.68647	39.03
0.70313	39.03
0.71980	39.03
0.73647	39.03
0.75313	39.03
0.76980	39.03
0.78647	39.03
0.80313	39.03
0.81980	39.03
0.83647	39.03
0.85313	39.03
0.86980	39.03
0.88647	39.03
0.90313	39.03
0.91980	39.03
0.93647	39.03
0.95313	39.03
0.96980	39.03
0.98647	39.03
1.00313	39.03
1.01980	39.03
1.03647	39.03
1.05313	39.03
1.06980	39.03
1.08647	39.03
1.10313	39.03
1.11980	39.03
1.13647	39.03
1.15313	39.03
1.16980	39.03
1.18647	39.03
1.20313	39.03
1.21980	39.02
1.23647	39.03
1.25313	39.03
1.26980	39.03
1.28647	39.03
1.30313	39.03
1.31980	39.03
1.33647	39.03
1.35313	39.03
1.36980	39.03
1.38647	39.03
1.40313	39.03
1.41980	39.03
1.43647	39.03
1.45313	39.03
1.46980	39.03
1.48647	39.03
1.50313	39.03
1.51980	39.03
1.53647	39.03
1.55313	39.03
1.56980	39.03
1.58647	39.03
1.60313	39.03
1.61980	39.02
1.63647	39.00
1.65313	38.98
1.66980	38.95
1.68647	38.92
1.70313	38.88
1.71980	38.85
1.73647	38.81
1.75313	38.78
1.76980	38.75
1.78647	38.72
1.80313	38.69
1.81980	38.66
1.83647	38.63
1.85313	38.60
1.86980	38.57
1.88647	38.53
1.90313	38.50
1.91980	38.47
1.93647	38.44
1.95313	38.41
1.96980	38.39
1.98647	38.35
2.00313	38.32
2.01980	38.29
2.03647	38.26
2.05313	38.23
2.06980	38.20
2.08647	38.17
2.10313	38.14
2.11980	38.12
2.13647	38.08
2.15313	38.06
2.16980	38.03
2.18647	37.99
2.20313	37.96
2.21980	37.94
2.23647	37.91
2.25313	37.88
2.26980	37.85
2.28647	37.82
2.30313	37.79
2.31980	37.76
2.33647	37.73
2.35313	37.70
2.36980	37.68
2.38647	37.67
2.40313	37.67
2.41980	37.67
2.43647	37.67
2.45313	37.67
2.46980	37.67
2.48647	37.67
2.50313	37.65
2.51980	37.68
2.53647	37.66
2.55313	37.66
2.56980	37.66
2.58647	37.66
2.60313	37.66
2.61980	37.66
2.63647	37.66
2.65313	37.66
2.66980	37.66
2.68647	37.66
2.70313	37.66
2.71980	37.66
2.73647	37.66
2.75313	37.66
2.76980	37.65
2.78647	37.65
2.80313	37.65
2.81980	37.65
2.83647	37.65
2.85313	37.65
2.86980	37.65
2.88647	37.65
2.90313	37.65
2.91980	37.65
2.93647	37.65
2.95313	37.65
2.96980	37.65
2.98647	37.64
3.00313	37.64
3.01980	37.64
3.03647	37.64
3.05313	37.64
3.06980	37.64
3.08647	37.64
3.10313	37.64
3.11980	37.64
3.13647	37.64
3.15313	37.64
3.16980	37.64
3.18647	37.64
3.20313	37.64
3.21980	37.64
3.23647	37.64
3.25313	37.63
3.26980	37.63
3.28647	37.63
3.30313	37.64
3.31980	37.64
3.33647	37.64
3.35313	37.64
3.36980	37.64
3.38647	37.64
3.40313	37.64
3.41980	37.64
3.43647	37.64
3.45313	37.64
3.46980	37.65
3.48647	37.65
3.50313	37.64
3.51980	37.64
3.53647	37.64
3.55313	37.64
3.56980	37.64
3.58647	37.64
3.60313	37.64
3.61980	37.64
3.63647	37.64
3.65313	37.64
3.66980	37.64
3.68647	37.64
3.70313	37.64
3.71980	37.64
3.73647	37.64
3.75313	37.64
3.76980	37.64
3.78647	37.64
3.80313	37.64
3.81980	37.64
3.83647	37.64
3.85313	37.64
3.86980	37.64
3.88647	37.64
3.90313	37.64
3.91980	37.64
3.93647	37.64
3.95313	37.64
3.96980	37.64
3.98647	37.64

