[Header]
Application Name	LabSolutions
Version	5.110
Data File Name	C:\Users\User\Desktop\GC Analyses\Jack\UIC Prairie Sampling\7.22.22\220722_052.gcd
Output Date	10/5/2022
Output Time	2:13:41 PM

[File Information]
Type	Data File
Generated	9/28/2022 1:46:58 PM
Generated by	System Administrator
Modified	9/28/2022 1:52:00 PM
Modified by	System Administrator

[Sample Information]
Operator Name	System Administrator
Acquired	9/28/2022 1:47:59 PM
Sample Type	1:Standard
Level	1
Sample Name	220722_UICPrairie
Sample ID	220722_UICPrairie
ISTD Amount1	1
ISTD Amount2	1
ISTD Amount3	1
ISTD Amount4	1
ISTD Amount5	1
ISTD Amount6	1
ISTD Amount7	1
ISTD Amount8	1
ISTD Amount9	1
ISTD Amount10	1
ISTD Amount11	1
ISTD Amount12	1
ISTD Amount13	1
ISTD Amount14	1
ISTD Amount15	1
ISTD Amount16	1
ISTD Amount17	1
ISTD Amount18	1
ISTD Amount19	1
ISTD Amount20	1
ISTD Amount21	1
ISTD Amount22	1
ISTD Amount23	1
ISTD Amount24	1
ISTD Amount25	1
ISTD Amount26	1
ISTD Amount27	1
ISTD Amount28	1
ISTD Amount29	1
ISTD Amount30	1
ISTD Amount31	1
ISTD Amount32	1
Sample Amount	1
Dilution Factor	1
Vial#	1
Injection Volume	1
Injection Count	1
Bar Code	

[Original Files]
Data File	C:\Users\User\Desktop\GC Analyses\Jack\UIC Prairie Sampling\7.22.22\220722_052.gcd
Method File	C:\LabSolutions\Data\GHG_4min_2022\ghg3_togas_w_acet_4 min_new_int.gcm
Batch File	
Report Format File	c:\LabSolutions\System\DEFAULT.lsr

[File Description]


[Configuration]
Instrument Name	C0B7VH3-Instrument1
Instrument #	1
Line #	1
# of Detectors	3
Detector ID	DET#1	DET#2	DET#3
Detector Name	FID	PTCD	ECD
# of Channels	1	1	1

[Peak Table(Ch1)]
# of Peaks	3
Peak#	R.Time	I.Time	F.Time	Area	Height	A/H	Conc.	Mark	ID#	Name	k'	Plate #	Plate Ht.	Tailing	Resolution	Sep.Factor	Area Ratio	Height Ratio	Conc. %	Norm Conc.
1	1.476	1.439	1.538	15327	6889	2.225	100.000	   	1	CO	0.000	8502	17.643	1.282	0.000	0.000	0	0	16.667	16.667
2	1.571	1.538	1.630	4383	2229	1.966	100.000	 V 	2	CH4	0.065	11473	13.074	1.198	1.554	0.000	0	0	16.667	16.667
3	2.000	1.945	2.312	2227160	1083498	2.056	400.000	   	3	CO2	0.355	17640	8.503	1.189	7.216	5.500	0	0	66.667	66.667

[Peak Table(Ch2)]
# of Peaks	0

[Peak Table(Ch3)]
# of Peaks	3
Peak#	R.Time	I.Time	F.Time	Area	Height	A/H	Conc.	Mark	ID#	Name	k'	Plate #	Plate Ht.	Tailing	Resolution	Sep.Factor	Area Ratio	Height Ratio	Conc. %	Norm Conc.
1	2.598	2.473	2.638	1259	246	5.126	0.000	   			0.000	4800	31.253	0.654	0.000	0.000	0	0	0.000	0.000
2	2.880	2.656	3.188	23672	5213	4.541	1.000	   	1	N2O	0.109	12441	12.057	1.639	2.230	0.000	0	0	50.000	50.000
3	3.294	3.188	3.962	14673	651	22.540	1.000	 V 	2	SF6	0.268	325	461.563	0.000	0.993	2.468	0	0	50.000	50.000

[Compound Results(Ch1)]
# of IDs	6
ID#	Name	R.Time	Area	Height	Conc.	Curve	3rd	2nd	1st	Constant	Area Ratio	Height Ratio	Conc. %	Norm Conc.
1	CO	1.476	15327	6889	100.000	Linear	0.000000e+00	0.000000e+00	1.532740e+002	0.000000e+00	0	0	16.667	16.667
2	CH4	1.571	4383	2229	100.000	Linear	0.000000e+00	0.000000e+00	4.382865e+001	0.000000e+00	0	0	16.667	16.667
3	CO2	2.000	2227160	1083498	400.000	Linear	0.000000e+00	0.000000e+00	5.567901e+003	0.000000e+00	0	0	66.667	66.667
4	Ethylene	0.000	0	0	0.000	Linear	0.000000e+00	0.000000e+00	0.000000e+00	0.000000e+00	0	0	0.000	0.000
5	Acetylene	0.000	0	0	0.000	Linear	0.000000e+00	0.000000e+00	0.000000e+00	0.000000e+00	0	0	0.000	0.000
6	Ethane	0.000	0	0	0.000	Linear	0.000000e+00	0.000000e+00	0.000000e+00	0.000000e+00	0	0	0.000	0.000

[Compound Results(Ch2)]
# of IDs	5
ID#	Name	R.Time	Area	Height	Conc.	Curve	3rd	2nd	1st	Constant	Area Ratio	Height Ratio	Conc. %	Norm Conc.
1	Hydrogen	0.000	0	0	0.000	Linear	0.000000e+00	0.000000e+00	0.000000e+00	0.000000e+00	0	0	0.000	0.000
2	Oxygen	0.000	0	0	0.000	Linear	0.000000e+00	0.000000e+00	0.000000e+00	0.000000e+00	0	0	0.000	0.000
3	Nitrogen	0.000	0	0	0.000	Linear	0.000000e+00	0.000000e+00	0.000000e+00	0.000000e+00	0	0	0.000	0.000
4	Methane	0.000	0	0	0.000	Linear	0.000000e+00	0.000000e+00	0.000000e+00	0.000000e+00	0	0	0.000	0.000
5	Carbon Monoxide	0.000	0	0	0.000	Linear	0.000000e+00	0.000000e+00	0.000000e+00	0.000000e+00	0	0	0.000	0.000

[Compound Results(Ch3)]
# of IDs	2
ID#	Name	R.Time	Area	Height	Conc.	Curve	3rd	2nd	1st	Constant	Area Ratio	Height Ratio	Conc. %	Norm Conc.
1	N2O	2.880	23672	5213	1.000	Linear	0.000000e+00	0.000000e+00	2.367250e+004	0.000000e+00	0	0	50.000	50.000
2	SF6	3.294	14673	651	1.000	Linear	0.000000e+00	0.000000e+00	1.467262e+004	0.000000e+00	0	0	50.000	50.000

[Group Results(Ch1)]
# of Groups	0

[Group Results(Ch2)]
# of Groups	0

[Group Results(Ch3)]
# of Groups	0

[Chromatogram (Ch1)]
Interval(msec)	220
# of Points	1091
Start Time(min)	0.002
End Time(min)	3.998
R.Time (min)	Intensity
0.00167	-26
0.00533	-21
0.00900	-11
0.01267	-4
0.01633	0
0.02000	1
0.02367	-1
0.02733	-1
0.03100	1
0.03467	3
0.03833	7
0.04200	9
0.04567	9
0.04933	10
0.05300	8
0.05667	0
0.06033	-7
0.06400	-11
0.06767	-11
0.07133	-9
0.07500	-8
0.07867	-10
0.08233	-12
0.08600	-18
0.08967	-23
0.09333	-25
0.09700	-27
0.10067	-29
0.10433	-27
0.10800	-23
0.11167	-18
0.11533	-13
0.11900	-11
0.12267	-14
0.12633	-21
0.13000	-26
0.13367	-29
0.13733	-30
0.14100	-29
0.14467	-28
0.14833	-27
0.15200	-25
0.15567	-25
0.15933	-26
0.16300	-25
0.16667	-24
0.17033	-22
0.17400	-19
0.17767	-14
0.18133	-11
0.18500	-13
0.18867	-15
0.19233	-13
0.19600	-8
0.19967	-4
0.20333	-5
0.20700	-8
0.21067	-10
0.21433	-15
0.21800	-19
0.22167	-19
0.22533	-18
0.22900	-15
0.23267	-12
0.23633	-9
0.24000	-8
0.24367	-7
0.24733	-6
0.25100	-7
0.25467	-5
0.25833	-2
0.26200	1
0.26567	-2
0.26933	-5
0.27300	-9
0.27667	-11
0.28033	-11
0.28400	-7
0.28767	-2
0.29133	0
0.29500	1
0.29867	2
0.30233	4
0.30600	3
0.30967	-1
0.31333	-6
0.31700	-13
0.32067	-19
0.32433	-24
0.32800	-28
0.33167	-27
0.33533	-24
0.33900	-19
0.34267	-14
0.34633	-10
0.35000	-7
0.35367	-1
0.35733	6
0.36100	10
0.36467	13
0.36833	12
0.37200	7
0.37567	3
0.37933	-0
0.38300	-5
0.38667	-10
0.39033	-16
0.39400	-21
0.39767	-23
0.40133	-24
0.40500	-24
0.40867	-25
0.41233	-25
0.41600	-28
0.41967	-30
0.42333	-31
0.42700	-32
0.43067	-36
0.43433	-41
0.43800	-43
0.44167	-38
0.44533	-29
0.44900	-22
0.45267	-16
0.45633	-15
0.46000	-17
0.46367	-17
0.46733	-19
0.47100	-23
0.47467	-26
0.47833	-28
0.48200	-30
0.48567	-31
0.48933	-33
0.49300	-38
0.49667	-43
0.50033	-44
0.50400	-40
0.50767	-33
0.51133	-23
0.51500	-15
0.51867	-9
0.52233	-7
0.52600	-9
0.52967	-15
0.53333	-23
0.53700	-32
0.54067	-36
0.54433	-38
0.54800	-35
0.55167	-33
0.55533	-33
0.55900	-33
0.56267	-32
0.56633	-30
0.57000	-26
0.57367	-23
0.57733	-24
0.58100	-23
0.58467	-21
0.58833	-20
0.59200	-22
0.59567	-27
0.59933	-31
0.60300	-32
0.60667	-31
0.61033	-29
0.61400	-31
0.61767	-36
0.62133	-41
0.62500	-42
0.62867	-39
0.63233	-36
0.63600	-35
0.63967	-35
0.64333	-35
0.64700	-34
0.65067	-33
0.65433	-31
0.65800	-29
0.66167	-29
0.66533	-28
0.66900	-24
0.67267	-22
0.67633	-23
0.68000	-29
0.68367	-37
0.68733	-42
0.69100	-41
0.69467	-39
0.69833	-40
0.70200	-42
0.70567	-44
0.70933	-43
0.71300	-42
0.71667	-40
0.72033	-35
0.72400	-27
0.72767	-23
0.73133	-31
0.73500	-45
0.73867	-57
0.74233	-65
0.74600	-67
0.74967	-65
0.75333	-62
0.75700	-56
0.76067	-54
0.76433	-52
0.76800	-48
0.77167	-44
0.77533	-42
0.77900	-44
0.78267	-50
0.78633	-55
0.79000	-55
0.79367	-52
0.79733	-49
0.80100	-45
0.80467	-41
0.80833	-41
0.81200	-48
0.81567	-54
0.81933	-59
0.82300	-54
0.82667	-44
0.83033	-34
0.83400	-28
0.83767	-28
0.84133	-31
0.84500	-38
0.84867	-46
0.85233	-55
0.85600	-63
0.85967	-66
0.86333	-66
0.86700	-66
0.87067	-67
0.87433	-67
0.87800	-62
0.88167	-54
0.88533	-46
0.88900	-38
0.89267	-32
0.89633	-30
0.90000	-31
0.90367	-37
0.90733	-43
0.91100	-47
0.91467	-47
0.91833	-45
0.92200	-45
0.92567	-45
0.92933	-46
0.93300	-48
0.93667	-49
0.94033	-49
0.94400	-48
0.94767	-49
0.95133	-50
0.95500	-51
0.95867	-52
0.96233	-53
0.96600	-52
0.96967	-46
0.97333	-42
0.97700	-42
0.98067	-46
0.98433	-54
0.98800	-64
0.99167	-72
0.99533	-74
0.99900	-71
1.00267	-69
1.00633	-65
1.01000	-60
1.01367	-53
1.01733	-46
1.02100	-44
1.02467	-44
1.02833	-44
1.03200	-46
1.03567	-52
1.03933	-59
1.04300	-64
1.04667	-63
1.05033	-61
1.05400	-62
1.05767	-64
1.06133	-65
1.06500	-65
1.06867	-68
1.07233	-73
1.07600	-80
1.07967	-83
1.08333	-80
1.08700	-75
1.09067	-70
1.09433	-65
1.09800	-64
1.10167	-68
1.10533	-77
1.10900	-82
1.11267	-85
1.11633	-84
1.12000	-82
1.12367	-80
1.12733	-80
1.13100	-82
1.13467	-83
1.13833	-82
1.14200	-78
1.14567	-71
1.14933	-64
1.15300	-60
1.15667	-59
1.16033	-62
1.16400	-67
1.16767	-70
1.17133	-70
1.17500	-69
1.17867	-69
1.18233	-70
1.18600	-70
1.18967	-72
1.19333	-73
1.19700	-74
1.20067	-75
1.20433	-76
1.20800	-75
1.21167	-69
1.21533	-65
1.21900	-60
1.22267	-56
1.22633	-51
1.23000	-49
1.23367	-47
1.23733	-47
1.24100	-53
1.24467	-65
1.24833	-70
1.25200	-69
1.25567	-66
1.25933	-65
1.26300	-70
1.26667	-74
1.27033	-77
1.27400	-77
1.27767	-78
1.28133	-83
1.28500	-88
1.28867	-92
1.29233	-93
1.29600	-90
1.29967	-89
1.30333	-86
1.30700	-86
1.31067	-88
1.31433	-85
1.31800	-80
1.32167	-77
1.32533	-79
1.32900	-82
1.33267	-80
1.33633	-74
1.34000	-71
1.34367	-72
1.34733	-74
1.35100	-74
1.35467	-74
1.35833	-72
1.36200	-70
1.36567	-68
1.36933	-68
1.37300	-73
1.37667	-75
1.38033	-77
1.38400	-76
1.38767	-70
1.39133	-65
1.39500	-61
1.39867	-59
1.40233	-61
1.40600	-67
1.40967	-72
1.41333	-71
1.41700	-65
1.42067	-58
1.42433	-55
1.42800	-57
1.43167	-57
1.43533	-57
1.43900	-51
1.44267	10
1.44633	213
1.45000	630
1.45367	1319
1.45733	2338
1.46100	3572
1.46467	4784
1.46833	5785
1.47200	6480
1.47567	6827
1.47933	6795
1.48300	6373
1.48667	5615
1.49033	4659
1.49400	3666
1.49767	2762
1.50133	2011
1.50500	1425
1.50867	992
1.51233	678
1.51600	453
1.51967	293
1.52333	175
1.52700	85
1.53067	20
1.53433	-27
1.53800	-52
1.54167	-38
1.54533	56
1.54900	283
1.55267	650
1.55633	1083
1.56000	1494
1.56367	1826
1.56733	2050
1.57100	2137
1.57467	2063
1.57833	1834
1.58200	1498
1.58567	1130
1.58933	792
1.59300	522
1.59667	322
1.60033	181
1.60400	84
1.60767	17
1.61133	-31
1.61500	-67
1.61867	-87
1.62233	-98
1.62600	-105
1.62967	-111
1.63333	-114
1.63700	-113
1.64067	-112
1.64433	-117
1.64800	-122
1.65167	-126
1.65533	-128
1.65900	-126
1.66267	-121
1.66633	-116
1.67000	-108
1.67367	-100
1.67733	-101
1.68100	-107
1.68467	-119
1.68833	-128
1.69200	-134
1.69567	-137
1.69933	-136
1.70300	-130
1.70667	-126
1.71033	-123
1.71400	-121
1.71767	-120
1.72133	-120
1.72500	-121
1.72867	-123
1.73233	-126
1.73600	-126
1.73967	-121
1.74333	-115
1.74700	-113
1.75067	-111
1.75433	-112
1.75800	-115
1.76167	-118
1.76533	-120
1.76900	-124
1.77267	-125
1.77633	-123
1.78000	-120
1.78367	-115
1.78733	-111
1.79100	-108
1.79467	-110
1.79833	-112
1.80200	-111
1.80567	-108
1.80933	-104
1.81300	-100
1.81667	-102
1.82033	-108
1.82400	-111
1.82767	-112
1.83133	-114
1.83500	-111
1.83867	-105
1.84233	-100
1.84600	-96
1.84967	-93
1.85333	-93
1.85700	-93
1.86067	-96
1.86433	-99
1.86800	-106
1.87167	-113
1.87533	-116
1.87900	-115
1.88267	-110
1.88633	-108
1.89000	-109
1.89367	-113
1.89733	-117
1.90100	-121
1.90467	-123
1.90833	-122
1.91200	-115
1.91567	-108
1.91933	-101
1.92300	-97
1.92667	-95
1.93033	-96
1.93400	-102
1.93767	-107
1.94133	-108
1.94500	-104
1.94867	-96
1.95233	-83
1.95600	-18
1.95967	399
1.96333	2604
1.96700	11536
1.97067	39140
1.97433	104756
1.97800	225824
1.98167	401796
1.98533	608026
1.98900	807657
1.99267	967093
1.99633	1063006
2.00000	1083432
2.00367	1028913
2.00733	913027
2.01100	759695
2.01467	596309
2.01833	445413
2.02200	319857
2.02567	223159
2.02933	152764
2.03300	103511
2.03667	69962
2.04033	47499
2.04400	32603
2.04767	22751
2.05133	16212
2.05500	11835
2.05867	8863
2.06233	6810
2.06600	5363
2.06967	4321
2.07333	3558
2.07700	2991
2.08067	2554
2.08433	2213
2.08800	1944
2.09167	1731
2.09533	1559
2.09900	1414
2.10267	1289
2.10633	1180
2.11000	1087
2.11367	1007
2.11733	939
2.12100	877
2.12467	821
2.12833	769
2.13200	721
2.13567	679
2.13933	641
2.14300	608
2.14667	578
2.15033	551
2.15400	523
2.15767	496
2.16133	472
2.16500	449
2.16867	428
2.17233	411
2.17600	396
2.17967	386
2.18333	377
2.18700	365
2.19067	350
2.19433	338
2.19800	330
2.20167	325
2.20533	321
2.20900	314
2.21267	303
2.21633	292
2.22000	277
2.22367	262
2.22733	250
2.23100	244
2.23467	244
2.23833	245
2.24200	242
2.24567	238
2.24933	232
2.25300	226
2.25667	219
2.26033	212
2.26400	207
2.26767	201
2.27133	196
2.27500	190
2.27867	185
2.28233	184
2.28600	183
2.28967	184
2.29333	180
2.29700	170
2.30067	158
2.30433	150
2.30800	150
2.31167	151
2.31533	147
2.31900	142
2.32267	140
2.32633	145
2.33000	150
2.33367	152
2.33733	149
2.34100	145
2.34467	139
2.34833	135
2.35200	134
2.35567	132
2.35933	125
2.36300	116
2.36667	115
2.37033	118
2.37400	127
2.37767	139
2.38133	145
2.38500	141
2.38867	134
2.39233	127
2.39600	119
2.39967	111
2.40333	104
2.40700	102
2.41067	107
2.41433	114
2.41800	122
2.42167	130
2.42533	131
2.42900	134
2.43267	135
2.43633	132
2.44000	127
2.44367	123
2.44733	122
2.45100	122
2.45467	119
2.45833	111
2.46200	99
2.46567	91
2.46933	87
2.47300	88
2.47667	88
2.48033	88
2.48400	86
2.48767	81
2.49133	74
2.49500	68
2.49867	65
2.50233	64
2.50600	63
2.50967	64
2.51333	66
2.51700	71
2.52067	79
2.52433	88
2.52800	96
2.53167	102
2.53533	101
2.53900	96
2.54267	88
2.54633	78
2.55000	70
2.55367	61
2.55733	63
2.56100	72
2.56467	78
2.56833	79
2.57200	77
2.57567	69
2.57933	58
2.58300	46
2.58667	36
2.59033	30
2.59400	25
2.59767	20
2.60133	17
2.60500	20
2.60867	26
2.61233	28
2.61600	30
2.61967	37
2.62333	45
2.62700	48
2.63067	48
2.63433	48
2.63800	47
2.64167	44
2.64533	41
2.64900	40
2.65267	39
2.65633	37
2.66000	39
2.66367	43
2.66733	44
2.67100	42
2.67467	42
2.67833	40
2.68200	36
2.68567	32
2.68933	27
2.69300	21
2.69667	18
2.70033	16
2.70400	12
2.70767	2
2.71133	-6
2.71500	-9
2.71867	-7
2.72233	-2
2.72600	7
2.72967	15
2.73333	23
2.73700	25
2.74067	21
2.74433	14
2.74800	10
2.75167	9
2.75533	9
2.75900	12
2.76267	15
2.76633	17
2.77000	10
2.77367	1
2.77733	-0
2.78100	0
2.78467	0
2.78833	-0
2.79200	0
2.79567	1
2.79933	2
2.80300	1
2.80667	-3
2.81033	-12
2.81400	-19
2.81767	-23
2.82133	-23
2.82500	-19
2.82867	-13
2.83233	-8
2.83600	-4
2.83967	-4
2.84333	-7
2.84700	-13
2.85067	-16
2.85433	-17
2.85800	-16
2.86167	-16
2.86533	-18
2.86900	-21
2.87267	-25
2.87633	-26
2.88000	-25
2.88367	-25
2.88733	-28
2.89100	-28
2.89467	-24
2.89833	-16
2.90200	-6
2.90567	-1
2.90933	-3
2.91300	-8
2.91667	-14
2.92033	-22
2.92400	-29
2.92767	-36
2.93133	-37
2.93500	-34
2.93867	-30
2.94233	-29
2.94600	-30
2.94967	-30
2.95333	-30
2.95700	-30
2.96067	-30
2.96433	-29
2.96800	-25
2.97167	-21
2.97533	-20
2.97900	-20
2.98267	-20
2.98633	-20
2.99000	-18
2.99367	-12
2.99733	-6
3.00100	-2
3.00467	0
3.00833	-3
3.01200	-11
3.01567	-20
3.01933	-26
3.02300	-25
3.02667	-19
3.03033	-11
3.03400	-6
3.03767	-11
3.04133	-25
3.04500	-42
3.04867	-57
3.05233	-70
3.05600	-79
3.05967	-83
3.06333	-82
3.06700	-77
3.07067	-70
3.07433	-63
3.07800	-57
3.08167	-51
3.08533	-46
3.08900	-43
3.09267	-37
3.09633	-30
3.10000	-24
3.10367	-25
3.10733	-30
3.11100	-34
3.11467	-37
3.11833	-40
3.12200	-45
3.12567	-52
3.12933	-55
3.13300	-52
3.13667	-45
3.14033	-36
3.14400	-27
3.14767	-23
3.15133	-26
3.15500	-35
3.15867	-45
3.16233	-48
3.16600	-49
3.16967	-49
3.17333	-47
3.17700	-45
3.18067	-45
3.18433	-44
3.18800	-43
3.19167	-44
3.19533	-46
3.19900	-48
3.20267	-50
3.20633	-54
3.21000	-56
3.21367	-57
3.21733	-59
3.22100	-61
3.22467	-63
3.22833	-64
3.23200	-64
3.23567	-58
3.23933	-46
3.24300	-35
3.24667	-26
3.25033	-25
3.25400	-29
3.25767	-35
3.26133	-40
3.26500	-43
3.26867	-45
3.27233	-48
3.27600	-49
3.27967	-50
3.28333	-54
3.28700	-58
3.29067	-59
3.29433	-57
3.29800	-54
3.30167	-52
3.30533	-52
3.30900	-54
3.31267	-57
3.31633	-58
3.32000	-60
3.32367	-60
3.32733	-60
3.33100	-59
3.33467	-57
3.33833	-57
3.34200	-61
3.34567	-66
3.34933	-68
3.35300	-66
3.35667	-62
3.36033	-60
3.36400	-62
3.36767	-63
3.37133	-62
3.37500	-60
3.37867	-60
3.38233	-60
3.38600	-57
3.38967	-54
3.39333	-53
3.39700	-55
3.40067	-58
3.40433	-61
3.40800	-61
3.41167	-62
3.41533	-65
3.41900	-68
3.42267	-69
3.42633	-67
3.43000	-66
3.43367	-66
3.43733	-69
3.44100	-68
3.44467	-65
3.44833	-61
3.45200	-58
3.45567	-59
3.45933	-62
3.46300	-67
3.46667	-73
3.47033	-75
3.47400	-75
3.47767	-75
3.48133	-74
3.48500	-73
3.48867	-70
3.49233	-69
3.49600	-67
3.49967	-65
3.50333	-62
3.50700	-57
3.51067	-53
3.51433	-49
3.51800	-47
3.52167	-48
3.52533	-50
3.52900	-53
3.53267	-57
3.53633	-60
3.54000	-58
3.54367	-53
3.54733	-50
3.55100	-48
3.55467	-48
3.55833	-48
3.56200	-51
3.56567	-54
3.56933	-54
3.57300	-51
3.57667	-50
3.58033	-55
3.58400	-60
3.58767	-70
3.59133	-81
3.59500	-90
3.59867	-95
3.60233	-98
3.60600	-101
3.60967	-101
3.61333	-97
3.61700	-93
3.62067	-86
3.62433	-79
3.62800	-71
3.63167	-63
3.63533	-54
3.63900	-46
3.64267	-45
3.64633	-48
3.65000	-56
3.65367	-64
3.65733	-72
3.66100	-81
3.66467	-88
3.66833	-94
3.67200	-96
3.67567	-93
3.67933	-87
3.68300	-80
3.68667	-75
3.69033	-72
3.69400	-70
3.69767	-67
3.70133	-70
3.70500	-79
3.70867	-87
3.71233	-93
3.71600	-96
3.71967	-94
3.72333	-92
3.72700	-87
3.73067	-80
3.73433	-69
3.73800	-58
3.74167	-52
3.74533	-50
3.74900	-52
3.75267	-53
3.75633	-55
3.76000	-61
3.76367	-67
3.76733	-72
3.77100	-73
3.77467	-69
3.77833	-66
3.78200	-69
3.78567	-71
3.78933	-72
3.79300	-75
3.79667	-77
3.80033	-81
3.80400	-84
3.80767	-83
3.81133	-83
3.81500	-82
3.81867	-84
3.82233	-87
3.82600	-86
3.82967	-81
3.83333	-78
3.83700	-79
3.84067	-81
3.84433	-81
3.84800	-80
3.85167	-77
3.85533	-74
3.85900	-71
3.86267	-69
3.86633	-70
3.87000	-73
3.87367	-74
3.87733	-77
3.88100	-83
3.88467	-89
3.88833	-91
3.89200	-90
3.89567	-88
3.89933	-85
3.90300	-84
3.90667	-85
3.91033	-83
3.91400	-83
3.91767	-82
3.92133	-79
3.92500	-74
3.92867	-68
3.93233	-61
3.93600	-52
3.93967	-47
3.94333	-47
3.94700	-54
3.95067	-68
3.95433	-84
3.95800	-97
3.96167	-100
3.96533	-95
3.96900	-88
3.97267	-83
3.97633	-81
3.98000	-81
3.98367	-82
3.98733	-81
3.99100	-81
3.99467	-85
3.99833	-90

[Chromatogram (Ch2)]
Interval(msec)	220
# of Points	1091
Start Time(min)	0.002
End Time(min)	3.998
R.Time (min)	Intensity
0.00167	-1
0.00533	-1
0.00900	-1
0.01267	-0
0.01633	-0
0.02000	0
0.02367	1
0.02733	1
0.03100	2
0.03467	2
0.03833	2
0.04200	3
0.04567	3
0.04933	3
0.05300	4
0.05667	4
0.06033	4
0.06400	4
0.06767	4
0.07133	4
0.07500	4
0.07867	4
0.08233	4
0.08600	4
0.08967	4
0.09333	4
0.09700	4
0.10067	4
0.10433	5
0.10800	5
0.11167	5
0.11533	6
0.11900	6
0.12267	6
0.12633	6
0.13000	5
0.13367	5
0.13733	5
0.14100	5
0.14467	5
0.14833	5
0.15200	5
0.15567	6
0.15933	6
0.16300	6
0.16667	6
0.17033	6
0.17400	7
0.17767	7
0.18133	7
0.18500	6
0.18867	6
0.19233	6
0.19600	6
0.19967	6
0.20333	6
0.20700	6
0.21067	5
0.21433	5
0.21800	5
0.22167	4
0.22533	4
0.22900	3
0.23267	3
0.23633	3
0.24000	3
0.24367	3
0.24733	2
0.25100	2
0.25467	2
0.25833	2
0.26200	2
0.26567	2
0.26933	2
0.27300	2
0.27667	2
0.28033	2
0.28400	1
0.28767	1
0.29133	1
0.29500	1
0.29867	1
0.30233	1
0.30600	2
0.30967	2
0.31333	2
0.31700	2
0.32067	2
0.32433	2
0.32800	2
0.33167	2
0.33533	3
0.33900	3
0.34267	4
0.34633	4
0.35000	4
0.35367	5
0.35733	5
0.36100	5
0.36467	5
0.36833	5
0.37200	6
0.37567	7
0.37933	7
0.38300	8
0.38667	8
0.39033	8
0.39400	9
0.39767	9
0.40133	8
0.40500	8
0.40867	8
0.41233	8
0.41600	8
0.41967	7
0.42333	7
0.42700	7
0.43067	7
0.43433	7
0.43800	7
0.44167	8
0.44533	8
0.44900	8
0.45267	8
0.45633	8
0.46000	8
0.46367	8
0.46733	8
0.47100	7
0.47467	7
0.47833	7
0.48200	7
0.48567	7
0.48933	7
0.49300	7
0.49667	7
0.50033	8
0.50400	8
0.50767	8
0.51133	8
0.51500	8
0.51867	8
0.52233	8
0.52600	7
0.52967	7
0.53333	6
0.53700	6
0.54067	5
0.54433	5
0.54800	5
0.55167	5
0.55533	5
0.55900	5
0.56267	5
0.56633	5
0.57000	5
0.57367	5
0.57733	5
0.58100	5
0.58467	5
0.58833	5
0.59200	5
0.59567	5
0.59933	5
0.60300	5
0.60667	5
0.61033	5
0.61400	5
0.61767	5
0.62133	5
0.62500	5
0.62867	5
0.63233	5
0.63600	5
0.63967	5
0.64333	4
0.64700	5
0.65067	5
0.65433	5
0.65800	5
0.66167	5
0.66533	5
0.66900	5
0.67267	4
0.67633	4
0.68000	4
0.68367	4
0.68733	4
0.69100	4
0.69467	4
0.69833	4
0.70200	4
0.70567	4
0.70933	4
0.71300	4
0.71667	4
0.72033	3
0.72400	3
0.72767	4
0.73133	4
0.73500	4
0.73867	4
0.74233	4
0.74600	4
0.74967	3
0.75333	3
0.75700	3
0.76067	3
0.76433	2
0.76800	2
0.77167	2
0.77533	2
0.77900	2
0.78267	2
0.78633	2
0.79000	2
0.79367	2
0.79733	2
0.80100	2
0.80467	2
0.80833	2
0.81200	2
0.81567	2
0.81933	2
0.82300	2
0.82667	2
0.83033	3
0.83400	3
0.83767	2
0.84133	2
0.84500	3
0.84867	3
0.85233	3
0.85600	3
0.85967	3
0.86333	3
0.86700	3
0.87067	3
0.87433	3
0.87800	3
0.88167	3
0.88533	3
0.88900	4
0.89267	4
0.89633	4
0.90000	4
0.90367	4
0.90733	4
0.91100	4
0.91467	4
0.91833	4
0.92200	3
0.92567	3
0.92933	3
0.93300	3
0.93667	4
0.94033	3
0.94400	3
0.94767	3
0.95133	3
0.95500	3
0.95867	3
0.96233	3
0.96600	3
0.96967	3
0.97333	3
0.97700	3
0.98067	3
0.98433	2
0.98800	2
0.99167	2
0.99533	2
0.99900	2
1.00267	2
1.00633	2
1.01000	2
1.01367	2
1.01733	2
1.02100	2
1.02467	3
1.02833	3
1.03200	2
1.03567	2
1.03933	2
1.04300	2
1.04667	2
1.05033	2
1.05400	1
1.05767	1
1.06133	1
1.06500	0
1.06867	0
1.07233	-0
1.07600	-0
1.07967	-0
1.08333	-0
1.08700	-0
1.09067	0
1.09433	-0
1.09800	0
1.10167	0
1.10533	0
1.10900	0
1.11267	1
1.11633	1
1.12000	1
1.12367	2
1.12733	2
1.13100	3
1.13467	3
1.13833	3
1.14200	4
1.14567	4
1.14933	5
1.15300	5
1.15667	6
1.16033	6
1.16400	6
1.16767	6
1.17133	6
1.17500	5
1.17867	5
1.18233	5
1.18600	4
1.18967	4
1.19333	4
1.19700	3
1.20067	3
1.20433	2
1.20800	2
1.21167	2
1.21533	2
1.21900	2
1.22267	3
1.22633	3
1.23000	3
1.23367	3
1.23733	3
1.24100	3
1.24467	3
1.24833	3
1.25200	3
1.25567	3
1.25933	3
1.26300	3
1.26667	3
1.27033	3
1.27400	2
1.27767	2
1.28133	2
1.28500	1
1.28867	2
1.29233	2
1.29600	2
1.29967	2
1.30333	3
1.30700	3
1.31067	3
1.31433	3
1.31800	3
1.32167	3
1.32533	3
1.32900	3
1.33267	3
1.33633	3
1.34000	3
1.34367	3
1.34733	4
1.35100	4
1.35467	4
1.35833	4
1.36200	4
1.36567	4
1.36933	4
1.37300	3
1.37667	3
1.38033	3
1.38400	3
1.38767	3
1.39133	3
1.39500	3
1.39867	3
1.40233	2
1.40600	2
1.40967	2
1.41333	2
1.41700	2
1.42067	1
1.42433	1
1.42800	1
1.43167	0
1.43533	0
1.43900	0
1.44267	0
1.44633	0
1.45000	1
1.45367	1
1.45733	1
1.46100	2
1.46467	2
1.46833	2
1.47200	2
1.47567	2
1.47933	2
1.48300	2
1.48667	2
1.49033	2
1.49400	2
1.49767	2
1.50133	2
1.50500	2
1.50867	2
1.51233	3
1.51600	3
1.51967	3
1.52333	3
1.52700	3
1.53067	3
1.53433	3
1.53800	3
1.54167	3
1.54533	3
1.54900	3
1.55267	3
1.55633	2
1.56000	2
1.56367	2
1.56733	2
1.57100	1
1.57467	1
1.57833	1
1.58200	1
1.58567	1
1.58933	1
1.59300	1
1.59667	0
1.60033	-0
1.60400	-1
1.60767	-2
1.61133	-3
1.61500	-5
1.61867	-7
1.62233	-10
1.62600	-13
1.62967	-16
1.63333	-19
1.63700	-22
1.64067	-26
1.64433	-30
1.64800	-33
1.65167	-37
1.65533	-41
1.65900	-45
1.66267	-48
1.66633	-52
1.67000	-57
1.67367	-61
1.67733	-66
1.68100	-71
1.68467	-77
1.68833	-81
1.69200	-86
1.69567	-90
1.69933	-93
1.70300	-96
1.70667	-98
1.71033	-100
1.71400	-102
1.71767	-104
1.72133	-105
1.72500	-107
1.72867	-108
1.73233	-109
1.73600	-109
1.73967	-110
1.74333	-111
1.74700	-111
1.75067	-112
1.75433	-113
1.75800	-114
1.76167	-115
1.76533	-116
1.76900	-116
1.77267	-116
1.77633	-117
1.78000	-117
1.78367	-117
1.78733	-117
1.79100	-117
1.79467	-118
1.79833	-118
1.80200	-118
1.80567	-118
1.80933	-118
1.81300	-117
1.81667	-117
1.82033	-118
1.82400	-118
1.82767	-118
1.83133	-118
1.83500	-119
1.83867	-119
1.84233	-119
1.84600	-120
1.84967	-120
1.85333	-120
1.85700	-120
1.86067	-120
1.86433	-120
1.86800	-119
1.87167	-118
1.87533	-117
1.87900	-117
1.88267	-117
1.88633	-117
1.89000	-118
1.89367	-118
1.89733	-119
1.90100	-119
1.90467	-119
1.90833	-118
1.91200	-118
1.91567	-118
1.91933	-117
1.92300	-117
1.92667	-116
1.93033	-116
1.93400	-116
1.93767	-117
1.94133	-117
1.94500	-117
1.94867	-117
1.95233	-117
1.95600	-117
1.95967	-117
1.96333	-116
1.96700	-116
1.97067	-116
1.97433	-115
1.97800	-115
1.98167	-114
1.98533	-114
1.98900	-113
1.99267	-112
1.99633	-111
2.00000	-111
2.00367	-110
2.00733	-110
2.01100	-109
2.01467	-109
2.01833	-108
2.02200	-108
2.02567	-108
2.02933	-108
2.03300	-108
2.03667	-108
2.04033	-108
2.04400	-109
2.04767	-109
2.05133	-109
2.05500	-108
2.05867	-108
2.06233	-108
2.06600	-108
2.06967	-108
2.07333	-108
2.07700	-107
2.08067	-107
2.08433	-107
2.08800	-107
2.09167	-106
2.09533	-106
2.09900	-106
2.10267	-105
2.10633	-104
2.11000	-104
2.11367	-104
2.11733	-104
2.12100	-104
2.12467	-103
2.12833	-103
2.13200	-102
2.13567	-101
2.13933	-100
2.14300	-99
2.14667	-99
2.15033	-99
2.15400	-98
2.15767	-98
2.16133	-98
2.16500	-97
2.16867	-97
2.17233	-97
2.17600	-96
2.17967	-96
2.18333	-95
2.18700	-95
2.19067	-95
2.19433	-95
2.19800	-94
2.20167	-94
2.20533	-93
2.20900	-92
2.21267	-91
2.21633	-91
2.22000	-91
2.22367	-91
2.22733	-90
2.23100	-90
2.23467	-90
2.23833	-91
2.24200	-91
2.24567	-91
2.24933	-91
2.25300	-92
2.25667	-92
2.26033	-92
2.26400	-92
2.26767	-92
2.27133	-92
2.27500	-92
2.27867	-91
2.28233	-91
2.28600	-90
2.28967	-89
2.29333	-88
2.29700	-88
2.30067	-88
2.30433	-87
2.30800	-87
2.31167	-87
2.31533	-86
2.31900	-86
2.32267	-85
2.32633	-85
2.33000	-85
2.33367	-86
2.33733	-86
2.34100	-87
2.34467	-87
2.34833	-87
2.35200	-87
2.35567	-87
2.35933	-86
2.36300	-84
2.36667	-83
2.37033	-81
2.37400	-78
2.37767	-75
2.38133	-72
2.38500	-68
2.38867	-64
2.39233	-59
2.39600	-54
2.39967	-49
2.40333	-43
2.40700	-39
2.41067	-34
2.41433	-30
2.41800	-26
2.42167	-22
2.42533	-18
2.42900	-16
2.43267	-13
2.43633	-12
2.44000	-10
2.44367	-9
2.44733	-7
2.45100	-6
2.45467	-4
2.45833	-2
2.46200	-1
2.46567	0
2.46933	2
2.47300	3
2.47667	5
2.48033	6
2.48400	7
2.48767	8
2.49133	10
2.49500	10
2.49867	11
2.50233	12
2.50600	13
2.50967	14
2.51333	14
2.51700	14
2.52067	14
2.52433	14
2.52800	15
2.53167	15
2.53533	16
2.53900	16
2.54267	17
2.54633	17
2.55000	16
2.55367	16
2.55733	16
2.56100	16
2.56467	16
2.56833	16
2.57200	17
2.57567	18
2.57933	18
2.58300	19
2.58667	19
2.59033	19
2.59400	18
2.59767	18
2.60133	17
2.60500	17
2.60867	17
2.61233	17
2.61600	18
2.61967	18
2.62333	19
2.62700	20
2.63067	21
2.63433	22
2.63800	23
2.64167	23
2.64533	23
2.64900	23
2.65267	23
2.65633	23
2.66000	23
2.66367	23
2.66733	23
2.67100	23
2.67467	24
2.67833	24
2.68200	25
2.68567	26
2.68933	27
2.69300	28
2.69667	28
2.70033	29
2.70400	30
2.70767	30
2.71133	30
2.71500	30
2.71867	30
2.72233	29
2.72600	29
2.72967	28
2.73333	28
2.73700	27
2.74067	27
2.74433	27
2.74800	27
2.75167	27
2.75533	27
2.75900	27
2.76267	28
2.76633	28
2.77000	29
2.77367	29
2.77733	29
2.78100	29
2.78467	29
2.78833	29
2.79200	30
2.79567	30
2.79933	30
2.80300	31
2.80667	31
2.81033	31
2.81400	31
2.81767	31
2.82133	31
2.82500	31
2.82867	31
2.83233	31
2.83600	31
2.83967	31
2.84333	30
2.84700	29
2.85067	27
2.85433	23
2.85800	17
2.86167	8
2.86533	-5
2.86900	-21
2.87267	-41
2.87633	-64
2.88000	-92
2.88367	-124
2.88733	-159
2.89100	-198
2.89467	-240
2.89833	-284
2.90200	-330
2.90567	-378
2.90933	-428
2.91300	-478
2.91667	-529
2.92033	-579
2.92400	-630
2.92767	-680
2.93133	-729
2.93500	-778
2.93867	-828
2.94233	-882
2.94600	-942
2.94967	-1005
2.95333	-1060
2.95700	-1095
2.96067	-1105
2.96433	-1088
2.96800	-1047
2.97167	-988
2.97533	-917
2.97900	-838
2.98267	-757
2.98633	-677
2.99000	-599
2.99367	-527
2.99733	-460
3.00100	-399
3.00467	-344
3.00833	-296
3.01200	-253
3.01567	-216
3.01933	-183
3.02300	-155
3.02667	-130
3.03033	-109
3.03400	-91
3.03767	-75
3.04133	-61
3.04500	-50
3.04867	-40
3.05233	-32
3.05600	-25
3.05967	-18
3.06333	-13
3.06700	-9
3.07067	-4
3.07433	-1
3.07800	2
3.08167	5
3.08533	7
3.08900	9
3.09267	11
3.09633	12
3.10000	14
3.10367	15
3.10733	16
3.11100	17
3.11467	17
3.11833	18
3.12200	18
3.12567	19
3.12933	19
3.13300	19
3.13667	19
3.14033	20
3.14400	20
3.14767	20
3.15133	20
3.15500	21
3.15867	21
3.16233	21
3.16600	21
3.16967	22
3.17333	22
3.17700	23
3.18067	23
3.18433	23
3.18800	24
3.19167	24
3.19533	24
3.19900	24
3.20267	25
3.20633	25
3.21000	25
3.21367	25
3.21733	26
3.22100	26
3.22467	26
3.22833	26
3.23200	26
3.23567	27
3.23933	27
3.24300	27
3.24667	27
3.25033	27
3.25400	27
3.25767	27
3.26133	27
3.26500	27
3.26867	27
3.27233	27
3.27600	27
3.27967	27
3.28333	27
3.28700	27
3.29067	27
3.29433	28
3.29800	28
3.30167	28
3.30533	28
3.30900	28
3.31267	28
3.31633	28
3.32000	28
3.32367	28
3.32733	28
3.33100	29
3.33467	29
3.33833	29
3.34200	30
3.34567	30
3.34933	30
3.35300	31
3.35667	31
3.36033	31
3.36400	31
3.36767	31
3.37133	31
3.37500	31
3.37867	31
3.38233	32
3.38600	32
3.38967	32
3.39333	33
3.39700	33
3.40067	33
3.40433	33
3.40800	34
3.41167	34
3.41533	34
3.41900	34
3.42267	34
3.42633	34
3.43000	34
3.43367	34
3.43733	34
3.44100	34
3.44467	34
3.44833	34
3.45200	35
3.45567	35
3.45933	35
3.46300	35
3.46667	35
3.47033	35
3.47400	35
3.47767	35
3.48133	35
3.48500	35
3.48867	35
3.49233	35
3.49600	34
3.49967	34
3.50333	34
3.50700	33
3.51067	33
3.51433	33
3.51800	33
3.52167	33
3.52533	33
3.52900	32
3.53267	32
3.53633	32
3.54000	32
3.54367	32
3.54733	32
3.55100	32
3.55467	32
3.55833	31
3.56200	31
3.56567	31
3.56933	31
3.57300	31
3.57667	32
3.58033	32
3.58400	32
3.58767	32
3.59133	32
3.59500	32
3.59867	32
3.60233	33
3.60600	33
3.60967	33
3.61333	33
3.61700	32
3.62067	32
3.62433	32
3.62800	32
3.63167	31
3.63533	31
3.63900	31
3.64267	31
3.64633	30
3.65000	30
3.65367	30
3.65733	30
3.66100	30
3.66467	30
3.66833	30
3.67200	30
3.67567	30
3.67933	30
3.68300	30
3.68667	30
3.69033	30
3.69400	31
3.69767	31
3.70133	31
3.70500	31
3.70867	31
3.71233	31
3.71600	31
3.71967	31
3.72333	31
3.72700	31
3.73067	31
3.73433	32
3.73800	31
3.74167	31
3.74533	31
3.74900	31
3.75267	30
3.75633	30
3.76000	30
3.76367	30
3.76733	30
3.77100	30
3.77467	30
3.77833	30
3.78200	30
3.78567	30
3.78933	30
3.79300	30
3.79667	30
3.80033	30
3.80400	30
3.80767	30
3.81133	30
3.81500	30
3.81867	30
3.82233	30
3.82600	30
3.82967	30
3.83333	30
3.83700	29
3.84067	29
3.84433	29
3.84800	29
3.85167	29
3.85533	28
3.85900	28
3.86267	28
3.86633	29
3.87000	29
3.87367	29
3.87733	29
3.88100	30
3.88467	30
3.88833	30
3.89200	30
3.89567	30
3.89933	30
3.90300	30
3.90667	30
3.91033	30
3.91400	30
3.91767	30
3.92133	30
3.92500	30
3.92867	30
3.93233	30
3.93600	31
3.93967	31
3.94333	31
3.94700	31
3.95067	31
3.95433	31
3.95800	31
3.96167	30
3.96533	30
3.96900	30
3.97267	30
3.97633	30
3.98000	30
3.98367	30
3.98733	29
3.99100	29
3.99467	29
3.99833	29

[Chromatogram (Ch3)]
Interval(msec)	220
# of Points	1091
Start Time(min)	0.002
End Time(min)	3.998
R.Time (min)	Intensity
0.00167	-0
0.00533	-0
0.00900	-1
0.01267	0
0.01633	1
0.02000	0
0.02367	-0
0.02733	-2
0.03100	-3
0.03467	-2
0.03833	-1
0.04200	-1
0.04567	-1
0.04933	-1
0.05300	-2
0.05667	-3
0.06033	-3
0.06400	-1
0.06767	-1
0.07133	-2
0.07500	1
0.07867	1
0.08233	-1
0.08600	0
0.08967	-0
0.09333	0
0.09700	1
0.10067	3
0.10433	5
0.10800	9
0.11167	9
0.11533	8
0.11900	6
0.12267	4
0.12633	3
0.13000	1
0.13367	0
0.13733	-1
0.14100	-2
0.14467	-2
0.14833	-2
0.15200	-3
0.15567	-4
0.15933	-4
0.16300	-1
0.16667	1
0.17033	-1
0.17400	-2
0.17767	-4
0.18133	-4
0.18500	-3
0.18867	-1
0.19233	-2
0.19600	-2
0.19967	-3
0.20333	-1
0.20700	-0
0.21067	-1
0.21433	-2
0.21800	-0
0.22167	2
0.22533	5
0.22900	6
0.23267	5
0.23633	3
0.24000	2
0.24367	1
0.24733	0
0.25100	-0
0.25467	1
0.25833	1
0.26200	1
0.26567	1
0.26933	1
0.27300	0
0.27667	2
0.28033	3
0.28400	2
0.28767	1
0.29133	2
0.29500	3
0.29867	3
0.30233	2
0.30600	1
0.30967	-1
0.31333	-1
0.31700	0
0.32067	1
0.32433	1
0.32800	1
0.33167	0
0.33533	0
0.33900	1
0.34267	2
0.34633	1
0.35000	0
0.35367	1
0.35733	2
0.36100	3
0.36467	3
0.36833	2
0.37200	-1
0.37567	-3
0.37933	-3
0.38300	-1
0.38667	0
0.39033	2
0.39400	3
0.39767	4
0.40133	5
0.40500	5
0.40867	6
0.41233	6
0.41600	7
0.41967	7
0.42333	6
0.42700	2
0.43067	2
0.43433	1
0.43800	1
0.44167	3
0.44533	4
0.44900	4
0.45267	3
0.45633	1
0.46000	2
0.46367	2
0.46733	2
0.47100	4
0.47467	4
0.47833	2
0.48200	1
0.48567	2
0.48933	3
0.49300	3
0.49667	4
0.50033	3
0.50400	3
0.50767	4
0.51133	4
0.51500	4
0.51867	4
0.52233	3
0.52600	3
0.52967	3
0.53333	5
0.53700	8
0.54067	9
0.54433	9
0.54800	9
0.55167	10
0.55533	12
0.55900	11
0.56267	10
0.56633	5
0.57000	4
0.57367	4
0.57733	6
0.58100	6
0.58467	4
0.58833	4
0.59200	6
0.59567	8
0.59933	9
0.60300	10
0.60667	11
0.61033	11
0.61400	10
0.61767	10
0.62133	9
0.62500	10
0.62867	10
0.63233	12
0.63600	13
0.63967	12
0.64333	12
0.64700	14
0.65067	13
0.65433	13
0.65800	14
0.66167	12
0.66533	12
0.66900	11
0.67267	8
0.67633	9
0.68000	10
0.68367	10
0.68733	11
0.69100	11
0.69467	12
0.69833	12
0.70200	14
0.70567	14
0.70933	14
0.71300	14
0.71667	13
0.72033	11
0.72400	10
0.72767	13
0.73133	15
0.73500	15
0.73867	17
0.74233	17
0.74600	18
0.74967	18
0.75333	18
0.75700	18
0.76067	17
0.76433	18
0.76800	18
0.77167	17
0.77533	17
0.77900	18
0.78267	20
0.78633	20
0.79000	18
0.79367	17
0.79733	16
0.80100	15
0.80467	17
0.80833	19
0.81200	19
0.81567	20
0.81933	20
0.82300	19
0.82667	20
0.83033	19
0.83400	19
0.83767	19
0.84133	19
0.84500	17
0.84867	15
0.85233	14
0.85600	15
0.85967	16
0.86333	17
0.86700	19
0.87067	19
0.87433	18
0.87800	19
0.88167	20
0.88533	20
0.88900	20
0.89267	21
0.89633	22
0.90000	21
0.90367	21
0.90733	23
0.91100	23
0.91467	23
0.91833	24
0.92200	24
0.92567	22
0.92933	22
0.93300	21
0.93667	21
0.94033	23
0.94400	22
0.94767	22
0.95133	22
0.95500	22
0.95867	24
0.96233	26
0.96600	26
0.96967	26
0.97333	27
0.97700	27
0.98067	28
0.98433	27
0.98800	25
0.99167	22
0.99533	19
0.99900	20
1.00267	21
1.00633	23
1.01000	24
1.01367	25
1.01733	27
1.02100	29
1.02467	32
1.02833	32
1.03200	32
1.03567	32
1.03933	30
1.04300	32
1.04667	34
1.05033	34
1.05400	32
1.05767	29
1.06133	27
1.06500	28
1.06867	31
1.07233	34
1.07600	35
1.07967	36
1.08333	39
1.08700	39
1.09067	39
1.09433	39
1.09800	38
1.10167	37
1.10533	37
1.10900	36
1.11267	37
1.11633	37
1.12000	36
1.12367	36
1.12733	36
1.13100	36
1.13467	37
1.13833	36
1.14200	35
1.14567	35
1.14933	35
1.15300	34
1.15667	35
1.16033	36
1.16400	36
1.16767	38
1.17133	37
1.17500	37
1.17867	38
1.18233	39
1.18600	42
1.18967	45
1.19333	46
1.19700	46
1.20067	45
1.20433	44
1.20800	44
1.21167	46
1.21533	45
1.21900	45
1.22267	46
1.22633	46
1.23000	45
1.23367	46
1.23733	46
1.24100	44
1.24467	43
1.24833	43
1.25200	43
1.25567	43
1.25933	44
1.26300	43
1.26667	40
1.27033	39
1.27400	40
1.27767	41
1.28133	42
1.28500	43
1.28867	43
1.29233	44
1.29600	46
1.29967	50
1.30333	53
1.30700	55
1.31067	56
1.31433	54
1.31800	51
1.32167	50
1.32533	49
1.32900	47
1.33267	46
1.33633	47
1.34000	48
1.34367	49
1.34733	49
1.35100	52
1.35467	55
1.35833	53
1.36200	54
1.36567	54
1.36933	53
1.37300	54
1.37667	56
1.38033	57
1.38400	57
1.38767	55
1.39133	56
1.39500	55
1.39867	53
1.40233	51
1.40600	51
1.40967	53
1.41333	55
1.41700	57
1.42067	57
1.42433	54
1.42800	54
1.43167	54
1.43533	54
1.43900	55
1.44267	55
1.44633	55
1.45000	53
1.45367	53
1.45733	53
1.46100	55
1.46467	55
1.46833	58
1.47200	61
1.47567	63
1.47933	64
1.48300	63
1.48667	64
1.49033	62
1.49400	61
1.49767	64
1.50133	66
1.50500	67
1.50867	67
1.51233	66
1.51600	66
1.51967	67
1.52333	66
1.52700	64
1.53067	64
1.53433	65
1.53800	64
1.54167	65
1.54533	66
1.54900	65
1.55267	63
1.55633	62
1.56000	63
1.56367	63
1.56733	63
1.57100	62
1.57467	62
1.57833	63
1.58200	64
1.58567	63
1.58933	64
1.59300	65
1.59667	64
1.60033	65
1.60400	65
1.60767	64
1.61133	67
1.61500	68
1.61867	68
1.62233	69
1.62600	72
1.62967	73
1.63333	76
1.63700	76
1.64067	76
1.64433	78
1.64800	78
1.65167	76
1.65533	76
1.65900	76
1.66267	76
1.66633	77
1.67000	80
1.67367	80
1.67733	81
1.68100	82
1.68467	85
1.68833	85
1.69200	88
1.69567	90
1.69933	90
1.70300	90
1.70667	90
1.71033	90
1.71400	90
1.71767	91
1.72133	93
1.72500	94
1.72867	95
1.73233	94
1.73600	93
1.73967	92
1.74333	92
1.74700	94
1.75067	96
1.75433	98
1.75800	98
1.76167	100
1.76533	101
1.76900	102
1.77267	103
1.77633	105
1.78000	105
1.78367	106
1.78733	108
1.79100	112
1.79467	112
1.79833	112
1.80200	114
1.80567	116
1.80933	117
1.81300	117
1.81667	116
1.82033	117
1.82400	119
1.82767	120
1.83133	122
1.83500	122
1.83867	121
1.84233	121
1.84600	123
1.84967	126
1.85333	128
1.85700	128
1.86067	128
1.86433	129
1.86800	129
1.87167	128
1.87533	126
1.87900	127
1.88267	129
1.88633	131
1.89000	133
1.89367	134
1.89733	132
1.90100	132
1.90467	135
1.90833	135
1.91200	135
1.91567	135
1.91933	136
1.92300	137
1.92667	137
1.93033	136
1.93400	138
1.93767	141
1.94133	143
1.94500	145
1.94867	148
1.95233	150
1.95600	149
1.95967	149
1.96333	149
1.96700	149
1.97067	150
1.97433	151
1.97800	152
1.98167	155
1.98533	158
1.98900	160
1.99267	161
1.99633	161
2.00000	162
2.00367	165
2.00733	167
2.01100	167
2.01467	166
2.01833	165
2.02200	166
2.02567	167
2.02933	170
2.03300	177
2.03667	180
2.04033	181
2.04400	181
2.04767	182
2.05133	183
2.05500	184
2.05867	185
2.06233	188
2.06600	193
2.06967	197
2.07333	198
2.07700	200
2.08067	204
2.08433	207
2.08800	208
2.09167	206
2.09533	206
2.09900	206
2.10267	208
2.10633	211
2.11000	216
2.11367	218
2.11733	221
2.12100	223
2.12467	223
2.12833	223
2.13200	224
2.13567	227
2.13933	229
2.14300	231
2.14667	234
2.15033	237
2.15400	240
2.15767	243
2.16133	245
2.16500	245
2.16867	248
2.17233	254
2.17600	258
2.17967	258
2.18333	259
2.18700	258
2.19067	260
2.19433	262
2.19800	263
2.20167	265
2.20533	267
2.20900	269
2.21267	269
2.21633	269
2.22000	272
2.22367	276
2.22733	277
2.23100	280
2.23467	281
2.23833	280
2.24200	281
2.24567	283
2.24933	286
2.25300	289
2.25667	292
2.26033	294
2.26400	297
2.26767	297
2.27133	298
2.27500	299
2.27867	300
2.28233	300
2.28600	299
2.28967	303
2.29333	307
2.29700	309
2.30067	312
2.30433	312
2.30800	312
2.31167	315
2.31533	317
2.31900	318
2.32267	318
2.32633	318
2.33000	321
2.33367	323
2.33733	325
2.34100	326
2.34467	330
2.34833	336
2.35200	340
2.35567	342
2.35933	342
2.36300	343
2.36667	343
2.37033	340
2.37400	340
2.37767	341
2.38133	345
2.38500	346
2.38867	344
2.39233	343
2.39600	343
2.39967	342
2.40333	343
2.40700	345
2.41067	347
2.41433	348
2.41800	351
2.42167	355
2.42533	360
2.42900	363
2.43267	365
2.43633	365
2.44000	365
2.44367	368
2.44733	369
2.45100	361
2.45467	348
2.45833	334
2.46200	324
2.46567	317
2.46933	308
2.47300	303
2.47667	302
2.48033	301
2.48400	301
2.48767	302
2.49133	302
2.49500	300
2.49867	298
2.50233	298
2.50600	298
2.50967	299
2.51333	299
2.51700	298
2.52067	295
2.52433	294
2.52800	294
2.53167	295
2.53533	298
2.53900	301
2.54267	303
2.54633	304
2.55000	303
2.55367	302
2.55733	302
2.56100	301
2.56467	301
2.56833	301
2.57200	302
2.57567	304
2.57933	307
2.58300	307
2.58667	305
2.59033	301
2.59400	295
2.59767	290
2.60133	279
2.60500	259
2.60867	231
2.61233	195
2.61600	155
2.61967	115
2.62333	74
2.62700	38
2.63067	5
2.63433	-21
2.63800	-39
2.64167	-53
2.64533	-63
2.64900	-67
2.65267	-66
2.65633	-63
2.66000	-57
2.66367	-48
2.66733	-39
2.67100	-29
2.67467	-17
2.67833	-5
2.68200	5
2.68567	14
2.68933	24
2.69300	33
2.69667	41
2.70033	49
2.70400	56
2.70767	66
2.71133	77
2.71500	88
2.71867	98
2.72233	106
2.72600	113
2.72967	120
2.73333	130
2.73700	139
2.74067	145
2.74433	148
2.74800	154
2.75167	159
2.75533	164
2.75900	168
2.76267	173
2.76633	178
2.77000	183
2.77367	189
2.77733	192
2.78100	192
2.78467	194
2.78833	195
2.79200	198
2.79567	200
2.79933	201
2.80300	203
2.80667	205
2.81033	207
2.81400	207
2.81767	210
2.82133	216
2.82500	226
2.82867	250
2.83233	303
2.83600	401
2.83967	568
2.84333	827
2.84700	1186
2.85067	1646
2.85433	2192
2.85800	2797
2.86167	3416
2.86533	3997
2.86900	4499
2.87267	4886
2.87633	5129
2.88000	5224
2.88367	5181
2.88733	5018
2.89100	4766
2.89467	4453
2.89833	4103
2.90200	3739
2.90567	3377
2.90933	3030
2.91300	2701
2.91667	2401
2.92033	2132
2.92400	1890
2.92767	1675
2.93133	1485
2.93500	1317
2.93867	1169
2.94233	1041
2.94600	933
2.94967	837
2.95333	754
2.95700	679
2.96067	613
2.96433	556
2.96800	510
2.97167	469
2.97533	433
2.97900	402
2.98267	377
2.98633	356
2.99000	339
2.99367	321
2.99733	305
3.00100	294
3.00467	285
3.00833	276
3.01200	269
3.01567	263
3.01933	258
3.02300	252
3.02667	247
3.03033	241
3.03400	235
3.03767	230
3.04133	227
3.04500	225
3.04867	220
3.05233	216
3.05600	216
3.05967	216
3.06333	214
3.06700	211
3.07067	211
3.07433	212
3.07800	211
3.08167	211
3.08533	213
3.08900	214
3.09267	216
3.09633	214
3.10000	211
3.10367	209
3.10733	206
3.11100	204
3.11467	204
3.11833	204
3.12200	204
3.12567	204
3.12933	203
3.13300	203
3.13667	201
3.14033	201
3.14400	200
3.14767	200
3.15133	201
3.15500	201
3.15867	198
3.16233	196
3.16600	193
3.16967	191
3.17333	191
3.17700	188
3.18067	182
3.18433	176
3.18800	175
3.19167	185
3.19533	206
3.19900	237
3.20267	277
3.20633	321
3.21000	362
3.21367	398
3.21733	433
3.22100	465
3.22467	493
3.22833	521
3.23200	548
3.23567	574
3.23933	600
3.24300	627
3.24667	653
3.25033	674
3.25400	695
3.25767	712
3.26133	730
3.26500	745
3.26867	757
3.27233	767
3.27600	775
3.27967	783
3.28333	790
3.28700	795
3.29067	797
3.29433	800
3.29800	800
3.30167	799
3.30533	798
3.30900	801
3.31267	804
3.31633	805
3.32000	805
3.32367	803
3.32733	801
3.33100	798
3.33467	796
3.33833	794
3.34200	793
3.34567	789
3.34933	786
3.35300	781
3.35667	773
3.36033	767
3.36400	764
3.36767	762
3.37133	763
3.37500	762
3.37867	758
3.38233	752
3.38600	746
3.38967	742
3.39333	737
3.39700	733
3.40067	729
3.40433	725
3.40800	722
3.41167	720
3.41533	716
3.41900	711
3.42267	705
3.42633	700
3.43000	696
3.43367	691
3.43733	689
3.44100	688
3.44467	686
3.44833	683
3.45200	678
3.45567	675
3.45933	672
3.46300	669
3.46667	666
3.47033	664
3.47400	662
3.47767	662
3.48133	660
3.48500	654
3.48867	649
3.49233	646
3.49600	643
3.49967	640
3.50333	636
3.50700	635
3.51067	635
3.51433	632
3.51800	630
3.52167	628
3.52533	624
3.52900	621
3.53267	619
3.53633	617
3.54000	616
3.54367	611
3.54733	607
3.55100	602
3.55467	597
3.55833	595
3.56200	591
3.56567	588
3.56933	586
3.57300	584
3.57667	581
3.58033	579
3.58400	576
3.58767	573
3.59133	571
3.59500	568
3.59867	563
3.60233	559
3.60600	554
3.60967	549
3.61333	543
3.61700	538
3.62067	536
3.62433	535
3.62800	531
3.63167	527
3.63533	526
3.63900	525
3.64267	521
3.64633	517
3.65000	513
3.65367	509
3.65733	506
3.66100	504
3.66467	504
3.66833	503
3.67200	500
3.67567	496
3.67933	493
3.68300	490
3.68667	488
3.69033	487
3.69400	483
3.69767	480
3.70133	477
3.70500	475
3.70867	474
3.71233	474
3.71600	471
3.71967	468
3.72333	463
3.72700	458
3.73067	456
3.73433	453
3.73800	452
3.74167	454
3.74533	454
3.74900	453
3.75267	452
3.75633	449
3.76000	446
3.76367	444
3.76733	443
3.77100	442
3.77467	440
3.77833	439
3.78200	440
3.78567	439
3.78933	437
3.79300	435
3.79667	431
3.80033	429
3.80400	428
3.80767	424
3.81133	420
3.81500	419
3.81867	418
3.82233	417
3.82600	414
3.82967	412
3.83333	411
3.83700	411
3.84067	410
3.84433	409
3.84800	407
3.85167	405
3.85533	404
3.85900	403
3.86267	401
3.86633	400
3.87000	400
3.87367	399
3.87733	398
3.88100	398
3.88467	395
3.88833	393
3.89200	392
3.89567	390
3.89933	387
3.90300	387
3.90667	386
3.91033	385
3.91400	383
3.91767	380
3.92133	379
3.92500	380
3.92867	380
3.93233	378
3.93600	376
3.93967	375
3.94333	373
3.94700	373
3.95067	373
3.95433	374
3.95800	373
3.96167	370
3.96533	368
3.96900	368
3.97267	367
3.97633	367
3.98000	366
3.98367	363
3.98733	361
3.99100	359
3.99467	357
3.99833	357

[Status Trace (Column Oven Temperature)]
Interval(msec)	1000
# of Points	240
Start Time(min)	0.007
End Time(min)	3.991
Intensity Units	
Intensity Multiplier	1
R.Time (min)	Intensity
0.00730	35.08
0.02397	35.08
0.04063	35.07
0.05730	35.07
0.07397	35.07
0.09063	35.07
0.10730	35.06
0.12397	35.06
0.14063	35.05
0.15730	35.04
0.17397	35.04
0.19063	35.03
0.20730	35.04
0.22397	35.05
0.24063	35.07
0.25730	35.07
0.27397	35.07
0.29063	35.07
0.30730	35.07
0.32397	35.08
0.34063	35.08
0.35730	35.07
0.37397	35.05
0.39063	35.02
0.40730	35.01
0.42397	35.00
0.44063	34.99
0.45730	34.98
0.47397	34.98
0.49063	34.97
0.50730	34.97
0.52397	34.97
0.54063	34.96
0.55730	34.96
0.57397	34.97
0.59063	34.97
0.60730	34.97
0.62397	34.97
0.64063	34.97
0.65730	34.96
0.67397	34.96
0.69063	34.95
0.70730	34.95
0.72397	34.96
0.74063	34.97
0.75730	34.97
0.77397	34.98
0.79063	34.99
0.80730	34.99
0.82397	34.98
0.84063	34.99
0.85730	34.97
0.87397	34.97
0.89063	34.96
0.90730	34.96
0.92397	34.96
0.94063	34.96
0.95730	34.96
0.97397	34.97
0.99063	34.98
1.00730	34.98
1.02397	34.98
1.04063	34.98
1.05730	35.00
1.07397	35.01
1.09063	35.01
1.10730	35.01
1.12397	35.01
1.14063	35.00
1.15730	35.00
1.17397	34.99
1.19063	34.99
1.20730	35.00
1.22397	35.00
1.24063	35.00
1.25730	35.00
1.27397	35.01
1.29063	35.00
1.30730	35.00
1.32397	34.99
1.34063	34.99
1.35730	34.98
1.37397	34.99
1.39063	34.99
1.40730	35.00
1.42397	35.00
1.44063	35.00
1.45730	35.00
1.47397	35.01
1.49063	35.01
1.50730	35.00
1.52397	35.00
1.54063	34.99
1.55730	35.00
1.57397	35.01
1.59063	35.03
1.60730	35.08
1.62397	35.21
1.64063	35.39
1.65730	35.62
1.67397	35.94
1.69063	36.29
1.70730	36.64
1.72397	36.99
1.74063	37.32
1.75730	37.67
1.77397	37.99
1.79063	38.33
1.80730	38.65
1.82397	38.99
1.84063	39.33
1.85730	39.65
1.87397	39.95
1.89063	40.30
1.90730	40.62
1.92397	40.95
1.94063	41.29
1.95730	41.62
1.97397	41.95
1.99063	42.27
2.00730	42.58
2.02397	42.91
2.04063	43.25
2.05730	43.56
2.07397	43.90
2.09063	44.23
2.10730	44.55
2.12397	44.89
2.14063	45.20
2.15730	45.54
2.17397	45.86
2.19063	46.20
2.20730	46.51
2.22397	46.83
2.24063	47.16
2.25730	47.48
2.27397	47.83
2.29063	48.14
2.30730	48.47
2.32397	48.80
2.34063	49.16
2.35730	49.44
2.37397	49.63
2.39063	49.67
2.40730	49.66
2.42397	49.65
2.44063	49.67
2.45730	49.69
2.47397	49.70
2.49063	49.70
2.50730	49.71
2.52397	49.72
2.54063	49.74
2.55730	49.78
2.57397	49.78
2.59063	49.82
2.60730	49.85
2.62397	49.84
2.64063	49.85
2.65730	49.87
2.67397	49.87
2.69063	49.85
2.70730	49.84
2.72397	49.87
2.74063	49.89
2.75730	49.88
2.77397	49.88
2.79063	49.88
2.80730	49.88
2.82397	49.89
2.84063	49.90
2.85730	49.90
2.87397	49.89
2.89063	49.90
2.90730	49.92
2.92397	49.95
2.94063	49.97
2.95730	49.99
2.97397	50.00
2.99063	50.01
3.00730	50.02
3.02397	50.03
3.04063	50.04
3.05730	50.05
3.07397	50.04
3.09063	50.04
3.10730	50.04
3.12397	50.04
3.14063	50.06
3.15730	50.07
3.17397	50.08
3.19063	50.08
3.20730	50.08
3.22397	50.08
3.24063	50.08
3.25730	50.08
3.27397	50.09
3.29063	50.10
3.30730	50.11
3.32397	50.12
3.34063	50.11
3.35730	50.12
3.37397	50.11
3.39063	50.09
3.40730	50.06
3.42397	50.04
3.44063	50.03
3.45730	50.01
3.47397	50.00
3.49063	49.99
3.50730	49.98
3.52397	49.99
3.54063	49.99
3.55730	49.99
3.57397	49.98
3.59063	49.98
3.60730	49.97
3.62397	49.97
3.64063	49.97
3.65730	49.99
3.67397	49.99
3.69063	49.99
3.70730	49.98
3.72397	49.98
3.74063	49.98
3.75730	49.98
3.77397	50.00
3.79063	49.99
3.80730	50.01
3.82397	50.01
3.84063	50.02
3.85730	50.03
3.87397	50.03
3.89063	50.03
3.90730	50.04
3.92397	50.04
3.94063	50.04
3.95730	50.04
3.97397	50.04
3.99063	50.05

[Status Trace (Injection Unit Temperature)]
Interval(msec)	1000
# of Points	240
Start Time(min)	0.007
End Time(min)	3.991
Intensity Units	
Intensity Multiplier	1
R.Time (min)	Intensity
0.00730	99.98
0.02397	99.98
0.04063	99.98
0.05730	99.98
0.07397	99.98
0.09063	99.98
0.10730	99.98
0.12397	99.98
0.14063	99.98
0.15730	99.98
0.17397	99.98
0.19063	99.98
0.20730	99.98
0.22397	99.98
0.24063	99.99
0.25730	99.99
0.27397	99.98
0.29063	99.98
0.30730	99.98
0.32397	99.98
0.34063	99.98
0.35730	99.98
0.37397	99.99
0.39063	99.99
0.40730	99.98
0.42397	99.99
0.44063	99.99
0.45730	99.99
0.47397	99.98
0.49063	99.99
0.50730	99.99
0.52397	99.99
0.54063	99.98
0.55730	99.99
0.57397	99.99
0.59063	99.98
0.60730	99.98
0.62397	99.99
0.64063	99.98
0.65730	99.99
0.67397	99.98
0.69063	99.98
0.70730	99.98
0.72397	99.98
0.74063	99.98
0.75730	99.98
0.77397	99.98
0.79063	99.98
0.80730	99.98
0.82397	99.98
0.84063	99.98
0.85730	99.98
0.87397	99.98
0.89063	99.98
0.90730	99.98
0.92397	99.98
0.94063	99.98
0.95730	99.98
0.97397	99.98
0.99063	99.98
1.00730	99.98
1.02397	99.98
1.04063	99.98
1.05730	99.98
1.07397	99.98
1.09063	99.98
1.10730	99.98
1.12397	99.98
1.14063	99.98
1.15730	99.98
1.17397	99.98
1.19063	99.98
1.20730	99.98
1.22397	99.98
1.24063	99.98
1.25730	99.98
1.27397	99.98
1.29063	99.98
1.30730	99.98
1.32397	99.98
1.34063	99.98
1.35730	99.98
1.37397	99.98
1.39063	99.98
1.40730	99.98
1.42397	99.98
1.44063	99.98
1.45730	99.98
1.47397	99.98
1.49063	99.98
1.50730	99.98
1.52397	99.98
1.54063	99.98
1.55730	99.98
1.57397	99.98
1.59063	99.98
1.60730	99.98
1.62397	99.98
1.64063	99.98
1.65730	99.98
1.67397	99.98
1.69063	99.99
1.70730	99.98
1.72397	99.99
1.74063	99.99
1.75730	99.99
1.77397	99.99
1.79063	99.99
1.80730	99.98
1.82397	99.98
1.84063	99.98
1.85730	99.98
1.87397	99.98
1.89063	99.98
1.90730	99.98
1.92397	99.98
1.94063	99.98
1.95730	99.98
1.97397	99.98
1.99063	99.98
2.00730	99.98
2.02397	99.98
2.04063	99.98
2.05730	99.98
2.07397	99.98
2.09063	99.98
2.10730	99.98
2.12397	99.97
2.14063	99.98
2.15730	99.98
2.17397	99.97
2.19063	99.98
2.20730	99.98
2.22397	99.98
2.24063	99.97
2.25730	99.97
2.27397	99.97
2.29063	99.97
2.30730	99.97
2.32397	99.97
2.34063	99.97
2.35730	99.97
2.37397	99.97
2.39063	99.97
2.40730	99.98
2.42397	99.97
2.44063	99.97
2.45730	99.97
2.47397	99.97
2.49063	99.97
2.50730	99.97
2.52397	99.97
2.54063	99.98
2.55730	99.97
2.57397	99.97
2.59063	99.97
2.60730	99.98
2.62397	99.98
2.64063	99.98
2.65730	99.98
2.67397	99.98
2.69063	99.98
2.70730	99.98
2.72397	99.99
2.74063	99.98
2.75730	99.99
2.77397	99.98
2.79063	99.99
2.80730	99.99
2.82397	99.99
2.84063	99.99
2.85730	99.99
2.87397	99.99
2.89063	100.00
2.90730	100.00
2.92397	100.00
2.94063	100.00
2.95730	100.00
2.97397	100.00
2.99063	100.00
3.00730	100.01
3.02397	100.01
3.04063	100.01
3.05730	100.01
3.07397	100.01
3.09063	100.01
3.10730	100.01
3.12397	100.01
3.14063	100.02
3.15730	100.02
3.17397	100.02
3.19063	100.02
3.20730	100.02
3.22397	100.02
3.24063	100.02
3.25730	100.02
3.27397	100.03
3.29063	100.02
3.30730	100.03
3.32397	100.03
3.34063	100.03
3.35730	100.03
3.37397	100.03
3.39063	100.04
3.40730	100.03
3.42397	100.04
3.44063	100.04
3.45730	100.03
3.47397	100.04
3.49063	100.04
3.50730	100.04
3.52397	100.04
3.54063	100.04
3.55730	100.04
3.57397	100.05
3.59063	100.04
3.60730	100.04
3.62397	100.05
3.64063	100.05
3.65730	100.05
3.67397	100.04
3.69063	100.04
3.70730	100.05
3.72397	100.04
3.74063	100.05
3.75730	100.05
3.77397	100.05
3.79063	100.05
3.80730	100.05
3.82397	100.04
3.84063	100.04
3.85730	100.05
3.87397	100.05
3.89063	100.04
3.90730	100.05
3.92397	100.05
3.94063	100.05
3.95730	100.05
3.97397	100.05
3.99063	100.05

[Status Trace (Carrier Gas Pressure)]
Interval(msec)	1000
# of Points	240
Start Time(min)	0.007
End Time(min)	3.991
Intensity Units	
Intensity Multiplier	1
R.Time (min)	Intensity
0.00730	58.00
0.02397	55.42
0.04063	56.92
0.05730	59.07
0.07397	59.60
0.09063	58.13
0.10730	57.97
0.12397	58.01
0.14063	58.01
0.15730	58.01
0.17397	58.00
0.19063	58.00
0.20730	58.00
0.22397	58.00
0.24063	58.00
0.25730	58.00
0.27397	58.00
0.29063	58.00
0.30730	58.00
0.32397	58.00
0.34063	58.00
0.35730	58.00
0.37397	58.00
0.39063	58.00
0.40730	58.00
0.42397	58.00
0.44063	58.00
0.45730	58.00
0.47397	58.00
0.49063	58.00
0.50730	58.00
0.52397	58.00
0.54063	58.00
0.55730	58.00
0.57397	58.00
0.59063	58.00
0.60730	58.00
0.62397	58.00
0.64063	58.00
0.65730	58.00
0.67397	58.00
0.69063	58.00
0.70730	58.00
0.72397	58.00
0.74063	58.00
0.75730	58.00
0.77397	58.00
0.79063	58.00
0.80730	58.00
0.82397	58.00
0.84063	58.00
0.85730	58.00
0.87397	58.00
0.89063	58.00
0.90730	58.00
0.92397	58.00
0.94063	58.00
0.95730	58.00
0.97397	58.00
0.99063	58.00
1.00730	58.00
1.02397	58.00
1.04063	58.00
1.05730	58.00
1.07397	58.00
1.09063	58.00
1.10730	58.00
1.12397	58.00
1.14063	58.00
1.15730	58.00
1.17397	58.00
1.19063	58.00
1.20730	58.00
1.22397	58.00
1.24063	58.00
1.25730	58.00
1.27397	58.00
1.29063	58.00
1.30730	58.00
1.32397	58.00
1.34063	58.00
1.35730	58.00
1.37397	58.00
1.39063	58.00
1.40730	58.00
1.42397	58.00
1.44063	58.00
1.45730	58.00
1.47397	58.00
1.49063	58.00
1.50730	58.00
1.52397	58.00
1.54063	58.00
1.55730	58.00
1.57397	58.00
1.59063	58.00
1.60730	58.00
1.62397	58.00
1.64063	58.01
1.65730	58.00
1.67397	58.01
1.69063	58.01
1.70730	58.00
1.72397	58.00
1.74063	58.00
1.75730	58.00
1.77397	58.00
1.79063	58.00
1.80730	58.00
1.82397	58.00
1.84063	58.00
1.85730	58.00
1.87397	58.00
1.89063	58.00
1.90730	58.00
1.92397	58.00
1.94063	58.00
1.95730	58.00
1.97397	58.00
1.99063	58.00
2.00730	58.00
2.02397	58.00
2.04063	58.00
2.05730	58.00
2.07397	58.00
2.09063	58.00
2.10730	58.00
2.12397	58.00
2.14063	58.00
2.15730	58.00
2.17397	58.00
2.19063	58.00
2.20730	58.00
2.22397	58.00
2.24063	58.00
2.25730	58.00
2.27397	58.00
2.29063	58.00
2.30730	58.00
2.32397	58.00
2.34063	58.00
2.35730	58.00
2.37397	57.99
2.39063	57.99
2.40730	57.99
2.42397	58.00
2.44063	58.00
2.45730	58.00
2.47397	58.00
2.49063	58.00
2.50730	58.00
2.52397	57.99
2.54063	58.00
2.55730	58.00
2.57397	58.00
2.59063	58.00
2.60730	58.00
2.62397	58.00
2.64063	58.00
2.65730	58.00
2.67397	58.00
2.69063	58.00
2.70730	58.00
2.72397	58.00
2.74063	58.00
2.75730	58.00
2.77397	58.00
2.79063	58.00
2.80730	58.00
2.82397	58.00
2.84063	58.00
2.85730	58.00
2.87397	58.00
2.89063	58.00
2.90730	58.00
2.92397	58.00
2.94063	58.00
2.95730	58.00
2.97397	58.00
2.99063	58.00
3.00730	58.00
3.02397	58.00
3.04063	58.00
3.05730	58.00
3.07397	58.00
3.09063	58.00
3.10730	58.00
3.12397	58.00
3.14063	58.00
3.15730	58.00
3.17397	58.00
3.19063	58.00
3.20730	58.00
3.22397	58.00
3.24063	58.00
3.25730	58.00
3.27397	58.00
3.29063	58.00
3.30730	58.00
3.32397	58.00
3.34063	58.00
3.35730	58.00
3.37397	58.00
3.39063	58.00
3.40730	58.00
3.42397	58.00
3.44063	58.00
3.45730	58.00
3.47397	58.00
3.49063	58.00
3.50730	58.00
3.52397	58.00
3.54063	58.00
3.55730	58.00
3.57397	58.00
3.59063	58.00
3.60730	58.00
3.62397	58.00
3.64063	58.00
3.65730	58.00
3.67397	58.00
3.69063	58.00
3.70730	58.00
3.72397	58.00
3.74063	58.00
3.75730	58.00
3.77397	58.00
3.79063	58.00
3.80730	58.00
3.82397	58.00
3.84063	58.00
3.85730	58.00
3.87397	58.00
3.89063	58.00
3.90730	58.00
3.92397	58.00
3.94063	58.00
3.95730	58.00
3.97397	58.00
3.99063	58.00

[Status Trace (Carrier Gas Flow)]
Interval(msec)	1000
# of Points	240
Start Time(min)	0.007
End Time(min)	3.991
Intensity Units	
Intensity Multiplier	1
R.Time (min)	Intensity
0.00730	34.52
0.02397	34.54
0.04063	34.54
0.05730	34.55
0.07397	34.50
0.09063	34.51
0.10730	34.52
0.12397	34.52
0.14063	34.52
0.15730	34.52
0.17397	34.52
0.19063	34.52
0.20730	34.52
0.22397	34.52
0.24063	34.52
0.25730	34.52
0.27397	34.52
0.29063	34.52
0.30730	34.52
0.32397	34.52
0.34063	34.52
0.35730	34.52
0.37397	34.52
0.39063	34.52
0.40730	34.52
0.42397	34.52
0.44063	34.52
0.45730	34.52
0.47397	34.52
0.49063	34.52
0.50730	34.52
0.52397	34.52
0.54063	34.52
0.55730	34.52
0.57397	34.52
0.59063	34.52
0.60730	34.52
0.62397	34.52
0.64063	34.52
0.65730	34.52
0.67397	34.52
0.69063	34.52
0.70730	34.52
0.72397	34.52
0.74063	34.52
0.75730	34.52
0.77397	34.52
0.79063	34.52
0.80730	34.52
0.82397	34.52
0.84063	34.52
0.85730	34.52
0.87397	34.52
0.89063	34.52
0.90730	34.52
0.92397	34.52
0.94063	34.52
0.95730	34.52
0.97397	34.52
0.99063	34.52
1.00730	34.52
1.02397	34.52
1.04063	34.52
1.05730	34.52
1.07397	34.51
1.09063	34.52
1.10730	34.52
1.12397	34.52
1.14063	34.52
1.15730	34.52
1.17397	34.52
1.19063	34.52
1.20730	34.51
1.22397	34.52
1.24063	34.52
1.25730	34.53
1.27397	34.53
1.29063	34.51
1.30730	34.53
1.32397	34.52
1.34063	34.52
1.35730	34.51
1.37397	34.51
1.39063	34.51
1.40730	34.52
1.42397	34.52
1.44063	34.52
1.45730	34.52
1.47397	34.52
1.49063	34.52
1.50730	34.52
1.52397	34.52
1.54063	34.52
1.55730	34.52
1.57397	34.52
1.59063	34.52
1.60730	34.52
1.62397	34.52
1.64063	34.52
1.65730	34.52
1.67397	34.52
1.69063	34.52
1.70730	34.52
1.72397	34.52
1.74063	34.52
1.75730	34.52
1.77397	34.52
1.79063	34.52
1.80730	34.52
1.82397	34.52
1.84063	34.52
1.85730	34.52
1.87397	34.52
1.89063	34.52
1.90730	34.52
1.92397	34.52
1.94063	34.52
1.95730	34.52
1.97397	34.52
1.99063	34.52
2.00730	34.52
2.02397	34.52
2.04063	34.52
2.05730	34.52
2.07397	34.52
2.09063	34.52
2.10730	34.52
2.12397	34.52
2.14063	34.52
2.15730	34.52
2.17397	34.52
2.19063	34.52
2.20730	34.52
2.22397	34.52
2.24063	34.52
2.25730	34.52
2.27397	34.52
2.29063	34.52
2.30730	34.52
2.32397	34.52
2.34063	34.52
2.35730	34.52
2.37397	34.52
2.39063	34.52
2.40730	34.52
2.42397	34.52
2.44063	34.52
2.45730	34.52
2.47397	34.52
2.49063	34.52
2.50730	34.34
2.52397	34.52
2.54063	34.52
2.55730	34.52
2.57397	34.52
2.59063	34.52
2.60730	34.52
2.62397	34.52
2.64063	34.52
2.65730	34.52
2.67397	34.52
2.69063	34.52
2.70730	34.52
2.72397	34.52
2.74063	34.52
2.75730	34.52
2.77397	34.52
2.79063	34.52
2.80730	34.52
2.82397	34.52
2.84063	34.52
2.85730	34.52
2.87397	34.52
2.89063	34.52
2.90730	34.52
2.92397	34.52
2.94063	34.52
2.95730	34.52
2.97397	34.52
2.99063	34.52
3.00730	34.52
3.02397	34.52
3.04063	34.52
3.05730	34.52
3.07397	34.52
3.09063	34.52
3.10730	34.52
3.12397	34.52
3.14063	34.52
3.15730	34.52
3.17397	34.52
3.19063	34.52
3.20730	34.52
3.22397	34.52
3.24063	34.52
3.25730	34.52
3.27397	34.52
3.29063	34.52
3.30730	34.52
3.32397	34.52
3.34063	34.52
3.35730	34.52
3.37397	34.52
3.39063	34.52
3.40730	34.52
3.42397	34.52
3.44063	34.52
3.45730	34.52
3.47397	34.52
3.49063	34.52
3.50730	34.52
3.52397	34.52
3.54063	34.52
3.55730	34.52
3.57397	34.52
3.59063	34.52
3.60730	34.52
3.62397	34.52
3.64063	34.52
3.65730	34.52
3.67397	34.52
3.69063	34.52
3.70730	34.52
3.72397	34.52
3.74063	34.52
3.75730	34.52
3.77397	34.52
3.79063	34.52
3.80730	34.52
3.82397	34.52
3.84063	34.52
3.85730	34.52
3.87397	34.52
3.89063	34.52
3.90730	34.52
3.92397	34.52
3.94063	34.52
3.95730	34.52
3.97397	34.52
3.99063	34.52

[Status Trace (Column Flow)]
Interval(msec)	1000
# of Points	240
Start Time(min)	0.007
End Time(min)	3.991
Intensity Units	
Intensity Multiplier	1
R.Time (min)	Intensity
0.00730	5.57
0.02397	5.27
0.04063	5.44
0.05730	5.70
0.07397	5.76
0.09063	5.59
0.10730	5.57
0.12397	5.57
0.14063	5.57
0.15730	5.57
0.17397	5.57
0.19063	5.57
0.20730	5.57
0.22397	5.57
0.24063	5.57
0.25730	5.57
0.27397	5.57
0.29063	5.57
0.30730	5.57
0.32397	5.57
0.34063	5.57
0.35730	5.57
0.37397	5.57
0.39063	5.57
0.40730	5.57
0.42397	5.57
0.44063	5.57
0.45730	5.57
0.47397	5.57
0.49063	5.57
0.50730	5.57
0.52397	5.57
0.54063	5.57
0.55730	5.57
0.57397	5.57
0.59063	5.57
0.60730	5.57
0.62397	5.57
0.64063	5.57
0.65730	5.57
0.67397	5.57
0.69063	5.58
0.70730	5.58
0.72397	5.57
0.74063	5.57
0.75730	5.57
0.77397	5.57
0.79063	5.57
0.80730	5.57
0.82397	5.57
0.84063	5.57
0.85730	5.57
0.87397	5.57
0.89063	5.57
0.90730	5.57
0.92397	5.57
0.94063	5.57
0.95730	5.57
0.97397	5.57
0.99063	5.57
1.00730	5.57
1.02397	5.57
1.04063	5.57
1.05730	5.57
1.07397	5.57
1.09063	5.57
1.10730	5.57
1.12397	5.57
1.14063	5.57
1.15730	5.57
1.17397	5.57
1.19063	5.57
1.20730	5.57
1.22397	5.57
1.24063	5.57
1.25730	5.57
1.27397	5.57
1.29063	5.57
1.30730	5.57
1.32397	5.57
1.34063	5.57
1.35730	5.57
1.37397	5.57
1.39063	5.57
1.40730	5.57
1.42397	5.57
1.44063	5.57
1.45730	5.57
1.47397	5.57
1.49063	5.57
1.50730	5.57
1.52397	5.57
1.54063	5.57
1.55730	5.57
1.57397	5.57
1.59063	5.57
1.60730	5.57
1.62397	5.57
1.64063	5.56
1.65730	5.55
1.67397	5.54
1.69063	5.53
1.70730	5.52
1.72397	5.51
1.74063	5.50
1.75730	5.49
1.77397	5.48
1.79063	5.47
1.80730	5.46
1.82397	5.45
1.84063	5.44
1.85730	5.43
1.87397	5.42
1.89063	5.41
1.90730	5.40
1.92397	5.39
1.94063	5.38
1.95730	5.37
1.97397	5.36
1.99063	5.35
2.00730	5.34
2.02397	5.33
2.04063	5.32
2.05730	5.31
2.07397	5.30
2.09063	5.29
2.10730	5.28
2.12397	5.27
2.14063	5.26
2.15730	5.25
2.17397	5.24
2.19063	5.24
2.20730	5.22
2.22397	5.22
2.24063	5.21
2.25730	5.20
2.27397	5.19
2.29063	5.18
2.30730	5.17
2.32397	5.16
2.34063	5.15
2.35730	5.14
2.37397	5.14
2.39063	5.13
2.40730	5.13
2.42397	5.14
2.44063	5.14
2.45730	5.13
2.47397	5.13
2.49063	5.13
2.50730	5.13
2.52397	5.13
2.54063	5.13
2.55730	5.13
2.57397	5.13
2.59063	5.13
2.60730	5.13
2.62397	5.13
2.64063	5.13
2.65730	5.13
2.67397	5.13
2.69063	5.13
2.70730	5.13
2.72397	5.13
2.74063	5.13
2.75730	5.13
2.77397	5.13
2.79063	5.13
2.80730	5.13
2.82397	5.13
2.84063	5.13
2.85730	5.13
2.87397	5.13
2.89063	5.13
2.90730	5.13
2.92397	5.13
2.94063	5.13
2.95730	5.13
2.97397	5.13
2.99063	5.13
3.00730	5.13
3.02397	5.13
3.04063	5.13
3.05730	5.12
3.07397	5.12
3.09063	5.12
3.10730	5.13
3.12397	5.12
3.14063	5.12
3.15730	5.12
3.17397	5.12
3.19063	5.12
3.20730	5.12
3.22397	5.12
3.24063	5.12
3.25730	5.12
3.27397	5.12
3.29063	5.12
3.30730	5.12
3.32397	5.12
3.34063	5.12
3.35730	5.12
3.37397	5.12
3.39063	5.12
3.40730	5.12
3.42397	5.13
3.44063	5.13
3.45730	5.13
3.47397	5.13
3.49063	5.13
3.50730	5.13
3.52397	5.13
3.54063	5.13
3.55730	5.13
3.57397	5.13
3.59063	5.13
3.60730	5.13
3.62397	5.13
3.64063	5.13
3.65730	5.13
3.67397	5.13
3.69063	5.13
3.70730	5.13
3.72397	5.13
3.74063	5.13
3.75730	5.13
3.77397	5.13
3.79063	5.13
3.80730	5.13
3.82397	5.13
3.84063	5.13
3.85730	5.13
3.87397	5.12
3.89063	5.13
3.90730	5.12
3.92397	5.12
3.94063	5.12
3.95730	5.13
3.97397	5.13
3.99063	5.12

[Status Trace (Linear Velocity)]
Interval(msec)	1000
# of Points	240
Start Time(min)	0.007
End Time(min)	3.991
Intensity Units	
Intensity Multiplier	1
R.Time (min)	Intensity
0.00730	39.02
0.02397	37.33
0.04063	38.31
0.05730	39.73
0.07397	40.07
0.09063	39.11
0.10730	39.00
0.12397	39.03
0.14063	39.03
0.15730	39.03
0.17397	39.03
0.19063	39.03
0.20730	39.03
0.22397	39.03
0.24063	39.02
0.25730	39.02
0.27397	39.02
0.29063	39.02
0.30730	39.02
0.32397	39.02
0.34063	39.02
0.35730	39.02
0.37397	39.02
0.39063	39.03
0.40730	39.03
0.42397	39.03
0.44063	39.03
0.45730	39.03
0.47397	39.03
0.49063	39.03
0.50730	39.03
0.52397	39.03
0.54063	39.03
0.55730	39.03
0.57397	39.03
0.59063	39.03
0.60730	39.03
0.62397	39.03
0.64063	39.03
0.65730	39.03
0.67397	39.03
0.69063	39.03
0.70730	39.03
0.72397	39.03
0.74063	39.03
0.75730	39.03
0.77397	39.03
0.79063	39.03
0.80730	39.03
0.82397	39.03
0.84063	39.03
0.85730	39.03
0.87397	39.03
0.89063	39.03
0.90730	39.03
0.92397	39.03
0.94063	39.03
0.95730	39.03
0.97397	39.03
0.99063	39.03
1.00730	39.03
1.02397	39.03
1.04063	39.03
1.05730	39.03
1.07397	39.03
1.09063	39.03
1.10730	39.03
1.12397	39.03
1.14063	39.03
1.15730	39.03
1.17397	39.03
1.19063	39.03
1.20730	39.03
1.22397	39.03
1.24063	39.03
1.25730	39.03
1.27397	39.03
1.29063	39.03
1.30730	39.03
1.32397	39.03
1.34063	39.03
1.35730	39.03
1.37397	39.03
1.39063	39.03
1.40730	39.03
1.42397	39.03
1.44063	39.03
1.45730	39.03
1.47397	39.03
1.49063	39.03
1.50730	39.03
1.52397	39.03
1.54063	39.03
1.55730	39.03
1.57397	39.03
1.59063	39.03
1.60730	39.02
1.62397	39.01
1.64063	39.00
1.65730	38.97
1.67397	38.94
1.69063	38.91
1.70730	38.87
1.72397	38.84
1.74063	38.81
1.75730	38.77
1.77397	38.74
1.79063	38.71
1.80730	38.68
1.82397	38.65
1.84063	38.62
1.85730	38.59
1.87397	38.56
1.89063	38.53
1.90730	38.50
1.92397	38.47
1.94063	38.44
1.95730	38.40
1.97397	38.37
1.99063	38.35
2.00730	38.31
2.02397	38.28
2.04063	38.26
2.05730	38.22
2.07397	38.19
2.09063	38.17
2.10730	38.13
2.12397	38.10
2.14063	38.08
2.15730	38.04
2.17397	38.01
2.19063	37.99
2.20730	37.96
2.22397	37.93
2.24063	37.90
2.25730	37.87
2.27397	37.84
2.29063	37.81
2.30730	37.78
2.32397	37.75
2.34063	37.72
2.35730	37.69
2.37397	37.67
2.39063	37.67
2.40730	37.67
2.42397	37.67
2.44063	37.67
2.45730	37.67
2.47397	37.67
2.49063	37.67
2.50730	37.67
2.52397	37.66
2.54063	37.67
2.55730	37.67
2.57397	37.66
2.59063	37.66
2.60730	37.66
2.62397	37.66
2.64063	37.66
2.65730	37.66
2.67397	37.66
2.69063	37.66
2.70730	37.66
2.72397	37.66
2.74063	37.65
2.75730	37.65
2.77397	37.66
2.79063	37.65
2.80730	37.65
2.82397	37.65
2.84063	37.65
2.85730	37.65
2.87397	37.65
2.89063	37.65
2.90730	37.65
2.92397	37.65
2.94063	37.65
2.95730	37.65
2.97397	37.64
2.99063	37.64
3.00730	37.64
3.02397	37.64
3.04063	37.64
3.05730	37.64
3.07397	37.64
3.09063	37.64
3.10730	37.64
3.12397	37.64
3.14063	37.64
3.15730	37.64
3.17397	37.64
3.19063	37.64
3.20730	37.64
3.22397	37.64
3.24063	37.64
3.25730	37.64
3.27397	37.64
3.29063	37.64
3.30730	37.63
3.32397	37.63
3.34063	37.63
3.35730	37.63
3.37397	37.63
3.39063	37.64
3.40730	37.64
3.42397	37.64
3.44063	37.64
3.45730	37.64
3.47397	37.64
3.49063	37.65
3.50730	37.65
3.52397	37.65
3.54063	37.65
3.55730	37.65
3.57397	37.65
3.59063	37.65
3.60730	37.65
3.62397	37.65
3.64063	37.65
3.65730	37.65
3.67397	37.65
3.69063	37.64
3.70730	37.65
3.72397	37.65
3.74063	37.65
3.75730	37.65
3.77397	37.64
3.79063	37.64
3.80730	37.64
3.82397	37.64
3.84063	37.64
3.85730	37.64
3.87397	37.64
3.89063	37.64
3.90730	37.64
3.92397	37.64
3.94063	37.64
3.95730	37.64
3.97397	37.64
3.99063	37.64

