[Header]
Application Name	LabSolutions
Version	5.110
Data File Name	C:\Users\User\Desktop\GC Analyses\Jack\UIC Prairie Sampling\7.22.22\220722_095.gcd
Output Date	10/5/2022
Output Time	2:13:44 PM

[File Information]
Type	Data File
Generated	10/5/2022 12:28:38 PM
Generated by	System Administrator
Modified	10/5/2022 12:32:46 PM
Modified by	System Administrator

[Sample Information]
Operator Name	System Administrator
Acquired	10/5/2022 12:28:45 PM
Sample Type	1:Standard
Level	1
Sample Name	220722_UICPrairie
Sample ID	220722_UICPrairie
ISTD Amount1	1
ISTD Amount2	1
ISTD Amount3	1
ISTD Amount4	1
ISTD Amount5	1
ISTD Amount6	1
ISTD Amount7	1
ISTD Amount8	1
ISTD Amount9	1
ISTD Amount10	1
ISTD Amount11	1
ISTD Amount12	1
ISTD Amount13	1
ISTD Amount14	1
ISTD Amount15	1
ISTD Amount16	1
ISTD Amount17	1
ISTD Amount18	1
ISTD Amount19	1
ISTD Amount20	1
ISTD Amount21	1
ISTD Amount22	1
ISTD Amount23	1
ISTD Amount24	1
ISTD Amount25	1
ISTD Amount26	1
ISTD Amount27	1
ISTD Amount28	1
ISTD Amount29	1
ISTD Amount30	1
ISTD Amount31	1
ISTD Amount32	1
Sample Amount	1
Dilution Factor	1
Vial#	1
Injection Volume	1
Injection Count	1
Bar Code	

[Original Files]
Data File	C:\Users\User\Desktop\GC Analyses\Jack\UIC Prairie Sampling\7.22.22\220722_095.gcd
Method File	C:\LabSolutions\Data\GHG_4min_2022\ghg3_togas_w_acet_4 min_new_int.gcm
Batch File	
Report Format File	c:\LabSolutions\System\DEFAULT.lsr

[File Description]


[Configuration]
Instrument Name	C0B7VH3-Instrument1
Instrument #	1
Line #	1
# of Detectors	3
Detector ID	DET#1	DET#2	DET#3
Detector Name	FID	PTCD	ECD
# of Channels	1	1	1

[Peak Table(Ch1)]
# of Peaks	3
Peak#	R.Time	I.Time	F.Time	Area	Height	A/H	Conc.	Mark	ID#	Name	k'	Plate #	Plate Ht.	Tailing	Resolution	Sep.Factor	Area Ratio	Height Ratio	Conc. %	Norm Conc.
1	1.472	1.439	1.538	5170	1885	2.743	100.000	   	1	CO	0.000	5878	25.520	1.510	0.000	0.000	0	0	16.667	16.667
2	1.575	1.538	1.644	20369	10206	1.996	100.000	 V 	2	CH4	0.070	11507	13.035	1.129	1.515	0.000	0	0	16.667	16.667
3	2.000	1.949	2.352	2131342	1033190	2.063	400.000	   	3	CO2	0.359	17640	8.503	1.297	7.151	5.143	0	0	66.667	66.667

[Peak Table(Ch2)]
# of Peaks	0

[Peak Table(Ch3)]
# of Peaks	3
Peak#	R.Time	I.Time	F.Time	Area	Height	A/H	Conc.	Mark	ID#	Name	k'	Plate #	Plate Ht.	Tailing	Resolution	Sep.Factor	Area Ratio	Height Ratio	Conc. %	Norm Conc.
1	2.601	2.484	2.645	1176	236	4.993	0.000	   			0.000	4856	30.888	0.680	0.000	0.000	0	0	0.000	0.000
2	2.777	2.660	2.818	1354	201	6.742	0.022	   	1	N2O	0.068	711	211.073	0.000	0.622	0.000	0	0	2.174	2.174
3	2.887	2.818	3.320	60930	15249	3.996	0.978	 V 	1	N2O	0.110	12440	12.058	1.557	0.423	1.625	0	0	97.826	97.826

[Compound Results(Ch1)]
# of IDs	6
ID#	Name	R.Time	Area	Height	Conc.	Curve	3rd	2nd	1st	Constant	Area Ratio	Height Ratio	Conc. %	Norm Conc.
1	CO	1.472	5170	1885	100.000	Linear	0.000000e+00	0.000000e+00	5.170005e+001	0.000000e+00	0	0	16.667	16.667
2	CH4	1.575	20369	10206	100.000	Linear	0.000000e+00	0.000000e+00	2.036935e+002	0.000000e+00	0	0	16.667	16.667
3	CO2	2.000	2131342	1033190	400.000	Linear	0.000000e+00	0.000000e+00	5.328356e+003	0.000000e+00	0	0	66.667	66.667
4	Ethylene	0.000	0	0	0.000	Linear	0.000000e+00	0.000000e+00	0.000000e+00	0.000000e+00	0	0	0.000	0.000
5	Acetylene	0.000	0	0	0.000	Linear	0.000000e+00	0.000000e+00	0.000000e+00	0.000000e+00	0	0	0.000	0.000
6	Ethane	0.000	0	0	0.000	Linear	0.000000e+00	0.000000e+00	0.000000e+00	0.000000e+00	0	0	0.000	0.000

[Compound Results(Ch2)]
# of IDs	5
ID#	Name	R.Time	Area	Height	Conc.	Curve	3rd	2nd	1st	Constant	Area Ratio	Height Ratio	Conc. %	Norm Conc.
1	Hydrogen	0.000	0	0	0.000	Linear	0.000000e+00	0.000000e+00	0.000000e+00	0.000000e+00	0	0	0.000	0.000
2	Oxygen	0.000	0	0	0.000	Linear	0.000000e+00	0.000000e+00	0.000000e+00	0.000000e+00	0	0	0.000	0.000
3	Nitrogen	0.000	0	0	0.000	Linear	0.000000e+00	0.000000e+00	0.000000e+00	0.000000e+00	0	0	0.000	0.000
4	Methane	0.000	0	0	0.000	Linear	0.000000e+00	0.000000e+00	0.000000e+00	0.000000e+00	0	0	0.000	0.000
5	Carbon Monoxide	0.000	0	0	0.000	Linear	0.000000e+00	0.000000e+00	0.000000e+00	0.000000e+00	0	0	0.000	0.000

[Compound Results(Ch3)]
# of IDs	2
ID#	Name	R.Time	Area	Height	Conc.	Curve	3rd	2nd	1st	Constant	Area Ratio	Height Ratio	Conc. %	Norm Conc.
1	N2O	2.887	62284	15450	1.000	Linear	0.000000e+00	0.000000e+00	6.228396e+004	0.000000e+00	0	0	100.000	100.000
2	SF6	0.000	0	0	0.000	Linear	0.000000e+00	0.000000e+00	0.000000e+00	0.000000e+00	0	0	0.000	0.000

[Group Results(Ch1)]
# of Groups	0

[Group Results(Ch2)]
# of Groups	0

[Group Results(Ch3)]
# of Groups	0

[Chromatogram (Ch1)]
Interval(msec)	220
# of Points	1091
Start Time(min)	0.002
End Time(min)	3.998
R.Time (min)	Intensity
0.00167	-6
0.00533	-4
0.00900	-5
0.01267	-5
0.01633	-6
0.02000	-8
0.02367	-11
0.02733	-15
0.03100	-19
0.03467	-19
0.03833	-18
0.04200	-16
0.04567	-17
0.04933	-16
0.05300	-15
0.05667	-18
0.06033	-20
0.06400	-18
0.06767	-14
0.07133	-10
0.07500	-6
0.07867	-3
0.08233	-2
0.08600	-6
0.08967	-12
0.09333	-18
0.09700	-23
0.10067	-28
0.10433	-32
0.10800	-37
0.11167	-42
0.11533	-44
0.11900	-42
0.12267	-37
0.12633	-34
0.13000	-33
0.13367	-33
0.13733	-30
0.14100	-27
0.14467	-23
0.14833	-17
0.15200	-14
0.15567	-16
0.15933	-20
0.16300	-22
0.16667	-23
0.17033	-22
0.17400	-23
0.17767	-25
0.18133	-25
0.18500	-26
0.18867	-29
0.19233	-31
0.19600	-35
0.19967	-41
0.20333	-46
0.20700	-49
0.21067	-50
0.21433	-47
0.21800	-40
0.22167	-34
0.22533	-30
0.22900	-27
0.23267	-27
0.23633	-26
0.24000	-28
0.24367	-35
0.24733	-40
0.25100	-41
0.25467	-39
0.25833	-37
0.26200	-37
0.26567	-42
0.26933	-48
0.27300	-52
0.27667	-56
0.28033	-60
0.28400	-65
0.28767	-49
0.29133	-40
0.29500	-35
0.29867	-34
0.30233	-36
0.30600	-40
0.30967	-46
0.31333	-52
0.31700	-55
0.32067	-56
0.32433	-59
0.32800	-64
0.33167	-67
0.33533	-69
0.33900	-73
0.34267	-71
0.34633	-67
0.35000	-64
0.35367	-63
0.35733	-62
0.36100	-59
0.36467	-55
0.36833	-52
0.37200	-49
0.37567	-45
0.37933	-43
0.38300	-42
0.38667	-42
0.39033	-44
0.39400	-50
0.39767	-59
0.40133	-68
0.40500	-73
0.40867	-74
0.41233	-73
0.41600	-72
0.41967	-70
0.42333	-68
0.42700	-64
0.43067	-58
0.43433	-52
0.43800	-46
0.44167	-44
0.44533	-45
0.44900	-50
0.45267	-57
0.45633	-61
0.46000	-61
0.46367	-60
0.46733	-59
0.47100	-56
0.47467	-53
0.47833	-52
0.48200	-51
0.48567	-53
0.48933	-57
0.49300	-62
0.49667	-66
0.50033	-68
0.50400	-66
0.50767	-64
0.51133	-66
0.51500	-71
0.51867	-73
0.52233	-73
0.52600	-75
0.52967	-76
0.53333	-75
0.53700	-71
0.54067	-65
0.54433	-60
0.54800	-58
0.55167	-59
0.55533	-61
0.55900	-64
0.56267	-67
0.56633	-72
0.57000	-77
0.57367	-79
0.57733	-82
0.58100	-83
0.58467	-86
0.58833	-88
0.59200	-83
0.59567	-76
0.59933	-73
0.60300	-70
0.60667	-66
0.61033	-65
0.61400	-66
0.61767	-70
0.62133	-73
0.62500	-77
0.62867	-80
0.63233	-78
0.63600	-71
0.63967	-64
0.64333	-59
0.64700	-58
0.65067	-62
0.65433	-67
0.65800	-70
0.66167	-75
0.66533	-81
0.66900	-87
0.67267	-89
0.67633	-88
0.68000	-88
0.68367	-88
0.68733	-89
0.69100	-90
0.69467	-88
0.69833	-85
0.70200	-81
0.70567	-76
0.70933	-74
0.71300	-75
0.71667	-77
0.72033	-79
0.72400	-81
0.72767	-82
0.73133	-85
0.73500	-89
0.73867	-95
0.74233	-98
0.74600	-96
0.74967	-94
0.75333	-91
0.75700	-83
0.76067	-64
0.76433	-47
0.76800	-38
0.77167	-39
0.77533	-52
0.77900	-68
0.78267	-82
0.78633	-92
0.79000	-98
0.79367	-100
0.79733	-99
0.80100	-99
0.80467	-98
0.80833	-95
0.81200	-90
0.81567	-84
0.81933	-81
0.82300	-79
0.82667	-79
0.83033	-80
0.83400	-83
0.83767	-88
0.84133	-92
0.84500	-92
0.84867	-93
0.85233	-97
0.85600	-100
0.85967	-104
0.86333	-108
0.86700	-108
0.87067	-105
0.87433	-101
0.87800	-99
0.88167	-95
0.88533	-87
0.88900	-79
0.89267	-72
0.89633	-66
0.90000	-61
0.90367	-58
0.90733	-61
0.91100	-69
0.91467	-81
0.91833	-94
0.92200	-105
0.92567	-112
0.92933	-111
0.93300	-105
0.93667	-98
0.94033	-93
0.94400	-90
0.94767	-87
0.95133	-83
0.95500	-81
0.95867	-84
0.96233	-91
0.96600	-100
0.96967	-109
0.97333	-118
0.97700	-122
0.98067	-125
0.98433	-124
0.98800	-118
0.99167	-110
0.99533	-103
0.99900	-98
1.00267	-95
1.00633	-95
1.01000	-98
1.01367	-103
1.01733	-106
1.02100	-104
1.02467	-100
1.02833	-96
1.03200	-94
1.03567	-94
1.03933	-96
1.04300	-97
1.04667	-99
1.05033	-104
1.05400	-107
1.05767	-109
1.06133	-109
1.06500	-106
1.06867	-103
1.07233	-99
1.07600	-96
1.07967	-96
1.08333	-98
1.08700	-103
1.09067	-109
1.09433	-113
1.09800	-112
1.10167	-110
1.10533	-106
1.10900	-102
1.11267	-100
1.11633	-100
1.12000	-101
1.12367	-102
1.12733	-103
1.13100	-100
1.13467	-98
1.13833	-98
1.14200	-101
1.14567	-107
1.14933	-115
1.15300	-121
1.15667	-121
1.16033	-117
1.16400	-111
1.16767	-111
1.17133	-114
1.17500	-114
1.17867	-114
1.18233	-115
1.18600	-116
1.18967	-115
1.19333	-112
1.19700	-110
1.20067	-111
1.20433	-112
1.20800	-115
1.21167	-120
1.21533	-124
1.21900	-125
1.22267	-123
1.22633	-121
1.23000	-118
1.23367	-114
1.23733	-111
1.24100	-112
1.24467	-116
1.24833	-123
1.25200	-127
1.25567	-129
1.25933	-129
1.26300	-126
1.26667	-121
1.27033	-116
1.27400	-118
1.27767	-119
1.28133	-115
1.28500	-111
1.28867	-111
1.29233	-116
1.29600	-120
1.29967	-121
1.30333	-121
1.30700	-119
1.31067	-118
1.31433	-120
1.31800	-117
1.32167	-112
1.32533	-106
1.32900	-100
1.33267	-96
1.33633	-96
1.34000	-98
1.34367	-102
1.34733	-110
1.35100	-121
1.35467	-136
1.35833	-152
1.36200	-162
1.36567	-164
1.36933	-161
1.37300	-159
1.37667	-158
1.38033	-152
1.38400	-143
1.38767	-134
1.39133	-127
1.39500	-119
1.39867	-116
1.40233	-122
1.40600	-132
1.40967	-140
1.41333	-142
1.41700	-141
1.42067	-140
1.42433	-142
1.42800	-147
1.43167	-149
1.43533	-150
1.43900	-142
1.44267	-108
1.44633	28
1.45000	336
1.45367	741
1.45733	1123
1.46100	1415
1.46467	1607
1.46833	1710
1.47200	1745
1.47567	1725
1.47933	1659
1.48300	1557
1.48667	1417
1.49033	1241
1.49400	1042
1.49767	837
1.50133	648
1.50500	486
1.50867	354
1.51233	246
1.51600	153
1.51967	75
1.52333	11
1.52700	-34
1.53067	-64
1.53433	-83
1.53800	-89
1.54167	-38
1.54533	232
1.54900	1005
1.55267	2455
1.55633	4385
1.56000	6378
1.56367	8092
1.56733	9355
1.57100	10058
1.57467	10073
1.57833	9327
1.58200	7957
1.58567	6288
1.58933	4663
1.59300	3288
1.59667	2228
1.60033	1461
1.60400	931
1.60767	576
1.61133	342
1.61500	184
1.61867	80
1.62233	11
1.62600	-37
1.62967	-74
1.63333	-101
1.63700	-116
1.64067	-123
1.64433	-128
1.64800	-130
1.65167	-129
1.65533	-128
1.65900	-132
1.66267	-140
1.66633	-150
1.67000	-160
1.67367	-167
1.67733	-172
1.68100	-174
1.68467	-173
1.68833	-170
1.69200	-166
1.69567	-164
1.69933	-163
1.70300	-162
1.70667	-161
1.71033	-158
1.71400	-155
1.71767	-153
1.72133	-151
1.72500	-152
1.72867	-153
1.73233	-154
1.73600	-154
1.73967	-154
1.74333	-150
1.74700	-145
1.75067	-142
1.75433	-142
1.75800	-144
1.76167	-146
1.76533	-150
1.76900	-157
1.77267	-164
1.77633	-164
1.78000	-164
1.78367	-161
1.78733	-155
1.79100	-150
1.79467	-144
1.79833	-138
1.80200	-131
1.80567	-126
1.80933	-126
1.81300	-131
1.81667	-133
1.82033	-138
1.82400	-146
1.82767	-153
1.83133	-154
1.83500	-149
1.83867	-139
1.84233	-129
1.84600	-123
1.84967	-120
1.85333	-116
1.85700	-113
1.86067	-116
1.86433	-122
1.86800	-126
1.87167	-128
1.87533	-129
1.87900	-126
1.88267	-124
1.88633	-123
1.89000	-127
1.89367	-134
1.89733	-142
1.90100	-148
1.90467	-151
1.90833	-150
1.91200	-148
1.91567	-147
1.91933	-146
1.92300	-143
1.92667	-138
1.93033	-132
1.93400	-126
1.93767	-121
1.94133	-118
1.94500	-117
1.94867	-113
1.95233	-106
1.95600	-84
1.95967	46
1.96333	811
1.96700	4484
1.97067	17933
1.97433	55586
1.97800	136951
1.98167	273683
1.98533	456279
1.98900	655345
1.99267	835403
1.99633	967490
2.00000	1033100
2.00367	1025036
2.00733	948630
2.01100	821169
2.01467	667730
2.01833	513689
2.02200	377440
2.02567	267689
2.02933	185161
2.03300	126102
2.03667	85271
2.04033	57685
2.04400	39307
2.04767	27147
2.05133	19106
2.05500	13762
2.05867	10172
2.06233	7723
2.06600	6024
2.06967	4821
2.07333	3948
2.07700	3301
2.08067	2811
2.08433	2430
2.08800	2125
2.09167	1878
2.09533	1680
2.09900	1519
2.10267	1382
2.10633	1263
2.11000	1160
2.11367	1072
2.11733	995
2.12100	926
2.12467	866
2.12833	814
2.13200	767
2.13567	723
2.13933	682
2.14300	644
2.14667	611
2.15033	581
2.15400	552
2.15767	522
2.16133	493
2.16500	465
2.16867	443
2.17233	425
2.17600	411
2.17967	397
2.18333	384
2.18700	370
2.19067	355
2.19433	341
2.19800	327
2.20167	316
2.20533	307
2.20900	299
2.21267	289
2.21633	277
2.22000	266
2.22367	254
2.22733	242
2.23100	230
2.23467	220
2.23833	212
2.24200	207
2.24567	204
2.24933	199
2.25300	191
2.25667	181
2.26033	172
2.26400	167
2.26767	163
2.27133	162
2.27500	162
2.27867	161
2.28233	157
2.28600	154
2.28967	150
2.29333	145
2.29700	142
2.30067	139
2.30433	137
2.30800	135
2.31167	135
2.31533	132
2.31900	125
2.32267	119
2.32633	118
2.33000	118
2.33367	114
2.33733	104
2.34100	94
2.34467	85
2.34833	77
2.35200	69
2.35567	61
2.35933	55
2.36300	54
2.36667	56
2.37033	58
2.37400	63
2.37767	67
2.38133	69
2.38500	69
2.38867	70
2.39233	70
2.39600	68
2.39967	67
2.40333	67
2.40700	65
2.41067	64
2.41433	66
2.41800	73
2.42167	79
2.42533	81
2.42900	80
2.43267	75
2.43633	67
2.44000	61
2.44367	57
2.44733	58
2.45100	60
2.45467	63
2.45833	63
2.46200	63
2.46567	62
2.46933	57
2.47300	50
2.47667	47
2.48033	47
2.48400	46
2.48767	42
2.49133	30
2.49500	19
2.49867	12
2.50233	10
2.50600	11
2.50967	19
2.51333	28
2.51700	35
2.52067	36
2.52433	36
2.52800	37
2.53167	38
2.53533	36
2.53900	28
2.54267	18
2.54633	12
2.55000	9
2.55367	5
2.55733	3
2.56100	5
2.56467	7
2.56833	7
2.57200	5
2.57567	10
2.57933	12
2.58300	12
2.58667	10
2.59033	12
2.59400	14
2.59767	15
2.60133	12
2.60500	5
2.60867	-4
2.61233	-11
2.61600	-13
2.61967	-12
2.62333	-10
2.62700	-8
2.63067	-6
2.63433	-5
2.63800	-5
2.64167	-6
2.64533	-9
2.64900	-13
2.65267	-16
2.65633	-15
2.66000	-15
2.66367	-14
2.66733	-13
2.67100	-8
2.67467	-2
2.67833	0
2.68200	-1
2.68567	-3
2.68933	-8
2.69300	-11
2.69667	-12
2.70033	-13
2.70400	-14
2.70767	-14
2.71133	-9
2.71500	-1
2.71867	3
2.72233	3
2.72600	-2
2.72967	-12
2.73333	-23
2.73700	-30
2.74067	-32
2.74433	-30
2.74800	-30
2.75167	-33
2.75533	-34
2.75900	-35
2.76267	-37
2.76633	-38
2.77000	-38
2.77367	-38
2.77733	-37
2.78100	-33
2.78467	-27
2.78833	-21
2.79200	-16
2.79567	-12
2.79933	-10
2.80300	-10
2.80667	-13
2.81033	-15
2.81400	-14
2.81767	-15
2.82133	-16
2.82500	-17
2.82867	-19
2.83233	-21
2.83600	-24
2.83967	-29
2.84333	-34
2.84700	-35
2.85067	-36
2.85433	-40
2.85800	-42
2.86167	-41
2.86533	-39
2.86900	-35
2.87267	-31
2.87633	-30
2.88000	-33
2.88367	-35
2.88733	-34
2.89100	-28
2.89467	-26
2.89833	-24
2.90200	-23
2.90567	-25
2.90933	-28
2.91300	-32
2.91667	-38
2.92033	-43
2.92400	-47
2.92767	-43
2.93133	-36
2.93500	-31
2.93867	-29
2.94233	-31
2.94600	-37
2.94967	-44
2.95333	-51
2.95700	-53
2.96067	-51
2.96433	-47
2.96800	-42
2.97167	-42
2.97533	-47
2.97900	-51
2.98267	-53
2.98633	-49
2.99000	-44
2.99367	-39
2.99733	-39
3.00100	-42
3.00467	-49
3.00833	-55
3.01200	-57
3.01567	-56
3.01933	-55
3.02300	-54
3.02667	-49
3.03033	-44
3.03400	-39
3.03767	-36
3.04133	-35
3.04500	-34
3.04867	-37
3.05233	-43
3.05600	-51
3.05967	-55
3.06333	-55
3.06700	-52
3.07067	-46
3.07433	-42
3.07800	-38
3.08167	-34
3.08533	-34
3.08900	-40
3.09267	-45
3.09633	-50
3.10000	-50
3.10367	-47
3.10733	-41
3.11100	-37
3.11467	-37
3.11833	-38
3.12200	-40
3.12567	-42
3.12933	-42
3.13300	-42
3.13667	-44
3.14033	-52
3.14400	-61
3.14767	-68
3.15133	-70
3.15500	-68
3.15867	-61
3.16233	-52
3.16600	-45
3.16967	-42
3.17333	-43
3.17700	-46
3.18067	-49
3.18433	-51
3.18800	-53
3.19167	-54
3.19533	-52
3.19900	-48
3.20267	-45
3.20633	-45
3.21000	-47
3.21367	-48
3.21733	-48
3.22100	-49
3.22467	-45
3.22833	-40
3.23200	-40
3.23567	-42
3.23933	-45
3.24300	-49
3.24667	-52
3.25033	-52
3.25400	-49
3.25767	-48
3.26133	-46
3.26500	-43
3.26867	-41
3.27233	-40
3.27600	-44
3.27967	-50
3.28333	-51
3.28700	-50
3.29067	-50
3.29433	-45
3.29800	-42
3.30167	-43
3.30533	-44
3.30900	-47
3.31267	-49
3.31633	-49
3.32000	-47
3.32367	-48
3.32733	-51
3.33100	-53
3.33467	-54
3.33833	-56
3.34200	-55
3.34567	-52
3.34933	-49
3.35300	-47
3.35667	-51
3.36033	-57
3.36400	-62
3.36767	-64
3.37133	-65
3.37500	-64
3.37867	-63
3.38233	-62
3.38600	-62
3.38967	-63
3.39333	-62
3.39700	-61
3.40067	-62
3.40433	-63
3.40800	-61
3.41167	-56
3.41533	-49
3.41900	-43
3.42267	-39
3.42633	-39
3.43000	-41
3.43367	-43
3.43733	-46
3.44100	-46
3.44467	-44
3.44833	-44
3.45200	-45
3.45567	-45
3.45933	-46
3.46300	-47
3.46667	-48
3.47033	-48
3.47400	-47
3.47767	-44
3.48133	-44
3.48500	-46
3.48867	-47
3.49233	-45
3.49600	-41
3.49967	-41
3.50333	-43
3.50700	-44
3.51067	-44
3.51433	-46
3.51800	-50
3.52167	-55
3.52533	-59
3.52900	-63
3.53267	-66
3.53633	-63
3.54000	-57
3.54367	-51
3.54733	-47
3.55100	-45
3.55467	-40
3.55833	-37
3.56200	-39
3.56567	-43
3.56933	-43
3.57300	-40
3.57667	-38
3.58033	-36
3.58400	-40
3.58767	-47
3.59133	-52
3.59500	-54
3.59867	-53
3.60233	-48
3.60600	-45
3.60967	-42
3.61333	-40
3.61700	-36
3.62067	-30
3.62433	-26
3.62800	-22
3.63167	-21
3.63533	-21
3.63900	-25
3.64267	-30
3.64633	-34
3.65000	-35
3.65367	-35
3.65733	-35
3.66100	-37
3.66467	-36
3.66833	-34
3.67200	-34
3.67567	-35
3.67933	-37
3.68300	-35
3.68667	-34
3.69033	-35
3.69400	-41
3.69767	-43
3.70133	-42
3.70500	-41
3.70867	-37
3.71233	-34
3.71600	-37
3.71967	-41
3.72333	-43
3.72700	-42
3.73067	-42
3.73433	-43
3.73800	-42
3.74167	-38
3.74533	-31
3.74900	-23
3.75267	-20
3.75633	-22
3.76000	-23
3.76367	-21
3.76733	-18
3.77100	-16
3.77467	-15
3.77833	-12
3.78200	-8
3.78567	-5
3.78933	-2
3.79300	4
3.79667	21
3.80033	41
3.80400	60
3.80767	74
3.81133	88
3.81500	104
3.81867	118
3.82233	131
3.82600	142
3.82967	149
3.83333	155
3.83700	159
3.84067	163
3.84433	168
3.84800	173
3.85167	178
3.85533	183
3.85900	186
3.86267	186
3.86633	181
3.87000	175
3.87367	172
3.87733	175
3.88100	177
3.88467	180
3.88833	187
3.89200	193
3.89567	196
3.89933	194
3.90300	190
3.90667	187
3.91033	186
3.91400	186
3.91767	185
3.92133	183
3.92500	183
3.92867	183
3.93233	182
3.93600	180
3.93967	176
3.94333	173
3.94700	173
3.95067	177
3.95433	180
3.95800	181
3.96167	182
3.96533	183
3.96900	183
3.97267	181
3.97633	178
3.98000	175
3.98367	172
3.98733	169
3.99100	166
3.99467	167
3.99833	171

[Chromatogram (Ch2)]
Interval(msec)	220
# of Points	1091
Start Time(min)	0.002
End Time(min)	3.998
R.Time (min)	Intensity
0.00167	-0
0.00533	-0
0.00900	-1
0.01267	-1
0.01633	-2
0.02000	-2
0.02367	-2
0.02733	-2
0.03100	-3
0.03467	-3
0.03833	-3
0.04200	-3
0.04567	-3
0.04933	-3
0.05300	-3
0.05667	-4
0.06033	-4
0.06400	-4
0.06767	-4
0.07133	-4
0.07500	-4
0.07867	-4
0.08233	-4
0.08600	-4
0.08967	-3
0.09333	-3
0.09700	-3
0.10067	-3
0.10433	-3
0.10800	-3
0.11167	-3
0.11533	-3
0.11900	-2
0.12267	-2
0.12633	-2
0.13000	-2
0.13367	-2
0.13733	-2
0.14100	-2
0.14467	-3
0.14833	-3
0.15200	-3
0.15567	-3
0.15933	-3
0.16300	-3
0.16667	-3
0.17033	-3
0.17400	-3
0.17767	-3
0.18133	-3
0.18500	-3
0.18867	-3
0.19233	-3
0.19600	-3
0.19967	-3
0.20333	-3
0.20700	-3
0.21067	-3
0.21433	-3
0.21800	-3
0.22167	-2
0.22533	-2
0.22900	-3
0.23267	-3
0.23633	-3
0.24000	-3
0.24367	-3
0.24733	-3
0.25100	-3
0.25467	-3
0.25833	-3
0.26200	-3
0.26567	-3
0.26933	-3
0.27300	-3
0.27667	-3
0.28033	-3
0.28400	-3
0.28767	-3
0.29133	-2
0.29500	-2
0.29867	-2
0.30233	-2
0.30600	-2
0.30967	-2
0.31333	-2
0.31700	-2
0.32067	-2
0.32433	-2
0.32800	-2
0.33167	-2
0.33533	-2
0.33900	-2
0.34267	-2
0.34633	-3
0.35000	-3
0.35367	-3
0.35733	-3
0.36100	-4
0.36467	-4
0.36833	-3
0.37200	-3
0.37567	-3
0.37933	-3
0.38300	-3
0.38667	-3
0.39033	-3
0.39400	-3
0.39767	-3
0.40133	-3
0.40500	-3
0.40867	-3
0.41233	-3
0.41600	-3
0.41967	-3
0.42333	-3
0.42700	-3
0.43067	-3
0.43433	-3
0.43800	-3
0.44167	-4
0.44533	-4
0.44900	-4
0.45267	-4
0.45633	-4
0.46000	-4
0.46367	-5
0.46733	-5
0.47100	-4
0.47467	-5
0.47833	-5
0.48200	-5
0.48567	-5
0.48933	-5
0.49300	-5
0.49667	-4
0.50033	-4
0.50400	-4
0.50767	-4
0.51133	-4
0.51500	-4
0.51867	-4
0.52233	-4
0.52600	-4
0.52967	-4
0.53333	-4
0.53700	-4
0.54067	-4
0.54433	-3
0.54800	-3
0.55167	-3
0.55533	-3
0.55900	-4
0.56267	-4
0.56633	-4
0.57000	-4
0.57367	-4
0.57733	-4
0.58100	-4
0.58467	-4
0.58833	-4
0.59200	-4
0.59567	-4
0.59933	-4
0.60300	-4
0.60667	-4
0.61033	-4
0.61400	-3
0.61767	-3
0.62133	-3
0.62500	-3
0.62867	-3
0.63233	-3
0.63600	-3
0.63967	-3
0.64333	-3
0.64700	-3
0.65067	-3
0.65433	-3
0.65800	-3
0.66167	-3
0.66533	-3
0.66900	-3
0.67267	-4
0.67633	-4
0.68000	-3
0.68367	-3
0.68733	-3
0.69100	-3
0.69467	-3
0.69833	-3
0.70200	-3
0.70567	-3
0.70933	-3
0.71300	-3
0.71667	-3
0.72033	-2
0.72400	-2
0.72767	-2
0.73133	-2
0.73500	-2
0.73867	-2
0.74233	-2
0.74600	-2
0.74967	-2
0.75333	-2
0.75700	-2
0.76067	-2
0.76433	-2
0.76800	-2
0.77167	-3
0.77533	-3
0.77900	-3
0.78267	-4
0.78633	-4
0.79000	-4
0.79367	-4
0.79733	-5
0.80100	-5
0.80467	-5
0.80833	-6
0.81200	-6
0.81567	-6
0.81933	-6
0.82300	-6
0.82667	-6
0.83033	-6
0.83400	-6
0.83767	-6
0.84133	-6
0.84500	-5
0.84867	-5
0.85233	-5
0.85600	-5
0.85967	-5
0.86333	-4
0.86700	-4
0.87067	-4
0.87433	-4
0.87800	-5
0.88167	-5
0.88533	-4
0.88900	-4
0.89267	-4
0.89633	-4
0.90000	-4
0.90367	-4
0.90733	-4
0.91100	-4
0.91467	-4
0.91833	-4
0.92200	-4
0.92567	-3
0.92933	-3
0.93300	-3
0.93667	-3
0.94033	-3
0.94400	-3
0.94767	-3
0.95133	-3
0.95500	-3
0.95867	-3
0.96233	-3
0.96600	-4
0.96967	-4
0.97333	-4
0.97700	-4
0.98067	-4
0.98433	-4
0.98800	-4
0.99167	-4
0.99533	-4
0.99900	-4
1.00267	-4
1.00633	-4
1.01000	-4
1.01367	-4
1.01733	-4
1.02100	-4
1.02467	-4
1.02833	-4
1.03200	-4
1.03567	-4
1.03933	-4
1.04300	-4
1.04667	-4
1.05033	-4
1.05400	-4
1.05767	-4
1.06133	-4
1.06500	-4
1.06867	-4
1.07233	-4
1.07600	-4
1.07967	-4
1.08333	-4
1.08700	-4
1.09067	-4
1.09433	-4
1.09800	-5
1.10167	-4
1.10533	-4
1.10900	-4
1.11267	-4
1.11633	-4
1.12000	-4
1.12367	-4
1.12733	-4
1.13100	-4
1.13467	-4
1.13833	-4
1.14200	-4
1.14567	-4
1.14933	-4
1.15300	-4
1.15667	-4
1.16033	-4
1.16400	-4
1.16767	-3
1.17133	-3
1.17500	-3
1.17867	-4
1.18233	-4
1.18600	-4
1.18967	-5
1.19333	-5
1.19700	-5
1.20067	-5
1.20433	-4
1.20800	-4
1.21167	-4
1.21533	-4
1.21900	-4
1.22267	-4
1.22633	-4
1.23000	-4
1.23367	-4
1.23733	-4
1.24100	-5
1.24467	-5
1.24833	-5
1.25200	-5
1.25567	-5
1.25933	-5
1.26300	-5
1.26667	-5
1.27033	-6
1.27400	-6
1.27767	-5
1.28133	-5
1.28500	-5
1.28867	-4
1.29233	-4
1.29600	-4
1.29967	-4
1.30333	-4
1.30700	-3
1.31067	-3
1.31433	-3
1.31800	-3
1.32167	-3
1.32533	-3
1.32900	-3
1.33267	-3
1.33633	-3
1.34000	-3
1.34367	-3
1.34733	-3
1.35100	-2
1.35467	-2
1.35833	-2
1.36200	-3
1.36567	-3
1.36933	-3
1.37300	-3
1.37667	-3
1.38033	-3
1.38400	-3
1.38767	-3
1.39133	-4
1.39500	-4
1.39867	-4
1.40233	-5
1.40600	-5
1.40967	-5
1.41333	-6
1.41700	-6
1.42067	-6
1.42433	-6
1.42800	-6
1.43167	-7
1.43533	-7
1.43900	-7
1.44267	-7
1.44633	-7
1.45000	-8
1.45367	-8
1.45733	-9
1.46100	-9
1.46467	-9
1.46833	-9
1.47200	-9
1.47567	-9
1.47933	-9
1.48300	-9
1.48667	-9
1.49033	-9
1.49400	-8
1.49767	-8
1.50133	-8
1.50500	-8
1.50867	-8
1.51233	-7
1.51600	-7
1.51967	-6
1.52333	-6
1.52700	-6
1.53067	-5
1.53433	-5
1.53800	-5
1.54167	-5
1.54533	-5
1.54900	-5
1.55267	-5
1.55633	-6
1.56000	-6
1.56367	-6
1.56733	-6
1.57100	-6
1.57467	-5
1.57833	-5
1.58200	-5
1.58567	-5
1.58933	-5
1.59300	-5
1.59667	-5
1.60033	-6
1.60400	-6
1.60767	-7
1.61133	-8
1.61500	-10
1.61867	-11
1.62233	-14
1.62600	-16
1.62967	-19
1.63333	-22
1.63700	-25
1.64067	-28
1.64433	-32
1.64800	-36
1.65167	-40
1.65533	-43
1.65900	-47
1.66267	-51
1.66633	-55
1.67000	-59
1.67367	-64
1.67733	-69
1.68100	-75
1.68467	-80
1.68833	-85
1.69200	-90
1.69567	-94
1.69933	-98
1.70300	-101
1.70667	-104
1.71033	-106
1.71400	-108
1.71767	-110
1.72133	-111
1.72500	-112
1.72867	-113
1.73233	-114
1.73600	-114
1.73967	-115
1.74333	-116
1.74700	-118
1.75067	-118
1.75433	-119
1.75800	-119
1.76167	-120
1.76533	-120
1.76900	-121
1.77267	-121
1.77633	-122
1.78000	-122
1.78367	-123
1.78733	-123
1.79100	-124
1.79467	-124
1.79833	-123
1.80200	-123
1.80567	-123
1.80933	-122
1.81300	-122
1.81667	-122
1.82033	-122
1.82400	-122
1.82767	-122
1.83133	-122
1.83500	-122
1.83867	-122
1.84233	-122
1.84600	-122
1.84967	-122
1.85333	-122
1.85700	-122
1.86067	-122
1.86433	-122
1.86800	-123
1.87167	-123
1.87533	-123
1.87900	-123
1.88267	-124
1.88633	-124
1.89000	-124
1.89367	-124
1.89733	-124
1.90100	-124
1.90467	-123
1.90833	-123
1.91200	-123
1.91567	-122
1.91933	-122
1.92300	-122
1.92667	-122
1.93033	-122
1.93400	-122
1.93767	-122
1.94133	-121
1.94500	-121
1.94867	-121
1.95233	-120
1.95600	-120
1.95967	-119
1.96333	-119
1.96700	-119
1.97067	-119
1.97433	-119
1.97800	-119
1.98167	-119
1.98533	-119
1.98900	-119
1.99267	-119
1.99633	-119
2.00000	-119
2.00367	-119
2.00733	-119
2.01100	-119
2.01467	-118
2.01833	-118
2.02200	-118
2.02567	-117
2.02933	-117
2.03300	-116
2.03667	-115
2.04033	-114
2.04400	-113
2.04767	-113
2.05133	-112
2.05500	-112
2.05867	-112
2.06233	-112
2.06600	-112
2.06967	-113
2.07333	-112
2.07700	-112
2.08067	-112
2.08433	-111
2.08800	-111
2.09167	-111
2.09533	-110
2.09900	-109
2.10267	-109
2.10633	-109
2.11000	-108
2.11367	-108
2.11733	-108
2.12100	-109
2.12467	-109
2.12833	-109
2.13200	-108
2.13567	-108
2.13933	-107
2.14300	-106
2.14667	-105
2.15033	-105
2.15400	-104
2.15767	-103
2.16133	-103
2.16500	-102
2.16867	-102
2.17233	-102
2.17600	-101
2.17967	-101
2.18333	-101
2.18700	-101
2.19067	-101
2.19433	-101
2.19800	-100
2.20167	-100
2.20533	-100
2.20900	-99
2.21267	-98
2.21633	-98
2.22000	-98
2.22367	-98
2.22733	-99
2.23100	-99
2.23467	-100
2.23833	-100
2.24200	-100
2.24567	-100
2.24933	-99
2.25300	-98
2.25667	-97
2.26033	-96
2.26400	-95
2.26767	-95
2.27133	-94
2.27500	-94
2.27867	-95
2.28233	-95
2.28600	-96
2.28967	-96
2.29333	-96
2.29700	-95
2.30067	-94
2.30433	-93
2.30800	-92
2.31167	-91
2.31533	-90
2.31900	-90
2.32267	-89
2.32633	-89
2.33000	-90
2.33367	-90
2.33733	-90
2.34100	-89
2.34467	-88
2.34833	-88
2.35200	-87
2.35567	-86
2.35933	-86
2.36300	-85
2.36667	-85
2.37033	-84
2.37400	-83
2.37767	-81
2.38133	-78
2.38500	-75
2.38867	-72
2.39233	-68
2.39600	-64
2.39967	-59
2.40333	-54
2.40700	-49
2.41067	-45
2.41433	-40
2.41800	-36
2.42167	-32
2.42533	-29
2.42900	-26
2.43267	-24
2.43633	-21
2.44000	-19
2.44367	-17
2.44733	-16
2.45100	-14
2.45467	-12
2.45833	-11
2.46200	-9
2.46567	-7
2.46933	-6
2.47300	-4
2.47667	-3
2.48033	-2
2.48400	-1
2.48767	1
2.49133	2
2.49500	3
2.49867	4
2.50233	5
2.50600	6
2.50967	6
2.51333	5
2.51700	5
2.52067	5
2.52433	5
2.52800	6
2.53167	7
2.53533	8
2.53900	9
2.54267	10
2.54633	10
2.55000	11
2.55367	11
2.55733	11
2.56100	11
2.56467	12
2.56833	12
2.57200	12
2.57567	12
2.57933	13
2.58300	13
2.58667	13
2.59033	14
2.59400	14
2.59767	14
2.60133	14
2.60500	15
2.60867	15
2.61233	16
2.61600	16
2.61967	16
2.62333	16
2.62700	16
2.63067	17
2.63433	17
2.63800	16
2.64167	16
2.64533	16
2.64900	16
2.65267	15
2.65633	15
2.66000	15
2.66367	15
2.66733	15
2.67100	15
2.67467	16
2.67833	16
2.68200	16
2.68567	16
2.68933	16
2.69300	16
2.69667	16
2.70033	17
2.70400	17
2.70767	18
2.71133	18
2.71500	18
2.71867	19
2.72233	19
2.72600	19
2.72967	19
2.73333	19
2.73700	19
2.74067	18
2.74433	18
2.74800	18
2.75167	19
2.75533	19
2.75900	19
2.76267	19
2.76633	20
2.77000	20
2.77367	20
2.77733	21
2.78100	21
2.78467	21
2.78833	21
2.79200	21
2.79567	22
2.79933	22
2.80300	22
2.80667	22
2.81033	22
2.81400	22
2.81767	23
2.82133	23
2.82500	22
2.82867	22
2.83233	22
2.83600	22
2.83967	21
2.84333	21
2.84700	20
2.85067	19
2.85433	16
2.85800	11
2.86167	3
2.86533	-8
2.86900	-23
2.87267	-43
2.87633	-68
2.88000	-98
2.88367	-134
2.88733	-174
2.89100	-220
2.89467	-271
2.89833	-326
2.90200	-385
2.90567	-448
2.90933	-514
2.91300	-583
2.91667	-655
2.92033	-730
2.92400	-806
2.92767	-886
2.93133	-967
2.93500	-1049
2.93867	-1134
2.94233	-1219
2.94600	-1307
2.94967	-1393
2.95333	-1469
2.95700	-1520
2.96067	-1539
2.96433	-1521
2.96800	-1472
2.97167	-1395
2.97533	-1301
2.97900	-1195
2.98267	-1085
2.98633	-974
2.99000	-867
2.99367	-766
2.99733	-673
3.00100	-588
3.00467	-512
3.00833	-443
3.01200	-383
3.01567	-330
3.01933	-283
3.02300	-243
3.02667	-208
3.03033	-177
3.03400	-151
3.03767	-129
3.04133	-110
3.04500	-93
3.04867	-79
3.05233	-67
3.05600	-56
3.05967	-48
3.06333	-40
3.06700	-34
3.07067	-28
3.07433	-23
3.07800	-19
3.08167	-16
3.08533	-13
3.08900	-10
3.09267	-8
3.09633	-6
3.10000	-4
3.10367	-3
3.10733	-2
3.11100	-1
3.11467	0
3.11833	1
3.12200	2
3.12567	3
3.12933	3
3.13300	4
3.13667	4
3.14033	5
3.14400	6
3.14767	6
3.15133	7
3.15500	8
3.15867	8
3.16233	9
3.16600	9
3.16967	10
3.17333	10
3.17700	11
3.18067	11
3.18433	12
3.18800	12
3.19167	12
3.19533	13
3.19900	13
3.20267	13
3.20633	14
3.21000	14
3.21367	14
3.21733	14
3.22100	15
3.22467	15
3.22833	15
3.23200	15
3.23567	15
3.23933	15
3.24300	15
3.24667	15
3.25033	16
3.25400	16
3.25767	16
3.26133	16
3.26500	16
3.26867	17
3.27233	17
3.27600	17
3.27967	18
3.28333	18
3.28700	19
3.29067	19
3.29433	19
3.29800	20
3.30167	20
3.30533	21
3.30900	21
3.31267	22
3.31633	22
3.32000	23
3.32367	23
3.32733	23
3.33100	23
3.33467	24
3.33833	24
3.34200	24
3.34567	24
3.34933	24
3.35300	24
3.35667	24
3.36033	24
3.36400	23
3.36767	23
3.37133	23
3.37500	23
3.37867	23
3.38233	22
3.38600	22
3.38967	22
3.39333	22
3.39700	22
3.40067	22
3.40433	22
3.40800	22
3.41167	22
3.41533	22
3.41900	22
3.42267	22
3.42633	22
3.43000	23
3.43367	23
3.43733	23
3.44100	23
3.44467	23
3.44833	23
3.45200	24
3.45567	24
3.45933	24
3.46300	23
3.46667	23
3.47033	23
3.47400	23
3.47767	22
3.48133	22
3.48500	22
3.48867	22
3.49233	22
3.49600	22
3.49967	21
3.50333	21
3.50700	21
3.51067	21
3.51433	21
3.51800	21
3.52167	21
3.52533	21
3.52900	21
3.53267	21
3.53633	22
3.54000	22
3.54367	22
3.54733	22
3.55100	22
3.55467	22
3.55833	22
3.56200	22
3.56567	22
3.56933	22
3.57300	22
3.57667	22
3.58033	22
3.58400	22
3.58767	22
3.59133	22
3.59500	22
3.59867	22
3.60233	22
3.60600	22
3.60967	22
3.61333	22
3.61700	22
3.62067	22
3.62433	22
3.62800	22
3.63167	22
3.63533	22
3.63900	22
3.64267	22
3.64633	22
3.65000	22
3.65367	22
3.65733	22
3.66100	22
3.66467	22
3.66833	22
3.67200	22
3.67567	22
3.67933	21
3.68300	21
3.68667	21
3.69033	21
3.69400	21
3.69767	21
3.70133	21
3.70500	21
3.70867	21
3.71233	21
3.71600	21
3.71967	21
3.72333	22
3.72700	22
3.73067	22
3.73433	22
3.73800	22
3.74167	22
3.74533	22
3.74900	22
3.75267	22
3.75633	22
3.76000	22
3.76367	22
3.76733	22
3.77100	22
3.77467	22
3.77833	22
3.78200	22
3.78567	22
3.78933	22
3.79300	22
3.79667	23
3.80033	23
3.80400	23
3.80767	23
3.81133	23
3.81500	23
3.81867	23
3.82233	23
3.82600	23
3.82967	23
3.83333	23
3.83700	23
3.84067	23
3.84433	23
3.84800	23
3.85167	23
3.85533	23
3.85900	23
3.86267	23
3.86633	23
3.87000	23
3.87367	23
3.87733	23
3.88100	23
3.88467	23
3.88833	23
3.89200	22
3.89567	22
3.89933	22
3.90300	22
3.90667	22
3.91033	22
3.91400	22
3.91767	22
3.92133	22
3.92500	22
3.92867	22
3.93233	22
3.93600	22
3.93967	22
3.94333	23
3.94700	23
3.95067	23
3.95433	23
3.95800	23
3.96167	23
3.96533	23
3.96900	23
3.97267	23
3.97633	23
3.98000	22
3.98367	22
3.98733	22
3.99100	22
3.99467	22
3.99833	22

[Chromatogram (Ch3)]
Interval(msec)	220
# of Points	1091
Start Time(min)	0.002
End Time(min)	3.998
R.Time (min)	Intensity
0.00167	0
0.00533	-0
0.00900	2
0.01267	4
0.01633	6
0.02000	7
0.02367	6
0.02733	4
0.03100	4
0.03467	4
0.03833	5
0.04200	4
0.04567	3
0.04933	2
0.05300	2
0.05667	4
0.06033	4
0.06400	4
0.06767	5
0.07133	6
0.07500	6
0.07867	6
0.08233	5
0.08600	4
0.08967	5
0.09333	5
0.09700	4
0.10067	6
0.10433	7
0.10800	7
0.11167	6
0.11533	3
0.11900	-1
0.12267	-1
0.12633	-1
0.13000	1
0.13367	2
0.13733	2
0.14100	1
0.14467	0
0.14833	-0
0.15200	0
0.15567	0
0.15933	1
0.16300	2
0.16667	2
0.17033	3
0.17400	5
0.17767	6
0.18133	8
0.18500	8
0.18867	6
0.19233	4
0.19600	3
0.19967	2
0.20333	-2
0.20700	-2
0.21067	-2
0.21433	-1
0.21800	0
0.22167	2
0.22533	3
0.22900	1
0.23267	-1
0.23633	-2
0.24000	-2
0.24367	-3
0.24733	-3
0.25100	-2
0.25467	0
0.25833	0
0.26200	0
0.26567	2
0.26933	1
0.27300	1
0.27667	1
0.28033	2
0.28400	4
0.28767	6
0.29133	5
0.29500	3
0.29867	1
0.30233	0
0.30600	0
0.30967	2
0.31333	4
0.31700	5
0.32067	5
0.32433	4
0.32800	3
0.33167	2
0.33533	-1
0.33900	-1
0.34267	1
0.34633	4
0.35000	6
0.35367	5
0.35733	4
0.36100	4
0.36467	2
0.36833	2
0.37200	1
0.37567	1
0.37933	2
0.38300	-0
0.38667	-1
0.39033	-1
0.39400	-0
0.39767	1
0.40133	1
0.40500	2
0.40867	2
0.41233	2
0.41600	2
0.41967	2
0.42333	2
0.42700	2
0.43067	1
0.43433	-1
0.43800	-2
0.44167	-2
0.44533	-2
0.44900	1
0.45267	3
0.45633	2
0.46000	-1
0.46367	0
0.46733	4
0.47100	6
0.47467	4
0.47833	1
0.48200	1
0.48567	0
0.48933	1
0.49300	1
0.49667	-1
0.50033	-2
0.50400	-2
0.50767	-2
0.51133	-3
0.51500	-4
0.51867	-5
0.52233	-5
0.52600	-6
0.52967	-7
0.53333	-6
0.53700	-4
0.54067	-3
0.54433	-0
0.54800	0
0.55167	0
0.55533	-1
0.55900	-2
0.56267	-2
0.56633	-2
0.57000	-2
0.57367	-2
0.57733	-3
0.58100	-2
0.58467	-1
0.58833	0
0.59200	1
0.59567	2
0.59933	2
0.60300	2
0.60667	2
0.61033	3
0.61400	1
0.61767	-0
0.62133	0
0.62500	1
0.62867	2
0.63233	3
0.63600	2
0.63967	2
0.64333	5
0.64700	5
0.65067	6
0.65433	8
0.65800	8
0.66167	7
0.66533	6
0.66900	5
0.67267	4
0.67633	3
0.68000	2
0.68367	2
0.68733	3
0.69100	5
0.69467	6
0.69833	6
0.70200	6
0.70567	6
0.70933	5
0.71300	4
0.71667	4
0.72033	5
0.72400	4
0.72767	1
0.73133	-0
0.73500	1
0.73867	2
0.74233	3
0.74600	3
0.74967	2
0.75333	3
0.75700	4
0.76067	6
0.76433	4
0.76800	0
0.77167	-1
0.77533	1
0.77900	4
0.78267	4
0.78633	2
0.79000	-2
0.79367	-2
0.79733	-0
0.80100	1
0.80467	2
0.80833	2
0.81200	2
0.81567	4
0.81933	5
0.82300	4
0.82667	1
0.83033	1
0.83400	3
0.83767	5
0.84133	6
0.84500	7
0.84867	7
0.85233	8
0.85600	7
0.85967	4
0.86333	3
0.86700	3
0.87067	3
0.87433	-3
0.87800	-6
0.88167	-5
0.88533	-3
0.88900	-0
0.89267	0
0.89633	-1
0.90000	0
0.90367	2
0.90733	4
0.91100	5
0.91467	7
0.91833	6
0.92200	4
0.92567	3
0.92933	3
0.93300	3
0.93667	3
0.94033	1
0.94400	-0
0.94767	-1
0.95133	-0
0.95500	-0
0.95867	1
0.96233	2
0.96600	1
0.96967	-0
0.97333	-1
0.97700	0
0.98067	-0
0.98433	-1
0.98800	-3
0.99167	-2
0.99533	-0
0.99900	-0
1.00267	-2
1.00633	-2
1.01000	-0
1.01367	-1
1.01733	-3
1.02100	-3
1.02467	-2
1.02833	-2
1.03200	-3
1.03567	-3
1.03933	-1
1.04300	-0
1.04667	-1
1.05033	-2
1.05400	-2
1.05767	-5
1.06133	-6
1.06500	-5
1.06867	-2
1.07233	-1
1.07600	-2
1.07967	-3
1.08333	-3
1.08700	-2
1.09067	-0
1.09433	-2
1.09800	-4
1.10167	-4
1.10533	-5
1.10900	-3
1.11267	-0
1.11633	0
1.12000	1
1.12367	1
1.12733	-1
1.13100	0
1.13467	1
1.13833	1
1.14200	-0
1.14567	-1
1.14933	-1
1.15300	0
1.15667	1
1.16033	-0
1.16400	0
1.16767	-0
1.17133	-3
1.17500	-5
1.17867	-4
1.18233	-3
1.18600	-3
1.18967	-2
1.19333	-0
1.19700	0
1.20067	-1
1.20433	-0
1.20800	1
1.21167	1
1.21533	-1
1.21900	-2
1.22267	-2
1.22633	-2
1.23000	-1
1.23367	-2
1.23733	-2
1.24100	-2
1.24467	-3
1.24833	-5
1.25200	-4
1.25567	-2
1.25933	-1
1.26300	-3
1.26667	-3
1.27033	-1
1.27400	1
1.27767	2
1.28133	4
1.28500	4
1.28867	5
1.29233	7
1.29600	4
1.29967	1
1.30333	-1
1.30700	-0
1.31067	1
1.31433	2
1.31800	-0
1.32167	-2
1.32533	-1
1.32900	-2
1.33267	-3
1.33633	-2
1.34000	-1
1.34367	2
1.34733	4
1.35100	5
1.35467	3
1.35833	1
1.36200	1
1.36567	0
1.36933	0
1.37300	-2
1.37667	-5
1.38033	-4
1.38400	-3
1.38767	1
1.39133	5
1.39500	6
1.39867	6
1.40233	7
1.40600	5
1.40967	4
1.41333	6
1.41700	6
1.42067	7
1.42433	8
1.42800	9
1.43167	7
1.43533	2
1.43900	-2
1.44267	-1
1.44633	-0
1.45000	-0
1.45367	-0
1.45733	2
1.46100	4
1.46467	5
1.46833	6
1.47200	9
1.47567	10
1.47933	10
1.48300	8
1.48667	5
1.49033	6
1.49400	7
1.49767	8
1.50133	8
1.50500	9
1.50867	12
1.51233	14
1.51600	16
1.51967	16
1.52333	15
1.52700	14
1.53067	13
1.53433	14
1.53800	14
1.54167	10
1.54533	7
1.54900	6
1.55267	7
1.55633	8
1.56000	9
1.56367	7
1.56733	8
1.57100	10
1.57467	9
1.57833	8
1.58200	10
1.58567	9
1.58933	8
1.59300	8
1.59667	9
1.60033	9
1.60400	7
1.60767	9
1.61133	11
1.61500	11
1.61867	12
1.62233	10
1.62600	10
1.62967	8
1.63333	5
1.63700	4
1.64067	3
1.64433	5
1.64800	6
1.65167	5
1.65533	5
1.65900	9
1.66267	13
1.66633	14
1.67000	13
1.67367	11
1.67733	10
1.68100	10
1.68467	10
1.68833	9
1.69200	10
1.69567	13
1.69933	14
1.70300	13
1.70667	13
1.71033	14
1.71400	13
1.71767	10
1.72133	10
1.72500	11
1.72867	11
1.73233	11
1.73600	12
1.73967	13
1.74333	16
1.74700	16
1.75067	15
1.75433	16
1.75800	19
1.76167	22
1.76533	24
1.76900	25
1.77267	25
1.77633	27
1.78000	28
1.78367	28
1.78733	26
1.79100	26
1.79467	25
1.79833	26
1.80200	28
1.80567	30
1.80933	33
1.81300	34
1.81667	36
1.82033	37
1.82400	37
1.82767	39
1.83133	42
1.83500	43
1.83867	43
1.84233	44
1.84600	43
1.84967	40
1.85333	39
1.85700	38
1.86067	40
1.86433	44
1.86800	44
1.87167	42
1.87533	42
1.87900	43
1.88267	43
1.88633	42
1.89000	41
1.89367	38
1.89733	37
1.90100	37
1.90467	35
1.90833	35
1.91200	37
1.91567	38
1.91933	39
1.92300	38
1.92667	39
1.93033	41
1.93400	43
1.93767	44
1.94133	44
1.94500	41
1.94867	39
1.95233	42
1.95600	46
1.95967	49
1.96333	51
1.96700	52
1.97067	53
1.97433	51
1.97800	50
1.98167	50
1.98533	51
1.98900	53
1.99267	53
1.99633	54
2.00000	56
2.00367	57
2.00733	60
2.01100	63
2.01467	63
2.01833	62
2.02200	63
2.02567	63
2.02933	64
2.03300	68
2.03667	71
2.04033	72
2.04400	71
2.04767	70
2.05133	72
2.05500	71
2.05867	69
2.06233	70
2.06600	74
2.06967	75
2.07333	77
2.07700	81
2.08067	83
2.08433	83
2.08800	82
2.09167	83
2.09533	87
2.09900	86
2.10267	86
2.10633	87
2.11000	87
2.11367	86
2.11733	86
2.12100	88
2.12467	91
2.12833	91
2.13200	92
2.13567	92
2.13933	92
2.14300	91
2.14667	89
2.15033	90
2.15400	94
2.15767	97
2.16133	100
2.16500	102
2.16867	102
2.17233	102
2.17600	104
2.17967	105
2.18333	106
2.18700	109
2.19067	110
2.19433	111
2.19800	111
2.20167	113
2.20533	114
2.20900	114
2.21267	116
2.21633	117
2.22000	118
2.22367	118
2.22733	119
2.23100	121
2.23467	123
2.23833	124
2.24200	124
2.24567	124
2.24933	125
2.25300	126
2.25667	126
2.26033	127
2.26400	129
2.26767	131
2.27133	132
2.27500	132
2.27867	133
2.28233	134
2.28600	136
2.28967	138
2.29333	142
2.29700	144
2.30067	147
2.30433	150
2.30800	153
2.31167	155
2.31533	158
2.31900	161
2.32267	163
2.32633	164
2.33000	167
2.33367	166
2.33733	165
2.34100	165
2.34467	168
2.34833	169
2.35200	169
2.35567	171
2.35933	173
2.36300	176
2.36667	179
2.37033	182
2.37400	181
2.37767	180
2.38133	179
2.38500	179
2.38867	180
2.39233	180
2.39600	180
2.39967	181
2.40333	180
2.40700	182
2.41067	187
2.41433	191
2.41800	192
2.42167	191
2.42533	192
2.42900	192
2.43267	194
2.43633	194
2.44000	193
2.44367	193
2.44733	199
2.45100	206
2.45467	204
2.45833	192
2.46200	175
2.46567	160
2.46933	148
2.47300	139
2.47667	134
2.48033	130
2.48400	127
2.48767	129
2.49133	130
2.49500	129
2.49867	127
2.50233	128
2.50600	129
2.50967	131
2.51333	135
2.51700	136
2.52067	137
2.52433	141
2.52800	144
2.53167	146
2.53533	150
2.53900	154
2.54267	157
2.54633	159
2.55000	158
2.55367	158
2.55733	160
2.56100	162
2.56467	164
2.56833	166
2.57200	170
2.57567	173
2.57933	175
2.58300	177
2.58667	177
2.59033	179
2.59400	179
2.59767	178
2.60133	174
2.60500	164
2.60867	148
2.61233	128
2.61600	100
2.61967	69
2.62333	34
2.62700	-2
2.63067	-38
2.63433	-68
2.63800	-93
2.64167	-116
2.64533	-132
2.64900	-145
2.65267	-152
2.65633	-152
2.66000	-146
2.66367	-137
2.66733	-130
2.67100	-120
2.67467	-108
2.67833	-97
2.68200	-86
2.68567	-75
2.68933	-66
2.69300	-56
2.69667	-46
2.70033	-35
2.70400	-24
2.70767	-14
2.71133	-5
2.71500	4
2.71867	13
2.72233	22
2.72600	30
2.72967	35
2.73333	43
2.73700	48
2.74067	51
2.74433	55
2.74800	60
2.75167	65
2.75533	68
2.75900	70
2.76267	73
2.76633	76
2.77000	79
2.77367	82
2.77733	84
2.78100	84
2.78467	81
2.78833	79
2.79200	79
2.79567	79
2.79933	78
2.80300	79
2.80667	82
2.81033	83
2.81400	83
2.81767	82
2.82133	82
2.82500	88
2.82867	107
2.83233	158
2.83600	270
2.83967	495
2.84333	896
2.84700	1536
2.85067	2462
2.85433	3692
2.85800	5207
2.86167	6929
2.86533	8752
2.86900	10546
2.87267	12176
2.87633	13522
2.88000	14491
2.88367	15037
2.88733	15160
2.89100	14905
2.89467	14338
2.89833	13538
2.90200	12587
2.90567	11554
2.90933	10498
2.91300	9458
2.91667	8460
2.92033	7524
2.92400	6662
2.92767	5877
2.93133	5168
2.93500	4532
2.93867	3966
2.94233	3466
2.94600	3023
2.94967	2635
2.95333	2295
2.95700	1997
2.96067	1735
2.96433	1508
2.96800	1311
2.97167	1139
2.97533	992
2.97900	865
2.98267	755
2.98633	659
2.99000	577
2.99367	506
2.99733	444
3.00100	390
3.00467	344
3.00833	303
3.01200	269
3.01567	239
3.01933	213
3.02300	194
3.02667	178
3.03033	164
3.03400	152
3.03767	140
3.04133	130
3.04500	123
3.04867	116
3.05233	108
3.05600	98
3.05967	90
3.06333	86
3.06700	82
3.07067	79
3.07433	76
3.07800	71
3.08167	67
3.08533	65
3.08900	63
3.09267	63
3.09633	61
3.10000	60
3.10367	56
3.10733	55
3.11100	56
3.11467	55
3.11833	54
3.12200	54
3.12567	55
3.12933	58
3.13300	60
3.13667	58
3.14033	57
3.14400	55
3.14767	52
3.15133	49
3.15500	47
3.15867	45
3.16233	44
3.16600	44
3.16967	45
3.17333	45
3.17700	45
3.18067	45
3.18433	43
3.18800	42
3.19167	41
3.19533	42
3.19900	42
3.20267	43
3.20633	45
3.21000	46
3.21367	45
3.21733	42
3.22100	40
3.22467	39
3.22833	40
3.23200	40
3.23567	39
3.23933	36
3.24300	34
3.24667	31
3.25033	30
3.25400	32
3.25767	32
3.26133	30
3.26500	29
3.26867	28
3.27233	27
3.27600	28
3.27967	27
3.28333	25
3.28700	25
3.29067	24
3.29433	24
3.29800	25
3.30167	24
3.30533	22
3.30900	21
3.31267	20
3.31633	19
3.32000	20
3.32367	20
3.32733	18
3.33100	19
3.33467	18
3.33833	16
3.34200	14
3.34567	13
3.34933	12
3.35300	13
3.35667	14
3.36033	13
3.36400	13
3.36767	11
3.37133	9
3.37500	8
3.37867	4
3.38233	-0
3.38600	1
3.38967	3
3.39333	2
3.39700	-1
3.40067	-3
3.40433	-1
3.40800	0
3.41167	-0
3.41533	-2
3.41900	-2
3.42267	-2
3.42633	-2
3.43000	-4
3.43367	-7
3.43733	-9
3.44100	-8
3.44467	-7
3.44833	-7
3.45200	-9
3.45567	-11
3.45933	-12
3.46300	-13
3.46667	-15
3.47033	-17
3.47400	-17
3.47767	-18
3.48133	-20
3.48500	-19
3.48867	-18
3.49233	-17
3.49600	-17
3.49967	-18
3.50333	-17
3.50700	-17
3.51067	-16
3.51433	-16
3.51800	-17
3.52167	-17
3.52533	-17
3.52900	-21
3.53267	-24
3.53633	-27
3.54000	-28
3.54367	-26
3.54733	-24
3.55100	-25
3.55467	-27
3.55833	-26
3.56200	-24
3.56567	-23
3.56933	-23
3.57300	-25
3.57667	-25
3.58033	-25
3.58400	-28
3.58767	-32
3.59133	-33
3.59500	-33
3.59867	-32
3.60233	-34
3.60600	-34
3.60967	-34
3.61333	-33
3.61700	-33
3.62067	-32
3.62433	-33
3.62800	-33
3.63167	-34
3.63533	-34
3.63900	-34
3.64267	-33
3.64633	-33
3.65000	-33
3.65367	-34
3.65733	-34
3.66100	-35
3.66467	-35
3.66833	-35
3.67200	-33
3.67567	-34
3.67933	-35
3.68300	-36
3.68667	-35
3.69033	-35
3.69400	-36
3.69767	-35
3.70133	-33
3.70500	-33
3.70867	-35
3.71233	-37
3.71600	-39
3.71967	-38
3.72333	-37
3.72700	-40
3.73067	-42
3.73433	-45
3.73800	-45
3.74167	-44
3.74533	-46
3.74900	-45
3.75267	-44
3.75633	-40
3.76000	-39
3.76367	-39
3.76733	-39
3.77100	-39
3.77467	-41
3.77833	-42
3.78200	-42
3.78567	-43
3.78933	-41
3.79300	-41
3.79667	-41
3.80033	-43
3.80400	-44
3.80767	-43
3.81133	-41
3.81500	-41
3.81867	-43
3.82233	-45
3.82600	-46
3.82967	-46
3.83333	-46
3.83700	-43
3.84067	-41
3.84433	-42
3.84800	-42
3.85167	-42
3.85533	-44
3.85900	-46
3.86267	-46
3.86633	-46
3.87000	-46
3.87367	-46
3.87733	-46
3.88100	-47
3.88467	-49
3.88833	-49
3.89200	-48
3.89567	-46
3.89933	-44
3.90300	-46
3.90667	-46
3.91033	-46
3.91400	-48
3.91767	-51
3.92133	-51
3.92500	-48
3.92867	-47
3.93233	-48
3.93600	-51
3.93967	-54
3.94333	-54
3.94700	-55
3.95067	-57
3.95433	-57
3.95800	-55
3.96167	-54
3.96533	-53
3.96900	-52
3.97267	-51
3.97633	-51
3.98000	-53
3.98367	-55
3.98733	-55
3.99100	-54
3.99467	-54
3.99833	-52

[Status Trace (Column Oven Temperature)]
Interval(msec)	1000
# of Points	240
Start Time(min)	0.003
End Time(min)	3.987
Intensity Units	
Intensity Multiplier	1
R.Time (min)	Intensity
0.00342	34.94
0.02008	34.94
0.03675	34.94
0.05342	34.95
0.07008	34.96
0.08675	34.97
0.10342	34.97
0.12008	34.98
0.13675	34.98
0.15342	34.97
0.17008	34.96
0.18675	34.96
0.20342	34.96
0.22008	34.95
0.23675	34.96
0.25342	34.96
0.27008	34.96
0.28675	34.96
0.30342	34.96
0.32008	34.97
0.33675	34.97
0.35342	34.97
0.37008	34.98
0.38675	34.98
0.40342	34.97
0.42008	34.97
0.43675	34.97
0.45342	34.97
0.47008	34.98
0.48675	34.99
0.50342	34.99
0.52008	34.99
0.53675	34.99
0.55342	34.99
0.57008	34.98
0.58675	34.99
0.60342	34.98
0.62008	34.98
0.63675	34.97
0.65342	34.99
0.67008	34.99
0.68675	34.98
0.70342	34.98
0.72008	34.98
0.73675	34.97
0.75342	34.97
0.77008	34.98
0.78675	34.98
0.80342	34.98
0.82008	34.99
0.83675	35.00
0.85342	35.00
0.87008	34.99
0.88675	34.99
0.90342	34.98
0.92008	34.98
0.93675	34.97
0.95342	34.98
0.97008	34.99
0.98675	34.99
1.00342	34.99
1.02008	34.98
1.03675	34.98
1.05342	34.98
1.07008	34.98
1.08675	34.99
1.10342	34.98
1.12008	34.98
1.13675	34.98
1.15342	34.99
1.17008	34.99
1.18675	35.00
1.20342	35.00
1.22008	35.00
1.23675	35.01
1.25342	35.00
1.27008	35.01
1.28675	35.01
1.30342	35.00
1.32008	34.99
1.33675	34.99
1.35342	34.98
1.37008	34.97
1.38675	34.98
1.40342	35.00
1.42008	35.00
1.43675	35.02
1.45342	35.03
1.47008	35.06
1.48675	35.06
1.50342	35.07
1.52008	35.07
1.53675	35.07
1.55342	35.07
1.57008	35.07
1.58675	35.06
1.60342	35.08
1.62008	35.18
1.63675	35.34
1.65342	35.55
1.67008	35.85
1.68675	36.21
1.70342	36.57
1.72008	36.91
1.73675	37.26
1.75342	37.60
1.77008	37.93
1.78675	38.28
1.80342	38.59
1.82008	38.90
1.83675	39.22
1.85342	39.56
1.87008	39.89
1.88675	40.22
1.90342	40.55
1.92008	40.87
1.93675	41.21
1.95342	41.53
1.97008	41.86
1.98675	42.19
2.00342	42.52
2.02008	42.86
2.03675	43.18
2.05342	43.50
2.07008	43.83
2.08675	44.14
2.10342	44.45
2.12008	44.80
2.13675	45.13
2.15342	45.43
2.17008	45.76
2.18675	46.09
2.20342	46.40
2.22008	46.75
2.23675	47.11
2.25342	47.42
2.27008	47.76
2.28675	48.12
2.30342	48.41
2.32008	48.75
2.33675	49.07
2.35342	49.37
2.37008	49.60
2.38675	49.70
2.40342	49.70
2.42008	49.70
2.43675	49.71
2.45342	49.72
2.47008	49.73
2.48675	49.73
2.50342	49.75
2.52008	49.79
2.53675	49.78
2.55342	49.79
2.57008	49.81
2.58675	49.81
2.60342	49.81
2.62008	49.82
2.63675	49.83
2.65342	49.84
2.67008	49.85
2.68675	49.85
2.70342	49.85
2.72008	49.85
2.73675	49.88
2.75342	49.88
2.77008	49.88
2.78675	49.88
2.80342	49.88
2.82008	49.87
2.83675	49.87
2.85342	49.87
2.87008	49.88
2.88675	49.88
2.90342	49.90
2.92008	49.92
2.93675	49.93
2.95342	49.95
2.97008	49.96
2.98675	49.97
3.00342	49.99
3.02008	49.99
3.03675	50.00
3.05342	50.01
3.07008	50.01
3.08675	50.03
3.10342	50.04
3.12008	50.06
3.13675	50.07
3.15342	50.08
3.17008	50.08
3.18675	50.09
3.20342	50.09
3.22008	50.10
3.23675	50.11
3.25342	50.12
3.27008	50.11
3.28675	50.10
3.30342	50.08
3.32008	50.06
3.33675	50.05
3.35342	50.04
3.37008	50.03
3.38675	50.03
3.40342	50.02
3.42008	50.02
3.43675	50.01
3.45342	50.01
3.47008	50.01
3.48675	50.01
3.50342	50.01
3.52008	50.01
3.53675	50.01
3.55342	50.02
3.57008	50.03
3.58675	50.03
3.60342	50.03
3.62008	50.03
3.63675	50.04
3.65342	50.05
3.67008	50.06
3.68675	50.07
3.70342	50.08
3.72008	50.08
3.73675	50.08
3.75342	50.07
3.77008	50.07
3.78675	50.07
3.80342	50.07
3.82008	50.06
3.83675	50.06
3.85342	50.06
3.87008	50.07
3.88675	50.07
3.90342	50.08
3.92008	50.07
3.93675	50.07
3.95342	50.07
3.97008	50.07
3.98675	50.07

[Status Trace (Injection Unit Temperature)]
Interval(msec)	1000
# of Points	240
Start Time(min)	0.003
End Time(min)	3.987
Intensity Units	
Intensity Multiplier	1
R.Time (min)	Intensity
0.00342	99.99
0.02008	99.99
0.03675	99.99
0.05342	99.99
0.07008	99.98
0.08675	99.98
0.10342	99.99
0.12008	99.99
0.13675	99.99
0.15342	99.99
0.17008	99.99
0.18675	99.99
0.20342	99.99
0.22008	99.99
0.23675	99.99
0.25342	99.99
0.27008	99.99
0.28675	99.99
0.30342	99.99
0.32008	99.99
0.33675	99.99
0.35342	99.99
0.37008	99.99
0.38675	99.99
0.40342	99.99
0.42008	99.99
0.43675	99.99
0.45342	99.99
0.47008	99.99
0.48675	100.00
0.50342	99.99
0.52008	99.99
0.53675	100.00
0.55342	99.99
0.57008	99.99
0.58675	99.99
0.60342	99.99
0.62008	99.99
0.63675	99.99
0.65342	99.99
0.67008	99.99
0.68675	99.99
0.70342	99.99
0.72008	99.99
0.73675	99.99
0.75342	99.99
0.77008	99.99
0.78675	99.99
0.80342	99.99
0.82008	99.99
0.83675	99.99
0.85342	99.99
0.87008	99.99
0.88675	99.99
0.90342	99.99
0.92008	99.99
0.93675	99.99
0.95342	99.99
0.97008	99.99
0.98675	99.99
1.00342	99.99
1.02008	99.99
1.03675	99.99
1.05342	99.99
1.07008	99.99
1.08675	99.99
1.10342	99.99
1.12008	99.99
1.13675	99.99
1.15342	99.99
1.17008	99.99
1.18675	99.99
1.20342	99.99
1.22008	99.99
1.23675	99.99
1.25342	99.99
1.27008	100.00
1.28675	99.99
1.30342	100.00
1.32008	100.00
1.33675	100.00
1.35342	100.00
1.37008	99.99
1.38675	100.00
1.40342	100.00
1.42008	99.99
1.43675	100.00
1.45342	100.00
1.47008	100.00
1.48675	100.00
1.50342	100.00
1.52008	100.00
1.53675	100.00
1.55342	100.00
1.57008	100.00
1.58675	100.00
1.60342	100.00
1.62008	100.00
1.63675	100.00
1.65342	100.00
1.67008	100.00
1.68675	100.00
1.70342	100.00
1.72008	100.00
1.73675	100.00
1.75342	100.00
1.77008	100.00
1.78675	100.00
1.80342	100.00
1.82008	100.00
1.83675	100.00
1.85342	100.00
1.87008	100.00
1.88675	100.00
1.90342	100.00
1.92008	100.00
1.93675	100.00
1.95342	100.00
1.97008	100.00
1.98675	100.00
2.00342	99.99
2.02008	99.99
2.03675	99.99
2.05342	99.98
2.07008	99.99
2.08675	99.99
2.10342	99.99
2.12008	99.99
2.13675	99.98
2.15342	99.98
2.17008	99.98
2.18675	99.98
2.20342	99.98
2.22008	99.98
2.23675	99.98
2.25342	99.98
2.27008	99.98
2.28675	99.98
2.30342	99.98
2.32008	99.98
2.33675	99.98
2.35342	99.98
2.37008	99.98
2.38675	99.98
2.40342	99.98
2.42008	99.98
2.43675	99.98
2.45342	99.98
2.47008	99.98
2.48675	99.97
2.50342	99.97
2.52008	99.97
2.53675	99.98
2.55342	99.98
2.57008	99.98
2.58675	99.98
2.60342	99.98
2.62008	99.98
2.63675	99.98
2.65342	99.98
2.67008	99.98
2.68675	99.98
2.70342	99.98
2.72008	99.98
2.73675	99.99
2.75342	99.99
2.77008	99.99
2.78675	99.99
2.80342	99.99
2.82008	99.99
2.83675	99.99
2.85342	99.99
2.87008	100.00
2.88675	100.00
2.90342	100.00
2.92008	100.00
2.93675	100.00
2.95342	100.00
2.97008	100.00
2.98675	100.00
3.00342	100.02
3.02008	100.02
3.03675	100.01
3.05342	100.02
3.07008	100.01
3.08675	100.02
3.10342	100.02
3.12008	100.02
3.13675	100.03
3.15342	100.03
3.17008	100.03
3.18675	100.03
3.20342	100.03
3.22008	100.03
3.23675	100.04
3.25342	100.03
3.27008	100.03
3.28675	100.03
3.30342	100.04
3.32008	100.04
3.33675	100.04
3.35342	100.04
3.37008	100.04
3.38675	100.04
3.40342	100.05
3.42008	100.05
3.43675	100.05
3.45342	100.05
3.47008	100.05
3.48675	100.05
3.50342	100.05
3.52008	100.05
3.53675	100.05
3.55342	100.05
3.57008	100.06
3.58675	100.05
3.60342	100.06
3.62008	100.06
3.63675	100.06
3.65342	100.06
3.67008	100.06
3.68675	100.06
3.70342	100.06
3.72008	100.06
3.73675	100.06
3.75342	100.06
3.77008	100.07
3.78675	100.06
3.80342	100.06
3.82008	100.07
3.83675	100.06
3.85342	100.06
3.87008	100.06
3.88675	100.06
3.90342	100.06
3.92008	100.06
3.93675	100.06
3.95342	100.06
3.97008	100.06
3.98675	100.07

[Status Trace (Carrier Gas Pressure)]
Interval(msec)	1000
# of Points	240
Start Time(min)	0.003
End Time(min)	3.987
Intensity Units	
Intensity Multiplier	1
R.Time (min)	Intensity
0.00342	58.00
0.02008	56.12
0.03675	56.47
0.05342	58.59
0.07008	59.86
0.08675	58.26
0.10342	57.97
0.12008	58.01
0.13675	58.01
0.15342	58.01
0.17008	58.00
0.18675	58.00
0.20342	58.00
0.22008	58.00
0.23675	58.00
0.25342	58.00
0.27008	58.00
0.28675	58.00
0.30342	58.00
0.32008	58.00
0.33675	58.00
0.35342	58.00
0.37008	58.00
0.38675	58.00
0.40342	58.00
0.42008	58.00
0.43675	58.00
0.45342	58.00
0.47008	58.00
0.48675	58.00
0.50342	58.00
0.52008	58.00
0.53675	58.00
0.55342	58.00
0.57008	58.00
0.58675	58.00
0.60342	58.00
0.62008	58.00
0.63675	58.00
0.65342	58.00
0.67008	58.00
0.68675	58.00
0.70342	58.00
0.72008	58.00
0.73675	58.00
0.75342	58.00
0.77008	58.00
0.78675	58.00
0.80342	58.00
0.82008	58.00
0.83675	58.00
0.85342	58.00
0.87008	58.00
0.88675	58.00
0.90342	58.00
0.92008	58.00
0.93675	58.00
0.95342	58.00
0.97008	58.00
0.98675	58.00
1.00342	58.00
1.02008	58.00
1.03675	58.00
1.05342	58.00
1.07008	58.00
1.08675	58.00
1.10342	58.00
1.12008	58.00
1.13675	58.00
1.15342	58.00
1.17008	58.00
1.18675	58.00
1.20342	58.00
1.22008	58.00
1.23675	58.00
1.25342	58.00
1.27008	58.00
1.28675	58.00
1.30342	58.00
1.32008	58.00
1.33675	58.00
1.35342	58.00
1.37008	58.00
1.38675	58.00
1.40342	58.00
1.42008	58.00
1.43675	58.00
1.45342	58.00
1.47008	58.00
1.48675	58.00
1.50342	58.00
1.52008	58.00
1.53675	58.00
1.55342	58.00
1.57008	58.00
1.58675	58.00
1.60342	58.00
1.62008	58.00
1.63675	58.01
1.65342	58.00
1.67008	58.01
1.68675	58.01
1.70342	58.00
1.72008	58.00
1.73675	58.00
1.75342	58.00
1.77008	58.00
1.78675	58.00
1.80342	58.00
1.82008	58.00
1.83675	58.00
1.85342	58.00
1.87008	58.00
1.88675	58.00
1.90342	58.00
1.92008	58.00
1.93675	58.00
1.95342	58.00
1.97008	58.00
1.98675	58.00
2.00342	58.00
2.02008	58.00
2.03675	58.00
2.05342	58.00
2.07008	58.00
2.08675	58.00
2.10342	58.00
2.12008	58.00
2.13675	58.00
2.15342	58.00
2.17008	58.00
2.18675	58.00
2.20342	58.00
2.22008	58.00
2.23675	58.00
2.25342	58.00
2.27008	58.00
2.28675	58.00
2.30342	58.00
2.32008	58.00
2.33675	58.00
2.35342	58.00
2.37008	58.00
2.38675	57.99
2.40342	57.99
2.42008	58.00
2.43675	58.00
2.45342	58.00
2.47008	58.00
2.48675	58.00
2.50342	57.96
2.52008	58.00
2.53675	57.99
2.55342	58.00
2.57008	58.00
2.58675	58.00
2.60342	58.00
2.62008	58.00
2.63675	58.00
2.65342	58.00
2.67008	58.00
2.68675	58.00
2.70342	58.00
2.72008	58.00
2.73675	58.00
2.75342	58.00
2.77008	58.00
2.78675	58.00
2.80342	58.00
2.82008	58.00
2.83675	58.00
2.85342	58.00
2.87008	58.00
2.88675	58.00
2.90342	58.00
2.92008	58.00
2.93675	58.00
2.95342	58.00
2.97008	58.00
2.98675	58.00
3.00342	58.00
3.02008	58.00
3.03675	58.00
3.05342	58.00
3.07008	58.00
3.08675	58.00
3.10342	58.00
3.12008	58.00
3.13675	58.00
3.15342	58.00
3.17008	58.00
3.18675	58.00
3.20342	58.00
3.22008	58.00
3.23675	58.00
3.25342	58.00
3.27008	58.00
3.28675	58.00
3.30342	58.00
3.32008	58.00
3.33675	58.00
3.35342	58.00
3.37008	58.00
3.38675	58.00
3.40342	58.00
3.42008	58.00
3.43675	58.00
3.45342	58.00
3.47008	58.00
3.48675	58.00
3.50342	58.00
3.52008	58.00
3.53675	58.00
3.55342	58.00
3.57008	58.00
3.58675	58.00
3.60342	58.00
3.62008	58.00
3.63675	58.00
3.65342	58.00
3.67008	58.00
3.68675	58.00
3.70342	58.00
3.72008	58.00
3.73675	58.00
3.75342	58.00
3.77008	58.00
3.78675	58.00
3.80342	58.00
3.82008	58.00
3.83675	58.00
3.85342	58.00
3.87008	58.00
3.88675	58.00
3.90342	58.00
3.92008	58.00
3.93675	58.00
3.95342	58.00
3.97008	58.00
3.98675	58.00

[Status Trace (Carrier Gas Flow)]
Interval(msec)	1000
# of Points	240
Start Time(min)	0.003
End Time(min)	3.987
Intensity Units	
Intensity Multiplier	1
R.Time (min)	Intensity
0.00342	34.52
0.02008	34.62
0.03675	34.54
0.05342	34.55
0.07008	34.50
0.08675	34.51
0.10342	34.52
0.12008	34.52
0.13675	34.52
0.15342	34.52
0.17008	34.52
0.18675	34.52
0.20342	34.52
0.22008	34.52
0.23675	34.52
0.25342	34.52
0.27008	34.52
0.28675	34.52
0.30342	34.52
0.32008	34.52
0.33675	34.52
0.35342	34.52
0.37008	34.52
0.38675	34.52
0.40342	34.52
0.42008	34.52
0.43675	34.52
0.45342	34.52
0.47008	34.52
0.48675	34.52
0.50342	34.52
0.52008	34.52
0.53675	34.52
0.55342	34.52
0.57008	34.52
0.58675	34.52
0.60342	34.52
0.62008	34.52
0.63675	34.52
0.65342	34.52
0.67008	34.52
0.68675	34.52
0.70342	34.52
0.72008	34.52
0.73675	34.52
0.75342	34.52
0.77008	34.52
0.78675	34.52
0.80342	34.52
0.82008	34.52
0.83675	34.52
0.85342	34.52
0.87008	34.52
0.88675	34.52
0.90342	34.52
0.92008	34.52
0.93675	34.52
0.95342	34.52
0.97008	34.52
0.98675	34.52
1.00342	34.52
1.02008	34.52
1.03675	34.52
1.05342	34.52
1.07008	34.52
1.08675	34.52
1.10342	34.52
1.12008	34.52
1.13675	34.52
1.15342	34.52
1.17008	34.52
1.18675	34.52
1.20342	34.52
1.22008	34.52
1.23675	34.52
1.25342	34.52
1.27008	34.52
1.28675	34.52
1.30342	34.52
1.32008	34.52
1.33675	34.52
1.35342	34.52
1.37008	34.52
1.38675	34.52
1.40342	34.52
1.42008	34.52
1.43675	34.52
1.45342	34.52
1.47008	34.52
1.48675	34.52
1.50342	34.52
1.52008	34.52
1.53675	34.52
1.55342	34.52
1.57008	34.52
1.58675	34.52
1.60342	34.52
1.62008	34.52
1.63675	34.52
1.65342	34.52
1.67008	34.52
1.68675	34.52
1.70342	34.52
1.72008	34.52
1.73675	34.52
1.75342	34.52
1.77008	34.52
1.78675	34.52
1.80342	34.52
1.82008	34.52
1.83675	34.52
1.85342	34.52
1.87008	34.52
1.88675	34.52
1.90342	34.52
1.92008	34.52
1.93675	34.52
1.95342	34.52
1.97008	34.52
1.98675	34.52
2.00342	34.52
2.02008	34.52
2.03675	34.52
2.05342	34.52
2.07008	34.52
2.08675	34.52
2.10342	34.52
2.12008	34.52
2.13675	34.52
2.15342	34.52
2.17008	34.52
2.18675	34.52
2.20342	34.52
2.22008	34.52
2.23675	34.52
2.25342	34.52
2.27008	34.52
2.28675	34.52
2.30342	34.52
2.32008	34.52
2.33675	34.52
2.35342	34.52
2.37008	34.52
2.38675	34.55
2.40342	34.52
2.42008	34.52
2.43675	34.52
2.45342	34.52
2.47008	34.52
2.48675	34.52
2.50342	34.65
2.52008	34.52
2.53675	34.52
2.55342	34.52
2.57008	34.53
2.58675	34.51
2.60342	34.52
2.62008	34.52
2.63675	34.52
2.65342	34.52
2.67008	34.52
2.68675	34.53
2.70342	34.52
2.72008	34.52
2.73675	34.50
2.75342	34.52
2.77008	34.52
2.78675	34.51
2.80342	34.52
2.82008	34.52
2.83675	34.52
2.85342	34.52
2.87008	34.52
2.88675	34.52
2.90342	34.52
2.92008	34.52
2.93675	34.52
2.95342	34.52
2.97008	34.52
2.98675	34.52
3.00342	34.52
3.02008	34.52
3.03675	34.52
3.05342	34.52
3.07008	34.52
3.08675	34.52
3.10342	34.52
3.12008	34.52
3.13675	34.52
3.15342	34.52
3.17008	34.52
3.18675	34.52
3.20342	34.52
3.22008	34.52
3.23675	34.52
3.25342	34.52
3.27008	34.52
3.28675	34.52
3.30342	34.52
3.32008	34.52
3.33675	34.52
3.35342	34.52
3.37008	34.52
3.38675	34.52
3.40342	34.52
3.42008	34.52
3.43675	34.52
3.45342	34.52
3.47008	34.52
3.48675	34.52
3.50342	34.52
3.52008	34.52
3.53675	34.52
3.55342	34.52
3.57008	34.52
3.58675	34.52
3.60342	34.52
3.62008	34.52
3.63675	34.52
3.65342	34.52
3.67008	34.52
3.68675	34.52
3.70342	34.52
3.72008	34.52
3.73675	34.52
3.75342	34.52
3.77008	34.52
3.78675	34.52
3.80342	34.52
3.82008	34.52
3.83675	34.52
3.85342	34.52
3.87008	34.52
3.88675	34.52
3.90342	34.52
3.92008	34.52
3.93675	34.52
3.95342	34.52
3.97008	34.52
3.98675	34.52

[Status Trace (Column Flow)]
Interval(msec)	1000
# of Points	240
Start Time(min)	0.003
End Time(min)	3.987
Intensity Units	
Intensity Multiplier	1
R.Time (min)	Intensity
0.00342	5.53
0.02008	5.31
0.03675	5.35
0.05342	5.59
0.07008	5.74
0.08675	5.55
0.10342	5.52
0.12008	5.53
0.13675	5.53
0.15342	5.53
0.17008	5.53
0.18675	5.53
0.20342	5.53
0.22008	5.53
0.23675	5.53
0.25342	5.53
0.27008	5.53
0.28675	5.53
0.30342	5.53
0.32008	5.53
0.33675	5.52
0.35342	5.52
0.37008	5.52
0.38675	5.52
0.40342	5.52
0.42008	5.52
0.43675	5.52
0.45342	5.52
0.47008	5.52
0.48675	5.52
0.50342	5.52
0.52008	5.52
0.53675	5.52
0.55342	5.52
0.57008	5.52
0.58675	5.52
0.60342	5.52
0.62008	5.52
0.63675	5.52
0.65342	5.52
0.67008	5.52
0.68675	5.52
0.70342	5.52
0.72008	5.52
0.73675	5.52
0.75342	5.52
0.77008	5.52
0.78675	5.52
0.80342	5.52
0.82008	5.52
0.83675	5.52
0.85342	5.52
0.87008	5.52
0.88675	5.52
0.90342	5.52
0.92008	5.52
0.93675	5.52
0.95342	5.52
0.97008	5.52
0.98675	5.52
1.00342	5.52
1.02008	5.52
1.03675	5.52
1.05342	5.52
1.07008	5.52
1.08675	5.52
1.10342	5.52
1.12008	5.52
1.13675	5.52
1.15342	5.52
1.17008	5.52
1.18675	5.52
1.20342	5.52
1.22008	5.52
1.23675	5.52
1.25342	5.52
1.27008	5.52
1.28675	5.52
1.30342	5.52
1.32008	5.52
1.33675	5.52
1.35342	5.52
1.37008	5.52
1.38675	5.52
1.40342	5.52
1.42008	5.52
1.43675	5.52
1.45342	5.52
1.47008	5.52
1.48675	5.52
1.50342	5.52
1.52008	5.52
1.53675	5.52
1.55342	5.52
1.57008	5.52
1.58675	5.52
1.60342	5.52
1.62008	5.52
1.63675	5.51
1.65342	5.51
1.67008	5.50
1.68675	5.49
1.70342	5.48
1.72008	5.46
1.73675	5.45
1.75342	5.44
1.77008	5.43
1.78675	5.42
1.80342	5.41
1.82008	5.40
1.83675	5.39
1.85342	5.38
1.87008	5.37
1.88675	5.36
1.90342	5.35
1.92008	5.34
1.93675	5.33
1.95342	5.32
1.97008	5.31
1.98675	5.30
2.00342	5.29
2.02008	5.29
2.03675	5.28
2.05342	5.27
2.07008	5.26
2.08675	5.25
2.10342	5.24
2.12008	5.23
2.13675	5.22
2.15342	5.21
2.17008	5.20
2.18675	5.19
2.20342	5.18
2.22008	5.17
2.23675	5.16
2.25342	5.15
2.27008	5.14
2.28675	5.13
2.30342	5.13
2.32008	5.12
2.33675	5.11
2.35342	5.10
2.37008	5.09
2.38675	5.09
2.40342	5.09
2.42008	5.09
2.43675	5.09
2.45342	5.09
2.47008	5.09
2.48675	5.09
2.50342	5.08
2.52008	5.09
2.53675	5.09
2.55342	5.09
2.57008	5.09
2.58675	5.09
2.60342	5.09
2.62008	5.09
2.63675	5.09
2.65342	5.08
2.67008	5.08
2.68675	5.08
2.70342	5.08
2.72008	5.08
2.73675	5.08
2.75342	5.08
2.77008	5.08
2.78675	5.08
2.80342	5.08
2.82008	5.08
2.83675	5.08
2.85342	5.08
2.87008	5.08
2.88675	5.08
2.90342	5.08
2.92008	5.08
2.93675	5.08
2.95342	5.08
2.97008	5.08
2.98675	5.08
3.00342	5.08
3.02008	5.08
3.03675	5.08
3.05342	5.08
3.07008	5.08
3.08675	5.08
3.10342	5.08
3.12008	5.08
3.13675	5.08
3.15342	5.08
3.17008	5.08
3.18675	5.08
3.20342	5.08
3.22008	5.08
3.23675	5.08
3.25342	5.08
3.27008	5.08
3.28675	5.08
3.30342	5.08
3.32008	5.08
3.33675	5.08
3.35342	5.08
3.37008	5.08
3.38675	5.08
3.40342	5.08
3.42008	5.08
3.43675	5.08
3.45342	5.08
3.47008	5.08
3.48675	5.08
3.50342	5.08
3.52008	5.08
3.53675	5.08
3.55342	5.08
3.57008	5.08
3.58675	5.08
3.60342	5.08
3.62008	5.08
3.63675	5.08
3.65342	5.08
3.67008	5.08
3.68675	5.08
3.70342	5.08
3.72008	5.08
3.73675	5.08
3.75342	5.08
3.77008	5.08
3.78675	5.08
3.80342	5.08
3.82008	5.08
3.83675	5.08
3.85342	5.08
3.87008	5.08
3.88675	5.08
3.90342	5.08
3.92008	5.08
3.93675	5.08
3.95342	5.08
3.97008	5.08
3.98675	5.08

[Status Trace (Linear Velocity)]
Interval(msec)	1000
# of Points	240
Start Time(min)	0.003
End Time(min)	3.987
Intensity Units	
Intensity Multiplier	1
R.Time (min)	Intensity
0.00342	39.02
0.02008	37.79
0.03675	38.02
0.05342	39.41
0.07008	40.24
0.08675	39.19
0.10342	39.00
0.12008	39.02
0.13675	39.03
0.15342	39.02
0.17008	39.02
0.18675	39.02
0.20342	39.02
0.22008	39.02
0.23675	39.02
0.25342	39.02
0.27008	39.02
0.28675	39.02
0.30342	39.02
0.32008	39.02
0.33675	39.02
0.35342	39.02
0.37008	39.02
0.38675	39.02
0.40342	39.02
0.42008	39.02
0.43675	39.02
0.45342	39.02
0.47008	39.02
0.48675	39.02
0.50342	39.02
0.52008	39.02
0.53675	39.02
0.55342	39.02
0.57008	39.02
0.58675	39.02
0.60342	39.02
0.62008	39.02
0.63675	39.02
0.65342	39.02
0.67008	39.02
0.68675	39.02
0.70342	39.02
0.72008	39.02
0.73675	39.02
0.75342	39.02
0.77008	39.02
0.78675	39.02
0.80342	39.02
0.82008	39.02
0.83675	39.02
0.85342	39.02
0.87008	39.02
0.88675	39.02
0.90342	39.02
0.92008	39.02
0.93675	39.02
0.95342	39.02
0.97008	39.02
0.98675	39.02
1.00342	39.02
1.02008	39.02
1.03675	39.02
1.05342	39.02
1.07008	39.02
1.08675	39.02
1.10342	39.02
1.12008	39.02
1.13675	39.02
1.15342	39.02
1.17008	39.02
1.18675	39.02
1.20342	39.02
1.22008	39.02
1.23675	39.02
1.25342	39.02
1.27008	39.02
1.28675	39.02
1.30342	39.02
1.32008	39.02
1.33675	39.02
1.35342	39.02
1.37008	39.02
1.38675	39.02
1.40342	39.02
1.42008	39.02
1.43675	39.02
1.45342	39.01
1.47008	39.01
1.48675	39.01
1.50342	39.01
1.52008	39.01
1.53675	39.01
1.55342	39.01
1.57008	39.01
1.58675	39.01
1.60342	39.01
1.62008	39.00
1.63675	38.99
1.65342	38.97
1.67008	38.94
1.68675	38.91
1.70342	38.87
1.72008	38.84
1.73675	38.81
1.75342	38.77
1.77008	38.74
1.78675	38.71
1.80342	38.68
1.82008	38.65
1.83675	38.62
1.85342	38.59
1.87008	38.56
1.88675	38.52
1.90342	38.49
1.92008	38.46
1.93675	38.43
1.95342	38.40
1.97008	38.37
1.98675	38.34
2.00342	38.31
2.02008	38.28
2.03675	38.25
2.05342	38.22
2.07008	38.19
2.08675	38.16
2.10342	38.13
2.12008	38.10
2.13675	38.07
2.15342	38.04
2.17008	38.02
2.18675	37.99
2.20342	37.96
2.22008	37.93
2.23675	37.89
2.25342	37.86
2.27008	37.84
2.28675	37.80
2.30342	37.78
2.32008	37.75
2.33675	37.72
2.35342	37.69
2.37008	37.67
2.38675	37.66
2.40342	37.65
2.42008	37.66
2.43675	37.66
2.45342	37.66
2.47008	37.66
2.48675	37.66
2.50342	37.63
2.52008	37.65
2.53675	37.65
2.55342	37.65
2.57008	37.65
2.58675	37.65
2.60342	37.65
2.62008	37.65
2.63675	37.65
2.65342	37.65
2.67008	37.65
2.68675	37.65
2.70342	37.65
2.72008	37.65
2.73675	37.64
2.75342	37.64
2.77008	37.64
2.78675	37.64
2.80342	37.64
2.82008	37.64
2.83675	37.64
2.85342	37.64
2.87008	37.64
2.88675	37.64
2.90342	37.64
2.92008	37.64
2.93675	37.64
2.95342	37.64
2.97008	37.64
2.98675	37.64
3.00342	37.63
3.02008	37.63
3.03675	37.63
3.05342	37.63
3.07008	37.63
3.08675	37.63
3.10342	37.63
3.12008	37.63
3.13675	37.63
3.15342	37.63
3.17008	37.63
3.18675	37.63
3.20342	37.62
3.22008	37.62
3.23675	37.62
3.25342	37.62
3.27008	37.62
3.28675	37.62
3.30342	37.63
3.32008	37.63
3.33675	37.63
3.35342	37.63
3.37008	37.63
3.38675	37.63
3.40342	37.63
3.42008	37.63
3.43675	37.63
3.45342	37.63
3.47008	37.63
3.48675	37.63
3.50342	37.63
3.52008	37.63
3.53675	37.63
3.55342	37.63
3.57008	37.63
3.58675	37.63
3.60342	37.63
3.62008	37.63
3.63675	37.63
3.65342	37.63
3.67008	37.63
3.68675	37.63
3.70342	37.63
3.72008	37.63
3.73675	37.63
3.75342	37.63
3.77008	37.63
3.78675	37.63
3.80342	37.63
3.82008	37.63
3.83675	37.63
3.85342	37.63
3.87008	37.63
3.88675	37.63
3.90342	37.63
3.92008	37.63
3.93675	37.63
3.95342	37.63
3.97008	37.63
3.98675	37.63

