[Header]
Application Name	LabSolutions
Version	5.110
Data File Name	C:\Users\User\Desktop\GC Analyses\Jack\UIC Prairie Sampling\7.22.22\220722_082.gcd
Output Date	10/5/2022
Output Time	2:13:43 PM

[File Information]
Type	Data File
Generated	10/5/2022 10:40:59 AM
Generated by	System Administrator
Modified	10/5/2022 10:45:26 AM
Modified by	System Administrator

[Sample Information]
Operator Name	System Administrator
Acquired	10/5/2022 10:41:24 AM
Sample Type	1:Standard
Level	1
Sample Name	220722_UICPrairie
Sample ID	220722_UICPrairie
ISTD Amount1	1
ISTD Amount2	1
ISTD Amount3	1
ISTD Amount4	1
ISTD Amount5	1
ISTD Amount6	1
ISTD Amount7	1
ISTD Amount8	1
ISTD Amount9	1
ISTD Amount10	1
ISTD Amount11	1
ISTD Amount12	1
ISTD Amount13	1
ISTD Amount14	1
ISTD Amount15	1
ISTD Amount16	1
ISTD Amount17	1
ISTD Amount18	1
ISTD Amount19	1
ISTD Amount20	1
ISTD Amount21	1
ISTD Amount22	1
ISTD Amount23	1
ISTD Amount24	1
ISTD Amount25	1
ISTD Amount26	1
ISTD Amount27	1
ISTD Amount28	1
ISTD Amount29	1
ISTD Amount30	1
ISTD Amount31	1
ISTD Amount32	1
Sample Amount	1
Dilution Factor	1
Vial#	1
Injection Volume	1
Injection Count	1
Bar Code	

[Original Files]
Data File	C:\Users\User\Desktop\GC Analyses\Jack\UIC Prairie Sampling\7.22.22\220722_082.gcd
Method File	C:\LabSolutions\Data\GHG_4min_2022\ghg3_togas_w_acet_4 min_new_int.gcm
Batch File	
Report Format File	c:\LabSolutions\System\DEFAULT.lsr

[File Description]


[Configuration]
Instrument Name	C0B7VH3-Instrument1
Instrument #	1
Line #	1
# of Detectors	3
Detector ID	DET#1	DET#2	DET#3
Detector Name	FID	PTCD	ECD
# of Channels	1	1	1

[Peak Table(Ch1)]
# of Peaks	3
Peak#	R.Time	I.Time	F.Time	Area	Height	A/H	Conc.	Mark	ID#	Name	k'	Plate #	Plate Ht.	Tailing	Resolution	Sep.Factor	Area Ratio	Height Ratio	Conc. %	Norm Conc.
1	1.472	1.439	1.538	5579	2107	2.648	100.000	   	1	CO	0.000	6397	23.448	1.628	0.000	0.000	0	0	16.667	16.667
2	1.575	1.538	1.652	20678	10311	2.005	100.000	 V 	2	CH4	0.070	11397	13.161	1.137	1.548	0.000	0	0	16.667	16.667
3	2.004	1.956	2.326	2123894	1025481	2.071	400.000	   	3	CO2	0.361	17685	8.482	1.157	7.194	5.179	0	0	66.667	66.667

[Peak Table(Ch2)]
# of Peaks	0

[Peak Table(Ch3)]
# of Peaks	4
Peak#	R.Time	I.Time	F.Time	Area	Height	A/H	Conc.	Mark	ID#	Name	k'	Plate #	Plate Ht.	Tailing	Resolution	Sep.Factor	Area Ratio	Height Ratio	Conc. %	Norm Conc.
1	2.447	0.849	2.649	31544	784	40.241	0.000	   			0.000	114	1314.866	0.568	0.000	0.000	0	0	0.000	0.000
2	2.781	2.660	2.821	1459	212	6.887	0.025	   	1	N2O	0.136	1701	88.194	0.000	0.563	0.000	0	0	1.275	1.275
3	2.887	2.821	3.100	55776	14524	3.840	0.975	 V 	1	N2O	0.180	12817	11.704	1.502	0.572	1.319	0	0	48.725	48.725
4	3.401	3.291	3.962	13600	652	20.856	1.000	   	2	SF6	0.390	433	346.718	2.960	1.358	2.167	0	0	50.000	50.000

[Compound Results(Ch1)]
# of IDs	6
ID#	Name	R.Time	Area	Height	Conc.	Curve	3rd	2nd	1st	Constant	Area Ratio	Height Ratio	Conc. %	Norm Conc.
1	CO	1.472	5579	2107	100.000	Linear	0.000000e+00	0.000000e+00	5.578932e+001	0.000000e+00	0	0	16.667	16.667
2	CH4	1.575	20678	10311	100.000	Linear	0.000000e+00	0.000000e+00	2.067751e+002	0.000000e+00	0	0	16.667	16.667
3	CO2	2.004	2123894	1025481	400.000	Linear	0.000000e+00	0.000000e+00	5.309736e+003	0.000000e+00	0	0	66.667	66.667
4	Ethylene	0.000	0	0	0.000	Linear	0.000000e+00	0.000000e+00	0.000000e+00	0.000000e+00	0	0	0.000	0.000
5	Acetylene	0.000	0	0	0.000	Linear	0.000000e+00	0.000000e+00	0.000000e+00	0.000000e+00	0	0	0.000	0.000
6	Ethane	0.000	0	0	0.000	Linear	0.000000e+00	0.000000e+00	0.000000e+00	0.000000e+00	0	0	0.000	0.000

[Compound Results(Ch2)]
# of IDs	5
ID#	Name	R.Time	Area	Height	Conc.	Curve	3rd	2nd	1st	Constant	Area Ratio	Height Ratio	Conc. %	Norm Conc.
1	Hydrogen	0.000	0	0	0.000	Linear	0.000000e+00	0.000000e+00	0.000000e+00	0.000000e+00	0	0	0.000	0.000
2	Oxygen	0.000	0	0	0.000	Linear	0.000000e+00	0.000000e+00	0.000000e+00	0.000000e+00	0	0	0.000	0.000
3	Nitrogen	0.000	0	0	0.000	Linear	0.000000e+00	0.000000e+00	0.000000e+00	0.000000e+00	0	0	0.000	0.000
4	Methane	0.000	0	0	0.000	Linear	0.000000e+00	0.000000e+00	0.000000e+00	0.000000e+00	0	0	0.000	0.000
5	Carbon Monoxide	0.000	0	0	0.000	Linear	0.000000e+00	0.000000e+00	0.000000e+00	0.000000e+00	0	0	0.000	0.000

[Compound Results(Ch3)]
# of IDs	2
ID#	Name	R.Time	Area	Height	Conc.	Curve	3rd	2nd	1st	Constant	Area Ratio	Height Ratio	Conc. %	Norm Conc.
1	N2O	2.887	57235	14735	1.000	Linear	0.000000e+00	0.000000e+00	5.723484e+004	0.000000e+00	0	0	50.000	50.000
2	SF6	3.401	13600	652	1.000	Linear	0.000000e+00	0.000000e+00	1.359957e+004	0.000000e+00	0	0	50.000	50.000

[Group Results(Ch1)]
# of Groups	0

[Group Results(Ch2)]
# of Groups	0

[Group Results(Ch3)]
# of Groups	0

[Chromatogram (Ch1)]
Interval(msec)	220
# of Points	1091
Start Time(min)	0.002
End Time(min)	3.998
R.Time (min)	Intensity
0.00167	4
0.00533	-1
0.00900	-5
0.01267	-7
0.01633	-6
0.02000	-4
0.02367	-1
0.02733	-0
0.03100	1
0.03467	1
0.03833	-1
0.04200	-5
0.04567	-10
0.04933	-15
0.05300	-14
0.05667	-10
0.06033	-6
0.06400	-4
0.06767	-3
0.07133	-1
0.07500	3
0.07867	7
0.08233	7
0.08600	6
0.08967	5
0.09333	4
0.09700	4
0.10067	6
0.10433	7
0.10800	8
0.11167	13
0.11533	16
0.11900	15
0.12267	10
0.12633	0
0.13000	-8
0.13367	-10
0.13733	-6
0.14100	-1
0.14467	3
0.14833	3
0.15200	-3
0.15567	-14
0.15933	-28
0.16300	-39
0.16667	-45
0.17033	-42
0.17400	-34
0.17767	-27
0.18133	-24
0.18500	-24
0.18867	-28
0.19233	-29
0.19600	-24
0.19967	-17
0.20333	-13
0.20700	-13
0.21067	-13
0.21433	-14
0.21800	-14
0.22167	-14
0.22533	-15
0.22900	-17
0.23267	-18
0.23633	-17
0.24000	-15
0.24367	-12
0.24733	-8
0.25100	-5
0.25467	-4
0.25833	-6
0.26200	-12
0.26567	-20
0.26933	-25
0.27300	-28
0.27667	-30
0.28033	-29
0.28400	-24
0.28767	-16
0.29133	-8
0.29500	-1
0.29867	3
0.30233	-1
0.30600	-4
0.30967	-5
0.31333	-4
0.31700	-3
0.32067	-4
0.32433	-8
0.32800	-16
0.33167	-23
0.33533	-25
0.33900	-24
0.34267	-27
0.34633	-32
0.35000	-38
0.35367	-42
0.35733	-43
0.36100	-41
0.36467	-35
0.36833	-32
0.37200	-32
0.37567	-28
0.37933	-22
0.38300	-19
0.38667	-20
0.39033	-18
0.39400	-17
0.39767	-19
0.40133	-24
0.40500	-27
0.40867	-29
0.41233	-28
0.41600	-27
0.41967	-26
0.42333	-24
0.42700	-24
0.43067	-26
0.43433	-27
0.43800	-28
0.44167	-31
0.44533	-39
0.44900	-48
0.45267	-53
0.45633	-56
0.46000	-55
0.46367	-53
0.46733	-54
0.47100	-54
0.47467	-51
0.47833	-47
0.48200	-45
0.48567	-41
0.48933	-35
0.49300	-32
0.49667	-32
0.50033	-33
0.50400	-35
0.50767	-35
0.51133	-36
0.51500	-37
0.51867	-40
0.52233	-46
0.52600	-50
0.52967	-53
0.53333	-56
0.53700	-59
0.54067	-64
0.54433	-66
0.54800	-67
0.55167	-66
0.55533	-66
0.55900	-68
0.56267	-68
0.56633	-63
0.57000	-60
0.57367	-61
0.57733	-67
0.58100	-72
0.58467	-77
0.58833	-77
0.59200	-72
0.59567	-66
0.59933	-63
0.60300	-64
0.60667	-65
0.61033	-64
0.61400	-60
0.61767	-57
0.62133	-53
0.62500	-54
0.62867	-57
0.63233	-61
0.63600	-64
0.63967	-66
0.64333	-65
0.64700	-64
0.65067	-61
0.65433	-57
0.65800	-53
0.66167	-49
0.66533	-49
0.66900	-51
0.67267	-54
0.67633	-54
0.68000	-52
0.68367	-47
0.68733	-43
0.69100	-41
0.69467	-43
0.69833	-49
0.70200	-56
0.70567	-59
0.70933	-59
0.71300	-58
0.71667	-59
0.72033	-59
0.72400	-60
0.72767	-58
0.73133	-55
0.73500	-53
0.73867	-52
0.74233	-53
0.74600	-53
0.74967	-56
0.75333	-62
0.75700	-66
0.76067	-67
0.76433	-69
0.76800	-71
0.77167	-72
0.77533	-70
0.77900	-68
0.78267	-67
0.78633	-66
0.79000	-67
0.79367	-69
0.79733	-70
0.80100	-69
0.80467	-69
0.80833	-69
0.81200	-67
0.81567	-63
0.81933	-63
0.82300	-65
0.82667	-66
0.83033	-61
0.83400	-54
0.83767	-53
0.84133	-59
0.84500	-67
0.84867	-72
0.85233	-74
0.85600	-72
0.85967	-67
0.86333	-60
0.86700	-55
0.87067	-55
0.87433	-60
0.87800	-68
0.88167	-77
0.88533	-84
0.88900	-91
0.89267	-95
0.89633	-94
0.90000	-89
0.90367	-83
0.90733	-77
0.91100	-70
0.91467	-62
0.91833	-55
0.92200	-53
0.92567	-55
0.92933	-59
0.93300	-66
0.93667	-74
0.94033	-78
0.94400	-77
0.94767	-74
0.95133	-71
0.95500	-68
0.95867	-65
0.96233	-61
0.96600	-55
0.96967	-50
0.97333	-49
0.97700	-53
0.98067	-59
0.98433	-65
0.98800	-71
0.99167	-74
0.99533	-77
0.99900	-78
1.00267	-76
1.00633	-67
1.01000	-56
1.01367	-51
1.01733	-51
1.02100	-53
1.02467	-59
1.02833	-69
1.03200	-80
1.03567	-89
1.03933	-94
1.04300	-94
1.04667	-91
1.05033	-88
1.05400	-87
1.05767	-83
1.06133	-76
1.06500	-70
1.06867	-69
1.07233	-72
1.07600	-76
1.07967	-80
1.08333	-84
1.08700	-87
1.09067	-87
1.09433	-81
1.09800	-78
1.10167	-78
1.10533	-77
1.10900	-75
1.11267	-76
1.11633	-78
1.12000	-78
1.12367	-75
1.12733	-67
1.13100	-60
1.13467	-60
1.13833	-66
1.14200	-74
1.14567	-80
1.14933	-84
1.15300	-83
1.15667	-78
1.16033	-71
1.16400	-64
1.16767	-62
1.17133	-66
1.17500	-70
1.17867	-72
1.18233	-63
1.18600	-43
1.18967	-24
1.19333	-15
1.19700	-16
1.20067	-22
1.20433	-28
1.20800	-33
1.21167	-38
1.21533	-40
1.21900	-37
1.22267	-33
1.22633	-28
1.23000	-26
1.23367	-26
1.23733	-31
1.24100	-41
1.24467	-48
1.24833	-51
1.25200	-53
1.25567	-56
1.25933	-61
1.26300	-66
1.26667	-71
1.27033	-72
1.27400	-69
1.27767	-65
1.28133	-63
1.28500	-63
1.28867	-65
1.29233	-69
1.29600	-72
1.29967	-69
1.30333	-60
1.30700	-50
1.31067	-45
1.31433	-43
1.31800	-45
1.32167	-46
1.32533	-46
1.32900	-45
1.33267	-47
1.33633	-50
1.34000	-53
1.34367	-59
1.34733	-62
1.35100	-62
1.35467	-61
1.35833	-62
1.36200	-62
1.36567	-60
1.36933	-58
1.37300	-57
1.37667	-53
1.38033	-48
1.38400	-47
1.38767	-50
1.39133	-54
1.39500	-56
1.39867	-53
1.40233	-50
1.40600	-50
1.40967	-53
1.41333	-57
1.41700	-59
1.42067	-61
1.42433	-65
1.42800	-70
1.43167	-71
1.43533	-70
1.43900	-67
1.44267	-44
1.44633	72
1.45000	354
1.45367	766
1.45733	1194
1.46100	1553
1.46467	1810
1.46833	1968
1.47200	2040
1.47567	2035
1.47933	1963
1.48300	1835
1.48667	1657
1.49033	1439
1.49400	1202
1.49767	971
1.50133	760
1.50500	579
1.50867	430
1.51233	313
1.51600	229
1.51967	168
1.52333	120
1.52700	81
1.53067	49
1.53433	24
1.53800	16
1.54167	62
1.54533	315
1.54900	1053
1.55267	2459
1.55633	4364
1.56000	6355
1.56367	8084
1.56733	9382
1.57100	10147
1.57467	10243
1.57833	9576
1.58200	8254
1.58567	6591
1.58933	4934
1.59300	3511
1.59667	2410
1.60033	1615
1.60400	1064
1.60767	689
1.61133	439
1.61500	273
1.61867	162
1.62233	89
1.62600	40
1.62967	5
1.63333	-19
1.63700	-33
1.64067	-42
1.64433	-50
1.64800	-60
1.65167	-68
1.65533	-74
1.65900	-75
1.66267	-71
1.66633	-66
1.67000	-64
1.67367	-65
1.67733	-69
1.68100	-75
1.68467	-81
1.68833	-84
1.69200	-86
1.69567	-84
1.69933	-79
1.70300	-74
1.70667	-70
1.71033	-73
1.71400	-78
1.71767	-79
1.72133	-75
1.72500	-73
1.72867	-74
1.73233	-75
1.73600	-75
1.73967	-74
1.74333	-75
1.74700	-76
1.75067	-75
1.75433	-76
1.75800	-80
1.76167	-81
1.76533	-78
1.76900	-75
1.77267	-77
1.77633	-85
1.78000	-92
1.78367	-95
1.78733	-94
1.79100	-92
1.79467	-91
1.79833	-93
1.80200	-96
1.80567	-94
1.80933	-90
1.81300	-88
1.81667	-88
1.82033	-90
1.82400	-88
1.82767	-84
1.83133	-78
1.83500	-73
1.83867	-69
1.84233	-68
1.84600	-68
1.84967	-65
1.85333	-63
1.85700	-61
1.86067	-60
1.86433	-59
1.86800	-54
1.87167	-49
1.87533	-42
1.87900	-36
1.88267	-35
1.88633	-37
1.89000	-41
1.89367	-44
1.89733	-46
1.90100	-49
1.90467	-53
1.90833	-55
1.91200	-57
1.91567	-59
1.91933	-61
1.92300	-58
1.92667	-51
1.93033	-45
1.93400	-40
1.93767	-36
1.94133	-34
1.94500	-35
1.94867	-37
1.95233	-37
1.95600	-28
1.95967	68
1.96333	694
1.96700	3789
1.97067	15453
1.97433	49086
1.97800	123983
1.98167	253689
1.98533	431418
1.98900	629344
1.99267	812210
1.99633	950121
2.00000	1023992
2.00367	1025489
2.00733	957847
2.01100	836491
2.01467	685855
2.01833	531517
2.02200	392879
2.02567	279880
2.02933	194170
2.03300	132453
2.03667	89600
2.04033	60562
2.04400	41184
2.04767	28354
2.05133	19877
2.05500	14251
2.05867	10482
2.06233	7921
2.06600	6154
2.06967	4909
2.07333	4012
2.07700	3352
2.08067	2857
2.08433	2478
2.08800	2178
2.09167	1938
2.09533	1745
2.09900	1584
2.10267	1443
2.10633	1320
2.11000	1218
2.11367	1129
2.11733	1052
2.12100	984
2.12467	924
2.12833	873
2.13200	828
2.13567	790
2.13933	758
2.14300	728
2.14667	699
2.15033	674
2.15400	651
2.15767	627
2.16133	601
2.16500	572
2.16867	545
2.17233	524
2.17600	509
2.17967	496
2.18333	482
2.18700	465
2.19067	447
2.19433	434
2.19800	425
2.20167	419
2.20533	415
2.20900	412
2.21267	405
2.21633	394
2.22000	385
2.22367	381
2.22733	378
2.23100	374
2.23467	369
2.23833	363
2.24200	358
2.24567	352
2.24933	349
2.25300	346
2.25667	339
2.26033	327
2.26400	315
2.26767	307
2.27133	305
2.27500	303
2.27867	298
2.28233	290
2.28600	282
2.28967	279
2.29333	278
2.29700	280
2.30067	284
2.30433	287
2.30800	286
2.31167	280
2.31533	272
2.31900	263
2.32267	256
2.32633	253
2.33000	254
2.33367	255
2.33733	255
2.34100	254
2.34467	255
2.34833	256
2.35200	256
2.35567	254
2.35933	251
2.36300	249
2.36667	248
2.37033	249
2.37400	249
2.37767	249
2.38133	251
2.38500	253
2.38867	256
2.39233	259
2.39600	254
2.39967	240
2.40333	244
2.40700	249
2.41067	252
2.41433	253
2.41800	253
2.42167	251
2.42533	251
2.42900	253
2.43267	255
2.43633	254
2.44000	253
2.44367	252
2.44733	251
2.45100	247
2.45467	243
2.45833	239
2.46200	235
2.46567	231
2.46933	226
2.47300	224
2.47667	222
2.48033	216
2.48400	211
2.48767	205
2.49133	201
2.49500	198
2.49867	197
2.50233	191
2.50600	186
2.50967	187
2.51333	192
2.51700	195
2.52067	197
2.52433	199
2.52800	202
2.53167	206
2.53533	209
2.53900	210
2.54267	209
2.54633	203
2.55000	194
2.55367	184
2.55733	176
2.56100	173
2.56467	171
2.56833	169
2.57200	168
2.57567	167
2.57933	167
2.58300	167
2.58667	165
2.59033	166
2.59400	164
2.59767	162
2.60133	162
2.60500	166
2.60867	171
2.61233	175
2.61600	177
2.61967	171
2.62333	160
2.62700	151
2.63067	145
2.63433	145
2.63800	151
2.64167	158
2.64533	162
2.64900	162
2.65267	162
2.65633	166
2.66000	172
2.66367	173
2.66733	168
2.67100	160
2.67467	152
2.67833	147
2.68200	147
2.68567	150
2.68933	150
2.69300	145
2.69667	138
2.70033	133
2.70400	130
2.70767	129
2.71133	130
2.71500	133
2.71867	135
2.72233	137
2.72600	138
2.72967	139
2.73333	141
2.73700	141
2.74067	142
2.74433	144
2.74800	143
2.75167	140
2.75533	134
2.75900	127
2.76267	121
2.76633	118
2.77000	121
2.77367	127
2.77733	134
2.78100	139
2.78467	140
2.78833	139
2.79200	137
2.79567	137
2.79933	140
2.80300	142
2.80667	144
2.81033	147
2.81400	145
2.81767	140
2.82133	135
2.82500	132
2.82867	132
2.83233	133
2.83600	133
2.83967	133
2.84333	133
2.84700	136
2.85067	139
2.85433	139
2.85800	139
2.86167	134
2.86533	126
2.86900	115
2.87267	105
2.87633	99
2.88000	97
2.88367	96
2.88733	96
2.89100	97
2.89467	99
2.89833	103
2.90200	107
2.90567	110
2.90933	113
2.91300	113
2.91667	111
2.92033	113
2.92400	115
2.92767	117
2.93133	119
2.93500	118
2.93867	115
2.94233	113
2.94600	109
2.94967	105
2.95333	104
2.95700	107
2.96067	115
2.96433	121
2.96800	122
2.97167	121
2.97533	117
2.97900	112
2.98267	112
2.98633	109
2.99000	107
2.99367	106
2.99733	107
3.00100	108
3.00467	108
3.00833	107
3.01200	112
3.01567	117
3.01933	120
3.02300	122
3.02667	122
3.03033	120
3.03400	115
3.03767	111
3.04133	110
3.04500	112
3.04867	113
3.05233	110
3.05600	107
3.05967	102
3.06333	96
3.06700	92
3.07067	91
3.07433	94
3.07800	98
3.08167	104
3.08533	110
3.08900	114
3.09267	113
3.09633	109
3.10000	105
3.10367	103
3.10733	105
3.11100	108
3.11467	111
3.11833	113
3.12200	113
3.12567	111
3.12933	108
3.13300	104
3.13667	101
3.14033	100
3.14400	96
3.14767	91
3.15133	87
3.15500	88
3.15867	89
3.16233	89
3.16600	91
3.16967	92
3.17333	91
3.17700	85
3.18067	82
3.18433	83
3.18800	88
3.19167	96
3.19533	103
3.19900	106
3.20267	106
3.20633	105
3.21000	101
3.21367	95
3.21733	92
3.22100	91
3.22467	88
3.22833	83
3.23200	80
3.23567	80
3.23933	82
3.24300	83
3.24667	86
3.25033	91
3.25400	93
3.25767	92
3.26133	92
3.26500	94
3.26867	97
3.27233	100
3.27600	102
3.27967	103
3.28333	101
3.28700	99
3.29067	96
3.29433	95
3.29800	96
3.30167	94
3.30533	91
3.30900	91
3.31267	93
3.31633	96
3.32000	99
3.32367	99
3.32733	97
3.33100	92
3.33467	87
3.33833	81
3.34200	77
3.34567	76
3.34933	76
3.35300	78
3.35667	80
3.36033	79
3.36400	74
3.36767	71
3.37133	71
3.37500	71
3.37867	71
3.38233	72
3.38600	73
3.38967	74
3.39333	77
3.39700	81
3.40067	83
3.40433	81
3.40800	78
3.41167	76
3.41533	77
3.41900	83
3.42267	89
3.42633	93
3.43000	92
3.43367	85
3.43733	71
3.44100	55
3.44467	47
3.44833	45
3.45200	48
3.45567	53
3.45933	56
3.46300	59
3.46667	64
3.47033	74
3.47400	82
3.47767	84
3.48133	79
3.48500	70
3.48867	64
3.49233	62
3.49600	65
3.49967	71
3.50333	76
3.50700	79
3.51067	83
3.51433	82
3.51800	79
3.52167	75
3.52533	71
3.52900	71
3.53267	72
3.53633	76
3.54000	82
3.54367	86
3.54733	85
3.55100	84
3.55467	83
3.55833	79
3.56200	76
3.56567	74
3.56933	75
3.57300	77
3.57667	78
3.58033	82
3.58400	84
3.58767	83
3.59133	81
3.59500	83
3.59867	85
3.60233	85
3.60600	81
3.60967	77
3.61333	73
3.61700	70
3.62067	70
3.62433	74
3.62800	82
3.63167	91
3.63533	94
3.63900	91
3.64267	86
3.64633	81
3.65000	74
3.65367	68
3.65733	60
3.66100	55
3.66467	55
3.66833	61
3.67200	71
3.67567	81
3.67933	83
3.68300	81
3.68667	79
3.69033	80
3.69400	80
3.69767	79
3.70133	78
3.70500	76
3.70867	76
3.71233	80
3.71600	86
3.71967	93
3.72333	98
3.72700	99
3.73067	94
3.73433	82
3.73800	69
3.74167	62
3.74533	65
3.74900	72
3.75267	81
3.75633	87
3.76000	93
3.76367	97
3.76733	96
3.77100	87
3.77467	75
3.77833	65
3.78200	59
3.78567	55
3.78933	51
3.79300	48
3.79667	42
3.80033	39
3.80400	41
3.80767	50
3.81133	62
3.81500	71
3.81867	75
3.82233	74
3.82600	71
3.82967	72
3.83333	73
3.83700	69
3.84067	65
3.84433	62
3.84800	64
3.85167	72
3.85533	82
3.85900	92
3.86267	98
3.86633	98
3.87000	97
3.87367	96
3.87733	94
3.88100	95
3.88467	95
3.88833	92
3.89200	86
3.89567	80
3.89933	74
3.90300	68
3.90667	67
3.91033	73
3.91400	78
3.91767	82
3.92133	86
3.92500	86
3.92867	87
3.93233	88
3.93600	88
3.93967	90
3.94333	93
3.94700	95
3.95067	97
3.95433	97
3.95800	96
3.96167	94
3.96533	89
3.96900	85
3.97267	81
3.97633	76
3.98000	71
3.98367	68
3.98733	69
3.99100	71
3.99467	76
3.99833	78

[Chromatogram (Ch2)]
Interval(msec)	220
# of Points	1091
Start Time(min)	0.002
End Time(min)	3.998
R.Time (min)	Intensity
0.00167	0
0.00533	0
0.00900	0
0.01267	0
0.01633	0
0.02000	0
0.02367	0
0.02733	0
0.03100	-0
0.03467	0
0.03833	0
0.04200	0
0.04567	1
0.04933	1
0.05300	1
0.05667	1
0.06033	1
0.06400	1
0.06767	1
0.07133	1
0.07500	2
0.07867	2
0.08233	2
0.08600	2
0.08967	1
0.09333	1
0.09700	1
0.10067	1
0.10433	1
0.10800	1
0.11167	1
0.11533	1
0.11900	1
0.12267	1
0.12633	1
0.13000	2
0.13367	2
0.13733	2
0.14100	2
0.14467	2
0.14833	2
0.15200	2
0.15567	2
0.15933	2
0.16300	2
0.16667	3
0.17033	3
0.17400	3
0.17767	3
0.18133	3
0.18500	3
0.18867	3
0.19233	3
0.19600	3
0.19967	3
0.20333	3
0.20700	3
0.21067	2
0.21433	2
0.21800	2
0.22167	2
0.22533	2
0.22900	1
0.23267	1
0.23633	1
0.24000	1
0.24367	2
0.24733	2
0.25100	3
0.25467	3
0.25833	4
0.26200	4
0.26567	4
0.26933	4
0.27300	4
0.27667	4
0.28033	4
0.28400	3
0.28767	3
0.29133	3
0.29500	3
0.29867	3
0.30233	3
0.30600	3
0.30967	4
0.31333	4
0.31700	4
0.32067	4
0.32433	4
0.32800	4
0.33167	3
0.33533	3
0.33900	3
0.34267	3
0.34633	4
0.35000	4
0.35367	4
0.35733	4
0.36100	4
0.36467	4
0.36833	4
0.37200	4
0.37567	4
0.37933	4
0.38300	5
0.38667	5
0.39033	5
0.39400	5
0.39767	6
0.40133	6
0.40500	6
0.40867	6
0.41233	6
0.41600	6
0.41967	6
0.42333	5
0.42700	5
0.43067	5
0.43433	5
0.43800	5
0.44167	5
0.44533	5
0.44900	5
0.45267	5
0.45633	5
0.46000	5
0.46367	5
0.46733	5
0.47100	5
0.47467	5
0.47833	5
0.48200	5
0.48567	5
0.48933	5
0.49300	5
0.49667	5
0.50033	5
0.50400	5
0.50767	5
0.51133	5
0.51500	5
0.51867	5
0.52233	5
0.52600	5
0.52967	5
0.53333	5
0.53700	5
0.54067	5
0.54433	5
0.54800	4
0.55167	4
0.55533	4
0.55900	4
0.56267	4
0.56633	3
0.57000	3
0.57367	3
0.57733	2
0.58100	2
0.58467	2
0.58833	1
0.59200	1
0.59567	2
0.59933	2
0.60300	2
0.60667	2
0.61033	2
0.61400	2
0.61767	3
0.62133	3
0.62500	3
0.62867	3
0.63233	4
0.63600	4
0.63967	4
0.64333	4
0.64700	4
0.65067	4
0.65433	4
0.65800	4
0.66167	4
0.66533	4
0.66900	3
0.67267	3
0.67633	3
0.68000	3
0.68367	3
0.68733	3
0.69100	3
0.69467	3
0.69833	3
0.70200	4
0.70567	4
0.70933	4
0.71300	5
0.71667	5
0.72033	5
0.72400	5
0.72767	5
0.73133	5
0.73500	5
0.73867	5
0.74233	6
0.74600	6
0.74967	6
0.75333	6
0.75700	6
0.76067	6
0.76433	7
0.76800	7
0.77167	7
0.77533	7
0.77900	8
0.78267	8
0.78633	8
0.79000	8
0.79367	8
0.79733	8
0.80100	8
0.80467	9
0.80833	9
0.81200	10
0.81567	10
0.81933	11
0.82300	11
0.82667	12
0.83033	12
0.83400	12
0.83767	13
0.84133	13
0.84500	13
0.84867	13
0.85233	12
0.85600	12
0.85967	11
0.86333	11
0.86700	11
0.87067	11
0.87433	11
0.87800	11
0.88167	11
0.88533	10
0.88900	10
0.89267	10
0.89633	10
0.90000	10
0.90367	10
0.90733	10
0.91100	9
0.91467	9
0.91833	9
0.92200	9
0.92567	9
0.92933	9
0.93300	8
0.93667	8
0.94033	8
0.94400	8
0.94767	8
0.95133	8
0.95500	8
0.95867	8
0.96233	8
0.96600	7
0.96967	7
0.97333	7
0.97700	7
0.98067	7
0.98433	7
0.98800	7
0.99167	7
0.99533	7
0.99900	7
1.00267	7
1.00633	7
1.01000	7
1.01367	8
1.01733	8
1.02100	8
1.02467	9
1.02833	9
1.03200	9
1.03567	10
1.03933	10
1.04300	10
1.04667	10
1.05033	10
1.05400	10
1.05767	10
1.06133	10
1.06500	10
1.06867	11
1.07233	11
1.07600	11
1.07967	11
1.08333	11
1.08700	11
1.09067	11
1.09433	10
1.09800	10
1.10167	11
1.10533	11
1.10900	10
1.11267	10
1.11633	10
1.12000	10
1.12367	10
1.12733	10
1.13100	9
1.13467	9
1.13833	9
1.14200	8
1.14567	8
1.14933	8
1.15300	8
1.15667	8
1.16033	8
1.16400	9
1.16767	9
1.17133	9
1.17500	9
1.17867	9
1.18233	9
1.18600	9
1.18967	9
1.19333	9
1.19700	9
1.20067	9
1.20433	9
1.20800	9
1.21167	10
1.21533	10
1.21900	10
1.22267	10
1.22633	10
1.23000	10
1.23367	10
1.23733	11
1.24100	11
1.24467	11
1.24833	10
1.25200	10
1.25567	10
1.25933	10
1.26300	10
1.26667	10
1.27033	10
1.27400	11
1.27767	11
1.28133	11
1.28500	11
1.28867	11
1.29233	11
1.29600	11
1.29967	11
1.30333	11
1.30700	11
1.31067	11
1.31433	11
1.31800	11
1.32167	11
1.32533	11
1.32900	11
1.33267	11
1.33633	11
1.34000	11
1.34367	11
1.34733	11
1.35100	11
1.35467	11
1.35833	11
1.36200	11
1.36567	11
1.36933	11
1.37300	11
1.37667	11
1.38033	11
1.38400	11
1.38767	11
1.39133	11
1.39500	11
1.39867	11
1.40233	11
1.40600	11
1.40967	11
1.41333	11
1.41700	11
1.42067	11
1.42433	12
1.42800	12
1.43167	12
1.43533	12
1.43900	12
1.44267	12
1.44633	12
1.45000	12
1.45367	12
1.45733	11
1.46100	11
1.46467	11
1.46833	11
1.47200	11
1.47567	11
1.47933	11
1.48300	12
1.48667	12
1.49033	12
1.49400	12
1.49767	12
1.50133	11
1.50500	11
1.50867	11
1.51233	11
1.51600	11
1.51967	11
1.52333	11
1.52700	11
1.53067	11
1.53433	11
1.53800	11
1.54167	11
1.54533	11
1.54900	11
1.55267	11
1.55633	11
1.56000	11
1.56367	11
1.56733	11
1.57100	11
1.57467	11
1.57833	11
1.58200	11
1.58567	11
1.58933	10
1.59300	10
1.59667	9
1.60033	8
1.60400	7
1.60767	6
1.61133	4
1.61500	2
1.61867	0
1.62233	-2
1.62600	-5
1.62967	-8
1.63333	-11
1.63700	-14
1.64067	-18
1.64433	-22
1.64800	-25
1.65167	-29
1.65533	-33
1.65900	-37
1.66267	-42
1.66633	-46
1.67000	-51
1.67367	-56
1.67733	-62
1.68100	-68
1.68467	-73
1.68833	-78
1.69200	-83
1.69567	-87
1.69933	-91
1.70300	-95
1.70667	-98
1.71033	-100
1.71400	-102
1.71767	-104
1.72133	-106
1.72500	-107
1.72867	-108
1.73233	-109
1.73600	-110
1.73967	-111
1.74333	-112
1.74700	-112
1.75067	-113
1.75433	-114
1.75800	-115
1.76167	-116
1.76533	-117
1.76900	-117
1.77267	-117
1.77633	-118
1.78000	-118
1.78367	-119
1.78733	-119
1.79100	-120
1.79467	-120
1.79833	-121
1.80200	-121
1.80567	-121
1.80933	-121
1.81300	-121
1.81667	-121
1.82033	-121
1.82400	-121
1.82767	-122
1.83133	-122
1.83500	-122
1.83867	-122
1.84233	-122
1.84600	-122
1.84967	-122
1.85333	-122
1.85700	-122
1.86067	-122
1.86433	-122
1.86800	-121
1.87167	-121
1.87533	-121
1.87900	-121
1.88267	-122
1.88633	-122
1.89000	-123
1.89367	-123
1.89733	-122
1.90100	-122
1.90467	-122
1.90833	-121
1.91200	-121
1.91567	-121
1.91933	-121
1.92300	-121
1.92667	-121
1.93033	-120
1.93400	-120
1.93767	-120
1.94133	-120
1.94500	-120
1.94867	-119
1.95233	-119
1.95600	-119
1.95967	-119
1.96333	-118
1.96700	-118
1.97067	-118
1.97433	-118
1.97800	-117
1.98167	-117
1.98533	-116
1.98900	-115
1.99267	-114
1.99633	-113
2.00000	-112
2.00367	-111
2.00733	-109
2.01100	-109
2.01467	-109
2.01833	-108
2.02200	-108
2.02567	-109
2.02933	-108
2.03300	-108
2.03667	-108
2.04033	-108
2.04400	-108
2.04767	-108
2.05133	-107
2.05500	-107
2.05867	-106
2.06233	-105
2.06600	-105
2.06967	-104
2.07333	-104
2.07700	-103
2.08067	-103
2.08433	-103
2.08800	-103
2.09167	-102
2.09533	-102
2.09900	-102
2.10267	-102
2.10633	-101
2.11000	-101
2.11367	-100
2.11733	-100
2.12100	-100
2.12467	-99
2.12833	-100
2.13200	-100
2.13567	-99
2.13933	-99
2.14300	-99
2.14667	-98
2.15033	-97
2.15400	-97
2.15767	-96
2.16133	-96
2.16500	-95
2.16867	-95
2.17233	-95
2.17600	-95
2.17967	-95
2.18333	-95
2.18700	-94
2.19067	-94
2.19433	-93
2.19800	-92
2.20167	-92
2.20533	-91
2.20900	-91
2.21267	-90
2.21633	-89
2.22000	-89
2.22367	-88
2.22733	-88
2.23100	-87
2.23467	-87
2.23833	-87
2.24200	-87
2.24567	-87
2.24933	-87
2.25300	-87
2.25667	-87
2.26033	-87
2.26400	-87
2.26767	-87
2.27133	-86
2.27500	-86
2.27867	-85
2.28233	-85
2.28600	-85
2.28967	-85
2.29333	-85
2.29700	-85
2.30067	-85
2.30433	-85
2.30800	-85
2.31167	-84
2.31533	-83
2.31900	-82
2.32267	-81
2.32633	-80
2.33000	-79
2.33367	-78
2.33733	-78
2.34100	-77
2.34467	-76
2.34833	-75
2.35200	-74
2.35567	-73
2.35933	-73
2.36300	-73
2.36667	-73
2.37033	-72
2.37400	-71
2.37767	-70
2.38133	-67
2.38500	-64
2.38867	-60
2.39233	-56
2.39600	-52
2.39967	-47
2.40333	-42
2.40700	-36
2.41067	-31
2.41433	-26
2.41800	-21
2.42167	-16
2.42533	-12
2.42900	-9
2.43267	-6
2.43633	-3
2.44000	-0
2.44367	2
2.44733	5
2.45100	7
2.45467	10
2.45833	11
2.46200	13
2.46567	14
2.46933	16
2.47300	17
2.47667	18
2.48033	19
2.48400	20
2.48767	21
2.49133	22
2.49500	23
2.49867	24
2.50233	25
2.50600	26
2.50967	27
2.51333	28
2.51700	29
2.52067	30
2.52433	31
2.52800	32
2.53167	33
2.53533	34
2.53900	35
2.54267	36
2.54633	37
2.55000	38
2.55367	38
2.55733	39
2.56100	39
2.56467	39
2.56833	39
2.57200	39
2.57567	39
2.57933	40
2.58300	40
2.58667	40
2.59033	41
2.59400	41
2.59767	42
2.60133	43
2.60500	43
2.60867	44
2.61233	44
2.61600	44
2.61967	45
2.62333	45
2.62700	45
2.63067	45
2.63433	45
2.63800	44
2.64167	44
2.64533	44
2.64900	44
2.65267	44
2.65633	44
2.66000	44
2.66367	44
2.66733	45
2.67100	45
2.67467	45
2.67833	46
2.68200	46
2.68567	46
2.68933	47
2.69300	48
2.69667	48
2.70033	48
2.70400	49
2.70767	49
2.71133	48
2.71500	48
2.71867	47
2.72233	47
2.72600	47
2.72967	46
2.73333	46
2.73700	46
2.74067	46
2.74433	46
2.74800	46
2.75167	46
2.75533	47
2.75900	47
2.76267	48
2.76633	48
2.77000	49
2.77367	49
2.77733	50
2.78100	50
2.78467	51
2.78833	51
2.79200	51
2.79567	51
2.79933	52
2.80300	52
2.80667	52
2.81033	51
2.81400	51
2.81767	51
2.82133	50
2.82500	50
2.82867	50
2.83233	50
2.83600	50
2.83967	50
2.84333	50
2.84700	49
2.85067	48
2.85433	44
2.85800	39
2.86167	30
2.86533	18
2.86900	1
2.87267	-21
2.87633	-47
2.88000	-79
2.88367	-115
2.88733	-157
2.89100	-204
2.89467	-256
2.89833	-312
2.90200	-372
2.90567	-436
2.90933	-503
2.91300	-573
2.91667	-646
2.92033	-721
2.92400	-799
2.92767	-878
2.93133	-960
2.93500	-1043
2.93867	-1128
2.94233	-1214
2.94600	-1302
2.94967	-1386
2.95333	-1454
2.95700	-1495
2.96067	-1501
2.96433	-1473
2.96800	-1414
2.97167	-1331
2.97533	-1233
2.97900	-1125
2.98267	-1015
2.98633	-905
2.99000	-801
2.99367	-703
2.99733	-612
3.00100	-530
3.00467	-457
3.00833	-392
3.01200	-334
3.01567	-283
3.01933	-239
3.02300	-200
3.02667	-167
3.03033	-138
3.03400	-113
3.03767	-92
3.04133	-74
3.04500	-58
3.04867	-44
3.05233	-33
3.05600	-23
3.05967	-14
3.06333	-7
3.06700	-1
3.07067	4
3.07433	8
3.07800	12
3.08167	15
3.08533	18
3.08900	20
3.09267	23
3.09633	24
3.10000	26
3.10367	28
3.10733	29
3.11100	30
3.11467	32
3.11833	33
3.12200	34
3.12567	35
3.12933	36
3.13300	37
3.13667	37
3.14033	38
3.14400	39
3.14767	39
3.15133	39
3.15500	40
3.15867	40
3.16233	41
3.16600	41
3.16967	42
3.17333	43
3.17700	43
3.18067	44
3.18433	44
3.18800	45
3.19167	45
3.19533	46
3.19900	47
3.20267	47
3.20633	47
3.21000	48
3.21367	48
3.21733	48
3.22100	49
3.22467	49
3.22833	49
3.23200	49
3.23567	49
3.23933	49
3.24300	50
3.24667	50
3.25033	51
3.25400	51
3.25767	51
3.26133	51
3.26500	52
3.26867	52
3.27233	52
3.27600	53
3.27967	53
3.28333	53
3.28700	53
3.29067	53
3.29433	53
3.29800	53
3.30167	53
3.30533	54
3.30900	54
3.31267	54
3.31633	54
3.32000	54
3.32367	54
3.32733	54
3.33100	54
3.33467	54
3.33833	54
3.34200	54
3.34567	54
3.34933	55
3.35300	54
3.35667	54
3.36033	54
3.36400	54
3.36767	54
3.37133	54
3.37500	54
3.37867	54
3.38233	53
3.38600	53
3.38967	53
3.39333	53
3.39700	53
3.40067	53
3.40433	53
3.40800	53
3.41167	53
3.41533	53
3.41900	54
3.42267	54
3.42633	54
3.43000	54
3.43367	54
3.43733	54
3.44100	54
3.44467	54
3.44833	54
3.45200	54
3.45567	54
3.45933	54
3.46300	54
3.46667	54
3.47033	54
3.47400	54
3.47767	54
3.48133	54
3.48500	54
3.48867	54
3.49233	53
3.49600	54
3.49967	54
3.50333	54
3.50700	54
3.51067	54
3.51433	54
3.51800	54
3.52167	53
3.52533	53
3.52900	53
3.53267	53
3.53633	53
3.54000	53
3.54367	53
3.54733	53
3.55100	53
3.55467	53
3.55833	52
3.56200	52
3.56567	53
3.56933	53
3.57300	53
3.57667	53
3.58033	53
3.58400	53
3.58767	53
3.59133	53
3.59500	53
3.59867	53
3.60233	53
3.60600	54
3.60967	54
3.61333	54
3.61700	54
3.62067	54
3.62433	54
3.62800	54
3.63167	54
3.63533	54
3.63900	54
3.64267	54
3.64633	54
3.65000	54
3.65367	54
3.65733	54
3.66100	54
3.66467	54
3.66833	54
3.67200	54
3.67567	54
3.67933	54
3.68300	54
3.68667	54
3.69033	54
3.69400	54
3.69767	54
3.70133	53
3.70500	53
3.70867	53
3.71233	53
3.71600	53
3.71967	53
3.72333	53
3.72700	53
3.73067	53
3.73433	54
3.73800	54
3.74167	54
3.74533	55
3.74900	55
3.75267	56
3.75633	56
3.76000	57
3.76367	57
3.76733	57
3.77100	57
3.77467	57
3.77833	57
3.78200	57
3.78567	58
3.78933	58
3.79300	58
3.79667	57
3.80033	58
3.80400	58
3.80767	58
3.81133	58
3.81500	58
3.81867	58
3.82233	58
3.82600	58
3.82967	58
3.83333	58
3.83700	58
3.84067	58
3.84433	58
3.84800	57
3.85167	57
3.85533	57
3.85900	57
3.86267	57
3.86633	57
3.87000	57
3.87367	57
3.87733	57
3.88100	57
3.88467	57
3.88833	57
3.89200	57
3.89567	57
3.89933	57
3.90300	57
3.90667	57
3.91033	57
3.91400	57
3.91767	57
3.92133	57
3.92500	57
3.92867	57
3.93233	56
3.93600	56
3.93967	56
3.94333	57
3.94700	57
3.95067	57
3.95433	57
3.95800	57
3.96167	57
3.96533	57
3.96900	57
3.97267	57
3.97633	58
3.98000	58
3.98367	58
3.98733	58
3.99100	58
3.99467	57
3.99833	57

[Chromatogram (Ch3)]
Interval(msec)	220
# of Points	1091
Start Time(min)	0.002
End Time(min)	3.998
R.Time (min)	Intensity
0.00167	1
0.00533	2
0.00900	2
0.01267	2
0.01633	1
0.02000	1
0.02367	1
0.02733	2
0.03100	1
0.03467	-0
0.03833	-0
0.04200	-1
0.04567	0
0.04933	2
0.05300	2
0.05667	3
0.06033	4
0.06400	0
0.06767	-0
0.07133	-0
0.07500	-1
0.07867	0
0.08233	0
0.08600	0
0.08967	1
0.09333	-0
0.09700	-2
0.10067	-1
0.10433	0
0.10800	1
0.11167	3
0.11533	3
0.11900	1
0.12267	0
0.12633	2
0.13000	3
0.13367	2
0.13733	2
0.14100	3
0.14467	3
0.14833	4
0.15200	1
0.15567	1
0.15933	2
0.16300	2
0.16667	1
0.17033	2
0.17400	4
0.17767	4
0.18133	6
0.18500	6
0.18867	8
0.19233	10
0.19600	10
0.19967	10
0.20333	10
0.20700	11
0.21067	11
0.21433	9
0.21800	7
0.22167	5
0.22533	4
0.22900	6
0.23267	7
0.23633	8
0.24000	8
0.24367	7
0.24733	6
0.25100	6
0.25467	7
0.25833	9
0.26200	10
0.26567	12
0.26933	14
0.27300	13
0.27667	9
0.28033	6
0.28400	5
0.28767	6
0.29133	7
0.29500	7
0.29867	8
0.30233	9
0.30600	10
0.30967	9
0.31333	7
0.31700	7
0.32067	5
0.32433	3
0.32800	3
0.33167	1
0.33533	3
0.33900	6
0.34267	7
0.34633	7
0.35000	7
0.35367	6
0.35733	7
0.36100	6
0.36467	5
0.36833	6
0.37200	10
0.37567	13
0.37933	13
0.38300	13
0.38667	14
0.39033	14
0.39400	11
0.39767	7
0.40133	7
0.40500	6
0.40867	7
0.41233	7
0.41600	6
0.41967	6
0.42333	8
0.42700	10
0.43067	11
0.43433	11
0.43800	13
0.44167	13
0.44533	11
0.44900	9
0.45267	10
0.45633	11
0.46000	12
0.46367	12
0.46733	13
0.47100	13
0.47467	11
0.47833	9
0.48200	8
0.48567	8
0.48933	7
0.49300	8
0.49667	9
0.50033	9
0.50400	9
0.50767	9
0.51133	8
0.51500	8
0.51867	11
0.52233	15
0.52600	14
0.52967	12
0.53333	11
0.53700	10
0.54067	9
0.54433	8
0.54800	9
0.55167	9
0.55533	8
0.55900	7
0.56267	9
0.56633	10
0.57000	10
0.57367	10
0.57733	9
0.58100	7
0.58467	9
0.58833	12
0.59200	15
0.59567	18
0.59933	19
0.60300	17
0.60667	13
0.61033	12
0.61400	14
0.61767	16
0.62133	15
0.62500	14
0.62867	13
0.63233	13
0.63600	11
0.63967	8
0.64333	9
0.64700	13
0.65067	17
0.65433	17
0.65800	18
0.66167	19
0.66533	17
0.66900	17
0.67267	16
0.67633	12
0.68000	9
0.68367	9
0.68733	10
0.69100	13
0.69467	15
0.69833	17
0.70200	18
0.70567	16
0.70933	16
0.71300	18
0.71667	17
0.72033	15
0.72400	14
0.72767	15
0.73133	14
0.73500	16
0.73867	16
0.74233	13
0.74600	12
0.74967	11
0.75333	13
0.75700	13
0.76067	13
0.76433	14
0.76800	16
0.77167	18
0.77533	17
0.77900	16
0.78267	15
0.78633	16
0.79000	15
0.79367	14
0.79733	13
0.80100	12
0.80467	13
0.80833	15
0.81200	17
0.81567	20
0.81933	23
0.82300	24
0.82667	23
0.83033	19
0.83400	16
0.83767	14
0.84133	15
0.84500	15
0.84867	13
0.85233	14
0.85600	16
0.85967	15
0.86333	14
0.86700	14
0.87067	13
0.87433	14
0.87800	13
0.88167	14
0.88533	16
0.88900	17
0.89267	16
0.89633	15
0.90000	12
0.90367	10
0.90733	11
0.91100	10
0.91467	9
0.91833	10
0.92200	11
0.92567	11
0.92933	12
0.93300	14
0.93667	12
0.94033	11
0.94400	12
0.94767	12
0.95133	14
0.95500	14
0.95867	13
0.96233	14
0.96600	15
0.96967	15
0.97333	16
0.97700	18
0.98067	19
0.98433	19
0.98800	17
0.99167	16
0.99533	14
0.99900	11
1.00267	9
1.00633	9
1.01000	11
1.01367	14
1.01733	14
1.02100	13
1.02467	11
1.02833	10
1.03200	11
1.03567	14
1.03933	15
1.04300	15
1.04667	14
1.05033	12
1.05400	12
1.05767	13
1.06133	13
1.06500	10
1.06867	10
1.07233	11
1.07600	13
1.07967	14
1.08333	17
1.08700	18
1.09067	19
1.09433	20
1.09800	18
1.10167	15
1.10533	12
1.10900	10
1.11267	13
1.11633	15
1.12000	16
1.12367	17
1.12733	17
1.13100	18
1.13467	19
1.13833	21
1.14200	20
1.14567	18
1.14933	16
1.15300	16
1.15667	17
1.16033	16
1.16400	14
1.16767	11
1.17133	9
1.17500	9
1.17867	12
1.18233	14
1.18600	16
1.18967	18
1.19333	20
1.19700	19
1.20067	17
1.20433	16
1.20800	15
1.21167	15
1.21533	16
1.21900	18
1.22267	20
1.22633	19
1.23000	20
1.23367	20
1.23733	21
1.24100	21
1.24467	21
1.24833	20
1.25200	21
1.25567	22
1.25933	22
1.26300	22
1.26667	23
1.27033	25
1.27400	26
1.27767	25
1.28133	23
1.28500	22
1.28867	21
1.29233	19
1.29600	18
1.29967	20
1.30333	20
1.30700	17
1.31067	16
1.31433	18
1.31800	21
1.32167	21
1.32533	19
1.32900	18
1.33267	18
1.33633	19
1.34000	18
1.34367	17
1.34733	18
1.35100	19
1.35467	19
1.35833	20
1.36200	21
1.36567	21
1.36933	19
1.37300	19
1.37667	19
1.38033	19
1.38400	23
1.38767	25
1.39133	23
1.39500	20
1.39867	19
1.40233	18
1.40600	19
1.40967	20
1.41333	21
1.41700	22
1.42067	21
1.42433	21
1.42800	20
1.43167	19
1.43533	21
1.43900	21
1.44267	19
1.44633	19
1.45000	21
1.45367	22
1.45733	23
1.46100	24
1.46467	23
1.46833	23
1.47200	24
1.47567	22
1.47933	21
1.48300	21
1.48667	20
1.49033	18
1.49400	20
1.49767	20
1.50133	21
1.50500	21
1.50867	21
1.51233	18
1.51600	17
1.51967	17
1.52333	18
1.52700	20
1.53067	21
1.53433	23
1.53800	23
1.54167	24
1.54533	25
1.54900	24
1.55267	24
1.55633	23
1.56000	22
1.56367	23
1.56733	23
1.57100	24
1.57467	24
1.57833	23
1.58200	23
1.58567	23
1.58933	23
1.59300	26
1.59667	28
1.60033	25
1.60400	25
1.60767	25
1.61133	24
1.61500	24
1.61867	25
1.62233	26
1.62600	27
1.62967	27
1.63333	26
1.63700	25
1.64067	26
1.64433	28
1.64800	29
1.65167	31
1.65533	33
1.65900	34
1.66267	35
1.66633	37
1.67000	38
1.67367	42
1.67733	47
1.68100	50
1.68467	46
1.68833	43
1.69200	43
1.69567	45
1.69933	47
1.70300	47
1.70667	46
1.71033	49
1.71400	53
1.71767	55
1.72133	56
1.72500	55
1.72867	56
1.73233	57
1.73600	59
1.73967	62
1.74333	64
1.74700	63
1.75067	61
1.75433	63
1.75800	65
1.76167	67
1.76533	69
1.76900	70
1.77267	70
1.77633	70
1.78000	72
1.78367	73
1.78733	74
1.79100	77
1.79467	79
1.79833	79
1.80200	81
1.80567	84
1.80933	85
1.81300	84
1.81667	83
1.82033	86
1.82400	87
1.82767	88
1.83133	90
1.83500	93
1.83867	96
1.84233	101
1.84600	104
1.84967	106
1.85333	106
1.85700	105
1.86067	105
1.86433	106
1.86800	104
1.87167	104
1.87533	106
1.87900	109
1.88267	111
1.88633	115
1.89000	119
1.89367	121
1.89733	124
1.90100	128
1.90467	133
1.90833	137
1.91200	138
1.91567	137
1.91933	136
1.92300	135
1.92667	138
1.93033	142
1.93400	146
1.93767	149
1.94133	152
1.94500	156
1.94867	158
1.95233	158
1.95600	160
1.95967	164
1.96333	168
1.96700	173
1.97067	179
1.97433	180
1.97800	180
1.98167	179
1.98533	179
1.98900	181
1.99267	186
1.99633	190
2.00000	193
2.00367	194
2.00733	193
2.01100	194
2.01467	195
2.01833	198
2.02200	204
2.02567	206
2.02933	209
2.03300	212
2.03667	215
2.04033	216
2.04400	218
2.04767	221
2.05133	225
2.05500	228
2.05867	232
2.06233	236
2.06600	240
2.06967	244
2.07333	247
2.07700	249
2.08067	250
2.08433	252
2.08800	255
2.09167	256
2.09533	258
2.09900	262
2.10267	266
2.10633	271
2.11000	274
2.11367	274
2.11733	274
2.12100	276
2.12467	277
2.12833	279
2.13200	281
2.13567	284
2.13933	289
2.14300	292
2.14667	295
2.15033	299
2.15400	301
2.15767	305
2.16133	311
2.16500	315
2.16867	320
2.17233	322
2.17600	323
2.17967	322
2.18333	325
2.18700	330
2.19067	335
2.19433	337
2.19800	340
2.20167	341
2.20533	343
2.20900	347
2.21267	350
2.21633	353
2.22000	355
2.22367	357
2.22733	360
2.23100	362
2.23467	366
2.23833	369
2.24200	372
2.24567	376
2.24933	379
2.25300	380
2.25667	382
2.26033	385
2.26400	390
2.26767	394
2.27133	398
2.27500	403
2.27867	407
2.28233	410
2.28600	411
2.28967	412
2.29333	413
2.29700	415
2.30067	418
2.30433	423
2.30800	428
2.31167	431
2.31533	433
2.31900	434
2.32267	437
2.32633	440
2.33000	442
2.33367	443
2.33733	446
2.34100	446
2.34467	448
2.34833	448
2.35200	447
2.35567	447
2.35933	452
2.36300	459
2.36667	466
2.37033	469
2.37400	468
2.37767	467
2.38133	468
2.38500	467
2.38867	470
2.39233	472
2.39600	472
2.39967	470
2.40333	469
2.40700	470
2.41067	471
2.41433	473
2.41800	474
2.42167	474
2.42533	477
2.42900	479
2.43267	480
2.43633	480
2.44000	480
2.44367	481
2.44733	481
2.45100	478
2.45467	472
2.45833	464
2.46200	452
2.46567	437
2.46933	421
2.47300	405
2.47667	389
2.48033	370
2.48400	351
2.48767	334
2.49133	312
2.49500	287
2.49867	260
2.50233	237
2.50600	215
2.50967	195
2.51333	175
2.51700	160
2.52067	144
2.52433	131
2.52800	120
2.53167	113
2.53533	107
2.53900	99
2.54267	91
2.54633	82
2.55000	75
2.55367	68
2.55733	63
2.56100	60
2.56467	55
2.56833	49
2.57200	42
2.57567	36
2.57933	31
2.58300	27
2.58667	24
2.59033	22
2.59400	19
2.59767	15
2.60133	6
2.60500	-6
2.60867	-23
2.61233	-46
2.61600	-78
2.61967	-118
2.62333	-155
2.62700	-192
2.63067	-226
2.63433	-260
2.63800	-291
2.64167	-315
2.64533	-332
2.64900	-343
2.65267	-348
2.65633	-346
2.66000	-342
2.66367	-336
2.66733	-328
2.67100	-319
2.67467	-309
2.67833	-297
2.68200	-285
2.68567	-274
2.68933	-263
2.69300	-253
2.69667	-245
2.70033	-234
2.70400	-221
2.70767	-209
2.71133	-199
2.71500	-191
2.71867	-184
2.72233	-177
2.72600	-169
2.72967	-162
2.73333	-155
2.73700	-150
2.74067	-145
2.74433	-140
2.74800	-137
2.75167	-135
2.75533	-134
2.75900	-133
2.76267	-131
2.76633	-129
2.77000	-128
2.77367	-127
2.77733	-127
2.78100	-125
2.78467	-126
2.78833	-129
2.79200	-134
2.79567	-138
2.79933	-142
2.80300	-147
2.80667	-153
2.81033	-159
2.81400	-166
2.81767	-170
2.82133	-173
2.82500	-171
2.82867	-156
2.83233	-111
2.83600	-5
2.83967	214
2.84333	611
2.84700	1244
2.85067	2158
2.85433	3363
2.85800	4833
2.86167	6500
2.86533	8251
2.86900	9968
2.87267	11514
2.87633	12773
2.88000	13657
2.88367	14124
2.88733	14190
2.89100	13895
2.89467	13305
2.89833	12503
2.90200	11565
2.90567	10553
2.90933	9525
2.91300	8520
2.91667	7563
2.92033	6671
2.92400	5847
2.92767	5096
2.93133	4420
2.93500	3819
2.93867	3290
2.94233	2824
2.94600	2412
2.94967	2050
2.95333	1733
2.95700	1456
2.96067	1217
2.96433	1007
2.96800	822
2.97167	663
2.97533	528
2.97900	412
2.98267	312
2.98633	226
2.99000	150
2.99367	83
2.99733	27
3.00100	-23
3.00467	-66
3.00833	-103
3.01200	-138
3.01567	-167
3.01933	-190
3.02300	-208
3.02667	-227
3.03033	-242
3.03400	-254
3.03767	-267
3.04133	-278
3.04500	-286
3.04867	-290
3.05233	-292
3.05600	-298
3.05967	-303
3.06333	-306
3.06700	-308
3.07067	-309
3.07433	-311
3.07800	-315
3.08167	-318
3.08533	-319
3.08900	-320
3.09267	-321
3.09633	-322
3.10000	-325
3.10367	-327
3.10733	-326
3.11100	-325
3.11467	-324
3.11833	-323
3.12200	-323
3.12567	-324
3.12933	-325
3.13300	-326
3.13667	-325
3.14033	-324
3.14400	-324
3.14767	-325
3.15133	-326
3.15500	-326
3.15867	-326
3.16233	-324
3.16600	-323
3.16967	-325
3.17333	-326
3.17700	-327
3.18067	-328
3.18433	-327
3.18800	-327
3.19167	-324
3.19533	-323
3.19900	-323
3.20267	-323
3.20633	-322
3.21000	-320
3.21367	-318
3.21733	-317
3.22100	-316
3.22467	-314
3.22833	-311
3.23200	-311
3.23567	-312
3.23933	-311
3.24300	-312
3.24667	-312
3.25033	-314
3.25400	-313
3.25767	-312
3.26133	-312
3.26500	-309
3.26867	-308
3.27233	-309
3.27600	-313
3.27967	-336
3.28333	-370
3.28700	-390
3.29067	-381
3.29433	-348
3.29800	-302
3.30167	-252
3.30533	-203
3.30900	-154
3.31267	-106
3.31633	-61
3.32000	-20
3.32367	17
3.32733	51
3.33100	82
3.33467	110
3.33833	136
3.34200	163
3.34567	187
3.34933	205
3.35300	222
3.35667	240
3.36033	257
3.36400	273
3.36767	287
3.37133	298
3.37500	308
3.37867	317
3.38233	323
3.38600	326
3.38967	329
3.39333	333
3.39700	339
3.40067	342
3.40433	344
3.40800	346
3.41167	345
3.41533	345
3.41900	346
3.42267	346
3.42633	346
3.43000	345
3.43367	341
3.43733	340
3.44100	338
3.44467	334
3.44833	333
3.45200	333
3.45567	333
3.45933	329
3.46300	325
3.46667	322
3.47033	320
3.47400	321
3.47767	320
3.48133	319
3.48500	317
3.48867	312
3.49233	310
3.49600	308
3.49967	305
3.50333	303
3.50700	300
3.51067	296
3.51433	291
3.51800	290
3.52167	290
3.52533	286
3.52900	283
3.53267	281
3.53633	276
3.54000	271
3.54367	268
3.54733	264
3.55100	258
3.55467	255
3.55833	252
3.56200	249
3.56567	247
3.56933	245
3.57300	241
3.57667	237
3.58033	233
3.58400	227
3.58767	221
3.59133	219
3.59500	219
3.59867	218
3.60233	216
3.60600	212
3.60967	209
3.61333	209
3.61700	207
3.62067	207
3.62433	205
3.62800	201
3.63167	200
3.63533	199
3.63900	195
3.64267	190
3.64633	186
3.65000	185
3.65367	184
3.65733	182
3.66100	179
3.66467	177
3.66833	176
3.67200	175
3.67567	174
3.67933	171
3.68300	169
3.68667	168
3.69033	167
3.69400	162
3.69767	159
3.70133	158
3.70500	157
3.70867	155
3.71233	154
3.71600	154
3.71967	154
3.72333	151
3.72700	146
3.73067	143
3.73433	141
3.73800	138
3.74167	138
3.74533	139
3.74900	140
3.75267	140
3.75633	138
3.76000	135
3.76367	133
3.76733	133
3.77100	132
3.77467	129
3.77833	125
3.78200	121
3.78567	120
3.78933	118
3.79300	116
3.79667	114
3.80033	113
3.80400	112
3.80767	110
3.81133	111
3.81500	110
3.81867	106
3.82233	103
3.82600	98
3.82967	96
3.83333	96
3.83700	95
3.84067	93
3.84433	93
3.84800	89
3.85167	85
3.85533	83
3.85900	80
3.86267	79
3.86633	79
3.87000	78
3.87367	77
3.87733	77
3.88100	75
3.88467	74
3.88833	74
3.89200	75
3.89567	72
3.89933	68
3.90300	64
3.90667	62
3.91033	62
3.91400	61
3.91767	61
3.92133	61
3.92500	58
3.92867	54
3.93233	53
3.93600	51
3.93967	51
3.94333	50
3.94700	50
3.95067	50
3.95433	52
3.95800	52
3.96167	51
3.96533	52
3.96900	52
3.97267	51
3.97633	49
3.98000	47
3.98367	46
3.98733	44
3.99100	41
3.99467	38
3.99833	37

[Status Trace (Column Oven Temperature)]
Interval(msec)	1000
# of Points	240
Start Time(min)	0.012
End Time(min)	3.995
Intensity Units	
Intensity Multiplier	1
R.Time (min)	Intensity
0.01175	35.06
0.02842	35.06
0.04508	35.05
0.06175	35.06
0.07842	35.04
0.09508	35.05
0.11175	35.04
0.12842	35.03
0.14508	35.04
0.16175	35.03
0.17842	35.02
0.19508	35.01
0.21175	35.01
0.22842	35.01
0.24508	35.00
0.26175	34.99
0.27842	34.98
0.29508	34.98
0.31175	34.98
0.32842	34.99
0.34508	34.99
0.36175	34.98
0.37842	34.97
0.39508	34.97
0.41175	34.96
0.42842	34.96
0.44508	34.96
0.46175	34.96
0.47842	34.97
0.49508	34.96
0.51175	34.97
0.52842	34.96
0.54508	34.97
0.56175	34.99
0.57842	35.00
0.59508	35.01
0.61175	35.01
0.62842	35.02
0.64508	35.02
0.66175	35.02
0.67842	35.03
0.69508	35.03
0.71175	35.02
0.72842	35.03
0.74508	35.03
0.76175	35.02
0.77842	35.01
0.79508	35.00
0.81175	34.98
0.82842	34.97
0.84508	34.96
0.86175	34.95
0.87842	34.95
0.89508	34.95
0.91175	34.96
0.92842	34.96
0.94508	34.97
0.96175	34.97
0.97842	34.97
0.99508	34.98
1.01175	34.98
1.02842	34.98
1.04508	34.98
1.06175	34.98
1.07842	34.98
1.09508	34.97
1.11175	34.96
1.12842	34.97
1.14508	34.97
1.16175	34.97
1.17842	34.97
1.19508	34.98
1.21175	34.98
1.22842	34.98
1.24508	34.98
1.26175	34.98
1.27842	34.97
1.29508	34.97
1.31175	34.97
1.32842	34.97
1.34508	34.98
1.36175	34.98
1.37842	34.98
1.39508	34.97
1.41175	34.97
1.42842	34.98
1.44508	34.98
1.46175	34.97
1.47842	34.98
1.49508	34.97
1.51175	34.98
1.52842	34.97
1.54508	34.97
1.56175	34.98
1.57842	34.99
1.59508	35.01
1.61175	35.10
1.62842	35.24
1.64508	35.43
1.66175	35.70
1.67842	36.06
1.69508	36.43
1.71175	36.77
1.72842	37.09
1.74508	37.43
1.76175	37.76
1.77842	38.10
1.79508	38.43
1.81175	38.76
1.82842	39.09
1.84508	39.42
1.86175	39.75
1.87842	40.09
1.89508	40.42
1.91175	40.75
1.92842	41.07
1.94508	41.40
1.96175	41.74
1.97842	42.07
1.99508	42.38
2.01175	42.69
2.02842	43.00
2.04508	43.34
2.06175	43.65
2.07842	43.98
2.09508	44.31
2.11175	44.62
2.12842	44.95
2.14508	45.29
2.16175	45.61
2.17842	45.96
2.19508	46.28
2.21175	46.61
2.22842	46.92
2.24508	47.25
2.26175	47.58
2.27842	47.90
2.29508	48.27
2.31175	48.59
2.32842	48.92
2.34508	49.22
2.36175	49.51
2.37842	49.67
2.39508	49.72
2.41175	49.70
2.42842	49.72
2.44508	49.72
2.46175	49.75
2.47842	49.75
2.49508	49.77
2.51175	49.78
2.52842	49.79
2.54508	49.79
2.56175	49.81
2.57842	49.83
2.59508	49.83
2.61175	49.83
2.62842	49.84
2.64508	49.85
2.66175	49.85
2.67842	49.85
2.69508	49.85
2.71175	49.87
2.72842	49.89
2.74508	49.89
2.76175	49.88
2.77842	49.88
2.79508	49.89
2.81175	49.89
2.82842	49.90
2.84508	49.90
2.86175	49.91
2.87842	49.93
2.89508	49.94
2.91175	49.96
2.92842	49.97
2.94508	49.98
2.96175	50.00
2.97842	50.00
2.99508	50.02
3.01175	50.03
3.02842	50.04
3.04508	50.05
3.06175	50.06
3.07842	50.07
3.09508	50.08
3.11175	50.09
3.12842	50.09
3.14508	50.11
3.16175	50.11
3.17842	50.10
3.19508	50.09
3.21175	50.09
3.22842	50.08
3.24508	50.07
3.26175	50.06
3.27842	50.06
3.29508	50.05
3.31175	50.04
3.32842	50.05
3.34508	50.04
3.36175	50.05
3.37842	50.05
3.39508	50.05
3.41175	50.06
3.42842	50.06
3.44508	50.06
3.46175	50.06
3.47842	50.07
3.49508	50.07
3.51175	50.07
3.52842	50.07
3.54508	50.07
3.56175	50.07
3.57842	50.07
3.59508	50.08
3.61175	50.08
3.62842	50.08
3.64508	50.08
3.66175	50.09
3.67842	50.09
3.69508	50.10
3.71175	50.10
3.72842	50.11
3.74508	50.09
3.76175	50.08
3.77842	50.07
3.79508	50.06
3.81175	50.05
3.82842	50.04
3.84508	50.03
3.86175	50.03
3.87842	50.02
3.89508	50.03
3.91175	50.02
3.92842	50.02
3.94508	50.02
3.96175	50.01
3.97842	50.01
3.99508	50.00

[Status Trace (Injection Unit Temperature)]
Interval(msec)	1000
# of Points	240
Start Time(min)	0.012
End Time(min)	3.995
Intensity Units	
Intensity Multiplier	1
R.Time (min)	Intensity
0.01175	99.98
0.02842	99.98
0.04508	99.98
0.06175	99.98
0.07842	99.98
0.09508	99.98
0.11175	99.98
0.12842	99.98
0.14508	99.98
0.16175	99.98
0.17842	99.98
0.19508	99.98
0.21175	99.98
0.22842	99.98
0.24508	99.98
0.26175	99.98
0.27842	99.98
0.29508	99.98
0.31175	99.98
0.32842	99.98
0.34508	99.97
0.36175	99.98
0.37842	99.98
0.39508	99.98
0.41175	99.98
0.42842	99.98
0.44508	99.98
0.46175	99.98
0.47842	99.98
0.49508	99.98
0.51175	99.98
0.52842	99.98
0.54508	99.98
0.56175	99.98
0.57842	99.98
0.59508	99.98
0.61175	99.98
0.62842	99.98
0.64508	99.98
0.66175	99.98
0.67842	99.98
0.69508	99.98
0.71175	99.98
0.72842	99.98
0.74508	99.98
0.76175	99.98
0.77842	99.98
0.79508	99.98
0.81175	99.98
0.82842	99.98
0.84508	99.99
0.86175	99.98
0.87842	99.99
0.89508	99.98
0.91175	99.98
0.92842	99.99
0.94508	99.98
0.96175	99.98
0.97842	99.98
0.99508	99.98
1.01175	99.98
1.02842	99.98
1.04508	99.98
1.06175	99.98
1.07842	99.98
1.09508	99.98
1.11175	99.98
1.12842	99.98
1.14508	99.98
1.16175	99.98
1.17842	99.99
1.19508	99.98
1.21175	99.98
1.22842	99.99
1.24508	99.98
1.26175	99.99
1.27842	99.99
1.29508	99.98
1.31175	99.99
1.32842	99.98
1.34508	99.98
1.36175	99.98
1.37842	99.99
1.39508	99.99
1.41175	99.98
1.42842	99.98
1.44508	99.98
1.46175	99.98
1.47842	99.98
1.49508	99.99
1.51175	99.98
1.52842	99.99
1.54508	99.98
1.56175	99.99
1.57842	99.99
1.59508	99.99
1.61175	99.99
1.62842	99.99
1.64508	99.99
1.66175	99.98
1.67842	99.98
1.69508	99.99
1.71175	99.99
1.72842	99.99
1.74508	99.99
1.76175	99.99
1.77842	99.98
1.79508	99.99
1.81175	99.99
1.82842	99.99
1.84508	99.98
1.86175	99.99
1.87842	99.99
1.89508	99.98
1.91175	99.98
1.92842	99.98
1.94508	99.98
1.96175	99.98
1.97842	99.98
1.99508	99.98
2.01175	99.98
2.02842	99.97
2.04508	99.98
2.06175	99.98
2.07842	99.97
2.09508	99.97
2.11175	99.97
2.12842	99.97
2.14508	99.97
2.16175	99.97
2.17842	99.97
2.19508	99.96
2.21175	99.97
2.22842	99.97
2.24508	99.96
2.26175	99.96
2.27842	99.97
2.29508	99.96
2.31175	99.97
2.32842	99.96
2.34508	99.96
2.36175	99.96
2.37842	99.96
2.39508	99.96
2.41175	99.96
2.42842	99.97
2.44508	99.97
2.46175	99.97
2.47842	99.96
2.49508	99.96
2.51175	99.97
2.52842	99.96
2.54508	99.97
2.56175	99.97
2.57842	99.97
2.59508	99.97
2.61175	99.97
2.62842	99.98
2.64508	99.97
2.66175	99.97
2.67842	99.97
2.69508	99.98
2.71175	99.98
2.72842	99.98
2.74508	99.98
2.76175	99.98
2.77842	99.98
2.79508	99.98
2.81175	99.99
2.82842	99.99
2.84508	99.99
2.86175	100.00
2.87842	99.99
2.89508	100.00
2.91175	100.00
2.92842	100.00
2.94508	100.00
2.96175	100.00
2.97842	100.00
2.99508	100.00
3.01175	100.00
3.02842	100.01
3.04508	100.00
3.06175	100.00
3.07842	100.01
3.09508	100.01
3.11175	100.01
3.12842	100.01
3.14508	100.01
3.16175	100.02
3.17842	100.01
3.19508	100.02
3.21175	100.02
3.22842	100.02
3.24508	100.01
3.26175	100.01
3.27842	100.02
3.29508	100.02
3.31175	100.03
3.32842	100.03
3.34508	100.02
3.36175	100.02
3.37842	100.03
3.39508	100.03
3.41175	100.03
3.42842	100.03
3.44508	100.03
3.46175	100.03
3.47842	100.03
3.49508	100.03
3.51175	100.03
3.52842	100.03
3.54508	100.03
3.56175	100.03
3.57842	100.03
3.59508	100.03
3.61175	100.03
3.62842	100.04
3.64508	100.03
3.66175	100.04
3.67842	100.04
3.69508	100.04
3.71175	100.04
3.72842	100.04
3.74508	100.04
3.76175	100.04
3.77842	100.04
3.79508	100.04
3.81175	100.04
3.82842	100.04
3.84508	100.04
3.86175	100.04
3.87842	100.04
3.89508	100.04
3.91175	100.04
3.92842	100.04
3.94508	100.04
3.96175	100.04
3.97842	100.04
3.99508	100.04

[Status Trace (Carrier Gas Pressure)]
Interval(msec)	1000
# of Points	240
Start Time(min)	0.012
End Time(min)	3.995
Intensity Units	
Intensity Multiplier	1
R.Time (min)	Intensity
0.01175	58.00
0.02842	54.95
0.04508	57.53
0.06175	59.61
0.07842	58.99
0.09508	58.00
0.11175	57.99
0.12842	58.01
0.14508	58.01
0.16175	58.01
0.17842	58.00
0.19508	58.00
0.21175	58.00
0.22842	58.00
0.24508	58.00
0.26175	58.00
0.27842	58.00
0.29508	58.00
0.31175	58.00
0.32842	58.00
0.34508	58.00
0.36175	58.00
0.37842	58.00
0.39508	58.00
0.41175	58.00
0.42842	58.00
0.44508	58.00
0.46175	58.00
0.47842	58.00
0.49508	58.00
0.51175	58.00
0.52842	58.00
0.54508	58.00
0.56175	58.00
0.57842	58.00
0.59508	58.00
0.61175	58.00
0.62842	58.00
0.64508	58.00
0.66175	58.00
0.67842	58.00
0.69508	58.00
0.71175	58.00
0.72842	58.00
0.74508	58.00
0.76175	58.00
0.77842	58.00
0.79508	58.00
0.81175	58.00
0.82842	58.00
0.84508	58.00
0.86175	58.00
0.87842	58.00
0.89508	58.00
0.91175	58.00
0.92842	58.00
0.94508	58.00
0.96175	58.00
0.97842	58.00
0.99508	58.00
1.01175	58.00
1.02842	58.00
1.04508	58.00
1.06175	58.00
1.07842	58.00
1.09508	58.00
1.11175	58.00
1.12842	58.00
1.14508	58.00
1.16175	58.00
1.17842	58.00
1.19508	58.00
1.21175	58.00
1.22842	58.00
1.24508	58.00
1.26175	58.00
1.27842	58.00
1.29508	58.00
1.31175	58.00
1.32842	58.00
1.34508	58.00
1.36175	58.00
1.37842	58.00
1.39508	58.00
1.41175	58.00
1.42842	58.00
1.44508	58.00
1.46175	58.00
1.47842	58.00
1.49508	58.00
1.51175	58.00
1.52842	58.00
1.54508	58.00
1.56175	58.00
1.57842	58.00
1.59508	58.00
1.61175	58.00
1.62842	58.00
1.64508	58.00
1.66175	58.00
1.67842	58.01
1.69508	58.00
1.71175	58.00
1.72842	58.00
1.74508	58.00
1.76175	58.00
1.77842	58.00
1.79508	58.00
1.81175	58.00
1.82842	58.00
1.84508	58.00
1.86175	58.00
1.87842	58.00
1.89508	58.00
1.91175	58.00
1.92842	58.00
1.94508	58.00
1.96175	58.00
1.97842	58.00
1.99508	58.00
2.01175	58.00
2.02842	58.00
2.04508	58.00
2.06175	58.00
2.07842	58.00
2.09508	58.00
2.11175	58.00
2.12842	58.00
2.14508	58.00
2.16175	58.00
2.17842	58.00
2.19508	58.00
2.21175	58.00
2.22842	58.00
2.24508	58.00
2.26175	58.00
2.27842	58.00
2.29508	58.00
2.31175	58.00
2.32842	58.00
2.34508	58.00
2.36175	58.00
2.37842	58.00
2.39508	57.99
2.41175	57.99
2.42842	58.00
2.44508	58.00
2.46175	58.00
2.47842	58.00
2.49508	58.00
2.51175	57.99
2.52842	57.98
2.54508	58.00
2.56175	58.00
2.57842	58.00
2.59508	58.00
2.61175	58.00
2.62842	58.00
2.64508	58.00
2.66175	58.00
2.67842	58.00
2.69508	58.00
2.71175	58.00
2.72842	58.00
2.74508	58.00
2.76175	58.00
2.77842	58.00
2.79508	58.00
2.81175	58.00
2.82842	58.00
2.84508	58.00
2.86175	58.00
2.87842	58.00
2.89508	58.00
2.91175	58.00
2.92842	58.00
2.94508	58.00
2.96175	58.00
2.97842	58.00
2.99508	58.00
3.01175	58.00
3.02842	58.00
3.04508	58.00
3.06175	58.00
3.07842	58.00
3.09508	58.00
3.11175	58.00
3.12842	58.00
3.14508	58.00
3.16175	58.00
3.17842	58.00
3.19508	58.00
3.21175	58.00
3.22842	58.00
3.24508	58.00
3.26175	58.00
3.27842	58.00
3.29508	58.00
3.31175	58.00
3.32842	58.00
3.34508	58.00
3.36175	58.00
3.37842	58.00
3.39508	58.00
3.41175	58.00
3.42842	58.00
3.44508	58.00
3.46175	58.00
3.47842	58.00
3.49508	58.00
3.51175	58.00
3.52842	58.00
3.54508	58.00
3.56175	58.00
3.57842	58.00
3.59508	58.00
3.61175	58.00
3.62842	58.00
3.64508	58.00
3.66175	58.00
3.67842	58.00
3.69508	58.00
3.71175	58.00
3.72842	58.00
3.74508	58.00
3.76175	58.00
3.77842	58.00
3.79508	58.00
3.81175	58.00
3.82842	58.00
3.84508	58.00
3.86175	58.00
3.87842	58.00
3.89508	58.00
3.91175	58.00
3.92842	58.00
3.94508	58.00
3.96175	58.00
3.97842	58.00
3.99508	58.00

[Status Trace (Carrier Gas Flow)]
Interval(msec)	1000
# of Points	240
Start Time(min)	0.012
End Time(min)	3.995
Intensity Units	
Intensity Multiplier	1
R.Time (min)	Intensity
0.01175	34.52
0.02842	34.54
0.04508	34.54
0.06175	34.54
0.07842	34.49
0.09508	34.52
0.11175	34.52
0.12842	34.52
0.14508	34.52
0.16175	34.52
0.17842	34.52
0.19508	34.52
0.21175	34.52
0.22842	34.52
0.24508	34.52
0.26175	34.52
0.27842	34.52
0.29508	34.52
0.31175	34.52
0.32842	34.51
0.34508	34.52
0.36175	34.52
0.37842	34.52
0.39508	34.52
0.41175	34.52
0.42842	34.52
0.44508	34.52
0.46175	34.52
0.47842	34.52
0.49508	34.52
0.51175	34.52
0.52842	34.52
0.54508	34.52
0.56175	34.52
0.57842	34.52
0.59508	34.52
0.61175	34.52
0.62842	34.52
0.64508	34.52
0.66175	34.52
0.67842	34.52
0.69508	34.52
0.71175	34.52
0.72842	34.52
0.74508	34.52
0.76175	34.52
0.77842	34.52
0.79508	34.52
0.81175	34.52
0.82842	34.52
0.84508	34.52
0.86175	34.52
0.87842	34.52
0.89508	34.52
0.91175	34.52
0.92842	34.52
0.94508	34.52
0.96175	34.52
0.97842	34.52
0.99508	34.52
1.01175	34.52
1.02842	34.52
1.04508	34.52
1.06175	34.52
1.07842	34.51
1.09508	34.52
1.11175	34.52
1.12842	34.51
1.14508	34.52
1.16175	34.52
1.17842	34.52
1.19508	34.52
1.21175	34.52
1.22842	34.52
1.24508	34.52
1.26175	34.52
1.27842	34.52
1.29508	34.52
1.31175	34.52
1.32842	34.52
1.34508	34.52
1.36175	34.51
1.37842	34.52
1.39508	34.51
1.41175	34.51
1.42842	34.52
1.44508	34.52
1.46175	34.52
1.47842	34.52
1.49508	34.52
1.51175	34.52
1.52842	34.52
1.54508	34.52
1.56175	34.52
1.57842	34.52
1.59508	34.52
1.61175	34.52
1.62842	34.52
1.64508	34.52
1.66175	34.52
1.67842	34.52
1.69508	34.52
1.71175	34.52
1.72842	34.52
1.74508	34.52
1.76175	34.52
1.77842	34.52
1.79508	34.52
1.81175	34.52
1.82842	34.52
1.84508	34.52
1.86175	34.51
1.87842	34.52
1.89508	34.52
1.91175	34.52
1.92842	34.51
1.94508	34.51
1.96175	34.52
1.97842	34.52
1.99508	34.52
2.01175	34.52
2.02842	34.52
2.04508	34.52
2.06175	34.52
2.07842	34.52
2.09508	34.52
2.11175	34.52
2.12842	34.52
2.14508	34.52
2.16175	34.52
2.17842	34.52
2.19508	34.52
2.21175	34.52
2.22842	34.52
2.24508	34.52
2.26175	34.52
2.27842	34.52
2.29508	34.52
2.31175	34.52
2.32842	34.52
2.34508	34.52
2.36175	34.52
2.37842	34.52
2.39508	34.51
2.41175	34.52
2.42842	34.52
2.44508	34.52
2.46175	34.52
2.47842	34.52
2.49508	34.52
2.51175	34.52
2.52842	34.52
2.54508	34.52
2.56175	34.52
2.57842	34.52
2.59508	34.51
2.61175	34.51
2.62842	34.52
2.64508	34.52
2.66175	34.52
2.67842	34.52
2.69508	34.52
2.71175	34.52
2.72842	34.52
2.74508	34.52
2.76175	34.52
2.77842	34.52
2.79508	34.52
2.81175	34.52
2.82842	34.52
2.84508	34.52
2.86175	34.52
2.87842	34.52
2.89508	34.52
2.91175	34.52
2.92842	34.51
2.94508	34.52
2.96175	34.52
2.97842	34.51
2.99508	34.52
3.01175	34.52
3.02842	34.52
3.04508	34.52
3.06175	34.52
3.07842	34.52
3.09508	34.52
3.11175	34.52
3.12842	34.52
3.14508	34.52
3.16175	34.52
3.17842	34.52
3.19508	34.52
3.21175	34.52
3.22842	34.52
3.24508	34.52
3.26175	34.52
3.27842	34.52
3.29508	34.52
3.31175	34.52
3.32842	34.52
3.34508	34.52
3.36175	34.52
3.37842	34.52
3.39508	34.52
3.41175	34.52
3.42842	34.52
3.44508	34.52
3.46175	34.52
3.47842	34.51
3.49508	34.52
3.51175	34.51
3.52842	34.52
3.54508	34.52
3.56175	34.52
3.57842	34.52
3.59508	34.52
3.61175	34.52
3.62842	34.52
3.64508	34.52
3.66175	34.52
3.67842	34.52
3.69508	34.52
3.71175	34.52
3.72842	34.52
3.74508	34.52
3.76175	34.52
3.77842	34.52
3.79508	34.52
3.81175	34.52
3.82842	34.52
3.84508	34.52
3.86175	34.52
3.87842	34.52
3.89508	34.52
3.91175	34.52
3.92842	34.52
3.94508	34.52
3.96175	34.52
3.97842	34.52
3.99508	34.50

[Status Trace (Column Flow)]
Interval(msec)	1000
# of Points	240
Start Time(min)	0.012
End Time(min)	3.995
Intensity Units	
Intensity Multiplier	1
R.Time (min)	Intensity
0.01175	5.53
0.02842	5.17
0.04508	5.47
0.06175	5.72
0.07842	5.64
0.09508	5.53
0.11175	5.53
0.12842	5.53
0.14508	5.53
0.16175	5.53
0.17842	5.53
0.19508	5.53
0.21175	5.53
0.22842	5.53
0.24508	5.53
0.26175	5.53
0.27842	5.53
0.29508	5.53
0.31175	5.53
0.32842	5.53
0.34508	5.53
0.36175	5.53
0.37842	5.53
0.39508	5.53
0.41175	5.53
0.42842	5.53
0.44508	5.53
0.46175	5.53
0.47842	5.53
0.49508	5.53
0.51175	5.53
0.52842	5.53
0.54508	5.53
0.56175	5.53
0.57842	5.53
0.59508	5.53
0.61175	5.53
0.62842	5.53
0.64508	5.53
0.66175	5.53
0.67842	5.53
0.69508	5.53
0.71175	5.53
0.72842	5.53
0.74508	5.53
0.76175	5.53
0.77842	5.53
0.79508	5.53
0.81175	5.53
0.82842	5.53
0.84508	5.53
0.86175	5.53
0.87842	5.53
0.89508	5.53
0.91175	5.53
0.92842	5.53
0.94508	5.53
0.96175	5.53
0.97842	5.53
0.99508	5.53
1.01175	5.53
1.02842	5.53
1.04508	5.53
1.06175	5.53
1.07842	5.53
1.09508	5.53
1.11175	5.53
1.12842	5.53
1.14508	5.53
1.16175	5.53
1.17842	5.53
1.19508	5.53
1.21175	5.53
1.22842	5.53
1.24508	5.53
1.26175	5.53
1.27842	5.53
1.29508	5.53
1.31175	5.53
1.32842	5.53
1.34508	5.53
1.36175	5.53
1.37842	5.53
1.39508	5.53
1.41175	5.53
1.42842	5.53
1.44508	5.53
1.46175	5.53
1.47842	5.53
1.49508	5.53
1.51175	5.53
1.52842	5.53
1.54508	5.53
1.56175	5.53
1.57842	5.53
1.59508	5.53
1.61175	5.52
1.62842	5.52
1.64508	5.51
1.66175	5.51
1.67842	5.50
1.69508	5.48
1.71175	5.47
1.72842	5.46
1.74508	5.45
1.76175	5.44
1.77842	5.43
1.79508	5.42
1.81175	5.41
1.82842	5.40
1.84508	5.39
1.86175	5.38
1.87842	5.37
1.89508	5.36
1.91175	5.35
1.92842	5.34
1.94508	5.33
1.96175	5.32
1.97842	5.31
1.99508	5.30
2.01175	5.29
2.02842	5.28
2.04508	5.27
2.06175	5.27
2.07842	5.26
2.09508	5.25
2.11175	5.24
2.12842	5.23
2.14508	5.22
2.16175	5.21
2.17842	5.20
2.19508	5.19
2.21175	5.18
2.22842	5.17
2.24508	5.16
2.26175	5.15
2.27842	5.14
2.29508	5.13
2.31175	5.12
2.32842	5.11
2.34508	5.11
2.36175	5.10
2.37842	5.09
2.39508	5.09
2.41175	5.09
2.42842	5.09
2.44508	5.09
2.46175	5.09
2.47842	5.09
2.49508	5.09
2.51175	5.09
2.52842	5.09
2.54508	5.09
2.56175	5.09
2.57842	5.09
2.59508	5.09
2.61175	5.09
2.62842	5.09
2.64508	5.09
2.66175	5.09
2.67842	5.09
2.69508	5.09
2.71175	5.09
2.72842	5.09
2.74508	5.09
2.76175	5.09
2.77842	5.09
2.79508	5.09
2.81175	5.09
2.82842	5.09
2.84508	5.09
2.86175	5.09
2.87842	5.09
2.89508	5.09
2.91175	5.08
2.92842	5.08
2.94508	5.08
2.96175	5.08
2.97842	5.08
2.99508	5.08
3.01175	5.08
3.02842	5.08
3.04508	5.08
3.06175	5.08
3.07842	5.08
3.09508	5.08
3.11175	5.08
3.12842	5.08
3.14508	5.08
3.16175	5.08
3.17842	5.08
3.19508	5.08
3.21175	5.08
3.22842	5.08
3.24508	5.08
3.26175	5.08
3.27842	5.08
3.29508	5.08
3.31175	5.08
3.32842	5.08
3.34508	5.08
3.36175	5.08
3.37842	5.08
3.39508	5.08
3.41175	5.08
3.42842	5.08
3.44508	5.08
3.46175	5.08
3.47842	5.08
3.49508	5.08
3.51175	5.08
3.52842	5.08
3.54508	5.08
3.56175	5.08
3.57842	5.08
3.59508	5.08
3.61175	5.08
3.62842	5.08
3.64508	5.08
3.66175	5.08
3.67842	5.08
3.69508	5.08
3.71175	5.08
3.72842	5.08
3.74508	5.08
3.76175	5.08
3.77842	5.08
3.79508	5.08
3.81175	5.08
3.82842	5.08
3.84508	5.08
3.86175	5.08
3.87842	5.08
3.89508	5.08
3.91175	5.08
3.92842	5.08
3.94508	5.08
3.96175	5.08
3.97842	5.08
3.99508	5.08

[Status Trace (Linear Velocity)]
Interval(msec)	1000
# of Points	240
Start Time(min)	0.012
End Time(min)	3.995
Intensity Units	
Intensity Multiplier	1
R.Time (min)	Intensity
0.01175	39.01
0.02842	37.01
0.04508	38.71
0.06175	40.07
0.07842	39.66
0.09508	39.01
0.11175	39.01
0.12842	39.02
0.14508	39.02
0.16175	39.02
0.17842	39.02
0.19508	39.02
0.21175	39.02
0.22842	39.02
0.24508	39.02
0.26175	39.02
0.27842	39.02
0.29508	39.02
0.31175	39.02
0.32842	39.02
0.34508	39.02
0.36175	39.02
0.37842	39.02
0.39508	39.02
0.41175	39.02
0.42842	39.02
0.44508	39.02
0.46175	39.02
0.47842	39.02
0.49508	39.02
0.51175	39.02
0.52842	39.02
0.54508	39.02
0.56175	39.02
0.57842	39.02
0.59508	39.02
0.61175	39.02
0.62842	39.02
0.64508	39.02
0.66175	39.02
0.67842	39.02
0.69508	39.02
0.71175	39.02
0.72842	39.02
0.74508	39.02
0.76175	39.02
0.77842	39.02
0.79508	39.02
0.81175	39.02
0.82842	39.02
0.84508	39.02
0.86175	39.02
0.87842	39.02
0.89508	39.02
0.91175	39.02
0.92842	39.02
0.94508	39.02
0.96175	39.02
0.97842	39.02
0.99508	39.02
1.01175	39.02
1.02842	39.02
1.04508	39.02
1.06175	39.02
1.07842	39.02
1.09508	39.02
1.11175	39.02
1.12842	39.02
1.14508	39.02
1.16175	39.02
1.17842	39.02
1.19508	39.02
1.21175	39.02
1.22842	39.02
1.24508	39.02
1.26175	39.02
1.27842	39.02
1.29508	39.02
1.31175	39.02
1.32842	39.02
1.34508	39.02
1.36175	39.02
1.37842	39.02
1.39508	39.02
1.41175	39.02
1.42842	39.02
1.44508	39.02
1.46175	39.02
1.47842	39.02
1.49508	39.02
1.51175	39.02
1.52842	39.02
1.54508	39.02
1.56175	39.02
1.57842	39.02
1.59508	39.02
1.61175	39.01
1.62842	39.00
1.64508	38.98
1.66175	38.96
1.67842	38.92
1.69508	38.89
1.71175	38.85
1.72842	38.82
1.74508	38.79
1.76175	38.76
1.77842	38.73
1.79508	38.69
1.81175	38.66
1.82842	38.63
1.84508	38.60
1.86175	38.57
1.87842	38.54
1.89508	38.51
1.91175	38.48
1.92842	38.45
1.94508	38.42
1.96175	38.39
1.97842	38.35
1.99508	38.32
2.01175	38.30
2.02842	38.27
2.04508	38.24
2.06175	38.21
2.07842	38.18
2.09508	38.15
2.11175	38.12
2.12842	38.09
2.14508	38.06
2.16175	38.03
2.17842	38.00
2.19508	37.97
2.21175	37.94
2.22842	37.91
2.24508	37.88
2.26175	37.85
2.27842	37.82
2.29508	37.79
2.31175	37.76
2.32842	37.73
2.34508	37.70
2.36175	37.68
2.37842	37.66
2.39508	37.65
2.41175	37.66
2.42842	37.66
2.44508	37.66
2.46175	37.66
2.47842	37.66
2.49508	37.65
2.51175	37.65
2.52842	37.64
2.54508	37.65
2.56175	37.65
2.57842	37.65
2.59508	37.65
2.61175	37.65
2.62842	37.65
2.64508	37.65
2.66175	37.65
2.67842	37.65
2.69508	37.65
2.71175	37.65
2.72842	37.64
2.74508	37.64
2.76175	37.64
2.77842	37.64
2.79508	37.64
2.81175	37.64
2.82842	37.64
2.84508	37.64
2.86175	37.64
2.87842	37.64
2.89508	37.64
2.91175	37.64
2.92842	37.64
2.94508	37.64
2.96175	37.63
2.97842	37.63
2.99508	37.63
3.01175	37.63
3.02842	37.63
3.04508	37.63
3.06175	37.63
3.07842	37.63
3.09508	37.63
3.11175	37.63
3.12842	37.63
3.14508	37.62
3.16175	37.62
3.17842	37.62
3.19508	37.63
3.21175	37.63
3.22842	37.63
3.24508	37.63
3.26175	37.63
3.27842	37.63
3.29508	37.63
3.31175	37.63
3.32842	37.63
3.34508	37.63
3.36175	37.63
3.37842	37.63
3.39508	37.63
3.41175	37.63
3.42842	37.63
3.44508	37.63
3.46175	37.63
3.47842	37.63
3.49508	37.63
3.51175	37.63
3.52842	37.63
3.54508	37.63
3.56175	37.63
3.57842	37.63
3.59508	37.63
3.61175	37.63
3.62842	37.63
3.64508	37.63
3.66175	37.63
3.67842	37.63
3.69508	37.63
3.71175	37.62
3.72842	37.62
3.74508	37.63
3.76175	37.63
3.77842	37.63
3.79508	37.63
3.81175	37.63
3.82842	37.63
3.84508	37.63
3.86175	37.63
3.87842	37.63
3.89508	37.63
3.91175	37.63
3.92842	37.63
3.94508	37.63
3.96175	37.63
3.97842	37.63
3.99508	37.63

