[Header]
Application Name	LabSolutions
Version	5.110
Data File Name	C:\Users\User\Desktop\GC Analyses\Jack\UIC Prairie Sampling\7.22.22\220722_038.gcd
Output Date	10/5/2022
Output Time	2:13:40 PM

[File Information]
Type	Data File
Generated	9/28/2022 11:51:01 AM
Generated by	System Administrator
Modified	9/28/2022 11:55:33 AM
Modified by	System Administrator

[Sample Information]
Operator Name	System Administrator
Acquired	9/28/2022 11:51:31 AM
Sample Type	1:Standard
Level	1
Sample Name	220722_UICPrairie
Sample ID	220722_UICPrairie
ISTD Amount1	1
ISTD Amount2	1
ISTD Amount3	1
ISTD Amount4	1
ISTD Amount5	1
ISTD Amount6	1
ISTD Amount7	1
ISTD Amount8	1
ISTD Amount9	1
ISTD Amount10	1
ISTD Amount11	1
ISTD Amount12	1
ISTD Amount13	1
ISTD Amount14	1
ISTD Amount15	1
ISTD Amount16	1
ISTD Amount17	1
ISTD Amount18	1
ISTD Amount19	1
ISTD Amount20	1
ISTD Amount21	1
ISTD Amount22	1
ISTD Amount23	1
ISTD Amount24	1
ISTD Amount25	1
ISTD Amount26	1
ISTD Amount27	1
ISTD Amount28	1
ISTD Amount29	1
ISTD Amount30	1
ISTD Amount31	1
ISTD Amount32	1
Sample Amount	1
Dilution Factor	1
Vial#	1
Injection Volume	1
Injection Count	1
Bar Code	

[Original Files]
Data File	C:\Users\User\Desktop\GC Analyses\Jack\UIC Prairie Sampling\7.22.22\220722_038.gcd
Method File	C:\LabSolutions\Data\GHG_4min_2022\ghg3_togas_w_acet_4 min_new_int.gcm
Batch File	
Report Format File	c:\LabSolutions\System\DEFAULT.lsr

[File Description]


[Configuration]
Instrument Name	C0B7VH3-Instrument1
Instrument #	1
Line #	1
# of Detectors	3
Detector ID	DET#1	DET#2	DET#3
Detector Name	FID	PTCD	ECD
# of Channels	1	1	1

[Peak Table(Ch1)]
# of Peaks	3
Peak#	R.Time	I.Time	F.Time	Area	Height	A/H	Conc.	Mark	ID#	Name	k'	Plate #	Plate Ht.	Tailing	Resolution	Sep.Factor	Area Ratio	Height Ratio	Conc. %	Norm Conc.
1	1.479	1.439	1.538	16775	7536	2.226	100.000	   	1	CO	0.000	8386	17.887	1.149	0.000	0.000	0	0	16.667	16.667
2	1.571	1.538	1.637	4662	2325	2.005	100.000	 V 	2	CH4	0.062	11160	13.440	1.220	1.477	0.000	0	0	16.667	16.667
3	2.000	1.956	2.246	1194996	585045	2.043	400.000	   	3	CO2	0.352	17927	8.367	1.211	7.196	5.680	0	0	66.667	66.667

[Peak Table(Ch2)]
# of Peaks	0

[Peak Table(Ch3)]
# of Peaks	4
Peak#	R.Time	I.Time	F.Time	Area	Height	A/H	Conc.	Mark	ID#	Name	k'	Plate #	Plate Ht.	Tailing	Resolution	Sep.Factor	Area Ratio	Height Ratio	Conc. %	Norm Conc.
1	2.187	2.084	2.400	161	18	8.817	0.000	   			0.000	19139	7.837	1.606	0.000	0.000	0	0	0.000	0.000
2	2.609	2.543	2.660	4663	900	5.181	0.000	   			0.193	1445	103.793	0.000	2.497	0.000	0	0	0.000	0.000
3	2.704	2.660	2.821	7449	800	9.313	0.000	 V 			0.236	34	4447.057	0.000	0.089	1.226	0	0	0.000	0.000
4	2.880	2.821	3.962	39474	5590	7.062	1.000	 V 	1	N2O	0.317	10461	14.339	0.000	0.178	1.340	0	0	100.000	100.000

[Compound Results(Ch1)]
# of IDs	6
ID#	Name	R.Time	Area	Height	Conc.	Curve	3rd	2nd	1st	Constant	Area Ratio	Height Ratio	Conc. %	Norm Conc.
1	CO	1.479	16775	7536	100.000	Linear	0.000000e+00	0.000000e+00	1.677467e+002	0.000000e+00	0	0	16.667	16.667
2	CH4	1.571	4662	2325	100.000	Linear	0.000000e+00	0.000000e+00	4.662318e+001	0.000000e+00	0	0	16.667	16.667
3	CO2	2.000	1194996	585045	400.000	Linear	0.000000e+00	0.000000e+00	2.987491e+003	0.000000e+00	0	0	66.667	66.667
4	Ethylene	0.000	0	0	0.000	Linear	0.000000e+00	0.000000e+00	0.000000e+00	0.000000e+00	0	0	0.000	0.000
5	Acetylene	0.000	0	0	0.000	Linear	0.000000e+00	0.000000e+00	0.000000e+00	0.000000e+00	0	0	0.000	0.000
6	Ethane	0.000	0	0	0.000	Linear	0.000000e+00	0.000000e+00	0.000000e+00	0.000000e+00	0	0	0.000	0.000

[Compound Results(Ch2)]
# of IDs	5
ID#	Name	R.Time	Area	Height	Conc.	Curve	3rd	2nd	1st	Constant	Area Ratio	Height Ratio	Conc. %	Norm Conc.
1	Hydrogen	0.000	0	0	0.000	Linear	0.000000e+00	0.000000e+00	0.000000e+00	0.000000e+00	0	0	0.000	0.000
2	Oxygen	0.000	0	0	0.000	Linear	0.000000e+00	0.000000e+00	0.000000e+00	0.000000e+00	0	0	0.000	0.000
3	Nitrogen	0.000	0	0	0.000	Linear	0.000000e+00	0.000000e+00	0.000000e+00	0.000000e+00	0	0	0.000	0.000
4	Methane	0.000	0	0	0.000	Linear	0.000000e+00	0.000000e+00	0.000000e+00	0.000000e+00	0	0	0.000	0.000
5	Carbon Monoxide	0.000	0	0	0.000	Linear	0.000000e+00	0.000000e+00	0.000000e+00	0.000000e+00	0	0	0.000	0.000

[Compound Results(Ch3)]
# of IDs	2
ID#	Name	R.Time	Area	Height	Conc.	Curve	3rd	2nd	1st	Constant	Area Ratio	Height Ratio	Conc. %	Norm Conc.
1	N2O	2.880	39474	5590	1.000	Linear	0.000000e+00	0.000000e+00	3.947415e+004	0.000000e+00	0	0	100.000	100.000
2	SF6	0.000	0	0	0.000	Linear	0.000000e+00	0.000000e+00	0.000000e+00	0.000000e+00	0	0	0.000	0.000

[Group Results(Ch1)]
# of Groups	0

[Group Results(Ch2)]
# of Groups	0

[Group Results(Ch3)]
# of Groups	0

[Chromatogram (Ch1)]
Interval(msec)	220
# of Points	1091
Start Time(min)	0.002
End Time(min)	3.998
R.Time (min)	Intensity
0.00167	-5
0.00533	3
0.00900	8
0.01267	7
0.01633	5
0.02000	4
0.02367	2
0.02733	-0
0.03100	-2
0.03467	-4
0.03833	-5
0.04200	-2
0.04567	1
0.04933	6
0.05300	8
0.05667	7
0.06033	2
0.06400	-3
0.06767	-7
0.07133	-7
0.07500	-5
0.07867	3
0.08233	16
0.08600	25
0.08967	25
0.09333	18
0.09700	9
0.10067	-2
0.10433	-12
0.10800	-15
0.11167	-12
0.11533	-3
0.11900	6
0.12267	9
0.12633	3
0.13000	-9
0.13367	-17
0.13733	-19
0.14100	-18
0.14467	-13
0.14833	-9
0.15200	-9
0.15567	-13
0.15933	-16
0.16300	-20
0.16667	-24
0.17033	-26
0.17400	-25
0.17767	-21
0.18133	-17
0.18500	-12
0.18867	-6
0.19233	-2
0.19600	-4
0.19967	-9
0.20333	-15
0.20700	-19
0.21067	-18
0.21433	-16
0.21800	-15
0.22167	-15
0.22533	-16
0.22900	-16
0.23267	-12
0.23633	-4
0.24000	5
0.24367	14
0.24733	20
0.25100	21
0.25467	18
0.25833	10
0.26200	-1
0.26567	-10
0.26933	-19
0.27300	-28
0.27667	-38
0.28033	-43
0.28400	-44
0.28767	-39
0.29133	-34
0.29500	-31
0.29867	-27
0.30233	-19
0.30600	-13
0.30967	-9
0.31333	-8
0.31700	-7
0.32067	-10
0.32433	-19
0.32800	-27
0.33167	-32
0.33533	-35
0.33900	-34
0.34267	-32
0.34633	-31
0.35000	-30
0.35367	-30
0.35733	-32
0.36100	-33
0.36467	-32
0.36833	-35
0.37200	-40
0.37567	-45
0.37933	-50
0.38300	-53
0.38667	-52
0.39033	-49
0.39400	-44
0.39767	-41
0.40133	-42
0.40500	-45
0.40867	-51
0.41233	-56
0.41600	-58
0.41967	-57
0.42333	-54
0.42700	-51
0.43067	-49
0.43433	-48
0.43800	-48
0.44167	-48
0.44533	-47
0.44900	-43
0.45267	-42
0.45633	-45
0.46000	-51
0.46367	-54
0.46733	-54
0.47100	-52
0.47467	-50
0.47833	-47
0.48200	-45
0.48567	-41
0.48933	-33
0.49300	-24
0.49667	-17
0.50033	-16
0.50400	-20
0.50767	-23
0.51133	-26
0.51500	-29
0.51867	-33
0.52233	-41
0.52600	-51
0.52967	-61
0.53333	-66
0.53700	-67
0.54067	-68
0.54433	-70
0.54800	-69
0.55167	-63
0.55533	-53
0.55900	-42
0.56267	-34
0.56633	-31
0.57000	-31
0.57367	-35
0.57733	-39
0.58100	-44
0.58467	-46
0.58833	-49
0.59200	-57
0.59567	-63
0.59933	-65
0.60300	-65
0.60667	-59
0.61033	-51
0.61400	-42
0.61767	-35
0.62133	-32
0.62500	-32
0.62867	-36
0.63233	-43
0.63600	-48
0.63967	-52
0.64333	-55
0.64700	-59
0.65067	-63
0.65433	-69
0.65800	-75
0.66167	-78
0.66533	-75
0.66900	-72
0.67267	-70
0.67633	-65
0.68000	-58
0.68367	-53
0.68733	-51
0.69100	-51
0.69467	-51
0.69833	-53
0.70200	-52
0.70567	-47
0.70933	-41
0.71300	-34
0.71667	-27
0.72033	-22
0.72400	-17
0.72767	-18
0.73133	-25
0.73500	-35
0.73867	-44
0.74233	-51
0.74600	-59
0.74967	-68
0.75333	-73
0.75700	-75
0.76067	-79
0.76433	-84
0.76800	-86
0.77167	-88
0.77533	-91
0.77900	-91
0.78267	-89
0.78633	-85
0.79000	-82
0.79367	-79
0.79733	-78
0.80100	-78
0.80467	-78
0.80833	-75
0.81200	-69
0.81567	-66
0.81933	-66
0.82300	-66
0.82667	-67
0.83033	-67
0.83400	-67
0.83767	-65
0.84133	-64
0.84500	-62
0.84867	-62
0.85233	-62
0.85600	-62
0.85967	-61
0.86333	-60
0.86700	-61
0.87067	-64
0.87433	-66
0.87800	-66
0.88167	-65
0.88533	-64
0.88900	-63
0.89267	-64
0.89633	-65
0.90000	-65
0.90367	-65
0.90733	-68
0.91100	-72
0.91467	-76
0.91833	-77
0.92200	-74
0.92567	-67
0.92933	-59
0.93300	-57
0.93667	-62
0.94033	-68
0.94400	-73
0.94767	-74
0.95133	-72
0.95500	-67
0.95867	-62
0.96233	-61
0.96600	-62
0.96967	-64
0.97333	-67
0.97700	-69
0.98067	-71
0.98433	-74
0.98800	-79
0.99167	-80
0.99533	-78
0.99900	-70
1.00267	-62
1.00633	-57
1.01000	-55
1.01367	-57
1.01733	-61
1.02100	-66
1.02467	-72
1.02833	-78
1.03200	-83
1.03567	-84
1.03933	-84
1.04300	-80
1.04667	-81
1.05033	-85
1.05400	-88
1.05767	-89
1.06133	-92
1.06500	-94
1.06867	-92
1.07233	-88
1.07600	-87
1.07967	-86
1.08333	-85
1.08700	-84
1.09067	-82
1.09433	-77
1.09800	-72
1.10167	-71
1.10533	-70
1.10900	-69
1.11267	-71
1.11633	-79
1.12000	-88
1.12367	-95
1.12733	-98
1.13100	-99
1.13467	-97
1.13833	-94
1.14200	-90
1.14567	-87
1.14933	-85
1.15300	-84
1.15667	-82
1.16033	-78
1.16400	-72
1.16767	-68
1.17133	-67
1.17500	-70
1.17867	-76
1.18233	-80
1.18600	-82
1.18967	-83
1.19333	-85
1.19700	-88
1.20067	-92
1.20433	-92
1.20800	-91
1.21167	-90
1.21533	-89
1.21900	-83
1.22267	-77
1.22633	-72
1.23000	-70
1.23367	-69
1.23733	-69
1.24100	-69
1.24467	-70
1.24833	-71
1.25200	-70
1.25567	-70
1.25933	-72
1.26300	-75
1.26667	-79
1.27033	-84
1.27400	-86
1.27767	-90
1.28133	-94
1.28500	-98
1.28867	-99
1.29233	-100
1.29600	-99
1.29967	-97
1.30333	-98
1.30700	-99
1.31067	-100
1.31433	-101
1.31800	-99
1.32167	-94
1.32533	-89
1.32900	-82
1.33267	-77
1.33633	-78
1.34000	-78
1.34367	-75
1.34733	-70
1.35100	-67
1.35467	-68
1.35833	-71
1.36200	-75
1.36567	-81
1.36933	-91
1.37300	-99
1.37667	-105
1.38033	-107
1.38400	-103
1.38767	-97
1.39133	-91
1.39500	-85
1.39867	-80
1.40233	-78
1.40600	-74
1.40967	-71
1.41333	-69
1.41700	-67
1.42067	-67
1.42433	-69
1.42800	-73
1.43167	-76
1.43533	-77
1.43900	-68
1.44267	-11
1.44633	189
1.45000	618
1.45367	1327
1.45733	2387
1.46100	3718
1.46467	5067
1.46833	6206
1.47200	7015
1.47567	7442
1.47933	7458
1.48300	7049
1.48667	6259
1.49033	5222
1.49400	4121
1.49767	3111
1.50133	2271
1.50500	1615
1.50867	1121
1.51233	760
1.51600	505
1.51967	328
1.52333	202
1.52700	110
1.53067	44
1.53433	-1
1.53800	-26
1.54167	-21
1.54533	58
1.54900	269
1.55267	629
1.55633	1073
1.56000	1504
1.56367	1859
1.56733	2108
1.57100	2224
1.57467	2175
1.57833	1959
1.58200	1621
1.58567	1240
1.58933	884
1.59300	591
1.59667	369
1.60033	211
1.60400	105
1.60767	37
1.61133	-6
1.61500	-35
1.61867	-57
1.62233	-72
1.62600	-85
1.62967	-98
1.63333	-109
1.63700	-117
1.64067	-123
1.64433	-126
1.64800	-125
1.65167	-123
1.65533	-121
1.65900	-116
1.66267	-113
1.66633	-117
1.67000	-125
1.67367	-132
1.67733	-137
1.68100	-142
1.68467	-144
1.68833	-141
1.69200	-138
1.69567	-132
1.69933	-122
1.70300	-113
1.70667	-112
1.71033	-117
1.71400	-122
1.71767	-125
1.72133	-124
1.72500	-122
1.72867	-120
1.73233	-119
1.73600	-120
1.73967	-122
1.74333	-124
1.74700	-121
1.75067	-111
1.75433	-102
1.75800	-100
1.76167	-102
1.76533	-107
1.76900	-112
1.77267	-114
1.77633	-113
1.78000	-109
1.78367	-104
1.78733	-99
1.79100	-101
1.79467	-104
1.79833	-104
1.80200	-107
1.80567	-114
1.80933	-120
1.81300	-123
1.81667	-124
1.82033	-126
1.82400	-131
1.82767	-140
1.83133	-147
1.83500	-151
1.83867	-148
1.84233	-139
1.84600	-130
1.84967	-120
1.85333	-112
1.85700	-104
1.86067	-100
1.86433	-99
1.86800	-98
1.87167	-98
1.87533	-100
1.87900	-101
1.88267	-100
1.88633	-98
1.89000	-95
1.89367	-92
1.89733	-89
1.90100	-84
1.90467	-82
1.90833	-84
1.91200	-90
1.91567	-98
1.91933	-102
1.92300	-103
1.92667	-101
1.93033	-95
1.93400	-89
1.93767	-82
1.94133	-75
1.94500	-67
1.94867	-64
1.95233	-67
1.95600	-47
1.95967	130
1.96333	1109
1.96700	5155
1.97067	17841
1.97433	48556
1.97800	106878
1.98167	194928
1.98533	302561
1.98900	411515
1.99267	503491
1.99633	564215
2.00000	585022
2.00367	563819
2.00733	506327
2.01100	425207
2.01467	336072
2.01833	252299
2.02200	181852
2.02567	127230
2.02933	87288
2.03300	59259
2.03667	40134
2.04033	27313
2.04400	18797
2.04767	13159
2.05133	9412
2.05500	6901
2.05867	5197
2.06233	4020
2.06600	3187
2.06967	2580
2.07333	2127
2.07700	1784
2.08067	1522
2.08433	1319
2.08800	1158
2.09167	1032
2.09533	930
2.09900	845
2.10267	773
2.10633	711
2.11000	658
2.11367	611
2.11733	568
2.12100	531
2.12467	495
2.12833	463
2.13200	436
2.13567	412
2.13933	391
2.14300	371
2.14667	355
2.15033	339
2.15400	321
2.15767	304
2.16133	287
2.16500	273
2.16867	262
2.17233	250
2.17600	237
2.17967	225
2.18333	215
2.18700	208
2.19067	202
2.19433	198
2.19800	193
2.20167	187
2.20533	184
2.20900	181
2.21267	178
2.21633	168
2.22000	157
2.22367	148
2.22733	143
2.23100	140
2.23467	137
2.23833	129
2.24200	120
2.24567	112
2.24933	107
2.25300	103
2.25667	102
2.26033	103
2.26400	105
2.26767	107
2.27133	108
2.27500	105
2.27867	100
2.28233	97
2.28600	96
2.28967	99
2.29333	108
2.29700	118
2.30067	122
2.30433	122
2.30800	115
2.31167	105
2.31533	95
2.31900	82
2.32267	67
2.32633	56
2.33000	51
2.33367	56
2.33733	66
2.34100	74
2.34467	77
2.34833	76
2.35200	72
2.35567	65
2.35933	59
2.36300	56
2.36667	55
2.37033	54
2.37400	53
2.37767	54
2.38133	58
2.38500	63
2.38867	68
2.39233	73
2.39600	77
2.39967	75
2.40333	72
2.40700	70
2.41067	70
2.41433	71
2.41800	73
2.42167	75
2.42533	78
2.42900	79
2.43267	77
2.43633	76
2.44000	80
2.44367	82
2.44733	79
2.45100	72
2.45467	66
2.45833	62
2.46200	60
2.46567	58
2.46933	54
2.47300	52
2.47667	51
2.48033	50
2.48400	51
2.48767	53
2.49133	55
2.49500	57
2.49867	61
2.50233	63
2.50600	62
2.50967	61
2.51333	61
2.51700	57
2.52067	53
2.52433	50
2.52800	47
2.53167	48
2.53533	53
2.53900	63
2.54267	76
2.54633	84
2.55000	83
2.55367	73
2.55733	57
2.56100	43
2.56467	35
2.56833	31
2.57200	30
2.57567	26
2.57933	20
2.58300	19
2.58667	24
2.59033	28
2.59400	32
2.59767	35
2.60133	39
2.60500	42
2.60867	42
2.61233	41
2.61600	39
2.61967	33
2.62333	27
2.62700	25
2.63067	28
2.63433	29
2.63800	23
2.64167	13
2.64533	6
2.64900	3
2.65267	5
2.65633	6
2.66000	7
2.66367	9
2.66733	12
2.67100	14
2.67467	13
2.67833	9
2.68200	7
2.68567	10
2.68933	18
2.69300	23
2.69667	23
2.70033	21
2.70400	20
2.70767	19
2.71133	17
2.71500	14
2.71867	12
2.72233	10
2.72600	8
2.72967	10
2.73333	14
2.73700	17
2.74067	17
2.74433	17
2.74800	20
2.75167	21
2.75533	19
2.75900	15
2.76267	10
2.76633	6
2.77000	8
2.77367	14
2.77733	17
2.78100	15
2.78467	13
2.78833	10
2.79200	4
2.79567	-2
2.79933	-7
2.80300	-9
2.80667	-9
2.81033	-7
2.81400	-3
2.81767	2
2.82133	5
2.82500	6
2.82867	11
2.83233	16
2.83600	16
2.83967	12
2.84333	4
2.84700	-3
2.85067	-7
2.85433	-4
2.85800	4
2.86167	13
2.86533	17
2.86900	12
2.87267	3
2.87633	-6
2.88000	-13
2.88367	-15
2.88733	-14
2.89100	-13
2.89467	-13
2.89833	-14
2.90200	-15
2.90567	-17
2.90933	-18
2.91300	-16
2.91667	-12
2.92033	-11
2.92400	-13
2.92767	-14
2.93133	-11
2.93500	-6
2.93867	-0
2.94233	6
2.94600	13
2.94967	13
2.95333	10
2.95700	7
2.96067	4
2.96433	2
2.96800	1
2.97167	-1
2.97533	-4
2.97900	-6
2.98267	-8
2.98633	-9
2.99000	-7
2.99367	-3
2.99733	2
3.00100	6
3.00467	10
3.00833	15
3.01200	20
3.01567	26
3.01933	24
3.02300	17
3.02667	11
3.03033	4
3.03400	-2
3.03767	-8
3.04133	-14
3.04500	-18
3.04867	-19
3.05233	-17
3.05600	-15
3.05967	-13
3.06333	-15
3.06700	-18
3.07067	-17
3.07433	-15
3.07800	-13
3.08167	-14
3.08533	-19
3.08900	-23
3.09267	-26
3.09633	-24
3.10000	-20
3.10367	-15
3.10733	-12
3.11100	-12
3.11467	-15
3.11833	-19
3.12200	-22
3.12567	-16
3.12933	-1
3.13300	14
3.13667	17
3.14033	11
3.14400	3
3.14767	-6
3.15133	-10
3.15500	-11
3.15867	-11
3.16233	-11
3.16600	-10
3.16967	-9
3.17333	-8
3.17700	-7
3.18067	-9
3.18433	-14
3.18800	-18
3.19167	-22
3.19533	-24
3.19900	-26
3.20267	-28
3.20633	-28
3.21000	-25
3.21367	-21
3.21733	-20
3.22100	-21
3.22467	-23
3.22833	-23
3.23200	-23
3.23567	-23
3.23933	-24
3.24300	-21
3.24667	-14
3.25033	-4
3.25400	6
3.25767	9
3.26133	7
3.26500	3
3.26867	-5
3.27233	-15
3.27600	-21
3.27967	-20
3.28333	-17
3.28700	-14
3.29067	-14
3.29433	-15
3.29800	-15
3.30167	-12
3.30533	-10
3.30900	-9
3.31267	-11
3.31633	-15
3.32000	-19
3.32367	-22
3.32733	-21
3.33100	-21
3.33467	-22
3.33833	-23
3.34200	-23
3.34567	-24
3.34933	-24
3.35300	-24
3.35667	-24
3.36033	-21
3.36400	-19
3.36767	-19
3.37133	-23
3.37500	-27
3.37867	-27
3.38233	-19
3.38600	-9
3.38967	-3
3.39333	-5
3.39700	-12
3.40067	-23
3.40433	-32
3.40800	-34
3.41167	-36
3.41533	-40
3.41900	-44
3.42267	-41
3.42633	-34
3.43000	-27
3.43367	-23
3.43733	-18
3.44100	-15
3.44467	-18
3.44833	-21
3.45200	-24
3.45567	-30
3.45933	-37
3.46300	-39
3.46667	-38
3.47033	-35
3.47400	-29
3.47767	-21
3.48133	-13
3.48500	-10
3.48867	-11
3.49233	-18
3.49600	-29
3.49967	-39
3.50333	-43
3.50700	-48
3.51067	-53
3.51433	-56
3.51800	-53
3.52167	-46
3.52533	-42
3.52900	-39
3.53267	-35
3.53633	-29
3.54000	-29
3.54367	-32
3.54733	-32
3.55100	-31
3.55467	-32
3.55833	-32
3.56200	-32
3.56567	-31
3.56933	-29
3.57300	-29
3.57667	-31
3.58033	-32
3.58400	-32
3.58767	-36
3.59133	-38
3.59500	-39
3.59867	-36
3.60233	-34
3.60600	-34
3.60967	-36
3.61333	-37
3.61700	-37
3.62067	-34
3.62433	-28
3.62800	-24
3.63167	-23
3.63533	-25
3.63900	-32
3.64267	-41
3.64633	-46
3.65000	-49
3.65367	-52
3.65733	-54
3.66100	-55
3.66467	-52
3.66833	-50
3.67200	-47
3.67567	-43
3.67933	-36
3.68300	-30
3.68667	-30
3.69033	-36
3.69400	-44
3.69767	-49
3.70133	-52
3.70500	-52
3.70867	-51
3.71233	-54
3.71600	-60
3.71967	-65
3.72333	-66
3.72700	-63
3.73067	-56
3.73433	-46
3.73800	-42
3.74167	-44
3.74533	-50
3.74900	-55
3.75267	-58
3.75633	-57
3.76000	-56
3.76367	-54
3.76733	-49
3.77100	-44
3.77467	-41
3.77833	-40
3.78200	-41
3.78567	-44
3.78933	-45
3.79300	-41
3.79667	-38
3.80033	-36
3.80400	-37
3.80767	-41
3.81133	-46
3.81500	-49
3.81867	-51
3.82233	-54
3.82600	-58
3.82967	-62
3.83333	-64
3.83700	-60
3.84067	-53
3.84433	-48
3.84800	-44
3.85167	-41
3.85533	-39
3.85900	-36
3.86267	-32
3.86633	-29
3.87000	-29
3.87367	-33
3.87733	-42
3.88100	-48
3.88467	-50
3.88833	-47
3.89200	-44
3.89567	-40
3.89933	-38
3.90300	-36
3.90667	-34
3.91033	-32
3.91400	-28
3.91767	-25
3.92133	-28
3.92500	-34
3.92867	-45
3.93233	-55
3.93600	-63
3.93967	-64
3.94333	-63
3.94700	-61
3.95067	-57
3.95433	-52
3.95800	-48
3.96167	-45
3.96533	-45
3.96900	-48
3.97267	-51
3.97633	-52
3.98000	-52
3.98367	-49
3.98733	-43
3.99100	-39
3.99467	-36
3.99833	-37

[Chromatogram (Ch2)]
Interval(msec)	220
# of Points	1091
Start Time(min)	0.002
End Time(min)	3.998
R.Time (min)	Intensity
0.00167	0
0.00533	0
0.00900	0
0.01267	0
0.01633	-0
0.02000	-0
0.02367	-0
0.02733	-0
0.03100	-1
0.03467	-1
0.03833	-1
0.04200	-2
0.04567	-2
0.04933	-3
0.05300	-3
0.05667	-3
0.06033	-3
0.06400	-3
0.06767	-4
0.07133	-4
0.07500	-5
0.07867	-5
0.08233	-5
0.08600	-5
0.08967	-5
0.09333	-5
0.09700	-5
0.10067	-5
0.10433	-5
0.10800	-5
0.11167	-5
0.11533	-5
0.11900	-5
0.12267	-5
0.12633	-5
0.13000	-5
0.13367	-5
0.13733	-5
0.14100	-5
0.14467	-5
0.14833	-5
0.15200	-5
0.15567	-4
0.15933	-4
0.16300	-4
0.16667	-3
0.17033	-3
0.17400	-3
0.17767	-2
0.18133	-2
0.18500	-1
0.18867	-1
0.19233	-1
0.19600	-1
0.19967	-1
0.20333	-1
0.20700	-1
0.21067	-0
0.21433	-1
0.21800	-1
0.22167	-1
0.22533	-1
0.22900	-1
0.23267	-1
0.23633	-1
0.24000	-1
0.24367	-1
0.24733	-1
0.25100	-1
0.25467	-2
0.25833	-2
0.26200	-2
0.26567	-2
0.26933	-2
0.27300	-2
0.27667	-2
0.28033	-2
0.28400	-2
0.28767	-2
0.29133	-2
0.29500	-3
0.29867	-3
0.30233	-3
0.30600	-4
0.30967	-4
0.31333	-4
0.31700	-5
0.32067	-5
0.32433	-5
0.32800	-4
0.33167	-4
0.33533	-4
0.33900	-4
0.34267	-3
0.34633	-3
0.35000	-3
0.35367	-3
0.35733	-3
0.36100	-3
0.36467	-3
0.36833	-3
0.37200	-3
0.37567	-4
0.37933	-4
0.38300	-4
0.38667	-4
0.39033	-5
0.39400	-5
0.39767	-6
0.40133	-6
0.40500	-6
0.40867	-6
0.41233	-6
0.41600	-6
0.41967	-6
0.42333	-6
0.42700	-5
0.43067	-5
0.43433	-5
0.43800	-5
0.44167	-4
0.44533	-4
0.44900	-4
0.45267	-4
0.45633	-4
0.46000	-4
0.46367	-3
0.46733	-3
0.47100	-3
0.47467	-3
0.47833	-3
0.48200	-4
0.48567	-4
0.48933	-4
0.49300	-5
0.49667	-5
0.50033	-5
0.50400	-5
0.50767	-5
0.51133	-5
0.51500	-5
0.51867	-5
0.52233	-6
0.52600	-6
0.52967	-6
0.53333	-6
0.53700	-6
0.54067	-6
0.54433	-6
0.54800	-6
0.55167	-6
0.55533	-5
0.55900	-5
0.56267	-5
0.56633	-5
0.57000	-5
0.57367	-5
0.57733	-5
0.58100	-6
0.58467	-6
0.58833	-6
0.59200	-6
0.59567	-6
0.59933	-5
0.60300	-4
0.60667	-4
0.61033	-3
0.61400	-3
0.61767	-2
0.62133	-2
0.62500	-2
0.62867	-2
0.63233	-2
0.63600	-2
0.63967	-3
0.64333	-3
0.64700	-3
0.65067	-3
0.65433	-3
0.65800	-3
0.66167	-3
0.66533	-3
0.66900	-3
0.67267	-3
0.67633	-3
0.68000	-3
0.68367	-3
0.68733	-3
0.69100	-3
0.69467	-3
0.69833	-3
0.70200	-3
0.70567	-3
0.70933	-3
0.71300	-3
0.71667	-3
0.72033	-4
0.72400	-4
0.72767	-4
0.73133	-4
0.73500	-4
0.73867	-4
0.74233	-4
0.74600	-4
0.74967	-4
0.75333	-5
0.75700	-5
0.76067	-5
0.76433	-4
0.76800	-4
0.77167	-4
0.77533	-4
0.77900	-4
0.78267	-4
0.78633	-4
0.79000	-4
0.79367	-4
0.79733	-4
0.80100	-5
0.80467	-5
0.80833	-5
0.81200	-5
0.81567	-6
0.81933	-6
0.82300	-6
0.82667	-7
0.83033	-7
0.83400	-7
0.83767	-7
0.84133	-7
0.84500	-7
0.84867	-8
0.85233	-8
0.85600	-8
0.85967	-8
0.86333	-8
0.86700	-8
0.87067	-8
0.87433	-7
0.87800	-7
0.88167	-7
0.88533	-7
0.88900	-7
0.89267	-7
0.89633	-7
0.90000	-7
0.90367	-6
0.90733	-6
0.91100	-6
0.91467	-6
0.91833	-5
0.92200	-5
0.92567	-5
0.92933	-4
0.93300	-4
0.93667	-4
0.94033	-4
0.94400	-3
0.94767	-3
0.95133	-3
0.95500	-3
0.95867	-2
0.96233	-2
0.96600	-2
0.96967	-3
0.97333	-3
0.97700	-3
0.98067	-3
0.98433	-3
0.98800	-4
0.99167	-4
0.99533	-5
0.99900	-5
1.00267	-5
1.00633	-5
1.01000	-5
1.01367	-5
1.01733	-5
1.02100	-5
1.02467	-5
1.02833	-5
1.03200	-5
1.03567	-5
1.03933	-5
1.04300	-5
1.04667	-5
1.05033	-5
1.05400	-5
1.05767	-5
1.06133	-5
1.06500	-5
1.06867	-5
1.07233	-5
1.07600	-5
1.07967	-5
1.08333	-5
1.08700	-5
1.09067	-5
1.09433	-5
1.09800	-5
1.10167	-5
1.10533	-5
1.10900	-5
1.11267	-5
1.11633	-4
1.12000	-4
1.12367	-4
1.12733	-4
1.13100	-4
1.13467	-4
1.13833	-5
1.14200	-5
1.14567	-5
1.14933	-5
1.15300	-5
1.15667	-5
1.16033	-5
1.16400	-6
1.16767	-6
1.17133	-7
1.17500	-7
1.17867	-7
1.18233	-7
1.18600	-7
1.18967	-7
1.19333	-7
1.19700	-7
1.20067	-8
1.20433	-8
1.20800	-8
1.21167	-8
1.21533	-9
1.21900	-9
1.22267	-9
1.22633	-8
1.23000	-8
1.23367	-7
1.23733	-7
1.24100	-7
1.24467	-6
1.24833	-6
1.25200	-6
1.25567	-7
1.25933	-7
1.26300	-7
1.26667	-7
1.27033	-7
1.27400	-7
1.27767	-8
1.28133	-8
1.28500	-9
1.28867	-9
1.29233	-9
1.29600	-9
1.29967	-9
1.30333	-9
1.30700	-9
1.31067	-9
1.31433	-8
1.31800	-8
1.32167	-7
1.32533	-7
1.32900	-6
1.33267	-6
1.33633	-6
1.34000	-5
1.34367	-5
1.34733	-5
1.35100	-5
1.35467	-5
1.35833	-5
1.36200	-6
1.36567	-6
1.36933	-6
1.37300	-6
1.37667	-6
1.38033	-6
1.38400	-6
1.38767	-6
1.39133	-6
1.39500	-6
1.39867	-6
1.40233	-5
1.40600	-5
1.40967	-4
1.41333	-4
1.41700	-4
1.42067	-3
1.42433	-3
1.42800	-3
1.43167	-2
1.43533	-2
1.43900	-2
1.44267	-2
1.44633	-2
1.45000	-2
1.45367	-2
1.45733	-2
1.46100	-2
1.46467	-1
1.46833	-1
1.47200	-1
1.47567	-1
1.47933	-1
1.48300	-1
1.48667	-1
1.49033	-1
1.49400	-1
1.49767	-1
1.50133	-0
1.50500	-0
1.50867	-0
1.51233	-1
1.51600	-1
1.51967	-1
1.52333	-1
1.52700	-2
1.53067	-2
1.53433	-2
1.53800	-3
1.54167	-3
1.54533	-3
1.54900	-3
1.55267	-3
1.55633	-4
1.56000	-4
1.56367	-5
1.56733	-5
1.57100	-5
1.57467	-5
1.57833	-6
1.58200	-6
1.58567	-6
1.58933	-6
1.59300	-6
1.59667	-7
1.60033	-7
1.60400	-8
1.60767	-10
1.61133	-12
1.61500	-14
1.61867	-17
1.62233	-20
1.62600	-23
1.62967	-26
1.63333	-29
1.63700	-33
1.64067	-36
1.64433	-40
1.64800	-44
1.65167	-47
1.65533	-50
1.65900	-54
1.66267	-58
1.66633	-62
1.67000	-66
1.67367	-71
1.67733	-76
1.68100	-81
1.68467	-86
1.68833	-91
1.69200	-96
1.69567	-100
1.69933	-103
1.70300	-106
1.70667	-109
1.71033	-112
1.71400	-114
1.71767	-116
1.72133	-117
1.72500	-118
1.72867	-119
1.73233	-120
1.73600	-120
1.73967	-120
1.74333	-120
1.74700	-119
1.75067	-119
1.75433	-119
1.75800	-119
1.76167	-119
1.76533	-120
1.76900	-121
1.77267	-121
1.77633	-122
1.78000	-123
1.78367	-123
1.78733	-124
1.79100	-124
1.79467	-124
1.79833	-125
1.80200	-125
1.80567	-126
1.80933	-126
1.81300	-126
1.81667	-127
1.82033	-127
1.82400	-127
1.82767	-127
1.83133	-127
1.83500	-127
1.83867	-127
1.84233	-127
1.84600	-127
1.84967	-127
1.85333	-127
1.85700	-127
1.86067	-128
1.86433	-128
1.86800	-128
1.87167	-128
1.87533	-128
1.87900	-127
1.88267	-127
1.88633	-127
1.89000	-127
1.89367	-127
1.89733	-127
1.90100	-127
1.90467	-127
1.90833	-126
1.91200	-126
1.91567	-126
1.91933	-125
1.92300	-125
1.92667	-124
1.93033	-124
1.93400	-124
1.93767	-124
1.94133	-124
1.94500	-124
1.94867	-123
1.95233	-123
1.95600	-123
1.95967	-123
1.96333	-123
1.96700	-123
1.97067	-123
1.97433	-123
1.97800	-122
1.98167	-122
1.98533	-122
1.98900	-121
1.99267	-121
1.99633	-120
2.00000	-120
2.00367	-120
2.00733	-119
2.01100	-119
2.01467	-119
2.01833	-119
2.02200	-119
2.02567	-119
2.02933	-119
2.03300	-119
2.03667	-119
2.04033	-118
2.04400	-118
2.04767	-117
2.05133	-116
2.05500	-115
2.05867	-115
2.06233	-114
2.06600	-114
2.06967	-114
2.07333	-114
2.07700	-114
2.08067	-114
2.08433	-114
2.08800	-114
2.09167	-113
2.09533	-113
2.09900	-112
2.10267	-112
2.10633	-111
2.11000	-111
2.11367	-111
2.11733	-110
2.12100	-110
2.12467	-109
2.12833	-109
2.13200	-109
2.13567	-108
2.13933	-108
2.14300	-107
2.14667	-106
2.15033	-105
2.15400	-104
2.15767	-104
2.16133	-103
2.16500	-103
2.16867	-102
2.17233	-102
2.17600	-102
2.17967	-102
2.18333	-102
2.18700	-103
2.19067	-103
2.19433	-103
2.19800	-103
2.20167	-102
2.20533	-102
2.20900	-101
2.21267	-101
2.21633	-101
2.22000	-101
2.22367	-101
2.22733	-101
2.23100	-101
2.23467	-100
2.23833	-100
2.24200	-101
2.24567	-101
2.24933	-101
2.25300	-101
2.25667	-101
2.26033	-102
2.26400	-102
2.26767	-103
2.27133	-103
2.27500	-102
2.27867	-102
2.28233	-101
2.28600	-100
2.28967	-99
2.29333	-98
2.29700	-97
2.30067	-97
2.30433	-96
2.30800	-96
2.31167	-95
2.31533	-94
2.31900	-94
2.32267	-93
2.32633	-93
2.33000	-93
2.33367	-94
2.33733	-94
2.34100	-94
2.34467	-94
2.34833	-94
2.35200	-93
2.35567	-92
2.35933	-92
2.36300	-91
2.36667	-90
2.37033	-89
2.37400	-87
2.37767	-85
2.38133	-82
2.38500	-79
2.38867	-75
2.39233	-71
2.39600	-67
2.39967	-62
2.40333	-57
2.40700	-52
2.41067	-47
2.41433	-43
2.41800	-39
2.42167	-35
2.42533	-31
2.42900	-28
2.43267	-26
2.43633	-23
2.44000	-21
2.44367	-18
2.44733	-16
2.45100	-14
2.45467	-12
2.45833	-11
2.46200	-10
2.46567	-9
2.46933	-8
2.47300	-7
2.47667	-7
2.48033	-5
2.48400	-4
2.48767	-3
2.49133	-2
2.49500	-0
2.49867	1
2.50233	1
2.50600	2
2.50967	2
2.51333	2
2.51700	2
2.52067	3
2.52433	3
2.52800	3
2.53167	4
2.53533	5
2.53900	6
2.54267	6
2.54633	7
2.55000	7
2.55367	7
2.55733	8
2.56100	8
2.56467	7
2.56833	7
2.57200	7
2.57567	7
2.57933	8
2.58300	8
2.58667	8
2.59033	9
2.59400	9
2.59767	9
2.60133	10
2.60500	10
2.60867	11
2.61233	12
2.61600	12
2.61967	13
2.62333	13
2.62700	13
2.63067	13
2.63433	12
2.63800	12
2.64167	12
2.64533	12
2.64900	12
2.65267	13
2.65633	13
2.66000	14
2.66367	14
2.66733	15
2.67100	16
2.67467	16
2.67833	16
2.68200	17
2.68567	17
2.68933	17
2.69300	17
2.69667	17
2.70033	17
2.70400	17
2.70767	17
2.71133	17
2.71500	17
2.71867	17
2.72233	17
2.72600	18
2.72967	18
2.73333	18
2.73700	18
2.74067	19
2.74433	19
2.74800	19
2.75167	19
2.75533	20
2.75900	20
2.76267	20
2.76633	20
2.77000	20
2.77367	20
2.77733	20
2.78100	20
2.78467	19
2.78833	18
2.79200	17
2.79567	17
2.79933	17
2.80300	16
2.80667	16
2.81033	15
2.81400	15
2.81767	15
2.82133	15
2.82500	16
2.82867	16
2.83233	16
2.83600	17
2.83967	17
2.84333	17
2.84700	16
2.85067	14
2.85433	11
2.85800	5
2.86167	-3
2.86533	-15
2.86900	-30
2.87267	-49
2.87633	-72
2.88000	-100
2.88367	-131
2.88733	-166
2.89100	-205
2.89467	-246
2.89833	-290
2.90200	-336
2.90567	-384
2.90933	-433
2.91300	-482
2.91667	-532
2.92033	-582
2.92400	-632
2.92767	-682
2.93133	-730
2.93500	-778
2.93867	-827
2.94233	-880
2.94600	-938
2.94967	-1001
2.95333	-1058
2.95700	-1097
2.96067	-1112
2.96433	-1100
2.96800	-1063
2.97167	-1008
2.97533	-939
2.97900	-862
2.98267	-781
2.98633	-701
2.99000	-624
2.99367	-550
2.99733	-483
3.00100	-421
3.00467	-365
3.00833	-315
3.01200	-272
3.01567	-233
3.01933	-200
3.02300	-170
3.02667	-145
3.03033	-123
3.03400	-104
3.03767	-88
3.04133	-74
3.04500	-62
3.04867	-52
3.05233	-43
3.05600	-35
3.05967	-29
3.06333	-23
3.06700	-18
3.07067	-14
3.07433	-11
3.07800	-9
3.08167	-6
3.08533	-4
3.08900	-2
3.09267	-1
3.09633	1
3.10000	2
3.10367	3
3.10733	4
3.11100	5
3.11467	5
3.11833	6
3.12200	7
3.12567	7
3.12933	8
3.13300	8
3.13667	9
3.14033	9
3.14400	10
3.14767	10
3.15133	10
3.15500	10
3.15867	10
3.16233	11
3.16600	11
3.16967	12
3.17333	12
3.17700	13
3.18067	13
3.18433	14
3.18800	14
3.19167	15
3.19533	15
3.19900	16
3.20267	16
3.20633	16
3.21000	17
3.21367	17
3.21733	17
3.22100	18
3.22467	18
3.22833	18
3.23200	18
3.23567	19
3.23933	19
3.24300	19
3.24667	19
3.25033	19
3.25400	19
3.25767	20
3.26133	20
3.26500	20
3.26867	20
3.27233	20
3.27600	20
3.27967	19
3.28333	19
3.28700	20
3.29067	20
3.29433	20
3.29800	20
3.30167	20
3.30533	20
3.30900	20
3.31267	20
3.31633	20
3.32000	20
3.32367	20
3.32733	20
3.33100	21
3.33467	21
3.33833	21
3.34200	21
3.34567	21
3.34933	21
3.35300	21
3.35667	21
3.36033	21
3.36400	22
3.36767	22
3.37133	22
3.37500	22
3.37867	21
3.38233	21
3.38600	20
3.38967	20
3.39333	20
3.39700	20
3.40067	20
3.40433	20
3.40800	20
3.41167	20
3.41533	20
3.41900	20
3.42267	20
3.42633	20
3.43000	20
3.43367	20
3.43733	20
3.44100	20
3.44467	20
3.44833	20
3.45200	20
3.45567	20
3.45933	20
3.46300	20
3.46667	20
3.47033	20
3.47400	21
3.47767	21
3.48133	21
3.48500	21
3.48867	21
3.49233	21
3.49600	21
3.49967	21
3.50333	21
3.50700	20
3.51067	20
3.51433	20
3.51800	20
3.52167	20
3.52533	20
3.52900	20
3.53267	20
3.53633	20
3.54000	20
3.54367	20
3.54733	20
3.55100	20
3.55467	20
3.55833	20
3.56200	20
3.56567	20
3.56933	20
3.57300	20
3.57667	20
3.58033	20
3.58400	20
3.58767	21
3.59133	20
3.59500	20
3.59867	20
3.60233	20
3.60600	20
3.60967	20
3.61333	20
3.61700	20
3.62067	20
3.62433	20
3.62800	20
3.63167	19
3.63533	19
3.63900	19
3.64267	19
3.64633	19
3.65000	19
3.65367	19
3.65733	18
3.66100	18
3.66467	18
3.66833	19
3.67200	19
3.67567	19
3.67933	20
3.68300	20
3.68667	20
3.69033	20
3.69400	20
3.69767	20
3.70133	20
3.70500	20
3.70867	21
3.71233	21
3.71600	21
3.71967	21
3.72333	21
3.72700	21
3.73067	21
3.73433	21
3.73800	21
3.74167	21
3.74533	21
3.74900	21
3.75267	20
3.75633	20
3.76000	20
3.76367	19
3.76733	19
3.77100	19
3.77467	18
3.77833	18
3.78200	18
3.78567	18
3.78933	18
3.79300	18
3.79667	18
3.80033	18
3.80400	18
3.80767	18
3.81133	19
3.81500	19
3.81867	20
3.82233	20
3.82600	21
3.82967	21
3.83333	22
3.83700	22
3.84067	23
3.84433	23
3.84800	23
3.85167	24
3.85533	24
3.85900	25
3.86267	25
3.86633	25
3.87000	26
3.87367	26
3.87733	26
3.88100	26
3.88467	26
3.88833	26
3.89200	27
3.89567	27
3.89933	26
3.90300	26
3.90667	26
3.91033	26
3.91400	26
3.91767	26
3.92133	26
3.92500	25
3.92867	25
3.93233	25
3.93600	25
3.93967	25
3.94333	24
3.94700	24
3.95067	24
3.95433	24
3.95800	24
3.96167	24
3.96533	24
3.96900	24
3.97267	24
3.97633	24
3.98000	24
3.98367	23
3.98733	23
3.99100	23
3.99467	22
3.99833	22

[Chromatogram (Ch3)]
Interval(msec)	220
# of Points	1091
Start Time(min)	0.002
End Time(min)	3.998
R.Time (min)	Intensity
0.00167	0
0.00533	2
0.00900	4
0.01267	5
0.01633	4
0.02000	5
0.02367	4
0.02733	1
0.03100	-1
0.03467	-2
0.03833	-3
0.04200	-4
0.04567	-4
0.04933	-3
0.05300	1
0.05667	4
0.06033	8
0.06400	10
0.06767	10
0.07133	8
0.07500	6
0.07867	5
0.08233	4
0.08600	3
0.08967	4
0.09333	4
0.09700	4
0.10067	5
0.10433	7
0.10800	7
0.11167	9
0.11533	8
0.11900	8
0.12267	7
0.12633	7
0.13000	7
0.13367	5
0.13733	4
0.14100	4
0.14467	2
0.14833	1
0.15200	2
0.15567	4
0.15933	7
0.16300	11
0.16667	11
0.17033	10
0.17400	10
0.17767	10
0.18133	10
0.18500	10
0.18867	9
0.19233	8
0.19600	6
0.19967	3
0.20333	2
0.20700	4
0.21067	7
0.21433	8
0.21800	7
0.22167	5
0.22533	4
0.22900	5
0.23267	6
0.23633	8
0.24000	9
0.24367	9
0.24733	11
0.25100	13
0.25467	12
0.25833	10
0.26200	11
0.26567	12
0.26933	12
0.27300	12
0.27667	10
0.28033	10
0.28400	10
0.28767	13
0.29133	15
0.29500	16
0.29867	16
0.30233	16
0.30600	16
0.30967	15
0.31333	14
0.31700	13
0.32067	12
0.32433	12
0.32800	11
0.33167	10
0.33533	11
0.33900	13
0.34267	14
0.34633	14
0.35000	16
0.35367	17
0.35733	17
0.36100	17
0.36467	16
0.36833	14
0.37200	14
0.37567	17
0.37933	21
0.38300	21
0.38667	19
0.39033	16
0.39400	15
0.39767	16
0.40133	16
0.40500	17
0.40867	17
0.41233	17
0.41600	17
0.41967	17
0.42333	17
0.42700	17
0.43067	15
0.43433	13
0.43800	13
0.44167	15
0.44533	17
0.44900	19
0.45267	21
0.45633	20
0.46000	18
0.46367	18
0.46733	20
0.47100	22
0.47467	24
0.47833	25
0.48200	25
0.48567	24
0.48933	23
0.49300	24
0.49667	24
0.50033	23
0.50400	24
0.50767	25
0.51133	26
0.51500	26
0.51867	25
0.52233	24
0.52600	24
0.52967	23
0.53333	23
0.53700	22
0.54067	22
0.54433	23
0.54800	25
0.55167	25
0.55533	25
0.55900	27
0.56267	27
0.56633	29
0.57000	31
0.57367	32
0.57733	31
0.58100	31
0.58467	30
0.58833	31
0.59200	31
0.59567	30
0.59933	30
0.60300	32
0.60667	32
0.61033	29
0.61400	27
0.61767	25
0.62133	25
0.62500	28
0.62867	29
0.63233	28
0.63600	27
0.63967	26
0.64333	27
0.64700	29
0.65067	29
0.65433	31
0.65800	32
0.66167	32
0.66533	33
0.66900	36
0.67267	36
0.67633	35
0.68000	32
0.68367	31
0.68733	28
0.69100	28
0.69467	27
0.69833	27
0.70200	26
0.70567	27
0.70933	28
0.71300	29
0.71667	31
0.72033	32
0.72400	33
0.72767	33
0.73133	32
0.73500	33
0.73867	34
0.74233	31
0.74600	26
0.74967	23
0.75333	22
0.75700	24
0.76067	26
0.76433	29
0.76800	32
0.77167	34
0.77533	35
0.77900	35
0.78267	36
0.78633	37
0.79000	37
0.79367	35
0.79733	32
0.80100	31
0.80467	30
0.80833	30
0.81200	32
0.81567	35
0.81933	35
0.82300	34
0.82667	35
0.83033	37
0.83400	38
0.83767	39
0.84133	39
0.84500	40
0.84867	41
0.85233	40
0.85600	37
0.85967	35
0.86333	33
0.86700	33
0.87067	32
0.87433	33
0.87800	35
0.88167	38
0.88533	40
0.88900	40
0.89267	39
0.89633	39
0.90000	38
0.90367	38
0.90733	38
0.91100	40
0.91467	41
0.91833	42
0.92200	42
0.92567	42
0.92933	41
0.93300	40
0.93667	38
0.94033	39
0.94400	39
0.94767	39
0.95133	40
0.95500	39
0.95867	40
0.96233	42
0.96600	42
0.96967	42
0.97333	41
0.97700	41
0.98067	42
0.98433	44
0.98800	45
0.99167	45
0.99533	45
0.99900	43
1.00267	43
1.00633	42
1.01000	43
1.01367	45
1.01733	46
1.02100	48
1.02467	48
1.02833	49
1.03200	47
1.03567	45
1.03933	44
1.04300	44
1.04667	45
1.05033	46
1.05400	45
1.05767	44
1.06133	42
1.06500	41
1.06867	42
1.07233	45
1.07600	46
1.07967	46
1.08333	44
1.08700	44
1.09067	45
1.09433	45
1.09800	44
1.10167	43
1.10533	42
1.10900	43
1.11267	45
1.11633	46
1.12000	47
1.12367	47
1.12733	49
1.13100	48
1.13467	49
1.13833	50
1.14200	50
1.14567	50
1.14933	50
1.15300	49
1.15667	49
1.16033	51
1.16400	52
1.16767	52
1.17133	52
1.17500	51
1.17867	49
1.18233	48
1.18600	46
1.18967	46
1.19333	47
1.19700	47
1.20067	48
1.20433	49
1.20800	50
1.21167	49
1.21533	49
1.21900	48
1.22267	47
1.22633	47
1.23000	49
1.23367	50
1.23733	50
1.24100	51
1.24467	53
1.24833	56
1.25200	56
1.25567	55
1.25933	56
1.26300	57
1.26667	58
1.27033	56
1.27400	56
1.27767	55
1.28133	50
1.28500	49
1.28867	48
1.29233	48
1.29600	50
1.29967	53
1.30333	56
1.30700	57
1.31067	59
1.31433	60
1.31800	59
1.32167	57
1.32533	55
1.32900	54
1.33267	55
1.33633	57
1.34000	58
1.34367	59
1.34733	58
1.35100	57
1.35467	57
1.35833	58
1.36200	60
1.36567	62
1.36933	60
1.37300	57
1.37667	54
1.38033	52
1.38400	50
1.38767	50
1.39133	51
1.39500	53
1.39867	55
1.40233	58
1.40600	60
1.40967	59
1.41333	57
1.41700	57
1.42067	58
1.42433	58
1.42800	59
1.43167	60
1.43533	62
1.43900	64
1.44267	65
1.44633	65
1.45000	62
1.45367	62
1.45733	62
1.46100	61
1.46467	60
1.46833	58
1.47200	57
1.47567	56
1.47933	57
1.48300	56
1.48667	56
1.49033	55
1.49400	55
1.49767	56
1.50133	57
1.50500	57
1.50867	57
1.51233	61
1.51600	63
1.51967	61
1.52333	58
1.52700	56
1.53067	57
1.53433	59
1.53800	59
1.54167	58
1.54533	57
1.54900	56
1.55267	57
1.55633	58
1.56000	59
1.56367	61
1.56733	62
1.57100	63
1.57467	64
1.57833	64
1.58200	64
1.58567	64
1.58933	64
1.59300	65
1.59667	65
1.60033	63
1.60400	64
1.60767	67
1.61133	69
1.61500	69
1.61867	69
1.62233	68
1.62600	67
1.62967	67
1.63333	69
1.63700	70
1.64067	71
1.64433	72
1.64800	70
1.65167	69
1.65533	71
1.65900	73
1.66267	75
1.66633	75
1.67000	73
1.67367	73
1.67733	75
1.68100	78
1.68467	81
1.68833	83
1.69200	82
1.69567	82
1.69933	82
1.70300	83
1.70667	83
1.71033	83
1.71400	85
1.71767	84
1.72133	84
1.72500	85
1.72867	86
1.73233	88
1.73600	92
1.73967	94
1.74333	94
1.74700	92
1.75067	91
1.75433	92
1.75800	95
1.76167	96
1.76533	97
1.76900	99
1.77267	101
1.77633	100
1.78000	97
1.78367	98
1.78733	100
1.79100	101
1.79467	101
1.79833	102
1.80200	103
1.80567	105
1.80933	107
1.81300	108
1.81667	110
1.82033	110
1.82400	109
1.82767	111
1.83133	112
1.83500	111
1.83867	111
1.84233	111
1.84600	112
1.84967	111
1.85333	110
1.85700	110
1.86067	109
1.86433	107
1.86800	106
1.87167	105
1.87533	105
1.87900	108
1.88267	111
1.88633	114
1.89000	116
1.89367	116
1.89733	116
1.90100	116
1.90467	115
1.90833	114
1.91200	113
1.91567	113
1.91933	115
1.92300	117
1.92667	118
1.93033	119
1.93400	120
1.93767	121
1.94133	123
1.94500	123
1.94867	124
1.95233	126
1.95600	129
1.95967	133
1.96333	136
1.96700	136
1.97067	135
1.97433	134
1.97800	135
1.98167	135
1.98533	134
1.98900	135
1.99267	134
1.99633	134
2.00000	135
2.00367	137
2.00733	139
2.01100	139
2.01467	138
2.01833	141
2.02200	142
2.02567	144
2.02933	145
2.03300	144
2.03667	141
2.04033	141
2.04400	144
2.04767	148
2.05133	152
2.05500	154
2.05867	154
2.06233	154
2.06600	155
2.06967	156
2.07333	157
2.07700	159
2.08067	160
2.08433	159
2.08800	160
2.09167	162
2.09533	165
2.09900	168
2.10267	168
2.10633	169
2.11000	171
2.11367	173
2.11733	175
2.12100	176
2.12467	178
2.12833	179
2.13200	179
2.13567	180
2.13933	182
2.14300	183
2.14667	185
2.15033	186
2.15400	188
2.15767	189
2.16133	190
2.16500	190
2.16867	189
2.17233	190
2.17600	193
2.17967	197
2.18333	202
2.18700	205
2.19067	205
2.19433	204
2.19800	204
2.20167	203
2.20533	205
2.20900	204
2.21267	203
2.21633	204
2.22000	205
2.22367	205
2.22733	205
2.23100	206
2.23467	206
2.23833	206
2.24200	206
2.24567	206
2.24933	210
2.25300	215
2.25667	216
2.26033	218
2.26400	222
2.26767	224
2.27133	225
2.27500	224
2.27867	222
2.28233	222
2.28600	221
2.28967	220
2.29333	220
2.29700	220
2.30067	222
2.30433	228
2.30800	232
2.31167	236
2.31533	236
2.31900	236
2.32267	236
2.32633	238
2.33000	240
2.33367	240
2.33733	240
2.34100	239
2.34467	239
2.34833	239
2.35200	240
2.35567	239
2.35933	240
2.36300	242
2.36667	244
2.37033	246
2.37400	248
2.37767	248
2.38133	249
2.38500	250
2.38867	249
2.39233	247
2.39600	247
2.39967	245
2.40333	244
2.40700	244
2.41067	244
2.41433	244
2.41800	245
2.42167	247
2.42533	251
2.42900	256
2.43267	258
2.43633	260
2.44000	261
2.44367	266
2.44733	272
2.45100	276
2.45467	277
2.45833	274
2.46200	268
2.46567	262
2.46933	258
2.47300	255
2.47667	251
2.48033	247
2.48400	245
2.48767	244
2.49133	240
2.49500	234
2.49867	227
2.50233	219
2.50600	210
2.50967	202
2.51333	196
2.51700	190
2.52067	186
2.52433	180
2.52800	174
2.53167	168
2.53533	135
2.53900	79
2.54267	56
2.54633	77
2.55000	132
2.55367	207
2.55733	292
2.56100	378
2.56467	460
2.56833	537
2.57200	608
2.57567	671
2.57933	727
2.58300	776
2.58667	818
2.59033	858
2.59400	892
2.59767	922
2.60133	943
2.60500	956
2.60867	961
2.61233	958
2.61600	952
2.61967	940
2.62333	925
2.62700	906
2.63067	885
2.63433	866
2.63800	851
2.64167	842
2.64533	838
2.64900	834
2.65267	831
2.65633	829
2.66000	830
2.66367	833
2.66733	838
2.67100	842
2.67467	845
2.67833	846
2.68200	848
2.68567	852
2.68933	856
2.69300	860
2.69667	862
2.70033	865
2.70400	867
2.70767	867
2.71133	867
2.71500	867
2.71867	864
2.72233	865
2.72600	867
2.72967	865
2.73333	862
2.73700	859
2.74067	857
2.74433	853
2.74800	848
2.75167	843
2.75533	839
2.75900	834
2.76267	830
2.76633	830
2.77000	830
2.77367	827
2.77733	824
2.78100	821
2.78467	818
2.78833	815
2.79200	813
2.79567	812
2.79933	811
2.80300	809
2.80667	806
2.81033	804
2.81400	801
2.81767	798
2.82133	798
2.82500	805
2.82867	824
2.83233	863
2.83600	940
2.83967	1076
2.84333	1292
2.84700	1603
2.85067	2016
2.85433	2525
2.85800	3104
2.86167	3710
2.86533	4297
2.86900	4818
2.87267	5239
2.87633	5529
2.88000	5670
2.88367	5667
2.88733	5543
2.89100	5324
2.89467	5036
2.89833	4703
2.90200	4349
2.90567	3993
2.90933	3652
2.91300	3331
2.91667	3032
2.92033	2758
2.92400	2513
2.92767	2297
2.93133	2103
2.93500	1930
2.93867	1778
2.94233	1644
2.94600	1527
2.94967	1425
2.95333	1336
2.95700	1259
2.96067	1192
2.96433	1132
2.96800	1078
2.97167	1032
2.97533	992
2.97900	959
2.98267	928
2.98633	899
2.99000	875
2.99367	853
2.99733	831
3.00100	809
3.00467	790
3.00833	775
3.01200	760
3.01567	746
3.01933	735
3.02300	723
3.02667	711
3.03033	701
3.03400	692
3.03767	685
3.04133	676
3.04500	668
3.04867	661
3.05233	656
3.05600	651
3.05967	645
3.06333	640
3.06700	636
3.07067	633
3.07433	630
3.07800	625
3.08167	620
3.08533	617
3.08900	613
3.09267	608
3.09633	604
3.10000	601
3.10367	598
3.10733	594
3.11100	588
3.11467	582
3.11833	579
3.12200	577
3.12567	575
3.12933	573
3.13300	570
3.13667	564
3.14033	559
3.14400	557
3.14767	555
3.15133	551
3.15500	547
3.15867	542
3.16233	540
3.16600	539
3.16967	539
3.17333	538
3.17700	536
3.18067	533
3.18433	529
3.18800	525
3.19167	522
3.19533	519
3.19900	515
3.20267	512
3.20633	511
3.21000	510
3.21367	507
3.21733	502
3.22100	497
3.22467	494
3.22833	490
3.23200	488
3.23567	488
3.23933	485
3.24300	483
3.24667	481
3.25033	479
3.25400	478
3.25767	477
3.26133	473
3.26500	468
3.26867	464
3.27233	460
3.27600	455
3.27967	452
3.28333	451
3.28700	449
3.29067	447
3.29433	445
3.29800	443
3.30167	439
3.30533	432
3.30900	426
3.31267	422
3.31633	420
3.32000	418
3.32367	418
3.32733	418
3.33100	417
3.33467	415
3.33833	413
3.34200	411
3.34567	409
3.34933	405
3.35300	401
3.35667	395
3.36033	389
3.36400	387
3.36767	386
3.37133	383
3.37500	380
3.37867	380
3.38233	379
3.38600	378
3.38967	377
3.39333	373
3.39700	369
3.40067	366
3.40433	367
3.40800	365
3.41167	362
3.41533	358
3.41900	353
3.42267	349
3.42633	345
3.43000	342
3.43367	339
3.43733	338
3.44100	339
3.44467	340
3.44833	338
3.45200	334
3.45567	329
3.45933	327
3.46300	323
3.46667	321
3.47033	319
3.47400	317
3.47767	316
3.48133	314
3.48500	312
3.48867	312
3.49233	309
3.49600	307
3.49967	305
3.50333	304
3.50700	302
3.51067	301
3.51433	299
3.51800	296
3.52167	294
3.52533	293
3.52900	293
3.53267	290
3.53633	287
3.54000	286
3.54367	286
3.54733	286
3.55100	286
3.55467	286
3.55833	285
3.56200	282
3.56567	279
3.56933	277
3.57300	278
3.57667	278
3.58033	277
3.58400	274
3.58767	273
3.59133	272
3.59500	270
3.59867	269
3.60233	267
3.60600	263
3.60967	259
3.61333	255
3.61700	252
3.62067	249
3.62433	249
3.62800	249
3.63167	249
3.63533	248
3.63900	248
3.64267	249
3.64633	250
3.65000	249
3.65367	246
3.65733	243
3.66100	241
3.66467	240
3.66833	238
3.67200	235
3.67567	234
3.67933	232
3.68300	229
3.68667	228
3.69033	227
3.69400	225
3.69767	224
3.70133	223
3.70500	221
3.70867	220
3.71233	219
3.71600	218
3.71967	220
3.72333	223
3.72700	223
3.73067	222
3.73433	219
3.73800	217
3.74167	216
3.74533	215
3.74900	214
3.75267	211
3.75633	209
3.76000	208
3.76367	208
3.76733	207
3.77100	206
3.77467	207
3.77833	207
3.78200	205
3.78567	203
3.78933	202
3.79300	202
3.79667	201
3.80033	200
3.80400	199
3.80767	197
3.81133	195
3.81500	193
3.81867	193
3.82233	192
3.82600	190
3.82967	190
3.83333	189
3.83700	188
3.84067	189
3.84433	190
3.84800	190
3.85167	189
3.85533	187
3.85900	184
3.86267	181
3.86633	179
3.87000	178
3.87367	178
3.87733	178
3.88100	181
3.88467	183
3.88833	182
3.89200	181
3.89567	180
3.89933	177
3.90300	174
3.90667	172
3.91033	172
3.91400	173
3.91767	172
3.92133	170
3.92500	170
3.92867	170
3.93233	169
3.93600	170
3.93967	168
3.94333	166
3.94700	162
3.95067	160
3.95433	160
3.95800	159
3.96167	157
3.96533	156
3.96900	156
3.97267	156
3.97633	155
3.98000	156
3.98367	156
3.98733	157
3.99100	157
3.99467	156
3.99833	155

[Status Trace (Column Oven Temperature)]
Interval(msec)	1000
# of Points	240
Start Time(min)	0.010
End Time(min)	3.993
Intensity Units	
Intensity Multiplier	1
R.Time (min)	Intensity
0.00980	34.98
0.02647	34.98
0.04313	34.98
0.05980	34.99
0.07647	35.00
0.09313	35.01
0.10980	35.02
0.12647	35.02
0.14313	35.02
0.15980	35.01
0.17647	35.00
0.19313	34.99
0.20980	34.98
0.22647	34.97
0.24313	34.96
0.25980	34.96
0.27647	34.97
0.29313	34.96
0.30980	34.96
0.32647	34.96
0.34313	34.96
0.35980	34.97
0.37647	34.98
0.39313	34.99
0.40980	35.00
0.42647	35.01
0.44313	35.00
0.45980	35.00
0.47647	34.99
0.49313	35.00
0.50980	35.01
0.52647	35.01
0.54313	35.02
0.55980	35.02
0.57647	35.03
0.59313	35.03
0.60980	35.01
0.62647	35.01
0.64313	35.00
0.65980	35.00
0.67647	35.00
0.69313	34.99
0.70980	35.00
0.72647	34.99
0.74313	35.00
0.75980	35.00
0.77647	34.99
0.79313	34.99
0.80980	34.99
0.82647	35.00
0.84313	35.01
0.85980	35.02
0.87647	35.02
0.89313	35.02
0.90980	35.02
0.92647	35.01
0.94313	35.00
0.95980	34.99
0.97647	34.98
0.99313	34.97
1.00980	34.97
1.02647	34.98
1.04313	34.98
1.05980	34.98
1.07647	34.98
1.09313	34.98
1.10980	34.98
1.12647	34.98
1.14313	34.98
1.15980	34.99
1.17647	35.00
1.19313	35.01
1.20980	35.01
1.22647	35.02
1.24313	35.02
1.25980	35.02
1.27647	35.04
1.29313	35.05
1.30980	35.04
1.32647	35.04
1.34313	35.05
1.35980	35.04
1.37647	35.05
1.39313	35.04
1.40980	35.04
1.42647	35.03
1.44313	35.01
1.45980	34.99
1.47647	34.97
1.49313	34.96
1.50980	34.97
1.52647	34.96
1.54313	34.96
1.55980	34.97
1.57647	34.97
1.59313	34.99
1.60980	35.06
1.62647	35.20
1.64313	35.40
1.65980	35.65
1.67647	35.99
1.69313	36.35
1.70980	36.71
1.72647	37.07
1.74313	37.37
1.75980	37.69
1.77647	38.04
1.79313	38.36
1.80980	38.70
1.82647	39.04
1.84313	39.36
1.85980	39.71
1.87647	40.03
1.89313	40.37
1.90980	40.69
1.92647	41.03
1.94313	41.35
1.95980	41.67
1.97647	42.00
1.99313	42.33
2.00980	42.65
2.02647	42.99
2.04313	43.30
2.05980	43.61
2.07647	43.95
2.09313	44.27
2.10980	44.59
2.12647	44.92
2.14313	45.24
2.15980	45.56
2.17647	45.87
2.19313	46.21
2.20980	46.52
2.22647	46.85
2.24313	47.17
2.25980	47.53
2.27647	47.86
2.29313	48.18
2.30980	48.51
2.32647	48.85
2.34313	49.18
2.35980	49.46
2.37647	49.64
2.39313	49.70
2.40980	49.69
2.42647	49.70
2.44313	49.70
2.45980	49.72
2.47647	49.73
2.49313	49.73
2.50980	49.76
2.52647	49.78
2.54313	49.79
2.55980	49.81
2.57647	49.82
2.59313	49.82
2.60980	49.82
2.62647	49.84
2.64313	49.86
2.65980	49.85
2.67647	49.85
2.69313	49.86
2.70980	49.85
2.72647	49.86
2.74313	49.85
2.75980	49.85
2.77647	49.86
2.79313	49.90
2.80980	49.92
2.82647	49.93
2.84313	49.95
2.85980	49.96
2.87647	49.97
2.89313	49.97
2.90980	49.97
2.92647	49.99
2.94313	50.00
2.95980	50.01
2.97647	50.03
2.99313	50.04
3.00980	50.04
3.02647	50.05
3.04313	50.05
3.05980	50.05
3.07647	50.06
3.09313	50.07
3.10980	50.08
3.12647	50.09
3.14313	50.10
3.15980	50.11
3.17647	50.11
3.19313	50.10
3.20980	50.08
3.22647	50.08
3.24313	50.07
3.25980	50.06
3.27647	50.06
3.29313	50.06
3.30980	50.05
3.32647	50.05
3.34313	50.03
3.35980	50.02
3.37647	50.02
3.39313	50.03
3.40980	50.03
3.42647	50.03
3.44313	50.03
3.45980	50.03
3.47647	50.02
3.49313	50.03
3.50980	50.03
3.52647	50.04
3.54313	50.03
3.55980	50.04
3.57647	50.04
3.59313	50.05
3.60980	50.05
3.62647	50.06
3.64313	50.07
3.65980	50.07
3.67647	50.07
3.69313	50.06
3.70980	50.06
3.72647	50.06
3.74313	50.07
3.75980	50.08
3.77647	50.10
3.79313	50.11
3.80980	50.11
3.82647	50.10
3.84313	50.08
3.85980	50.06
3.87647	50.03
3.89313	50.01
3.90980	49.99
3.92647	49.98
3.94313	49.97
3.95980	49.96
3.97647	49.95
3.99313	49.95

[Status Trace (Injection Unit Temperature)]
Interval(msec)	1000
# of Points	240
Start Time(min)	0.010
End Time(min)	3.993
Intensity Units	
Intensity Multiplier	1
R.Time (min)	Intensity
0.00980	99.99
0.02647	99.98
0.04313	99.99
0.05980	99.99
0.07647	99.98
0.09313	99.99
0.10980	99.98
0.12647	99.99
0.14313	99.99
0.15980	99.98
0.17647	99.98
0.19313	99.98
0.20980	99.98
0.22647	99.99
0.24313	99.98
0.25980	99.99
0.27647	99.99
0.29313	99.99
0.30980	99.98
0.32647	99.98
0.34313	99.98
0.35980	99.98
0.37647	99.98
0.39313	99.99
0.40980	99.98
0.42647	99.99
0.44313	99.99
0.45980	99.98
0.47647	99.99
0.49313	99.98
0.50980	99.99
0.52647	99.98
0.54313	99.98
0.55980	99.98
0.57647	99.98
0.59313	99.98
0.60980	99.98
0.62647	99.98
0.64313	99.99
0.65980	99.98
0.67647	99.98
0.69313	99.99
0.70980	99.98
0.72647	99.98
0.74313	99.99
0.75980	99.98
0.77647	99.98
0.79313	99.99
0.80980	99.98
0.82647	99.98
0.84313	99.98
0.85980	99.98
0.87647	99.99
0.89313	99.98
0.90980	99.99
0.92647	99.98
0.94313	99.98
0.95980	99.98
0.97647	99.99
0.99313	99.98
1.00980	99.98
1.02647	99.98
1.04313	99.98
1.05980	99.98
1.07647	99.98
1.09313	99.99
1.10980	99.98
1.12647	99.98
1.14313	99.98
1.15980	99.99
1.17647	99.98
1.19313	99.99
1.20980	99.99
1.22647	99.98
1.24313	99.98
1.25980	99.99
1.27647	99.98
1.29313	99.98
1.30980	99.99
1.32647	99.99
1.34313	99.98
1.35980	99.99
1.37647	99.99
1.39313	99.99
1.40980	99.99
1.42647	99.99
1.44313	99.99
1.45980	99.98
1.47647	99.99
1.49313	99.99
1.50980	99.99
1.52647	99.99
1.54313	99.99
1.55980	99.98
1.57647	99.99
1.59313	99.99
1.60980	99.99
1.62647	99.99
1.64313	99.99
1.65980	99.99
1.67647	99.99
1.69313	99.99
1.70980	99.99
1.72647	99.99
1.74313	99.99
1.75980	99.99
1.77647	99.99
1.79313	99.99
1.80980	99.99
1.82647	99.98
1.84313	99.98
1.85980	99.99
1.87647	99.99
1.89313	99.99
1.90980	99.98
1.92647	99.98
1.94313	99.98
1.95980	99.98
1.97647	99.98
1.99313	99.98
2.00980	99.98
2.02647	99.98
2.04313	99.98
2.05980	99.98
2.07647	99.98
2.09313	99.97
2.10980	99.97
2.12647	99.97
2.14313	99.97
2.15980	99.97
2.17647	99.97
2.19313	99.97
2.20980	99.97
2.22647	99.97
2.24313	99.97
2.25980	99.97
2.27647	99.97
2.29313	99.97
2.30980	99.97
2.32647	99.97
2.34313	99.97
2.35980	99.97
2.37647	99.97
2.39313	99.97
2.40980	99.97
2.42647	99.97
2.44313	99.98
2.45980	99.97
2.47647	99.97
2.49313	99.97
2.50980	99.98
2.52647	99.98
2.54313	99.98
2.55980	99.97
2.57647	99.98
2.59313	99.98
2.60980	99.98
2.62647	99.98
2.64313	99.98
2.65980	99.98
2.67647	99.99
2.69313	99.99
2.70980	99.99
2.72647	99.99
2.74313	99.99
2.75980	99.99
2.77647	100.00
2.79313	100.00
2.80980	100.00
2.82647	99.99
2.84313	100.00
2.85980	100.00
2.87647	100.00
2.89313	100.00
2.90980	100.01
2.92647	100.01
2.94313	100.01
2.95980	100.01
2.97647	100.01
2.99313	100.01
3.00980	100.01
3.02647	100.01
3.04313	100.02
3.05980	100.01
3.07647	100.01
3.09313	100.02
3.10980	100.02
3.12647	100.02
3.14313	100.02
3.15980	100.02
3.17647	100.02
3.19313	100.03
3.20980	100.03
3.22647	100.03
3.24313	100.03
3.25980	100.03
3.27647	100.03
3.29313	100.03
3.30980	100.03
3.32647	100.04
3.34313	100.04
3.35980	100.03
3.37647	100.04
3.39313	100.04
3.40980	100.04
3.42647	100.04
3.44313	100.04
3.45980	100.04
3.47647	100.04
3.49313	100.04
3.50980	100.04
3.52647	100.04
3.54313	100.04
3.55980	100.05
3.57647	100.05
3.59313	100.05
3.60980	100.05
3.62647	100.04
3.64313	100.05
3.65980	100.05
3.67647	100.05
3.69313	100.04
3.70980	100.05
3.72647	100.05
3.74313	100.05
3.75980	100.05
3.77647	100.05
3.79313	100.05
3.80980	100.05
3.82647	100.05
3.84313	100.05
3.85980	100.05
3.87647	100.05
3.89313	100.05
3.90980	100.05
3.92647	100.05
3.94313	100.05
3.95980	100.05
3.97647	100.05
3.99313	100.05

[Status Trace (Carrier Gas Pressure)]
Interval(msec)	1000
# of Points	240
Start Time(min)	0.010
End Time(min)	3.993
Intensity Units	
Intensity Multiplier	1
R.Time (min)	Intensity
0.00980	58.00
0.02647	55.11
0.04313	57.26
0.05980	59.36
0.07647	59.31
0.09313	58.06
0.10980	57.98
0.12647	58.01
0.14313	58.01
0.15980	58.00
0.17647	58.00
0.19313	58.00
0.20980	58.00
0.22647	58.00
0.24313	58.00
0.25980	58.00
0.27647	58.00
0.29313	58.00
0.30980	58.00
0.32647	58.00
0.34313	58.00
0.35980	58.00
0.37647	58.00
0.39313	58.00
0.40980	58.00
0.42647	58.00
0.44313	58.00
0.45980	58.00
0.47647	58.00
0.49313	58.00
0.50980	58.00
0.52647	58.00
0.54313	58.00
0.55980	58.00
0.57647	58.00
0.59313	58.00
0.60980	58.00
0.62647	58.00
0.64313	58.00
0.65980	58.00
0.67647	58.00
0.69313	58.00
0.70980	58.00
0.72647	58.00
0.74313	58.00
0.75980	58.00
0.77647	58.00
0.79313	58.00
0.80980	58.00
0.82647	58.00
0.84313	58.00
0.85980	58.00
0.87647	58.00
0.89313	58.00
0.90980	58.00
0.92647	58.00
0.94313	58.00
0.95980	58.00
0.97647	58.00
0.99313	58.00
1.00980	58.00
1.02647	58.00
1.04313	58.00
1.05980	58.00
1.07647	58.00
1.09313	58.00
1.10980	58.00
1.12647	58.00
1.14313	58.00
1.15980	58.00
1.17647	58.00
1.19313	58.00
1.20980	58.00
1.22647	58.00
1.24313	58.00
1.25980	58.00
1.27647	58.00
1.29313	58.00
1.30980	58.00
1.32647	58.00
1.34313	58.00
1.35980	58.00
1.37647	58.00
1.39313	58.00
1.40980	58.00
1.42647	58.00
1.44313	58.00
1.45980	58.00
1.47647	58.00
1.49313	58.00
1.50980	58.00
1.52647	58.00
1.54313	58.00
1.55980	58.00
1.57647	58.00
1.59313	58.00
1.60980	58.00
1.62647	58.01
1.64313	58.00
1.65980	58.00
1.67647	58.01
1.69313	58.00
1.70980	58.00
1.72647	58.00
1.74313	58.00
1.75980	58.00
1.77647	58.00
1.79313	58.00
1.80980	58.00
1.82647	58.00
1.84313	58.00
1.85980	58.00
1.87647	58.00
1.89313	58.00
1.90980	58.00
1.92647	58.00
1.94313	58.00
1.95980	58.00
1.97647	58.00
1.99313	58.00
2.00980	58.00
2.02647	58.00
2.04313	58.00
2.05980	58.00
2.07647	58.00
2.09313	58.00
2.10980	58.00
2.12647	58.00
2.14313	58.00
2.15980	58.00
2.17647	58.00
2.19313	58.00
2.20980	58.00
2.22647	58.00
2.24313	58.00
2.25980	58.00
2.27647	58.00
2.29313	58.00
2.30980	58.00
2.32647	58.00
2.34313	58.00
2.35980	58.00
2.37647	58.00
2.39313	57.99
2.40980	57.99
2.42647	58.00
2.44313	58.00
2.45980	58.00
2.47647	58.00
2.49313	58.00
2.50980	58.00
2.52647	57.98
2.54313	58.00
2.55980	58.00
2.57647	58.00
2.59313	58.00
2.60980	58.00
2.62647	58.00
2.64313	58.00
2.65980	58.00
2.67647	58.00
2.69313	58.00
2.70980	58.00
2.72647	58.00
2.74313	58.00
2.75980	58.00
2.77647	58.00
2.79313	58.00
2.80980	58.00
2.82647	58.00
2.84313	58.00
2.85980	58.00
2.87647	58.00
2.89313	58.00
2.90980	58.00
2.92647	58.00
2.94313	58.00
2.95980	58.00
2.97647	58.00
2.99313	58.00
3.00980	58.00
3.02647	58.00
3.04313	58.00
3.05980	58.00
3.07647	58.00
3.09313	58.00
3.10980	58.00
3.12647	58.00
3.14313	58.00
3.15980	58.00
3.17647	58.00
3.19313	58.00
3.20980	58.00
3.22647	58.00
3.24313	58.00
3.25980	58.00
3.27647	58.00
3.29313	58.00
3.30980	58.00
3.32647	58.00
3.34313	58.00
3.35980	58.00
3.37647	58.00
3.39313	58.00
3.40980	58.00
3.42647	58.00
3.44313	58.00
3.45980	58.00
3.47647	58.00
3.49313	58.00
3.50980	58.00
3.52647	58.00
3.54313	58.00
3.55980	58.00
3.57647	58.00
3.59313	58.00
3.60980	58.00
3.62647	58.00
3.64313	58.00
3.65980	58.00
3.67647	58.00
3.69313	58.00
3.70980	58.00
3.72647	58.00
3.74313	58.00
3.75980	58.00
3.77647	58.00
3.79313	58.00
3.80980	58.00
3.82647	58.00
3.84313	58.00
3.85980	58.00
3.87647	58.00
3.89313	58.00
3.90980	58.00
3.92647	58.00
3.94313	58.00
3.95980	58.00
3.97647	58.00
3.99313	58.00

[Status Trace (Carrier Gas Flow)]
Interval(msec)	1000
# of Points	240
Start Time(min)	0.010
End Time(min)	3.993
Intensity Units	
Intensity Multiplier	1
R.Time (min)	Intensity
0.00980	34.51
0.02647	34.54
0.04313	34.54
0.05980	34.54
0.07647	34.50
0.09313	34.52
0.10980	34.52
0.12647	34.52
0.14313	34.52
0.15980	34.52
0.17647	34.52
0.19313	34.52
0.20980	34.52
0.22647	34.52
0.24313	34.52
0.25980	34.52
0.27647	34.52
0.29313	34.52
0.30980	34.52
0.32647	34.52
0.34313	34.52
0.35980	34.52
0.37647	34.51
0.39313	34.52
0.40980	34.52
0.42647	34.52
0.44313	34.52
0.45980	34.52
0.47647	34.52
0.49313	34.52
0.50980	34.52
0.52647	34.52
0.54313	34.52
0.55980	34.52
0.57647	34.52
0.59313	34.52
0.60980	34.52
0.62647	34.52
0.64313	34.52
0.65980	34.52
0.67647	34.52
0.69313	34.52
0.70980	34.52
0.72647	34.52
0.74313	34.52
0.75980	34.52
0.77647	34.52
0.79313	34.52
0.80980	34.52
0.82647	34.52
0.84313	34.52
0.85980	34.52
0.87647	34.52
0.89313	34.52
0.90980	34.52
0.92647	34.52
0.94313	34.52
0.95980	34.52
0.97647	34.52
0.99313	34.52
1.00980	34.52
1.02647	34.52
1.04313	34.52
1.05980	34.52
1.07647	34.52
1.09313	34.52
1.10980	34.52
1.12647	34.52
1.14313	34.52
1.15980	34.52
1.17647	34.52
1.19313	34.52
1.20980	34.52
1.22647	34.52
1.24313	34.52
1.25980	34.52
1.27647	34.52
1.29313	34.52
1.30980	34.52
1.32647	34.52
1.34313	34.52
1.35980	34.52
1.37647	34.52
1.39313	34.52
1.40980	34.52
1.42647	34.52
1.44313	34.52
1.45980	34.52
1.47647	34.52
1.49313	34.52
1.50980	34.52
1.52647	34.52
1.54313	34.52
1.55980	34.52
1.57647	34.52
1.59313	34.52
1.60980	34.52
1.62647	34.52
1.64313	34.52
1.65980	34.52
1.67647	34.52
1.69313	34.52
1.70980	34.52
1.72647	34.52
1.74313	34.52
1.75980	34.52
1.77647	34.52
1.79313	34.52
1.80980	34.52
1.82647	34.52
1.84313	34.52
1.85980	34.52
1.87647	34.53
1.89313	34.52
1.90980	34.52
1.92647	34.52
1.94313	34.53
1.95980	34.51
1.97647	34.52
1.99313	34.52
2.00980	34.53
2.02647	34.52
2.04313	34.52
2.05980	34.52
2.07647	34.52
2.09313	34.52
2.10980	34.52
2.12647	34.52
2.14313	34.52
2.15980	34.52
2.17647	34.51
2.19313	34.52
2.20980	34.52
2.22647	34.52
2.24313	34.52
2.25980	34.52
2.27647	34.52
2.29313	34.52
2.30980	34.52
2.32647	34.52
2.34313	34.52
2.35980	34.51
2.37647	34.52
2.39313	34.52
2.40980	34.52
2.42647	34.52
2.44313	34.52
2.45980	34.52
2.47647	34.52
2.49313	34.52
2.50980	34.51
2.52647	34.52
2.54313	34.52
2.55980	34.52
2.57647	34.52
2.59313	34.52
2.60980	34.52
2.62647	34.52
2.64313	34.52
2.65980	34.52
2.67647	34.52
2.69313	34.52
2.70980	34.52
2.72647	34.52
2.74313	34.52
2.75980	34.52
2.77647	34.52
2.79313	34.52
2.80980	34.52
2.82647	34.52
2.84313	34.52
2.85980	34.52
2.87647	34.52
2.89313	34.52
2.90980	34.52
2.92647	34.52
2.94313	34.52
2.95980	34.52
2.97647	34.52
2.99313	34.52
3.00980	34.52
3.02647	34.52
3.04313	34.52
3.05980	34.52
3.07647	34.52
3.09313	34.52
3.10980	34.52
3.12647	34.52
3.14313	34.52
3.15980	34.52
3.17647	34.52
3.19313	34.52
3.20980	34.52
3.22647	34.52
3.24313	34.52
3.25980	34.52
3.27647	34.52
3.29313	34.52
3.30980	34.51
3.32647	34.52
3.34313	34.52
3.35980	34.51
3.37647	34.52
3.39313	34.51
3.40980	34.52
3.42647	34.52
3.44313	34.52
3.45980	34.52
3.47647	34.51
3.49313	34.51
3.50980	34.53
3.52647	34.52
3.54313	34.52
3.55980	34.51
3.57647	34.52
3.59313	34.53
3.60980	34.52
3.62647	34.53
3.64313	34.53
3.65980	34.52
3.67647	34.52
3.69313	34.51
3.70980	34.51
3.72647	34.52
3.74313	34.52
3.75980	34.52
3.77647	34.52
3.79313	34.52
3.80980	34.52
3.82647	34.52
3.84313	34.52
3.85980	34.52
3.87647	34.52
3.89313	34.52
3.90980	34.52
3.92647	34.52
3.94313	34.52
3.95980	34.52
3.97647	34.52
3.99313	34.52

[Status Trace (Column Flow)]
Interval(msec)	1000
# of Points	240
Start Time(min)	0.010
End Time(min)	3.993
Intensity Units	
Intensity Multiplier	1
R.Time (min)	Intensity
0.00980	5.57
0.02647	5.24
0.04313	5.49
0.05980	5.73
0.07647	5.73
0.09313	5.58
0.10980	5.57
0.12647	5.57
0.14313	5.57
0.15980	5.57
0.17647	5.57
0.19313	5.57
0.20980	5.57
0.22647	5.57
0.24313	5.57
0.25980	5.57
0.27647	5.57
0.29313	5.57
0.30980	5.57
0.32647	5.57
0.34313	5.57
0.35980	5.57
0.37647	5.57
0.39313	5.57
0.40980	5.57
0.42647	5.57
0.44313	5.57
0.45980	5.57
0.47647	5.57
0.49313	5.57
0.50980	5.57
0.52647	5.57
0.54313	5.57
0.55980	5.57
0.57647	5.57
0.59313	5.57
0.60980	5.57
0.62647	5.57
0.64313	5.57
0.65980	5.57
0.67647	5.57
0.69313	5.57
0.70980	5.57
0.72647	5.57
0.74313	5.57
0.75980	5.57
0.77647	5.57
0.79313	5.57
0.80980	5.57
0.82647	5.57
0.84313	5.57
0.85980	5.57
0.87647	5.57
0.89313	5.57
0.90980	5.57
0.92647	5.57
0.94313	5.57
0.95980	5.57
0.97647	5.57
0.99313	5.57
1.00980	5.57
1.02647	5.57
1.04313	5.57
1.05980	5.57
1.07647	5.57
1.09313	5.57
1.10980	5.57
1.12647	5.57
1.14313	5.57
1.15980	5.57
1.17647	5.57
1.19313	5.57
1.20980	5.57
1.22647	5.57
1.24313	5.57
1.25980	5.57
1.27647	5.57
1.29313	5.57
1.30980	5.57
1.32647	5.57
1.34313	5.57
1.35980	5.57
1.37647	5.57
1.39313	5.57
1.40980	5.57
1.42647	5.57
1.44313	5.57
1.45980	5.57
1.47647	5.57
1.49313	5.57
1.50980	5.57
1.52647	5.57
1.54313	5.57
1.55980	5.57
1.57647	5.57
1.59313	5.57
1.60980	5.57
1.62647	5.57
1.64313	5.56
1.65980	5.55
1.67647	5.54
1.69313	5.53
1.70980	5.52
1.72647	5.51
1.74313	5.50
1.75980	5.49
1.77647	5.48
1.79313	5.47
1.80980	5.46
1.82647	5.45
1.84313	5.44
1.85980	5.43
1.87647	5.42
1.89313	5.41
1.90980	5.40
1.92647	5.39
1.94313	5.38
1.95980	5.37
1.97647	5.36
1.99313	5.35
2.00980	5.34
2.02647	5.33
2.04313	5.32
2.05980	5.31
2.07647	5.30
2.09313	5.29
2.10980	5.28
2.12647	5.27
2.14313	5.26
2.15980	5.25
2.17647	5.24
2.19313	5.23
2.20980	5.22
2.22647	5.21
2.24313	5.21
2.25980	5.20
2.27647	5.19
2.29313	5.18
2.30980	5.17
2.32647	5.16
2.34313	5.15
2.35980	5.14
2.37647	5.14
2.39313	5.13
2.40980	5.13
2.42647	5.13
2.44313	5.13
2.45980	5.13
2.47647	5.13
2.49313	5.13
2.50980	5.13
2.52647	5.13
2.54313	5.13
2.55980	5.13
2.57647	5.13
2.59313	5.13
2.60980	5.13
2.62647	5.13
2.64313	5.13
2.65980	5.13
2.67647	5.13
2.69313	5.13
2.70980	5.13
2.72647	5.13
2.74313	5.13
2.75980	5.13
2.77647	5.13
2.79313	5.13
2.80980	5.13
2.82647	5.13
2.84313	5.13
2.85980	5.13
2.87647	5.13
2.89313	5.13
2.90980	5.13
2.92647	5.13
2.94313	5.13
2.95980	5.13
2.97647	5.12
2.99313	5.12
3.00980	5.12
3.02647	5.12
3.04313	5.12
3.05980	5.12
3.07647	5.12
3.09313	5.12
3.10980	5.12
3.12647	5.12
3.14313	5.12
3.15980	5.12
3.17647	5.12
3.19313	5.12
3.20980	5.12
3.22647	5.12
3.24313	5.12
3.25980	5.12
3.27647	5.12
3.29313	5.12
3.30980	5.12
3.32647	5.12
3.34313	5.12
3.35980	5.12
3.37647	5.12
3.39313	5.12
3.40980	5.12
3.42647	5.12
3.44313	5.12
3.45980	5.12
3.47647	5.12
3.49313	5.13
3.50980	5.12
3.52647	5.12
3.54313	5.12
3.55980	5.12
3.57647	5.12
3.59313	5.12
3.60980	5.12
3.62647	5.12
3.64313	5.12
3.65980	5.12
3.67647	5.12
3.69313	5.12
3.70980	5.12
3.72647	5.12
3.74313	5.12
3.75980	5.12
3.77647	5.12
3.79313	5.12
3.80980	5.12
3.82647	5.12
3.84313	5.12
3.85980	5.12
3.87647	5.12
3.89313	5.13
3.90980	5.13
3.92647	5.13
3.94313	5.13
3.95980	5.13
3.97647	5.13
3.99313	5.13

[Status Trace (Linear Velocity)]
Interval(msec)	1000
# of Points	240
Start Time(min)	0.010
End Time(min)	3.993
Intensity Units	
Intensity Multiplier	1
R.Time (min)	Intensity
0.00980	39.03
0.02647	37.13
0.04313	38.54
0.05980	39.92
0.07647	39.89
0.09313	39.06
0.10980	39.01
0.12647	39.03
0.14313	39.03
0.15980	39.03
0.17647	39.03
0.19313	39.03
0.20980	39.03
0.22647	39.03
0.24313	39.03
0.25980	39.03
0.27647	39.03
0.29313	39.03
0.30980	39.03
0.32647	39.03
0.34313	39.03
0.35980	39.03
0.37647	39.03
0.39313	39.03
0.40980	39.03
0.42647	39.03
0.44313	39.03
0.45980	39.03
0.47647	39.03
0.49313	39.03
0.50980	39.03
0.52647	39.03
0.54313	39.03
0.55980	39.03
0.57647	39.03
0.59313	39.03
0.60980	39.03
0.62647	39.03
0.64313	39.03
0.65980	39.03
0.67647	39.03
0.69313	39.03
0.70980	39.03
0.72647	39.03
0.74313	39.03
0.75980	39.03
0.77647	39.03
0.79313	39.03
0.80980	39.03
0.82647	39.03
0.84313	39.03
0.85980	39.03
0.87647	39.03
0.89313	39.03
0.90980	39.03
0.92647	39.03
0.94313	39.03
0.95980	39.03
0.97647	39.03
0.99313	39.03
1.00980	39.03
1.02647	39.03
1.04313	39.03
1.05980	39.03
1.07647	39.03
1.09313	39.03
1.10980	39.03
1.12647	39.03
1.14313	39.03
1.15980	39.03
1.17647	39.03
1.19313	39.03
1.20980	39.03
1.22647	39.03
1.24313	39.03
1.25980	39.03
1.27647	39.03
1.29313	39.02
1.30980	39.02
1.32647	39.02
1.34313	39.02
1.35980	39.02
1.37647	39.02
1.39313	39.02
1.40980	39.03
1.42647	39.03
1.44313	39.03
1.45980	39.03
1.47647	39.03
1.49313	39.03
1.50980	39.03
1.52647	39.03
1.54313	39.03
1.55980	39.03
1.57647	39.03
1.59313	39.03
1.60980	39.03
1.62647	39.01
1.64313	39.00
1.65980	38.97
1.67647	38.94
1.69313	38.90
1.70980	38.87
1.72647	38.83
1.74313	38.80
1.75980	38.77
1.77647	38.74
1.79313	38.71
1.80980	38.68
1.82647	38.64
1.84313	38.62
1.85980	38.58
1.87647	38.55
1.89313	38.52
1.90980	38.49
1.92647	38.46
1.94313	38.43
1.95980	38.40
1.97647	38.37
1.99313	38.34
2.00980	38.31
2.02647	38.28
2.04313	38.25
2.05980	38.22
2.07647	38.19
2.09313	38.16
2.10980	38.13
2.12647	38.10
2.14313	38.07
2.15980	38.04
2.17647	38.01
2.19313	37.99
2.20980	37.95
2.22647	37.92
2.24313	37.90
2.25980	37.86
2.27647	37.83
2.29313	37.81
2.30980	37.78
2.32647	37.75
2.34313	37.72
2.35980	37.69
2.37647	37.67
2.39313	37.67
2.40980	37.67
2.42647	37.67
2.44313	37.67
2.45980	37.67
2.47647	37.67
2.49313	37.67
2.50980	37.66
2.52647	37.65
2.54313	37.66
2.55980	37.66
2.57647	37.66
2.59313	37.66
2.60980	37.66
2.62647	37.66
2.64313	37.66
2.65980	37.66
2.67647	37.66
2.69313	37.66
2.70980	37.66
2.72647	37.66
2.74313	37.66
2.75980	37.66
2.77647	37.66
2.79313	37.65
2.80980	37.65
2.82647	37.65
2.84313	37.65
2.85980	37.65
2.87647	37.65
2.89313	37.65
2.90980	37.65
2.92647	37.65
2.94313	37.64
2.95980	37.64
2.97647	37.64
2.99313	37.64
3.00980	37.64
3.02647	37.64
3.04313	37.64
3.05980	37.64
3.07647	37.64
3.09313	37.64
3.10980	37.64
3.12647	37.64
3.14313	37.64
3.15980	37.63
3.17647	37.63
3.19313	37.63
3.20980	37.64
3.22647	37.64
3.24313	37.64
3.25980	37.64
3.27647	37.64
3.29313	37.64
3.30980	37.64
3.32647	37.64
3.34313	37.64
3.35980	37.64
3.37647	37.64
3.39313	37.64
3.40980	37.64
3.42647	37.64
3.44313	37.64
3.45980	37.64
3.47647	37.64
3.49313	37.64
3.50980	37.64
3.52647	37.64
3.54313	37.64
3.55980	37.64
3.57647	37.64
3.59313	37.64
3.60980	37.64
3.62647	37.64
3.64313	37.64
3.65980	37.64
3.67647	37.64
3.69313	37.64
3.70980	37.64
3.72647	37.64
3.74313	37.64
3.75980	37.64
3.77647	37.64
3.79313	37.63
3.80980	37.63
3.82647	37.63
3.84313	37.64
3.85980	37.64
3.87647	37.64
3.89313	37.64
3.90980	37.65
3.92647	37.65
3.94313	37.65
3.95980	37.65
3.97647	37.65
3.99313	37.65

