[Header]
Application Name	LabSolutions
Version	5.110
Data File Name	C:\Users\User\Desktop\GC Analyses\Jack\UIC Prairie Sampling\7.22.22\220722_084.gcd
Output Date	10/5/2022
Output Time	2:13:43 PM

[File Information]
Type	Data File
Generated	10/5/2022 10:55:39 AM
Generated by	System Administrator
Modified	10/5/2022 11:00:08 AM
Modified by	System Administrator

[Sample Information]
Operator Name	System Administrator
Acquired	10/5/2022 10:56:07 AM
Sample Type	1:Standard
Level	1
Sample Name	220722_UICPrairie
Sample ID	220722_UICPrairie
ISTD Amount1	1
ISTD Amount2	1
ISTD Amount3	1
ISTD Amount4	1
ISTD Amount5	1
ISTD Amount6	1
ISTD Amount7	1
ISTD Amount8	1
ISTD Amount9	1
ISTD Amount10	1
ISTD Amount11	1
ISTD Amount12	1
ISTD Amount13	1
ISTD Amount14	1
ISTD Amount15	1
ISTD Amount16	1
ISTD Amount17	1
ISTD Amount18	1
ISTD Amount19	1
ISTD Amount20	1
ISTD Amount21	1
ISTD Amount22	1
ISTD Amount23	1
ISTD Amount24	1
ISTD Amount25	1
ISTD Amount26	1
ISTD Amount27	1
ISTD Amount28	1
ISTD Amount29	1
ISTD Amount30	1
ISTD Amount31	1
ISTD Amount32	1
Sample Amount	1
Dilution Factor	1
Vial#	1
Injection Volume	1
Injection Count	1
Bar Code	

[Original Files]
Data File	C:\Users\User\Desktop\GC Analyses\Jack\UIC Prairie Sampling\7.22.22\220722_084.gcd
Method File	C:\LabSolutions\Data\GHG_4min_2022\ghg3_togas_w_acet_4 min_new_int.gcm
Batch File	
Report Format File	c:\LabSolutions\System\DEFAULT.lsr

[File Description]


[Configuration]
Instrument Name	C0B7VH3-Instrument1
Instrument #	1
Line #	1
# of Detectors	3
Detector ID	DET#1	DET#2	DET#3
Detector Name	FID	PTCD	ECD
# of Channels	1	1	1

[Peak Table(Ch1)]
# of Peaks	3
Peak#	R.Time	I.Time	F.Time	Area	Height	A/H	Conc.	Mark	ID#	Name	k'	Plate #	Plate Ht.	Tailing	Resolution	Sep.Factor	Area Ratio	Height Ratio	Conc. %	Norm Conc.
1	1.479	1.439	1.542	16683	7570	2.204	100.000	   	1	CO	0.000	8616	17.410	1.195	0.000	0.000	0	0	16.667	16.667
2	1.571	1.542	1.630	5591	2798	1.998	100.000	 V 	2	CH4	0.062	11350	13.215	1.260	1.494	0.000	0	0	16.667	16.667
3	2.004	1.952	2.216	1221332	593705	2.057	400.000	   	3	CO2	0.354	17873	8.393	1.153	7.276	5.720	0	0	66.667	66.667

[Peak Table(Ch2)]
# of Peaks	0

[Peak Table(Ch3)]
# of Peaks	3
Peak#	R.Time	I.Time	F.Time	Area	Height	A/H	Conc.	Mark	ID#	Name	k'	Plate #	Plate Ht.	Tailing	Resolution	Sep.Factor	Area Ratio	Height Ratio	Conc. %	Norm Conc.
1	2.444	0.049	2.653	37518	678	55.362	0.000	   			0.000	68	2193.423	0.545	0.000	0.000	0	0	0.000	0.000
2	2.704	2.667	2.715	112	73	1.538	0.000	   			0.107	53988	2.778	0.646	0.424	0.000	0	0	0.000	0.000
3	2.884	2.719	3.280	31146	5957	5.228	1.000	   	1	N2O	0.180	11545	12.992	1.107	2.335	1.690	0	0	100.000	100.000

[Compound Results(Ch1)]
# of IDs	6
ID#	Name	R.Time	Area	Height	Conc.	Curve	3rd	2nd	1st	Constant	Area Ratio	Height Ratio	Conc. %	Norm Conc.
1	CO	1.479	16683	7570	100.000	Linear	0.000000e+00	0.000000e+00	1.668319e+002	0.000000e+00	0	0	16.667	16.667
2	CH4	1.571	5591	2798	100.000	Linear	0.000000e+00	0.000000e+00	5.591462e+001	0.000000e+00	0	0	16.667	16.667
3	CO2	2.004	1221332	593705	400.000	Linear	0.000000e+00	0.000000e+00	3.053331e+003	0.000000e+00	0	0	66.667	66.667
4	Ethylene	0.000	0	0	0.000	Linear	0.000000e+00	0.000000e+00	0.000000e+00	0.000000e+00	0	0	0.000	0.000
5	Acetylene	0.000	0	0	0.000	Linear	0.000000e+00	0.000000e+00	0.000000e+00	0.000000e+00	0	0	0.000	0.000
6	Ethane	0.000	0	0	0.000	Linear	0.000000e+00	0.000000e+00	0.000000e+00	0.000000e+00	0	0	0.000	0.000

[Compound Results(Ch2)]
# of IDs	5
ID#	Name	R.Time	Area	Height	Conc.	Curve	3rd	2nd	1st	Constant	Area Ratio	Height Ratio	Conc. %	Norm Conc.
1	Hydrogen	0.000	0	0	0.000	Linear	0.000000e+00	0.000000e+00	0.000000e+00	0.000000e+00	0	0	0.000	0.000
2	Oxygen	0.000	0	0	0.000	Linear	0.000000e+00	0.000000e+00	0.000000e+00	0.000000e+00	0	0	0.000	0.000
3	Nitrogen	0.000	0	0	0.000	Linear	0.000000e+00	0.000000e+00	0.000000e+00	0.000000e+00	0	0	0.000	0.000
4	Methane	0.000	0	0	0.000	Linear	0.000000e+00	0.000000e+00	0.000000e+00	0.000000e+00	0	0	0.000	0.000
5	Carbon Monoxide	0.000	0	0	0.000	Linear	0.000000e+00	0.000000e+00	0.000000e+00	0.000000e+00	0	0	0.000	0.000

[Compound Results(Ch3)]
# of IDs	2
ID#	Name	R.Time	Area	Height	Conc.	Curve	3rd	2nd	1st	Constant	Area Ratio	Height Ratio	Conc. %	Norm Conc.
1	N2O	2.884	31146	5957	1.000	Linear	0.000000e+00	0.000000e+00	3.114626e+004	0.000000e+00	0	0	100.000	100.000
2	SF6	0.000	0	0	0.000	Linear	0.000000e+00	0.000000e+00	0.000000e+00	0.000000e+00	0	0	0.000	0.000

[Group Results(Ch1)]
# of Groups	0

[Group Results(Ch2)]
# of Groups	0

[Group Results(Ch3)]
# of Groups	0

[Chromatogram (Ch1)]
Interval(msec)	220
# of Points	1091
Start Time(min)	0.002
End Time(min)	3.998
R.Time (min)	Intensity
0.00167	-29
0.00533	-26
0.00900	-22
0.01267	-22
0.01633	-24
0.02000	-26
0.02367	-23
0.02733	-19
0.03100	-15
0.03467	-16
0.03833	-20
0.04200	-24
0.04567	-28
0.04933	-32
0.05300	-35
0.05667	-37
0.06033	-37
0.06400	-37
0.06767	-35
0.07133	-33
0.07500	-31
0.07867	-26
0.08233	-21
0.08600	-18
0.08967	-17
0.09333	-14
0.09700	-11
0.10067	-10
0.10433	-9
0.10800	-9
0.11167	-12
0.11533	-18
0.11900	-26
0.12267	-37
0.12633	-45
0.13000	-48
0.13367	-47
0.13733	-44
0.14100	-39
0.14467	-35
0.14833	-35
0.15200	-37
0.15567	-39
0.15933	-38
0.16300	-38
0.16667	-38
0.17033	-35
0.17400	-28
0.17767	-20
0.18133	-14
0.18500	-12
0.18867	-13
0.19233	-15
0.19600	-17
0.19967	-18
0.20333	-22
0.20700	-26
0.21067	-26
0.21433	-29
0.21800	-37
0.22167	-47
0.22533	-55
0.22900	-55
0.23267	-51
0.23633	-49
0.24000	-49
0.24367	-49
0.24733	-47
0.25100	-44
0.25467	-41
0.25833	-37
0.26200	-35
0.26567	-41
0.26933	-51
0.27300	-60
0.27667	-63
0.28033	-63
0.28400	-60
0.28767	-56
0.29133	-52
0.29500	-47
0.29867	-41
0.30233	-37
0.30600	-40
0.30967	-46
0.31333	-52
0.31700	-57
0.32067	-64
0.32433	-71
0.32800	-77
0.33167	-79
0.33533	-78
0.33900	-75
0.34267	-73
0.34633	-72
0.35000	-71
0.35367	-69
0.35733	-68
0.36100	-66
0.36467	-65
0.36833	-66
0.37200	-69
0.37567	-74
0.37933	-75
0.38300	-74
0.38667	-70
0.39033	-65
0.39400	-60
0.39767	-55
0.40133	-53
0.40500	-54
0.40867	-59
0.41233	-64
0.41600	-68
0.41967	-70
0.42333	-71
0.42700	-74
0.43067	-76
0.43433	-73
0.43800	-67
0.44167	-59
0.44533	-53
0.44900	-49
0.45267	-47
0.45633	-47
0.46000	-48
0.46367	-52
0.46733	-56
0.47100	-62
0.47467	-65
0.47833	-67
0.48200	-69
0.48567	-74
0.48933	-83
0.49300	-89
0.49667	-93
0.50033	-93
0.50400	-90
0.50767	-86
0.51133	-84
0.51500	-81
0.51867	-79
0.52233	-76
0.52600	-74
0.52967	-74
0.53333	-74
0.53700	-74
0.54067	-72
0.54433	-70
0.54800	-71
0.55167	-72
0.55533	-73
0.55900	-72
0.56267	-68
0.56633	-68
0.57000	-70
0.57367	-72
0.57733	-72
0.58100	-71
0.58467	-71
0.58833	-68
0.59200	-66
0.59567	-68
0.59933	-72
0.60300	-77
0.60667	-81
0.61033	-84
0.61400	-84
0.61767	-83
0.62133	-80
0.62500	-80
0.62867	-84
0.63233	-85
0.63600	-82
0.63967	-80
0.64333	-81
0.64700	-84
0.65067	-85
0.65433	-84
0.65800	-83
0.66167	-86
0.66533	-85
0.66900	-83
0.67267	-83
0.67633	-80
0.68000	-71
0.68367	-57
0.68733	-40
0.69100	-27
0.69467	-19
0.69833	-16
0.70200	-18
0.70567	-21
0.70933	-22
0.71300	-23
0.71667	-25
0.72033	-28
0.72400	-29
0.72767	-28
0.73133	-24
0.73500	-21
0.73867	-17
0.74233	-16
0.74600	-20
0.74967	-28
0.75333	-34
0.75700	-38
0.76067	-45
0.76433	-54
0.76800	-57
0.77167	-53
0.77533	-49
0.77900	-48
0.78267	-50
0.78633	-50
0.79000	-50
0.79367	-49
0.79733	-49
0.80100	-51
0.80467	-54
0.80833	-54
0.81200	-53
0.81567	-51
0.81933	-46
0.82300	-41
0.82667	-38
0.83033	-40
0.83400	-43
0.83767	-46
0.84133	-51
0.84500	-56
0.84867	-57
0.85233	-55
0.85600	-54
0.85967	-55
0.86333	-55
0.86700	-55
0.87067	-53
0.87433	-51
0.87800	-51
0.88167	-54
0.88533	-57
0.88900	-55
0.89267	-49
0.89633	-43
0.90000	-40
0.90367	-42
0.90733	-44
0.91100	-42
0.91467	-40
0.91833	-39
0.92200	-40
0.92567	-44
0.92933	-48
0.93300	-50
0.93667	-51
0.94033	-53
0.94400	-54
0.94767	-55
0.95133	-55
0.95500	-56
0.95867	-60
0.96233	-64
0.96600	-67
0.96967	-68
0.97333	-65
0.97700	-60
0.98067	-58
0.98433	-60
0.98800	-61
0.99167	-59
0.99533	-59
0.99900	-59
1.00267	-58
1.00633	-56
1.01000	-56
1.01367	-58
1.01733	-61
1.02100	-63
1.02467	-65
1.02833	-66
1.03200	-65
1.03567	-67
1.03933	-68
1.04300	-67
1.04667	-65
1.05033	-66
1.05400	-67
1.05767	-70
1.06133	-76
1.06500	-76
1.06867	-72
1.07233	-70
1.07600	-69
1.07967	-67
1.08333	-63
1.08700	-61
1.09067	-60
1.09433	-57
1.09800	-55
1.10167	-58
1.10533	-65
1.10900	-73
1.11267	-75
1.11633	-79
1.12000	-83
1.12367	-86
1.12733	-88
1.13100	-86
1.13467	-84
1.13833	-79
1.14200	-77
1.14567	-78
1.14933	-85
1.15300	-104
1.15667	-112
1.16033	-110
1.16400	-99
1.16767	-87
1.17133	-76
1.17500	-67
1.17867	-66
1.18233	-69
1.18600	-75
1.18967	-82
1.19333	-84
1.19700	-78
1.20067	-78
1.20433	-82
1.20800	-88
1.21167	-94
1.21533	-97
1.21900	-98
1.22267	-96
1.22633	-95
1.23000	-99
1.23367	-103
1.23733	-100
1.24100	-93
1.24467	-88
1.24833	-85
1.25200	-83
1.25567	-82
1.25933	-84
1.26300	-87
1.26667	-92
1.27033	-99
1.27400	-106
1.27767	-110
1.28133	-117
1.28500	-126
1.28867	-131
1.29233	-132
1.29600	-129
1.29967	-122
1.30333	-113
1.30700	-104
1.31067	-98
1.31433	-89
1.31800	-81
1.32167	-78
1.32533	-79
1.32900	-81
1.33267	-83
1.33633	-87
1.34000	-90
1.34367	-94
1.34733	-92
1.35100	-90
1.35467	-93
1.35833	-96
1.36200	-96
1.36567	-94
1.36933	-94
1.37300	-96
1.37667	-96
1.38033	-96
1.38400	-98
1.38767	-96
1.39133	-91
1.39500	-84
1.39867	-80
1.40233	-81
1.40600	-83
1.40967	-89
1.41333	-96
1.41700	-99
1.42067	-96
1.42433	-95
1.42800	-99
1.43167	-102
1.43533	-105
1.43900	-103
1.44267	-73
1.44633	57
1.45000	388
1.45367	985
1.45733	1946
1.46100	3238
1.46467	4621
1.46833	5841
1.47200	6758
1.47567	7314
1.47933	7467
1.48300	7187
1.48667	6492
1.49033	5502
1.49400	4398
1.49767	3347
1.50133	2449
1.50500	1738
1.50867	1204
1.51233	816
1.51600	541
1.51967	353
1.52333	222
1.52700	132
1.53067	70
1.53433	26
1.53800	-7
1.54167	-16
1.54533	41
1.54900	243
1.55267	632
1.55633	1156
1.56000	1698
1.56367	2165
1.56733	2509
1.57100	2695
1.57467	2694
1.57833	2487
1.58200	2110
1.58567	1652
1.58933	1205
1.59300	827
1.59667	536
1.60033	323
1.60400	178
1.60767	84
1.61133	20
1.61500	-26
1.61867	-57
1.62233	-79
1.62600	-93
1.62967	-103
1.63333	-108
1.63700	-107
1.64067	-102
1.64433	-97
1.64800	-93
1.65167	-94
1.65533	-99
1.65900	-109
1.66267	-122
1.66633	-133
1.67000	-138
1.67367	-140
1.67733	-139
1.68100	-137
1.68467	-130
1.68833	-127
1.69200	-131
1.69567	-135
1.69933	-135
1.70300	-134
1.70667	-135
1.71033	-139
1.71400	-144
1.71767	-149
1.72133	-152
1.72500	-149
1.72867	-145
1.73233	-142
1.73600	-139
1.73967	-135
1.74333	-133
1.74700	-129
1.75067	-128
1.75433	-130
1.75800	-130
1.76167	-133
1.76533	-135
1.76900	-136
1.77267	-139
1.77633	-142
1.78000	-143
1.78367	-144
1.78733	-144
1.79100	-144
1.79467	-143
1.79833	-141
1.80200	-141
1.80567	-141
1.80933	-139
1.81300	-136
1.81667	-132
1.82033	-133
1.82400	-133
1.82767	-131
1.83133	-129
1.83500	-128
1.83867	-123
1.84233	-119
1.84600	-116
1.84967	-114
1.85333	-115
1.85700	-117
1.86067	-117
1.86433	-116
1.86800	-117
1.87167	-121
1.87533	-122
1.87900	-120
1.88267	-118
1.88633	-115
1.89000	-112
1.89367	-111
1.89733	-111
1.90100	-112
1.90467	-107
1.90833	-103
1.91200	-99
1.91567	-102
1.91933	-105
1.92300	-108
1.92667	-108
1.93033	-111
1.93400	-112
1.93767	-113
1.94133	-109
1.94500	-105
1.94867	-101
1.95233	-95
1.95600	-76
1.95967	0
1.96333	416
1.96700	2364
1.97067	9458
1.97433	29287
1.97800	72382
1.98167	146136
1.98533	247204
1.98900	360458
1.99267	466248
1.99633	547389
2.00000	591890
2.00367	593668
2.00733	554134
2.01100	482610
2.01467	394037
2.01833	303919
2.02200	223684
2.02567	158831
2.02933	109977
2.03300	74982
2.03667	50777
2.04033	34410
2.04400	23490
2.04767	16252
2.05133	11457
2.05500	8268
2.05867	6123
2.06233	4664
2.06600	3649
2.06967	2930
2.07333	2407
2.07700	2019
2.08067	1725
2.08433	1493
2.08800	1309
2.09167	1158
2.09533	1038
2.09900	934
2.10267	851
2.10633	778
2.11000	716
2.11367	660
2.11733	616
2.12100	573
2.12467	533
2.12833	498
2.13200	469
2.13567	444
2.13933	431
2.14300	416
2.14667	397
2.15033	379
2.15400	362
2.15767	350
2.16133	341
2.16500	332
2.16867	322
2.17233	307
2.17600	290
2.17967	275
2.18333	261
2.18700	252
2.19067	239
2.19433	224
2.19800	217
2.20167	216
2.20533	217
2.20900	216
2.21267	212
2.21633	207
2.22000	210
2.22367	213
2.22733	216
2.23100	219
2.23467	217
2.23833	209
2.24200	200
2.24567	187
2.24933	173
2.25300	163
2.25667	152
2.26033	152
2.26400	151
2.26767	152
2.27133	155
2.27500	155
2.27867	153
2.28233	155
2.28600	150
2.28967	142
2.29333	143
2.29700	143
2.30067	142
2.30433	139
2.30800	136
2.31167	126
2.31533	125
2.31900	134
2.32267	141
2.32633	145
2.33000	146
2.33367	141
2.33733	143
2.34100	145
2.34467	141
2.34833	133
2.35200	126
2.35567	118
2.35933	118
2.36300	121
2.36667	124
2.37033	129
2.37400	135
2.37767	135
2.38133	137
2.38500	137
2.38867	140
2.39233	143
2.39600	142
2.39967	136
2.40333	130
2.40700	125
2.41067	121
2.41433	120
2.41800	119
2.42167	116
2.42533	116
2.42900	120
2.43267	125
2.43633	130
2.44000	133
2.44367	134
2.44733	135
2.45100	131
2.45467	128
2.45833	130
2.46200	128
2.46567	123
2.46933	120
2.47300	123
2.47667	124
2.48033	122
2.48400	119
2.48767	114
2.49133	109
2.49500	105
2.49867	105
2.50233	100
2.50600	97
2.50967	98
2.51333	99
2.51700	100
2.52067	99
2.52433	98
2.52800	102
2.53167	110
2.53533	114
2.53900	117
2.54267	119
2.54633	118
2.55000	114
2.55367	110
2.55733	105
2.56100	103
2.56467	100
2.56833	96
2.57200	89
2.57567	80
2.57933	72
2.58300	67
2.58667	63
2.59033	66
2.59400	70
2.59767	79
2.60133	86
2.60500	85
2.60867	80
2.61233	79
2.61600	78
2.61967	81
2.62333	79
2.62700	73
2.63067	66
2.63433	66
2.63800	75
2.64167	84
2.64533	88
2.64900	85
2.65267	78
2.65633	77
2.66000	74
2.66367	76
2.66733	86
2.67100	97
2.67467	99
2.67833	93
2.68200	85
2.68567	72
2.68933	57
2.69300	47
2.69667	40
2.70033	36
2.70400	42
2.70767	50
2.71133	55
2.71500	54
2.71867	55
2.72233	55
2.72600	55
2.72967	54
2.73333	54
2.73700	57
2.74067	55
2.74433	49
2.74800	40
2.75167	37
2.75533	42
2.75900	51
2.76267	60
2.76633	61
2.77000	58
2.77367	53
2.77733	50
2.78100	55
2.78467	53
2.78833	55
2.79200	59
2.79567	60
2.79933	57
2.80300	54
2.80667	48
2.81033	41
2.81400	39
2.81767	42
2.82133	41
2.82500	41
2.82867	36
2.83233	30
2.83600	30
2.83967	37
2.84333	40
2.84700	43
2.85067	49
2.85433	56
2.85800	61
2.86167	61
2.86533	57
2.86900	56
2.87267	54
2.87633	50
2.88000	47
2.88367	46
2.88733	44
2.89100	43
2.89467	42
2.89833	42
2.90200	43
2.90567	48
2.90933	49
2.91300	40
2.91667	34
2.92033	31
2.92400	33
2.92767	40
2.93133	44
2.93500	44
2.93867	42
2.94233	42
2.94600	43
2.94967	40
2.95333	38
2.95700	35
2.96067	29
2.96433	26
2.96800	33
2.97167	42
2.97533	49
2.97900	52
2.98267	52
2.98633	50
2.99000	50
2.99367	48
2.99733	43
3.00100	37
3.00467	29
3.00833	24
3.01200	25
3.01567	30
3.01933	33
3.02300	36
3.02667	39
3.03033	39
3.03400	36
3.03767	32
3.04133	27
3.04500	23
3.04867	19
3.05233	19
3.05600	19
3.05967	19
3.06333	22
3.06700	27
3.07067	32
3.07433	37
3.07800	44
3.08167	50
3.08533	51
3.08900	47
3.09267	44
3.09633	42
3.10000	36
3.10367	24
3.10733	18
3.11100	13
3.11467	14
3.11833	18
3.12200	22
3.12567	23
3.12933	25
3.13300	25
3.13667	24
3.14033	27
3.14400	34
3.14767	44
3.15133	50
3.15500	53
3.15867	53
3.16233	51
3.16600	45
3.16967	36
3.17333	22
3.17700	7
3.18067	-4
3.18433	-3
3.18800	8
3.19167	21
3.19533	28
3.19900	31
3.20267	33
3.20633	34
3.21000	36
3.21367	30
3.21733	22
3.22100	18
3.22467	16
3.22833	15
3.23200	15
3.23567	15
3.23933	16
3.24300	17
3.24667	16
3.25033	11
3.25400	6
3.25767	5
3.26133	4
3.26500	3
3.26867	2
3.27233	6
3.27600	10
3.27967	14
3.28333	17
3.28700	21
3.29067	22
3.29433	24
3.29800	26
3.30167	27
3.30533	24
3.30900	16
3.31267	7
3.31633	-0
3.32000	1
3.32367	5
3.32733	10
3.33100	12
3.33467	11
3.33833	16
3.34200	27
3.34567	31
3.34933	30
3.35300	27
3.35667	23
3.36033	19
3.36400	13
3.36767	7
3.37133	4
3.37500	1
3.37867	-3
3.38233	-11
3.38600	-15
3.38967	-16
3.39333	-15
3.39700	-11
3.40067	-11
3.40433	-12
3.40800	-10
3.41167	-4
3.41533	6
3.41900	14
3.42267	19
3.42633	19
3.43000	17
3.43367	13
3.43733	10
3.44100	7
3.44467	6
3.44833	3
3.45200	-3
3.45567	-6
3.45933	-8
3.46300	-11
3.46667	-13
3.47033	-12
3.47400	-10
3.47767	-9
3.48133	-7
3.48500	-2
3.48867	1
3.49233	2
3.49600	6
3.49967	8
3.50333	16
3.50700	19
3.51067	17
3.51433	8
3.51800	-4
3.52167	-8
3.52533	-12
3.52900	-18
3.53267	-20
3.53633	-17
3.54000	-11
3.54367	-3
3.54733	-4
3.55100	-5
3.55467	-6
3.55833	-7
3.56200	-9
3.56567	-12
3.56933	-17
3.57300	-17
3.57667	-15
3.58033	-12
3.58400	-13
3.58767	-10
3.59133	-9
3.59500	-9
3.59867	-9
3.60233	-4
3.60600	3
3.60967	11
3.61333	17
3.61700	15
3.62067	7
3.62433	-1
3.62800	-7
3.63167	-12
3.63533	-17
3.63900	-21
3.64267	-24
3.64633	-23
3.65000	-19
3.65367	-14
3.65733	-7
3.66100	-3
3.66467	-2
3.66833	-2
3.67200	-2
3.67567	-2
3.67933	-5
3.68300	-12
3.68667	-19
3.69033	-23
3.69400	-25
3.69767	-23
3.70133	-20
3.70500	-17
3.70867	-17
3.71233	-20
3.71600	-24
3.71967	-25
3.72333	-27
3.72700	-26
3.73067	-22
3.73433	-18
3.73800	-14
3.74167	-8
3.74533	-2
3.74900	2
3.75267	4
3.75633	2
3.76000	1
3.76367	1
3.76733	1
3.77100	-1
3.77467	-4
3.77833	-6
3.78200	-8
3.78567	-13
3.78933	-18
3.79300	-11
3.79667	-4
3.80033	-0
3.80400	0
3.80767	-1
3.81133	-1
3.81500	-3
3.81867	-6
3.82233	-13
3.82600	-21
3.82967	-25
3.83333	-21
3.83700	-17
3.84067	-16
3.84433	-13
3.84800	-8
3.85167	-3
3.85533	1
3.85900	3
3.86267	4
3.86633	4
3.87000	-0
3.87367	-5
3.87733	-10
3.88100	-16
3.88467	-21
3.88833	-21
3.89200	-18
3.89567	-15
3.89933	-9
3.90300	-4
3.90667	0
3.91033	3
3.91400	7
3.91767	9
3.92133	8
3.92500	6
3.92867	4
3.93233	4
3.93600	3
3.93967	3
3.94333	2
3.94700	-1
3.95067	-4
3.95433	-13
3.95800	-21
3.96167	-25
3.96533	-27
3.96900	-25
3.97267	-22
3.97633	-9
3.98000	-1
3.98367	-1
3.98733	-3
3.99100	-5
3.99467	-5
3.99833	-6

[Chromatogram (Ch2)]
Interval(msec)	220
# of Points	1091
Start Time(min)	0.002
End Time(min)	3.998
R.Time (min)	Intensity
0.00167	1
0.00533	1
0.00900	1
0.01267	1
0.01633	1
0.02000	1
0.02367	1
0.02733	1
0.03100	1
0.03467	1
0.03833	2
0.04200	2
0.04567	2
0.04933	3
0.05300	3
0.05667	3
0.06033	3
0.06400	3
0.06767	3
0.07133	3
0.07500	3
0.07867	3
0.08233	3
0.08600	3
0.08967	4
0.09333	4
0.09700	4
0.10067	4
0.10433	5
0.10800	5
0.11167	5
0.11533	5
0.11900	5
0.12267	5
0.12633	5
0.13000	5
0.13367	5
0.13733	5
0.14100	5
0.14467	5
0.14833	5
0.15200	5
0.15567	6
0.15933	6
0.16300	6
0.16667	5
0.17033	5
0.17400	5
0.17767	5
0.18133	5
0.18500	5
0.18867	5
0.19233	5
0.19600	5
0.19967	5
0.20333	4
0.20700	4
0.21067	4
0.21433	4
0.21800	4
0.22167	4
0.22533	4
0.22900	4
0.23267	4
0.23633	4
0.24000	5
0.24367	5
0.24733	5
0.25100	5
0.25467	5
0.25833	5
0.26200	5
0.26567	5
0.26933	4
0.27300	4
0.27667	4
0.28033	3
0.28400	3
0.28767	2
0.29133	2
0.29500	2
0.29867	2
0.30233	2
0.30600	2
0.30967	2
0.31333	2
0.31700	2
0.32067	2
0.32433	2
0.32800	2
0.33167	2
0.33533	2
0.33900	2
0.34267	2
0.34633	2
0.35000	2
0.35367	2
0.35733	2
0.36100	2
0.36467	2
0.36833	2
0.37200	2
0.37567	1
0.37933	1
0.38300	0
0.38667	0
0.39033	0
0.39400	0
0.39767	0
0.40133	0
0.40500	1
0.40867	1
0.41233	1
0.41600	1
0.41967	2
0.42333	2
0.42700	2
0.43067	1
0.43433	1
0.43800	1
0.44167	1
0.44533	2
0.44900	2
0.45267	2
0.45633	2
0.46000	2
0.46367	2
0.46733	2
0.47100	2
0.47467	2
0.47833	2
0.48200	2
0.48567	2
0.48933	2
0.49300	2
0.49667	3
0.50033	3
0.50400	3
0.50767	3
0.51133	4
0.51500	4
0.51867	4
0.52233	4
0.52600	4
0.52967	4
0.53333	4
0.53700	4
0.54067	5
0.54433	5
0.54800	5
0.55167	5
0.55533	6
0.55900	6
0.56267	5
0.56633	5
0.57000	5
0.57367	5
0.57733	4
0.58100	4
0.58467	3
0.58833	3
0.59200	2
0.59567	2
0.59933	1
0.60300	1
0.60667	1
0.61033	1
0.61400	1
0.61767	1
0.62133	1
0.62500	1
0.62867	1
0.63233	1
0.63600	1
0.63967	1
0.64333	1
0.64700	1
0.65067	1
0.65433	2
0.65800	2
0.66167	2
0.66533	2
0.66900	3
0.67267	3
0.67633	4
0.68000	4
0.68367	4
0.68733	4
0.69100	4
0.69467	4
0.69833	3
0.70200	3
0.70567	4
0.70933	4
0.71300	4
0.71667	3
0.72033	3
0.72400	3
0.72767	3
0.73133	3
0.73500	3
0.73867	3
0.74233	3
0.74600	3
0.74967	3
0.75333	3
0.75700	3
0.76067	3
0.76433	3
0.76800	3
0.77167	3
0.77533	3
0.77900	3
0.78267	3
0.78633	3
0.79000	3
0.79367	4
0.79733	4
0.80100	4
0.80467	4
0.80833	4
0.81200	4
0.81567	5
0.81933	5
0.82300	5
0.82667	5
0.83033	5
0.83400	5
0.83767	5
0.84133	5
0.84500	5
0.84867	5
0.85233	5
0.85600	5
0.85967	5
0.86333	5
0.86700	5
0.87067	5
0.87433	5
0.87800	5
0.88167	5
0.88533	4
0.88900	4
0.89267	4
0.89633	3
0.90000	3
0.90367	2
0.90733	2
0.91100	2
0.91467	1
0.91833	1
0.92200	0
0.92567	0
0.92933	0
0.93300	0
0.93667	0
0.94033	0
0.94400	0
0.94767	0
0.95133	0
0.95500	0
0.95867	1
0.96233	1
0.96600	1
0.96967	2
0.97333	2
0.97700	3
0.98067	3
0.98433	3
0.98800	3
0.99167	3
0.99533	3
0.99900	3
1.00267	3
1.00633	4
1.01000	4
1.01367	4
1.01733	4
1.02100	4
1.02467	4
1.02833	4
1.03200	4
1.03567	4
1.03933	4
1.04300	4
1.04667	4
1.05033	4
1.05400	4
1.05767	4
1.06133	4
1.06500	4
1.06867	4
1.07233	4
1.07600	3
1.07967	3
1.08333	3
1.08700	4
1.09067	4
1.09433	4
1.09800	4
1.10167	4
1.10533	4
1.10900	4
1.11267	4
1.11633	4
1.12000	4
1.12367	4
1.12733	4
1.13100	4
1.13467	4
1.13833	4
1.14200	4
1.14567	4
1.14933	4
1.15300	4
1.15667	4
1.16033	4
1.16400	4
1.16767	4
1.17133	5
1.17500	5
1.17867	5
1.18233	4
1.18600	4
1.18967	4
1.19333	4
1.19700	3
1.20067	3
1.20433	2
1.20800	2
1.21167	2
1.21533	1
1.21900	1
1.22267	1
1.22633	1
1.23000	1
1.23367	1
1.23733	1
1.24100	1
1.24467	0
1.24833	0
1.25200	0
1.25567	0
1.25933	0
1.26300	0
1.26667	0
1.27033	0
1.27400	0
1.27767	0
1.28133	-0
1.28500	-0
1.28867	-0
1.29233	-0
1.29600	0
1.29967	0
1.30333	1
1.30700	1
1.31067	1
1.31433	2
1.31800	2
1.32167	3
1.32533	3
1.32900	3
1.33267	3
1.33633	4
1.34000	4
1.34367	4
1.34733	4
1.35100	4
1.35467	5
1.35833	5
1.36200	5
1.36567	5
1.36933	5
1.37300	6
1.37667	6
1.38033	6
1.38400	6
1.38767	6
1.39133	6
1.39500	6
1.39867	6
1.40233	6
1.40600	5
1.40967	5
1.41333	5
1.41700	5
1.42067	5
1.42433	5
1.42800	5
1.43167	4
1.43533	4
1.43900	4
1.44267	4
1.44633	4
1.45000	3
1.45367	3
1.45733	3
1.46100	3
1.46467	3
1.46833	3
1.47200	3
1.47567	3
1.47933	3
1.48300	3
1.48667	3
1.49033	3
1.49400	3
1.49767	3
1.50133	3
1.50500	3
1.50867	2
1.51233	2
1.51600	2
1.51967	2
1.52333	1
1.52700	1
1.53067	1
1.53433	1
1.53800	2
1.54167	2
1.54533	2
1.54900	2
1.55267	2
1.55633	2
1.56000	3
1.56367	3
1.56733	3
1.57100	3
1.57467	3
1.57833	3
1.58200	3
1.58567	3
1.58933	3
1.59300	3
1.59667	2
1.60033	1
1.60400	0
1.60767	-1
1.61133	-2
1.61500	-4
1.61867	-6
1.62233	-9
1.62600	-11
1.62967	-14
1.63333	-17
1.63700	-21
1.64067	-24
1.64433	-28
1.64800	-32
1.65167	-35
1.65533	-39
1.65900	-44
1.66267	-48
1.66633	-53
1.67000	-58
1.67367	-63
1.67733	-69
1.68100	-74
1.68467	-79
1.68833	-83
1.69200	-87
1.69567	-91
1.69933	-94
1.70300	-97
1.70667	-100
1.71033	-102
1.71400	-103
1.71767	-104
1.72133	-106
1.72500	-107
1.72867	-107
1.73233	-108
1.73600	-110
1.73967	-111
1.74333	-112
1.74700	-113
1.75067	-114
1.75433	-114
1.75800	-115
1.76167	-115
1.76533	-115
1.76900	-114
1.77267	-114
1.77633	-114
1.78000	-114
1.78367	-114
1.78733	-114
1.79100	-115
1.79467	-116
1.79833	-116
1.80200	-117
1.80567	-117
1.80933	-117
1.81300	-117
1.81667	-117
1.82033	-118
1.82400	-118
1.82767	-118
1.83133	-119
1.83500	-120
1.83867	-120
1.84233	-121
1.84600	-121
1.84967	-121
1.85333	-121
1.85700	-121
1.86067	-120
1.86433	-120
1.86800	-120
1.87167	-121
1.87533	-121
1.87900	-121
1.88267	-121
1.88633	-121
1.89000	-121
1.89367	-122
1.89733	-122
1.90100	-121
1.90467	-121
1.90833	-121
1.91200	-120
1.91567	-120
1.91933	-120
1.92300	-119
1.92667	-119
1.93033	-118
1.93400	-117
1.93767	-117
1.94133	-117
1.94500	-117
1.94867	-117
1.95233	-117
1.95600	-117
1.95967	-116
1.96333	-116
1.96700	-115
1.97067	-115
1.97433	-114
1.97800	-113
1.98167	-112
1.98533	-112
1.98900	-112
1.99267	-112
1.99633	-111
2.00000	-111
2.00367	-111
2.00733	-111
2.01100	-110
2.01467	-110
2.01833	-110
2.02200	-110
2.02567	-110
2.02933	-110
2.03300	-110
2.03667	-110
2.04033	-110
2.04400	-109
2.04767	-109
2.05133	-108
2.05500	-108
2.05867	-108
2.06233	-108
2.06600	-107
2.06967	-107
2.07333	-106
2.07700	-106
2.08067	-106
2.08433	-107
2.08800	-107
2.09167	-107
2.09533	-107
2.09900	-107
2.10267	-106
2.10633	-106
2.11000	-105
2.11367	-105
2.11733	-104
2.12100	-104
2.12467	-103
2.12833	-103
2.13200	-102
2.13567	-102
2.13933	-101
2.14300	-101
2.14667	-100
2.15033	-100
2.15400	-99
2.15767	-99
2.16133	-99
2.16500	-99
2.16867	-99
2.17233	-98
2.17600	-98
2.17967	-97
2.18333	-96
2.18700	-95
2.19067	-95
2.19433	-94
2.19800	-94
2.20167	-94
2.20533	-93
2.20900	-92
2.21267	-91
2.21633	-91
2.22000	-90
2.22367	-90
2.22733	-90
2.23100	-90
2.23467	-90
2.23833	-90
2.24200	-90
2.24567	-90
2.24933	-90
2.25300	-90
2.25667	-90
2.26033	-90
2.26400	-90
2.26767	-91
2.27133	-91
2.27500	-91
2.27867	-92
2.28233	-92
2.28600	-92
2.28967	-91
2.29333	-91
2.29700	-91
2.30067	-90
2.30433	-90
2.30800	-89
2.31167	-88
2.31533	-86
2.31900	-85
2.32267	-84
2.32633	-83
2.33000	-83
2.33367	-83
2.33733	-83
2.34100	-83
2.34467	-83
2.34833	-83
2.35200	-83
2.35567	-82
2.35933	-81
2.36300	-80
2.36667	-79
2.37033	-77
2.37400	-75
2.37767	-72
2.38133	-69
2.38500	-65
2.38867	-61
2.39233	-57
2.39600	-53
2.39967	-49
2.40333	-44
2.40700	-40
2.41067	-35
2.41433	-31
2.41800	-28
2.42167	-25
2.42533	-23
2.42900	-20
2.43267	-18
2.43633	-15
2.44000	-13
2.44367	-11
2.44733	-9
2.45100	-7
2.45467	-5
2.45833	-4
2.46200	-3
2.46567	-2
2.46933	-1
2.47300	0
2.47667	1
2.48033	2
2.48400	3
2.48767	5
2.49133	6
2.49500	7
2.49867	8
2.50233	9
2.50600	10
2.50967	11
2.51333	11
2.51700	12
2.52067	12
2.52433	13
2.52800	13
2.53167	14
2.53533	15
2.53900	16
2.54267	17
2.54633	17
2.55000	18
2.55367	18
2.55733	18
2.56100	18
2.56467	18
2.56833	18
2.57200	18
2.57567	18
2.57933	18
2.58300	18
2.58667	18
2.59033	18
2.59400	18
2.59767	19
2.60133	19
2.60500	19
2.60867	19
2.61233	19
2.61600	19
2.61967	19
2.62333	19
2.62700	19
2.63067	19
2.63433	20
2.63800	20
2.64167	20
2.64533	21
2.64900	21
2.65267	21
2.65633	21
2.66000	22
2.66367	22
2.66733	22
2.67100	22
2.67467	22
2.67833	23
2.68200	23
2.68567	23
2.68933	23
2.69300	23
2.69667	23
2.70033	23
2.70400	24
2.70767	25
2.71133	26
2.71500	27
2.71867	27
2.72233	28
2.72600	28
2.72967	29
2.73333	29
2.73700	29
2.74067	29
2.74433	28
2.74800	28
2.75167	28
2.75533	27
2.75900	27
2.76267	27
2.76633	27
2.77000	26
2.77367	27
2.77733	27
2.78100	27
2.78467	27
2.78833	28
2.79200	28
2.79567	29
2.79933	29
2.80300	29
2.80667	30
2.81033	30
2.81400	30
2.81767	30
2.82133	30
2.82500	30
2.82867	30
2.83233	30
2.83600	30
2.83967	30
2.84333	30
2.84700	29
2.85067	28
2.85433	25
2.85800	21
2.86167	15
2.86533	5
2.86900	-8
2.87267	-25
2.87633	-47
2.88000	-72
2.88367	-101
2.88733	-134
2.89100	-172
2.89467	-212
2.89833	-256
2.90200	-301
2.90567	-349
2.90933	-399
2.91300	-450
2.91667	-502
2.92033	-554
2.92400	-606
2.92767	-657
2.93133	-708
2.93500	-759
2.93867	-810
2.94233	-862
2.94600	-920
2.94967	-982
2.95333	-1044
2.95700	-1093
2.96067	-1120
2.96433	-1120
2.96800	-1094
2.97167	-1045
2.97533	-980
2.97900	-904
2.98267	-822
2.98633	-740
2.99000	-659
2.99367	-582
2.99733	-510
3.00100	-444
3.00467	-385
3.00833	-332
3.01200	-285
3.01567	-243
3.01933	-207
3.02300	-176
3.02667	-148
3.03033	-125
3.03400	-104
3.03767	-87
3.04133	-72
3.04500	-59
3.04867	-48
3.05233	-39
3.05600	-31
3.05967	-24
3.06333	-18
3.06700	-13
3.07067	-8
3.07433	-5
3.07800	-1
3.08167	2
3.08533	4
3.08900	7
3.09267	8
3.09633	10
3.10000	11
3.10367	13
3.10733	14
3.11100	15
3.11467	16
3.11833	16
3.12200	17
3.12567	17
3.12933	17
3.13300	17
3.13667	18
3.14033	18
3.14400	18
3.14767	18
3.15133	18
3.15500	18
3.15867	18
3.16233	18
3.16600	18
3.16967	18
3.17333	19
3.17700	19
3.18067	19
3.18433	20
3.18800	20
3.19167	21
3.19533	21
3.19900	22
3.20267	22
3.20633	23
3.21000	23
3.21367	24
3.21733	25
3.22100	25
3.22467	25
3.22833	25
3.23200	26
3.23567	26
3.23933	26
3.24300	27
3.24667	27
3.25033	28
3.25400	28
3.25767	28
3.26133	28
3.26500	29
3.26867	29
3.27233	29
3.27600	29
3.27967	29
3.28333	29
3.28700	29
3.29067	30
3.29433	30
3.29800	30
3.30167	30
3.30533	30
3.30900	30
3.31267	31
3.31633	31
3.32000	31
3.32367	31
3.32733	31
3.33100	31
3.33467	31
3.33833	30
3.34200	30
3.34567	30
3.34933	30
3.35300	30
3.35667	30
3.36033	30
3.36400	30
3.36767	30
3.37133	30
3.37500	30
3.37867	30
3.38233	30
3.38600	30
3.38967	30
3.39333	30
3.39700	30
3.40067	30
3.40433	30
3.40800	30
3.41167	30
3.41533	30
3.41900	29
3.42267	29
3.42633	29
3.43000	29
3.43367	29
3.43733	29
3.44100	29
3.44467	29
3.44833	29
3.45200	29
3.45567	29
3.45933	29
3.46300	29
3.46667	29
3.47033	29
3.47400	29
3.47767	29
3.48133	29
3.48500	29
3.48867	29
3.49233	29
3.49600	29
3.49967	29
3.50333	29
3.50700	29
3.51067	29
3.51433	29
3.51800	30
3.52167	30
3.52533	30
3.52900	30
3.53267	30
3.53633	30
3.54000	30
3.54367	30
3.54733	30
3.55100	30
3.55467	30
3.55833	30
3.56200	30
3.56567	29
3.56933	29
3.57300	29
3.57667	29
3.58033	29
3.58400	29
3.58767	29
3.59133	30
3.59500	30
3.59867	30
3.60233	30
3.60600	30
3.60967	30
3.61333	30
3.61700	30
3.62067	30
3.62433	30
3.62800	30
3.63167	31
3.63533	31
3.63900	31
3.64267	31
3.64633	31
3.65000	31
3.65367	31
3.65733	31
3.66100	30
3.66467	30
3.66833	30
3.67200	30
3.67567	30
3.67933	30
3.68300	30
3.68667	30
3.69033	29
3.69400	29
3.69767	30
3.70133	30
3.70500	30
3.70867	30
3.71233	30
3.71600	30
3.71967	30
3.72333	30
3.72700	29
3.73067	29
3.73433	29
3.73800	29
3.74167	30
3.74533	30
3.74900	30
3.75267	30
3.75633	31
3.76000	31
3.76367	31
3.76733	31
3.77100	31
3.77467	31
3.77833	31
3.78200	31
3.78567	31
3.78933	31
3.79300	31
3.79667	31
3.80033	31
3.80400	31
3.80767	31
3.81133	31
3.81500	31
3.81867	31
3.82233	31
3.82600	31
3.82967	30
3.83333	30
3.83700	30
3.84067	30
3.84433	30
3.84800	30
3.85167	30
3.85533	30
3.85900	30
3.86267	30
3.86633	30
3.87000	30
3.87367	30
3.87733	30
3.88100	30
3.88467	30
3.88833	31
3.89200	31
3.89567	31
3.89933	31
3.90300	31
3.90667	31
3.91033	31
3.91400	31
3.91767	30
3.92133	30
3.92500	30
3.92867	30
3.93233	30
3.93600	30
3.93967	30
3.94333	30
3.94700	29
3.95067	29
3.95433	29
3.95800	28
3.96167	28
3.96533	29
3.96900	29
3.97267	29
3.97633	29
3.98000	29
3.98367	29
3.98733	29
3.99100	29
3.99467	30
3.99833	30

[Chromatogram (Ch3)]
Interval(msec)	220
# of Points	1091
Start Time(min)	0.002
End Time(min)	3.998
R.Time (min)	Intensity
0.00167	1
0.00533	4
0.00900	4
0.01267	4
0.01633	3
0.02000	2
0.02367	0
0.02733	-0
0.03100	-0
0.03467	-1
0.03833	-3
0.04200	-6
0.04567	-5
0.04933	-3
0.05300	-2
0.05667	-2
0.06033	-3
0.06400	-2
0.06767	-1
0.07133	0
0.07500	1
0.07867	4
0.08233	5
0.08600	5
0.08967	3
0.09333	2
0.09700	2
0.10067	2
0.10433	4
0.10800	5
0.11167	5
0.11533	3
0.11900	0
0.12267	-1
0.12633	-1
0.13000	-0
0.13367	0
0.13733	1
0.14100	2
0.14467	4
0.14833	5
0.15200	5
0.15567	5
0.15933	6
0.16300	6
0.16667	5
0.17033	4
0.17400	3
0.17767	2
0.18133	5
0.18500	5
0.18867	5
0.19233	5
0.19600	5
0.19967	6
0.20333	6
0.20700	5
0.21067	5
0.21433	7
0.21800	11
0.22167	13
0.22533	10
0.22900	5
0.23267	3
0.23633	1
0.24000	1
0.24367	2
0.24733	3
0.25100	3
0.25467	4
0.25833	4
0.26200	4
0.26567	7
0.26933	10
0.27300	10
0.27667	10
0.28033	11
0.28400	10
0.28767	8
0.29133	7
0.29500	7
0.29867	6
0.30233	5
0.30600	5
0.30967	4
0.31333	2
0.31700	2
0.32067	3
0.32433	3
0.32800	3
0.33167	2
0.33533	0
0.33900	-0
0.34267	2
0.34633	4
0.35000	5
0.35367	7
0.35733	8
0.36100	9
0.36467	11
0.36833	12
0.37200	8
0.37567	4
0.37933	3
0.38300	1
0.38667	1
0.39033	3
0.39400	4
0.39767	4
0.40133	4
0.40500	3
0.40867	2
0.41233	2
0.41600	1
0.41967	-0
0.42333	0
0.42700	1
0.43067	1
0.43433	1
0.43800	1
0.44167	2
0.44533	2
0.44900	3
0.45267	2
0.45633	2
0.46000	4
0.46367	5
0.46733	6
0.47100	7
0.47467	8
0.47833	10
0.48200	12
0.48567	11
0.48933	9
0.49300	7
0.49667	6
0.50033	8
0.50400	9
0.50767	8
0.51133	9
0.51500	11
0.51867	10
0.52233	9
0.52600	8
0.52967	9
0.53333	8
0.53700	9
0.54067	9
0.54433	8
0.54800	7
0.55167	7
0.55533	6
0.55900	6
0.56267	5
0.56633	4
0.57000	5
0.57367	4
0.57733	2
0.58100	2
0.58467	5
0.58833	8
0.59200	7
0.59567	5
0.59933	5
0.60300	4
0.60667	4
0.61033	6
0.61400	9
0.61767	9
0.62133	7
0.62500	9
0.62867	8
0.63233	6
0.63600	7
0.63967	7
0.64333	8
0.64700	7
0.65067	8
0.65433	9
0.65800	10
0.66167	11
0.66533	11
0.66900	11
0.67267	12
0.67633	11
0.68000	10
0.68367	10
0.68733	9
0.69100	10
0.69467	10
0.69833	11
0.70200	10
0.70567	11
0.70933	10
0.71300	10
0.71667	11
0.72033	10
0.72400	8
0.72767	9
0.73133	9
0.73500	9
0.73867	9
0.74233	11
0.74600	11
0.74967	10
0.75333	8
0.75700	9
0.76067	9
0.76433	8
0.76800	8
0.77167	9
0.77533	12
0.77900	14
0.78267	15
0.78633	15
0.79000	14
0.79367	14
0.79733	14
0.80100	12
0.80467	11
0.80833	11
0.81200	12
0.81567	11
0.81933	11
0.82300	13
0.82667	15
0.83033	16
0.83400	16
0.83767	16
0.84133	15
0.84500	14
0.84867	15
0.85233	15
0.85600	16
0.85967	17
0.86333	16
0.86700	15
0.87067	13
0.87433	12
0.87800	11
0.88167	11
0.88533	12
0.88900	14
0.89267	17
0.89633	17
0.90000	17
0.90367	18
0.90733	19
0.91100	19
0.91467	19
0.91833	20
0.92200	18
0.92567	16
0.92933	14
0.93300	14
0.93667	14
0.94033	15
0.94400	15
0.94767	15
0.95133	16
0.95500	14
0.95867	12
0.96233	12
0.96600	13
0.96967	15
0.97333	16
0.97700	17
0.98067	16
0.98433	16
0.98800	17
0.99167	18
0.99533	18
0.99900	17
1.00267	15
1.00633	14
1.01000	14
1.01367	13
1.01733	12
1.02100	11
1.02467	10
1.02833	12
1.03200	16
1.03567	20
1.03933	22
1.04300	22
1.04667	22
1.05033	21
1.05400	20
1.05767	19
1.06133	19
1.06500	20
1.06867	21
1.07233	21
1.07600	21
1.07967	23
1.08333	23
1.08700	20
1.09067	18
1.09433	15
1.09800	14
1.10167	16
1.10533	21
1.10900	23
1.11267	23
1.11633	20
1.12000	18
1.12367	15
1.12733	12
1.13100	12
1.13467	12
1.13833	16
1.14200	18
1.14567	18
1.14933	20
1.15300	23
1.15667	26
1.16033	25
1.16400	23
1.16767	22
1.17133	21
1.17500	21
1.17867	20
1.18233	18
1.18600	18
1.18967	19
1.19333	19
1.19700	18
1.20067	21
1.20433	24
1.20800	25
1.21167	24
1.21533	23
1.21900	22
1.22267	23
1.22633	23
1.23000	23
1.23367	24
1.23733	24
1.24100	21
1.24467	19
1.24833	17
1.25200	17
1.25567	19
1.25933	21
1.26300	20
1.26667	19
1.27033	20
1.27400	22
1.27767	24
1.28133	24
1.28500	24
1.28867	24
1.29233	24
1.29600	25
1.29967	26
1.30333	27
1.30700	28
1.31067	28
1.31433	26
1.31800	26
1.32167	25
1.32533	24
1.32900	24
1.33267	25
1.33633	26
1.34000	28
1.34367	31
1.34733	32
1.35100	31
1.35467	30
1.35833	30
1.36200	34
1.36567	36
1.36933	39
1.37300	39
1.37667	39
1.38033	40
1.38400	38
1.38767	37
1.39133	35
1.39500	34
1.39867	32
1.40233	33
1.40600	37
1.40967	39
1.41333	38
1.41700	38
1.42067	38
1.42433	39
1.42800	40
1.43167	38
1.43533	34
1.43900	32
1.44267	32
1.44633	33
1.45000	35
1.45367	37
1.45733	40
1.46100	41
1.46467	40
1.46833	38
1.47200	37
1.47567	37
1.47933	38
1.48300	40
1.48667	40
1.49033	41
1.49400	39
1.49767	39
1.50133	38
1.50500	39
1.50867	39
1.51233	40
1.51600	42
1.51967	43
1.52333	40
1.52700	38
1.53067	37
1.53433	40
1.53800	41
1.54167	43
1.54533	44
1.54900	43
1.55267	44
1.55633	46
1.56000	46
1.56367	45
1.56733	45
1.57100	45
1.57467	45
1.57833	46
1.58200	48
1.58567	46
1.58933	43
1.59300	43
1.59667	45
1.60033	45
1.60400	45
1.60767	43
1.61133	42
1.61500	42
1.61867	42
1.62233	43
1.62600	42
1.62967	43
1.63333	45
1.63700	47
1.64067	49
1.64433	51
1.64800	52
1.65167	52
1.65533	52
1.65900	52
1.66267	53
1.66633	53
1.67000	51
1.67367	52
1.67733	54
1.68100	56
1.68467	57
1.68833	60
1.69200	61
1.69567	63
1.69933	64
1.70300	64
1.70667	65
1.71033	66
1.71400	68
1.71767	67
1.72133	69
1.72500	70
1.72867	71
1.73233	72
1.73600	72
1.73967	71
1.74333	71
1.74700	71
1.75067	71
1.75433	72
1.75800	73
1.76167	74
1.76533	75
1.76900	75
1.77267	77
1.77633	77
1.78000	76
1.78367	79
1.78733	83
1.79100	85
1.79467	86
1.79833	88
1.80200	91
1.80567	92
1.80933	92
1.81300	93
1.81667	95
1.82033	96
1.82400	97
1.82767	97
1.83133	99
1.83500	102
1.83867	103
1.84233	102
1.84600	102
1.84967	105
1.85333	108
1.85700	108
1.86067	109
1.86433	111
1.86800	114
1.87167	115
1.87533	115
1.87900	114
1.88267	114
1.88633	113
1.89000	114
1.89367	117
1.89733	119
1.90100	123
1.90467	129
1.90833	132
1.91200	134
1.91567	133
1.91933	132
1.92300	133
1.92667	133
1.93033	134
1.93400	136
1.93767	138
1.94133	141
1.94500	144
1.94867	145
1.95233	146
1.95600	150
1.95967	151
1.96333	151
1.96700	154
1.97067	155
1.97433	156
1.97800	158
1.98167	159
1.98533	159
1.98900	161
1.99267	164
1.99633	165
2.00000	168
2.00367	173
2.00733	173
2.01100	173
2.01467	174
2.01833	176
2.02200	180
2.02567	184
2.02933	189
2.03300	194
2.03667	196
2.04033	197
2.04400	199
2.04767	199
2.05133	197
2.05500	199
2.05867	202
2.06233	204
2.06600	206
2.06967	206
2.07333	208
2.07700	210
2.08067	212
2.08433	213
2.08800	215
2.09167	215
2.09533	216
2.09900	217
2.10267	217
2.10633	218
2.11000	219
2.11367	222
2.11733	226
2.12100	228
2.12467	229
2.12833	231
2.13200	233
2.13567	235
2.13933	239
2.14300	243
2.14667	246
2.15033	244
2.15400	242
2.15767	243
2.16133	246
2.16500	250
2.16867	252
2.17233	254
2.17600	257
2.17967	259
2.18333	261
2.18700	262
2.19067	264
2.19433	266
2.19800	266
2.20167	267
2.20533	267
2.20900	267
2.21267	269
2.21633	271
2.22000	271
2.22367	272
2.22733	275
2.23100	278
2.23467	280
2.23833	283
2.24200	285
2.24567	287
2.24933	291
2.25300	295
2.25667	299
2.26033	302
2.26400	304
2.26767	307
2.27133	310
2.27500	312
2.27867	313
2.28233	315
2.28600	316
2.28967	317
2.29333	318
2.29700	319
2.30067	319
2.30433	319
2.30800	321
2.31167	321
2.31533	322
2.31900	324
2.32267	328
2.32633	332
2.33000	335
2.33367	338
2.33733	341
2.34100	345
2.34467	347
2.34833	347
2.35200	346
2.35567	348
2.35933	350
2.36300	351
2.36667	352
2.37033	354
2.37400	356
2.37767	357
2.38133	360
2.38500	362
2.38867	363
2.39233	362
2.39600	358
2.39967	356
2.40333	359
2.40700	363
2.41067	367
2.41433	369
2.41800	369
2.42167	369
2.42533	370
2.42900	369
2.43267	369
2.43633	371
2.44000	373
2.44367	374
2.44733	371
2.45100	361
2.45467	347
2.45833	330
2.46200	311
2.46567	293
2.46933	277
2.47300	265
2.47667	254
2.48033	242
2.48400	226
2.48767	208
2.49133	190
2.49500	171
2.49867	153
2.50233	133
2.50600	113
2.50967	96
2.51333	82
2.51700	68
2.52067	54
2.52433	43
2.52800	34
2.53167	26
2.53533	16
2.53900	8
2.54267	3
2.54633	-5
2.55000	-13
2.55367	-19
2.55733	-23
2.56100	-25
2.56467	-29
2.56833	-33
2.57200	-36
2.57567	-38
2.57933	-41
2.58300	-42
2.58667	-47
2.59033	-53
2.59400	-58
2.59767	-61
2.60133	-65
2.60500	-72
2.60867	-82
2.61233	-98
2.61600	-120
2.61967	-148
2.62333	-177
2.62700	-206
2.63067	-236
2.63433	-263
2.63800	-285
2.64167	-303
2.64533	-315
2.64900	-325
2.65267	-330
2.65633	-332
2.66000	-332
2.66367	-330
2.66733	-325
2.67100	-316
2.67467	-308
2.67833	-299
2.68200	-289
2.68567	-279
2.68933	-269
2.69300	-261
2.69667	-252
2.70033	-246
2.70400	-243
2.70767	-264
2.71133	-297
2.71500	-314
2.71867	-301
2.72233	-268
2.72600	-225
2.72967	-176
2.73333	-125
2.73700	-75
2.74067	-27
2.74433	20
2.74800	64
2.75167	104
2.75533	141
2.75900	176
2.76267	209
2.76633	239
2.77000	265
2.77367	287
2.77733	309
2.78100	329
2.78467	345
2.78833	358
2.79200	369
2.79567	376
2.79933	382
2.80300	388
2.80667	392
2.81033	396
2.81400	402
2.81767	407
2.82133	414
2.82500	419
2.82867	428
2.83233	444
2.83600	483
2.83967	563
2.84333	702
2.84700	930
2.85067	1265
2.85433	1712
2.85800	2266
2.86167	2902
2.86533	3575
2.86900	4232
2.87267	4823
2.87633	5299
2.88000	5623
2.88367	5781
2.88733	5782
2.89100	5645
2.89467	5398
2.89833	5071
2.90200	4695
2.90567	4299
2.90933	3900
2.91300	3514
2.91667	3150
2.92033	2813
2.92400	2503
2.92767	2226
2.93133	1978
2.93500	1759
2.93867	1565
2.94233	1394
2.94600	1246
2.94967	1117
2.95333	1003
2.95700	906
2.96067	821
2.96433	748
2.96800	682
2.97167	623
2.97533	573
2.97900	531
2.98267	494
2.98633	463
2.99000	435
2.99367	411
2.99733	389
3.00100	372
3.00467	355
3.00833	341
3.01200	329
3.01567	318
3.01933	309
3.02300	300
3.02667	294
3.03033	284
3.03400	274
3.03767	266
3.04133	260
3.04500	257
3.04867	254
3.05233	251
3.05600	248
3.05967	244
3.06333	239
3.06700	235
3.07067	231
3.07433	227
3.07800	222
3.08167	219
3.08533	219
3.08900	218
3.09267	215
3.09633	213
3.10000	212
3.10367	210
3.10733	206
3.11100	202
3.11467	198
3.11833	194
3.12200	192
3.12567	189
3.12933	186
3.13300	183
3.13667	181
3.14033	180
3.14400	179
3.14767	178
3.15133	178
3.15500	176
3.15867	171
3.16233	168
3.16600	166
3.16967	164
3.17333	161
3.17700	158
3.18067	157
3.18433	157
3.18800	158
3.19167	158
3.19533	158
3.19900	155
3.20267	152
3.20633	149
3.21000	148
3.21367	147
3.21733	145
3.22100	145
3.22467	144
3.22833	142
3.23200	142
3.23567	140
3.23933	138
3.24300	137
3.24667	136
3.25033	135
3.25400	134
3.25767	134
3.26133	134
3.26500	131
3.26867	128
3.27233	127
3.27600	126
3.27967	125
3.28333	125
3.28700	124
3.29067	124
3.29433	124
3.29800	120
3.30167	115
3.30533	108
3.30900	105
3.31267	107
3.31633	108
3.32000	106
3.32367	103
3.32733	101
3.33100	98
3.33467	96
3.33833	94
3.34200	92
3.34567	91
3.34933	89
3.35300	85
3.35667	81
3.36033	78
3.36400	77
3.36767	74
3.37133	71
3.37500	69
3.37867	68
3.38233	66
3.38600	63
3.38967	62
3.39333	63
3.39700	61
3.40067	60
3.40433	59
3.40800	58
3.41167	55
3.41533	54
3.41900	52
3.42267	53
3.42633	53
3.43000	49
3.43367	48
3.43733	48
3.44100	46
3.44467	43
3.44833	40
3.45200	39
3.45567	37
3.45933	36
3.46300	33
3.46667	33
3.47033	34
3.47400	34
3.47767	35
3.48133	32
3.48500	27
3.48867	24
3.49233	23
3.49600	21
3.49967	18
3.50333	16
3.50700	13
3.51067	13
3.51433	13
3.51800	14
3.52167	15
3.52533	14
3.52900	11
3.53267	8
3.53633	6
3.54000	3
3.54367	-0
3.54733	-1
3.55100	-1
3.55467	-2
3.55833	-4
3.56200	-4
3.56567	-5
3.56933	-5
3.57300	-5
3.57667	-6
3.58033	-7
3.58400	-7
3.58767	-7
3.59133	-9
3.59500	-11
3.59867	-10
3.60233	-9
3.60600	-9
3.60967	-11
3.61333	-12
3.61700	-12
3.62067	-13
3.62433	-14
3.62800	-15
3.63167	-16
3.63533	-15
3.63900	-14
3.64267	-13
3.64633	-15
3.65000	-18
3.65367	-18
3.65733	-17
3.66100	-17
3.66467	-20
3.66833	-21
3.67200	-22
3.67567	-21
3.67933	-22
3.68300	-26
3.68667	-28
3.69033	-28
3.69400	-26
3.69767	-27
3.70133	-28
3.70500	-29
3.70867	-30
3.71233	-33
3.71600	-35
3.71967	-34
3.72333	-30
3.72700	-29
3.73067	-29
3.73433	-32
3.73800	-36
3.74167	-37
3.74533	-37
3.74900	-39
3.75267	-41
3.75633	-42
3.76000	-41
3.76367	-39
3.76733	-38
3.77100	-38
3.77467	-38
3.77833	-39
3.78200	-41
3.78567	-42
3.78933	-42
3.79300	-40
3.79667	-39
3.80033	-39
3.80400	-42
3.80767	-44
3.81133	-47
3.81500	-48
3.81867	-49
3.82233	-49
3.82600	-49
3.82967	-50
3.83333	-49
3.83700	-49
3.84067	-48
3.84433	-47
3.84800	-47
3.85167	-46
3.85533	-48
3.85900	-49
3.86267	-51
3.86633	-51
3.87000	-52
3.87367	-55
3.87733	-54
3.88100	-53
3.88467	-53
3.88833	-53
3.89200	-54
3.89567	-52
3.89933	-52
3.90300	-52
3.90667	-53
3.91033	-54
3.91400	-56
3.91767	-58
3.92133	-58
3.92500	-56
3.92867	-55
3.93233	-57
3.93600	-61
3.93967	-64
3.94333	-67
3.94700	-68
3.95067	-68
3.95433	-69
3.95800	-70
3.96167	-69
3.96533	-66
3.96900	-64
3.97267	-63
3.97633	-66
3.98000	-69
3.98367	-72
3.98733	-75
3.99100	-75
3.99467	-73
3.99833	-71

[Status Trace (Column Oven Temperature)]
Interval(msec)	1000
# of Points	240
Start Time(min)	0.000
End Time(min)	3.984
Intensity Units	
Intensity Multiplier	1
R.Time (min)	Intensity
0.00042	35.06
0.01708	35.05
0.03375	35.04
0.05042	35.05
0.06708	35.04
0.08375	35.03
0.10042	35.02
0.11708	35.02
0.13375	35.01
0.15042	35.00
0.16708	35.00
0.18375	34.99
0.20042	34.98
0.21708	34.98
0.23375	34.97
0.25042	34.96
0.26708	34.95
0.28375	34.96
0.30042	34.97
0.31708	34.96
0.33375	34.96
0.35042	34.97
0.36708	34.97
0.38375	34.99
0.40042	35.00
0.41708	34.99
0.43375	34.99
0.45042	35.00
0.46708	35.00
0.48375	35.00
0.50042	35.00
0.51708	34.99
0.53375	34.98
0.55042	34.96
0.56708	34.97
0.58375	34.98
0.60042	34.98
0.61708	35.00
0.63375	35.01
0.65042	35.00
0.66708	35.00
0.68375	35.00
0.70042	35.00
0.71708	34.99
0.73375	34.99
0.75042	34.99
0.76708	35.00
0.78375	35.00
0.80042	34.99
0.81708	34.99
0.83375	34.99
0.85042	34.99
0.86708	34.98
0.88375	34.97
0.90042	34.99
0.91708	35.01
0.93375	35.02
0.95042	35.03
0.96708	35.02
0.98375	35.01
1.00042	35.00
1.01708	35.00
1.03375	35.00
1.05042	35.00
1.06708	34.99
1.08375	34.98
1.10042	34.98
1.11708	34.98
1.13375	34.98
1.15042	34.98
1.16708	34.98
1.18375	34.98
1.20042	34.99
1.21708	34.99
1.23375	34.99
1.25042	35.00
1.26708	35.02
1.28375	35.03
1.30042	35.03
1.31708	35.02
1.33375	35.01
1.35042	35.00
1.36708	35.00
1.38375	34.98
1.40042	34.97
1.41708	34.97
1.43375	34.97
1.45042	34.98
1.46708	34.97
1.48375	34.98
1.50042	34.98
1.51708	34.99
1.53375	34.99
1.55042	34.99
1.56708	34.99
1.58375	34.99
1.60042	35.02
1.61708	35.10
1.63375	35.27
1.65042	35.48
1.66708	35.80
1.68375	36.17
1.70042	36.52
1.71708	36.87
1.73375	37.21
1.75042	37.55
1.76708	37.85
1.78375	38.16
1.80042	38.52
1.81708	38.84
1.83375	39.18
1.85042	39.50
1.86708	39.83
1.88375	40.17
1.90042	40.50
1.91708	40.83
1.93375	41.14
1.95042	41.49
1.96708	41.80
1.98375	42.13
2.00042	42.44
2.01708	42.77
2.03375	43.09
2.05042	43.42
2.06708	43.74
2.08375	44.08
2.10042	44.40
2.11708	44.72
2.13375	45.05
2.15042	45.37
2.16708	45.71
2.18375	46.03
2.20042	46.37
2.21708	46.69
2.23375	47.01
2.25042	47.33
2.26708	47.68
2.28375	48.01
2.30042	48.35
2.31708	48.66
2.33375	49.02
2.35042	49.32
2.36708	49.53
2.38375	49.62
2.40042	49.62
2.41708	49.62
2.43375	49.65
2.45042	49.67
2.46708	49.68
2.48375	49.69
2.50042	49.68
2.51708	49.72
2.53375	49.72
2.55042	49.74
2.56708	49.76
2.58375	49.77
2.60042	49.79
2.61708	49.81
2.63375	49.82
2.65042	49.83
2.66708	49.84
2.68375	49.87
2.70042	49.86
2.71708	49.85
2.73375	49.86
2.75042	49.88
2.76708	49.89
2.78375	49.89
2.80042	49.89
2.81708	49.89
2.83375	49.90
2.85042	49.91
2.86708	49.92
2.88375	49.92
2.90042	49.94
2.91708	49.95
2.93375	49.96
2.95042	49.97
2.96708	49.98
2.98375	49.98
3.00042	50.00
3.01708	50.01
3.03375	50.02
3.05042	50.03
3.06708	50.04
3.08375	50.04
3.10042	50.05
3.11708	50.06
3.13375	50.08
3.15042	50.09
3.16708	50.11
3.18375	50.12
3.20042	50.11
3.21708	50.10
3.23375	50.09
3.25042	50.08
3.26708	50.08
3.28375	50.07
3.30042	50.05
3.31708	50.04
3.33375	50.03
3.35042	50.03
3.36708	50.03
3.38375	50.02
3.40042	50.02
3.41708	50.03
3.43375	50.04
3.45042	50.04
3.46708	50.04
3.48375	50.05
3.50042	50.05
3.51708	50.04
3.53375	50.05
3.55042	50.05
3.56708	50.06
3.58375	50.05
3.60042	50.05
3.61708	50.05
3.63375	50.05
3.65042	50.05
3.66708	50.06
3.68375	50.06
3.70042	50.07
3.71708	50.07
3.73375	50.07
3.75042	50.06
3.76708	50.06
3.78375	50.06
3.80042	50.06
3.81708	50.07
3.83375	50.07
3.85042	50.07
3.86708	50.07
3.88375	50.07
3.90042	50.07
3.91708	50.07
3.93375	50.08
3.95042	50.09
3.96708	50.09
3.98375	50.09

[Status Trace (Injection Unit Temperature)]
Interval(msec)	1000
# of Points	240
Start Time(min)	0.000
End Time(min)	3.984
Intensity Units	
Intensity Multiplier	1
R.Time (min)	Intensity
0.00042	99.98
0.01708	99.98
0.03375	99.98
0.05042	99.98
0.06708	99.98
0.08375	99.98
0.10042	99.98
0.11708	99.99
0.13375	99.98
0.15042	99.98
0.16708	99.99
0.18375	99.99
0.20042	99.98
0.21708	99.98
0.23375	99.98
0.25042	99.98
0.26708	99.98
0.28375	99.99
0.30042	99.99
0.31708	99.98
0.33375	99.99
0.35042	99.98
0.36708	99.98
0.38375	99.99
0.40042	99.98
0.41708	99.99
0.43375	99.99
0.45042	99.99
0.46708	99.99
0.48375	99.99
0.50042	99.99
0.51708	99.99
0.53375	99.99
0.55042	99.99
0.56708	99.99
0.58375	99.98
0.60042	99.99
0.61708	99.99
0.63375	99.99
0.65042	99.98
0.66708	99.99
0.68375	99.98
0.70042	99.98
0.71708	99.98
0.73375	99.99
0.75042	99.99
0.76708	99.99
0.78375	99.99
0.80042	99.99
0.81708	99.99
0.83375	99.98
0.85042	99.98
0.86708	99.99
0.88375	99.99
0.90042	99.99
0.91708	99.99
0.93375	99.99
0.95042	99.99
0.96708	99.99
0.98375	99.99
1.00042	99.99
1.01708	99.99
1.03375	99.99
1.05042	99.98
1.06708	99.98
1.08375	99.98
1.10042	99.99
1.11708	99.99
1.13375	99.99
1.15042	99.99
1.16708	99.99
1.18375	99.99
1.20042	99.99
1.21708	99.99
1.23375	99.99
1.25042	99.99
1.26708	99.99
1.28375	99.99
1.30042	99.99
1.31708	100.00
1.33375	99.99
1.35042	99.99
1.36708	99.99
1.38375	99.99
1.40042	99.99
1.41708	99.99
1.43375	100.00
1.45042	99.99
1.46708	99.99
1.48375	100.00
1.50042	99.99
1.51708	99.99
1.53375	100.00
1.55042	99.99
1.56708	99.99
1.58375	99.99
1.60042	99.99
1.61708	99.99
1.63375	99.99
1.65042	100.00
1.66708	100.00
1.68375	99.99
1.70042	99.99
1.71708	99.99
1.73375	99.99
1.75042	99.99
1.76708	99.99
1.78375	99.99
1.80042	99.99
1.81708	99.99
1.83375	99.99
1.85042	99.99
1.86708	99.99
1.88375	99.99
1.90042	99.98
1.91708	99.98
1.93375	99.99
1.95042	99.98
1.96708	99.99
1.98375	99.98
2.00042	99.98
2.01708	99.98
2.03375	99.98
2.05042	99.98
2.06708	99.98
2.08375	99.98
2.10042	99.97
2.11708	99.98
2.13375	99.97
2.15042	99.98
2.16708	99.97
2.18375	99.97
2.20042	99.97
2.21708	99.97
2.23375	99.97
2.25042	99.97
2.26708	99.97
2.28375	99.97
2.30042	99.97
2.31708	99.97
2.33375	99.97
2.35042	99.97
2.36708	99.97
2.38375	99.97
2.40042	99.97
2.41708	99.97
2.43375	99.97
2.45042	99.97
2.46708	99.97
2.48375	99.97
2.50042	99.97
2.51708	99.97
2.53375	99.97
2.55042	99.98
2.56708	99.97
2.58375	99.98
2.60042	99.98
2.61708	99.98
2.63375	99.98
2.65042	99.98
2.66708	99.98
2.68375	99.98
2.70042	99.98
2.71708	99.98
2.73375	99.99
2.75042	99.99
2.76708	99.99
2.78375	99.99
2.80042	100.00
2.81708	100.00
2.83375	100.00
2.85042	100.00
2.86708	100.00
2.88375	100.01
2.90042	100.01
2.91708	100.01
2.93375	100.01
2.95042	100.01
2.96708	100.01
2.98375	100.01
3.00042	100.02
3.01708	100.02
3.03375	100.02
3.05042	100.02
3.06708	100.02
3.08375	100.02
3.10042	100.02
3.11708	100.03
3.13375	100.03
3.15042	100.03
3.16708	100.03
3.18375	100.03
3.20042	100.03
3.21708	100.03
3.23375	100.03
3.25042	100.03
3.26708	100.03
3.28375	100.03
3.30042	100.03
3.31708	100.04
3.33375	100.04
3.35042	100.04
3.36708	100.04
3.38375	100.04
3.40042	100.04
3.41708	100.04
3.43375	100.04
3.45042	100.04
3.46708	100.04
3.48375	100.04
3.50042	100.04
3.51708	100.05
3.53375	100.05
3.55042	100.05
3.56708	100.05
3.58375	100.05
3.60042	100.05
3.61708	100.04
3.63375	100.04
3.65042	100.05
3.66708	100.05
3.68375	100.05
3.70042	100.05
3.71708	100.05
3.73375	100.05
3.75042	100.05
3.76708	100.05
3.78375	100.05
3.80042	100.05
3.81708	100.06
3.83375	100.06
3.85042	100.06
3.86708	100.05
3.88375	100.05
3.90042	100.06
3.91708	100.06
3.93375	100.06
3.95042	100.06
3.96708	100.05
3.98375	100.06

[Status Trace (Carrier Gas Pressure)]
Interval(msec)	1000
# of Points	240
Start Time(min)	0.000
End Time(min)	3.984
Intensity Units	
Intensity Multiplier	1
R.Time (min)	Intensity
0.00042	58.00
0.01708	56.72
0.03375	55.86
0.05042	58.22
0.06708	59.90
0.08375	58.53
0.10042	57.97
0.11708	58.00
0.13375	58.01
0.15042	58.01
0.16708	58.00
0.18375	58.00
0.20042	58.00
0.21708	58.00
0.23375	58.00
0.25042	58.00
0.26708	58.00
0.28375	58.00
0.30042	58.00
0.31708	58.00
0.33375	58.00
0.35042	58.00
0.36708	58.00
0.38375	58.00
0.40042	58.00
0.41708	58.00
0.43375	58.00
0.45042	58.00
0.46708	58.00
0.48375	58.00
0.50042	58.00
0.51708	58.00
0.53375	58.00
0.55042	58.00
0.56708	58.00
0.58375	58.00
0.60042	58.00
0.61708	58.00
0.63375	58.00
0.65042	58.00
0.66708	58.00
0.68375	58.00
0.70042	58.00
0.71708	58.00
0.73375	58.00
0.75042	58.00
0.76708	58.00
0.78375	58.00
0.80042	58.00
0.81708	58.00
0.83375	58.00
0.85042	58.00
0.86708	58.00
0.88375	58.00
0.90042	58.00
0.91708	58.00
0.93375	58.00
0.95042	58.00
0.96708	58.00
0.98375	58.00
1.00042	58.00
1.01708	58.00
1.03375	58.00
1.05042	58.00
1.06708	58.00
1.08375	58.00
1.10042	58.00
1.11708	58.00
1.13375	58.00
1.15042	58.00
1.16708	58.00
1.18375	58.00
1.20042	58.00
1.21708	58.00
1.23375	58.00
1.25042	58.00
1.26708	58.00
1.28375	58.00
1.30042	58.00
1.31708	58.00
1.33375	58.00
1.35042	58.00
1.36708	58.00
1.38375	58.00
1.40042	58.00
1.41708	58.00
1.43375	58.00
1.45042	58.00
1.46708	58.00
1.48375	58.00
1.50042	58.00
1.51708	58.00
1.53375	58.00
1.55042	58.00
1.56708	58.00
1.58375	58.00
1.60042	58.00
1.61708	58.00
1.63375	58.00
1.65042	58.00
1.66708	58.01
1.68375	58.01
1.70042	58.00
1.71708	58.00
1.73375	58.00
1.75042	58.00
1.76708	58.00
1.78375	58.00
1.80042	58.00
1.81708	58.00
1.83375	58.00
1.85042	58.00
1.86708	58.00
1.88375	58.00
1.90042	58.00
1.91708	58.00
1.93375	58.00
1.95042	58.00
1.96708	58.00
1.98375	58.00
2.00042	58.00
2.01708	58.00
2.03375	58.00
2.05042	58.00
2.06708	58.00
2.08375	58.00
2.10042	58.00
2.11708	58.00
2.13375	58.00
2.15042	58.00
2.16708	58.00
2.18375	58.00
2.20042	58.00
2.21708	58.00
2.23375	58.00
2.25042	58.00
2.26708	58.00
2.28375	58.00
2.30042	58.00
2.31708	58.00
2.33375	58.00
2.35042	58.00
2.36708	58.00
2.38375	57.99
2.40042	57.99
2.41708	58.00
2.43375	58.00
2.45042	58.00
2.46708	58.00
2.48375	58.00
2.50042	58.00
2.51708	57.98
2.53375	57.99
2.55042	58.00
2.56708	58.00
2.58375	58.00
2.60042	58.00
2.61708	58.00
2.63375	58.00
2.65042	58.00
2.66708	58.00
2.68375	58.00
2.70042	58.00
2.71708	58.00
2.73375	58.00
2.75042	58.00
2.76708	58.00
2.78375	58.00
2.80042	58.00
2.81708	58.00
2.83375	58.00
2.85042	58.00
2.86708	58.00
2.88375	58.00
2.90042	58.00
2.91708	58.00
2.93375	58.00
2.95042	58.00
2.96708	58.00
2.98375	58.00
3.00042	58.00
3.01708	58.00
3.03375	58.00
3.05042	58.00
3.06708	58.00
3.08375	58.00
3.10042	58.00
3.11708	58.00
3.13375	58.00
3.15042	58.00
3.16708	58.00
3.18375	58.00
3.20042	58.00
3.21708	58.00
3.23375	58.00
3.25042	58.00
3.26708	58.00
3.28375	58.00
3.30042	58.00
3.31708	58.00
3.33375	58.00
3.35042	58.00
3.36708	58.00
3.38375	58.00
3.40042	58.00
3.41708	58.00
3.43375	58.00
3.45042	58.00
3.46708	58.00
3.48375	58.00
3.50042	58.00
3.51708	58.00
3.53375	58.00
3.55042	58.00
3.56708	58.00
3.58375	58.00
3.60042	58.00
3.61708	58.00
3.63375	58.00
3.65042	58.00
3.66708	58.00
3.68375	58.00
3.70042	58.00
3.71708	58.00
3.73375	58.00
3.75042	58.00
3.76708	58.00
3.78375	58.00
3.80042	58.00
3.81708	58.00
3.83375	58.00
3.85042	58.00
3.86708	58.00
3.88375	58.00
3.90042	58.00
3.91708	58.00
3.93375	58.00
3.95042	58.00
3.96708	58.00
3.98375	58.00

[Status Trace (Carrier Gas Flow)]
Interval(msec)	1000
# of Points	240
Start Time(min)	0.000
End Time(min)	3.984
Intensity Units	
Intensity Multiplier	1
R.Time (min)	Intensity
0.00042	34.50
0.01708	33.78
0.03375	34.54
0.05042	34.55
0.06708	34.51
0.08375	34.51
0.10042	34.52
0.11708	34.53
0.13375	34.52
0.15042	34.53
0.16708	34.52
0.18375	34.51
0.20042	34.51
0.21708	34.52
0.23375	34.52
0.25042	34.52
0.26708	34.52
0.28375	34.51
0.30042	34.52
0.31708	34.52
0.33375	34.52
0.35042	34.52
0.36708	34.52
0.38375	34.52
0.40042	34.52
0.41708	34.52
0.43375	34.52
0.45042	34.52
0.46708	34.52
0.48375	34.52
0.50042	34.52
0.51708	34.52
0.53375	34.52
0.55042	34.52
0.56708	34.52
0.58375	34.52
0.60042	34.52
0.61708	34.52
0.63375	34.52
0.65042	34.52
0.66708	34.52
0.68375	34.52
0.70042	34.52
0.71708	34.52
0.73375	34.52
0.75042	34.52
0.76708	34.52
0.78375	34.52
0.80042	34.52
0.81708	34.52
0.83375	34.52
0.85042	34.52
0.86708	34.52
0.88375	34.52
0.90042	34.52
0.91708	34.52
0.93375	34.52
0.95042	34.52
0.96708	34.52
0.98375	34.52
1.00042	34.52
1.01708	34.52
1.03375	34.52
1.05042	34.52
1.06708	34.52
1.08375	34.52
1.10042	34.52
1.11708	34.52
1.13375	34.52
1.15042	34.52
1.16708	34.52
1.18375	34.52
1.20042	34.52
1.21708	34.52
1.23375	34.52
1.25042	34.52
1.26708	34.52
1.28375	34.52
1.30042	34.52
1.31708	34.52
1.33375	34.52
1.35042	34.52
1.36708	34.52
1.38375	34.52
1.40042	34.52
1.41708	34.52
1.43375	34.52
1.45042	34.52
1.46708	34.52
1.48375	34.52
1.50042	34.52
1.51708	34.52
1.53375	34.52
1.55042	34.52
1.56708	34.52
1.58375	34.51
1.60042	34.51
1.61708	34.52
1.63375	34.51
1.65042	34.52
1.66708	34.52
1.68375	34.53
1.70042	34.52
1.71708	34.52
1.73375	34.52
1.75042	34.51
1.76708	34.52
1.78375	34.52
1.80042	34.52
1.81708	34.52
1.83375	34.52
1.85042	34.52
1.86708	34.52
1.88375	34.52
1.90042	34.52
1.91708	34.52
1.93375	34.52
1.95042	34.52
1.96708	34.52
1.98375	34.52
2.00042	34.52
2.01708	34.52
2.03375	34.52
2.05042	34.52
2.06708	34.52
2.08375	34.52
2.10042	34.52
2.11708	34.52
2.13375	34.52
2.15042	34.52
2.16708	34.52
2.18375	34.52
2.20042	34.52
2.21708	34.52
2.23375	34.52
2.25042	34.52
2.26708	34.52
2.28375	34.52
2.30042	34.52
2.31708	34.52
2.33375	34.52
2.35042	34.52
2.36708	34.52
2.38375	34.52
2.40042	34.52
2.41708	34.52
2.43375	34.52
2.45042	34.52
2.46708	34.52
2.48375	34.52
2.50042	34.52
2.51708	34.52
2.53375	34.52
2.55042	34.52
2.56708	34.52
2.58375	34.52
2.60042	34.52
2.61708	34.52
2.63375	34.52
2.65042	34.52
2.66708	34.52
2.68375	34.52
2.70042	34.52
2.71708	34.52
2.73375	34.52
2.75042	34.52
2.76708	34.52
2.78375	34.52
2.80042	34.52
2.81708	34.52
2.83375	34.52
2.85042	34.52
2.86708	34.52
2.88375	34.53
2.90042	34.52
2.91708	34.51
2.93375	34.52
2.95042	34.51
2.96708	34.53
2.98375	34.52
3.00042	34.52
3.01708	34.52
3.03375	34.52
3.05042	34.52
3.06708	34.52
3.08375	34.52
3.10042	34.52
3.11708	34.52
3.13375	34.52
3.15042	34.52
3.16708	34.52
3.18375	34.52
3.20042	34.52
3.21708	34.52
3.23375	34.52
3.25042	34.52
3.26708	34.52
3.28375	34.52
3.30042	34.52
3.31708	34.52
3.33375	34.52
3.35042	34.52
3.36708	34.52
3.38375	34.52
3.40042	34.52
3.41708	34.52
3.43375	34.52
3.45042	34.52
3.46708	34.52
3.48375	34.52
3.50042	34.52
3.51708	34.52
3.53375	34.52
3.55042	34.52
3.56708	34.52
3.58375	34.52
3.60042	34.52
3.61708	34.52
3.63375	34.52
3.65042	34.52
3.66708	34.52
3.68375	34.52
3.70042	34.50
3.71708	34.51
3.73375	34.51
3.75042	34.52
3.76708	34.52
3.78375	34.52
3.80042	34.52
3.81708	34.52
3.83375	34.52
3.85042	34.52
3.86708	34.52
3.88375	34.52
3.90042	34.52
3.91708	34.52
3.93375	34.52
3.95042	34.52
3.96708	34.52
3.98375	34.52

[Status Trace (Column Flow)]
Interval(msec)	1000
# of Points	240
Start Time(min)	0.000
End Time(min)	3.984
Intensity Units	
Intensity Multiplier	1
R.Time (min)	Intensity
0.00042	5.53
0.01708	5.38
0.03375	5.28
0.05042	5.55
0.06708	5.75
0.08375	5.59
0.10042	5.52
0.11708	5.53
0.13375	5.53
0.15042	5.53
0.16708	5.53
0.18375	5.53
0.20042	5.53
0.21708	5.53
0.23375	5.53
0.25042	5.53
0.26708	5.53
0.28375	5.53
0.30042	5.53
0.31708	5.53
0.33375	5.53
0.35042	5.53
0.36708	5.53
0.38375	5.53
0.40042	5.53
0.41708	5.53
0.43375	5.53
0.45042	5.53
0.46708	5.53
0.48375	5.53
0.50042	5.53
0.51708	5.53
0.53375	5.53
0.55042	5.53
0.56708	5.53
0.58375	5.53
0.60042	5.53
0.61708	5.53
0.63375	5.53
0.65042	5.53
0.66708	5.53
0.68375	5.53
0.70042	5.53
0.71708	5.53
0.73375	5.53
0.75042	5.53
0.76708	5.53
0.78375	5.53
0.80042	5.53
0.81708	5.53
0.83375	5.53
0.85042	5.53
0.86708	5.53
0.88375	5.53
0.90042	5.53
0.91708	5.53
0.93375	5.53
0.95042	5.53
0.96708	5.53
0.98375	5.53
1.00042	5.53
1.01708	5.53
1.03375	5.53
1.05042	5.53
1.06708	5.53
1.08375	5.53
1.10042	5.53
1.11708	5.53
1.13375	5.53
1.15042	5.53
1.16708	5.53
1.18375	5.53
1.20042	5.53
1.21708	5.53
1.23375	5.53
1.25042	5.53
1.26708	5.53
1.28375	5.53
1.30042	5.53
1.31708	5.53
1.33375	5.53
1.35042	5.53
1.36708	5.53
1.38375	5.53
1.40042	5.53
1.41708	5.53
1.43375	5.53
1.45042	5.53
1.46708	5.53
1.48375	5.53
1.50042	5.53
1.51708	5.53
1.53375	5.53
1.55042	5.53
1.56708	5.53
1.58375	5.53
1.60042	5.53
1.61708	5.52
1.63375	5.52
1.65042	5.51
1.66708	5.50
1.68375	5.49
1.70042	5.48
1.71708	5.47
1.73375	5.46
1.75042	5.45
1.76708	5.44
1.78375	5.43
1.80042	5.42
1.81708	5.41
1.83375	5.40
1.85042	5.39
1.86708	5.38
1.88375	5.37
1.90042	5.36
1.91708	5.35
1.93375	5.34
1.95042	5.33
1.96708	5.32
1.98375	5.31
2.00042	5.30
2.01708	5.29
2.03375	5.28
2.05042	5.27
2.06708	5.26
2.08375	5.25
2.10042	5.24
2.11708	5.23
2.13375	5.22
2.15042	5.21
2.16708	5.21
2.18375	5.20
2.20042	5.19
2.21708	5.18
2.23375	5.17
2.25042	5.16
2.26708	5.15
2.28375	5.14
2.30042	5.13
2.31708	5.12
2.33375	5.11
2.35042	5.10
2.36708	5.10
2.38375	5.09
2.40042	5.09
2.41708	5.09
2.43375	5.09
2.45042	5.09
2.46708	5.09
2.48375	5.09
2.50042	5.09
2.51708	5.09
2.53375	5.09
2.55042	5.09
2.56708	5.09
2.58375	5.09
2.60042	5.09
2.61708	5.09
2.63375	5.09
2.65042	5.09
2.66708	5.09
2.68375	5.09
2.70042	5.09
2.71708	5.09
2.73375	5.09
2.75042	5.09
2.76708	5.09
2.78375	5.09
2.80042	5.09
2.81708	5.09
2.83375	5.09
2.85042	5.09
2.86708	5.09
2.88375	5.09
2.90042	5.09
2.91708	5.08
2.93375	5.08
2.95042	5.08
2.96708	5.08
2.98375	5.08
3.00042	5.08
3.01708	5.08
3.03375	5.08
3.05042	5.08
3.06708	5.08
3.08375	5.08
3.10042	5.08
3.11708	5.08
3.13375	5.08
3.15042	5.08
3.16708	5.08
3.18375	5.08
3.20042	5.08
3.21708	5.08
3.23375	5.08
3.25042	5.08
3.26708	5.08
3.28375	5.08
3.30042	5.08
3.31708	5.08
3.33375	5.08
3.35042	5.08
3.36708	5.08
3.38375	5.08
3.40042	5.08
3.41708	5.08
3.43375	5.08
3.45042	5.08
3.46708	5.08
3.48375	5.08
3.50042	5.08
3.51708	5.08
3.53375	5.08
3.55042	5.08
3.56708	5.08
3.58375	5.08
3.60042	5.08
3.61708	5.08
3.63375	5.08
3.65042	5.08
3.66708	5.08
3.68375	5.08
3.70042	5.08
3.71708	5.08
3.73375	5.08
3.75042	5.08
3.76708	5.08
3.78375	5.08
3.80042	5.08
3.81708	5.08
3.83375	5.08
3.85042	5.08
3.86708	5.08
3.88375	5.08
3.90042	5.08
3.91708	5.08
3.93375	5.08
3.95042	5.08
3.96708	5.08
3.98375	5.08

[Status Trace (Linear Velocity)]
Interval(msec)	1000
# of Points	240
Start Time(min)	0.000
End Time(min)	3.984
Intensity Units	
Intensity Multiplier	1
R.Time (min)	Intensity
0.00042	39.01
0.01708	38.17
0.03375	37.61
0.05042	39.16
0.06708	40.26
0.08375	39.36
0.10042	39.00
0.11708	39.02
0.13375	39.03
0.15042	39.02
0.16708	39.02
0.18375	39.02
0.20042	39.02
0.21708	39.02
0.23375	39.02
0.25042	39.02
0.26708	39.02
0.28375	39.02
0.30042	39.02
0.31708	39.02
0.33375	39.02
0.35042	39.02
0.36708	39.02
0.38375	39.02
0.40042	39.02
0.41708	39.02
0.43375	39.02
0.45042	39.02
0.46708	39.02
0.48375	39.02
0.50042	39.02
0.51708	39.02
0.53375	39.02
0.55042	39.02
0.56708	39.02
0.58375	39.02
0.60042	39.02
0.61708	39.02
0.63375	39.02
0.65042	39.02
0.66708	39.02
0.68375	39.02
0.70042	39.02
0.71708	39.02
0.73375	39.02
0.75042	39.02
0.76708	39.02
0.78375	39.02
0.80042	39.02
0.81708	39.02
0.83375	39.02
0.85042	39.02
0.86708	39.02
0.88375	39.02
0.90042	39.02
0.91708	39.02
0.93375	39.02
0.95042	39.02
0.96708	39.02
0.98375	39.02
1.00042	39.02
1.01708	39.02
1.03375	39.02
1.05042	39.02
1.06708	39.02
1.08375	39.02
1.10042	39.02
1.11708	39.02
1.13375	39.02
1.15042	39.02
1.16708	39.02
1.18375	39.02
1.20042	39.02
1.21708	39.02
1.23375	39.02
1.25042	39.02
1.26708	39.02
1.28375	39.02
1.30042	39.02
1.31708	39.02
1.33375	39.02
1.35042	39.02
1.36708	39.02
1.38375	39.02
1.40042	39.02
1.41708	39.02
1.43375	39.02
1.45042	39.02
1.46708	39.02
1.48375	39.02
1.50042	39.02
1.51708	39.02
1.53375	39.02
1.55042	39.02
1.56708	39.02
1.58375	39.02
1.60042	39.02
1.61708	39.01
1.63375	39.00
1.65042	38.98
1.66708	38.95
1.68375	38.91
1.70042	38.88
1.71708	38.84
1.73375	38.81
1.75042	38.78
1.76708	38.75
1.78375	38.72
1.80042	38.69
1.81708	38.65
1.83375	38.62
1.85042	38.59
1.86708	38.56
1.88375	38.53
1.90042	38.50
1.91708	38.47
1.93375	38.44
1.95042	38.41
1.96708	38.38
1.98375	38.35
2.00042	38.32
2.01708	38.29
2.03375	38.26
2.05042	38.23
2.06708	38.20
2.08375	38.17
2.10042	38.14
2.11708	38.11
2.13375	38.08
2.15042	38.05
2.16708	38.02
2.18375	37.99
2.20042	37.96
2.21708	37.93
2.23375	37.90
2.25042	37.87
2.26708	37.84
2.28375	37.81
2.30042	37.78
2.31708	37.75
2.33375	37.72
2.35042	37.70
2.36708	37.67
2.38375	37.66
2.40042	37.66
2.41708	37.67
2.43375	37.66
2.45042	37.66
2.46708	37.66
2.48375	37.66
2.50042	37.66
2.51708	37.65
2.53375	37.65
2.55042	37.66
2.56708	37.66
2.58375	37.65
2.60042	37.65
2.61708	37.65
2.63375	37.65
2.65042	37.65
2.66708	37.65
2.68375	37.65
2.70042	37.65
2.71708	37.65
2.73375	37.65
2.75042	37.65
2.76708	37.64
2.78375	37.64
2.80042	37.64
2.81708	37.64
2.83375	37.64
2.85042	37.64
2.86708	37.64
2.88375	37.64
2.90042	37.64
2.91708	37.64
2.93375	37.64
2.95042	37.64
2.96708	37.64
2.98375	37.64
3.00042	37.63
3.01708	37.63
3.03375	37.63
3.05042	37.63
3.06708	37.63
3.08375	37.63
3.10042	37.63
3.11708	37.63
3.13375	37.63
3.15042	37.63
3.16708	37.62
3.18375	37.62
3.20042	37.62
3.21708	37.62
3.23375	37.63
3.25042	37.63
3.26708	37.63
3.28375	37.63
3.30042	37.63
3.31708	37.63
3.33375	37.63
3.35042	37.63
3.36708	37.63
3.38375	37.63
3.40042	37.63
3.41708	37.63
3.43375	37.63
3.45042	37.63
3.46708	37.63
3.48375	37.63
3.50042	37.63
3.51708	37.63
3.53375	37.63
3.55042	37.63
3.56708	37.63
3.58375	37.63
3.60042	37.63
3.61708	37.63
3.63375	37.63
3.65042	37.63
3.66708	37.63
3.68375	37.63
3.70042	37.63
3.71708	37.63
3.73375	37.63
3.75042	37.63
3.76708	37.63
3.78375	37.63
3.80042	37.63
3.81708	37.63
3.83375	37.63
3.85042	37.63
3.86708	37.63
3.88375	37.63
3.90042	37.63
3.91708	37.63
3.93375	37.63
3.95042	37.63
3.96708	37.63
3.98375	37.63

