[Header]
Application Name	LabSolutions
Version	5.110
Data File Name	C:\Users\User\Desktop\GC Analyses\Jack\UIC Prairie Sampling\7.22.22\220722_040.gcd
Output Date	10/5/2022
Output Time	2:13:40 PM

[File Information]
Type	Data File
Generated	9/28/2022 12:06:17 PM
Generated by	System Administrator
Modified	9/28/2022 12:10:58 PM
Modified by	System Administrator

[Sample Information]
Operator Name	System Administrator
Acquired	9/28/2022 12:06:56 PM
Sample Type	1:Standard
Level	1
Sample Name	220722_UICPrairie
Sample ID	220722_UICPrairie
ISTD Amount1	1
ISTD Amount2	1
ISTD Amount3	1
ISTD Amount4	1
ISTD Amount5	1
ISTD Amount6	1
ISTD Amount7	1
ISTD Amount8	1
ISTD Amount9	1
ISTD Amount10	1
ISTD Amount11	1
ISTD Amount12	1
ISTD Amount13	1
ISTD Amount14	1
ISTD Amount15	1
ISTD Amount16	1
ISTD Amount17	1
ISTD Amount18	1
ISTD Amount19	1
ISTD Amount20	1
ISTD Amount21	1
ISTD Amount22	1
ISTD Amount23	1
ISTD Amount24	1
ISTD Amount25	1
ISTD Amount26	1
ISTD Amount27	1
ISTD Amount28	1
ISTD Amount29	1
ISTD Amount30	1
ISTD Amount31	1
ISTD Amount32	1
Sample Amount	1
Dilution Factor	1
Vial#	1
Injection Volume	1
Injection Count	1
Bar Code	

[Original Files]
Data File	C:\Users\User\Desktop\GC Analyses\Jack\UIC Prairie Sampling\7.22.22\220722_040.gcd
Method File	C:\LabSolutions\Data\GHG_4min_2022\ghg3_togas_w_acet_4 min_new_int.gcm
Batch File	
Report Format File	c:\LabSolutions\System\DEFAULT.lsr

[File Description]


[Configuration]
Instrument Name	C0B7VH3-Instrument1
Instrument #	1
Line #	1
# of Detectors	3
Detector ID	DET#1	DET#2	DET#3
Detector Name	FID	PTCD	ECD
# of Channels	1	1	1

[Peak Table(Ch1)]
# of Peaks	3
Peak#	R.Time	I.Time	F.Time	Area	Height	A/H	Conc.	Mark	ID#	Name	k'	Plate #	Plate Ht.	Tailing	Resolution	Sep.Factor	Area Ratio	Height Ratio	Conc. %	Norm Conc.
1	1.479	1.439	1.542	21754	10009	2.173	100.000	   	1	CO	0.000	8739	17.165	1.154	0.000	0.000	0	0	16.667	16.667
2	1.571	1.542	1.622	4393	2251	1.951	100.000	 V 	2	CH4	0.062	11454	13.096	1.209	1.503	0.000	0	0	16.667	16.667
3	2.000	1.952	2.297	2157174	1053467	2.048	400.000	   	3	CO2	0.352	17689	8.480	1.198	7.218	5.680	0	0	66.667	66.667

[Peak Table(Ch2)]
# of Peaks	0

[Peak Table(Ch3)]
# of Peaks	3
Peak#	R.Time	I.Time	F.Time	Area	Height	A/H	Conc.	Mark	ID#	Name	k'	Plate #	Plate Ht.	Tailing	Resolution	Sep.Factor	Area Ratio	Height Ratio	Conc. %	Norm Conc.
1	2.572	2.458	2.660	5349	620	8.624	0.000	   			0.000	2572	58.324	0.000	0.000	0.000	0	0	0.000	0.000
2	2.730	2.660	2.818	2552	288	8.850	0.104	 V 	1	N2O	0.061	8	18552.371	0.000	0.078	0.000	0	0	10.381	10.381
3	2.880	2.818	3.254	22029	5142	4.284	0.896	 V 	1	N2O	0.120	12286	12.209	0.000	0.076	1.953	0	0	89.619	89.619

[Compound Results(Ch1)]
# of IDs	6
ID#	Name	R.Time	Area	Height	Conc.	Curve	3rd	2nd	1st	Constant	Area Ratio	Height Ratio	Conc. %	Norm Conc.
1	CO	1.479	21754	10009	100.000	Linear	0.000000e+00	0.000000e+00	2.175372e+002	0.000000e+00	0	0	16.667	16.667
2	CH4	1.571	4393	2251	100.000	Linear	0.000000e+00	0.000000e+00	4.392814e+001	0.000000e+00	0	0	16.667	16.667
3	CO2	2.000	2157174	1053467	400.000	Linear	0.000000e+00	0.000000e+00	5.392935e+003	0.000000e+00	0	0	66.667	66.667
4	Ethylene	0.000	0	0	0.000	Linear	0.000000e+00	0.000000e+00	0.000000e+00	0.000000e+00	0	0	0.000	0.000
5	Acetylene	0.000	0	0	0.000	Linear	0.000000e+00	0.000000e+00	0.000000e+00	0.000000e+00	0	0	0.000	0.000
6	Ethane	0.000	0	0	0.000	Linear	0.000000e+00	0.000000e+00	0.000000e+00	0.000000e+00	0	0	0.000	0.000

[Compound Results(Ch2)]
# of IDs	5
ID#	Name	R.Time	Area	Height	Conc.	Curve	3rd	2nd	1st	Constant	Area Ratio	Height Ratio	Conc. %	Norm Conc.
1	Hydrogen	0.000	0	0	0.000	Linear	0.000000e+00	0.000000e+00	0.000000e+00	0.000000e+00	0	0	0.000	0.000
2	Oxygen	0.000	0	0	0.000	Linear	0.000000e+00	0.000000e+00	0.000000e+00	0.000000e+00	0	0	0.000	0.000
3	Nitrogen	0.000	0	0	0.000	Linear	0.000000e+00	0.000000e+00	0.000000e+00	0.000000e+00	0	0	0.000	0.000
4	Methane	0.000	0	0	0.000	Linear	0.000000e+00	0.000000e+00	0.000000e+00	0.000000e+00	0	0	0.000	0.000
5	Carbon Monoxide	0.000	0	0	0.000	Linear	0.000000e+00	0.000000e+00	0.000000e+00	0.000000e+00	0	0	0.000	0.000

[Compound Results(Ch3)]
# of IDs	2
ID#	Name	R.Time	Area	Height	Conc.	Curve	3rd	2nd	1st	Constant	Area Ratio	Height Ratio	Conc. %	Norm Conc.
1	N2O	2.880	24580	5430	1.000	Linear	0.000000e+00	0.000000e+00	2.458024e+004	0.000000e+00	0	0	100.000	100.000
2	SF6	0.000	0	0	0.000	Linear	0.000000e+00	0.000000e+00	0.000000e+00	0.000000e+00	0	0	0.000	0.000

[Group Results(Ch1)]
# of Groups	0

[Group Results(Ch2)]
# of Groups	0

[Group Results(Ch3)]
# of Groups	0

[Chromatogram (Ch1)]
Interval(msec)	220
# of Points	1091
Start Time(min)	0.002
End Time(min)	3.998
R.Time (min)	Intensity
0.00167	-6
0.00533	-1
0.00900	-3
0.01267	-11
0.01633	-19
0.02000	-23
0.02367	-23
0.02733	-16
0.03100	-4
0.03467	10
0.03833	18
0.04200	19
0.04567	12
0.04933	6
0.05300	4
0.05667	4
0.06033	1
0.06400	-5
0.06767	-10
0.07133	-8
0.07500	-3
0.07867	2
0.08233	5
0.08600	5
0.08967	5
0.09333	6
0.09700	7
0.10067	4
0.10433	0
0.10800	-4
0.11167	-8
0.11533	-11
0.11900	-11
0.12267	-9
0.12633	-4
0.13000	1
0.13367	-0
0.13733	-4
0.14100	-7
0.14467	-8
0.14833	-12
0.15200	-17
0.15567	-20
0.15933	-19
0.16300	-14
0.16667	-11
0.17033	-12
0.17400	-17
0.17767	-21
0.18133	-26
0.18500	-28
0.18867	-27
0.19233	-22
0.19600	-16
0.19967	-13
0.20333	-12
0.20700	-13
0.21067	-15
0.21433	-21
0.21800	-27
0.22167	-32
0.22533	-35
0.22900	-34
0.23267	-27
0.23633	-17
0.24000	-8
0.24367	-2
0.24733	-5
0.25100	-10
0.25467	-14
0.25833	-15
0.26200	-15
0.26567	-17
0.26933	-18
0.27300	-16
0.27667	-16
0.28033	-19
0.28400	-21
0.28767	-20
0.29133	-15
0.29500	-9
0.29867	-4
0.30233	-3
0.30600	0
0.30967	0
0.31333	-6
0.31700	-15
0.32067	-26
0.32433	-34
0.32800	-37
0.33167	-37
0.33533	-37
0.33900	-32
0.34267	-25
0.34633	-20
0.35000	-21
0.35367	-31
0.35733	-41
0.36100	-42
0.36467	-36
0.36833	-31
0.37200	-26
0.37567	-20
0.37933	-18
0.38300	-26
0.38667	-39
0.39033	-50
0.39400	-58
0.39767	-61
0.40133	-57
0.40500	-52
0.40867	-49
0.41233	-47
0.41600	-46
0.41967	-42
0.42333	-35
0.42700	-31
0.43067	-31
0.43433	-29
0.43800	-28
0.44167	-29
0.44533	-29
0.44900	-30
0.45267	-34
0.45633	-40
0.46000	-44
0.46367	-42
0.46733	-34
0.47100	-25
0.47467	-19
0.47833	-16
0.48200	-15
0.48567	-18
0.48933	-25
0.49300	-31
0.49667	-35
0.50033	-38
0.50400	-39
0.50767	-39
0.51133	-39
0.51500	-38
0.51867	-34
0.52233	-30
0.52600	-27
0.52967	-27
0.53333	-25
0.53700	-23
0.54067	-24
0.54433	-30
0.54800	-36
0.55167	-41
0.55533	-43
0.55900	-42
0.56267	-44
0.56633	-49
0.57000	-51
0.57367	-49
0.57733	-48
0.58100	-47
0.58467	-46
0.58833	-44
0.59200	-43
0.59567	-42
0.59933	-42
0.60300	-43
0.60667	-46
0.61033	-50
0.61400	-53
0.61767	-50
0.62133	-40
0.62500	-29
0.62867	-25
0.63233	-26
0.63600	-28
0.63967	-26
0.64333	-20
0.64700	-21
0.65067	-27
0.65433	-34
0.65800	-40
0.66167	-47
0.66533	-57
0.66900	-63
0.67267	-61
0.67633	-57
0.68000	-48
0.68367	-41
0.68733	-41
0.69100	-46
0.69467	-56
0.69833	-64
0.70200	-64
0.70567	-63
0.70933	-61
0.71300	-60
0.71667	-58
0.72033	-52
0.72400	-45
0.72767	-40
0.73133	-37
0.73500	-34
0.73867	-34
0.74233	-38
0.74600	-43
0.74967	-47
0.75333	-45
0.75700	-42
0.76067	-37
0.76433	-35
0.76800	-36
0.77167	-39
0.77533	-44
0.77900	-52
0.78267	-60
0.78633	-62
0.79000	-56
0.79367	-51
0.79733	-46
0.80100	-45
0.80467	-48
0.80833	-54
0.81200	-59
0.81567	-64
0.81933	-66
0.82300	-65
0.82667	-65
0.83033	-69
0.83400	-74
0.83767	-77
0.84133	-77
0.84500	-72
0.84867	-66
0.85233	-61
0.85600	-58
0.85967	-59
0.86333	-60
0.86700	-58
0.87067	-60
0.87433	-63
0.87800	-65
0.88167	-66
0.88533	-65
0.88900	-65
0.89267	-63
0.89633	-59
0.90000	-60
0.90367	-62
0.90733	-61
0.91100	-60
0.91467	-58
0.91833	-61
0.92200	-67
0.92567	-69
0.92933	-67
0.93300	-63
0.93667	-59
0.94033	-59
0.94400	-60
0.94767	-63
0.95133	-69
0.95500	-78
0.95867	-89
0.96233	-97
0.96600	-98
0.96967	-93
0.97333	-86
0.97700	-81
0.98067	-77
0.98433	-75
0.98800	-74
0.99167	-69
0.99533	-62
0.99900	-58
1.00267	-56
1.00633	-54
1.01000	-55
1.01367	-58
1.01733	-61
1.02100	-62
1.02467	-61
1.02833	-58
1.03200	-53
1.03567	-53
1.03933	-60
1.04300	-68
1.04667	-76
1.05033	-84
1.05400	-89
1.05767	-90
1.06133	-87
1.06500	-84
1.06867	-80
1.07233	-77
1.07600	-75
1.07967	-76
1.08333	-78
1.08700	-81
1.09067	-81
1.09433	-77
1.09800	-69
1.10167	-63
1.10533	-62
1.10900	-64
1.11267	-66
1.11633	-66
1.12000	-65
1.12367	-68
1.12733	-76
1.13100	-86
1.13467	-93
1.13833	-93
1.14200	-90
1.14567	-87
1.14933	-83
1.15300	-81
1.15667	-82
1.16033	-83
1.16400	-82
1.16767	-79
1.17133	-79
1.17500	-82
1.17867	-85
1.18233	-88
1.18600	-94
1.18967	-96
1.19333	-97
1.19700	-98
1.20067	-99
1.20433	-99
1.20800	-97
1.21167	-91
1.21533	-84
1.21900	-82
1.22267	-84
1.22633	-88
1.23000	-88
1.23367	-89
1.23733	-92
1.24100	-97
1.24467	-102
1.24833	-106
1.25200	-108
1.25567	-104
1.25933	-103
1.26300	-102
1.26667	-102
1.27033	-105
1.27400	-105
1.27767	-103
1.28133	-102
1.28500	-100
1.28867	-96
1.29233	-93
1.29600	-94
1.29967	-97
1.30333	-97
1.30700	-94
1.31067	-92
1.31433	-92
1.31800	-94
1.32167	-99
1.32533	-103
1.32900	-101
1.33267	-95
1.33633	-88
1.34000	-85
1.34367	-86
1.34733	-91
1.35100	-95
1.35467	-95
1.35833	-94
1.36200	-100
1.36567	-112
1.36933	-122
1.37300	-126
1.37667	-128
1.38033	-127
1.38400	-126
1.38767	-121
1.39133	-112
1.39500	-102
1.39867	-93
1.40233	-87
1.40600	-80
1.40967	-76
1.41333	-76
1.41700	-81
1.42067	-89
1.42433	-92
1.42800	-91
1.43167	-93
1.43533	-94
1.43900	-85
1.44267	-30
1.44633	175
1.45000	636
1.45367	1468
1.45733	2815
1.46100	4585
1.46467	6429
1.46833	8018
1.47200	9178
1.47567	9828
1.47933	9913
1.48300	9400
1.48667	8348
1.49033	6950
1.49400	5459
1.49767	4090
1.50133	2955
1.50500	2080
1.50867	1435
1.51233	971
1.51600	642
1.51967	410
1.52333	247
1.52700	137
1.53067	64
1.53433	8
1.53800	-35
1.54167	-48
1.54533	12
1.54900	209
1.55267	556
1.55633	989
1.56000	1415
1.56367	1766
1.56733	2014
1.57100	2131
1.57467	2082
1.57833	1865
1.58200	1529
1.58567	1155
1.58933	807
1.59300	527
1.59667	322
1.60033	176
1.60400	70
1.60767	-6
1.61133	-60
1.61500	-95
1.61867	-118
1.62233	-134
1.62600	-142
1.62967	-144
1.63333	-144
1.63700	-140
1.64067	-140
1.64433	-141
1.64800	-143
1.65167	-143
1.65533	-143
1.65900	-143
1.66267	-146
1.66633	-152
1.67000	-153
1.67367	-152
1.67733	-150
1.68100	-148
1.68467	-146
1.68833	-146
1.69200	-148
1.69567	-148
1.69933	-146
1.70300	-143
1.70667	-144
1.71033	-147
1.71400	-150
1.71767	-150
1.72133	-150
1.72500	-148
1.72867	-147
1.73233	-148
1.73600	-151
1.73967	-156
1.74333	-162
1.74700	-163
1.75067	-162
1.75433	-161
1.75800	-159
1.76167	-162
1.76533	-166
1.76900	-166
1.77267	-163
1.77633	-161
1.78000	-155
1.78367	-150
1.78733	-145
1.79100	-142
1.79467	-141
1.79833	-143
1.80200	-144
1.80567	-143
1.80933	-141
1.81300	-143
1.81667	-146
1.82033	-150
1.82400	-149
1.82767	-151
1.83133	-154
1.83500	-155
1.83867	-152
1.84233	-148
1.84600	-147
1.84967	-146
1.85333	-143
1.85700	-138
1.86067	-131
1.86433	-125
1.86800	-126
1.87167	-130
1.87533	-133
1.87900	-134
1.88267	-132
1.88633	-128
1.89000	-122
1.89367	-122
1.89733	-126
1.90100	-128
1.90467	-130
1.90833	-131
1.91200	-132
1.91567	-134
1.91933	-134
1.92300	-134
1.92667	-133
1.93033	-130
1.93400	-128
1.93767	-131
1.94133	-136
1.94500	-142
1.94867	-146
1.95233	-142
1.95600	-90
1.95967	272
1.96333	2200
1.96700	10119
1.97067	34940
1.97433	94830
1.97800	207319
1.98167	373916
1.98533	572820
1.98900	768926
1.99267	928484
1.99633	1027630
2.00000	1053356
2.00367	1004887
2.00733	895099
2.01100	747268
2.01467	588253
2.01833	440419
2.02200	316827
2.02567	221300
2.02933	151562
2.03300	102664
2.03667	69315
2.04033	46977
2.04400	32161
2.04767	22365
2.05133	15874
2.05500	11536
2.05867	8603
2.06233	6590
2.06600	5177
2.06967	4165
2.07333	3421
2.07700	2860
2.08067	2428
2.08433	2095
2.08800	1829
2.09167	1615
2.09533	1445
2.09900	1311
2.10267	1201
2.10633	1106
2.11000	1015
2.11367	932
2.11733	858
2.12100	791
2.12467	731
2.12833	679
2.13200	635
2.13567	603
2.13933	570
2.14300	535
2.14667	503
2.15033	473
2.15400	450
2.15767	430
2.16133	415
2.16500	400
2.16867	386
2.17233	372
2.17600	355
2.17967	338
2.18333	323
2.18700	309
2.19067	296
2.19433	284
2.19800	272
2.20167	261
2.20533	251
2.20900	241
2.21267	233
2.21633	229
2.22000	225
2.22367	218
2.22733	210
2.23100	206
2.23467	204
2.23833	203
2.24200	203
2.24567	199
2.24933	194
2.25300	186
2.25667	174
2.26033	160
2.26400	152
2.26767	153
2.27133	157
2.27500	155
2.27867	147
2.28233	134
2.28600	121
2.28967	108
2.29333	98
2.29700	89
2.30067	81
2.30433	78
2.30800	81
2.31167	87
2.31533	96
2.31900	106
2.32267	115
2.32633	114
2.33000	104
2.33367	95
2.33733	91
2.34100	86
2.34467	79
2.34833	69
2.35200	60
2.35567	57
2.35933	59
2.36300	62
2.36667	64
2.37033	67
2.37400	67
2.37767	61
2.38133	56
2.38500	53
2.38867	52
2.39233	55
2.39600	59
2.39967	63
2.40333	65
2.40700	67
2.41067	69
2.41433	69
2.41800	64
2.42167	59
2.42533	55
2.42900	53
2.43267	50
2.43633	46
2.44000	43
2.44367	44
2.44733	48
2.45100	53
2.45467	56
2.45833	57
2.46200	56
2.46567	54
2.46933	51
2.47300	49
2.47667	46
2.48033	46
2.48400	45
2.48767	41
2.49133	36
2.49500	28
2.49867	24
2.50233	23
2.50600	25
2.50967	26
2.51333	26
2.51700	27
2.52067	29
2.52433	31
2.52800	37
2.53167	41
2.53533	41
2.53900	40
2.54267	34
2.54633	26
2.55000	19
2.55367	15
2.55733	14
2.56100	13
2.56467	12
2.56833	10
2.57200	9
2.57567	9
2.57933	11
2.58300	13
2.58667	12
2.59033	9
2.59400	4
2.59767	0
2.60133	-2
2.60500	-2
2.60867	-1
2.61233	-1
2.61600	-3
2.61967	-4
2.62333	-5
2.62700	-7
2.63067	-10
2.63433	-12
2.63800	-12
2.64167	-12
2.64533	-10
2.64900	-4
2.65267	2
2.65633	4
2.66000	-0
2.66367	-6
2.66733	-11
2.67100	-17
2.67467	-21
2.67833	-22
2.68200	-21
2.68567	-21
2.68933	-19
2.69300	-16
2.69667	-11
2.70033	-5
2.70400	-3
2.70767	-6
2.71133	-14
2.71500	-23
2.71867	-31
2.72233	-36
2.72600	-37
2.72967	-37
2.73333	-35
2.73700	-36
2.74067	-37
2.74433	-34
2.74800	-29
2.75167	-24
2.75533	-23
2.75900	-26
2.76267	-29
2.76633	-27
2.77000	-25
2.77367	-26
2.77733	-30
2.78100	-34
2.78467	-39
2.78833	-42
2.79200	-44
2.79567	-49
2.79933	-50
2.80300	-48
2.80667	-42
2.81033	-35
2.81400	-29
2.81767	-23
2.82133	-22
2.82500	-23
2.82867	-24
2.83233	-26
2.83600	-29
2.83967	-37
2.84333	-45
2.84700	-50
2.85067	-52
2.85433	-51
2.85800	-45
2.86167	-39
2.86533	-40
2.86900	-44
2.87267	-47
2.87633	-46
2.88000	-42
2.88367	-35
2.88733	-30
2.89100	-27
2.89467	-30
2.89833	-30
2.90200	-28
2.90567	-28
2.90933	-33
2.91300	-41
2.91667	-48
2.92033	-55
2.92400	-59
2.92767	-56
2.93133	-49
2.93500	-43
2.93867	-37
2.94233	-31
2.94600	-25
2.94967	-19
2.95333	-15
2.95700	-14
2.96067	-19
2.96433	-28
2.96800	-38
2.97167	-47
2.97533	-55
2.97900	-55
2.98267	-51
2.98633	-47
2.99000	-45
2.99367	-45
2.99733	-41
3.00100	-38
3.00467	-38
3.00833	-38
3.01200	-37
3.01567	-36
3.01933	-34
3.02300	-33
3.02667	-32
3.03033	-29
3.03400	-27
3.03767	-24
3.04133	-20
3.04500	-20
3.04867	-23
3.05233	-30
3.05600	-38
3.05967	-44
3.06333	-49
3.06700	-52
3.07067	-51
3.07433	-47
3.07800	-44
3.08167	-44
3.08533	-44
3.08900	-43
3.09267	-43
3.09633	-41
3.10000	-39
3.10367	-34
3.10733	-28
3.11100	-23
3.11467	-18
3.11833	-16
3.12200	-16
3.12567	-19
3.12933	-19
3.13300	-21
3.13667	-23
3.14033	-27
3.14400	-33
3.14767	-42
3.15133	-49
3.15500	-51
3.15867	-53
3.16233	-57
3.16600	-61
3.16967	-64
3.17333	-63
3.17700	-56
3.18067	-45
3.18433	-36
3.18800	-31
3.19167	-33
3.19533	-40
3.19900	-48
3.20267	-53
3.20633	-58
3.21000	-65
3.21367	-71
3.21733	-70
3.22100	-66
3.22467	-60
3.22833	-56
3.23200	-51
3.23567	-45
3.23933	-39
3.24300	-31
3.24667	-22
3.25033	-18
3.25400	-19
3.25767	-25
3.26133	-34
3.26500	-42
3.26867	-46
3.27233	-50
3.27600	-51
3.27967	-49
3.28333	-50
3.28700	-54
3.29067	-55
3.29433	-51
3.29800	-47
3.30167	-43
3.30533	-40
3.30900	-39
3.31267	-40
3.31633	-45
3.32000	-52
3.32367	-58
3.32733	-58
3.33100	-55
3.33467	-52
3.33833	-49
3.34200	-46
3.34567	-44
3.34933	-44
3.35300	-44
3.35667	-41
3.36033	-35
3.36400	-30
3.36767	-28
3.37133	-28
3.37500	-33
3.37867	-38
3.38233	-44
3.38600	-45
3.38967	-42
3.39333	-41
3.39700	-44
3.40067	-46
3.40433	-46
3.40800	-45
3.41167	-44
3.41533	-43
3.41900	-43
3.42267	-42
3.42633	-42
3.43000	-45
3.43367	-50
3.43733	-51
3.44100	-48
3.44467	-43
3.44833	-42
3.45200	-44
3.45567	-47
3.45933	-50
3.46300	-53
3.46667	-57
3.47033	-55
3.47400	-45
3.47767	-40
3.48133	-41
3.48500	-47
3.48867	-50
3.49233	-49
3.49600	-43
3.49967	-36
3.50333	-34
3.50700	-39
3.51067	-46
3.51433	-50
3.51800	-54
3.52167	-61
3.52533	-68
3.52900	-74
3.53267	-74
3.53633	-69
3.54000	-64
3.54367	-63
3.54733	-66
3.55100	-69
3.55467	-65
3.55833	-56
3.56200	-48
3.56567	-43
3.56933	-39
3.57300	-41
3.57667	-48
3.58033	-54
3.58400	-56
3.58767	-56
3.59133	-54
3.59500	-52
3.59867	-52
3.60233	-53
3.60600	-53
3.60967	-54
3.61333	-57
3.61700	-60
3.62067	-62
3.62433	-60
3.62800	-57
3.63167	-51
3.63533	-42
3.63900	-36
3.64267	-36
3.64633	-36
3.65000	-36
3.65367	-36
3.65733	-38
3.66100	-42
3.66467	-44
3.66833	-45
3.67200	-43
3.67567	-41
3.67933	-41
3.68300	-44
3.68667	-48
3.69033	-54
3.69400	-58
3.69767	-59
3.70133	-58
3.70500	-58
3.70867	-56
3.71233	-53
3.71600	-50
3.71967	-47
3.72333	-44
3.72700	-40
3.73067	-34
3.73433	-28
3.73800	-20
3.74167	-13
3.74533	-12
3.74900	-15
3.75267	-19
3.75633	-24
3.76000	-29
3.76367	-29
3.76733	-25
3.77100	-22
3.77467	-17
3.77833	-15
3.78200	-19
3.78567	-25
3.78933	-35
3.79300	-43
3.79667	-46
3.80033	-42
3.80400	-36
3.80767	-33
3.81133	-38
3.81500	-46
3.81867	-55
3.82233	-62
3.82600	-65
3.82967	-67
3.83333	-67
3.83700	-63
3.84067	-54
3.84433	-43
3.84800	-32
3.85167	-24
3.85533	-22
3.85900	-26
3.86267	-28
3.86633	-26
3.87000	-26
3.87367	-32
3.87733	-39
3.88100	-45
3.88467	-52
3.88833	-59
3.89200	-61
3.89567	-62
3.89933	-61
3.90300	-57
3.90667	-45
3.91033	-27
3.91400	-12
3.91767	-3
3.92133	0
3.92500	-3
3.92867	-13
3.93233	-26
3.93600	-34
3.93967	-38
3.94333	-42
3.94700	-48
3.95067	-53
3.95433	-56
3.95800	-56
3.96167	-51
3.96533	-46
3.96900	-40
3.97267	-35
3.97633	-32
3.98000	-28
3.98367	-26
3.98733	-28
3.99100	-31
3.99467	-36
3.99833	-38

[Chromatogram (Ch2)]
Interval(msec)	220
# of Points	1091
Start Time(min)	0.002
End Time(min)	3.998
R.Time (min)	Intensity
0.00167	1
0.00533	1
0.00900	1
0.01267	1
0.01633	1
0.02000	1
0.02367	1
0.02733	1
0.03100	2
0.03467	2
0.03833	2
0.04200	2
0.04567	2
0.04933	2
0.05300	2
0.05667	2
0.06033	2
0.06400	2
0.06767	2
0.07133	2
0.07500	2
0.07867	2
0.08233	2
0.08600	2
0.08967	2
0.09333	2
0.09700	2
0.10067	2
0.10433	2
0.10800	2
0.11167	2
0.11533	2
0.11900	2
0.12267	2
0.12633	2
0.13000	2
0.13367	2
0.13733	2
0.14100	2
0.14467	2
0.14833	2
0.15200	2
0.15567	2
0.15933	1
0.16300	1
0.16667	1
0.17033	1
0.17400	1
0.17767	1
0.18133	0
0.18500	0
0.18867	-0
0.19233	-1
0.19600	-1
0.19967	-1
0.20333	-1
0.20700	-1
0.21067	-1
0.21433	-1
0.21800	-1
0.22167	-1
0.22533	-1
0.22900	-1
0.23267	-1
0.23633	-1
0.24000	-1
0.24367	-1
0.24733	-1
0.25100	-1
0.25467	-1
0.25833	-2
0.26200	-2
0.26567	-2
0.26933	-2
0.27300	-2
0.27667	-2
0.28033	-2
0.28400	-2
0.28767	-3
0.29133	-3
0.29500	-3
0.29867	-3
0.30233	-3
0.30600	-3
0.30967	-3
0.31333	-3
0.31700	-3
0.32067	-3
0.32433	-3
0.32800	-4
0.33167	-4
0.33533	-3
0.33900	-4
0.34267	-4
0.34633	-4
0.35000	-5
0.35367	-5
0.35733	-5
0.36100	-6
0.36467	-6
0.36833	-6
0.37200	-6
0.37567	-6
0.37933	-6
0.38300	-6
0.38667	-5
0.39033	-5
0.39400	-4
0.39767	-4
0.40133	-3
0.40500	-3
0.40867	-2
0.41233	-2
0.41600	-2
0.41967	-1
0.42333	-1
0.42700	-0
0.43067	0
0.43433	0
0.43800	1
0.44167	1
0.44533	2
0.44900	2
0.45267	2
0.45633	2
0.46000	2
0.46367	2
0.46733	2
0.47100	2
0.47467	2
0.47833	2
0.48200	2
0.48567	2
0.48933	2
0.49300	1
0.49667	1
0.50033	1
0.50400	1
0.50767	1
0.51133	1
0.51500	1
0.51867	0
0.52233	0
0.52600	0
0.52967	0
0.53333	-0
0.53700	-0
0.54067	-0
0.54433	-1
0.54800	-1
0.55167	-1
0.55533	-1
0.55900	-1
0.56267	-2
0.56633	-2
0.57000	-2
0.57367	-3
0.57733	-3
0.58100	-3
0.58467	-3
0.58833	-3
0.59200	-3
0.59567	-4
0.59933	-4
0.60300	-4
0.60667	-4
0.61033	-4
0.61400	-5
0.61767	-5
0.62133	-5
0.62500	-6
0.62867	-6
0.63233	-6
0.63600	-6
0.63967	-6
0.64333	-7
0.64700	-7
0.65067	-6
0.65433	-6
0.65800	-6
0.66167	-5
0.66533	-5
0.66900	-4
0.67267	-4
0.67633	-4
0.68000	-3
0.68367	-3
0.68733	-3
0.69100	-3
0.69467	-3
0.69833	-2
0.70200	-2
0.70567	-2
0.70933	-2
0.71300	-2
0.71667	-2
0.72033	-2
0.72400	-2
0.72767	-2
0.73133	-2
0.73500	-2
0.73867	-2
0.74233	-2
0.74600	-3
0.74967	-3
0.75333	-3
0.75700	-3
0.76067	-3
0.76433	-3
0.76800	-3
0.77167	-3
0.77533	-3
0.77900	-3
0.78267	-3
0.78633	-3
0.79000	-2
0.79367	-2
0.79733	-2
0.80100	-1
0.80467	-1
0.80833	-1
0.81200	-1
0.81567	-0
0.81933	-0
0.82300	-0
0.82667	-0
0.83033	-0
0.83400	-0
0.83767	-0
0.84133	-0
0.84500	-0
0.84867	-0
0.85233	-0
0.85600	-0
0.85967	-0
0.86333	-0
0.86700	0
0.87067	0
0.87433	1
0.87800	1
0.88167	1
0.88533	1
0.88900	1
0.89267	0
0.89633	0
0.90000	0
0.90367	-0
0.90733	-1
0.91100	-1
0.91467	-1
0.91833	-2
0.92200	-2
0.92567	-2
0.92933	-2
0.93300	-2
0.93667	-2
0.94033	-2
0.94400	-2
0.94767	-2
0.95133	-2
0.95500	-2
0.95867	-2
0.96233	-2
0.96600	-2
0.96967	-2
0.97333	-2
0.97700	-2
0.98067	-2
0.98433	-2
0.98800	-2
0.99167	-2
0.99533	-3
0.99900	-3
1.00267	-3
1.00633	-3
1.01000	-3
1.01367	-3
1.01733	-3
1.02100	-4
1.02467	-4
1.02833	-4
1.03200	-4
1.03567	-4
1.03933	-5
1.04300	-5
1.04667	-5
1.05033	-5
1.05400	-5
1.05767	-5
1.06133	-5
1.06500	-4
1.06867	-4
1.07233	-4
1.07600	-4
1.07967	-4
1.08333	-4
1.08700	-5
1.09067	-5
1.09433	-5
1.09800	-6
1.10167	-6
1.10533	-6
1.10900	-6
1.11267	-6
1.11633	-6
1.12000	-6
1.12367	-6
1.12733	-6
1.13100	-5
1.13467	-5
1.13833	-5
1.14200	-5
1.14567	-5
1.14933	-5
1.15300	-5
1.15667	-5
1.16033	-5
1.16400	-5
1.16767	-4
1.17133	-4
1.17500	-4
1.17867	-4
1.18233	-3
1.18600	-3
1.18967	-4
1.19333	-4
1.19700	-4
1.20067	-4
1.20433	-4
1.20800	-4
1.21167	-4
1.21533	-4
1.21900	-5
1.22267	-5
1.22633	-5
1.23000	-5
1.23367	-4
1.23733	-4
1.24100	-4
1.24467	-5
1.24833	-5
1.25200	-5
1.25567	-5
1.25933	-6
1.26300	-6
1.26667	-6
1.27033	-6
1.27400	-6
1.27767	-6
1.28133	-6
1.28500	-6
1.28867	-7
1.29233	-7
1.29600	-7
1.29967	-7
1.30333	-6
1.30700	-6
1.31067	-6
1.31433	-6
1.31800	-6
1.32167	-5
1.32533	-5
1.32900	-5
1.33267	-5
1.33633	-5
1.34000	-5
1.34367	-4
1.34733	-4
1.35100	-4
1.35467	-4
1.35833	-4
1.36200	-3
1.36567	-3
1.36933	-3
1.37300	-3
1.37667	-3
1.38033	-2
1.38400	-2
1.38767	-2
1.39133	-2
1.39500	-1
1.39867	-1
1.40233	-0
1.40600	-0
1.40967	0
1.41333	1
1.41700	1
1.42067	1
1.42433	2
1.42800	2
1.43167	2
1.43533	2
1.43900	2
1.44267	2
1.44633	2
1.45000	2
1.45367	2
1.45733	2
1.46100	1
1.46467	1
1.46833	1
1.47200	0
1.47567	0
1.47933	-0
1.48300	-1
1.48667	-1
1.49033	-1
1.49400	-1
1.49767	-1
1.50133	-1
1.50500	-1
1.50867	-1
1.51233	-1
1.51600	-1
1.51967	-2
1.52333	-2
1.52700	-2
1.53067	-2
1.53433	-3
1.53800	-3
1.54167	-3
1.54533	-4
1.54900	-4
1.55267	-5
1.55633	-6
1.56000	-6
1.56367	-7
1.56733	-7
1.57100	-8
1.57467	-8
1.57833	-8
1.58200	-8
1.58567	-8
1.58933	-8
1.59300	-8
1.59667	-8
1.60033	-9
1.60400	-9
1.60767	-10
1.61133	-11
1.61500	-13
1.61867	-15
1.62233	-17
1.62600	-20
1.62967	-23
1.63333	-26
1.63700	-29
1.64067	-33
1.64433	-36
1.64800	-40
1.65167	-43
1.65533	-46
1.65900	-50
1.66267	-53
1.66633	-57
1.67000	-62
1.67367	-67
1.67733	-72
1.68100	-77
1.68467	-83
1.68833	-88
1.69200	-93
1.69567	-97
1.69933	-101
1.70300	-104
1.70667	-107
1.71033	-109
1.71400	-111
1.71767	-113
1.72133	-114
1.72500	-115
1.72867	-116
1.73233	-117
1.73600	-117
1.73967	-117
1.74333	-117
1.74700	-118
1.75067	-118
1.75433	-119
1.75800	-119
1.76167	-120
1.76533	-120
1.76900	-120
1.77267	-121
1.77633	-121
1.78000	-121
1.78367	-121
1.78733	-122
1.79100	-122
1.79467	-123
1.79833	-123
1.80200	-123
1.80567	-124
1.80933	-125
1.81300	-125
1.81667	-125
1.82033	-125
1.82400	-125
1.82767	-125
1.83133	-125
1.83500	-124
1.83867	-124
1.84233	-125
1.84600	-125
1.84967	-126
1.85333	-126
1.85700	-127
1.86067	-127
1.86433	-127
1.86800	-127
1.87167	-127
1.87533	-126
1.87900	-126
1.88267	-126
1.88633	-125
1.89000	-125
1.89367	-125
1.89733	-125
1.90100	-125
1.90467	-125
1.90833	-124
1.91200	-124
1.91567	-123
1.91933	-123
1.92300	-122
1.92667	-122
1.93033	-122
1.93400	-123
1.93767	-123
1.94133	-123
1.94500	-123
1.94867	-123
1.95233	-122
1.95600	-122
1.95967	-121
1.96333	-121
1.96700	-121
1.97067	-121
1.97433	-120
1.97800	-120
1.98167	-120
1.98533	-119
1.98900	-119
1.99267	-118
1.99633	-117
2.00000	-116
2.00367	-116
2.00733	-115
2.01100	-115
2.01467	-115
2.01833	-115
2.02200	-114
2.02567	-114
2.02933	-113
2.03300	-113
2.03667	-112
2.04033	-112
2.04400	-111
2.04767	-111
2.05133	-111
2.05500	-111
2.05867	-111
2.06233	-110
2.06600	-110
2.06967	-110
2.07333	-109
2.07700	-109
2.08067	-108
2.08433	-108
2.08800	-108
2.09167	-108
2.09533	-108
2.09900	-108
2.10267	-108
2.10633	-108
2.11000	-109
2.11367	-109
2.11733	-109
2.12100	-109
2.12467	-109
2.12833	-109
2.13200	-108
2.13567	-108
2.13933	-107
2.14300	-106
2.14667	-105
2.15033	-105
2.15400	-104
2.15767	-103
2.16133	-102
2.16500	-102
2.16867	-101
2.17233	-101
2.17600	-101
2.17967	-101
2.18333	-101
2.18700	-101
2.19067	-101
2.19433	-102
2.19800	-102
2.20167	-102
2.20533	-102
2.20900	-101
2.21267	-101
2.21633	-100
2.22000	-100
2.22367	-99
2.22733	-99
2.23100	-99
2.23467	-99
2.23833	-99
2.24200	-100
2.24567	-100
2.24933	-100
2.25300	-100
2.25667	-100
2.26033	-100
2.26400	-99
2.26767	-99
2.27133	-98
2.27500	-98
2.27867	-97
2.28233	-96
2.28600	-95
2.28967	-95
2.29333	-95
2.29700	-94
2.30067	-94
2.30433	-93
2.30800	-93
2.31167	-92
2.31533	-91
2.31900	-91
2.32267	-91
2.32633	-91
2.33000	-91
2.33367	-91
2.33733	-91
2.34100	-91
2.34467	-91
2.34833	-91
2.35200	-90
2.35567	-90
2.35933	-90
2.36300	-89
2.36667	-88
2.37033	-87
2.37400	-85
2.37767	-83
2.38133	-81
2.38500	-77
2.38867	-74
2.39233	-70
2.39600	-65
2.39967	-61
2.40333	-56
2.40700	-51
2.41067	-46
2.41433	-41
2.41800	-36
2.42167	-32
2.42533	-29
2.42900	-26
2.43267	-24
2.43633	-21
2.44000	-19
2.44367	-17
2.44733	-14
2.45100	-12
2.45467	-10
2.45833	-8
2.46200	-7
2.46567	-6
2.46933	-4
2.47300	-3
2.47667	-2
2.48033	-0
2.48400	1
2.48767	2
2.49133	3
2.49500	3
2.49867	4
2.50233	5
2.50600	6
2.50967	7
2.51333	8
2.51700	8
2.52067	9
2.52433	9
2.52800	10
2.53167	10
2.53533	11
2.53900	11
2.54267	11
2.54633	11
2.55000	11
2.55367	10
2.55733	10
2.56100	10
2.56467	9
2.56833	10
2.57200	10
2.57567	10
2.57933	11
2.58300	11
2.58667	12
2.59033	13
2.59400	13
2.59767	14
2.60133	14
2.60500	15
2.60867	15
2.61233	15
2.61600	16
2.61967	16
2.62333	16
2.62700	16
2.63067	16
2.63433	16
2.63800	16
2.64167	17
2.64533	17
2.64900	17
2.65267	18
2.65633	18
2.66000	19
2.66367	19
2.66733	20
2.67100	20
2.67467	21
2.67833	21
2.68200	21
2.68567	21
2.68933	21
2.69300	21
2.69667	21
2.70033	21
2.70400	22
2.70767	22
2.71133	22
2.71500	21
2.71867	21
2.72233	21
2.72600	21
2.72967	21
2.73333	21
2.73700	21
2.74067	21
2.74433	21
2.74800	21
2.75167	21
2.75533	22
2.75900	22
2.76267	23
2.76633	23
2.77000	23
2.77367	23
2.77733	23
2.78100	23
2.78467	24
2.78833	24
2.79200	24
2.79567	24
2.79933	24
2.80300	24
2.80667	24
2.81033	24
2.81400	24
2.81767	24
2.82133	23
2.82500	23
2.82867	23
2.83233	23
2.83600	23
2.83967	23
2.84333	22
2.84700	21
2.85067	20
2.85433	16
2.85800	11
2.86167	2
2.86533	-9
2.86900	-24
2.87267	-43
2.87633	-66
2.88000	-93
2.88367	-124
2.88733	-159
2.89100	-197
2.89467	-238
2.89833	-282
2.90200	-328
2.90567	-376
2.90933	-426
2.91300	-476
2.91667	-527
2.92033	-577
2.92400	-628
2.92767	-678
2.93133	-728
2.93500	-777
2.93867	-826
2.94233	-879
2.94600	-938
2.94967	-1001
2.95333	-1058
2.95700	-1098
2.96067	-1113
2.96433	-1101
2.96800	-1065
2.97167	-1010
2.97533	-940
2.97900	-863
2.98267	-782
2.98633	-701
2.99000	-623
2.99367	-549
2.99733	-481
3.00100	-419
3.00467	-364
3.00833	-314
3.01200	-270
3.01567	-231
3.01933	-198
3.02300	-168
3.02667	-143
3.03033	-121
3.03400	-102
3.03767	-86
3.04133	-72
3.04500	-60
3.04867	-49
3.05233	-41
3.05600	-34
3.05967	-27
3.06333	-22
3.06700	-17
3.07067	-13
3.07433	-10
3.07800	-7
3.08167	-4
3.08533	-2
3.08900	0
3.09267	2
3.09633	3
3.10000	5
3.10367	6
3.10733	8
3.11100	9
3.11467	10
3.11833	11
3.12200	12
3.12567	13
3.12933	14
3.13300	14
3.13667	15
3.14033	16
3.14400	16
3.14767	17
3.15133	17
3.15500	18
3.15867	18
3.16233	19
3.16600	19
3.16967	20
3.17333	20
3.17700	20
3.18067	20
3.18433	21
3.18800	21
3.19167	21
3.19533	21
3.19900	22
3.20267	22
3.20633	22
3.21000	22
3.21367	22
3.21733	23
3.22100	23
3.22467	23
3.22833	23
3.23200	23
3.23567	23
3.23933	23
3.24300	23
3.24667	23
3.25033	23
3.25400	23
3.25767	24
3.26133	24
3.26500	24
3.26867	24
3.27233	24
3.27600	24
3.27967	23
3.28333	23
3.28700	23
3.29067	23
3.29433	23
3.29800	23
3.30167	24
3.30533	24
3.30900	23
3.31267	23
3.31633	23
3.32000	23
3.32367	23
3.32733	23
3.33100	23
3.33467	23
3.33833	23
3.34200	23
3.34567	23
3.34933	22
3.35300	22
3.35667	22
3.36033	22
3.36400	22
3.36767	22
3.37133	22
3.37500	22
3.37867	23
3.38233	23
3.38600	23
3.38967	23
3.39333	23
3.39700	23
3.40067	23
3.40433	23
3.40800	24
3.41167	24
3.41533	24
3.41900	23
3.42267	23
3.42633	23
3.43000	23
3.43367	23
3.43733	22
3.44100	22
3.44467	22
3.44833	22
3.45200	22
3.45567	22
3.45933	22
3.46300	22
3.46667	22
3.47033	22
3.47400	22
3.47767	22
3.48133	22
3.48500	22
3.48867	22
3.49233	23
3.49600	23
3.49967	23
3.50333	23
3.50700	23
3.51067	22
3.51433	22
3.51800	22
3.52167	23
3.52533	23
3.52900	23
3.53267	23
3.53633	23
3.54000	23
3.54367	23
3.54733	23
3.55100	23
3.55467	23
3.55833	23
3.56200	23
3.56567	23
3.56933	23
3.57300	23
3.57667	23
3.58033	22
3.58400	22
3.58767	22
3.59133	22
3.59500	22
3.59867	22
3.60233	23
3.60600	23
3.60967	23
3.61333	24
3.61700	24
3.62067	24
3.62433	24
3.62800	24
3.63167	24
3.63533	24
3.63900	24
3.64267	24
3.64633	24
3.65000	25
3.65367	25
3.65733	25
3.66100	25
3.66467	25
3.66833	25
3.67200	25
3.67567	24
3.67933	24
3.68300	24
3.68667	24
3.69033	24
3.69400	24
3.69767	25
3.70133	25
3.70500	25
3.70867	25
3.71233	25
3.71600	25
3.71967	25
3.72333	25
3.72700	25
3.73067	25
3.73433	25
3.73800	25
3.74167	25
3.74533	26
3.74900	26
3.75267	26
3.75633	26
3.76000	26
3.76367	26
3.76733	26
3.77100	26
3.77467	26
3.77833	26
3.78200	26
3.78567	25
3.78933	25
3.79300	25
3.79667	25
3.80033	25
3.80400	25
3.80767	25
3.81133	26
3.81500	26
3.81867	26
3.82233	26
3.82600	26
3.82967	26
3.83333	25
3.83700	25
3.84067	25
3.84433	25
3.84800	25
3.85167	25
3.85533	25
3.85900	25
3.86267	25
3.86633	25
3.87000	25
3.87367	24
3.87733	24
3.88100	24
3.88467	24
3.88833	24
3.89200	24
3.89567	24
3.89933	24
3.90300	24
3.90667	25
3.91033	25
3.91400	25
3.91767	25
3.92133	25
3.92500	24
3.92867	24
3.93233	24
3.93600	24
3.93967	24
3.94333	24
3.94700	24
3.95067	24
3.95433	24
3.95800	24
3.96167	24
3.96533	24
3.96900	24
3.97267	24
3.97633	25
3.98000	25
3.98367	25
3.98733	25
3.99100	25
3.99467	25
3.99833	25

[Chromatogram (Ch3)]
Interval(msec)	220
# of Points	1091
Start Time(min)	0.002
End Time(min)	3.998
R.Time (min)	Intensity
0.00167	1
0.00533	3
0.00900	6
0.01267	7
0.01633	8
0.02000	7
0.02367	5
0.02733	6
0.03100	6
0.03467	8
0.03833	7
0.04200	5
0.04567	4
0.04933	7
0.05300	6
0.05667	4
0.06033	4
0.06400	5
0.06767	7
0.07133	6
0.07500	5
0.07867	6
0.08233	7
0.08600	7
0.08967	8
0.09333	7
0.09700	8
0.10067	9
0.10433	8
0.10800	8
0.11167	8
0.11533	6
0.11900	7
0.12267	8
0.12633	10
0.13000	10
0.13367	9
0.13733	9
0.14100	9
0.14467	8
0.14833	8
0.15200	8
0.15567	9
0.15933	7
0.16300	6
0.16667	7
0.17033	7
0.17400	7
0.17767	8
0.18133	11
0.18500	12
0.18867	12
0.19233	12
0.19600	13
0.19967	14
0.20333	15
0.20700	14
0.21067	12
0.21433	11
0.21800	13
0.22167	12
0.22533	13
0.22900	14
0.23267	15
0.23633	13
0.24000	13
0.24367	14
0.24733	17
0.25100	18
0.25467	19
0.25833	21
0.26200	23
0.26567	22
0.26933	19
0.27300	18
0.27667	15
0.28033	13
0.28400	15
0.28767	19
0.29133	21
0.29500	19
0.29867	16
0.30233	14
0.30600	13
0.30967	14
0.31333	14
0.31700	15
0.32067	15
0.32433	17
0.32800	18
0.33167	19
0.33533	20
0.33900	20
0.34267	20
0.34633	19
0.35000	18
0.35367	20
0.35733	21
0.36100	21
0.36467	22
0.36833	21
0.37200	21
0.37567	22
0.37933	22
0.38300	24
0.38667	25
0.39033	22
0.39400	21
0.39767	22
0.40133	22
0.40500	25
0.40867	27
0.41233	28
0.41600	28
0.41967	27
0.42333	24
0.42700	23
0.43067	22
0.43433	23
0.43800	25
0.44167	26
0.44533	25
0.44900	24
0.45267	25
0.45633	27
0.46000	29
0.46367	31
0.46733	31
0.47100	31
0.47467	29
0.47833	28
0.48200	27
0.48567	28
0.48933	27
0.49300	26
0.49667	25
0.50033	23
0.50400	23
0.50767	25
0.51133	27
0.51500	29
0.51867	29
0.52233	29
0.52600	28
0.52967	29
0.53333	30
0.53700	32
0.54067	32
0.54433	31
0.54800	32
0.55167	31
0.55533	31
0.55900	31
0.56267	32
0.56633	33
0.57000	33
0.57367	33
0.57733	35
0.58100	37
0.58467	38
0.58833	36
0.59200	34
0.59567	33
0.59933	32
0.60300	31
0.60667	27
0.61033	26
0.61400	27
0.61767	30
0.62133	32
0.62500	32
0.62867	34
0.63233	35
0.63600	34
0.63967	33
0.64333	34
0.64700	35
0.65067	35
0.65433	36
0.65800	37
0.66167	38
0.66533	38
0.66900	37
0.67267	35
0.67633	34
0.68000	35
0.68367	36
0.68733	35
0.69100	34
0.69467	34
0.69833	33
0.70200	34
0.70567	34
0.70933	35
0.71300	37
0.71667	37
0.72033	38
0.72400	41
0.72767	41
0.73133	42
0.73500	43
0.73867	42
0.74233	38
0.74600	36
0.74967	34
0.75333	34
0.75700	36
0.76067	37
0.76433	38
0.76800	39
0.77167	39
0.77533	38
0.77900	38
0.78267	37
0.78633	37
0.79000	37
0.79367	37
0.79733	36
0.80100	35
0.80467	36
0.80833	38
0.81200	38
0.81567	37
0.81933	37
0.82300	38
0.82667	38
0.83033	37
0.83400	39
0.83767	41
0.84133	44
0.84500	45
0.84867	44
0.85233	41
0.85600	39
0.85967	40
0.86333	39
0.86700	40
0.87067	38
0.87433	38
0.87800	41
0.88167	46
0.88533	47
0.88900	47
0.89267	46
0.89633	46
0.90000	45
0.90367	45
0.90733	44
0.91100	43
0.91467	43
0.91833	44
0.92200	44
0.92567	42
0.92933	41
0.93300	40
0.93667	39
0.94033	38
0.94400	39
0.94767	41
0.95133	41
0.95500	42
0.95867	44
0.96233	44
0.96600	47
0.96967	48
0.97333	49
0.97700	47
0.98067	46
0.98433	45
0.98800	46
0.99167	48
0.99533	48
0.99900	48
1.00267	51
1.00633	49
1.01000	48
1.01367	48
1.01733	48
1.02100	49
1.02467	49
1.02833	51
1.03200	51
1.03567	51
1.03933	49
1.04300	49
1.04667	50
1.05033	52
1.05400	52
1.05767	54
1.06133	54
1.06500	54
1.06867	55
1.07233	55
1.07600	53
1.07967	51
1.08333	49
1.08700	49
1.09067	51
1.09433	51
1.09800	52
1.10167	53
1.10533	53
1.10900	52
1.11267	50
1.11633	48
1.12000	47
1.12367	48
1.12733	50
1.13100	52
1.13467	52
1.13833	53
1.14200	55
1.14567	57
1.14933	59
1.15300	57
1.15667	56
1.16033	57
1.16400	56
1.16767	54
1.17133	51
1.17500	50
1.17867	49
1.18233	49
1.18600	49
1.18967	50
1.19333	52
1.19700	53
1.20067	51
1.20433	50
1.20800	51
1.21167	52
1.21533	51
1.21900	50
1.22267	50
1.22633	49
1.23000	50
1.23367	55
1.23733	57
1.24100	57
1.24467	58
1.24833	57
1.25200	54
1.25567	52
1.25933	53
1.26300	53
1.26667	53
1.27033	54
1.27400	52
1.27767	51
1.28133	52
1.28500	53
1.28867	53
1.29233	52
1.29600	52
1.29967	53
1.30333	52
1.30700	53
1.31067	54
1.31433	56
1.31800	58
1.32167	59
1.32533	58
1.32900	58
1.33267	59
1.33633	61
1.34000	62
1.34367	62
1.34733	61
1.35100	61
1.35467	61
1.35833	61
1.36200	61
1.36567	61
1.36933	61
1.37300	58
1.37667	58
1.38033	58
1.38400	59
1.38767	61
1.39133	61
1.39500	61
1.39867	60
1.40233	59
1.40600	58
1.40967	57
1.41333	55
1.41700	55
1.42067	56
1.42433	54
1.42800	54
1.43167	54
1.43533	53
1.43900	54
1.44267	54
1.44633	51
1.45000	48
1.45367	47
1.45733	49
1.46100	52
1.46467	52
1.46833	52
1.47200	51
1.47567	50
1.47933	51
1.48300	53
1.48667	53
1.49033	52
1.49400	53
1.49767	52
1.50133	52
1.50500	51
1.50867	50
1.51233	49
1.51600	48
1.51967	50
1.52333	51
1.52700	51
1.53067	50
1.53433	51
1.53800	52
1.54167	53
1.54533	54
1.54900	55
1.55267	56
1.55633	56
1.56000	54
1.56367	53
1.56733	56
1.57100	57
1.57467	58
1.57833	58
1.58200	59
1.58567	56
1.58933	54
1.59300	53
1.59667	52
1.60033	53
1.60400	55
1.60767	56
1.61133	58
1.61500	59
1.61867	58
1.62233	56
1.62600	59
1.62967	60
1.63333	59
1.63700	58
1.64067	58
1.64433	58
1.64800	59
1.65167	61
1.65533	62
1.65900	63
1.66267	65
1.66633	63
1.67000	65
1.67367	68
1.67733	68
1.68100	67
1.68467	66
1.68833	66
1.69200	66
1.69567	67
1.69933	66
1.70300	64
1.70667	66
1.71033	71
1.71400	74
1.71767	76
1.72133	76
1.72500	76
1.72867	77
1.73233	78
1.73600	81
1.73967	82
1.74333	80
1.74700	80
1.75067	83
1.75433	85
1.75800	85
1.76167	85
1.76533	86
1.76900	90
1.77267	91
1.77633	90
1.78000	89
1.78367	88
1.78733	88
1.79100	86
1.79467	85
1.79833	85
1.80200	86
1.80567	88
1.80933	89
1.81300	91
1.81667	91
1.82033	93
1.82400	92
1.82767	92
1.83133	92
1.83500	93
1.83867	93
1.84233	95
1.84600	97
1.84967	97
1.85333	96
1.85700	96
1.86067	100
1.86433	101
1.86800	100
1.87167	99
1.87533	96
1.87900	92
1.88267	91
1.88633	93
1.89000	95
1.89367	97
1.89733	100
1.90100	103
1.90467	104
1.90833	104
1.91200	104
1.91567	102
1.91933	102
1.92300	101
1.92667	101
1.93033	103
1.93400	103
1.93767	105
1.94133	109
1.94500	112
1.94867	114
1.95233	113
1.95600	112
1.95967	110
1.96333	108
1.96700	105
1.97067	104
1.97433	105
1.97800	107
1.98167	112
1.98533	115
1.98900	116
1.99267	116
1.99633	118
2.00000	120
2.00367	119
2.00733	117
2.01100	116
2.01467	119
2.01833	120
2.02200	120
2.02567	123
2.02933	125
2.03300	129
2.03667	132
2.04033	132
2.04400	132
2.04767	133
2.05133	133
2.05500	135
2.05867	135
2.06233	136
2.06600	139
2.06967	141
2.07333	141
2.07700	141
2.08067	140
2.08433	140
2.08800	141
2.09167	139
2.09533	139
2.09900	141
2.10267	144
2.10633	147
2.11000	150
2.11367	153
2.11733	157
2.12100	158
2.12467	159
2.12833	161
2.13200	163
2.13567	167
2.13933	169
2.14300	169
2.14667	169
2.15033	168
2.15400	166
2.15767	165
2.16133	166
2.16500	169
2.16867	172
2.17233	174
2.17600	177
2.17967	177
2.18333	176
2.18700	176
2.19067	178
2.19433	178
2.19800	179
2.20167	182
2.20533	185
2.20900	188
2.21267	190
2.21633	189
2.22000	190
2.22367	194
2.22733	195
2.23100	195
2.23467	195
2.23833	196
2.24200	198
2.24567	198
2.24933	196
2.25300	195
2.25667	195
2.26033	195
2.26400	193
2.26767	192
2.27133	192
2.27500	194
2.27867	196
2.28233	198
2.28600	197
2.28967	198
2.29333	200
2.29700	202
2.30067	204
2.30433	206
2.30800	206
2.31167	207
2.31533	207
2.31900	209
2.32267	210
2.32633	207
2.33000	205
2.33367	204
2.33733	202
2.34100	204
2.34467	208
2.34833	211
2.35200	212
2.35567	209
2.35933	205
2.36300	209
2.36667	212
2.37033	212
2.37400	211
2.37767	212
2.38133	214
2.38500	214
2.38867	212
2.39233	211
2.39600	212
2.39967	212
2.40333	215
2.40700	217
2.41067	219
2.41433	221
2.41800	223
2.42167	226
2.42533	230
2.42900	233
2.43267	234
2.43633	235
2.44000	237
2.44367	240
2.44733	239
2.45100	230
2.45467	226
2.45833	238
2.46200	267
2.46567	307
2.46933	351
2.47300	399
2.47667	446
2.48033	493
2.48400	539
2.48767	579
2.49133	616
2.49500	647
2.49867	674
2.50233	699
2.50600	722
2.50967	744
2.51333	762
2.51700	777
2.52067	791
2.52433	803
2.52800	812
2.53167	820
2.53533	826
2.53900	831
2.54267	836
2.54633	842
2.55000	848
2.55367	851
2.55733	853
2.56100	857
2.56467	859
2.56833	861
2.57200	862
2.57567	862
2.57933	859
2.58300	855
2.58667	851
2.59033	847
2.59400	845
2.59767	838
2.60133	825
2.60500	807
2.60867	783
2.61233	753
2.61600	717
2.61967	677
2.62333	637
2.62700	597
2.63067	559
2.63433	526
2.63800	501
2.64167	483
2.64533	470
2.64900	463
2.65267	459
2.65633	459
2.66000	459
2.66367	463
2.66733	468
2.67100	475
2.67467	482
2.67833	487
2.68200	490
2.68567	494
2.68933	499
2.69300	505
2.69667	513
2.70033	520
2.70400	526
2.70767	530
2.71133	532
2.71500	534
2.71867	535
2.72233	534
2.72600	534
2.72967	536
2.73333	535
2.73700	534
2.74067	534
2.74433	532
2.74800	532
2.75167	530
2.75533	527
2.75900	524
2.76267	522
2.76633	522
2.77000	525
2.77367	526
2.77733	525
2.78100	524
2.78467	524
2.78833	523
2.79200	524
2.79567	525
2.79933	524
2.80300	524
2.80667	525
2.81033	524
2.81400	521
2.81767	519
2.82133	522
2.82500	530
2.82867	547
2.83233	584
2.83600	658
2.83967	792
2.84333	1006
2.84700	1320
2.85067	1738
2.85433	2248
2.85800	2825
2.86167	3434
2.86533	4026
2.86900	4550
2.87267	4969
2.87633	5254
2.88000	5395
2.88367	5392
2.88733	5266
2.89100	5040
2.89467	4748
2.89833	4416
2.90200	4062
2.90567	3706
2.90933	3359
2.91300	3030
2.91667	2728
2.92033	2452
2.92400	2199
2.92767	1972
2.93133	1773
2.93500	1597
2.93867	1446
2.94233	1315
2.94600	1199
2.94967	1096
2.95333	1006
2.95700	929
2.96067	861
2.96433	803
2.96800	754
2.97167	711
2.97533	673
2.97900	636
2.98267	604
2.98633	580
2.99000	559
2.99367	540
2.99733	521
3.00100	504
3.00467	488
3.00833	475
3.01200	466
3.01567	459
3.01933	449
3.02300	440
3.02667	431
3.03033	424
3.03400	418
3.03767	414
3.04133	410
3.04500	406
3.04867	401
3.05233	396
3.05600	390
3.05967	388
3.06333	386
3.06700	384
3.07067	381
3.07433	379
3.07800	380
3.08167	377
3.08533	372
3.08900	368
3.09267	365
3.09633	361
3.10000	358
3.10367	356
3.10733	354
3.11100	351
3.11467	349
3.11833	346
3.12200	342
3.12567	339
3.12933	339
3.13300	337
3.13667	336
3.14033	334
3.14400	331
3.14767	328
3.15133	325
3.15500	323
3.15867	322
3.16233	319
3.16600	313
3.16967	308
3.17333	304
3.17700	304
3.18067	301
3.18433	299
3.18800	296
3.19167	293
3.19533	291
3.19900	292
3.20267	291
3.20633	287
3.21000	283
3.21367	280
3.21733	278
3.22100	277
3.22467	276
3.22833	274
3.23200	271
3.23567	270
3.23933	270
3.24300	269
3.24667	269
3.25033	267
3.25400	266
3.25767	264
3.26133	263
3.26500	262
3.26867	260
3.27233	257
3.27600	255
3.27967	253
3.28333	251
3.28700	247
3.29067	243
3.29433	242
3.29800	238
3.30167	233
3.30533	229
3.30900	225
3.31267	223
3.31633	221
3.32000	220
3.32367	219
3.32733	216
3.33100	213
3.33467	210
3.33833	207
3.34200	205
3.34567	205
3.34933	202
3.35300	200
3.35667	197
3.36033	196
3.36400	193
3.36767	191
3.37133	186
3.37500	182
3.37867	181
3.38233	179
3.38600	176
3.38967	174
3.39333	174
3.39700	172
3.40067	169
3.40433	166
3.40800	164
3.41167	164
3.41533	163
3.41900	164
3.42267	162
3.42633	160
3.43000	157
3.43367	153
3.43733	149
3.44100	147
3.44467	146
3.44833	145
3.45200	142
3.45567	140
3.45933	138
3.46300	134
3.46667	132
3.47033	132
3.47400	129
3.47767	127
3.48133	126
3.48500	126
3.48867	124
3.49233	120
3.49600	115
3.49967	114
3.50333	114
3.50700	114
3.51067	114
3.51433	111
3.51800	108
3.52167	107
3.52533	107
3.52900	107
3.53267	106
3.53633	107
3.54000	108
3.54367	108
3.54733	108
3.55100	106
3.55467	106
3.55833	106
3.56200	105
3.56567	102
3.56933	100
3.57300	97
3.57667	95
3.58033	95
3.58400	94
3.58767	91
3.59133	92
3.59500	91
3.59867	89
3.60233	89
3.60600	89
3.60967	89
3.61333	87
3.61700	86
3.62067	84
3.62433	85
3.62800	86
3.63167	87
3.63533	85
3.63900	83
3.64267	82
3.64633	80
3.65000	76
3.65367	73
3.65733	71
3.66100	70
3.66467	70
3.66833	70
3.67200	71
3.67567	71
3.67933	70
3.68300	69
3.68667	69
3.69033	68
3.69400	68
3.69767	69
3.70133	69
3.70500	69
3.70867	70
3.71233	71
3.71600	71
3.71967	71
3.72333	69
3.72700	67
3.73067	65
3.73433	65
3.73800	63
3.74167	61
3.74533	59
3.74900	60
3.75267	61
3.75633	62
3.76000	62
3.76367	62
3.76733	58
3.77100	55
3.77467	54
3.77833	52
3.78200	54
3.78567	54
3.78933	53
3.79300	53
3.79667	52
3.80033	50
3.80400	49
3.80767	50
3.81133	51
3.81500	51
3.81867	51
3.82233	50
3.82600	47
3.82967	46
3.83333	44
3.83700	44
3.84067	45
3.84433	45
3.84800	45
3.85167	44
3.85533	44
3.85900	43
3.86267	42
3.86633	42
3.87000	43
3.87367	43
3.87733	41
3.88100	38
3.88467	37
3.88833	36
3.89200	35
3.89567	37
3.89933	38
3.90300	39
3.90667	40
3.91033	41
3.91400	42
3.91767	44
3.92133	46
3.92500	45
3.92867	42
3.93233	38
3.93600	34
3.93967	33
3.94333	32
3.94700	31
3.95067	31
3.95433	31
3.95800	31
3.96167	32
3.96533	33
3.96900	34
3.97267	34
3.97633	33
3.98000	33
3.98367	31
3.98733	30
3.99100	28
3.99467	24
3.99833	22

[Status Trace (Column Oven Temperature)]
Interval(msec)	1000
# of Points	240
Start Time(min)	0.014
End Time(min)	3.997
Intensity Units	
Intensity Multiplier	1
R.Time (min)	Intensity
0.01380	35.01
0.03047	35.00
0.04713	34.99
0.06380	34.98
0.08047	34.97
0.09713	34.97
0.11380	34.97
0.13047	34.97
0.14713	34.98
0.16380	34.97
0.18047	34.97
0.19713	34.97
0.21380	34.97
0.23047	34.97
0.24713	34.97
0.26380	34.98
0.28047	34.98
0.29713	34.98
0.31380	34.99
0.33047	35.00
0.34713	35.03
0.36380	35.05
0.38047	35.05
0.39713	35.04
0.41380	35.03
0.43047	35.01
0.44713	35.00
0.46380	34.98
0.48047	34.98
0.49713	34.97
0.51380	34.97
0.53047	34.96
0.54713	34.97
0.56380	34.97
0.58047	34.98
0.59713	35.00
0.61380	35.01
0.63047	35.04
0.64713	35.04
0.66380	35.03
0.68047	35.02
0.69713	35.02
0.71380	35.02
0.73047	35.02
0.74713	35.02
0.76380	35.03
0.78047	35.03
0.79713	35.02
0.81380	35.01
0.83047	35.01
0.84713	35.01
0.86380	34.99
0.88047	34.99
0.89713	34.98
0.91380	34.99
0.93047	34.98
0.94713	34.97
0.96380	34.98
0.98047	34.97
0.99713	34.97
1.01380	34.97
1.03047	34.98
1.04713	34.99
1.06380	35.00
1.08047	35.00
1.09713	35.01
1.11380	35.02
1.13047	35.03
1.14713	35.03
1.16380	35.02
1.18047	35.03
1.19713	35.03
1.21380	35.03
1.23047	35.04
1.24713	35.04
1.26380	35.05
1.28047	35.06
1.29713	35.07
1.31380	35.07
1.33047	35.07
1.34713	35.07
1.36380	35.06
1.38047	35.03
1.39713	35.01
1.41380	35.00
1.43047	34.99
1.44713	34.97
1.46380	34.96
1.48047	34.95
1.49713	34.95
1.51380	34.95
1.53047	34.96
1.54713	34.98
1.56380	34.99
1.58047	35.00
1.59713	35.03
1.61380	35.11
1.63047	35.26
1.64713	35.46
1.66380	35.72
1.68047	36.07
1.69713	36.44
1.71380	36.78
1.73047	37.13
1.74713	37.47
1.76380	37.80
1.78047	38.12
1.79713	38.46
1.81380	38.80
1.83047	39.12
1.84713	39.46
1.86380	39.78
1.88047	40.11
1.89713	40.45
1.91380	40.77
1.93047	41.10
1.94713	41.42
1.96380	41.76
1.98047	42.08
1.99713	42.39
2.01380	42.72
2.03047	43.04
2.04713	43.37
2.06380	43.69
2.08047	43.99
2.09713	44.33
2.11380	44.66
2.13047	44.99
2.14713	45.30
2.16380	45.62
2.18047	45.94
2.19713	46.28
2.21380	46.60
2.23047	46.94
2.24713	47.27
2.26380	47.63
2.28047	47.94
2.29713	48.28
2.31380	48.59
2.33047	48.94
2.34713	49.25
2.36380	49.52
2.38047	49.68
2.39713	49.73
2.41380	49.71
2.43047	49.74
2.44713	49.73
2.46380	49.75
2.48047	49.75
2.49713	49.76
2.51380	49.78
2.53047	49.78
2.54713	49.82
2.56380	49.85
2.58047	49.85
2.59713	49.84
2.61380	49.85
2.63047	49.85
2.64713	49.86
2.66380	49.85
2.68047	49.85
2.69713	49.85
2.71380	49.87
2.73047	49.87
2.74713	49.87
2.76380	49.87
2.78047	49.87
2.79713	49.89
2.81380	49.88
2.83047	49.89
2.84713	49.91
2.86380	49.93
2.88047	49.94
2.89713	49.96
2.91380	49.98
2.93047	50.01
2.94713	50.02
2.96380	50.03
2.98047	50.03
2.99713	50.04
3.01380	50.05
3.03047	50.07
3.04713	50.08
3.06380	50.09
3.08047	50.11
3.09713	50.11
3.11380	50.10
3.13047	50.09
3.14713	50.07
3.16380	50.06
3.18047	50.04
3.19713	50.04
3.21380	50.03
3.23047	50.02
3.24713	50.02
3.26380	50.02
3.28047	50.01
3.29713	50.01
3.31380	50.02
3.33047	50.01
3.34713	50.01
3.36380	50.02
3.38047	50.03
3.39713	50.03
3.41380	50.05
3.43047	50.06
3.44713	50.06
3.46380	50.06
3.48047	50.07
3.49713	50.06
3.51380	50.07
3.53047	50.07
3.54713	50.07
3.56380	50.08
3.58047	50.09
3.59713	50.09
3.61380	50.09
3.63047	50.09
3.64713	50.09
3.66380	50.09
3.68047	50.09
3.69713	50.10
3.71380	50.09
3.73047	50.09
3.74713	50.08
3.76380	50.07
3.78047	50.07
3.79713	50.07
3.81380	50.06
3.83047	50.07
3.84713	50.07
3.86380	50.07
3.88047	50.08
3.89713	50.08
3.91380	50.08
3.93047	50.08
3.94713	50.09
3.96380	50.10
3.98047	50.09
3.99713	50.09

[Status Trace (Injection Unit Temperature)]
Interval(msec)	1000
# of Points	240
Start Time(min)	0.014
End Time(min)	3.997
Intensity Units	
Intensity Multiplier	1
R.Time (min)	Intensity
0.01380	99.98
0.03047	99.98
0.04713	99.98
0.06380	99.98
0.08047	99.98
0.09713	99.99
0.11380	99.98
0.13047	99.98
0.14713	99.98
0.16380	99.98
0.18047	99.98
0.19713	99.98
0.21380	99.99
0.23047	99.99
0.24713	99.98
0.26380	99.99
0.28047	99.98
0.29713	99.99
0.31380	99.98
0.33047	99.98
0.34713	99.99
0.36380	99.99
0.38047	99.98
0.39713	99.99
0.41380	99.98
0.43047	99.98
0.44713	99.98
0.46380	99.98
0.48047	99.99
0.49713	99.98
0.51380	99.98
0.53047	99.99
0.54713	99.99
0.56380	99.98
0.58047	99.99
0.59713	99.99
0.61380	99.99
0.63047	99.99
0.64713	99.98
0.66380	99.98
0.68047	99.98
0.69713	99.98
0.71380	99.99
0.73047	99.98
0.74713	99.98
0.76380	99.99
0.78047	99.98
0.79713	99.98
0.81380	99.98
0.83047	99.98
0.84713	99.99
0.86380	99.98
0.88047	99.99
0.89713	99.98
0.91380	99.99
0.93047	99.98
0.94713	99.98
0.96380	99.99
0.98047	99.98
0.99713	99.98
1.01380	99.99
1.03047	99.99
1.04713	99.99
1.06380	99.99
1.08047	99.99
1.09713	99.99
1.11380	99.98
1.13047	99.98
1.14713	99.98
1.16380	99.99
1.18047	99.99
1.19713	99.99
1.21380	99.99
1.23047	99.99
1.24713	99.99
1.26380	99.99
1.28047	99.99
1.29713	99.99
1.31380	99.99
1.33047	99.99
1.34713	99.99
1.36380	99.98
1.38047	99.99
1.39713	99.98
1.41380	99.99
1.43047	99.99
1.44713	99.99
1.46380	99.99
1.48047	99.98
1.49713	99.99
1.51380	99.99
1.53047	99.99
1.54713	99.98
1.56380	99.99
1.58047	99.99
1.59713	99.99
1.61380	99.99
1.63047	99.99
1.64713	99.99
1.66380	99.99
1.68047	99.99
1.69713	99.99
1.71380	99.98
1.73047	99.99
1.74713	99.98
1.76380	99.99
1.78047	99.98
1.79713	99.99
1.81380	99.99
1.83047	99.98
1.84713	99.98
1.86380	99.98
1.88047	99.98
1.89713	99.98
1.91380	99.98
1.93047	99.98
1.94713	99.98
1.96380	99.98
1.98047	99.98
1.99713	99.98
2.01380	99.98
2.03047	99.97
2.04713	99.97
2.06380	99.98
2.08047	99.97
2.09713	99.98
2.11380	99.97
2.13047	99.97
2.14713	99.97
2.16380	99.97
2.18047	99.97
2.19713	99.97
2.21380	99.97
2.23047	99.97
2.24713	99.97
2.26380	99.97
2.28047	99.97
2.29713	99.97
2.31380	99.97
2.33047	99.97
2.34713	99.97
2.36380	99.97
2.38047	99.97
2.39713	99.97
2.41380	99.98
2.43047	99.97
2.44713	99.97
2.46380	99.98
2.48047	99.97
2.49713	99.97
2.51380	99.98
2.53047	99.98
2.54713	99.97
2.56380	99.98
2.58047	99.98
2.59713	99.98
2.61380	99.98
2.63047	99.98
2.64713	99.98
2.66380	99.98
2.68047	99.98
2.69713	99.98
2.71380	99.98
2.73047	99.99
2.74713	99.98
2.76380	99.99
2.78047	99.99
2.79713	99.99
2.81380	99.99
2.83047	99.99
2.84713	99.99
2.86380	99.99
2.88047	99.99
2.89713	99.99
2.91380	100.00
2.93047	100.00
2.94713	100.00
2.96380	100.00
2.98047	100.01
2.99713	100.00
3.01380	100.01
3.03047	100.01
3.04713	100.01
3.06380	100.01
3.08047	100.01
3.09713	100.01
3.11380	100.01
3.13047	100.01
3.14713	100.02
3.16380	100.02
3.18047	100.02
3.19713	100.02
3.21380	100.02
3.23047	100.02
3.24713	100.02
3.26380	100.03
3.28047	100.03
3.29713	100.03
3.31380	100.03
3.33047	100.03
3.34713	100.03
3.36380	100.03
3.38047	100.03
3.39713	100.03
3.41380	100.04
3.43047	100.04
3.44713	100.04
3.46380	100.04
3.48047	100.04
3.49713	100.04
3.51380	100.04
3.53047	100.04
3.54713	100.04
3.56380	100.05
3.58047	100.04
3.59713	100.04
3.61380	100.05
3.63047	100.04
3.64713	100.05
3.66380	100.05
3.68047	100.05
3.69713	100.05
3.71380	100.05
3.73047	100.04
3.74713	100.05
3.76380	100.05
3.78047	100.04
3.79713	100.05
3.81380	100.05
3.83047	100.05
3.84713	100.05
3.86380	100.05
3.88047	100.04
3.89713	100.05
3.91380	100.05
3.93047	100.05
3.94713	100.05
3.96380	100.05
3.98047	100.05
3.99713	100.05

[Status Trace (Carrier Gas Pressure)]
Interval(msec)	1000
# of Points	240
Start Time(min)	0.014
End Time(min)	3.997
Intensity Units	
Intensity Multiplier	1
R.Time (min)	Intensity
0.01380	57.55
0.03047	55.23
0.04713	57.81
0.06380	59.78
0.08047	58.92
0.09713	57.99
0.11380	57.99
0.13047	58.01
0.14713	58.01
0.16380	58.01
0.18047	58.00
0.19713	58.00
0.21380	58.00
0.23047	58.00
0.24713	58.00
0.26380	58.00
0.28047	58.00
0.29713	58.00
0.31380	58.00
0.33047	58.00
0.34713	58.00
0.36380	58.00
0.38047	58.00
0.39713	58.00
0.41380	58.00
0.43047	58.00
0.44713	58.00
0.46380	58.00
0.48047	58.00
0.49713	58.00
0.51380	58.00
0.53047	58.00
0.54713	58.00
0.56380	58.00
0.58047	58.00
0.59713	58.00
0.61380	58.00
0.63047	58.00
0.64713	58.00
0.66380	58.00
0.68047	58.00
0.69713	58.00
0.71380	58.00
0.73047	58.00
0.74713	58.00
0.76380	58.00
0.78047	58.00
0.79713	58.00
0.81380	58.00
0.83047	58.00
0.84713	58.00
0.86380	58.00
0.88047	58.00
0.89713	58.00
0.91380	58.00
0.93047	58.00
0.94713	58.00
0.96380	58.00
0.98047	58.00
0.99713	58.00
1.01380	58.00
1.03047	58.00
1.04713	58.00
1.06380	58.00
1.08047	58.00
1.09713	58.00
1.11380	58.00
1.13047	58.00
1.14713	58.00
1.16380	58.00
1.18047	58.00
1.19713	58.00
1.21380	58.00
1.23047	58.00
1.24713	58.00
1.26380	58.00
1.28047	58.00
1.29713	58.00
1.31380	58.00
1.33047	58.00
1.34713	58.00
1.36380	58.00
1.38047	58.00
1.39713	58.00
1.41380	58.00
1.43047	58.00
1.44713	58.00
1.46380	58.00
1.48047	58.00
1.49713	58.00
1.51380	58.00
1.53047	58.00
1.54713	58.00
1.56380	58.00
1.58047	58.00
1.59713	58.00
1.61380	58.00
1.63047	58.00
1.64713	58.00
1.66380	58.00
1.68047	58.01
1.69713	58.00
1.71380	58.00
1.73047	58.00
1.74713	58.00
1.76380	58.00
1.78047	58.00
1.79713	58.00
1.81380	58.00
1.83047	58.00
1.84713	58.00
1.86380	58.00
1.88047	58.00
1.89713	58.00
1.91380	58.00
1.93047	58.00
1.94713	58.00
1.96380	58.00
1.98047	58.00
1.99713	58.00
2.01380	58.00
2.03047	58.00
2.04713	58.00
2.06380	58.00
2.08047	58.00
2.09713	58.00
2.11380	58.00
2.13047	58.00
2.14713	58.00
2.16380	58.00
2.18047	58.00
2.19713	58.00
2.21380	58.00
2.23047	58.00
2.24713	58.00
2.26380	58.00
2.28047	58.00
2.29713	58.00
2.31380	58.00
2.33047	58.00
2.34713	58.00
2.36380	58.00
2.38047	58.00
2.39713	57.99
2.41380	57.99
2.43047	58.00
2.44713	58.00
2.46380	58.00
2.48047	58.00
2.49713	58.00
2.51380	57.99
2.53047	57.99
2.54713	58.00
2.56380	58.00
2.58047	58.00
2.59713	58.00
2.61380	58.00
2.63047	58.00
2.64713	58.00
2.66380	58.00
2.68047	58.00
2.69713	58.00
2.71380	58.00
2.73047	58.00
2.74713	58.00
2.76380	58.00
2.78047	58.00
2.79713	58.00
2.81380	58.00
2.83047	58.00
2.84713	58.00
2.86380	58.00
2.88047	58.00
2.89713	58.00
2.91380	58.00
2.93047	58.00
2.94713	58.00
2.96380	58.00
2.98047	58.00
2.99713	58.00
3.01380	58.00
3.03047	58.00
3.04713	58.00
3.06380	58.00
3.08047	58.00
3.09713	58.00
3.11380	58.00
3.13047	58.00
3.14713	58.00
3.16380	58.00
3.18047	58.00
3.19713	58.00
3.21380	58.00
3.23047	58.00
3.24713	58.00
3.26380	58.00
3.28047	58.00
3.29713	58.00
3.31380	58.00
3.33047	58.00
3.34713	58.00
3.36380	58.00
3.38047	58.00
3.39713	58.00
3.41380	58.00
3.43047	58.00
3.44713	58.00
3.46380	58.00
3.48047	58.00
3.49713	58.00
3.51380	58.00
3.53047	58.00
3.54713	58.00
3.56380	58.00
3.58047	58.00
3.59713	58.00
3.61380	58.00
3.63047	58.00
3.64713	58.00
3.66380	58.00
3.68047	58.00
3.69713	58.00
3.71380	58.00
3.73047	58.00
3.74713	58.00
3.76380	58.00
3.78047	58.00
3.79713	58.00
3.81380	58.00
3.83047	58.00
3.84713	58.00
3.86380	58.00
3.88047	58.00
3.89713	58.00
3.91380	58.00
3.93047	58.00
3.94713	58.00
3.96380	58.00
3.98047	58.00
3.99713	58.00

[Status Trace (Carrier Gas Flow)]
Interval(msec)	1000
# of Points	240
Start Time(min)	0.014
End Time(min)	3.997
Intensity Units	
Intensity Multiplier	1
R.Time (min)	Intensity
0.01380	34.21
0.03047	34.54
0.04713	34.54
0.06380	34.53
0.08047	34.50
0.09713	34.52
0.11380	34.52
0.13047	34.52
0.14713	34.52
0.16380	34.52
0.18047	34.52
0.19713	34.52
0.21380	34.52
0.23047	34.52
0.24713	34.52
0.26380	34.52
0.28047	34.52
0.29713	34.52
0.31380	34.52
0.33047	34.52
0.34713	34.52
0.36380	34.52
0.38047	34.52
0.39713	34.52
0.41380	34.52
0.43047	34.52
0.44713	34.52
0.46380	34.52
0.48047	34.52
0.49713	34.52
0.51380	34.52
0.53047	34.52
0.54713	34.52
0.56380	34.52
0.58047	34.52
0.59713	34.52
0.61380	34.52
0.63047	34.52
0.64713	34.52
0.66380	34.52
0.68047	34.52
0.69713	34.52
0.71380	34.52
0.73047	34.52
0.74713	34.52
0.76380	34.52
0.78047	34.52
0.79713	34.52
0.81380	34.52
0.83047	34.52
0.84713	34.52
0.86380	34.52
0.88047	34.52
0.89713	34.52
0.91380	34.52
0.93047	34.52
0.94713	34.52
0.96380	34.52
0.98047	34.52
0.99713	34.52
1.01380	34.52
1.03047	34.52
1.04713	34.52
1.06380	34.52
1.08047	34.52
1.09713	34.52
1.11380	34.52
1.13047	34.52
1.14713	34.52
1.16380	34.52
1.18047	34.52
1.19713	34.52
1.21380	34.52
1.23047	34.52
1.24713	34.52
1.26380	34.52
1.28047	34.52
1.29713	34.52
1.31380	34.52
1.33047	34.52
1.34713	34.52
1.36380	34.52
1.38047	34.52
1.39713	34.52
1.41380	34.52
1.43047	34.52
1.44713	34.52
1.46380	34.52
1.48047	34.52
1.49713	34.52
1.51380	34.52
1.53047	34.52
1.54713	34.52
1.56380	34.52
1.58047	34.52
1.59713	34.52
1.61380	34.52
1.63047	34.52
1.64713	34.52
1.66380	34.52
1.68047	34.52
1.69713	34.52
1.71380	34.52
1.73047	34.52
1.74713	34.52
1.76380	34.52
1.78047	34.52
1.79713	34.52
1.81380	34.52
1.83047	34.52
1.84713	34.52
1.86380	34.52
1.88047	34.52
1.89713	34.52
1.91380	34.52
1.93047	34.52
1.94713	34.52
1.96380	34.52
1.98047	34.52
1.99713	34.52
2.01380	34.52
2.03047	34.52
2.04713	34.52
2.06380	34.52
2.08047	34.52
2.09713	34.52
2.11380	34.52
2.13047	34.52
2.14713	34.52
2.16380	34.52
2.18047	34.52
2.19713	34.52
2.21380	34.52
2.23047	34.52
2.24713	34.52
2.26380	34.52
2.28047	34.52
2.29713	34.52
2.31380	34.52
2.33047	34.52
2.34713	34.52
2.36380	34.52
2.38047	34.52
2.39713	34.52
2.41380	34.52
2.43047	34.52
2.44713	34.52
2.46380	34.52
2.48047	34.52
2.49713	34.52
2.51380	34.52
2.53047	34.52
2.54713	34.52
2.56380	34.52
2.58047	34.52
2.59713	34.52
2.61380	34.52
2.63047	34.52
2.64713	34.52
2.66380	34.52
2.68047	34.52
2.69713	34.52
2.71380	34.52
2.73047	34.52
2.74713	34.52
2.76380	34.52
2.78047	34.52
2.79713	34.52
2.81380	34.52
2.83047	34.52
2.84713	34.52
2.86380	34.52
2.88047	34.52
2.89713	34.52
2.91380	34.52
2.93047	34.52
2.94713	34.52
2.96380	34.52
2.98047	34.52
2.99713	34.52
3.01380	34.52
3.03047	34.52
3.04713	34.52
3.06380	34.52
3.08047	34.52
3.09713	34.52
3.11380	34.52
3.13047	34.52
3.14713	34.52
3.16380	34.52
3.18047	34.52
3.19713	34.52
3.21380	34.52
3.23047	34.52
3.24713	34.52
3.26380	34.52
3.28047	34.52
3.29713	34.52
3.31380	34.52
3.33047	34.52
3.34713	34.52
3.36380	34.52
3.38047	34.52
3.39713	34.52
3.41380	34.52
3.43047	34.52
3.44713	34.52
3.46380	34.52
3.48047	34.52
3.49713	34.52
3.51380	34.52
3.53047	34.52
3.54713	34.52
3.56380	34.52
3.58047	34.52
3.59713	34.52
3.61380	34.52
3.63047	34.52
3.64713	34.52
3.66380	34.52
3.68047	34.52
3.69713	34.52
3.71380	34.52
3.73047	34.52
3.74713	34.52
3.76380	34.53
3.78047	34.52
3.79713	34.52
3.81380	34.52
3.83047	34.54
3.84713	34.54
3.86380	34.50
3.88047	34.50
3.89713	34.52
3.91380	34.52
3.93047	34.52
3.94713	34.52
3.96380	34.52
3.98047	34.52
3.99713	34.53

[Status Trace (Column Flow)]
Interval(msec)	1000
# of Points	240
Start Time(min)	0.014
End Time(min)	3.997
Intensity Units	
Intensity Multiplier	1
R.Time (min)	Intensity
0.01380	5.52
0.03047	5.25
0.04713	5.55
0.06380	5.78
0.08047	5.68
0.09713	5.57
0.11380	5.57
0.13047	5.58
0.14713	5.58
0.16380	5.57
0.18047	5.57
0.19713	5.57
0.21380	5.57
0.23047	5.57
0.24713	5.57
0.26380	5.57
0.28047	5.57
0.29713	5.57
0.31380	5.57
0.33047	5.57
0.34713	5.57
0.36380	5.57
0.38047	5.57
0.39713	5.57
0.41380	5.57
0.43047	5.57
0.44713	5.57
0.46380	5.57
0.48047	5.57
0.49713	5.57
0.51380	5.57
0.53047	5.57
0.54713	5.57
0.56380	5.57
0.58047	5.57
0.59713	5.57
0.61380	5.57
0.63047	5.57
0.64713	5.57
0.66380	5.57
0.68047	5.57
0.69713	5.57
0.71380	5.57
0.73047	5.57
0.74713	5.57
0.76380	5.57
0.78047	5.57
0.79713	5.57
0.81380	5.57
0.83047	5.57
0.84713	5.57
0.86380	5.57
0.88047	5.57
0.89713	5.57
0.91380	5.57
0.93047	5.57
0.94713	5.57
0.96380	5.57
0.98047	5.57
0.99713	5.57
1.01380	5.57
1.03047	5.57
1.04713	5.57
1.06380	5.57
1.08047	5.57
1.09713	5.57
1.11380	5.57
1.13047	5.57
1.14713	5.57
1.16380	5.57
1.18047	5.57
1.19713	5.57
1.21380	5.57
1.23047	5.57
1.24713	5.57
1.26380	5.57
1.28047	5.57
1.29713	5.57
1.31380	5.57
1.33047	5.57
1.34713	5.57
1.36380	5.57
1.38047	5.57
1.39713	5.57
1.41380	5.57
1.43047	5.57
1.44713	5.57
1.46380	5.57
1.48047	5.57
1.49713	5.57
1.51380	5.57
1.53047	5.57
1.54713	5.57
1.56380	5.57
1.58047	5.57
1.59713	5.57
1.61380	5.57
1.63047	5.57
1.64713	5.56
1.66380	5.55
1.68047	5.54
1.69713	5.53
1.71380	5.52
1.73047	5.51
1.74713	5.50
1.76380	5.49
1.78047	5.48
1.79713	5.47
1.81380	5.45
1.83047	5.45
1.84713	5.43
1.86380	5.42
1.88047	5.42
1.89713	5.40
1.91380	5.39
1.93047	5.39
1.94713	5.37
1.96380	5.36
1.98047	5.36
1.99713	5.35
2.01380	5.34
2.03047	5.33
2.04713	5.32
2.06380	5.31
2.08047	5.30
2.09713	5.29
2.11380	5.28
2.13047	5.27
2.14713	5.26
2.16380	5.25
2.18047	5.24
2.19713	5.23
2.21380	5.22
2.23047	5.21
2.24713	5.20
2.26380	5.19
2.28047	5.18
2.29713	5.17
2.31380	5.17
2.33047	5.16
2.34713	5.15
2.36380	5.14
2.38047	5.13
2.39713	5.13
2.41380	5.13
2.43047	5.13
2.44713	5.13
2.46380	5.13
2.48047	5.13
2.49713	5.13
2.51380	5.13
2.53047	5.13
2.54713	5.13
2.56380	5.13
2.58047	5.13
2.59713	5.13
2.61380	5.13
2.63047	5.13
2.64713	5.13
2.66380	5.13
2.68047	5.13
2.69713	5.13
2.71380	5.13
2.73047	5.13
2.74713	5.13
2.76380	5.13
2.78047	5.13
2.79713	5.13
2.81380	5.13
2.83047	5.13
2.84713	5.13
2.86380	5.13
2.88047	5.13
2.89713	5.13
2.91380	5.13
2.93047	5.13
2.94713	5.13
2.96380	5.13
2.98047	5.13
2.99713	5.12
3.01380	5.12
3.03047	5.12
3.04713	5.12
3.06380	5.12
3.08047	5.12
3.09713	5.12
3.11380	5.12
3.13047	5.12
3.14713	5.12
3.16380	5.12
3.18047	5.12
3.19713	5.12
3.21380	5.13
3.23047	5.13
3.24713	5.13
3.26380	5.13
3.28047	5.13
3.29713	5.13
3.31380	5.13
3.33047	5.13
3.34713	5.13
3.36380	5.13
3.38047	5.13
3.39713	5.13
3.41380	5.12
3.43047	5.12
3.44713	5.12
3.46380	5.12
3.48047	5.12
3.49713	5.12
3.51380	5.12
3.53047	5.12
3.54713	5.12
3.56380	5.12
3.58047	5.12
3.59713	5.12
3.61380	5.12
3.63047	5.12
3.64713	5.12
3.66380	5.12
3.68047	5.12
3.69713	5.12
3.71380	5.12
3.73047	5.12
3.74713	5.12
3.76380	5.12
3.78047	5.12
3.79713	5.12
3.81380	5.12
3.83047	5.12
3.84713	5.12
3.86380	5.12
3.88047	5.12
3.89713	5.12
3.91380	5.12
3.93047	5.12
3.94713	5.12
3.96380	5.12
3.98047	5.12
3.99713	5.12

[Status Trace (Linear Velocity)]
Interval(msec)	1000
# of Points	240
Start Time(min)	0.014
End Time(min)	3.997
Intensity Units	
Intensity Multiplier	1
R.Time (min)	Intensity
0.01380	38.73
0.03047	37.21
0.04713	38.91
0.06380	40.20
0.08047	39.64
0.09713	39.02
0.11380	39.03
0.13047	39.04
0.14713	39.04
0.16380	39.04
0.18047	39.03
0.19713	39.03
0.21380	39.03
0.23047	39.03
0.24713	39.03
0.26380	39.03
0.28047	39.03
0.29713	39.03
0.31380	39.03
0.33047	39.03
0.34713	39.03
0.36380	39.02
0.38047	39.02
0.39713	39.02
0.41380	39.03
0.43047	39.03
0.44713	39.03
0.46380	39.03
0.48047	39.03
0.49713	39.03
0.51380	39.03
0.53047	39.03
0.54713	39.03
0.56380	39.03
0.58047	39.03
0.59713	39.03
0.61380	39.03
0.63047	39.03
0.64713	39.03
0.66380	39.03
0.68047	39.03
0.69713	39.03
0.71380	39.03
0.73047	39.03
0.74713	39.03
0.76380	39.03
0.78047	39.03
0.79713	39.03
0.81380	39.03
0.83047	39.03
0.84713	39.03
0.86380	39.03
0.88047	39.03
0.89713	39.03
0.91380	39.03
0.93047	39.03
0.94713	39.03
0.96380	39.03
0.98047	39.03
0.99713	39.03
1.01380	39.03
1.03047	39.03
1.04713	39.03
1.06380	39.03
1.08047	39.03
1.09713	39.03
1.11380	39.03
1.13047	39.03
1.14713	39.03
1.16380	39.03
1.18047	39.03
1.19713	39.03
1.21380	39.03
1.23047	39.02
1.24713	39.02
1.26380	39.02
1.28047	39.02
1.29713	39.02
1.31380	39.02
1.33047	39.02
1.34713	39.02
1.36380	39.02
1.38047	39.03
1.39713	39.03
1.41380	39.03
1.43047	39.03
1.44713	39.03
1.46380	39.03
1.48047	39.03
1.49713	39.03
1.51380	39.03
1.53047	39.03
1.54713	39.03
1.56380	39.03
1.58047	39.03
1.59713	39.03
1.61380	39.02
1.63047	39.01
1.64713	38.99
1.66380	38.96
1.68047	38.93
1.69713	38.89
1.71380	38.86
1.73047	38.83
1.74713	38.79
1.76380	38.76
1.78047	38.73
1.79713	38.70
1.81380	38.67
1.83047	38.64
1.84713	38.61
1.86380	38.57
1.88047	38.55
1.89713	38.51
1.91380	38.48
1.93047	38.45
1.94713	38.42
1.96380	38.39
1.98047	38.36
1.99713	38.33
2.01380	38.30
2.03047	38.27
2.04713	38.24
2.06380	38.21
2.08047	38.19
2.09713	38.15
2.11380	38.12
2.13047	38.10
2.14713	38.06
2.16380	38.04
2.18047	38.01
2.19713	37.98
2.21380	37.95
2.23047	37.92
2.24713	37.89
2.26380	37.85
2.28047	37.83
2.29713	37.80
2.31380	37.77
2.33047	37.74
2.34713	37.71
2.36380	37.69
2.38047	37.67
2.39713	37.66
2.41380	37.67
2.43047	37.67
2.44713	37.67
2.46380	37.67
2.48047	37.66
2.49713	37.66
2.51380	37.66
2.53047	37.65
2.54713	37.66
2.56380	37.66
2.58047	37.66
2.59713	37.66
2.61380	37.66
2.63047	37.66
2.64713	37.66
2.66380	37.66
2.68047	37.66
2.69713	37.66
2.71380	37.66
2.73047	37.66
2.74713	37.65
2.76380	37.66
2.78047	37.66
2.79713	37.65
2.81380	37.65
2.83047	37.65
2.84713	37.65
2.86380	37.65
2.88047	37.65
2.89713	37.65
2.91380	37.65
2.93047	37.64
2.94713	37.64
2.96380	37.64
2.98047	37.64
2.99713	37.64
3.01380	37.64
3.03047	37.64
3.04713	37.64
3.06380	37.64
3.08047	37.63
3.09713	37.63
3.11380	37.63
3.13047	37.64
3.14713	37.64
3.16380	37.64
3.18047	37.64
3.19713	37.64
3.21380	37.64
3.23047	37.64
3.24713	37.64
3.26380	37.64
3.28047	37.64
3.29713	37.64
3.31380	37.64
3.33047	37.64
3.34713	37.64
3.36380	37.64
3.38047	37.64
3.39713	37.64
3.41380	37.64
3.43047	37.64
3.44713	37.64
3.46380	37.64
3.48047	37.64
3.49713	37.64
3.51380	37.64
3.53047	37.64
3.54713	37.64
3.56380	37.64
3.58047	37.64
3.59713	37.64
3.61380	37.64
3.63047	37.64
3.64713	37.64
3.66380	37.64
3.68047	37.64
3.69713	37.64
3.71380	37.64
3.73047	37.64
3.74713	37.64
3.76380	37.64
3.78047	37.64
3.79713	37.64
3.81380	37.64
3.83047	37.64
3.84713	37.64
3.86380	37.64
3.88047	37.64
3.89713	37.64
3.91380	37.64
3.93047	37.64
3.94713	37.64
3.96380	37.64
3.98047	37.64
3.99713	37.64

