[Header]
Application Name	LabSolutions
Version	5.110
Data File Name	C:\Users\User\Desktop\GC Analyses\Jack\UIC Prairie Sampling\7.22.22\220722_045.gcd
Output Date	10/5/2022
Output Time	2:13:40 PM

[File Information]
Type	Data File
Generated	9/28/2022 12:50:49 PM
Generated by	System Administrator
Modified	9/28/2022 12:55:14 PM
Modified by	System Administrator

[Sample Information]
Operator Name	System Administrator
Acquired	9/28/2022 12:51:13 PM
Sample Type	1:Standard
Level	1
Sample Name	220722_UICPrairie
Sample ID	220722_UICPrairie
ISTD Amount1	1
ISTD Amount2	1
ISTD Amount3	1
ISTD Amount4	1
ISTD Amount5	1
ISTD Amount6	1
ISTD Amount7	1
ISTD Amount8	1
ISTD Amount9	1
ISTD Amount10	1
ISTD Amount11	1
ISTD Amount12	1
ISTD Amount13	1
ISTD Amount14	1
ISTD Amount15	1
ISTD Amount16	1
ISTD Amount17	1
ISTD Amount18	1
ISTD Amount19	1
ISTD Amount20	1
ISTD Amount21	1
ISTD Amount22	1
ISTD Amount23	1
ISTD Amount24	1
ISTD Amount25	1
ISTD Amount26	1
ISTD Amount27	1
ISTD Amount28	1
ISTD Amount29	1
ISTD Amount30	1
ISTD Amount31	1
ISTD Amount32	1
Sample Amount	1
Dilution Factor	1
Vial#	1
Injection Volume	1
Injection Count	1
Bar Code	

[Original Files]
Data File	C:\Users\User\Desktop\GC Analyses\Jack\UIC Prairie Sampling\7.22.22\220722_045.gcd
Method File	C:\LabSolutions\Data\GHG_4min_2022\ghg3_togas_w_acet_4 min_new_int.gcm
Batch File	
Report Format File	c:\LabSolutions\System\DEFAULT.lsr

[File Description]


[Configuration]
Instrument Name	C0B7VH3-Instrument1
Instrument #	1
Line #	1
# of Detectors	3
Detector ID	DET#1	DET#2	DET#3
Detector Name	FID	PTCD	ECD
# of Channels	1	1	1

[Peak Table(Ch1)]
# of Peaks	3
Peak#	R.Time	I.Time	F.Time	Area	Height	A/H	Conc.	Mark	ID#	Name	k'	Plate #	Plate Ht.	Tailing	Resolution	Sep.Factor	Area Ratio	Height Ratio	Conc. %	Norm Conc.
1	1.479	1.435	1.538	18204	8225	2.213	100.000	   	1	CO	0.000	8469	17.712	1.142	0.000	0.000	0	0	16.667	16.667
2	1.571	1.538	1.626	4725	2381	1.984	100.000	 V 	2	CH4	0.062	11434	13.118	1.165	1.490	0.000	0	0	16.667	16.667
3	2.000	1.952	2.271	1398252	682745	2.048	400.000	   	3	CO2	0.352	17631	8.508	1.199	7.209	5.680	0	0	66.667	66.667

[Peak Table(Ch2)]
# of Peaks	0

[Peak Table(Ch3)]
# of Peaks	3
Peak#	R.Time	I.Time	F.Time	Area	Height	A/H	Conc.	Mark	ID#	Name	k'	Plate #	Plate Ht.	Tailing	Resolution	Sep.Factor	Area Ratio	Height Ratio	Conc. %	Norm Conc.
1	2.194	2.026	2.400	599	38	15.563	0.000	   			0.000	342	439.015	0.000	0.000	0.000	0	0	0.000	0.000
2	2.594	2.400	2.660	6079	674	9.023	0.000	 V 			0.182	2133	70.335	0.000	1.143	0.000	0	0	0.000	0.000
3	2.880	2.660	3.232	26397	5318	4.963	1.000	 V 	1	N2O	0.312	12114	12.382	0.000	1.737	1.716	0	0	100.000	100.000

[Compound Results(Ch1)]
# of IDs	6
ID#	Name	R.Time	Area	Height	Conc.	Curve	3rd	2nd	1st	Constant	Area Ratio	Height Ratio	Conc. %	Norm Conc.
1	CO	1.479	18204	8225	100.000	Linear	0.000000e+00	0.000000e+00	1.820358e+002	0.000000e+00	0	0	16.667	16.667
2	CH4	1.571	4725	2381	100.000	Linear	0.000000e+00	0.000000e+00	4.724898e+001	0.000000e+00	0	0	16.667	16.667
3	CO2	2.000	1398252	682745	400.000	Linear	0.000000e+00	0.000000e+00	3.495630e+003	0.000000e+00	0	0	66.667	66.667
4	Ethylene	0.000	0	0	0.000	Linear	0.000000e+00	0.000000e+00	0.000000e+00	0.000000e+00	0	0	0.000	0.000
5	Acetylene	0.000	0	0	0.000	Linear	0.000000e+00	0.000000e+00	0.000000e+00	0.000000e+00	0	0	0.000	0.000
6	Ethane	0.000	0	0	0.000	Linear	0.000000e+00	0.000000e+00	0.000000e+00	0.000000e+00	0	0	0.000	0.000

[Compound Results(Ch2)]
# of IDs	5
ID#	Name	R.Time	Area	Height	Conc.	Curve	3rd	2nd	1st	Constant	Area Ratio	Height Ratio	Conc. %	Norm Conc.
1	Hydrogen	0.000	0	0	0.000	Linear	0.000000e+00	0.000000e+00	0.000000e+00	0.000000e+00	0	0	0.000	0.000
2	Oxygen	0.000	0	0	0.000	Linear	0.000000e+00	0.000000e+00	0.000000e+00	0.000000e+00	0	0	0.000	0.000
3	Nitrogen	0.000	0	0	0.000	Linear	0.000000e+00	0.000000e+00	0.000000e+00	0.000000e+00	0	0	0.000	0.000
4	Methane	0.000	0	0	0.000	Linear	0.000000e+00	0.000000e+00	0.000000e+00	0.000000e+00	0	0	0.000	0.000
5	Carbon Monoxide	0.000	0	0	0.000	Linear	0.000000e+00	0.000000e+00	0.000000e+00	0.000000e+00	0	0	0.000	0.000

[Compound Results(Ch3)]
# of IDs	2
ID#	Name	R.Time	Area	Height	Conc.	Curve	3rd	2nd	1st	Constant	Area Ratio	Height Ratio	Conc. %	Norm Conc.
1	N2O	2.880	26397	5318	1.000	Linear	0.000000e+00	0.000000e+00	2.639715e+004	0.000000e+00	0	0	100.000	100.000
2	SF6	0.000	0	0	0.000	Linear	0.000000e+00	0.000000e+00	0.000000e+00	0.000000e+00	0	0	0.000	0.000

[Group Results(Ch1)]
# of Groups	0

[Group Results(Ch2)]
# of Groups	0

[Group Results(Ch3)]
# of Groups	0

[Chromatogram (Ch1)]
Interval(msec)	220
# of Points	1091
Start Time(min)	0.002
End Time(min)	3.998
R.Time (min)	Intensity
0.00167	-13
0.00533	-12
0.00900	-12
0.01267	-11
0.01633	-8
0.02000	-6
0.02367	-6
0.02733	-6
0.03100	-8
0.03467	-13
0.03833	-19
0.04200	-18
0.04567	-12
0.04933	-11
0.05300	-14
0.05667	-15
0.06033	-13
0.06400	-11
0.06767	-11
0.07133	-10
0.07500	-8
0.07867	-7
0.08233	-5
0.08600	-2
0.08967	-1
0.09333	-1
0.09700	-4
0.10067	-10
0.10433	-15
0.10800	-15
0.11167	-12
0.11533	-9
0.11900	-5
0.12267	-0
0.12633	7
0.13000	17
0.13367	20
0.13733	16
0.14100	5
0.14467	-7
0.14833	-17
0.15200	-24
0.15567	-25
0.15933	-21
0.16300	-16
0.16667	-10
0.17033	-2
0.17400	1
0.17767	-1
0.18133	-5
0.18500	-7
0.18867	-10
0.19233	-12
0.19600	-15
0.19967	-18
0.20333	-23
0.20700	-25
0.21067	-22
0.21433	-17
0.21800	-11
0.22167	-2
0.22533	2
0.22900	-1
0.23267	-5
0.23633	-8
0.24000	-10
0.24367	-13
0.24733	-20
0.25100	-24
0.25467	-23
0.25833	-22
0.26200	-22
0.26567	-23
0.26933	-24
0.27300	-28
0.27667	-33
0.28033	-35
0.28400	-34
0.28767	-32
0.29133	-26
0.29500	-21
0.29867	-15
0.30233	-11
0.30600	-9
0.30967	-8
0.31333	-8
0.31700	-6
0.32067	-2
0.32433	1
0.32800	-2
0.33167	-9
0.33533	-18
0.33900	-27
0.34267	-30
0.34633	-28
0.35000	-24
0.35367	-21
0.35733	-22
0.36100	-24
0.36467	-26
0.36833	-26
0.37200	-25
0.37567	-26
0.37933	-28
0.38300	-27
0.38667	-27
0.39033	-28
0.39400	-28
0.39767	-27
0.40133	-25
0.40500	-27
0.40867	-31
0.41233	-35
0.41600	-38
0.41967	-41
0.42333	-43
0.42700	-43
0.43067	-37
0.43433	-30
0.43800	-22
0.44167	-17
0.44533	-17
0.44900	-21
0.45267	-29
0.45633	-35
0.46000	-39
0.46367	-42
0.46733	-41
0.47100	-36
0.47467	-31
0.47833	-26
0.48200	-21
0.48567	-17
0.48933	-16
0.49300	-19
0.49667	-21
0.50033	-24
0.50400	-29
0.50767	-34
0.51133	-35
0.51500	-32
0.51867	-28
0.52233	-27
0.52600	-28
0.52967	-28
0.53333	-30
0.53700	-32
0.54067	-34
0.54433	-38
0.54800	-40
0.55167	-39
0.55533	-38
0.55900	-39
0.56267	-41
0.56633	-42
0.57000	-43
0.57367	-41
0.57733	-37
0.58100	-32
0.58467	-28
0.58833	-24
0.59200	-24
0.59567	-27
0.59933	-32
0.60300	-39
0.60667	-44
0.61033	-46
0.61400	-46
0.61767	-43
0.62133	-38
0.62500	-36
0.62867	-37
0.63233	-39
0.63600	-40
0.63967	-41
0.64333	-43
0.64700	-44
0.65067	-44
0.65433	-41
0.65800	-37
0.66167	-35
0.66533	-36
0.66900	-37
0.67267	-37
0.67633	-35
0.68000	-34
0.68367	-35
0.68733	-36
0.69100	-38
0.69467	-39
0.69833	-36
0.70200	-34
0.70567	-34
0.70933	-32
0.71300	-31
0.71667	-35
0.72033	-39
0.72400	-42
0.72767	-49
0.73133	-57
0.73500	-59
0.73867	-52
0.74233	-41
0.74600	-34
0.74967	-32
0.75333	-32
0.75700	-34
0.76067	-33
0.76433	-31
0.76800	-34
0.77167	-43
0.77533	-57
0.77900	-66
0.78267	-67
0.78633	-65
0.79000	-64
0.79367	-63
0.79733	-64
0.80100	-66
0.80467	-64
0.80833	-63
0.81200	-61
0.81567	-57
0.81933	-55
0.82300	-56
0.82667	-59
0.83033	-63
0.83400	-64
0.83767	-61
0.84133	-60
0.84500	-59
0.84867	-57
0.85233	-54
0.85600	-52
0.85967	-50
0.86333	-49
0.86700	-52
0.87067	-59
0.87433	-69
0.87800	-75
0.88167	-77
0.88533	-75
0.88900	-69
0.89267	-60
0.89633	-51
0.90000	-45
0.90367	-44
0.90733	-44
0.91100	-46
0.91467	-47
0.91833	-49
0.92200	-49
0.92567	-49
0.92933	-49
0.93300	-50
0.93667	-52
0.94033	-56
0.94400	-59
0.94767	-59
0.95133	-58
0.95500	-56
0.95867	-50
0.96233	-43
0.96600	-39
0.96967	-40
0.97333	-44
0.97700	-47
0.98067	-48
0.98433	-48
0.98800	-53
0.99167	-58
0.99533	-62
0.99900	-65
1.00267	-67
1.00633	-67
1.01000	-66
1.01367	-64
1.01733	-66
1.02100	-71
1.02467	-75
1.02833	-73
1.03200	-68
1.03567	-62
1.03933	-59
1.04300	-57
1.04667	-60
1.05033	-65
1.05400	-69
1.05767	-72
1.06133	-74
1.06500	-77
1.06867	-77
1.07233	-75
1.07600	-71
1.07967	-68
1.08333	-63
1.08700	-62
1.09067	-66
1.09433	-70
1.09800	-69
1.10167	-67
1.10533	-67
1.10900	-67
1.11267	-64
1.11633	-59
1.12000	-56
1.12367	-57
1.12733	-62
1.13100	-71
1.13467	-80
1.13833	-85
1.14200	-86
1.14567	-85
1.14933	-84
1.15300	-81
1.15667	-77
1.16033	-73
1.16400	-70
1.16767	-66
1.17133	-61
1.17500	-58
1.17867	-55
1.18233	-52
1.18600	-50
1.18967	-50
1.19333	-57
1.19700	-68
1.20067	-80
1.20433	-89
1.20800	-92
1.21167	-91
1.21533	-89
1.21900	-86
1.22267	-82
1.22633	-76
1.23000	-70
1.23367	-68
1.23733	-68
1.24100	-67
1.24467	-69
1.24833	-78
1.25200	-89
1.25567	-100
1.25933	-109
1.26300	-114
1.26667	-114
1.27033	-110
1.27400	-105
1.27767	-99
1.28133	-91
1.28500	-87
1.28867	-85
1.29233	-83
1.29600	-81
1.29967	-79
1.30333	-80
1.30700	-85
1.31067	-91
1.31433	-95
1.31800	-96
1.32167	-97
1.32533	-97
1.32900	-94
1.33267	-88
1.33633	-82
1.34000	-74
1.34367	-68
1.34733	-63
1.35100	-60
1.35467	-61
1.35833	-70
1.36200	-79
1.36567	-85
1.36933	-88
1.37300	-89
1.37667	-86
1.38033	-80
1.38400	-76
1.38767	-73
1.39133	-72
1.39500	-71
1.39867	-72
1.40233	-71
1.40600	-73
1.40967	-77
1.41333	-79
1.41700	-82
1.42067	-84
1.42433	-86
1.42800	-87
1.43167	-86
1.43533	-81
1.43900	-69
1.44267	-10
1.44633	197
1.45000	643
1.45367	1409
1.45733	2583
1.46100	4052
1.46467	5531
1.46833	6774
1.47200	7657
1.47567	8124
1.47933	8137
1.48300	7678
1.48667	6804
1.49033	5666
1.49400	4459
1.49767	3347
1.50133	2421
1.50500	1700
1.50867	1169
1.51233	791
1.51600	528
1.51967	342
1.52333	206
1.52700	109
1.53067	42
1.53433	-4
1.53800	-30
1.54167	-21
1.54533	71
1.54900	308
1.55267	693
1.55633	1151
1.56000	1588
1.56367	1939
1.56733	2178
1.57100	2277
1.57467	2207
1.57833	1970
1.58200	1619
1.58567	1233
1.58933	874
1.59300	579
1.59667	354
1.60033	196
1.60400	87
1.60767	12
1.61133	-37
1.61500	-69
1.61867	-90
1.62233	-104
1.62600	-113
1.62967	-117
1.63333	-119
1.63700	-118
1.64067	-115
1.64433	-114
1.64800	-116
1.65167	-121
1.65533	-123
1.65900	-121
1.66267	-121
1.66633	-119
1.67000	-118
1.67367	-120
1.67733	-123
1.68100	-127
1.68467	-131
1.68833	-134
1.69200	-134
1.69567	-133
1.69933	-133
1.70300	-132
1.70667	-127
1.71033	-117
1.71400	-111
1.71767	-112
1.72133	-117
1.72500	-121
1.72867	-126
1.73233	-130
1.73600	-131
1.73967	-123
1.74333	-113
1.74700	-105
1.75067	-105
1.75433	-109
1.75800	-111
1.76167	-113
1.76533	-112
1.76900	-112
1.77267	-114
1.77633	-115
1.78000	-115
1.78367	-117
1.78733	-121
1.79100	-125
1.79467	-126
1.79833	-120
1.80200	-115
1.80567	-111
1.80933	-104
1.81300	-97
1.81667	-92
1.82033	-91
1.82400	-95
1.82767	-101
1.83133	-104
1.83500	-105
1.83867	-105
1.84233	-105
1.84600	-107
1.84967	-112
1.85333	-121
1.85700	-127
1.86067	-127
1.86433	-121
1.86800	-113
1.87167	-112
1.87533	-114
1.87900	-119
1.88267	-121
1.88633	-120
1.89000	-114
1.89367	-109
1.89733	-107
1.90100	-109
1.90467	-110
1.90833	-111
1.91200	-111
1.91567	-110
1.91933	-108
1.92300	-109
1.92667	-111
1.93033	-110
1.93400	-107
1.93767	-102
1.94133	-101
1.94500	-100
1.94867	-101
1.95233	-97
1.95600	-55
1.95967	203
1.96333	1525
1.96700	6825
1.97067	23061
1.97433	61489
1.97800	132867
1.98167	238287
1.98533	364814
1.98900	491056
1.99267	595679
1.99633	662645
2.00000	682675
2.00367	654170
2.00733	584531
2.01100	488919
2.01467	385277
2.01833	288571
2.02200	207617
2.02567	145045
2.02933	99379
2.03300	67374
2.03667	45559
2.04033	30950
2.04400	21262
2.04767	14850
2.05133	10590
2.05500	7736
2.05867	5803
2.06233	4475
2.06600	3541
2.06967	2867
2.07333	2370
2.07700	1995
2.08067	1710
2.08433	1488
2.08800	1309
2.09167	1160
2.09533	1035
2.09900	929
2.10267	842
2.10633	770
2.11000	711
2.11367	659
2.11733	608
2.12100	559
2.12467	518
2.12833	487
2.13200	464
2.13567	443
2.13933	422
2.14300	397
2.14667	374
2.15033	358
2.15400	344
2.15767	328
2.16133	313
2.16500	297
2.16867	280
2.17233	261
2.17600	247
2.17967	238
2.18333	232
2.18700	223
2.19067	215
2.19433	210
2.19800	202
2.20167	190
2.20533	179
2.20900	171
2.21267	167
2.21633	166
2.22000	166
2.22367	165
2.22733	161
2.23100	156
2.23467	152
2.23833	146
2.24200	135
2.24567	121
2.24933	108
2.25300	101
2.25667	100
2.26033	100
2.26400	96
2.26767	91
2.27133	87
2.27500	80
2.27867	75
2.28233	73
2.28600	72
2.28967	74
2.29333	78
2.29700	84
2.30067	90
2.30433	93
2.30800	92
2.31167	91
2.31533	87
2.31900	79
2.32267	69
2.32633	61
2.33000	56
2.33367	50
2.33733	46
2.34100	42
2.34467	40
2.34833	40
2.35200	41
2.35567	43
2.35933	44
2.36300	45
2.36667	46
2.37033	47
2.37400	49
2.37767	51
2.38133	51
2.38500	51
2.38867	50
2.39233	46
2.39600	39
2.39967	34
2.40333	31
2.40700	29
2.41067	30
2.41433	31
2.41800	33
2.42167	32
2.42533	31
2.42900	29
2.43267	31
2.43633	36
2.44000	43
2.44367	47
2.44733	47
2.45100	43
2.45467	38
2.45833	34
2.46200	33
2.46567	36
2.46933	37
2.47300	37
2.47667	34
2.48033	30
2.48400	23
2.48767	16
2.49133	16
2.49500	22
2.49867	32
2.50233	39
2.50600	43
2.50967	46
2.51333	45
2.51700	35
2.52067	23
2.52433	17
2.52800	17
2.53167	20
2.53533	25
2.53900	30
2.54267	30
2.54633	24
2.55000	17
2.55367	14
2.55733	12
2.56100	11
2.56467	9
2.56833	6
2.57200	2
2.57567	0
2.57933	1
2.58300	4
2.58667	4
2.59033	-1
2.59400	-7
2.59767	-9
2.60133	-8
2.60500	-6
2.60867	1
2.61233	6
2.61600	7
2.61967	3
2.62333	-4
2.62700	-12
2.63067	-19
2.63433	-25
2.63800	-27
2.64167	-28
2.64533	-26
2.64900	-23
2.65267	-19
2.65633	-15
2.66000	-10
2.66367	-5
2.66733	0
2.67100	4
2.67467	5
2.67833	7
2.68200	8
2.68567	7
2.68933	4
2.69300	4
2.69667	4
2.70033	-2
2.70400	-15
2.70767	-25
2.71133	-26
2.71500	-24
2.71867	-23
2.72233	-24
2.72600	-27
2.72967	-30
2.73333	-30
2.73700	-30
2.74067	-33
2.74433	-35
2.74800	-33
2.75167	-26
2.75533	-18
2.75900	-14
2.76267	-13
2.76633	-11
2.77000	-9
2.77367	-7
2.77733	-5
2.78100	-3
2.78467	-2
2.78833	-4
2.79200	-11
2.79567	-22
2.79933	-32
2.80300	-38
2.80667	-39
2.81033	-36
2.81400	-30
2.81767	-21
2.82133	-12
2.82500	-3
2.82867	1
2.83233	-4
2.83600	-16
2.83967	-25
2.84333	-27
2.84700	-25
2.85067	-22
2.85433	-20
2.85800	-20
2.86167	-17
2.86533	-13
2.86900	-8
2.87267	-6
2.87633	-8
2.88000	-13
2.88367	-18
2.88733	-22
2.89100	-27
2.89467	-31
2.89833	-33
2.90200	-34
2.90567	-34
2.90933	-30
2.91300	-27
2.91667	-25
2.92033	-23
2.92400	-21
2.92767	-20
2.93133	-18
2.93500	-16
2.93867	-18
2.94233	-21
2.94600	-25
2.94967	-24
2.95333	-22
2.95700	-19
2.96067	-15
2.96433	-15
2.96800	-19
2.97167	-21
2.97533	-23
2.97900	-25
2.98267	-27
2.98633	-24
2.99000	-17
2.99367	-9
2.99733	-2
3.00100	-1
3.00467	-2
3.00833	1
3.01200	1
3.01567	-5
3.01933	-13
3.02300	-20
3.02667	-23
3.03033	-23
3.03400	-21
3.03767	-19
3.04133	-17
3.04500	-15
3.04867	-14
3.05233	-14
3.05600	-15
3.05967	-15
3.06333	-17
3.06700	-21
3.07067	-25
3.07433	-28
3.07800	-31
3.08167	-32
3.08533	-29
3.08900	-24
3.09267	-20
3.09633	-20
3.10000	-24
3.10367	-29
3.10733	-32
3.11100	-33
3.11467	-30
3.11833	-23
3.12200	-12
3.12567	-2
3.12933	2
3.13300	-3
3.13667	-14
3.14033	-23
3.14400	-27
3.14767	-28
3.15133	-27
3.15500	-27
3.15867	-27
3.16233	-29
3.16600	-29
3.16967	-27
3.17333	-24
3.17700	-22
3.18067	-23
3.18433	-24
3.18800	-25
3.19167	-24
3.19533	-25
3.19900	-26
3.20267	-29
3.20633	-36
3.21000	-42
3.21367	-45
3.21733	-44
3.22100	-42
3.22467	-38
3.22833	-37
3.23200	-38
3.23567	-36
3.23933	-33
3.24300	-32
3.24667	-30
3.25033	-27
3.25400	-26
3.25767	-24
3.26133	-20
3.26500	-14
3.26867	-9
3.27233	-8
3.27600	-10
3.27967	-14
3.28333	-19
3.28700	-21
3.29067	-23
3.29433	-24
3.29800	-22
3.30167	-19
3.30533	-18
3.30900	-18
3.31267	-17
3.31633	-17
3.32000	-17
3.32367	-18
3.32733	-16
3.33100	-12
3.33467	-8
3.33833	-6
3.34200	-6
3.34567	-11
3.34933	-18
3.35300	-25
3.35667	-30
3.36033	-31
3.36400	-30
3.36767	-28
3.37133	-28
3.37500	-27
3.37867	-27
3.38233	-29
3.38600	-31
3.38967	-31
3.39333	-31
3.39700	-29
3.40067	-27
3.40433	-26
3.40800	-29
3.41167	-33
3.41533	-36
3.41900	-38
3.42267	-38
3.42633	-36
3.43000	-33
3.43367	-30
3.43733	-24
3.44100	-21
3.44467	-24
3.44833	-28
3.45200	-29
3.45567	-27
3.45933	-19
3.46300	-9
3.46667	-4
3.47033	-4
3.47400	-7
3.47767	-12
3.48133	-15
3.48500	-19
3.48867	-22
3.49233	-20
3.49600	-16
3.49967	-11
3.50333	-7
3.50700	-6
3.51067	-6
3.51433	-6
3.51800	-4
3.52167	-1
3.52533	-0
3.52900	-5
3.53267	-15
3.53633	-25
3.54000	-31
3.54367	-30
3.54733	-24
3.55100	-17
3.55467	-12
3.55833	-11
3.56200	-13
3.56567	-16
3.56933	-20
3.57300	-23
3.57667	-22
3.58033	-20
3.58400	-17
3.58767	-12
3.59133	-9
3.59500	-6
3.59867	-5
3.60233	-6
3.60600	-7
3.60967	-7
3.61333	-5
3.61700	-2
3.62067	2
3.62433	5
3.62800	7
3.63167	7
3.63533	2
3.63900	-6
3.64267	-10
3.64633	-13
3.65000	-13
3.65367	-11
3.65733	-6
3.66100	2
3.66467	13
3.66833	20
3.67200	23
3.67567	21
3.67933	16
3.68300	11
3.68667	4
3.69033	-4
3.69400	-8
3.69767	-9
3.70133	-6
3.70500	0
3.70867	8
3.71233	10
3.71600	10
3.71967	11
3.72333	13
3.72700	13
3.73067	8
3.73433	3
3.73800	-3
3.74167	-8
3.74533	-6
3.74900	3
3.75267	12
3.75633	17
3.76000	20
3.76367	20
3.76733	17
3.77100	12
3.77467	1
3.77833	-11
3.78200	-19
3.78567	-21
3.78933	-17
3.79300	-8
3.79667	4
3.80033	13
3.80400	14
3.80767	12
3.81133	10
3.81500	10
3.81867	12
3.82233	15
3.82600	15
3.82967	16
3.83333	17
3.83700	15
3.84067	9
3.84433	5
3.84800	5
3.85167	7
3.85533	13
3.85900	17
3.86267	18
3.86633	20
3.87000	25
3.87367	26
3.87733	23
3.88100	18
3.88467	14
3.88833	14
3.89200	12
3.89567	9
3.89933	9
3.90300	8
3.90667	7
3.91033	9
3.91400	15
3.91767	22
3.92133	31
3.92500	39
3.92867	39
3.93233	33
3.93600	27
3.93967	20
3.94333	13
3.94700	10
3.95067	9
3.95433	11
3.95800	13
3.96167	17
3.96533	20
3.96900	21
3.97267	18
3.97633	15
3.98000	13
3.98367	13
3.98733	12
3.99100	12
3.99467	11
3.99833	10

[Chromatogram (Ch2)]
Interval(msec)	220
# of Points	1091
Start Time(min)	0.002
End Time(min)	3.998
R.Time (min)	Intensity
0.00167	0
0.00533	0
0.00900	0
0.01267	0
0.01633	0
0.02000	0
0.02367	0
0.02733	1
0.03100	1
0.03467	1
0.03833	1
0.04200	1
0.04567	1
0.04933	1
0.05300	1
0.05667	1
0.06033	1
0.06400	1
0.06767	1
0.07133	1
0.07500	1
0.07867	1
0.08233	1
0.08600	2
0.08967	2
0.09333	2
0.09700	2
0.10067	2
0.10433	2
0.10800	2
0.11167	2
0.11533	2
0.11900	2
0.12267	2
0.12633	1
0.13000	1
0.13367	0
0.13733	0
0.14100	-0
0.14467	0
0.14833	0
0.15200	1
0.15567	1
0.15933	2
0.16300	2
0.16667	3
0.17033	3
0.17400	3
0.17767	4
0.18133	4
0.18500	4
0.18867	4
0.19233	4
0.19600	4
0.19967	4
0.20333	4
0.20700	4
0.21067	5
0.21433	5
0.21800	5
0.22167	5
0.22533	4
0.22900	4
0.23267	3
0.23633	3
0.24000	2
0.24367	2
0.24733	2
0.25100	1
0.25467	1
0.25833	1
0.26200	0
0.26567	0
0.26933	0
0.27300	0
0.27667	0
0.28033	1
0.28400	1
0.28767	1
0.29133	1
0.29500	1
0.29867	1
0.30233	2
0.30600	2
0.30967	3
0.31333	3
0.31700	3
0.32067	3
0.32433	3
0.32800	3
0.33167	4
0.33533	3
0.33900	3
0.34267	3
0.34633	3
0.35000	3
0.35367	3
0.35733	2
0.36100	2
0.36467	1
0.36833	1
0.37200	0
0.37567	0
0.37933	-0
0.38300	-1
0.38667	-1
0.39033	-1
0.39400	-1
0.39767	-1
0.40133	-1
0.40500	-1
0.40867	-0
0.41233	-0
0.41600	0
0.41967	1
0.42333	1
0.42700	1
0.43067	1
0.43433	1
0.43800	1
0.44167	1
0.44533	1
0.44900	1
0.45267	1
0.45633	0
0.46000	0
0.46367	0
0.46733	0
0.47100	-0
0.47467	-0
0.47833	-0
0.48200	-0
0.48567	0
0.48933	0
0.49300	0
0.49667	-0
0.50033	-0
0.50400	-0
0.50767	-0
0.51133	-1
0.51500	-1
0.51867	-1
0.52233	-1
0.52600	-1
0.52967	-1
0.53333	-1
0.53700	-1
0.54067	-1
0.54433	-0
0.54800	-0
0.55167	0
0.55533	0
0.55900	1
0.56267	1
0.56633	1
0.57000	2
0.57367	2
0.57733	2
0.58100	3
0.58467	3
0.58833	3
0.59200	3
0.59567	3
0.59933	3
0.60300	3
0.60667	3
0.61033	3
0.61400	3
0.61767	3
0.62133	3
0.62500	2
0.62867	2
0.63233	2
0.63600	2
0.63967	2
0.64333	3
0.64700	3
0.65067	3
0.65433	3
0.65800	3
0.66167	3
0.66533	3
0.66900	4
0.67267	4
0.67633	3
0.68000	3
0.68367	3
0.68733	3
0.69100	3
0.69467	3
0.69833	3
0.70200	3
0.70567	3
0.70933	3
0.71300	3
0.71667	3
0.72033	3
0.72400	3
0.72767	3
0.73133	3
0.73500	2
0.73867	2
0.74233	3
0.74600	3
0.74967	3
0.75333	3
0.75700	3
0.76067	3
0.76433	3
0.76800	3
0.77167	3
0.77533	3
0.77900	3
0.78267	3
0.78633	3
0.79000	3
0.79367	2
0.79733	2
0.80100	1
0.80467	1
0.80833	0
0.81200	0
0.81567	-0
0.81933	-0
0.82300	-0
0.82667	-0
0.83033	-0
0.83400	-0
0.83767	-1
0.84133	-1
0.84500	-1
0.84867	-1
0.85233	-1
0.85600	-1
0.85967	-1
0.86333	-1
0.86700	-1
0.87067	-1
0.87433	-1
0.87800	-0
0.88167	-0
0.88533	-0
0.88900	-0
0.89267	0
0.89633	0
0.90000	-0
0.90367	-0
0.90733	-0
0.91100	-1
0.91467	-1
0.91833	-1
0.92200	-1
0.92567	-1
0.92933	-1
0.93300	-1
0.93667	-2
0.94033	-2
0.94400	-2
0.94767	-2
0.95133	-2
0.95500	-2
0.95867	-2
0.96233	-2
0.96600	-2
0.96967	-2
0.97333	-2
0.97700	-2
0.98067	-2
0.98433	-2
0.98800	-2
0.99167	-3
0.99533	-3
0.99900	-2
1.00267	-2
1.00633	-2
1.01000	-2
1.01367	-2
1.01733	-1
1.02100	-1
1.02467	-1
1.02833	-0
1.03200	-0
1.03567	0
1.03933	1
1.04300	1
1.04667	2
1.05033	2
1.05400	2
1.05767	3
1.06133	3
1.06500	3
1.06867	3
1.07233	3
1.07600	3
1.07967	3
1.08333	3
1.08700	3
1.09067	2
1.09433	2
1.09800	2
1.10167	1
1.10533	1
1.10900	1
1.11267	1
1.11633	1
1.12000	1
1.12367	1
1.12733	1
1.13100	1
1.13467	0
1.13833	0
1.14200	-0
1.14567	-0
1.14933	-0
1.15300	-0
1.15667	-0
1.16033	-0
1.16400	-0
1.16767	-0
1.17133	-0
1.17500	-0
1.17867	0
1.18233	0
1.18600	0
1.18967	0
1.19333	0
1.19700	-0
1.20067	-1
1.20433	-1
1.20800	-2
1.21167	-2
1.21533	-2
1.21900	-3
1.22267	-3
1.22633	-3
1.23000	-3
1.23367	-3
1.23733	-3
1.24100	-3
1.24467	-3
1.24833	-2
1.25200	-2
1.25567	-2
1.25933	-1
1.26300	-1
1.26667	-1
1.27033	-0
1.27400	-0
1.27767	-0
1.28133	-0
1.28500	0
1.28867	0
1.29233	1
1.29600	1
1.29967	1
1.30333	2
1.30700	2
1.31067	2
1.31433	2
1.31800	3
1.32167	3
1.32533	3
1.32900	3
1.33267	3
1.33633	3
1.34000	3
1.34367	3
1.34733	3
1.35100	3
1.35467	3
1.35833	3
1.36200	2
1.36567	2
1.36933	2
1.37300	2
1.37667	2
1.38033	2
1.38400	2
1.38767	2
1.39133	2
1.39500	2
1.39867	2
1.40233	3
1.40600	3
1.40967	3
1.41333	3
1.41700	3
1.42067	3
1.42433	4
1.42800	4
1.43167	4
1.43533	4
1.43900	4
1.44267	4
1.44633	4
1.45000	4
1.45367	4
1.45733	3
1.46100	3
1.46467	2
1.46833	2
1.47200	2
1.47567	1
1.47933	1
1.48300	1
1.48667	0
1.49033	-0
1.49400	-0
1.49767	-0
1.50133	-0
1.50500	-1
1.50867	-1
1.51233	-1
1.51600	-1
1.51967	-1
1.52333	-1
1.52700	-1
1.53067	-1
1.53433	-1
1.53800	-0
1.54167	-0
1.54533	-0
1.54900	-0
1.55267	-0
1.55633	-0
1.56000	-1
1.56367	-1
1.56733	-1
1.57100	-1
1.57467	-0
1.57833	-0
1.58200	0
1.58567	0
1.58933	0
1.59300	-0
1.59667	-0
1.60033	-1
1.60400	-2
1.60767	-3
1.61133	-4
1.61500	-6
1.61867	-8
1.62233	-11
1.62600	-13
1.62967	-17
1.63333	-20
1.63700	-24
1.64067	-27
1.64433	-31
1.64800	-35
1.65167	-39
1.65533	-43
1.65900	-48
1.66267	-52
1.66633	-57
1.67000	-63
1.67367	-68
1.67733	-73
1.68100	-78
1.68467	-83
1.68833	-88
1.69200	-92
1.69567	-95
1.69933	-99
1.70300	-102
1.70667	-104
1.71033	-107
1.71400	-109
1.71767	-110
1.72133	-112
1.72500	-113
1.72867	-114
1.73233	-115
1.73600	-115
1.73967	-116
1.74333	-116
1.74700	-116
1.75067	-116
1.75433	-116
1.75800	-115
1.76167	-115
1.76533	-115
1.76900	-115
1.77267	-115
1.77633	-116
1.78000	-117
1.78367	-118
1.78733	-120
1.79100	-121
1.79467	-122
1.79833	-122
1.80200	-122
1.80567	-122
1.80933	-122
1.81300	-122
1.81667	-122
1.82033	-122
1.82400	-122
1.82767	-122
1.83133	-122
1.83500	-122
1.83867	-122
1.84233	-122
1.84600	-122
1.84967	-122
1.85333	-123
1.85700	-123
1.86067	-123
1.86433	-123
1.86800	-123
1.87167	-123
1.87533	-123
1.87900	-123
1.88267	-123
1.88633	-122
1.89000	-122
1.89367	-121
1.89733	-120
1.90100	-120
1.90467	-120
1.90833	-119
1.91200	-119
1.91567	-119
1.91933	-120
1.92300	-120
1.92667	-120
1.93033	-119
1.93400	-119
1.93767	-119
1.94133	-118
1.94500	-117
1.94867	-117
1.95233	-116
1.95600	-116
1.95967	-115
1.96333	-114
1.96700	-114
1.97067	-114
1.97433	-114
1.97800	-114
1.98167	-114
1.98533	-114
1.98900	-114
1.99267	-114
1.99633	-115
2.00000	-115
2.00367	-115
2.00733	-115
2.01100	-115
2.01467	-115
2.01833	-115
2.02200	-115
2.02567	-114
2.02933	-114
2.03300	-114
2.03667	-113
2.04033	-113
2.04400	-112
2.04767	-112
2.05133	-111
2.05500	-111
2.05867	-110
2.06233	-109
2.06600	-109
2.06967	-108
2.07333	-108
2.07700	-107
2.08067	-107
2.08433	-107
2.08800	-107
2.09167	-107
2.09533	-107
2.09900	-107
2.10267	-107
2.10633	-107
2.11000	-107
2.11367	-107
2.11733	-107
2.12100	-106
2.12467	-106
2.12833	-105
2.13200	-104
2.13567	-103
2.13933	-103
2.14300	-102
2.14667	-101
2.15033	-101
2.15400	-100
2.15767	-100
2.16133	-100
2.16500	-99
2.16867	-99
2.17233	-99
2.17600	-98
2.17967	-98
2.18333	-97
2.18700	-97
2.19067	-97
2.19433	-96
2.19800	-96
2.20167	-95
2.20533	-95
2.20900	-94
2.21267	-94
2.21633	-93
2.22000	-93
2.22367	-93
2.22733	-93
2.23100	-93
2.23467	-94
2.23833	-95
2.24200	-95
2.24567	-96
2.24933	-96
2.25300	-96
2.25667	-96
2.26033	-97
2.26400	-97
2.26767	-96
2.27133	-96
2.27500	-95
2.27867	-94
2.28233	-93
2.28600	-93
2.28967	-93
2.29333	-93
2.29700	-93
2.30067	-93
2.30433	-92
2.30800	-91
2.31167	-91
2.31533	-90
2.31900	-90
2.32267	-90
2.32633	-90
2.33000	-90
2.33367	-89
2.33733	-88
2.34100	-87
2.34467	-86
2.34833	-85
2.35200	-84
2.35567	-84
2.35933	-83
2.36300	-84
2.36667	-84
2.37033	-84
2.37400	-83
2.37767	-81
2.38133	-79
2.38500	-76
2.38867	-72
2.39233	-68
2.39600	-63
2.39967	-59
2.40333	-54
2.40700	-48
2.41067	-43
2.41433	-38
2.41800	-33
2.42167	-29
2.42533	-25
2.42900	-22
2.43267	-19
2.43633	-17
2.44000	-15
2.44367	-13
2.44733	-11
2.45100	-9
2.45467	-6
2.45833	-4
2.46200	-3
2.46567	-1
2.46933	-0
2.47300	1
2.47667	1
2.48033	2
2.48400	3
2.48767	4
2.49133	6
2.49500	7
2.49867	8
2.50233	9
2.50600	10
2.50967	11
2.51333	11
2.51700	11
2.52067	12
2.52433	12
2.52800	13
2.53167	14
2.53533	15
2.53900	16
2.54267	16
2.54633	17
2.55000	18
2.55367	18
2.55733	18
2.56100	18
2.56467	18
2.56833	19
2.57200	19
2.57567	19
2.57933	19
2.58300	19
2.58667	19
2.59033	19
2.59400	19
2.59767	19
2.60133	19
2.60500	19
2.60867	18
2.61233	18
2.61600	19
2.61967	19
2.62333	19
2.62700	19
2.63067	19
2.63433	19
2.63800	19
2.64167	20
2.64533	20
2.64900	20
2.65267	20
2.65633	21
2.66000	21
2.66367	22
2.66733	22
2.67100	22
2.67467	22
2.67833	22
2.68200	22
2.68567	22
2.68933	22
2.69300	22
2.69667	23
2.70033	23
2.70400	24
2.70767	24
2.71133	24
2.71500	25
2.71867	25
2.72233	26
2.72600	26
2.72967	27
2.73333	27
2.73700	27
2.74067	28
2.74433	27
2.74800	27
2.75167	27
2.75533	26
2.75900	25
2.76267	25
2.76633	24
2.77000	24
2.77367	24
2.77733	24
2.78100	24
2.78467	24
2.78833	24
2.79200	24
2.79567	25
2.79933	25
2.80300	25
2.80667	25
2.81033	26
2.81400	26
2.81767	26
2.82133	26
2.82500	26
2.82867	26
2.83233	26
2.83600	26
2.83967	26
2.84333	26
2.84700	25
2.85067	23
2.85433	19
2.85800	13
2.86167	5
2.86533	-7
2.86900	-22
2.87267	-42
2.87633	-65
2.88000	-93
2.88367	-124
2.88733	-159
2.89100	-198
2.89467	-240
2.89833	-284
2.90200	-330
2.90567	-379
2.90933	-428
2.91300	-478
2.91667	-529
2.92033	-579
2.92400	-629
2.92767	-679
2.93133	-728
2.93500	-776
2.93867	-825
2.94233	-877
2.94600	-935
2.94967	-997
2.95333	-1054
2.95700	-1094
2.96067	-1110
2.96433	-1099
2.96800	-1063
2.97167	-1008
2.97533	-939
2.97900	-861
2.98267	-781
2.98633	-700
2.99000	-621
2.99367	-548
2.99733	-479
3.00100	-417
3.00467	-361
3.00833	-311
3.01200	-267
3.01567	-228
3.01933	-194
3.02300	-164
3.02667	-139
3.03033	-117
3.03400	-98
3.03767	-81
3.04133	-67
3.04500	-55
3.04867	-45
3.05233	-36
3.05600	-29
3.05967	-22
3.06333	-17
3.06700	-12
3.07067	-9
3.07433	-5
3.07800	-2
3.08167	0
3.08533	3
3.08900	5
3.09267	6
3.09633	8
3.10000	9
3.10367	11
3.10733	12
3.11100	12
3.11467	13
3.11833	14
3.12200	14
3.12567	15
3.12933	15
3.13300	16
3.13667	16
3.14033	17
3.14400	17
3.14767	17
3.15133	18
3.15500	18
3.15867	18
3.16233	18
3.16600	19
3.16967	19
3.17333	20
3.17700	20
3.18067	20
3.18433	21
3.18800	21
3.19167	21
3.19533	21
3.19900	21
3.20267	21
3.20633	21
3.21000	21
3.21367	22
3.21733	22
3.22100	22
3.22467	22
3.22833	23
3.23200	23
3.23567	23
3.23933	23
3.24300	23
3.24667	24
3.25033	24
3.25400	24
3.25767	24
3.26133	25
3.26500	25
3.26867	25
3.27233	26
3.27600	26
3.27967	26
3.28333	26
3.28700	26
3.29067	26
3.29433	26
3.29800	25
3.30167	25
3.30533	26
3.30900	26
3.31267	26
3.31633	26
3.32000	27
3.32367	28
3.32733	28
3.33100	29
3.33467	29
3.33833	30
3.34200	30
3.34567	31
3.34933	31
3.35300	31
3.35667	31
3.36033	31
3.36400	31
3.36767	31
3.37133	31
3.37500	31
3.37867	30
3.38233	30
3.38600	30
3.38967	30
3.39333	30
3.39700	30
3.40067	30
3.40433	29
3.40800	29
3.41167	29
3.41533	29
3.41900	29
3.42267	29
3.42633	29
3.43000	29
3.43367	29
3.43733	29
3.44100	29
3.44467	29
3.44833	29
3.45200	29
3.45567	29
3.45933	29
3.46300	29
3.46667	29
3.47033	29
3.47400	29
3.47767	29
3.48133	29
3.48500	29
3.48867	29
3.49233	29
3.49600	29
3.49967	29
3.50333	29
3.50700	28
3.51067	28
3.51433	28
3.51800	28
3.52167	28
3.52533	28
3.52900	28
3.53267	28
3.53633	28
3.54000	28
3.54367	28
3.54733	29
3.55100	29
3.55467	28
3.55833	28
3.56200	28
3.56567	28
3.56933	29
3.57300	29
3.57667	29
3.58033	29
3.58400	29
3.58767	29
3.59133	29
3.59500	29
3.59867	29
3.60233	29
3.60600	29
3.60967	29
3.61333	29
3.61700	29
3.62067	29
3.62433	28
3.62800	28
3.63167	28
3.63533	28
3.63900	28
3.64267	28
3.64633	28
3.65000	28
3.65367	27
3.65733	27
3.66100	27
3.66467	27
3.66833	26
3.67200	26
3.67567	26
3.67933	26
3.68300	26
3.68667	27
3.69033	27
3.69400	27
3.69767	27
3.70133	27
3.70500	27
3.70867	27
3.71233	28
3.71600	29
3.71967	30
3.72333	30
3.72700	30
3.73067	30
3.73433	30
3.73800	30
3.74167	30
3.74533	30
3.74900	30
3.75267	30
3.75633	30
3.76000	30
3.76367	29
3.76733	29
3.77100	29
3.77467	29
3.77833	29
3.78200	29
3.78567	29
3.78933	29
3.79300	29
3.79667	29
3.80033	30
3.80400	30
3.80767	30
3.81133	30
3.81500	30
3.81867	30
3.82233	30
3.82600	31
3.82967	31
3.83333	31
3.83700	31
3.84067	31
3.84433	31
3.84800	31
3.85167	31
3.85533	31
3.85900	31
3.86267	31
3.86633	31
3.87000	31
3.87367	31
3.87733	30
3.88100	30
3.88467	30
3.88833	30
3.89200	30
3.89567	30
3.89933	30
3.90300	30
3.90667	30
3.91033	30
3.91400	30
3.91767	30
3.92133	31
3.92500	31
3.92867	31
3.93233	31
3.93600	31
3.93967	31
3.94333	31
3.94700	31
3.95067	31
3.95433	31
3.95800	31
3.96167	31
3.96533	31
3.96900	31
3.97267	31
3.97633	31
3.98000	31
3.98367	30
3.98733	30
3.99100	29
3.99467	29
3.99833	29

[Chromatogram (Ch3)]
Interval(msec)	220
# of Points	1091
Start Time(min)	0.002
End Time(min)	3.998
R.Time (min)	Intensity
0.00167	1
0.00533	3
0.00900	4
0.01267	3
0.01633	4
0.02000	5
0.02367	3
0.02733	1
0.03100	-1
0.03467	-0
0.03833	1
0.04200	3
0.04567	3
0.04933	6
0.05300	8
0.05667	8
0.06033	8
0.06400	8
0.06767	7
0.07133	5
0.07500	5
0.07867	7
0.08233	9
0.08600	10
0.08967	12
0.09333	9
0.09700	5
0.10067	5
0.10433	6
0.10800	6
0.11167	4
0.11533	4
0.11900	1
0.12267	1
0.12633	2
0.13000	4
0.13367	6
0.13733	7
0.14100	8
0.14467	7
0.14833	7
0.15200	8
0.15567	8
0.15933	10
0.16300	12
0.16667	13
0.17033	13
0.17400	12
0.17767	11
0.18133	11
0.18500	11
0.18867	11
0.19233	10
0.19600	12
0.19967	13
0.20333	15
0.20700	15
0.21067	14
0.21433	14
0.21800	14
0.22167	14
0.22533	14
0.22900	14
0.23267	13
0.23633	11
0.24000	10
0.24367	12
0.24733	14
0.25100	14
0.25467	15
0.25833	15
0.26200	14
0.26567	14
0.26933	15
0.27300	16
0.27667	16
0.28033	16
0.28400	16
0.28767	17
0.29133	18
0.29500	19
0.29867	19
0.30233	16
0.30600	14
0.30967	12
0.31333	12
0.31700	13
0.32067	15
0.32433	17
0.32800	16
0.33167	16
0.33533	17
0.33900	16
0.34267	17
0.34633	19
0.35000	20
0.35367	22
0.35733	22
0.36100	22
0.36467	23
0.36833	23
0.37200	25
0.37567	26
0.37933	24
0.38300	21
0.38667	20
0.39033	19
0.39400	18
0.39767	18
0.40133	20
0.40500	21
0.40867	24
0.41233	27
0.41600	27
0.41967	24
0.42333	22
0.42700	23
0.43067	22
0.43433	22
0.43800	21
0.44167	22
0.44533	23
0.44900	24
0.45267	24
0.45633	23
0.46000	22
0.46367	24
0.46733	26
0.47100	29
0.47467	31
0.47833	31
0.48200	32
0.48567	30
0.48933	29
0.49300	28
0.49667	26
0.50033	25
0.50400	27
0.50767	30
0.51133	33
0.51500	34
0.51867	35
0.52233	33
0.52600	31
0.52967	31
0.53333	31
0.53700	30
0.54067	29
0.54433	31
0.54800	33
0.55167	33
0.55533	33
0.55900	32
0.56267	31
0.56633	31
0.57000	32
0.57367	35
0.57733	35
0.58100	35
0.58467	35
0.58833	35
0.59200	35
0.59567	34
0.59933	33
0.60300	33
0.60667	34
0.61033	36
0.61400	36
0.61767	38
0.62133	38
0.62500	40
0.62867	42
0.63233	41
0.63600	38
0.63967	37
0.64333	36
0.64700	36
0.65067	36
0.65433	37
0.65800	38
0.66167	39
0.66533	38
0.66900	38
0.67267	42
0.67633	44
0.68000	47
0.68367	48
0.68733	48
0.69100	46
0.69467	43
0.69833	43
0.70200	43
0.70567	43
0.70933	43
0.71300	41
0.71667	41
0.72033	43
0.72400	45
0.72767	46
0.73133	44
0.73500	43
0.73867	43
0.74233	45
0.74600	44
0.74967	43
0.75333	43
0.75700	44
0.76067	43
0.76433	42
0.76800	40
0.77167	40
0.77533	41
0.77900	43
0.78267	46
0.78633	47
0.79000	47
0.79367	45
0.79733	44
0.80100	44
0.80467	46
0.80833	47
0.81200	47
0.81567	47
0.81933	46
0.82300	45
0.82667	45
0.83033	43
0.83400	42
0.83767	43
0.84133	45
0.84500	48
0.84867	50
0.85233	52
0.85600	54
0.85967	54
0.86333	53
0.86700	53
0.87067	52
0.87433	52
0.87800	51
0.88167	51
0.88533	51
0.88900	53
0.89267	53
0.89633	54
0.90000	57
0.90367	58
0.90733	57
0.91100	58
0.91467	58
0.91833	56
0.92200	56
0.92567	58
0.92933	60
0.93300	61
0.93667	60
0.94033	57
0.94400	55
0.94767	55
0.95133	55
0.95500	56
0.95867	59
0.96233	59
0.96600	58
0.96967	60
0.97333	60
0.97700	59
0.98067	60
0.98433	63
0.98800	64
0.99167	65
0.99533	67
0.99900	68
1.00267	67
1.00633	65
1.01000	65
1.01367	64
1.01733	65
1.02100	65
1.02467	65
1.02833	64
1.03200	64
1.03567	64
1.03933	63
1.04300	62
1.04667	63
1.05033	61
1.05400	59
1.05767	59
1.06133	60
1.06500	62
1.06867	64
1.07233	64
1.07600	64
1.07967	63
1.08333	64
1.08700	66
1.09067	68
1.09433	68
1.09800	66
1.10167	67
1.10533	66
1.10900	68
1.11267	70
1.11633	69
1.12000	67
1.12367	66
1.12733	67
1.13100	67
1.13467	67
1.13833	66
1.14200	66
1.14567	65
1.14933	65
1.15300	66
1.15667	66
1.16033	65
1.16400	64
1.16767	64
1.17133	66
1.17500	65
1.17867	63
1.18233	63
1.18600	61
1.18967	61
1.19333	60
1.19700	59
1.20067	60
1.20433	61
1.20800	62
1.21167	64
1.21533	65
1.21900	65
1.22267	66
1.22633	67
1.23000	68
1.23367	69
1.23733	70
1.24100	71
1.24467	70
1.24833	69
1.25200	69
1.25567	70
1.25933	70
1.26300	70
1.26667	68
1.27033	67
1.27400	67
1.27767	65
1.28133	64
1.28500	64
1.28867	66
1.29233	68
1.29600	68
1.29967	67
1.30333	69
1.30700	71
1.31067	73
1.31433	72
1.31800	71
1.32167	71
1.32533	71
1.32900	70
1.33267	69
1.33633	67
1.34000	65
1.34367	66
1.34733	68
1.35100	70
1.35467	70
1.35833	71
1.36200	71
1.36567	69
1.36933	69
1.37300	72
1.37667	74
1.38033	74
1.38400	74
1.38767	74
1.39133	73
1.39500	72
1.39867	74
1.40233	76
1.40600	75
1.40967	73
1.41333	71
1.41700	69
1.42067	70
1.42433	70
1.42800	69
1.43167	69
1.43533	69
1.43900	72
1.44267	74
1.44633	75
1.45000	75
1.45367	73
1.45733	71
1.46100	69
1.46467	67
1.46833	66
1.47200	66
1.47567	67
1.47933	69
1.48300	73
1.48667	76
1.49033	76
1.49400	76
1.49767	77
1.50133	76
1.50500	78
1.50867	78
1.51233	78
1.51600	77
1.51967	75
1.52333	73
1.52700	70
1.53067	68
1.53433	68
1.53800	67
1.54167	67
1.54533	69
1.54900	71
1.55267	70
1.55633	70
1.56000	69
1.56367	69
1.56733	68
1.57100	69
1.57467	71
1.57833	72
1.58200	73
1.58567	75
1.58933	73
1.59300	73
1.59667	73
1.60033	75
1.60400	77
1.60767	76
1.61133	74
1.61500	73
1.61867	74
1.62233	77
1.62600	78
1.62967	79
1.63333	79
1.63700	80
1.64067	81
1.64433	81
1.64800	79
1.65167	79
1.65533	82
1.65900	85
1.66267	88
1.66633	88
1.67000	90
1.67367	90
1.67733	91
1.68100	91
1.68467	91
1.68833	94
1.69200	97
1.69567	100
1.69933	99
1.70300	98
1.70667	98
1.71033	97
1.71400	98
1.71767	98
1.72133	99
1.72500	102
1.72867	105
1.73233	107
1.73600	108
1.73967	108
1.74333	108
1.74700	108
1.75067	110
1.75433	111
1.75800	111
1.76167	112
1.76533	113
1.76900	115
1.77267	116
1.77633	118
1.78000	118
1.78367	119
1.78733	118
1.79100	118
1.79467	119
1.79833	117
1.80200	117
1.80567	117
1.80933	119
1.81300	121
1.81667	122
1.82033	124
1.82400	126
1.82767	128
1.83133	127
1.83500	125
1.83867	124
1.84233	124
1.84600	126
1.84967	127
1.85333	127
1.85700	126
1.86067	126
1.86433	127
1.86800	128
1.87167	128
1.87533	126
1.87900	125
1.88267	124
1.88633	124
1.89000	125
1.89367	125
1.89733	125
1.90100	125
1.90467	124
1.90833	126
1.91200	128
1.91567	130
1.91933	129
1.92300	130
1.92667	131
1.93033	132
1.93400	133
1.93767	135
1.94133	135
1.94500	135
1.94867	136
1.95233	137
1.95600	138
1.95967	140
1.96333	140
1.96700	141
1.97067	144
1.97433	146
1.97800	150
1.98167	151
1.98533	148
1.98900	145
1.99267	144
1.99633	145
2.00000	147
2.00367	149
2.00733	150
2.01100	151
2.01467	151
2.01833	151
2.02200	153
2.02567	154
2.02933	158
2.03300	162
2.03667	166
2.04033	167
2.04400	167
2.04767	167
2.05133	169
2.05500	170
2.05867	171
2.06233	173
2.06600	174
2.06967	175
2.07333	176
2.07700	176
2.08067	178
2.08433	181
2.08800	183
2.09167	184
2.09533	185
2.09900	187
2.10267	191
2.10633	194
2.11000	196
2.11367	197
2.11733	199
2.12100	200
2.12467	200
2.12833	201
2.13200	202
2.13567	204
2.13933	208
2.14300	211
2.14667	211
2.15033	211
2.15400	212
2.15767	214
2.16133	216
2.16500	217
2.16867	219
2.17233	220
2.17600	219
2.17967	221
2.18333	223
2.18700	225
2.19067	227
2.19433	230
2.19800	231
2.20167	230
2.20533	227
2.20900	227
2.21267	230
2.21633	234
2.22000	233
2.22367	232
2.22733	232
2.23100	231
2.23467	230
2.23833	230
2.24200	232
2.24567	234
2.24933	235
2.25300	237
2.25667	239
2.26033	240
2.26400	241
2.26767	241
2.27133	241
2.27500	240
2.27867	241
2.28233	241
2.28600	241
2.28967	241
2.29333	242
2.29700	245
2.30067	248
2.30433	249
2.30800	249
2.31167	250
2.31533	252
2.31900	254
2.32267	255
2.32633	257
2.33000	255
2.33367	254
2.33733	256
2.34100	257
2.34467	256
2.34833	254
2.35200	255
2.35567	258
2.35933	261
2.36300	261
2.36667	262
2.37033	263
2.37400	263
2.37767	264
2.38133	263
2.38500	261
2.38867	262
2.39233	263
2.39600	264
2.39967	264
2.40333	264
2.40700	266
2.41067	269
2.41433	270
2.41800	272
2.42167	273
2.42533	272
2.42900	271
2.43267	272
2.43633	275
2.44000	276
2.44367	277
2.44733	278
2.45100	277
2.45467	279
2.45833	291
2.46200	317
2.46567	352
2.46933	393
2.47300	437
2.47667	483
2.48033	528
2.48400	569
2.48767	606
2.49133	641
2.49500	673
2.49867	704
2.50233	732
2.50600	756
2.50967	777
2.51333	794
2.51700	811
2.52067	827
2.52433	840
2.52800	850
2.53167	861
2.53533	872
2.53900	882
2.54267	892
2.54633	901
2.55000	909
2.55367	917
2.55733	926
2.56100	933
2.56467	938
2.56833	940
2.57200	942
2.57567	943
2.57933	943
2.58300	946
2.58667	950
2.59033	953
2.59400	954
2.59767	952
2.60133	943
2.60500	928
2.60867	907
2.61233	881
2.61600	851
2.61967	821
2.62333	787
2.62700	752
2.63067	720
2.63433	690
2.63800	662
2.64167	642
2.64533	628
2.64900	617
2.65267	610
2.65633	607
2.66000	609
2.66367	611
2.66733	613
2.67100	616
2.67467	617
2.67833	620
2.68200	623
2.68567	627
2.68933	630
2.69300	632
2.69667	636
2.70033	639
2.70400	641
2.70767	643
2.71133	644
2.71500	647
2.71867	648
2.72233	648
2.72600	651
2.72967	654
2.73333	657
2.73700	659
2.74067	659
2.74433	660
2.74800	662
2.75167	662
2.75533	660
2.75900	659
2.76267	658
2.76633	658
2.77000	660
2.77367	662
2.77733	663
2.78100	664
2.78467	662
2.78833	661
2.79200	659
2.79567	660
2.79933	663
2.80300	664
2.80667	663
2.81033	661
2.81400	659
2.81767	659
2.82133	663
2.82500	674
2.82867	695
2.83233	738
2.83600	822
2.83967	968
2.84333	1198
2.84700	1527
2.85067	1959
2.85433	2486
2.85800	3080
2.86167	3702
2.86533	4301
2.86900	4831
2.87267	5250
2.87633	5532
2.88000	5662
2.88367	5647
2.88733	5507
2.89100	5270
2.89467	4966
2.89833	4620
2.90200	4255
2.90567	3887
2.90933	3535
2.91300	3204
2.91667	2898
2.92033	2618
2.92400	2367
2.92767	2143
2.93133	1942
2.93500	1764
2.93867	1605
2.94233	1469
2.94600	1351
2.94967	1249
2.95333	1161
2.95700	1084
2.96067	1018
2.96433	958
2.96800	905
2.97167	859
2.97533	818
2.97900	785
2.98267	758
2.98633	733
2.99000	712
2.99367	693
2.99733	673
3.00100	657
3.00467	642
3.00833	628
3.01200	616
3.01567	607
3.01933	598
3.02300	589
3.02667	580
3.03033	574
3.03400	570
3.03767	566
3.04133	560
3.04500	554
3.04867	548
3.05233	544
3.05600	541
3.05967	539
3.06333	537
3.06700	537
3.07067	536
3.07433	534
3.07800	530
3.08167	527
3.08533	525
3.08900	522
3.09267	517
3.09633	510
3.10000	505
3.10367	501
3.10733	499
3.11100	497
3.11467	496
3.11833	496
3.12200	497
3.12567	493
3.12933	490
3.13300	488
3.13667	484
3.14033	482
3.14400	480
3.14767	477
3.15133	472
3.15500	466
3.15867	463
3.16233	460
3.16600	458
3.16967	457
3.17333	455
3.17700	454
3.18067	454
3.18433	452
3.18800	448
3.19167	445
3.19533	444
3.19900	442
3.20267	437
3.20633	435
3.21000	433
3.21367	429
3.21733	424
3.22100	423
3.22467	422
3.22833	423
3.23200	421
3.23567	416
3.23933	410
3.24300	406
3.24667	408
3.25033	407
3.25400	405
3.25767	404
3.26133	403
3.26500	400
3.26867	396
3.27233	392
3.27600	388
3.27967	385
3.28333	384
3.28700	382
3.29067	378
3.29433	373
3.29800	368
3.30167	366
3.30533	365
3.30900	364
3.31267	360
3.31633	354
3.32000	350
3.32367	347
3.32733	345
3.33100	341
3.33467	337
3.33833	333
3.34200	329
3.34567	328
3.34933	325
3.35300	325
3.35667	325
3.36033	325
3.36400	324
3.36767	322
3.37133	318
3.37500	313
3.37867	307
3.38233	305
3.38600	304
3.38967	302
3.39333	298
3.39700	295
3.40067	293
3.40433	290
3.40800	289
3.41167	288
3.41533	289
3.41900	288
3.42267	284
3.42633	280
3.43000	277
3.43367	274
3.43733	270
3.44100	268
3.44467	266
3.44833	264
3.45200	261
3.45567	259
3.45933	258
3.46300	253
3.46667	248
3.47033	246
3.47400	246
3.47767	246
3.48133	243
3.48500	241
3.48867	239
3.49233	239
3.49600	239
3.49967	239
3.50333	237
3.50700	234
3.51067	232
3.51433	230
3.51800	228
3.52167	228
3.52533	228
3.52900	227
3.53267	226
3.53633	225
3.54000	223
3.54367	221
3.54733	218
3.55100	216
3.55467	216
3.55833	215
3.56200	215
3.56567	214
3.56933	212
3.57300	212
3.57667	210
3.58033	207
3.58400	206
3.58767	205
3.59133	204
3.59500	204
3.59867	202
3.60233	199
3.60600	199
3.60967	198
3.61333	197
3.61700	198
3.62067	197
3.62433	195
3.62800	193
3.63167	192
3.63533	191
3.63900	192
3.64267	189
3.64633	185
3.65000	182
3.65367	182
3.65733	183
3.66100	182
3.66467	181
3.66833	180
3.67200	179
3.67567	177
3.67933	173
3.68300	173
3.68667	174
3.69033	175
3.69400	175
3.69767	175
3.70133	176
3.70500	178
3.70867	177
3.71233	176
3.71600	174
3.71967	171
3.72333	167
3.72700	167
3.73067	165
3.73433	165
3.73800	165
3.74167	165
3.74533	165
3.74900	165
3.75267	163
3.75633	162
3.76000	161
3.76367	159
3.76733	159
3.77100	159
3.77467	159
3.77833	160
3.78200	160
3.78567	158
3.78933	157
3.79300	156
3.79667	156
3.80033	155
3.80400	155
3.80767	157
3.81133	160
3.81500	160
3.81867	158
3.82233	155
3.82600	154
3.82967	154
3.83333	151
3.83700	149
3.84067	149
3.84433	148
3.84800	146
3.85167	145
3.85533	143
3.85900	143
3.86267	143
3.86633	143
3.87000	143
3.87367	144
3.87733	145
3.88100	144
3.88467	141
3.88833	139
3.89200	137
3.89567	136
3.89933	135
3.90300	134
3.90667	133
3.91033	134
3.91400	132
3.91767	132
3.92133	132
3.92500	132
3.92867	132
3.93233	129
3.93600	128
3.93967	130
3.94333	129
3.94700	127
3.95067	127
3.95433	126
3.95800	125
3.96167	123
3.96533	124
3.96900	126
3.97267	125
3.97633	124
3.98000	124
3.98367	124
3.98733	122
3.99100	121
3.99467	122
3.99833	122

[Status Trace (Column Oven Temperature)]
Interval(msec)	1000
# of Points	240
Start Time(min)	0.005
End Time(min)	3.988
Intensity Units	
Intensity Multiplier	1
R.Time (min)	Intensity
0.00513	35.01
0.02180	35.01
0.03847	35.01
0.05513	35.01
0.07180	35.00
0.08847	35.00
0.10513	35.01
0.12180	35.01
0.13847	35.01
0.15513	35.01
0.17180	35.00
0.18847	34.99
0.20513	34.98
0.22180	34.98
0.23847	34.99
0.25513	35.00
0.27180	35.00
0.28847	35.00
0.30513	35.00
0.32180	34.99
0.33847	34.99
0.35513	35.00
0.37180	35.02
0.38847	35.02
0.40513	35.01
0.42180	35.01
0.43847	35.02
0.45513	35.02
0.47180	35.03
0.48847	35.03
0.50513	35.03
0.52180	35.04
0.53847	35.04
0.55513	35.04
0.57180	35.03
0.58847	35.03
0.60513	35.01
0.62180	35.00
0.63847	35.00
0.65513	34.99
0.67180	34.98
0.68847	34.99
0.70513	34.99
0.72180	34.98
0.73847	34.98
0.75513	34.96
0.77180	34.96
0.78847	34.96
0.80513	34.98
0.82180	34.98
0.83847	34.99
0.85513	35.00
0.87180	34.99
0.88847	34.99
0.90513	35.01
0.92180	35.01
0.93847	35.02
0.95513	35.03
0.97180	35.04
0.98847	35.05
1.00513	35.05
1.02180	35.03
1.03847	35.03
1.05513	35.02
1.07180	35.00
1.08847	34.99
1.10513	34.99
1.12180	34.99
1.13847	35.00
1.15513	35.00
1.17180	35.00
1.18847	35.00
1.20513	35.02
1.22180	35.03
1.23847	35.03
1.25513	35.03
1.27180	35.04
1.28847	35.02
1.30513	35.01
1.32180	35.00
1.33847	35.00
1.35513	34.99
1.37180	34.98
1.38847	34.98
1.40513	34.97
1.42180	34.97
1.43847	34.97
1.45513	34.97
1.47180	34.97
1.48847	34.97
1.50513	34.97
1.52180	34.98
1.53847	34.98
1.55513	34.98
1.57180	34.97
1.58847	34.99
1.60513	35.03
1.62180	35.13
1.63847	35.32
1.65513	35.56
1.67180	35.89
1.68847	36.26
1.70513	36.62
1.72180	36.96
1.73847	37.30
1.75513	37.61
1.77180	37.94
1.78847	38.29
1.80513	38.61
1.82180	38.96
1.83847	39.28
1.85513	39.61
1.87180	39.95
1.88847	40.26
1.90513	40.58
1.92180	40.92
1.93847	41.25
1.95513	41.56
1.97180	41.87
1.98847	42.21
2.00513	42.55
2.02180	42.87
2.03847	43.21
2.05513	43.53
2.07180	43.84
2.08847	44.18
2.10513	44.50
2.12180	44.83
2.13847	45.15
2.15513	45.47
2.17180	45.79
2.18847	46.13
2.20513	46.45
2.22180	46.77
2.23847	47.10
2.25513	47.45
2.27180	47.76
2.28847	48.10
2.30513	48.42
2.32180	48.79
2.33847	49.08
2.35513	49.38
2.37180	49.65
2.38847	49.77
2.40513	49.77
2.42180	49.76
2.43847	49.78
2.45513	49.77
2.47180	49.78
2.48847	49.79
2.50513	49.80
2.52180	49.82
2.53847	49.80
2.55513	49.81
2.57180	49.81
2.58847	49.81
2.60513	49.83
2.62180	49.83
2.63847	49.84
2.65513	49.85
2.67180	49.86
2.68847	49.88
2.70513	49.87
2.72180	49.85
2.73847	49.84
2.75513	49.88
2.77180	49.91
2.78847	49.91
2.80513	49.92
2.82180	49.92
2.83847	49.93
2.85513	49.94
2.87180	49.96
2.88847	49.97
2.90513	49.98
2.92180	49.99
2.93847	49.99
2.95513	50.00
2.97180	49.99
2.98847	49.99
3.00513	49.98
3.02180	49.99
3.03847	49.99
3.05513	50.01
3.07180	50.01
3.08847	50.02
3.10513	50.02
3.12180	50.04
3.13847	50.05
3.15513	50.05
3.17180	50.07
3.18847	50.08
3.20513	50.09
3.22180	50.10
3.23847	50.10
3.25513	50.09
3.27180	50.09
3.28847	50.10
3.30513	50.10
3.32180	50.08
3.33847	50.06
3.35513	50.05
3.37180	50.05
3.38847	50.05
3.40513	50.05
3.42180	50.05
3.43847	50.04
3.45513	50.04
3.47180	50.04
3.48847	50.03
3.50513	50.03
3.52180	50.04
3.53847	50.05
3.55513	50.05
3.57180	50.06
3.58847	50.06
3.60513	50.07
3.62180	50.07
3.63847	50.08
3.65513	50.09
3.67180	50.10
3.68847	50.11
3.70513	50.11
3.72180	50.09
3.73847	50.09
3.75513	50.07
3.77180	50.07
3.78847	50.06
3.80513	50.05
3.82180	50.04
3.83847	50.02
3.85513	50.01
3.87180	50.00
3.88847	50.00
3.90513	49.99
3.92180	49.98
3.93847	49.98
3.95513	49.97
3.97180	49.97
3.98847	49.98

[Status Trace (Injection Unit Temperature)]
Interval(msec)	1000
# of Points	240
Start Time(min)	0.005
End Time(min)	3.988
Intensity Units	
Intensity Multiplier	1
R.Time (min)	Intensity
0.00513	99.99
0.02180	99.99
0.03847	99.99
0.05513	99.99
0.07180	99.99
0.08847	99.99
0.10513	99.99
0.12180	99.99
0.13847	99.99
0.15513	99.99
0.17180	99.99
0.18847	99.99
0.20513	99.99
0.22180	99.99
0.23847	99.99
0.25513	99.99
0.27180	99.99
0.28847	99.99
0.30513	99.98
0.32180	99.99
0.33847	99.99
0.35513	99.98
0.37180	99.99
0.38847	99.99
0.40513	99.99
0.42180	99.99
0.43847	99.99
0.45513	99.99
0.47180	99.99
0.48847	99.99
0.50513	99.99
0.52180	99.99
0.53847	99.98
0.55513	99.99
0.57180	99.99
0.58847	99.98
0.60513	99.99
0.62180	99.99
0.63847	99.99
0.65513	99.99
0.67180	99.99
0.68847	99.98
0.70513	99.98
0.72180	99.98
0.73847	99.98
0.75513	99.98
0.77180	99.99
0.78847	99.99
0.80513	99.99
0.82180	99.98
0.83847	99.98
0.85513	99.99
0.87180	99.98
0.88847	99.99
0.90513	99.98
0.92180	99.99
0.93847	99.98
0.95513	99.98
0.97180	99.99
0.98847	99.98
1.00513	99.99
1.02180	99.99
1.03847	99.99
1.05513	99.99
1.07180	99.99
1.08847	99.98
1.10513	99.99
1.12180	99.98
1.13847	99.99
1.15513	99.99
1.17180	99.99
1.18847	99.99
1.20513	99.99
1.22180	99.99
1.23847	99.99
1.25513	99.99
1.27180	99.99
1.28847	99.99
1.30513	99.99
1.32180	99.99
1.33847	99.99
1.35513	99.99
1.37180	99.99
1.38847	99.99
1.40513	99.99
1.42180	99.99
1.43847	99.99
1.45513	99.99
1.47180	99.99
1.48847	99.99
1.50513	99.99
1.52180	99.99
1.53847	99.99
1.55513	99.99
1.57180	99.99
1.58847	99.99
1.60513	99.99
1.62180	99.99
1.63847	99.99
1.65513	99.99
1.67180	99.99
1.68847	99.99
1.70513	99.99
1.72180	99.99
1.73847	99.99
1.75513	99.98
1.77180	99.99
1.78847	99.99
1.80513	99.98
1.82180	99.98
1.83847	99.98
1.85513	99.98
1.87180	99.98
1.88847	99.98
1.90513	99.98
1.92180	99.98
1.93847	99.98
1.95513	99.98
1.97180	99.98
1.98847	99.98
2.00513	99.97
2.02180	99.97
2.03847	99.97
2.05513	99.97
2.07180	99.97
2.08847	99.97
2.10513	99.97
2.12180	99.97
2.13847	99.97
2.15513	99.97
2.17180	99.97
2.18847	99.97
2.20513	99.97
2.22180	99.97
2.23847	99.97
2.25513	99.97
2.27180	99.97
2.28847	99.97
2.30513	99.97
2.32180	99.97
2.33847	99.97
2.35513	99.98
2.37180	99.97
2.38847	99.97
2.40513	99.97
2.42180	99.97
2.43847	99.97
2.45513	99.97
2.47180	99.97
2.48847	99.97
2.50513	99.97
2.52180	99.98
2.53847	99.97
2.55513	99.97
2.57180	99.98
2.58847	99.98
2.60513	99.98
2.62180	99.99
2.63847	99.98
2.65513	99.98
2.67180	99.99
2.68847	99.99
2.70513	99.99
2.72180	99.99
2.73847	99.99
2.75513	99.99
2.77180	100.00
2.78847	100.00
2.80513	100.00
2.82180	100.00
2.83847	100.00
2.85513	100.00
2.87180	100.01
2.88847	100.01
2.90513	100.01
2.92180	100.00
2.93847	100.00
2.95513	100.01
2.97180	100.01
2.98847	100.01
3.00513	100.01
3.02180	100.01
3.03847	100.01
3.05513	100.02
3.07180	100.02
3.08847	100.02
3.10513	100.02
3.12180	100.02
3.13847	100.02
3.15513	100.02
3.17180	100.03
3.18847	100.02
3.20513	100.03
3.22180	100.02
3.23847	100.02
3.25513	100.03
3.27180	100.03
3.28847	100.03
3.30513	100.03
3.32180	100.02
3.33847	100.03
3.35513	100.03
3.37180	100.03
3.38847	100.03
3.40513	100.03
3.42180	100.03
3.43847	100.03
3.45513	100.03
3.47180	100.04
3.48847	100.03
3.50513	100.03
3.52180	100.03
3.53847	100.04
3.55513	100.03
3.57180	100.04
3.58847	100.04
3.60513	100.04
3.62180	100.04
3.63847	100.04
3.65513	100.04
3.67180	100.04
3.68847	100.04
3.70513	100.05
3.72180	100.04
3.73847	100.04
3.75513	100.05
3.77180	100.05
3.78847	100.05
3.80513	100.05
3.82180	100.05
3.83847	100.05
3.85513	100.05
3.87180	100.05
3.88847	100.05
3.90513	100.05
3.92180	100.05
3.93847	100.05
3.95513	100.05
3.97180	100.05
3.98847	100.05

[Status Trace (Carrier Gas Pressure)]
Interval(msec)	1000
# of Points	240
Start Time(min)	0.005
End Time(min)	3.988
Intensity Units	
Intensity Multiplier	1
R.Time (min)	Intensity
0.00513	58.00
0.02180	55.81
0.03847	56.70
0.05513	58.77
0.07180	59.80
0.08847	58.19
0.10513	57.97
0.12180	58.01
0.13847	58.01
0.15513	58.01
0.17180	58.00
0.18847	58.00
0.20513	58.00
0.22180	58.00
0.23847	58.00
0.25513	58.00
0.27180	58.00
0.28847	58.00
0.30513	58.00
0.32180	58.00
0.33847	58.00
0.35513	58.00
0.37180	58.00
0.38847	58.00
0.40513	58.00
0.42180	58.00
0.43847	58.00
0.45513	58.00
0.47180	58.00
0.48847	58.00
0.50513	58.00
0.52180	58.00
0.53847	58.00
0.55513	58.00
0.57180	58.00
0.58847	58.00
0.60513	58.00
0.62180	58.00
0.63847	58.00
0.65513	58.00
0.67180	58.00
0.68847	58.00
0.70513	58.00
0.72180	58.00
0.73847	58.00
0.75513	58.00
0.77180	58.00
0.78847	58.00
0.80513	58.00
0.82180	58.00
0.83847	58.00
0.85513	58.00
0.87180	58.00
0.88847	58.00
0.90513	58.00
0.92180	58.00
0.93847	58.00
0.95513	58.00
0.97180	58.00
0.98847	58.00
1.00513	58.00
1.02180	58.00
1.03847	58.00
1.05513	58.00
1.07180	58.00
1.08847	58.00
1.10513	58.00
1.12180	58.00
1.13847	58.00
1.15513	58.00
1.17180	58.00
1.18847	58.00
1.20513	58.00
1.22180	58.00
1.23847	58.00
1.25513	58.00
1.27180	58.00
1.28847	58.00
1.30513	58.00
1.32180	58.00
1.33847	58.00
1.35513	58.00
1.37180	58.00
1.38847	58.00
1.40513	58.00
1.42180	58.00
1.43847	58.00
1.45513	58.00
1.47180	58.00
1.48847	58.00
1.50513	58.00
1.52180	58.00
1.53847	58.00
1.55513	58.00
1.57180	58.00
1.58847	58.00
1.60513	58.00
1.62180	58.00
1.63847	58.01
1.65513	58.00
1.67180	58.01
1.68847	58.00
1.70513	58.00
1.72180	58.00
1.73847	58.00
1.75513	58.00
1.77180	58.00
1.78847	58.00
1.80513	58.00
1.82180	58.00
1.83847	58.00
1.85513	58.00
1.87180	58.00
1.88847	58.00
1.90513	58.00
1.92180	58.00
1.93847	58.00
1.95513	58.00
1.97180	58.00
1.98847	58.00
2.00513	58.00
2.02180	58.00
2.03847	58.00
2.05513	58.00
2.07180	58.00
2.08847	58.00
2.10513	58.00
2.12180	58.00
2.13847	58.00
2.15513	58.00
2.17180	58.00
2.18847	58.00
2.20513	58.00
2.22180	58.00
2.23847	58.00
2.25513	58.00
2.27180	58.00
2.28847	58.00
2.30513	58.00
2.32180	58.00
2.33847	58.00
2.35513	58.00
2.37180	58.00
2.38847	57.99
2.40513	57.99
2.42180	58.00
2.43847	58.00
2.45513	58.00
2.47180	58.00
2.48847	58.00
2.50513	57.99
2.52180	57.99
2.53847	57.99
2.55513	58.00
2.57180	58.00
2.58847	58.00
2.60513	58.00
2.62180	58.00
2.63847	58.00
2.65513	58.00
2.67180	58.00
2.68847	58.00
2.70513	58.00
2.72180	58.00
2.73847	58.00
2.75513	58.00
2.77180	58.00
2.78847	58.00
2.80513	58.00
2.82180	58.00
2.83847	58.00
2.85513	58.00
2.87180	58.00
2.88847	58.00
2.90513	58.00
2.92180	58.00
2.93847	58.00
2.95513	58.00
2.97180	58.00
2.98847	58.00
3.00513	58.00
3.02180	58.00
3.03847	58.00
3.05513	58.00
3.07180	58.00
3.08847	58.00
3.10513	58.00
3.12180	58.00
3.13847	58.00
3.15513	58.00
3.17180	58.00
3.18847	58.00
3.20513	58.00
3.22180	58.00
3.23847	58.00
3.25513	58.00
3.27180	58.00
3.28847	58.00
3.30513	58.00
3.32180	58.00
3.33847	58.00
3.35513	58.00
3.37180	58.00
3.38847	58.00
3.40513	58.00
3.42180	58.00
3.43847	58.00
3.45513	58.00
3.47180	58.00
3.48847	58.00
3.50513	58.00
3.52180	58.00
3.53847	58.00
3.55513	58.00
3.57180	58.00
3.58847	58.00
3.60513	58.00
3.62180	58.00
3.63847	58.00
3.65513	58.00
3.67180	58.00
3.68847	58.00
3.70513	58.00
3.72180	58.00
3.73847	58.00
3.75513	58.00
3.77180	58.00
3.78847	58.00
3.80513	58.00
3.82180	58.00
3.83847	58.00
3.85513	58.00
3.87180	58.00
3.88847	58.00
3.90513	58.00
3.92180	58.00
3.93847	58.00
3.95513	58.00
3.97180	58.00
3.98847	58.00

[Status Trace (Carrier Gas Flow)]
Interval(msec)	1000
# of Points	240
Start Time(min)	0.005
End Time(min)	3.988
Intensity Units	
Intensity Multiplier	1
R.Time (min)	Intensity
0.00513	34.52
0.02180	34.55
0.03847	34.55
0.05513	34.55
0.07180	34.49
0.08847	34.51
0.10513	34.52
0.12180	34.52
0.13847	34.52
0.15513	34.53
0.17180	34.53
0.18847	34.52
0.20513	34.52
0.22180	34.52
0.23847	34.53
0.25513	34.52
0.27180	34.51
0.28847	34.52
0.30513	34.52
0.32180	34.51
0.33847	34.52
0.35513	34.53
0.37180	34.51
0.38847	34.52
0.40513	34.52
0.42180	34.52
0.43847	34.52
0.45513	34.51
0.47180	34.52
0.48847	34.54
0.50513	34.52
0.52180	34.52
0.53847	34.51
0.55513	34.52
0.57180	34.52
0.58847	34.52
0.60513	34.52
0.62180	34.51
0.63847	34.52
0.65513	34.52
0.67180	34.52
0.68847	34.52
0.70513	34.52
0.72180	34.51
0.73847	34.52
0.75513	34.52
0.77180	34.52
0.78847	34.52
0.80513	34.52
0.82180	34.52
0.83847	34.52
0.85513	34.52
0.87180	34.52
0.88847	34.53
0.90513	34.52
0.92180	34.52
0.93847	34.52
0.95513	34.52
0.97180	34.52
0.98847	34.52
1.00513	34.52
1.02180	34.52
1.03847	34.52
1.05513	34.52
1.07180	34.52
1.08847	34.52
1.10513	34.52
1.12180	34.52
1.13847	34.52
1.15513	34.52
1.17180	34.52
1.18847	34.52
1.20513	34.52
1.22180	34.52
1.23847	34.52
1.25513	34.52
1.27180	34.52
1.28847	34.52
1.30513	34.52
1.32180	34.52
1.33847	34.52
1.35513	34.52
1.37180	34.52
1.38847	34.52
1.40513	34.52
1.42180	34.52
1.43847	34.52
1.45513	34.52
1.47180	34.52
1.48847	34.52
1.50513	34.52
1.52180	34.52
1.53847	34.52
1.55513	34.52
1.57180	34.52
1.58847	34.52
1.60513	34.52
1.62180	34.52
1.63847	34.52
1.65513	34.52
1.67180	34.52
1.68847	34.52
1.70513	34.52
1.72180	34.52
1.73847	34.52
1.75513	34.52
1.77180	34.52
1.78847	34.52
1.80513	34.52
1.82180	34.52
1.83847	34.52
1.85513	34.52
1.87180	34.52
1.88847	34.52
1.90513	34.52
1.92180	34.52
1.93847	34.52
1.95513	34.52
1.97180	34.52
1.98847	34.52
2.00513	34.52
2.02180	34.52
2.03847	34.52
2.05513	34.52
2.07180	34.52
2.08847	34.52
2.10513	34.52
2.12180	34.52
2.13847	34.52
2.15513	34.52
2.17180	34.52
2.18847	34.52
2.20513	34.52
2.22180	34.52
2.23847	34.52
2.25513	34.52
2.27180	34.52
2.28847	34.52
2.30513	34.52
2.32180	34.52
2.33847	34.52
2.35513	34.52
2.37180	34.52
2.38847	34.51
2.40513	34.52
2.42180	34.52
2.43847	34.52
2.45513	34.52
2.47180	34.52
2.48847	34.52
2.50513	34.56
2.52180	34.52
2.53847	34.52
2.55513	34.52
2.57180	34.52
2.58847	34.52
2.60513	34.52
2.62180	34.52
2.63847	34.52
2.65513	34.52
2.67180	34.52
2.68847	34.52
2.70513	34.52
2.72180	34.52
2.73847	34.52
2.75513	34.52
2.77180	34.52
2.78847	34.52
2.80513	34.52
2.82180	34.52
2.83847	34.52
2.85513	34.52
2.87180	34.52
2.88847	34.52
2.90513	34.52
2.92180	34.52
2.93847	34.52
2.95513	34.52
2.97180	34.52
2.98847	34.52
3.00513	34.52
3.02180	34.52
3.03847	34.52
3.05513	34.52
3.07180	34.52
3.08847	34.52
3.10513	34.52
3.12180	34.52
3.13847	34.52
3.15513	34.52
3.17180	34.52
3.18847	34.52
3.20513	34.52
3.22180	34.52
3.23847	34.52
3.25513	34.52
3.27180	34.52
3.28847	34.52
3.30513	34.52
3.32180	34.52
3.33847	34.52
3.35513	34.52
3.37180	34.52
3.38847	34.52
3.40513	34.52
3.42180	34.52
3.43847	34.52
3.45513	34.52
3.47180	34.52
3.48847	34.52
3.50513	34.52
3.52180	34.52
3.53847	34.52
3.55513	34.53
3.57180	34.52
3.58847	34.52
3.60513	34.52
3.62180	34.51
3.63847	34.52
3.65513	34.52
3.67180	34.52
3.68847	34.52
3.70513	34.52
3.72180	34.51
3.73847	34.52
3.75513	34.51
3.77180	34.52
3.78847	34.52
3.80513	34.51
3.82180	34.52
3.83847	34.51
3.85513	34.52
3.87180	34.52
3.88847	34.52
3.90513	34.52
3.92180	34.51
3.93847	34.52
3.95513	34.52
3.97180	34.52
3.98847	34.52

[Status Trace (Column Flow)]
Interval(msec)	1000
# of Points	240
Start Time(min)	0.005
End Time(min)	3.988
Intensity Units	
Intensity Multiplier	1
R.Time (min)	Intensity
0.00513	5.57
0.02180	5.32
0.03847	5.42
0.05513	5.66
0.07180	5.79
0.08847	5.60
0.10513	5.57
0.12180	5.57
0.13847	5.57
0.15513	5.57
0.17180	5.57
0.18847	5.57
0.20513	5.57
0.22180	5.57
0.23847	5.57
0.25513	5.57
0.27180	5.57
0.28847	5.57
0.30513	5.57
0.32180	5.57
0.33847	5.57
0.35513	5.57
0.37180	5.57
0.38847	5.57
0.40513	5.57
0.42180	5.57
0.43847	5.57
0.45513	5.57
0.47180	5.57
0.48847	5.57
0.50513	5.57
0.52180	5.57
0.53847	5.57
0.55513	5.57
0.57180	5.57
0.58847	5.57
0.60513	5.57
0.62180	5.57
0.63847	5.57
0.65513	5.57
0.67180	5.57
0.68847	5.57
0.70513	5.57
0.72180	5.57
0.73847	5.57
0.75513	5.57
0.77180	5.58
0.78847	5.57
0.80513	5.57
0.82180	5.57
0.83847	5.57
0.85513	5.57
0.87180	5.57
0.88847	5.57
0.90513	5.57
0.92180	5.57
0.93847	5.57
0.95513	5.57
0.97180	5.57
0.98847	5.57
1.00513	5.57
1.02180	5.57
1.03847	5.57
1.05513	5.57
1.07180	5.57
1.08847	5.57
1.10513	5.57
1.12180	5.57
1.13847	5.57
1.15513	5.57
1.17180	5.57
1.18847	5.57
1.20513	5.57
1.22180	5.57
1.23847	5.57
1.25513	5.57
1.27180	5.57
1.28847	5.57
1.30513	5.57
1.32180	5.57
1.33847	5.57
1.35513	5.57
1.37180	5.57
1.38847	5.57
1.40513	5.57
1.42180	5.57
1.43847	5.57
1.45513	5.57
1.47180	5.57
1.48847	5.57
1.50513	5.57
1.52180	5.57
1.53847	5.57
1.55513	5.57
1.57180	5.57
1.58847	5.57
1.60513	5.57
1.62180	5.57
1.63847	5.56
1.65513	5.56
1.67180	5.55
1.68847	5.53
1.70513	5.52
1.72180	5.51
1.73847	5.50
1.75513	5.49
1.77180	5.48
1.78847	5.47
1.80513	5.46
1.82180	5.45
1.83847	5.44
1.85513	5.43
1.87180	5.42
1.88847	5.41
1.90513	5.40
1.92180	5.39
1.93847	5.38
1.95513	5.37
1.97180	5.36
1.98847	5.35
2.00513	5.34
2.02180	5.33
2.03847	5.32
2.05513	5.31
2.07180	5.30
2.08847	5.29
2.10513	5.28
2.12180	5.27
2.13847	5.26
2.15513	5.26
2.17180	5.25
2.18847	5.24
2.20513	5.23
2.22180	5.22
2.23847	5.21
2.25513	5.20
2.27180	5.19
2.28847	5.18
2.30513	5.17
2.32180	5.16
2.33847	5.15
2.35513	5.14
2.37180	5.14
2.38847	5.13
2.40513	5.13
2.42180	5.13
2.43847	5.13
2.45513	5.13
2.47180	5.13
2.48847	5.13
2.50513	5.13
2.52180	5.13
2.53847	5.13
2.55513	5.13
2.57180	5.13
2.58847	5.13
2.60513	5.13
2.62180	5.13
2.63847	5.13
2.65513	5.13
2.67180	5.13
2.68847	5.13
2.70513	5.13
2.72180	5.13
2.73847	5.13
2.75513	5.13
2.77180	5.13
2.78847	5.13
2.80513	5.13
2.82180	5.13
2.83847	5.13
2.85513	5.13
2.87180	5.13
2.88847	5.13
2.90513	5.13
2.92180	5.13
2.93847	5.13
2.95513	5.13
2.97180	5.13
2.98847	5.13
3.00513	5.13
3.02180	5.13
3.03847	5.13
3.05513	5.13
3.07180	5.13
3.08847	5.13
3.10513	5.13
3.12180	5.13
3.13847	5.12
3.15513	5.12
3.17180	5.12
3.18847	5.12
3.20513	5.12
3.22180	5.12
3.23847	5.12
3.25513	5.12
3.27180	5.12
3.28847	5.12
3.30513	5.12
3.32180	5.12
3.33847	5.12
3.35513	5.12
3.37180	5.13
3.38847	5.13
3.40513	5.13
3.42180	5.13
3.43847	5.13
3.45513	5.13
3.47180	5.13
3.48847	5.13
3.50513	5.13
3.52180	5.13
3.53847	5.13
3.55513	5.12
3.57180	5.12
3.58847	5.12
3.60513	5.12
3.62180	5.12
3.63847	5.12
3.65513	5.12
3.67180	5.12
3.68847	5.12
3.70513	5.12
3.72180	5.12
3.73847	5.12
3.75513	5.12
3.77180	5.12
3.78847	5.12
3.80513	5.13
3.82180	5.13
3.83847	5.13
3.85513	5.13
3.87180	5.13
3.88847	5.13
3.90513	5.13
3.92180	5.13
3.93847	5.13
3.95513	5.13
3.97180	5.13
3.98847	5.13

[Status Trace (Linear Velocity)]
Interval(msec)	1000
# of Points	240
Start Time(min)	0.005
End Time(min)	3.988
Intensity Units	
Intensity Multiplier	1
R.Time (min)	Intensity
0.00513	39.03
0.02180	37.59
0.03847	38.18
0.05513	39.53
0.07180	40.21
0.08847	39.15
0.10513	39.01
0.12180	39.03
0.13847	39.04
0.15513	39.03
0.17180	39.03
0.18847	39.03
0.20513	39.03
0.22180	39.03
0.23847	39.03
0.25513	39.03
0.27180	39.03
0.28847	39.03
0.30513	39.03
0.32180	39.03
0.33847	39.03
0.35513	39.03
0.37180	39.03
0.38847	39.03
0.40513	39.03
0.42180	39.03
0.43847	39.03
0.45513	39.03
0.47180	39.03
0.48847	39.03
0.50513	39.03
0.52180	39.02
0.53847	39.02
0.55513	39.02
0.57180	39.03
0.58847	39.03
0.60513	39.03
0.62180	39.03
0.63847	39.03
0.65513	39.03
0.67180	39.03
0.68847	39.03
0.70513	39.03
0.72180	39.03
0.73847	39.03
0.75513	39.03
0.77180	39.03
0.78847	39.03
0.80513	39.03
0.82180	39.03
0.83847	39.03
0.85513	39.03
0.87180	39.03
0.88847	39.03
0.90513	39.03
0.92180	39.03
0.93847	39.03
0.95513	39.03
0.97180	39.02
0.98847	39.02
1.00513	39.02
1.02180	39.02
1.03847	39.03
1.05513	39.03
1.07180	39.03
1.08847	39.03
1.10513	39.03
1.12180	39.03
1.13847	39.03
1.15513	39.03
1.17180	39.03
1.18847	39.03
1.20513	39.03
1.22180	39.03
1.23847	39.03
1.25513	39.03
1.27180	39.02
1.28847	39.03
1.30513	39.03
1.32180	39.03
1.33847	39.03
1.35513	39.03
1.37180	39.03
1.38847	39.03
1.40513	39.03
1.42180	39.03
1.43847	39.03
1.45513	39.03
1.47180	39.03
1.48847	39.03
1.50513	39.03
1.52180	39.03
1.53847	39.03
1.55513	39.03
1.57180	39.03
1.58847	39.03
1.60513	39.03
1.62180	39.02
1.63847	39.00
1.65513	38.98
1.67180	38.95
1.68847	38.91
1.70513	38.88
1.72180	38.84
1.73847	38.81
1.75513	38.78
1.77180	38.75
1.78847	38.72
1.80513	38.69
1.82180	38.65
1.83847	38.62
1.85513	38.59
1.87180	38.56
1.88847	38.53
1.90513	38.50
1.92180	38.47
1.93847	38.44
1.95513	38.41
1.97180	38.38
1.98847	38.35
2.00513	38.32
2.02180	38.29
2.03847	38.26
2.05513	38.23
2.07180	38.20
2.08847	38.17
2.10513	38.14
2.12180	38.11
2.13847	38.08
2.15513	38.05
2.17180	38.02
2.18847	37.99
2.20513	37.96
2.22180	37.93
2.23847	37.90
2.25513	37.87
2.27180	37.84
2.28847	37.81
2.30513	37.79
2.32180	37.75
2.33847	37.72
2.35513	37.70
2.37180	37.67
2.38847	37.66
2.40513	37.66
2.42180	37.66
2.43847	37.66
2.45513	37.66
2.47180	37.66
2.48847	37.66
2.50513	37.65
2.52180	37.65
2.53847	37.66
2.55513	37.66
2.57180	37.66
2.58847	37.66
2.60513	37.66
2.62180	37.66
2.63847	37.66
2.65513	37.66
2.67180	37.66
2.68847	37.66
2.70513	37.66
2.72180	37.66
2.73847	37.66
2.75513	37.66
2.77180	37.65
2.78847	37.65
2.80513	37.65
2.82180	37.65
2.83847	37.65
2.85513	37.65
2.87180	37.65
2.88847	37.65
2.90513	37.65
2.92180	37.65
2.93847	37.65
2.95513	37.64
2.97180	37.64
2.98847	37.65
3.00513	37.65
3.02180	37.65
3.03847	37.65
3.05513	37.64
3.07180	37.64
3.08847	37.64
3.10513	37.64
3.12180	37.64
3.13847	37.64
3.15513	37.64
3.17180	37.64
3.18847	37.64
3.20513	37.64
3.22180	37.63
3.23847	37.64
3.25513	37.64
3.27180	37.64
3.28847	37.64
3.30513	37.64
3.32180	37.64
3.33847	37.64
3.35513	37.64
3.37180	37.64
3.38847	37.64
3.40513	37.64
3.42180	37.64
3.43847	37.64
3.45513	37.64
3.47180	37.64
3.48847	37.64
3.50513	37.64
3.52180	37.64
3.53847	37.64
3.55513	37.64
3.57180	37.64
3.58847	37.64
3.60513	37.64
3.62180	37.64
3.63847	37.64
3.65513	37.64
3.67180	37.64
3.68847	37.63
3.70513	37.63
3.72180	37.63
3.73847	37.64
3.75513	37.64
3.77180	37.64
3.78847	37.64
3.80513	37.64
3.82180	37.64
3.83847	37.64
3.85513	37.64
3.87180	37.64
3.88847	37.64
3.90513	37.64
3.92180	37.65
3.93847	37.65
3.95513	37.65
3.97180	37.65
3.98847	37.65

