[Header]
Application Name	LabSolutions
Version	5.110
Data File Name	C:\Users\User\Desktop\GC Analyses\Jack\UIC Prairie Sampling\7.9.22\220909_061.gcd
Output Date	9/28/2022
Output Time	11:29:53 AM

[File Information]
Type	Data File
Generated	9/14/2022 12:46:18 PM
Generated by	System Administrator
Modified	9/14/2022 12:50:55 PM
Modified by	System Administrator

[Sample Information]
Operator Name	System Administrator
Acquired	9/14/2022 12:46:54 PM
Sample Type	1:Standard
Level	1
Sample Name	220909_Run
Sample ID	220909_Run
ISTD Amount1	1
ISTD Amount2	1
ISTD Amount3	1
ISTD Amount4	1
ISTD Amount5	1
ISTD Amount6	1
ISTD Amount7	1
ISTD Amount8	1
ISTD Amount9	1
ISTD Amount10	1
ISTD Amount11	1
ISTD Amount12	1
ISTD Amount13	1
ISTD Amount14	1
ISTD Amount15	1
ISTD Amount16	1
ISTD Amount17	1
ISTD Amount18	1
ISTD Amount19	1
ISTD Amount20	1
ISTD Amount21	1
ISTD Amount22	1
ISTD Amount23	1
ISTD Amount24	1
ISTD Amount25	1
ISTD Amount26	1
ISTD Amount27	1
ISTD Amount28	1
ISTD Amount29	1
ISTD Amount30	1
ISTD Amount31	1
ISTD Amount32	1
Sample Amount	1
Dilution Factor	1
Vial#	1
Injection Volume	1
Injection Count	1
Bar Code	

[Original Files]
Data File	C:\Users\User\Desktop\GC Analyses\Jack\220909\220909_061.gcd
Method File	C:\LabSolutions\Data\GHG_4min_2022\ghg3_togas_w_acet_4 min_new_int.gcm
Batch File	
Report Format File	c:\LabSolutions\System\DEFAULT.lsr

[File Description]


[Configuration]
Instrument Name	C0B7VH3-Instrument1
Instrument #	1
Line #	1
# of Detectors	3
Detector ID	DET#1	DET#2	DET#3
Detector Name	FID	PTCD	ECD
# of Channels	1	1	1

[Peak Table(Ch1)]
# of Peaks	3
Peak#	R.Time	I.Time	F.Time	Area	Height	A/H	Conc.	Mark	ID#	Name	k'	Plate #	Plate Ht.	Tailing	Resolution	Sep.Factor	Area Ratio	Height Ratio	Conc. %	Norm Conc.
1	1.476	1.435	1.538	19590	8867	2.209	100.000	   	1	CO	0.000	8484	17.680	1.201	0.000	0.000	0	0	16.667	16.667
2	1.571	1.538	1.626	4579	2352	1.947	100.000	 V 	2	CH4	0.065	11840	12.668	1.125	1.565	0.000	0	0	16.667	16.667
3	1.996	1.952	2.249	1444722	708245	2.040	400.000	   	3	CO2	0.353	17841	8.407	1.281	7.238	5.462	0	0	66.667	66.667

[Peak Table(Ch2)]
# of Peaks	0

[Peak Table(Ch3)]
# of Peaks	2
Peak#	R.Time	I.Time	F.Time	Area	Height	A/H	Conc.	Mark	ID#	Name	k'	Plate #	Plate Ht.	Tailing	Resolution	Sep.Factor	Area Ratio	Height Ratio	Conc. %	Norm Conc.
1	2.594	2.466	2.653	2379	340	6.988	0.000	   			0.000	3412	43.962	0.000	0.000	0.000	0	0	0.000	0.000
2	2.880	2.653	3.239	23543	5162	4.561	1.000	 V 	1	N2O	0.110	12345	12.151	1.618	2.033	0.000	0	0	100.000	100.000

[Compound Results(Ch1)]
# of IDs	6
ID#	Name	R.Time	Area	Height	Conc.	Curve	3rd	2nd	1st	Constant	Area Ratio	Height Ratio	Conc. %	Norm Conc.
1	CO	1.476	19590	8867	100.000	Linear	0.000000e+00	0.000000e+00	1.959014e+002	0.000000e+00	0	0	16.667	16.667
2	CH4	1.571	4579	2352	100.000	Linear	0.000000e+00	0.000000e+00	4.578576e+001	0.000000e+00	0	0	16.667	16.667
3	CO2	1.996	1444722	708245	400.000	Linear	0.000000e+00	0.000000e+00	3.611806e+003	0.000000e+00	0	0	66.667	66.667
4	Ethylene	0.000	0	0	0.000	Linear	0.000000e+00	0.000000e+00	0.000000e+00	0.000000e+00	0	0	0.000	0.000
5	Acetylene	0.000	0	0	0.000	Linear	0.000000e+00	0.000000e+00	0.000000e+00	0.000000e+00	0	0	0.000	0.000
6	Ethane	0.000	0	0	0.000	Linear	0.000000e+00	0.000000e+00	0.000000e+00	0.000000e+00	0	0	0.000	0.000

[Compound Results(Ch2)]
# of IDs	5
ID#	Name	R.Time	Area	Height	Conc.	Curve	3rd	2nd	1st	Constant	Area Ratio	Height Ratio	Conc. %	Norm Conc.
1	Hydrogen	0.000	0	0	0.000	Linear	0.000000e+00	0.000000e+00	0.000000e+00	0.000000e+00	0	0	0.000	0.000
2	Oxygen	0.000	0	0	0.000	Linear	0.000000e+00	0.000000e+00	0.000000e+00	0.000000e+00	0	0	0.000	0.000
3	Nitrogen	0.000	0	0	0.000	Linear	0.000000e+00	0.000000e+00	0.000000e+00	0.000000e+00	0	0	0.000	0.000
4	Methane	0.000	0	0	0.000	Linear	0.000000e+00	0.000000e+00	0.000000e+00	0.000000e+00	0	0	0.000	0.000
5	Carbon Monoxide	0.000	0	0	0.000	Linear	0.000000e+00	0.000000e+00	0.000000e+00	0.000000e+00	0	0	0.000	0.000

[Compound Results(Ch3)]
# of IDs	2
ID#	Name	R.Time	Area	Height	Conc.	Curve	3rd	2nd	1st	Constant	Area Ratio	Height Ratio	Conc. %	Norm Conc.
1	N2O	2.880	23543	5162	1.000	Linear	0.000000e+00	0.000000e+00	2.354265e+004	0.000000e+00	0	0	100.000	100.000
2	SF6	0.000	0	0	0.000	Linear	0.000000e+00	0.000000e+00	0.000000e+00	0.000000e+00	0	0	0.000	0.000

[Group Results(Ch1)]
# of Groups	0

[Group Results(Ch2)]
# of Groups	0

[Group Results(Ch3)]
# of Groups	0

[Chromatogram (Ch1)]
Interval(msec)	220
# of Points	1091
Start Time(min)	0.002
End Time(min)	3.998
R.Time (min)	Intensity
0.00167	9
0.00533	10
0.00900	9
0.01267	7
0.01633	5
0.02000	5
0.02367	3
0.02733	4
0.03100	7
0.03467	7
0.03833	4
0.04200	3
0.04567	4
0.04933	8
0.05300	13
0.05667	17
0.06033	15
0.06400	4
0.06767	-6
0.07133	-9
0.07500	-8
0.07867	-3
0.08233	2
0.08600	3
0.08967	1
0.09333	-3
0.09700	-7
0.10067	-10
0.10433	-13
0.10800	-15
0.11167	-15
0.11533	-16
0.11900	-18
0.12267	-21
0.12633	-25
0.13000	-27
0.13367	-26
0.13733	-22
0.14100	-19
0.14467	-19
0.14833	-24
0.15200	-30
0.15567	-31
0.15933	-31
0.16300	-28
0.16667	-25
0.17033	-23
0.17400	-17
0.17767	-7
0.18133	2
0.18500	4
0.18867	2
0.19233	-4
0.19600	-9
0.19967	-13
0.20333	-15
0.20700	-19
0.21067	-25
0.21433	-31
0.21800	-33
0.22167	-31
0.22533	-26
0.22900	-24
0.23267	-25
0.23633	-26
0.24000	-28
0.24367	-29
0.24733	-28
0.25100	-25
0.25467	-21
0.25833	-19
0.26200	-17
0.26567	-17
0.26933	-19
0.27300	-23
0.27667	-28
0.28033	-34
0.28400	-38
0.28767	-39
0.29133	-38
0.29500	-33
0.29867	-26
0.30233	-21
0.30600	-20
0.30967	-23
0.31333	-25
0.31700	-28
0.32067	-31
0.32433	-30
0.32800	-25
0.33167	-19
0.33533	-13
0.33900	-10
0.34267	-11
0.34633	-13
0.35000	-14
0.35367	-17
0.35733	-19
0.36100	-17
0.36467	-16
0.36833	-16
0.37200	-16
0.37567	-18
0.37933	-19
0.38300	-18
0.38667	-17
0.39033	-17
0.39400	-18
0.39767	-21
0.40133	-23
0.40500	-26
0.40867	-31
0.41233	-36
0.41600	-40
0.41967	-41
0.42333	-39
0.42700	-35
0.43067	-31
0.43433	-27
0.43800	-25
0.44167	-24
0.44533	-24
0.44900	-22
0.45267	-19
0.45633	-18
0.46000	-17
0.46367	-20
0.46733	-24
0.47100	-26
0.47467	-25
0.47833	-27
0.48200	-30
0.48567	-33
0.48933	-38
0.49300	-39
0.49667	-40
0.50033	-41
0.50400	-42
0.50767	-43
0.51133	-43
0.51500	-44
0.51867	-44
0.52233	-43
0.52600	-46
0.52967	-50
0.53333	-50
0.53700	-45
0.54067	-38
0.54433	-34
0.54800	-34
0.55167	-34
0.55533	-33
0.55900	-35
0.56267	-37
0.56633	-38
0.57000	-34
0.57367	-29
0.57733	-27
0.58100	-25
0.58467	-27
0.58833	-31
0.59200	-34
0.59567	-34
0.59933	-33
0.60300	-34
0.60667	-37
0.61033	-38
0.61400	-35
0.61767	-28
0.62133	-23
0.62500	-23
0.62867	-26
0.63233	-31
0.63600	-34
0.63967	-35
0.64333	-35
0.64700	-35
0.65067	-38
0.65433	-44
0.65800	-51
0.66167	-55
0.66533	-53
0.66900	-48
0.67267	-44
0.67633	-43
0.68000	-44
0.68367	-43
0.68733	-43
0.69100	-45
0.69467	-47
0.69833	-47
0.70200	-44
0.70567	-36
0.70933	-28
0.71300	-21
0.71667	-18
0.72033	-20
0.72400	-26
0.72767	-34
0.73133	-41
0.73500	-43
0.73867	-43
0.74233	-45
0.74600	-50
0.74967	-53
0.75333	-58
0.75700	-64
0.76067	-66
0.76433	-64
0.76800	-58
0.77167	-53
0.77533	-50
0.77900	-48
0.78267	-48
0.78633	-48
0.79000	-45
0.79367	-45
0.79733	-49
0.80100	-54
0.80467	-57
0.80833	-58
0.81200	-57
0.81567	-53
0.81933	-50
0.82300	-49
0.82667	-51
0.83033	-56
0.83400	-63
0.83767	-69
0.84133	-70
0.84500	-66
0.84867	-62
0.85233	-61
0.85600	-58
0.85967	-54
0.86333	-52
0.86700	-51
0.87067	-49
0.87433	-43
0.87800	-36
0.88167	-36
0.88533	-41
0.88900	-49
0.89267	-57
0.89633	-62
0.90000	-64
0.90367	-63
0.90733	-62
0.91100	-60
0.91467	-58
0.91833	-57
0.92200	-57
0.92567	-56
0.92933	-53
0.93300	-51
0.93667	-51
0.94033	-51
0.94400	-51
0.94767	-50
0.95133	-48
0.95500	-47
0.95867	-44
0.96233	-42
0.96600	-40
0.96967	-42
0.97333	-48
0.97700	-51
0.98067	-48
0.98433	-45
0.98800	-45
0.99167	-48
0.99533	-55
0.99900	-65
1.00267	-69
1.00633	-71
1.01000	-71
1.01367	-66
1.01733	-60
1.02100	-57
1.02467	-60
1.02833	-66
1.03200	-70
1.03567	-72
1.03933	-72
1.04300	-69
1.04667	-65
1.05033	-63
1.05400	-63
1.05767	-61
1.06133	-59
1.06500	-56
1.06867	-54
1.07233	-56
1.07600	-58
1.07967	-59
1.08333	-60
1.08700	-60
1.09067	-63
1.09433	-66
1.09800	-67
1.10167	-65
1.10533	-56
1.10900	-48
1.11267	-42
1.11633	-38
1.12000	-36
1.12367	-38
1.12733	-43
1.13100	-48
1.13467	-53
1.13833	-61
1.14200	-67
1.14567	-73
1.14933	-76
1.15300	-82
1.15667	-87
1.16033	-89
1.16400	-88
1.16767	-86
1.17133	-85
1.17500	-84
1.17867	-82
1.18233	-78
1.18600	-75
1.18967	-75
1.19333	-77
1.19700	-79
1.20067	-77
1.20433	-74
1.20800	-71
1.21167	-69
1.21533	-69
1.21900	-72
1.22267	-74
1.22633	-70
1.23000	-66
1.23367	-64
1.23733	-66
1.24100	-71
1.24467	-76
1.24833	-83
1.25200	-87
1.25567	-89
1.25933	-90
1.26300	-87
1.26667	-80
1.27033	-73
1.27400	-66
1.27767	-60
1.28133	-56
1.28500	-55
1.28867	-55
1.29233	-56
1.29600	-61
1.29967	-68
1.30333	-74
1.30700	-77
1.31067	-80
1.31433	-83
1.31800	-87
1.32167	-90
1.32533	-93
1.32900	-93
1.33267	-91
1.33633	-85
1.34000	-79
1.34367	-73
1.34733	-71
1.35100	-68
1.35467	-67
1.35833	-67
1.36200	-69
1.36567	-71
1.36933	-75
1.37300	-80
1.37667	-83
1.38033	-85
1.38400	-85
1.38767	-82
1.39133	-80
1.39500	-79
1.39867	-82
1.40233	-79
1.40600	-74
1.40967	-73
1.41333	-78
1.41700	-86
1.42067	-94
1.42433	-101
1.42800	-104
1.43167	-102
1.43533	-97
1.43900	-72
1.44267	59
1.44633	447
1.45000	1179
1.45367	2303
1.45733	3786
1.46100	5399
1.46467	6855
1.46833	7955
1.47200	8605
1.47567	8762
1.47933	8417
1.48300	7609
1.48667	6476
1.49033	5214
1.49400	4008
1.49767	2970
1.50133	2136
1.50500	1497
1.50867	1022
1.51233	679
1.51600	435
1.51967	259
1.52333	138
1.52700	55
1.53067	-3
1.53433	-45
1.53800	-68
1.54167	-41
1.54533	99
1.54900	401
1.55267	829
1.55633	1292
1.56000	1705
1.56367	2018
1.56733	2204
1.57100	2229
1.57467	2073
1.57833	1763
1.58200	1374
1.58567	989
1.58933	658
1.59300	401
1.59667	217
1.60033	94
1.60400	17
1.60767	-29
1.61133	-61
1.61500	-88
1.61867	-109
1.62233	-125
1.62600	-134
1.62967	-138
1.63333	-139
1.63700	-141
1.64067	-148
1.64433	-157
1.64800	-161
1.65167	-161
1.65533	-157
1.65900	-151
1.66267	-148
1.66633	-149
1.67000	-151
1.67367	-151
1.67733	-148
1.68100	-144
1.68467	-139
1.68833	-133
1.69200	-128
1.69567	-126
1.69933	-128
1.70300	-133
1.70667	-138
1.71033	-140
1.71400	-143
1.71767	-147
1.72133	-150
1.72500	-148
1.72867	-143
1.73233	-141
1.73600	-140
1.73967	-141
1.74333	-140
1.74700	-140
1.75067	-138
1.75433	-135
1.75800	-136
1.76167	-139
1.76533	-141
1.76900	-144
1.77267	-143
1.77633	-137
1.78000	-127
1.78367	-116
1.78733	-107
1.79100	-103
1.79467	-101
1.79833	-104
1.80200	-112
1.80567	-123
1.80933	-134
1.81300	-142
1.81667	-149
1.82033	-157
1.82400	-163
1.82767	-161
1.83133	-156
1.83500	-151
1.83867	-146
1.84233	-141
1.84600	-139
1.84967	-136
1.85333	-132
1.85700	-127
1.86067	-124
1.86433	-124
1.86800	-126
1.87167	-128
1.87533	-130
1.87900	-133
1.88267	-132
1.88633	-125
1.89000	-117
1.89367	-114
1.89733	-115
1.90100	-118
1.90467	-122
1.90833	-123
1.91200	-120
1.91567	-112
1.91933	-106
1.92300	-101
1.92667	-95
1.93033	-91
1.93400	-94
1.93767	-101
1.94133	-110
1.94500	-116
1.94867	-119
1.95233	-106
1.95600	-5
1.95967	590
1.96333	3336
1.96700	13080
1.97067	39623
1.97433	95843
1.97800	189458
1.98167	314071
1.98533	449863
1.98900	573030
1.99267	663693
1.99633	708170
2.00000	700597
2.00367	644776
2.00733	553936
2.01100	446667
2.01467	340865
2.01833	248737
2.02200	175483
2.02567	120943
2.02933	82192
2.03300	55533
2.03667	37571
2.04033	25619
2.04400	17711
2.04767	12475
2.05133	8991
2.05500	6646
2.05867	5044
2.06233	3931
2.06600	3138
2.06967	2562
2.07333	2132
2.07700	1802
2.08067	1545
2.08433	1345
2.08800	1187
2.09167	1054
2.09533	942
2.09900	847
2.10267	767
2.10633	698
2.11000	638
2.11367	587
2.11733	545
2.12100	507
2.12467	473
2.12833	447
2.13200	422
2.13567	397
2.13933	377
2.14300	361
2.14667	344
2.15033	324
2.15400	305
2.15767	290
2.16133	277
2.16500	265
2.16867	255
2.17233	244
2.17600	232
2.17967	220
2.18333	209
2.18700	201
2.19067	193
2.19433	186
2.19800	179
2.20167	172
2.20533	162
2.20900	155
2.21267	151
2.21633	143
2.22000	132
2.22367	126
2.22733	122
2.23100	118
2.23467	112
2.23833	105
2.24200	100
2.24567	98
2.24933	100
2.25300	100
2.25667	98
2.26033	95
2.26400	92
2.26767	90
2.27133	87
2.27500	80
2.27867	72
2.28233	67
2.28600	65
2.28967	67
2.29333	63
2.29700	54
2.30067	45
2.30433	38
2.30800	33
2.31167	29
2.31533	27
2.31900	25
2.32267	23
2.32633	22
2.33000	22
2.33367	25
2.33733	30
2.34100	31
2.34467	29
2.34833	28
2.35200	28
2.35567	27
2.35933	24
2.36300	22
2.36667	19
2.37033	15
2.37400	12
2.37767	9
2.38133	8
2.38500	9
2.38867	12
2.39233	13
2.39600	14
2.39967	16
2.40333	13
2.40700	7
2.41067	2
2.41433	1
2.41800	2
2.42167	4
2.42533	4
2.42900	3
2.43267	3
2.43633	-0
2.44000	-6
2.44367	-10
2.44733	-10
2.45100	-9
2.45467	-7
2.45833	-4
2.46200	-3
2.46567	-3
2.46933	1
2.47300	4
2.47667	1
2.48033	-5
2.48400	-9
2.48767	-6
2.49133	-2
2.49500	0
2.49867	2
2.50233	5
2.50600	7
2.50967	8
2.51333	5
2.51700	-1
2.52067	-7
2.52433	-11
2.52800	-13
2.53167	-11
2.53533	-4
2.53900	1
2.54267	1
2.54633	2
2.55000	1
2.55367	-3
2.55733	-12
2.56100	-24
2.56467	-32
2.56833	-34
2.57200	-32
2.57567	-31
2.57933	-33
2.58300	-33
2.58667	-30
2.59033	-27
2.59400	-25
2.59767	-25
2.60133	-28
2.60500	-29
2.60867	-30
2.61233	-30
2.61600	-34
2.61967	-43
2.62333	-57
2.62700	-68
2.63067	-73
2.63433	-71
2.63800	-64
2.64167	-57
2.64533	-53
2.64900	-53
2.65267	-54
2.65633	-55
2.66000	-53
2.66367	-48
2.66733	-45
2.67100	-44
2.67467	-45
2.67833	-46
2.68200	-48
2.68567	-47
2.68933	-45
2.69300	-45
2.69667	-47
2.70033	-50
2.70400	-55
2.70767	-59
2.71133	-62
2.71500	-63
2.71867	-59
2.72233	-52
2.72600	-48
2.72967	-46
2.73333	-47
2.73700	-49
2.74067	-50
2.74433	-51
2.74800	-53
2.75167	-57
2.75533	-59
2.75900	-60
2.76267	-58
2.76633	-55
2.77000	-53
2.77367	-50
2.77733	-48
2.78100	-47
2.78467	-46
2.78833	-46
2.79200	-45
2.79567	-47
2.79933	-48
2.80300	-48
2.80667	-48
2.81033	-49
2.81400	-51
2.81767	-53
2.82133	-52
2.82500	-51
2.82867	-50
2.83233	-51
2.83600	-53
2.83967	-52
2.84333	-52
2.84700	-51
2.85067	-50
2.85433	-51
2.85800	-56
2.86167	-60
2.86533	-61
2.86900	-58
2.87267	-56
2.87633	-57
2.88000	-59
2.88367	-59
2.88733	-53
2.89100	-45
2.89467	-38
2.89833	-36
2.90200	-39
2.90567	-45
2.90933	-52
2.91300	-57
2.91667	-57
2.92033	-56
2.92400	-52
2.92767	-46
2.93133	-42
2.93500	-44
2.93867	-48
2.94233	-50
2.94600	-50
2.94967	-49
2.95333	-47
2.95700	-42
2.96067	-39
2.96433	-38
2.96800	-37
2.97167	-34
2.97533	-29
2.97900	-25
2.98267	-26
2.98633	-31
2.99000	-34
2.99367	-37
2.99733	-38
3.00100	-37
3.00467	-35
3.00833	-32
3.01200	-30
3.01567	-32
3.01933	-35
3.02300	-35
3.02667	-34
3.03033	-32
3.03400	-30
3.03767	-29
3.04133	-33
3.04500	-40
3.04867	-48
3.05233	-57
3.05600	-61
3.05967	-64
3.06333	-68
3.06700	-70
3.07067	-73
3.07433	-74
3.07800	-74
3.08167	-71
3.08533	-67
3.08900	-63
3.09267	-61
3.09633	-56
3.10000	-47
3.10367	-39
3.10733	-36
3.11100	-37
3.11467	-40
3.11833	-43
3.12200	-43
3.12567	-41
3.12933	-38
3.13300	-40
3.13667	-46
3.14033	-50
3.14400	-53
3.14767	-55
3.15133	-54
3.15500	-52
3.15867	-49
3.16233	-45
3.16600	-42
3.16967	-41
3.17333	-40
3.17700	-39
3.18067	-38
3.18433	-39
3.18800	-41
3.19167	-39
3.19533	-33
3.19900	-25
3.20267	-21
3.20633	-21
3.21000	-22
3.21367	-22
3.21733	-22
3.22100	-21
3.22467	-21
3.22833	-21
3.23200	-23
3.23567	-26
3.23933	-29
3.24300	-33
3.24667	-38
3.25033	-43
3.25400	-45
3.25767	-46
3.26133	-46
3.26500	-47
3.26867	-43
3.27233	-35
3.27600	-27
3.27967	-21
3.28333	-20
3.28700	-22
3.29067	-26
3.29433	-31
3.29800	-36
3.30167	-38
3.30533	-38
3.30900	-34
3.31267	-30
3.31633	-30
3.32000	-33
3.32367	-32
3.32733	-31
3.33100	-31
3.33467	-31
3.33833	-31
3.34200	-31
3.34567	-28
3.34933	-19
3.35300	-10
3.35667	-9
3.36033	-12
3.36400	-15
3.36767	-19
3.37133	-25
3.37500	-31
3.37867	-37
3.38233	-43
3.38600	-46
3.38967	-44
3.39333	-41
3.39700	-37
3.40067	-31
3.40433	-28
3.40800	-28
3.41167	-27
3.41533	-26
3.41900	-25
3.42267	-24
3.42633	-22
3.43000	-19
3.43367	-16
3.43733	-14
3.44100	-13
3.44467	-14
3.44833	-12
3.45200	-8
3.45567	-3
3.45933	-4
3.46300	-8
3.46667	-11
3.47033	-13
3.47400	-14
3.47767	-18
3.48133	-24
3.48500	-28
3.48867	-29
3.49233	-30
3.49600	-30
3.49967	-31
3.50333	-33
3.50700	-34
3.51067	-37
3.51433	-38
3.51800	-34
3.52167	-27
3.52533	-22
3.52900	-21
3.53267	-20
3.53633	-19
3.54000	-17
3.54367	-18
3.54733	-20
3.55100	-21
3.55467	-20
3.55833	-16
3.56200	-11
3.56567	-8
3.56933	-8
3.57300	-11
3.57667	-14
3.58033	-16
3.58400	-20
3.58767	-21
3.59133	-21
3.59500	-18
3.59867	-12
3.60233	-4
3.60600	1
3.60967	-0
3.61333	-6
3.61700	-12
3.62067	-17
3.62433	-19
3.62800	-20
3.63167	-21
3.63533	-21
3.63900	-21
3.64267	-21
3.64633	-20
3.65000	-17
3.65367	-15
3.65733	-11
3.66100	-6
3.66467	1
3.66833	3
3.67200	-4
3.67567	-11
3.67933	-15
3.68300	-16
3.68667	-16
3.69033	-18
3.69400	-20
3.69767	-20
3.70133	-18
3.70500	-17
3.70867	-18
3.71233	-21
3.71600	-24
3.71967	-25
3.72333	-26
3.72700	-25
3.73067	-23
3.73433	-19
3.73800	-15
3.74167	-13
3.74533	-15
3.74900	-14
3.75267	-14
3.75633	-16
3.76000	-16
3.76367	-14
3.76733	-10
3.77100	-6
3.77467	-3
3.77833	-2
3.78200	-2
3.78567	-1
3.78933	1
3.79300	7
3.79667	13
3.80033	14
3.80400	10
3.80767	2
3.81133	-6
3.81500	-10
3.81867	-11
3.82233	-9
3.82600	-8
3.82967	-6
3.83333	-5
3.83700	-2
3.84067	4
3.84433	11
3.84800	12
3.85167	10
3.85533	8
3.85900	3
3.86267	-7
3.86633	-15
3.87000	-17
3.87367	-17
3.87733	-17
3.88100	-15
3.88467	-18
3.88833	-25
3.89200	-31
3.89567	-34
3.89933	-35
3.90300	-37
3.90667	-39
3.91033	-40
3.91400	-40
3.91767	-35
3.92133	-28
3.92500	-19
3.92867	-14
3.93233	-15
3.93600	-19
3.93967	-19
3.94333	-16
3.94700	-10
3.95067	-2
3.95433	4
3.95800	7
3.96167	10
3.96533	14
3.96900	16
3.97267	20
3.97633	20
3.98000	18
3.98367	16
3.98733	10
3.99100	1
3.99467	-9
3.99833	-18

[Chromatogram (Ch2)]
Interval(msec)	220
# of Points	1091
Start Time(min)	0.002
End Time(min)	3.998
R.Time (min)	Intensity
0.00167	0
0.00533	0
0.00900	-0
0.01267	-0
0.01633	-0
0.02000	-0
0.02367	-0
0.02733	0
0.03100	0
0.03467	0
0.03833	0
0.04200	0
0.04567	0
0.04933	0
0.05300	0
0.05667	-0
0.06033	-0
0.06400	-0
0.06767	-0
0.07133	-0
0.07500	-1
0.07867	-1
0.08233	-2
0.08600	-2
0.08967	-2
0.09333	-2
0.09700	-3
0.10067	-3
0.10433	-3
0.10800	-2
0.11167	-2
0.11533	-1
0.11900	-1
0.12267	-1
0.12633	-0
0.13000	-0
0.13367	-0
0.13733	-0
0.14100	-0
0.14467	-1
0.14833	-1
0.15200	-1
0.15567	-1
0.15933	-1
0.16300	-2
0.16667	-2
0.17033	-2
0.17400	-1
0.17767	-1
0.18133	-1
0.18500	-1
0.18867	-1
0.19233	-1
0.19600	-0
0.19967	-0
0.20333	-0
0.20700	-0
0.21067	-0
0.21433	-1
0.21800	-1
0.22167	-1
0.22533	-2
0.22900	-2
0.23267	-2
0.23633	-3
0.24000	-3
0.24367	-3
0.24733	-4
0.25100	-4
0.25467	-4
0.25833	-4
0.26200	-5
0.26567	-5
0.26933	-5
0.27300	-5
0.27667	-6
0.28033	-6
0.28400	-6
0.28767	-7
0.29133	-7
0.29500	-7
0.29867	-7
0.30233	-7
0.30600	-7
0.30967	-7
0.31333	-7
0.31700	-7
0.32067	-6
0.32433	-6
0.32800	-6
0.33167	-5
0.33533	-5
0.33900	-5
0.34267	-4
0.34633	-4
0.35000	-4
0.35367	-3
0.35733	-3
0.36100	-3
0.36467	-2
0.36833	-2
0.37200	-1
0.37567	-1
0.37933	-1
0.38300	-1
0.38667	-0
0.39033	0
0.39400	0
0.39767	0
0.40133	0
0.40500	1
0.40867	1
0.41233	0
0.41600	0
0.41967	-0
0.42333	-0
0.42700	-0
0.43067	-0
0.43433	-0
0.43800	-0
0.44167	-1
0.44533	-1
0.44900	-1
0.45267	-2
0.45633	-2
0.46000	-2
0.46367	-3
0.46733	-3
0.47100	-3
0.47467	-3
0.47833	-3
0.48200	-3
0.48567	-3
0.48933	-3
0.49300	-3
0.49667	-3
0.50033	-3
0.50400	-4
0.50767	-4
0.51133	-4
0.51500	-4
0.51867	-4
0.52233	-5
0.52600	-5
0.52967	-5
0.53333	-5
0.53700	-5
0.54067	-5
0.54433	-5
0.54800	-5
0.55167	-5
0.55533	-5
0.55900	-5
0.56267	-5
0.56633	-5
0.57000	-5
0.57367	-5
0.57733	-5
0.58100	-4
0.58467	-4
0.58833	-4
0.59200	-4
0.59567	-4
0.59933	-3
0.60300	-3
0.60667	-3
0.61033	-2
0.61400	-2
0.61767	-2
0.62133	-1
0.62500	-1
0.62867	-1
0.63233	-1
0.63600	-1
0.63967	-1
0.64333	-1
0.64700	-1
0.65067	-2
0.65433	-2
0.65800	-2
0.66167	-2
0.66533	-2
0.66900	-3
0.67267	-3
0.67633	-3
0.68000	-3
0.68367	-4
0.68733	-4
0.69100	-5
0.69467	-5
0.69833	-5
0.70200	-5
0.70567	-6
0.70933	-6
0.71300	-6
0.71667	-6
0.72033	-6
0.72400	-7
0.72767	-7
0.73133	-7
0.73500	-7
0.73867	-7
0.74233	-7
0.74600	-7
0.74967	-6
0.75333	-6
0.75700	-6
0.76067	-5
0.76433	-5
0.76800	-5
0.77167	-6
0.77533	-6
0.77900	-6
0.78267	-6
0.78633	-6
0.79000	-6
0.79367	-6
0.79733	-6
0.80100	-6
0.80467	-6
0.80833	-6
0.81200	-5
0.81567	-5
0.81933	-5
0.82300	-4
0.82667	-4
0.83033	-3
0.83400	-3
0.83767	-3
0.84133	-3
0.84500	-3
0.84867	-4
0.85233	-4
0.85600	-4
0.85967	-4
0.86333	-4
0.86700	-4
0.87067	-4
0.87433	-5
0.87800	-5
0.88167	-5
0.88533	-6
0.88900	-5
0.89267	-6
0.89633	-6
0.90000	-6
0.90367	-6
0.90733	-6
0.91100	-6
0.91467	-5
0.91833	-5
0.92200	-5
0.92567	-5
0.92933	-6
0.93300	-6
0.93667	-6
0.94033	-6
0.94400	-6
0.94767	-6
0.95133	-6
0.95500	-6
0.95867	-6
0.96233	-6
0.96600	-6
0.96967	-6
0.97333	-6
0.97700	-6
0.98067	-6
0.98433	-6
0.98800	-6
0.99167	-6
0.99533	-5
0.99900	-5
1.00267	-5
1.00633	-4
1.01000	-4
1.01367	-4
1.01733	-4
1.02100	-4
1.02467	-4
1.02833	-4
1.03200	-4
1.03567	-3
1.03933	-3
1.04300	-3
1.04667	-3
1.05033	-3
1.05400	-3
1.05767	-3
1.06133	-3
1.06500	-3
1.06867	-3
1.07233	-3
1.07600	-3
1.07967	-4
1.08333	-4
1.08700	-4
1.09067	-4
1.09433	-4
1.09800	-3
1.10167	-3
1.10533	-3
1.10900	-3
1.11267	-3
1.11633	-2
1.12000	-2
1.12367	-2
1.12733	-2
1.13100	-2
1.13467	-2
1.13833	-2
1.14200	-2
1.14567	-3
1.14933	-3
1.15300	-3
1.15667	-3
1.16033	-3
1.16400	-3
1.16767	-3
1.17133	-3
1.17500	-3
1.17867	-3
1.18233	-4
1.18600	-4
1.18967	-4
1.19333	-5
1.19700	-5
1.20067	-6
1.20433	-6
1.20800	-7
1.21167	-7
1.21533	-7
1.21900	-8
1.22267	-8
1.22633	-8
1.23000	-8
1.23367	-9
1.23733	-9
1.24100	-9
1.24467	-8
1.24833	-8
1.25200	-8
1.25567	-8
1.25933	-7
1.26300	-7
1.26667	-7
1.27033	-7
1.27400	-6
1.27767	-6
1.28133	-6
1.28500	-6
1.28867	-6
1.29233	-5
1.29600	-5
1.29967	-4
1.30333	-4
1.30700	-3
1.31067	-3
1.31433	-3
1.31800	-3
1.32167	-3
1.32533	-3
1.32900	-3
1.33267	-3
1.33633	-3
1.34000	-3
1.34367	-2
1.34733	-2
1.35100	-2
1.35467	-2
1.35833	-2
1.36200	-2
1.36567	-2
1.36933	-2
1.37300	-2
1.37667	-2
1.38033	-2
1.38400	-2
1.38767	-3
1.39133	-3
1.39500	-3
1.39867	-4
1.40233	-4
1.40600	-4
1.40967	-4
1.41333	-4
1.41700	-4
1.42067	-4
1.42433	-5
1.42800	-5
1.43167	-5
1.43533	-5
1.43900	-6
1.44267	-6
1.44633	-6
1.45000	-7
1.45367	-7
1.45733	-7
1.46100	-8
1.46467	-8
1.46833	-8
1.47200	-8
1.47567	-8
1.47933	-8
1.48300	-9
1.48667	-9
1.49033	-9
1.49400	-9
1.49767	-9
1.50133	-9
1.50500	-9
1.50867	-9
1.51233	-9
1.51600	-9
1.51967	-9
1.52333	-9
1.52700	-9
1.53067	-8
1.53433	-8
1.53800	-8
1.54167	-7
1.54533	-7
1.54900	-6
1.55267	-6
1.55633	-6
1.56000	-5
1.56367	-5
1.56733	-4
1.57100	-4
1.57467	-4
1.57833	-3
1.58200	-3
1.58567	-3
1.58933	-3
1.59300	-3
1.59667	-4
1.60033	-4
1.60400	-5
1.60767	-7
1.61133	-9
1.61500	-11
1.61867	-13
1.62233	-16
1.62600	-19
1.62967	-22
1.63333	-25
1.63700	-28
1.64067	-31
1.64433	-35
1.64800	-38
1.65167	-42
1.65533	-46
1.65900	-50
1.66267	-55
1.66633	-60
1.67000	-65
1.67367	-71
1.67733	-76
1.68100	-82
1.68467	-87
1.68833	-92
1.69200	-96
1.69567	-100
1.69933	-103
1.70300	-105
1.70667	-107
1.71033	-109
1.71400	-110
1.71767	-111
1.72133	-112
1.72500	-113
1.72867	-114
1.73233	-115
1.73600	-116
1.73967	-117
1.74333	-118
1.74700	-119
1.75067	-120
1.75433	-122
1.75800	-123
1.76167	-124
1.76533	-124
1.76900	-125
1.77267	-125
1.77633	-125
1.78000	-125
1.78367	-124
1.78733	-124
1.79100	-123
1.79467	-122
1.79833	-121
1.80200	-121
1.80567	-121
1.80933	-121
1.81300	-122
1.81667	-123
1.82033	-123
1.82400	-124
1.82767	-124
1.83133	-124
1.83500	-124
1.83867	-124
1.84233	-125
1.84600	-125
1.84967	-126
1.85333	-127
1.85700	-127
1.86067	-128
1.86433	-128
1.86800	-128
1.87167	-128
1.87533	-127
1.87900	-127
1.88267	-126
1.88633	-126
1.89000	-126
1.89367	-126
1.89733	-126
1.90100	-126
1.90467	-126
1.90833	-126
1.91200	-126
1.91567	-125
1.91933	-125
1.92300	-125
1.92667	-124
1.93033	-124
1.93400	-124
1.93767	-124
1.94133	-124
1.94500	-123
1.94867	-123
1.95233	-122
1.95600	-122
1.95967	-122
1.96333	-122
1.96700	-122
1.97067	-122
1.97433	-121
1.97800	-121
1.98167	-121
1.98533	-121
1.98900	-120
1.99267	-120
1.99633	-119
2.00000	-119
2.00367	-119
2.00733	-119
2.01100	-119
2.01467	-118
2.01833	-118
2.02200	-118
2.02567	-117
2.02933	-117
2.03300	-116
2.03667	-115
2.04033	-115
2.04400	-115
2.04767	-114
2.05133	-114
2.05500	-114
2.05867	-113
2.06233	-113
2.06600	-113
2.06967	-113
2.07333	-113
2.07700	-113
2.08067	-113
2.08433	-112
2.08800	-112
2.09167	-111
2.09533	-110
2.09900	-110
2.10267	-110
2.10633	-110
2.11000	-110
2.11367	-110
2.11733	-110
2.12100	-110
2.12467	-109
2.12833	-108
2.13200	-107
2.13567	-106
2.13933	-106
2.14300	-106
2.14667	-105
2.15033	-105
2.15400	-105
2.15767	-105
2.16133	-105
2.16500	-104
2.16867	-103
2.17233	-102
2.17600	-102
2.17967	-101
2.18333	-101
2.18700	-101
2.19067	-102
2.19433	-102
2.19800	-103
2.20167	-103
2.20533	-103
2.20900	-103
2.21267	-103
2.21633	-102
2.22000	-101
2.22367	-101
2.22733	-100
2.23100	-99
2.23467	-99
2.23833	-99
2.24200	-100
2.24567	-100
2.24933	-101
2.25300	-102
2.25667	-103
2.26033	-104
2.26400	-104
2.26767	-104
2.27133	-104
2.27500	-104
2.27867	-103
2.28233	-102
2.28600	-101
2.28967	-100
2.29333	-99
2.29700	-98
2.30067	-97
2.30433	-96
2.30800	-95
2.31167	-94
2.31533	-93
2.31900	-93
2.32267	-93
2.32633	-93
2.33000	-93
2.33367	-93
2.33733	-93
2.34100	-92
2.34467	-92
2.34833	-91
2.35200	-91
2.35567	-91
2.35933	-91
2.36300	-91
2.36667	-91
2.37033	-90
2.37400	-89
2.37767	-87
2.38133	-84
2.38500	-80
2.38867	-76
2.39233	-72
2.39600	-67
2.39967	-62
2.40333	-57
2.40700	-51
2.41067	-47
2.41433	-42
2.41800	-38
2.42167	-34
2.42533	-31
2.42900	-28
2.43267	-26
2.43633	-24
2.44000	-22
2.44367	-20
2.44733	-18
2.45100	-16
2.45467	-14
2.45833	-13
2.46200	-11
2.46567	-10
2.46933	-8
2.47300	-7
2.47667	-6
2.48033	-5
2.48400	-4
2.48767	-2
2.49133	-1
2.49500	-0
2.49867	1
2.50233	2
2.50600	2
2.50967	3
2.51333	4
2.51700	5
2.52067	6
2.52433	7
2.52800	7
2.53167	8
2.53533	9
2.53900	10
2.54267	10
2.54633	11
2.55000	11
2.55367	11
2.55733	12
2.56100	12
2.56467	12
2.56833	12
2.57200	12
2.57567	11
2.57933	11
2.58300	11
2.58667	10
2.59033	11
2.59400	11
2.59767	11
2.60133	11
2.60500	11
2.60867	11
2.61233	12
2.61600	12
2.61967	12
2.62333	13
2.62700	13
2.63067	13
2.63433	13
2.63800	13
2.64167	13
2.64533	14
2.64900	14
2.65267	14
2.65633	14
2.66000	15
2.66367	15
2.66733	15
2.67100	15
2.67467	15
2.67833	15
2.68200	16
2.68567	16
2.68933	17
2.69300	17
2.69667	18
2.70033	18
2.70400	19
2.70767	19
2.71133	19
2.71500	18
2.71867	18
2.72233	18
2.72600	18
2.72967	18
2.73333	18
2.73700	18
2.74067	18
2.74433	18
2.74800	18
2.75167	19
2.75533	19
2.75900	19
2.76267	19
2.76633	19
2.77000	19
2.77367	20
2.77733	20
2.78100	20
2.78467	20
2.78833	20
2.79200	20
2.79567	20
2.79933	20
2.80300	19
2.80667	19
2.81033	19
2.81400	19
2.81767	19
2.82133	19
2.82500	19
2.82867	19
2.83233	19
2.83600	19
2.83967	19
2.84333	18
2.84700	16
2.85067	12
2.85433	6
2.85800	-3
2.86167	-16
2.86533	-32
2.86900	-52
2.87267	-77
2.87633	-106
2.88000	-138
2.88367	-174
2.88733	-213
2.89100	-256
2.89467	-300
2.89833	-347
2.90200	-395
2.90567	-444
2.90933	-494
2.91300	-545
2.91667	-595
2.92033	-644
2.92400	-693
2.92767	-741
2.93133	-789
2.93500	-838
2.93867	-891
2.94233	-952
2.94600	-1014
2.94967	-1067
2.95333	-1099
2.95700	-1106
2.96067	-1086
2.96433	-1042
2.96800	-982
2.97167	-909
2.97533	-831
2.97900	-749
2.98267	-669
2.98633	-593
2.99000	-521
2.99367	-455
2.99733	-395
3.00100	-341
3.00467	-294
3.00833	-252
3.01200	-216
3.01567	-184
3.01933	-157
3.02300	-133
3.02667	-112
3.03033	-95
3.03400	-80
3.03767	-67
3.04133	-56
3.04500	-46
3.04867	-38
3.05233	-31
3.05600	-25
3.05967	-20
3.06333	-16
3.06700	-12
3.07067	-9
3.07433	-7
3.07800	-4
3.08167	-2
3.08533	-0
3.08900	1
3.09267	3
3.09633	4
3.10000	5
3.10367	6
3.10733	7
3.11100	8
3.11467	8
3.11833	9
3.12200	9
3.12567	10
3.12933	10
3.13300	10
3.13667	11
3.14033	11
3.14400	11
3.14767	12
3.15133	12
3.15500	12
3.15867	13
3.16233	13
3.16600	13
3.16967	14
3.17333	14
3.17700	14
3.18067	15
3.18433	15
3.18800	15
3.19167	16
3.19533	16
3.19900	17
3.20267	17
3.20633	18
3.21000	19
3.21367	19
3.21733	20
3.22100	20
3.22467	21
3.22833	21
3.23200	21
3.23567	21
3.23933	21
3.24300	21
3.24667	21
3.25033	21
3.25400	21
3.25767	20
3.26133	20
3.26500	20
3.26867	20
3.27233	20
3.27600	20
3.27967	20
3.28333	20
3.28700	20
3.29067	20
3.29433	20
3.29800	20
3.30167	20
3.30533	20
3.30900	20
3.31267	20
3.31633	19
3.32000	20
3.32367	20
3.32733	20
3.33100	20
3.33467	21
3.33833	21
3.34200	21
3.34567	21
3.34933	22
3.35300	22
3.35667	22
3.36033	22
3.36400	22
3.36767	22
3.37133	22
3.37500	22
3.37867	23
3.38233	23
3.38600	23
3.38967	23
3.39333	23
3.39700	24
3.40067	24
3.40433	24
3.40800	24
3.41167	24
3.41533	24
3.41900	24
3.42267	24
3.42633	24
3.43000	24
3.43367	24
3.43733	24
3.44100	24
3.44467	24
3.44833	24
3.45200	24
3.45567	24
3.45933	24
3.46300	24
3.46667	24
3.47033	24
3.47400	23
3.47767	23
3.48133	23
3.48500	23
3.48867	23
3.49233	23
3.49600	22
3.49967	22
3.50333	22
3.50700	22
3.51067	22
3.51433	22
3.51800	22
3.52167	22
3.52533	22
3.52900	22
3.53267	23
3.53633	23
3.54000	23
3.54367	22
3.54733	22
3.55100	22
3.55467	22
3.55833	22
3.56200	23
3.56567	23
3.56933	23
3.57300	23
3.57667	23
3.58033	24
3.58400	24
3.58767	24
3.59133	24
3.59500	24
3.59867	24
3.60233	24
3.60600	24
3.60967	25
3.61333	25
3.61700	24
3.62067	24
3.62433	24
3.62800	24
3.63167	24
3.63533	24
3.63900	24
3.64267	24
3.64633	24
3.65000	24
3.65367	24
3.65733	24
3.66100	24
3.66467	24
3.66833	24
3.67200	25
3.67567	25
3.67933	25
3.68300	25
3.68667	25
3.69033	25
3.69400	25
3.69767	25
3.70133	25
3.70500	25
3.70867	26
3.71233	26
3.71600	26
3.71967	26
3.72333	26
3.72700	26
3.73067	26
3.73433	25
3.73800	25
3.74167	25
3.74533	24
3.74900	24
3.75267	24
3.75633	23
3.76000	23
3.76367	23
3.76733	24
3.77100	24
3.77467	24
3.77833	24
3.78200	24
3.78567	23
3.78933	23
3.79300	23
3.79667	23
3.80033	23
3.80400	23
3.80767	23
3.81133	23
3.81500	23
3.81867	23
3.82233	23
3.82600	24
3.82967	24
3.83333	24
3.83700	24
3.84067	25
3.84433	25
3.84800	25
3.85167	25
3.85533	26
3.85900	26
3.86267	26
3.86633	26
3.87000	26
3.87367	26
3.87733	26
3.88100	26
3.88467	26
3.88833	25
3.89200	25
3.89567	25
3.89933	25
3.90300	25
3.90667	25
3.91033	25
3.91400	25
3.91767	25
3.92133	25
3.92500	25
3.92867	25
3.93233	25
3.93600	25
3.93967	25
3.94333	25
3.94700	25
3.95067	25
3.95433	25
3.95800	25
3.96167	25
3.96533	24
3.96900	24
3.97267	24
3.97633	24
3.98000	24
3.98367	24
3.98733	24
3.99100	24
3.99467	24
3.99833	24

[Chromatogram (Ch3)]
Interval(msec)	220
# of Points	1091
Start Time(min)	0.002
End Time(min)	3.998
R.Time (min)	Intensity
0.00167	-0
0.00533	-1
0.00900	-0
0.01267	-0
0.01633	0
0.02000	1
0.02367	4
0.02733	3
0.03100	1
0.03467	1
0.03833	2
0.04200	3
0.04567	3
0.04933	2
0.05300	2
0.05667	5
0.06033	6
0.06400	7
0.06767	8
0.07133	10
0.07500	11
0.07867	10
0.08233	10
0.08600	10
0.08967	10
0.09333	9
0.09700	10
0.10067	11
0.10433	13
0.10800	14
0.11167	12
0.11533	12
0.11900	10
0.12267	8
0.12633	7
0.13000	6
0.13367	5
0.13733	7
0.14100	9
0.14467	10
0.14833	10
0.15200	11
0.15567	13
0.15933	14
0.16300	13
0.16667	13
0.17033	11
0.17400	10
0.17767	11
0.18133	14
0.18500	14
0.18867	13
0.19233	12
0.19600	13
0.19967	13
0.20333	12
0.20700	13
0.21067	16
0.21433	17
0.21800	15
0.22167	12
0.22533	11
0.22900	10
0.23267	9
0.23633	9
0.24000	10
0.24367	9
0.24733	9
0.25100	10
0.25467	12
0.25833	13
0.26200	12
0.26567	12
0.26933	13
0.27300	14
0.27667	15
0.28033	17
0.28400	18
0.28767	18
0.29133	18
0.29500	19
0.29867	19
0.30233	19
0.30600	18
0.30967	18
0.31333	17
0.31700	17
0.32067	17
0.32433	17
0.32800	17
0.33167	18
0.33533	18
0.33900	18
0.34267	17
0.34633	16
0.35000	16
0.35367	15
0.35733	14
0.36100	15
0.36467	16
0.36833	18
0.37200	20
0.37567	19
0.37933	19
0.38300	17
0.38667	18
0.39033	18
0.39400	17
0.39767	16
0.40133	17
0.40500	17
0.40867	17
0.41233	19
0.41600	19
0.41967	21
0.42333	23
0.42700	23
0.43067	23
0.43433	21
0.43800	20
0.44167	20
0.44533	22
0.44900	21
0.45267	20
0.45633	21
0.46000	20
0.46367	21
0.46733	21
0.47100	19
0.47467	16
0.47833	14
0.48200	16
0.48567	17
0.48933	18
0.49300	20
0.49667	21
0.50033	23
0.50400	24
0.50767	23
0.51133	23
0.51500	23
0.51867	23
0.52233	23
0.52600	25
0.52967	25
0.53333	24
0.53700	23
0.54067	23
0.54433	23
0.54800	23
0.55167	22
0.55533	21
0.55900	20
0.56267	20
0.56633	22
0.57000	23
0.57367	24
0.57733	22
0.58100	21
0.58467	20
0.58833	20
0.59200	21
0.59567	19
0.59933	18
0.60300	19
0.60667	21
0.61033	22
0.61400	24
0.61767	25
0.62133	26
0.62500	26
0.62867	24
0.63233	22
0.63600	22
0.63967	23
0.64333	25
0.64700	23
0.65067	20
0.65433	19
0.65800	19
0.66167	19
0.66533	18
0.66900	20
0.67267	22
0.67633	23
0.68000	24
0.68367	24
0.68733	23
0.69100	23
0.69467	25
0.69833	26
0.70200	25
0.70567	24
0.70933	25
0.71300	28
0.71667	31
0.72033	32
0.72400	31
0.72767	30
0.73133	30
0.73500	31
0.73867	30
0.74233	30
0.74600	28
0.74967	28
0.75333	28
0.75700	28
0.76067	27
0.76433	28
0.76800	28
0.77167	28
0.77533	29
0.77900	29
0.78267	28
0.78633	28
0.79000	28
0.79367	27
0.79733	27
0.80100	27
0.80467	29
0.80833	30
0.81200	30
0.81567	30
0.81933	30
0.82300	30
0.82667	32
0.83033	34
0.83400	34
0.83767	33
0.84133	31
0.84500	31
0.84867	32
0.85233	34
0.85600	35
0.85967	33
0.86333	33
0.86700	35
0.87067	35
0.87433	34
0.87800	34
0.88167	35
0.88533	34
0.88900	36
0.89267	34
0.89633	33
0.90000	34
0.90367	36
0.90733	39
0.91100	39
0.91467	38
0.91833	39
0.92200	40
0.92567	40
0.92933	39
0.93300	39
0.93667	38
0.94033	37
0.94400	36
0.94767	35
0.95133	36
0.95500	36
0.95867	37
0.96233	38
0.96600	37
0.96967	38
0.97333	39
0.97700	39
0.98067	38
0.98433	37
0.98800	36
0.99167	36
0.99533	36
0.99900	35
1.00267	33
1.00633	31
1.01000	32
1.01367	32
1.01733	34
1.02100	36
1.02467	38
1.02833	39
1.03200	38
1.03567	40
1.03933	43
1.04300	44
1.04667	43
1.05033	41
1.05400	39
1.05767	40
1.06133	43
1.06500	45
1.06867	44
1.07233	42
1.07600	41
1.07967	43
1.08333	45
1.08700	46
1.09067	47
1.09433	46
1.09800	41
1.10167	40
1.10533	42
1.10900	46
1.11267	48
1.11633	47
1.12000	48
1.12367	50
1.12733	49
1.13100	48
1.13467	48
1.13833	48
1.14200	48
1.14567	48
1.14933	49
1.15300	49
1.15667	47
1.16033	47
1.16400	46
1.16767	47
1.17133	48
1.17500	46
1.17867	43
1.18233	43
1.18600	43
1.18967	43
1.19333	40
1.19700	39
1.20067	41
1.20433	42
1.20800	43
1.21167	44
1.21533	45
1.21900	45
1.22267	47
1.22633	49
1.23000	50
1.23367	50
1.23733	50
1.24100	49
1.24467	49
1.24833	49
1.25200	48
1.25567	47
1.25933	47
1.26300	48
1.26667	50
1.27033	50
1.27400	50
1.27767	50
1.28133	48
1.28500	46
1.28867	46
1.29233	47
1.29600	49
1.29967	48
1.30333	46
1.30700	44
1.31067	43
1.31433	41
1.31800	41
1.32167	42
1.32533	44
1.32900	46
1.33267	48
1.33633	50
1.34000	51
1.34367	52
1.34733	53
1.35100	54
1.35467	52
1.35833	51
1.36200	50
1.36567	50
1.36933	51
1.37300	50
1.37667	49
1.38033	49
1.38400	49
1.38767	49
1.39133	49
1.39500	48
1.39867	49
1.40233	50
1.40600	50
1.40967	51
1.41333	52
1.41700	51
1.42067	50
1.42433	49
1.42800	49
1.43167	49
1.43533	49
1.43900	50
1.44267	51
1.44633	52
1.45000	49
1.45367	48
1.45733	49
1.46100	47
1.46467	48
1.46833	47
1.47200	49
1.47567	51
1.47933	52
1.48300	52
1.48667	52
1.49033	53
1.49400	53
1.49767	55
1.50133	55
1.50500	55
1.50867	55
1.51233	54
1.51600	53
1.51967	53
1.52333	55
1.52700	57
1.53067	58
1.53433	59
1.53800	60
1.54167	60
1.54533	59
1.54900	59
1.55267	58
1.55633	56
1.56000	54
1.56367	54
1.56733	53
1.57100	52
1.57467	50
1.57833	49
1.58200	49
1.58567	50
1.58933	53
1.59300	56
1.59667	58
1.60033	57
1.60400	57
1.60767	56
1.61133	56
1.61500	57
1.61867	58
1.62233	59
1.62600	60
1.62967	61
1.63333	62
1.63700	64
1.64067	62
1.64433	60
1.64800	61
1.65167	64
1.65533	66
1.65900	66
1.66267	65
1.66633	65
1.67000	65
1.67367	66
1.67733	69
1.68100	71
1.68467	75
1.68833	77
1.69200	77
1.69567	76
1.69933	75
1.70300	74
1.70667	72
1.71033	71
1.71400	75
1.71767	76
1.72133	77
1.72500	76
1.72867	76
1.73233	75
1.73600	75
1.73967	75
1.74333	76
1.74700	77
1.75067	77
1.75433	80
1.75800	83
1.76167	84
1.76533	83
1.76900	81
1.77267	83
1.77633	86
1.78000	88
1.78367	90
1.78733	91
1.79100	91
1.79467	91
1.79833	91
1.80200	91
1.80567	92
1.80933	94
1.81300	95
1.81667	95
1.82033	95
1.82400	94
1.82767	95
1.83133	96
1.83500	98
1.83867	101
1.84233	101
1.84600	100
1.84967	100
1.85333	100
1.85700	100
1.86067	99
1.86433	101
1.86800	105
1.87167	107
1.87533	108
1.87900	109
1.88267	109
1.88633	109
1.89000	108
1.89367	107
1.89733	104
1.90100	103
1.90467	105
1.90833	106
1.91200	107
1.91567	107
1.91933	108
1.92300	109
1.92667	109
1.93033	109
1.93400	107
1.93767	107
1.94133	108
1.94500	107
1.94867	107
1.95233	109
1.95600	109
1.95967	108
1.96333	110
1.96700	112
1.97067	111
1.97433	114
1.97800	118
1.98167	119
1.98533	122
1.98900	125
1.99267	127
1.99633	129
2.00000	132
2.00367	131
2.00733	131
2.01100	133
2.01467	137
2.01833	136
2.02200	136
2.02567	136
2.02933	136
2.03300	135
2.03667	136
2.04033	137
2.04400	137
2.04767	139
2.05133	142
2.05500	144
2.05867	147
2.06233	148
2.06600	150
2.06967	149
2.07333	148
2.07700	149
2.08067	150
2.08433	152
2.08800	153
2.09167	154
2.09533	158
2.09900	161
2.10267	163
2.10633	165
2.11000	165
2.11367	163
2.11733	164
2.12100	167
2.12467	167
2.12833	168
2.13200	169
2.13567	171
2.13933	174
2.14300	176
2.14667	180
2.15033	185
2.15400	188
2.15767	190
2.16133	191
2.16500	189
2.16867	189
2.17233	189
2.17600	190
2.17967	192
2.18333	194
2.18700	195
2.19067	195
2.19433	198
2.19800	199
2.20167	200
2.20533	201
2.20900	201
2.21267	201
2.21633	202
2.22000	204
2.22367	204
2.22733	207
2.23100	209
2.23467	210
2.23833	212
2.24200	214
2.24567	216
2.24933	218
2.25300	221
2.25667	221
2.26033	220
2.26400	219
2.26767	220
2.27133	224
2.27500	226
2.27867	223
2.28233	221
2.28600	222
2.28967	224
2.29333	226
2.29700	229
2.30067	230
2.30433	227
2.30800	225
2.31167	225
2.31533	226
2.31900	229
2.32267	233
2.32633	238
2.33000	238
2.33367	237
2.33733	237
2.34100	239
2.34467	242
2.34833	244
2.35200	243
2.35567	242
2.35933	244
2.36300	246
2.36667	249
2.37033	250
2.37400	250
2.37767	251
2.38133	251
2.38500	252
2.38867	251
2.39233	249
2.39600	246
2.39967	246
2.40333	247
2.40700	250
2.41067	255
2.41433	260
2.41800	261
2.42167	259
2.42533	262
2.42900	266
2.43267	269
2.43633	272
2.44000	274
2.44367	276
2.44733	276
2.45100	276
2.45467	271
2.45833	267
2.46200	265
2.46567	270
2.46933	282
2.47300	300
2.47667	321
2.48033	343
2.48400	364
2.48767	383
2.49133	403
2.49500	422
2.49867	439
2.50233	454
2.50600	468
2.50967	482
2.51333	495
2.51700	507
2.52067	517
2.52433	527
2.52800	536
2.53167	544
2.53533	554
2.53900	563
2.54267	570
2.54633	576
2.55000	583
2.55367	589
2.55733	596
2.56100	604
2.56467	609
2.56833	611
2.57200	615
2.57567	619
2.57933	622
2.58300	627
2.58667	630
2.59033	632
2.59400	633
2.59767	630
2.60133	621
2.60500	606
2.60867	584
2.61233	557
2.61600	528
2.61967	498
2.62333	466
2.62700	434
2.63067	405
2.63433	382
2.63800	362
2.64167	346
2.64533	334
2.64900	328
2.65267	327
2.65633	329
2.66000	335
2.66367	340
2.66733	347
2.67100	355
2.67467	363
2.67833	371
2.68200	378
2.68567	382
2.68933	388
2.69300	397
2.69667	405
2.70033	414
2.70400	421
2.70767	429
2.71133	437
2.71500	445
2.71867	455
2.72233	464
2.72600	471
2.72967	477
2.73333	481
2.73700	485
2.74067	489
2.74433	491
2.74800	496
2.75167	501
2.75533	505
2.75900	510
2.76267	512
2.76633	515
2.77000	520
2.77367	525
2.77733	532
2.78100	538
2.78467	543
2.78833	545
2.79200	546
2.79567	548
2.79933	551
2.80300	554
2.80667	558
2.81033	559
2.81400	558
2.81767	559
2.82133	564
2.82500	576
2.82867	602
2.83233	658
2.83600	760
2.83967	930
2.84333	1188
2.84700	1551
2.85067	2017
2.85433	2565
2.85800	3165
2.86167	3773
2.86533	4342
2.86900	4830
2.87267	5197
2.87633	5423
2.88000	5504
2.88367	5450
2.88733	5280
2.89100	5023
2.89467	4709
2.89833	4361
2.90200	4002
2.90567	3647
2.90933	3306
2.91300	2984
2.91667	2689
2.92033	2425
2.92400	2190
2.92767	1980
2.93133	1792
2.93500	1626
2.93867	1481
2.94233	1353
2.94600	1241
2.94967	1144
2.95333	1063
2.95700	992
2.96067	930
2.96433	877
2.96800	831
2.97167	788
2.97533	751
2.97900	722
2.98267	697
2.98633	676
2.99000	657
2.99367	638
2.99733	624
3.00100	613
3.00467	603
3.00833	594
3.01200	585
3.01567	578
3.01933	570
3.02300	565
3.02667	562
3.03033	557
3.03400	550
3.03767	543
3.04133	539
3.04500	535
3.04867	533
3.05233	530
3.05600	527
3.05967	525
3.06333	523
3.06700	520
3.07067	518
3.07433	514
3.07800	508
3.08167	503
3.08533	501
3.08900	500
3.09267	499
3.09633	496
3.10000	493
3.10367	491
3.10733	487
3.11100	484
3.11467	483
3.11833	482
3.12200	479
3.12567	476
3.12933	472
3.13300	469
3.13667	467
3.14033	465
3.14400	464
3.14767	461
3.15133	461
3.15500	461
3.15867	458
3.16233	455
3.16600	452
3.16967	450
3.17333	447
3.17700	445
3.18067	445
3.18433	444
3.18800	442
3.19167	439
3.19533	434
3.19900	428
3.20267	425
3.20633	423
3.21000	422
3.21367	421
3.21733	421
3.22100	421
3.22467	419
3.22833	415
3.23200	410
3.23567	407
3.23933	406
3.24300	405
3.24667	403
3.25033	400
3.25400	398
3.25767	398
3.26133	399
3.26500	397
3.26867	395
3.27233	394
3.27600	392
3.27967	390
3.28333	386
3.28700	381
3.29067	377
3.29433	374
3.29800	372
3.30167	370
3.30533	370
3.30900	369
3.31267	366
3.31633	364
3.32000	362
3.32367	359
3.32733	357
3.33100	352
3.33467	346
3.33833	342
3.34200	337
3.34567	335
3.34933	334
3.35300	332
3.35667	329
3.36033	326
3.36400	324
3.36767	321
3.37133	318
3.37500	314
3.37867	313
3.38233	311
3.38600	308
3.38967	306
3.39333	302
3.39700	299
3.40067	296
3.40433	294
3.40800	293
3.41167	292
3.41533	289
3.41900	289
3.42267	287
3.42633	285
3.43000	283
3.43367	281
3.43733	278
3.44100	275
3.44467	271
3.44833	266
3.45200	264
3.45567	263
3.45933	261
3.46300	259
3.46667	257
3.47033	255
3.47400	254
3.47767	254
3.48133	254
3.48500	250
3.48867	246
3.49233	244
3.49600	241
3.49967	238
3.50333	235
3.50700	232
3.51067	232
3.51433	232
3.51800	230
3.52167	229
3.52533	227
3.52900	224
3.53267	221
3.53633	219
3.54000	219
3.54367	219
3.54733	218
3.55100	216
3.55467	216
3.55833	214
3.56200	210
3.56567	204
3.56933	200
3.57300	198
3.57667	196
3.58033	194
3.58400	192
3.58767	189
3.59133	188
3.59500	188
3.59867	186
3.60233	184
3.60600	182
3.60967	181
3.61333	181
3.61700	179
3.62067	178
3.62433	178
3.62800	176
3.63167	175
3.63533	174
3.63900	172
3.64267	170
3.64633	167
3.65000	165
3.65367	163
3.65733	162
3.66100	163
3.66467	162
3.66833	160
3.67200	159
3.67567	157
3.67933	156
3.68300	155
3.68667	153
3.69033	151
3.69400	148
3.69767	146
3.70133	145
3.70500	144
3.70867	143
3.71233	141
3.71600	143
3.71967	143
3.72333	144
3.72700	144
3.73067	142
3.73433	140
3.73800	138
3.74167	135
3.74533	135
3.74900	135
3.75267	135
3.75633	133
3.76000	129
3.76367	125
3.76733	124
3.77100	125
3.77467	127
3.77833	127
3.78200	124
3.78567	122
3.78933	123
3.79300	123
3.79667	122
3.80033	120
3.80400	117
3.80767	118
3.81133	118
3.81500	119
3.81867	119
3.82233	119
3.82600	117
3.82967	116
3.83333	115
3.83700	114
3.84067	114
3.84433	115
3.84800	116
3.85167	116
3.85533	117
3.85900	117
3.86267	116
3.86633	114
3.87000	110
3.87367	106
3.87733	104
3.88100	103
3.88467	104
3.88833	107
3.89200	107
3.89567	106
3.89933	106
3.90300	104
3.90667	103
3.91033	104
3.91400	106
3.91767	104
3.92133	103
3.92500	103
3.92867	101
3.93233	102
3.93600	101
3.93967	99
3.94333	99
3.94700	99
3.95067	97
3.95433	95
3.95800	95
3.96167	97
3.96533	99
3.96900	100
3.97267	100
3.97633	98
3.98000	95
3.98367	90
3.98733	87
3.99100	85
3.99467	85
3.99833	86

[Status Trace (Column Oven Temperature)]
Interval(msec)	1000
# of Points	240
Start Time(min)	0.006
End Time(min)	3.989
Intensity Units	
Intensity Multiplier	1
R.Time (min)	Intensity
0.00605	35.03
0.02272	35.02
0.03938	35.02
0.05605	35.01
0.07272	35.01
0.08938	35.01
0.10605	35.00
0.12272	34.99
0.13938	34.98
0.15605	34.99
0.17272	34.98
0.18938	34.97
0.20605	34.97
0.22272	34.98
0.23938	34.99
0.25605	35.00
0.27272	35.02
0.28938	35.03
0.30605	35.04
0.32272	35.04
0.33938	35.04
0.35605	35.02
0.37272	35.01
0.38938	34.99
0.40605	34.98
0.42272	34.97
0.43938	34.97
0.45605	34.97
0.47272	34.97
0.48938	34.98
0.50605	34.99
0.52272	34.99
0.53938	34.99
0.55605	34.99
0.57272	34.99
0.58938	34.98
0.60605	34.97
0.62272	34.97
0.63938	34.97
0.65605	34.96
0.67272	34.97
0.68938	34.98
0.70605	34.99
0.72272	35.00
0.73938	35.01
0.75605	35.01
0.77272	35.02
0.78938	35.02
0.80605	35.01
0.82272	35.00
0.83938	35.01
0.85605	35.01
0.87272	35.01
0.88938	35.02
0.90605	35.01
0.92272	35.02
0.93938	35.02
0.95605	35.03
0.97272	35.03
0.98938	35.02
1.00605	35.02
1.02272	35.01
1.03938	35.00
1.05605	35.00
1.07272	35.00
1.08938	34.99
1.10605	34.99
1.12272	34.98
1.13938	34.98
1.15605	34.97
1.17272	34.97
1.18938	34.98
1.20605	34.99
1.22272	35.01
1.23938	35.03
1.25605	35.03
1.27272	35.02
1.28938	35.01
1.30605	35.01
1.32272	34.99
1.33938	34.98
1.35605	34.96
1.37272	34.96
1.38938	34.96
1.40605	34.96
1.42272	34.95
1.43938	34.97
1.45605	34.98
1.47272	35.00
1.48938	35.02
1.50605	35.03
1.52272	35.03
1.53938	35.02
1.55605	35.01
1.57272	34.99
1.58938	34.99
1.60605	35.03
1.62272	35.14
1.63938	35.31
1.65605	35.56
1.67272	35.92
1.68938	36.28
1.70605	36.63
1.72272	36.98
1.73938	37.31
1.75605	37.67
1.77272	37.99
1.78938	38.29
1.80605	38.64
1.82272	38.98
1.83938	39.29
1.85605	39.64
1.87272	39.96
1.88938	40.28
1.90605	40.62
1.92272	40.95
1.93938	41.28
1.95605	41.60
1.97272	41.93
1.98938	42.23
2.00605	42.57
2.02272	42.88
2.03938	43.19
2.05605	43.54
2.07272	43.85
2.08938	44.18
2.10605	44.51
2.12272	44.83
2.13938	45.16
2.15605	45.49
2.17272	45.80
2.18938	46.14
2.20605	46.47
2.22272	46.78
2.23938	47.12
2.25605	47.49
2.27272	47.82
2.28938	48.15
2.30605	48.45
2.32272	48.80
2.33938	49.11
2.35605	49.44
2.37272	49.65
2.38938	49.73
2.40605	49.72
2.42272	49.72
2.43938	49.74
2.45605	49.75
2.47272	49.76
2.48938	49.77
2.50605	49.78
2.52272	49.78
2.53938	49.78
2.55605	49.79
2.57272	49.82
2.58938	49.83
2.60605	49.84
2.62272	49.84
2.63938	49.85
2.65605	49.85
2.67272	49.86
2.68938	49.85
2.70605	49.85
2.72272	49.87
2.73938	49.86
2.75605	49.87
2.77272	49.88
2.78938	49.89
2.80605	49.90
2.82272	49.91
2.83938	49.92
2.85605	49.93
2.87272	49.94
2.88938	49.95
2.90605	49.96
2.92272	49.98
2.93938	50.00
2.95605	50.01
2.97272	50.02
2.98938	50.02
3.00605	50.03
3.02272	50.04
3.03938	50.05
3.05605	50.06
3.07272	50.07
3.08938	50.07
3.10605	50.07
3.12272	50.08
3.13938	50.09
3.15605	50.10
3.17272	50.10
3.18938	50.10
3.20605	50.09
3.22272	50.08
3.23938	50.07
3.25605	50.08
3.27272	50.08
3.28938	50.08
3.30605	50.09
3.32272	50.10
3.33938	50.09
3.35605	50.08
3.37272	50.08
3.38938	50.08
3.40605	50.07
3.42272	50.07
3.43938	50.06
3.45605	50.07
3.47272	50.07
3.48938	50.08
3.50605	50.09
3.52272	50.09
3.53938	50.10
3.55605	50.10
3.57272	50.09
3.58938	50.09
3.60605	50.08
3.62272	50.08
3.63938	50.08
3.65605	50.08
3.67272	50.07
3.68938	50.06
3.70605	50.06
3.72272	50.06
3.73938	50.05
3.75605	50.06
3.77272	50.07
3.78938	50.07
3.80605	50.07
3.82272	50.07
3.83938	50.06
3.85605	50.06
3.87272	50.06
3.88938	50.05
3.90605	50.04
3.92272	50.04
3.93938	50.04
3.95605	50.03
3.97272	50.04
3.98938	50.04

[Status Trace (Injection Unit Temperature)]
Interval(msec)	1000
# of Points	240
Start Time(min)	0.006
End Time(min)	3.989
Intensity Units	
Intensity Multiplier	1
R.Time (min)	Intensity
0.00605	99.99
0.02272	99.99
0.03938	99.99
0.05605	99.99
0.07272	99.99
0.08938	99.99
0.10605	99.99
0.12272	99.99
0.13938	99.99
0.15605	99.99
0.17272	99.99
0.18938	99.99
0.20605	99.99
0.22272	99.99
0.23938	99.99
0.25605	99.99
0.27272	99.99
0.28938	99.99
0.30605	99.99
0.32272	99.99
0.33938	99.99
0.35605	99.99
0.37272	99.98
0.38938	99.99
0.40605	99.99
0.42272	99.99
0.43938	99.99
0.45605	99.98
0.47272	99.98
0.48938	99.99
0.50605	99.99
0.52272	99.99
0.53938	99.99
0.55605	99.98
0.57272	99.99
0.58938	99.99
0.60605	99.99
0.62272	99.99
0.63938	99.99
0.65605	99.99
0.67272	99.99
0.68938	99.99
0.70605	99.99
0.72272	99.99
0.73938	99.99
0.75605	99.99
0.77272	99.99
0.78938	99.99
0.80605	99.99
0.82272	99.99
0.83938	99.99
0.85605	99.99
0.87272	99.99
0.88938	99.99
0.90605	99.99
0.92272	99.99
0.93938	99.99
0.95605	99.99
0.97272	99.99
0.98938	99.99
1.00605	99.99
1.02272	99.99
1.03938	99.99
1.05605	99.99
1.07272	99.99
1.08938	99.99
1.10605	99.99
1.12272	99.99
1.13938	99.99
1.15605	99.99
1.17272	99.99
1.18938	99.99
1.20605	99.99
1.22272	99.99
1.23938	99.99
1.25605	99.99
1.27272	99.99
1.28938	99.99
1.30605	99.99
1.32272	99.99
1.33938	99.99
1.35605	99.99
1.37272	99.99
1.38938	99.99
1.40605	99.99
1.42272	99.99
1.43938	99.99
1.45605	99.99
1.47272	99.99
1.48938	99.99
1.50605	99.99
1.52272	99.99
1.53938	99.99
1.55605	99.99
1.57272	99.99
1.58938	99.99
1.60605	99.99
1.62272	99.99
1.63938	99.99
1.65605	99.99
1.67272	99.99
1.68938	99.99
1.70605	99.99
1.72272	99.99
1.73938	99.99
1.75605	99.99
1.77272	99.99
1.78938	99.99
1.80605	99.99
1.82272	99.99
1.83938	99.99
1.85605	99.98
1.87272	99.99
1.88938	99.99
1.90605	99.99
1.92272	99.99
1.93938	99.98
1.95605	99.99
1.97272	99.98
1.98938	99.98
2.00605	99.98
2.02272	99.98
2.03938	99.98
2.05605	99.97
2.07272	99.98
2.08938	99.98
2.10605	99.97
2.12272	99.97
2.13938	99.98
2.15605	99.97
2.17272	99.97
2.18938	99.97
2.20605	99.97
2.22272	99.97
2.23938	99.97
2.25605	99.97
2.27272	99.97
2.28938	99.97
2.30605	99.97
2.32272	99.97
2.33938	99.96
2.35605	99.97
2.37272	99.97
2.38938	99.97
2.40605	99.97
2.42272	99.97
2.43938	99.97
2.45605	99.97
2.47272	99.97
2.48938	99.97
2.50605	99.97
2.52272	99.97
2.53938	99.97
2.55605	99.97
2.57272	99.98
2.58938	99.98
2.60605	99.98
2.62272	99.98
2.63938	99.98
2.65605	99.98
2.67272	99.99
2.68938	99.99
2.70605	99.99
2.72272	99.99
2.73938	100.00
2.75605	100.00
2.77272	100.00
2.78938	100.00
2.80605	100.00
2.82272	100.00
2.83938	100.00
2.85605	100.00
2.87272	100.00
2.88938	100.01
2.90605	100.01
2.92272	100.01
2.93938	100.01
2.95605	100.01
2.97272	100.01
2.98938	100.01
3.00605	100.02
3.02272	100.02
3.03938	100.02
3.05605	100.02
3.07272	100.02
3.08938	100.02
3.10605	100.02
3.12272	100.03
3.13938	100.03
3.15605	100.03
3.17272	100.02
3.18938	100.04
3.20605	100.03
3.22272	100.03
3.23938	100.03
3.25605	100.04
3.27272	100.03
3.28938	100.04
3.30605	100.04
3.32272	100.04
3.33938	100.04
3.35605	100.04
3.37272	100.03
3.38938	100.04
3.40605	100.04
3.42272	100.04
3.43938	100.04
3.45605	100.04
3.47272	100.04
3.48938	100.04
3.50605	100.04
3.52272	100.05
3.53938	100.05
3.55605	100.05
3.57272	100.05
3.58938	100.05
3.60605	100.05
3.62272	100.05
3.63938	100.05
3.65605	100.05
3.67272	100.05
3.68938	100.05
3.70605	100.05
3.72272	100.05
3.73938	100.05
3.75605	100.05
3.77272	100.05
3.78938	100.05
3.80605	100.05
3.82272	100.05
3.83938	100.05
3.85605	100.05
3.87272	100.05
3.88938	100.05
3.90605	100.05
3.92272	100.06
3.93938	100.05
3.95605	100.05
3.97272	100.05
3.98938	100.05

[Status Trace (Carrier Gas Pressure)]
Interval(msec)	1000
# of Points	240
Start Time(min)	0.006
End Time(min)	3.989
Intensity Units	
Intensity Multiplier	1
R.Time (min)	Intensity
0.00605	58.00
0.02272	55.72
0.03938	56.76
0.05605	58.93
0.07272	59.79
0.08938	58.18
0.10605	57.97
0.12272	58.01
0.13938	58.01
0.15605	58.01
0.17272	58.00
0.18938	58.00
0.20605	58.00
0.22272	58.00
0.23938	58.00
0.25605	58.00
0.27272	58.00
0.28938	58.00
0.30605	58.00
0.32272	58.00
0.33938	58.00
0.35605	58.00
0.37272	58.00
0.38938	58.00
0.40605	58.00
0.42272	58.00
0.43938	58.00
0.45605	58.00
0.47272	58.00
0.48938	58.00
0.50605	58.00
0.52272	58.00
0.53938	58.00
0.55605	58.00
0.57272	58.00
0.58938	58.00
0.60605	58.00
0.62272	58.00
0.63938	58.00
0.65605	58.00
0.67272	58.00
0.68938	58.00
0.70605	58.00
0.72272	58.00
0.73938	58.00
0.75605	58.00
0.77272	58.00
0.78938	58.00
0.80605	58.00
0.82272	58.00
0.83938	58.00
0.85605	58.00
0.87272	58.00
0.88938	58.00
0.90605	58.00
0.92272	58.00
0.93938	58.00
0.95605	58.00
0.97272	58.00
0.98938	58.00
1.00605	58.00
1.02272	58.00
1.03938	58.00
1.05605	58.00
1.07272	58.00
1.08938	58.00
1.10605	58.00
1.12272	58.00
1.13938	58.00
1.15605	58.00
1.17272	58.00
1.18938	58.00
1.20605	58.00
1.22272	58.00
1.23938	58.00
1.25605	58.00
1.27272	58.00
1.28938	58.00
1.30605	58.00
1.32272	58.00
1.33938	58.00
1.35605	58.00
1.37272	58.00
1.38938	58.00
1.40605	58.00
1.42272	58.00
1.43938	58.00
1.45605	58.00
1.47272	58.00
1.48938	58.00
1.50605	58.00
1.52272	58.00
1.53938	58.00
1.55605	58.00
1.57272	58.00
1.58938	58.00
1.60605	58.00
1.62272	58.00
1.63938	58.00
1.65605	58.00
1.67272	58.01
1.68938	58.00
1.70605	58.00
1.72272	58.00
1.73938	58.00
1.75605	58.00
1.77272	58.00
1.78938	58.00
1.80605	58.00
1.82272	58.00
1.83938	58.00
1.85605	58.00
1.87272	58.00
1.88938	58.00
1.90605	58.00
1.92272	58.00
1.93938	58.00
1.95605	58.00
1.97272	58.00
1.98938	58.00
2.00605	58.00
2.02272	58.00
2.03938	58.00
2.05605	58.00
2.07272	58.00
2.08938	58.00
2.10605	58.00
2.12272	58.00
2.13938	58.00
2.15605	58.00
2.17272	58.00
2.18938	58.00
2.20605	58.00
2.22272	58.00
2.23938	58.00
2.25605	58.00
2.27272	58.00
2.28938	58.00
2.30605	58.00
2.32272	58.00
2.33938	58.00
2.35605	58.00
2.37272	58.00
2.38938	57.99
2.40605	57.99
2.42272	58.00
2.43938	58.00
2.45605	58.00
2.47272	58.00
2.48938	58.00
2.50605	57.99
2.52272	57.99
2.53938	58.00
2.55605	58.00
2.57272	58.00
2.58938	58.00
2.60605	58.00
2.62272	58.00
2.63938	58.00
2.65605	58.00
2.67272	58.00
2.68938	58.00
2.70605	58.00
2.72272	58.00
2.73938	58.00
2.75605	58.00
2.77272	58.00
2.78938	58.00
2.80605	58.00
2.82272	58.00
2.83938	58.00
2.85605	58.00
2.87272	58.00
2.88938	58.00
2.90605	58.00
2.92272	58.00
2.93938	58.00
2.95605	58.00
2.97272	58.00
2.98938	58.00
3.00605	58.00
3.02272	58.00
3.03938	58.00
3.05605	58.00
3.07272	58.00
3.08938	58.00
3.10605	58.00
3.12272	58.00
3.13938	58.00
3.15605	58.00
3.17272	58.00
3.18938	58.00
3.20605	58.00
3.22272	58.00
3.23938	58.00
3.25605	58.00
3.27272	58.00
3.28938	58.00
3.30605	58.00
3.32272	58.00
3.33938	58.00
3.35605	58.00
3.37272	58.00
3.38938	58.00
3.40605	58.00
3.42272	58.00
3.43938	58.00
3.45605	58.00
3.47272	58.00
3.48938	58.00
3.50605	58.00
3.52272	58.00
3.53938	58.00
3.55605	58.00
3.57272	58.00
3.58938	58.00
3.60605	58.00
3.62272	58.00
3.63938	58.00
3.65605	58.00
3.67272	58.00
3.68938	58.00
3.70605	58.00
3.72272	58.00
3.73938	58.00
3.75605	58.00
3.77272	58.00
3.78938	58.00
3.80605	58.00
3.82272	58.00
3.83938	58.00
3.85605	58.00
3.87272	58.00
3.88938	58.00
3.90605	58.00
3.92272	58.00
3.93938	58.00
3.95605	58.00
3.97272	58.00
3.98938	58.00

[Status Trace (Carrier Gas Flow)]
Interval(msec)	1000
# of Points	240
Start Time(min)	0.006
End Time(min)	3.989
Intensity Units	
Intensity Multiplier	1
R.Time (min)	Intensity
0.00605	34.52
0.02272	34.54
0.03938	34.53
0.05605	34.55
0.07272	34.49
0.08938	34.50
0.10605	34.52
0.12272	34.52
0.13938	34.52
0.15605	34.52
0.17272	34.52
0.18938	34.52
0.20605	34.52
0.22272	34.52
0.23938	34.52
0.25605	34.52
0.27272	34.52
0.28938	34.52
0.30605	34.52
0.32272	34.52
0.33938	34.52
0.35605	34.52
0.37272	34.53
0.38938	34.53
0.40605	34.51
0.42272	34.52
0.43938	34.53
0.45605	34.52
0.47272	34.53
0.48938	34.52
0.50605	34.51
0.52272	34.52
0.53938	34.50
0.55605	34.51
0.57272	34.51
0.58938	34.52
0.60605	34.53
0.62272	34.51
0.63938	34.52
0.65605	34.52
0.67272	34.52
0.68938	34.52
0.70605	34.52
0.72272	34.52
0.73938	34.51
0.75605	34.52
0.77272	34.50
0.78938	34.52
0.80605	34.51
0.82272	34.53
0.83938	34.52
0.85605	34.53
0.87272	34.51
0.88938	34.52
0.90605	34.53
0.92272	34.52
0.93938	34.52
0.95605	34.52
0.97272	34.52
0.98938	34.52
1.00605	34.53
1.02272	34.51
1.03938	34.51
1.05605	34.52
1.07272	34.52
1.08938	34.52
1.10605	34.53
1.12272	34.51
1.13938	34.51
1.15605	34.52
1.17272	34.53
1.18938	34.53
1.20605	34.52
1.22272	34.53
1.23938	34.52
1.25605	34.52
1.27272	34.52
1.28938	34.53
1.30605	34.52
1.32272	34.50
1.33938	34.53
1.35605	34.52
1.37272	34.51
1.38938	34.52
1.40605	34.52
1.42272	34.52
1.43938	34.52
1.45605	34.51
1.47272	34.52
1.48938	34.52
1.50605	34.52
1.52272	34.52
1.53938	34.52
1.55605	34.51
1.57272	34.52
1.58938	34.52
1.60605	34.50
1.62272	34.52
1.63938	34.52
1.65605	34.52
1.67272	34.52
1.68938	34.52
1.70605	34.52
1.72272	34.52
1.73938	34.51
1.75605	34.52
1.77272	34.52
1.78938	34.51
1.80605	34.52
1.82272	34.52
1.83938	34.52
1.85605	34.51
1.87272	34.52
1.88938	34.52
1.90605	34.52
1.92272	34.52
1.93938	34.52
1.95605	34.52
1.97272	34.51
1.98938	34.52
2.00605	34.50
2.02272	34.53
2.03938	34.52
2.05605	34.52
2.07272	34.52
2.08938	34.51
2.10605	34.52
2.12272	34.51
2.13938	34.53
2.15605	34.53
2.17272	34.51
2.18938	34.52
2.20605	34.53
2.22272	34.52
2.23938	34.53
2.25605	34.52
2.27272	34.52
2.28938	34.52
2.30605	34.52
2.32272	34.52
2.33938	34.53
2.35605	34.52
2.37272	34.51
2.38938	34.52
2.40605	34.52
2.42272	34.52
2.43938	34.52
2.45605	34.52
2.47272	34.52
2.48938	34.52
2.50605	34.47
2.52272	34.52
2.53938	34.52
2.55605	34.52
2.57272	34.52
2.58938	34.52
2.60605	34.52
2.62272	34.52
2.63938	34.52
2.65605	34.52
2.67272	34.52
2.68938	34.52
2.70605	34.52
2.72272	34.52
2.73938	34.52
2.75605	34.52
2.77272	34.52
2.78938	34.52
2.80605	34.52
2.82272	34.52
2.83938	34.52
2.85605	34.52
2.87272	34.52
2.88938	34.52
2.90605	34.52
2.92272	34.52
2.93938	34.52
2.95605	34.52
2.97272	34.52
2.98938	34.52
3.00605	34.52
3.02272	34.52
3.03938	34.52
3.05605	34.52
3.07272	34.52
3.08938	34.52
3.10605	34.52
3.12272	34.52
3.13938	34.52
3.15605	34.52
3.17272	34.52
3.18938	34.52
3.20605	34.52
3.22272	34.52
3.23938	34.52
3.25605	34.52
3.27272	34.52
3.28938	34.52
3.30605	34.52
3.32272	34.52
3.33938	34.52
3.35605	34.52
3.37272	34.52
3.38938	34.52
3.40605	34.52
3.42272	34.52
3.43938	34.52
3.45605	34.52
3.47272	34.52
3.48938	34.52
3.50605	34.52
3.52272	34.52
3.53938	34.52
3.55605	34.52
3.57272	34.52
3.58938	34.52
3.60605	34.52
3.62272	34.52
3.63938	34.52
3.65605	34.52
3.67272	34.52
3.68938	34.52
3.70605	34.52
3.72272	34.52
3.73938	34.52
3.75605	34.52
3.77272	34.52
3.78938	34.52
3.80605	34.52
3.82272	34.52
3.83938	34.51
3.85605	34.52
3.87272	34.52
3.88938	34.53
3.90605	34.52
3.92272	34.52
3.93938	34.52
3.95605	34.52
3.97272	34.52
3.98938	34.53

[Status Trace (Column Flow)]
Interval(msec)	1000
# of Points	240
Start Time(min)	0.006
End Time(min)	3.989
Intensity Units	
Intensity Multiplier	1
R.Time (min)	Intensity
0.00605	5.53
0.02272	5.26
0.03938	5.38
0.05605	5.64
0.07272	5.74
0.08938	5.55
0.10605	5.53
0.12272	5.53
0.13938	5.53
0.15605	5.53
0.17272	5.53
0.18938	5.53
0.20605	5.53
0.22272	5.53
0.23938	5.53
0.25605	5.53
0.27272	5.53
0.28938	5.53
0.30605	5.53
0.32272	5.53
0.33938	5.53
0.35605	5.53
0.37272	5.53
0.38938	5.53
0.40605	5.53
0.42272	5.53
0.43938	5.53
0.45605	5.53
0.47272	5.53
0.48938	5.53
0.50605	5.53
0.52272	5.53
0.53938	5.53
0.55605	5.53
0.57272	5.53
0.58938	5.53
0.60605	5.53
0.62272	5.53
0.63938	5.53
0.65605	5.53
0.67272	5.53
0.68938	5.53
0.70605	5.53
0.72272	5.53
0.73938	5.53
0.75605	5.53
0.77272	5.53
0.78938	5.53
0.80605	5.53
0.82272	5.53
0.83938	5.53
0.85605	5.53
0.87272	5.53
0.88938	5.53
0.90605	5.53
0.92272	5.53
0.93938	5.53
0.95605	5.53
0.97272	5.53
0.98938	5.53
1.00605	5.53
1.02272	5.53
1.03938	5.53
1.05605	5.53
1.07272	5.53
1.08938	5.53
1.10605	5.53
1.12272	5.53
1.13938	5.53
1.15605	5.53
1.17272	5.53
1.18938	5.53
1.20605	5.53
1.22272	5.53
1.23938	5.53
1.25605	5.53
1.27272	5.53
1.28938	5.53
1.30605	5.53
1.32272	5.53
1.33938	5.53
1.35605	5.53
1.37272	5.53
1.38938	5.53
1.40605	5.53
1.42272	5.53
1.43938	5.53
1.45605	5.53
1.47272	5.53
1.48938	5.53
1.50605	5.53
1.52272	5.53
1.53938	5.53
1.55605	5.53
1.57272	5.53
1.58938	5.53
1.60605	5.53
1.62272	5.53
1.63938	5.52
1.65605	5.51
1.67272	5.50
1.68938	5.49
1.70605	5.48
1.72272	5.47
1.73938	5.46
1.75605	5.45
1.77272	5.44
1.78938	5.43
1.80605	5.42
1.82272	5.41
1.83938	5.40
1.85605	5.39
1.87272	5.38
1.88938	5.37
1.90605	5.36
1.92272	5.35
1.93938	5.34
1.95605	5.33
1.97272	5.32
1.98938	5.31
2.00605	5.30
2.02272	5.29
2.03938	5.28
2.05605	5.27
2.07272	5.26
2.08938	5.25
2.10605	5.24
2.12272	5.23
2.13938	5.22
2.15605	5.21
2.17272	5.21
2.18938	5.20
2.20605	5.19
2.22272	5.18
2.23938	5.17
2.25605	5.16
2.27272	5.15
2.28938	5.14
2.30605	5.13
2.32272	5.12
2.33938	5.11
2.35605	5.10
2.37272	5.10
2.38938	5.09
2.40605	5.09
2.42272	5.09
2.43938	5.09
2.45605	5.09
2.47272	5.09
2.48938	5.09
2.50605	5.09
2.52272	5.09
2.53938	5.09
2.55605	5.09
2.57272	5.09
2.58938	5.09
2.60605	5.09
2.62272	5.09
2.63938	5.09
2.65605	5.09
2.67272	5.09
2.68938	5.09
2.70605	5.09
2.72272	5.09
2.73938	5.09
2.75605	5.09
2.77272	5.09
2.78938	5.09
2.80605	5.09
2.82272	5.09
2.83938	5.09
2.85605	5.09
2.87272	5.09
2.88938	5.09
2.90605	5.09
2.92272	5.09
2.93938	5.09
2.95605	5.09
2.97272	5.09
2.98938	5.09
3.00605	5.09
3.02272	5.08
3.03938	5.08
3.05605	5.08
3.07272	5.08
3.08938	5.08
3.10605	5.08
3.12272	5.08
3.13938	5.08
3.15605	5.08
3.17272	5.08
3.18938	5.08
3.20605	5.08
3.22272	5.08
3.23938	5.08
3.25605	5.08
3.27272	5.08
3.28938	5.08
3.30605	5.08
3.32272	5.08
3.33938	5.08
3.35605	5.08
3.37272	5.08
3.38938	5.08
3.40605	5.08
3.42272	5.08
3.43938	5.08
3.45605	5.08
3.47272	5.08
3.48938	5.08
3.50605	5.08
3.52272	5.08
3.53938	5.08
3.55605	5.08
3.57272	5.08
3.58938	5.08
3.60605	5.08
3.62272	5.08
3.63938	5.08
3.65605	5.08
3.67272	5.08
3.68938	5.08
3.70605	5.08
3.72272	5.08
3.73938	5.08
3.75605	5.08
3.77272	5.08
3.78938	5.08
3.80605	5.08
3.82272	5.08
3.83938	5.08
3.85605	5.08
3.87272	5.08
3.88938	5.08
3.90605	5.08
3.92272	5.08
3.93938	5.08
3.95605	5.09
3.97272	5.09
3.98938	5.08

[Status Trace (Linear Velocity)]
Interval(msec)	1000
# of Points	240
Start Time(min)	0.006
End Time(min)	3.989
Intensity Units	
Intensity Multiplier	1
R.Time (min)	Intensity
0.00605	39.02
0.02272	37.52
0.03938	38.20
0.05605	39.63
0.07272	40.19
0.08938	39.14
0.10605	39.00
0.12272	39.02
0.13938	39.03
0.15605	39.02
0.17272	39.02
0.18938	39.02
0.20605	39.02
0.22272	39.02
0.23938	39.02
0.25605	39.02
0.27272	39.02
0.28938	39.02
0.30605	39.02
0.32272	39.02
0.33938	39.02
0.35605	39.02
0.37272	39.02
0.38938	39.02
0.40605	39.02
0.42272	39.02
0.43938	39.02
0.45605	39.02
0.47272	39.02
0.48938	39.02
0.50605	39.02
0.52272	39.02
0.53938	39.02
0.55605	39.02
0.57272	39.02
0.58938	39.02
0.60605	39.02
0.62272	39.02
0.63938	39.02
0.65605	39.02
0.67272	39.02
0.68938	39.02
0.70605	39.02
0.72272	39.02
0.73938	39.02
0.75605	39.02
0.77272	39.02
0.78938	39.02
0.80605	39.02
0.82272	39.02
0.83938	39.02
0.85605	39.02
0.87272	39.02
0.88938	39.02
0.90605	39.02
0.92272	39.02
0.93938	39.02
0.95605	39.02
0.97272	39.02
0.98938	39.02
1.00605	39.02
1.02272	39.02
1.03938	39.02
1.05605	39.02
1.07272	39.02
1.08938	39.02
1.10605	39.02
1.12272	39.02
1.13938	39.02
1.15605	39.02
1.17272	39.02
1.18938	39.02
1.20605	39.02
1.22272	39.02
1.23938	39.02
1.25605	39.02
1.27272	39.02
1.28938	39.02
1.30605	39.02
1.32272	39.02
1.33938	39.02
1.35605	39.02
1.37272	39.02
1.38938	39.02
1.40605	39.02
1.42272	39.02
1.43938	39.02
1.45605	39.02
1.47272	39.02
1.48938	39.02
1.50605	39.02
1.52272	39.02
1.53938	39.02
1.55605	39.02
1.57272	39.02
1.58938	39.02
1.60605	39.02
1.62272	39.01
1.63938	38.99
1.65605	38.97
1.67272	38.94
1.68938	38.90
1.70605	38.86
1.72272	38.83
1.73938	38.80
1.75605	38.77
1.77272	38.74
1.78938	38.71
1.80605	38.67
1.82272	38.64
1.83938	38.61
1.85605	38.58
1.87272	38.55
1.88938	38.52
1.90605	38.49
1.92272	38.46
1.93938	38.43
1.95605	38.39
1.97272	38.37
1.98938	38.34
2.00605	38.31
2.02272	38.28
2.03938	38.25
2.05605	38.22
2.07272	38.19
2.08938	38.16
2.10605	38.13
2.12272	38.10
2.13938	38.07
2.15605	38.04
2.17272	38.01
2.18938	37.98
2.20605	37.95
2.22272	37.92
2.23938	37.89
2.25605	37.86
2.27272	37.83
2.28938	37.80
2.30605	37.77
2.32272	37.74
2.33938	37.72
2.35605	37.68
2.37272	37.67
2.38938	37.65
2.40605	37.65
2.42272	37.66
2.43938	37.66
2.45605	37.66
2.47272	37.65
2.48938	37.65
2.50605	37.65
2.52272	37.65
2.53938	37.65
2.55605	37.65
2.57272	37.65
2.58938	37.65
2.60605	37.65
2.62272	37.65
2.63938	37.65
2.65605	37.65
2.67272	37.65
2.68938	37.65
2.70605	37.65
2.72272	37.65
2.73938	37.65
2.75605	37.65
2.77272	37.65
2.78938	37.64
2.80605	37.64
2.82272	37.64
2.83938	37.64
2.85605	37.64
2.87272	37.64
2.88938	37.64
2.90605	37.64
2.92272	37.64
2.93938	37.63
2.95605	37.63
2.97272	37.63
2.98938	37.63
3.00605	37.63
3.02272	37.63
3.03938	37.63
3.05605	37.63
3.07272	37.63
3.08938	37.63
3.10605	37.63
3.12272	37.63
3.13938	37.63
3.15605	37.63
3.17272	37.63
3.18938	37.63
3.20605	37.63
3.22272	37.63
3.23938	37.63
3.25605	37.63
3.27272	37.63
3.28938	37.63
3.30605	37.63
3.32272	37.63
3.33938	37.63
3.35605	37.63
3.37272	37.63
3.38938	37.63
3.40605	37.63
3.42272	37.63
3.43938	37.63
3.45605	37.63
3.47272	37.63
3.48938	37.63
3.50605	37.63
3.52272	37.63
3.53938	37.63
3.55605	37.63
3.57272	37.63
3.58938	37.63
3.60605	37.63
3.62272	37.63
3.63938	37.63
3.65605	37.63
3.67272	37.63
3.68938	37.63
3.70605	37.63
3.72272	37.63
3.73938	37.63
3.75605	37.63
3.77272	37.63
3.78938	37.63
3.80605	37.63
3.82272	37.63
3.83938	37.63
3.85605	37.63
3.87272	37.63
3.88938	37.63
3.90605	37.63
3.92272	37.63
3.93938	37.63
3.95605	37.63
3.97272	37.63
3.98938	37.63

