[Header]
Application Name	LabSolutions
Version	5.110
Data File Name	C:\Users\User\Desktop\GC Analyses\Jack\UIC Prairie Sampling\7.9.22\220909_015.gcd
Output Date	9/28/2022
Output Time	11:29:49 AM

[File Information]
Type	Data File
Generated	9/9/2022 3:08:51 PM
Generated by	System Administrator
Modified	9/9/2022 3:13:13 PM
Modified by	System Administrator

[Sample Information]
Operator Name	System Administrator
Acquired	9/9/2022 3:09:13 PM
Sample Type	1:Standard
Level	1
Sample Name	220909_Run
Sample ID	220909_Run
ISTD Amount1	1
ISTD Amount2	1
ISTD Amount3	1
ISTD Amount4	1
ISTD Amount5	1
ISTD Amount6	1
ISTD Amount7	1
ISTD Amount8	1
ISTD Amount9	1
ISTD Amount10	1
ISTD Amount11	1
ISTD Amount12	1
ISTD Amount13	1
ISTD Amount14	1
ISTD Amount15	1
ISTD Amount16	1
ISTD Amount17	1
ISTD Amount18	1
ISTD Amount19	1
ISTD Amount20	1
ISTD Amount21	1
ISTD Amount22	1
ISTD Amount23	1
ISTD Amount24	1
ISTD Amount25	1
ISTD Amount26	1
ISTD Amount27	1
ISTD Amount28	1
ISTD Amount29	1
ISTD Amount30	1
ISTD Amount31	1
ISTD Amount32	1
Sample Amount	1
Dilution Factor	1
Vial#	1
Injection Volume	1
Injection Count	1
Bar Code	

[Original Files]
Data File	C:\Users\User\Desktop\GC Analyses\Jack\220909\220909_015.gcd
Method File	C:\LabSolutions\Data\GHG_4min_2022\ghg3_togas_w_acet_4 min_new_int.gcm
Batch File	
Report Format File	c:\LabSolutions\System\DEFAULT.lsr

[File Description]


[Configuration]
Instrument Name	C0B7VH3-Instrument1
Instrument #	1
Line #	1
# of Detectors	3
Detector ID	DET#1	DET#2	DET#3
Detector Name	FID	PTCD	ECD
# of Channels	1	1	1

[Peak Table(Ch1)]
# of Peaks	3
Peak#	R.Time	I.Time	F.Time	Area	Height	A/H	Conc.	Mark	ID#	Name	k'	Plate #	Plate Ht.	Tailing	Resolution	Sep.Factor	Area Ratio	Height Ratio	Conc. %	Norm Conc.
1	1.472	1.435	1.538	16251	7407	2.194	100.000	   	1	CO	0.000	8571	17.501	1.283	0.000	0.000	0	0	16.667	16.667
2	1.567	1.538	1.615	4385	2278	1.925	100.000	 V 	2	CH4	0.065	11336	13.232	1.200	1.557	0.000	0	0	16.667	16.667
3	1.996	1.941	2.301	1858246	916167	2.028	400.000	   	3	CO2	0.356	17991	8.337	1.185	7.246	5.500	0	0	66.667	66.667

[Peak Table(Ch2)]
# of Peaks	0

[Peak Table(Ch3)]
# of Peaks	2
Peak#	R.Time	I.Time	F.Time	Area	Height	A/H	Conc.	Mark	ID#	Name	k'	Plate #	Plate Ht.	Tailing	Resolution	Sep.Factor	Area Ratio	Height Ratio	Conc. %	Norm Conc.
1	2.583	2.396	2.653	4546	535	8.502	0.000	   			0.000	2432	61.682	0.000	0.000	0.000	0	0	0.000	0.000
2	2.876	2.653	3.877	47669	6223	7.660	1.000	 V 	1	N2O	0.114	11412	13.144	2.223	1.849	0.000	0	0	100.000	100.000

[Compound Results(Ch1)]
# of IDs	6
ID#	Name	R.Time	Area	Height	Conc.	Curve	3rd	2nd	1st	Constant	Area Ratio	Height Ratio	Conc. %	Norm Conc.
1	CO	1.472	16251	7407	100.000	Linear	0.000000e+00	0.000000e+00	1.625146e+002	0.000000e+00	0	0	16.667	16.667
2	CH4	1.567	4385	2278	100.000	Linear	0.000000e+00	0.000000e+00	4.385334e+001	0.000000e+00	0	0	16.667	16.667
3	CO2	1.996	1858246	916167	400.000	Linear	0.000000e+00	0.000000e+00	4.645614e+003	0.000000e+00	0	0	66.667	66.667
4	Ethylene	0.000	0	0	0.000	Linear	0.000000e+00	0.000000e+00	0.000000e+00	0.000000e+00	0	0	0.000	0.000
5	Acetylene	0.000	0	0	0.000	Linear	0.000000e+00	0.000000e+00	0.000000e+00	0.000000e+00	0	0	0.000	0.000
6	Ethane	0.000	0	0	0.000	Linear	0.000000e+00	0.000000e+00	0.000000e+00	0.000000e+00	0	0	0.000	0.000

[Compound Results(Ch2)]
# of IDs	5
ID#	Name	R.Time	Area	Height	Conc.	Curve	3rd	2nd	1st	Constant	Area Ratio	Height Ratio	Conc. %	Norm Conc.
1	Hydrogen	0.000	0	0	0.000	Linear	0.000000e+00	0.000000e+00	0.000000e+00	0.000000e+00	0	0	0.000	0.000
2	Oxygen	0.000	0	0	0.000	Linear	0.000000e+00	0.000000e+00	0.000000e+00	0.000000e+00	0	0	0.000	0.000
3	Nitrogen	0.000	0	0	0.000	Linear	0.000000e+00	0.000000e+00	0.000000e+00	0.000000e+00	0	0	0.000	0.000
4	Methane	0.000	0	0	0.000	Linear	0.000000e+00	0.000000e+00	0.000000e+00	0.000000e+00	0	0	0.000	0.000
5	Carbon Monoxide	0.000	0	0	0.000	Linear	0.000000e+00	0.000000e+00	0.000000e+00	0.000000e+00	0	0	0.000	0.000

[Compound Results(Ch3)]
# of IDs	2
ID#	Name	R.Time	Area	Height	Conc.	Curve	3rd	2nd	1st	Constant	Area Ratio	Height Ratio	Conc. %	Norm Conc.
1	N2O	2.876	47669	6223	1.000	Linear	0.000000e+00	0.000000e+00	4.766902e+004	0.000000e+00	0	0	100.000	100.000
2	SF6	0.000	0	0	0.000	Linear	0.000000e+00	0.000000e+00	0.000000e+00	0.000000e+00	0	0	0.000	0.000

[Group Results(Ch1)]
# of Groups	0

[Group Results(Ch2)]
# of Groups	0

[Group Results(Ch3)]
# of Groups	0

[Chromatogram (Ch1)]
Interval(msec)	220
# of Points	1091
Start Time(min)	0.002
End Time(min)	3.998
R.Time (min)	Intensity
0.00167	2
0.00533	11
0.00900	8
0.01267	7
0.01633	7
0.02000	4
0.02367	5
0.02733	9
0.03100	12
0.03467	13
0.03833	11
0.04200	3
0.04567	-6
0.04933	-11
0.05300	-13
0.05667	-10
0.06033	-5
0.06400	-1
0.06767	0
0.07133	1
0.07500	6
0.07867	13
0.08233	18
0.08600	23
0.08967	27
0.09333	27
0.09700	26
0.10067	23
0.10433	16
0.10800	7
0.11167	-2
0.11533	-10
0.11900	-18
0.12267	-23
0.12633	-23
0.13000	-20
0.13367	-14
0.13733	-8
0.14100	-5
0.14467	-6
0.14833	-10
0.15200	-12
0.15567	-8
0.15933	-1
0.16300	5
0.16667	6
0.17033	10
0.17400	17
0.17767	22
0.18133	19
0.18500	13
0.18867	4
0.19233	-4
0.19600	-6
0.19967	-3
0.20333	0
0.20700	-1
0.21067	-6
0.21433	-11
0.21800	-12
0.22167	-11
0.22533	-8
0.22900	-8
0.23267	-9
0.23633	-13
0.24000	-17
0.24367	-20
0.24733	-21
0.25100	-23
0.25467	-25
0.25833	-29
0.26200	-31
0.26567	-29
0.26933	-26
0.27300	-23
0.27667	-18
0.28033	-10
0.28400	-1
0.28767	3
0.29133	2
0.29500	0
0.29867	-0
0.30233	-2
0.30600	1
0.30967	1
0.31333	-1
0.31700	-5
0.32067	-8
0.32433	-11
0.32800	-16
0.33167	-19
0.33533	-21
0.33900	-23
0.34267	-24
0.34633	-26
0.35000	-28
0.35367	-30
0.35733	-28
0.36100	-22
0.36467	-18
0.36833	-19
0.37200	-24
0.37567	-27
0.37933	-25
0.38300	-17
0.38667	-10
0.39033	-10
0.39400	-16
0.39767	-20
0.40133	-20
0.40500	-17
0.40867	-13
0.41233	-7
0.41600	-2
0.41967	0
0.42333	1
0.42700	0
0.43067	-4
0.43433	-12
0.43800	-21
0.44167	-26
0.44533	-27
0.44900	-27
0.45267	-24
0.45633	-21
0.46000	-20
0.46367	-20
0.46733	-19
0.47100	-16
0.47467	-18
0.47833	-23
0.48200	-28
0.48567	-29
0.48933	-23
0.49300	-16
0.49667	-12
0.50033	-15
0.50400	-23
0.50767	-29
0.51133	-30
0.51500	-29
0.51867	-30
0.52233	-29
0.52600	-26
0.52967	-21
0.53333	-18
0.53700	-18
0.54067	-16
0.54433	-13
0.54800	-14
0.55167	-22
0.55533	-33
0.55900	-44
0.56267	-50
0.56633	-50
0.57000	-49
0.57367	-47
0.57733	-43
0.58100	-39
0.58467	-36
0.58833	-35
0.59200	-39
0.59567	-42
0.59933	-39
0.60300	-33
0.60667	-27
0.61033	-23
0.61400	-17
0.61767	-14
0.62133	-13
0.62500	-15
0.62867	-14
0.63233	-11
0.63600	-10
0.63967	-14
0.64333	-23
0.64700	-33
0.65067	-42
0.65433	-54
0.65800	-66
0.66167	-73
0.66533	-77
0.66900	-79
0.67267	-76
0.67633	-67
0.68000	-57
0.68367	-50
0.68733	-47
0.69100	-45
0.69467	-45
0.69833	-47
0.70200	-47
0.70567	-47
0.70933	-51
0.71300	-56
0.71667	-55
0.72033	-48
0.72400	-39
0.72767	-31
0.73133	-25
0.73500	-22
0.73867	-23
0.74233	-28
0.74600	-34
0.74967	-40
0.75333	-44
0.75700	-47
0.76067	-48
0.76433	-49
0.76800	-49
0.77167	-47
0.77533	-40
0.77900	-35
0.78267	-35
0.78633	-45
0.79000	-56
0.79367	-64
0.79733	-69
0.80100	-74
0.80467	-78
0.80833	-79
0.81200	-74
0.81567	-64
0.81933	-59
0.82300	-59
0.82667	-57
0.83033	-56
0.83400	-57
0.83767	-56
0.84133	-53
0.84500	-47
0.84867	-40
0.85233	-39
0.85600	-42
0.85967	-43
0.86333	-40
0.86700	-37
0.87067	-39
0.87433	-43
0.87800	-47
0.88167	-47
0.88533	-42
0.88900	-37
0.89267	-35
0.89633	-41
0.90000	-52
0.90367	-66
0.90733	-77
0.91100	-81
0.91467	-80
0.91833	-79
0.92200	-80
0.92567	-78
0.92933	-73
0.93300	-65
0.93667	-55
0.94033	-49
0.94400	-48
0.94767	-47
0.95133	-46
0.95500	-47
0.95867	-49
0.96233	-51
0.96600	-50
0.96967	-47
0.97333	-47
0.97700	-46
0.98067	-46
0.98433	-48
0.98800	-50
0.99167	-50
0.99533	-48
0.99900	-47
1.00267	-49
1.00633	-49
1.01000	-46
1.01367	-44
1.01733	-45
1.02100	-51
1.02467	-58
1.02833	-67
1.03200	-75
1.03567	-80
1.03933	-80
1.04300	-80
1.04667	-77
1.05033	-75
1.05400	-76
1.05767	-77
1.06133	-78
1.06500	-78
1.06867	-74
1.07233	-68
1.07600	-66
1.07967	-67
1.08333	-68
1.08700	-72
1.09067	-74
1.09433	-74
1.09800	-74
1.10167	-74
1.10533	-74
1.10900	-72
1.11267	-69
1.11633	-64
1.12000	-61
1.12367	-58
1.12733	-58
1.13100	-60
1.13467	-61
1.13833	-63
1.14200	-66
1.14567	-70
1.14933	-74
1.15300	-76
1.15667	-79
1.16033	-86
1.16400	-92
1.16767	-92
1.17133	-88
1.17500	-83
1.17867	-81
1.18233	-81
1.18600	-83
1.18967	-84
1.19333	-86
1.19700	-86
1.20067	-86
1.20433	-84
1.20800	-77
1.21167	-72
1.21533	-68
1.21900	-66
1.22267	-69
1.22633	-76
1.23000	-85
1.23367	-91
1.23733	-88
1.24100	-80
1.24467	-76
1.24833	-81
1.25200	-85
1.25567	-88
1.25933	-90
1.26300	-88
1.26667	-82
1.27033	-78
1.27400	-73
1.27767	-68
1.28133	-68
1.28500	-74
1.28867	-76
1.29233	-75
1.29600	-73
1.29967	-76
1.30333	-80
1.30700	-78
1.31067	-76
1.31433	-81
1.31800	-90
1.32167	-97
1.32533	-100
1.32900	-100
1.33267	-97
1.33633	-93
1.34000	-90
1.34367	-93
1.34733	-96
1.35100	-95
1.35467	-94
1.35833	-94
1.36200	-93
1.36567	-90
1.36933	-85
1.37300	-80
1.37667	-76
1.38033	-74
1.38400	-77
1.38767	-83
1.39133	-87
1.39500	-90
1.39867	-92
1.40233	-94
1.40600	-93
1.40967	-91
1.41333	-88
1.41700	-85
1.42067	-84
1.42433	-86
1.42800	-88
1.43167	-92
1.43533	-89
1.43900	-39
1.44267	176
1.44633	687
1.45000	1537
1.45367	2726
1.45733	4109
1.46100	5432
1.46467	6485
1.46833	7133
1.47200	7315
1.47567	7050
1.47933	6417
1.48300	5531
1.48667	4527
1.49033	3541
1.49400	2669
1.49767	1955
1.50133	1399
1.50500	983
1.50867	679
1.51233	459
1.51600	300
1.51967	181
1.52333	97
1.52700	35
1.53067	-12
1.53433	-46
1.53800	-51
1.54167	21
1.54533	230
1.54900	592
1.55267	1037
1.55633	1469
1.56000	1824
1.56367	2072
1.56733	2178
1.57100	2112
1.57467	1877
1.57833	1531
1.58200	1154
1.58567	810
1.58933	535
1.59300	328
1.59667	180
1.60033	76
1.60400	3
1.60767	-49
1.61133	-85
1.61500	-104
1.61867	-110
1.62233	-110
1.62600	-108
1.62967	-106
1.63333	-105
1.63700	-107
1.64067	-110
1.64433	-117
1.64800	-126
1.65167	-131
1.65533	-131
1.65900	-128
1.66267	-125
1.66633	-122
1.67000	-123
1.67367	-127
1.67733	-126
1.68100	-122
1.68467	-119
1.68833	-118
1.69200	-120
1.69567	-123
1.69933	-127
1.70300	-130
1.70667	-133
1.71033	-135
1.71400	-136
1.71767	-135
1.72133	-130
1.72500	-126
1.72867	-125
1.73233	-123
1.73600	-121
1.73967	-118
1.74333	-115
1.74700	-115
1.75067	-117
1.75433	-119
1.75800	-120
1.76167	-122
1.76533	-117
1.76900	-114
1.77267	-112
1.77633	-110
1.78000	-109
1.78367	-110
1.78733	-111
1.79100	-112
1.79467	-109
1.79833	-101
1.80200	-92
1.80567	-84
1.80933	-82
1.81300	-87
1.81667	-95
1.82033	-105
1.82400	-115
1.82767	-124
1.83133	-128
1.83500	-130
1.83867	-125
1.84233	-115
1.84600	-106
1.84967	-101
1.85333	-101
1.85700	-106
1.86067	-108
1.86433	-108
1.86800	-107
1.87167	-105
1.87533	-104
1.87900	-104
1.88267	-104
1.88633	-103
1.89000	-100
1.89367	-94
1.89733	-86
1.90100	-83
1.90467	-88
1.90833	-93
1.91200	-98
1.91567	-104
1.91933	-109
1.92300	-111
1.92667	-108
1.93033	-106
1.93400	-106
1.93767	-108
1.94133	-105
1.94500	-96
1.94867	-83
1.95233	-31
1.95600	286
1.95967	1979
1.96333	8956
1.96700	30852
1.97067	83771
1.97433	183105
1.97800	330159
1.98167	505510
1.98533	677185
1.98900	815276
1.99267	898635
1.99633	916092
2.00000	867956
2.00367	766739
2.00733	634307
2.01100	494860
2.01467	367449
2.01833	262436
2.02200	182194
2.02567	124144
2.02933	83729
2.03300	56320
2.03667	38041
2.04033	25964
2.04400	18008
2.04767	12749
2.05133	9242
2.05500	6873
2.05867	5245
2.06233	4106
2.06600	3294
2.06967	2705
2.07333	2267
2.07700	1933
2.08067	1675
2.08433	1474
2.08800	1311
2.09167	1173
2.09533	1057
2.09900	961
2.10267	875
2.10633	802
2.11000	741
2.11367	689
2.11733	640
2.12100	594
2.12467	551
2.12833	513
2.13200	484
2.13567	464
2.13933	448
2.14300	432
2.14667	414
2.15033	393
2.15400	374
2.15767	359
2.16133	344
2.16500	327
2.16867	308
2.17233	290
2.17600	275
2.17967	265
2.18333	257
2.18700	250
2.19067	246
2.19433	242
2.19800	236
2.20167	227
2.20533	220
2.20900	216
2.21267	212
2.21633	206
2.22000	199
2.22367	192
2.22733	188
2.23100	185
2.23467	178
2.23833	165
2.24200	151
2.24567	140
2.24933	132
2.25300	132
2.25667	135
2.26033	136
2.26400	131
2.26767	123
2.27133	117
2.27500	115
2.27867	112
2.28233	105
2.28600	100
2.28967	98
2.29333	98
2.29700	94
2.30067	88
2.30433	85
2.30800	84
2.31167	84
2.31533	84
2.31900	84
2.32267	82
2.32633	83
2.33000	86
2.33367	86
2.33733	85
2.34100	84
2.34467	81
2.34833	78
2.35200	72
2.35567	63
2.35933	55
2.36300	50
2.36667	47
2.37033	49
2.37400	54
2.37767	56
2.38133	54
2.38500	50
2.38867	45
2.39233	40
2.39600	39
2.39967	42
2.40333	46
2.40700	48
2.41067	45
2.41433	42
2.41800	41
2.42167	42
2.42533	42
2.42900	37
2.43267	26
2.43633	21
2.44000	18
2.44367	17
2.44733	18
2.45100	20
2.45467	22
2.45833	22
2.46200	20
2.46567	16
2.46933	16
2.47300	16
2.47667	13
2.48033	11
2.48400	9
2.48767	7
2.49133	5
2.49500	2
2.49867	-0
2.50233	0
2.50600	2
2.50967	5
2.51333	9
2.51700	15
2.52067	18
2.52433	15
2.52800	7
2.53167	-6
2.53533	-16
2.53900	-21
2.54267	-22
2.54633	-19
2.55000	-15
2.55367	-11
2.55733	-5
2.56100	-2
2.56467	-3
2.56833	-10
2.57200	-17
2.57567	-23
2.57933	-25
2.58300	-22
2.58667	-20
2.59033	-21
2.59400	-23
2.59767	-25
2.60133	-29
2.60500	-33
2.60867	-38
2.61233	-39
2.61600	-34
2.61967	-28
2.62333	-24
2.62700	-23
2.63067	-23
2.63433	-25
2.63800	-24
2.64167	-25
2.64533	-29
2.64900	-33
2.65267	-36
2.65633	-37
2.66000	-37
2.66367	-38
2.66733	-37
2.67100	-33
2.67467	-28
2.67833	-24
2.68200	-21
2.68567	-21
2.68933	-23
2.69300	-26
2.69667	-29
2.70033	-29
2.70400	-30
2.70767	-33
2.71133	-35
2.71500	-36
2.71867	-37
2.72233	-35
2.72600	-30
2.72967	-26
2.73333	-26
2.73700	-29
2.74067	-31
2.74433	-29
2.74800	-31
2.75167	-32
2.75533	-31
2.75900	-32
2.76267	-34
2.76633	-34
2.77000	-32
2.77367	-30
2.77733	-30
2.78100	-29
2.78467	-27
2.78833	-25
2.79200	-27
2.79567	-30
2.79933	-30
2.80300	-27
2.80667	-23
2.81033	-23
2.81400	-26
2.81767	-27
2.82133	-28
2.82500	-31
2.82867	-35
2.83233	-39
2.83600	-44
2.83967	-49
2.84333	-51
2.84700	-52
2.85067	-52
2.85433	-50
2.85800	-42
2.86167	-33
2.86533	-30
2.86900	-32
2.87267	-38
2.87633	-41
2.88000	-40
2.88367	-42
2.88733	-43
2.89100	-42
2.89467	-41
2.89833	-39
2.90200	-37
2.90567	-40
2.90933	-43
2.91300	-45
2.91667	-46
2.92033	-46
2.92400	-45
2.92767	-43
2.93133	-38
2.93500	-32
2.93867	-29
2.94233	-27
2.94600	-28
2.94967	-35
2.95333	-46
2.95700	-56
2.96067	-63
2.96433	-67
2.96800	-67
2.97167	-62
2.97533	-57
2.97900	-51
2.98267	-44
2.98633	-36
2.99000	-29
2.99367	-28
2.99733	-32
3.00100	-35
3.00467	-36
3.00833	-34
3.01200	-32
3.01567	-28
3.01933	-27
3.02300	-29
3.02667	-32
3.03033	-36
3.03400	-39
3.03767	-39
3.04133	-39
3.04500	-37
3.04867	-33
3.05233	-32
3.05600	-34
3.05967	-38
3.06333	-42
3.06700	-42
3.07067	-39
3.07433	-32
3.07800	-22
3.08167	-16
3.08533	-16
3.08900	-20
3.09267	-24
3.09633	-25
3.10000	-25
3.10367	-25
3.10733	-28
3.11100	-38
3.11467	-49
3.11833	-56
3.12200	-57
3.12567	-50
3.12933	-39
3.13300	-30
3.13667	-27
3.14033	-28
3.14400	-36
3.14767	-47
3.15133	-55
3.15500	-58
3.15867	-57
3.16233	-51
3.16600	-47
3.16967	-45
3.17333	-47
3.17700	-54
3.18067	-58
3.18433	-59
3.18800	-55
3.19167	-49
3.19533	-43
3.19900	-40
3.20267	-41
3.20633	-46
3.21000	-54
3.21367	-59
3.21733	-61
3.22100	-58
3.22467	-51
3.22833	-45
3.23200	-42
3.23567	-38
3.23933	-34
3.24300	-30
3.24667	-29
3.25033	-32
3.25400	-36
3.25767	-39
3.26133	-40
3.26500	-40
3.26867	-36
3.27233	-32
3.27600	-31
3.27967	-34
3.28333	-39
3.28700	-43
3.29067	-46
3.29433	-47
3.29800	-43
3.30167	-36
3.30533	-33
3.30900	-33
3.31267	-34
3.31633	-36
3.32000	-39
3.32367	-42
3.32733	-46
3.33100	-46
3.33467	-45
3.33833	-46
3.34200	-51
3.34567	-54
3.34933	-55
3.35300	-55
3.35667	-53
3.36033	-52
3.36400	-53
3.36767	-54
3.37133	-52
3.37500	-49
3.37867	-48
3.38233	-48
3.38600	-51
3.38967	-56
3.39333	-55
3.39700	-49
3.40067	-40
3.40433	-36
3.40800	-38
3.41167	-43
3.41533	-48
3.41900	-50
3.42267	-45
3.42633	-40
3.43000	-39
3.43367	-40
3.43733	-42
3.44100	-45
3.44467	-44
3.44833	-39
3.45200	-35
3.45567	-36
3.45933	-40
3.46300	-43
3.46667	-45
3.47033	-48
3.47400	-49
3.47767	-49
3.48133	-51
3.48500	-55
3.48867	-56
3.49233	-52
3.49600	-49
3.49967	-45
3.50333	-44
3.50700	-47
3.51067	-54
3.51433	-61
3.51800	-65
3.52167	-62
3.52533	-53
3.52900	-40
3.53267	-32
3.53633	-35
3.54000	-47
3.54367	-61
3.54733	-73
3.55100	-78
3.55467	-77
3.55833	-73
3.56200	-68
3.56567	-63
3.56933	-60
3.57300	-55
3.57667	-55
3.58033	-58
3.58400	-58
3.58767	-52
3.59133	-49
3.59500	-51
3.59867	-55
3.60233	-58
3.60600	-60
3.60967	-59
3.61333	-57
3.61700	-54
3.62067	-50
3.62433	-50
3.62800	-52
3.63167	-57
3.63533	-61
3.63900	-64
3.64267	-64
3.64633	-63
3.65000	-64
3.65367	-62
3.65733	-56
3.66100	-47
3.66467	-39
3.66833	-39
3.67200	-44
3.67567	-49
3.67933	-54
3.68300	-59
3.68667	-61
3.69033	-60
3.69400	-61
3.69767	-63
3.70133	-66
3.70500	-66
3.70867	-58
3.71233	-48
3.71600	-39
3.71967	-37
3.72333	-41
3.72700	-47
3.73067	-50
3.73433	-53
3.73800	-54
3.74167	-52
3.74533	-48
3.74900	-45
3.75267	-40
3.75633	-34
3.76000	-32
3.76367	-35
3.76733	-38
3.77100	-43
3.77467	-44
3.77833	-44
3.78200	-47
3.78567	-49
3.78933	-46
3.79300	-40
3.79667	-38
3.80033	-37
3.80400	-37
3.80767	-37
3.81133	-40
3.81500	-36
3.81867	-36
3.82233	-43
3.82600	-54
3.82967	-67
3.83333	-73
3.83700	-72
3.84067	-68
3.84433	-65
3.84800	-65
3.85167	-61
3.85533	-55
3.85900	-51
3.86267	-51
3.86633	-54
3.87000	-57
3.87367	-58
3.87733	-59
3.88100	-57
3.88467	-55
3.88833	-52
3.89200	-50
3.89567	-51
3.89933	-54
3.90300	-56
3.90667	-55
3.91033	-56
3.91400	-59
3.91767	-59
3.92133	-54
3.92500	-47
3.92867	-41
3.93233	-35
3.93600	-33
3.93967	-35
3.94333	-40
3.94700	-44
3.95067	-48
3.95433	-51
3.95800	-54
3.96167	-57
3.96533	-57
3.96900	-54
3.97267	-50
3.97633	-44
3.98000	-42
3.98367	-42
3.98733	-43
3.99100	-47
3.99467	-52
3.99833	-55

[Chromatogram (Ch2)]
Interval(msec)	220
# of Points	1091
Start Time(min)	0.002
End Time(min)	3.998
R.Time (min)	Intensity
0.00167	0
0.00533	0
0.00900	1
0.01267	1
0.01633	0
0.02000	0
0.02367	0
0.02733	0
0.03100	-0
0.03467	-0
0.03833	-0
0.04200	-0
0.04567	-0
0.04933	0
0.05300	0
0.05667	0
0.06033	0
0.06400	0
0.06767	1
0.07133	1
0.07500	2
0.07867	2
0.08233	2
0.08600	3
0.08967	3
0.09333	4
0.09700	4
0.10067	4
0.10433	5
0.10800	5
0.11167	5
0.11533	5
0.11900	5
0.12267	5
0.12633	4
0.13000	4
0.13367	3
0.13733	3
0.14100	2
0.14467	2
0.14833	2
0.15200	1
0.15567	1
0.15933	1
0.16300	1
0.16667	1
0.17033	1
0.17400	1
0.17767	2
0.18133	2
0.18500	3
0.18867	3
0.19233	3
0.19600	3
0.19967	3
0.20333	3
0.20700	3
0.21067	3
0.21433	2
0.21800	2
0.22167	2
0.22533	2
0.22900	2
0.23267	2
0.23633	2
0.24000	3
0.24367	3
0.24733	3
0.25100	3
0.25467	3
0.25833	3
0.26200	4
0.26567	4
0.26933	4
0.27300	4
0.27667	3
0.28033	3
0.28400	3
0.28767	3
0.29133	3
0.29500	3
0.29867	3
0.30233	3
0.30600	3
0.30967	3
0.31333	4
0.31700	4
0.32067	4
0.32433	4
0.32800	4
0.33167	4
0.33533	4
0.33900	4
0.34267	4
0.34633	4
0.35000	4
0.35367	4
0.35733	4
0.36100	4
0.36467	3
0.36833	3
0.37200	3
0.37567	3
0.37933	3
0.38300	2
0.38667	2
0.39033	2
0.39400	2
0.39767	1
0.40133	1
0.40500	1
0.40867	1
0.41233	1
0.41600	1
0.41967	1
0.42333	1
0.42700	1
0.43067	1
0.43433	1
0.43800	1
0.44167	1
0.44533	1
0.44900	1
0.45267	2
0.45633	2
0.46000	2
0.46367	3
0.46733	3
0.47100	3
0.47467	4
0.47833	4
0.48200	4
0.48567	4
0.48933	4
0.49300	4
0.49667	4
0.50033	4
0.50400	4
0.50767	5
0.51133	5
0.51500	5
0.51867	5
0.52233	5
0.52600	5
0.52967	5
0.53333	5
0.53700	5
0.54067	5
0.54433	5
0.54800	5
0.55167	5
0.55533	5
0.55900	5
0.56267	5
0.56633	4
0.57000	4
0.57367	4
0.57733	4
0.58100	4
0.58467	4
0.58833	4
0.59200	4
0.59567	4
0.59933	4
0.60300	4
0.60667	4
0.61033	4
0.61400	4
0.61767	4
0.62133	3
0.62500	3
0.62867	3
0.63233	3
0.63600	3
0.63967	3
0.64333	3
0.64700	3
0.65067	3
0.65433	3
0.65800	3
0.66167	3
0.66533	3
0.66900	3
0.67267	3
0.67633	2
0.68000	2
0.68367	3
0.68733	3
0.69100	3
0.69467	3
0.69833	3
0.70200	3
0.70567	2
0.70933	2
0.71300	2
0.71667	2
0.72033	2
0.72400	1
0.72767	1
0.73133	1
0.73500	1
0.73867	1
0.74233	1
0.74600	1
0.74967	1
0.75333	1
0.75700	1
0.76067	1
0.76433	2
0.76800	2
0.77167	2
0.77533	2
0.77900	2
0.78267	2
0.78633	2
0.79000	2
0.79367	2
0.79733	2
0.80100	3
0.80467	3
0.80833	3
0.81200	2
0.81567	2
0.81933	2
0.82300	2
0.82667	3
0.83033	3
0.83400	3
0.83767	3
0.84133	3
0.84500	3
0.84867	3
0.85233	3
0.85600	3
0.85967	2
0.86333	2
0.86700	2
0.87067	2
0.87433	2
0.87800	2
0.88167	2
0.88533	2
0.88900	2
0.89267	2
0.89633	1
0.90000	1
0.90367	1
0.90733	1
0.91100	1
0.91467	1
0.91833	1
0.92200	1
0.92567	1
0.92933	1
0.93300	1
0.93667	1
0.94033	1
0.94400	1
0.94767	1
0.95133	1
0.95500	1
0.95867	1
0.96233	0
0.96600	0
0.96967	0
0.97333	0
0.97700	0
0.98067	1
0.98433	1
0.98800	1
0.99167	1
0.99533	1
0.99900	1
1.00267	1
1.00633	1
1.01000	2
1.01367	2
1.01733	2
1.02100	2
1.02467	2
1.02833	2
1.03200	2
1.03567	2
1.03933	2
1.04300	2
1.04667	3
1.05033	3
1.05400	3
1.05767	3
1.06133	3
1.06500	3
1.06867	3
1.07233	3
1.07600	2
1.07967	2
1.08333	2
1.08700	2
1.09067	2
1.09433	1
1.09800	1
1.10167	1
1.10533	1
1.10900	1
1.11267	1
1.11633	1
1.12000	1
1.12367	1
1.12733	2
1.13100	2
1.13467	2
1.13833	2
1.14200	3
1.14567	3
1.14933	3
1.15300	3
1.15667	2
1.16033	2
1.16400	2
1.16767	1
1.17133	1
1.17500	1
1.17867	1
1.18233	1
1.18600	1
1.18967	0
1.19333	0
1.19700	-0
1.20067	-0
1.20433	-0
1.20800	-1
1.21167	-1
1.21533	-1
1.21900	-1
1.22267	-1
1.22633	-1
1.23000	-1
1.23367	-0
1.23733	0
1.24100	0
1.24467	0
1.24833	0
1.25200	0
1.25567	0
1.25933	0
1.26300	1
1.26667	1
1.27033	1
1.27400	1
1.27767	1
1.28133	1
1.28500	1
1.28867	1
1.29233	1
1.29600	1
1.29967	1
1.30333	1
1.30700	1
1.31067	1
1.31433	1
1.31800	1
1.32167	1
1.32533	1
1.32900	1
1.33267	1
1.33633	1
1.34000	1
1.34367	1
1.34733	1
1.35100	1
1.35467	1
1.35833	1
1.36200	1
1.36567	1
1.36933	1
1.37300	1
1.37667	1
1.38033	1
1.38400	1
1.38767	1
1.39133	1
1.39500	1
1.39867	1
1.40233	1
1.40600	0
1.40967	0
1.41333	-0
1.41700	-1
1.42067	-1
1.42433	-1
1.42800	-1
1.43167	-1
1.43533	-2
1.43900	-2
1.44267	-2
1.44633	-2
1.45000	-2
1.45367	-2
1.45733	-2
1.46100	-3
1.46467	-3
1.46833	-3
1.47200	-3
1.47567	-3
1.47933	-3
1.48300	-3
1.48667	-3
1.49033	-3
1.49400	-3
1.49767	-3
1.50133	-3
1.50500	-3
1.50867	-3
1.51233	-3
1.51600	-2
1.51967	-2
1.52333	-2
1.52700	-2
1.53067	-2
1.53433	-2
1.53800	-2
1.54167	-2
1.54533	-2
1.54900	-2
1.55267	-3
1.55633	-3
1.56000	-3
1.56367	-3
1.56733	-3
1.57100	-3
1.57467	-3
1.57833	-2
1.58200	-2
1.58567	-2
1.58933	-2
1.59300	-2
1.59667	-2
1.60033	-2
1.60400	-3
1.60767	-4
1.61133	-5
1.61500	-7
1.61867	-9
1.62233	-11
1.62600	-14
1.62967	-16
1.63333	-19
1.63700	-22
1.64067	-25
1.64433	-28
1.64800	-31
1.65167	-34
1.65533	-37
1.65900	-40
1.66267	-44
1.66633	-48
1.67000	-52
1.67367	-56
1.67733	-61
1.68100	-66
1.68467	-70
1.68833	-75
1.69200	-79
1.69567	-84
1.69933	-87
1.70300	-91
1.70667	-94
1.71033	-97
1.71400	-100
1.71767	-102
1.72133	-103
1.72500	-105
1.72867	-106
1.73233	-107
1.73600	-108
1.73967	-108
1.74333	-109
1.74700	-110
1.75067	-112
1.75433	-113
1.75800	-114
1.76167	-115
1.76533	-115
1.76900	-115
1.77267	-116
1.77633	-116
1.78000	-116
1.78367	-116
1.78733	-116
1.79100	-117
1.79467	-117
1.79833	-118
1.80200	-118
1.80567	-118
1.80933	-119
1.81300	-119
1.81667	-119
1.82033	-119
1.82400	-119
1.82767	-118
1.83133	-118
1.83500	-118
1.83867	-118
1.84233	-117
1.84600	-117
1.84967	-118
1.85333	-118
1.85700	-118
1.86067	-118
1.86433	-118
1.86800	-118
1.87167	-119
1.87533	-119
1.87900	-119
1.88267	-118
1.88633	-118
1.89000	-117
1.89367	-117
1.89733	-117
1.90100	-116
1.90467	-116
1.90833	-116
1.91200	-116
1.91567	-116
1.91933	-116
1.92300	-116
1.92667	-116
1.93033	-116
1.93400	-116
1.93767	-116
1.94133	-116
1.94500	-115
1.94867	-115
1.95233	-115
1.95600	-115
1.95967	-115
1.96333	-115
1.96700	-115
1.97067	-114
1.97433	-114
1.97800	-114
1.98167	-113
1.98533	-112
1.98900	-112
1.99267	-112
1.99633	-111
2.00000	-111
2.00367	-111
2.00733	-111
2.01100	-111
2.01467	-111
2.01833	-110
2.02200	-110
2.02567	-109
2.02933	-109
2.03300	-109
2.03667	-108
2.04033	-108
2.04400	-108
2.04767	-107
2.05133	-107
2.05500	-106
2.05867	-106
2.06233	-106
2.06600	-105
2.06967	-105
2.07333	-105
2.07700	-105
2.08067	-104
2.08433	-104
2.08800	-104
2.09167	-104
2.09533	-104
2.09900	-104
2.10267	-104
2.10633	-103
2.11000	-103
2.11367	-103
2.11733	-103
2.12100	-103
2.12467	-103
2.12833	-102
2.13200	-101
2.13567	-101
2.13933	-100
2.14300	-100
2.14667	-99
2.15033	-99
2.15400	-99
2.15767	-98
2.16133	-98
2.16500	-98
2.16867	-97
2.17233	-97
2.17600	-96
2.17967	-96
2.18333	-96
2.18700	-95
2.19067	-95
2.19433	-96
2.19800	-96
2.20167	-96
2.20533	-96
2.20900	-96
2.21267	-95
2.21633	-95
2.22000	-94
2.22367	-94
2.22733	-94
2.23100	-93
2.23467	-93
2.23833	-93
2.24200	-93
2.24567	-93
2.24933	-93
2.25300	-93
2.25667	-92
2.26033	-92
2.26400	-91
2.26767	-91
2.27133	-90
2.27500	-91
2.27867	-91
2.28233	-92
2.28600	-93
2.28967	-95
2.29333	-95
2.29700	-95
2.30067	-95
2.30433	-94
2.30800	-93
2.31167	-91
2.31533	-90
2.31900	-88
2.32267	-88
2.32633	-87
2.33000	-86
2.33367	-85
2.33733	-84
2.34100	-84
2.34467	-83
2.34833	-83
2.35200	-82
2.35567	-82
2.35933	-82
2.36300	-81
2.36667	-81
2.37033	-80
2.37400	-78
2.37767	-76
2.38133	-73
2.38500	-70
2.38867	-66
2.39233	-62
2.39600	-57
2.39967	-52
2.40333	-48
2.40700	-43
2.41067	-38
2.41433	-34
2.41800	-30
2.42167	-26
2.42533	-23
2.42900	-20
2.43267	-18
2.43633	-16
2.44000	-13
2.44367	-11
2.44733	-9
2.45100	-7
2.45467	-6
2.45833	-4
2.46200	-2
2.46567	-1
2.46933	1
2.47300	2
2.47667	3
2.48033	4
2.48400	5
2.48767	6
2.49133	8
2.49500	9
2.49867	10
2.50233	11
2.50600	11
2.50967	12
2.51333	12
2.51700	12
2.52067	12
2.52433	13
2.52800	13
2.53167	13
2.53533	13
2.53900	14
2.54267	15
2.54633	15
2.55000	16
2.55367	16
2.55733	17
2.56100	17
2.56467	17
2.56833	17
2.57200	17
2.57567	17
2.57933	17
2.58300	17
2.58667	18
2.59033	18
2.59400	19
2.59767	19
2.60133	20
2.60500	20
2.60867	20
2.61233	20
2.61600	20
2.61967	20
2.62333	20
2.62700	21
2.63067	21
2.63433	21
2.63800	21
2.64167	22
2.64533	22
2.64900	23
2.65267	23
2.65633	23
2.66000	24
2.66367	24
2.66733	24
2.67100	24
2.67467	24
2.67833	24
2.68200	24
2.68567	23
2.68933	23
2.69300	23
2.69667	23
2.70033	24
2.70400	24
2.70767	25
2.71133	25
2.71500	26
2.71867	26
2.72233	27
2.72600	27
2.72967	28
2.73333	28
2.73700	28
2.74067	29
2.74433	29
2.74800	29
2.75167	29
2.75533	28
2.75900	28
2.76267	28
2.76633	28
2.77000	28
2.77367	28
2.77733	28
2.78100	27
2.78467	27
2.78833	28
2.79200	28
2.79567	28
2.79933	28
2.80300	28
2.80667	28
2.81033	28
2.81400	28
2.81767	28
2.82133	28
2.82500	29
2.82867	29
2.83233	29
2.83600	28
2.83967	27
2.84333	26
2.84700	22
2.85067	16
2.85433	7
2.85800	-5
2.86167	-20
2.86533	-40
2.86900	-64
2.87267	-92
2.87633	-123
2.88000	-159
2.88367	-198
2.88733	-240
2.89100	-284
2.89467	-331
2.89833	-379
2.90200	-428
2.90567	-478
2.90933	-528
2.91300	-577
2.91667	-626
2.92033	-675
2.92400	-722
2.92767	-768
2.93133	-816
2.93500	-869
2.93867	-928
2.94233	-991
2.94600	-1045
2.94967	-1079
2.95333	-1088
2.95700	-1071
2.96067	-1030
2.96433	-970
2.96800	-899
2.97167	-821
2.97533	-740
2.97900	-661
2.98267	-584
2.98633	-513
2.99000	-447
2.99367	-388
2.99733	-334
3.00100	-287
3.00467	-245
3.00833	-208
3.01200	-176
3.01567	-148
3.01933	-125
3.02300	-104
3.02667	-87
3.03033	-72
3.03400	-59
3.03767	-48
3.04133	-38
3.04500	-30
3.04867	-23
3.05233	-17
3.05600	-12
3.05967	-8
3.06333	-4
3.06700	-1
3.07067	2
3.07433	4
3.07800	7
3.08167	9
3.08533	10
3.08900	12
3.09267	13
3.09633	14
3.10000	15
3.10367	15
3.10733	16
3.11100	16
3.11467	17
3.11833	17
3.12200	18
3.12567	18
3.12933	19
3.13300	19
3.13667	20
3.14033	20
3.14400	20
3.14767	21
3.15133	21
3.15500	21
3.15867	21
3.16233	22
3.16600	22
3.16967	22
3.17333	22
3.17700	22
3.18067	22
3.18433	23
3.18800	23
3.19167	23
3.19533	24
3.19900	24
3.20267	24
3.20633	25
3.21000	25
3.21367	25
3.21733	25
3.22100	25
3.22467	25
3.22833	25
3.23200	25
3.23567	26
3.23933	26
3.24300	26
3.24667	26
3.25033	26
3.25400	27
3.25767	27
3.26133	27
3.26500	27
3.26867	28
3.27233	28
3.27600	28
3.27967	28
3.28333	28
3.28700	28
3.29067	28
3.29433	28
3.29800	28
3.30167	28
3.30533	28
3.30900	28
3.31267	28
3.31633	28
3.32000	29
3.32367	29
3.32733	29
3.33100	29
3.33467	29
3.33833	29
3.34200	29
3.34567	30
3.34933	30
3.35300	31
3.35667	31
3.36033	31
3.36400	32
3.36767	32
3.37133	32
3.37500	32
3.37867	32
3.38233	32
3.38600	32
3.38967	31
3.39333	31
3.39700	31
3.40067	31
3.40433	31
3.40800	31
3.41167	31
3.41533	31
3.41900	30
3.42267	30
3.42633	30
3.43000	30
3.43367	30
3.43733	30
3.44100	30
3.44467	30
3.44833	30
3.45200	30
3.45567	30
3.45933	30
3.46300	30
3.46667	30
3.47033	30
3.47400	30
3.47767	31
3.48133	31
3.48500	31
3.48867	31
3.49233	31
3.49600	31
3.49967	31
3.50333	31
3.50700	31
3.51067	32
3.51433	32
3.51800	31
3.52167	32
3.52533	31
3.52900	31
3.53267	31
3.53633	31
3.54000	31
3.54367	31
3.54733	31
3.55100	31
3.55467	31
3.55833	31
3.56200	31
3.56567	31
3.56933	31
3.57300	32
3.57667	32
3.58033	32
3.58400	32
3.58767	32
3.59133	32
3.59500	32
3.59867	31
3.60233	31
3.60600	31
3.60967	31
3.61333	31
3.61700	31
3.62067	30
3.62433	30
3.62800	30
3.63167	30
3.63533	30
3.63900	30
3.64267	30
3.64633	30
3.65000	30
3.65367	30
3.65733	30
3.66100	30
3.66467	30
3.66833	30
3.67200	30
3.67567	30
3.67933	30
3.68300	30
3.68667	30
3.69033	30
3.69400	30
3.69767	30
3.70133	30
3.70500	30
3.70867	30
3.71233	30
3.71600	30
3.71967	30
3.72333	30
3.72700	30
3.73067	30
3.73433	30
3.73800	30
3.74167	30
3.74533	31
3.74900	31
3.75267	31
3.75633	31
3.76000	31
3.76367	31
3.76733	31
3.77100	31
3.77467	31
3.77833	31
3.78200	31
3.78567	31
3.78933	31
3.79300	32
3.79667	32
3.80033	32
3.80400	32
3.80767	32
3.81133	32
3.81500	32
3.81867	32
3.82233	31
3.82600	31
3.82967	31
3.83333	31
3.83700	31
3.84067	31
3.84433	31
3.84800	31
3.85167	31
3.85533	31
3.85900	31
3.86267	32
3.86633	32
3.87000	32
3.87367	32
3.87733	32
3.88100	32
3.88467	32
3.88833	32
3.89200	32
3.89567	32
3.89933	32
3.90300	32
3.90667	32
3.91033	33
3.91400	33
3.91767	32
3.92133	32
3.92500	32
3.92867	32
3.93233	32
3.93600	32
3.93967	32
3.94333	32
3.94700	32
3.95067	32
3.95433	32
3.95800	32
3.96167	32
3.96533	32
3.96900	31
3.97267	31
3.97633	31
3.98000	31
3.98367	31
3.98733	31
3.99100	31
3.99467	31
3.99833	31

[Chromatogram (Ch3)]
Interval(msec)	220
# of Points	1091
Start Time(min)	0.002
End Time(min)	3.998
R.Time (min)	Intensity
0.00167	0
0.00533	1
0.00900	2
0.01267	4
0.01633	6
0.02000	9
0.02367	9
0.02733	9
0.03100	10
0.03467	11
0.03833	10
0.04200	9
0.04567	9
0.04933	8
0.05300	8
0.05667	6
0.06033	7
0.06400	9
0.06767	9
0.07133	10
0.07500	13
0.07867	16
0.08233	15
0.08600	12
0.08967	7
0.09333	5
0.09700	6
0.10067	7
0.10433	7
0.10800	7
0.11167	6
0.11533	5
0.11900	4
0.12267	4
0.12633	6
0.13000	8
0.13367	9
0.13733	9
0.14100	10
0.14467	12
0.14833	11
0.15200	9
0.15567	8
0.15933	7
0.16300	7
0.16667	9
0.17033	10
0.17400	10
0.17767	10
0.18133	10
0.18500	8
0.18867	8
0.19233	8
0.19600	7
0.19967	6
0.20333	8
0.20700	10
0.21067	11
0.21433	9
0.21800	8
0.22167	6
0.22533	6
0.22900	5
0.23267	4
0.23633	4
0.24000	4
0.24367	5
0.24733	6
0.25100	7
0.25467	8
0.25833	7
0.26200	5
0.26567	5
0.26933	5
0.27300	5
0.27667	6
0.28033	8
0.28400	9
0.28767	8
0.29133	7
0.29500	8
0.29867	10
0.30233	11
0.30600	11
0.30967	11
0.31333	10
0.31700	9
0.32067	11
0.32433	11
0.32800	8
0.33167	7
0.33533	7
0.33900	8
0.34267	7
0.34633	6
0.35000	7
0.35367	7
0.35733	7
0.36100	9
0.36467	9
0.36833	7
0.37200	7
0.37567	9
0.37933	10
0.38300	8
0.38667	7
0.39033	5
0.39400	4
0.39767	6
0.40133	7
0.40500	8
0.40867	8
0.41233	9
0.41600	11
0.41967	11
0.42333	12
0.42700	14
0.43067	13
0.43433	11
0.43800	8
0.44167	8
0.44533	9
0.44900	9
0.45267	7
0.45633	5
0.46000	6
0.46367	8
0.46733	7
0.47100	6
0.47467	7
0.47833	6
0.48200	6
0.48567	4
0.48933	2
0.49300	3
0.49667	5
0.50033	7
0.50400	7
0.50767	8
0.51133	7
0.51500	7
0.51867	7
0.52233	6
0.52600	6
0.52967	8
0.53333	9
0.53700	10
0.54067	9
0.54433	8
0.54800	7
0.55167	6
0.55533	8
0.55900	11
0.56267	12
0.56633	13
0.57000	12
0.57367	13
0.57733	13
0.58100	13
0.58467	14
0.58833	14
0.59200	16
0.59567	17
0.59933	16
0.60300	14
0.60667	12
0.61033	10
0.61400	8
0.61767	7
0.62133	8
0.62500	9
0.62867	11
0.63233	14
0.63600	16
0.63967	16
0.64333	15
0.64700	13
0.65067	11
0.65433	11
0.65800	13
0.66167	13
0.66533	14
0.66900	13
0.67267	12
0.67633	12
0.68000	12
0.68367	12
0.68733	12
0.69100	13
0.69467	14
0.69833	15
0.70200	16
0.70567	16
0.70933	15
0.71300	15
0.71667	14
0.72033	12
0.72400	13
0.72767	15
0.73133	18
0.73500	17
0.73867	18
0.74233	19
0.74600	18
0.74967	16
0.75333	15
0.75700	16
0.76067	16
0.76433	15
0.76800	14
0.77167	13
0.77533	14
0.77900	15
0.78267	15
0.78633	14
0.79000	14
0.79367	15
0.79733	16
0.80100	15
0.80467	15
0.80833	16
0.81200	16
0.81567	18
0.81933	19
0.82300	19
0.82667	18
0.83033	18
0.83400	18
0.83767	17
0.84133	17
0.84500	19
0.84867	20
0.85233	20
0.85600	17
0.85967	15
0.86333	15
0.86700	17
0.87067	20
0.87433	21
0.87800	21
0.88167	20
0.88533	20
0.88900	19
0.89267	19
0.89633	21
0.90000	20
0.90367	18
0.90733	18
0.91100	18
0.91467	17
0.91833	16
0.92200	15
0.92567	16
0.92933	16
0.93300	18
0.93667	18
0.94033	17
0.94400	17
0.94767	17
0.95133	18
0.95500	18
0.95867	17
0.96233	17
0.96600	17
0.96967	18
0.97333	19
0.97700	19
0.98067	17
0.98433	17
0.98800	18
0.99167	18
0.99533	16
0.99900	13
1.00267	12
1.00633	13
1.01000	12
1.01367	12
1.01733	14
1.02100	16
1.02467	20
1.02833	21
1.03200	23
1.03567	23
1.03933	21
1.04300	20
1.04667	21
1.05033	22
1.05400	23
1.05767	23
1.06133	21
1.06500	19
1.06867	17
1.07233	17
1.07600	19
1.07967	20
1.08333	20
1.08700	21
1.09067	23
1.09433	25
1.09800	24
1.10167	23
1.10533	21
1.10900	20
1.11267	20
1.11633	18
1.12000	19
1.12367	21
1.12733	22
1.13100	21
1.13467	21
1.13833	21
1.14200	20
1.14567	20
1.14933	19
1.15300	19
1.15667	19
1.16033	20
1.16400	21
1.16767	25
1.17133	25
1.17500	22
1.17867	21
1.18233	21
1.18600	22
1.18967	22
1.19333	22
1.19700	22
1.20067	21
1.20433	20
1.20800	20
1.21167	21
1.21533	21
1.21900	22
1.22267	22
1.22633	20
1.23000	19
1.23367	19
1.23733	21
1.24100	21
1.24467	21
1.24833	20
1.25200	20
1.25567	18
1.25933	18
1.26300	18
1.26667	20
1.27033	22
1.27400	23
1.27767	23
1.28133	22
1.28500	21
1.28867	20
1.29233	21
1.29600	22
1.29967	22
1.30333	21
1.30700	22
1.31067	24
1.31433	25
1.31800	26
1.32167	27
1.32533	25
1.32900	23
1.33267	20
1.33633	18
1.34000	16
1.34367	16
1.34733	17
1.35100	18
1.35467	20
1.35833	22
1.36200	25
1.36567	24
1.36933	24
1.37300	25
1.37667	25
1.38033	24
1.38400	23
1.38767	23
1.39133	25
1.39500	28
1.39867	30
1.40233	30
1.40600	28
1.40967	25
1.41333	21
1.41700	21
1.42067	20
1.42433	23
1.42800	25
1.43167	26
1.43533	28
1.43900	27
1.44267	26
1.44633	26
1.45000	24
1.45367	22
1.45733	20
1.46100	20
1.46467	20
1.46833	20
1.47200	22
1.47567	25
1.47933	26
1.48300	24
1.48667	22
1.49033	21
1.49400	22
1.49767	23
1.50133	23
1.50500	24
1.50867	23
1.51233	23
1.51600	23
1.51967	22
1.52333	21
1.52700	22
1.53067	22
1.53433	21
1.53800	19
1.54167	19
1.54533	21
1.54900	23
1.55267	24
1.55633	24
1.56000	23
1.56367	23
1.56733	24
1.57100	24
1.57467	25
1.57833	26
1.58200	27
1.58567	28
1.58933	28
1.59300	30
1.59667	30
1.60033	29
1.60400	27
1.60767	25
1.61133	25
1.61500	27
1.61867	28
1.62233	27
1.62600	27
1.62967	27
1.63333	26
1.63700	26
1.64067	26
1.64433	26
1.64800	26
1.65167	26
1.65533	27
1.65900	27
1.66267	27
1.66633	27
1.67000	29
1.67367	30
1.67733	29
1.68100	30
1.68467	32
1.68833	32
1.69200	32
1.69567	33
1.69933	35
1.70300	34
1.70667	34
1.71033	36
1.71400	38
1.71767	38
1.72133	38
1.72500	38
1.72867	39
1.73233	39
1.73600	38
1.73967	37
1.74333	36
1.74700	35
1.75067	35
1.75433	33
1.75800	33
1.76167	37
1.76533	40
1.76900	40
1.77267	41
1.77633	42
1.78000	42
1.78367	42
1.78733	42
1.79100	42
1.79467	42
1.79833	44
1.80200	44
1.80567	44
1.80933	46
1.81300	49
1.81667	49
1.82033	49
1.82400	48
1.82767	46
1.83133	47
1.83500	47
1.83867	47
1.84233	46
1.84600	44
1.84967	44
1.85333	45
1.85700	45
1.86067	47
1.86433	52
1.86800	54
1.87167	56
1.87533	56
1.87900	56
1.88267	59
1.88633	60
1.89000	61
1.89367	62
1.89733	62
1.90100	60
1.90467	59
1.90833	56
1.91200	56
1.91567	60
1.91933	62
1.92300	63
1.92667	63
1.93033	64
1.93400	64
1.93767	63
1.94133	61
1.94500	60
1.94867	59
1.95233	59
1.95600	61
1.95967	62
1.96333	62
1.96700	62
1.97067	62
1.97433	63
1.97800	65
1.98167	68
1.98533	71
1.98900	73
1.99267	73
1.99633	74
2.00000	75
2.00367	75
2.00733	74
2.01100	74
2.01467	73
2.01833	74
2.02200	73
2.02567	74
2.02933	76
2.03300	79
2.03667	81
2.04033	82
2.04400	82
2.04767	80
2.05133	80
2.05500	81
2.05867	81
2.06233	80
2.06600	80
2.06967	80
2.07333	82
2.07700	84
2.08067	86
2.08433	88
2.08800	89
2.09167	90
2.09533	91
2.09900	91
2.10267	92
2.10633	92
2.11000	93
2.11367	94
2.11733	94
2.12100	95
2.12467	95
2.12833	97
2.13200	98
2.13567	98
2.13933	98
2.14300	99
2.14667	100
2.15033	100
2.15400	102
2.15767	102
2.16133	102
2.16500	102
2.16867	102
2.17233	104
2.17600	105
2.17967	106
2.18333	107
2.18700	108
2.19067	109
2.19433	111
2.19800	112
2.20167	112
2.20533	112
2.20900	113
2.21267	116
2.21633	118
2.22000	121
2.22367	124
2.22733	125
2.23100	124
2.23467	125
2.23833	125
2.24200	124
2.24567	124
2.24933	125
2.25300	127
2.25667	126
2.26033	126
2.26400	127
2.26767	128
2.27133	129
2.27500	131
2.27867	132
2.28233	132
2.28600	134
2.28967	135
2.29333	136
2.29700	137
2.30067	138
2.30433	139
2.30800	141
2.31167	143
2.31533	144
2.31900	146
2.32267	148
2.32633	150
2.33000	151
2.33367	153
2.33733	152
2.34100	150
2.34467	149
2.34833	152
2.35200	155
2.35567	158
2.35933	159
2.36300	158
2.36667	158
2.37033	158
2.37400	158
2.37767	160
2.38133	161
2.38500	159
2.38867	155
2.39233	156
2.39600	159
2.39967	165
2.40333	171
2.40700	179
2.41067	187
2.41433	195
2.41800	201
2.42167	209
2.42533	215
2.42900	221
2.43267	227
2.43633	230
2.44000	228
2.44367	227
2.44733	226
2.45100	226
2.45467	227
2.45833	232
2.46200	244
2.46567	262
2.46933	286
2.47300	311
2.47667	337
2.48033	365
2.48400	395
2.48767	424
2.49133	451
2.49500	477
2.49867	501
2.50233	522
2.50600	539
2.50967	557
2.51333	573
2.51700	587
2.52067	599
2.52433	609
2.52800	619
2.53167	630
2.53533	640
2.53900	649
2.54267	657
2.54633	665
2.55000	672
2.55367	677
2.55733	682
2.56100	687
2.56467	694
2.56833	702
2.57200	708
2.57567	712
2.57933	716
2.58300	718
2.58667	718
2.59033	717
2.59400	715
2.59767	707
2.60133	695
2.60500	675
2.60867	648
2.61233	617
2.61600	584
2.61967	549
2.62333	518
2.62700	488
2.63067	463
2.63433	445
2.63800	432
2.64167	423
2.64533	417
2.64900	415
2.65267	415
2.65633	418
2.66000	421
2.66367	426
2.66733	431
2.67100	438
2.67467	444
2.67833	452
2.68200	457
2.68567	464
2.68933	473
2.69300	479
2.69667	485
2.70033	492
2.70400	501
2.70767	510
2.71133	520
2.71500	527
2.71867	535
2.72233	539
2.72600	542
2.72967	545
2.73333	550
2.73700	555
2.74067	562
2.74433	571
2.74800	577
2.75167	583
2.75533	590
2.75900	598
2.76267	601
2.76633	604
2.77000	608
2.77367	615
2.77733	623
2.78100	629
2.78467	635
2.78833	641
2.79200	647
2.79567	653
2.79933	659
2.80300	663
2.80667	666
2.81033	669
2.81400	675
2.81767	687
2.82133	709
2.82500	755
2.82867	844
2.83233	1003
2.83600	1257
2.83967	1624
2.84333	2112
2.84700	2711
2.85067	3392
2.85433	4108
2.85800	4802
2.86167	5421
2.86533	5917
2.86900	6261
2.87267	6434
2.87633	6443
2.88000	6306
2.88367	6054
2.88733	5720
2.89100	5335
2.89467	4927
2.89833	4515
2.90200	4114
2.90567	3733
2.90933	3382
2.91300	3064
2.91667	2780
2.92033	2524
2.92400	2297
2.92767	2097
2.93133	1922
2.93500	1771
2.93867	1639
2.94233	1524
2.94600	1426
2.94967	1344
2.95333	1272
2.95700	1209
2.96067	1151
2.96433	1100
2.96800	1058
2.97167	1024
2.97533	996
2.97900	971
2.98267	949
2.98633	933
2.99000	921
2.99367	910
2.99733	900
3.00100	890
3.00467	881
3.00833	874
3.01200	865
3.01567	860
3.01933	858
3.02300	857
3.02667	853
3.03033	849
3.03400	846
3.03767	842
3.04133	839
3.04500	839
3.04867	838
3.05233	836
3.05600	834
3.05967	834
3.06333	833
3.06700	833
3.07067	833
3.07433	831
3.07800	830
3.08167	829
3.08533	828
3.08900	828
3.09267	829
3.09633	829
3.10000	825
3.10367	822
3.10733	819
3.11100	819
3.11467	820
3.11833	817
3.12200	815
3.12567	812
3.12933	808
3.13300	805
3.13667	803
3.14033	802
3.14400	800
3.14767	801
3.15133	801
3.15500	797
3.15867	795
3.16233	795
3.16600	793
3.16967	790
3.17333	790
3.17700	791
3.18067	789
3.18433	788
3.18800	788
3.19167	787
3.19533	785
3.19900	783
3.20267	782
3.20633	780
3.21000	777
3.21367	774
3.21733	772
3.22100	771
3.22467	771
3.22833	771
3.23200	770
3.23567	770
3.23933	769
3.24300	766
3.24667	765
3.25033	763
3.25400	762
3.25767	757
3.26133	752
3.26500	749
3.26867	747
3.27233	745
3.27600	745
3.27967	743
3.28333	738
3.28700	731
3.29067	726
3.29433	721
3.29800	718
3.30167	718
3.30533	716
3.30900	714
3.31267	713
3.31633	712
3.32000	708
3.32367	702
3.32733	697
3.33100	694
3.33467	692
3.33833	690
3.34200	690
3.34567	685
3.34933	683
3.35300	681
3.35667	679
3.36033	675
3.36400	673
3.36767	670
3.37133	666
3.37500	664
3.37867	662
3.38233	661
3.38600	660
3.38967	656
3.39333	651
3.39700	646
3.40067	642
3.40433	639
3.40800	635
3.41167	632
3.41533	631
3.41900	629
3.42267	628
3.42633	628
3.43000	627
3.43367	626
3.43733	625
3.44100	622
3.44467	618
3.44833	614
3.45200	610
3.45567	607
3.45933	603
3.46300	599
3.46667	596
3.47033	595
3.47400	591
3.47767	588
3.48133	586
3.48500	585
3.48867	585
3.49233	583
3.49600	581
3.49967	578
3.50333	573
3.50700	570
3.51067	568
3.51433	565
3.51800	562
3.52167	558
3.52533	556
3.52900	555
3.53267	554
3.53633	551
3.54000	547
3.54367	546
3.54733	544
3.55100	541
3.55467	536
3.55833	532
3.56200	529
3.56567	528
3.56933	526
3.57300	523
3.57667	522
3.58033	523
3.58400	523
3.58767	523
3.59133	521
3.59500	516
3.59867	510
3.60233	505
3.60600	504
3.60967	502
3.61333	502
3.61700	501
3.62067	500
3.62433	496
3.62800	492
3.63167	489
3.63533	487
3.63900	486
3.64267	486
3.64633	485
3.65000	480
3.65367	476
3.65733	473
3.66100	471
3.66467	468
3.66833	465
3.67200	463
3.67567	461
3.67933	458
3.68300	455
3.68667	452
3.69033	450
3.69400	447
3.69767	446
3.70133	443
3.70500	440
3.70867	438
3.71233	437
3.71600	434
3.71967	432
3.72333	428
3.72700	424
3.73067	418
3.73433	415
3.73800	414
3.74167	414
3.74533	415
3.74900	415
3.75267	413
3.75633	411
3.76000	406
3.76367	402
3.76733	401
3.77100	400
3.77467	399
3.77833	396
3.78200	393
3.78567	389
3.78933	385
3.79300	385
3.79667	385
3.80033	385
3.80400	382
3.80767	380
3.81133	377
3.81500	374
3.81867	371
3.82233	367
3.82600	368
3.82967	367
3.83333	364
3.83700	361
3.84067	362
3.84433	364
3.84800	362
3.85167	360
3.85533	357
3.85900	352
3.86267	350
3.86633	349
3.87000	348
3.87367	347
3.87733	346
3.88100	344
3.88467	340
3.88833	338
3.89200	337
3.89567	336
3.89933	334
3.90300	333
3.90667	329
3.91033	325
3.91400	322
3.91767	319
3.92133	318
3.92500	317
3.92867	317
3.93233	317
3.93600	317
3.93967	316
3.94333	314
3.94700	311
3.95067	309
3.95433	307
3.95800	304
3.96167	299
3.96533	295
3.96900	295
3.97267	296
3.97633	296
3.98000	293
3.98367	290
3.98733	287
3.99100	286
3.99467	283
3.99833	277

[Status Trace (Column Oven Temperature)]
Interval(msec)	1000
# of Points	240
Start Time(min)	0.001
End Time(min)	3.984
Intensity Units	
Intensity Multiplier	1
R.Time (min)	Intensity
0.00060	35.03
0.01727	35.04
0.03393	35.04
0.05060	35.04
0.06727	35.04
0.08393	35.03
0.10060	35.03
0.11727	35.03
0.13393	35.04
0.15060	35.05
0.16727	35.04
0.18393	35.03
0.20060	35.03
0.21727	35.03
0.23393	35.03
0.25060	35.03
0.26727	35.03
0.28393	35.03
0.30060	35.03
0.31727	35.03
0.33393	35.02
0.35060	35.01
0.36727	35.02
0.38393	35.02
0.40060	35.03
0.41727	35.03
0.43393	35.02
0.45060	35.02
0.46727	35.02
0.48393	35.02
0.50060	35.01
0.51727	34.99
0.53393	34.99
0.55060	34.98
0.56727	34.98
0.58393	34.97
0.60060	34.97
0.61727	34.97
0.63393	34.96
0.65060	34.97
0.66727	34.97
0.68393	34.97
0.70060	34.97
0.71727	34.98
0.73393	34.98
0.75060	34.99
0.76727	34.99
0.78393	35.00
0.80060	34.98
0.81727	34.97
0.83393	34.97
0.85060	34.98
0.86727	34.98
0.88393	34.98
0.90060	34.98
0.91727	34.98
0.93393	34.98
0.95060	34.98
0.96727	34.99
0.98393	34.99
1.00060	34.98
1.01727	34.99
1.03393	34.98
1.05060	34.98
1.06727	34.98
1.08393	34.97
1.10060	34.97
1.11727	34.97
1.13393	34.97
1.15060	34.97
1.16727	34.97
1.18393	34.97
1.20060	34.98
1.21727	34.99
1.23393	34.99
1.25060	34.99
1.26727	34.99
1.28393	34.98
1.30060	34.97
1.31727	34.97
1.33393	34.97
1.35060	34.98
1.36727	34.98
1.38393	34.98
1.40060	34.98
1.41727	34.99
1.43393	35.00
1.45060	35.02
1.46727	35.02
1.48393	35.03
1.50060	35.04
1.51727	35.04
1.53393	35.05
1.55060	35.06
1.56727	35.07
1.58393	35.06
1.60060	35.09
1.61727	35.17
1.63393	35.32
1.65060	35.51
1.66727	35.78
1.68393	36.13
1.70060	36.48
1.71727	36.83
1.73393	37.16
1.75060	37.51
1.76727	37.85
1.78393	38.19
1.80060	38.53
1.81727	38.87
1.83393	39.18
1.85060	39.51
1.86727	39.85
1.88393	40.17
1.90060	40.48
1.91727	40.81
1.93393	41.14
1.95060	41.46
1.96727	41.79
1.98393	42.10
2.00060	42.44
2.01727	42.76
2.03393	43.09
2.05060	43.41
2.06727	43.73
2.08393	44.06
2.10060	44.38
2.11727	44.71
2.13393	45.03
2.15060	45.37
2.16727	45.69
2.18393	46.02
2.20060	46.35
2.21727	46.68
2.23393	47.01
2.25060	47.35
2.26727	47.65
2.28393	48.07
2.30060	48.40
2.31727	48.71
2.33393	49.03
2.35060	49.31
2.36727	49.55
2.38393	49.68
2.40060	49.68
2.41727	49.68
2.43393	49.70
2.45060	49.71
2.46727	49.72
2.48393	49.73
2.50060	49.73
2.51727	49.76
2.53393	49.78
2.55060	49.78
2.56727	49.81
2.58393	49.81
2.60060	49.81
2.61727	49.83
2.63393	49.84
2.65060	49.84
2.66727	49.85
2.68393	49.87
2.70060	49.86
2.71727	49.85
2.73393	49.85
2.75060	49.86
2.76727	49.88
2.78393	49.89
2.80060	49.89
2.81727	49.90
2.83393	49.91
2.85060	49.92
2.86727	49.93
2.88393	49.94
2.90060	49.95
2.91727	49.96
2.93393	49.97
2.95060	49.98
2.96727	49.98
2.98393	49.99
3.00060	49.99
3.01727	50.00
3.03393	50.01
3.05060	50.02
3.06727	50.03
3.08393	50.04
3.10060	50.06
3.11727	50.06
3.13393	50.07
3.15060	50.08
3.16727	50.09
3.18393	50.08
3.20060	50.09
3.21727	50.09
3.23393	50.10
3.25060	50.10
3.26727	50.10
3.28393	50.11
3.30060	50.09
3.31727	50.09
3.33393	50.09
3.35060	50.07
3.36727	50.07
3.38393	50.07
3.40060	50.07
3.41727	50.07
3.43393	50.07
3.45060	50.07
3.46727	50.07
3.48393	50.07
3.50060	50.07
3.51727	50.07
3.53393	50.07
3.55060	50.06
3.56727	50.06
3.58393	50.06
3.60060	50.07
3.61727	50.08
3.63393	50.09
3.65060	50.09
3.66727	50.10
3.68393	50.09
3.70060	50.09
3.71727	50.09
3.73393	50.09
3.75060	50.09
3.76727	50.09
3.78393	50.09
3.80060	50.09
3.81727	50.08
3.83393	50.08
3.85060	50.07
3.86727	50.07
3.88393	50.06
3.90060	50.05
3.91727	50.05
3.93393	50.06
3.95060	50.06
3.96727	50.06
3.98393	50.07

[Status Trace (Injection Unit Temperature)]
Interval(msec)	1000
# of Points	240
Start Time(min)	0.001
End Time(min)	3.984
Intensity Units	
Intensity Multiplier	1
R.Time (min)	Intensity
0.00060	99.99
0.01727	99.98
0.03393	99.99
0.05060	99.98
0.06727	99.98
0.08393	99.99
0.10060	99.98
0.11727	99.99
0.13393	99.99
0.15060	99.98
0.16727	99.98
0.18393	99.98
0.20060	99.98
0.21727	99.98
0.23393	99.98
0.25060	99.98
0.26727	99.99
0.28393	99.98
0.30060	99.98
0.31727	99.98
0.33393	99.98
0.35060	99.98
0.36727	99.98
0.38393	99.99
0.40060	99.98
0.41727	99.98
0.43393	99.98
0.45060	99.99
0.46727	99.98
0.48393	99.99
0.50060	99.98
0.51727	99.98
0.53393	99.99
0.55060	99.98
0.56727	99.99
0.58393	99.98
0.60060	99.99
0.61727	99.99
0.63393	99.99
0.65060	99.99
0.66727	99.99
0.68393	99.99
0.70060	99.99
0.71727	99.98
0.73393	99.99
0.75060	99.99
0.76727	99.99
0.78393	99.98
0.80060	99.99
0.81727	99.99
0.83393	99.99
0.85060	99.99
0.86727	99.99
0.88393	99.99
0.90060	99.99
0.91727	99.99
0.93393	99.99
0.95060	99.99
0.96727	99.99
0.98393	99.99
1.00060	99.99
1.01727	99.99
1.03393	99.99
1.05060	99.99
1.06727	99.99
1.08393	99.99
1.10060	99.99
1.11727	99.99
1.13393	99.99
1.15060	99.99
1.16727	99.99
1.18393	99.99
1.20060	99.99
1.21727	99.99
1.23393	99.99
1.25060	99.99
1.26727	99.99
1.28393	99.99
1.30060	99.99
1.31727	100.00
1.33393	99.99
1.35060	99.99
1.36727	99.99
1.38393	99.99
1.40060	99.99
1.41727	99.99
1.43393	99.99
1.45060	99.99
1.46727	99.99
1.48393	99.99
1.50060	99.99
1.51727	99.99
1.53393	99.99
1.55060	99.99
1.56727	99.99
1.58393	99.99
1.60060	99.99
1.61727	99.99
1.63393	99.99
1.65060	99.99
1.66727	99.99
1.68393	99.99
1.70060	99.99
1.71727	99.99
1.73393	99.99
1.75060	99.99
1.76727	99.99
1.78393	99.99
1.80060	99.99
1.81727	99.99
1.83393	99.99
1.85060	99.98
1.86727	99.99
1.88393	99.99
1.90060	99.99
1.91727	99.98
1.93393	99.98
1.95060	99.98
1.96727	99.99
1.98393	99.98
2.00060	99.99
2.01727	99.98
2.03393	99.98
2.05060	99.98
2.06727	99.98
2.08393	99.98
2.10060	99.98
2.11727	99.98
2.13393	99.98
2.15060	99.98
2.16727	99.98
2.18393	99.98
2.20060	99.98
2.21727	99.98
2.23393	99.97
2.25060	99.98
2.26727	99.97
2.28393	99.97
2.30060	99.97
2.31727	99.97
2.33393	99.98
2.35060	99.97
2.36727	99.97
2.38393	99.97
2.40060	99.97
2.41727	99.97
2.43393	99.97
2.45060	99.97
2.46727	99.98
2.48393	99.97
2.50060	99.97
2.51727	99.98
2.53393	99.98
2.55060	99.98
2.56727	99.98
2.58393	99.97
2.60060	99.98
2.61727	99.98
2.63393	99.98
2.65060	99.98
2.66727	99.98
2.68393	99.99
2.70060	99.99
2.71727	99.99
2.73393	99.99
2.75060	99.99
2.76727	99.99
2.78393	99.99
2.80060	99.99
2.81727	100.00
2.83393	99.99
2.85060	100.00
2.86727	100.00
2.88393	100.00
2.90060	100.00
2.91727	100.00
2.93393	100.01
2.95060	100.01
2.96727	100.01
2.98393	100.01
3.00060	100.01
3.01727	100.01
3.03393	100.01
3.05060	100.02
3.06727	100.01
3.08393	100.02
3.10060	100.02
3.11727	100.02
3.13393	100.02
3.15060	100.02
3.16727	100.02
3.18393	100.02
3.20060	100.03
3.21727	100.02
3.23393	100.03
3.25060	100.03
3.26727	100.03
3.28393	100.03
3.30060	100.03
3.31727	100.03
3.33393	100.03
3.35060	100.03
3.36727	100.04
3.38393	100.03
3.40060	100.03
3.41727	100.03
3.43393	100.04
3.45060	100.03
3.46727	100.03
3.48393	100.04
3.50060	100.04
3.51727	100.04
3.53393	100.04
3.55060	100.04
3.56727	100.04
3.58393	100.04
3.60060	100.04
3.61727	100.04
3.63393	100.04
3.65060	100.04
3.66727	100.04
3.68393	100.04
3.70060	100.04
3.71727	100.05
3.73393	100.04
3.75060	100.04
3.76727	100.05
3.78393	100.05
3.80060	100.04
3.81727	100.05
3.83393	100.05
3.85060	100.04
3.86727	100.05
3.88393	100.05
3.90060	100.05
3.91727	100.05
3.93393	100.05
3.95060	100.05
3.96727	100.05
3.98393	100.05

[Status Trace (Carrier Gas Pressure)]
Interval(msec)	1000
# of Points	240
Start Time(min)	0.001
End Time(min)	3.984
Intensity Units	
Intensity Multiplier	1
R.Time (min)	Intensity
0.00060	58.00
0.01727	56.56
0.03393	55.93
0.05060	58.26
0.06727	59.92
0.08393	58.54
0.10060	57.97
0.11727	58.00
0.13393	58.01
0.15060	58.01
0.16727	58.00
0.18393	58.00
0.20060	58.00
0.21727	58.00
0.23393	58.00
0.25060	58.00
0.26727	58.00
0.28393	58.00
0.30060	58.00
0.31727	58.00
0.33393	58.00
0.35060	58.00
0.36727	58.00
0.38393	58.00
0.40060	58.00
0.41727	58.00
0.43393	58.00
0.45060	58.00
0.46727	58.00
0.48393	58.00
0.50060	58.00
0.51727	58.00
0.53393	58.00
0.55060	58.00
0.56727	58.00
0.58393	58.00
0.60060	58.00
0.61727	58.00
0.63393	58.00
0.65060	58.00
0.66727	58.00
0.68393	58.00
0.70060	58.00
0.71727	58.00
0.73393	58.00
0.75060	58.00
0.76727	58.00
0.78393	58.00
0.80060	58.00
0.81727	58.00
0.83393	58.00
0.85060	58.00
0.86727	58.00
0.88393	58.00
0.90060	58.00
0.91727	58.00
0.93393	58.00
0.95060	58.00
0.96727	58.00
0.98393	58.00
1.00060	58.00
1.01727	58.00
1.03393	58.00
1.05060	58.00
1.06727	58.00
1.08393	58.00
1.10060	58.00
1.11727	58.00
1.13393	58.00
1.15060	58.00
1.16727	58.00
1.18393	58.00
1.20060	58.00
1.21727	58.00
1.23393	58.00
1.25060	58.00
1.26727	58.00
1.28393	58.00
1.30060	58.00
1.31727	58.00
1.33393	58.00
1.35060	58.00
1.36727	58.00
1.38393	58.00
1.40060	58.00
1.41727	58.00
1.43393	58.00
1.45060	58.00
1.46727	58.00
1.48393	58.00
1.50060	58.00
1.51727	58.00
1.53393	58.00
1.55060	58.00
1.56727	58.00
1.58393	58.00
1.60060	58.00
1.61727	58.00
1.63393	58.00
1.65060	58.00
1.66727	58.01
1.68393	58.01
1.70060	58.00
1.71727	58.00
1.73393	58.00
1.75060	58.00
1.76727	58.00
1.78393	58.00
1.80060	58.00
1.81727	58.00
1.83393	58.00
1.85060	58.00
1.86727	58.00
1.88393	58.00
1.90060	58.00
1.91727	58.00
1.93393	58.00
1.95060	58.00
1.96727	58.00
1.98393	58.00
2.00060	58.00
2.01727	58.00
2.03393	58.00
2.05060	58.00
2.06727	58.00
2.08393	58.00
2.10060	58.00
2.11727	58.00
2.13393	58.00
2.15060	58.00
2.16727	58.00
2.18393	58.00
2.20060	58.00
2.21727	58.00
2.23393	58.00
2.25060	58.00
2.26727	58.00
2.28393	58.00
2.30060	58.00
2.31727	58.00
2.33393	58.00
2.35060	58.00
2.36727	58.00
2.38393	57.99
2.40060	57.99
2.41727	58.00
2.43393	58.00
2.45060	58.00
2.46727	58.00
2.48393	58.00
2.50060	58.00
2.51727	57.99
2.53393	57.99
2.55060	58.00
2.56727	58.00
2.58393	58.00
2.60060	58.00
2.61727	58.00
2.63393	58.00
2.65060	58.00
2.66727	58.00
2.68393	58.00
2.70060	58.00
2.71727	58.00
2.73393	58.00
2.75060	58.00
2.76727	58.00
2.78393	58.00
2.80060	58.00
2.81727	58.00
2.83393	58.00
2.85060	58.00
2.86727	58.00
2.88393	58.00
2.90060	58.00
2.91727	58.00
2.93393	58.00
2.95060	58.00
2.96727	58.00
2.98393	58.00
3.00060	58.00
3.01727	58.00
3.03393	58.00
3.05060	58.00
3.06727	58.00
3.08393	58.00
3.10060	58.00
3.11727	58.00
3.13393	58.00
3.15060	58.00
3.16727	58.00
3.18393	58.00
3.20060	58.00
3.21727	58.00
3.23393	58.00
3.25060	58.00
3.26727	58.00
3.28393	58.00
3.30060	58.00
3.31727	58.00
3.33393	58.00
3.35060	58.00
3.36727	58.00
3.38393	58.00
3.40060	58.00
3.41727	58.00
3.43393	58.00
3.45060	58.00
3.46727	58.00
3.48393	58.00
3.50060	58.00
3.51727	58.00
3.53393	58.00
3.55060	58.00
3.56727	58.00
3.58393	58.00
3.60060	58.00
3.61727	58.00
3.63393	58.00
3.65060	58.00
3.66727	58.00
3.68393	58.00
3.70060	58.00
3.71727	58.00
3.73393	58.00
3.75060	58.00
3.76727	58.00
3.78393	58.00
3.80060	58.00
3.81727	58.00
3.83393	58.00
3.85060	58.00
3.86727	58.00
3.88393	58.00
3.90060	58.00
3.91727	58.00
3.93393	58.00
3.95060	58.00
3.96727	58.00
3.98393	58.00

[Status Trace (Carrier Gas Flow)]
Interval(msec)	1000
# of Points	240
Start Time(min)	0.001
End Time(min)	3.984
Intensity Units	
Intensity Multiplier	1
R.Time (min)	Intensity
0.00060	34.52
0.01727	33.92
0.03393	34.54
0.05060	34.54
0.06727	34.49
0.08393	34.50
0.10060	34.52
0.11727	34.52
0.13393	34.52
0.15060	34.52
0.16727	34.52
0.18393	34.52
0.20060	34.52
0.21727	34.52
0.23393	34.52
0.25060	34.52
0.26727	34.52
0.28393	34.52
0.30060	34.52
0.31727	34.52
0.33393	34.52
0.35060	34.52
0.36727	34.52
0.38393	34.52
0.40060	34.52
0.41727	34.52
0.43393	34.52
0.45060	34.52
0.46727	34.52
0.48393	34.52
0.50060	34.52
0.51727	34.52
0.53393	34.52
0.55060	34.52
0.56727	34.52
0.58393	34.51
0.60060	34.52
0.61727	34.52
0.63393	34.52
0.65060	34.52
0.66727	34.52
0.68393	34.52
0.70060	34.52
0.71727	34.52
0.73393	34.52
0.75060	34.52
0.76727	34.52
0.78393	34.52
0.80060	34.52
0.81727	34.52
0.83393	34.52
0.85060	34.52
0.86727	34.52
0.88393	34.52
0.90060	34.52
0.91727	34.52
0.93393	34.51
0.95060	34.52
0.96727	34.52
0.98393	34.51
1.00060	34.51
1.01727	34.52
1.03393	34.52
1.05060	34.51
1.06727	34.51
1.08393	34.52
1.10060	34.52
1.11727	34.52
1.13393	34.52
1.15060	34.52
1.16727	34.51
1.18393	34.52
1.20060	34.52
1.21727	34.52
1.23393	34.52
1.25060	34.53
1.26727	34.52
1.28393	34.53
1.30060	34.52
1.31727	34.53
1.33393	34.53
1.35060	34.54
1.36727	34.51
1.38393	34.52
1.40060	34.52
1.41727	34.51
1.43393	34.53
1.45060	34.52
1.46727	34.52
1.48393	34.52
1.50060	34.53
1.51727	34.52
1.53393	34.52
1.55060	34.52
1.56727	34.52
1.58393	34.52
1.60060	34.52
1.61727	34.52
1.63393	34.52
1.65060	34.52
1.66727	34.52
1.68393	34.52
1.70060	34.52
1.71727	34.52
1.73393	34.52
1.75060	34.52
1.76727	34.52
1.78393	34.52
1.80060	34.52
1.81727	34.52
1.83393	34.52
1.85060	34.52
1.86727	34.52
1.88393	34.52
1.90060	34.52
1.91727	34.51
1.93393	34.52
1.95060	34.52
1.96727	34.52
1.98393	34.52
2.00060	34.52
2.01727	34.52
2.03393	34.52
2.05060	34.52
2.06727	34.52
2.08393	34.52
2.10060	34.52
2.11727	34.52
2.13393	34.52
2.15060	34.52
2.16727	34.52
2.18393	34.52
2.20060	34.52
2.21727	34.52
2.23393	34.52
2.25060	34.52
2.26727	34.52
2.28393	34.52
2.30060	34.52
2.31727	34.52
2.33393	34.52
2.35060	34.52
2.36727	34.52
2.38393	34.52
2.40060	34.52
2.41727	34.52
2.43393	34.52
2.45060	34.52
2.46727	34.52
2.48393	34.52
2.50060	34.52
2.51727	34.52
2.53393	34.52
2.55060	34.52
2.56727	34.52
2.58393	34.52
2.60060	34.52
2.61727	34.52
2.63393	34.52
2.65060	34.52
2.66727	34.52
2.68393	34.52
2.70060	34.52
2.71727	34.52
2.73393	34.52
2.75060	34.52
2.76727	34.52
2.78393	34.52
2.80060	34.52
2.81727	34.52
2.83393	34.52
2.85060	34.52
2.86727	34.52
2.88393	34.52
2.90060	34.52
2.91727	34.52
2.93393	34.52
2.95060	34.52
2.96727	34.52
2.98393	34.52
3.00060	34.52
3.01727	34.52
3.03393	34.52
3.05060	34.52
3.06727	34.52
3.08393	34.52
3.10060	34.52
3.11727	34.52
3.13393	34.52
3.15060	34.52
3.16727	34.52
3.18393	34.52
3.20060	34.52
3.21727	34.52
3.23393	34.52
3.25060	34.52
3.26727	34.52
3.28393	34.52
3.30060	34.52
3.31727	34.52
3.33393	34.52
3.35060	34.52
3.36727	34.52
3.38393	34.52
3.40060	34.52
3.41727	34.52
3.43393	34.52
3.45060	34.52
3.46727	34.52
3.48393	34.52
3.50060	34.52
3.51727	34.52
3.53393	34.52
3.55060	34.52
3.56727	34.52
3.58393	34.52
3.60060	34.52
3.61727	34.52
3.63393	34.52
3.65060	34.52
3.66727	34.52
3.68393	34.52
3.70060	34.52
3.71727	34.52
3.73393	34.52
3.75060	34.52
3.76727	34.52
3.78393	34.52
3.80060	34.52
3.81727	34.52
3.83393	34.52
3.85060	34.52
3.86727	34.52
3.88393	34.52
3.90060	34.52
3.91727	34.52
3.93393	34.52
3.95060	34.52
3.96727	34.52
3.98393	34.52

[Status Trace (Column Flow)]
Interval(msec)	1000
# of Points	240
Start Time(min)	0.001
End Time(min)	3.984
Intensity Units	
Intensity Multiplier	1
R.Time (min)	Intensity
0.00060	5.49
0.01727	5.33
0.03393	5.25
0.05060	5.52
0.06727	5.72
0.08393	5.56
0.10060	5.49
0.11727	5.49
0.13393	5.49
0.15060	5.49
0.16727	5.49
0.18393	5.49
0.20060	5.49
0.21727	5.49
0.23393	5.49
0.25060	5.49
0.26727	5.49
0.28393	5.49
0.30060	5.49
0.31727	5.49
0.33393	5.49
0.35060	5.49
0.36727	5.49
0.38393	5.49
0.40060	5.49
0.41727	5.49
0.43393	5.49
0.45060	5.49
0.46727	5.49
0.48393	5.49
0.50060	5.49
0.51727	5.49
0.53393	5.49
0.55060	5.49
0.56727	5.49
0.58393	5.49
0.60060	5.49
0.61727	5.50
0.63393	5.50
0.65060	5.50
0.66727	5.49
0.68393	5.49
0.70060	5.49
0.71727	5.49
0.73393	5.49
0.75060	5.49
0.76727	5.49
0.78393	5.49
0.80060	5.49
0.81727	5.49
0.83393	5.49
0.85060	5.49
0.86727	5.49
0.88393	5.49
0.90060	5.49
0.91727	5.49
0.93393	5.49
0.95060	5.49
0.96727	5.49
0.98393	5.49
1.00060	5.49
1.01727	5.49
1.03393	5.49
1.05060	5.49
1.06727	5.49
1.08393	5.50
1.10060	5.50
1.11727	5.50
1.13393	5.50
1.15060	5.50
1.16727	5.50
1.18393	5.49
1.20060	5.49
1.21727	5.49
1.23393	5.49
1.25060	5.49
1.26727	5.49
1.28393	5.49
1.30060	5.49
1.31727	5.49
1.33393	5.49
1.35060	5.49
1.36727	5.49
1.38393	5.49
1.40060	5.49
1.41727	5.49
1.43393	5.49
1.45060	5.49
1.46727	5.49
1.48393	5.49
1.50060	5.49
1.51727	5.49
1.53393	5.49
1.55060	5.49
1.56727	5.49
1.58393	5.49
1.60060	5.49
1.61727	5.49
1.63393	5.48
1.65060	5.48
1.66727	5.47
1.68393	5.46
1.70060	5.45
1.71727	5.44
1.73393	5.43
1.75060	5.42
1.76727	5.41
1.78393	5.40
1.80060	5.38
1.81727	5.37
1.83393	5.37
1.85060	5.36
1.86727	5.34
1.88393	5.34
1.90060	5.33
1.91727	5.32
1.93393	5.31
1.95060	5.30
1.96727	5.29
1.98393	5.28
2.00060	5.27
2.01727	5.26
2.03393	5.25
2.05060	5.24
2.06727	5.23
2.08393	5.22
2.10060	5.21
2.11727	5.20
2.13393	5.19
2.15060	5.18
2.16727	5.17
2.18393	5.16
2.20060	5.16
2.21727	5.15
2.23393	5.14
2.25060	5.13
2.26727	5.12
2.28393	5.11
2.30060	5.10
2.31727	5.09
2.33393	5.08
2.35060	5.07
2.36727	5.07
2.38393	5.06
2.40060	5.06
2.41727	5.06
2.43393	5.06
2.45060	5.06
2.46727	5.06
2.48393	5.06
2.50060	5.06
2.51727	5.06
2.53393	5.06
2.55060	5.06
2.56727	5.06
2.58393	5.06
2.60060	5.06
2.61727	5.06
2.63393	5.06
2.65060	5.06
2.66727	5.06
2.68393	5.06
2.70060	5.06
2.71727	5.06
2.73393	5.06
2.75060	5.06
2.76727	5.06
2.78393	5.06
2.80060	5.06
2.81727	5.06
2.83393	5.06
2.85060	5.06
2.86727	5.05
2.88393	5.05
2.90060	5.05
2.91727	5.05
2.93393	5.05
2.95060	5.05
2.96727	5.05
2.98393	5.05
3.00060	5.05
3.01727	5.05
3.03393	5.05
3.05060	5.05
3.06727	5.05
3.08393	5.05
3.10060	5.05
3.11727	5.05
3.13393	5.05
3.15060	5.05
3.16727	5.05
3.18393	5.05
3.20060	5.05
3.21727	5.05
3.23393	5.05
3.25060	5.05
3.26727	5.05
3.28393	5.05
3.30060	5.05
3.31727	5.05
3.33393	5.05
3.35060	5.05
3.36727	5.05
3.38393	5.05
3.40060	5.05
3.41727	5.05
3.43393	5.05
3.45060	5.05
3.46727	5.05
3.48393	5.05
3.50060	5.05
3.51727	5.05
3.53393	5.05
3.55060	5.05
3.56727	5.05
3.58393	5.05
3.60060	5.05
3.61727	5.05
3.63393	5.05
3.65060	5.05
3.66727	5.05
3.68393	5.05
3.70060	5.05
3.71727	5.05
3.73393	5.05
3.75060	5.05
3.76727	5.05
3.78393	5.05
3.80060	5.05
3.81727	5.05
3.83393	5.05
3.85060	5.05
3.86727	5.05
3.88393	5.05
3.90060	5.05
3.91727	5.05
3.93393	5.05
3.95060	5.05
3.96727	5.05
3.98393	5.05

[Status Trace (Linear Velocity)]
Interval(msec)	1000
# of Points	240
Start Time(min)	0.001
End Time(min)	3.984
Intensity Units	
Intensity Multiplier	1
R.Time (min)	Intensity
0.00060	39.01
0.01727	38.07
0.03393	37.65
0.05060	39.18
0.06727	40.27
0.08393	39.36
0.10060	38.99
0.11727	39.01
0.13393	39.02
0.15060	39.01
0.16727	39.01
0.18393	39.01
0.20060	39.01
0.21727	39.01
0.23393	39.01
0.25060	39.01
0.26727	39.01
0.28393	39.01
0.30060	39.01
0.31727	39.01
0.33393	39.01
0.35060	39.01
0.36727	39.01
0.38393	39.01
0.40060	39.01
0.41727	39.01
0.43393	39.01
0.45060	39.01
0.46727	39.01
0.48393	39.01
0.50060	39.01
0.51727	39.01
0.53393	39.01
0.55060	39.01
0.56727	39.01
0.58393	39.01
0.60060	39.01
0.61727	39.01
0.63393	39.01
0.65060	39.01
0.66727	39.01
0.68393	39.01
0.70060	39.01
0.71727	39.01
0.73393	39.01
0.75060	39.01
0.76727	39.01
0.78393	39.01
0.80060	39.01
0.81727	39.01
0.83393	39.01
0.85060	39.01
0.86727	39.01
0.88393	39.01
0.90060	39.01
0.91727	39.01
0.93393	39.01
0.95060	39.01
0.96727	39.01
0.98393	39.01
1.00060	39.01
1.01727	39.01
1.03393	39.01
1.05060	39.01
1.06727	39.01
1.08393	39.01
1.10060	39.01
1.11727	39.01
1.13393	39.01
1.15060	39.01
1.16727	39.01
1.18393	39.01
1.20060	39.01
1.21727	39.01
1.23393	39.01
1.25060	39.01
1.26727	39.01
1.28393	39.01
1.30060	39.01
1.31727	39.01
1.33393	39.01
1.35060	39.01
1.36727	39.01
1.38393	39.01
1.40060	39.01
1.41727	39.01
1.43393	39.01
1.45060	39.01
1.46727	39.01
1.48393	39.01
1.50060	39.01
1.51727	39.01
1.53393	39.01
1.55060	39.00
1.56727	39.00
1.58393	39.00
1.60060	39.00
1.61727	39.00
1.63393	38.98
1.65060	38.96
1.66727	38.94
1.68393	38.91
1.70060	38.87
1.71727	38.84
1.73393	38.80
1.75060	38.77
1.76727	38.74
1.78393	38.71
1.80060	38.67
1.81727	38.64
1.83393	38.61
1.85060	38.58
1.86727	38.55
1.88393	38.52
1.90060	38.49
1.91727	38.46
1.93393	38.43
1.95060	38.40
1.96727	38.37
1.98393	38.34
2.00060	38.31
2.01727	38.28
2.03393	38.25
2.05060	38.22
2.06727	38.19
2.08393	38.16
2.10060	38.13
2.11727	38.10
2.13393	38.07
2.15060	38.04
2.16727	38.01
2.18393	37.98
2.20060	37.95
2.21727	37.92
2.23393	37.89
2.25060	37.86
2.26727	37.83
2.28393	37.80
2.30060	37.77
2.31727	37.74
2.33393	37.71
2.35060	37.69
2.36727	37.66
2.38393	37.65
2.40060	37.65
2.41727	37.65
2.43393	37.65
2.45060	37.65
2.46727	37.65
2.48393	37.65
2.50060	37.65
2.51727	37.64
2.53393	37.64
2.55060	37.65
2.56727	37.64
2.58393	37.64
2.60060	37.64
2.61727	37.64
2.63393	37.64
2.65060	37.64
2.66727	37.64
2.68393	37.64
2.70060	37.64
2.71727	37.64
2.73393	37.64
2.75060	37.64
2.76727	37.64
2.78393	37.64
2.80060	37.64
2.81727	37.64
2.83393	37.63
2.85060	37.63
2.86727	37.63
2.88393	37.63
2.90060	37.63
2.91727	37.63
2.93393	37.63
2.95060	37.63
2.96727	37.63
2.98393	37.63
3.00060	37.63
3.01727	37.63
3.03393	37.63
3.05060	37.62
3.06727	37.62
3.08393	37.62
3.10060	37.62
3.11727	37.62
3.13393	37.62
3.15060	37.62
3.16727	37.62
3.18393	37.62
3.20060	37.62
3.21727	37.62
3.23393	37.62
3.25060	37.62
3.26727	37.62
3.28393	37.62
3.30060	37.62
3.31727	37.62
3.33393	37.62
3.35060	37.62
3.36727	37.62
3.38393	37.62
3.40060	37.62
3.41727	37.62
3.43393	37.62
3.45060	37.62
3.46727	37.62
3.48393	37.62
3.50060	37.62
3.51727	37.62
3.53393	37.62
3.55060	37.62
3.56727	37.62
3.58393	37.62
3.60060	37.62
3.61727	37.62
3.63393	37.62
3.65060	37.62
3.66727	37.62
3.68393	37.62
3.70060	37.62
3.71727	37.62
3.73393	37.62
3.75060	37.62
3.76727	37.62
3.78393	37.62
3.80060	37.62
3.81727	37.62
3.83393	37.62
3.85060	37.62
3.86727	37.62
3.88393	37.62
3.90060	37.62
3.91727	37.62
3.93393	37.62
3.95060	37.62
3.96727	37.62
3.98393	37.62

