[Header]
Application Name	LabSolutions
Version	5.110
Data File Name	C:\Users\User\Desktop\GC Analyses\Jack\UIC Prairie Sampling\7.9.22\220909_037.gcd
Output Date	9/28/2022
Output Time	11:29:51 AM

[File Information]
Type	Data File
Generated	9/13/2022 11:48:14 AM
Generated by	System Administrator
Modified	9/13/2022 11:53:40 AM
Modified by	System Administrator

[Sample Information]
Operator Name	System Administrator
Acquired	9/13/2022 11:49:38 AM
Sample Type	1:Standard
Level	1
Sample Name	220909_Run
Sample ID	220909_Run
ISTD Amount1	1
ISTD Amount2	1
ISTD Amount3	1
ISTD Amount4	1
ISTD Amount5	1
ISTD Amount6	1
ISTD Amount7	1
ISTD Amount8	1
ISTD Amount9	1
ISTD Amount10	1
ISTD Amount11	1
ISTD Amount12	1
ISTD Amount13	1
ISTD Amount14	1
ISTD Amount15	1
ISTD Amount16	1
ISTD Amount17	1
ISTD Amount18	1
ISTD Amount19	1
ISTD Amount20	1
ISTD Amount21	1
ISTD Amount22	1
ISTD Amount23	1
ISTD Amount24	1
ISTD Amount25	1
ISTD Amount26	1
ISTD Amount27	1
ISTD Amount28	1
ISTD Amount29	1
ISTD Amount30	1
ISTD Amount31	1
ISTD Amount32	1
Sample Amount	1
Dilution Factor	1
Vial#	1
Injection Volume	1
Injection Count	1
Bar Code	

[Original Files]
Data File	C:\Users\User\Desktop\GC Analyses\Jack\220909\220909_037.gcd
Method File	C:\LabSolutions\Data\GHG_4min_2022\ghg3_togas_w_acet_4 min_new_int.gcm
Batch File	
Report Format File	c:\LabSolutions\System\DEFAULT.lsr

[File Description]


[Configuration]
Instrument Name	C0B7VH3-Instrument1
Instrument #	1
Line #	1
# of Detectors	3
Detector ID	DET#1	DET#2	DET#3
Detector Name	FID	PTCD	ECD
# of Channels	1	1	1

[Peak Table(Ch1)]
# of Peaks	1
Peak#	R.Time	I.Time	F.Time	Area	Height	A/H	Conc.	Mark	ID#	Name	k'	Plate #	Plate Ht.	Tailing	Resolution	Sep.Factor	Area Ratio	Height Ratio	Conc. %	Norm Conc.
1	1.989	1.956	2.062	8038	3737	2.151	400.000	   	3	CO2	0.000	15168	9.889	1.535	0.000	0.000	0	0	100.000	100.000

[Peak Table(Ch2)]
# of Peaks	0

[Peak Table(Ch3)]
# of Peaks	1
Peak#	R.Time	I.Time	F.Time	Area	Height	A/H	Conc.	Mark	ID#	Name	k'	Plate #	Plate Ht.	Tailing	Resolution	Sep.Factor	Area Ratio	Height Ratio	Conc. %	Norm Conc.
1	2.865	1.531	3.877	31873	485	65.699	1.000	   	1	N2O	0.000	44	3442.671	0.926	0.000	0.000	0	0	100.000	100.000

[Compound Results(Ch1)]
# of IDs	6
ID#	Name	R.Time	Area	Height	Conc.	Curve	3rd	2nd	1st	Constant	Area Ratio	Height Ratio	Conc. %	Norm Conc.
1	CO	0.000	0	0	0.000	Linear	0.000000e+00	0.000000e+00	0.000000e+00	0.000000e+00	0	0	0.000	0.000
2	CH4	0.000	0	0	0.000	Linear	0.000000e+00	0.000000e+00	0.000000e+00	0.000000e+00	0	0	0.000	0.000
3	CO2	1.989	8038	3737	400.000	Linear	0.000000e+00	0.000000e+00	2.009462e+001	0.000000e+00	0	0	100.000	100.000
4	Ethylene	0.000	0	0	0.000	Linear	0.000000e+00	0.000000e+00	0.000000e+00	0.000000e+00	0	0	0.000	0.000
5	Acetylene	0.000	0	0	0.000	Linear	0.000000e+00	0.000000e+00	0.000000e+00	0.000000e+00	0	0	0.000	0.000
6	Ethane	0.000	0	0	0.000	Linear	0.000000e+00	0.000000e+00	0.000000e+00	0.000000e+00	0	0	0.000	0.000

[Compound Results(Ch2)]
# of IDs	5
ID#	Name	R.Time	Area	Height	Conc.	Curve	3rd	2nd	1st	Constant	Area Ratio	Height Ratio	Conc. %	Norm Conc.
1	Hydrogen	0.000	0	0	0.000	Linear	0.000000e+00	0.000000e+00	0.000000e+00	0.000000e+00	0	0	0.000	0.000
2	Oxygen	0.000	0	0	0.000	Linear	0.000000e+00	0.000000e+00	0.000000e+00	0.000000e+00	0	0	0.000	0.000
3	Nitrogen	0.000	0	0	0.000	Linear	0.000000e+00	0.000000e+00	0.000000e+00	0.000000e+00	0	0	0.000	0.000
4	Methane	0.000	0	0	0.000	Linear	0.000000e+00	0.000000e+00	0.000000e+00	0.000000e+00	0	0	0.000	0.000
5	Carbon Monoxide	0.000	0	0	0.000	Linear	0.000000e+00	0.000000e+00	0.000000e+00	0.000000e+00	0	0	0.000	0.000

[Compound Results(Ch3)]
# of IDs	2
ID#	Name	R.Time	Area	Height	Conc.	Curve	3rd	2nd	1st	Constant	Area Ratio	Height Ratio	Conc. %	Norm Conc.
1	N2O	2.865	31873	485	1.000	Linear	0.000000e+00	0.000000e+00	3.187349e+004	0.000000e+00	0	0	100.000	100.000
2	SF6	0.000	0	0	0.000	Linear	0.000000e+00	0.000000e+00	0.000000e+00	0.000000e+00	0	0	0.000	0.000

[Group Results(Ch1)]
# of Groups	0

[Group Results(Ch2)]
# of Groups	0

[Group Results(Ch3)]
# of Groups	0

[Chromatogram (Ch1)]
Interval(msec)	220
# of Points	1091
Start Time(min)	0.002
End Time(min)	3.998
R.Time (min)	Intensity
0.00167	6
0.00533	8
0.00900	8
0.01267	7
0.01633	4
0.02000	3
0.02367	3
0.02733	3
0.03100	4
0.03467	4
0.03833	2
0.04200	-3
0.04567	-7
0.04933	-6
0.05300	-3
0.05667	1
0.06033	4
0.06400	9
0.06767	13
0.07133	13
0.07500	10
0.07867	8
0.08233	4
0.08600	2
0.08967	2
0.09333	5
0.09700	10
0.10067	10
0.10433	8
0.10800	7
0.11167	8
0.11533	9
0.11900	6
0.12267	2
0.12633	-2
0.13000	-6
0.13367	-9
0.13733	-11
0.14100	-12
0.14467	-13
0.14833	-12
0.15200	-13
0.15567	-16
0.15933	-20
0.16300	-22
0.16667	-23
0.17033	-22
0.17400	-18
0.17767	-13
0.18133	-8
0.18500	-2
0.18867	6
0.19233	16
0.19600	21
0.19967	21
0.20333	17
0.20700	14
0.21067	11
0.21433	5
0.21800	-1
0.22167	-11
0.22533	-21
0.22900	-30
0.23267	-34
0.23633	-33
0.24000	-26
0.24367	-21
0.24733	-21
0.25100	-22
0.25467	-23
0.25833	-23
0.26200	-20
0.26567	-13
0.26933	-4
0.27300	2
0.27667	2
0.28033	1
0.28400	0
0.28767	-0
0.29133	-2
0.29500	-3
0.29867	-2
0.30233	-3
0.30600	-4
0.30967	-9
0.31333	-14
0.31700	-17
0.32067	-21
0.32433	-27
0.32800	-33
0.33167	-38
0.33533	-38
0.33900	-32
0.34267	-24
0.34633	-21
0.35000	-23
0.35367	-28
0.35733	-34
0.36100	-33
0.36467	-26
0.36833	-19
0.37200	-15
0.37567	-17
0.37933	-18
0.38300	-15
0.38667	-16
0.39033	-18
0.39400	-16
0.39767	-11
0.40133	-8
0.40500	-8
0.40867	-8
0.41233	-5
0.41600	-1
0.41967	3
0.42333	5
0.42700	3
0.43067	-7
0.43433	-18
0.43800	-27
0.44167	-33
0.44533	-35
0.44900	-36
0.45267	-34
0.45633	-30
0.46000	-24
0.46367	-19
0.46733	-15
0.47100	-14
0.47467	-18
0.47833	-23
0.48200	-23
0.48567	-20
0.48933	-21
0.49300	-24
0.49667	-27
0.50033	-25
0.50400	-23
0.50767	-20
0.51133	-21
0.51500	-24
0.51867	-25
0.52233	-24
0.52600	-25
0.52967	-24
0.53333	-21
0.53700	-18
0.54067	-15
0.54433	-13
0.54800	-9
0.55167	-8
0.55533	-5
0.55900	-2
0.56267	-3
0.56633	-8
0.57000	-14
0.57367	-18
0.57733	-20
0.58100	-24
0.58467	-28
0.58833	-32
0.59200	-35
0.59567	-35
0.59933	-34
0.60300	-33
0.60667	-32
0.61033	-30
0.61400	-27
0.61767	-24
0.62133	-21
0.62500	-16
0.62867	-13
0.63233	-15
0.63600	-20
0.63967	-28
0.64333	-34
0.64700	-34
0.65067	-29
0.65433	-23
0.65800	-16
0.66167	-12
0.66533	-13
0.66900	-22
0.67267	-34
0.67633	-43
0.68000	-46
0.68367	-43
0.68733	-36
0.69100	-30
0.69467	-28
0.69833	-28
0.70200	-29
0.70567	-30
0.70933	-28
0.71300	-23
0.71667	-18
0.72033	-17
0.72400	-18
0.72767	-20
0.73133	-25
0.73500	-32
0.73867	-36
0.74233	-38
0.74600	-39
0.74967	-38
0.75333	-34
0.75700	-30
0.76067	-25
0.76433	-19
0.76800	-16
0.77167	-16
0.77533	-21
0.77900	-32
0.78267	-43
0.78633	-51
0.79000	-53
0.79367	-50
0.79733	-45
0.80100	-39
0.80467	-35
0.80833	-35
0.81200	-36
0.81567	-35
0.81933	-35
0.82300	-34
0.82667	-33
0.83033	-34
0.83400	-35
0.83767	-35
0.84133	-34
0.84500	-33
0.84867	-32
0.85233	-31
0.85600	-34
0.85967	-40
0.86333	-46
0.86700	-48
0.87067	-44
0.87433	-37
0.87800	-32
0.88167	-29
0.88533	-27
0.88900	-26
0.89267	-27
0.89633	-33
0.90000	-38
0.90367	-41
0.90733	-41
0.91100	-38
0.91467	-35
0.91833	-35
0.92200	-38
0.92567	-41
0.92933	-42
0.93300	-43
0.93667	-38
0.94033	-31
0.94400	-28
0.94767	-28
0.95133	-29
0.95500	-35
0.95867	-45
0.96233	-53
0.96600	-55
0.96967	-53
0.97333	-53
0.97700	-54
0.98067	-55
0.98433	-54
0.98800	-53
0.99167	-50
0.99533	-46
0.99900	-38
1.00267	-33
1.00633	-32
1.01000	-32
1.01367	-31
1.01733	-30
1.02100	-31
1.02467	-37
1.02833	-47
1.03200	-58
1.03567	-67
1.03933	-73
1.04300	-76
1.04667	-75
1.05033	-72
1.05400	-67
1.05767	-62
1.06133	-54
1.06500	-44
1.06867	-37
1.07233	-34
1.07600	-36
1.07967	-39
1.08333	-43
1.08700	-51
1.09067	-59
1.09433	-62
1.09800	-63
1.10167	-62
1.10533	-58
1.10900	-54
1.11267	-54
1.11633	-51
1.12000	-45
1.12367	-41
1.12733	-44
1.13100	-52
1.13467	-56
1.13833	-59
1.14200	-62
1.14567	-67
1.14933	-72
1.15300	-72
1.15667	-70
1.16033	-66
1.16400	-64
1.16767	-62
1.17133	-58
1.17500	-53
1.17867	-46
1.18233	-43
1.18600	-45
1.18967	-49
1.19333	-53
1.19700	-53
1.20067	-50
1.20433	-48
1.20800	-48
1.21167	-47
1.21533	-50
1.21900	-57
1.22267	-64
1.22633	-68
1.23000	-66
1.23367	-61
1.23733	-55
1.24100	-52
1.24467	-55
1.24833	-59
1.25200	-65
1.25567	-70
1.25933	-72
1.26300	-70
1.26667	-67
1.27033	-65
1.27400	-60
1.27767	-56
1.28133	-55
1.28500	-57
1.28867	-61
1.29233	-66
1.29600	-69
1.29967	-67
1.30333	-64
1.30700	-62
1.31067	-61
1.31433	-62
1.31800	-63
1.32167	-64
1.32533	-68
1.32900	-71
1.33267	-74
1.33633	-76
1.34000	-71
1.34367	-65
1.34733	-63
1.35100	-67
1.35467	-70
1.35833	-74
1.36200	-77
1.36567	-76
1.36933	-73
1.37300	-65
1.37667	-54
1.38033	-45
1.38400	-38
1.38767	-34
1.39133	-33
1.39500	-32
1.39867	-36
1.40233	-44
1.40600	-53
1.40967	-61
1.41333	-69
1.41700	-77
1.42067	-84
1.42433	-89
1.42800	-88
1.43167	-85
1.43533	-82
1.43900	-75
1.44267	-63
1.44633	-38
1.45000	0
1.45367	40
1.45733	68
1.46100	76
1.46467	67
1.46833	54
1.47200	44
1.47567	37
1.47933	30
1.48300	23
1.48667	16
1.49033	9
1.49400	2
1.49767	-9
1.50133	-24
1.50500	-42
1.50867	-57
1.51233	-63
1.51600	-62
1.51967	-63
1.52333	-67
1.52700	-75
1.53067	-82
1.53433	-86
1.53800	-86
1.54167	-83
1.54533	-77
1.54900	-68
1.55267	-57
1.55633	-50
1.56000	-49
1.56367	-52
1.56733	-54
1.57100	-60
1.57467	-89
1.57833	-54
1.58200	-38
1.58567	-41
1.58933	-51
1.59300	-59
1.59667	-66
1.60033	-72
1.60400	-76
1.60767	-80
1.61133	-84
1.61500	-83
1.61867	-79
1.62233	-74
1.62600	-66
1.62967	-56
1.63333	-47
1.63700	-42
1.64067	-40
1.64433	-39
1.64800	-39
1.65167	-44
1.65533	-53
1.65900	-66
1.66267	-77
1.66633	-75
1.67000	-74
1.67367	-73
1.67733	-73
1.68100	-75
1.68467	-79
1.68833	-81
1.69200	-81
1.69567	-78
1.69933	-75
1.70300	-70
1.70667	-66
1.71033	-66
1.71400	-65
1.71767	-61
1.72133	-59
1.72500	-59
1.72867	-59
1.73233	-59
1.73600	-61
1.73967	-64
1.74333	-65
1.74700	-65
1.75067	-64
1.75433	-62
1.75800	-57
1.76167	-52
1.76533	-52
1.76900	-57
1.77267	-62
1.77633	-65
1.78000	-65
1.78367	-64
1.78733	-58
1.79100	-53
1.79467	-54
1.79833	-54
1.80200	-51
1.80567	-49
1.80933	-50
1.81300	-51
1.81667	-54
1.82033	-58
1.82400	-64
1.82767	-66
1.83133	-64
1.83500	-59
1.83867	-54
1.84233	-52
1.84600	-52
1.84967	-57
1.85333	-64
1.85700	-69
1.86067	-70
1.86433	-68
1.86800	-69
1.87167	-69
1.87533	-69
1.87900	-65
1.88267	-58
1.88633	-55
1.89000	-59
1.89367	-67
1.89733	-72
1.90100	-70
1.90467	-68
1.90833	-68
1.91200	-69
1.91567	-68
1.91933	-65
1.92300	-61
1.92667	-58
1.93033	-59
1.93400	-62
1.93767	-63
1.94133	-62
1.94500	-60
1.94867	-59
1.95233	-57
1.95600	-47
1.95967	-25
1.96333	31
1.96700	188
1.97067	546
1.97433	1181
1.97800	2032
1.98167	2880
1.98533	3478
1.98900	3704
1.99267	3610
1.99633	3334
2.00000	2993
2.00367	2635
2.00733	2264
2.01100	1876
2.01467	1487
2.01833	1129
2.02200	825
2.02567	584
2.02933	401
2.03300	268
2.03667	173
2.04033	103
2.04400	62
2.04767	39
2.05133	23
2.05500	9
2.05867	-0
2.06233	-4
2.06600	-5
2.06967	-5
2.07333	-5
2.07700	-5
2.08067	-5
2.08433	-4
2.08800	-4
2.09167	-10
2.09533	-26
2.09900	-34
2.10267	-33
2.10633	-28
2.11000	-24
2.11367	-26
2.11733	-25
2.12100	-20
2.12467	-17
2.12833	-19
2.13200	-24
2.13567	-29
2.13933	-32
2.14300	-35
2.14667	-39
2.15033	-42
2.15400	-41
2.15767	-35
2.16133	-33
2.16500	-30
2.16867	-30
2.17233	-27
2.17600	-23
2.17967	-16
2.18333	-14
2.18700	-16
2.19067	-14
2.19433	-11
2.19800	-11
2.20167	-17
2.20533	-24
2.20900	-33
2.21267	-37
2.21633	-37
2.22000	-33
2.22367	-27
2.22733	-25
2.23100	-25
2.23467	-23
2.23833	-21
2.24200	-20
2.24567	-19
2.24933	-21
2.25300	-24
2.25667	-27
2.26033	-29
2.26400	-38
2.26767	-41
2.27133	-40
2.27500	-32
2.27867	-26
2.28233	-22
2.28600	-18
2.28967	-10
2.29333	-8
2.29700	-10
2.30067	-16
2.30433	-22
2.30800	-27
2.31167	-30
2.31533	-29
2.31900	-26
2.32267	-25
2.32633	-28
2.33000	-30
2.33367	-30
2.33733	-28
2.34100	-26
2.34467	-24
2.34833	-24
2.35200	-25
2.35567	-28
2.35933	-31
2.36300	-31
2.36667	-30
2.37033	-28
2.37400	-24
2.37767	-18
2.38133	-15
2.38500	-16
2.38867	-16
2.39233	-18
2.39600	-15
2.39967	-7
2.40333	-2
2.40700	-2
2.41067	-2
2.41433	-3
2.41800	-7
2.42167	-11
2.42533	-13
2.42900	-12
2.43267	-12
2.43633	-15
2.44000	-20
2.44367	-23
2.44733	-24
2.45100	-22
2.45467	-19
2.45833	-15
2.46200	-13
2.46567	-15
2.46933	-17
2.47300	-19
2.47667	-19
2.48033	-16
2.48400	-12
2.48767	-7
2.49133	-1
2.49500	-2
2.49867	-7
2.50233	-13
2.50600	-17
2.50967	-16
2.51333	-13
2.51700	-11
2.52067	-9
2.52433	-10
2.52800	-14
2.53167	-19
2.53533	-23
2.53900	-20
2.54267	-15
2.54633	-9
2.55000	-3
2.55367	-0
2.55733	-1
2.56100	-4
2.56467	-7
2.56833	-9
2.57200	-15
2.57567	-23
2.57933	-27
2.58300	-26
2.58667	-21
2.59033	-12
2.59400	-5
2.59767	-2
2.60133	-4
2.60500	-8
2.60867	-16
2.61233	-27
2.61600	-32
2.61967	-35
2.62333	-38
2.62700	-40
2.63067	-38
2.63433	-36
2.63800	-29
2.64167	-19
2.64533	-12
2.64900	-9
2.65267	-9
2.65633	-12
2.66000	-16
2.66367	-19
2.66733	-22
2.67100	-23
2.67467	-24
2.67833	-27
2.68200	-30
2.68567	-36
2.68933	-41
2.69300	-40
2.69667	-34
2.70033	-28
2.70400	-24
2.70767	-21
2.71133	-22
2.71500	-25
2.71867	-29
2.72233	-36
2.72600	-49
2.72967	-43
2.73333	-29
2.73700	-21
2.74067	-19
2.74433	-20
2.74800	-21
2.75167	-20
2.75533	-20
2.75900	-22
2.76267	-23
2.76633	-24
2.77000	-27
2.77367	-32
2.77733	-34
2.78100	-30
2.78467	-22
2.78833	-15
2.79200	-8
2.79567	-4
2.79933	-1
2.80300	-5
2.80667	-13
2.81033	-19
2.81400	-26
2.81767	-28
2.82133	-27
2.82500	-26
2.82867	-22
2.83233	-21
2.83600	-20
2.83967	-19
2.84333	-16
2.84700	-7
2.85067	4
2.85433	14
2.85800	18
2.86167	14
2.86533	1
2.86900	-8
2.87267	-12
2.87633	-14
2.88000	-17
2.88367	-17
2.88733	-15
2.89100	-15
2.89467	-17
2.89833	-18
2.90200	-18
2.90567	-17
2.90933	-16
2.91300	-19
2.91667	-21
2.92033	-19
2.92400	-11
2.92767	-9
2.93133	-10
2.93500	-12
2.93867	-16
2.94233	-19
2.94600	-19
2.94967	-16
2.95333	-14
2.95700	-12
2.96067	-9
2.96433	-8
2.96800	-5
2.97167	1
2.97533	5
2.97900	2
2.98267	-3
2.98633	-8
2.99000	-13
2.99367	-16
2.99733	-14
3.00100	-10
3.00467	-7
3.00833	-3
3.01200	2
3.01567	7
3.01933	7
3.02300	3
3.02667	-8
3.03033	-17
3.03400	-22
3.03767	-24
3.04133	-21
3.04500	-18
3.04867	-13
3.05233	-7
3.05600	-4
3.05967	-1
3.06333	-4
3.06700	-9
3.07067	-13
3.07433	-13
3.07800	-8
3.08167	-1
3.08533	3
3.08900	4
3.09267	4
3.09633	5
3.10000	5
3.10367	3
3.10733	0
3.11100	-4
3.11467	-9
3.11833	-14
3.12200	-18
3.12567	-19
3.12933	-16
3.13300	-12
3.13667	-10
3.14033	-11
3.14400	-10
3.14767	-8
3.15133	-8
3.15500	-8
3.15867	-6
3.16233	-5
3.16600	-9
3.16967	-13
3.17333	-12
3.17700	-9
3.18067	-5
3.18433	-2
3.18800	-1
3.19167	-3
3.19533	-7
3.19900	-12
3.20267	-14
3.20633	-15
3.21000	-14
3.21367	-10
3.21733	-6
3.22100	-2
3.22467	-1
3.22833	0
3.23200	4
3.23567	8
3.23933	8
3.24300	5
3.24667	4
3.25033	2
3.25400	-1
3.25767	-3
3.26133	-4
3.26500	-5
3.26867	-8
3.27233	-9
3.27600	-11
3.27967	-11
3.28333	-11
3.28700	-13
3.29067	-12
3.29433	-8
3.29800	-5
3.30167	-0
3.30533	6
3.30900	13
3.31267	18
3.31633	18
3.32000	12
3.32367	-0
3.32733	-11
3.33100	-15
3.33467	-10
3.33833	-1
3.34200	4
3.34567	5
3.34933	5
3.35300	7
3.35667	11
3.36033	14
3.36400	14
3.36767	11
3.37133	6
3.37500	2
3.37867	4
3.38233	3
3.38600	-2
3.38967	-9
3.39333	-15
3.39700	-18
3.40067	-16
3.40433	-10
3.40800	-1
3.41167	8
3.41533	11
3.41900	9
3.42267	6
3.42633	2
3.43000	-1
3.43367	-4
3.43733	-3
3.44100	3
3.44467	7
3.44833	9
3.45200	5
3.45567	-1
3.45933	-7
3.46300	-11
3.46667	-13
3.47033	-16
3.47400	-17
3.47767	-18
3.48133	-19
3.48500	-17
3.48867	-12
3.49233	-5
3.49600	-1
3.49967	4
3.50333	8
3.50700	10
3.51067	12
3.51433	15
3.51800	15
3.52167	14
3.52533	13
3.52900	16
3.53267	20
3.53633	25
3.54000	31
3.54367	35
3.54733	34
3.55100	32
3.55467	27
3.55833	22
3.56200	16
3.56567	13
3.56933	15
3.57300	18
3.57667	22
3.58033	28
3.58400	34
3.58767	36
3.59133	36
3.59500	32
3.59867	26
3.60233	20
3.60600	16
3.60967	10
3.61333	3
3.61700	-1
3.62067	0
3.62433	1
3.62800	6
3.63167	10
3.63533	14
3.63900	15
3.64267	15
3.64633	14
3.65000	15
3.65367	18
3.65733	19
3.66100	17
3.66467	17
3.66833	19
3.67200	19
3.67567	19
3.67933	19
3.68300	22
3.68667	27
3.69033	32
3.69400	33
3.69767	32
3.70133	30
3.70500	27
3.70867	26
3.71233	23
3.71600	21
3.71967	21
3.72333	27
3.72700	31
3.73067	35
3.73433	37
3.73800	40
3.74167	44
3.74533	46
3.74900	44
3.75267	39
3.75633	36
3.76000	39
3.76367	47
3.76733	52
3.77100	52
3.77467	47
3.77833	37
3.78200	30
3.78567	26
3.78933	25
3.79300	26
3.79667	29
3.80033	32
3.80400	38
3.80767	43
3.81133	45
3.81500	46
3.81867	47
3.82233	46
3.82600	45
3.82967	42
3.83333	39
3.83700	39
3.84067	39
3.84433	34
3.84800	29
3.85167	30
3.85533	34
3.85900	37
3.86267	39
3.86633	44
3.87000	49
3.87367	53
3.87733	56
3.88100	61
3.88467	67
3.88833	71
3.89200	74
3.89567	78
3.89933	87
3.90300	101
3.90667	118
3.91033	139
3.91400	160
3.91767	180
3.92133	197
3.92500	211
3.92867	224
3.93233	232
3.93600	238
3.93967	245
3.94333	256
3.94700	268
3.95067	280
3.95433	289
3.95800	294
3.96167	300
3.96533	307
3.96900	314
3.97267	314
3.97633	313
3.98000	311
3.98367	307
3.98733	305
3.99100	308
3.99467	313
3.99833	318

[Chromatogram (Ch2)]
Interval(msec)	220
# of Points	1091
Start Time(min)	0.002
End Time(min)	3.998
R.Time (min)	Intensity
0.00167	-1
0.00533	-1
0.00900	-1
0.01267	-2
0.01633	-2
0.02000	-2
0.02367	-2
0.02733	-2
0.03100	-2
0.03467	-2
0.03833	-2
0.04200	-2
0.04567	-1
0.04933	-1
0.05300	-1
0.05667	-1
0.06033	-1
0.06400	-0
0.06767	-0
0.07133	-0
0.07500	-1
0.07867	-1
0.08233	-1
0.08600	-1
0.08967	-1
0.09333	-1
0.09700	-1
0.10067	-1
0.10433	-1
0.10800	-1
0.11167	-1
0.11533	-0
0.11900	-0
0.12267	-0
0.12633	-0
0.13000	-0
0.13367	-0
0.13733	-0
0.14100	-0
0.14467	-0
0.14833	-1
0.15200	-1
0.15567	-1
0.15933	-1
0.16300	-1
0.16667	-1
0.17033	-1
0.17400	-1
0.17767	-1
0.18133	-1
0.18500	-1
0.18867	-1
0.19233	-1
0.19600	-1
0.19967	-1
0.20333	-1
0.20700	-1
0.21067	-0
0.21433	-0
0.21800	-0
0.22167	-0
0.22533	-0
0.22900	-0
0.23267	-0
0.23633	-0
0.24000	-0
0.24367	-0
0.24733	-1
0.25100	-1
0.25467	-1
0.25833	-2
0.26200	-2
0.26567	-2
0.26933	-2
0.27300	-3
0.27667	-3
0.28033	-3
0.28400	-3
0.28767	-3
0.29133	-3
0.29500	-3
0.29867	-3
0.30233	-3
0.30600	-3
0.30967	-3
0.31333	-3
0.31700	-3
0.32067	-3
0.32433	-2
0.32800	-2
0.33167	-2
0.33533	-2
0.33900	-1
0.34267	-1
0.34633	-1
0.35000	-1
0.35367	-1
0.35733	-1
0.36100	-1
0.36467	-1
0.36833	-1
0.37200	-1
0.37567	-1
0.37933	-1
0.38300	-1
0.38667	-1
0.39033	-1
0.39400	-1
0.39767	-1
0.40133	-2
0.40500	-2
0.40867	-2
0.41233	-3
0.41600	-3
0.41967	-3
0.42333	-3
0.42700	-3
0.43067	-4
0.43433	-4
0.43800	-4
0.44167	-4
0.44533	-5
0.44900	-5
0.45267	-5
0.45633	-5
0.46000	-5
0.46367	-5
0.46733	-5
0.47100	-5
0.47467	-5
0.47833	-5
0.48200	-5
0.48567	-5
0.48933	-5
0.49300	-4
0.49667	-4
0.50033	-4
0.50400	-3
0.50767	-3
0.51133	-3
0.51500	-3
0.51867	-2
0.52233	-2
0.52600	-2
0.52967	-2
0.53333	-2
0.53700	-2
0.54067	-2
0.54433	-2
0.54800	-2
0.55167	-1
0.55533	-1
0.55900	-1
0.56267	-1
0.56633	-1
0.57000	-1
0.57367	-1
0.57733	-1
0.58100	-1
0.58467	-1
0.58833	-1
0.59200	-1
0.59567	-1
0.59933	-1
0.60300	-1
0.60667	-1
0.61033	-2
0.61400	-2
0.61767	-2
0.62133	-2
0.62500	-2
0.62867	-2
0.63233	-3
0.63600	-3
0.63967	-4
0.64333	-4
0.64700	-4
0.65067	-4
0.65433	-4
0.65800	-4
0.66167	-4
0.66533	-4
0.66900	-4
0.67267	-4
0.67633	-4
0.68000	-4
0.68367	-4
0.68733	-4
0.69100	-4
0.69467	-4
0.69833	-3
0.70200	-3
0.70567	-3
0.70933	-2
0.71300	-2
0.71667	-2
0.72033	-1
0.72400	-1
0.72767	-1
0.73133	-1
0.73500	-1
0.73867	-1
0.74233	-1
0.74600	-1
0.74967	-1
0.75333	-1
0.75700	-1
0.76067	-1
0.76433	-1
0.76800	-1
0.77167	-1
0.77533	-1
0.77900	-1
0.78267	-1
0.78633	-1
0.79000	-1
0.79367	-1
0.79733	-1
0.80100	-2
0.80467	-2
0.80833	-2
0.81200	-3
0.81567	-3
0.81933	-3
0.82300	-4
0.82667	-4
0.83033	-4
0.83400	-4
0.83767	-5
0.84133	-5
0.84500	-5
0.84867	-5
0.85233	-6
0.85600	-6
0.85967	-6
0.86333	-6
0.86700	-5
0.87067	-5
0.87433	-5
0.87800	-5
0.88167	-5
0.88533	-5
0.88900	-4
0.89267	-4
0.89633	-3
0.90000	-3
0.90367	-3
0.90733	-3
0.91100	-3
0.91467	-3
0.91833	-3
0.92200	-3
0.92567	-3
0.92933	-3
0.93300	-3
0.93667	-3
0.94033	-2
0.94400	-2
0.94767	-2
0.95133	-2
0.95500	-2
0.95867	-2
0.96233	-2
0.96600	-2
0.96967	-2
0.97333	-2
0.97700	-2
0.98067	-2
0.98433	-1
0.98800	-1
0.99167	-1
0.99533	-1
0.99900	-1
1.00267	-1
1.00633	-1
1.01000	-1
1.01367	-1
1.01733	-1
1.02100	-1
1.02467	-1
1.02833	-1
1.03200	-1
1.03567	-1
1.03933	-1
1.04300	-1
1.04667	-1
1.05033	-1
1.05400	-1
1.05767	-1
1.06133	-1
1.06500	-1
1.06867	-1
1.07233	-1
1.07600	-1
1.07967	-1
1.08333	-1
1.08700	-1
1.09067	-1
1.09433	-0
1.09800	-0
1.10167	-0
1.10533	-1
1.10900	-1
1.11267	-1
1.11633	-1
1.12000	-2
1.12367	-2
1.12733	-2
1.13100	-2
1.13467	-2
1.13833	-2
1.14200	-2
1.14567	-2
1.14933	-2
1.15300	-2
1.15667	-2
1.16033	-2
1.16400	-2
1.16767	-2
1.17133	-2
1.17500	-2
1.17867	-2
1.18233	-2
1.18600	-3
1.18967	-3
1.19333	-3
1.19700	-2
1.20067	-2
1.20433	-2
1.20800	-2
1.21167	-2
1.21533	-2
1.21900	-2
1.22267	-3
1.22633	-3
1.23000	-3
1.23367	-3
1.23733	-3
1.24100	-3
1.24467	-3
1.24833	-3
1.25200	-3
1.25567	-3
1.25933	-4
1.26300	-4
1.26667	-4
1.27033	-5
1.27400	-5
1.27767	-5
1.28133	-5
1.28500	-5
1.28867	-5
1.29233	-5
1.29600	-4
1.29967	-4
1.30333	-4
1.30700	-4
1.31067	-4
1.31433	-3
1.31800	-3
1.32167	-3
1.32533	-3
1.32900	-3
1.33267	-3
1.33633	-3
1.34000	-3
1.34367	-3
1.34733	-3
1.35100	-3
1.35467	-3
1.35833	-3
1.36200	-3
1.36567	-3
1.36933	-3
1.37300	-2
1.37667	-2
1.38033	-2
1.38400	-2
1.38767	-2
1.39133	-1
1.39500	-1
1.39867	-0
1.40233	-0
1.40600	-0
1.40967	-1
1.41333	-0
1.41700	-0
1.42067	-0
1.42433	-0
1.42800	-0
1.43167	-1
1.43533	-0
1.43900	-0
1.44267	-0
1.44633	-0
1.45000	-0
1.45367	-1
1.45733	-1
1.46100	-1
1.46467	-1
1.46833	-2
1.47200	-2
1.47567	-3
1.47933	-3
1.48300	-3
1.48667	-3
1.49033	-4
1.49400	-4
1.49767	-4
1.50133	-5
1.50500	-5
1.50867	-5
1.51233	-5
1.51600	-5
1.51967	-5
1.52333	-6
1.52700	-6
1.53067	-6
1.53433	-7
1.53800	-7
1.54167	-7
1.54533	-7
1.54900	-7
1.55267	-7
1.55633	-7
1.56000	-6
1.56367	-6
1.56733	-6
1.57100	-5
1.57467	-5
1.57833	-5
1.58200	-4
1.58567	-4
1.58933	-4
1.59300	-4
1.59667	-4
1.60033	-4
1.60400	-5
1.60767	-6
1.61133	-8
1.61500	-10
1.61867	-12
1.62233	-14
1.62600	-17
1.62967	-20
1.63333	-22
1.63700	-26
1.64067	-29
1.64433	-33
1.64800	-36
1.65167	-40
1.65533	-44
1.65900	-48
1.66267	-52
1.66633	-57
1.67000	-61
1.67367	-66
1.67733	-71
1.68100	-76
1.68467	-81
1.68833	-86
1.69200	-91
1.69567	-95
1.69933	-98
1.70300	-101
1.70667	-103
1.71033	-105
1.71400	-107
1.71767	-108
1.72133	-109
1.72500	-110
1.72867	-110
1.73233	-111
1.73600	-111
1.73967	-111
1.74333	-111
1.74700	-111
1.75067	-111
1.75433	-111
1.75800	-111
1.76167	-111
1.76533	-112
1.76900	-113
1.77267	-114
1.77633	-115
1.78000	-116
1.78367	-117
1.78733	-117
1.79100	-118
1.79467	-119
1.79833	-119
1.80200	-120
1.80567	-120
1.80933	-120
1.81300	-121
1.81667	-121
1.82033	-121
1.82400	-121
1.82767	-120
1.83133	-120
1.83500	-120
1.83867	-120
1.84233	-120
1.84600	-120
1.84967	-120
1.85333	-121
1.85700	-121
1.86067	-121
1.86433	-121
1.86800	-120
1.87167	-120
1.87533	-120
1.87900	-120
1.88267	-120
1.88633	-120
1.89000	-120
1.89367	-120
1.89733	-120
1.90100	-120
1.90467	-119
1.90833	-119
1.91200	-119
1.91567	-119
1.91933	-119
1.92300	-118
1.92667	-119
1.93033	-119
1.93400	-118
1.93767	-118
1.94133	-118
1.94500	-117
1.94867	-117
1.95233	-116
1.95600	-116
1.95967	-116
1.96333	-115
1.96700	-115
1.97067	-115
1.97433	-116
1.97800	-116
1.98167	-116
1.98533	-116
1.98900	-116
1.99267	-116
1.99633	-115
2.00000	-115
2.00367	-114
2.00733	-112
2.01100	-111
2.01467	-111
2.01833	-110
2.02200	-110
2.02567	-110
2.02933	-110
2.03300	-110
2.03667	-109
2.04033	-109
2.04400	-109
2.04767	-109
2.05133	-109
2.05500	-109
2.05867	-109
2.06233	-109
2.06600	-108
2.06967	-108
2.07333	-107
2.07700	-107
2.08067	-107
2.08433	-108
2.08800	-108
2.09167	-108
2.09533	-108
2.09900	-108
2.10267	-108
2.10633	-107
2.11000	-107
2.11367	-106
2.11733	-105
2.12100	-105
2.12467	-104
2.12833	-103
2.13200	-103
2.13567	-103
2.13933	-103
2.14300	-103
2.14667	-103
2.15033	-102
2.15400	-101
2.15767	-101
2.16133	-100
2.16500	-99
2.16867	-99
2.17233	-99
2.17600	-100
2.17967	-100
2.18333	-100
2.18700	-100
2.19067	-99
2.19433	-99
2.19800	-98
2.20167	-97
2.20533	-97
2.20900	-97
2.21267	-97
2.21633	-97
2.22000	-97
2.22367	-96
2.22733	-96
2.23100	-96
2.23467	-95
2.23833	-95
2.24200	-94
2.24567	-94
2.24933	-93
2.25300	-92
2.25667	-91
2.26033	-91
2.26400	-91
2.26767	-91
2.27133	-91
2.27500	-91
2.27867	-91
2.28233	-91
2.28600	-90
2.28967	-90
2.29333	-89
2.29700	-89
2.30067	-88
2.30433	-88
2.30800	-88
2.31167	-87
2.31533	-87
2.31900	-86
2.32267	-86
2.32633	-87
2.33000	-88
2.33367	-89
2.33733	-90
2.34100	-90
2.34467	-90
2.34833	-89
2.35200	-88
2.35567	-87
2.35933	-85
2.36300	-83
2.36667	-81
2.37033	-78
2.37400	-74
2.37767	-71
2.38133	-67
2.38500	-63
2.38867	-58
2.39233	-54
2.39600	-49
2.39967	-44
2.40333	-39
2.40700	-35
2.41067	-30
2.41433	-27
2.41800	-23
2.42167	-20
2.42533	-17
2.42900	-15
2.43267	-12
2.43633	-10
2.44000	-8
2.44367	-6
2.44733	-5
2.45100	-3
2.45467	-2
2.45833	-1
2.46200	0
2.46567	1
2.46933	2
2.47300	3
2.47667	4
2.48033	5
2.48400	6
2.48767	7
2.49133	7
2.49500	8
2.49867	9
2.50233	10
2.50600	11
2.50967	11
2.51333	12
2.51700	12
2.52067	12
2.52433	13
2.52800	13
2.53167	14
2.53533	14
2.53900	15
2.54267	15
2.54633	15
2.55000	15
2.55367	15
2.55733	15
2.56100	15
2.56467	16
2.56833	16
2.57200	16
2.57567	16
2.57933	16
2.58300	16
2.58667	17
2.59033	17
2.59400	17
2.59767	18
2.60133	18
2.60500	19
2.60867	19
2.61233	20
2.61600	20
2.61967	21
2.62333	21
2.62700	21
2.63067	21
2.63433	21
2.63800	21
2.64167	21
2.64533	21
2.64900	21
2.65267	21
2.65633	22
2.66000	22
2.66367	22
2.66733	22
2.67100	23
2.67467	23
2.67833	23
2.68200	23
2.68567	23
2.68933	23
2.69300	23
2.69667	23
2.70033	23
2.70400	23
2.70767	24
2.71133	24
2.71500	24
2.71867	25
2.72233	25
2.72600	25
2.72967	26
2.73333	26
2.73700	27
2.74067	27
2.74433	27
2.74800	27
2.75167	26
2.75533	25
2.75900	24
2.76267	24
2.76633	23
2.77000	23
2.77367	22
2.77733	22
2.78100	22
2.78467	22
2.78833	23
2.79200	23
2.79567	23
2.79933	23
2.80300	24
2.80667	25
2.81033	25
2.81400	25
2.81767	26
2.82133	26
2.82500	26
2.82867	26
2.83233	26
2.83600	27
2.83967	27
2.84333	27
2.84700	27
2.85067	27
2.85433	27
2.85800	26
2.86167	26
2.86533	26
2.86900	25
2.87267	24
2.87633	23
2.88000	23
2.88367	22
2.88733	21
2.89100	21
2.89467	20
2.89833	20
2.90200	19
2.90567	19
2.90933	19
2.91300	19
2.91667	20
2.92033	20
2.92400	20
2.92767	20
2.93133	20
2.93500	21
2.93867	22
2.94233	22
2.94600	22
2.94967	23
2.95333	23
2.95700	23
2.96067	24
2.96433	24
2.96800	24
2.97167	24
2.97533	25
2.97900	25
2.98267	25
2.98633	26
2.99000	26
2.99367	26
2.99733	26
3.00100	26
3.00467	26
3.00833	26
3.01200	26
3.01567	26
3.01933	26
3.02300	26
3.02667	26
3.03033	26
3.03400	25
3.03767	25
3.04133	25
3.04500	25
3.04867	25
3.05233	25
3.05600	26
3.05967	26
3.06333	26
3.06700	26
3.07067	26
3.07433	26
3.07800	26
3.08167	26
3.08533	26
3.08900	27
3.09267	27
3.09633	27
3.10000	26
3.10367	26
3.10733	26
3.11100	26
3.11467	26
3.11833	26
3.12200	26
3.12567	26
3.12933	26
3.13300	26
3.13667	26
3.14033	26
3.14400	26
3.14767	26
3.15133	26
3.15500	26
3.15867	26
3.16233	26
3.16600	26
3.16967	26
3.17333	26
3.17700	26
3.18067	26
3.18433	26
3.18800	26
3.19167	26
3.19533	26
3.19900	26
3.20267	26
3.20633	26
3.21000	26
3.21367	26
3.21733	26
3.22100	26
3.22467	26
3.22833	26
3.23200	26
3.23567	26
3.23933	26
3.24300	26
3.24667	26
3.25033	26
3.25400	26
3.25767	26
3.26133	26
3.26500	26
3.26867	26
3.27233	26
3.27600	26
3.27967	26
3.28333	26
3.28700	27
3.29067	27
3.29433	27
3.29800	27
3.30167	27
3.30533	27
3.30900	27
3.31267	27
3.31633	27
3.32000	27
3.32367	27
3.32733	27
3.33100	27
3.33467	27
3.33833	27
3.34200	28
3.34567	28
3.34933	28
3.35300	28
3.35667	28
3.36033	29
3.36400	29
3.36767	29
3.37133	29
3.37500	29
3.37867	29
3.38233	29
3.38600	29
3.38967	28
3.39333	28
3.39700	28
3.40067	28
3.40433	28
3.40800	28
3.41167	29
3.41533	29
3.41900	29
3.42267	29
3.42633	29
3.43000	29
3.43367	29
3.43733	28
3.44100	28
3.44467	28
3.44833	28
3.45200	28
3.45567	28
3.45933	28
3.46300	28
3.46667	28
3.47033	28
3.47400	27
3.47767	27
3.48133	27
3.48500	27
3.48867	27
3.49233	27
3.49600	27
3.49967	27
3.50333	26
3.50700	26
3.51067	26
3.51433	26
3.51800	26
3.52167	26
3.52533	26
3.52900	26
3.53267	27
3.53633	27
3.54000	27
3.54367	27
3.54733	27
3.55100	27
3.55467	27
3.55833	27
3.56200	27
3.56567	27
3.56933	27
3.57300	26
3.57667	26
3.58033	26
3.58400	26
3.58767	26
3.59133	27
3.59500	27
3.59867	27
3.60233	27
3.60600	27
3.60967	27
3.61333	27
3.61700	27
3.62067	27
3.62433	27
3.62800	27
3.63167	27
3.63533	27
3.63900	28
3.64267	28
3.64633	28
3.65000	28
3.65367	28
3.65733	28
3.66100	27
3.66467	27
3.66833	27
3.67200	27
3.67567	27
3.67933	27
3.68300	27
3.68667	26
3.69033	26
3.69400	26
3.69767	26
3.70133	26
3.70500	26
3.70867	26
3.71233	26
3.71600	26
3.71967	26
3.72333	26
3.72700	26
3.73067	26
3.73433	26
3.73800	26
3.74167	25
3.74533	25
3.74900	25
3.75267	25
3.75633	25
3.76000	25
3.76367	25
3.76733	25
3.77100	26
3.77467	26
3.77833	26
3.78200	26
3.78567	26
3.78933	26
3.79300	27
3.79667	27
3.80033	27
3.80400	28
3.80767	28
3.81133	28
3.81500	28
3.81867	28
3.82233	28
3.82600	28
3.82967	27
3.83333	27
3.83700	27
3.84067	27
3.84433	27
3.84800	27
3.85167	27
3.85533	28
3.85900	28
3.86267	28
3.86633	28
3.87000	28
3.87367	28
3.87733	28
3.88100	28
3.88467	28
3.88833	28
3.89200	28
3.89567	28
3.89933	28
3.90300	28
3.90667	28
3.91033	28
3.91400	28
3.91767	28
3.92133	28
3.92500	28
3.92867	28
3.93233	28
3.93600	28
3.93967	28
3.94333	28
3.94700	29
3.95067	29
3.95433	29
3.95800	29
3.96167	29
3.96533	29
3.96900	29
3.97267	29
3.97633	29
3.98000	29
3.98367	28
3.98733	28
3.99100	28
3.99467	28
3.99833	28

[Chromatogram (Ch3)]
Interval(msec)	220
# of Points	1091
Start Time(min)	0.002
End Time(min)	3.998
R.Time (min)	Intensity
0.00167	0
0.00533	1
0.00900	2
0.01267	3
0.01633	5
0.02000	7
0.02367	8
0.02733	6
0.03100	6
0.03467	5
0.03833	3
0.04200	2
0.04567	2
0.04933	3
0.05300	5
0.05667	5
0.06033	4
0.06400	3
0.06767	3
0.07133	3
0.07500	2
0.07867	1
0.08233	1
0.08600	3
0.08967	6
0.09333	8
0.09700	9
0.10067	9
0.10433	7
0.10800	4
0.11167	3
0.11533	4
0.11900	4
0.12267	2
0.12633	2
0.13000	4
0.13367	4
0.13733	5
0.14100	4
0.14467	4
0.14833	6
0.15200	6
0.15567	6
0.15933	6
0.16300	8
0.16667	10
0.17033	12
0.17400	11
0.17767	12
0.18133	10
0.18500	9
0.18867	9
0.19233	7
0.19600	8
0.19967	7
0.20333	7
0.20700	9
0.21067	11
0.21433	11
0.21800	10
0.22167	8
0.22533	6
0.22900	6
0.23267	7
0.23633	9
0.24000	10
0.24367	10
0.24733	10
0.25100	9
0.25467	9
0.25833	9
0.26200	10
0.26567	10
0.26933	10
0.27300	11
0.27667	10
0.28033	11
0.28400	11
0.28767	11
0.29133	10
0.29500	10
0.29867	10
0.30233	11
0.30600	11
0.30967	11
0.31333	12
0.31700	14
0.32067	14
0.32433	13
0.32800	11
0.33167	9
0.33533	9
0.33900	9
0.34267	9
0.34633	9
0.35000	8
0.35367	8
0.35733	7
0.36100	9
0.36467	10
0.36833	10
0.37200	10
0.37567	11
0.37933	11
0.38300	11
0.38667	12
0.39033	11
0.39400	11
0.39767	10
0.40133	10
0.40500	9
0.40867	7
0.41233	8
0.41600	9
0.41967	10
0.42333	11
0.42700	10
0.43067	9
0.43433	9
0.43800	10
0.44167	9
0.44533	9
0.44900	10
0.45267	11
0.45633	10
0.46000	10
0.46367	11
0.46733	11
0.47100	11
0.47467	14
0.47833	15
0.48200	15
0.48567	13
0.48933	14
0.49300	13
0.49667	11
0.50033	11
0.50400	12
0.50767	13
0.51133	15
0.51500	16
0.51867	15
0.52233	15
0.52600	15
0.52967	16
0.53333	16
0.53700	16
0.54067	16
0.54433	16
0.54800	14
0.55167	14
0.55533	13
0.55900	15
0.56267	17
0.56633	18
0.57000	18
0.57367	17
0.57733	17
0.58100	17
0.58467	17
0.58833	17
0.59200	15
0.59567	12
0.59933	10
0.60300	9
0.60667	9
0.61033	10
0.61400	13
0.61767	15
0.62133	17
0.62500	19
0.62867	20
0.63233	18
0.63600	17
0.63967	18
0.64333	19
0.64700	19
0.65067	17
0.65433	15
0.65800	14
0.66167	15
0.66533	18
0.66900	18
0.67267	14
0.67633	12
0.68000	10
0.68367	11
0.68733	13
0.69100	14
0.69467	16
0.69833	17
0.70200	17
0.70567	15
0.70933	14
0.71300	12
0.71667	13
0.72033	15
0.72400	18
0.72767	17
0.73133	17
0.73500	15
0.73867	15
0.74233	16
0.74600	14
0.74967	13
0.75333	14
0.75700	15
0.76067	18
0.76433	21
0.76800	23
0.77167	25
0.77533	27
0.77900	27
0.78267	26
0.78633	26
0.79000	26
0.79367	26
0.79733	23
0.80100	22
0.80467	23
0.80833	23
0.81200	23
0.81567	26
0.81933	30
0.82300	30
0.82667	30
0.83033	30
0.83400	28
0.83767	28
0.84133	29
0.84500	28
0.84867	26
0.85233	26
0.85600	26
0.85967	26
0.86333	24
0.86700	22
0.87067	21
0.87433	22
0.87800	24
0.88167	25
0.88533	26
0.88900	25
0.89267	23
0.89633	22
0.90000	23
0.90367	25
0.90733	27
0.91100	29
0.91467	31
0.91833	32
0.92200	33
0.92567	34
0.92933	34
0.93300	34
0.93667	32
0.94033	30
0.94400	28
0.94767	27
0.95133	27
0.95500	29
0.95867	31
0.96233	30
0.96600	29
0.96967	28
0.97333	26
0.97700	25
0.98067	24
0.98433	25
0.98800	26
0.99167	25
0.99533	24
0.99900	25
1.00267	26
1.00633	27
1.01000	26
1.01367	27
1.01733	29
1.02100	31
1.02467	30
1.02833	29
1.03200	28
1.03567	26
1.03933	27
1.04300	26
1.04667	28
1.05033	30
1.05400	30
1.05767	28
1.06133	27
1.06500	27
1.06867	27
1.07233	27
1.07600	25
1.07967	26
1.08333	28
1.08700	29
1.09067	31
1.09433	33
1.09800	34
1.10167	33
1.10533	31
1.10900	29
1.11267	30
1.11633	29
1.12000	30
1.12367	31
1.12733	31
1.13100	30
1.13467	29
1.13833	29
1.14200	30
1.14567	32
1.14933	35
1.15300	36
1.15667	36
1.16033	36
1.16400	34
1.16767	32
1.17133	29
1.17500	29
1.17867	29
1.18233	29
1.18600	29
1.18967	30
1.19333	30
1.19700	30
1.20067	31
1.20433	31
1.20800	31
1.21167	32
1.21533	31
1.21900	31
1.22267	32
1.22633	33
1.23000	35
1.23367	35
1.23733	36
1.24100	38
1.24467	38
1.24833	35
1.25200	32
1.25567	32
1.25933	32
1.26300	33
1.26667	31
1.27033	31
1.27400	32
1.27767	32
1.28133	33
1.28500	33
1.28867	34
1.29233	35
1.29600	35
1.29967	34
1.30333	36
1.30700	36
1.31067	34
1.31433	34
1.31800	33
1.32167	33
1.32533	34
1.32900	34
1.33267	34
1.33633	34
1.34000	34
1.34367	34
1.34733	35
1.35100	36
1.35467	35
1.35833	35
1.36200	35
1.36567	32
1.36933	31
1.37300	32
1.37667	33
1.38033	35
1.38400	37
1.38767	38
1.39133	37
1.39500	37
1.39867	38
1.40233	37
1.40600	35
1.40967	34
1.41333	36
1.41700	36
1.42067	34
1.42433	34
1.42800	34
1.43167	35
1.43533	34
1.43900	35
1.44267	35
1.44633	33
1.45000	32
1.45367	32
1.45733	31
1.46100	30
1.46467	31
1.46833	32
1.47200	34
1.47567	35
1.47933	34
1.48300	33
1.48667	32
1.49033	31
1.49400	32
1.49767	33
1.50133	33
1.50500	35
1.50867	36
1.51233	37
1.51600	35
1.51967	34
1.52333	33
1.52700	32
1.53067	32
1.53433	34
1.53800	35
1.54167	36
1.54533	36
1.54900	35
1.55267	36
1.55633	36
1.56000	36
1.56367	37
1.56733	37
1.57100	36
1.57467	35
1.57833	35
1.58200	36
1.58567	37
1.58933	36
1.59300	38
1.59667	39
1.60033	40
1.60400	38
1.60767	37
1.61133	38
1.61500	38
1.61867	39
1.62233	41
1.62600	42
1.62967	43
1.63333	42
1.63700	42
1.64067	43
1.64433	43
1.64800	44
1.65167	45
1.65533	47
1.65900	48
1.66267	49
1.66633	50
1.67000	52
1.67367	53
1.67733	54
1.68100	55
1.68467	54
1.68833	54
1.69200	55
1.69567	56
1.69933	54
1.70300	54
1.70667	54
1.71033	56
1.71400	57
1.71767	56
1.72133	56
1.72500	58
1.72867	61
1.73233	63
1.73600	64
1.73967	64
1.74333	66
1.74700	67
1.75067	67
1.75433	68
1.75800	70
1.76167	74
1.76533	76
1.76900	75
1.77267	73
1.77633	73
1.78000	76
1.78367	77
1.78733	80
1.79100	80
1.79467	79
1.79833	79
1.80200	80
1.80567	81
1.80933	81
1.81300	83
1.81667	84
1.82033	86
1.82400	87
1.82767	87
1.83133	85
1.83500	84
1.83867	85
1.84233	87
1.84600	88
1.84967	89
1.85333	90
1.85700	92
1.86067	92
1.86433	91
1.86800	90
1.87167	90
1.87533	90
1.87900	92
1.88267	91
1.88633	90
1.89000	89
1.89367	88
1.89733	90
1.90100	91
1.90467	90
1.90833	90
1.91200	91
1.91567	92
1.91933	95
1.92300	99
1.92667	100
1.93033	98
1.93400	97
1.93767	98
1.94133	100
1.94500	101
1.94867	100
1.95233	100
1.95600	100
1.95967	101
1.96333	102
1.96700	103
1.97067	104
1.97433	107
1.97800	110
1.98167	112
1.98533	114
1.98900	116
1.99267	117
1.99633	116
2.00000	117
2.00367	121
2.00733	124
2.01100	126
2.01467	127
2.01833	127
2.02200	126
2.02567	126
2.02933	127
2.03300	127
2.03667	128
2.04033	129
2.04400	130
2.04767	132
2.05133	136
2.05500	138
2.05867	140
2.06233	142
2.06600	144
2.06967	147
2.07333	147
2.07700	148
2.08067	149
2.08433	149
2.08800	149
2.09167	148
2.09533	149
2.09900	153
2.10267	155
2.10633	158
2.11000	162
2.11367	163
2.11733	163
2.12100	163
2.12467	164
2.12833	164
2.13200	168
2.13567	172
2.13933	176
2.14300	178
2.14667	177
2.15033	175
2.15400	176
2.15767	179
2.16133	183
2.16500	184
2.16867	186
2.17233	190
2.17600	192
2.17967	193
2.18333	195
2.18700	195
2.19067	198
2.19433	199
2.19800	203
2.20167	205
2.20533	206
2.20900	209
2.21267	210
2.21633	210
2.22000	209
2.22367	209
2.22733	212
2.23100	215
2.23467	216
2.23833	219
2.24200	220
2.24567	219
2.24933	219
2.25300	221
2.25667	221
2.26033	223
2.26400	224
2.26767	225
2.27133	227
2.27500	229
2.27867	232
2.28233	235
2.28600	235
2.28967	236
2.29333	238
2.29700	240
2.30067	244
2.30433	246
2.30800	246
2.31167	247
2.31533	248
2.31900	249
2.32267	251
2.32633	252
2.33000	254
2.33367	258
2.33733	259
2.34100	258
2.34467	259
2.34833	259
2.35200	261
2.35567	262
2.35933	263
2.36300	265
2.36667	268
2.37033	271
2.37400	274
2.37767	276
2.38133	276
2.38500	274
2.38867	269
2.39233	266
2.39600	264
2.39967	265
2.40333	270
2.40700	275
2.41067	278
2.41433	282
2.41800	288
2.42167	292
2.42533	293
2.42900	293
2.43267	295
2.43633	297
2.44000	300
2.44367	302
2.44733	304
2.45100	308
2.45467	308
2.45833	306
2.46200	304
2.46567	303
2.46933	308
2.47300	314
2.47667	321
2.48033	332
2.48400	341
2.48767	351
2.49133	359
2.49500	364
2.49867	369
2.50233	373
2.50600	378
2.50967	384
2.51333	389
2.51700	396
2.52067	402
2.52433	406
2.52800	409
2.53167	413
2.53533	419
2.53900	423
2.54267	425
2.54633	428
2.55000	431
2.55367	436
2.55733	440
2.56100	442
2.56467	445
2.56833	447
2.57200	449
2.57567	451
2.57933	455
2.58300	459
2.58667	462
2.59033	465
2.59400	468
2.59767	471
2.60133	472
2.60500	472
2.60867	471
2.61233	470
2.61600	469
2.61967	471
2.62333	475
2.62700	477
2.63067	480
2.63433	484
2.63800	485
2.64167	485
2.64533	485
2.64900	487
2.65267	485
2.65633	485
2.66000	484
2.66367	483
2.66733	482
2.67100	484
2.67467	486
2.67833	488
2.68200	490
2.68567	490
2.68933	491
2.69300	492
2.69667	494
2.70033	495
2.70400	494
2.70767	494
2.71133	491
2.71500	489
2.71867	489
2.72233	489
2.72600	490
2.72967	491
2.73333	495
2.73700	497
2.74067	497
2.74433	498
2.74800	499
2.75167	502
2.75533	504
2.75900	503
2.76267	503
2.76633	502
2.77000	502
2.77367	503
2.77733	502
2.78100	502
2.78467	501
2.78833	501
2.79200	502
2.79567	504
2.79933	505
2.80300	503
2.80667	501
2.81033	502
2.81400	504
2.81767	506
2.82133	508
2.82500	508
2.82867	508
2.83233	510
2.83600	511
2.83967	512
2.84333	513
2.84700	514
2.85067	515
2.85433	518
2.85800	522
2.86167	525
2.86533	525
2.86900	524
2.87267	520
2.87633	518
2.88000	517
2.88367	513
2.88733	510
2.89100	507
2.89467	503
2.89833	501
2.90200	499
2.90567	496
2.90933	494
2.91300	492
2.91667	491
2.92033	492
2.92400	492
2.92767	491
2.93133	488
2.93500	482
2.93867	481
2.94233	480
2.94600	479
2.94967	477
2.95333	473
2.95700	472
2.96067	470
2.96433	469
2.96800	467
2.97167	466
2.97533	465
2.97900	463
2.98267	459
2.98633	459
2.99000	459
2.99367	456
2.99733	452
3.00100	451
3.00467	449
3.00833	447
3.01200	448
3.01567	445
3.01933	441
3.02300	439
3.02667	438
3.03033	436
3.03400	433
3.03767	431
3.04133	430
3.04500	429
3.04867	429
3.05233	428
3.05600	426
3.05967	426
3.06333	424
3.06700	423
3.07067	422
3.07433	421
3.07800	422
3.08167	423
3.08533	425
3.08900	424
3.09267	423
3.09633	421
3.10000	419
3.10367	416
3.10733	415
3.11100	414
3.11467	413
3.11833	412
3.12200	411
3.12567	410
3.12933	407
3.13300	404
3.13667	403
3.14033	402
3.14400	401
3.14767	398
3.15133	395
3.15500	393
3.15867	393
3.16233	393
3.16600	390
3.16967	388
3.17333	386
3.17700	384
3.18067	381
3.18433	381
3.18800	382
3.19167	382
3.19533	381
3.19900	381
3.20267	379
3.20633	377
3.21000	375
3.21367	373
3.21733	369
3.22100	368
3.22467	367
3.22833	368
3.23200	370
3.23567	369
3.23933	368
3.24300	366
3.24667	363
3.25033	360
3.25400	357
3.25767	356
3.26133	355
3.26500	354
3.26867	354
3.27233	354
3.27600	351
3.27967	346
3.28333	343
3.28700	342
3.29067	340
3.29433	340
3.29800	341
3.30167	342
3.30533	339
3.30900	337
3.31267	335
3.31633	335
3.32000	333
3.32367	331
3.32733	332
3.33100	331
3.33467	329
3.33833	326
3.34200	323
3.34567	322
3.34933	321
3.35300	323
3.35667	323
3.36033	321
3.36400	317
3.36767	313
3.37133	312
3.37500	313
3.37867	312
3.38233	311
3.38600	310
3.38967	307
3.39333	307
3.39700	306
3.40067	303
3.40433	302
3.40800	301
3.41167	301
3.41533	298
3.41900	295
3.42267	294
3.42633	294
3.43000	293
3.43367	289
3.43733	287
3.44100	288
3.44467	288
3.44833	288
3.45200	286
3.45567	284
3.45933	281
3.46300	279
3.46667	279
3.47033	277
3.47400	276
3.47767	273
3.48133	273
3.48500	273
3.48867	273
3.49233	272
3.49600	270
3.49967	267
3.50333	265
3.50700	262
3.51067	260
3.51433	259
3.51800	257
3.52167	255
3.52533	252
3.52900	248
3.53267	247
3.53633	246
3.54000	246
3.54367	244
3.54733	241
3.55100	239
3.55467	236
3.55833	234
3.56200	234
3.56567	233
3.56933	231
3.57300	230
3.57667	230
3.58033	229
3.58400	228
3.58767	224
3.59133	220
3.59500	218
3.59867	217
3.60233	216
3.60600	213
3.60967	211
3.61333	209
3.61700	207
3.62067	207
3.62433	205
3.62800	201
3.63167	197
3.63533	197
3.63900	196
3.64267	196
3.64633	194
3.65000	192
3.65367	190
3.65733	187
3.66100	184
3.66467	182
3.66833	179
3.67200	177
3.67567	176
3.67933	174
3.68300	170
3.68667	166
3.69033	163
3.69400	159
3.69767	156
3.70133	156
3.70500	155
3.70867	154
3.71233	153
3.71600	151
3.71967	146
3.72333	142
3.72700	139
3.73067	138
3.73433	137
3.73800	135
3.74167	131
3.74533	128
3.74900	126
3.75267	123
3.75633	121
3.76000	118
3.76367	116
3.76733	115
3.77100	113
3.77467	111
3.77833	107
3.78200	105
3.78567	104
3.78933	101
3.79300	97
3.79667	95
3.80033	92
3.80400	88
3.80767	85
3.81133	82
3.81500	80
3.81867	77
3.82233	77
3.82600	77
3.82967	76
3.83333	72
3.83700	70
3.84067	70
3.84433	68
3.84800	66
3.85167	64
3.85533	63
3.85900	62
3.86267	58
3.86633	54
3.87000	52
3.87367	49
3.87733	46
3.88100	44
3.88467	42
3.88833	39
3.89200	36
3.89567	35
3.89933	34
3.90300	33
3.90667	32
3.91033	30
3.91400	27
3.91767	25
3.92133	21
3.92500	19
3.92867	17
3.93233	14
3.93600	12
3.93967	9
3.94333	9
3.94700	10
3.95067	7
3.95433	5
3.95800	2
3.96167	0
3.96533	-1
3.96900	-2
3.97267	-3
3.97633	-5
3.98000	-7
3.98367	-10
3.98733	-14
3.99100	-16
3.99467	-18
3.99833	-20

[Status Trace (Column Oven Temperature)]
Interval(msec)	1000
# of Points	240
Start Time(min)	0.002
End Time(min)	3.985
Intensity Units	
Intensity Multiplier	1
R.Time (min)	Intensity
0.00208	35.00
0.01875	35.01
0.03542	35.02
0.05208	35.01
0.06875	35.01
0.08542	35.01
0.10208	35.00
0.11875	35.00
0.13542	35.00
0.15208	35.00
0.16875	34.99
0.18542	34.98
0.20208	34.98
0.21875	34.98
0.23542	34.97
0.25208	34.97
0.26875	34.98
0.28542	34.99
0.30208	34.99
0.31875	34.99
0.33542	34.98
0.35208	34.97
0.36875	34.97
0.38542	34.97
0.40208	34.98
0.41875	34.99
0.43542	35.01
0.45208	35.02
0.46875	35.02
0.48542	35.02
0.50208	35.01
0.51875	35.00
0.53542	34.99
0.55208	34.98
0.56875	34.98
0.58542	34.98
0.60208	34.98
0.61875	34.99
0.63542	34.99
0.65208	35.00
0.66875	34.99
0.68542	35.00
0.70208	34.99
0.71875	34.99
0.73542	34.98
0.75208	34.98
0.76875	34.98
0.78542	34.98
0.80208	34.99
0.81875	35.00
0.83542	35.00
0.85208	35.02
0.86875	35.02
0.88542	35.02
0.90208	35.02
0.91875	35.02
0.93542	35.02
0.95208	35.02
0.96875	35.02
0.98542	35.01
1.00208	35.00
1.01875	34.99
1.03542	34.99
1.05208	34.98
1.06875	34.98
1.08542	34.97
1.10208	34.98
1.11875	34.98
1.13542	34.97
1.15208	34.97
1.16875	34.98
1.18542	34.98
1.20208	34.98
1.21875	34.97
1.23542	34.98
1.25208	34.98
1.26875	34.99
1.28542	35.00
1.30208	35.01
1.31875	35.01
1.33542	35.01
1.35208	35.00
1.36875	35.00
1.38542	34.99
1.40208	34.98
1.41875	34.97
1.43542	34.97
1.45208	34.97
1.46875	34.98
1.48542	34.99
1.50208	35.00
1.51875	35.01
1.53542	35.02
1.55208	35.03
1.56875	35.03
1.58542	35.03
1.60208	35.06
1.61875	35.16
1.63542	35.32
1.65208	35.54
1.66875	35.85
1.68542	36.22
1.70208	36.58
1.71875	36.92
1.73542	37.23
1.75208	37.53
1.76875	37.88
1.78542	38.21
1.80208	38.54
1.81875	38.88
1.83542	39.21
1.85208	39.53
1.86875	39.86
1.88542	40.20
1.90208	40.52
1.91875	40.84
1.93542	41.18
1.95208	41.49
1.96875	41.81
1.98542	42.15
2.00208	42.45
2.01875	42.77
2.03542	43.09
2.05208	43.42
2.06875	43.74
2.08542	44.08
2.10208	44.41
2.11875	44.74
2.13542	45.07
2.15208	45.39
2.16875	45.74
2.18542	46.08
2.20208	46.39
2.21875	46.73
2.23542	47.06
2.25208	47.38
2.26875	47.73
2.28542	48.06
2.30208	48.37
2.31875	48.70
2.33542	49.11
2.35208	49.41
2.36875	49.61
2.38542	49.68
2.40208	49.69
2.41875	49.67
2.43542	49.68
2.45208	49.69
2.46875	49.69
2.48542	49.71
2.50208	49.71
2.51875	49.73
2.53542	49.74
2.55208	49.76
2.56875	49.78
2.58542	49.80
2.60208	49.81
2.61875	49.81
2.63542	49.82
2.65208	49.83
2.66875	49.84
2.68542	49.86
2.70208	49.86
2.71875	49.85
2.73542	49.83
2.75208	49.86
2.76875	49.88
2.78542	49.89
2.80208	49.89
2.81875	49.88
2.83542	49.87
2.85208	49.88
2.86875	49.89
2.88542	49.91
2.90208	49.92
2.91875	49.93
2.93542	49.95
2.95208	49.96
2.96875	49.96
2.98542	49.96
3.00208	49.97
3.01875	49.98
3.03542	50.00
3.05208	50.00
3.06875	50.00
3.08542	50.01
3.10208	50.02
3.11875	50.03
3.13542	50.04
3.15208	50.04
3.16875	50.05
3.18542	50.06
3.20208	50.07
3.21875	50.07
3.23542	50.08
3.25208	50.09
3.26875	50.10
3.28542	50.10
3.30208	50.10
3.31875	50.09
3.33542	50.09
3.35208	50.08
3.36875	50.07
3.38542	50.06
3.40208	50.06
3.41875	50.06
3.43542	50.06
3.45208	50.06
3.46875	50.06
3.48542	50.05
3.50208	50.06
3.51875	50.05
3.53542	50.06
3.55208	50.06
3.56875	50.06
3.58542	50.07
3.60208	50.08
3.61875	50.07
3.63542	50.07
3.65208	50.07
3.66875	50.07
3.68542	50.08
3.70208	50.08
3.71875	50.09
3.73542	50.09
3.75208	50.09
3.76875	50.10
3.78542	50.09
3.80208	50.08
3.81875	50.08
3.83542	50.08
3.85208	50.08
3.86875	50.09
3.88542	50.08
3.90208	50.08
3.91875	50.07
3.93542	50.06
3.95208	50.05
3.96875	50.05
3.98542	50.05

[Status Trace (Injection Unit Temperature)]
Interval(msec)	1000
# of Points	240
Start Time(min)	0.002
End Time(min)	3.985
Intensity Units	
Intensity Multiplier	1
R.Time (min)	Intensity
0.00208	99.99
0.01875	99.99
0.03542	99.98
0.05208	99.99
0.06875	99.99
0.08542	99.99
0.10208	99.98
0.11875	99.99
0.13542	99.99
0.15208	99.99
0.16875	99.99
0.18542	99.98
0.20208	99.99
0.21875	99.99
0.23542	99.99
0.25208	99.99
0.26875	99.98
0.28542	99.99
0.30208	99.99
0.31875	99.99
0.33542	99.99
0.35208	99.99
0.36875	99.99
0.38542	99.99
0.40208	99.99
0.41875	99.99
0.43542	99.99
0.45208	99.99
0.46875	99.99
0.48542	99.99
0.50208	99.99
0.51875	99.99
0.53542	99.99
0.55208	99.99
0.56875	99.99
0.58542	99.99
0.60208	99.99
0.61875	99.99
0.63542	99.99
0.65208	99.99
0.66875	99.99
0.68542	99.99
0.70208	99.99
0.71875	99.99
0.73542	100.00
0.75208	100.00
0.76875	99.99
0.78542	99.99
0.80208	99.99
0.81875	99.99
0.83542	99.99
0.85208	99.99
0.86875	99.99
0.88542	100.00
0.90208	100.00
0.91875	99.99
0.93542	99.99
0.95208	100.00
0.96875	100.00
0.98542	100.00
1.00208	99.99
1.01875	100.00
1.03542	99.99
1.05208	100.00
1.06875	100.00
1.08542	99.99
1.10208	100.00
1.11875	100.00
1.13542	100.00
1.15208	99.99
1.16875	99.99
1.18542	99.99
1.20208	100.00
1.21875	99.99
1.23542	100.00
1.25208	99.99
1.26875	99.99
1.28542	99.99
1.30208	99.99
1.31875	99.99
1.33542	99.99
1.35208	99.99
1.36875	99.99
1.38542	99.99
1.40208	99.99
1.41875	99.99
1.43542	99.99
1.45208	99.99
1.46875	99.99
1.48542	99.99
1.50208	99.99
1.51875	99.99
1.53542	99.99
1.55208	99.99
1.56875	99.99
1.58542	99.99
1.60208	99.99
1.61875	99.99
1.63542	99.99
1.65208	100.00
1.66875	99.99
1.68542	99.99
1.70208	99.99
1.71875	100.00
1.73542	99.99
1.75208	99.99
1.76875	99.99
1.78542	99.99
1.80208	99.99
1.81875	99.99
1.83542	99.99
1.85208	99.99
1.86875	99.99
1.88542	99.99
1.90208	99.99
1.91875	99.99
1.93542	99.99
1.95208	99.99
1.96875	99.99
1.98542	99.99
2.00208	99.99
2.01875	99.99
2.03542	99.98
2.05208	99.99
2.06875	99.98
2.08542	99.98
2.10208	99.98
2.11875	99.99
2.13542	99.98
2.15208	99.98
2.16875	99.98
2.18542	99.98
2.20208	99.98
2.21875	99.98
2.23542	99.98
2.25208	99.97
2.26875	99.98
2.28542	99.98
2.30208	99.98
2.31875	99.98
2.33542	99.98
2.35208	99.98
2.36875	99.98
2.38542	99.97
2.40208	99.98
2.41875	99.97
2.43542	99.98
2.45208	99.97
2.46875	99.98
2.48542	99.98
2.50208	99.97
2.51875	99.98
2.53542	99.98
2.55208	99.98
2.56875	99.98
2.58542	99.98
2.60208	99.98
2.61875	99.98
2.63542	99.98
2.65208	99.98
2.66875	99.99
2.68542	99.99
2.70208	99.98
2.71875	99.99
2.73542	99.99
2.75208	99.99
2.76875	99.99
2.78542	99.99
2.80208	99.99
2.81875	100.00
2.83542	100.00
2.85208	100.00
2.86875	100.00
2.88542	100.00
2.90208	100.00
2.91875	100.00
2.93542	100.01
2.95208	100.01
2.96875	100.01
2.98542	100.01
3.00208	100.01
3.01875	100.01
3.03542	100.01
3.05208	100.02
3.06875	100.01
3.08542	100.02
3.10208	100.02
3.11875	100.02
3.13542	100.02
3.15208	100.03
3.16875	100.02
3.18542	100.02
3.20208	100.02
3.21875	100.02
3.23542	100.03
3.25208	100.03
3.26875	100.03
3.28542	100.03
3.30208	100.03
3.31875	100.03
3.33542	100.03
3.35208	100.03
3.36875	100.03
3.38542	100.04
3.40208	100.04
3.41875	100.04
3.43542	100.04
3.45208	100.04
3.46875	100.05
3.48542	100.04
3.50208	100.04
3.51875	100.04
3.53542	100.04
3.55208	100.05
3.56875	100.04
3.58542	100.05
3.60208	100.05
3.61875	100.05
3.63542	100.05
3.65208	100.05
3.66875	100.05
3.68542	100.05
3.70208	100.05
3.71875	100.05
3.73542	100.05
3.75208	100.05
3.76875	100.05
3.78542	100.05
3.80208	100.05
3.81875	100.05
3.83542	100.05
3.85208	100.05
3.86875	100.05
3.88542	100.05
3.90208	100.05
3.91875	100.05
3.93542	100.06
3.95208	100.05
3.96875	100.05
3.98542	100.05

[Status Trace (Carrier Gas Pressure)]
Interval(msec)	1000
# of Points	240
Start Time(min)	0.002
End Time(min)	3.985
Intensity Units	
Intensity Multiplier	1
R.Time (min)	Intensity
0.00208	58.00
0.01875	56.37
0.03542	56.24
0.05208	58.39
0.06875	59.92
0.08542	58.37
0.10208	57.97
0.11875	58.00
0.13542	58.01
0.15208	58.01
0.16875	58.00
0.18542	58.00
0.20208	58.00
0.21875	58.00
0.23542	58.00
0.25208	58.00
0.26875	58.00
0.28542	58.00
0.30208	58.00
0.31875	58.00
0.33542	58.00
0.35208	58.00
0.36875	58.00
0.38542	58.00
0.40208	58.00
0.41875	58.00
0.43542	58.00
0.45208	58.00
0.46875	58.00
0.48542	58.00
0.50208	58.00
0.51875	58.00
0.53542	58.00
0.55208	58.00
0.56875	58.00
0.58542	58.00
0.60208	58.00
0.61875	58.00
0.63542	58.00
0.65208	58.00
0.66875	58.00
0.68542	58.00
0.70208	58.00
0.71875	58.00
0.73542	58.00
0.75208	58.00
0.76875	58.00
0.78542	58.00
0.80208	58.00
0.81875	58.00
0.83542	58.00
0.85208	58.00
0.86875	58.00
0.88542	58.00
0.90208	58.00
0.91875	58.00
0.93542	58.00
0.95208	58.00
0.96875	58.00
0.98542	58.00
1.00208	58.00
1.01875	58.00
1.03542	58.00
1.05208	58.00
1.06875	58.00
1.08542	58.00
1.10208	58.00
1.11875	58.00
1.13542	58.00
1.15208	58.00
1.16875	58.00
1.18542	58.00
1.20208	58.00
1.21875	58.00
1.23542	58.00
1.25208	58.00
1.26875	58.00
1.28542	58.00
1.30208	58.00
1.31875	58.00
1.33542	58.00
1.35208	58.00
1.36875	58.00
1.38542	58.00
1.40208	58.00
1.41875	58.00
1.43542	58.00
1.45208	58.00
1.46875	58.00
1.48542	58.00
1.50208	58.00
1.51875	58.00
1.53542	58.00
1.55208	58.00
1.56875	58.00
1.58542	58.00
1.60208	58.00
1.61875	58.00
1.63542	58.00
1.65208	58.00
1.66875	58.00
1.68542	58.01
1.70208	58.00
1.71875	58.00
1.73542	58.00
1.75208	58.00
1.76875	58.00
1.78542	58.00
1.80208	58.00
1.81875	58.00
1.83542	58.00
1.85208	58.00
1.86875	58.00
1.88542	58.00
1.90208	58.00
1.91875	58.00
1.93542	58.00
1.95208	58.00
1.96875	58.00
1.98542	58.00
2.00208	58.00
2.01875	58.00
2.03542	58.00
2.05208	58.00
2.06875	58.00
2.08542	58.00
2.10208	58.00
2.11875	58.00
2.13542	58.00
2.15208	58.00
2.16875	58.00
2.18542	58.00
2.20208	58.00
2.21875	58.00
2.23542	58.00
2.25208	58.00
2.26875	58.00
2.28542	58.00
2.30208	58.00
2.31875	58.00
2.33542	58.00
2.35208	58.00
2.36875	58.00
2.38542	57.99
2.40208	57.99
2.41875	58.00
2.43542	58.00
2.45208	58.00
2.46875	58.00
2.48542	58.00
2.50208	58.00
2.51875	58.01
2.53542	57.99
2.55208	58.00
2.56875	58.00
2.58542	58.00
2.60208	58.00
2.61875	58.00
2.63542	58.00
2.65208	58.00
2.66875	58.00
2.68542	58.00
2.70208	58.00
2.71875	58.00
2.73542	58.00
2.75208	58.00
2.76875	58.00
2.78542	58.00
2.80208	58.00
2.81875	58.00
2.83542	58.00
2.85208	58.00
2.86875	58.00
2.88542	58.00
2.90208	58.00
2.91875	58.00
2.93542	58.00
2.95208	58.00
2.96875	58.00
2.98542	58.00
3.00208	58.00
3.01875	58.00
3.03542	58.00
3.05208	58.00
3.06875	58.00
3.08542	58.00
3.10208	58.00
3.11875	58.00
3.13542	58.00
3.15208	58.00
3.16875	58.00
3.18542	58.00
3.20208	58.00
3.21875	58.00
3.23542	58.00
3.25208	58.00
3.26875	58.00
3.28542	58.00
3.30208	58.00
3.31875	58.00
3.33542	58.00
3.35208	58.00
3.36875	58.00
3.38542	58.00
3.40208	58.00
3.41875	58.00
3.43542	58.00
3.45208	58.00
3.46875	58.00
3.48542	58.00
3.50208	58.00
3.51875	58.00
3.53542	58.00
3.55208	58.00
3.56875	58.00
3.58542	58.00
3.60208	58.00
3.61875	58.00
3.63542	58.00
3.65208	58.00
3.66875	58.00
3.68542	58.00
3.70208	58.00
3.71875	58.00
3.73542	58.00
3.75208	58.00
3.76875	58.00
3.78542	58.00
3.80208	58.00
3.81875	58.00
3.83542	58.00
3.85208	58.00
3.86875	58.00
3.88542	58.00
3.90208	58.00
3.91875	58.00
3.93542	58.00
3.95208	58.00
3.96875	58.00
3.98542	58.00

[Status Trace (Carrier Gas Flow)]
Interval(msec)	1000
# of Points	240
Start Time(min)	0.002
End Time(min)	3.985
Intensity Units	
Intensity Multiplier	1
R.Time (min)	Intensity
0.00208	34.52
0.01875	34.47
0.03542	34.54
0.05208	34.55
0.06875	34.49
0.08542	34.51
0.10208	34.52
0.11875	34.52
0.13542	34.52
0.15208	34.52
0.16875	34.52
0.18542	34.52
0.20208	34.52
0.21875	34.52
0.23542	34.52
0.25208	34.52
0.26875	34.52
0.28542	34.52
0.30208	34.52
0.31875	34.52
0.33542	34.52
0.35208	34.52
0.36875	34.52
0.38542	34.52
0.40208	34.52
0.41875	34.52
0.43542	34.52
0.45208	34.52
0.46875	34.51
0.48542	34.52
0.50208	34.52
0.51875	34.51
0.53542	34.51
0.55208	34.52
0.56875	34.52
0.58542	34.52
0.60208	34.52
0.61875	34.51
0.63542	34.52
0.65208	34.52
0.66875	34.52
0.68542	34.51
0.70208	34.52
0.71875	34.52
0.73542	34.52
0.75208	34.52
0.76875	34.52
0.78542	34.52
0.80208	34.52
0.81875	34.52
0.83542	34.52
0.85208	34.52
0.86875	34.52
0.88542	34.52
0.90208	34.52
0.91875	34.52
0.93542	34.52
0.95208	34.52
0.96875	34.52
0.98542	34.52
1.00208	34.52
1.01875	34.52
1.03542	34.52
1.05208	34.52
1.06875	34.52
1.08542	34.52
1.10208	34.52
1.11875	34.52
1.13542	34.52
1.15208	34.52
1.16875	34.52
1.18542	34.52
1.20208	34.52
1.21875	34.52
1.23542	34.52
1.25208	34.52
1.26875	34.52
1.28542	34.52
1.30208	34.52
1.31875	34.52
1.33542	34.52
1.35208	34.52
1.36875	34.52
1.38542	34.52
1.40208	34.52
1.41875	34.52
1.43542	34.52
1.45208	34.52
1.46875	34.52
1.48542	34.52
1.50208	34.51
1.51875	34.52
1.53542	34.52
1.55208	34.52
1.56875	34.52
1.58542	34.52
1.60208	34.52
1.61875	34.52
1.63542	34.52
1.65208	34.52
1.66875	34.52
1.68542	34.52
1.70208	34.52
1.71875	34.52
1.73542	34.51
1.75208	34.52
1.76875	34.52
1.78542	34.52
1.80208	34.52
1.81875	34.52
1.83542	34.52
1.85208	34.52
1.86875	34.52
1.88542	34.52
1.90208	34.52
1.91875	34.52
1.93542	34.52
1.95208	34.52
1.96875	34.52
1.98542	34.52
2.00208	34.52
2.01875	34.52
2.03542	34.52
2.05208	34.52
2.06875	34.52
2.08542	34.52
2.10208	34.52
2.11875	34.52
2.13542	34.52
2.15208	34.52
2.16875	34.52
2.18542	34.52
2.20208	34.52
2.21875	34.52
2.23542	34.52
2.25208	34.52
2.26875	34.52
2.28542	34.52
2.30208	34.52
2.31875	34.52
2.33542	34.52
2.35208	34.52
2.36875	34.52
2.38542	34.53
2.40208	34.53
2.41875	34.52
2.43542	34.52
2.45208	34.53
2.46875	34.52
2.48542	34.52
2.50208	34.52
2.51875	34.52
2.53542	34.52
2.55208	34.52
2.56875	34.52
2.58542	34.52
2.60208	34.52
2.61875	34.52
2.63542	34.52
2.65208	34.51
2.66875	34.52
2.68542	34.52
2.70208	34.52
2.71875	34.52
2.73542	34.51
2.75208	34.52
2.76875	34.52
2.78542	34.52
2.80208	34.52
2.81875	34.52
2.83542	34.52
2.85208	34.52
2.86875	34.52
2.88542	34.52
2.90208	34.52
2.91875	34.52
2.93542	34.52
2.95208	34.52
2.96875	34.51
2.98542	34.52
3.00208	34.53
3.01875	34.52
3.03542	34.53
3.05208	34.52
3.06875	34.51
3.08542	34.52
3.10208	34.52
3.11875	34.52
3.13542	34.52
3.15208	34.52
3.16875	34.52
3.18542	34.52
3.20208	34.52
3.21875	34.50
3.23542	34.52
3.25208	34.51
3.26875	34.52
3.28542	34.52
3.30208	34.52
3.31875	34.52
3.33542	34.52
3.35208	34.51
3.36875	34.52
3.38542	34.52
3.40208	34.52
3.41875	34.52
3.43542	34.52
3.45208	34.52
3.46875	34.52
3.48542	34.52
3.50208	34.50
3.51875	34.53
3.53542	34.52
3.55208	34.52
3.56875	34.52
3.58542	34.52
3.60208	34.52
3.61875	34.52
3.63542	34.52
3.65208	34.52
3.66875	34.52
3.68542	34.52
3.70208	34.52
3.71875	34.52
3.73542	34.52
3.75208	34.52
3.76875	34.52
3.78542	34.51
3.80208	34.52
3.81875	34.52
3.83542	34.52
3.85208	34.51
3.86875	34.52
3.88542	34.52
3.90208	34.52
3.91875	34.52
3.93542	34.52
3.95208	34.52
3.96875	34.52
3.98542	34.52

[Status Trace (Column Flow)]
Interval(msec)	1000
# of Points	240
Start Time(min)	0.002
End Time(min)	3.985
Intensity Units	
Intensity Multiplier	1
R.Time (min)	Intensity
0.00208	5.49
0.01875	5.30
0.03542	5.29
0.05208	5.54
0.06875	5.72
0.08542	5.54
0.10208	5.49
0.11875	5.49
0.13542	5.49
0.15208	5.49
0.16875	5.49
0.18542	5.49
0.20208	5.49
0.21875	5.49
0.23542	5.49
0.25208	5.49
0.26875	5.49
0.28542	5.49
0.30208	5.49
0.31875	5.49
0.33542	5.49
0.35208	5.49
0.36875	5.49
0.38542	5.49
0.40208	5.49
0.41875	5.49
0.43542	5.49
0.45208	5.49
0.46875	5.49
0.48542	5.49
0.50208	5.49
0.51875	5.49
0.53542	5.49
0.55208	5.49
0.56875	5.49
0.58542	5.49
0.60208	5.49
0.61875	5.49
0.63542	5.49
0.65208	5.49
0.66875	5.49
0.68542	5.49
0.70208	5.49
0.71875	5.49
0.73542	5.49
0.75208	5.49
0.76875	5.49
0.78542	5.49
0.80208	5.49
0.81875	5.49
0.83542	5.49
0.85208	5.49
0.86875	5.49
0.88542	5.49
0.90208	5.49
0.91875	5.49
0.93542	5.49
0.95208	5.49
0.96875	5.49
0.98542	5.49
1.00208	5.49
1.01875	5.49
1.03542	5.49
1.05208	5.49
1.06875	5.49
1.08542	5.49
1.10208	5.49
1.11875	5.49
1.13542	5.49
1.15208	5.49
1.16875	5.49
1.18542	5.49
1.20208	5.49
1.21875	5.49
1.23542	5.49
1.25208	5.49
1.26875	5.49
1.28542	5.49
1.30208	5.49
1.31875	5.49
1.33542	5.49
1.35208	5.49
1.36875	5.49
1.38542	5.49
1.40208	5.49
1.41875	5.49
1.43542	5.49
1.45208	5.49
1.46875	5.49
1.48542	5.49
1.50208	5.49
1.51875	5.49
1.53542	5.49
1.55208	5.49
1.56875	5.49
1.58542	5.49
1.60208	5.49
1.61875	5.49
1.63542	5.48
1.65208	5.48
1.66875	5.47
1.68542	5.46
1.70208	5.45
1.71875	5.43
1.73542	5.42
1.75208	5.42
1.76875	5.41
1.78542	5.39
1.80208	5.39
1.81875	5.37
1.83542	5.36
1.85208	5.36
1.86875	5.35
1.88542	5.33
1.90208	5.33
1.91875	5.32
1.93542	5.30
1.95208	5.30
1.96875	5.29
1.98542	5.28
2.00208	5.27
2.01875	5.26
2.03542	5.25
2.05208	5.24
2.06875	5.23
2.08542	5.22
2.10208	5.21
2.11875	5.20
2.13542	5.19
2.15208	5.18
2.16875	5.17
2.18542	5.16
2.20208	5.15
2.21875	5.14
2.23542	5.13
2.25208	5.13
2.26875	5.12
2.28542	5.11
2.30208	5.10
2.31875	5.09
2.33542	5.08
2.35208	5.07
2.36875	5.06
2.38542	5.06
2.40208	5.06
2.41875	5.06
2.43542	5.06
2.45208	5.06
2.46875	5.06
2.48542	5.06
2.50208	5.06
2.51875	5.06
2.53542	5.06
2.55208	5.06
2.56875	5.06
2.58542	5.06
2.60208	5.06
2.61875	5.06
2.63542	5.06
2.65208	5.06
2.66875	5.06
2.68542	5.06
2.70208	5.06
2.71875	5.06
2.73542	5.06
2.75208	5.06
2.76875	5.06
2.78542	5.06
2.80208	5.06
2.81875	5.06
2.83542	5.06
2.85208	5.06
2.86875	5.06
2.88542	5.06
2.90208	5.05
2.91875	5.05
2.93542	5.05
2.95208	5.05
2.96875	5.05
2.98542	5.05
3.00208	5.05
3.01875	5.05
3.03542	5.05
3.05208	5.05
3.06875	5.05
3.08542	5.05
3.10208	5.05
3.11875	5.05
3.13542	5.05
3.15208	5.05
3.16875	5.05
3.18542	5.05
3.20208	5.05
3.21875	5.05
3.23542	5.05
3.25208	5.05
3.26875	5.05
3.28542	5.05
3.30208	5.05
3.31875	5.05
3.33542	5.05
3.35208	5.05
3.36875	5.05
3.38542	5.05
3.40208	5.05
3.41875	5.05
3.43542	5.05
3.45208	5.05
3.46875	5.05
3.48542	5.05
3.50208	5.05
3.51875	5.05
3.53542	5.05
3.55208	5.05
3.56875	5.05
3.58542	5.05
3.60208	5.05
3.61875	5.05
3.63542	5.05
3.65208	5.05
3.66875	5.05
3.68542	5.05
3.70208	5.05
3.71875	5.05
3.73542	5.05
3.75208	5.05
3.76875	5.05
3.78542	5.05
3.80208	5.05
3.81875	5.05
3.83542	5.05
3.85208	5.05
3.86875	5.05
3.88542	5.05
3.90208	5.05
3.91875	5.05
3.93542	5.05
3.95208	5.05
3.96875	5.05
3.98542	5.05

[Status Trace (Linear Velocity)]
Interval(msec)	1000
# of Points	240
Start Time(min)	0.002
End Time(min)	3.985
Intensity Units	
Intensity Multiplier	1
R.Time (min)	Intensity
0.00208	39.01
0.01875	37.94
0.03542	37.85
0.05208	39.27
0.06875	40.26
0.08542	39.25
0.10208	38.99
0.11875	39.01
0.13542	39.02
0.15208	39.01
0.16875	39.01
0.18542	39.01
0.20208	39.01
0.21875	39.01
0.23542	39.01
0.25208	39.01
0.26875	39.01
0.28542	39.01
0.30208	39.01
0.31875	39.01
0.33542	39.01
0.35208	39.01
0.36875	39.01
0.38542	39.01
0.40208	39.01
0.41875	39.01
0.43542	39.01
0.45208	39.01
0.46875	39.01
0.48542	39.01
0.50208	39.01
0.51875	39.01
0.53542	39.01
0.55208	39.01
0.56875	39.01
0.58542	39.01
0.60208	39.01
0.61875	39.01
0.63542	39.01
0.65208	39.01
0.66875	39.01
0.68542	39.01
0.70208	39.01
0.71875	39.01
0.73542	39.01
0.75208	39.01
0.76875	39.01
0.78542	39.01
0.80208	39.01
0.81875	39.01
0.83542	39.01
0.85208	39.01
0.86875	39.01
0.88542	39.01
0.90208	39.01
0.91875	39.01
0.93542	39.01
0.95208	39.01
0.96875	39.01
0.98542	39.01
1.00208	39.01
1.01875	39.01
1.03542	39.01
1.05208	39.01
1.06875	39.01
1.08542	39.01
1.10208	39.01
1.11875	39.01
1.13542	39.01
1.15208	39.01
1.16875	39.01
1.18542	39.01
1.20208	39.01
1.21875	39.01
1.23542	39.01
1.25208	39.01
1.26875	39.01
1.28542	39.01
1.30208	39.01
1.31875	39.01
1.33542	39.01
1.35208	39.01
1.36875	39.01
1.38542	39.01
1.40208	39.01
1.41875	39.01
1.43542	39.01
1.45208	39.01
1.46875	39.01
1.48542	39.01
1.50208	39.01
1.51875	39.01
1.53542	39.01
1.55208	39.01
1.56875	39.01
1.58542	39.01
1.60208	39.01
1.61875	39.00
1.63542	38.98
1.65208	38.96
1.66875	38.94
1.68542	38.90
1.70208	38.86
1.71875	38.83
1.73542	38.80
1.75208	38.77
1.76875	38.74
1.78542	38.70
1.80208	38.68
1.81875	38.64
1.83542	38.61
1.85208	38.58
1.86875	38.55
1.88542	38.52
1.90208	38.49
1.91875	38.46
1.93542	38.43
1.95208	38.40
1.96875	38.37
1.98542	38.34
2.00208	38.31
2.01875	38.28
2.03542	38.25
2.05208	38.22
2.06875	38.19
2.08542	38.16
2.10208	38.13
2.11875	38.10
2.13542	38.07
2.15208	38.04
2.16875	38.01
2.18542	37.98
2.20208	37.95
2.21875	37.92
2.23542	37.89
2.25208	37.86
2.26875	37.83
2.28542	37.80
2.30208	37.77
2.31875	37.75
2.33542	37.71
2.35208	37.68
2.36875	37.66
2.38542	37.65
2.40208	37.65
2.41875	37.65
2.43542	37.65
2.45208	37.65
2.46875	37.65
2.48542	37.65
2.50208	37.65
2.51875	37.66
2.53542	37.64
2.55208	37.65
2.56875	37.65
2.58542	37.64
2.60208	37.64
2.61875	37.64
2.63542	37.64
2.65208	37.64
2.66875	37.64
2.68542	37.64
2.70208	37.64
2.71875	37.64
2.73542	37.64
2.75208	37.64
2.76875	37.64
2.78542	37.64
2.80208	37.64
2.81875	37.64
2.83542	37.64
2.85208	37.64
2.86875	37.64
2.88542	37.63
2.90208	37.63
2.91875	37.63
2.93542	37.63
2.95208	37.63
2.96875	37.63
2.98542	37.63
3.00208	37.63
3.01875	37.63
3.03542	37.63
3.05208	37.63
3.06875	37.63
3.08542	37.63
3.10208	37.62
3.11875	37.62
3.13542	37.62
3.15208	37.62
3.16875	37.62
3.18542	37.62
3.20208	37.62
3.21875	37.62
3.23542	37.62
3.25208	37.62
3.26875	37.62
3.28542	37.62
3.30208	37.62
3.31875	37.62
3.33542	37.62
3.35208	37.62
3.36875	37.62
3.38542	37.62
3.40208	37.62
3.41875	37.62
3.43542	37.62
3.45208	37.62
3.46875	37.62
3.48542	37.62
3.50208	37.62
3.51875	37.62
3.53542	37.62
3.55208	37.62
3.56875	37.62
3.58542	37.62
3.60208	37.62
3.61875	37.62
3.63542	37.62
3.65208	37.62
3.66875	37.62
3.68542	37.62
3.70208	37.62
3.71875	37.62
3.73542	37.62
3.75208	37.62
3.76875	37.62
3.78542	37.62
3.80208	37.62
3.81875	37.62
3.83542	37.62
3.85208	37.62
3.86875	37.62
3.88542	37.62
3.90208	37.62
3.91875	37.62
3.93542	37.62
3.95208	37.62
3.96875	37.62
3.98542	37.62

