[Header]
Application Name	LabSolutions
Version	5.110
Data File Name	C:\Users\User\Desktop\GC Analyses\Jack\UIC Prairie Sampling\7.9.22\220909_021.gcd
Output Date	9/28/2022
Output Time	11:29:50 AM

[File Information]
Type	Data File
Generated	9/9/2022 4:06:51 PM
Generated by	System Administrator
Modified	9/9/2022 4:11:42 PM
Modified by	System Administrator

[Sample Information]
Operator Name	System Administrator
Acquired	9/9/2022 4:07:40 PM
Sample Type	1:Standard
Level	1
Sample Name	220909_Run
Sample ID	220909_Run
ISTD Amount1	1
ISTD Amount2	1
ISTD Amount3	1
ISTD Amount4	1
ISTD Amount5	1
ISTD Amount6	1
ISTD Amount7	1
ISTD Amount8	1
ISTD Amount9	1
ISTD Amount10	1
ISTD Amount11	1
ISTD Amount12	1
ISTD Amount13	1
ISTD Amount14	1
ISTD Amount15	1
ISTD Amount16	1
ISTD Amount17	1
ISTD Amount18	1
ISTD Amount19	1
ISTD Amount20	1
ISTD Amount21	1
ISTD Amount22	1
ISTD Amount23	1
ISTD Amount24	1
ISTD Amount25	1
ISTD Amount26	1
ISTD Amount27	1
ISTD Amount28	1
ISTD Amount29	1
ISTD Amount30	1
ISTD Amount31	1
ISTD Amount32	1
Sample Amount	1
Dilution Factor	1
Vial#	1
Injection Volume	1
Injection Count	1
Bar Code	

[Original Files]
Data File	C:\Users\User\Desktop\GC Analyses\Jack\220909\220909_021.gcd
Method File	C:\LabSolutions\Data\GHG_4min_2022\ghg3_togas_w_acet_4 min_new_int.gcm
Batch File	
Report Format File	c:\LabSolutions\System\DEFAULT.lsr

[File Description]


[Configuration]
Instrument Name	C0B7VH3-Instrument1
Instrument #	1
Line #	1
# of Detectors	3
Detector ID	DET#1	DET#2	DET#3
Detector Name	FID	PTCD	ECD
# of Channels	1	1	1

[Peak Table(Ch1)]
# of Peaks	3
Peak#	R.Time	I.Time	F.Time	Area	Height	A/H	Conc.	Mark	ID#	Name	k'	Plate #	Plate Ht.	Tailing	Resolution	Sep.Factor	Area Ratio	Height Ratio	Conc. %	Norm Conc.
1	1.472	1.435	1.534	17219	7877	2.186	100.000	   	1	CO	0.000	8634	17.373	1.294	0.000	0.000	0	0	16.667	16.667
2	1.567	1.534	1.619	4642	2407	1.929	100.000	 V 	2	CH4	0.065	11368	13.195	1.201	1.561	0.000	0	0	16.667	16.667
3	1.996	1.949	2.345	2470147	1216004	2.031	400.000	   	3	CO2	0.356	17991	8.337	1.183	7.251	5.500	0	0	66.667	66.667

[Peak Table(Ch2)]
# of Peaks	0

[Peak Table(Ch3)]
# of Peaks	2
Peak#	R.Time	I.Time	F.Time	Area	Height	A/H	Conc.	Mark	ID#	Name	k'	Plate #	Plate Ht.	Tailing	Resolution	Sep.Factor	Area Ratio	Height Ratio	Conc. %	Norm Conc.
1	2.594	2.510	2.649	4992	844	5.915	0.000	   			0.000	3012	49.804	0.000	0.000	0.000	0	0	0.000	0.000
2	2.876	2.649	3.877	68941	6851	10.063	1.000	 V 	1	N2O	0.109	10345	14.499	0.000	1.869	0.000	0	0	100.000	100.000

[Compound Results(Ch1)]
# of IDs	6
ID#	Name	R.Time	Area	Height	Conc.	Curve	3rd	2nd	1st	Constant	Area Ratio	Height Ratio	Conc. %	Norm Conc.
1	CO	1.472	17219	7877	100.000	Linear	0.000000e+00	0.000000e+00	1.721939e+002	0.000000e+00	0	0	16.667	16.667
2	CH4	1.567	4642	2407	100.000	Linear	0.000000e+00	0.000000e+00	4.642015e+001	0.000000e+00	0	0	16.667	16.667
3	CO2	1.996	2470147	1216004	400.000	Linear	0.000000e+00	0.000000e+00	6.175368e+003	0.000000e+00	0	0	66.667	66.667
4	Ethylene	0.000	0	0	0.000	Linear	0.000000e+00	0.000000e+00	0.000000e+00	0.000000e+00	0	0	0.000	0.000
5	Acetylene	0.000	0	0	0.000	Linear	0.000000e+00	0.000000e+00	0.000000e+00	0.000000e+00	0	0	0.000	0.000
6	Ethane	0.000	0	0	0.000	Linear	0.000000e+00	0.000000e+00	0.000000e+00	0.000000e+00	0	0	0.000	0.000

[Compound Results(Ch2)]
# of IDs	5
ID#	Name	R.Time	Area	Height	Conc.	Curve	3rd	2nd	1st	Constant	Area Ratio	Height Ratio	Conc. %	Norm Conc.
1	Hydrogen	0.000	0	0	0.000	Linear	0.000000e+00	0.000000e+00	0.000000e+00	0.000000e+00	0	0	0.000	0.000
2	Oxygen	0.000	0	0	0.000	Linear	0.000000e+00	0.000000e+00	0.000000e+00	0.000000e+00	0	0	0.000	0.000
3	Nitrogen	0.000	0	0	0.000	Linear	0.000000e+00	0.000000e+00	0.000000e+00	0.000000e+00	0	0	0.000	0.000
4	Methane	0.000	0	0	0.000	Linear	0.000000e+00	0.000000e+00	0.000000e+00	0.000000e+00	0	0	0.000	0.000
5	Carbon Monoxide	0.000	0	0	0.000	Linear	0.000000e+00	0.000000e+00	0.000000e+00	0.000000e+00	0	0	0.000	0.000

[Compound Results(Ch3)]
# of IDs	2
ID#	Name	R.Time	Area	Height	Conc.	Curve	3rd	2nd	1st	Constant	Area Ratio	Height Ratio	Conc. %	Norm Conc.
1	N2O	2.876	68941	6851	1.000	Linear	0.000000e+00	0.000000e+00	6.894118e+004	0.000000e+00	0	0	100.000	100.000
2	SF6	0.000	0	0	0.000	Linear	0.000000e+00	0.000000e+00	0.000000e+00	0.000000e+00	0	0	0.000	0.000

[Group Results(Ch1)]
# of Groups	0

[Group Results(Ch2)]
# of Groups	0

[Group Results(Ch3)]
# of Groups	0

[Chromatogram (Ch1)]
Interval(msec)	220
# of Points	1091
Start Time(min)	0.002
End Time(min)	3.998
R.Time (min)	Intensity
0.00167	-5
0.00533	-4
0.00900	-6
0.01267	-12
0.01633	-20
0.02000	-29
0.02367	-39
0.02733	-45
0.03100	-52
0.03467	-54
0.03833	-49
0.04200	-41
0.04567	-36
0.04933	-33
0.05300	-29
0.05667	-26
0.06033	-21
0.06400	-18
0.06767	-13
0.07133	-8
0.07500	-10
0.07867	-11
0.08233	-17
0.08600	-24
0.08967	-32
0.09333	-42
0.09700	-49
0.10067	-56
0.10433	-59
0.10800	-54
0.11167	-49
0.11533	-41
0.11900	-35
0.12267	-29
0.12633	-15
0.13000	-6
0.13367	-6
0.13733	-9
0.14100	-10
0.14467	-9
0.14833	-10
0.15200	-10
0.15567	-16
0.15933	-19
0.16300	-20
0.16667	-25
0.17033	-34
0.17400	-36
0.17767	-35
0.18133	-37
0.18500	-31
0.18867	-30
0.19233	-32
0.19600	-34
0.19967	-35
0.20333	-34
0.20700	-34
0.21067	-39
0.21433	-40
0.21800	-41
0.22167	-42
0.22533	-43
0.22900	-43
0.23267	-39
0.23633	-33
0.24000	-27
0.24367	-25
0.24733	-18
0.25100	-19
0.25467	-16
0.25833	-15
0.26200	-19
0.26567	-26
0.26933	-35
0.27300	-36
0.27667	-35
0.28033	-40
0.28400	-41
0.28767	-45
0.29133	-41
0.29500	-40
0.29867	-39
0.30233	-33
0.30600	-22
0.30967	-15
0.31333	-13
0.31700	-12
0.32067	-15
0.32433	-26
0.32800	-40
0.33167	-51
0.33533	-56
0.33900	-60
0.34267	-52
0.34633	-46
0.35000	-39
0.35367	-35
0.35733	-34
0.36100	-36
0.36467	-41
0.36833	-44
0.37200	-45
0.37567	-52
0.37933	-59
0.38300	-64
0.38667	-63
0.39033	-58
0.39400	-48
0.39767	-40
0.40133	-39
0.40500	-41
0.40867	-46
0.41233	-47
0.41600	-47
0.41967	-62
0.42333	-50
0.42700	-34
0.43067	-26
0.43433	-27
0.43800	-29
0.44167	-31
0.44533	-38
0.44900	-41
0.45267	-39
0.45633	-35
0.46000	-31
0.46367	-32
0.46733	-33
0.47100	-38
0.47467	-42
0.47833	-50
0.48200	-63
0.48567	-71
0.48933	-75
0.49300	-71
0.49667	-69
0.50033	-72
0.50400	-65
0.50767	-62
0.51133	-56
0.51500	-48
0.51867	-51
0.52233	-60
0.52600	-75
0.52967	-92
0.53333	-99
0.53700	-103
0.54067	-107
0.54433	-108
0.54800	-107
0.55167	-100
0.55533	-90
0.55900	-84
0.56267	-76
0.56633	-66
0.57000	-58
0.57367	-48
0.57733	-44
0.58100	-44
0.58467	-46
0.58833	-55
0.59200	-65
0.59567	-64
0.59933	-63
0.60300	-62
0.60667	-63
0.61033	-64
0.61400	-68
0.61767	-64
0.62133	-64
0.62500	-63
0.62867	-63
0.63233	-58
0.63600	-54
0.63967	-53
0.64333	-51
0.64700	-53
0.65067	-48
0.65433	-51
0.65800	-51
0.66167	-50
0.66533	-50
0.66900	-53
0.67267	-63
0.67633	-63
0.68000	-59
0.68367	-58
0.68733	-57
0.69100	-51
0.69467	-44
0.69833	-44
0.70200	-48
0.70567	-49
0.70933	-54
0.71300	-55
0.71667	-48
0.72033	-39
0.72400	-32
0.72767	-31
0.73133	-36
0.73500	-47
0.73867	-56
0.74233	-65
0.74600	-72
0.74967	-75
0.75333	-77
0.75700	-80
0.76067	-81
0.76433	-72
0.76800	-66
0.77167	-68
0.77533	-72
0.77900	-77
0.78267	-78
0.78633	-73
0.79000	-76
0.79367	-77
0.79733	-72
0.80100	-64
0.80467	-57
0.80833	-53
0.81200	-45
0.81567	-47
0.81933	-44
0.82300	-53
0.82667	-64
0.83033	-68
0.83400	-69
0.83767	-71
0.84133	-73
0.84500	-72
0.84867	-69
0.85233	-70
0.85600	-68
0.85967	-66
0.86333	-66
0.86700	-68
0.87067	-75
0.87433	-82
0.87800	-82
0.88167	-81
0.88533	-81
0.88900	-81
0.89267	-85
0.89633	-74
0.90000	-62
0.90367	-57
0.90733	-59
0.91100	-61
0.91467	-60
0.91833	-66
0.92200	-69
0.92567	-71
0.92933	-71
0.93300	-77
0.93667	-82
0.94033	-86
0.94400	-86
0.94767	-82
0.95133	-69
0.95500	-62
0.95867	-63
0.96233	-66
0.96600	-73
0.96967	-81
0.97333	-85
0.97700	-81
0.98067	-84
0.98433	-90
0.98800	-90
0.99167	-85
0.99533	-86
0.99900	-88
1.00267	-88
1.00633	-88
1.01000	-86
1.01367	-83
1.01733	-80
1.02100	-79
1.02467	-82
1.02833	-86
1.03200	-92
1.03567	-100
1.03933	-108
1.04300	-106
1.04667	-96
1.05033	-83
1.05400	-71
1.05767	-65
1.06133	-63
1.06500	-68
1.06867	-74
1.07233	-79
1.07600	-80
1.07967	-85
1.08333	-90
1.08700	-88
1.09067	-86
1.09433	-83
1.09800	-83
1.10167	-87
1.10533	-91
1.10900	-87
1.11267	-81
1.11633	-73
1.12000	-69
1.12367	-72
1.12733	-78
1.13100	-88
1.13467	-94
1.13833	-97
1.14200	-103
1.14567	-103
1.14933	-99
1.15300	-98
1.15667	-105
1.16033	-103
1.16400	-97
1.16767	-94
1.17133	-91
1.17500	-91
1.17867	-92
1.18233	-96
1.18600	-101
1.18967	-102
1.19333	-99
1.19700	-99
1.20067	-94
1.20433	-97
1.20800	-90
1.21167	-79
1.21533	-69
1.21900	-68
1.22267	-76
1.22633	-80
1.23000	-84
1.23367	-89
1.23733	-95
1.24100	-98
1.24467	-95
1.24833	-93
1.25200	-93
1.25567	-92
1.25933	-87
1.26300	-84
1.26667	-87
1.27033	-91
1.27400	-96
1.27767	-102
1.28133	-110
1.28500	-110
1.28867	-112
1.29233	-112
1.29600	-108
1.29967	-104
1.30333	-101
1.30700	-91
1.31067	-90
1.31433	-90
1.31800	-93
1.32167	-98
1.32533	-102
1.32900	-101
1.33267	-96
1.33633	-92
1.34000	-96
1.34367	-93
1.34733	-92
1.35100	-97
1.35467	-99
1.35833	-105
1.36200	-109
1.36567	-109
1.36933	-109
1.37300	-105
1.37667	-102
1.38033	-101
1.38400	-103
1.38767	-103
1.39133	-101
1.39500	-100
1.39867	-99
1.40233	-94
1.40600	-95
1.40967	-98
1.41333	-110
1.41700	-118
1.42067	-120
1.42433	-120
1.42800	-119
1.43167	-120
1.43533	-115
1.43900	-65
1.44267	139
1.44633	624
1.45000	1452
1.45367	2668
1.45733	4142
1.46100	5584
1.46467	6763
1.46833	7506
1.47200	7754
1.47567	7523
1.47933	6893
1.48300	5968
1.48667	4898
1.49033	3836
1.49400	2894
1.49767	2125
1.50133	1529
1.50500	1082
1.50867	746
1.51233	489
1.51600	297
1.51967	156
1.52333	56
1.52700	-14
1.53067	-65
1.53433	-94
1.53800	-90
1.54167	-15
1.54533	202
1.54900	580
1.55267	1050
1.55633	1505
1.56000	1883
1.56367	2148
1.56733	2264
1.57100	2199
1.57467	1954
1.57833	1587
1.58200	1188
1.58567	823
1.58933	528
1.59300	302
1.59667	142
1.60033	32
1.60400	-40
1.60767	-87
1.61133	-118
1.61500	-139
1.61867	-153
1.62233	-158
1.62600	-160
1.62967	-157
1.63333	-153
1.63700	-149
1.64067	-147
1.64433	-150
1.64800	-151
1.65167	-155
1.65533	-158
1.65900	-159
1.66267	-160
1.66633	-157
1.67000	-156
1.67367	-156
1.67733	-155
1.68100	-155
1.68467	-156
1.68833	-157
1.69200	-155
1.69567	-145
1.69933	-140
1.70300	-139
1.70667	-141
1.71033	-144
1.71400	-145
1.71767	-144
1.72133	-145
1.72500	-146
1.72867	-144
1.73233	-144
1.73600	-148
1.73967	-154
1.74333	-153
1.74700	-146
1.75067	-140
1.75433	-135
1.75800	-126
1.76167	-120
1.76533	-115
1.76900	-115
1.77267	-120
1.77633	-129
1.78000	-143
1.78367	-154
1.78733	-158
1.79100	-157
1.79467	-151
1.79833	-146
1.80200	-138
1.80567	-133
1.80933	-130
1.81300	-130
1.81667	-131
1.82033	-132
1.82400	-134
1.82767	-130
1.83133	-121
1.83500	-111
1.83867	-109
1.84233	-108
1.84600	-107
1.84967	-114
1.85333	-125
1.85700	-140
1.86067	-143
1.86433	-140
1.86800	-138
1.87167	-137
1.87533	-137
1.87900	-133
1.88267	-131
1.88633	-130
1.89000	-130
1.89367	-130
1.89733	-129
1.90100	-126
1.90467	-124
1.90833	-125
1.91200	-126
1.91567	-126
1.91933	-116
1.92300	-110
1.92667	-105
1.93033	-109
1.93400	-119
1.93767	-130
1.94133	-135
1.94500	-134
1.94867	-124
1.95233	-63
1.95600	342
1.95967	2554
1.96333	11793
1.96700	41142
1.97067	112827
1.97433	247856
1.97800	447057
1.98167	682831
1.98533	911763
1.98900	1093110
1.99267	1198774
1.99633	1215901
2.00000	1146989
2.00367	1010172
2.00733	834437
2.01100	650724
2.01467	483292
2.01833	345339
2.02200	239854
2.02567	163455
2.02933	110216
2.03300	74083
2.03667	49973
2.04033	34045
2.04400	23553
2.04767	16624
2.05133	12017
2.05500	8913
2.05867	6785
2.06233	5295
2.06600	4230
2.06967	3470
2.07333	2908
2.07700	2479
2.08067	2143
2.08433	1875
2.08800	1656
2.09167	1471
2.09533	1320
2.09900	1197
2.10267	1092
2.10633	999
2.11000	920
2.11367	855
2.11733	799
2.12100	749
2.12467	706
2.12833	667
2.13200	631
2.13567	594
2.13933	561
2.14300	531
2.14667	502
2.15033	478
2.15400	454
2.15767	431
2.16133	412
2.16500	397
2.16867	380
2.17233	359
2.17600	336
2.17967	317
2.18333	300
2.18700	284
2.19067	270
2.19433	259
2.19800	247
2.20167	242
2.20533	238
2.20900	231
2.21267	228
2.21633	222
2.22000	212
2.22367	202
2.22733	200
2.23100	189
2.23467	179
2.23833	172
2.24200	167
2.24567	160
2.24933	156
2.25300	151
2.25667	143
2.26033	136
2.26400	132
2.26767	129
2.27133	127
2.27500	124
2.27867	119
2.28233	115
2.28600	116
2.28967	113
2.29333	107
2.29700	98
2.30067	91
2.30433	86
2.30800	76
2.31167	66
2.31533	68
2.31900	69
2.32267	68
2.32633	66
2.33000	62
2.33367	60
2.33733	58
2.34100	58
2.34467	53
2.34833	47
2.35200	44
2.35567	43
2.35933	45
2.36300	49
2.36667	49
2.37033	45
2.37400	41
2.37767	38
2.38133	33
2.38500	31
2.38867	29
2.39233	27
2.39600	28
2.39967	32
2.40333	33
2.40700	35
2.41067	35
2.41433	36
2.41800	35
2.42167	35
2.42533	35
2.42900	32
2.43267	29
2.43633	27
2.44000	23
2.44367	15
2.44733	8
2.45100	3
2.45467	0
2.45833	-4
2.46200	-7
2.46567	-13
2.46933	-24
2.47300	-35
2.47667	-46
2.48033	-52
2.48400	-50
2.48767	-44
2.49133	-39
2.49500	-41
2.49867	-39
2.50233	-38
2.50600	-36
2.50967	-33
2.51333	-29
2.51700	-29
2.52067	-31
2.52433	-36
2.52800	-41
2.53167	-46
2.53533	-50
2.53900	-52
2.54267	-52
2.54633	-52
2.55000	-51
2.55367	-50
2.55733	-50
2.56100	-49
2.56467	-52
2.56833	-55
2.57200	-56
2.57567	-58
2.57933	-60
2.58300	-60
2.58667	-63
2.59033	-68
2.59400	-71
2.59767	-75
2.60133	-76
2.60500	-74
2.60867	-72
2.61233	-71
2.61600	-73
2.61967	-74
2.62333	-77
2.62700	-78
2.63067	-73
2.63433	-69
2.63800	-64
2.64167	-61
2.64533	-61
2.64900	-61
2.65267	-66
2.65633	-71
2.66000	-75
2.66367	-77
2.66733	-77
2.67100	-78
2.67467	-75
2.67833	-69
2.68200	-63
2.68567	-62
2.68933	-63
2.69300	-66
2.69667	-72
2.70033	-73
2.70400	-73
2.70767	-71
2.71133	-67
2.71500	-69
2.71867	-73
2.72233	-74
2.72600	-70
2.72967	-71
2.73333	-77
2.73700	-83
2.74067	-87
2.74433	-87
2.74800	-86
2.75167	-85
2.75533	-89
2.75900	-95
2.76267	-103
2.76633	-108
2.77000	-103
2.77367	-94
2.77733	-89
2.78100	-85
2.78467	-81
2.78833	-80
2.79200	-85
2.79567	-94
2.79933	-103
2.80300	-111
2.80667	-119
2.81033	-122
2.81400	-120
2.81767	-115
2.82133	-110
2.82500	-105
2.82867	-105
2.83233	-103
2.83600	-100
2.83967	-96
2.84333	-89
2.84700	-92
2.85067	-96
2.85433	-98
2.85800	-97
2.86167	-96
2.86533	-96
2.86900	-96
2.87267	-97
2.87633	-96
2.88000	-95
2.88367	-94
2.88733	-95
2.89100	-98
2.89467	-103
2.89833	-102
2.90200	-99
2.90567	-96
2.90933	-100
2.91300	-105
2.91667	-110
2.92033	-112
2.92400	-105
2.92767	-101
2.93133	-103
2.93500	-111
2.93867	-115
2.94233	-115
2.94600	-109
2.94967	-98
2.95333	-88
2.95700	-87
2.96067	-94
2.96433	-105
2.96800	-117
2.97167	-127
2.97533	-133
2.97900	-133
2.98267	-129
2.98633	-124
2.99000	-118
2.99367	-115
2.99733	-116
3.00100	-112
3.00467	-110
3.00833	-106
3.01200	-104
3.01567	-99
3.01933	-94
3.02300	-91
3.02667	-91
3.03033	-93
3.03400	-94
3.03767	-102
3.04133	-119
3.04500	-118
3.04867	-110
3.05233	-108
3.05600	-111
3.05967	-110
3.06333	-108
3.06700	-104
3.07067	-104
3.07433	-107
3.07800	-108
3.08167	-104
3.08533	-102
3.08900	-105
3.09267	-109
3.09633	-110
3.10000	-110
3.10367	-112
3.10733	-116
3.11100	-120
3.11467	-118
3.11833	-117
3.12200	-114
3.12567	-110
3.12933	-107
3.13300	-107
3.13667	-107
3.14033	-106
3.14400	-107
3.14767	-108
3.15133	-106
3.15500	-108
3.15867	-112
3.16233	-114
3.16600	-120
3.16967	-112
3.17333	-109
3.17700	-112
3.18067	-118
3.18433	-125
3.18800	-129
3.19167	-134
3.19533	-138
3.19900	-138
3.20267	-133
3.20633	-125
3.21000	-115
3.21367	-112
3.21733	-109
3.22100	-107
3.22467	-108
3.22833	-116
3.23200	-128
3.23567	-136
3.23933	-131
3.24300	-134
3.24667	-127
3.25033	-120
3.25400	-116
3.25767	-111
3.26133	-108
3.26500	-111
3.26867	-114
3.27233	-123
3.27600	-133
3.27967	-128
3.28333	-122
3.28700	-117
3.29067	-113
3.29433	-112
3.29800	-108
3.30167	-104
3.30533	-97
3.30900	-94
3.31267	-96
3.31633	-108
3.32000	-116
3.32367	-116
3.32733	-117
3.33100	-123
3.33467	-133
3.33833	-139
3.34200	-137
3.34567	-138
3.34933	-140
3.35300	-136
3.35667	-134
3.36033	-132
3.36400	-131
3.36767	-130
3.37133	-130
3.37500	-131
3.37867	-128
3.38233	-127
3.38600	-123
3.38967	-117
3.39333	-117
3.39700	-122
3.40067	-125
3.40433	-135
3.40800	-137
3.41167	-131
3.41533	-123
3.41900	-112
3.42267	-106
3.42633	-108
3.43000	-112
3.43367	-116
3.43733	-120
3.44100	-123
3.44467	-126
3.44833	-126
3.45200	-125
3.45567	-126
3.45933	-132
3.46300	-136
3.46667	-129
3.47033	-116
3.47400	-108
3.47767	-106
3.48133	-106
3.48500	-109
3.48867	-111
3.49233	-116
3.49600	-121
3.49967	-125
3.50333	-131
3.50700	-133
3.51067	-133
3.51433	-134
3.51800	-136
3.52167	-138
3.52533	-137
3.52900	-134
3.53267	-129
3.53633	-124
3.54000	-120
3.54367	-120
3.54733	-122
3.55100	-128
3.55467	-129
3.55833	-127
3.56200	-121
3.56567	-117
3.56933	-119
3.57300	-124
3.57667	-130
3.58033	-123
3.58400	-116
3.58767	-114
3.59133	-118
3.59500	-122
3.59867	-126
3.60233	-128
3.60600	-129
3.60967	-124
3.61333	-122
3.61700	-121
3.62067	-122
3.62433	-124
3.62800	-126
3.63167	-125
3.63533	-124
3.63900	-124
3.64267	-125
3.64633	-119
3.65000	-110
3.65367	-104
3.65733	-106
3.66100	-116
3.66467	-127
3.66833	-132
3.67200	-134
3.67567	-132
3.67933	-129
3.68300	-128
3.68667	-137
3.69033	-143
3.69400	-145
3.69767	-146
3.70133	-143
3.70500	-136
3.70867	-131
3.71233	-127
3.71600	-121
3.71967	-117
3.72333	-114
3.72700	-111
3.73067	-111
3.73433	-114
3.73800	-115
3.74167	-121
3.74533	-124
3.74900	-129
3.75267	-135
3.75633	-139
3.76000	-138
3.76367	-132
3.76733	-129
3.77100	-132
3.77467	-136
3.77833	-136
3.78200	-135
3.78567	-131
3.78933	-129
3.79300	-132
3.79667	-132
3.80033	-127
3.80400	-127
3.80767	-130
3.81133	-134
3.81500	-137
3.81867	-138
3.82233	-137
3.82600	-137
3.82967	-142
3.83333	-147
3.83700	-150
3.84067	-152
3.84433	-149
3.84800	-144
3.85167	-138
3.85533	-135
3.85900	-137
3.86267	-136
3.86633	-136
3.87000	-134
3.87367	-131
3.87733	-130
3.88100	-128
3.88467	-132
3.88833	-140
3.89200	-143
3.89567	-140
3.89933	-139
3.90300	-135
3.90667	-134
3.91033	-134
3.91400	-137
3.91767	-139
3.92133	-138
3.92500	-133
3.92867	-128
3.93233	-128
3.93600	-135
3.93967	-141
3.94333	-146
3.94700	-150
3.95067	-152
3.95433	-150
3.95800	-142
3.96167	-136
3.96533	-130
3.96900	-126
3.97267	-125
3.97633	-126
3.98000	-133
3.98367	-141
3.98733	-141
3.99100	-136
3.99467	-133
3.99833	-134

[Chromatogram (Ch2)]
Interval(msec)	220
# of Points	1091
Start Time(min)	0.002
End Time(min)	3.998
R.Time (min)	Intensity
0.00167	-0
0.00533	-0
0.00900	-0
0.01267	-0
0.01633	-1
0.02000	-1
0.02367	-1
0.02733	-2
0.03100	-2
0.03467	-2
0.03833	-3
0.04200	-3
0.04567	-3
0.04933	-3
0.05300	-3
0.05667	-3
0.06033	-2
0.06400	-2
0.06767	-2
0.07133	-2
0.07500	-2
0.07867	-2
0.08233	-2
0.08600	-2
0.08967	-2
0.09333	-2
0.09700	-2
0.10067	-2
0.10433	-2
0.10800	-1
0.11167	-1
0.11533	-1
0.11900	0
0.12267	1
0.12633	1
0.13000	2
0.13367	2
0.13733	3
0.14100	3
0.14467	3
0.14833	3
0.15200	3
0.15567	3
0.15933	3
0.16300	4
0.16667	4
0.17033	4
0.17400	4
0.17767	4
0.18133	4
0.18500	4
0.18867	3
0.19233	3
0.19600	3
0.19967	3
0.20333	3
0.20700	3
0.21067	3
0.21433	3
0.21800	3
0.22167	3
0.22533	3
0.22900	2
0.23267	2
0.23633	2
0.24000	2
0.24367	2
0.24733	1
0.25100	1
0.25467	1
0.25833	1
0.26200	1
0.26567	0
0.26933	0
0.27300	0
0.27667	0
0.28033	0
0.28400	0
0.28767	-0
0.29133	-0
0.29500	-1
0.29867	-1
0.30233	-1
0.30600	-1
0.30967	-0
0.31333	-0
0.31700	-0
0.32067	-0
0.32433	-0
0.32800	-0
0.33167	-0
0.33533	-0
0.33900	-0
0.34267	0
0.34633	0
0.35000	1
0.35367	1
0.35733	1
0.36100	1
0.36467	2
0.36833	2
0.37200	2
0.37567	2
0.37933	1
0.38300	1
0.38667	1
0.39033	0
0.39400	0
0.39767	-0
0.40133	-0
0.40500	-0
0.40867	-0
0.41233	-1
0.41600	-1
0.41967	-1
0.42333	-2
0.42700	-2
0.43067	-2
0.43433	-3
0.43800	-3
0.44167	-3
0.44533	-3
0.44900	-3
0.45267	-2
0.45633	-2
0.46000	-2
0.46367	-1
0.46733	-1
0.47100	-1
0.47467	-0
0.47833	-0
0.48200	-0
0.48567	-0
0.48933	-0
0.49300	-0
0.49667	-0
0.50033	0
0.50400	0
0.50767	0
0.51133	0
0.51500	0
0.51867	0
0.52233	0
0.52600	-0
0.52967	-0
0.53333	-1
0.53700	-1
0.54067	-1
0.54433	-1
0.54800	-1
0.55167	-2
0.55533	-2
0.55900	-2
0.56267	-2
0.56633	-2
0.57000	-2
0.57367	-2
0.57733	-3
0.58100	-3
0.58467	-4
0.58833	-4
0.59200	-5
0.59567	-5
0.59933	-5
0.60300	-6
0.60667	-6
0.61033	-6
0.61400	-6
0.61767	-6
0.62133	-6
0.62500	-6
0.62867	-6
0.63233	-6
0.63600	-7
0.63967	-7
0.64333	-6
0.64700	-6
0.65067	-6
0.65433	-6
0.65800	-6
0.66167	-6
0.66533	-5
0.66900	-5
0.67267	-4
0.67633	-4
0.68000	-3
0.68367	-2
0.68733	-2
0.69100	-1
0.69467	-1
0.69833	-1
0.70200	-1
0.70567	-1
0.70933	-0
0.71300	-1
0.71667	-1
0.72033	-1
0.72400	-1
0.72767	-1
0.73133	-1
0.73500	-0
0.73867	-0
0.74233	0
0.74600	0
0.74967	1
0.75333	1
0.75700	1
0.76067	1
0.76433	1
0.76800	1
0.77167	1
0.77533	0
0.77900	0
0.78267	0
0.78633	0
0.79000	0
0.79367	0
0.79733	0
0.80100	-0
0.80467	-0
0.80833	-0
0.81200	-0
0.81567	-0
0.81933	-0
0.82300	-0
0.82667	-0
0.83033	-0
0.83400	-1
0.83767	-1
0.84133	-1
0.84500	-1
0.84867	-1
0.85233	-1
0.85600	-1
0.85967	-1
0.86333	-1
0.86700	-1
0.87067	-1
0.87433	-1
0.87800	-1
0.88167	-1
0.88533	-1
0.88900	-2
0.89267	-2
0.89633	-2
0.90000	-2
0.90367	-3
0.90733	-3
0.91100	-3
0.91467	-4
0.91833	-4
0.92200	-4
0.92567	-4
0.92933	-4
0.93300	-4
0.93667	-4
0.94033	-4
0.94400	-3
0.94767	-4
0.95133	-4
0.95500	-4
0.95867	-4
0.96233	-4
0.96600	-5
0.96967	-5
0.97333	-5
0.97700	-5
0.98067	-5
0.98433	-5
0.98800	-5
0.99167	-6
0.99533	-6
0.99900	-6
1.00267	-6
1.00633	-6
1.01000	-5
1.01367	-5
1.01733	-4
1.02100	-4
1.02467	-4
1.02833	-3
1.03200	-3
1.03567	-3
1.03933	-2
1.04300	-2
1.04667	-1
1.05033	-1
1.05400	-1
1.05767	-1
1.06133	-0
1.06500	-0
1.06867	0
1.07233	1
1.07600	1
1.07967	1
1.08333	1
1.08700	0
1.09067	0
1.09433	0
1.09800	0
1.10167	-0
1.10533	-0
1.10900	-0
1.11267	-0
1.11633	-1
1.12000	-1
1.12367	-1
1.12733	-1
1.13100	-1
1.13467	-2
1.13833	-2
1.14200	-2
1.14567	-2
1.14933	-2
1.15300	-3
1.15667	-3
1.16033	-3
1.16400	-4
1.16767	-4
1.17133	-4
1.17500	-4
1.17867	-4
1.18233	-4
1.18600	-5
1.18967	-5
1.19333	-5
1.19700	-5
1.20067	-5
1.20433	-5
1.20800	-5
1.21167	-5
1.21533	-5
1.21900	-5
1.22267	-5
1.22633	-5
1.23000	-5
1.23367	-5
1.23733	-6
1.24100	-6
1.24467	-6
1.24833	-6
1.25200	-6
1.25567	-6
1.25933	-6
1.26300	-6
1.26667	-6
1.27033	-6
1.27400	-6
1.27767	-6
1.28133	-6
1.28500	-6
1.28867	-6
1.29233	-6
1.29600	-6
1.29967	-6
1.30333	-6
1.30700	-6
1.31067	-6
1.31433	-6
1.31800	-6
1.32167	-5
1.32533	-5
1.32900	-5
1.33267	-6
1.33633	-5
1.34000	-5
1.34367	-5
1.34733	-5
1.35100	-5
1.35467	-5
1.35833	-5
1.36200	-5
1.36567	-5
1.36933	-5
1.37300	-5
1.37667	-4
1.38033	-4
1.38400	-5
1.38767	-5
1.39133	-5
1.39500	-5
1.39867	-5
1.40233	-5
1.40600	-5
1.40967	-5
1.41333	-5
1.41700	-4
1.42067	-4
1.42433	-4
1.42800	-4
1.43167	-3
1.43533	-3
1.43900	-3
1.44267	-2
1.44633	-2
1.45000	-2
1.45367	-2
1.45733	-2
1.46100	-2
1.46467	-2
1.46833	-2
1.47200	-2
1.47567	-2
1.47933	-2
1.48300	-3
1.48667	-3
1.49033	-3
1.49400	-3
1.49767	-3
1.50133	-4
1.50500	-4
1.50867	-4
1.51233	-4
1.51600	-5
1.51967	-5
1.52333	-5
1.52700	-5
1.53067	-5
1.53433	-5
1.53800	-5
1.54167	-5
1.54533	-5
1.54900	-4
1.55267	-4
1.55633	-4
1.56000	-4
1.56367	-3
1.56733	-3
1.57100	-3
1.57467	-3
1.57833	-3
1.58200	-3
1.58567	-3
1.58933	-3
1.59300	-3
1.59667	-3
1.60033	-4
1.60400	-4
1.60767	-6
1.61133	-7
1.61500	-9
1.61867	-12
1.62233	-14
1.62600	-17
1.62967	-19
1.63333	-23
1.63700	-26
1.64067	-29
1.64433	-33
1.64800	-37
1.65167	-41
1.65533	-44
1.65900	-48
1.66267	-53
1.66633	-58
1.67000	-63
1.67367	-68
1.67733	-73
1.68100	-78
1.68467	-83
1.68833	-88
1.69200	-92
1.69567	-96
1.69933	-99
1.70300	-101
1.70667	-103
1.71033	-105
1.71400	-107
1.71767	-109
1.72133	-111
1.72500	-112
1.72867	-114
1.73233	-115
1.73600	-116
1.73967	-116
1.74333	-117
1.74700	-117
1.75067	-117
1.75433	-117
1.75800	-117
1.76167	-118
1.76533	-118
1.76900	-119
1.77267	-120
1.77633	-121
1.78000	-121
1.78367	-122
1.78733	-123
1.79100	-123
1.79467	-124
1.79833	-124
1.80200	-124
1.80567	-124
1.80933	-123
1.81300	-123
1.81667	-122
1.82033	-121
1.82400	-121
1.82767	-121
1.83133	-122
1.83500	-122
1.83867	-122
1.84233	-122
1.84600	-123
1.84967	-123
1.85333	-123
1.85700	-123
1.86067	-123
1.86433	-123
1.86800	-123
1.87167	-123
1.87533	-123
1.87900	-123
1.88267	-123
1.88633	-123
1.89000	-123
1.89367	-123
1.89733	-123
1.90100	-123
1.90467	-123
1.90833	-123
1.91200	-123
1.91567	-123
1.91933	-124
1.92300	-124
1.92667	-124
1.93033	-124
1.93400	-124
1.93767	-123
1.94133	-123
1.94500	-123
1.94867	-122
1.95233	-122
1.95600	-121
1.95967	-121
1.96333	-121
1.96700	-120
1.97067	-120
1.97433	-120
1.97800	-120
1.98167	-119
1.98533	-119
1.98900	-118
1.99267	-118
1.99633	-118
2.00000	-117
2.00367	-117
2.00733	-117
2.01100	-117
2.01467	-117
2.01833	-117
2.02200	-116
2.02567	-116
2.02933	-115
2.03300	-115
2.03667	-115
2.04033	-115
2.04400	-115
2.04767	-115
2.05133	-115
2.05500	-114
2.05867	-114
2.06233	-113
2.06600	-112
2.06967	-111
2.07333	-111
2.07700	-111
2.08067	-110
2.08433	-110
2.08800	-110
2.09167	-109
2.09533	-109
2.09900	-110
2.10267	-110
2.10633	-110
2.11000	-110
2.11367	-110
2.11733	-109
2.12100	-109
2.12467	-109
2.12833	-108
2.13200	-108
2.13567	-107
2.13933	-106
2.14300	-105
2.14667	-105
2.15033	-104
2.15400	-103
2.15767	-103
2.16133	-102
2.16500	-102
2.16867	-102
2.17233	-102
2.17600	-102
2.17967	-102
2.18333	-101
2.18700	-101
2.19067	-101
2.19433	-101
2.19800	-100
2.20167	-100
2.20533	-100
2.20900	-100
2.21267	-100
2.21633	-99
2.22000	-99
2.22367	-99
2.22733	-99
2.23100	-99
2.23467	-99
2.23833	-99
2.24200	-99
2.24567	-100
2.24933	-100
2.25300	-100
2.25667	-100
2.26033	-99
2.26400	-98
2.26767	-98
2.27133	-97
2.27500	-96
2.27867	-96
2.28233	-95
2.28600	-94
2.28967	-94
2.29333	-93
2.29700	-92
2.30067	-92
2.30433	-92
2.30800	-93
2.31167	-93
2.31533	-93
2.31900	-94
2.32267	-94
2.32633	-94
2.33000	-93
2.33367	-93
2.33733	-92
2.34100	-92
2.34467	-92
2.34833	-91
2.35200	-91
2.35567	-91
2.35933	-90
2.36300	-90
2.36667	-89
2.37033	-87
2.37400	-85
2.37767	-83
2.38133	-80
2.38500	-76
2.38867	-73
2.39233	-68
2.39600	-64
2.39967	-59
2.40333	-54
2.40700	-49
2.41067	-44
2.41433	-39
2.41800	-35
2.42167	-31
2.42533	-28
2.42900	-25
2.43267	-22
2.43633	-20
2.44000	-18
2.44367	-16
2.44733	-15
2.45100	-13
2.45467	-11
2.45833	-10
2.46200	-8
2.46567	-6
2.46933	-4
2.47300	-3
2.47667	-2
2.48033	-0
2.48400	0
2.48767	1
2.49133	1
2.49500	2
2.49867	2
2.50233	3
2.50600	4
2.50967	4
2.51333	5
2.51700	6
2.52067	7
2.52433	8
2.52800	9
2.53167	9
2.53533	10
2.53900	11
2.54267	11
2.54633	11
2.55000	12
2.55367	12
2.55733	13
2.56100	13
2.56467	13
2.56833	13
2.57200	12
2.57567	12
2.57933	12
2.58300	12
2.58667	12
2.59033	12
2.59400	13
2.59767	13
2.60133	14
2.60500	14
2.60867	15
2.61233	15
2.61600	15
2.61967	16
2.62333	16
2.62700	15
2.63067	15
2.63433	15
2.63800	15
2.64167	15
2.64533	16
2.64900	16
2.65267	17
2.65633	17
2.66000	18
2.66367	18
2.66733	19
2.67100	19
2.67467	19
2.67833	19
2.68200	19
2.68567	19
2.68933	19
2.69300	20
2.69667	20
2.70033	20
2.70400	20
2.70767	20
2.71133	20
2.71500	20
2.71867	21
2.72233	21
2.72600	22
2.72967	22
2.73333	23
2.73700	23
2.74067	24
2.74433	24
2.74800	24
2.75167	24
2.75533	23
2.75900	23
2.76267	23
2.76633	23
2.77000	22
2.77367	22
2.77733	22
2.78100	22
2.78467	22
2.78833	22
2.79200	21
2.79567	21
2.79933	21
2.80300	22
2.80667	22
2.81033	22
2.81400	23
2.81767	23
2.82133	23
2.82500	24
2.82867	24
2.83233	24
2.83600	24
2.83967	23
2.84333	21
2.84700	17
2.85067	12
2.85433	3
2.85800	-9
2.86167	-24
2.86533	-44
2.86900	-67
2.87267	-95
2.87633	-126
2.88000	-161
2.88367	-200
2.88733	-242
2.89100	-286
2.89467	-332
2.89833	-380
2.90200	-429
2.90567	-479
2.90933	-529
2.91300	-579
2.91667	-628
2.92033	-677
2.92400	-724
2.92767	-771
2.93133	-819
2.93500	-872
2.93867	-931
2.94233	-994
2.94600	-1048
2.94967	-1083
2.95333	-1093
2.95700	-1075
2.96067	-1035
2.96433	-976
2.96800	-905
2.97167	-828
2.97533	-747
2.97900	-668
2.98267	-592
2.98633	-521
2.99000	-455
2.99367	-395
2.99733	-342
3.00100	-294
3.00467	-252
3.00833	-216
3.01200	-184
3.01567	-156
3.01933	-133
3.02300	-112
3.02667	-95
3.03033	-79
3.03400	-67
3.03767	-56
3.04133	-46
3.04500	-38
3.04867	-31
3.05233	-25
3.05600	-20
3.05967	-16
3.06333	-12
3.06700	-9
3.07067	-6
3.07433	-3
3.07800	-1
3.08167	1
3.08533	3
3.08900	4
3.09267	5
3.09633	6
3.10000	7
3.10367	8
3.10733	9
3.11100	9
3.11467	10
3.11833	11
3.12200	12
3.12567	12
3.12933	12
3.13300	13
3.13667	13
3.14033	14
3.14400	14
3.14767	15
3.15133	15
3.15500	15
3.15867	16
3.16233	16
3.16600	17
3.16967	17
3.17333	17
3.17700	18
3.18067	18
3.18433	18
3.18800	18
3.19167	19
3.19533	19
3.19900	19
3.20267	20
3.20633	20
3.21000	20
3.21367	20
3.21733	20
3.22100	20
3.22467	20
3.22833	20
3.23200	21
3.23567	21
3.23933	21
3.24300	21
3.24667	21
3.25033	21
3.25400	21
3.25767	21
3.26133	21
3.26500	21
3.26867	22
3.27233	22
3.27600	22
3.27967	22
3.28333	22
3.28700	22
3.29067	22
3.29433	22
3.29800	22
3.30167	23
3.30533	23
3.30900	24
3.31267	24
3.31633	24
3.32000	24
3.32367	25
3.32733	25
3.33100	25
3.33467	25
3.33833	26
3.34200	26
3.34567	26
3.34933	26
3.35300	26
3.35667	25
3.36033	25
3.36400	25
3.36767	25
3.37133	25
3.37500	25
3.37867	25
3.38233	25
3.38600	25
3.38967	25
3.39333	25
3.39700	25
3.40067	25
3.40433	25
3.40800	25
3.41167	25
3.41533	25
3.41900	25
3.42267	25
3.42633	25
3.43000	25
3.43367	25
3.43733	25
3.44100	25
3.44467	25
3.44833	25
3.45200	24
3.45567	24
3.45933	24
3.46300	23
3.46667	23
3.47033	23
3.47400	23
3.47767	23
3.48133	23
3.48500	23
3.48867	23
3.49233	23
3.49600	23
3.49967	24
3.50333	24
3.50700	24
3.51067	25
3.51433	25
3.51800	25
3.52167	25
3.52533	26
3.52900	26
3.53267	26
3.53633	26
3.54000	26
3.54367	27
3.54733	27
3.55100	28
3.55467	28
3.55833	28
3.56200	29
3.56567	29
3.56933	30
3.57300	30
3.57667	30
3.58033	30
3.58400	29
3.58767	29
3.59133	29
3.59500	29
3.59867	29
3.60233	29
3.60600	29
3.60967	29
3.61333	29
3.61700	28
3.62067	28
3.62433	28
3.62800	28
3.63167	28
3.63533	28
3.63900	28
3.64267	28
3.64633	28
3.65000	28
3.65367	28
3.65733	28
3.66100	28
3.66467	27
3.66833	27
3.67200	27
3.67567	27
3.67933	27
3.68300	27
3.68667	27
3.69033	27
3.69400	26
3.69767	26
3.70133	26
3.70500	26
3.70867	26
3.71233	26
3.71600	26
3.71967	26
3.72333	26
3.72700	26
3.73067	26
3.73433	26
3.73800	27
3.74167	27
3.74533	27
3.74900	26
3.75267	26
3.75633	26
3.76000	26
3.76367	26
3.76733	25
3.77100	25
3.77467	25
3.77833	25
3.78200	25
3.78567	25
3.78933	25
3.79300	24
3.79667	24
3.80033	24
3.80400	24
3.80767	24
3.81133	23
3.81500	24
3.81867	24
3.82233	24
3.82600	24
3.82967	24
3.83333	24
3.83700	25
3.84067	25
3.84433	25
3.84800	25
3.85167	25
3.85533	25
3.85900	25
3.86267	26
3.86633	26
3.87000	25
3.87367	25
3.87733	25
3.88100	25
3.88467	25
3.88833	25
3.89200	24
3.89567	24
3.89933	24
3.90300	24
3.90667	24
3.91033	24
3.91400	24
3.91767	24
3.92133	24
3.92500	24
3.92867	24
3.93233	24
3.93600	24
3.93967	24
3.94333	24
3.94700	24
3.95067	24
3.95433	24
3.95800	23
3.96167	23
3.96533	23
3.96900	23
3.97267	23
3.97633	23
3.98000	23
3.98367	23
3.98733	23
3.99100	23
3.99467	24
3.99833	24

[Chromatogram (Ch3)]
Interval(msec)	220
# of Points	1091
Start Time(min)	0.002
End Time(min)	3.998
R.Time (min)	Intensity
0.00167	-0
0.00533	1
0.00900	3
0.01267	4
0.01633	4
0.02000	5
0.02367	4
0.02733	1
0.03100	0
0.03467	-0
0.03833	1
0.04200	0
0.04567	-1
0.04933	0
0.05300	2
0.05667	2
0.06033	2
0.06400	2
0.06767	2
0.07133	3
0.07500	3
0.07867	2
0.08233	3
0.08600	4
0.08967	5
0.09333	8
0.09700	7
0.10067	5
0.10433	4
0.10800	4
0.11167	6
0.11533	4
0.11900	3
0.12267	5
0.12633	7
0.13000	8
0.13367	7
0.13733	7
0.14100	5
0.14467	5
0.14833	5
0.15200	5
0.15567	7
0.15933	7
0.16300	7
0.16667	7
0.17033	5
0.17400	4
0.17767	4
0.18133	3
0.18500	2
0.18867	1
0.19233	2
0.19600	3
0.19967	5
0.20333	4
0.20700	5
0.21067	5
0.21433	6
0.21800	6
0.22167	7
0.22533	7
0.22900	7
0.23267	4
0.23633	2
0.24000	2
0.24367	4
0.24733	2
0.25100	0
0.25467	1
0.25833	3
0.26200	5
0.26567	7
0.26933	7
0.27300	5
0.27667	4
0.28033	3
0.28400	5
0.28767	7
0.29133	10
0.29500	10
0.29867	9
0.30233	7
0.30600	7
0.30967	7
0.31333	5
0.31700	3
0.32067	2
0.32433	2
0.32800	2
0.33167	3
0.33533	5
0.33900	6
0.34267	4
0.34633	5
0.35000	7
0.35367	9
0.35733	10
0.36100	10
0.36467	9
0.36833	9
0.37200	9
0.37567	8
0.37933	9
0.38300	9
0.38667	9
0.39033	5
0.39400	3
0.39767	4
0.40133	6
0.40500	7
0.40867	10
0.41233	11
0.41600	10
0.41967	8
0.42333	8
0.42700	9
0.43067	9
0.43433	7
0.43800	5
0.44167	5
0.44533	4
0.44900	6
0.45267	7
0.45633	7
0.46000	5
0.46367	5
0.46733	7
0.47100	6
0.47467	5
0.47833	7
0.48200	8
0.48567	10
0.48933	11
0.49300	11
0.49667	12
0.50033	12
0.50400	10
0.50767	8
0.51133	8
0.51500	7
0.51867	7
0.52233	6
0.52600	7
0.52967	7
0.53333	6
0.53700	4
0.54067	5
0.54433	5
0.54800	6
0.55167	7
0.55533	9
0.55900	9
0.56267	8
0.56633	8
0.57000	9
0.57367	9
0.57733	9
0.58100	10
0.58467	12
0.58833	13
0.59200	12
0.59567	9
0.59933	6
0.60300	6
0.60667	6
0.61033	7
0.61400	9
0.61767	9
0.62133	10
0.62500	10
0.62867	7
0.63233	4
0.63600	3
0.63967	3
0.64333	3
0.64700	6
0.65067	9
0.65433	9
0.65800	9
0.66167	12
0.66533	14
0.66900	14
0.67267	11
0.67633	9
0.68000	10
0.68367	11
0.68733	12
0.69100	15
0.69467	15
0.69833	15
0.70200	15
0.70567	14
0.70933	12
0.71300	11
0.71667	9
0.72033	7
0.72400	7
0.72767	7
0.73133	7
0.73500	8
0.73867	8
0.74233	9
0.74600	9
0.74967	9
0.75333	9
0.75700	12
0.76067	12
0.76433	11
0.76800	9
0.77167	9
0.77533	9
0.77900	7
0.78267	8
0.78633	10
0.79000	11
0.79367	10
0.79733	12
0.80100	13
0.80467	12
0.80833	13
0.81200	14
0.81567	12
0.81933	11
0.82300	13
0.82667	12
0.83033	11
0.83400	13
0.83767	15
0.84133	13
0.84500	12
0.84867	12
0.85233	13
0.85600	12
0.85967	10
0.86333	8
0.86700	6
0.87067	7
0.87433	9
0.87800	11
0.88167	13
0.88533	14
0.88900	16
0.89267	16
0.89633	13
0.90000	10
0.90367	7
0.90733	4
0.91100	2
0.91467	1
0.91833	3
0.92200	5
0.92567	5
0.92933	8
0.93300	9
0.93667	6
0.94033	5
0.94400	7
0.94767	10
0.95133	12
0.95500	12
0.95867	11
0.96233	11
0.96600	11
0.96967	9
0.97333	7
0.97700	9
0.98067	10
0.98433	10
0.98800	11
0.99167	12
0.99533	14
0.99900	15
1.00267	12
1.00633	10
1.01000	10
1.01367	10
1.01733	9
1.02100	8
1.02467	9
1.02833	11
1.03200	12
1.03567	15
1.03933	15
1.04300	14
1.04667	12
1.05033	12
1.05400	10
1.05767	8
1.06133	7
1.06500	8
1.06867	9
1.07233	14
1.07600	17
1.07967	17
1.08333	18
1.08700	20
1.09067	20
1.09433	19
1.09800	18
1.10167	16
1.10533	14
1.10900	14
1.11267	14
1.11633	13
1.12000	13
1.12367	13
1.12733	14
1.13100	14
1.13467	14
1.13833	14
1.14200	15
1.14567	15
1.14933	12
1.15300	11
1.15667	11
1.16033	14
1.16400	12
1.16767	12
1.17133	11
1.17500	12
1.17867	15
1.18233	19
1.18600	19
1.18967	18
1.19333	17
1.19700	14
1.20067	12
1.20433	11
1.20800	11
1.21167	11
1.21533	12
1.21900	14
1.22267	17
1.22633	18
1.23000	21
1.23367	20
1.23733	17
1.24100	16
1.24467	15
1.24833	13
1.25200	13
1.25567	14
1.25933	16
1.26300	17
1.26667	17
1.27033	17
1.27400	16
1.27767	14
1.28133	13
1.28500	13
1.28867	15
1.29233	18
1.29600	19
1.29967	19
1.30333	19
1.30700	16
1.31067	14
1.31433	14
1.31800	13
1.32167	14
1.32533	15
1.32900	14
1.33267	13
1.33633	12
1.34000	12
1.34367	14
1.34733	15
1.35100	16
1.35467	15
1.35833	16
1.36200	16
1.36567	15
1.36933	15
1.37300	17
1.37667	18
1.38033	19
1.38400	20
1.38767	20
1.39133	18
1.39500	18
1.39867	17
1.40233	16
1.40600	16
1.40967	15
1.41333	15
1.41700	16
1.42067	17
1.42433	19
1.42800	19
1.43167	20
1.43533	19
1.43900	17
1.44267	15
1.44633	14
1.45000	13
1.45367	12
1.45733	12
1.46100	13
1.46467	15
1.46833	15
1.47200	16
1.47567	17
1.47933	18
1.48300	19
1.48667	21
1.49033	22
1.49400	22
1.49767	23
1.50133	22
1.50500	23
1.50867	22
1.51233	22
1.51600	22
1.51967	22
1.52333	22
1.52700	22
1.53067	21
1.53433	21
1.53800	22
1.54167	23
1.54533	23
1.54900	21
1.55267	17
1.55633	14
1.56000	16
1.56367	17
1.56733	18
1.57100	18
1.57467	17
1.57833	16
1.58200	16
1.58567	17
1.58933	19
1.59300	20
1.59667	22
1.60033	24
1.60400	25
1.60767	25
1.61133	24
1.61500	24
1.61867	24
1.62233	22
1.62600	21
1.62967	21
1.63333	22
1.63700	23
1.64067	24
1.64433	23
1.64800	23
1.65167	25
1.65533	26
1.65900	28
1.66267	30
1.66633	29
1.67000	29
1.67367	30
1.67733	30
1.68100	30
1.68467	31
1.68833	29
1.69200	30
1.69567	29
1.69933	29
1.70300	32
1.70667	34
1.71033	37
1.71400	38
1.71767	34
1.72133	32
1.72500	33
1.72867	32
1.73233	32
1.73600	30
1.73967	28
1.74333	29
1.74700	31
1.75067	34
1.75433	35
1.75800	33
1.76167	33
1.76533	35
1.76900	35
1.77267	34
1.77633	35
1.78000	36
1.78367	36
1.78733	37
1.79100	37
1.79467	36
1.79833	38
1.80200	39
1.80567	40
1.80933	40
1.81300	41
1.81667	42
1.82033	42
1.82400	43
1.82767	44
1.83133	45
1.83500	46
1.83867	46
1.84233	46
1.84600	46
1.84967	46
1.85333	45
1.85700	47
1.86067	49
1.86433	50
1.86800	50
1.87167	50
1.87533	52
1.87900	52
1.88267	51
1.88633	53
1.89000	53
1.89367	53
1.89733	52
1.90100	53
1.90467	53
1.90833	53
1.91200	52
1.91567	54
1.91933	53
1.92300	53
1.92667	54
1.93033	56
1.93400	59
1.93767	61
1.94133	62
1.94500	63
1.94867	64
1.95233	66
1.95600	66
1.95967	67
1.96333	68
1.96700	68
1.97067	67
1.97433	69
1.97800	70
1.98167	70
1.98533	69
1.98900	68
1.99267	66
1.99633	65
2.00000	66
2.00367	70
2.00733	73
2.01100	73
2.01467	72
2.01833	71
2.02200	69
2.02567	70
2.02933	72
2.03300	77
2.03667	82
2.04033	85
2.04400	90
2.04767	91
2.05133	88
2.05500	86
2.05867	85
2.06233	86
2.06600	86
2.06967	88
2.07333	89
2.07700	89
2.08067	91
2.08433	93
2.08800	93
2.09167	94
2.09533	94
2.09900	93
2.10267	94
2.10633	95
2.11000	97
2.11367	97
2.11733	97
2.12100	96
2.12467	96
2.12833	95
2.13200	96
2.13567	99
2.13933	101
2.14300	105
2.14667	107
2.15033	107
2.15400	105
2.15767	105
2.16133	108
2.16500	110
2.16867	111
2.17233	111
2.17600	113
2.17967	113
2.18333	112
2.18700	112
2.19067	111
2.19433	112
2.19800	114
2.20167	117
2.20533	119
2.20900	118
2.21267	118
2.21633	117
2.22000	115
2.22367	117
2.22733	121
2.23100	123
2.23467	123
2.23833	125
2.24200	128
2.24567	131
2.24933	135
2.25300	138
2.25667	138
2.26033	136
2.26400	137
2.26767	139
2.27133	141
2.27500	140
2.27867	140
2.28233	142
2.28600	141
2.28967	139
2.29333	139
2.29700	142
2.30067	144
2.30433	146
2.30800	148
2.31167	149
2.31533	149
2.31900	148
2.32267	147
2.32633	148
2.33000	150
2.33367	152
2.33733	153
2.34100	154
2.34467	154
2.34833	153
2.35200	153
2.35567	155
2.35933	159
2.36300	160
2.36667	161
2.37033	162
2.37400	163
2.37767	163
2.38133	162
2.38500	159
2.38867	157
2.39233	158
2.39600	161
2.39967	166
2.40333	172
2.40700	178
2.41067	182
2.41433	188
2.41800	193
2.42167	197
2.42533	202
2.42900	205
2.43267	205
2.43633	206
2.44000	208
2.44367	210
2.44733	210
2.45100	206
2.45467	201
2.45833	197
2.46200	193
2.46567	189
2.46933	186
2.47300	186
2.47667	185
2.48033	184
2.48400	183
2.48767	182
2.49133	181
2.49500	179
2.49867	176
2.50233	162
2.50600	150
2.50967	156
2.51333	185
2.51700	231
2.52067	290
2.52433	358
2.52800	431
2.53167	501
2.53533	567
2.53900	627
2.54267	680
2.54633	729
2.55000	776
2.55367	815
2.55733	849
2.56100	879
2.56467	903
2.56833	928
2.57200	946
2.57567	963
2.57933	982
2.58300	996
2.58667	1005
2.59033	1013
2.59400	1018
2.59767	1018
2.60133	1009
2.60500	991
2.60867	963
2.61233	930
2.61600	895
2.61967	861
2.62333	830
2.62700	801
2.63067	780
2.63433	763
2.63800	751
2.64167	743
2.64533	737
2.64900	735
2.65267	736
2.65633	739
2.66000	744
2.66367	751
2.66733	759
2.67100	769
2.67467	778
2.67833	786
2.68200	794
2.68567	801
2.68933	808
2.69300	816
2.69667	824
2.70033	831
2.70400	838
2.70767	844
2.71133	851
2.71500	856
2.71867	860
2.72233	866
2.72600	872
2.72967	876
2.73333	882
2.73700	886
2.74067	890
2.74433	895
2.74800	900
2.75167	905
2.75533	912
2.75900	920
2.76267	926
2.76633	932
2.77000	937
2.77367	942
2.77733	945
2.78100	950
2.78467	954
2.78833	959
2.79200	964
2.79567	969
2.79933	976
2.80300	983
2.80667	992
2.81033	1000
2.81400	1009
2.81767	1021
2.82133	1046
2.82500	1097
2.82867	1191
2.83233	1357
2.83600	1624
2.83967	2010
2.84333	2523
2.84700	3150
2.85067	3863
2.85433	4613
2.85800	5346
2.86167	6000
2.86533	6525
2.86900	6890
2.87267	7075
2.87633	7084
2.88000	6942
2.88367	6683
2.88733	6340
2.89100	5942
2.89467	5520
2.89833	5092
2.90200	4677
2.90567	4282
2.90933	3918
2.91300	3585
2.91667	3285
2.92033	3016
2.92400	2781
2.92767	2576
2.93133	2396
2.93500	2237
2.93867	2098
2.94233	1978
2.94600	1877
2.94967	1790
2.95333	1715
2.95700	1651
2.96067	1595
2.96433	1546
2.96800	1507
2.97167	1474
2.97533	1447
2.97900	1425
2.98267	1405
2.98633	1389
2.99000	1376
2.99367	1364
2.99733	1354
3.00100	1346
3.00467	1337
3.00833	1330
3.01200	1323
3.01567	1317
3.01933	1313
3.02300	1308
3.02667	1305
3.03033	1305
3.03400	1306
3.03767	1308
3.04133	1306
3.04500	1306
3.04867	1305
3.05233	1302
3.05600	1300
3.05967	1298
3.06333	1296
3.06700	1294
3.07067	1297
3.07433	1299
3.07800	1300
3.08167	1297
3.08533	1293
3.08900	1292
3.09267	1292
3.09633	1290
3.10000	1290
3.10367	1288
3.10733	1284
3.11100	1280
3.11467	1278
3.11833	1277
3.12200	1275
3.12567	1272
3.12933	1268
3.13300	1265
3.13667	1262
3.14033	1257
3.14400	1257
3.14767	1257
3.15133	1257
3.15500	1256
3.15867	1254
3.16233	1251
3.16600	1246
3.16967	1243
3.17333	1242
3.17700	1240
3.18067	1236
3.18433	1234
3.18800	1233
3.19167	1230
3.19533	1226
3.19900	1224
3.20267	1223
3.20633	1218
3.21000	1211
3.21367	1204
3.21733	1201
3.22100	1200
3.22467	1198
3.22833	1196
3.23200	1195
3.23567	1195
3.23933	1194
3.24300	1191
3.24667	1185
3.25033	1179
3.25400	1174
3.25767	1172
3.26133	1169
3.26500	1164
3.26867	1158
3.27233	1152
3.27600	1148
3.27967	1146
3.28333	1144
3.28700	1140
3.29067	1135
3.29433	1128
3.29800	1120
3.30167	1115
3.30533	1112
3.30900	1107
3.31267	1103
3.31633	1098
3.32000	1096
3.32367	1093
3.32733	1089
3.33100	1080
3.33467	1071
3.33833	1066
3.34200	1061
3.34567	1054
3.34933	1050
3.35300	1047
3.35667	1041
3.36033	1037
3.36400	1032
3.36767	1028
3.37133	1024
3.37500	1020
3.37867	1016
3.38233	1012
3.38600	1007
3.38967	1002
3.39333	996
3.39700	992
3.40067	988
3.40433	980
3.40800	970
3.41167	964
3.41533	960
3.41900	952
3.42267	943
3.42633	939
3.43000	936
3.43367	931
3.43733	926
3.44100	922
3.44467	917
3.44833	913
3.45200	908
3.45567	902
3.45933	896
3.46300	892
3.46667	888
3.47033	883
3.47400	878
3.47767	875
3.48133	870
3.48500	864
3.48867	857
3.49233	851
3.49600	848
3.49967	846
3.50333	841
3.50700	835
3.51067	829
3.51433	824
3.51800	819
3.52167	811
3.52533	806
3.52900	806
3.53267	805
3.53633	801
3.54000	795
3.54367	788
3.54733	784
3.55100	779
3.55467	774
3.55833	769
3.56200	762
3.56567	755
3.56933	749
3.57300	744
3.57667	739
3.58033	734
3.58400	728
3.58767	725
3.59133	722
3.59500	720
3.59867	718
3.60233	714
3.60600	709
3.60967	705
3.61333	700
3.61700	695
3.62067	689
3.62433	682
3.62800	680
3.63167	677
3.63533	675
3.63900	673
3.64267	667
3.64633	662
3.65000	658
3.65367	653
3.65733	650
3.66100	646
3.66467	644
3.66833	640
3.67200	633
3.67567	628
3.67933	624
3.68300	617
3.68667	612
3.69033	608
3.69400	604
3.69767	600
3.70133	597
3.70500	594
3.70867	593
3.71233	591
3.71600	589
3.71967	587
3.72333	586
3.72700	585
3.73067	582
3.73433	577
3.73800	574
3.74167	571
3.74533	566
3.74900	560
3.75267	554
3.75633	548
3.76000	544
3.76367	542
3.76733	541
3.77100	539
3.77467	537
3.77833	534
3.78200	533
3.78567	531
3.78933	528
3.79300	522
3.79667	517
3.80033	514
3.80400	513
3.80767	511
3.81133	507
3.81500	503
3.81867	498
3.82233	493
3.82600	489
3.82967	485
3.83333	482
3.83700	480
3.84067	477
3.84433	473
3.84800	470
3.85167	468
3.85533	466
3.85900	462
3.86267	458
3.86633	454
3.87000	451
3.87367	448
3.87733	444
3.88100	440
3.88467	436
3.88833	434
3.89200	432
3.89567	430
3.89933	426
3.90300	423
3.90667	421
3.91033	420
3.91400	418
3.91767	416
3.92133	414
3.92500	412
3.92867	407
3.93233	402
3.93600	402
3.93967	401
3.94333	398
3.94700	396
3.95067	393
3.95433	390
3.95800	388
3.96167	387
3.96533	386
3.96900	385
3.97267	383
3.97633	379
3.98000	374
3.98367	371
3.98733	369
3.99100	364
3.99467	360
3.99833	353

[Status Trace (Column Oven Temperature)]
Interval(msec)	1000
# of Points	240
Start Time(min)	0.010
End Time(min)	3.994
Intensity Units	
Intensity Multiplier	1
R.Time (min)	Intensity
0.01033	35.04
0.02700	35.05
0.04367	35.07
0.06033	35.06
0.07700	35.07
0.09367	35.06
0.11033	35.06
0.12700	35.04
0.14367	35.03
0.16033	35.01
0.17700	35.00
0.19367	34.99
0.21033	34.99
0.22700	34.97
0.24367	34.97
0.26033	34.97
0.27700	34.98
0.29367	34.98
0.31033	34.98
0.32700	34.97
0.34367	34.96
0.36033	34.95
0.37700	34.96
0.39367	34.96
0.41033	34.97
0.42700	34.98
0.44367	34.99
0.46033	34.97
0.47700	34.97
0.49367	34.96
0.51033	34.97
0.52700	34.97
0.54367	34.98
0.56033	34.98
0.57700	34.99
0.59367	35.01
0.61033	35.03
0.62700	35.03
0.64367	35.05
0.66033	35.05
0.67700	35.04
0.69367	35.03
0.71033	35.02
0.72700	35.01
0.74367	35.00
0.76033	34.99
0.77700	34.98
0.79367	34.98
0.81033	34.97
0.82700	34.97
0.84367	34.98
0.86033	34.96
0.87700	34.96
0.89367	34.97
0.91033	34.98
0.92700	34.99
0.94367	35.00
0.96033	35.01
0.97700	35.01
0.99367	35.02
1.01033	35.02
1.02700	35.02
1.04367	35.01
1.06033	35.00
1.07700	34.98
1.09367	34.97
1.11033	34.96
1.12700	34.97
1.14367	34.97
1.16033	34.97
1.17700	34.97
1.19367	34.97
1.21033	34.97
1.22700	34.98
1.24367	34.98
1.26033	34.99
1.27700	35.00
1.29367	35.00
1.31033	35.01
1.32700	35.01
1.34367	35.02
1.36033	35.02
1.37700	35.03
1.39367	35.03
1.41033	35.02
1.42700	35.01
1.44367	34.99
1.46033	34.98
1.47700	34.99
1.49367	35.01
1.51033	35.01
1.52700	35.00
1.54367	35.01
1.56033	35.00
1.57700	35.00
1.59367	35.01
1.61033	35.06
1.62700	35.19
1.64367	35.37
1.66033	35.63
1.67700	35.98
1.69367	36.34
1.71033	36.69
1.72700	37.04
1.74367	37.38
1.76033	37.72
1.77700	38.06
1.79367	38.40
1.81033	38.70
1.82700	39.02
1.84367	39.36
1.86033	39.68
1.87700	40.00
1.89367	40.34
1.91033	40.67
1.92700	41.00
1.94367	41.33
1.96033	41.65
1.97700	41.98
1.99367	42.30
2.01033	42.64
2.02700	42.96
2.04367	43.30
2.06033	43.61
2.07700	43.94
2.09367	44.26
2.11033	44.59
2.12700	44.93
2.14367	45.25
2.16033	45.57
2.17700	45.91
2.19367	46.23
2.21033	46.55
2.22700	46.87
2.24367	47.21
2.26033	47.54
2.27700	47.88
2.29367	48.18
2.31033	48.54
2.32700	48.86
2.34367	49.20
2.36033	49.47
2.37700	49.65
2.39367	49.70
2.41033	49.68
2.42700	49.69
2.44367	49.72
2.46033	49.72
2.47700	49.73
2.49367	49.75
2.51033	49.76
2.52700	49.76
2.54367	49.78
2.56033	49.79
2.57700	49.81
2.59367	49.82
2.61033	49.82
2.62700	49.83
2.64367	49.84
2.66033	49.84
2.67700	49.85
2.69367	49.86
2.71033	49.86
2.72700	49.85
2.74367	49.84
2.76033	49.87
2.77700	49.89
2.79367	49.90
2.81033	49.89
2.82700	49.89
2.84367	49.89
2.86033	49.90
2.87700	49.91
2.89367	49.92
2.91033	49.93
2.92700	49.95
2.94367	49.95
2.96033	49.96
2.97700	49.97
2.99367	49.99
3.01033	50.01
3.02700	50.03
3.04367	50.04
3.06033	50.06
3.07700	50.06
3.09367	50.07
3.11033	50.08
3.12700	50.09
3.14367	50.09
3.16033	50.09
3.17700	50.09
3.19367	50.09
3.21033	50.09
3.22700	50.09
3.24367	50.09
3.26033	50.10
3.27700	50.10
3.29367	50.09
3.31033	50.09
3.32700	50.08
3.34367	50.07
3.36033	50.07
3.37700	50.06
3.39367	50.06
3.41033	50.06
3.42700	50.06
3.44367	50.08
3.46033	50.10
3.47700	50.12
3.49367	50.12
3.51033	50.11
3.52700	50.10
3.54367	50.09
3.56033	50.05
3.57700	50.04
3.59367	50.02
3.61033	50.01
3.62700	50.01
3.64367	49.99
3.66033	49.99
3.67700	49.99
3.69367	49.99
3.71033	49.99
3.72700	49.99
3.74367	49.99
3.76033	50.00
3.77700	50.01
3.79367	50.02
3.81033	50.03
3.82700	50.03
3.84367	50.02
3.86033	50.02
3.87700	50.03
3.89367	50.03
3.91033	50.03
3.92700	50.04
3.94367	50.04
3.96033	50.05
3.97700	50.07
3.99367	50.07

[Status Trace (Injection Unit Temperature)]
Interval(msec)	1000
# of Points	240
Start Time(min)	0.010
End Time(min)	3.994
Intensity Units	
Intensity Multiplier	1
R.Time (min)	Intensity
0.01033	99.98
0.02700	99.98
0.04367	99.99
0.06033	99.98
0.07700	99.99
0.09367	99.98
0.11033	99.98
0.12700	99.98
0.14367	99.99
0.16033	99.99
0.17700	99.99
0.19367	99.99
0.21033	99.99
0.22700	99.99
0.24367	99.99
0.26033	99.99
0.27700	99.99
0.29367	99.98
0.31033	99.98
0.32700	99.98
0.34367	99.99
0.36033	99.99
0.37700	99.98
0.39367	99.99
0.41033	99.99
0.42700	99.98
0.44367	99.98
0.46033	99.98
0.47700	99.98
0.49367	99.99
0.51033	99.99
0.52700	99.99
0.54367	99.99
0.56033	99.98
0.57700	99.99
0.59367	99.98
0.61033	99.98
0.62700	99.98
0.64367	99.98
0.66033	99.98
0.67700	99.98
0.69367	99.98
0.71033	99.99
0.72700	99.98
0.74367	99.98
0.76033	99.98
0.77700	99.98
0.79367	99.98
0.81033	99.98
0.82700	99.98
0.84367	99.99
0.86033	99.98
0.87700	99.98
0.89367	99.98
0.91033	99.98
0.92700	99.98
0.94367	99.98
0.96033	99.98
0.97700	99.99
0.99367	99.98
1.01033	99.98
1.02700	99.98
1.04367	99.98
1.06033	99.98
1.07700	99.99
1.09367	99.98
1.11033	99.98
1.12700	99.98
1.14367	99.99
1.16033	99.99
1.17700	99.99
1.19367	99.98
1.21033	99.98
1.22700	99.99
1.24367	99.99
1.26033	99.99
1.27700	99.99
1.29367	99.98
1.31033	99.99
1.32700	99.99
1.34367	99.99
1.36033	99.99
1.37700	99.99
1.39367	99.99
1.41033	99.99
1.42700	99.99
1.44367	99.99
1.46033	99.99
1.47700	99.99
1.49367	99.99
1.51033	100.00
1.52700	99.99
1.54367	99.99
1.56033	99.99
1.57700	99.99
1.59367	100.00
1.61033	99.99
1.62700	100.00
1.64367	99.99
1.66033	99.99
1.67700	100.00
1.69367	99.99
1.71033	100.00
1.72700	99.99
1.74367	99.99
1.76033	99.99
1.77700	99.99
1.79367	99.99
1.81033	99.99
1.82700	99.99
1.84367	99.99
1.86033	99.99
1.87700	99.99
1.89367	99.99
1.91033	99.98
1.92700	99.99
1.94367	99.99
1.96033	99.98
1.97700	99.98
1.99367	99.98
2.01033	99.98
2.02700	99.98
2.04367	99.97
2.06033	99.97
2.07700	99.97
2.09367	99.97
2.11033	99.97
2.12700	99.97
2.14367	99.97
2.16033	99.97
2.17700	99.97
2.19367	99.97
2.21033	99.97
2.22700	99.97
2.24367	99.97
2.26033	99.97
2.27700	99.97
2.29367	99.97
2.31033	99.97
2.32700	99.97
2.34367	99.97
2.36033	99.97
2.37700	99.97
2.39367	99.97
2.41033	99.97
2.42700	99.97
2.44367	99.97
2.46033	99.97
2.47700	99.97
2.49367	99.97
2.51033	99.97
2.52700	99.97
2.54367	99.98
2.56033	99.98
2.57700	99.98
2.59367	99.98
2.61033	99.98
2.62700	99.98
2.64367	99.98
2.66033	99.99
2.67700	99.99
2.69367	99.99
2.71033	99.99
2.72700	99.99
2.74367	99.99
2.76033	99.99
2.77700	100.00
2.79367	100.00
2.81033	100.00
2.82700	100.00
2.84367	100.00
2.86033	100.00
2.87700	100.00
2.89367	100.01
2.91033	100.01
2.92700	100.01
2.94367	100.01
2.96033	100.01
2.97700	100.01
2.99367	100.01
3.01033	100.01
3.02700	100.02
3.04367	100.01
3.06033	100.02
3.07700	100.02
3.09367	100.02
3.11033	100.02
3.12700	100.02
3.14367	100.02
3.16033	100.02
3.17700	100.02
3.19367	100.02
3.21033	100.02
3.22700	100.03
3.24367	100.02
3.26033	100.03
3.27700	100.03
3.29367	100.02
3.31033	100.03
3.32700	100.03
3.34367	100.03
3.36033	100.03
3.37700	100.03
3.39367	100.03
3.41033	100.03
3.42700	100.03
3.44367	100.03
3.46033	100.03
3.47700	100.03
3.49367	100.03
3.51033	100.03
3.52700	100.03
3.54367	100.04
3.56033	100.03
3.57700	100.03
3.59367	100.03
3.61033	100.04
3.62700	100.04
3.64367	100.04
3.66033	100.04
3.67700	100.04
3.69367	100.04
3.71033	100.04
3.72700	100.04
3.74367	100.04
3.76033	100.04
3.77700	100.04
3.79367	100.04
3.81033	100.05
3.82700	100.04
3.84367	100.04
3.86033	100.04
3.87700	100.05
3.89367	100.05
3.91033	100.05
3.92700	100.05
3.94367	100.05
3.96033	100.05
3.97700	100.05
3.99367	100.05

[Status Trace (Carrier Gas Pressure)]
Interval(msec)	1000
# of Points	240
Start Time(min)	0.010
End Time(min)	3.994
Intensity Units	
Intensity Multiplier	1
R.Time (min)	Intensity
0.01033	58.00
0.02700	55.11
0.04367	57.36
0.06033	59.46
0.07700	59.34
0.09367	58.04
0.11033	57.98
0.12700	58.01
0.14367	58.01
0.16033	58.01
0.17700	58.00
0.19367	58.00
0.21033	58.00
0.22700	58.00
0.24367	58.00
0.26033	58.00
0.27700	58.00
0.29367	58.00
0.31033	58.00
0.32700	58.00
0.34367	58.00
0.36033	58.00
0.37700	58.00
0.39367	58.00
0.41033	58.00
0.42700	58.00
0.44367	58.00
0.46033	58.00
0.47700	58.00
0.49367	58.00
0.51033	58.00
0.52700	58.00
0.54367	58.00
0.56033	58.00
0.57700	58.00
0.59367	58.00
0.61033	58.00
0.62700	58.00
0.64367	58.00
0.66033	58.00
0.67700	58.00
0.69367	58.00
0.71033	58.00
0.72700	58.00
0.74367	58.00
0.76033	58.00
0.77700	58.00
0.79367	58.00
0.81033	58.00
0.82700	58.00
0.84367	58.00
0.86033	58.00
0.87700	58.00
0.89367	58.00
0.91033	58.00
0.92700	58.00
0.94367	58.00
0.96033	58.00
0.97700	58.00
0.99367	58.00
1.01033	58.00
1.02700	58.00
1.04367	58.00
1.06033	58.00
1.07700	58.00
1.09367	58.00
1.11033	58.00
1.12700	58.00
1.14367	58.00
1.16033	58.00
1.17700	58.00
1.19367	58.00
1.21033	58.00
1.22700	58.00
1.24367	58.00
1.26033	58.00
1.27700	58.00
1.29367	58.00
1.31033	58.00
1.32700	58.00
1.34367	58.00
1.36033	58.00
1.37700	58.00
1.39367	58.00
1.41033	58.00
1.42700	58.00
1.44367	58.00
1.46033	58.00
1.47700	58.00
1.49367	58.00
1.51033	58.00
1.52700	58.00
1.54367	58.00
1.56033	58.00
1.57700	58.00
1.59367	58.00
1.61033	58.00
1.62700	58.00
1.64367	58.00
1.66033	58.01
1.67700	58.01
1.69367	58.00
1.71033	58.00
1.72700	58.00
1.74367	58.00
1.76033	58.00
1.77700	58.00
1.79367	58.00
1.81033	58.00
1.82700	58.00
1.84367	58.00
1.86033	58.00
1.87700	58.00
1.89367	58.00
1.91033	58.00
1.92700	58.00
1.94367	58.00
1.96033	58.00
1.97700	58.00
1.99367	58.00
2.01033	58.00
2.02700	58.00
2.04367	58.00
2.06033	58.00
2.07700	58.00
2.09367	58.00
2.11033	58.00
2.12700	58.00
2.14367	58.00
2.16033	58.00
2.17700	58.00
2.19367	58.00
2.21033	58.00
2.22700	58.00
2.24367	58.00
2.26033	58.00
2.27700	58.00
2.29367	58.00
2.31033	58.00
2.32700	58.00
2.34367	58.00
2.36033	58.00
2.37700	58.00
2.39367	57.99
2.41033	57.99
2.42700	58.00
2.44367	58.00
2.46033	58.00
2.47700	58.00
2.49367	58.00
2.51033	57.99
2.52700	57.98
2.54367	58.00
2.56033	58.00
2.57700	58.00
2.59367	58.00
2.61033	58.00
2.62700	58.00
2.64367	58.00
2.66033	58.00
2.67700	58.00
2.69367	58.00
2.71033	58.00
2.72700	58.00
2.74367	58.00
2.76033	58.00
2.77700	58.00
2.79367	58.00
2.81033	58.00
2.82700	58.00
2.84367	58.00
2.86033	58.00
2.87700	58.00
2.89367	58.00
2.91033	58.00
2.92700	58.00
2.94367	58.00
2.96033	58.00
2.97700	58.00
2.99367	58.00
3.01033	58.00
3.02700	58.00
3.04367	58.00
3.06033	58.00
3.07700	58.00
3.09367	58.00
3.11033	58.00
3.12700	58.00
3.14367	58.00
3.16033	58.00
3.17700	58.00
3.19367	58.00
3.21033	58.00
3.22700	58.00
3.24367	58.00
3.26033	58.00
3.27700	58.00
3.29367	58.00
3.31033	58.00
3.32700	58.00
3.34367	58.00
3.36033	58.00
3.37700	58.00
3.39367	58.00
3.41033	58.00
3.42700	58.00
3.44367	58.00
3.46033	58.00
3.47700	58.00
3.49367	58.00
3.51033	58.00
3.52700	58.00
3.54367	58.00
3.56033	58.00
3.57700	58.00
3.59367	58.00
3.61033	58.00
3.62700	58.00
3.64367	58.00
3.66033	58.00
3.67700	58.00
3.69367	58.00
3.71033	58.00
3.72700	58.00
3.74367	58.00
3.76033	58.00
3.77700	58.00
3.79367	58.00
3.81033	58.00
3.82700	58.00
3.84367	58.00
3.86033	58.00
3.87700	58.00
3.89367	58.00
3.91033	58.00
3.92700	58.00
3.94367	58.00
3.96033	58.00
3.97700	58.00
3.99367	58.00

[Status Trace (Carrier Gas Flow)]
Interval(msec)	1000
# of Points	240
Start Time(min)	0.010
End Time(min)	3.994
Intensity Units	
Intensity Multiplier	1
R.Time (min)	Intensity
0.01033	34.52
0.02700	34.54
0.04367	34.55
0.06033	34.54
0.07700	34.50
0.09367	34.52
0.11033	34.52
0.12700	34.52
0.14367	34.52
0.16033	34.52
0.17700	34.52
0.19367	34.52
0.21033	34.52
0.22700	34.52
0.24367	34.52
0.26033	34.52
0.27700	34.52
0.29367	34.52
0.31033	34.52
0.32700	34.52
0.34367	34.52
0.36033	34.52
0.37700	34.52
0.39367	34.52
0.41033	34.52
0.42700	34.52
0.44367	34.51
0.46033	34.51
0.47700	34.51
0.49367	34.52
0.51033	34.52
0.52700	34.53
0.54367	34.52
0.56033	34.51
0.57700	34.52
0.59367	34.52
0.61033	34.52
0.62700	34.52
0.64367	34.52
0.66033	34.52
0.67700	34.52
0.69367	34.52
0.71033	34.52
0.72700	34.52
0.74367	34.52
0.76033	34.52
0.77700	34.52
0.79367	34.52
0.81033	34.52
0.82700	34.52
0.84367	34.52
0.86033	34.52
0.87700	34.52
0.89367	34.52
0.91033	34.52
0.92700	34.52
0.94367	34.52
0.96033	34.52
0.97700	34.52
0.99367	34.52
1.01033	34.52
1.02700	34.52
1.04367	34.52
1.06033	34.52
1.07700	34.52
1.09367	34.52
1.11033	34.52
1.12700	34.52
1.14367	34.52
1.16033	34.52
1.17700	34.52
1.19367	34.52
1.21033	34.52
1.22700	34.52
1.24367	34.52
1.26033	34.52
1.27700	34.52
1.29367	34.52
1.31033	34.52
1.32700	34.52
1.34367	34.52
1.36033	34.52
1.37700	34.52
1.39367	34.52
1.41033	34.52
1.42700	34.52
1.44367	34.52
1.46033	34.52
1.47700	34.52
1.49367	34.52
1.51033	34.52
1.52700	34.52
1.54367	34.52
1.56033	34.52
1.57700	34.52
1.59367	34.52
1.61033	34.52
1.62700	34.52
1.64367	34.52
1.66033	34.52
1.67700	34.52
1.69367	34.52
1.71033	34.52
1.72700	34.52
1.74367	34.52
1.76033	34.52
1.77700	34.52
1.79367	34.52
1.81033	34.52
1.82700	34.52
1.84367	34.52
1.86033	34.52
1.87700	34.52
1.89367	34.52
1.91033	34.52
1.92700	34.52
1.94367	34.52
1.96033	34.52
1.97700	34.52
1.99367	34.52
2.01033	34.52
2.02700	34.52
2.04367	34.52
2.06033	34.52
2.07700	34.52
2.09367	34.52
2.11033	34.52
2.12700	34.52
2.14367	34.52
2.16033	34.52
2.17700	34.52
2.19367	34.52
2.21033	34.52
2.22700	34.52
2.24367	34.52
2.26033	34.52
2.27700	34.52
2.29367	34.52
2.31033	34.52
2.32700	34.52
2.34367	34.52
2.36033	34.52
2.37700	34.52
2.39367	34.52
2.41033	34.52
2.42700	34.52
2.44367	34.52
2.46033	34.52
2.47700	34.52
2.49367	34.52
2.51033	34.53
2.52700	34.52
2.54367	34.52
2.56033	34.52
2.57700	34.52
2.59367	34.52
2.61033	34.52
2.62700	34.52
2.64367	34.52
2.66033	34.52
2.67700	34.52
2.69367	34.52
2.71033	34.52
2.72700	34.52
2.74367	34.52
2.76033	34.52
2.77700	34.52
2.79367	34.52
2.81033	34.51
2.82700	34.52
2.84367	34.52
2.86033	34.52
2.87700	34.52
2.89367	34.53
2.91033	34.51
2.92700	34.52
2.94367	34.51
2.96033	34.52
2.97700	34.51
2.99367	34.52
3.01033	34.51
3.02700	34.52
3.04367	34.52
3.06033	34.53
3.07700	34.52
3.09367	34.52
3.11033	34.52
3.12700	34.52
3.14367	34.52
3.16033	34.51
3.17700	34.52
3.19367	34.52
3.21033	34.52
3.22700	34.51
3.24367	34.53
3.26033	34.52
3.27700	34.52
3.29367	34.51
3.31033	34.53
3.32700	34.52
3.34367	34.53
3.36033	34.52
3.37700	34.52
3.39367	34.52
3.41033	34.51
3.42700	34.53
3.44367	34.51
3.46033	34.52
3.47700	34.54
3.49367	34.52
3.51033	34.51
3.52700	34.53
3.54367	34.52
3.56033	34.51
3.57700	34.51
3.59367	34.52
3.61033	34.52
3.62700	34.52
3.64367	34.51
3.66033	34.52
3.67700	34.52
3.69367	34.52
3.71033	34.52
3.72700	34.52
3.74367	34.52
3.76033	34.52
3.77700	34.52
3.79367	34.52
3.81033	34.52
3.82700	34.52
3.84367	34.52
3.86033	34.52
3.87700	34.52
3.89367	34.52
3.91033	34.52
3.92700	34.52
3.94367	34.52
3.96033	34.52
3.97700	34.52
3.99367	34.52

[Status Trace (Column Flow)]
Interval(msec)	1000
# of Points	240
Start Time(min)	0.010
End Time(min)	3.994
Intensity Units	
Intensity Multiplier	1
R.Time (min)	Intensity
0.01033	5.49
0.02700	5.16
0.04367	5.42
0.06033	5.66
0.07700	5.65
0.09367	5.50
0.11033	5.49
0.12700	5.49
0.14367	5.49
0.16033	5.49
0.17700	5.49
0.19367	5.49
0.21033	5.49
0.22700	5.49
0.24367	5.49
0.26033	5.49
0.27700	5.49
0.29367	5.49
0.31033	5.49
0.32700	5.50
0.34367	5.50
0.36033	5.50
0.37700	5.49
0.39367	5.50
0.41033	5.49
0.42700	5.49
0.44367	5.49
0.46033	5.49
0.47700	5.49
0.49367	5.50
0.51033	5.49
0.52700	5.49
0.54367	5.49
0.56033	5.49
0.57700	5.49
0.59367	5.49
0.61033	5.49
0.62700	5.49
0.64367	5.49
0.66033	5.49
0.67700	5.49
0.69367	5.49
0.71033	5.49
0.72700	5.49
0.74367	5.49
0.76033	5.49
0.77700	5.49
0.79367	5.49
0.81033	5.49
0.82700	5.49
0.84367	5.49
0.86033	5.49
0.87700	5.49
0.89367	5.49
0.91033	5.49
0.92700	5.49
0.94367	5.49
0.96033	5.49
0.97700	5.49
0.99367	5.49
1.01033	5.49
1.02700	5.49
1.04367	5.49
1.06033	5.49
1.07700	5.49
1.09367	5.49
1.11033	5.49
1.12700	5.49
1.14367	5.49
1.16033	5.49
1.17700	5.49
1.19367	5.49
1.21033	5.49
1.22700	5.49
1.24367	5.49
1.26033	5.49
1.27700	5.49
1.29367	5.49
1.31033	5.49
1.32700	5.49
1.34367	5.49
1.36033	5.49
1.37700	5.49
1.39367	5.49
1.41033	5.49
1.42700	5.49
1.44367	5.49
1.46033	5.49
1.47700	5.49
1.49367	5.49
1.51033	5.49
1.52700	5.49
1.54367	5.49
1.56033	5.49
1.57700	5.49
1.59367	5.49
1.61033	5.49
1.62700	5.49
1.64367	5.48
1.66033	5.47
1.67700	5.46
1.69367	5.45
1.71033	5.44
1.72700	5.43
1.74367	5.42
1.76033	5.41
1.77700	5.40
1.79367	5.39
1.81033	5.38
1.82700	5.37
1.84367	5.36
1.86033	5.35
1.87700	5.34
1.89367	5.33
1.91033	5.32
1.92700	5.31
1.94367	5.30
1.96033	5.29
1.97700	5.28
1.99367	5.27
2.01033	5.26
2.02700	5.25
2.04367	5.24
2.06033	5.23
2.07700	5.22
2.09367	5.21
2.11033	5.20
2.12700	5.20
2.14367	5.19
2.16033	5.18
2.17700	5.17
2.19367	5.16
2.21033	5.15
2.22700	5.14
2.24367	5.13
2.26033	5.12
2.27700	5.11
2.29367	5.10
2.31033	5.09
2.32700	5.08
2.34367	5.07
2.36033	5.07
2.37700	5.06
2.39367	5.06
2.41033	5.06
2.42700	5.06
2.44367	5.06
2.46033	5.06
2.47700	5.06
2.49367	5.06
2.51033	5.06
2.52700	5.06
2.54367	5.06
2.56033	5.06
2.57700	5.06
2.59367	5.06
2.61033	5.06
2.62700	5.06
2.64367	5.06
2.66033	5.06
2.67700	5.06
2.69367	5.06
2.71033	5.06
2.72700	5.06
2.74367	5.06
2.76033	5.06
2.77700	5.06
2.79367	5.06
2.81033	5.06
2.82700	5.06
2.84367	5.06
2.86033	5.06
2.87700	5.06
2.89367	5.05
2.91033	5.05
2.92700	5.05
2.94367	5.05
2.96033	5.05
2.97700	5.05
2.99367	5.05
3.01033	5.05
3.02700	5.05
3.04367	5.05
3.06033	5.05
3.07700	5.05
3.09367	5.05
3.11033	5.05
3.12700	5.05
3.14367	5.05
3.16033	5.05
3.17700	5.05
3.19367	5.05
3.21033	5.05
3.22700	5.05
3.24367	5.05
3.26033	5.05
3.27700	5.05
3.29367	5.05
3.31033	5.05
3.32700	5.05
3.34367	5.05
3.36033	5.05
3.37700	5.05
3.39367	5.05
3.41033	5.05
3.42700	5.05
3.44367	5.05
3.46033	5.05
3.47700	5.05
3.49367	5.05
3.51033	5.05
3.52700	5.05
3.54367	5.05
3.56033	5.05
3.57700	5.05
3.59367	5.05
3.61033	5.05
3.62700	5.05
3.64367	5.05
3.66033	5.05
3.67700	5.05
3.69367	5.05
3.71033	5.05
3.72700	5.05
3.74367	5.05
3.76033	5.05
3.77700	5.05
3.79367	5.05
3.81033	5.05
3.82700	5.05
3.84367	5.05
3.86033	5.05
3.87700	5.05
3.89367	5.05
3.91033	5.05
3.92700	5.05
3.94367	5.05
3.96033	5.05
3.97700	5.05
3.99367	5.05

[Status Trace (Linear Velocity)]
Interval(msec)	1000
# of Points	240
Start Time(min)	0.010
End Time(min)	3.994
Intensity Units	
Intensity Multiplier	1
R.Time (min)	Intensity
0.01033	39.01
0.02700	37.11
0.04367	38.59
0.06033	39.96
0.07700	39.88
0.09367	39.03
0.11033	38.99
0.12700	39.01
0.14367	39.02
0.16033	39.01
0.17700	39.01
0.19367	39.01
0.21033	39.01
0.22700	39.01
0.24367	39.01
0.26033	39.01
0.27700	39.01
0.29367	39.01
0.31033	39.01
0.32700	39.02
0.34367	39.01
0.36033	39.01
0.37700	39.01
0.39367	39.01
0.41033	39.01
0.42700	39.01
0.44367	39.01
0.46033	39.01
0.47700	39.01
0.49367	39.01
0.51033	39.01
0.52700	39.01
0.54367	39.01
0.56033	39.01
0.57700	39.01
0.59367	39.01
0.61033	39.01
0.62700	39.01
0.64367	39.01
0.66033	39.01
0.67700	39.01
0.69367	39.01
0.71033	39.01
0.72700	39.01
0.74367	39.01
0.76033	39.01
0.77700	39.01
0.79367	39.01
0.81033	39.01
0.82700	39.01
0.84367	39.01
0.86033	39.01
0.87700	39.01
0.89367	39.01
0.91033	39.01
0.92700	39.01
0.94367	39.01
0.96033	39.01
0.97700	39.01
0.99367	39.01
1.01033	39.01
1.02700	39.01
1.04367	39.01
1.06033	39.01
1.07700	39.01
1.09367	39.01
1.11033	39.01
1.12700	39.01
1.14367	39.01
1.16033	39.01
1.17700	39.01
1.19367	39.01
1.21033	39.01
1.22700	39.01
1.24367	39.01
1.26033	39.01
1.27700	39.01
1.29367	39.01
1.31033	39.01
1.32700	39.01
1.34367	39.01
1.36033	39.01
1.37700	39.01
1.39367	39.01
1.41033	39.01
1.42700	39.01
1.44367	39.01
1.46033	39.01
1.47700	39.01
1.49367	39.01
1.51033	39.01
1.52700	39.01
1.54367	39.01
1.56033	39.01
1.57700	39.01
1.59367	39.01
1.61033	39.01
1.62700	39.00
1.64367	38.98
1.66033	38.95
1.67700	38.92
1.69367	38.88
1.71033	38.85
1.72700	38.82
1.74367	38.78
1.76033	38.75
1.77700	38.72
1.79367	38.69
1.81033	38.66
1.82700	38.63
1.84367	38.60
1.86033	38.56
1.87700	38.54
1.89367	38.50
1.91033	38.47
1.92700	38.44
1.94367	38.41
1.96033	38.38
1.97700	38.35
1.99367	38.32
2.01033	38.29
2.02700	38.26
2.04367	38.23
2.06033	38.20
2.07700	38.17
2.09367	38.14
2.11033	38.11
2.12700	38.08
2.14367	38.05
2.16033	38.02
2.17700	37.99
2.19367	37.96
2.21033	37.93
2.22700	37.90
2.24367	37.88
2.26033	37.84
2.27700	37.81
2.29367	37.79
2.31033	37.76
2.32700	37.73
2.34367	37.70
2.36033	37.67
2.37700	37.65
2.39367	37.65
2.41033	37.65
2.42700	37.65
2.44367	37.65
2.46033	37.65
2.47700	37.65
2.49367	37.65
2.51033	37.64
2.52700	37.64
2.54367	37.65
2.56033	37.65
2.57700	37.64
2.59367	37.64
2.61033	37.64
2.62700	37.64
2.64367	37.64
2.66033	37.64
2.67700	37.64
2.69367	37.64
2.71033	37.64
2.72700	37.64
2.74367	37.64
2.76033	37.64
2.77700	37.64
2.79367	37.63
2.81033	37.64
2.82700	37.64
2.84367	37.64
2.86033	37.64
2.87700	37.63
2.89367	37.63
2.91033	37.63
2.92700	37.63
2.94367	37.63
2.96033	37.63
2.97700	37.63
2.99367	37.63
3.01033	37.63
3.02700	37.62
3.04367	37.62
3.06033	37.62
3.07700	37.62
3.09367	37.62
3.11033	37.62
3.12700	37.62
3.14367	37.62
3.16033	37.62
3.17700	37.62
3.19367	37.62
3.21033	37.62
3.22700	37.62
3.24367	37.62
3.26033	37.62
3.27700	37.62
3.29367	37.62
3.31033	37.62
3.32700	37.62
3.34367	37.62
3.36033	37.62
3.37700	37.62
3.39367	37.62
3.41033	37.62
3.42700	37.62
3.44367	37.62
3.46033	37.62
3.47700	37.62
3.49367	37.62
3.51033	37.62
3.52700	37.62
3.54367	37.62
3.56033	37.62
3.57700	37.62
3.59367	37.62
3.61033	37.63
3.62700	37.63
3.64367	37.63
3.66033	37.63
3.67700	37.63
3.69367	37.63
3.71033	37.63
3.72700	37.63
3.74367	37.63
3.76033	37.63
3.77700	37.63
3.79367	37.62
3.81033	37.62
3.82700	37.62
3.84367	37.62
3.86033	37.62
3.87700	37.62
3.89367	37.62
3.91033	37.62
3.92700	37.62
3.94367	37.62
3.96033	37.62
3.97700	37.62
3.99367	37.62

