[Header]
Application Name	LabSolutions
Version	5.110
Data File Name	C:\Users\User\Desktop\GC Analyses\Jack\UIC Prairie Sampling\7.9.22\220909_089.gcd
Output Date	9/28/2022
Output Time	11:29:55 AM

[File Information]
Type	Data File
Generated	9/15/2022 3:22:26 PM
Generated by	System Administrator
Modified	9/15/2022 3:27:42 PM
Modified by	System Administrator

[Sample Information]
Operator Name	System Administrator
Acquired	9/15/2022 3:23:42 PM
Sample Type	1:Standard
Level	1
Sample Name	220909_Run
Sample ID	220909_Run
ISTD Amount1	1
ISTD Amount2	1
ISTD Amount3	1
ISTD Amount4	1
ISTD Amount5	1
ISTD Amount6	1
ISTD Amount7	1
ISTD Amount8	1
ISTD Amount9	1
ISTD Amount10	1
ISTD Amount11	1
ISTD Amount12	1
ISTD Amount13	1
ISTD Amount14	1
ISTD Amount15	1
ISTD Amount16	1
ISTD Amount17	1
ISTD Amount18	1
ISTD Amount19	1
ISTD Amount20	1
ISTD Amount21	1
ISTD Amount22	1
ISTD Amount23	1
ISTD Amount24	1
ISTD Amount25	1
ISTD Amount26	1
ISTD Amount27	1
ISTD Amount28	1
ISTD Amount29	1
ISTD Amount30	1
ISTD Amount31	1
ISTD Amount32	1
Sample Amount	1
Dilution Factor	1
Vial#	1
Injection Volume	1
Injection Count	1
Bar Code	

[Original Files]
Data File	C:\Users\User\Desktop\GC Analyses\Jack\220909\220909_089.gcd
Method File	C:\LabSolutions\Data\GHG_4min_2022\ghg3_togas_w_acet_4 min_new_int.gcm
Batch File	
Report Format File	c:\LabSolutions\System\DEFAULT.lsr

[File Description]


[Configuration]
Instrument Name	C0B7VH3-Instrument1
Instrument #	1
Line #	1
# of Detectors	3
Detector ID	DET#1	DET#2	DET#3
Detector Name	FID	PTCD	ECD
# of Channels	1	1	1

[Peak Table(Ch1)]
# of Peaks	3
Peak#	R.Time	I.Time	F.Time	Area	Height	A/H	Conc.	Mark	ID#	Name	k'	Plate #	Plate Ht.	Tailing	Resolution	Sep.Factor	Area Ratio	Height Ratio	Conc. %	Norm Conc.
1	1.476	1.435	1.538	20005	9081	2.203	100.000	   	1	CO	0.000	8533	17.579	1.185	0.000	0.000	0	0	16.667	16.667
2	1.571	1.538	1.622	4279	2153	1.987	100.000	 V 	2	CH4	0.065	11389	13.171	1.108	1.553	0.000	0	0	16.667	16.667
3	1.996	1.949	2.425	3448014	1680195	2.052	400.000	   	3	CO2	0.353	17527	8.558	1.217	7.136	5.462	0	0	66.667	66.667

[Peak Table(Ch2)]
# of Peaks	0

[Peak Table(Ch3)]
# of Peaks	2
Peak#	R.Time	I.Time	F.Time	Area	Height	A/H	Conc.	Mark	ID#	Name	k'	Plate #	Plate Ht.	Tailing	Resolution	Sep.Factor	Area Ratio	Height Ratio	Conc. %	Norm Conc.
1	2.576	1.941	2.656	9880	852	11.596	0.000	   			0.000	2363	63.473	0.000	0.000	0.000	0	0	0.000	0.000
2	2.880	2.656	3.877	44416	5866	7.571	1.000	 V 	1	N2O	0.118	10823	13.859	0.000	1.886	0.000	0	0	100.000	100.000

[Compound Results(Ch1)]
# of IDs	6
ID#	Name	R.Time	Area	Height	Conc.	Curve	3rd	2nd	1st	Constant	Area Ratio	Height Ratio	Conc. %	Norm Conc.
1	CO	1.476	20005	9081	100.000	Linear	0.000000e+00	0.000000e+00	2.000516e+002	0.000000e+00	0	0	16.667	16.667
2	CH4	1.571	4279	2153	100.000	Linear	0.000000e+00	0.000000e+00	4.278798e+001	0.000000e+00	0	0	16.667	16.667
3	CO2	1.996	3448014	1680195	400.000	Linear	0.000000e+00	0.000000e+00	8.620036e+003	0.000000e+00	0	0	66.667	66.667
4	Ethylene	0.000	0	0	0.000	Linear	0.000000e+00	0.000000e+00	0.000000e+00	0.000000e+00	0	0	0.000	0.000
5	Acetylene	0.000	0	0	0.000	Linear	0.000000e+00	0.000000e+00	0.000000e+00	0.000000e+00	0	0	0.000	0.000
6	Ethane	0.000	0	0	0.000	Linear	0.000000e+00	0.000000e+00	0.000000e+00	0.000000e+00	0	0	0.000	0.000

[Compound Results(Ch2)]
# of IDs	5
ID#	Name	R.Time	Area	Height	Conc.	Curve	3rd	2nd	1st	Constant	Area Ratio	Height Ratio	Conc. %	Norm Conc.
1	Hydrogen	0.000	0	0	0.000	Linear	0.000000e+00	0.000000e+00	0.000000e+00	0.000000e+00	0	0	0.000	0.000
2	Oxygen	0.000	0	0	0.000	Linear	0.000000e+00	0.000000e+00	0.000000e+00	0.000000e+00	0	0	0.000	0.000
3	Nitrogen	0.000	0	0	0.000	Linear	0.000000e+00	0.000000e+00	0.000000e+00	0.000000e+00	0	0	0.000	0.000
4	Methane	0.000	0	0	0.000	Linear	0.000000e+00	0.000000e+00	0.000000e+00	0.000000e+00	0	0	0.000	0.000
5	Carbon Monoxide	0.000	0	0	0.000	Linear	0.000000e+00	0.000000e+00	0.000000e+00	0.000000e+00	0	0	0.000	0.000

[Compound Results(Ch3)]
# of IDs	2
ID#	Name	R.Time	Area	Height	Conc.	Curve	3rd	2nd	1st	Constant	Area Ratio	Height Ratio	Conc. %	Norm Conc.
1	N2O	2.880	44416	5866	1.000	Linear	0.000000e+00	0.000000e+00	4.441552e+004	0.000000e+00	0	0	100.000	100.000
2	SF6	0.000	0	0	0.000	Linear	0.000000e+00	0.000000e+00	0.000000e+00	0.000000e+00	0	0	0.000	0.000

[Group Results(Ch1)]
# of Groups	0

[Group Results(Ch2)]
# of Groups	0

[Group Results(Ch3)]
# of Groups	0

[Chromatogram (Ch1)]
Interval(msec)	220
# of Points	1091
Start Time(min)	0.002
End Time(min)	3.998
R.Time (min)	Intensity
0.00167	-50
0.00533	-47
0.00900	-39
0.01267	-30
0.01633	-24
0.02000	-23
0.02367	-25
0.02733	-27
0.03100	-28
0.03467	-29
0.03833	-27
0.04200	-27
0.04567	-30
0.04933	-34
0.05300	-36
0.05667	-32
0.06033	-26
0.06400	-20
0.06767	-16
0.07133	-13
0.07500	-13
0.07867	-17
0.08233	-23
0.08600	-29
0.08967	-33
0.09333	-32
0.09700	-27
0.10067	-19
0.10433	-16
0.10800	-19
0.11167	-24
0.11533	-28
0.11900	-30
0.12267	-32
0.12633	-34
0.13000	-33
0.13367	-33
0.13733	-34
0.14100	-35
0.14467	-36
0.14833	-36
0.15200	-36
0.15567	-35
0.15933	-36
0.16300	-39
0.16667	-40
0.17033	-42
0.17400	-45
0.17767	-47
0.18133	-48
0.18500	-49
0.18867	-52
0.19233	-50
0.19600	-46
0.19967	-42
0.20333	-39
0.20700	-38
0.21067	-40
0.21433	-44
0.21800	-50
0.22167	-53
0.22533	-54
0.22900	-53
0.23267	-48
0.23633	-44
0.24000	-39
0.24367	-37
0.24733	-37
0.25100	-40
0.25467	-43
0.25833	-43
0.26200	-41
0.26567	-40
0.26933	-38
0.27300	-34
0.27667	-29
0.28033	-28
0.28400	-30
0.28767	-32
0.29133	-33
0.29500	-33
0.29867	-32
0.30233	-33
0.30600	-36
0.30967	-36
0.31333	-37
0.31700	-38
0.32067	-39
0.32433	-41
0.32800	-42
0.33167	-40
0.33533	-38
0.33900	-38
0.34267	-40
0.34633	-42
0.35000	-39
0.35367	-35
0.35733	-37
0.36100	-43
0.36467	-49
0.36833	-53
0.37200	-56
0.37567	-57
0.37933	-56
0.38300	-57
0.38667	-57
0.39033	-56
0.39400	-56
0.39767	-55
0.40133	-56
0.40500	-58
0.40867	-61
0.41233	-62
0.41600	-59
0.41967	-54
0.42333	-46
0.42700	-40
0.43067	-36
0.43433	-31
0.43800	-27
0.44167	-26
0.44533	-31
0.44900	-42
0.45267	-55
0.45633	-66
0.46000	-72
0.46367	-73
0.46733	-70
0.47100	-66
0.47467	-63
0.47833	-62
0.48200	-63
0.48567	-61
0.48933	-57
0.49300	-54
0.49667	-55
0.50033	-56
0.50400	-59
0.50767	-60
0.51133	-59
0.51500	-55
0.51867	-49
0.52233	-48
0.52600	-54
0.52967	-59
0.53333	-64
0.53700	-68
0.54067	-69
0.54433	-63
0.54800	-56
0.55167	-52
0.55533	-50
0.55900	-48
0.56267	-50
0.56633	-57
0.57000	-62
0.57367	-60
0.57733	-55
0.58100	-48
0.58467	-44
0.58833	-44
0.59200	-44
0.59567	-48
0.59933	-53
0.60300	-58
0.60667	-62
0.61033	-64
0.61400	-64
0.61767	-63
0.62133	-65
0.62500	-70
0.62867	-72
0.63233	-73
0.63600	-73
0.63967	-73
0.64333	-76
0.64700	-79
0.65067	-79
0.65433	-75
0.65800	-70
0.66167	-67
0.66533	-67
0.66900	-70
0.67267	-75
0.67633	-78
0.68000	-77
0.68367	-76
0.68733	-76
0.69100	-76
0.69467	-77
0.69833	-77
0.70200	-75
0.70567	-72
0.70933	-67
0.71300	-62
0.71667	-59
0.72033	-58
0.72400	-59
0.72767	-59
0.73133	-57
0.73500	-54
0.73867	-51
0.74233	-50
0.74600	-53
0.74967	-55
0.75333	-58
0.75700	-60
0.76067	-63
0.76433	-64
0.76800	-64
0.77167	-64
0.77533	-64
0.77900	-66
0.78267	-68
0.78633	-71
0.79000	-74
0.79367	-75
0.79733	-71
0.80100	-65
0.80467	-59
0.80833	-56
0.81200	-54
0.81567	-55
0.81933	-58
0.82300	-59
0.82667	-59
0.83033	-59
0.83400	-59
0.83767	-60
0.84133	-61
0.84500	-61
0.84867	-63
0.85233	-66
0.85600	-68
0.85967	-70
0.86333	-75
0.86700	-77
0.87067	-80
0.87433	-78
0.87800	-71
0.88167	-64
0.88533	-56
0.88900	-53
0.89267	-56
0.89633	-61
0.90000	-65
0.90367	-70
0.90733	-74
0.91100	-76
0.91467	-80
0.91833	-84
0.92200	-88
0.92567	-93
0.92933	-100
0.93300	-102
0.93667	-96
0.94033	-89
0.94400	-88
0.94767	-92
0.95133	-97
0.95500	-97
0.95867	-95
0.96233	-92
0.96600	-85
0.96967	-76
0.97333	-68
0.97700	-71
0.98067	-80
0.98433	-86
0.98800	-87
0.99167	-87
0.99533	-91
0.99900	-94
1.00267	-96
1.00633	-95
1.01000	-92
1.01367	-90
1.01733	-90
1.02100	-91
1.02467	-94
1.02833	-97
1.03200	-98
1.03567	-95
1.03933	-89
1.04300	-83
1.04667	-83
1.05033	-83
1.05400	-81
1.05767	-81
1.06133	-81
1.06500	-82
1.06867	-82
1.07233	-82
1.07600	-85
1.07967	-87
1.08333	-86
1.08700	-87
1.09067	-94
1.09433	-105
1.09800	-112
1.10167	-114
1.10533	-111
1.10900	-104
1.11267	-96
1.11633	-89
1.12000	-86
1.12367	-88
1.12733	-93
1.13100	-95
1.13467	-94
1.13833	-96
1.14200	-99
1.14567	-102
1.14933	-103
1.15300	-103
1.15667	-101
1.16033	-96
1.16400	-90
1.16767	-82
1.17133	-76
1.17500	-74
1.17867	-75
1.18233	-78
1.18600	-80
1.18967	-81
1.19333	-81
1.19700	-83
1.20067	-83
1.20433	-81
1.20800	-81
1.21167	-85
1.21533	-90
1.21900	-96
1.22267	-102
1.22633	-111
1.23000	-118
1.23367	-122
1.23733	-122
1.24100	-115
1.24467	-104
1.24833	-98
1.25200	-97
1.25567	-101
1.25933	-105
1.26300	-107
1.26667	-108
1.27033	-106
1.27400	-105
1.27767	-103
1.28133	-99
1.28500	-96
1.28867	-95
1.29233	-96
1.29600	-98
1.29967	-99
1.30333	-98
1.30700	-94
1.31067	-93
1.31433	-98
1.31800	-104
1.32167	-107
1.32533	-106
1.32900	-101
1.33267	-95
1.33633	-93
1.34000	-98
1.34367	-103
1.34733	-104
1.35100	-102
1.35467	-97
1.35833	-91
1.36200	-86
1.36567	-90
1.36933	-99
1.37300	-106
1.37667	-109
1.38033	-108
1.38400	-105
1.38767	-102
1.39133	-102
1.39500	-104
1.39867	-104
1.40233	-100
1.40600	-95
1.40967	-87
1.41333	-80
1.41700	-76
1.42067	-78
1.42433	-84
1.42800	-93
1.43167	-101
1.43533	-101
1.43900	-69
1.44267	87
1.44633	505
1.45000	1271
1.45367	2467
1.45733	4035
1.46100	5695
1.46467	7150
1.46833	8228
1.47200	8849
1.47567	8971
1.47933	8575
1.48300	7701
1.48667	6499
1.49033	5182
1.49400	3942
1.49767	2892
1.50133	2060
1.50500	1433
1.50867	975
1.51233	645
1.51600	411
1.51967	244
1.52333	126
1.52700	43
1.53067	-11
1.53433	-47
1.53800	-62
1.54167	-22
1.54533	131
1.54900	427
1.55267	826
1.55633	1241
1.56000	1601
1.56367	1869
1.56733	2020
1.57100	2021
1.57467	1856
1.57833	1560
1.58200	1206
1.58567	868
1.58933	584
1.59300	365
1.59667	203
1.60033	87
1.60400	6
1.60767	-50
1.61133	-87
1.61500	-113
1.61867	-133
1.62233	-144
1.62600	-148
1.62967	-145
1.63333	-139
1.63700	-132
1.64067	-129
1.64433	-127
1.64800	-126
1.65167	-128
1.65533	-131
1.65900	-132
1.66267	-131
1.66633	-128
1.67000	-124
1.67367	-118
1.67733	-114
1.68100	-114
1.68467	-113
1.68833	-115
1.69200	-119
1.69567	-123
1.69933	-123
1.70300	-123
1.70667	-123
1.71033	-120
1.71400	-115
1.71767	-112
1.72133	-113
1.72500	-119
1.72867	-128
1.73233	-135
1.73600	-136
1.73967	-137
1.74333	-137
1.74700	-138
1.75067	-137
1.75433	-134
1.75800	-127
1.76167	-120
1.76533	-114
1.76900	-108
1.77267	-103
1.77633	-107
1.78000	-113
1.78367	-118
1.78733	-118
1.79100	-111
1.79467	-107
1.79833	-106
1.80200	-111
1.80567	-119
1.80933	-116
1.81300	-110
1.81667	-108
1.82033	-105
1.82400	-102
1.82767	-98
1.83133	-96
1.83500	-97
1.83867	-97
1.84233	-96
1.84600	-97
1.84967	-100
1.85333	-103
1.85700	-105
1.86067	-106
1.86433	-105
1.86800	-98
1.87167	-90
1.87533	-86
1.87900	-85
1.88267	-86
1.88633	-88
1.89000	-90
1.89367	-89
1.89733	-85
1.90100	-83
1.90467	-84
1.90833	-85
1.91200	-86
1.91567	-85
1.91933	-83
1.92300	-76
1.92667	-71
1.93033	-69
1.93400	-67
1.93767	-69
1.94133	-76
1.94500	-84
1.94867	-83
1.95233	-34
1.95600	333
1.95967	2501
1.96333	12222
1.96700	45458
1.97067	132461
1.97433	306219
1.97800	573576
1.98167	898145
1.98533	1218347
1.98900	1477174
1.99267	1636945
1.99633	1680134
2.00000	1607757
2.00367	1439502
2.00733	1210328
2.01100	960533
2.01467	724788
2.01833	524808
2.02200	368323
2.02567	252977
2.02933	171522
2.03300	115698
2.03667	78188
2.04033	53269
2.04400	36798
2.04767	25907
2.05133	18655
2.05500	13770
2.05867	10432
2.06233	8118
2.06600	6475
2.06967	5280
2.07333	4391
2.07700	3716
2.08067	3195
2.08433	2778
2.08800	2444
2.09167	2175
2.09533	1954
2.09900	1772
2.10267	1617
2.10633	1486
2.11000	1375
2.11367	1281
2.11733	1201
2.12100	1126
2.12467	1057
2.12833	994
2.13200	942
2.13567	895
2.13933	851
2.14300	810
2.14667	770
2.15033	731
2.15400	695
2.15767	667
2.16133	644
2.16500	626
2.16867	604
2.17233	576
2.17600	545
2.17967	518
2.18333	500
2.18700	487
2.19067	475
2.19433	462
2.19800	449
2.20167	435
2.20533	424
2.20900	411
2.21267	398
2.21633	385
2.22000	374
2.22367	363
2.22733	351
2.23100	343
2.23467	342
2.23833	342
2.24200	339
2.24567	330
2.24933	315
2.25300	301
2.25667	289
2.26033	279
2.26400	275
2.26767	271
2.27133	266
2.27500	262
2.27867	258
2.28233	253
2.28600	248
2.28967	243
2.29333	238
2.29700	236
2.30067	232
2.30433	229
2.30800	228
2.31167	227
2.31533	222
2.31900	214
2.32267	205
2.32633	196
2.33000	193
2.33367	193
2.33733	191
2.34100	189
2.34467	188
2.34833	186
2.35200	182
2.35567	178
2.35933	171
2.36300	164
2.36667	161
2.37033	159
2.37400	157
2.37767	156
2.38133	154
2.38500	152
2.38867	149
2.39233	145
2.39600	139
2.39967	136
2.40333	135
2.40700	139
2.41067	142
2.41433	143
2.41800	140
2.42167	134
2.42533	131
2.42900	133
2.43267	131
2.43633	127
2.44000	124
2.44367	120
2.44733	113
2.45100	112
2.45467	113
2.45833	111
2.46200	105
2.46567	101
2.46933	98
2.47300	94
2.47667	90
2.48033	90
2.48400	90
2.48767	92
2.49133	97
2.49500	97
2.49867	95
2.50233	92
2.50600	90
2.50967	86
2.51333	83
2.51700	81
2.52067	80
2.52433	83
2.52800	86
2.53167	90
2.53533	94
2.53900	96
2.54267	97
2.54633	91
2.55000	78
2.55367	63
2.55733	51
2.56100	45
2.56467	40
2.56833	37
2.57200	39
2.57567	42
2.57933	43
2.58300	47
2.58667	52
2.59033	55
2.59400	57
2.59767	56
2.60133	52
2.60500	45
2.60867	38
2.61233	37
2.61600	35
2.61967	32
2.62333	30
2.62700	30
2.63067	33
2.63433	37
2.63800	42
2.64167	48
2.64533	50
2.64900	48
2.65267	42
2.65633	37
2.66000	35
2.66367	34
2.66733	35
2.67100	35
2.67467	35
2.67833	34
2.68200	32
2.68567	28
2.68933	24
2.69300	19
2.69667	15
2.70033	14
2.70400	16
2.70767	21
2.71133	21
2.71500	17
2.71867	12
2.72233	10
2.72600	8
2.72967	7
2.73333	7
2.73700	5
2.74067	4
2.74433	3
2.74800	3
2.75167	5
2.75533	7
2.75900	6
2.76267	5
2.76633	5
2.77000	7
2.77367	9
2.77733	13
2.78100	17
2.78467	19
2.78833	17
2.79200	16
2.79567	13
2.79933	9
2.80300	3
2.80667	-0
2.81033	-1
2.81400	-0
2.81767	2
2.82133	3
2.82500	3
2.82867	1
2.83233	-1
2.83600	-4
2.83967	-4
2.84333	-7
2.84700	-11
2.85067	-13
2.85433	-11
2.85800	-7
2.86167	-4
2.86533	-3
2.86900	-3
2.87267	-4
2.87633	-6
2.88000	-8
2.88367	-10
2.88733	-12
2.89100	-15
2.89467	-18
2.89833	-20
2.90200	-22
2.90567	-21
2.90933	-17
2.91300	-14
2.91667	-12
2.92033	-10
2.92400	-6
2.92767	-2
2.93133	1
2.93500	2
2.93867	-0
2.94233	-6
2.94600	-10
2.94967	-15
2.95333	-20
2.95700	-20
2.96067	-17
2.96433	-15
2.96800	-19
2.97167	-22
2.97533	-22
2.97900	-20
2.98267	-17
2.98633	-17
2.99000	-21
2.99367	-26
2.99733	-28
3.00100	-25
3.00467	-22
3.00833	-17
3.01200	-13
3.01567	-11
3.01933	-10
3.02300	-8
3.02667	-5
3.03033	-4
3.03400	-5
3.03767	-4
3.04133	-2
3.04500	-1
3.04867	-2
3.05233	-5
3.05600	-7
3.05967	-14
3.06333	-20
3.06700	-24
3.07067	-26
3.07433	-26
3.07800	-24
3.08167	-21
3.08533	-20
3.08900	-21
3.09267	-20
3.09633	-19
3.10000	-18
3.10367	-20
3.10733	-19
3.11100	-17
3.11467	-17
3.11833	-18
3.12200	-18
3.12567	-19
3.12933	-18
3.13300	-15
3.13667	-15
3.14033	-18
3.14400	-23
3.14767	-29
3.15133	-34
3.15500	-41
3.15867	-47
3.16233	-50
3.16600	-45
3.16967	-39
3.17333	-33
3.17700	-32
3.18067	-36
3.18433	-40
3.18800	-42
3.19167	-38
3.19533	-33
3.19900	-29
3.20267	-24
3.20633	-18
3.21000	-14
3.21367	-12
3.21733	-10
3.22100	-13
3.22467	-20
3.22833	-28
3.23200	-37
3.23567	-45
3.23933	-46
3.24300	-41
3.24667	-37
3.25033	-35
3.25400	-33
3.25767	-30
3.26133	-32
3.26500	-35
3.26867	-36
3.27233	-40
3.27600	-43
3.27967	-39
3.28333	-32
3.28700	-27
3.29067	-20
3.29433	-12
3.29800	-9
3.30167	-12
3.30533	-18
3.30900	-26
3.31267	-34
3.31633	-39
3.32000	-41
3.32367	-43
3.32733	-44
3.33100	-45
3.33467	-42
3.33833	-38
3.34200	-37
3.34567	-38
3.34933	-41
3.35300	-43
3.35667	-41
3.36033	-38
3.36400	-35
3.36767	-35
3.37133	-38
3.37500	-41
3.37867	-42
3.38233	-44
3.38600	-46
3.38967	-45
3.39333	-37
3.39700	-25
3.40067	-16
3.40433	-15
3.40800	-20
3.41167	-26
3.41533	-33
3.41900	-37
3.42267	-40
3.42633	-42
3.43000	-42
3.43367	-40
3.43733	-37
3.44100	-35
3.44467	-33
3.44833	-34
3.45200	-34
3.45567	-35
3.45933	-37
3.46300	-40
3.46667	-46
3.47033	-52
3.47400	-57
3.47767	-56
3.48133	-52
3.48500	-49
3.48867	-53
3.49233	-56
3.49600	-56
3.49967	-53
3.50333	-49
3.50700	-44
3.51067	-39
3.51433	-34
3.51800	-30
3.52167	-24
3.52533	-19
3.52900	-15
3.53267	-14
3.53633	-16
3.54000	-21
3.54367	-28
3.54733	-32
3.55100	-32
3.55467	-28
3.55833	-21
3.56200	-16
3.56567	-18
3.56933	-22
3.57300	-24
3.57667	-24
3.58033	-27
3.58400	-35
3.58767	-44
3.59133	-52
3.59500	-57
3.59867	-61
3.60233	-61
3.60600	-60
3.60967	-58
3.61333	-57
3.61700	-53
3.62067	-51
3.62433	-50
3.62800	-49
3.63167	-46
3.63533	-42
3.63900	-41
3.64267	-42
3.64633	-43
3.65000	-47
3.65367	-51
3.65733	-49
3.66100	-46
3.66467	-44
3.66833	-43
3.67200	-43
3.67567	-45
3.67933	-47
3.68300	-49
3.68667	-46
3.69033	-40
3.69400	-37
3.69767	-34
3.70133	-34
3.70500	-35
3.70867	-39
3.71233	-42
3.71600	-44
3.71967	-44
3.72333	-47
3.72700	-51
3.73067	-53
3.73433	-50
3.73800	-47
3.74167	-46
3.74533	-47
3.74900	-46
3.75267	-43
3.75633	-42
3.76000	-43
3.76367	-46
3.76733	-46
3.77100	-41
3.77467	-38
3.77833	-38
3.78200	-39
3.78567	-36
3.78933	-32
3.79300	-28
3.79667	-29
3.80033	-33
3.80400	-42
3.80767	-49
3.81133	-50
3.81500	-43
3.81867	-36
3.82233	-30
3.82600	-26
3.82967	-22
3.83333	-22
3.83700	-25
3.84067	-26
3.84433	-23
3.84800	-18
3.85167	-18
3.85533	-20
3.85900	-21
3.86267	-21
3.86633	-22
3.87000	-23
3.87367	-23
3.87733	-22
3.88100	-23
3.88467	-25
3.88833	-27
3.89200	-28
3.89567	-29
3.89933	-30
3.90300	-29
3.90667	-32
3.91033	-33
3.91400	-31
3.91767	-27
3.92133	-27
3.92500	-33
3.92867	-38
3.93233	-38
3.93600	-38
3.93967	-36
3.94333	-34
3.94700	-33
3.95067	-37
3.95433	-42
3.95800	-43
3.96167	-39
3.96533	-34
3.96900	-34
3.97267	-38
3.97633	-41
3.98000	-44
3.98367	-45
3.98733	-44
3.99100	-43
3.99467	-39
3.99833	-37

[Chromatogram (Ch2)]
Interval(msec)	220
# of Points	1091
Start Time(min)	0.002
End Time(min)	3.998
R.Time (min)	Intensity
0.00167	1
0.00533	2
0.00900	2
0.01267	2
0.01633	2
0.02000	2
0.02367	2
0.02733	2
0.03100	2
0.03467	2
0.03833	2
0.04200	2
0.04567	3
0.04933	3
0.05300	3
0.05667	3
0.06033	4
0.06400	4
0.06767	4
0.07133	4
0.07500	4
0.07867	4
0.08233	4
0.08600	5
0.08967	5
0.09333	5
0.09700	5
0.10067	5
0.10433	5
0.10800	5
0.11167	5
0.11533	5
0.11900	5
0.12267	5
0.12633	5
0.13000	5
0.13367	5
0.13733	5
0.14100	4
0.14467	4
0.14833	4
0.15200	4
0.15567	3
0.15933	2
0.16300	2
0.16667	1
0.17033	1
0.17400	0
0.17767	0
0.18133	-0
0.18500	-0
0.18867	-0
0.19233	0
0.19600	0
0.19967	1
0.20333	1
0.20700	1
0.21067	1
0.21433	0
0.21800	0
0.22167	-0
0.22533	-0
0.22900	-1
0.23267	-1
0.23633	-1
0.24000	-1
0.24367	-1
0.24733	-1
0.25100	-1
0.25467	-2
0.25833	-2
0.26200	-2
0.26567	-2
0.26933	-1
0.27300	-1
0.27667	-1
0.28033	-0
0.28400	0
0.28767	0
0.29133	1
0.29500	1
0.29867	1
0.30233	1
0.30600	1
0.30967	1
0.31333	1
0.31700	1
0.32067	1
0.32433	1
0.32800	1
0.33167	1
0.33533	1
0.33900	0
0.34267	-0
0.34633	-0
0.35000	-0
0.35367	-0
0.35733	-0
0.36100	-0
0.36467	-0
0.36833	-0
0.37200	-0
0.37567	-0
0.37933	-0
0.38300	-0
0.38667	-0
0.39033	-0
0.39400	-0
0.39767	-0
0.40133	0
0.40500	0
0.40867	0
0.41233	0
0.41600	0
0.41967	0
0.42333	0
0.42700	0
0.43067	0
0.43433	-0
0.43800	-0
0.44167	-1
0.44533	-1
0.44900	-2
0.45267	-2
0.45633	-2
0.46000	-3
0.46367	-3
0.46733	-3
0.47100	-3
0.47467	-3
0.47833	-3
0.48200	-3
0.48567	-2
0.48933	-2
0.49300	-2
0.49667	-2
0.50033	-2
0.50400	-2
0.50767	-2
0.51133	-2
0.51500	-2
0.51867	-2
0.52233	-2
0.52600	-2
0.52967	-2
0.53333	-2
0.53700	-1
0.54067	-1
0.54433	-1
0.54800	-0
0.55167	0
0.55533	1
0.55900	1
0.56267	2
0.56633	3
0.57000	3
0.57367	4
0.57733	4
0.58100	4
0.58467	4
0.58833	4
0.59200	4
0.59567	4
0.59933	4
0.60300	4
0.60667	3
0.61033	3
0.61400	3
0.61767	3
0.62133	3
0.62500	2
0.62867	2
0.63233	2
0.63600	2
0.63967	2
0.64333	2
0.64700	3
0.65067	3
0.65433	3
0.65800	2
0.66167	2
0.66533	2
0.66900	2
0.67267	2
0.67633	2
0.68000	2
0.68367	2
0.68733	2
0.69100	2
0.69467	2
0.69833	2
0.70200	1
0.70567	1
0.70933	1
0.71300	1
0.71667	1
0.72033	1
0.72400	1
0.72767	0
0.73133	0
0.73500	-0
0.73867	-1
0.74233	-1
0.74600	-1
0.74967	-1
0.75333	-1
0.75700	-1
0.76067	-1
0.76433	-2
0.76800	-2
0.77167	-1
0.77533	-1
0.77900	-1
0.78267	-1
0.78633	-1
0.79000	-2
0.79367	-2
0.79733	-2
0.80100	-2
0.80467	-1
0.80833	-1
0.81200	-1
0.81567	-1
0.81933	-1
0.82300	-1
0.82667	-1
0.83033	-1
0.83400	-1
0.83767	-0
0.84133	-0
0.84500	-0
0.84867	-1
0.85233	-1
0.85600	-1
0.85967	-1
0.86333	-1
0.86700	-1
0.87067	-1
0.87433	-1
0.87800	-1
0.88167	-1
0.88533	-1
0.88900	-1
0.89267	-1
0.89633	-1
0.90000	-1
0.90367	-1
0.90733	-1
0.91100	-1
0.91467	-1
0.91833	-1
0.92200	-1
0.92567	-1
0.92933	-1
0.93300	-1
0.93667	-1
0.94033	-1
0.94400	-1
0.94767	-1
0.95133	-1
0.95500	-1
0.95867	-0
0.96233	-0
0.96600	-0
0.96967	0
0.97333	0
0.97700	0
0.98067	0
0.98433	1
0.98800	1
0.99167	1
0.99533	1
0.99900	0
1.00267	0
1.00633	0
1.01000	0
1.01367	0
1.01733	-0
1.02100	-0
1.02467	-0
1.02833	-0
1.03200	-0
1.03567	-0
1.03933	-0
1.04300	-0
1.04667	-0
1.05033	-0
1.05400	-0
1.05767	-0
1.06133	-0
1.06500	-0
1.06867	-0
1.07233	-0
1.07600	-0
1.07967	-0
1.08333	0
1.08700	0
1.09067	0
1.09433	0
1.09800	0
1.10167	0
1.10533	0
1.10900	0
1.11267	0
1.11633	0
1.12000	-0
1.12367	-0
1.12733	-1
1.13100	-1
1.13467	-1
1.13833	-1
1.14200	-2
1.14567	-2
1.14933	-2
1.15300	-2
1.15667	-2
1.16033	-2
1.16400	-1
1.16767	-1
1.17133	-1
1.17500	-1
1.17867	-1
1.18233	-1
1.18600	-0
1.18967	-0
1.19333	-0
1.19700	0
1.20067	0
1.20433	0
1.20800	0
1.21167	-0
1.21533	-0
1.21900	-0
1.22267	-0
1.22633	-1
1.23000	-1
1.23367	-1
1.23733	-1
1.24100	-1
1.24467	-1
1.24833	-1
1.25200	-1
1.25567	-1
1.25933	-1
1.26300	-1
1.26667	-1
1.27033	-1
1.27400	-0
1.27767	-0
1.28133	-0
1.28500	-0
1.28867	-0
1.29233	-0
1.29600	-0
1.29967	-0
1.30333	-0
1.30700	-1
1.31067	-1
1.31433	-1
1.31800	-1
1.32167	-2
1.32533	-2
1.32900	-2
1.33267	-2
1.33633	-2
1.34000	-2
1.34367	-2
1.34733	-2
1.35100	-2
1.35467	-2
1.35833	-2
1.36200	-2
1.36567	-2
1.36933	-2
1.37300	-2
1.37667	-2
1.38033	-1
1.38400	-1
1.38767	-1
1.39133	-1
1.39500	-1
1.39867	-1
1.40233	-0
1.40600	-0
1.40967	0
1.41333	-0
1.41700	0
1.42067	-0
1.42433	-0
1.42800	-0
1.43167	-1
1.43533	-1
1.43900	-1
1.44267	-1
1.44633	-1
1.45000	-1
1.45367	-1
1.45733	-1
1.46100	-1
1.46467	-1
1.46833	-0
1.47200	-0
1.47567	-0
1.47933	-1
1.48300	-1
1.48667	-1
1.49033	-1
1.49400	-1
1.49767	-1
1.50133	-1
1.50500	-1
1.50867	-1
1.51233	-1
1.51600	-1
1.51967	-1
1.52333	-1
1.52700	-1
1.53067	-1
1.53433	-1
1.53800	-1
1.54167	-1
1.54533	-1
1.54900	-1
1.55267	-1
1.55633	-1
1.56000	-1
1.56367	-1
1.56733	-1
1.57100	-1
1.57467	-1
1.57833	-1
1.58200	-1
1.58567	-1
1.58933	-1
1.59300	-2
1.59667	-2
1.60033	-3
1.60400	-4
1.60767	-5
1.61133	-7
1.61500	-9
1.61867	-11
1.62233	-13
1.62600	-16
1.62967	-19
1.63333	-22
1.63700	-26
1.64067	-29
1.64433	-33
1.64800	-37
1.65167	-40
1.65533	-44
1.65900	-48
1.66267	-52
1.66633	-57
1.67000	-62
1.67367	-67
1.67733	-72
1.68100	-77
1.68467	-82
1.68833	-87
1.69200	-91
1.69567	-95
1.69933	-98
1.70300	-101
1.70667	-103
1.71033	-105
1.71400	-107
1.71767	-108
1.72133	-109
1.72500	-110
1.72867	-111
1.73233	-112
1.73600	-113
1.73967	-113
1.74333	-113
1.74700	-113
1.75067	-113
1.75433	-114
1.75800	-114
1.76167	-115
1.76533	-116
1.76900	-118
1.77267	-119
1.77633	-120
1.78000	-121
1.78367	-122
1.78733	-122
1.79100	-122
1.79467	-122
1.79833	-122
1.80200	-122
1.80567	-122
1.80933	-122
1.81300	-122
1.81667	-122
1.82033	-122
1.82400	-123
1.82767	-123
1.83133	-124
1.83500	-124
1.83867	-123
1.84233	-123
1.84600	-123
1.84967	-123
1.85333	-122
1.85700	-122
1.86067	-123
1.86433	-123
1.86800	-123
1.87167	-123
1.87533	-122
1.87900	-122
1.88267	-121
1.88633	-121
1.89000	-120
1.89367	-120
1.89733	-120
1.90100	-120
1.90467	-120
1.90833	-119
1.91200	-119
1.91567	-119
1.91933	-119
1.92300	-120
1.92667	-120
1.93033	-120
1.93400	-120
1.93767	-120
1.94133	-120
1.94500	-120
1.94867	-119
1.95233	-119
1.95600	-118
1.95967	-118
1.96333	-117
1.96700	-117
1.97067	-117
1.97433	-116
1.97800	-116
1.98167	-116
1.98533	-115
1.98900	-115
1.99267	-115
1.99633	-114
2.00000	-113
2.00367	-113
2.00733	-112
2.01100	-112
2.01467	-112
2.01833	-113
2.02200	-113
2.02567	-114
2.02933	-114
2.03300	-114
2.03667	-113
2.04033	-112
2.04400	-111
2.04767	-110
2.05133	-109
2.05500	-108
2.05867	-108
2.06233	-108
2.06600	-108
2.06967	-109
2.07333	-109
2.07700	-110
2.08067	-111
2.08433	-111
2.08800	-110
2.09167	-110
2.09533	-109
2.09900	-109
2.10267	-108
2.10633	-108
2.11000	-108
2.11367	-108
2.11733	-108
2.12100	-108
2.12467	-108
2.12833	-107
2.13200	-107
2.13567	-106
2.13933	-106
2.14300	-105
2.14667	-105
2.15033	-104
2.15400	-103
2.15767	-103
2.16133	-102
2.16500	-102
2.16867	-101
2.17233	-101
2.17600	-101
2.17967	-100
2.18333	-100
2.18700	-99
2.19067	-98
2.19433	-98
2.19800	-97
2.20167	-96
2.20533	-96
2.20900	-96
2.21267	-96
2.21633	-96
2.22000	-96
2.22367	-96
2.22733	-96
2.23100	-95
2.23467	-95
2.23833	-94
2.24200	-93
2.24567	-92
2.24933	-91
2.25300	-91
2.25667	-91
2.26033	-91
2.26400	-91
2.26767	-91
2.27133	-91
2.27500	-92
2.27867	-92
2.28233	-94
2.28600	-95
2.28967	-96
2.29333	-97
2.29700	-97
2.30067	-97
2.30433	-97
2.30800	-96
2.31167	-94
2.31533	-93
2.31900	-92
2.32267	-90
2.32633	-88
2.33000	-87
2.33367	-87
2.33733	-86
2.34100	-86
2.34467	-86
2.34833	-86
2.35200	-87
2.35567	-87
2.35933	-86
2.36300	-86
2.36667	-85
2.37033	-83
2.37400	-81
2.37767	-78
2.38133	-74
2.38500	-70
2.38867	-66
2.39233	-61
2.39600	-56
2.39967	-51
2.40333	-47
2.40700	-42
2.41067	-37
2.41433	-33
2.41800	-30
2.42167	-27
2.42533	-24
2.42900	-21
2.43267	-19
2.43633	-17
2.44000	-14
2.44367	-12
2.44733	-9
2.45100	-7
2.45467	-5
2.45833	-3
2.46200	-2
2.46567	0
2.46933	2
2.47300	3
2.47667	4
2.48033	4
2.48400	5
2.48767	5
2.49133	6
2.49500	6
2.49867	7
2.50233	8
2.50600	8
2.50967	9
2.51333	9
2.51700	10
2.52067	10
2.52433	11
2.52800	11
2.53167	12
2.53533	12
2.53900	12
2.54267	13
2.54633	13
2.55000	13
2.55367	14
2.55733	14
2.56100	13
2.56467	13
2.56833	13
2.57200	14
2.57567	14
2.57933	14
2.58300	15
2.58667	15
2.59033	15
2.59400	15
2.59767	16
2.60133	16
2.60500	16
2.60867	16
2.61233	16
2.61600	17
2.61967	17
2.62333	17
2.62700	18
2.63067	18
2.63433	18
2.63800	18
2.64167	18
2.64533	18
2.64900	17
2.65267	17
2.65633	17
2.66000	17
2.66367	18
2.66733	18
2.67100	19
2.67467	20
2.67833	20
2.68200	21
2.68567	22
2.68933	23
2.69300	24
2.69667	25
2.70033	25
2.70400	26
2.70767	26
2.71133	25
2.71500	25
2.71867	25
2.72233	24
2.72600	24
2.72967	24
2.73333	23
2.73700	23
2.74067	23
2.74433	24
2.74800	24
2.75167	25
2.75533	25
2.75900	26
2.76267	26
2.76633	27
2.77000	27
2.77367	27
2.77733	27
2.78100	27
2.78467	28
2.78833	28
2.79200	28
2.79567	28
2.79933	28
2.80300	28
2.80667	27
2.81033	27
2.81400	27
2.81767	26
2.82133	26
2.82500	26
2.82867	25
2.83233	25
2.83600	25
2.83967	24
2.84333	23
2.84700	21
2.85067	17
2.85433	10
2.85800	1
2.86167	-12
2.86533	-29
2.86900	-50
2.87267	-74
2.87633	-103
2.88000	-136
2.88367	-172
2.88733	-212
2.89100	-254
2.89467	-299
2.89833	-346
2.90200	-394
2.90567	-444
2.90933	-494
2.91300	-544
2.91667	-594
2.92033	-643
2.92400	-692
2.92767	-740
2.93133	-787
2.93500	-836
2.93867	-891
2.94233	-952
2.94600	-1013
2.94967	-1064
2.95333	-1094
2.95700	-1097
2.96067	-1074
2.96433	-1029
2.96800	-967
2.97167	-893
2.97533	-814
2.97900	-733
2.98267	-653
2.98633	-578
2.99000	-507
2.99367	-443
2.99733	-384
3.00100	-332
3.00467	-285
3.00833	-244
3.01200	-208
3.01567	-177
3.01933	-149
3.02300	-126
3.02667	-105
3.03033	-88
3.03400	-73
3.03767	-60
3.04133	-50
3.04500	-40
3.04867	-32
3.05233	-25
3.05600	-20
3.05967	-15
3.06333	-11
3.06700	-7
3.07067	-4
3.07433	-2
3.07800	1
3.08167	3
3.08533	4
3.08900	6
3.09267	7
3.09633	8
3.10000	9
3.10367	10
3.10733	11
3.11100	12
3.11467	13
3.11833	14
3.12200	14
3.12567	15
3.12933	15
3.13300	16
3.13667	16
3.14033	17
3.14400	17
3.14767	17
3.15133	17
3.15500	17
3.15867	18
3.16233	18
3.16600	18
3.16967	19
3.17333	19
3.17700	20
3.18067	21
3.18433	21
3.18800	22
3.19167	23
3.19533	23
3.19900	23
3.20267	24
3.20633	24
3.21000	25
3.21367	25
3.21733	25
3.22100	25
3.22467	26
3.22833	26
3.23200	26
3.23567	27
3.23933	27
3.24300	27
3.24667	28
3.25033	28
3.25400	28
3.25767	28
3.26133	28
3.26500	28
3.26867	28
3.27233	28
3.27600	28
3.27967	28
3.28333	28
3.28700	27
3.29067	27
3.29433	27
3.29800	27
3.30167	28
3.30533	28
3.30900	28
3.31267	28
3.31633	29
3.32000	29
3.32367	29
3.32733	29
3.33100	29
3.33467	29
3.33833	29
3.34200	29
3.34567	29
3.34933	29
3.35300	29
3.35667	30
3.36033	30
3.36400	30
3.36767	30
3.37133	29
3.37500	29
3.37867	29
3.38233	29
3.38600	29
3.38967	29
3.39333	29
3.39700	29
3.40067	29
3.40433	29
3.40800	28
3.41167	28
3.41533	28
3.41900	28
3.42267	28
3.42633	28
3.43000	28
3.43367	28
3.43733	28
3.44100	28
3.44467	28
3.44833	28
3.45200	28
3.45567	28
3.45933	28
3.46300	28
3.46667	28
3.47033	28
3.47400	28
3.47767	27
3.48133	27
3.48500	27
3.48867	27
3.49233	27
3.49600	27
3.49967	27
3.50333	27
3.50700	27
3.51067	27
3.51433	27
3.51800	27
3.52167	26
3.52533	26
3.52900	26
3.53267	26
3.53633	26
3.54000	26
3.54367	26
3.54733	26
3.55100	26
3.55467	26
3.55833	26
3.56200	26
3.56567	27
3.56933	27
3.57300	27
3.57667	27
3.58033	27
3.58400	27
3.58767	27
3.59133	27
3.59500	27
3.59867	28
3.60233	28
3.60600	28
3.60967	28
3.61333	27
3.61700	27
3.62067	27
3.62433	27
3.62800	27
3.63167	27
3.63533	27
3.63900	27
3.64267	27
3.64633	27
3.65000	27
3.65367	27
3.65733	27
3.66100	27
3.66467	27
3.66833	27
3.67200	27
3.67567	27
3.67933	27
3.68300	27
3.68667	27
3.69033	27
3.69400	27
3.69767	28
3.70133	28
3.70500	28
3.70867	28
3.71233	28
3.71600	28
3.71967	28
3.72333	28
3.72700	28
3.73067	28
3.73433	28
3.73800	28
3.74167	28
3.74533	28
3.74900	27
3.75267	27
3.75633	27
3.76000	27
3.76367	26
3.76733	26
3.77100	26
3.77467	26
3.77833	27
3.78200	27
3.78567	27
3.78933	27
3.79300	27
3.79667	28
3.80033	28
3.80400	28
3.80767	28
3.81133	28
3.81500	28
3.81867	28
3.82233	28
3.82600	28
3.82967	28
3.83333	28
3.83700	28
3.84067	28
3.84433	28
3.84800	27
3.85167	27
3.85533	27
3.85900	26
3.86267	26
3.86633	26
3.87000	25
3.87367	25
3.87733	25
3.88100	25
3.88467	25
3.88833	25
3.89200	25
3.89567	25
3.89933	25
3.90300	26
3.90667	26
3.91033	27
3.91400	28
3.91767	29
3.92133	29
3.92500	30
3.92867	30
3.93233	30
3.93600	31
3.93967	31
3.94333	31
3.94700	31
3.95067	31
3.95433	31
3.95800	31
3.96167	31
3.96533	32
3.96900	32
3.97267	32
3.97633	33
3.98000	33
3.98367	33
3.98733	33
3.99100	33
3.99467	33
3.99833	33

[Chromatogram (Ch3)]
Interval(msec)	220
# of Points	1091
Start Time(min)	0.002
End Time(min)	3.998
R.Time (min)	Intensity
0.00167	1
0.00533	2
0.00900	1
0.01267	0
0.01633	-0
0.02000	-1
0.02367	-2
0.02733	-3
0.03100	-1
0.03467	2
0.03833	3
0.04200	4
0.04567	5
0.04933	6
0.05300	5
0.05667	5
0.06033	4
0.06400	4
0.06767	3
0.07133	3
0.07500	3
0.07867	2
0.08233	1
0.08600	-0
0.08967	-2
0.09333	-3
0.09700	-3
0.10067	-2
0.10433	0
0.10800	-0
0.11167	1
0.11533	2
0.11900	2
0.12267	4
0.12633	4
0.13000	4
0.13367	3
0.13733	3
0.14100	3
0.14467	3
0.14833	3
0.15200	4
0.15567	5
0.15933	6
0.16300	5
0.16667	4
0.17033	3
0.17400	4
0.17767	5
0.18133	4
0.18500	4
0.18867	5
0.19233	5
0.19600	5
0.19967	6
0.20333	8
0.20700	10
0.21067	10
0.21433	8
0.21800	6
0.22167	4
0.22533	3
0.22900	3
0.23267	3
0.23633	3
0.24000	3
0.24367	3
0.24733	3
0.25100	2
0.25467	1
0.25833	2
0.26200	3
0.26567	3
0.26933	4
0.27300	5
0.27667	5
0.28033	6
0.28400	7
0.28767	6
0.29133	4
0.29500	3
0.29867	3
0.30233	4
0.30600	5
0.30967	7
0.31333	6
0.31700	5
0.32067	4
0.32433	2
0.32800	2
0.33167	2
0.33533	2
0.33900	2
0.34267	3
0.34633	4
0.35000	4
0.35367	2
0.35733	1
0.36100	1
0.36467	2
0.36833	1
0.37200	-1
0.37567	-2
0.37933	1
0.38300	2
0.38667	2
0.39033	1
0.39400	2
0.39767	2
0.40133	2
0.40500	5
0.40867	7
0.41233	8
0.41600	9
0.41967	9
0.42333	9
0.42700	8
0.43067	7
0.43433	6
0.43800	7
0.44167	8
0.44533	8
0.44900	7
0.45267	7
0.45633	9
0.46000	9
0.46367	9
0.46733	9
0.47100	7
0.47467	7
0.47833	6
0.48200	5
0.48567	5
0.48933	5
0.49300	6
0.49667	9
0.50033	12
0.50400	11
0.50767	10
0.51133	9
0.51500	8
0.51867	8
0.52233	9
0.52600	9
0.52967	7
0.53333	7
0.53700	10
0.54067	13
0.54433	14
0.54800	12
0.55167	11
0.55533	11
0.55900	10
0.56267	9
0.56633	10
0.57000	14
0.57367	16
0.57733	15
0.58100	13
0.58467	12
0.58833	12
0.59200	12
0.59567	12
0.59933	14
0.60300	16
0.60667	17
0.61033	17
0.61400	16
0.61767	15
0.62133	15
0.62500	16
0.62867	15
0.63233	15
0.63600	17
0.63967	16
0.64333	16
0.64700	15
0.65067	14
0.65433	13
0.65800	13
0.66167	12
0.66533	12
0.66900	13
0.67267	14
0.67633	16
0.68000	16
0.68367	17
0.68733	15
0.69100	13
0.69467	12
0.69833	11
0.70200	12
0.70567	11
0.70933	11
0.71300	15
0.71667	16
0.72033	16
0.72400	16
0.72767	16
0.73133	15
0.73500	15
0.73867	14
0.74233	15
0.74600	16
0.74967	15
0.75333	15
0.75700	16
0.76067	15
0.76433	13
0.76800	12
0.77167	12
0.77533	15
0.77900	15
0.78267	16
0.78633	17
0.79000	17
0.79367	16
0.79733	15
0.80100	17
0.80467	18
0.80833	19
0.81200	19
0.81567	18
0.81933	17
0.82300	16
0.82667	17
0.83033	17
0.83400	18
0.83767	19
0.84133	20
0.84500	21
0.84867	20
0.85233	20
0.85600	20
0.85967	21
0.86333	22
0.86700	21
0.87067	20
0.87433	23
0.87800	24
0.88167	22
0.88533	20
0.88900	20
0.89267	21
0.89633	22
0.90000	23
0.90367	25
0.90733	27
0.91100	27
0.91467	25
0.91833	25
0.92200	24
0.92567	22
0.92933	22
0.93300	23
0.93667	26
0.94033	28
0.94400	28
0.94767	27
0.95133	27
0.95500	26
0.95867	24
0.96233	22
0.96600	20
0.96967	20
0.97333	23
0.97700	27
0.98067	29
0.98433	30
0.98800	30
0.99167	29
0.99533	30
0.99900	29
1.00267	29
1.00633	29
1.01000	29
1.01367	30
1.01733	28
1.02100	27
1.02467	26
1.02833	25
1.03200	26
1.03567	26
1.03933	26
1.04300	26
1.04667	25
1.05033	25
1.05400	24
1.05767	24
1.06133	25
1.06500	27
1.06867	27
1.07233	29
1.07600	30
1.07967	31
1.08333	30
1.08700	30
1.09067	31
1.09433	30
1.09800	29
1.10167	30
1.10533	31
1.10900	33
1.11267	34
1.11633	34
1.12000	33
1.12367	31
1.12733	30
1.13100	28
1.13467	28
1.13833	30
1.14200	32
1.14567	33
1.14933	34
1.15300	34
1.15667	35
1.16033	36
1.16400	35
1.16767	32
1.17133	30
1.17500	30
1.17867	30
1.18233	30
1.18600	31
1.18967	33
1.19333	32
1.19700	32
1.20067	34
1.20433	36
1.20800	37
1.21167	38
1.21533	37
1.21900	35
1.22267	35
1.22633	35
1.23000	38
1.23367	40
1.23733	43
1.24100	42
1.24467	41
1.24833	39
1.25200	39
1.25567	38
1.25933	38
1.26300	38
1.26667	39
1.27033	38
1.27400	37
1.27767	35
1.28133	36
1.28500	36
1.28867	33
1.29233	34
1.29600	33
1.29967	34
1.30333	36
1.30700	37
1.31067	38
1.31433	39
1.31800	41
1.32167	41
1.32533	43
1.32900	44
1.33267	44
1.33633	43
1.34000	43
1.34367	42
1.34733	40
1.35100	40
1.35467	40
1.35833	40
1.36200	40
1.36567	37
1.36933	36
1.37300	37
1.37667	40
1.38033	42
1.38400	44
1.38767	45
1.39133	44
1.39500	42
1.39867	40
1.40233	40
1.40600	42
1.40967	44
1.41333	44
1.41700	44
1.42067	42
1.42433	43
1.42800	41
1.43167	39
1.43533	40
1.43900	41
1.44267	43
1.44633	43
1.45000	43
1.45367	43
1.45733	43
1.46100	46
1.46467	46
1.46833	46
1.47200	45
1.47567	44
1.47933	43
1.48300	42
1.48667	41
1.49033	39
1.49400	39
1.49767	39
1.50133	41
1.50500	44
1.50867	46
1.51233	46
1.51600	47
1.51967	50
1.52333	51
1.52700	52
1.53067	49
1.53433	46
1.53800	44
1.54167	43
1.54533	43
1.54900	44
1.55267	45
1.55633	47
1.56000	50
1.56367	53
1.56733	55
1.57100	55
1.57467	55
1.57833	55
1.58200	55
1.58567	53
1.58933	51
1.59300	50
1.59667	49
1.60033	50
1.60400	50
1.60767	50
1.61133	50
1.61500	51
1.61867	51
1.62233	51
1.62600	50
1.62967	50
1.63333	52
1.63700	52
1.64067	52
1.64433	53
1.64800	53
1.65167	52
1.65533	53
1.65900	55
1.66267	57
1.66633	57
1.67000	57
1.67367	59
1.67733	60
1.68100	61
1.68467	62
1.68833	63
1.69200	65
1.69567	66
1.69933	66
1.70300	66
1.70667	65
1.71033	66
1.71400	69
1.71767	71
1.72133	71
1.72500	70
1.72867	69
1.73233	68
1.73600	69
1.73967	69
1.74333	69
1.74700	69
1.75067	68
1.75433	68
1.75800	71
1.76167	75
1.76533	77
1.76900	77
1.77267	78
1.77633	82
1.78000	84
1.78367	81
1.78733	81
1.79100	82
1.79467	82
1.79833	82
1.80200	83
1.80567	85
1.80933	88
1.81300	92
1.81667	95
1.82033	97
1.82400	98
1.82767	99
1.83133	98
1.83500	95
1.83867	93
1.84233	92
1.84600	91
1.84967	93
1.85333	93
1.85700	94
1.86067	96
1.86433	99
1.86800	101
1.87167	100
1.87533	98
1.87900	97
1.88267	100
1.88633	100
1.89000	99
1.89367	100
1.89733	100
1.90100	100
1.90467	102
1.90833	103
1.91200	103
1.91567	104
1.91933	103
1.92300	101
1.92667	100
1.93033	98
1.93400	98
1.93767	100
1.94133	103
1.94500	107
1.94867	111
1.95233	112
1.95600	114
1.95967	117
1.96333	121
1.96700	121
1.97067	120
1.97433	120
1.97800	122
1.98167	122
1.98533	121
1.98900	121
1.99267	120
1.99633	121
2.00000	124
2.00367	126
2.00733	127
2.01100	128
2.01467	127
2.01833	127
2.02200	128
2.02567	130
2.02933	133
2.03300	136
2.03667	138
2.04033	140
2.04400	140
2.04767	140
2.05133	141
2.05500	143
2.05867	147
2.06233	150
2.06600	152
2.06967	152
2.07333	153
2.07700	152
2.08067	152
2.08433	153
2.08800	154
2.09167	156
2.09533	157
2.09900	159
2.10267	161
2.10633	162
2.11000	164
2.11367	165
2.11733	167
2.12100	169
2.12467	169
2.12833	172
2.13200	176
2.13567	181
2.13933	185
2.14300	188
2.14667	186
2.15033	187
2.15400	189
2.15767	191
2.16133	192
2.16500	193
2.16867	193
2.17233	194
2.17600	195
2.17967	198
2.18333	200
2.18700	201
2.19067	203
2.19433	203
2.19800	204
2.20167	209
2.20533	214
2.20900	217
2.21267	219
2.21633	217
2.22000	216
2.22367	216
2.22733	217
2.23100	220
2.23467	221
2.23833	220
2.24200	220
2.24567	220
2.24933	220
2.25300	222
2.25667	220
2.26033	218
2.26400	218
2.26767	221
2.27133	224
2.27500	226
2.27867	229
2.28233	230
2.28600	231
2.28967	232
2.29333	234
2.29700	238
2.30067	242
2.30433	246
2.30800	248
2.31167	247
2.31533	246
2.31900	245
2.32267	244
2.32633	245
2.33000	247
2.33367	248
2.33733	250
2.34100	254
2.34467	257
2.34833	259
2.35200	261
2.35567	263
2.35933	264
2.36300	266
2.36667	265
2.37033	264
2.37400	263
2.37767	263
2.38133	263
2.38500	262
2.38867	262
2.39233	263
2.39600	267
2.39967	269
2.40333	269
2.40700	271
2.41067	274
2.41433	275
2.41800	276
2.42167	279
2.42533	281
2.42900	284
2.43267	286
2.43633	288
2.44000	289
2.44367	292
2.44733	292
2.45100	286
2.45467	288
2.45833	305
2.46200	336
2.46567	376
2.46933	425
2.47300	478
2.47667	532
2.48033	583
2.48400	631
2.48767	674
2.49133	712
2.49500	747
2.49867	777
2.50233	804
2.50600	827
2.50967	848
2.51333	870
2.51700	886
2.52067	901
2.52433	915
2.52800	927
2.53167	940
2.53533	952
2.53900	962
2.54267	969
2.54633	976
2.55000	982
2.55367	989
2.55733	994
2.56100	998
2.56467	999
2.56833	1000
2.57200	1003
2.57567	1004
2.57933	1004
2.58300	1003
2.58667	1002
2.59033	997
2.59400	989
2.59767	975
2.60133	950
2.60500	917
2.60867	874
2.61233	822
2.61600	765
2.61967	705
2.62333	649
2.62700	602
2.63067	563
2.63433	530
2.63800	504
2.64167	483
2.64533	469
2.64900	461
2.65267	455
2.65633	455
2.66000	459
2.66367	464
2.66733	471
2.67100	479
2.67467	488
2.67833	496
2.68200	506
2.68567	516
2.68933	527
2.69300	537
2.69667	546
2.70033	556
2.70400	565
2.70767	576
2.71133	585
2.71500	595
2.71867	605
2.72233	615
2.72600	626
2.72967	638
2.73333	645
2.73700	650
2.74067	654
2.74433	662
2.74800	672
2.75167	680
2.75533	687
2.75900	692
2.76267	698
2.76633	702
2.77000	708
2.77367	715
2.77733	719
2.78100	724
2.78467	729
2.78833	734
2.79200	739
2.79567	744
2.79933	748
2.80300	752
2.80667	756
2.81033	761
2.81400	765
2.81767	770
2.82133	779
2.82500	796
2.82867	830
2.83233	894
2.83600	1009
2.83967	1200
2.84333	1488
2.84700	1882
2.85067	2383
2.85433	2970
2.85800	3608
2.86167	4253
2.86533	4853
2.86900	5361
2.87267	5742
2.87633	5969
2.88000	6042
2.88367	5972
2.88733	5782
2.89100	5505
2.89467	5170
2.89833	4800
2.90200	4421
2.90567	4047
2.90933	3690
2.91300	3357
2.91667	3048
2.92033	2767
2.92400	2513
2.92767	2289
2.93133	2093
2.93500	1920
2.93867	1767
2.94233	1637
2.94600	1523
2.94967	1422
2.95333	1334
2.95700	1257
2.96067	1192
2.96433	1136
2.96800	1087
2.97167	1046
2.97533	1011
2.97900	978
2.98267	951
2.98633	929
2.99000	908
2.99367	890
2.99733	873
3.00100	857
3.00467	846
3.00833	836
3.01200	827
3.01567	819
3.01933	813
3.02300	806
3.02667	801
3.03033	797
3.03400	794
3.03767	789
3.04133	783
3.04500	777
3.04867	772
3.05233	769
3.05600	767
3.05967	763
3.06333	760
3.06700	759
3.07067	756
3.07433	753
3.07800	749
3.08167	745
3.08533	742
3.08900	742
3.09267	741
3.09633	740
3.10000	737
3.10367	732
3.10733	730
3.11100	727
3.11467	724
3.11833	721
3.12200	719
3.12567	716
3.12933	711
3.13300	707
3.13667	703
3.14033	699
3.14400	696
3.14767	692
3.15133	689
3.15500	686
3.15867	684
3.16233	683
3.16600	680
3.16967	676
3.17333	675
3.17700	674
3.18067	674
3.18433	673
3.18800	669
3.19167	665
3.19533	660
3.19900	657
3.20267	655
3.20633	653
3.21000	650
3.21367	649
3.21733	648
3.22100	646
3.22467	644
3.22833	641
3.23200	638
3.23567	635
3.23933	632
3.24300	631
3.24667	629
3.25033	627
3.25400	622
3.25767	618
3.26133	614
3.26500	612
3.26867	608
3.27233	604
3.27600	602
3.27967	600
3.28333	599
3.28700	598
3.29067	596
3.29433	593
3.29800	589
3.30167	583
3.30533	578
3.30900	573
3.31267	569
3.31633	566
3.32000	563
3.32367	559
3.32733	557
3.33100	555
3.33467	554
3.33833	549
3.34200	542
3.34567	538
3.34933	533
3.35300	531
3.35667	527
3.36033	521
3.36400	516
3.36767	513
3.37133	509
3.37500	504
3.37867	500
3.38233	497
3.38600	493
3.38967	488
3.39333	484
3.39700	480
3.40067	477
3.40433	474
3.40800	469
3.41167	463
3.41533	459
3.41900	456
3.42267	454
3.42633	451
3.43000	448
3.43367	445
3.43733	442
3.44100	440
3.44467	436
3.44833	433
3.45200	429
3.45567	426
3.45933	424
3.46300	421
3.46667	417
3.47033	416
3.47400	414
3.47767	412
3.48133	410
3.48500	407
3.48867	402
3.49233	396
3.49600	393
3.49967	389
3.50333	386
3.50700	385
3.51067	383
3.51433	379
3.51800	377
3.52167	376
3.52533	375
3.52900	373
3.53267	373
3.53633	371
3.54000	368
3.54367	363
3.54733	359
3.55100	356
3.55467	354
3.55833	353
3.56200	349
3.56567	344
3.56933	340
3.57300	340
3.57667	340
3.58033	339
3.58400	336
3.58767	333
3.59133	331
3.59500	329
3.59867	327
3.60233	327
3.60600	326
3.60967	324
3.61333	323
3.61700	324
3.62067	324
3.62433	321
3.62800	318
3.63167	314
3.63533	309
3.63900	306
3.64267	304
3.64633	304
3.65000	302
3.65367	300
3.65733	300
3.66100	301
3.66467	300
3.66833	299
3.67200	299
3.67567	299
3.67933	299
3.68300	296
3.68667	294
3.69033	293
3.69400	291
3.69767	290
3.70133	289
3.70500	287
3.70867	287
3.71233	289
3.71600	289
3.71967	286
3.72333	284
3.72700	284
3.73067	283
3.73433	281
3.73800	279
3.74167	277
3.74533	275
3.74900	274
3.75267	275
3.75633	276
3.76000	277
3.76367	275
3.76733	272
3.77100	269
3.77467	269
3.77833	267
3.78200	267
3.78567	267
3.78933	267
3.79300	265
3.79667	264
3.80033	265
3.80400	265
3.80767	264
3.81133	262
3.81500	261
3.81867	261
3.82233	262
3.82600	261
3.82967	258
3.83333	255
3.83700	253
3.84067	253
3.84433	253
3.84800	252
3.85167	252
3.85533	252
3.85900	253
3.86267	253
3.86633	252
3.87000	253
3.87367	253
3.87733	253
3.88100	252
3.88467	251
3.88833	250
3.89200	249
3.89567	247
3.89933	246
3.90300	245
3.90667	245
3.91033	244
3.91400	244
3.91767	244
3.92133	246
3.92500	247
3.92867	247
3.93233	248
3.93600	248
3.93967	246
3.94333	244
3.94700	242
3.95067	242
3.95433	241
3.95800	239
3.96167	238
3.96533	237
3.96900	237
3.97267	237
3.97633	237
3.98000	236
3.98367	237
3.98733	237
3.99100	236
3.99467	237
3.99833	236

[Status Trace (Column Oven Temperature)]
Interval(msec)	1000
# of Points	240
Start Time(min)	0.015
End Time(min)	3.998
Intensity Units	
Intensity Multiplier	1
R.Time (min)	Intensity
0.01515	35.02
0.03182	35.00
0.04848	34.99
0.06515	34.97
0.08182	34.96
0.09848	34.95
0.11515	34.94
0.13182	34.93
0.14848	34.95
0.16515	34.96
0.18182	34.96
0.19848	34.96
0.21515	34.97
0.23182	34.98
0.24848	34.99
0.26515	35.01
0.28182	34.99
0.29848	34.99
0.31515	34.99
0.33182	34.99
0.34848	35.00
0.36515	35.00
0.38182	35.01
0.39848	35.01
0.41515	35.01
0.43182	35.01
0.44848	35.02
0.46515	35.03
0.48182	35.04
0.49848	35.04
0.51515	35.05
0.53182	35.04
0.54848	35.02
0.56515	35.01
0.58182	34.99
0.59848	34.99
0.61515	34.98
0.63182	34.97
0.64848	34.97
0.66515	34.96
0.68182	34.95
0.69848	34.95
0.71515	34.96
0.73182	34.96
0.74848	34.96
0.76515	34.96
0.78182	34.98
0.79848	34.99
0.81515	34.99
0.83182	35.00
0.84848	34.99
0.86515	34.99
0.88182	34.98
0.89848	34.99
0.91515	34.98
0.93182	34.98
0.94848	34.98
0.96515	34.98
0.98182	34.97
0.99848	34.97
1.01515	34.97
1.03182	34.97
1.04848	34.97
1.06515	34.97
1.08182	34.97
1.09848	34.97
1.11515	34.98
1.13182	34.98
1.14848	34.98
1.16515	34.99
1.18182	34.99
1.19848	34.98
1.21515	35.00
1.23182	35.00
1.24848	35.00
1.26515	34.99
1.28182	34.99
1.29848	34.99
1.31515	34.99
1.33182	35.00
1.34848	35.00
1.36515	35.00
1.38182	34.99
1.39848	34.99
1.41515	34.98
1.43182	34.99
1.44848	34.98
1.46515	34.99
1.48182	34.99
1.49848	34.99
1.51515	34.99
1.53182	34.99
1.54848	34.98
1.56515	34.98
1.58182	34.98
1.59848	35.01
1.61515	35.10
1.63182	35.26
1.64848	35.47
1.66515	35.76
1.68182	36.13
1.69848	36.49
1.71515	36.84
1.73182	37.16
1.74848	37.48
1.76515	37.82
1.78182	38.16
1.79848	38.49
1.81515	38.82
1.83182	39.15
1.84848	39.49
1.86515	39.83
1.88182	40.14
1.89848	40.46
1.91515	40.79
1.93182	41.13
1.94848	41.47
1.96515	41.79
1.98182	42.12
1.99848	42.42
2.01515	42.76
2.03182	43.09
2.04848	43.41
2.06515	43.75
2.08182	44.07
2.09848	44.40
2.11515	44.72
2.13182	45.05
2.14848	45.37
2.16515	45.70
2.18182	46.03
2.19848	46.33
2.21515	46.68
2.23182	47.01
2.24848	47.30
2.26515	47.62
2.28182	48.00
2.29848	48.37
2.31515	48.69
2.33182	49.00
2.34848	49.33
2.36515	49.58
2.38182	49.67
2.39848	49.68
2.41515	49.67
2.43182	49.68
2.44848	49.69
2.46515	49.68
2.48182	49.70
2.49848	49.72
2.51515	49.74
2.53182	49.75
2.54848	49.76
2.56515	49.79
2.58182	49.79
2.59848	49.82
2.61515	49.82
2.63182	49.84
2.64848	49.86
2.66515	49.87
2.68182	49.85
2.69848	49.84
2.71515	49.86
2.73182	49.88
2.74848	49.87
2.76515	49.86
2.78182	49.86
2.79848	49.85
2.81515	49.87
2.83182	49.88
2.84848	49.90
2.86515	49.92
2.88182	49.93
2.89848	49.94
2.91515	49.96
2.93182	49.97
2.94848	49.97
2.96515	49.99
2.98182	50.00
2.99848	50.02
3.01515	50.03
3.03182	50.04
3.04848	50.04
3.06515	50.06
3.08182	50.07
3.09848	50.07
3.11515	50.08
3.13182	50.10
3.14848	50.11
3.16515	50.12
3.18182	50.11
3.19848	50.10
3.21515	50.09
3.23182	50.08
3.24848	50.06
3.26515	50.06
3.28182	50.05
3.29848	50.03
3.31515	50.03
3.33182	50.02
3.34848	50.02
3.36515	50.01
3.38182	50.01
3.39848	50.01
3.41515	50.01
3.43182	50.01
3.44848	50.01
3.46515	50.01
3.48182	50.02
3.49848	50.02
3.51515	50.03
3.53182	50.02
3.54848	50.03
3.56515	50.03
3.58182	50.03
3.59848	50.04
3.61515	50.04
3.63182	50.04
3.64848	50.04
3.66515	50.04
3.68182	50.04
3.69848	50.05
3.71515	50.05
3.73182	50.06
3.74848	50.07
3.76515	50.08
3.78182	50.08
3.79848	50.08
3.81515	50.08
3.83182	50.09
3.84848	50.09
3.86515	50.11
3.88182	50.12
3.89848	50.12
3.91515	50.10
3.93182	50.08
3.94848	50.07
3.96515	50.05
3.98182	50.03
3.99848	50.01

[Status Trace (Injection Unit Temperature)]
Interval(msec)	1000
# of Points	240
Start Time(min)	0.015
End Time(min)	3.998
Intensity Units	
Intensity Multiplier	1
R.Time (min)	Intensity
0.01515	99.98
0.03182	99.98
0.04848	99.98
0.06515	99.98
0.08182	99.98
0.09848	99.98
0.11515	99.98
0.13182	99.98
0.14848	99.98
0.16515	99.98
0.18182	99.98
0.19848	99.98
0.21515	99.98
0.23182	99.98
0.24848	99.98
0.26515	99.98
0.28182	99.98
0.29848	99.98
0.31515	99.98
0.33182	99.98
0.34848	99.98
0.36515	99.99
0.38182	99.98
0.39848	99.98
0.41515	99.98
0.43182	99.98
0.44848	99.98
0.46515	99.98
0.48182	99.99
0.49848	99.98
0.51515	99.98
0.53182	99.98
0.54848	99.98
0.56515	99.99
0.58182	99.98
0.59848	99.99
0.61515	99.99
0.63182	99.98
0.64848	99.99
0.66515	99.99
0.68182	99.99
0.69848	99.98
0.71515	99.98
0.73182	99.98
0.74848	99.98
0.76515	99.99
0.78182	99.99
0.79848	99.99
0.81515	99.99
0.83182	99.98
0.84848	99.99
0.86515	99.99
0.88182	99.99
0.89848	99.99
0.91515	99.99
0.93182	99.99
0.94848	99.99
0.96515	99.99
0.98182	99.99
0.99848	99.99
1.01515	99.99
1.03182	99.99
1.04848	99.99
1.06515	99.99
1.08182	99.99
1.09848	99.99
1.11515	99.99
1.13182	99.99
1.14848	99.99
1.16515	99.99
1.18182	99.99
1.19848	99.99
1.21515	99.99
1.23182	99.99
1.24848	99.99
1.26515	99.99
1.28182	99.99
1.29848	99.99
1.31515	99.99
1.33182	99.99
1.34848	99.99
1.36515	99.99
1.38182	99.99
1.39848	99.99
1.41515	99.99
1.43182	99.99
1.44848	99.99
1.46515	99.99
1.48182	99.99
1.49848	99.98
1.51515	99.99
1.53182	99.99
1.54848	99.99
1.56515	99.99
1.58182	99.99
1.59848	99.99
1.61515	99.98
1.63182	99.99
1.64848	99.98
1.66515	99.99
1.68182	99.99
1.69848	99.99
1.71515	99.98
1.73182	99.99
1.74848	99.99
1.76515	99.99
1.78182	99.99
1.79848	99.99
1.81515	99.99
1.83182	99.99
1.84848	99.99
1.86515	99.99
1.88182	99.99
1.89848	99.98
1.91515	99.99
1.93182	99.99
1.94848	99.98
1.96515	99.98
1.98182	99.98
1.99848	99.98
2.01515	99.97
2.03182	99.98
2.04848	99.98
2.06515	99.97
2.08182	99.98
2.09848	99.97
2.11515	99.98
2.13182	99.97
2.14848	99.98
2.16515	99.98
2.18182	99.97
2.19848	99.98
2.21515	99.97
2.23182	99.98
2.24848	99.98
2.26515	99.97
2.28182	99.97
2.29848	99.97
2.31515	99.97
2.33182	99.97
2.34848	99.97
2.36515	99.97
2.38182	99.97
2.39848	99.97
2.41515	99.98
2.43182	99.98
2.44848	99.98
2.46515	99.98
2.48182	99.98
2.49848	99.98
2.51515	99.98
2.53182	99.98
2.54848	99.98
2.56515	99.98
2.58182	99.98
2.59848	99.98
2.61515	99.99
2.63182	99.99
2.64848	99.99
2.66515	99.99
2.68182	99.99
2.69848	99.99
2.71515	99.99
2.73182	99.99
2.74848	100.00
2.76515	100.00
2.78182	100.00
2.79848	100.00
2.81515	100.00
2.83182	100.00
2.84848	100.00
2.86515	100.00
2.88182	100.00
2.89848	100.00
2.91515	100.00
2.93182	100.01
2.94848	100.01
2.96515	100.01
2.98182	100.01
2.99848	100.01
3.01515	100.01
3.03182	100.01
3.04848	100.01
3.06515	100.01
3.08182	100.01
3.09848	100.02
3.11515	100.01
3.13182	100.02
3.14848	100.02
3.16515	100.02
3.18182	100.02
3.19848	100.02
3.21515	100.02
3.23182	100.02
3.24848	100.03
3.26515	100.03
3.28182	100.03
3.29848	100.03
3.31515	100.03
3.33182	100.03
3.34848	100.03
3.36515	100.03
3.38182	100.03
3.39848	100.03
3.41515	100.03
3.43182	100.03
3.44848	100.03
3.46515	100.03
3.48182	100.04
3.49848	100.04
3.51515	100.03
3.53182	100.04
3.54848	100.04
3.56515	100.04
3.58182	100.04
3.59848	100.04
3.61515	100.04
3.63182	100.04
3.64848	100.04
3.66515	100.04
3.68182	100.04
3.69848	100.04
3.71515	100.04
3.73182	100.04
3.74848	100.04
3.76515	100.05
3.78182	100.05
3.79848	100.05
3.81515	100.05
3.83182	100.05
3.84848	100.05
3.86515	100.05
3.88182	100.05
3.89848	100.05
3.91515	100.05
3.93182	100.05
3.94848	100.05
3.96515	100.05
3.98182	100.05
3.99848	100.05

[Status Trace (Carrier Gas Pressure)]
Interval(msec)	1000
# of Points	240
Start Time(min)	0.015
End Time(min)	3.998
Intensity Units	
Intensity Multiplier	1
R.Time (min)	Intensity
0.01515	57.25
0.03182	55.65
0.04848	57.92
0.06515	59.83
0.08182	58.72
0.09848	57.98
0.11515	57.99
0.13182	58.01
0.14848	58.01
0.16515	58.01
0.18182	58.00
0.19848	58.00
0.21515	58.00
0.23182	58.00
0.24848	58.00
0.26515	58.00
0.28182	58.00
0.29848	58.00
0.31515	58.00
0.33182	58.00
0.34848	58.00
0.36515	58.00
0.38182	58.00
0.39848	58.00
0.41515	58.00
0.43182	58.00
0.44848	58.00
0.46515	58.00
0.48182	58.00
0.49848	58.00
0.51515	58.00
0.53182	58.00
0.54848	58.00
0.56515	58.00
0.58182	58.00
0.59848	58.00
0.61515	58.00
0.63182	58.00
0.64848	58.00
0.66515	58.00
0.68182	58.00
0.69848	58.00
0.71515	58.00
0.73182	58.00
0.74848	58.00
0.76515	58.00
0.78182	58.00
0.79848	58.00
0.81515	58.00
0.83182	58.00
0.84848	58.00
0.86515	58.00
0.88182	58.00
0.89848	58.00
0.91515	58.00
0.93182	58.00
0.94848	58.00
0.96515	58.00
0.98182	58.00
0.99848	58.00
1.01515	58.00
1.03182	58.00
1.04848	58.00
1.06515	58.00
1.08182	58.00
1.09848	58.00
1.11515	58.00
1.13182	58.00
1.14848	58.00
1.16515	58.00
1.18182	58.00
1.19848	58.00
1.21515	58.00
1.23182	58.00
1.24848	58.00
1.26515	58.00
1.28182	58.00
1.29848	58.00
1.31515	58.00
1.33182	58.00
1.34848	58.00
1.36515	58.00
1.38182	58.00
1.39848	58.00
1.41515	58.00
1.43182	58.00
1.44848	58.00
1.46515	58.00
1.48182	58.00
1.49848	58.00
1.51515	58.00
1.53182	58.00
1.54848	58.00
1.56515	58.00
1.58182	58.00
1.59848	58.00
1.61515	58.00
1.63182	58.00
1.64848	58.01
1.66515	58.00
1.68182	58.01
1.69848	58.00
1.71515	58.00
1.73182	58.00
1.74848	58.00
1.76515	58.00
1.78182	58.00
1.79848	58.00
1.81515	58.00
1.83182	58.00
1.84848	58.00
1.86515	58.00
1.88182	58.00
1.89848	58.00
1.91515	58.00
1.93182	58.00
1.94848	58.00
1.96515	58.00
1.98182	58.00
1.99848	58.00
2.01515	58.00
2.03182	58.00
2.04848	58.00
2.06515	58.00
2.08182	58.00
2.09848	58.00
2.11515	58.00
2.13182	58.00
2.14848	58.00
2.16515	58.00
2.18182	58.00
2.19848	58.00
2.21515	58.00
2.23182	58.00
2.24848	58.00
2.26515	58.00
2.28182	58.00
2.29848	58.00
2.31515	58.00
2.33182	58.00
2.34848	58.00
2.36515	58.00
2.38182	57.99
2.39848	57.99
2.41515	58.00
2.43182	58.00
2.44848	58.00
2.46515	58.00
2.48182	58.00
2.49848	58.00
2.51515	57.99
2.53182	57.99
2.54848	58.00
2.56515	58.00
2.58182	58.00
2.59848	58.00
2.61515	58.00
2.63182	58.00
2.64848	58.00
2.66515	58.00
2.68182	58.00
2.69848	58.00
2.71515	58.00
2.73182	58.00
2.74848	58.00
2.76515	58.00
2.78182	58.00
2.79848	58.00
2.81515	58.00
2.83182	58.00
2.84848	58.00
2.86515	58.00
2.88182	58.00
2.89848	58.00
2.91515	58.00
2.93182	58.00
2.94848	58.00
2.96515	58.00
2.98182	58.00
2.99848	58.00
3.01515	58.00
3.03182	58.00
3.04848	58.00
3.06515	58.00
3.08182	58.00
3.09848	58.00
3.11515	58.00
3.13182	58.00
3.14848	58.00
3.16515	58.00
3.18182	58.00
3.19848	58.00
3.21515	58.00
3.23182	58.00
3.24848	58.00
3.26515	58.00
3.28182	58.00
3.29848	58.00
3.31515	58.00
3.33182	58.00
3.34848	58.00
3.36515	58.00
3.38182	58.00
3.39848	58.00
3.41515	58.00
3.43182	58.00
3.44848	58.00
3.46515	58.00
3.48182	58.00
3.49848	58.00
3.51515	58.00
3.53182	58.00
3.54848	58.00
3.56515	58.00
3.58182	58.00
3.59848	58.00
3.61515	58.00
3.63182	58.00
3.64848	58.00
3.66515	58.00
3.68182	58.00
3.69848	58.00
3.71515	58.00
3.73182	58.00
3.74848	58.00
3.76515	58.00
3.78182	58.00
3.79848	58.00
3.81515	58.00
3.83182	58.00
3.84848	58.00
3.86515	58.00
3.88182	58.00
3.89848	58.00
3.91515	58.00
3.93182	58.00
3.94848	58.00
3.96515	58.00
3.98182	58.00
3.99848	58.00

[Status Trace (Carrier Gas Flow)]
Interval(msec)	1000
# of Points	240
Start Time(min)	0.015
End Time(min)	3.998
Intensity Units	
Intensity Multiplier	1
R.Time (min)	Intensity
0.01515	33.95
0.03182	34.53
0.04848	34.54
0.06515	34.53
0.08182	34.50
0.09848	34.52
0.11515	34.52
0.13182	34.52
0.14848	34.52
0.16515	34.52
0.18182	34.52
0.19848	34.52
0.21515	34.52
0.23182	34.52
0.24848	34.52
0.26515	34.52
0.28182	34.52
0.29848	34.52
0.31515	34.52
0.33182	34.52
0.34848	34.52
0.36515	34.52
0.38182	34.52
0.39848	34.52
0.41515	34.52
0.43182	34.52
0.44848	34.52
0.46515	34.52
0.48182	34.52
0.49848	34.52
0.51515	34.52
0.53182	34.52
0.54848	34.52
0.56515	34.52
0.58182	34.52
0.59848	34.52
0.61515	34.52
0.63182	34.52
0.64848	34.52
0.66515	34.52
0.68182	34.52
0.69848	34.52
0.71515	34.52
0.73182	34.52
0.74848	34.52
0.76515	34.52
0.78182	34.52
0.79848	34.52
0.81515	34.52
0.83182	34.52
0.84848	34.52
0.86515	34.52
0.88182	34.52
0.89848	34.52
0.91515	34.52
0.93182	34.52
0.94848	34.52
0.96515	34.52
0.98182	34.52
0.99848	34.52
1.01515	34.52
1.03182	34.52
1.04848	34.52
1.06515	34.52
1.08182	34.52
1.09848	34.52
1.11515	34.52
1.13182	34.52
1.14848	34.52
1.16515	34.52
1.18182	34.52
1.19848	34.52
1.21515	34.52
1.23182	34.52
1.24848	34.52
1.26515	34.52
1.28182	34.52
1.29848	34.52
1.31515	34.52
1.33182	34.52
1.34848	34.52
1.36515	34.52
1.38182	34.52
1.39848	34.52
1.41515	34.52
1.43182	34.52
1.44848	34.52
1.46515	34.52
1.48182	34.52
1.49848	34.52
1.51515	34.52
1.53182	34.52
1.54848	34.52
1.56515	34.52
1.58182	34.52
1.59848	34.52
1.61515	34.52
1.63182	34.52
1.64848	34.52
1.66515	34.52
1.68182	34.52
1.69848	34.52
1.71515	34.52
1.73182	34.52
1.74848	34.52
1.76515	34.52
1.78182	34.52
1.79848	34.52
1.81515	34.52
1.83182	34.52
1.84848	34.52
1.86515	34.52
1.88182	34.52
1.89848	34.52
1.91515	34.52
1.93182	34.52
1.94848	34.52
1.96515	34.52
1.98182	34.52
1.99848	34.52
2.01515	34.52
2.03182	34.52
2.04848	34.52
2.06515	34.52
2.08182	34.52
2.09848	34.52
2.11515	34.52
2.13182	34.52
2.14848	34.52
2.16515	34.52
2.18182	34.52
2.19848	34.52
2.21515	34.52
2.23182	34.52
2.24848	34.52
2.26515	34.52
2.28182	34.52
2.29848	34.52
2.31515	34.52
2.33182	34.52
2.34848	34.52
2.36515	34.52
2.38182	34.52
2.39848	34.52
2.41515	34.52
2.43182	34.52
2.44848	34.52
2.46515	34.52
2.48182	34.52
2.49848	34.52
2.51515	34.52
2.53182	34.52
2.54848	34.52
2.56515	34.52
2.58182	34.52
2.59848	34.52
2.61515	34.52
2.63182	34.52
2.64848	34.52
2.66515	34.52
2.68182	34.52
2.69848	34.52
2.71515	34.52
2.73182	34.52
2.74848	34.51
2.76515	34.52
2.78182	34.52
2.79848	34.52
2.81515	34.52
2.83182	34.52
2.84848	34.52
2.86515	34.52
2.88182	34.52
2.89848	34.52
2.91515	34.52
2.93182	34.52
2.94848	34.52
2.96515	34.52
2.98182	34.52
2.99848	34.52
3.01515	34.52
3.03182	34.52
3.04848	34.52
3.06515	34.52
3.08182	34.52
3.09848	34.52
3.11515	34.52
3.13182	34.52
3.14848	34.52
3.16515	34.52
3.18182	34.52
3.19848	34.52
3.21515	34.52
3.23182	34.52
3.24848	34.52
3.26515	34.52
3.28182	34.52
3.29848	34.52
3.31515	34.52
3.33182	34.52
3.34848	34.52
3.36515	34.52
3.38182	34.51
3.39848	34.52
3.41515	34.52
3.43182	34.52
3.44848	34.52
3.46515	34.51
3.48182	34.52
3.49848	34.52
3.51515	34.51
3.53182	34.52
3.54848	34.51
3.56515	34.52
3.58182	34.52
3.59848	34.52
3.61515	34.52
3.63182	34.52
3.64848	34.52
3.66515	34.52
3.68182	34.52
3.69848	34.53
3.71515	34.52
3.73182	34.51
3.74848	34.52
3.76515	34.52
3.78182	34.52
3.79848	34.52
3.81515	34.52
3.83182	34.52
3.84848	34.52
3.86515	34.52
3.88182	34.52
3.89848	34.52
3.91515	34.52
3.93182	34.52
3.94848	34.52
3.96515	34.52
3.98182	34.52
3.99848	34.52

[Status Trace (Column Flow)]
Interval(msec)	1000
# of Points	240
Start Time(min)	0.015
End Time(min)	3.998
Intensity Units	
Intensity Multiplier	1
R.Time (min)	Intensity
0.01515	5.44
0.03182	5.26
0.04848	5.52
0.06515	5.75
0.08182	5.62
0.09848	5.53
0.11515	5.53
0.13182	5.53
0.14848	5.53
0.16515	5.53
0.18182	5.53
0.19848	5.53
0.21515	5.53
0.23182	5.53
0.24848	5.53
0.26515	5.53
0.28182	5.53
0.29848	5.53
0.31515	5.53
0.33182	5.53
0.34848	5.53
0.36515	5.53
0.38182	5.53
0.39848	5.53
0.41515	5.53
0.43182	5.53
0.44848	5.53
0.46515	5.53
0.48182	5.53
0.49848	5.53
0.51515	5.53
0.53182	5.53
0.54848	5.53
0.56515	5.53
0.58182	5.53
0.59848	5.53
0.61515	5.53
0.63182	5.53
0.64848	5.53
0.66515	5.53
0.68182	5.53
0.69848	5.53
0.71515	5.53
0.73182	5.53
0.74848	5.53
0.76515	5.53
0.78182	5.53
0.79848	5.53
0.81515	5.53
0.83182	5.53
0.84848	5.53
0.86515	5.53
0.88182	5.53
0.89848	5.53
0.91515	5.53
0.93182	5.53
0.94848	5.53
0.96515	5.53
0.98182	5.53
0.99848	5.53
1.01515	5.53
1.03182	5.53
1.04848	5.53
1.06515	5.53
1.08182	5.53
1.09848	5.53
1.11515	5.53
1.13182	5.53
1.14848	5.53
1.16515	5.53
1.18182	5.53
1.19848	5.53
1.21515	5.53
1.23182	5.53
1.24848	5.53
1.26515	5.53
1.28182	5.53
1.29848	5.53
1.31515	5.53
1.33182	5.53
1.34848	5.53
1.36515	5.53
1.38182	5.53
1.39848	5.53
1.41515	5.53
1.43182	5.53
1.44848	5.53
1.46515	5.53
1.48182	5.53
1.49848	5.53
1.51515	5.53
1.53182	5.53
1.54848	5.53
1.56515	5.53
1.58182	5.53
1.59848	5.53
1.61515	5.53
1.63182	5.52
1.64848	5.52
1.66515	5.51
1.68182	5.49
1.69848	5.48
1.71515	5.47
1.73182	5.46
1.74848	5.45
1.76515	5.44
1.78182	5.43
1.79848	5.42
1.81515	5.41
1.83182	5.40
1.84848	5.39
1.86515	5.38
1.88182	5.37
1.89848	5.36
1.91515	5.35
1.93182	5.34
1.94848	5.33
1.96515	5.32
1.98182	5.31
1.99848	5.30
2.01515	5.29
2.03182	5.28
2.04848	5.27
2.06515	5.26
2.08182	5.25
2.09848	5.25
2.11515	5.24
2.13182	5.23
2.14848	5.22
2.16515	5.21
2.18182	5.20
2.19848	5.19
2.21515	5.18
2.23182	5.17
2.24848	5.16
2.26515	5.15
2.28182	5.14
2.29848	5.13
2.31515	5.12
2.33182	5.11
2.34848	5.11
2.36515	5.10
2.38182	5.09
2.39848	5.09
2.41515	5.09
2.43182	5.09
2.44848	5.09
2.46515	5.09
2.48182	5.09
2.49848	5.09
2.51515	5.09
2.53182	5.09
2.54848	5.09
2.56515	5.09
2.58182	5.09
2.59848	5.09
2.61515	5.09
2.63182	5.09
2.64848	5.09
2.66515	5.09
2.68182	5.09
2.69848	5.09
2.71515	5.09
2.73182	5.09
2.74848	5.09
2.76515	5.09
2.78182	5.09
2.79848	5.09
2.81515	5.09
2.83182	5.09
2.84848	5.09
2.86515	5.09
2.88182	5.09
2.89848	5.09
2.91515	5.09
2.93182	5.09
2.94848	5.09
2.96515	5.09
2.98182	5.09
2.99848	5.09
3.01515	5.08
3.03182	5.08
3.04848	5.08
3.06515	5.08
3.08182	5.08
3.09848	5.08
3.11515	5.08
3.13182	5.08
3.14848	5.08
3.16515	5.08
3.18182	5.08
3.19848	5.08
3.21515	5.08
3.23182	5.08
3.24848	5.08
3.26515	5.08
3.28182	5.08
3.29848	5.08
3.31515	5.08
3.33182	5.09
3.34848	5.09
3.36515	5.09
3.38182	5.09
3.39848	5.09
3.41515	5.09
3.43182	5.09
3.44848	5.09
3.46515	5.09
3.48182	5.09
3.49848	5.08
3.51515	5.08
3.53182	5.08
3.54848	5.08
3.56515	5.08
3.58182	5.08
3.59848	5.08
3.61515	5.08
3.63182	5.08
3.64848	5.08
3.66515	5.08
3.68182	5.08
3.69848	5.08
3.71515	5.08
3.73182	5.08
3.74848	5.08
3.76515	5.08
3.78182	5.08
3.79848	5.08
3.81515	5.08
3.83182	5.08
3.84848	5.08
3.86515	5.08
3.88182	5.08
3.89848	5.08
3.91515	5.08
3.93182	5.08
3.94848	5.08
3.96515	5.08
3.98182	5.08
3.99848	5.09

[Status Trace (Linear Velocity)]
Interval(msec)	1000
# of Points	240
Start Time(min)	0.015
End Time(min)	3.998
Intensity Units	
Intensity Multiplier	1
R.Time (min)	Intensity
0.01515	38.52
0.03182	37.48
0.04848	38.96
0.06515	40.22
0.08182	39.49
0.09848	39.01
0.11515	39.02
0.13182	39.03
0.14848	39.03
0.16515	39.03
0.18182	39.02
0.19848	39.02
0.21515	39.02
0.23182	39.02
0.24848	39.02
0.26515	39.02
0.28182	39.02
0.29848	39.02
0.31515	39.02
0.33182	39.02
0.34848	39.02
0.36515	39.02
0.38182	39.02
0.39848	39.02
0.41515	39.02
0.43182	39.02
0.44848	39.02
0.46515	39.02
0.48182	39.01
0.49848	39.02
0.51515	39.01
0.53182	39.01
0.54848	39.02
0.56515	39.02
0.58182	39.02
0.59848	39.02
0.61515	39.02
0.63182	39.02
0.64848	39.02
0.66515	39.02
0.68182	39.02
0.69848	39.02
0.71515	39.02
0.73182	39.02
0.74848	39.02
0.76515	39.02
0.78182	39.02
0.79848	39.02
0.81515	39.02
0.83182	39.02
0.84848	39.02
0.86515	39.02
0.88182	39.02
0.89848	39.02
0.91515	39.02
0.93182	39.02
0.94848	39.02
0.96515	39.02
0.98182	39.02
0.99848	39.02
1.01515	39.02
1.03182	39.02
1.04848	39.02
1.06515	39.02
1.08182	39.02
1.09848	39.02
1.11515	39.02
1.13182	39.02
1.14848	39.02
1.16515	39.02
1.18182	39.02
1.19848	39.02
1.21515	39.02
1.23182	39.02
1.24848	39.02
1.26515	39.02
1.28182	39.02
1.29848	39.02
1.31515	39.02
1.33182	39.02
1.34848	39.02
1.36515	39.02
1.38182	39.02
1.39848	39.02
1.41515	39.02
1.43182	39.02
1.44848	39.02
1.46515	39.02
1.48182	39.02
1.49848	39.02
1.51515	39.02
1.53182	39.02
1.54848	39.02
1.56515	39.02
1.58182	39.02
1.59848	39.02
1.61515	39.01
1.63182	39.00
1.64848	38.98
1.66515	38.95
1.68182	38.91
1.69848	38.88
1.71515	38.85
1.73182	38.81
1.74848	38.79
1.76515	38.75
1.78182	38.72
1.79848	38.69
1.81515	38.66
1.83182	38.62
1.84848	38.59
1.86515	38.56
1.88182	38.53
1.89848	38.50
1.91515	38.47
1.93182	38.44
1.94848	38.41
1.96515	38.38
1.98182	38.35
1.99848	38.32
2.01515	38.29
2.03182	38.26
2.04848	38.23
2.06515	38.20
2.08182	38.17
2.09848	38.14
2.11515	38.11
2.13182	38.08
2.14848	38.05
2.16515	38.02
2.18182	37.99
2.19848	37.96
2.21515	37.93
2.23182	37.90
2.24848	37.88
2.26515	37.85
2.28182	37.81
2.29848	37.78
2.31515	37.75
2.33182	37.72
2.34848	37.70
2.36515	37.67
2.38182	37.66
2.39848	37.66
2.41515	37.66
2.43182	37.66
2.44848	37.66
2.46515	37.66
2.48182	37.66
2.49848	37.66
2.51515	37.65
2.53182	37.65
2.54848	37.66
2.56515	37.65
2.58182	37.65
2.59848	37.65
2.61515	37.65
2.63182	37.65
2.64848	37.65
2.66515	37.65
2.68182	37.65
2.69848	37.65
2.71515	37.65
2.73182	37.65
2.74848	37.65
2.76515	37.65
2.78182	37.65
2.79848	37.65
2.81515	37.65
2.83182	37.65
2.84848	37.64
2.86515	37.64
2.88182	37.64
2.89848	37.64
2.91515	37.64
2.93182	37.64
2.94848	37.64
2.96515	37.64
2.98182	37.63
2.99848	37.63
3.01515	37.63
3.03182	37.63
3.04848	37.63
3.06515	37.63
3.08182	37.63
3.09848	37.63
3.11515	37.63
3.13182	37.63
3.14848	37.62
3.16515	37.62
3.18182	37.62
3.19848	37.63
3.21515	37.63
3.23182	37.63
3.24848	37.63
3.26515	37.63
3.28182	37.63
3.29848	37.63
3.31515	37.63
3.33182	37.63
3.34848	37.63
3.36515	37.63
3.38182	37.63
3.39848	37.63
3.41515	37.63
3.43182	37.63
3.44848	37.63
3.46515	37.63
3.48182	37.63
3.49848	37.63
3.51515	37.63
3.53182	37.63
3.54848	37.63
3.56515	37.63
3.58182	37.63
3.59848	37.63
3.61515	37.63
3.63182	37.63
3.64848	37.63
3.66515	37.63
3.68182	37.63
3.69848	37.63
3.71515	37.63
3.73182	37.63
3.74848	37.63
3.76515	37.63
3.78182	37.63
3.79848	37.63
3.81515	37.63
3.83182	37.63
3.84848	37.63
3.86515	37.63
3.88182	37.62
3.89848	37.62
3.91515	37.62
3.93182	37.63
3.94848	37.63
3.96515	37.63
3.98182	37.63
3.99848	37.63

