[Header]
Application Name	LabSolutions
Version	5.110
Data File Name	C:\Users\User\Desktop\GC Analyses\Jack\UIC Prairie Sampling\7.9.22\220909_046.gcd
Output Date	9/28/2022
Output Time	11:29:52 AM

[File Information]
Type	Data File
Generated	9/14/2022 10:47:11 AM
Generated by	System Administrator
Modified	9/14/2022 10:51:45 AM
Modified by	System Administrator

[Sample Information]
Operator Name	System Administrator
Acquired	9/14/2022 10:47:43 AM
Sample Type	1:Standard
Level	1
Sample Name	220909_Run
Sample ID	220909_Run
ISTD Amount1	1
ISTD Amount2	1
ISTD Amount3	1
ISTD Amount4	1
ISTD Amount5	1
ISTD Amount6	1
ISTD Amount7	1
ISTD Amount8	1
ISTD Amount9	1
ISTD Amount10	1
ISTD Amount11	1
ISTD Amount12	1
ISTD Amount13	1
ISTD Amount14	1
ISTD Amount15	1
ISTD Amount16	1
ISTD Amount17	1
ISTD Amount18	1
ISTD Amount19	1
ISTD Amount20	1
ISTD Amount21	1
ISTD Amount22	1
ISTD Amount23	1
ISTD Amount24	1
ISTD Amount25	1
ISTD Amount26	1
ISTD Amount27	1
ISTD Amount28	1
ISTD Amount29	1
ISTD Amount30	1
ISTD Amount31	1
ISTD Amount32	1
Sample Amount	1
Dilution Factor	1
Vial#	1
Injection Volume	1
Injection Count	1
Bar Code	

[Original Files]
Data File	C:\Users\User\Desktop\GC Analyses\Jack\220909\220909_046.gcd
Method File	C:\LabSolutions\Data\GHG_4min_2022\ghg3_togas_w_acet_4 min_new_int.gcm
Batch File	
Report Format File	c:\LabSolutions\System\DEFAULT.lsr

[File Description]


[Configuration]
Instrument Name	C0B7VH3-Instrument1
Instrument #	1
Line #	1
# of Detectors	3
Detector ID	DET#1	DET#2	DET#3
Detector Name	FID	PTCD	ECD
# of Channels	1	1	1

[Peak Table(Ch1)]
# of Peaks	3
Peak#	R.Time	I.Time	F.Time	Area	Height	A/H	Conc.	Mark	ID#	Name	k'	Plate #	Plate Ht.	Tailing	Resolution	Sep.Factor	Area Ratio	Height Ratio	Conc. %	Norm Conc.
1	1.468	1.424	1.534	9791	4042	2.423	100.000	   	1	CO	0.000	7277	20.612	1.538	0.000	0.000	0	0	16.667	16.667
2	1.571	1.534	1.641	20612	10457	1.971	100.000	 V 	2	CH4	0.070	11559	12.977	1.146	1.613	0.000	0	0	16.667	16.667
3	1.996	1.949	2.290	2158426	1050367	2.055	400.000	   	3	CO2	0.360	17595	8.525	1.283	7.170	5.143	0	0	66.667	66.667

[Peak Table(Ch2)]
# of Peaks	0

[Peak Table(Ch3)]
# of Peaks	2
Peak#	R.Time	I.Time	F.Time	Area	Height	A/H	Conc.	Mark	ID#	Name	k'	Plate #	Plate Ht.	Tailing	Resolution	Sep.Factor	Area Ratio	Height Ratio	Conc. %	Norm Conc.
1	2.583	2.462	2.653	4306	546	7.892	0.000	   			0.000	2966	50.566	0.000	0.000	0.000	0	0	0.000	0.000
2	2.880	2.653	3.287	64157	14961	4.288	1.000	 V 	1	N2O	0.115	12188	12.308	1.637	2.020	0.000	0	0	100.000	100.000

[Compound Results(Ch1)]
# of IDs	6
ID#	Name	R.Time	Area	Height	Conc.	Curve	3rd	2nd	1st	Constant	Area Ratio	Height Ratio	Conc. %	Norm Conc.
1	CO	1.468	9791	4042	100.000	Linear	0.000000e+00	0.000000e+00	9.791442e+001	0.000000e+00	0	0	16.667	16.667
2	CH4	1.571	20612	10457	100.000	Linear	0.000000e+00	0.000000e+00	2.061190e+002	0.000000e+00	0	0	16.667	16.667
3	CO2	1.996	2158426	1050367	400.000	Linear	0.000000e+00	0.000000e+00	5.396065e+003	0.000000e+00	0	0	66.667	66.667
4	Ethylene	0.000	0	0	0.000	Linear	0.000000e+00	0.000000e+00	0.000000e+00	0.000000e+00	0	0	0.000	0.000
5	Acetylene	0.000	0	0	0.000	Linear	0.000000e+00	0.000000e+00	0.000000e+00	0.000000e+00	0	0	0.000	0.000
6	Ethane	0.000	0	0	0.000	Linear	0.000000e+00	0.000000e+00	0.000000e+00	0.000000e+00	0	0	0.000	0.000

[Compound Results(Ch2)]
# of IDs	5
ID#	Name	R.Time	Area	Height	Conc.	Curve	3rd	2nd	1st	Constant	Area Ratio	Height Ratio	Conc. %	Norm Conc.
1	Hydrogen	0.000	0	0	0.000	Linear	0.000000e+00	0.000000e+00	0.000000e+00	0.000000e+00	0	0	0.000	0.000
2	Oxygen	0.000	0	0	0.000	Linear	0.000000e+00	0.000000e+00	0.000000e+00	0.000000e+00	0	0	0.000	0.000
3	Nitrogen	0.000	0	0	0.000	Linear	0.000000e+00	0.000000e+00	0.000000e+00	0.000000e+00	0	0	0.000	0.000
4	Methane	0.000	0	0	0.000	Linear	0.000000e+00	0.000000e+00	0.000000e+00	0.000000e+00	0	0	0.000	0.000
5	Carbon Monoxide	0.000	0	0	0.000	Linear	0.000000e+00	0.000000e+00	0.000000e+00	0.000000e+00	0	0	0.000	0.000

[Compound Results(Ch3)]
# of IDs	2
ID#	Name	R.Time	Area	Height	Conc.	Curve	3rd	2nd	1st	Constant	Area Ratio	Height Ratio	Conc. %	Norm Conc.
1	N2O	2.880	64157	14961	1.000	Linear	0.000000e+00	0.000000e+00	6.415743e+004	0.000000e+00	0	0	100.000	100.000
2	SF6	0.000	0	0	0.000	Linear	0.000000e+00	0.000000e+00	0.000000e+00	0.000000e+00	0	0	0.000	0.000

[Group Results(Ch1)]
# of Groups	0

[Group Results(Ch2)]
# of Groups	0

[Group Results(Ch3)]
# of Groups	0

[Chromatogram (Ch1)]
Interval(msec)	220
# of Points	1091
Start Time(min)	0.002
End Time(min)	3.998
R.Time (min)	Intensity
0.00167	6
0.00533	9
0.00900	10
0.01267	8
0.01633	6
0.02000	5
0.02367	5
0.02733	4
0.03100	2
0.03467	2
0.03833	4
0.04200	8
0.04567	13
0.04933	13
0.05300	11
0.05667	8
0.06033	9
0.06400	10
0.06767	9
0.07133	9
0.07500	7
0.07867	1
0.08233	-0
0.08600	2
0.08967	3
0.09333	3
0.09700	2
0.10067	1
0.10433	-3
0.10800	-6
0.11167	-6
0.11533	-5
0.11900	-6
0.12267	-9
0.12633	-11
0.13000	-9
0.13367	-8
0.13733	-7
0.14100	-7
0.14467	-4
0.14833	-3
0.15200	-3
0.15567	-0
0.15933	2
0.16300	2
0.16667	3
0.17033	6
0.17400	8
0.17767	10
0.18133	11
0.18500	9
0.18867	9
0.19233	14
0.19600	18
0.19967	20
0.20333	19
0.20700	17
0.21067	15
0.21433	16
0.21800	16
0.22167	14
0.22533	9
0.22900	6
0.23267	6
0.23633	8
0.24000	10
0.24367	8
0.24733	6
0.25100	5
0.25467	4
0.25833	5
0.26200	6
0.26567	6
0.26933	7
0.27300	7
0.27667	9
0.28033	8
0.28400	8
0.28767	10
0.29133	15
0.29500	19
0.29867	23
0.30233	29
0.30600	33
0.30967	33
0.31333	30
0.31700	24
0.32067	20
0.32433	17
0.32800	15
0.33167	13
0.33533	9
0.33900	4
0.34267	0
0.34633	-2
0.35000	-1
0.35367	2
0.35733	8
0.36100	13
0.36467	15
0.36833	16
0.37200	23
0.37567	33
0.37933	39
0.38300	37
0.38667	30
0.39033	25
0.39400	23
0.39767	25
0.40133	27
0.40500	29
0.40867	30
0.41233	28
0.41600	25
0.41967	21
0.42333	18
0.42700	16
0.43067	14
0.43433	11
0.43800	9
0.44167	9
0.44533	11
0.44900	16
0.45267	22
0.45633	27
0.46000	30
0.46367	31
0.46733	31
0.47100	33
0.47467	33
0.47833	31
0.48200	29
0.48567	31
0.48933	34
0.49300	37
0.49667	39
0.50033	37
0.50400	37
0.50767	39
0.51133	43
0.51500	42
0.51867	38
0.52233	32
0.52600	24
0.52967	17
0.53333	13
0.53700	11
0.54067	11
0.54433	12
0.54800	14
0.55167	17
0.55533	23
0.55900	28
0.56267	30
0.56633	33
0.57000	30
0.57367	30
0.57733	33
0.58100	36
0.58467	38
0.58833	37
0.59200	34
0.59567	32
0.59933	33
0.60300	35
0.60667	35
0.61033	37
0.61400	37
0.61767	37
0.62133	36
0.62500	34
0.62867	31
0.63233	29
0.63600	28
0.63967	29
0.64333	27
0.64700	23
0.65067	20
0.65433	21
0.65800	22
0.66167	22
0.66533	21
0.66900	20
0.67267	21
0.67633	24
0.68000	28
0.68367	31
0.68733	31
0.69100	31
0.69467	34
0.69833	38
0.70200	43
0.70567	48
0.70933	53
0.71300	54
0.71667	48
0.72033	43
0.72400	38
0.72767	35
0.73133	33
0.73500	35
0.73867	38
0.74233	39
0.74600	38
0.74967	45
0.75333	50
0.75700	41
0.76067	34
0.76433	31
0.76800	30
0.77167	29
0.77533	27
0.77900	29
0.78267	33
0.78633	38
0.79000	41
0.79367	38
0.79733	35
0.80100	38
0.80467	45
0.80833	51
0.81200	48
0.81567	37
0.81933	23
0.82300	13
0.82667	7
0.83033	7
0.83400	11
0.83767	19
0.84133	26
0.84500	26
0.84867	24
0.85233	24
0.85600	24
0.85967	24
0.86333	25
0.86700	27
0.87067	25
0.87433	25
0.87800	25
0.88167	26
0.88533	26
0.88900	27
0.89267	26
0.89633	24
0.90000	21
0.90367	19
0.90733	15
0.91100	10
0.91467	7
0.91833	6
0.92200	12
0.92567	20
0.92933	24
0.93300	24
0.93667	23
0.94033	25
0.94400	27
0.94767	29
0.95133	32
0.95500	34
0.95867	35
0.96233	36
0.96600	37
0.96967	39
0.97333	40
0.97700	38
0.98067	38
0.98433	41
0.98800	42
0.99167	40
0.99533	36
0.99900	35
1.00267	38
1.00633	44
1.01000	48
1.01367	47
1.01733	43
1.02100	38
1.02467	34
1.02833	30
1.03200	30
1.03567	32
1.03933	37
1.04300	39
1.04667	40
1.05033	43
1.05400	50
1.05767	56
1.06133	59
1.06500	60
1.06867	55
1.07233	46
1.07600	39
1.07967	34
1.08333	29
1.08700	26
1.09067	24
1.09433	25
1.09800	27
1.10167	28
1.10533	31
1.10900	35
1.11267	36
1.11633	35
1.12000	34
1.12367	35
1.12733	40
1.13100	47
1.13467	50
1.13833	49
1.14200	49
1.14567	43
1.14933	35
1.15300	27
1.15667	22
1.16033	22
1.16400	27
1.16767	31
1.17133	34
1.17500	36
1.17867	37
1.18233	35
1.18600	32
1.18967	25
1.19333	20
1.19700	16
1.20067	21
1.20433	31
1.20800	37
1.21167	34
1.21533	29
1.21900	25
1.22267	19
1.22633	15
1.23000	14
1.23367	18
1.23733	19
1.24100	26
1.24467	34
1.24833	44
1.25200	49
1.25567	51
1.25933	52
1.26300	51
1.26667	49
1.27033	45
1.27400	42
1.27767	41
1.28133	41
1.28500	38
1.28867	35
1.29233	32
1.29600	30
1.29967	33
1.30333	35
1.30700	38
1.31067	39
1.31433	36
1.31800	34
1.32167	35
1.32533	38
1.32900	42
1.33267	46
1.33633	50
1.34000	50
1.34367	48
1.34733	43
1.35100	37
1.35467	32
1.35833	32
1.36200	39
1.36567	44
1.36933	44
1.37300	42
1.37667	41
1.38033	41
1.38400	40
1.38767	39
1.39133	37
1.39500	34
1.39867	34
1.40233	36
1.40600	36
1.40967	33
1.41333	31
1.41700	32
1.42067	35
1.42433	39
1.42800	45
1.43167	49
1.43533	50
1.43900	69
1.44267	194
1.44633	594
1.45000	1297
1.45367	2126
1.45733	2889
1.46100	3481
1.46467	3876
1.46833	4074
1.47200	4072
1.47567	3880
1.47933	3542
1.48300	3114
1.48667	2648
1.49033	2187
1.49400	1765
1.49767	1400
1.50133	1093
1.50500	841
1.50867	638
1.51233	477
1.51600	348
1.51967	249
1.52333	175
1.52700	120
1.53067	83
1.53433	58
1.53800	78
1.54167	280
1.54533	942
1.54900	2284
1.55267	4183
1.55633	6234
1.56000	8057
1.56367	9447
1.56733	10296
1.57100	10474
1.57467	9872
1.57833	8579
1.58200	6904
1.58567	5209
1.58933	3738
1.59300	2583
1.59667	1737
1.60033	1149
1.60400	752
1.60767	486
1.61133	308
1.61500	195
1.61867	125
1.62233	79
1.62600	45
1.62967	24
1.63333	12
1.63700	7
1.64067	7
1.64433	2
1.64800	-6
1.65167	-11
1.65533	-12
1.65900	-10
1.66267	-8
1.66633	-11
1.67000	-18
1.67367	-23
1.67733	-24
1.68100	-25
1.68467	-26
1.68833	-26
1.69200	-22
1.69567	-21
1.69933	-18
1.70300	-15
1.70667	-9
1.71033	-3
1.71400	-2
1.71767	-5
1.72133	-10
1.72500	-15
1.72867	-14
1.73233	-6
1.73600	0
1.73967	2
1.74333	2
1.74700	-1
1.75067	-4
1.75433	-5
1.75800	-7
1.76167	-8
1.76533	-9
1.76900	-11
1.77267	-13
1.77633	-15
1.78000	-14
1.78367	-11
1.78733	-6
1.79100	-5
1.79467	-5
1.79833	-4
1.80200	-1
1.80567	4
1.80933	9
1.81300	12
1.81667	12
1.82033	12
1.82400	11
1.82767	10
1.83133	9
1.83500	11
1.83867	13
1.84233	13
1.84600	13
1.84967	10
1.85333	8
1.85700	9
1.86067	10
1.86433	11
1.86800	13
1.87167	16
1.87533	20
1.87900	21
1.88267	22
1.88633	25
1.89000	31
1.89367	37
1.89733	42
1.90100	41
1.90467	38
1.90833	36
1.91200	35
1.91567	34
1.91933	33
1.92300	30
1.92667	30
1.93033	30
1.93400	28
1.93767	24
1.94133	19
1.94500	14
1.94867	14
1.95233	35
1.95600	177
1.95967	1016
1.96333	4975
1.96700	19285
1.97067	58956
1.97433	143793
1.97800	285028
1.98167	472052
1.98533	674248
1.98900	855587
1.99267	987006
1.99633	1050422
2.00000	1039163
2.00367	958811
2.00733	827262
2.01100	670609
2.01467	514471
2.01833	377038
2.02200	266708
2.02567	183955
2.02933	124864
2.03300	84097
2.03667	56612
2.04033	38342
2.04400	26289
2.04767	18346
2.05133	13090
2.05500	9581
2.05867	7206
2.06233	5570
2.06600	4423
2.06967	3604
2.07333	3005
2.07700	2555
2.08067	2208
2.08433	1939
2.08800	1729
2.09167	1562
2.09533	1424
2.09900	1308
2.10267	1212
2.10633	1128
2.11000	1052
2.11367	985
2.11733	927
2.12100	876
2.12467	831
2.12833	791
2.13200	760
2.13567	734
2.13933	708
2.14300	682
2.14667	657
2.15033	634
2.15400	609
2.15767	583
2.16133	562
2.16500	549
2.16867	541
2.17233	534
2.17600	526
2.17967	515
2.18333	500
2.18700	484
2.19067	468
2.19433	453
2.19800	442
2.20167	433
2.20533	429
2.20900	425
2.21267	418
2.21633	408
2.22000	397
2.22367	386
2.22733	376
2.23100	368
2.23467	361
2.23833	356
2.24200	352
2.24567	349
2.24933	347
2.25300	346
2.25667	342
2.26033	334
2.26400	325
2.26767	320
2.27133	319
2.27500	317
2.27867	315
2.28233	312
2.28600	309
2.28967	306
2.29333	306
2.29700	308
2.30067	309
2.30433	313
2.30800	317
2.31167	317
2.31533	312
2.31900	304
2.32267	296
2.32633	292
2.33000	288
2.33367	284
2.33733	278
2.34100	272
2.34467	269
2.34833	266
2.35200	263
2.35567	263
2.35933	264
2.36300	267
2.36667	271
2.37033	271
2.37400	268
2.37767	260
2.38133	252
2.38500	249
2.38867	252
2.39233	259
2.39600	262
2.39967	262
2.40333	264
2.40700	272
2.41067	278
2.41433	282
2.41800	282
2.42167	280
2.42533	277
2.42900	275
2.43267	275
2.43633	278
2.44000	277
2.44367	274
2.44733	269
2.45100	265
2.45467	262
2.45833	261
2.46200	258
2.46567	256
2.46933	254
2.47300	252
2.47667	251
2.48033	250
2.48400	252
2.48767	255
2.49133	255
2.49500	252
2.49867	248
2.50233	243
2.50600	240
2.50967	238
2.51333	239
2.51700	245
2.52067	252
2.52433	257
2.52800	259
2.53167	259
2.53533	257
2.53900	253
2.54267	247
2.54633	244
2.55000	242
2.55367	242
2.55733	242
2.56100	239
2.56467	238
2.56833	237
2.57200	237
2.57567	236
2.57933	237
2.58300	240
2.58667	242
2.59033	240
2.59400	234
2.59767	228
2.60133	226
2.60500	228
2.60867	231
2.61233	232
2.61600	231
2.61967	228
2.62333	225
2.62700	223
2.63067	221
2.63433	220
2.63800	217
2.64167	214
2.64533	214
2.64900	216
2.65267	221
2.65633	226
2.66000	229
2.66367	229
2.66733	227
2.67100	224
2.67467	223
2.67833	223
2.68200	226
2.68567	227
2.68933	228
2.69300	230
2.69667	230
2.70033	229
2.70400	229
2.70767	230
2.71133	233
2.71500	235
2.71867	234
2.72233	234
2.72600	232
2.72967	231
2.73333	229
2.73700	229
2.74067	234
2.74433	241
2.74800	241
2.75167	237
2.75533	232
2.75900	226
2.76267	220
2.76633	216
2.77000	217
2.77367	221
2.77733	229
2.78100	238
2.78467	245
2.78833	244
2.79200	238
2.79567	232
2.79933	228
2.80300	224
2.80667	223
2.81033	221
2.81400	220
2.81767	222
2.82133	227
2.82500	237
2.82867	248
2.83233	254
2.83600	256
2.83967	255
2.84333	250
2.84700	243
2.85067	237
2.85433	236
2.85800	239
2.86167	239
2.86533	235
2.86900	231
2.87267	226
2.87633	225
2.88000	230
2.88367	236
2.88733	239
2.89100	238
2.89467	238
2.89833	239
2.90200	240
2.90567	242
2.90933	249
2.91300	254
2.91667	253
2.92033	249
2.92400	247
2.92767	244
2.93133	242
2.93500	243
2.93867	245
2.94233	246
2.94600	247
2.94967	247
2.95333	247
2.95700	248
2.96067	250
2.96433	253
2.96800	256
2.97167	261
2.97533	264
2.97900	262
2.98267	254
2.98633	248
2.99000	244
2.99367	244
2.99733	250
3.00100	256
3.00467	262
3.00833	268
3.01200	274
3.01567	280
3.01933	282
3.02300	280
3.02667	275
3.03033	269
3.03400	264
3.03767	261
3.04133	258
3.04500	255
3.04867	253
3.05233	252
3.05600	253
3.05967	254
3.06333	258
3.06700	261
3.07067	262
3.07433	262
3.07800	263
3.08167	263
3.08533	259
3.08900	258
3.09267	261
3.09633	263
3.10000	263
3.10367	262
3.10733	262
3.11100	265
3.11467	264
3.11833	260
3.12200	259
3.12567	263
3.12933	266
3.13300	265
3.13667	263
3.14033	262
3.14400	261
3.14767	263
3.15133	266
3.15500	265
3.15867	263
3.16233	260
3.16600	257
3.16967	253
3.17333	247
3.17700	241
3.18067	238
3.18433	240
3.18800	242
3.19167	245
3.19533	249
3.19900	255
3.20267	260
3.20633	263
3.21000	267
3.21367	268
3.21733	267
3.22100	264
3.22467	263
3.22833	262
3.23200	261
3.23567	257
3.23933	254
3.24300	255
3.24667	258
3.25033	260
3.25400	260
3.25767	259
3.26133	258
3.26500	257
3.26867	258
3.27233	259
3.27600	262
3.27967	264
3.28333	263
3.28700	260
3.29067	259
3.29433	256
3.29800	255
3.30167	255
3.30533	256
3.30900	258
3.31267	261
3.31633	266
3.32000	269
3.32367	270
3.32733	269
3.33100	269
3.33467	265
3.33833	256
3.34200	248
3.34567	246
3.34933	248
3.35300	252
3.35667	257
3.36033	262
3.36400	262
3.36767	257
3.37133	252
3.37500	249
3.37867	247
3.38233	246
3.38600	248
3.38967	255
3.39333	263
3.39700	269
3.40067	270
3.40433	269
3.40800	265
3.41167	262
3.41533	260
3.41900	262
3.42267	264
3.42633	261
3.43000	255
3.43367	248
3.43733	242
3.44100	238
3.44467	236
3.44833	241
3.45200	248
3.45567	257
3.45933	263
3.46300	264
3.46667	261
3.47033	257
3.47400	252
3.47767	249
3.48133	249
3.48500	248
3.48867	244
3.49233	239
3.49600	232
3.49967	225
3.50333	220
3.50700	218
3.51067	220
3.51433	224
3.51800	230
3.52167	235
3.52533	238
3.52900	242
3.53267	248
3.53633	255
3.54000	259
3.54367	258
3.54733	256
3.55100	253
3.55467	251
3.55833	250
3.56200	249
3.56567	244
3.56933	238
3.57300	239
3.57667	245
3.58033	250
3.58400	253
3.58767	254
3.59133	255
3.59500	255
3.59867	252
3.60233	247
3.60600	245
3.60967	248
3.61333	254
3.61700	258
3.62067	263
3.62433	267
3.62800	267
3.63167	266
3.63533	267
3.63900	269
3.64267	269
3.64633	265
3.65000	263
3.65367	262
3.65733	261
3.66100	259
3.66467	261
3.66833	262
3.67200	267
3.67567	274
3.67933	278
3.68300	282
3.68667	286
3.69033	289
3.69400	290
3.69767	293
3.70133	294
3.70500	290
3.70867	282
3.71233	276
3.71600	274
3.71967	276
3.72333	278
3.72700	278
3.73067	276
3.73433	272
3.73800	273
3.74167	276
3.74533	281
3.74900	282
3.75267	278
3.75633	272
3.76000	265
3.76367	257
3.76733	248
3.77100	245
3.77467	246
3.77833	244
3.78200	240
3.78567	240
3.78933	245
3.79300	254
3.79667	264
3.80033	275
3.80400	278
3.80767	275
3.81133	276
3.81500	277
3.81867	274
3.82233	257
3.82600	243
3.82967	231
3.83333	226
3.83700	228
3.84067	232
3.84433	236
3.84800	242
3.85167	247
3.85533	247
3.85900	245
3.86267	245
3.86633	249
3.87000	255
3.87367	259
3.87733	262
3.88100	262
3.88467	261
3.88833	257
3.89200	249
3.89567	243
3.89933	240
3.90300	242
3.90667	246
3.91033	244
3.91400	241
3.91767	242
3.92133	243
3.92500	242
3.92867	239
3.93233	230
3.93600	223
3.93967	220
3.94333	224
3.94700	230
3.95067	234
3.95433	236
3.95800	239
3.96167	241
3.96533	245
3.96900	248
3.97267	250
3.97633	246
3.98000	240
3.98367	241
3.98733	242
3.99100	240
3.99467	241
3.99833	244

[Chromatogram (Ch2)]
Interval(msec)	220
# of Points	1091
Start Time(min)	0.002
End Time(min)	3.998
R.Time (min)	Intensity
0.00167	-1
0.00533	-1
0.00900	-1
0.01267	-1
0.01633	-2
0.02000	-2
0.02367	-3
0.02733	-3
0.03100	-3
0.03467	-3
0.03833	-4
0.04200	-4
0.04567	-4
0.04933	-5
0.05300	-5
0.05667	-5
0.06033	-5
0.06400	-5
0.06767	-6
0.07133	-6
0.07500	-6
0.07867	-6
0.08233	-6
0.08600	-6
0.08967	-6
0.09333	-7
0.09700	-7
0.10067	-7
0.10433	-7
0.10800	-7
0.11167	-7
0.11533	-7
0.11900	-8
0.12267	-8
0.12633	-8
0.13000	-8
0.13367	-9
0.13733	-9
0.14100	-10
0.14467	-10
0.14833	-11
0.15200	-11
0.15567	-12
0.15933	-12
0.16300	-12
0.16667	-12
0.17033	-12
0.17400	-12
0.17767	-13
0.18133	-13
0.18500	-13
0.18867	-13
0.19233	-14
0.19600	-14
0.19967	-14
0.20333	-15
0.20700	-15
0.21067	-15
0.21433	-15
0.21800	-15
0.22167	-15
0.22533	-15
0.22900	-16
0.23267	-16
0.23633	-17
0.24000	-17
0.24367	-17
0.24733	-17
0.25100	-16
0.25467	-16
0.25833	-16
0.26200	-16
0.26567	-17
0.26933	-17
0.27300	-17
0.27667	-16
0.28033	-16
0.28400	-16
0.28767	-17
0.29133	-17
0.29500	-17
0.29867	-17
0.30233	-18
0.30600	-18
0.30967	-19
0.31333	-19
0.31700	-19
0.32067	-20
0.32433	-21
0.32800	-21
0.33167	-22
0.33533	-23
0.33900	-23
0.34267	-24
0.34633	-24
0.35000	-25
0.35367	-25
0.35733	-26
0.36100	-26
0.36467	-27
0.36833	-27
0.37200	-27
0.37567	-28
0.37933	-28
0.38300	-28
0.38667	-28
0.39033	-28
0.39400	-28
0.39767	-28
0.40133	-28
0.40500	-28
0.40867	-29
0.41233	-29
0.41600	-29
0.41967	-29
0.42333	-29
0.42700	-29
0.43067	-30
0.43433	-30
0.43800	-30
0.44167	-30
0.44533	-30
0.44900	-30
0.45267	-30
0.45633	-31
0.46000	-31
0.46367	-31
0.46733	-31
0.47100	-32
0.47467	-32
0.47833	-32
0.48200	-33
0.48567	-33
0.48933	-33
0.49300	-34
0.49667	-34
0.50033	-34
0.50400	-34
0.50767	-35
0.51133	-35
0.51500	-34
0.51867	-34
0.52233	-34
0.52600	-34
0.52967	-35
0.53333	-35
0.53700	-35
0.54067	-35
0.54433	-36
0.54800	-36
0.55167	-36
0.55533	-37
0.55900	-37
0.56267	-37
0.56633	-37
0.57000	-37
0.57367	-37
0.57733	-37
0.58100	-38
0.58467	-38
0.58833	-38
0.59200	-39
0.59567	-39
0.59933	-39
0.60300	-40
0.60667	-40
0.61033	-40
0.61400	-41
0.61767	-42
0.62133	-42
0.62500	-43
0.62867	-44
0.63233	-44
0.63600	-45
0.63967	-45
0.64333	-46
0.64700	-46
0.65067	-46
0.65433	-46
0.65800	-46
0.66167	-46
0.66533	-46
0.66900	-46
0.67267	-47
0.67633	-47
0.68000	-47
0.68367	-48
0.68733	-48
0.69100	-48
0.69467	-49
0.69833	-49
0.70200	-49
0.70567	-49
0.70933	-49
0.71300	-49
0.71667	-49
0.72033	-49
0.72400	-49
0.72767	-49
0.73133	-49
0.73500	-48
0.73867	-48
0.74233	-48
0.74600	-48
0.74967	-49
0.75333	-49
0.75700	-49
0.76067	-49
0.76433	-49
0.76800	-49
0.77167	-50
0.77533	-50
0.77900	-50
0.78267	-50
0.78633	-50
0.79000	-51
0.79367	-51
0.79733	-51
0.80100	-52
0.80467	-52
0.80833	-52
0.81200	-52
0.81567	-53
0.81933	-53
0.82300	-53
0.82667	-53
0.83033	-53
0.83400	-54
0.83767	-54
0.84133	-54
0.84500	-55
0.84867	-55
0.85233	-55
0.85600	-56
0.85967	-56
0.86333	-56
0.86700	-56
0.87067	-56
0.87433	-56
0.87800	-57
0.88167	-57
0.88533	-57
0.88900	-57
0.89267	-57
0.89633	-57
0.90000	-58
0.90367	-58
0.90733	-58
0.91100	-58
0.91467	-59
0.91833	-59
0.92200	-59
0.92567	-59
0.92933	-59
0.93300	-60
0.93667	-60
0.94033	-60
0.94400	-60
0.94767	-60
0.95133	-60
0.95500	-61
0.95867	-61
0.96233	-61
0.96600	-62
0.96967	-62
0.97333	-62
0.97700	-62
0.98067	-62
0.98433	-63
0.98800	-63
0.99167	-63
0.99533	-63
0.99900	-64
1.00267	-64
1.00633	-64
1.01000	-64
1.01367	-65
1.01733	-65
1.02100	-65
1.02467	-66
1.02833	-66
1.03200	-66
1.03567	-67
1.03933	-67
1.04300	-67
1.04667	-67
1.05033	-68
1.05400	-68
1.05767	-68
1.06133	-68
1.06500	-69
1.06867	-69
1.07233	-69
1.07600	-69
1.07967	-69
1.08333	-69
1.08700	-69
1.09067	-70
1.09433	-70
1.09800	-70
1.10167	-71
1.10533	-71
1.10900	-71
1.11267	-71
1.11633	-72
1.12000	-72
1.12367	-72
1.12733	-72
1.13100	-73
1.13467	-73
1.13833	-73
1.14200	-74
1.14567	-74
1.14933	-75
1.15300	-75
1.15667	-75
1.16033	-76
1.16400	-76
1.16767	-76
1.17133	-76
1.17500	-77
1.17867	-77
1.18233	-77
1.18600	-76
1.18967	-76
1.19333	-76
1.19700	-76
1.20067	-76
1.20433	-76
1.20800	-75
1.21167	-75
1.21533	-76
1.21900	-76
1.22267	-76
1.22633	-76
1.23000	-76
1.23367	-76
1.23733	-77
1.24100	-77
1.24467	-77
1.24833	-77
1.25200	-78
1.25567	-78
1.25933	-79
1.26300	-79
1.26667	-80
1.27033	-80
1.27400	-81
1.27767	-81
1.28133	-82
1.28500	-82
1.28867	-82
1.29233	-82
1.29600	-82
1.29967	-82
1.30333	-81
1.30700	-81
1.31067	-81
1.31433	-81
1.31800	-81
1.32167	-81
1.32533	-81
1.32900	-81
1.33267	-81
1.33633	-80
1.34000	-80
1.34367	-80
1.34733	-80
1.35100	-80
1.35467	-80
1.35833	-80
1.36200	-81
1.36567	-81
1.36933	-81
1.37300	-81
1.37667	-81
1.38033	-81
1.38400	-81
1.38767	-82
1.39133	-82
1.39500	-82
1.39867	-82
1.40233	-82
1.40600	-83
1.40967	-83
1.41333	-83
1.41700	-84
1.42067	-84
1.42433	-84
1.42800	-85
1.43167	-85
1.43533	-85
1.43900	-86
1.44267	-86
1.44633	-86
1.45000	-87
1.45367	-87
1.45733	-87
1.46100	-87
1.46467	-88
1.46833	-88
1.47200	-88
1.47567	-88
1.47933	-88
1.48300	-88
1.48667	-89
1.49033	-89
1.49400	-89
1.49767	-89
1.50133	-90
1.50500	-90
1.50867	-90
1.51233	-90
1.51600	-91
1.51967	-91
1.52333	-92
1.52700	-92
1.53067	-92
1.53433	-92
1.53800	-92
1.54167	-92
1.54533	-92
1.54900	-93
1.55267	-93
1.55633	-93
1.56000	-93
1.56367	-93
1.56733	-93
1.57100	-93
1.57467	-93
1.57833	-93
1.58200	-93
1.58567	-93
1.58933	-93
1.59300	-93
1.59667	-93
1.60033	-94
1.60400	-95
1.60767	-97
1.61133	-99
1.61500	-101
1.61867	-103
1.62233	-106
1.62600	-109
1.62967	-112
1.63333	-116
1.63700	-119
1.64067	-123
1.64433	-126
1.64800	-130
1.65167	-134
1.65533	-138
1.65900	-143
1.66267	-147
1.66633	-152
1.67000	-157
1.67367	-163
1.67733	-168
1.68100	-174
1.68467	-179
1.68833	-184
1.69200	-188
1.69567	-191
1.69933	-195
1.70300	-197
1.70667	-200
1.71033	-203
1.71400	-205
1.71767	-207
1.72133	-209
1.72500	-211
1.72867	-213
1.73233	-214
1.73600	-215
1.73967	-216
1.74333	-217
1.74700	-218
1.75067	-218
1.75433	-218
1.75800	-218
1.76167	-218
1.76533	-218
1.76900	-218
1.77267	-219
1.77633	-220
1.78000	-221
1.78367	-222
1.78733	-223
1.79100	-224
1.79467	-224
1.79833	-225
1.80200	-226
1.80567	-226
1.80933	-227
1.81300	-227
1.81667	-228
1.82033	-228
1.82400	-227
1.82767	-226
1.83133	-226
1.83500	-225
1.83867	-225
1.84233	-225
1.84600	-225
1.84967	-225
1.85333	-225
1.85700	-226
1.86067	-226
1.86433	-225
1.86800	-225
1.87167	-226
1.87533	-226
1.87900	-226
1.88267	-227
1.88633	-227
1.89000	-227
1.89367	-226
1.89733	-226
1.90100	-226
1.90467	-226
1.90833	-226
1.91200	-226
1.91567	-226
1.91933	-225
1.92300	-225
1.92667	-225
1.93033	-225
1.93400	-224
1.93767	-224
1.94133	-224
1.94500	-223
1.94867	-223
1.95233	-224
1.95600	-224
1.95967	-225
1.96333	-225
1.96700	-226
1.97067	-227
1.97433	-227
1.97800	-227
1.98167	-227
1.98533	-227
1.98900	-226
1.99267	-226
1.99633	-226
2.00000	-226
2.00367	-226
2.00733	-226
2.01100	-226
2.01467	-226
2.01833	-225
2.02200	-225
2.02567	-225
2.02933	-225
2.03300	-226
2.03667	-226
2.04033	-226
2.04400	-226
2.04767	-227
2.05133	-227
2.05500	-227
2.05867	-227
2.06233	-227
2.06600	-227
2.06967	-226
2.07333	-226
2.07700	-225
2.08067	-224
2.08433	-224
2.08800	-223
2.09167	-223
2.09533	-222
2.09900	-222
2.10267	-223
2.10633	-223
2.11000	-223
2.11367	-223
2.11733	-223
2.12100	-223
2.12467	-223
2.12833	-223
2.13200	-223
2.13567	-222
2.13933	-222
2.14300	-222
2.14667	-222
2.15033	-222
2.15400	-222
2.15767	-222
2.16133	-221
2.16500	-220
2.16867	-220
2.17233	-220
2.17600	-220
2.17967	-220
2.18333	-220
2.18700	-219
2.19067	-218
2.19433	-218
2.19800	-217
2.20167	-217
2.20533	-217
2.20900	-216
2.21267	-217
2.21633	-217
2.22000	-217
2.22367	-218
2.22733	-218
2.23100	-217
2.23467	-217
2.23833	-217
2.24200	-217
2.24567	-218
2.24933	-218
2.25300	-218
2.25667	-219
2.26033	-218
2.26400	-218
2.26767	-218
2.27133	-217
2.27500	-217
2.27867	-216
2.28233	-216
2.28600	-216
2.28967	-216
2.29333	-216
2.29700	-216
2.30067	-216
2.30433	-216
2.30800	-216
2.31167	-216
2.31533	-215
2.31900	-215
2.32267	-214
2.32633	-214
2.33000	-215
2.33367	-215
2.33733	-215
2.34100	-215
2.34467	-215
2.34833	-214
2.35200	-213
2.35567	-212
2.35933	-212
2.36300	-211
2.36667	-211
2.37033	-210
2.37400	-208
2.37767	-206
2.38133	-203
2.38500	-200
2.38867	-196
2.39233	-191
2.39600	-187
2.39967	-182
2.40333	-177
2.40700	-172
2.41067	-167
2.41433	-163
2.41800	-160
2.42167	-156
2.42533	-154
2.42900	-151
2.43267	-149
2.43633	-147
2.44000	-144
2.44367	-142
2.44733	-140
2.45100	-138
2.45467	-136
2.45833	-134
2.46200	-133
2.46567	-132
2.46933	-131
2.47300	-130
2.47667	-129
2.48033	-128
2.48400	-127
2.48767	-126
2.49133	-125
2.49500	-125
2.49867	-125
2.50233	-125
2.50600	-125
2.50967	-125
2.51333	-124
2.51700	-123
2.52067	-122
2.52433	-122
2.52800	-121
2.53167	-121
2.53533	-121
2.53900	-120
2.54267	-120
2.54633	-120
2.55000	-120
2.55367	-120
2.55733	-120
2.56100	-121
2.56467	-121
2.56833	-121
2.57200	-121
2.57567	-121
2.57933	-120
2.58300	-120
2.58667	-120
2.59033	-120
2.59400	-119
2.59767	-119
2.60133	-119
2.60500	-119
2.60867	-118
2.61233	-118
2.61600	-118
2.61967	-118
2.62333	-118
2.62700	-118
2.63067	-118
2.63433	-118
2.63800	-118
2.64167	-118
2.64533	-118
2.64900	-118
2.65267	-118
2.65633	-118
2.66000	-118
2.66367	-118
2.66733	-118
2.67100	-118
2.67467	-117
2.67833	-117
2.68200	-117
2.68567	-117
2.68933	-117
2.69300	-117
2.69667	-117
2.70033	-117
2.70400	-117
2.70767	-117
2.71133	-117
2.71500	-117
2.71867	-117
2.72233	-117
2.72600	-117
2.72967	-117
2.73333	-117
2.73700	-117
2.74067	-117
2.74433	-117
2.74800	-117
2.75167	-117
2.75533	-117
2.75900	-118
2.76267	-119
2.76633	-120
2.77000	-120
2.77367	-121
2.77733	-122
2.78100	-122
2.78467	-122
2.78833	-123
2.79200	-123
2.79567	-123
2.79933	-123
2.80300	-123
2.80667	-123
2.81033	-123
2.81400	-122
2.81767	-122
2.82133	-122
2.82500	-121
2.82867	-121
2.83233	-121
2.83600	-121
2.83967	-122
2.84333	-123
2.84700	-126
2.85067	-131
2.85433	-139
2.85800	-150
2.86167	-166
2.86533	-186
2.86900	-212
2.87267	-242
2.87633	-278
2.88000	-319
2.88367	-365
2.88733	-416
2.89100	-471
2.89467	-531
2.89833	-594
2.90200	-661
2.90567	-731
2.90933	-804
2.91300	-879
2.91667	-956
2.92033	-1035
2.92400	-1117
2.92767	-1200
2.93133	-1284
2.93500	-1370
2.93867	-1457
2.94233	-1543
2.94600	-1618
2.94967	-1668
2.95333	-1686
2.95700	-1668
2.96067	-1617
2.96433	-1541
2.96800	-1446
2.97167	-1340
2.97533	-1229
2.97900	-1119
2.98267	-1012
2.98633	-911
2.99000	-818
2.99367	-733
2.99733	-657
3.00100	-589
3.00467	-529
3.00833	-476
3.01200	-430
3.01567	-389
3.01933	-355
3.02300	-325
3.02667	-299
3.03033	-277
3.03400	-258
3.03767	-242
3.04133	-228
3.04500	-216
3.04867	-206
3.05233	-197
3.05600	-189
3.05967	-183
3.06333	-178
3.06700	-173
3.07067	-169
3.07433	-166
3.07800	-163
3.08167	-160
3.08533	-157
3.08900	-155
3.09267	-154
3.09633	-152
3.10000	-151
3.10367	-150
3.10733	-149
3.11100	-149
3.11467	-148
3.11833	-147
3.12200	-146
3.12567	-146
3.12933	-145
3.13300	-144
3.13667	-144
3.14033	-143
3.14400	-143
3.14767	-143
3.15133	-142
3.15500	-142
3.15867	-142
3.16233	-142
3.16600	-141
3.16967	-141
3.17333	-141
3.17700	-141
3.18067	-140
3.18433	-140
3.18800	-140
3.19167	-140
3.19533	-140
3.19900	-140
3.20267	-140
3.20633	-140
3.21000	-140
3.21367	-140
3.21733	-140
3.22100	-140
3.22467	-140
3.22833	-141
3.23200	-141
3.23567	-141
3.23933	-141
3.24300	-141
3.24667	-141
3.25033	-141
3.25400	-141
3.25767	-141
3.26133	-141
3.26500	-141
3.26867	-141
3.27233	-141
3.27600	-140
3.27967	-140
3.28333	-139
3.28700	-139
3.29067	-138
3.29433	-138
3.29800	-138
3.30167	-137
3.30533	-137
3.30900	-137
3.31267	-136
3.31633	-136
3.32000	-136
3.32367	-136
3.32733	-135
3.33100	-135
3.33467	-136
3.33833	-136
3.34200	-136
3.34567	-136
3.34933	-136
3.35300	-136
3.35667	-136
3.36033	-136
3.36400	-137
3.36767	-137
3.37133	-137
3.37500	-137
3.37867	-137
3.38233	-137
3.38600	-137
3.38967	-137
3.39333	-138
3.39700	-138
3.40067	-138
3.40433	-138
3.40800	-138
3.41167	-138
3.41533	-138
3.41900	-139
3.42267	-139
3.42633	-139
3.43000	-139
3.43367	-139
3.43733	-140
3.44100	-140
3.44467	-140
3.44833	-140
3.45200	-140
3.45567	-140
3.45933	-140
3.46300	-140
3.46667	-140
3.47033	-140
3.47400	-141
3.47767	-141
3.48133	-141
3.48500	-141
3.48867	-141
3.49233	-142
3.49600	-142
3.49967	-142
3.50333	-142
3.50700	-142
3.51067	-142
3.51433	-142
3.51800	-142
3.52167	-142
3.52533	-143
3.52900	-143
3.53267	-143
3.53633	-143
3.54000	-143
3.54367	-143
3.54733	-143
3.55100	-144
3.55467	-144
3.55833	-144
3.56200	-145
3.56567	-145
3.56933	-145
3.57300	-145
3.57667	-145
3.58033	-144
3.58400	-144
3.58767	-144
3.59133	-144
3.59500	-144
3.59867	-144
3.60233	-144
3.60600	-144
3.60967	-144
3.61333	-144
3.61700	-144
3.62067	-144
3.62433	-144
3.62800	-144
3.63167	-144
3.63533	-144
3.63900	-144
3.64267	-145
3.64633	-145
3.65000	-145
3.65367	-145
3.65733	-145
3.66100	-145
3.66467	-145
3.66833	-145
3.67200	-145
3.67567	-145
3.67933	-145
3.68300	-145
3.68667	-145
3.69033	-145
3.69400	-145
3.69767	-145
3.70133	-145
3.70500	-146
3.70867	-146
3.71233	-146
3.71600	-146
3.71967	-147
3.72333	-147
3.72700	-147
3.73067	-147
3.73433	-147
3.73800	-147
3.74167	-147
3.74533	-147
3.74900	-148
3.75267	-148
3.75633	-148
3.76000	-148
3.76367	-148
3.76733	-149
3.77100	-149
3.77467	-149
3.77833	-149
3.78200	-149
3.78567	-149
3.78933	-149
3.79300	-150
3.79667	-150
3.80033	-150
3.80400	-150
3.80767	-150
3.81133	-150
3.81500	-151
3.81867	-151
3.82233	-151
3.82600	-151
3.82967	-152
3.83333	-152
3.83700	-152
3.84067	-152
3.84433	-152
3.84800	-152
3.85167	-152
3.85533	-153
3.85900	-153
3.86267	-153
3.86633	-153
3.87000	-153
3.87367	-153
3.87733	-153
3.88100	-153
3.88467	-153
3.88833	-153
3.89200	-153
3.89567	-153
3.89933	-153
3.90300	-154
3.90667	-154
3.91033	-154
3.91400	-154
3.91767	-154
3.92133	-154
3.92500	-153
3.92867	-153
3.93233	-153
3.93600	-153
3.93967	-153
3.94333	-153
3.94700	-152
3.95067	-152
3.95433	-152
3.95800	-152
3.96167	-152
3.96533	-153
3.96900	-153
3.97267	-153
3.97633	-153
3.98000	-153
3.98367	-153
3.98733	-153
3.99100	-153
3.99467	-153
3.99833	-153

[Chromatogram (Ch3)]
Interval(msec)	220
# of Points	1091
Start Time(min)	0.002
End Time(min)	3.998
R.Time (min)	Intensity
0.00167	-0
0.00533	-0
0.00900	2
0.01267	6
0.01633	8
0.02000	5
0.02367	3
0.02733	1
0.03100	-0
0.03467	-0
0.03833	1
0.04200	1
0.04567	0
0.04933	1
0.05300	4
0.05667	5
0.06033	3
0.06400	1
0.06767	3
0.07133	3
0.07500	4
0.07867	3
0.08233	1
0.08600	3
0.08967	6
0.09333	6
0.09700	5
0.10067	2
0.10433	3
0.10800	4
0.11167	5
0.11533	5
0.11900	5
0.12267	4
0.12633	4
0.13000	6
0.13367	8
0.13733	11
0.14100	11
0.14467	10
0.14833	10
0.15200	11
0.15567	11
0.15933	10
0.16300	7
0.16667	7
0.17033	8
0.17400	8
0.17767	8
0.18133	8
0.18500	8
0.18867	9
0.19233	8
0.19600	9
0.19967	7
0.20333	7
0.20700	10
0.21067	10
0.21433	10
0.21800	10
0.22167	10
0.22533	10
0.22900	12
0.23267	15
0.23633	15
0.24000	14
0.24367	14
0.24733	15
0.25100	13
0.25467	11
0.25833	9
0.26200	8
0.26567	8
0.26933	9
0.27300	10
0.27667	10
0.28033	11
0.28400	13
0.28767	13
0.29133	14
0.29500	13
0.29867	14
0.30233	14
0.30600	14
0.30967	14
0.31333	15
0.31700	16
0.32067	15
0.32433	16
0.32800	17
0.33167	17
0.33533	16
0.33900	14
0.34267	14
0.34633	13
0.35000	12
0.35367	11
0.35733	9
0.36100	7
0.36467	6
0.36833	8
0.37200	12
0.37567	16
0.37933	17
0.38300	16
0.38667	15
0.39033	16
0.39400	17
0.39767	16
0.40133	16
0.40500	19
0.40867	19
0.41233	18
0.41600	16
0.41967	14
0.42333	13
0.42700	14
0.43067	15
0.43433	14
0.43800	17
0.44167	18
0.44533	19
0.44900	19
0.45267	18
0.45633	17
0.46000	17
0.46367	18
0.46733	19
0.47100	19
0.47467	17
0.47833	18
0.48200	19
0.48567	17
0.48933	16
0.49300	16
0.49667	16
0.50033	17
0.50400	18
0.50767	20
0.51133	24
0.51500	24
0.51867	21
0.52233	19
0.52600	18
0.52967	20
0.53333	23
0.53700	24
0.54067	23
0.54433	20
0.54800	18
0.55167	17
0.55533	19
0.55900	19
0.56267	17
0.56633	16
0.57000	18
0.57367	20
0.57733	19
0.58100	19
0.58467	19
0.58833	20
0.59200	20
0.59567	19
0.59933	18
0.60300	18
0.60667	16
0.61033	17
0.61400	17
0.61767	18
0.62133	19
0.62500	20
0.62867	21
0.63233	21
0.63600	20
0.63967	18
0.64333	19
0.64700	20
0.65067	21
0.65433	20
0.65800	19
0.66167	20
0.66533	23
0.66900	23
0.67267	24
0.67633	25
0.68000	25
0.68367	24
0.68733	23
0.69100	23
0.69467	22
0.69833	23
0.70200	24
0.70567	25
0.70933	26
0.71300	27
0.71667	28
0.72033	27
0.72400	26
0.72767	25
0.73133	27
0.73500	30
0.73867	30
0.74233	27
0.74600	27
0.74967	25
0.75333	26
0.75700	24
0.76067	23
0.76433	21
0.76800	22
0.77167	22
0.77533	23
0.77900	23
0.78267	21
0.78633	22
0.79000	23
0.79367	24
0.79733	23
0.80100	20
0.80467	18
0.80833	18
0.81200	19
0.81567	20
0.81933	20
0.82300	20
0.82667	20
0.83033	21
0.83400	22
0.83767	22
0.84133	22
0.84500	23
0.84867	24
0.85233	24
0.85600	27
0.85967	27
0.86333	25
0.86700	23
0.87067	21
0.87433	20
0.87800	17
0.88167	16
0.88533	18
0.88900	22
0.89267	24
0.89633	26
0.90000	28
0.90367	29
0.90733	28
0.91100	28
0.91467	25
0.91833	23
0.92200	23
0.92567	21
0.92933	21
0.93300	20
0.93667	21
0.94033	23
0.94400	24
0.94767	23
0.95133	22
0.95500	21
0.95867	21
0.96233	21
0.96600	22
0.96967	24
0.97333	26
0.97700	26
0.98067	26
0.98433	26
0.98800	25
0.99167	24
0.99533	23
0.99900	24
1.00267	25
1.00633	24
1.01000	24
1.01367	23
1.01733	24
1.02100	27
1.02467	26
1.02833	25
1.03200	26
1.03567	26
1.03933	26
1.04300	26
1.04667	26
1.05033	26
1.05400	27
1.05767	24
1.06133	21
1.06500	19
1.06867	19
1.07233	18
1.07600	19
1.07967	22
1.08333	24
1.08700	25
1.09067	26
1.09433	26
1.09800	26
1.10167	25
1.10533	25
1.10900	26
1.11267	26
1.11633	26
1.12000	26
1.12367	25
1.12733	24
1.13100	25
1.13467	27
1.13833	27
1.14200	28
1.14567	29
1.14933	29
1.15300	28
1.15667	28
1.16033	28
1.16400	26
1.16767	23
1.17133	24
1.17500	25
1.17867	26
1.18233	27
1.18600	28
1.18967	29
1.19333	30
1.19700	29
1.20067	28
1.20433	29
1.20800	30
1.21167	31
1.21533	30
1.21900	30
1.22267	30
1.22633	30
1.23000	31
1.23367	32
1.23733	31
1.24100	30
1.24467	29
1.24833	28
1.25200	30
1.25567	30
1.25933	29
1.26300	29
1.26667	29
1.27033	28
1.27400	29
1.27767	29
1.28133	29
1.28500	28
1.28867	28
1.29233	28
1.29600	29
1.29967	30
1.30333	29
1.30700	25
1.31067	24
1.31433	26
1.31800	29
1.32167	30
1.32533	31
1.32900	29
1.33267	28
1.33633	26
1.34000	25
1.34367	26
1.34733	27
1.35100	27
1.35467	29
1.35833	30
1.36200	30
1.36567	31
1.36933	31
1.37300	30
1.37667	30
1.38033	31
1.38400	28
1.38767	27
1.39133	28
1.39500	29
1.39867	29
1.40233	27
1.40600	27
1.40967	26
1.41333	26
1.41700	27
1.42067	27
1.42433	27
1.42800	28
1.43167	30
1.43533	31
1.43900	32
1.44267	29
1.44633	28
1.45000	28
1.45367	29
1.45733	30
1.46100	28
1.46467	28
1.46833	29
1.47200	30
1.47567	30
1.47933	30
1.48300	29
1.48667	27
1.49033	25
1.49400	24
1.49767	24
1.50133	24
1.50500	27
1.50867	28
1.51233	29
1.51600	29
1.51967	29
1.52333	29
1.52700	29
1.53067	31
1.53433	32
1.53800	31
1.54167	28
1.54533	27
1.54900	27
1.55267	27
1.55633	29
1.56000	28
1.56367	29
1.56733	29
1.57100	29
1.57467	28
1.57833	27
1.58200	27
1.58567	26
1.58933	25
1.59300	22
1.59667	22
1.60033	21
1.60400	23
1.60767	28
1.61133	32
1.61500	35
1.61867	37
1.62233	38
1.62600	36
1.62967	33
1.63333	32
1.63700	32
1.64067	33
1.64433	35
1.64800	35
1.65167	36
1.65533	36
1.65900	37
1.66267	39
1.66633	40
1.67000	42
1.67367	44
1.67733	43
1.68100	42
1.68467	42
1.68833	43
1.69200	46
1.69567	50
1.69933	53
1.70300	55
1.70667	53
1.71033	54
1.71400	55
1.71767	55
1.72133	57
1.72500	57
1.72867	58
1.73233	61
1.73600	62
1.73967	63
1.74333	65
1.74700	66
1.75067	66
1.75433	65
1.75800	64
1.76167	62
1.76533	60
1.76900	61
1.77267	63
1.77633	66
1.78000	69
1.78367	70
1.78733	72
1.79100	73
1.79467	74
1.79833	76
1.80200	78
1.80567	80
1.80933	84
1.81300	87
1.81667	88
1.82033	88
1.82400	89
1.82767	89
1.83133	90
1.83500	90
1.83867	92
1.84233	94
1.84600	94
1.84967	92
1.85333	92
1.85700	93
1.86067	95
1.86433	96
1.86800	96
1.87167	97
1.87533	98
1.87900	97
1.88267	95
1.88633	95
1.89000	95
1.89367	97
1.89733	97
1.90100	96
1.90467	96
1.90833	98
1.91200	99
1.91567	100
1.91933	102
1.92300	104
1.92667	105
1.93033	107
1.93400	110
1.93767	110
1.94133	108
1.94500	108
1.94867	106
1.95233	107
1.95600	109
1.95967	112
1.96333	115
1.96700	118
1.97067	119
1.97433	120
1.97800	121
1.98167	121
1.98533	122
1.98900	123
1.99267	126
1.99633	130
2.00000	134
2.00367	137
2.00733	138
2.01100	138
2.01467	138
2.01833	140
2.02200	142
2.02567	145
2.02933	147
2.03300	148
2.03667	149
2.04033	150
2.04400	151
2.04767	152
2.05133	152
2.05500	151
2.05867	151
2.06233	154
2.06600	157
2.06967	160
2.07333	163
2.07700	167
2.08067	169
2.08433	171
2.08800	172
2.09167	174
2.09533	177
2.09900	177
2.10267	177
2.10633	178
2.11000	180
2.11367	181
2.11733	184
2.12100	187
2.12467	190
2.12833	194
2.13200	197
2.13567	200
2.13933	202
2.14300	204
2.14667	205
2.15033	207
2.15400	207
2.15767	207
2.16133	206
2.16500	205
2.16867	205
2.17233	207
2.17600	209
2.17967	213
2.18333	216
2.18700	217
2.19067	215
2.19433	215
2.19800	218
2.20167	220
2.20533	222
2.20900	223
2.21267	223
2.21633	223
2.22000	225
2.22367	228
2.22733	231
2.23100	231
2.23467	232
2.23833	232
2.24200	232
2.24567	233
2.24933	235
2.25300	236
2.25667	236
2.26033	236
2.26400	237
2.26767	237
2.27133	239
2.27500	241
2.27867	239
2.28233	239
2.28600	240
2.28967	243
2.29333	245
2.29700	245
2.30067	246
2.30433	248
2.30800	250
2.31167	252
2.31533	252
2.31900	252
2.32267	256
2.32633	259
2.33000	260
2.33367	262
2.33733	263
2.34100	263
2.34467	261
2.34833	261
2.35200	264
2.35567	265
2.35933	266
2.36300	269
2.36667	270
2.37033	269
2.37400	270
2.37767	272
2.38133	274
2.38500	273
2.38867	273
2.39233	274
2.39600	275
2.39967	275
2.40333	276
2.40700	278
2.41067	278
2.41433	280
2.41800	281
2.42167	283
2.42533	286
2.42900	289
2.43267	290
2.43633	291
2.44000	292
2.44367	294
2.44733	290
2.45100	275
2.45467	261
2.45833	258
2.46200	270
2.46567	296
2.46933	332
2.47300	372
2.47667	413
2.48033	456
2.48400	494
2.48767	529
2.49133	561
2.49500	590
2.49867	614
2.50233	635
2.50600	654
2.50967	671
2.51333	687
2.51700	699
2.52067	710
2.52433	721
2.52800	733
2.53167	744
2.53533	755
2.53900	765
2.54267	774
2.54633	783
2.55000	791
2.55367	798
2.55733	805
2.56100	809
2.56467	811
2.56833	814
2.57200	818
2.57567	823
2.57933	825
2.58300	827
2.58667	827
2.59033	824
2.59400	822
2.59767	818
2.60133	809
2.60500	790
2.60867	761
2.61233	723
2.61600	681
2.61967	638
2.62333	596
2.62700	555
2.63067	520
2.63433	489
2.63800	464
2.64167	446
2.64533	435
2.64900	427
2.65267	424
2.65633	425
2.66000	430
2.66367	437
2.66733	443
2.67100	449
2.67467	458
2.67833	468
2.68200	477
2.68567	484
2.68933	492
2.69300	502
2.69667	512
2.70033	521
2.70400	528
2.70767	534
2.71133	542
2.71500	549
2.71867	557
2.72233	564
2.72600	569
2.72967	573
2.73333	578
2.73700	581
2.74067	585
2.74433	587
2.74800	589
2.75167	592
2.75533	593
2.75900	593
2.76267	594
2.76633	595
2.77000	600
2.77367	603
2.77733	604
2.78100	607
2.78467	610
2.78833	614
2.79200	616
2.79567	618
2.79933	618
2.80300	616
2.80667	612
2.81033	608
2.81400	605
2.81767	607
2.82133	619
2.82500	653
2.82867	734
2.83233	899
2.83600	1204
2.83967	1715
2.84333	2485
2.84700	3550
2.85067	4901
2.85433	6486
2.85800	8222
2.86167	9992
2.86533	11662
2.86900	13110
2.87267	14230
2.87633	14956
2.88000	15271
2.88367	15198
2.88733	14783
2.89100	14105
2.89467	13244
2.89833	12270
2.90200	11249
2.90567	10225
2.90933	9229
2.91300	8285
2.91667	7408
2.92033	6603
2.92400	5873
2.92767	5216
2.93133	4630
2.93500	4114
2.93867	3658
2.94233	3253
2.94600	2896
2.94967	2585
2.95333	2311
2.95700	2072
2.96067	1864
2.96433	1686
2.96800	1534
2.97167	1402
2.97533	1286
2.97900	1188
2.98267	1100
2.98633	1022
2.99000	956
2.99367	900
2.99733	852
3.00100	810
3.00467	773
3.00833	740
3.01200	710
3.01567	682
3.01933	657
3.02300	638
3.02667	624
3.03033	613
3.03400	603
3.03767	592
3.04133	582
3.04500	574
3.04867	567
3.05233	561
3.05600	552
3.05967	544
3.06333	538
3.06700	535
3.07067	531
3.07433	528
3.07800	525
3.08167	522
3.08533	518
3.08900	514
3.09267	509
3.09633	505
3.10000	501
3.10367	498
3.10733	492
3.11100	488
3.11467	483
3.11833	479
3.12200	477
3.12567	475
3.12933	472
3.13300	470
3.13667	469
3.14033	466
3.14400	463
3.14767	460
3.15133	454
3.15500	451
3.15867	449
3.16233	447
3.16600	445
3.16967	443
3.17333	440
3.17700	437
3.18067	435
3.18433	434
3.18800	429
3.19167	423
3.19533	422
3.19900	420
3.20267	418
3.20633	417
3.21000	414
3.21367	411
3.21733	407
3.22100	402
3.22467	399
3.22833	398
3.23200	398
3.23567	394
3.23933	388
3.24300	383
3.24667	378
3.25033	376
3.25400	373
3.25767	372
3.26133	372
3.26500	370
3.26867	367
3.27233	362
3.27600	360
3.27967	355
3.28333	351
3.28700	349
3.29067	345
3.29433	342
3.29800	339
3.30167	335
3.30533	331
3.30900	324
3.31267	319
3.31633	317
3.32000	314
3.32367	311
3.32733	309
3.33100	304
3.33467	298
3.33833	294
3.34200	290
3.34567	287
3.34933	285
3.35300	281
3.35667	278
3.36033	275
3.36400	272
3.36767	268
3.37133	266
3.37500	263
3.37867	261
3.38233	256
3.38600	254
3.38967	252
3.39333	248
3.39700	244
3.40067	240
3.40433	237
3.40800	233
3.41167	228
3.41533	223
3.41900	220
3.42267	219
3.42633	219
3.43000	217
3.43367	217
3.43733	216
3.44100	214
3.44467	210
3.44833	205
3.45200	200
3.45567	196
3.45933	192
3.46300	190
3.46667	187
3.47033	184
3.47400	182
3.47767	180
3.48133	178
3.48500	176
3.48867	174
3.49233	172
3.49600	169
3.49967	165
3.50333	163
3.50700	162
3.51067	158
3.51433	154
3.51800	150
3.52167	147
3.52533	147
3.52900	148
3.53267	144
3.53633	139
3.54000	137
3.54367	136
3.54733	135
3.55100	134
3.55467	132
3.55833	128
3.56200	126
3.56567	124
3.56933	124
3.57300	122
3.57667	119
3.58033	116
3.58400	114
3.58767	114
3.59133	114
3.59500	115
3.59867	116
3.60233	114
3.60600	109
3.60967	105
3.61333	103
3.61700	101
3.62067	101
3.62433	101
3.62800	100
3.63167	99
3.63533	95
3.63900	92
3.64267	90
3.64633	89
3.65000	87
3.65367	86
3.65733	82
3.66100	78
3.66467	75
3.66833	74
3.67200	74
3.67567	74
3.67933	73
3.68300	72
3.68667	73
3.69033	72
3.69400	70
3.69767	69
3.70133	69
3.70500	68
3.70867	66
3.71233	65
3.71600	65
3.71967	65
3.72333	66
3.72700	64
3.73067	62
3.73433	59
3.73800	55
3.74167	53
3.74533	50
3.74900	49
3.75267	49
3.75633	50
3.76000	52
3.76367	54
3.76733	55
3.77100	54
3.77467	53
3.77833	50
3.78200	47
3.78567	45
3.78933	42
3.79300	40
3.79667	40
3.80033	40
3.80400	42
3.80767	44
3.81133	45
3.81500	44
3.81867	42
3.82233	41
3.82600	43
3.82967	40
3.83333	35
3.83700	34
3.84067	34
3.84433	34
3.84800	35
3.85167	35
3.85533	35
3.85900	36
3.86267	35
3.86633	34
3.87000	34
3.87367	33
3.87733	33
3.88100	34
3.88467	35
3.88833	33
3.89200	32
3.89567	33
3.89933	32
3.90300	30
3.90667	30
3.91033	30
3.91400	29
3.91767	30
3.92133	31
3.92500	32
3.92867	31
3.93233	31
3.93600	30
3.93967	31
3.94333	29
3.94700	28
3.95067	28
3.95433	27
3.95800	24
3.96167	23
3.96533	22
3.96900	22
3.97267	23
3.97633	22
3.98000	20
3.98367	19
3.98733	17
3.99100	16
3.99467	17
3.99833	16

[Status Trace (Column Oven Temperature)]
Interval(msec)	1000
# of Points	240
Start Time(min)	0.016
End Time(min)	3.999
Intensity Units	
Intensity Multiplier	1
R.Time (min)	Intensity
0.01572	35.02
0.03238	35.02
0.04905	35.02
0.06572	35.02
0.08238	35.02
0.09905	35.02
0.11572	35.02
0.13238	35.02
0.14905	35.02
0.16572	35.03
0.18238	35.04
0.19905	35.04
0.21572	35.04
0.23238	35.03
0.24905	35.01
0.26572	35.00
0.28238	34.99
0.29905	34.99
0.31572	34.98
0.33238	34.99
0.34905	35.00
0.36572	35.00
0.38238	35.01
0.39905	35.01
0.41572	35.01
0.43238	35.00
0.44905	35.00
0.46572	34.99
0.48238	34.99
0.49905	34.98
0.51572	34.98
0.53238	34.97
0.54905	34.96
0.56572	34.95
0.58238	34.95
0.59905	34.96
0.61572	34.97
0.63238	34.99
0.64905	34.99
0.66572	35.00
0.68238	35.00
0.69905	35.01
0.71572	35.00
0.73238	34.99
0.74905	34.98
0.76572	34.98
0.78238	34.98
0.79905	34.98
0.81572	34.97
0.83238	34.98
0.84905	34.97
0.86572	34.98
0.88238	34.98
0.89905	34.98
0.91572	34.99
0.93238	34.99
0.94905	34.98
0.96572	34.98
0.98238	34.97
0.99905	34.98
1.01572	34.98
1.03238	34.98
1.04905	34.98
1.06572	34.98
1.08238	34.98
1.09905	34.97
1.11572	34.99
1.13238	35.01
1.14905	35.02
1.16572	35.02
1.18238	35.03
1.19905	35.03
1.21572	35.02
1.23238	35.03
1.24905	35.03
1.26572	35.04
1.28238	35.05
1.29905	35.05
1.31572	35.04
1.33238	35.03
1.34905	35.02
1.36572	35.01
1.38238	35.00
1.39905	35.00
1.41572	35.00
1.43238	35.00
1.44905	34.99
1.46572	35.00
1.48238	35.00
1.49905	34.99
1.51572	34.99
1.53238	35.00
1.54905	35.00
1.56572	35.00
1.58238	34.99
1.59905	35.02
1.61572	35.10
1.63238	35.26
1.64905	35.47
1.66572	35.77
1.68238	36.13
1.69905	36.48
1.71572	36.83
1.73238	37.19
1.74905	37.51
1.76572	37.83
1.78238	38.16
1.79905	38.51
1.81572	38.84
1.83238	39.15
1.84905	39.48
1.86572	39.80
1.88238	40.13
1.89905	40.47
1.91572	40.78
1.93238	41.10
1.94905	41.42
1.96572	41.77
1.98238	42.08
1.99905	42.42
2.01572	42.73
2.03238	43.07
2.04905	43.40
2.06572	43.74
2.08238	44.04
2.09905	44.38
2.11572	44.71
2.13238	45.03
2.14905	45.37
2.16572	45.70
2.18238	46.05
2.19905	46.35
2.21572	46.69
2.23238	47.01
2.24905	47.35
2.26572	47.68
2.28238	48.01
2.29905	48.36
2.31572	48.67
2.33238	49.00
2.34905	49.29
2.36572	49.54
2.38238	49.66
2.39905	49.67
2.41572	49.67
2.43238	49.68
2.44905	49.68
2.46572	49.69
2.48238	49.70
2.49905	49.73
2.51572	49.73
2.53238	49.74
2.54905	49.76
2.56572	49.79
2.58238	49.81
2.59905	49.82
2.61572	49.82
2.63238	49.84
2.64905	49.86
2.66572	49.86
2.68238	49.85
2.69905	49.86
2.71572	49.86
2.73238	49.85
2.74905	49.85
2.76572	49.89
2.78238	49.92
2.79905	49.94
2.81572	49.95
2.83238	49.96
2.84905	49.96
2.86572	49.97
2.88238	49.97
2.89905	49.97
2.91572	49.97
2.93238	49.96
2.94905	49.97
2.96572	49.98
2.98238	50.00
2.99905	49.99
3.01572	50.00
3.03238	50.01
3.04905	50.02
3.06572	50.03
3.08238	50.04
3.09905	50.04
3.11572	50.05
3.13238	50.06
3.14905	50.06
3.16572	50.07
3.18238	50.07
3.19905	50.07
3.21572	50.08
3.23238	50.10
3.24905	50.11
3.26572	50.12
3.28238	50.11
3.29905	50.09
3.31572	50.07
3.33238	50.06
3.34905	50.06
3.36572	50.05
3.38238	50.05
3.39905	50.04
3.41572	50.04
3.43238	50.03
3.44905	50.03
3.46572	50.04
3.48238	50.04
3.49905	50.05
3.51572	50.04
3.53238	50.04
3.54905	50.05
3.56572	50.06
3.58238	50.06
3.59905	50.06
3.61572	50.06
3.63238	50.06
3.64905	50.05
3.66572	50.05
3.68238	50.05
3.69905	50.04
3.71572	50.04
3.73238	50.04
3.74905	50.04
3.76572	50.04
3.78238	50.05
3.79905	50.06
3.81572	50.07
3.83238	50.08
3.84905	50.08
3.86572	50.10
3.88238	50.09
3.89905	50.09
3.91572	50.09
3.93238	50.08
3.94905	50.07
3.96572	50.07
3.98238	50.06
3.99905	50.05

[Status Trace (Injection Unit Temperature)]
Interval(msec)	1000
# of Points	240
Start Time(min)	0.016
End Time(min)	3.999
Intensity Units	
Intensity Multiplier	1
R.Time (min)	Intensity
0.01572	99.98
0.03238	99.99
0.04905	99.99
0.06572	99.98
0.08238	99.99
0.09905	99.98
0.11572	99.99
0.13238	99.99
0.14905	99.98
0.16572	99.99
0.18238	99.98
0.19905	99.99
0.21572	99.99
0.23238	99.98
0.24905	99.99
0.26572	99.99
0.28238	99.99
0.29905	99.99
0.31572	99.99
0.33238	99.99
0.34905	99.98
0.36572	99.98
0.38238	99.99
0.39905	99.99
0.41572	99.99
0.43238	99.99
0.44905	99.99
0.46572	99.99
0.48238	99.98
0.49905	99.99
0.51572	99.98
0.53238	99.98
0.54905	99.99
0.56572	99.99
0.58238	99.99
0.59905	99.99
0.61572	99.99
0.63238	99.99
0.64905	99.99
0.66572	99.99
0.68238	99.99
0.69905	99.99
0.71572	99.99
0.73238	99.99
0.74905	99.98
0.76572	99.99
0.78238	99.99
0.79905	99.99
0.81572	99.99
0.83238	99.99
0.84905	99.99
0.86572	99.99
0.88238	99.99
0.89905	99.99
0.91572	99.99
0.93238	99.99
0.94905	100.00
0.96572	99.99
0.98238	99.99
0.99905	99.99
1.01572	99.99
1.03238	99.99
1.04905	99.99
1.06572	99.99
1.08238	99.99
1.09905	99.99
1.11572	99.99
1.13238	99.99
1.14905	99.99
1.16572	99.99
1.18238	99.99
1.19905	99.99
1.21572	99.99
1.23238	99.98
1.24905	99.99
1.26572	99.99
1.28238	99.99
1.29905	99.99
1.31572	99.99
1.33238	99.99
1.34905	99.99
1.36572	99.99
1.38238	99.99
1.39905	99.99
1.41572	99.99
1.43238	99.99
1.44905	99.99
1.46572	99.99
1.48238	99.99
1.49905	99.99
1.51572	99.99
1.53238	99.99
1.54905	99.99
1.56572	99.99
1.58238	99.99
1.59905	99.99
1.61572	99.99
1.63238	99.99
1.64905	99.99
1.66572	99.99
1.68238	99.99
1.69905	99.99
1.71572	99.99
1.73238	99.99
1.74905	99.99
1.76572	99.99
1.78238	99.99
1.79905	99.99
1.81572	99.99
1.83238	99.99
1.84905	99.99
1.86572	99.99
1.88238	99.99
1.89905	99.99
1.91572	99.99
1.93238	99.99
1.94905	99.98
1.96572	99.98
1.98238	99.98
1.99905	99.99
2.01572	99.98
2.03238	99.98
2.04905	99.98
2.06572	99.98
2.08238	99.97
2.09905	99.98
2.11572	99.98
2.13238	99.98
2.14905	99.98
2.16572	99.98
2.18238	99.98
2.19905	99.98
2.21572	99.97
2.23238	99.97
2.24905	99.97
2.26572	99.98
2.28238	99.97
2.29905	99.97
2.31572	99.97
2.33238	99.97
2.34905	99.97
2.36572	99.97
2.38238	99.97
2.39905	99.97
2.41572	99.97
2.43238	99.97
2.44905	99.98
2.46572	99.97
2.48238	99.98
2.49905	99.98
2.51572	99.98
2.53238	99.98
2.54905	99.98
2.56572	99.98
2.58238	99.98
2.59905	99.98
2.61572	99.98
2.63238	99.99
2.64905	99.99
2.66572	99.99
2.68238	99.99
2.69905	99.99
2.71572	99.99
2.73238	100.00
2.74905	100.00
2.76572	99.99
2.78238	100.00
2.79905	100.00
2.81572	100.00
2.83238	100.01
2.84905	100.01
2.86572	100.01
2.88238	100.01
2.89905	100.01
2.91572	100.01
2.93238	100.01
2.94905	100.01
2.96572	100.01
2.98238	100.01
2.99905	100.02
3.01572	100.02
3.03238	100.02
3.04905	100.02
3.06572	100.02
3.08238	100.02
3.09905	100.02
3.11572	100.02
3.13238	100.03
3.14905	100.03
3.16572	100.03
3.18238	100.03
3.19905	100.03
3.21572	100.03
3.23238	100.03
3.24905	100.03
3.26572	100.03
3.28238	100.04
3.29905	100.03
3.31572	100.04
3.33238	100.04
3.34905	100.04
3.36572	100.04
3.38238	100.04
3.39905	100.04
3.41572	100.04
3.43238	100.04
3.44905	100.04
3.46572	100.04
3.48238	100.04
3.49905	100.04
3.51572	100.05
3.53238	100.04
3.54905	100.05
3.56572	100.05
3.58238	100.05
3.59905	100.05
3.61572	100.05
3.63238	100.05
3.64905	100.05
3.66572	100.05
3.68238	100.05
3.69905	100.05
3.71572	100.05
3.73238	100.05
3.74905	100.05
3.76572	100.05
3.78238	100.05
3.79905	100.05
3.81572	100.05
3.83238	100.05
3.84905	100.05
3.86572	100.05
3.88238	100.06
3.89905	100.05
3.91572	100.05
3.93238	100.05
3.94905	100.05
3.96572	100.05
3.98238	100.06
3.99905	100.05

[Status Trace (Carrier Gas Pressure)]
Interval(msec)	1000
# of Points	240
Start Time(min)	0.016
End Time(min)	3.999
Intensity Units	
Intensity Multiplier	1
R.Time (min)	Intensity
0.01572	57.04
0.03238	55.79
0.04905	58.03
0.06572	59.88
0.08238	58.59
0.09905	57.98
0.11572	58.00
0.13238	58.01
0.14905	58.01
0.16572	58.00
0.18238	58.00
0.19905	58.00
0.21572	58.00
0.23238	58.00
0.24905	58.00
0.26572	58.00
0.28238	58.00
0.29905	58.00
0.31572	58.00
0.33238	58.00
0.34905	58.00
0.36572	58.00
0.38238	58.00
0.39905	58.00
0.41572	58.00
0.43238	58.00
0.44905	58.00
0.46572	58.00
0.48238	58.00
0.49905	58.00
0.51572	58.00
0.53238	58.00
0.54905	58.00
0.56572	58.00
0.58238	58.00
0.59905	58.00
0.61572	58.00
0.63238	58.00
0.64905	58.00
0.66572	58.00
0.68238	58.00
0.69905	58.00
0.71572	58.00
0.73238	58.00
0.74905	58.00
0.76572	58.00
0.78238	58.00
0.79905	58.00
0.81572	58.00
0.83238	58.00
0.84905	58.00
0.86572	58.00
0.88238	58.00
0.89905	58.00
0.91572	58.00
0.93238	58.00
0.94905	58.00
0.96572	58.00
0.98238	58.00
0.99905	58.00
1.01572	58.00
1.03238	58.00
1.04905	58.00
1.06572	58.00
1.08238	58.00
1.09905	58.00
1.11572	58.00
1.13238	58.00
1.14905	58.00
1.16572	58.00
1.18238	58.00
1.19905	58.00
1.21572	58.00
1.23238	58.00
1.24905	58.00
1.26572	58.00
1.28238	58.00
1.29905	58.00
1.31572	58.00
1.33238	58.00
1.34905	58.00
1.36572	58.00
1.38238	58.00
1.39905	58.00
1.41572	58.00
1.43238	58.00
1.44905	58.00
1.46572	58.00
1.48238	58.00
1.49905	58.00
1.51572	58.00
1.53238	58.00
1.54905	58.00
1.56572	58.00
1.58238	58.00
1.59905	58.00
1.61572	58.00
1.63238	58.00
1.64905	58.00
1.66572	58.01
1.68238	58.01
1.69905	58.00
1.71572	58.00
1.73238	58.00
1.74905	58.00
1.76572	58.00
1.78238	58.00
1.79905	58.00
1.81572	58.00
1.83238	58.00
1.84905	58.00
1.86572	58.00
1.88238	58.00
1.89905	58.00
1.91572	58.00
1.93238	58.00
1.94905	58.00
1.96572	58.00
1.98238	58.00
1.99905	58.00
2.01572	58.00
2.03238	58.00
2.04905	58.00
2.06572	58.00
2.08238	58.00
2.09905	58.00
2.11572	58.00
2.13238	58.00
2.14905	58.00
2.16572	58.00
2.18238	58.00
2.19905	58.00
2.21572	58.00
2.23238	58.00
2.24905	58.00
2.26572	58.00
2.28238	58.00
2.29905	58.00
2.31572	58.00
2.33238	58.00
2.34905	58.00
2.36572	58.00
2.38238	57.99
2.39905	57.99
2.41572	58.00
2.43238	58.00
2.44905	58.00
2.46572	58.00
2.48238	58.00
2.49905	58.00
2.51572	57.98
2.53238	57.99
2.54905	58.00
2.56572	58.00
2.58238	58.00
2.59905	58.00
2.61572	58.00
2.63238	58.00
2.64905	58.00
2.66572	58.00
2.68238	58.00
2.69905	58.00
2.71572	58.00
2.73238	58.00
2.74905	58.00
2.76572	58.00
2.78238	58.00
2.79905	58.00
2.81572	58.00
2.83238	58.00
2.84905	58.00
2.86572	58.00
2.88238	58.00
2.89905	58.00
2.91572	58.00
2.93238	58.00
2.94905	58.00
2.96572	58.00
2.98238	58.00
2.99905	58.00
3.01572	58.00
3.03238	58.00
3.04905	58.00
3.06572	58.00
3.08238	58.00
3.09905	58.00
3.11572	58.00
3.13238	58.00
3.14905	58.00
3.16572	58.00
3.18238	58.00
3.19905	58.00
3.21572	58.00
3.23238	58.00
3.24905	58.00
3.26572	58.00
3.28238	58.00
3.29905	58.00
3.31572	58.00
3.33238	58.00
3.34905	58.00
3.36572	58.00
3.38238	58.00
3.39905	58.00
3.41572	58.00
3.43238	58.00
3.44905	58.00
3.46572	58.00
3.48238	58.00
3.49905	58.00
3.51572	58.00
3.53238	58.00
3.54905	58.00
3.56572	58.00
3.58238	58.00
3.59905	58.00
3.61572	58.00
3.63238	58.00
3.64905	58.00
3.66572	58.00
3.68238	58.00
3.69905	58.00
3.71572	58.00
3.73238	58.00
3.74905	58.00
3.76572	58.00
3.78238	58.00
3.79905	58.00
3.81572	58.00
3.83238	58.00
3.84905	58.00
3.86572	58.00
3.88238	58.00
3.89905	58.00
3.91572	58.00
3.93238	58.00
3.94905	58.00
3.96572	58.00
3.98238	58.00
3.99905	58.00

[Status Trace (Carrier Gas Flow)]
Interval(msec)	1000
# of Points	240
Start Time(min)	0.016
End Time(min)	3.999
Intensity Units	
Intensity Multiplier	1
R.Time (min)	Intensity
0.01572	33.92
0.03238	34.54
0.04905	34.55
0.06572	34.51
0.08238	34.50
0.09905	34.52
0.11572	34.52
0.13238	34.52
0.14905	34.52
0.16572	34.52
0.18238	34.52
0.19905	34.52
0.21572	34.52
0.23238	34.51
0.24905	34.51
0.26572	34.51
0.28238	34.51
0.29905	34.52
0.31572	34.52
0.33238	34.52
0.34905	34.52
0.36572	34.52
0.38238	34.52
0.39905	34.52
0.41572	34.52
0.43238	34.52
0.44905	34.52
0.46572	34.52
0.48238	34.52
0.49905	34.52
0.51572	34.52
0.53238	34.52
0.54905	34.52
0.56572	34.52
0.58238	34.52
0.59905	34.52
0.61572	34.52
0.63238	34.52
0.64905	34.52
0.66572	34.52
0.68238	34.52
0.69905	34.52
0.71572	34.51
0.73238	34.51
0.74905	34.51
0.76572	34.52
0.78238	34.52
0.79905	34.52
0.81572	34.52
0.83238	34.52
0.84905	34.52
0.86572	34.52
0.88238	34.52
0.89905	34.52
0.91572	34.52
0.93238	34.52
0.94905	34.52
0.96572	34.52
0.98238	34.52
0.99905	34.52
1.01572	34.52
1.03238	34.52
1.04905	34.52
1.06572	34.52
1.08238	34.52
1.09905	34.52
1.11572	34.52
1.13238	34.52
1.14905	34.52
1.16572	34.51
1.18238	34.52
1.19905	34.52
1.21572	34.52
1.23238	34.53
1.24905	34.51
1.26572	34.53
1.28238	34.52
1.29905	34.52
1.31572	34.52
1.33238	34.52
1.34905	34.52
1.36572	34.52
1.38238	34.52
1.39905	34.52
1.41572	34.52
1.43238	34.52
1.44905	34.53
1.46572	34.52
1.48238	34.52
1.49905	34.52
1.51572	34.52
1.53238	34.52
1.54905	34.52
1.56572	34.52
1.58238	34.52
1.59905	34.52
1.61572	34.52
1.63238	34.52
1.64905	34.52
1.66572	34.52
1.68238	34.52
1.69905	34.52
1.71572	34.52
1.73238	34.50
1.74905	34.53
1.76572	34.51
1.78238	34.52
1.79905	34.52
1.81572	34.52
1.83238	34.52
1.84905	34.52
1.86572	34.52
1.88238	34.52
1.89905	34.52
1.91572	34.52
1.93238	34.52
1.94905	34.52
1.96572	34.52
1.98238	34.52
1.99905	34.52
2.01572	34.52
2.03238	34.52
2.04905	34.52
2.06572	34.52
2.08238	34.52
2.09905	34.52
2.11572	34.52
2.13238	34.52
2.14905	34.52
2.16572	34.51
2.18238	34.52
2.19905	34.51
2.21572	34.52
2.23238	34.52
2.24905	34.52
2.26572	34.52
2.28238	34.52
2.29905	34.52
2.31572	34.52
2.33238	34.52
2.34905	34.52
2.36572	34.52
2.38238	34.52
2.39905	34.52
2.41572	34.52
2.43238	34.52
2.44905	34.52
2.46572	34.52
2.48238	34.52
2.49905	34.52
2.51572	34.52
2.53238	34.52
2.54905	34.52
2.56572	34.52
2.58238	34.51
2.59905	34.52
2.61572	34.52
2.63238	34.52
2.64905	34.52
2.66572	34.52
2.68238	34.52
2.69905	34.52
2.71572	34.52
2.73238	34.52
2.74905	34.52
2.76572	34.52
2.78238	34.52
2.79905	34.52
2.81572	34.52
2.83238	34.52
2.84905	34.52
2.86572	34.52
2.88238	34.52
2.89905	34.52
2.91572	34.52
2.93238	34.52
2.94905	34.52
2.96572	34.52
2.98238	34.52
2.99905	34.52
3.01572	34.52
3.03238	34.52
3.04905	34.52
3.06572	34.51
3.08238	34.52
3.09905	34.51
3.11572	34.52
3.13238	34.52
3.14905	34.52
3.16572	34.52
3.18238	34.52
3.19905	34.52
3.21572	34.52
3.23238	34.52
3.24905	34.52
3.26572	34.52
3.28238	34.52
3.29905	34.52
3.31572	34.52
3.33238	34.52
3.34905	34.52
3.36572	34.52
3.38238	34.52
3.39905	34.52
3.41572	34.52
3.43238	34.52
3.44905	34.52
3.46572	34.52
3.48238	34.52
3.49905	34.51
3.51572	34.51
3.53238	34.52
3.54905	34.52
3.56572	34.52
3.58238	34.52
3.59905	34.52
3.61572	34.52
3.63238	34.52
3.64905	34.52
3.66572	34.52
3.68238	34.52
3.69905	34.52
3.71572	34.52
3.73238	34.52
3.74905	34.52
3.76572	34.52
3.78238	34.52
3.79905	34.52
3.81572	34.52
3.83238	34.52
3.84905	34.52
3.86572	34.52
3.88238	34.52
3.89905	34.52
3.91572	34.52
3.93238	34.52
3.94905	34.52
3.96572	34.53
3.98238	34.52
3.99905	34.51

[Status Trace (Column Flow)]
Interval(msec)	1000
# of Points	240
Start Time(min)	0.016
End Time(min)	3.999
Intensity Units	
Intensity Multiplier	1
R.Time (min)	Intensity
0.01572	5.42
0.03238	5.27
0.04905	5.53
0.06572	5.75
0.08238	5.60
0.09905	5.53
0.11572	5.53
0.13238	5.53
0.14905	5.53
0.16572	5.53
0.18238	5.53
0.19905	5.53
0.21572	5.53
0.23238	5.53
0.24905	5.53
0.26572	5.53
0.28238	5.53
0.29905	5.53
0.31572	5.53
0.33238	5.53
0.34905	5.53
0.36572	5.53
0.38238	5.53
0.39905	5.53
0.41572	5.53
0.43238	5.53
0.44905	5.53
0.46572	5.53
0.48238	5.53
0.49905	5.53
0.51572	5.53
0.53238	5.53
0.54905	5.53
0.56572	5.53
0.58238	5.53
0.59905	5.53
0.61572	5.53
0.63238	5.53
0.64905	5.53
0.66572	5.53
0.68238	5.53
0.69905	5.53
0.71572	5.53
0.73238	5.53
0.74905	5.53
0.76572	5.53
0.78238	5.53
0.79905	5.53
0.81572	5.53
0.83238	5.53
0.84905	5.53
0.86572	5.53
0.88238	5.53
0.89905	5.53
0.91572	5.53
0.93238	5.53
0.94905	5.53
0.96572	5.53
0.98238	5.53
0.99905	5.53
1.01572	5.53
1.03238	5.53
1.04905	5.53
1.06572	5.53
1.08238	5.53
1.09905	5.53
1.11572	5.53
1.13238	5.53
1.14905	5.53
1.16572	5.53
1.18238	5.53
1.19905	5.53
1.21572	5.53
1.23238	5.53
1.24905	5.53
1.26572	5.53
1.28238	5.53
1.29905	5.53
1.31572	5.53
1.33238	5.53
1.34905	5.53
1.36572	5.53
1.38238	5.53
1.39905	5.53
1.41572	5.53
1.43238	5.53
1.44905	5.53
1.46572	5.53
1.48238	5.53
1.49905	5.53
1.51572	5.53
1.53238	5.53
1.54905	5.53
1.56572	5.53
1.58238	5.53
1.59905	5.53
1.61572	5.53
1.63238	5.52
1.64905	5.52
1.66572	5.51
1.68238	5.49
1.69905	5.48
1.71572	5.47
1.73238	5.46
1.74905	5.45
1.76572	5.44
1.78238	5.43
1.79905	5.42
1.81572	5.41
1.83238	5.40
1.84905	5.39
1.86572	5.38
1.88238	5.37
1.89905	5.36
1.91572	5.35
1.93238	5.34
1.94905	5.33
1.96572	5.32
1.98238	5.31
1.99905	5.30
2.01572	5.29
2.03238	5.28
2.04905	5.27
2.06572	5.26
2.08238	5.25
2.09905	5.25
2.11572	5.24
2.13238	5.23
2.14905	5.22
2.16572	5.21
2.18238	5.20
2.19905	5.19
2.21572	5.18
2.23238	5.17
2.24905	5.16
2.26572	5.15
2.28238	5.14
2.29905	5.13
2.31572	5.12
2.33238	5.11
2.34905	5.11
2.36572	5.10
2.38238	5.09
2.39905	5.09
2.41572	5.09
2.43238	5.09
2.44905	5.09
2.46572	5.09
2.48238	5.09
2.49905	5.09
2.51572	5.09
2.53238	5.09
2.54905	5.09
2.56572	5.09
2.58238	5.09
2.59905	5.09
2.61572	5.09
2.63238	5.09
2.64905	5.09
2.66572	5.09
2.68238	5.09
2.69905	5.09
2.71572	5.09
2.73238	5.09
2.74905	5.09
2.76572	5.09
2.78238	5.09
2.79905	5.09
2.81572	5.09
2.83238	5.09
2.84905	5.09
2.86572	5.09
2.88238	5.09
2.89905	5.09
2.91572	5.09
2.93238	5.09
2.94905	5.09
2.96572	5.09
2.98238	5.09
2.99905	5.09
3.01572	5.09
3.03238	5.09
3.04905	5.08
3.06572	5.08
3.08238	5.08
3.09905	5.08
3.11572	5.08
3.13238	5.08
3.14905	5.08
3.16572	5.08
3.18238	5.08
3.19905	5.08
3.21572	5.08
3.23238	5.08
3.24905	5.08
3.26572	5.08
3.28238	5.08
3.29905	5.08
3.31572	5.08
3.33238	5.08
3.34905	5.08
3.36572	5.08
3.38238	5.08
3.39905	5.08
3.41572	5.08
3.43238	5.08
3.44905	5.08
3.46572	5.08
3.48238	5.08
3.49905	5.08
3.51572	5.08
3.53238	5.08
3.54905	5.08
3.56572	5.08
3.58238	5.08
3.59905	5.08
3.61572	5.08
3.63238	5.08
3.64905	5.08
3.66572	5.08
3.68238	5.08
3.69905	5.08
3.71572	5.08
3.73238	5.08
3.74905	5.08
3.76572	5.08
3.78238	5.08
3.79905	5.08
3.81572	5.08
3.83238	5.08
3.84905	5.08
3.86572	5.08
3.88238	5.08
3.89905	5.08
3.91572	5.08
3.93238	5.08
3.94905	5.08
3.96572	5.08
3.98238	5.08
3.99905	5.08

[Status Trace (Linear Velocity)]
Interval(msec)	1000
# of Points	240
Start Time(min)	0.016
End Time(min)	3.999
Intensity Units	
Intensity Multiplier	1
R.Time (min)	Intensity
0.01572	38.39
0.03238	37.57
0.04905	39.04
0.06572	40.24
0.08238	39.40
0.09905	39.00
0.11572	39.02
0.13238	39.02
0.14905	39.02
0.16572	39.02
0.18238	39.02
0.19905	39.02
0.21572	39.02
0.23238	39.02
0.24905	39.02
0.26572	39.02
0.28238	39.02
0.29905	39.02
0.31572	39.02
0.33238	39.02
0.34905	39.02
0.36572	39.02
0.38238	39.02
0.39905	39.02
0.41572	39.02
0.43238	39.02
0.44905	39.02
0.46572	39.02
0.48238	39.02
0.49905	39.02
0.51572	39.02
0.53238	39.02
0.54905	39.02
0.56572	39.02
0.58238	39.02
0.59905	39.02
0.61572	39.02
0.63238	39.02
0.64905	39.02
0.66572	39.02
0.68238	39.02
0.69905	39.02
0.71572	39.02
0.73238	39.02
0.74905	39.02
0.76572	39.02
0.78238	39.02
0.79905	39.02
0.81572	39.02
0.83238	39.02
0.84905	39.02
0.86572	39.02
0.88238	39.02
0.89905	39.02
0.91572	39.02
0.93238	39.02
0.94905	39.02
0.96572	39.02
0.98238	39.02
0.99905	39.02
1.01572	39.02
1.03238	39.02
1.04905	39.02
1.06572	39.02
1.08238	39.02
1.09905	39.02
1.11572	39.02
1.13238	39.02
1.14905	39.02
1.16572	39.02
1.18238	39.02
1.19905	39.02
1.21572	39.02
1.23238	39.02
1.24905	39.02
1.26572	39.01
1.28238	39.01
1.29905	39.01
1.31572	39.01
1.33238	39.02
1.34905	39.02
1.36572	39.02
1.38238	39.02
1.39905	39.02
1.41572	39.02
1.43238	39.02
1.44905	39.02
1.46572	39.02
1.48238	39.02
1.49905	39.02
1.51572	39.02
1.53238	39.02
1.54905	39.02
1.56572	39.02
1.58238	39.02
1.59905	39.02
1.61572	39.01
1.63238	39.00
1.64905	38.98
1.66572	38.95
1.68238	38.91
1.69905	38.88
1.71572	38.85
1.73238	38.81
1.74905	38.78
1.76572	38.75
1.78238	38.72
1.79905	38.69
1.81572	38.66
1.83238	38.62
1.84905	38.60
1.86572	38.57
1.88238	38.53
1.89905	38.50
1.91572	38.47
1.93238	38.44
1.94905	38.42
1.96572	38.38
1.98238	38.35
1.99905	38.32
2.01572	38.29
2.03238	38.26
2.04905	38.23
2.06572	38.20
2.08238	38.17
2.09905	38.14
2.11572	38.11
2.13238	38.08
2.14905	38.05
2.16572	38.02
2.18238	37.99
2.19905	37.96
2.21572	37.93
2.23238	37.90
2.24905	37.87
2.26572	37.84
2.28238	37.81
2.29905	37.78
2.31572	37.75
2.33238	37.72
2.34905	37.70
2.36572	37.68
2.38238	37.66
2.39905	37.66
2.41572	37.66
2.43238	37.66
2.44905	37.66
2.46572	37.66
2.48238	37.66
2.49905	37.66
2.51572	37.65
2.53238	37.65
2.54905	37.66
2.56572	37.65
2.58238	37.65
2.59905	37.65
2.61572	37.65
2.63238	37.65
2.64905	37.65
2.66572	37.65
2.68238	37.65
2.69905	37.65
2.71572	37.65
2.73238	37.65
2.74905	37.65
2.76572	37.65
2.78238	37.64
2.79905	37.64
2.81572	37.64
2.83238	37.64
2.84905	37.64
2.86572	37.64
2.88238	37.64
2.89905	37.64
2.91572	37.64
2.93238	37.64
2.94905	37.64
2.96572	37.64
2.98238	37.63
2.99905	37.63
3.01572	37.63
3.03238	37.63
3.04905	37.63
3.06572	37.63
3.08238	37.63
3.09905	37.63
3.11572	37.63
3.13238	37.63
3.14905	37.63
3.16572	37.63
3.18238	37.63
3.19905	37.63
3.21572	37.63
3.23238	37.63
3.24905	37.62
3.26572	37.62
3.28238	37.62
3.29905	37.63
3.31572	37.63
3.33238	37.63
3.34905	37.63
3.36572	37.63
3.38238	37.63
3.39905	37.63
3.41572	37.63
3.43238	37.63
3.44905	37.63
3.46572	37.63
3.48238	37.63
3.49905	37.63
3.51572	37.63
3.53238	37.63
3.54905	37.63
3.56572	37.63
3.58238	37.63
3.59905	37.63
3.61572	37.63
3.63238	37.63
3.64905	37.63
3.66572	37.63
3.68238	37.63
3.69905	37.63
3.71572	37.63
3.73238	37.63
3.74905	37.63
3.76572	37.63
3.78238	37.63
3.79905	37.63
3.81572	37.63
3.83238	37.63
3.84905	37.63
3.86572	37.63
3.88238	37.63
3.89905	37.63
3.91572	37.63
3.93238	37.63
3.94905	37.63
3.96572	37.63
3.98238	37.63
3.99905	37.63

