[Header]
Application Name	LabSolutions
Version	5.110
Data File Name	C:\Users\User\Desktop\GC Analyses\Jack\UIC Prairie Sampling\7.9.22\220909_091.gcd
Output Date	9/28/2022
Output Time	11:29:55 AM

[File Information]
Type	Data File
Generated	9/20/2022 11:30:35 AM
Generated by	System Administrator
Modified	9/20/2022 11:34:41 AM
Modified by	System Administrator

[Sample Information]
Operator Name	System Administrator
Acquired	9/20/2022 11:30:41 AM
Sample Type	1:Standard
Level	1
Sample Name	220909_Run
Sample ID	220909_Run
ISTD Amount1	1
ISTD Amount2	1
ISTD Amount3	1
ISTD Amount4	1
ISTD Amount5	1
ISTD Amount6	1
ISTD Amount7	1
ISTD Amount8	1
ISTD Amount9	1
ISTD Amount10	1
ISTD Amount11	1
ISTD Amount12	1
ISTD Amount13	1
ISTD Amount14	1
ISTD Amount15	1
ISTD Amount16	1
ISTD Amount17	1
ISTD Amount18	1
ISTD Amount19	1
ISTD Amount20	1
ISTD Amount21	1
ISTD Amount22	1
ISTD Amount23	1
ISTD Amount24	1
ISTD Amount25	1
ISTD Amount26	1
ISTD Amount27	1
ISTD Amount28	1
ISTD Amount29	1
ISTD Amount30	1
ISTD Amount31	1
ISTD Amount32	1
Sample Amount	1
Dilution Factor	1
Vial#	1
Injection Volume	1
Injection Count	1
Bar Code	

[Original Files]
Data File	C:\Users\User\Desktop\GC Analyses\Jack\220909\220909_091.gcd
Method File	C:\LabSolutions\Data\GHG_4min_2022\ghg3_togas_w_acet_4 min_new_int.gcm
Batch File	
Report Format File	c:\LabSolutions\System\DEFAULT.lsr

[File Description]


[Configuration]
Instrument Name	C0B7VH3-Instrument1
Instrument #	1
Line #	1
# of Detectors	3
Detector ID	DET#1	DET#2	DET#3
Detector Name	FID	PTCD	ECD
# of Channels	1	1	1

[Peak Table(Ch1)]
# of Peaks	3
Peak#	R.Time	I.Time	F.Time	Area	Height	A/H	Conc.	Mark	ID#	Name	k'	Plate #	Plate Ht.	Tailing	Resolution	Sep.Factor	Area Ratio	Height Ratio	Conc. %	Norm Conc.
1	1.472	1.439	1.538	10243	4165	2.459	100.000	   	1	CO	0.000	7002	21.423	1.411	0.000	0.000	0	0	16.667	16.667
2	1.575	1.538	1.637	10031	5658	1.773	100.000	 V 	2	CH4	0.070	14070	10.661	1.154	1.663	0.000	0	0	16.667	16.667
3	2.004	1.952	2.293	1388710	697301	1.992	400.000	   	3	CO2	0.361	18505	8.106	1.126	7.660	5.179	0	0	66.667	66.667

[Peak Table(Ch2)]
# of Peaks	0

[Peak Table(Ch3)]
# of Peaks	3
Peak#	R.Time	I.Time	F.Time	Area	Height	A/H	Conc.	Mark	ID#	Name	k'	Plate #	Plate Ht.	Tailing	Resolution	Sep.Factor	Area Ratio	Height Ratio	Conc. %	Norm Conc.
1	2.440	1.520	2.653	14740	491	30.029	0.000	   			0.000	83	1817.086	0.628	0.000	0.000	0	0	0.000	0.000
2	2.788	2.664	2.818	1093	179	6.106	0.029	   	1	N2O	0.143	289	519.092	0.000	0.403	0.000	0	0	2.877	2.877
3	2.887	2.818	3.254	36890	9655	3.821	0.971	 V 	1	N2O	0.183	13325	11.257	1.545	0.262	1.284	0	0	97.123	97.123

[Compound Results(Ch1)]
# of IDs	6
ID#	Name	R.Time	Area	Height	Conc.	Curve	3rd	2nd	1st	Constant	Area Ratio	Height Ratio	Conc. %	Norm Conc.
1	CO	1.472	10243	4165	100.000	Linear	0.000000e+00	0.000000e+00	1.024286e+002	0.000000e+00	0	0	16.667	16.667
2	CH4	1.575	10031	5658	100.000	Linear	0.000000e+00	0.000000e+00	1.003115e+002	0.000000e+00	0	0	16.667	16.667
3	CO2	2.004	1388710	697301	400.000	Linear	0.000000e+00	0.000000e+00	3.471776e+003	0.000000e+00	0	0	66.667	66.667
4	Ethylene	0.000	0	0	0.000	Linear	0.000000e+00	0.000000e+00	0.000000e+00	0.000000e+00	0	0	0.000	0.000
5	Acetylene	0.000	0	0	0.000	Linear	0.000000e+00	0.000000e+00	0.000000e+00	0.000000e+00	0	0	0.000	0.000
6	Ethane	0.000	0	0	0.000	Linear	0.000000e+00	0.000000e+00	0.000000e+00	0.000000e+00	0	0	0.000	0.000

[Compound Results(Ch2)]
# of IDs	5
ID#	Name	R.Time	Area	Height	Conc.	Curve	3rd	2nd	1st	Constant	Area Ratio	Height Ratio	Conc. %	Norm Conc.
1	Hydrogen	0.000	0	0	0.000	Linear	0.000000e+00	0.000000e+00	0.000000e+00	0.000000e+00	0	0	0.000	0.000
2	Oxygen	0.000	0	0	0.000	Linear	0.000000e+00	0.000000e+00	0.000000e+00	0.000000e+00	0	0	0.000	0.000
3	Nitrogen	0.000	0	0	0.000	Linear	0.000000e+00	0.000000e+00	0.000000e+00	0.000000e+00	0	0	0.000	0.000
4	Methane	0.000	0	0	0.000	Linear	0.000000e+00	0.000000e+00	0.000000e+00	0.000000e+00	0	0	0.000	0.000
5	Carbon Monoxide	0.000	0	0	0.000	Linear	0.000000e+00	0.000000e+00	0.000000e+00	0.000000e+00	0	0	0.000	0.000

[Compound Results(Ch3)]
# of IDs	2
ID#	Name	R.Time	Area	Height	Conc.	Curve	3rd	2nd	1st	Constant	Area Ratio	Height Ratio	Conc. %	Norm Conc.
1	N2O	2.887	37982	9834	1.000	Linear	0.000000e+00	0.000000e+00	3.798242e+004	0.000000e+00	0	0	100.000	100.000
2	SF6	0.000	0	0	0.000	Linear	0.000000e+00	0.000000e+00	0.000000e+00	0.000000e+00	0	0	0.000	0.000

[Group Results(Ch1)]
# of Groups	0

[Group Results(Ch2)]
# of Groups	0

[Group Results(Ch3)]
# of Groups	0

[Chromatogram (Ch1)]
Interval(msec)	220
# of Points	1091
Start Time(min)	0.002
End Time(min)	3.998
R.Time (min)	Intensity
0.00167	17
0.00533	9
0.00900	-2
0.01267	-8
0.01633	-9
0.02000	-9
0.02367	-9
0.02733	-10
0.03100	-10
0.03467	-11
0.03833	-13
0.04200	-17
0.04567	-19
0.04933	-16
0.05300	-13
0.05667	-12
0.06033	-11
0.06400	-9
0.06767	-6
0.07133	-3
0.07500	-1
0.07867	-1
0.08233	1
0.08600	7
0.08967	12
0.09333	12
0.09700	6
0.10067	-6
0.10433	-17
0.10800	-26
0.11167	-31
0.11533	-32
0.11900	-29
0.12267	-28
0.12633	-25
0.13000	-24
0.13367	-23
0.13733	-22
0.14100	-20
0.14467	-15
0.14833	-9
0.15200	-4
0.15567	-4
0.15933	-8
0.16300	-13
0.16667	-15
0.17033	-16
0.17400	-16
0.17767	-16
0.18133	-13
0.18500	-9
0.18867	-6
0.19233	-4
0.19600	-3
0.19967	-4
0.20333	-7
0.20700	-6
0.21067	-1
0.21433	6
0.21800	13
0.22167	20
0.22533	23
0.22900	17
0.23267	9
0.23633	2
0.24000	-3
0.24367	-10
0.24733	-15
0.25100	-18
0.25467	-21
0.25833	-22
0.26200	-23
0.26567	-18
0.26933	-10
0.27300	-3
0.27667	-1
0.28033	-2
0.28400	-3
0.28767	-3
0.29133	-1
0.29500	1
0.29867	2
0.30233	2
0.30600	2
0.30967	1
0.31333	1
0.31700	-0
0.32067	-1
0.32433	-1
0.32800	-1
0.33167	0
0.33533	4
0.33900	11
0.34267	14
0.34633	9
0.35000	-1
0.35367	-12
0.35733	-16
0.36100	-13
0.36467	-11
0.36833	-10
0.37200	-9
0.37567	-8
0.37933	-8
0.38300	-10
0.38667	-11
0.39033	-8
0.39400	-4
0.39767	-3
0.40133	-3
0.40500	0
0.40867	2
0.41233	2
0.41600	-0
0.41967	0
0.42333	3
0.42700	3
0.43067	0
0.43433	-1
0.43800	-3
0.44167	-4
0.44533	-5
0.44900	-6
0.45267	-4
0.45633	-4
0.46000	-3
0.46367	-2
0.46733	-2
0.47100	-3
0.47467	-7
0.47833	-11
0.48200	-16
0.48567	-24
0.48933	-31
0.49300	-35
0.49667	-31
0.50033	-24
0.50400	-18
0.50767	-14
0.51133	-15
0.51500	-19
0.51867	-22
0.52233	-22
0.52600	-16
0.52967	-10
0.53333	-5
0.53700	-0
0.54067	3
0.54433	4
0.54800	2
0.55167	1
0.55533	3
0.55900	5
0.56267	5
0.56633	3
0.57000	-1
0.57367	-6
0.57733	-10
0.58100	-12
0.58467	-13
0.58833	-9
0.59200	-2
0.59567	5
0.59933	10
0.60300	9
0.60667	5
0.61033	-1
0.61400	-7
0.61767	-13
0.62133	-18
0.62500	-18
0.62867	-18
0.63233	-17
0.63600	-12
0.63967	-4
0.64333	1
0.64700	6
0.65067	13
0.65433	16
0.65800	14
0.66167	10
0.66533	6
0.66900	7
0.67267	10
0.67633	10
0.68000	7
0.68367	6
0.68733	2
0.69100	-2
0.69467	-5
0.69833	-9
0.70200	-13
0.70567	-12
0.70933	-8
0.71300	-1
0.71667	3
0.72033	2
0.72400	0
0.72767	1
0.73133	6
0.73500	8
0.73867	5
0.74233	-0
0.74600	-4
0.74967	-6
0.75333	-6
0.75700	-5
0.76067	-3
0.76433	-3
0.76800	-5
0.77167	-7
0.77533	-7
0.77900	-2
0.78267	5
0.78633	10
0.79000	11
0.79367	13
0.79733	16
0.80100	14
0.80467	8
0.80833	3
0.81200	-2
0.81567	-7
0.81933	-11
0.82300	-13
0.82667	-12
0.83033	-8
0.83400	-4
0.83767	-2
0.84133	-1
0.84500	2
0.84867	3
0.85233	3
0.85600	3
0.85967	4
0.86333	5
0.86700	2
0.87067	-2
0.87433	-3
0.87800	-1
0.88167	0
0.88533	2
0.88900	6
0.89267	4
0.89633	-3
0.90000	-13
0.90367	-17
0.90733	-21
0.91100	-23
0.91467	-22
0.91833	-22
0.92200	-19
0.92567	-11
0.92933	0
0.93300	6
0.93667	4
0.94033	-5
0.94400	-15
0.94767	-19
0.95133	-16
0.95500	-7
0.95867	3
0.96233	9
0.96600	8
0.96967	3
0.97333	-3
0.97700	-5
0.98067	-5
0.98433	-8
0.98800	-12
0.99167	-13
0.99533	-13
0.99900	-10
1.00267	-7
1.00633	-4
1.01000	-0
1.01367	5
1.01733	8
1.02100	10
1.02467	10
1.02833	8
1.03200	4
1.03567	0
1.03933	-1
1.04300	1
1.04667	5
1.05033	12
1.05400	16
1.05767	15
1.06133	9
1.06500	2
1.06867	-3
1.07233	-5
1.07600	-7
1.07967	-8
1.08333	-7
1.08700	-6
1.09067	-2
1.09433	4
1.09800	11
1.10167	14
1.10533	13
1.10900	11
1.11267	10
1.11633	10
1.12000	10
1.12367	6
1.12733	2
1.13100	-1
1.13467	-6
1.13833	-11
1.14200	-11
1.14567	-10
1.14933	-6
1.15300	-1
1.15667	3
1.16033	2
1.16400	1
1.16767	-0
1.17133	-2
1.17500	-2
1.17867	-2
1.18233	1
1.18600	8
1.18967	12
1.19333	16
1.19700	19
1.20067	19
1.20433	17
1.20800	14
1.21167	11
1.21533	7
1.21900	1
1.22267	-4
1.22633	-7
1.23000	-4
1.23367	4
1.23733	12
1.24100	17
1.24467	18
1.24833	18
1.25200	11
1.25567	-3
1.25933	-18
1.26300	-30
1.26667	-37
1.27033	-40
1.27400	-40
1.27767	-38
1.28133	-34
1.28500	-31
1.28867	-24
1.29233	-17
1.29600	-13
1.29967	-9
1.30333	-7
1.30700	-7
1.31067	-8
1.31433	-7
1.31800	-6
1.32167	-8
1.32533	-10
1.32900	-14
1.33267	-17
1.33633	-17
1.34000	-16
1.34367	-11
1.34733	-7
1.35100	-6
1.35467	-7
1.35833	-7
1.36200	-6
1.36567	-2
1.36933	3
1.37300	8
1.37667	9
1.38033	5
1.38400	1
1.38767	1
1.39133	1
1.39500	-0
1.39867	-5
1.40233	-11
1.40600	-17
1.40967	-18
1.41333	-18
1.41700	-21
1.42067	-24
1.42433	-28
1.42800	-28
1.43167	-28
1.43533	-28
1.43900	-19
1.44267	56
1.44633	370
1.45000	1051
1.45367	1922
1.45733	2744
1.46100	3391
1.46467	3830
1.46833	4075
1.47200	4143
1.47567	4048
1.47933	3798
1.48300	3420
1.48667	2954
1.49033	2454
1.49400	1971
1.49767	1543
1.50133	1186
1.50500	896
1.50867	667
1.51233	488
1.51600	351
1.51967	247
1.52333	168
1.52700	109
1.53067	59
1.53433	21
1.53800	-2
1.54167	5
1.54533	96
1.54900	346
1.55267	771
1.55633	1331
1.56000	2020
1.56367	2902
1.56733	3977
1.57100	5016
1.57467	5630
1.57833	5564
1.58200	4890
1.58567	3902
1.58933	2890
1.59300	2023
1.59667	1357
1.60033	881
1.60400	557
1.60767	341
1.61133	200
1.61500	111
1.61867	52
1.62233	14
1.62600	-8
1.62967	-21
1.63333	-29
1.63700	-33
1.64067	-35
1.64433	-36
1.64800	-34
1.65167	-32
1.65533	-34
1.65900	-39
1.66267	-44
1.66633	-46
1.67000	-48
1.67367	-53
1.67733	-60
1.68100	-67
1.68467	-71
1.68833	-72
1.69200	-71
1.69567	-70
1.69933	-68
1.70300	-65
1.70667	-59
1.71033	-50
1.71400	-42
1.71767	-36
1.72133	-36
1.72500	-42
1.72867	-48
1.73233	-53
1.73600	-55
1.73967	-55
1.74333	-52
1.74700	-49
1.75067	-52
1.75433	-56
1.75800	-59
1.76167	-58
1.76533	-52
1.76900	-44
1.77267	-37
1.77633	-36
1.78000	-37
1.78367	-39
1.78733	-38
1.79100	-36
1.79467	-32
1.79833	-27
1.80200	-22
1.80567	-19
1.80933	-18
1.81300	-19
1.81667	-16
1.82033	-11
1.82400	-7
1.82767	-3
1.83133	1
1.83500	5
1.83867	7
1.84233	6
1.84600	2
1.84967	-1
1.85333	2
1.85700	6
1.86067	8
1.86433	10
1.86800	9
1.87167	4
1.87533	-2
1.87900	-9
1.88267	-13
1.88633	-9
1.89000	-3
1.89367	2
1.89733	2
1.90100	1
1.90467	-1
1.90833	-1
1.91200	3
1.91567	8
1.91933	11
1.92300	12
1.92667	11
1.93033	3
1.93400	-7
1.93767	-9
1.94133	-5
1.94500	-3
1.94867	-4
1.95233	-2
1.95600	19
1.95967	141
1.96333	799
1.96700	3628
1.97067	12980
1.97433	36854
1.97800	84705
1.98167	161663
1.98533	264685
1.98900	384028
1.99267	505752
1.99633	611884
2.00000	681367
2.00367	697353
2.00733	656356
2.01100	570466
2.01467	461481
2.01833	351279
2.02200	254726
2.02567	178143
2.02933	121497
2.03300	81593
2.03667	54412
2.04033	36308
2.04400	24414
2.04767	16653
2.05133	11595
2.05500	8283
2.05867	6089
2.06233	4614
2.06600	3601
2.06967	2889
2.07333	2378
2.07700	2005
2.08067	1730
2.08433	1525
2.08800	1369
2.09167	1244
2.09533	1138
2.09900	1046
2.10267	968
2.10633	904
2.11000	850
2.11367	804
2.11733	766
2.12100	735
2.12467	712
2.12833	692
2.13200	672
2.13567	651
2.13933	630
2.14300	609
2.14667	588
2.15033	569
2.15400	552
2.15767	536
2.16133	520
2.16500	505
2.16867	490
2.17233	477
2.17600	470
2.17967	466
2.18333	459
2.18700	450
2.19067	439
2.19433	430
2.19800	425
2.20167	425
2.20533	426
2.20900	422
2.21267	416
2.21633	408
2.22000	400
2.22367	393
2.22733	387
2.23100	384
2.23467	380
2.23833	376
2.24200	373
2.24567	374
2.24933	378
2.25300	380
2.25667	381
2.26033	382
2.26400	382
2.26767	379
2.27133	375
2.27500	369
2.27867	360
2.28233	355
2.28600	355
2.28967	358
2.29333	358
2.29700	353
2.30067	347
2.30433	344
2.30800	346
2.31167	351
2.31533	358
2.31900	362
2.32267	362
2.32633	362
2.33000	361
2.33367	361
2.33733	360
2.34100	359
2.34467	358
2.34833	359
2.35200	360
2.35567	358
2.35933	357
2.36300	356
2.36667	356
2.37033	352
2.37400	348
2.37767	344
2.38133	342
2.38500	338
2.38867	333
2.39233	331
2.39600	334
2.39967	341
2.40333	351
2.40700	359
2.41067	365
2.41433	369
2.41800	370
2.42167	368
2.42533	369
2.42900	371
2.43267	371
2.43633	370
2.44000	371
2.44367	373
2.44733	372
2.45100	371
2.45467	372
2.45833	376
2.46200	381
2.46567	383
2.46933	382
2.47300	379
2.47667	375
2.48033	369
2.48400	360
2.48767	355
2.49133	355
2.49500	359
2.49867	361
2.50233	365
2.50600	369
2.50967	373
2.51333	375
2.51700	375
2.52067	376
2.52433	381
2.52800	387
2.53167	392
2.53533	395
2.53900	397
2.54267	399
2.54633	399
2.55000	397
2.55367	394
2.55733	392
2.56100	391
2.56467	392
2.56833	391
2.57200	388
2.57567	385
2.57933	381
2.58300	378
2.58667	375
2.59033	374
2.59400	372
2.59767	370
2.60133	366
2.60500	364
2.60867	362
2.61233	360
2.61600	361
2.61967	366
2.62333	370
2.62700	373
2.63067	377
2.63433	382
2.63800	388
2.64167	391
2.64533	390
2.64900	387
2.65267	384
2.65633	380
2.66000	375
2.66367	374
2.66733	377
2.67100	383
2.67467	388
2.67833	390
2.68200	390
2.68567	391
2.68933	394
2.69300	396
2.69667	397
2.70033	394
2.70400	389
2.70767	385
2.71133	383
2.71500	380
2.71867	376
2.72233	374
2.72600	376
2.72967	379
2.73333	382
2.73700	386
2.74067	388
2.74433	389
2.74800	390
2.75167	389
2.75533	388
2.75900	388
2.76267	389
2.76633	386
2.77000	384
2.77367	386
2.77733	388
2.78100	391
2.78467	394
2.78833	395
2.79200	392
2.79567	388
2.79933	384
2.80300	382
2.80667	384
2.81033	387
2.81400	389
2.81767	388
2.82133	389
2.82500	391
2.82867	389
2.83233	384
2.83600	382
2.83967	385
2.84333	387
2.84700	388
2.85067	386
2.85433	382
2.85800	381
2.86167	386
2.86533	389
2.86900	386
2.87267	380
2.87633	376
2.88000	373
2.88367	369
2.88733	367
2.89100	366
2.89467	368
2.89833	372
2.90200	378
2.90567	384
2.90933	388
2.91300	385
2.91667	379
2.92033	372
2.92400	364
2.92767	357
2.93133	351
2.93500	350
2.93867	349
2.94233	350
2.94600	353
2.94967	362
2.95333	371
2.95700	377
2.96067	380
2.96433	378
2.96800	370
2.97167	361
2.97533	354
2.97900	354
2.98267	360
2.98633	367
2.99000	374
2.99367	380
2.99733	380
3.00100	380
3.00467	380
3.00833	379
3.01200	377
3.01567	375
3.01933	376
3.02300	377
3.02667	377
3.03033	375
3.03400	371
3.03767	367
3.04133	362
3.04500	359
3.04867	359
3.05233	359
3.05600	358
3.05967	354
3.06333	350
3.06700	345
3.07067	343
3.07433	340
3.07800	337
3.08167	333
3.08533	332
3.08900	331
3.09267	331
3.09633	327
3.10000	327
3.10367	332
3.10733	340
3.11100	348
3.11467	352
3.11833	355
3.12200	355
3.12567	351
3.12933	343
3.13300	331
3.13667	320
3.14033	314
3.14400	311
3.14767	312
3.15133	311
3.15500	311
3.15867	313
3.16233	319
3.16600	326
3.16967	333
3.17333	334
3.17700	330
3.18067	327
3.18433	327
3.18800	329
3.19167	330
3.19533	330
3.19900	327
3.20267	326
3.20633	326
3.21000	327
3.21367	329
3.21733	329
3.22100	327
3.22467	324
3.22833	318
3.23200	310
3.23567	304
3.23933	299
3.24300	298
3.24667	303
3.25033	310
3.25400	312
3.25767	311
3.26133	307
3.26500	305
3.26867	308
3.27233	316
3.27600	323
3.27967	326
3.28333	325
3.28700	321
3.29067	319
3.29433	322
3.29800	324
3.30167	324
3.30533	325
3.30900	322
3.31267	314
3.31633	306
3.32000	301
3.32367	298
3.32733	296
3.33100	297
3.33467	304
3.33833	309
3.34200	312
3.34567	312
3.34933	310
3.35300	308
3.35667	305
3.36033	305
3.36400	303
3.36767	303
3.37133	306
3.37500	311
3.37867	315
3.38233	314
3.38600	311
3.38967	306
3.39333	302
3.39700	302
3.40067	302
3.40433	302
3.40800	300
3.41167	299
3.41533	298
3.41900	299
3.42267	300
3.42633	301
3.43000	302
3.43367	302
3.43733	301
3.44100	300
3.44467	301
3.44833	305
3.45200	311
3.45567	318
3.45933	322
3.46300	322
3.46667	322
3.47033	325
3.47400	328
3.47767	328
3.48133	325
3.48500	322
3.48867	321
3.49233	321
3.49600	320
3.49967	318
3.50333	316
3.50700	315
3.51067	316
3.51433	319
3.51800	321
3.52167	316
3.52533	310
3.52900	302
3.53267	294
3.53633	287
3.54000	285
3.54367	288
3.54733	294
3.55100	298
3.55467	301
3.55833	300
3.56200	299
3.56567	303
3.56933	308
3.57300	313
3.57667	316
3.58033	316
3.58400	316
3.58767	316
3.59133	314
3.59500	313
3.59867	313
3.60233	315
3.60600	312
3.60967	310
3.61333	313
3.61700	317
3.62067	316
3.62433	313
3.62800	309
3.63167	300
3.63533	290
3.63900	281
3.64267	276
3.64633	276
3.65000	278
3.65367	282
3.65733	289
3.66100	296
3.66467	303
3.66833	308
3.67200	310
3.67567	308
3.67933	310
3.68300	311
3.68667	309
3.69033	306
3.69400	304
3.69767	302
3.70133	300
3.70500	299
3.70867	303
3.71233	306
3.71600	307
3.71967	307
3.72333	311
3.72700	316
3.73067	321
3.73433	325
3.73800	325
3.74167	322
3.74533	319
3.74900	317
3.75267	315
3.75633	313
3.76000	313
3.76367	315
3.76733	320
3.77100	324
3.77467	326
3.77833	327
3.78200	325
3.78567	321
3.78933	320
3.79300	323
3.79667	323
3.80033	320
3.80400	315
3.80767	310
3.81133	307
3.81500	306
3.81867	307
3.82233	310
3.82600	312
3.82967	315
3.83333	318
3.83700	320
3.84067	321
3.84433	316
3.84800	309
3.85167	300
3.85533	292
3.85900	291
3.86267	294
3.86633	299
3.87000	303
3.87367	305
3.87733	306
3.88100	307
3.88467	308
3.88833	308
3.89200	307
3.89567	310
3.89933	311
3.90300	312
3.90667	311
3.91033	310
3.91400	310
3.91767	310
3.92133	310
3.92500	309
3.92867	308
3.93233	310
3.93600	312
3.93967	314
3.94333	316
3.94700	317
3.95067	314
3.95433	307
3.95800	298
3.96167	290
3.96533	285
3.96900	286
3.97267	292
3.97633	300
3.98000	308
3.98367	314
3.98733	319
3.99100	328
3.99467	331
3.99833	327

[Chromatogram (Ch2)]
Interval(msec)	220
# of Points	1091
Start Time(min)	0.002
End Time(min)	3.998
R.Time (min)	Intensity
0.00167	-1
0.00533	-1
0.00900	-0
0.01267	-0
0.01633	0
0.02000	0
0.02367	0
0.02733	0
0.03100	0
0.03467	0
0.03833	1
0.04200	1
0.04567	1
0.04933	1
0.05300	2
0.05667	2
0.06033	2
0.06400	2
0.06767	2
0.07133	2
0.07500	2
0.07867	2
0.08233	2
0.08600	3
0.08967	3
0.09333	3
0.09700	3
0.10067	3
0.10433	4
0.10800	4
0.11167	4
0.11533	4
0.11900	4
0.12267	4
0.12633	4
0.13000	4
0.13367	4
0.13733	4
0.14100	3
0.14467	3
0.14833	3
0.15200	2
0.15567	2
0.15933	1
0.16300	1
0.16667	0
0.17033	0
0.17400	-0
0.17767	-0
0.18133	-0
0.18500	0
0.18867	0
0.19233	0
0.19600	0
0.19967	0
0.20333	0
0.20700	0
0.21067	0
0.21433	0
0.21800	0
0.22167	0
0.22533	0
0.22900	0
0.23267	-0
0.23633	-0
0.24000	-0
0.24367	-0
0.24733	-0
0.25100	-0
0.25467	-0
0.25833	-0
0.26200	-0
0.26567	-0
0.26933	-0
0.27300	-0
0.27667	-0
0.28033	0
0.28400	0
0.28767	1
0.29133	1
0.29500	1
0.29867	2
0.30233	2
0.30600	2
0.30967	2
0.31333	2
0.31700	2
0.32067	2
0.32433	2
0.32800	2
0.33167	1
0.33533	1
0.33900	1
0.34267	1
0.34633	1
0.35000	1
0.35367	2
0.35733	2
0.36100	2
0.36467	2
0.36833	2
0.37200	2
0.37567	2
0.37933	2
0.38300	2
0.38667	1
0.39033	1
0.39400	1
0.39767	2
0.40133	2
0.40500	2
0.40867	2
0.41233	3
0.41600	3
0.41967	3
0.42333	4
0.42700	4
0.43067	4
0.43433	4
0.43800	5
0.44167	5
0.44533	5
0.44900	5
0.45267	5
0.45633	5
0.46000	4
0.46367	4
0.46733	4
0.47100	4
0.47467	3
0.47833	3
0.48200	3
0.48567	3
0.48933	3
0.49300	3
0.49667	3
0.50033	3
0.50400	3
0.50767	3
0.51133	4
0.51500	4
0.51867	4
0.52233	3
0.52600	3
0.52967	3
0.53333	3
0.53700	3
0.54067	3
0.54433	2
0.54800	2
0.55167	2
0.55533	2
0.55900	2
0.56267	2
0.56633	2
0.57000	2
0.57367	1
0.57733	1
0.58100	1
0.58467	1
0.58833	1
0.59200	2
0.59567	2
0.59933	2
0.60300	2
0.60667	2
0.61033	3
0.61400	3
0.61767	3
0.62133	3
0.62500	3
0.62867	3
0.63233	3
0.63600	3
0.63967	3
0.64333	3
0.64700	4
0.65067	4
0.65433	4
0.65800	4
0.66167	4
0.66533	4
0.66900	4
0.67267	4
0.67633	4
0.68000	4
0.68367	4
0.68733	4
0.69100	3
0.69467	3
0.69833	2
0.70200	2
0.70567	1
0.70933	0
0.71300	-0
0.71667	-0
0.72033	-1
0.72400	-1
0.72767	-1
0.73133	-1
0.73500	-0
0.73867	0
0.74233	1
0.74600	1
0.74967	2
0.75333	2
0.75700	3
0.76067	3
0.76433	3
0.76800	4
0.77167	4
0.77533	4
0.77900	4
0.78267	4
0.78633	5
0.79000	5
0.79367	5
0.79733	5
0.80100	5
0.80467	6
0.80833	6
0.81200	6
0.81567	6
0.81933	6
0.82300	6
0.82667	6
0.83033	6
0.83400	6
0.83767	7
0.84133	7
0.84500	6
0.84867	6
0.85233	6
0.85600	6
0.85967	5
0.86333	5
0.86700	5
0.87067	4
0.87433	4
0.87800	4
0.88167	3
0.88533	3
0.88900	3
0.89267	2
0.89633	2
0.90000	2
0.90367	2
0.90733	3
0.91100	3
0.91467	3
0.91833	3
0.92200	3
0.92567	3
0.92933	3
0.93300	3
0.93667	3
0.94033	3
0.94400	4
0.94767	4
0.95133	4
0.95500	4
0.95867	4
0.96233	4
0.96600	4
0.96967	4
0.97333	4
0.97700	4
0.98067	4
0.98433	4
0.98800	4
0.99167	4
0.99533	4
0.99900	4
1.00267	4
1.00633	3
1.01000	3
1.01367	3
1.01733	3
1.02100	2
1.02467	2
1.02833	2
1.03200	1
1.03567	1
1.03933	1
1.04300	1
1.04667	0
1.05033	-0
1.05400	-1
1.05767	-1
1.06133	-1
1.06500	-1
1.06867	-1
1.07233	-1
1.07600	-1
1.07967	-1
1.08333	0
1.08700	1
1.09067	1
1.09433	2
1.09800	3
1.10167	3
1.10533	4
1.10900	4
1.11267	4
1.11633	5
1.12000	5
1.12367	6
1.12733	7
1.13100	7
1.13467	8
1.13833	8
1.14200	8
1.14567	8
1.14933	8
1.15300	8
1.15667	8
1.16033	8
1.16400	8
1.16767	8
1.17133	8
1.17500	8
1.17867	8
1.18233	8
1.18600	8
1.18967	8
1.19333	8
1.19700	8
1.20067	8
1.20433	8
1.20800	7
1.21167	7
1.21533	7
1.21900	7
1.22267	7
1.22633	7
1.23000	7
1.23367	7
1.23733	7
1.24100	7
1.24467	7
1.24833	7
1.25200	7
1.25567	7
1.25933	7
1.26300	7
1.26667	6
1.27033	6
1.27400	6
1.27767	6
1.28133	6
1.28500	6
1.28867	6
1.29233	6
1.29600	6
1.29967	6
1.30333	6
1.30700	6
1.31067	6
1.31433	6
1.31800	7
1.32167	7
1.32533	6
1.32900	7
1.33267	7
1.33633	7
1.34000	7
1.34367	7
1.34733	6
1.35100	6
1.35467	6
1.35833	6
1.36200	6
1.36567	6
1.36933	5
1.37300	5
1.37667	4
1.38033	4
1.38400	4
1.38767	4
1.39133	4
1.39500	4
1.39867	4
1.40233	5
1.40600	5
1.40967	6
1.41333	6
1.41700	6
1.42067	7
1.42433	7
1.42800	7
1.43167	7
1.43533	7
1.43900	7
1.44267	7
1.44633	7
1.45000	7
1.45367	7
1.45733	7
1.46100	7
1.46467	7
1.46833	6
1.47200	6
1.47567	6
1.47933	6
1.48300	6
1.48667	6
1.49033	6
1.49400	5
1.49767	5
1.50133	5
1.50500	5
1.50867	5
1.51233	5
1.51600	5
1.51967	6
1.52333	6
1.52700	6
1.53067	6
1.53433	7
1.53800	7
1.54167	7
1.54533	7
1.54900	7
1.55267	7
1.55633	7
1.56000	8
1.56367	8
1.56733	8
1.57100	7
1.57467	7
1.57833	6
1.58200	6
1.58567	5
1.58933	5
1.59300	5
1.59667	4
1.60033	3
1.60400	2
1.60767	1
1.61133	-1
1.61500	-3
1.61867	-5
1.62233	-7
1.62600	-10
1.62967	-13
1.63333	-16
1.63700	-20
1.64067	-23
1.64433	-26
1.64800	-29
1.65167	-32
1.65533	-36
1.65900	-39
1.66267	-43
1.66633	-46
1.67000	-51
1.67367	-55
1.67733	-60
1.68100	-65
1.68467	-70
1.68833	-76
1.69200	-80
1.69567	-85
1.69933	-89
1.70300	-92
1.70667	-95
1.71033	-97
1.71400	-99
1.71767	-100
1.72133	-102
1.72500	-103
1.72867	-105
1.73233	-106
1.73600	-107
1.73967	-108
1.74333	-109
1.74700	-110
1.75067	-110
1.75433	-111
1.75800	-111
1.76167	-112
1.76533	-113
1.76900	-114
1.77267	-114
1.77633	-114
1.78000	-114
1.78367	-114
1.78733	-113
1.79100	-113
1.79467	-112
1.79833	-112
1.80200	-112
1.80567	-112
1.80933	-113
1.81300	-113
1.81667	-114
1.82033	-115
1.82400	-115
1.82767	-116
1.83133	-116
1.83500	-116
1.83867	-117
1.84233	-117
1.84600	-116
1.84967	-116
1.85333	-117
1.85700	-117
1.86067	-117
1.86433	-117
1.86800	-118
1.87167	-118
1.87533	-117
1.87900	-117
1.88267	-117
1.88633	-116
1.89000	-116
1.89367	-116
1.89733	-116
1.90100	-116
1.90467	-115
1.90833	-115
1.91200	-115
1.91567	-115
1.91933	-115
1.92300	-114
1.92667	-114
1.93033	-113
1.93400	-112
1.93767	-112
1.94133	-111
1.94500	-110
1.94867	-110
1.95233	-110
1.95600	-110
1.95967	-111
1.96333	-111
1.96700	-111
1.97067	-111
1.97433	-111
1.97800	-111
1.98167	-110
1.98533	-110
1.98900	-110
1.99267	-109
1.99633	-109
2.00000	-109
2.00367	-109
2.00733	-108
2.01100	-108
2.01467	-107
2.01833	-107
2.02200	-106
2.02567	-105
2.02933	-104
2.03300	-104
2.03667	-103
2.04033	-104
2.04400	-104
2.04767	-104
2.05133	-105
2.05500	-105
2.05867	-105
2.06233	-104
2.06600	-104
2.06967	-103
2.07333	-102
2.07700	-101
2.08067	-100
2.08433	-100
2.08800	-100
2.09167	-100
2.09533	-100
2.09900	-100
2.10267	-100
2.10633	-100
2.11000	-100
2.11367	-100
2.11733	-99
2.12100	-99
2.12467	-98
2.12833	-97
2.13200	-96
2.13567	-96
2.13933	-95
2.14300	-95
2.14667	-95
2.15033	-95
2.15400	-95
2.15767	-96
2.16133	-96
2.16500	-96
2.16867	-96
2.17233	-96
2.17600	-95
2.17967	-94
2.18333	-93
2.18700	-92
2.19067	-91
2.19433	-91
2.19800	-90
2.20167	-90
2.20533	-89
2.20900	-89
2.21267	-89
2.21633	-89
2.22000	-89
2.22367	-89
2.22733	-89
2.23100	-89
2.23467	-89
2.23833	-89
2.24200	-89
2.24567	-89
2.24933	-90
2.25300	-90
2.25667	-89
2.26033	-89
2.26400	-88
2.26767	-87
2.27133	-86
2.27500	-86
2.27867	-86
2.28233	-86
2.28600	-85
2.28967	-84
2.29333	-84
2.29700	-83
2.30067	-83
2.30433	-82
2.30800	-82
2.31167	-81
2.31533	-81
2.31900	-81
2.32267	-80
2.32633	-79
2.33000	-78
2.33367	-77
2.33733	-76
2.34100	-75
2.34467	-75
2.34833	-75
2.35200	-76
2.35567	-77
2.35933	-78
2.36300	-79
2.36667	-79
2.37033	-78
2.37400	-77
2.37767	-74
2.38133	-71
2.38500	-68
2.38867	-64
2.39233	-60
2.39600	-55
2.39967	-51
2.40333	-46
2.40700	-41
2.41067	-35
2.41433	-30
2.41800	-26
2.42167	-22
2.42533	-18
2.42900	-15
2.43267	-12
2.43633	-9
2.44000	-6
2.44367	-3
2.44733	-1
2.45100	0
2.45467	2
2.45833	3
2.46200	4
2.46567	6
2.46933	7
2.47300	8
2.47667	10
2.48033	11
2.48400	13
2.48767	15
2.49133	16
2.49500	17
2.49867	18
2.50233	19
2.50600	19
2.50967	20
2.51333	21
2.51700	21
2.52067	22
2.52433	22
2.52800	23
2.53167	23
2.53533	23
2.53900	23
2.54267	24
2.54633	24
2.55000	25
2.55367	25
2.55733	26
2.56100	26
2.56467	26
2.56833	27
2.57200	27
2.57567	27
2.57933	27
2.58300	27
2.58667	27
2.59033	27
2.59400	27
2.59767	27
2.60133	28
2.60500	28
2.60867	28
2.61233	29
2.61600	29
2.61967	30
2.62333	30
2.62700	30
2.63067	31
2.63433	31
2.63800	31
2.64167	31
2.64533	31
2.64900	31
2.65267	32
2.65633	32
2.66000	33
2.66367	34
2.66733	34
2.67100	34
2.67467	34
2.67833	34
2.68200	34
2.68567	33
2.68933	33
2.69300	33
2.69667	34
2.70033	34
2.70400	35
2.70767	35
2.71133	36
2.71500	36
2.71867	36
2.72233	37
2.72600	37
2.72967	37
2.73333	37
2.73700	37
2.74067	37
2.74433	36
2.74800	36
2.75167	35
2.75533	34
2.75900	34
2.76267	34
2.76633	34
2.77000	34
2.77367	34
2.77733	35
2.78100	35
2.78467	35
2.78833	36
2.79200	36
2.79567	37
2.79933	37
2.80300	37
2.80667	37
2.81033	37
2.81400	37
2.81767	38
2.82133	38
2.82500	38
2.82867	38
2.83233	38
2.83600	39
2.83967	39
2.84333	38
2.84700	37
2.85067	35
2.85433	32
2.85800	26
2.86167	18
2.86533	6
2.86900	-10
2.87267	-29
2.87633	-53
2.88000	-81
2.88367	-113
2.88733	-150
2.89100	-189
2.89467	-233
2.89833	-279
2.90200	-327
2.90567	-379
2.90933	-432
2.91300	-487
2.91667	-544
2.92033	-603
2.92400	-664
2.92767	-726
2.93133	-791
2.93500	-859
2.93867	-930
2.94233	-1006
2.94600	-1085
2.94967	-1157
2.95333	-1210
2.95700	-1235
2.96067	-1229
2.96433	-1194
2.96800	-1135
2.97167	-1059
2.97533	-973
2.97900	-882
2.98267	-791
2.98633	-702
2.99000	-618
2.99367	-540
2.99733	-469
3.00100	-405
3.00467	-348
3.00833	-297
3.01200	-253
3.01567	-214
3.01933	-180
3.02300	-151
3.02667	-126
3.03033	-104
3.03400	-86
3.03767	-70
3.04133	-56
3.04500	-45
3.04867	-35
3.05233	-26
3.05600	-19
3.05967	-13
3.06333	-8
3.06700	-3
3.07067	1
3.07433	4
3.07800	7
3.08167	10
3.08533	12
3.08900	14
3.09267	15
3.09633	17
3.10000	18
3.10367	19
3.10733	20
3.11100	21
3.11467	22
3.11833	23
3.12200	23
3.12567	24
3.12933	25
3.13300	25
3.13667	26
3.14033	26
3.14400	27
3.14767	28
3.15133	28
3.15500	28
3.15867	29
3.16233	29
3.16600	29
3.16967	29
3.17333	29
3.17700	29
3.18067	29
3.18433	29
3.18800	30
3.19167	30
3.19533	30
3.19900	30
3.20267	30
3.20633	31
3.21000	31
3.21367	31
3.21733	31
3.22100	31
3.22467	32
3.22833	32
3.23200	32
3.23567	32
3.23933	32
3.24300	32
3.24667	32
3.25033	32
3.25400	32
3.25767	33
3.26133	33
3.26500	33
3.26867	32
3.27233	32
3.27600	32
3.27967	32
3.28333	33
3.28700	33
3.29067	33
3.29433	33
3.29800	34
3.30167	34
3.30533	34
3.30900	34
3.31267	34
3.31633	35
3.32000	35
3.32367	36
3.32733	36
3.33100	37
3.33467	37
3.33833	38
3.34200	38
3.34567	38
3.34933	39
3.35300	39
3.35667	39
3.36033	39
3.36400	40
3.36767	40
3.37133	40
3.37500	40
3.37867	41
3.38233	41
3.38600	41
3.38967	41
3.39333	41
3.39700	41
3.40067	41
3.40433	41
3.40800	42
3.41167	42
3.41533	42
3.41900	42
3.42267	42
3.42633	41
3.43000	41
3.43367	41
3.43733	41
3.44100	41
3.44467	41
3.44833	41
3.45200	41
3.45567	41
3.45933	41
3.46300	40
3.46667	40
3.47033	40
3.47400	39
3.47767	39
3.48133	39
3.48500	39
3.48867	39
3.49233	39
3.49600	39
3.49967	39
3.50333	39
3.50700	39
3.51067	39
3.51433	39
3.51800	39
3.52167	39
3.52533	39
3.52900	39
3.53267	39
3.53633	39
3.54000	39
3.54367	39
3.54733	39
3.55100	39
3.55467	39
3.55833	39
3.56200	39
3.56567	39
3.56933	38
3.57300	38
3.57667	38
3.58033	38
3.58400	38
3.58767	37
3.59133	37
3.59500	37
3.59867	37
3.60233	37
3.60600	37
3.60967	37
3.61333	37
3.61700	37
3.62067	37
3.62433	37
3.62800	37
3.63167	37
3.63533	37
3.63900	37
3.64267	37
3.64633	37
3.65000	37
3.65367	37
3.65733	38
3.66100	38
3.66467	38
3.66833	38
3.67200	38
3.67567	38
3.67933	38
3.68300	38
3.68667	38
3.69033	38
3.69400	37
3.69767	37
3.70133	37
3.70500	37
3.70867	38
3.71233	38
3.71600	38
3.71967	38
3.72333	39
3.72700	39
3.73067	39
3.73433	39
3.73800	39
3.74167	39
3.74533	39
3.74900	39
3.75267	39
3.75633	39
3.76000	39
3.76367	39
3.76733	39
3.77100	39
3.77467	38
3.77833	38
3.78200	38
3.78567	38
3.78933	38
3.79300	38
3.79667	38
3.80033	37
3.80400	37
3.80767	37
3.81133	37
3.81500	37
3.81867	37
3.82233	37
3.82600	37
3.82967	37
3.83333	37
3.83700	37
3.84067	37
3.84433	37
3.84800	37
3.85167	37
3.85533	37
3.85900	37
3.86267	37
3.86633	37
3.87000	37
3.87367	37
3.87733	37
3.88100	37
3.88467	37
3.88833	36
3.89200	36
3.89567	36
3.89933	36
3.90300	36
3.90667	36
3.91033	36
3.91400	36
3.91767	36
3.92133	37
3.92500	37
3.92867	37
3.93233	36
3.93600	36
3.93967	36
3.94333	36
3.94700	36
3.95067	36
3.95433	37
3.95800	37
3.96167	37
3.96533	37
3.96900	37
3.97267	38
3.97633	38
3.98000	38
3.98367	38
3.98733	39
3.99100	39
3.99467	40
3.99833	40

[Chromatogram (Ch3)]
Interval(msec)	220
# of Points	1091
Start Time(min)	0.002
End Time(min)	3.998
R.Time (min)	Intensity
0.00167	-1
0.00533	-3
0.00900	-5
0.01267	-7
0.01633	-6
0.02000	-7
0.02367	-7
0.02733	-5
0.03100	-5
0.03467	-4
0.03833	-4
0.04200	-5
0.04567	-6
0.04933	-7
0.05300	-7
0.05667	-6
0.06033	-4
0.06400	-4
0.06767	-5
0.07133	-4
0.07500	-4
0.07867	-4
0.08233	-4
0.08600	-4
0.08967	-3
0.09333	-5
0.09700	-5
0.10067	-2
0.10433	-0
0.10800	2
0.11167	1
0.11533	-2
0.11900	-4
0.12267	-6
0.12633	-5
0.13000	-5
0.13367	-5
0.13733	-6
0.14100	-6
0.14467	-6
0.14833	-5
0.15200	-5
0.15567	-6
0.15933	-5
0.16300	-5
0.16667	-5
0.17033	-3
0.17400	-3
0.17767	-2
0.18133	-3
0.18500	-4
0.18867	-6
0.19233	-8
0.19600	-8
0.19967	-9
0.20333	-8
0.20700	-7
0.21067	-7
0.21433	-6
0.21800	-4
0.22167	-4
0.22533	-4
0.22900	-6
0.23267	-7
0.23633	-5
0.24000	-3
0.24367	-1
0.24733	-2
0.25100	-1
0.25467	0
0.25833	-0
0.26200	-4
0.26567	-5
0.26933	-4
0.27300	-6
0.27667	-7
0.28033	-7
0.28400	-7
0.28767	-7
0.29133	-5
0.29500	-4
0.29867	-3
0.30233	-4
0.30600	-5
0.30967	-5
0.31333	-3
0.31700	-3
0.32067	-1
0.32433	-0
0.32800	-1
0.33167	-2
0.33533	-3
0.33900	-3
0.34267	-3
0.34633	-4
0.35000	-6
0.35367	-7
0.35733	-7
0.36100	-6
0.36467	-5
0.36833	-4
0.37200	-3
0.37567	-1
0.37933	1
0.38300	2
0.38667	1
0.39033	-1
0.39400	-1
0.39767	-1
0.40133	1
0.40500	2
0.40867	0
0.41233	-2
0.41600	-4
0.41967	-4
0.42333	-4
0.42700	-3
0.43067	-2
0.43433	-2
0.43800	-3
0.44167	-5
0.44533	-8
0.44900	-8
0.45267	-8
0.45633	-8
0.46000	-6
0.46367	-6
0.46733	-4
0.47100	-2
0.47467	-4
0.47833	-6
0.48200	-7
0.48567	-7
0.48933	-5
0.49300	-4
0.49667	-4
0.50033	-5
0.50400	-4
0.50767	-4
0.51133	-5
0.51500	-6
0.51867	-9
0.52233	-9
0.52600	-9
0.52967	-8
0.53333	-6
0.53700	-5
0.54067	-3
0.54433	-1
0.54800	-3
0.55167	-4
0.55533	-5
0.55900	-4
0.56267	-5
0.56633	-6
0.57000	-5
0.57367	-5
0.57733	-4
0.58100	-2
0.58467	-1
0.58833	-4
0.59200	-6
0.59567	-5
0.59933	-7
0.60300	-11
0.60667	-13
0.61033	-13
0.61400	-13
0.61767	-13
0.62133	-11
0.62500	-10
0.62867	-10
0.63233	-9
0.63600	-9
0.63967	-7
0.64333	-5
0.64700	-5
0.65067	-5
0.65433	-5
0.65800	-6
0.66167	-6
0.66533	-7
0.66900	-9
0.67267	-10
0.67633	-10
0.68000	-10
0.68367	-10
0.68733	-10
0.69100	-13
0.69467	-13
0.69833	-12
0.70200	-9
0.70567	-7
0.70933	-7
0.71300	-8
0.71667	-9
0.72033	-9
0.72400	-8
0.72767	-7
0.73133	-6
0.73500	-5
0.73867	-5
0.74233	-6
0.74600	-5
0.74967	-3
0.75333	-3
0.75700	-3
0.76067	-5
0.76433	-9
0.76800	-9
0.77167	-7
0.77533	-6
0.77900	-8
0.78267	-10
0.78633	-10
0.79000	-9
0.79367	-9
0.79733	-12
0.80100	-15
0.80467	-14
0.80833	-11
0.81200	-10
0.81567	-9
0.81933	-7
0.82300	-7
0.82667	-7
0.83033	-9
0.83400	-8
0.83767	-4
0.84133	-3
0.84500	-3
0.84867	-5
0.85233	-6
0.85600	-7
0.85967	-9
0.86333	-10
0.86700	-11
0.87067	-12
0.87433	-12
0.87800	-11
0.88167	-11
0.88533	-13
0.88900	-12
0.89267	-13
0.89633	-12
0.90000	-11
0.90367	-10
0.90733	-9
0.91100	-7
0.91467	-3
0.91833	-1
0.92200	-3
0.92567	-3
0.92933	-6
0.93300	-8
0.93667	-10
0.94033	-10
0.94400	-11
0.94767	-11
0.95133	-12
0.95500	-13
0.95867	-12
0.96233	-11
0.96600	-11
0.96967	-11
0.97333	-12
0.97700	-11
0.98067	-12
0.98433	-14
0.98800	-13
0.99167	-10
0.99533	-8
0.99900	-7
1.00267	-8
1.00633	-10
1.01000	-12
1.01367	-13
1.01733	-14
1.02100	-14
1.02467	-12
1.02833	-10
1.03200	-10
1.03567	-8
1.03933	-5
1.04300	-4
1.04667	-4
1.05033	-4
1.05400	-3
1.05767	-6
1.06133	-10
1.06500	-12
1.06867	-13
1.07233	-13
1.07600	-13
1.07967	-14
1.08333	-16
1.08700	-18
1.09067	-19
1.09433	-18
1.09800	-15
1.10167	-13
1.10533	-11
1.10900	-11
1.11267	-12
1.11633	-13
1.12000	-13
1.12367	-14
1.12733	-13
1.13100	-14
1.13467	-16
1.13833	-17
1.14200	-17
1.14567	-17
1.14933	-18
1.15300	-19
1.15667	-21
1.16033	-22
1.16400	-19
1.16767	-17
1.17133	-18
1.17500	-20
1.17867	-20
1.18233	-18
1.18600	-18
1.18967	-18
1.19333	-17
1.19700	-15
1.20067	-15
1.20433	-15
1.20800	-15
1.21167	-13
1.21533	-13
1.21900	-11
1.22267	-8
1.22633	-7
1.23000	-7
1.23367	-6
1.23733	-5
1.24100	-6
1.24467	-9
1.24833	-11
1.25200	-12
1.25567	-12
1.25933	-12
1.26300	-13
1.26667	-15
1.27033	-15
1.27400	-16
1.27767	-19
1.28133	-20
1.28500	-20
1.28867	-20
1.29233	-19
1.29600	-17
1.29967	-14
1.30333	-13
1.30700	-13
1.31067	-14
1.31433	-16
1.31800	-17
1.32167	-18
1.32533	-16
1.32900	-17
1.33267	-17
1.33633	-15
1.34000	-15
1.34367	-12
1.34733	-10
1.35100	-11
1.35467	-13
1.35833	-13
1.36200	-13
1.36567	-12
1.36933	-13
1.37300	-13
1.37667	-14
1.38033	-16
1.38400	-16
1.38767	-16
1.39133	-14
1.39500	-10
1.39867	-10
1.40233	-11
1.40600	-13
1.40967	-14
1.41333	-15
1.41700	-16
1.42067	-15
1.42433	-14
1.42800	-14
1.43167	-17
1.43533	-18
1.43900	-20
1.44267	-20
1.44633	-20
1.45000	-17
1.45367	-15
1.45733	-16
1.46100	-17
1.46467	-17
1.46833	-16
1.47200	-15
1.47567	-15
1.47933	-14
1.48300	-14
1.48667	-15
1.49033	-16
1.49400	-18
1.49767	-18
1.50133	-19
1.50500	-20
1.50867	-20
1.51233	-20
1.51600	-19
1.51967	-18
1.52333	-17
1.52700	-16
1.53067	-18
1.53433	-18
1.53800	-18
1.54167	-18
1.54533	-19
1.54900	-18
1.55267	-16
1.55633	-16
1.56000	-15
1.56367	-14
1.56733	-15
1.57100	-17
1.57467	-20
1.57833	-22
1.58200	-24
1.58567	-23
1.58933	-22
1.59300	-22
1.59667	-21
1.60033	-20
1.60400	-21
1.60767	-22
1.61133	-22
1.61500	-22
1.61867	-21
1.62233	-20
1.62600	-18
1.62967	-16
1.63333	-13
1.63700	-10
1.64067	-8
1.64433	-8
1.64800	-7
1.65167	-7
1.65533	-6
1.65900	-4
1.66267	-3
1.66633	-2
1.67000	-2
1.67367	-1
1.67733	1
1.68100	3
1.68467	5
1.68833	4
1.69200	7
1.69567	9
1.69933	10
1.70300	11
1.70667	11
1.71033	11
1.71400	12
1.71767	14
1.72133	15
1.72500	14
1.72867	13
1.73233	14
1.73600	15
1.73967	16
1.74333	17
1.74700	19
1.75067	21
1.75433	20
1.75800	20
1.76167	20
1.76533	21
1.76900	22
1.77267	25
1.77633	27
1.78000	28
1.78367	31
1.78733	32
1.79100	34
1.79467	34
1.79833	33
1.80200	34
1.80567	35
1.80933	36
1.81300	37
1.81667	41
1.82033	44
1.82400	44
1.82767	44
1.83133	45
1.83500	45
1.83867	46
1.84233	48
1.84600	49
1.84967	50
1.85333	52
1.85700	54
1.86067	54
1.86433	54
1.86800	56
1.87167	58
1.87533	57
1.87900	57
1.88267	58
1.88633	59
1.89000	63
1.89367	67
1.89733	67
1.90100	68
1.90467	68
1.90833	68
1.91200	70
1.91567	70
1.91933	69
1.92300	71
1.92667	70
1.93033	73
1.93400	77
1.93767	82
1.94133	86
1.94500	87
1.94867	88
1.95233	88
1.95600	91
1.95967	96
1.96333	98
1.96700	99
1.97067	101
1.97433	101
1.97800	99
1.98167	100
1.98533	102
1.98900	104
1.99267	106
1.99633	107
2.00000	108
2.00367	108
2.00733	110
2.01100	112
2.01467	115
2.01833	118
2.02200	119
2.02567	120
2.02933	122
2.03300	126
2.03667	129
2.04033	132
2.04400	134
2.04767	135
2.05133	139
2.05500	145
2.05867	149
2.06233	153
2.06600	154
2.06967	155
2.07333	155
2.07700	154
2.08067	157
2.08433	161
2.08800	165
2.09167	168
2.09533	169
2.09900	168
2.10267	168
2.10633	167
2.11000	168
2.11367	172
2.11733	175
2.12100	175
2.12467	174
2.12833	176
2.13200	179
2.13567	179
2.13933	180
2.14300	182
2.14667	184
2.15033	189
2.15400	194
2.15767	199
2.16133	202
2.16500	205
2.16867	208
2.17233	211
2.17600	213
2.17967	216
2.18333	218
2.18700	219
2.19067	219
2.19433	218
2.19800	220
2.20167	222
2.20533	223
2.20900	224
2.21267	226
2.21633	230
2.22000	236
2.22367	239
2.22733	241
2.23100	244
2.23467	244
2.23833	248
2.24200	251
2.24567	255
2.24933	257
2.25300	258
2.25667	258
2.26033	258
2.26400	258
2.26767	259
2.27133	259
2.27500	262
2.27867	269
2.28233	275
2.28600	279
2.28967	280
2.29333	282
2.29700	284
2.30067	288
2.30433	291
2.30800	294
2.31167	297
2.31533	299
2.31900	302
2.32267	304
2.32633	307
2.33000	310
2.33367	315
2.33733	319
2.34100	324
2.34467	325
2.34833	326
2.35200	328
2.35567	327
2.35933	330
2.36300	335
2.36667	339
2.37033	341
2.37400	344
2.37767	345
2.38133	346
2.38500	343
2.38867	341
2.39233	341
2.39600	342
2.39967	344
2.40333	347
2.40700	349
2.41067	350
2.41433	353
2.41800	355
2.42167	356
2.42533	360
2.42900	363
2.43267	368
2.43633	372
2.44000	376
2.44367	376
2.44733	373
2.45100	368
2.45467	362
2.45833	356
2.46200	351
2.46567	346
2.46933	339
2.47300	330
2.47667	321
2.48033	312
2.48400	307
2.48767	301
2.49133	294
2.49500	288
2.49867	279
2.50233	268
2.50600	256
2.50967	246
2.51333	235
2.51700	225
2.52067	217
2.52433	210
2.52800	207
2.53167	203
2.53533	199
2.53900	196
2.54267	193
2.54633	190
2.55000	185
2.55367	181
2.55733	178
2.56100	175
2.56467	173
2.56833	170
2.57200	167
2.57567	162
2.57933	158
2.58300	156
2.58667	154
2.59033	152
2.59400	152
2.59767	153
2.60133	151
2.60500	145
2.60867	133
2.61233	113
2.61600	87
2.61967	58
2.62333	29
2.62700	-1
2.63067	-33
2.63433	-63
2.63800	-88
2.64167	-107
2.64533	-119
2.64900	-128
2.65267	-137
2.65633	-141
2.66000	-139
2.66367	-135
2.66733	-132
2.67100	-128
2.67467	-124
2.67833	-117
2.68200	-107
2.68567	-97
2.68933	-85
2.69300	-76
2.69667	-69
2.70033	-63
2.70400	-58
2.70767	-51
2.71133	-43
2.71500	-34
2.71867	-27
2.72233	-21
2.72600	-15
2.72967	-8
2.73333	-2
2.73700	4
2.74067	10
2.74433	15
2.74800	20
2.75167	26
2.75533	30
2.75900	34
2.76267	37
2.76633	40
2.77000	45
2.77367	49
2.77733	50
2.78100	51
2.78467	54
2.78833	56
2.79200	56
2.79567	54
2.79933	54
2.80300	56
2.80667	57
2.81033	56
2.81400	54
2.81767	51
2.82133	52
2.82500	56
2.82867	67
2.83233	92
2.83600	143
2.83967	243
2.84333	423
2.84700	724
2.85067	1174
2.85433	1801
2.85800	2616
2.86167	3607
2.86533	4732
2.86900	5917
2.87267	7064
2.87633	8072
2.88000	8849
2.88367	9344
2.88733	9542
2.89100	9460
2.89467	9144
2.89833	8651
2.90200	8041
2.90567	7367
2.90933	6673
2.91300	5987
2.91667	5326
2.92033	4705
2.92400	4136
2.92767	3621
2.93133	3157
2.93500	2745
2.93867	2383
2.94233	2063
2.94600	1779
2.94967	1533
2.95333	1319
2.95700	1132
2.96067	967
2.96433	825
2.96800	702
2.97167	596
2.97533	508
2.97900	432
2.98267	363
2.98633	301
2.99000	250
2.99367	206
2.99733	172
3.00100	143
3.00467	116
3.00833	90
3.01200	68
3.01567	49
3.01933	35
3.02300	21
3.02667	9
3.03033	-0
3.03400	-7
3.03767	-12
3.04133	-18
3.04500	-24
3.04867	-29
3.05233	-31
3.05600	-36
3.05967	-40
3.06333	-42
3.06700	-44
3.07067	-44
3.07433	-44
3.07800	-45
3.08167	-49
3.08533	-51
3.08900	-53
3.09267	-54
3.09633	-52
3.10000	-52
3.10367	-52
3.10733	-52
3.11100	-53
3.11467	-54
3.11833	-55
3.12200	-56
3.12567	-61
3.12933	-65
3.13300	-66
3.13667	-68
3.14033	-70
3.14400	-72
3.14767	-73
3.15133	-74
3.15500	-72
3.15867	-70
3.16233	-69
3.16600	-70
3.16967	-69
3.17333	-69
3.17700	-70
3.18067	-70
3.18433	-67
3.18800	-65
3.19167	-66
3.19533	-68
3.19900	-71
3.20267	-71
3.20633	-73
3.21000	-72
3.21367	-72
3.21733	-75
3.22100	-75
3.22467	-75
3.22833	-72
3.23200	-70
3.23567	-70
3.23933	-71
3.24300	-72
3.24667	-72
3.25033	-73
3.25400	-75
3.25767	-77
3.26133	-76
3.26500	-73
3.26867	-71
3.27233	-70
3.27600	-69
3.27967	-69
3.28333	-72
3.28700	-74
3.29067	-76
3.29433	-76
3.29800	-78
3.30167	-81
3.30533	-83
3.30900	-85
3.31267	-84
3.31633	-85
3.32000	-84
3.32367	-85
3.32733	-86
3.33100	-88
3.33467	-90
3.33833	-91
3.34200	-90
3.34567	-91
3.34933	-93
3.35300	-94
3.35667	-94
3.36033	-96
3.36400	-99
3.36767	-100
3.37133	-102
3.37500	-103
3.37867	-103
3.38233	-102
3.38600	-101
3.38967	-103
3.39333	-103
3.39700	-102
3.40067	-101
3.40433	-103
3.40800	-106
3.41167	-106
3.41533	-104
3.41900	-103
3.42267	-104
3.42633	-107
3.43000	-109
3.43367	-110
3.43733	-112
3.44100	-114
3.44467	-114
3.44833	-115
3.45200	-116
3.45567	-114
3.45933	-113
3.46300	-114
3.46667	-116
3.47033	-118
3.47400	-119
3.47767	-117
3.48133	-117
3.48500	-118
3.48867	-118
3.49233	-119
3.49600	-120
3.49967	-121
3.50333	-121
3.50700	-122
3.51067	-123
3.51433	-124
3.51800	-125
3.52167	-126
3.52533	-127
3.52900	-129
3.53267	-129
3.53633	-128
3.54000	-129
3.54367	-130
3.54733	-130
3.55100	-131
3.55467	-130
3.55833	-130
3.56200	-132
3.56567	-133
3.56933	-134
3.57300	-136
3.57667	-137
3.58033	-138
3.58400	-138
3.58767	-138
3.59133	-140
3.59500	-141
3.59867	-141
3.60233	-140
3.60600	-141
3.60967	-141
3.61333	-142
3.61700	-145
3.62067	-149
3.62433	-149
3.62800	-149
3.63167	-148
3.63533	-148
3.63900	-148
3.64267	-148
3.64633	-148
3.65000	-149
3.65367	-150
3.65733	-150
3.66100	-152
3.66467	-153
3.66833	-153
3.67200	-154
3.67567	-153
3.67933	-153
3.68300	-153
3.68667	-153
3.69033	-154
3.69400	-156
3.69767	-157
3.70133	-159
3.70500	-161
3.70867	-162
3.71233	-162
3.71600	-163
3.71967	-162
3.72333	-159
3.72700	-156
3.73067	-155
3.73433	-158
3.73800	-161
3.74167	-160
3.74533	-161
3.74900	-163
3.75267	-164
3.75633	-166
3.76000	-167
3.76367	-167
3.76733	-165
3.77100	-165
3.77467	-165
3.77833	-164
3.78200	-165
3.78567	-167
3.78933	-167
3.79300	-167
3.79667	-168
3.80033	-170
3.80400	-171
3.80767	-171
3.81133	-173
3.81500	-174
3.81867	-175
3.82233	-176
3.82600	-176
3.82967	-176
3.83333	-173
3.83700	-172
3.84067	-171
3.84433	-171
3.84800	-171
3.85167	-171
3.85533	-173
3.85900	-174
3.86267	-175
3.86633	-175
3.87000	-177
3.87367	-178
3.87733	-180
3.88100	-181
3.88467	-183
3.88833	-184
3.89200	-185
3.89567	-184
3.89933	-181
3.90300	-182
3.90667	-182
3.91033	-181
3.91400	-182
3.91767	-184
3.92133	-184
3.92500	-184
3.92867	-183
3.93233	-182
3.93600	-182
3.93967	-183
3.94333	-185
3.94700	-186
3.95067	-184
3.95433	-184
3.95800	-184
3.96167	-184
3.96533	-186
3.96900	-188
3.97267	-188
3.97633	-187
3.98000	-186
3.98367	-185
3.98733	-182
3.99100	-180
3.99467	-182
3.99833	-185

[Status Trace (Column Oven Temperature)]
Interval(msec)	1000
# of Points	240
Start Time(min)	0.005
End Time(min)	3.988
Intensity Units	
Intensity Multiplier	1
R.Time (min)	Intensity
0.00513	35.01
0.02180	35.02
0.03847	35.02
0.05513	35.01
0.07180	35.01
0.08847	35.00
0.10513	34.99
0.12180	34.98
0.13847	34.98
0.15513	34.99
0.17180	35.00
0.18847	35.00
0.20513	35.01
0.22180	35.01
0.23847	35.01
0.25513	35.01
0.27180	35.00
0.28847	35.00
0.30513	35.00
0.32180	35.00
0.33847	35.01
0.35513	35.01
0.37180	35.00
0.38847	35.01
0.40513	35.00
0.42180	34.99
0.43847	34.99
0.45513	34.98
0.47180	34.98
0.48847	34.98
0.50513	34.97
0.52180	34.98
0.53847	34.99
0.55513	35.00
0.57180	35.00
0.58847	35.00
0.60513	35.00
0.62180	35.00
0.63847	34.99
0.65513	35.00
0.67180	34.98
0.68847	34.99
0.70513	35.01
0.72180	35.02
0.73847	35.02
0.75513	35.01
0.77180	35.00
0.78847	34.98
0.80513	34.98
0.82180	34.98
0.83847	34.98
0.85513	34.98
0.87180	34.98
0.88847	34.98
0.90513	34.99
0.92180	34.98
0.93847	34.98
0.95513	34.98
0.97180	34.98
0.98847	34.98
1.00513	34.99
1.02180	35.00
1.03847	35.02
1.05513	35.04
1.07180	35.04
1.08847	35.04
1.10513	35.03
1.12180	35.02
1.13847	35.01
1.15513	35.00
1.17180	34.99
1.18847	34.99
1.20513	34.98
1.22180	34.99
1.23847	34.98
1.25513	34.97
1.27180	34.98
1.28847	34.98
1.30513	34.97
1.32180	34.98
1.33847	34.98
1.35513	34.99
1.37180	34.99
1.38847	34.99
1.40513	35.00
1.42180	34.99
1.43847	34.98
1.45513	34.98
1.47180	34.98
1.48847	34.99
1.50513	34.99
1.52180	34.99
1.53847	34.98
1.55513	34.99
1.57180	34.98
1.58847	35.00
1.60513	35.06
1.62180	35.17
1.63847	35.35
1.65513	35.58
1.67180	35.88
1.68847	36.25
1.70513	36.59
1.72180	36.94
1.73847	37.29
1.75513	37.62
1.77180	37.96
1.78847	38.26
1.80513	38.59
1.82180	38.93
1.83847	39.25
1.85513	39.60
1.87180	39.92
1.88847	40.25
1.90513	40.58
1.92180	40.91
1.93847	41.22
1.95513	41.55
1.97180	41.88
1.98847	42.20
2.00513	42.53
2.02180	42.84
2.03847	43.17
2.05513	43.51
2.07180	43.81
2.08847	44.14
2.10513	44.49
2.12180	44.81
2.13847	45.13
2.15513	45.47
2.17180	45.81
2.18847	46.12
2.20513	46.44
2.22180	46.76
2.23847	47.11
2.25513	47.43
2.27180	47.78
2.28847	48.10
2.30513	48.43
2.32180	48.77
2.33847	49.06
2.35513	49.41
2.37180	49.64
2.38847	49.72
2.40513	49.71
2.42180	49.73
2.43847	49.71
2.45513	49.73
2.47180	49.73
2.48847	49.74
2.50513	49.75
2.52180	49.77
2.53847	49.78
2.55513	49.80
2.57180	49.81
2.58847	49.83
2.60513	49.83
2.62180	49.83
2.63847	49.86
2.65513	49.84
2.67180	49.85
2.68847	49.86
2.70513	49.85
2.72180	49.84
2.73847	49.85
2.75513	49.89
2.77180	49.90
2.78847	49.91
2.80513	49.90
2.82180	49.90
2.83847	49.90
2.85513	49.90
2.87180	49.91
2.88847	49.92
2.90513	49.92
2.92180	49.94
2.93847	49.94
2.95513	49.95
2.97180	49.96
2.98847	49.98
3.00513	49.98
3.02180	49.99
3.03847	50.00
3.05513	50.01
3.07180	50.02
3.08847	50.03
3.10513	50.04
3.12180	50.05
3.13847	50.06
3.15513	50.06
3.17180	50.06
3.18847	50.07
3.20513	50.08
3.22180	50.08
3.23847	50.09
3.25513	50.10
3.27180	50.12
3.28847	50.12
3.30513	50.11
3.32180	50.10
3.33847	50.08
3.35513	50.06
3.37180	50.04
3.38847	50.03
3.40513	50.02
3.42180	50.00
3.43847	50.00
3.45513	49.99
3.47180	49.98
3.48847	49.98
3.50513	49.99
3.52180	49.98
3.53847	49.97
3.55513	49.98
3.57180	49.98
3.58847	49.99
3.60513	50.00
3.62180	50.00
3.63847	50.01
3.65513	50.01
3.67180	50.02
3.68847	50.02
3.70513	50.02
3.72180	50.01
3.73847	50.01
3.75513	50.02
3.77180	50.03
3.78847	50.03
3.80513	50.04
3.82180	50.05
3.83847	50.06
3.85513	50.06
3.87180	50.06
3.88847	50.07
3.90513	50.08
3.92180	50.08
3.93847	50.09
3.95513	50.10
3.97180	50.11
3.98847	50.09

[Status Trace (Injection Unit Temperature)]
Interval(msec)	1000
# of Points	240
Start Time(min)	0.005
End Time(min)	3.988
Intensity Units	
Intensity Multiplier	1
R.Time (min)	Intensity
0.00513	100.00
0.02180	100.00
0.03847	100.00
0.05513	100.00
0.07180	100.00
0.08847	100.00
0.10513	100.00
0.12180	100.00
0.13847	100.00
0.15513	100.00
0.17180	100.00
0.18847	100.00
0.20513	100.00
0.22180	100.00
0.23847	100.00
0.25513	100.00
0.27180	100.00
0.28847	99.99
0.30513	99.99
0.32180	100.00
0.33847	100.00
0.35513	100.00
0.37180	99.99
0.38847	100.00
0.40513	100.00
0.42180	100.00
0.43847	100.00
0.45513	99.99
0.47180	100.00
0.48847	100.00
0.50513	100.00
0.52180	99.99
0.53847	100.00
0.55513	99.99
0.57180	99.99
0.58847	99.99
0.60513	100.00
0.62180	100.00
0.63847	100.00
0.65513	100.00
0.67180	99.99
0.68847	99.99
0.70513	100.00
0.72180	100.00
0.73847	99.99
0.75513	99.99
0.77180	99.99
0.78847	99.99
0.80513	100.00
0.82180	99.99
0.83847	100.00
0.85513	100.00
0.87180	100.00
0.88847	100.00
0.90513	100.00
0.92180	100.00
0.93847	100.00
0.95513	100.00
0.97180	100.00
0.98847	100.00
1.00513	99.99
1.02180	100.00
1.03847	100.00
1.05513	100.00
1.07180	100.00
1.08847	100.00
1.10513	100.00
1.12180	100.00
1.13847	100.00
1.15513	100.00
1.17180	100.00
1.18847	100.00
1.20513	100.00
1.22180	100.00
1.23847	100.00
1.25513	100.00
1.27180	100.00
1.28847	100.00
1.30513	100.00
1.32180	100.00
1.33847	100.00
1.35513	100.00
1.37180	100.00
1.38847	100.00
1.40513	100.00
1.42180	100.00
1.43847	100.00
1.45513	100.01
1.47180	100.00
1.48847	100.00
1.50513	100.01
1.52180	100.01
1.53847	100.01
1.55513	100.01
1.57180	100.01
1.58847	100.01
1.60513	100.00
1.62180	100.01
1.63847	100.01
1.65513	100.00
1.67180	100.01
1.68847	100.01
1.70513	100.00
1.72180	100.01
1.73847	100.01
1.75513	100.01
1.77180	100.00
1.78847	100.00
1.80513	100.00
1.82180	100.00
1.83847	100.00
1.85513	100.00
1.87180	100.00
1.88847	100.00
1.90513	100.00
1.92180	100.00
1.93847	99.99
1.95513	99.99
1.97180	99.99
1.98847	99.99
2.00513	99.99
2.02180	99.99
2.03847	99.99
2.05513	99.99
2.07180	99.99
2.08847	99.99
2.10513	99.99
2.12180	99.98
2.13847	99.99
2.15513	99.98
2.17180	99.98
2.18847	99.98
2.20513	99.98
2.22180	99.98
2.23847	99.98
2.25513	99.98
2.27180	99.97
2.28847	99.97
2.30513	99.97
2.32180	99.98
2.33847	99.97
2.35513	99.98
2.37180	99.97
2.38847	99.97
2.40513	99.97
2.42180	99.97
2.43847	99.97
2.45513	99.98
2.47180	99.98
2.48847	99.97
2.50513	99.97
2.52180	99.98
2.53847	99.98
2.55513	99.98
2.57180	99.97
2.58847	99.98
2.60513	99.98
2.62180	99.98
2.63847	99.98
2.65513	99.99
2.67180	99.98
2.68847	99.99
2.70513	99.99
2.72180	99.99
2.73847	99.99
2.75513	99.99
2.77180	99.99
2.78847	99.99
2.80513	99.99
2.82180	99.99
2.83847	99.99
2.85513	100.00
2.87180	100.00
2.88847	100.00
2.90513	100.00
2.92180	100.00
2.93847	100.01
2.95513	100.01
2.97180	100.01
2.98847	100.01
3.00513	100.01
3.02180	100.02
3.03847	100.01
3.05513	100.01
3.07180	100.01
3.08847	100.02
3.10513	100.02
3.12180	100.02
3.13847	100.02
3.15513	100.02
3.17180	100.02
3.18847	100.02
3.20513	100.03
3.22180	100.02
3.23847	100.03
3.25513	100.03
3.27180	100.03
3.28847	100.03
3.30513	100.03
3.32180	100.03
3.33847	100.03
3.35513	100.03
3.37180	100.04
3.38847	100.03
3.40513	100.04
3.42180	100.04
3.43847	100.04
3.45513	100.04
3.47180	100.04
3.48847	100.04
3.50513	100.05
3.52180	100.04
3.53847	100.05
3.55513	100.04
3.57180	100.05
3.58847	100.05
3.60513	100.05
3.62180	100.05
3.63847	100.05
3.65513	100.05
3.67180	100.05
3.68847	100.05
3.70513	100.05
3.72180	100.05
3.73847	100.05
3.75513	100.05
3.77180	100.05
3.78847	100.05
3.80513	100.05
3.82180	100.06
3.83847	100.05
3.85513	100.05
3.87180	100.06
3.88847	100.05
3.90513	100.05
3.92180	100.06
3.93847	100.05
3.95513	100.06
3.97180	100.06
3.98847	100.05

[Status Trace (Carrier Gas Pressure)]
Interval(msec)	1000
# of Points	240
Start Time(min)	0.005
End Time(min)	3.988
Intensity Units	
Intensity Multiplier	1
R.Time (min)	Intensity
0.00513	58.00
0.02180	55.77
0.03847	56.59
0.05513	58.81
0.07180	59.70
0.08847	58.19
0.10513	57.98
0.12180	58.00
0.13847	58.01
0.15513	58.01
0.17180	58.00
0.18847	58.00
0.20513	58.00
0.22180	58.00
0.23847	58.00
0.25513	58.00
0.27180	58.00
0.28847	58.00
0.30513	58.00
0.32180	58.00
0.33847	58.00
0.35513	58.00
0.37180	58.00
0.38847	58.00
0.40513	58.00
0.42180	58.00
0.43847	58.00
0.45513	58.00
0.47180	58.00
0.48847	58.00
0.50513	58.00
0.52180	58.00
0.53847	58.00
0.55513	58.00
0.57180	58.00
0.58847	58.00
0.60513	58.00
0.62180	58.00
0.63847	58.00
0.65513	58.00
0.67180	58.00
0.68847	58.00
0.70513	58.00
0.72180	58.00
0.73847	58.00
0.75513	58.00
0.77180	58.00
0.78847	58.00
0.80513	58.00
0.82180	58.00
0.83847	58.00
0.85513	58.00
0.87180	58.00
0.88847	58.00
0.90513	58.00
0.92180	58.00
0.93847	58.00
0.95513	58.00
0.97180	58.00
0.98847	58.00
1.00513	58.00
1.02180	58.00
1.03847	58.00
1.05513	58.00
1.07180	58.00
1.08847	58.00
1.10513	58.00
1.12180	58.00
1.13847	58.00
1.15513	58.00
1.17180	58.00
1.18847	58.00
1.20513	58.00
1.22180	58.00
1.23847	58.00
1.25513	58.00
1.27180	58.00
1.28847	58.00
1.30513	58.00
1.32180	58.00
1.33847	58.00
1.35513	58.00
1.37180	58.00
1.38847	58.00
1.40513	58.00
1.42180	58.00
1.43847	58.00
1.45513	58.00
1.47180	58.00
1.48847	58.00
1.50513	58.00
1.52180	58.00
1.53847	58.00
1.55513	58.00
1.57180	58.00
1.58847	58.00
1.60513	58.00
1.62180	58.00
1.63847	58.00
1.65513	58.00
1.67180	58.01
1.68847	58.01
1.70513	58.00
1.72180	58.00
1.73847	58.00
1.75513	58.00
1.77180	58.00
1.78847	58.00
1.80513	58.00
1.82180	58.00
1.83847	58.00
1.85513	58.00
1.87180	58.00
1.88847	58.00
1.90513	58.00
1.92180	58.00
1.93847	58.00
1.95513	58.00
1.97180	58.00
1.98847	58.00
2.00513	58.00
2.02180	58.00
2.03847	58.00
2.05513	58.00
2.07180	58.00
2.08847	58.00
2.10513	58.00
2.12180	58.00
2.13847	58.00
2.15513	58.00
2.17180	58.00
2.18847	58.00
2.20513	58.00
2.22180	58.00
2.23847	58.00
2.25513	58.00
2.27180	58.00
2.28847	58.00
2.30513	58.00
2.32180	58.00
2.33847	58.00
2.35513	58.00
2.37180	58.00
2.38847	57.99
2.40513	57.99
2.42180	58.00
2.43847	58.00
2.45513	58.00
2.47180	58.00
2.48847	58.00
2.50513	57.99
2.52180	57.98
2.53847	58.00
2.55513	58.00
2.57180	58.00
2.58847	58.00
2.60513	58.00
2.62180	58.00
2.63847	58.00
2.65513	58.00
2.67180	58.00
2.68847	58.00
2.70513	58.00
2.72180	58.00
2.73847	58.00
2.75513	58.00
2.77180	58.00
2.78847	58.00
2.80513	58.00
2.82180	58.00
2.83847	58.00
2.85513	58.00
2.87180	58.00
2.88847	58.00
2.90513	58.00
2.92180	58.00
2.93847	58.00
2.95513	58.00
2.97180	58.00
2.98847	58.00
3.00513	58.00
3.02180	58.00
3.03847	58.00
3.05513	58.00
3.07180	58.00
3.08847	58.00
3.10513	58.00
3.12180	58.00
3.13847	58.00
3.15513	58.00
3.17180	58.00
3.18847	58.00
3.20513	58.00
3.22180	58.00
3.23847	58.00
3.25513	58.00
3.27180	58.00
3.28847	58.00
3.30513	58.00
3.32180	58.00
3.33847	58.00
3.35513	58.00
3.37180	58.00
3.38847	58.00
3.40513	58.00
3.42180	58.00
3.43847	58.00
3.45513	58.00
3.47180	58.00
3.48847	58.00
3.50513	58.00
3.52180	58.00
3.53847	58.00
3.55513	58.00
3.57180	58.00
3.58847	58.00
3.60513	58.00
3.62180	58.00
3.63847	58.00
3.65513	58.00
3.67180	58.00
3.68847	58.00
3.70513	58.00
3.72180	58.00
3.73847	58.00
3.75513	58.00
3.77180	58.00
3.78847	58.00
3.80513	58.00
3.82180	58.00
3.83847	58.00
3.85513	58.00
3.87180	58.00
3.88847	58.00
3.90513	58.00
3.92180	58.00
3.93847	58.00
3.95513	58.00
3.97180	58.00
3.98847	58.00

[Status Trace (Carrier Gas Flow)]
Interval(msec)	1000
# of Points	240
Start Time(min)	0.005
End Time(min)	3.988
Intensity Units	
Intensity Multiplier	1
R.Time (min)	Intensity
0.00513	34.52
0.02180	34.54
0.03847	34.55
0.05513	34.55
0.07180	34.49
0.08847	34.52
0.10513	34.52
0.12180	34.52
0.13847	34.52
0.15513	34.52
0.17180	34.52
0.18847	34.52
0.20513	34.52
0.22180	34.52
0.23847	34.52
0.25513	34.52
0.27180	34.52
0.28847	34.52
0.30513	34.52
0.32180	34.52
0.33847	34.52
0.35513	34.52
0.37180	34.52
0.38847	34.52
0.40513	34.52
0.42180	34.52
0.43847	34.52
0.45513	34.52
0.47180	34.52
0.48847	34.52
0.50513	34.52
0.52180	34.52
0.53847	34.52
0.55513	34.52
0.57180	34.52
0.58847	34.52
0.60513	34.52
0.62180	34.52
0.63847	34.52
0.65513	34.52
0.67180	34.52
0.68847	34.52
0.70513	34.51
0.72180	34.52
0.73847	34.52
0.75513	34.51
0.77180	34.52
0.78847	34.52
0.80513	34.52
0.82180	34.52
0.83847	34.52
0.85513	34.52
0.87180	34.52
0.88847	34.52
0.90513	34.52
0.92180	34.52
0.93847	34.52
0.95513	34.52
0.97180	34.52
0.98847	34.52
1.00513	34.52
1.02180	34.52
1.03847	34.52
1.05513	34.52
1.07180	34.52
1.08847	34.52
1.10513	34.52
1.12180	34.52
1.13847	34.52
1.15513	34.52
1.17180	34.52
1.18847	34.52
1.20513	34.52
1.22180	34.52
1.23847	34.52
1.25513	34.52
1.27180	34.52
1.28847	34.52
1.30513	34.52
1.32180	34.52
1.33847	34.52
1.35513	34.52
1.37180	34.52
1.38847	34.52
1.40513	34.52
1.42180	34.52
1.43847	34.52
1.45513	34.52
1.47180	34.52
1.48847	34.52
1.50513	34.52
1.52180	34.52
1.53847	34.52
1.55513	34.52
1.57180	34.52
1.58847	34.52
1.60513	34.52
1.62180	34.52
1.63847	34.52
1.65513	34.52
1.67180	34.52
1.68847	34.52
1.70513	34.52
1.72180	34.52
1.73847	34.52
1.75513	34.52
1.77180	34.52
1.78847	34.52
1.80513	34.52
1.82180	34.51
1.83847	34.52
1.85513	34.52
1.87180	34.52
1.88847	34.51
1.90513	34.52
1.92180	34.52
1.93847	34.52
1.95513	34.52
1.97180	34.51
1.98847	34.52
2.00513	34.52
2.02180	34.52
2.03847	34.52
2.05513	34.52
2.07180	34.52
2.08847	34.52
2.10513	34.52
2.12180	34.52
2.13847	34.52
2.15513	34.52
2.17180	34.52
2.18847	34.52
2.20513	34.52
2.22180	34.52
2.23847	34.52
2.25513	34.52
2.27180	34.52
2.28847	34.52
2.30513	34.52
2.32180	34.52
2.33847	34.52
2.35513	34.52
2.37180	34.52
2.38847	34.54
2.40513	34.52
2.42180	34.52
2.43847	34.52
2.45513	34.52
2.47180	34.52
2.48847	34.52
2.50513	34.54
2.52180	34.52
2.53847	34.52
2.55513	34.52
2.57180	34.52
2.58847	34.52
2.60513	34.52
2.62180	34.52
2.63847	34.52
2.65513	34.52
2.67180	34.52
2.68847	34.52
2.70513	34.52
2.72180	34.52
2.73847	34.52
2.75513	34.52
2.77180	34.52
2.78847	34.52
2.80513	34.52
2.82180	34.52
2.83847	34.52
2.85513	34.52
2.87180	34.52
2.88847	34.52
2.90513	34.52
2.92180	34.52
2.93847	34.52
2.95513	34.52
2.97180	34.52
2.98847	34.52
3.00513	34.52
3.02180	34.52
3.03847	34.52
3.05513	34.52
3.07180	34.52
3.08847	34.52
3.10513	34.52
3.12180	34.52
3.13847	34.52
3.15513	34.52
3.17180	34.53
3.18847	34.50
3.20513	34.52
3.22180	34.52
3.23847	34.52
3.25513	34.52
3.27180	34.52
3.28847	34.52
3.30513	34.52
3.32180	34.52
3.33847	34.52
3.35513	34.52
3.37180	34.52
3.38847	34.52
3.40513	34.52
3.42180	34.52
3.43847	34.52
3.45513	34.52
3.47180	34.52
3.48847	34.52
3.50513	34.52
3.52180	34.52
3.53847	34.52
3.55513	34.52
3.57180	34.51
3.58847	34.52
3.60513	34.52
3.62180	34.52
3.63847	34.52
3.65513	34.52
3.67180	34.52
3.68847	34.52
3.70513	34.52
3.72180	34.52
3.73847	34.52
3.75513	34.52
3.77180	34.52
3.78847	34.52
3.80513	34.52
3.82180	34.52
3.83847	34.52
3.85513	34.52
3.87180	34.52
3.88847	34.52
3.90513	34.52
3.92180	34.52
3.93847	34.52
3.95513	34.52
3.97180	34.52
3.98847	34.52

[Status Trace (Column Flow)]
Interval(msec)	1000
# of Points	240
Start Time(min)	0.005
End Time(min)	3.988
Intensity Units	
Intensity Multiplier	1
R.Time (min)	Intensity
0.00513	5.50
0.02180	5.24
0.03847	5.33
0.05513	5.59
0.07180	5.70
0.08847	5.52
0.10513	5.50
0.12180	5.50
0.13847	5.50
0.15513	5.50
0.17180	5.50
0.18847	5.50
0.20513	5.50
0.22180	5.50
0.23847	5.50
0.25513	5.50
0.27180	5.50
0.28847	5.50
0.30513	5.50
0.32180	5.50
0.33847	5.50
0.35513	5.50
0.37180	5.50
0.38847	5.50
0.40513	5.50
0.42180	5.50
0.43847	5.50
0.45513	5.50
0.47180	5.50
0.48847	5.50
0.50513	5.50
0.52180	5.50
0.53847	5.50
0.55513	5.50
0.57180	5.50
0.58847	5.50
0.60513	5.50
0.62180	5.50
0.63847	5.50
0.65513	5.50
0.67180	5.50
0.68847	5.50
0.70513	5.50
0.72180	5.50
0.73847	5.50
0.75513	5.50
0.77180	5.50
0.78847	5.50
0.80513	5.50
0.82180	5.50
0.83847	5.50
0.85513	5.50
0.87180	5.50
0.88847	5.50
0.90513	5.50
0.92180	5.50
0.93847	5.50
0.95513	5.50
0.97180	5.50
0.98847	5.50
1.00513	5.50
1.02180	5.50
1.03847	5.50
1.05513	5.50
1.07180	5.50
1.08847	5.50
1.10513	5.50
1.12180	5.50
1.13847	5.50
1.15513	5.50
1.17180	5.50
1.18847	5.50
1.20513	5.50
1.22180	5.50
1.23847	5.50
1.25513	5.50
1.27180	5.50
1.28847	5.50
1.30513	5.50
1.32180	5.50
1.33847	5.50
1.35513	5.50
1.37180	5.50
1.38847	5.50
1.40513	5.50
1.42180	5.50
1.43847	5.50
1.45513	5.50
1.47180	5.50
1.48847	5.50
1.50513	5.50
1.52180	5.50
1.53847	5.50
1.55513	5.50
1.57180	5.50
1.58847	5.50
1.60513	5.50
1.62180	5.49
1.63847	5.49
1.65513	5.48
1.67180	5.47
1.68847	5.46
1.70513	5.45
1.72180	5.44
1.73847	5.43
1.75513	5.42
1.77180	5.41
1.78847	5.40
1.80513	5.39
1.82180	5.38
1.83847	5.37
1.85513	5.36
1.87180	5.35
1.88847	5.34
1.90513	5.33
1.92180	5.32
1.93847	5.31
1.95513	5.30
1.97180	5.29
1.98847	5.28
2.00513	5.27
2.02180	5.26
2.03847	5.25
2.05513	5.24
2.07180	5.23
2.08847	5.22
2.10513	5.21
2.12180	5.20
2.13847	5.19
2.15513	5.18
2.17180	5.17
2.18847	5.16
2.20513	5.16
2.22180	5.15
2.23847	5.14
2.25513	5.13
2.27180	5.12
2.28847	5.11
2.30513	5.10
2.32180	5.09
2.33847	5.08
2.35513	5.07
2.37180	5.07
2.38847	5.06
2.40513	5.06
2.42180	5.06
2.43847	5.06
2.45513	5.06
2.47180	5.06
2.48847	5.06
2.50513	5.06
2.52180	5.06
2.53847	5.06
2.55513	5.06
2.57180	5.06
2.58847	5.06
2.60513	5.06
2.62180	5.06
2.63847	5.06
2.65513	5.06
2.67180	5.06
2.68847	5.06
2.70513	5.06
2.72180	5.06
2.73847	5.06
2.75513	5.06
2.77180	5.06
2.78847	5.06
2.80513	5.06
2.82180	5.06
2.83847	5.06
2.85513	5.06
2.87180	5.06
2.88847	5.06
2.90513	5.06
2.92180	5.06
2.93847	5.06
2.95513	5.06
2.97180	5.06
2.98847	5.06
3.00513	5.06
3.02180	5.06
3.03847	5.06
3.05513	5.06
3.07180	5.06
3.08847	5.06
3.10513	5.06
3.12180	5.06
3.13847	5.06
3.15513	5.06
3.17180	5.06
3.18847	5.05
3.20513	5.05
3.22180	5.05
3.23847	5.05
3.25513	5.05
3.27180	5.05
3.28847	5.05
3.30513	5.05
3.32180	5.05
3.33847	5.05
3.35513	5.05
3.37180	5.06
3.38847	5.06
3.40513	5.06
3.42180	5.06
3.43847	5.06
3.45513	5.06
3.47180	5.06
3.48847	5.06
3.50513	5.06
3.52180	5.06
3.53847	5.06
3.55513	5.06
3.57180	5.06
3.58847	5.06
3.60513	5.06
3.62180	5.06
3.63847	5.06
3.65513	5.06
3.67180	5.06
3.68847	5.06
3.70513	5.06
3.72180	5.06
3.73847	5.06
3.75513	5.06
3.77180	5.06
3.78847	5.06
3.80513	5.06
3.82180	5.06
3.83847	5.05
3.85513	5.05
3.87180	5.05
3.88847	5.05
3.90513	5.05
3.92180	5.05
3.93847	5.05
3.95513	5.05
3.97180	5.05
3.98847	5.05

[Status Trace (Linear Velocity)]
Interval(msec)	1000
# of Points	240
Start Time(min)	0.005
End Time(min)	3.988
Intensity Units	
Intensity Multiplier	1
R.Time (min)	Intensity
0.00513	39.01
0.02180	37.55
0.03847	38.08
0.05513	39.54
0.07180	40.12
0.08847	39.13
0.10513	39.00
0.12180	39.02
0.13847	39.02
0.15513	39.02
0.17180	39.01
0.18847	39.01
0.20513	39.01
0.22180	39.01
0.23847	39.01
0.25513	39.01
0.27180	39.01
0.28847	39.01
0.30513	39.01
0.32180	39.01
0.33847	39.01
0.35513	39.01
0.37180	39.01
0.38847	39.01
0.40513	39.01
0.42180	39.01
0.43847	39.01
0.45513	39.01
0.47180	39.01
0.48847	39.01
0.50513	39.01
0.52180	39.01
0.53847	39.01
0.55513	39.01
0.57180	39.01
0.58847	39.01
0.60513	39.01
0.62180	39.01
0.63847	39.01
0.65513	39.01
0.67180	39.01
0.68847	39.01
0.70513	39.01
0.72180	39.01
0.73847	39.01
0.75513	39.01
0.77180	39.01
0.78847	39.01
0.80513	39.01
0.82180	39.01
0.83847	39.01
0.85513	39.01
0.87180	39.01
0.88847	39.01
0.90513	39.01
0.92180	39.01
0.93847	39.01
0.95513	39.01
0.97180	39.01
0.98847	39.01
1.00513	39.01
1.02180	39.01
1.03847	39.01
1.05513	39.01
1.07180	39.01
1.08847	39.01
1.10513	39.01
1.12180	39.01
1.13847	39.01
1.15513	39.01
1.17180	39.01
1.18847	39.01
1.20513	39.01
1.22180	39.01
1.23847	39.01
1.25513	39.01
1.27180	39.01
1.28847	39.01
1.30513	39.01
1.32180	39.01
1.33847	39.01
1.35513	39.01
1.37180	39.01
1.38847	39.01
1.40513	39.01
1.42180	39.01
1.43847	39.01
1.45513	39.01
1.47180	39.01
1.48847	39.01
1.50513	39.01
1.52180	39.01
1.53847	39.01
1.55513	39.01
1.57180	39.01
1.58847	39.01
1.60513	39.01
1.62180	39.00
1.63847	38.98
1.65513	38.96
1.67180	38.93
1.68847	38.90
1.70513	38.86
1.72180	38.83
1.73847	38.79
1.75513	38.76
1.77180	38.73
1.78847	38.70
1.80513	38.67
1.82180	38.64
1.83847	38.61
1.85513	38.57
1.87180	38.54
1.88847	38.51
1.90513	38.48
1.92180	38.45
1.93847	38.42
1.95513	38.39
1.97180	38.36
1.98847	38.33
2.00513	38.30
2.02180	38.27
2.03847	38.24
2.05513	38.21
2.07180	38.18
2.08847	38.15
2.10513	38.12
2.12180	38.09
2.13847	38.06
2.15513	38.03
2.17180	38.00
2.18847	37.97
2.20513	37.94
2.22180	37.92
2.23847	37.89
2.25513	37.86
2.27180	37.82
2.28847	37.80
2.30513	37.77
2.32180	37.74
2.33847	37.71
2.35513	37.68
2.37180	37.66
2.38847	37.65
2.40513	37.65
2.42180	37.65
2.43847	37.65
2.45513	37.65
2.47180	37.65
2.48847	37.65
2.50513	37.64
2.52180	37.63
2.53847	37.64
2.55513	37.65
2.57180	37.64
2.58847	37.64
2.60513	37.64
2.62180	37.64
2.63847	37.64
2.65513	37.64
2.67180	37.64
2.68847	37.64
2.70513	37.64
2.72180	37.64
2.73847	37.64
2.75513	37.64
2.77180	37.64
2.78847	37.64
2.80513	37.64
2.82180	37.64
2.83847	37.64
2.85513	37.64
2.87180	37.64
2.88847	37.64
2.90513	37.63
2.92180	37.63
2.93847	37.63
2.95513	37.63
2.97180	37.63
2.98847	37.63
3.00513	37.63
3.02180	37.63
3.03847	37.63
3.05513	37.63
3.07180	37.63
3.08847	37.62
3.10513	37.62
3.12180	37.62
3.13847	37.62
3.15513	37.62
3.17180	37.62
3.18847	37.62
3.20513	37.62
3.22180	37.62
3.23847	37.62
3.25513	37.62
3.27180	37.62
3.28847	37.62
3.30513	37.62
3.32180	37.62
3.33847	37.62
3.35513	37.62
3.37180	37.62
3.38847	37.62
3.40513	37.63
3.42180	37.63
3.43847	37.63
3.45513	37.63
3.47180	37.63
3.48847	37.63
3.50513	37.63
3.52180	37.63
3.53847	37.63
3.55513	37.63
3.57180	37.63
3.58847	37.63
3.60513	37.63
3.62180	37.63
3.63847	37.63
3.65513	37.63
3.67180	37.63
3.68847	37.63
3.70513	37.63
3.72180	37.63
3.73847	37.63
3.75513	37.63
3.77180	37.63
3.78847	37.62
3.80513	37.62
3.82180	37.62
3.83847	37.62
3.85513	37.62
3.87180	37.62
3.88847	37.62
3.90513	37.62
3.92180	37.62
3.93847	37.62
3.95513	37.62
3.97180	37.62
3.98847	37.62

