[Header]
Application Name	LabSolutions
Version	5.110
Data File Name	C:\Users\User\Desktop\GC Analyses\Jack\UIC Prairie Sampling\7.9.22\220909_055.gcd
Output Date	9/28/2022
Output Time	11:29:52 AM

[File Information]
Type	Data File
Generated	9/14/2022 11:51:31 AM
Generated by	System Administrator
Modified	9/14/2022 11:56:02 AM
Modified by	System Administrator

[Sample Information]
Operator Name	System Administrator
Acquired	9/14/2022 11:52:01 AM
Sample Type	1:Standard
Level	1
Sample Name	220909_Run
Sample ID	220909_Run
ISTD Amount1	1
ISTD Amount2	1
ISTD Amount3	1
ISTD Amount4	1
ISTD Amount5	1
ISTD Amount6	1
ISTD Amount7	1
ISTD Amount8	1
ISTD Amount9	1
ISTD Amount10	1
ISTD Amount11	1
ISTD Amount12	1
ISTD Amount13	1
ISTD Amount14	1
ISTD Amount15	1
ISTD Amount16	1
ISTD Amount17	1
ISTD Amount18	1
ISTD Amount19	1
ISTD Amount20	1
ISTD Amount21	1
ISTD Amount22	1
ISTD Amount23	1
ISTD Amount24	1
ISTD Amount25	1
ISTD Amount26	1
ISTD Amount27	1
ISTD Amount28	1
ISTD Amount29	1
ISTD Amount30	1
ISTD Amount31	1
ISTD Amount32	1
Sample Amount	1
Dilution Factor	1
Vial#	1
Injection Volume	1
Injection Count	1
Bar Code	

[Original Files]
Data File	C:\Users\User\Desktop\GC Analyses\Jack\220909\220909_055.gcd
Method File	C:\LabSolutions\Data\GHG_4min_2022\ghg3_togas_w_acet_4 min_new_int.gcm
Batch File	
Report Format File	c:\LabSolutions\System\DEFAULT.lsr

[File Description]


[Configuration]
Instrument Name	C0B7VH3-Instrument1
Instrument #	1
Line #	1
# of Detectors	3
Detector ID	DET#1	DET#2	DET#3
Detector Name	FID	PTCD	ECD
# of Channels	1	1	1

[Peak Table(Ch1)]
# of Peaks	3
Peak#	R.Time	I.Time	F.Time	Area	Height	A/H	Conc.	Mark	ID#	Name	k'	Plate #	Plate Ht.	Tailing	Resolution	Sep.Factor	Area Ratio	Height Ratio	Conc. %	Norm Conc.
1	1.472	1.435	1.534	8573	3489	2.457	100.000	   	1	CO	0.000	7042	21.302	1.323	0.000	0.000	0	0	16.667	16.667
2	1.571	1.534	1.644	19680	9993	1.969	100.000	 V 	2	CH4	0.067	11618	12.911	1.148	1.541	0.000	0	0	16.667	16.667
3	1.996	1.952	2.286	2170993	1058287	2.051	400.000	   	3	CO2	0.356	17654	8.497	1.287	7.185	5.296	0	0	66.667	66.667

[Peak Table(Ch2)]
# of Peaks	0

[Peak Table(Ch3)]
# of Peaks	2
Peak#	R.Time	I.Time	F.Time	Area	Height	A/H	Conc.	Mark	ID#	Name	k'	Plate #	Plate Ht.	Tailing	Resolution	Sep.Factor	Area Ratio	Height Ratio	Conc. %	Norm Conc.
1	2.488	0.992	2.649	18912	502	37.672	0.000	   			0.000	97	1548.575	0.556	0.000	0.000	0	0	0.000	0.000
2	2.880	2.664	3.951	93108	14254	6.532	1.000	   	1	N2O	0.158	10951	13.697	5.438	0.700	0.000	0	0	100.000	100.000

[Compound Results(Ch1)]
# of IDs	6
ID#	Name	R.Time	Area	Height	Conc.	Curve	3rd	2nd	1st	Constant	Area Ratio	Height Ratio	Conc. %	Norm Conc.
1	CO	1.472	8573	3489	100.000	Linear	0.000000e+00	0.000000e+00	8.572617e+001	0.000000e+00	0	0	16.667	16.667
2	CH4	1.571	19680	9993	100.000	Linear	0.000000e+00	0.000000e+00	1.968003e+002	0.000000e+00	0	0	16.667	16.667
3	CO2	1.996	2170993	1058287	400.000	Linear	0.000000e+00	0.000000e+00	5.427482e+003	0.000000e+00	0	0	66.667	66.667
4	Ethylene	0.000	0	0	0.000	Linear	0.000000e+00	0.000000e+00	0.000000e+00	0.000000e+00	0	0	0.000	0.000
5	Acetylene	0.000	0	0	0.000	Linear	0.000000e+00	0.000000e+00	0.000000e+00	0.000000e+00	0	0	0.000	0.000
6	Ethane	0.000	0	0	0.000	Linear	0.000000e+00	0.000000e+00	0.000000e+00	0.000000e+00	0	0	0.000	0.000

[Compound Results(Ch2)]
# of IDs	5
ID#	Name	R.Time	Area	Height	Conc.	Curve	3rd	2nd	1st	Constant	Area Ratio	Height Ratio	Conc. %	Norm Conc.
1	Hydrogen	0.000	0	0	0.000	Linear	0.000000e+00	0.000000e+00	0.000000e+00	0.000000e+00	0	0	0.000	0.000
2	Oxygen	0.000	0	0	0.000	Linear	0.000000e+00	0.000000e+00	0.000000e+00	0.000000e+00	0	0	0.000	0.000
3	Nitrogen	0.000	0	0	0.000	Linear	0.000000e+00	0.000000e+00	0.000000e+00	0.000000e+00	0	0	0.000	0.000
4	Methane	0.000	0	0	0.000	Linear	0.000000e+00	0.000000e+00	0.000000e+00	0.000000e+00	0	0	0.000	0.000
5	Carbon Monoxide	0.000	0	0	0.000	Linear	0.000000e+00	0.000000e+00	0.000000e+00	0.000000e+00	0	0	0.000	0.000

[Compound Results(Ch3)]
# of IDs	2
ID#	Name	R.Time	Area	Height	Conc.	Curve	3rd	2nd	1st	Constant	Area Ratio	Height Ratio	Conc. %	Norm Conc.
1	N2O	2.880	93108	14254	1.000	Linear	0.000000e+00	0.000000e+00	9.310815e+004	0.000000e+00	0	0	100.000	100.000
2	SF6	0.000	0	0	0.000	Linear	0.000000e+00	0.000000e+00	0.000000e+00	0.000000e+00	0	0	0.000	0.000

[Group Results(Ch1)]
# of Groups	0

[Group Results(Ch2)]
# of Groups	0

[Group Results(Ch3)]
# of Groups	0

[Chromatogram (Ch1)]
Interval(msec)	220
# of Points	1091
Start Time(min)	0.002
End Time(min)	3.998
R.Time (min)	Intensity
0.00167	16
0.00533	18
0.00900	22
0.01267	25
0.01633	27
0.02000	25
0.02367	21
0.02733	15
0.03100	8
0.03467	4
0.03833	2
0.04200	3
0.04567	9
0.04933	25
0.05300	43
0.05667	52
0.06033	47
0.06400	36
0.06767	25
0.07133	17
0.07500	13
0.07867	13
0.08233	16
0.08600	22
0.08967	27
0.09333	31
0.09700	34
0.10067	36
0.10433	33
0.10800	25
0.11167	19
0.11533	15
0.11900	12
0.12267	10
0.12633	10
0.13000	15
0.13367	23
0.13733	29
0.14100	34
0.14467	41
0.14833	49
0.15200	53
0.15567	52
0.15933	48
0.16300	42
0.16667	37
0.17033	34
0.17400	33
0.17767	29
0.18133	30
0.18500	35
0.18867	37
0.19233	40
0.19600	41
0.19967	41
0.20333	46
0.20700	51
0.21067	54
0.21433	52
0.21800	48
0.22167	42
0.22533	37
0.22900	34
0.23267	34
0.23633	35
0.24000	37
0.24367	38
0.24733	38
0.25100	40
0.25467	43
0.25833	46
0.26200	50
0.26567	50
0.26933	47
0.27300	44
0.27667	46
0.28033	50
0.28400	55
0.28767	62
0.29133	65
0.29500	65
0.29867	64
0.30233	60
0.30600	56
0.30967	51
0.31333	47
0.31700	46
0.32067	46
0.32433	45
0.32800	45
0.33167	45
0.33533	42
0.33900	38
0.34267	38
0.34633	40
0.35000	43
0.35367	46
0.35733	46
0.36100	50
0.36467	56
0.36833	60
0.37200	62
0.37567	59
0.37933	53
0.38300	50
0.38667	53
0.39033	57
0.39400	56
0.39767	53
0.40133	49
0.40500	47
0.40867	47
0.41233	47
0.41600	46
0.41967	41
0.42333	37
0.42700	35
0.43067	37
0.43433	41
0.43800	47
0.44167	51
0.44533	51
0.44900	48
0.45267	45
0.45633	41
0.46000	36
0.46367	35
0.46733	34
0.47100	34
0.47467	37
0.47833	40
0.48200	44
0.48567	48
0.48933	48
0.49300	45
0.49667	42
0.50033	37
0.50400	32
0.50767	30
0.51133	32
0.51500	37
0.51867	43
0.52233	48
0.52600	48
0.52967	43
0.53333	39
0.53700	37
0.54067	38
0.54433	40
0.54800	42
0.55167	44
0.55533	43
0.55900	40
0.56267	38
0.56633	37
0.57000	35
0.57367	32
0.57733	27
0.58100	20
0.58467	16
0.58833	15
0.59200	14
0.59567	14
0.59933	15
0.60300	16
0.60667	18
0.61033	22
0.61400	25
0.61767	26
0.62133	29
0.62500	33
0.62867	35
0.63233	34
0.63600	30
0.63967	23
0.64333	19
0.64700	16
0.65067	13
0.65433	13
0.65800	17
0.66167	23
0.66533	25
0.66900	24
0.67267	23
0.67633	23
0.68000	23
0.68367	23
0.68733	23
0.69100	23
0.69467	22
0.69833	20
0.70200	21
0.70567	23
0.70933	27
0.71300	33
0.71667	37
0.72033	34
0.72400	24
0.72767	11
0.73133	1
0.73500	-7
0.73867	-12
0.74233	-13
0.74600	-8
0.74967	-1
0.75333	6
0.75700	11
0.76067	13
0.76433	13
0.76800	12
0.77167	9
0.77533	5
0.77900	3
0.78267	3
0.78633	3
0.79000	6
0.79367	10
0.79733	13
0.80100	14
0.80467	15
0.80833	12
0.81200	8
0.81567	7
0.81933	8
0.82300	6
0.82667	2
0.83033	0
0.83400	0
0.83767	3
0.84133	6
0.84500	9
0.84867	11
0.85233	11
0.85600	10
0.85967	8
0.86333	6
0.86700	6
0.87067	6
0.87433	7
0.87800	6
0.88167	4
0.88533	2
0.88900	-1
0.89267	-4
0.89633	-8
0.90000	-10
0.90367	-12
0.90733	-14
0.91100	-14
0.91467	-14
0.91833	-13
0.92200	-12
0.92567	-9
0.92933	-7
0.93300	-4
0.93667	-3
0.94033	-2
0.94400	-1
0.94767	-1
0.95133	-1
0.95500	2
0.95867	5
0.96233	10
0.96600	15
0.96967	15
0.97333	12
0.97700	8
0.98067	3
0.98433	-1
0.98800	-4
0.99167	-7
0.99533	-9
0.99900	-12
1.00267	-19
1.00633	-24
1.01000	-27
1.01367	-29
1.01733	-32
1.02100	-31
1.02467	-28
1.02833	-24
1.03200	-18
1.03567	-15
1.03933	-16
1.04300	-14
1.04667	-9
1.05033	-4
1.05400	-7
1.05767	-14
1.06133	-21
1.06500	-24
1.06867	-27
1.07233	-27
1.07600	-24
1.07967	-19
1.08333	-12
1.08700	-5
1.09067	-2
1.09433	-0
1.09800	-3
1.10167	-8
1.10533	-10
1.10900	-11
1.11267	-15
1.11633	-15
1.12000	-10
1.12367	0
1.12733	11
1.13100	15
1.13467	13
1.13833	5
1.14200	-2
1.14567	-8
1.14933	-16
1.15300	-25
1.15667	-35
1.16033	-40
1.16400	-41
1.16767	-40
1.17133	-36
1.17500	-30
1.17867	-22
1.18233	-14
1.18600	-8
1.18967	-6
1.19333	-10
1.19700	-15
1.20067	-18
1.20433	-23
1.20800	-27
1.21167	-29
1.21533	-31
1.21900	-33
1.22267	-34
1.22633	-33
1.23000	-28
1.23367	-23
1.23733	-18
1.24100	-14
1.24467	-14
1.24833	-16
1.25200	-18
1.25567	-16
1.25933	-11
1.26300	-5
1.26667	-1
1.27033	-2
1.27400	-7
1.27767	-12
1.28133	-16
1.28500	-22
1.28867	-28
1.29233	-33
1.29600	-37
1.29967	-39
1.30333	-42
1.30700	-44
1.31067	-45
1.31433	-43
1.31800	-37
1.32167	-36
1.32533	-38
1.32900	-40
1.33267	-40
1.33633	-39
1.34000	-40
1.34367	-40
1.34733	-41
1.35100	-39
1.35467	-38
1.35833	-40
1.36200	-42
1.36567	-45
1.36933	-49
1.37300	-51
1.37667	-50
1.38033	-47
1.38400	-43
1.38767	-42
1.39133	-42
1.39500	-42
1.39867	-42
1.40233	-42
1.40600	-43
1.40967	-46
1.41333	-49
1.41700	-52
1.42067	-55
1.42433	-56
1.42800	-57
1.43167	-59
1.43533	-55
1.43900	-27
1.44267	101
1.44633	462
1.45000	1053
1.45367	1730
1.45733	2358
1.46100	2860
1.46467	3208
1.46833	3397
1.47200	3421
1.47567	3298
1.47933	3052
1.48300	2713
1.48667	2319
1.49033	1910
1.49400	1527
1.49767	1188
1.50133	895
1.50500	648
1.50867	448
1.51233	294
1.51600	180
1.51967	97
1.52333	33
1.52700	-16
1.53067	-50
1.53433	-69
1.53800	-43
1.54167	159
1.54533	797
1.54900	2080
1.55267	3893
1.55633	5851
1.56000	7601
1.56367	8939
1.56733	9748
1.57100	9893
1.57467	9284
1.57833	8021
1.58200	6410
1.58567	4796
1.58933	3406
1.59300	2323
1.59667	1535
1.60033	986
1.60400	609
1.60767	353
1.61133	184
1.61500	73
1.61867	5
1.62233	-40
1.62600	-71
1.62967	-90
1.63333	-100
1.63700	-109
1.64067	-117
1.64433	-124
1.64800	-126
1.65167	-122
1.65533	-117
1.65900	-112
1.66267	-110
1.66633	-109
1.67000	-110
1.67367	-111
1.67733	-115
1.68100	-120
1.68467	-122
1.68833	-123
1.69200	-121
1.69567	-119
1.69933	-118
1.70300	-116
1.70667	-115
1.71033	-116
1.71400	-118
1.71767	-118
1.72133	-117
1.72500	-113
1.72867	-109
1.73233	-106
1.73600	-106
1.73967	-107
1.74333	-107
1.74700	-104
1.75067	-100
1.75433	-97
1.75800	-94
1.76167	-95
1.76533	-94
1.76900	-91
1.77267	-88
1.77633	-86
1.78000	-83
1.78367	-80
1.78733	-77
1.79100	-75
1.79467	-81
1.79833	-88
1.80200	-94
1.80567	-98
1.80933	-103
1.81300	-105
1.81667	-104
1.82033	-103
1.82400	-104
1.82767	-103
1.83133	-100
1.83500	-98
1.83867	-101
1.84233	-103
1.84600	-105
1.84967	-104
1.85333	-100
1.85700	-97
1.86067	-95
1.86433	-97
1.86800	-102
1.87167	-107
1.87533	-109
1.87900	-108
1.88267	-105
1.88633	-103
1.89000	-99
1.89367	-94
1.89733	-90
1.90100	-91
1.90467	-94
1.90833	-96
1.91200	-95
1.91567	-93
1.91933	-90
1.92300	-83
1.92667	-73
1.93033	-63
1.93400	-54
1.93767	-49
1.94133	-50
1.94500	-55
1.94867	-60
1.95233	-51
1.95600	71
1.95967	875
1.96333	4758
1.96700	18904
1.97067	58315
1.97433	143028
1.97800	284651
1.98167	472919
1.98533	677108
1.98900	860641
1.99267	993823
1.99633	1058262
2.00000	1046957
2.00367	965494
2.00733	832537
2.01100	674527
2.01467	517275
2.01833	379047
2.02200	268179
2.02567	185057
2.02933	125702
2.03300	84736
2.03667	57103
2.04033	38725
2.04400	26583
2.04767	18567
2.05133	13251
2.05500	9695
2.05867	7283
2.06233	5619
2.06600	4446
2.06967	3601
2.07333	2979
2.07700	2512
2.08067	2155
2.08433	1871
2.08800	1643
2.09167	1463
2.09533	1320
2.09900	1204
2.10267	1105
2.10633	1017
2.11000	936
2.11367	859
2.11733	789
2.12100	730
2.12467	685
2.12833	648
2.13200	615
2.13567	586
2.13933	559
2.14300	533
2.14667	507
2.15033	483
2.15400	462
2.15767	445
2.16133	427
2.16500	407
2.16867	389
2.17233	371
2.17600	356
2.17967	345
2.18333	336
2.18700	332
2.19067	331
2.19433	325
2.19800	312
2.20167	296
2.20533	282
2.20900	267
2.21267	255
2.21633	241
2.22000	227
2.22367	215
2.22733	209
2.23100	205
2.23467	201
2.23833	197
2.24200	196
2.24567	197
2.24933	198
2.25300	198
2.25667	196
2.26033	187
2.26400	177
2.26767	167
2.27133	159
2.27500	153
2.27867	150
2.28233	150
2.28600	148
2.28967	143
2.29333	142
2.29700	144
2.30067	145
2.30433	147
2.30800	145
2.31167	142
2.31533	136
2.31900	132
2.32267	126
2.32633	120
2.33000	114
2.33367	109
2.33733	102
2.34100	101
2.34467	102
2.34833	100
2.35200	96
2.35567	89
2.35933	85
2.36300	84
2.36667	86
2.37033	89
2.37400	88
2.37767	84
2.38133	80
2.38500	77
2.38867	75
2.39233	73
2.39600	75
2.39967	83
2.40333	91
2.40700	95
2.41067	95
2.41433	90
2.41800	83
2.42167	78
2.42533	79
2.42900	82
2.43267	84
2.43633	83
2.44000	78
2.44367	69
2.44733	60
2.45100	52
2.45467	43
2.45833	37
2.46200	31
2.46567	23
2.46933	13
2.47300	11
2.47667	13
2.48033	19
2.48400	23
2.48767	26
2.49133	29
2.49500	28
2.49867	27
2.50233	26
2.50600	26
2.50967	28
2.51333	31
2.51700	34
2.52067	34
2.52433	33
2.52800	34
2.53167	41
2.53533	50
2.53900	53
2.54267	49
2.54633	40
2.55000	31
2.55367	24
2.55733	19
2.56100	15
2.56467	14
2.56833	15
2.57200	16
2.57567	19
2.57933	17
2.58300	14
2.58667	10
2.59033	6
2.59400	4
2.59767	2
2.60133	2
2.60500	1
2.60867	-1
2.61233	-3
2.61600	-5
2.61967	-4
2.62333	-1
2.62700	2
2.63067	4
2.63433	8
2.63800	15
2.64167	20
2.64533	19
2.64900	16
2.65267	14
2.65633	12
2.66000	8
2.66367	5
2.66733	2
2.67100	2
2.67467	-1
2.67833	-7
2.68200	-13
2.68567	-20
2.68933	-25
2.69300	-26
2.69667	-23
2.70033	-19
2.70400	-17
2.70767	-13
2.71133	-10
2.71500	-5
2.71867	2
2.72233	3
2.72600	-6
2.72967	-22
2.73333	-33
2.73700	-33
2.74067	-27
2.74433	-21
2.74800	-14
2.75167	-10
2.75533	-15
2.75900	-20
2.76267	-27
2.76633	-33
2.77000	-33
2.77367	-35
2.77733	-36
2.78100	-36
2.78467	-32
2.78833	-29
2.79200	-26
2.79567	-25
2.79933	-26
2.80300	-30
2.80667	-33
2.81033	-33
2.81400	-29
2.81767	-31
2.82133	-36
2.82500	-44
2.82867	-49
2.83233	-49
2.83600	-48
2.83967	-47
2.84333	-42
2.84700	-34
2.85067	-28
2.85433	-27
2.85800	-28
2.86167	-32
2.86533	-38
2.86900	-44
2.87267	-46
2.87633	-45
2.88000	-42
2.88367	-37
2.88733	-34
2.89100	-35
2.89467	-41
2.89833	-46
2.90200	-45
2.90567	-44
2.90933	-44
2.91300	-45
2.91667	-46
2.92033	-44
2.92400	-42
2.92767	-41
2.93133	-38
2.93500	-33
2.93867	-25
2.94233	-17
2.94600	-16
2.94967	-20
2.95333	-27
2.95700	-37
2.96067	-44
2.96433	-45
2.96800	-44
2.97167	-45
2.97533	-44
2.97900	-44
2.98267	-46
2.98633	-49
2.99000	-48
2.99367	-45
2.99733	-42
3.00100	-40
3.00467	-38
3.00833	-37
3.01200	-37
3.01567	-38
3.01933	-39
3.02300	-41
3.02667	-43
3.03033	-43
3.03400	-42
3.03767	-39
3.04133	-37
3.04500	-38
3.04867	-40
3.05233	-40
3.05600	-41
3.05967	-43
3.06333	-43
3.06700	-37
3.07067	-34
3.07433	-38
3.07800	-46
3.08167	-56
3.08533	-65
3.08900	-69
3.09267	-64
3.09633	-55
3.10000	-47
3.10367	-45
3.10733	-47
3.11100	-51
3.11467	-54
3.11833	-58
3.12200	-64
3.12567	-69
3.12933	-69
3.13300	-67
3.13667	-64
3.14033	-60
3.14400	-54
3.14767	-49
3.15133	-46
3.15500	-44
3.15867	-41
3.16233	-39
3.16600	-42
3.16967	-45
3.17333	-45
3.17700	-42
3.18067	-38
3.18433	-36
3.18800	-37
3.19167	-42
3.19533	-51
3.19900	-58
3.20267	-63
3.20633	-62
3.21000	-59
3.21367	-56
3.21733	-56
3.22100	-59
3.22467	-63
3.22833	-67
3.23200	-70
3.23567	-66
3.23933	-60
3.24300	-58
3.24667	-59
3.25033	-62
3.25400	-65
3.25767	-65
3.26133	-64
3.26500	-65
3.26867	-70
3.27233	-74
3.27600	-76
3.27967	-77
3.28333	-75
3.28700	-69
3.29067	-63
3.29433	-58
3.29800	-56
3.30167	-58
3.30533	-61
3.30900	-62
3.31267	-60
3.31633	-59
3.32000	-57
3.32367	-55
3.32733	-55
3.33100	-57
3.33467	-59
3.33833	-63
3.34200	-70
3.34567	-75
3.34933	-76
3.35300	-76
3.35667	-74
3.36033	-73
3.36400	-73
3.36767	-70
3.37133	-63
3.37500	-60
3.37867	-63
3.38233	-68
3.38600	-69
3.38967	-68
3.39333	-68
3.39700	-80
3.40067	-68
3.40433	-58
3.40800	-56
3.41167	-57
3.41533	-61
3.41900	-66
3.42267	-69
3.42633	-68
3.43000	-66
3.43367	-69
3.43733	-73
3.44100	-75
3.44467	-76
3.44833	-76
3.45200	-74
3.45567	-70
3.45933	-66
3.46300	-60
3.46667	-51
3.47033	-43
3.47400	-42
3.47767	-47
3.48133	-50
3.48500	-50
3.48867	-47
3.49233	-43
3.49600	-42
3.49967	-48
3.50333	-59
3.50700	-65
3.51067	-67
3.51433	-68
3.51800	-73
3.52167	-80
3.52533	-85
3.52900	-88
3.53267	-86
3.53633	-82
3.54000	-75
3.54367	-70
3.54733	-68
3.55100	-66
3.55467	-66
3.55833	-70
3.56200	-73
3.56567	-75
3.56933	-73
3.57300	-73
3.57667	-73
3.58033	-72
3.58400	-69
3.58767	-65
3.59133	-59
3.59500	-51
3.59867	-45
3.60233	-41
3.60600	-39
3.60967	-39
3.61333	-43
3.61700	-50
3.62067	-55
3.62433	-61
3.62800	-65
3.63167	-67
3.63533	-67
3.63900	-64
3.64267	-61
3.64633	-59
3.65000	-58
3.65367	-59
3.65733	-66
3.66100	-75
3.66467	-80
3.66833	-82
3.67200	-82
3.67567	-79
3.67933	-77
3.68300	-75
3.68667	-73
3.69033	-71
3.69400	-69
3.69767	-67
3.70133	-62
3.70500	-58
3.70867	-56
3.71233	-56
3.71600	-55
3.71967	-52
3.72333	-48
3.72700	-40
3.73067	-37
3.73433	-39
3.73800	-46
3.74167	-52
3.74533	-56
3.74900	-63
3.75267	-66
3.75633	-69
3.76000	-69
3.76367	-67
3.76733	-67
3.77100	-67
3.77467	-65
3.77833	-62
3.78200	-57
3.78567	-52
3.78933	-48
3.79300	-45
3.79667	-44
3.80033	-45
3.80400	-48
3.80767	-51
3.81133	-55
3.81500	-57
3.81867	-58
3.82233	-58
3.82600	-62
3.82967	-67
3.83333	-73
3.83700	-73
3.84067	-66
3.84433	-58
3.84800	-54
3.85167	-54
3.85533	-58
3.85900	-61
3.86267	-62
3.86633	-60
3.87000	-55
3.87367	-51
3.87733	-49
3.88100	-50
3.88467	-52
3.88833	-58
3.89200	-67
3.89567	-74
3.89933	-75
3.90300	-74
3.90667	-73
3.91033	-74
3.91400	-75
3.91767	-75
3.92133	-73
3.92500	-69
3.92867	-64
3.93233	-60
3.93600	-57
3.93967	-56
3.94333	-56
3.94700	-58
3.95067	-59
3.95433	-57
3.95800	-53
3.96167	-50
3.96533	-49
3.96900	-53
3.97267	-62
3.97633	-69
3.98000	-74
3.98367	-77
3.98733	-76
3.99100	-69
3.99467	-58
3.99833	-46

[Chromatogram (Ch2)]
Interval(msec)	220
# of Points	1091
Start Time(min)	0.002
End Time(min)	3.998
R.Time (min)	Intensity
0.00167	1
0.00533	0
0.00900	0
0.01267	0
0.01633	0
0.02000	0
0.02367	0
0.02733	0
0.03100	0
0.03467	0
0.03833	-0
0.04200	-0
0.04567	-1
0.04933	-1
0.05300	-1
0.05667	-1
0.06033	-1
0.06400	-1
0.06767	-2
0.07133	-2
0.07500	-2
0.07867	-2
0.08233	-3
0.08600	-3
0.08967	-3
0.09333	-3
0.09700	-3
0.10067	-3
0.10433	-2
0.10800	-2
0.11167	-2
0.11533	-2
0.11900	-2
0.12267	-1
0.12633	-1
0.13000	-1
0.13367	-1
0.13733	-0
0.14100	-0
0.14467	-0
0.14833	-0
0.15200	-1
0.15567	-1
0.15933	-1
0.16300	-1
0.16667	-1
0.17033	-1
0.17400	-2
0.17767	-2
0.18133	-3
0.18500	-3
0.18867	-3
0.19233	-2
0.19600	-2
0.19967	-2
0.20333	-2
0.20700	-2
0.21067	-2
0.21433	-2
0.21800	-2
0.22167	-2
0.22533	-2
0.22900	-1
0.23267	-1
0.23633	-0
0.24000	0
0.24367	0
0.24733	1
0.25100	1
0.25467	1
0.25833	2
0.26200	2
0.26567	3
0.26933	3
0.27300	4
0.27667	4
0.28033	4
0.28400	4
0.28767	4
0.29133	4
0.29500	4
0.29867	4
0.30233	3
0.30600	3
0.30967	3
0.31333	2
0.31700	2
0.32067	2
0.32433	2
0.32800	2
0.33167	2
0.33533	2
0.33900	2
0.34267	2
0.34633	1
0.35000	1
0.35367	1
0.35733	1
0.36100	1
0.36467	1
0.36833	1
0.37200	1
0.37567	0
0.37933	0
0.38300	-0
0.38667	-0
0.39033	-1
0.39400	-1
0.39767	-2
0.40133	-2
0.40500	-2
0.40867	-2
0.41233	-2
0.41600	-2
0.41967	-2
0.42333	-2
0.42700	-2
0.43067	-2
0.43433	-2
0.43800	-2
0.44167	-2
0.44533	-2
0.44900	-3
0.45267	-3
0.45633	-3
0.46000	-3
0.46367	-3
0.46733	-3
0.47100	-3
0.47467	-2
0.47833	-2
0.48200	-2
0.48567	-2
0.48933	-1
0.49300	-1
0.49667	-1
0.50033	-1
0.50400	-1
0.50767	-1
0.51133	-0
0.51500	0
0.51867	1
0.52233	1
0.52600	1
0.52967	1
0.53333	0
0.53700	-0
0.54067	-0
0.54433	-0
0.54800	-1
0.55167	-1
0.55533	-0
0.55900	-0
0.56267	-0
0.56633	-0
0.57000	-0
0.57367	-0
0.57733	-1
0.58100	-1
0.58467	-1
0.58833	-1
0.59200	-2
0.59567	-2
0.59933	-2
0.60300	-2
0.60667	-2
0.61033	-2
0.61400	-3
0.61767	-3
0.62133	-3
0.62500	-3
0.62867	-3
0.63233	-3
0.63600	-3
0.63967	-2
0.64333	-2
0.64700	-2
0.65067	-2
0.65433	-2
0.65800	-2
0.66167	-2
0.66533	-2
0.66900	-2
0.67267	-2
0.67633	-2
0.68000	-2
0.68367	-2
0.68733	-3
0.69100	-3
0.69467	-3
0.69833	-4
0.70200	-4
0.70567	-4
0.70933	-4
0.71300	-4
0.71667	-5
0.72033	-5
0.72400	-6
0.72767	-6
0.73133	-7
0.73500	-7
0.73867	-8
0.74233	-8
0.74600	-8
0.74967	-8
0.75333	-8
0.75700	-9
0.76067	-9
0.76433	-8
0.76800	-8
0.77167	-8
0.77533	-7
0.77900	-7
0.78267	-6
0.78633	-6
0.79000	-5
0.79367	-5
0.79733	-4
0.80100	-3
0.80467	-3
0.80833	-2
0.81200	-2
0.81567	-1
0.81933	-1
0.82300	-1
0.82667	-1
0.83033	-0
0.83400	-0
0.83767	-0
0.84133	-1
0.84500	-1
0.84867	-1
0.85233	-1
0.85600	-1
0.85967	-1
0.86333	-2
0.86700	-2
0.87067	-2
0.87433	-3
0.87800	-3
0.88167	-3
0.88533	-4
0.88900	-4
0.89267	-5
0.89633	-5
0.90000	-5
0.90367	-6
0.90733	-6
0.91100	-6
0.91467	-6
0.91833	-6
0.92200	-6
0.92567	-6
0.92933	-5
0.93300	-5
0.93667	-5
0.94033	-5
0.94400	-5
0.94767	-5
0.95133	-5
0.95500	-5
0.95867	-5
0.96233	-5
0.96600	-6
0.96967	-5
0.97333	-5
0.97700	-5
0.98067	-5
0.98433	-4
0.98800	-4
0.99167	-3
0.99533	-2
0.99900	-2
1.00267	-2
1.00633	-1
1.01000	-1
1.01367	-0
1.01733	-0
1.02100	0
1.02467	1
1.02833	1
1.03200	1
1.03567	1
1.03933	2
1.04300	2
1.04667	2
1.05033	2
1.05400	2
1.05767	2
1.06133	2
1.06500	2
1.06867	2
1.07233	2
1.07600	2
1.07967	1
1.08333	1
1.08700	1
1.09067	0
1.09433	0
1.09800	-0
1.10167	-0
1.10533	-1
1.10900	-1
1.11267	-1
1.11633	-1
1.12000	-1
1.12367	-1
1.12733	-1
1.13100	-1
1.13467	-1
1.13833	-2
1.14200	-2
1.14567	-2
1.14933	-2
1.15300	-3
1.15667	-3
1.16033	-3
1.16400	-3
1.16767	-4
1.17133	-4
1.17500	-4
1.17867	-4
1.18233	-3
1.18600	-3
1.18967	-3
1.19333	-3
1.19700	-3
1.20067	-3
1.20433	-2
1.20800	-2
1.21167	-2
1.21533	-2
1.21900	-2
1.22267	-2
1.22633	-2
1.23000	-2
1.23367	-2
1.23733	-2
1.24100	-2
1.24467	-2
1.24833	-1
1.25200	-1
1.25567	-1
1.25933	-1
1.26300	-1
1.26667	-1
1.27033	-1
1.27400	-2
1.27767	-2
1.28133	-2
1.28500	-2
1.28867	-2
1.29233	-2
1.29600	-2
1.29967	-2
1.30333	-2
1.30700	-2
1.31067	-2
1.31433	-3
1.31800	-3
1.32167	-3
1.32533	-3
1.32900	-3
1.33267	-3
1.33633	-3
1.34000	-3
1.34367	-3
1.34733	-3
1.35100	-3
1.35467	-3
1.35833	-3
1.36200	-3
1.36567	-3
1.36933	-3
1.37300	-4
1.37667	-4
1.38033	-4
1.38400	-4
1.38767	-4
1.39133	-4
1.39500	-3
1.39867	-3
1.40233	-3
1.40600	-2
1.40967	-2
1.41333	-2
1.41700	-2
1.42067	-2
1.42433	-2
1.42800	-2
1.43167	-2
1.43533	-2
1.43900	-3
1.44267	-3
1.44633	-3
1.45000	-3
1.45367	-3
1.45733	-3
1.46100	-3
1.46467	-3
1.46833	-3
1.47200	-3
1.47567	-3
1.47933	-4
1.48300	-4
1.48667	-4
1.49033	-4
1.49400	-3
1.49767	-3
1.50133	-3
1.50500	-3
1.50867	-3
1.51233	-3
1.51600	-3
1.51967	-2
1.52333	-3
1.52700	-3
1.53067	-3
1.53433	-3
1.53800	-3
1.54167	-4
1.54533	-4
1.54900	-4
1.55267	-4
1.55633	-4
1.56000	-4
1.56367	-4
1.56733	-4
1.57100	-4
1.57467	-4
1.57833	-4
1.58200	-4
1.58567	-4
1.58933	-4
1.59300	-4
1.59667	-5
1.60033	-5
1.60400	-6
1.60767	-7
1.61133	-8
1.61500	-10
1.61867	-12
1.62233	-15
1.62600	-18
1.62967	-22
1.63333	-25
1.63700	-29
1.64067	-33
1.64433	-37
1.64800	-41
1.65167	-45
1.65533	-49
1.65900	-53
1.66267	-58
1.66633	-62
1.67000	-67
1.67367	-72
1.67733	-77
1.68100	-83
1.68467	-88
1.68833	-92
1.69200	-96
1.69567	-100
1.69933	-102
1.70300	-105
1.70667	-107
1.71033	-108
1.71400	-109
1.71767	-111
1.72133	-111
1.72500	-112
1.72867	-112
1.73233	-112
1.73600	-112
1.73967	-112
1.74333	-112
1.74700	-113
1.75067	-114
1.75433	-115
1.75800	-116
1.76167	-117
1.76533	-118
1.76900	-119
1.77267	-119
1.77633	-120
1.78000	-120
1.78367	-121
1.78733	-121
1.79100	-122
1.79467	-122
1.79833	-122
1.80200	-123
1.80567	-123
1.80933	-123
1.81300	-123
1.81667	-122
1.82033	-122
1.82400	-121
1.82767	-121
1.83133	-121
1.83500	-121
1.83867	-121
1.84233	-122
1.84600	-122
1.84967	-123
1.85333	-123
1.85700	-123
1.86067	-123
1.86433	-124
1.86800	-124
1.87167	-124
1.87533	-123
1.87900	-123
1.88267	-122
1.88633	-122
1.89000	-121
1.89367	-121
1.89733	-121
1.90100	-120
1.90467	-120
1.90833	-121
1.91200	-121
1.91567	-121
1.91933	-121
1.92300	-121
1.92667	-121
1.93033	-121
1.93400	-121
1.93767	-121
1.94133	-121
1.94500	-120
1.94867	-120
1.95233	-120
1.95600	-120
1.95967	-120
1.96333	-119
1.96700	-119
1.97067	-119
1.97433	-119
1.97800	-118
1.98167	-118
1.98533	-117
1.98900	-117
1.99267	-116
1.99633	-116
2.00000	-116
2.00367	-116
2.00733	-116
2.01100	-116
2.01467	-116
2.01833	-116
2.02200	-116
2.02567	-116
2.02933	-116
2.03300	-116
2.03667	-116
2.04033	-116
2.04400	-116
2.04767	-116
2.05133	-115
2.05500	-115
2.05867	-114
2.06233	-113
2.06600	-113
2.06967	-112
2.07333	-111
2.07700	-110
2.08067	-110
2.08433	-109
2.08800	-108
2.09167	-108
2.09533	-108
2.09900	-109
2.10267	-109
2.10633	-110
2.11000	-110
2.11367	-109
2.11733	-109
2.12100	-109
2.12467	-108
2.12833	-108
2.13200	-107
2.13567	-107
2.13933	-107
2.14300	-107
2.14667	-107
2.15033	-106
2.15400	-105
2.15767	-104
2.16133	-104
2.16500	-103
2.16867	-103
2.17233	-103
2.17600	-103
2.17967	-103
2.18333	-103
2.18700	-102
2.19067	-102
2.19433	-102
2.19800	-102
2.20167	-102
2.20533	-101
2.20900	-101
2.21267	-101
2.21633	-100
2.22000	-100
2.22367	-100
2.22733	-100
2.23100	-99
2.23467	-99
2.23833	-99
2.24200	-98
2.24567	-98
2.24933	-98
2.25300	-98
2.25667	-98
2.26033	-98
2.26400	-98
2.26767	-98
2.27133	-98
2.27500	-98
2.27867	-98
2.28233	-97
2.28600	-97
2.28967	-96
2.29333	-95
2.29700	-94
2.30067	-93
2.30433	-92
2.30800	-92
2.31167	-92
2.31533	-91
2.31900	-91
2.32267	-91
2.32633	-91
2.33000	-91
2.33367	-91
2.33733	-91
2.34100	-91
2.34467	-90
2.34833	-90
2.35200	-89
2.35567	-89
2.35933	-89
2.36300	-89
2.36667	-89
2.37033	-88
2.37400	-87
2.37767	-85
2.38133	-82
2.38500	-79
2.38867	-76
2.39233	-72
2.39600	-67
2.39967	-63
2.40333	-58
2.40700	-52
2.41067	-47
2.41433	-42
2.41800	-37
2.42167	-32
2.42533	-29
2.42900	-25
2.43267	-22
2.43633	-20
2.44000	-17
2.44367	-16
2.44733	-14
2.45100	-13
2.45467	-11
2.45833	-9
2.46200	-8
2.46567	-6
2.46933	-4
2.47300	-2
2.47667	-1
2.48033	0
2.48400	1
2.48767	2
2.49133	3
2.49500	3
2.49867	4
2.50233	5
2.50600	6
2.50967	7
2.51333	7
2.51700	8
2.52067	8
2.52433	8
2.52800	8
2.53167	8
2.53533	8
2.53900	9
2.54267	9
2.54633	10
2.55000	11
2.55367	11
2.55733	12
2.56100	13
2.56467	13
2.56833	14
2.57200	14
2.57567	14
2.57933	15
2.58300	15
2.58667	15
2.59033	16
2.59400	16
2.59767	16
2.60133	17
2.60500	17
2.60867	17
2.61233	17
2.61600	17
2.61967	17
2.62333	17
2.62700	17
2.63067	17
2.63433	18
2.63800	18
2.64167	18
2.64533	18
2.64900	19
2.65267	19
2.65633	20
2.66000	20
2.66367	21
2.66733	21
2.67100	21
2.67467	21
2.67833	21
2.68200	20
2.68567	20
2.68933	20
2.69300	20
2.69667	20
2.70033	20
2.70400	20
2.70767	20
2.71133	20
2.71500	21
2.71867	21
2.72233	21
2.72600	21
2.72967	21
2.73333	21
2.73700	21
2.74067	21
2.74433	22
2.74800	22
2.75167	22
2.75533	22
2.75900	22
2.76267	22
2.76633	22
2.77000	22
2.77367	22
2.77733	22
2.78100	22
2.78467	22
2.78833	22
2.79200	22
2.79567	22
2.79933	22
2.80300	22
2.80667	21
2.81033	21
2.81400	21
2.81767	21
2.82133	21
2.82500	21
2.82867	21
2.83233	21
2.83600	21
2.83967	20
2.84333	19
2.84700	16
2.85067	12
2.85433	4
2.85800	-7
2.86167	-22
2.86533	-42
2.86900	-67
2.87267	-97
2.87633	-132
2.88000	-173
2.88367	-218
2.88733	-269
2.89100	-324
2.89467	-383
2.89833	-446
2.90200	-512
2.90567	-581
2.90933	-653
2.91300	-727
2.91667	-803
2.92033	-882
2.92400	-962
2.92767	-1044
2.93133	-1128
2.93500	-1213
2.93867	-1299
2.94233	-1385
2.94600	-1458
2.94967	-1507
2.95333	-1523
2.95700	-1503
2.96067	-1452
2.96433	-1375
2.96800	-1280
2.97167	-1175
2.97533	-1065
2.97900	-955
2.98267	-849
2.98633	-750
2.99000	-658
2.99367	-574
2.99733	-499
3.00100	-432
3.00467	-372
3.00833	-320
3.01200	-275
3.01567	-235
3.01933	-201
3.02300	-172
3.02667	-146
3.03033	-124
3.03400	-105
3.03767	-89
3.04133	-75
3.04500	-64
3.04867	-53
3.05233	-45
3.05600	-37
3.05967	-31
3.06333	-26
3.06700	-21
3.07067	-17
3.07433	-13
3.07800	-10
3.08167	-7
3.08533	-5
3.08900	-3
3.09267	-1
3.09633	0
3.10000	2
3.10367	3
3.10733	4
3.11100	5
3.11467	7
3.11833	8
3.12200	9
3.12567	10
3.12933	11
3.13300	12
3.13667	12
3.14033	13
3.14400	14
3.14767	15
3.15133	16
3.15500	17
3.15867	17
3.16233	17
3.16600	18
3.16967	18
3.17333	18
3.17700	18
3.18067	19
3.18433	19
3.18800	19
3.19167	19
3.19533	19
3.19900	19
3.20267	19
3.20633	20
3.21000	20
3.21367	20
3.21733	21
3.22100	21
3.22467	21
3.22833	22
3.23200	22
3.23567	22
3.23933	22
3.24300	22
3.24667	22
3.25033	22
3.25400	22
3.25767	22
3.26133	21
3.26500	21
3.26867	21
3.27233	21
3.27600	21
3.27967	21
3.28333	21
3.28700	21
3.29067	21
3.29433	21
3.29800	21
3.30167	21
3.30533	21
3.30900	21
3.31267	21
3.31633	22
3.32000	22
3.32367	22
3.32733	22
3.33100	22
3.33467	23
3.33833	23
3.34200	23
3.34567	23
3.34933	23
3.35300	23
3.35667	23
3.36033	24
3.36400	24
3.36767	24
3.37133	24
3.37500	24
3.37867	24
3.38233	23
3.38600	23
3.38967	23
3.39333	23
3.39700	23
3.40067	23
3.40433	23
3.40800	23
3.41167	23
3.41533	23
3.41900	23
3.42267	23
3.42633	23
3.43000	24
3.43367	24
3.43733	24
3.44100	24
3.44467	23
3.44833	23
3.45200	23
3.45567	23
3.45933	23
3.46300	23
3.46667	23
3.47033	23
3.47400	23
3.47767	23
3.48133	23
3.48500	23
3.48867	23
3.49233	23
3.49600	23
3.49967	23
3.50333	23
3.50700	24
3.51067	24
3.51433	24
3.51800	24
3.52167	24
3.52533	24
3.52900	24
3.53267	24
3.53633	24
3.54000	24
3.54367	24
3.54733	25
3.55100	25
3.55467	25
3.55833	25
3.56200	25
3.56567	24
3.56933	24
3.57300	24
3.57667	24
3.58033	24
3.58400	25
3.58767	25
3.59133	25
3.59500	25
3.59867	25
3.60233	25
3.60600	25
3.60967	25
3.61333	25
3.61700	25
3.62067	24
3.62433	24
3.62800	24
3.63167	24
3.63533	24
3.63900	24
3.64267	25
3.64633	25
3.65000	25
3.65367	25
3.65733	26
3.66100	26
3.66467	26
3.66833	26
3.67200	26
3.67567	26
3.67933	26
3.68300	26
3.68667	26
3.69033	26
3.69400	26
3.69767	26
3.70133	26
3.70500	26
3.70867	26
3.71233	26
3.71600	26
3.71967	26
3.72333	26
3.72700	26
3.73067	26
3.73433	26
3.73800	25
3.74167	25
3.74533	25
3.74900	25
3.75267	25
3.75633	25
3.76000	25
3.76367	25
3.76733	26
3.77100	26
3.77467	26
3.77833	26
3.78200	26
3.78567	26
3.78933	26
3.79300	27
3.79667	27
3.80033	27
3.80400	26
3.80767	26
3.81133	26
3.81500	26
3.81867	27
3.82233	27
3.82600	27
3.82967	27
3.83333	27
3.83700	26
3.84067	26
3.84433	26
3.84800	26
3.85167	26
3.85533	26
3.85900	25
3.86267	25
3.86633	25
3.87000	25
3.87367	25
3.87733	24
3.88100	24
3.88467	24
3.88833	24
3.89200	24
3.89567	23
3.89933	23
3.90300	23
3.90667	24
3.91033	24
3.91400	24
3.91767	24
3.92133	25
3.92500	25
3.92867	25
3.93233	26
3.93600	26
3.93967	26
3.94333	25
3.94700	25
3.95067	25
3.95433	26
3.95800	26
3.96167	26
3.96533	26
3.96900	26
3.97267	26
3.97633	26
3.98000	26
3.98367	26
3.98733	25
3.99100	25
3.99467	25
3.99833	25

[Chromatogram (Ch3)]
Interval(msec)	220
# of Points	1091
Start Time(min)	0.002
End Time(min)	3.998
R.Time (min)	Intensity
0.00167	-0
0.00533	-2
0.00900	-4
0.01267	-5
0.01633	-6
0.02000	-7
0.02367	-8
0.02733	-9
0.03100	-9
0.03467	-8
0.03833	-7
0.04200	-4
0.04567	-4
0.04933	-3
0.05300	-3
0.05667	-5
0.06033	-6
0.06400	-3
0.06767	-1
0.07133	1
0.07500	2
0.07867	-0
0.08233	-2
0.08600	-4
0.08967	-5
0.09333	-6
0.09700	-7
0.10067	-6
0.10433	-4
0.10800	-3
0.11167	-1
0.11533	-2
0.11900	-4
0.12267	-3
0.12633	-2
0.13000	-1
0.13367	-2
0.13733	-2
0.14100	-2
0.14467	-2
0.14833	-1
0.15200	-2
0.15567	-2
0.15933	-2
0.16300	-2
0.16667	-2
0.17033	-3
0.17400	-5
0.17767	-3
0.18133	-2
0.18500	-2
0.18867	-4
0.19233	-6
0.19600	-8
0.19967	-9
0.20333	-8
0.20700	-6
0.21067	-5
0.21433	-5
0.21800	-5
0.22167	-4
0.22533	-2
0.22900	-1
0.23267	1
0.23633	3
0.24000	3
0.24367	3
0.24733	4
0.25100	4
0.25467	2
0.25833	1
0.26200	-0
0.26567	-2
0.26933	-3
0.27300	-4
0.27667	-5
0.28033	-5
0.28400	-5
0.28767	-5
0.29133	-6
0.29500	-6
0.29867	-6
0.30233	-8
0.30600	-11
0.30967	-11
0.31333	-10
0.31700	-7
0.32067	-5
0.32433	-5
0.32800	-5
0.33167	-3
0.33533	-3
0.33900	-4
0.34267	-3
0.34633	-3
0.35000	-2
0.35367	-1
0.35733	0
0.36100	-0
0.36467	0
0.36833	-0
0.37200	-2
0.37567	-1
0.37933	-2
0.38300	-5
0.38667	-5
0.39033	-4
0.39400	-3
0.39767	-2
0.40133	-0
0.40500	1
0.40867	1
0.41233	-2
0.41600	-2
0.41967	-1
0.42333	-1
0.42700	-3
0.43067	-1
0.43433	0
0.43800	-0
0.44167	1
0.44533	-0
0.44900	-2
0.45267	-3
0.45633	-2
0.46000	-1
0.46367	-1
0.46733	-2
0.47100	-3
0.47467	-4
0.47833	-7
0.48200	-7
0.48567	-6
0.48933	-4
0.49300	-2
0.49667	-0
0.50033	-0
0.50400	-1
0.50767	-1
0.51133	-1
0.51500	2
0.51867	3
0.52233	1
0.52600	-1
0.52967	1
0.53333	1
0.53700	1
0.54067	1
0.54433	2
0.54800	2
0.55167	2
0.55533	2
0.55900	1
0.56267	-1
0.56633	-1
0.57000	-3
0.57367	-4
0.57733	-4
0.58100	-4
0.58467	-2
0.58833	-1
0.59200	-0
0.59567	-0
0.59933	-1
0.60300	-3
0.60667	-2
0.61033	-1
0.61400	-0
0.61767	1
0.62133	4
0.62500	5
0.62867	5
0.63233	5
0.63600	4
0.63967	3
0.64333	1
0.64700	1
0.65067	2
0.65433	2
0.65800	1
0.66167	1
0.66533	1
0.66900	0
0.67267	1
0.67633	1
0.68000	1
0.68367	-0
0.68733	-4
0.69100	-5
0.69467	-4
0.69833	-3
0.70200	-2
0.70567	-1
0.70933	1
0.71300	4
0.71667	4
0.72033	4
0.72400	4
0.72767	4
0.73133	6
0.73500	7
0.73867	7
0.74233	6
0.74600	7
0.74967	8
0.75333	11
0.75700	13
0.76067	12
0.76433	13
0.76800	12
0.77167	10
0.77533	8
0.77900	7
0.78267	7
0.78633	7
0.79000	6
0.79367	4
0.79733	5
0.80100	5
0.80467	4
0.80833	3
0.81200	3
0.81567	3
0.81933	2
0.82300	2
0.82667	2
0.83033	4
0.83400	6
0.83767	7
0.84133	6
0.84500	6
0.84867	5
0.85233	5
0.85600	5
0.85967	3
0.86333	4
0.86700	4
0.87067	6
0.87433	7
0.87800	8
0.88167	10
0.88533	11
0.88900	10
0.89267	11
0.89633	12
0.90000	12
0.90367	12
0.90733	10
0.91100	10
0.91467	9
0.91833	8
0.92200	7
0.92567	7
0.92933	7
0.93300	8
0.93667	9
0.94033	7
0.94400	5
0.94767	6
0.95133	7
0.95500	8
0.95867	9
0.96233	10
0.96600	13
0.96967	15
0.97333	15
0.97700	13
0.98067	12
0.98433	10
0.98800	9
0.99167	8
0.99533	8
0.99900	9
1.00267	10
1.00633	12
1.01000	11
1.01367	11
1.01733	12
1.02100	11
1.02467	10
1.02833	9
1.03200	9
1.03567	7
1.03933	8
1.04300	10
1.04667	11
1.05033	11
1.05400	10
1.05767	10
1.06133	12
1.06500	13
1.06867	13
1.07233	11
1.07600	10
1.07967	10
1.08333	9
1.08700	10
1.09067	10
1.09433	11
1.09800	10
1.10167	10
1.10533	11
1.10900	12
1.11267	12
1.11633	13
1.12000	13
1.12367	13
1.12733	12
1.13100	13
1.13467	14
1.13833	14
1.14200	14
1.14567	16
1.14933	15
1.15300	14
1.15667	12
1.16033	12
1.16400	12
1.16767	10
1.17133	10
1.17500	11
1.17867	12
1.18233	11
1.18600	11
1.18967	10
1.19333	11
1.19700	12
1.20067	15
1.20433	19
1.20800	20
1.21167	20
1.21533	18
1.21900	16
1.22267	14
1.22633	13
1.23000	14
1.23367	15
1.23733	16
1.24100	18
1.24467	16
1.24833	16
1.25200	17
1.25567	18
1.25933	20
1.26300	19
1.26667	16
1.27033	16
1.27400	18
1.27767	18
1.28133	18
1.28500	18
1.28867	18
1.29233	18
1.29600	18
1.29967	19
1.30333	18
1.30700	19
1.31067	21
1.31433	23
1.31800	23
1.32167	21
1.32533	19
1.32900	19
1.33267	19
1.33633	18
1.34000	17
1.34367	16
1.34733	16
1.35100	16
1.35467	16
1.35833	15
1.36200	17
1.36567	18
1.36933	18
1.37300	18
1.37667	19
1.38033	18
1.38400	19
1.38767	20
1.39133	20
1.39500	21
1.39867	22
1.40233	22
1.40600	22
1.40967	22
1.41333	24
1.41700	25
1.42067	24
1.42433	23
1.42800	23
1.43167	21
1.43533	22
1.43900	24
1.44267	27
1.44633	29
1.45000	29
1.45367	29
1.45733	26
1.46100	25
1.46467	25
1.46833	27
1.47200	25
1.47567	25
1.47933	25
1.48300	26
1.48667	23
1.49033	21
1.49400	22
1.49767	23
1.50133	24
1.50500	24
1.50867	23
1.51233	24
1.51600	25
1.51967	26
1.52333	25
1.52700	22
1.53067	20
1.53433	21
1.53800	22
1.54167	23
1.54533	23
1.54900	24
1.55267	26
1.55633	25
1.56000	25
1.56367	25
1.56733	24
1.57100	24
1.57467	24
1.57833	25
1.58200	25
1.58567	26
1.58933	25
1.59300	24
1.59667	26
1.60033	29
1.60400	31
1.60767	31
1.61133	32
1.61500	32
1.61867	32
1.62233	33
1.62600	34
1.62967	33
1.63333	31
1.63700	31
1.64067	31
1.64433	31
1.64800	32
1.65167	33
1.65533	32
1.65900	33
1.66267	35
1.66633	36
1.67000	35
1.67367	36
1.67733	38
1.68100	39
1.68467	39
1.68833	40
1.69200	41
1.69567	43
1.69933	43
1.70300	42
1.70667	40
1.71033	40
1.71400	40
1.71767	40
1.72133	41
1.72500	42
1.72867	42
1.73233	42
1.73600	44
1.73967	46
1.74333	48
1.74700	51
1.75067	53
1.75433	52
1.75800	50
1.76167	52
1.76533	56
1.76900	58
1.77267	59
1.77633	59
1.78000	57
1.78367	58
1.78733	58
1.79100	57
1.79467	57
1.79833	57
1.80200	58
1.80567	58
1.80933	60
1.81300	61
1.81667	61
1.82033	61
1.82400	62
1.82767	62
1.83133	60
1.83500	58
1.83867	59
1.84233	60
1.84600	62
1.84967	65
1.85333	65
1.85700	65
1.86067	64
1.86433	64
1.86800	65
1.87167	68
1.87533	71
1.87900	74
1.88267	74
1.88633	72
1.89000	71
1.89367	70
1.89733	69
1.90100	68
1.90467	68
1.90833	70
1.91200	72
1.91567	74
1.91933	76
1.92300	77
1.92667	79
1.93033	81
1.93400	82
1.93767	80
1.94133	80
1.94500	81
1.94867	81
1.95233	84
1.95600	87
1.95967	90
1.96333	91
1.96700	93
1.97067	96
1.97433	96
1.97800	94
1.98167	92
1.98533	92
1.98900	93
1.99267	95
1.99633	96
2.00000	100
2.00367	102
2.00733	104
2.01100	104
2.01467	105
2.01833	106
2.02200	106
2.02567	105
2.02933	107
2.03300	109
2.03667	112
2.04033	114
2.04400	115
2.04767	117
2.05133	119
2.05500	118
2.05867	117
2.06233	118
2.06600	120
2.06967	120
2.07333	121
2.07700	123
2.08067	124
2.08433	124
2.08800	124
2.09167	125
2.09533	127
2.09900	129
2.10267	128
2.10633	127
2.11000	128
2.11367	130
2.11733	132
2.12100	134
2.12467	135
2.12833	140
2.13200	142
2.13567	144
2.13933	145
2.14300	147
2.14667	148
2.15033	148
2.15400	147
2.15767	148
2.16133	152
2.16500	156
2.16867	158
2.17233	158
2.17600	157
2.17967	155
2.18333	155
2.18700	156
2.19067	157
2.19433	160
2.19800	166
2.20167	168
2.20533	170
2.20900	169
2.21267	167
2.21633	164
2.22000	164
2.22367	165
2.22733	166
2.23100	170
2.23467	175
2.23833	177
2.24200	178
2.24567	178
2.24933	178
2.25300	176
2.25667	175
2.26033	176
2.26400	179
2.26767	182
2.27133	187
2.27500	189
2.27867	191
2.28233	194
2.28600	195
2.28967	194
2.29333	192
2.29700	191
2.30067	192
2.30433	195
2.30800	198
2.31167	199
2.31533	201
2.31900	204
2.32267	206
2.32633	207
2.33000	212
2.33367	214
2.33733	212
2.34100	211
2.34467	211
2.34833	210
2.35200	209
2.35567	209
2.35933	211
2.36300	214
2.36667	216
2.37033	218
2.37400	222
2.37767	224
2.38133	225
2.38500	223
2.38867	221
2.39233	219
2.39600	220
2.39967	222
2.40333	224
2.40700	224
2.41067	222
2.41433	223
2.41800	227
2.42167	231
2.42533	237
2.42900	240
2.43267	242
2.43633	244
2.44000	246
2.44367	249
2.44733	257
2.45100	267
2.45467	281
2.45833	292
2.46200	300
2.46567	305
2.46933	308
2.47300	309
2.47667	308
2.48033	307
2.48400	309
2.48767	311
2.49133	310
2.49500	305
2.49867	300
2.50233	295
2.50600	290
2.50967	285
2.51333	279
2.51700	272
2.52067	265
2.52433	259
2.52800	256
2.53167	254
2.53533	249
2.53900	244
2.54267	237
2.54633	230
2.55000	223
2.55367	215
2.55733	210
2.56100	208
2.56467	206
2.56833	206
2.57200	204
2.57567	199
2.57933	194
2.58300	189
2.58667	185
2.59033	181
2.59400	175
2.59767	166
2.60133	149
2.60500	125
2.60867	91
2.61233	53
2.61600	13
2.61967	-28
2.62333	-68
2.62700	-106
2.63067	-137
2.63433	-163
2.63800	-181
2.64167	-195
2.64533	-206
2.64900	-212
2.65267	-215
2.65633	-214
2.66000	-213
2.66367	-208
2.66733	-200
2.67100	-192
2.67467	-186
2.67833	-179
2.68200	-172
2.68567	-165
2.68933	-157
2.69300	-151
2.69667	-143
2.70033	-134
2.70400	-126
2.70767	-117
2.71133	-110
2.71500	-105
2.71867	-100
2.72233	-94
2.72600	-86
2.72967	-81
2.73333	-76
2.73700	-70
2.74067	-65
2.74433	-61
2.74800	-56
2.75167	-51
2.75533	-46
2.75900	-41
2.76267	-35
2.76633	-31
2.77000	-29
2.77367	-27
2.77733	-25
2.78100	-23
2.78467	-21
2.78833	-17
2.79200	-14
2.79567	-11
2.79933	-9
2.80300	-4
2.80667	-0
2.81033	2
2.81400	8
2.81767	17
2.82133	35
2.82500	74
2.82867	164
2.83233	351
2.83600	691
2.83967	1238
2.84333	2041
2.84700	3127
2.85067	4481
2.85433	6051
2.85800	7748
2.86167	9454
2.86533	11028
2.86900	12302
2.87267	13236
2.87633	13852
2.88000	14140
2.88367	14099
2.88733	13768
2.89100	13200
2.89467	12461
2.89833	11618
2.90200	10727
2.90567	9827
2.90933	8946
2.91300	8108
2.91667	7329
2.92033	6613
2.92400	5960
2.92767	5371
2.93133	4846
2.93500	4379
2.93867	3965
2.94233	3600
2.94600	3277
2.94967	2994
2.95333	2745
2.95700	2525
2.96067	2334
2.96433	2170
2.96800	2029
2.97167	1906
2.97533	1798
2.97900	1704
2.98267	1623
2.98633	1553
2.99000	1493
2.99367	1440
2.99733	1393
3.00100	1352
3.00467	1314
3.00833	1280
3.01200	1250
3.01567	1224
3.01933	1202
3.02300	1182
3.02667	1165
3.03033	1150
3.03400	1135
3.03767	1121
3.04133	1107
3.04500	1095
3.04867	1083
3.05233	1071
3.05600	1059
3.05967	1050
3.06333	1042
3.06700	1036
3.07067	1031
3.07433	1024
3.07800	1017
3.08167	1009
3.08533	1004
3.08900	999
3.09267	992
3.09633	983
3.10000	975
3.10367	971
3.10733	968
3.11100	964
3.11467	960
3.11833	956
3.12200	954
3.12567	951
3.12933	946
3.13300	943
3.13667	941
3.14033	940
3.14400	935
3.14767	932
3.15133	931
3.15500	930
3.15867	930
3.16233	926
3.16600	922
3.16967	919
3.17333	917
3.17700	916
3.18067	914
3.18433	913
3.18800	910
3.19167	907
3.19533	903
3.19900	898
3.20267	894
3.20633	891
3.21000	889
3.21367	888
3.21733	887
3.22100	885
3.22467	881
3.22833	876
3.23200	872
3.23567	869
3.23933	866
3.24300	865
3.24667	865
3.25033	863
3.25400	860
3.25767	857
3.26133	853
3.26500	849
3.26867	845
3.27233	842
3.27600	839
3.27967	834
3.28333	832
3.28700	831
3.29067	827
3.29433	822
3.29800	818
3.30167	813
3.30533	811
3.30900	810
3.31267	809
3.31633	806
3.32000	801
3.32367	795
3.32733	791
3.33100	788
3.33467	786
3.33833	782
3.34200	779
3.34567	775
3.34933	771
3.35300	767
3.35667	763
3.36033	758
3.36400	754
3.36767	751
3.37133	748
3.37500	743
3.37867	739
3.38233	736
3.38600	731
3.38967	728
3.39333	725
3.39700	722
3.40067	718
3.40433	713
3.40800	707
3.41167	702
3.41533	698
3.41900	696
3.42267	692
3.42633	690
3.43000	686
3.43367	683
3.43733	679
3.44100	676
3.44467	672
3.44833	669
3.45200	665
3.45567	661
3.45933	659
3.46300	657
3.46667	653
3.47033	649
3.47400	645
3.47767	642
3.48133	640
3.48500	638
3.48867	636
3.49233	632
3.49600	628
3.49967	625
3.50333	622
3.50700	618
3.51067	614
3.51433	611
3.51800	606
3.52167	601
3.52533	597
3.52900	593
3.53267	590
3.53633	587
3.54000	585
3.54367	585
3.54733	582
3.55100	579
3.55467	578
3.55833	575
3.56200	571
3.56567	567
3.56933	563
3.57300	558
3.57667	551
3.58033	547
3.58400	545
3.58767	544
3.59133	544
3.59500	540
3.59867	535
3.60233	531
3.60600	530
3.60967	528
3.61333	525
3.61700	520
3.62067	517
3.62433	515
3.62800	516
3.63167	515
3.63533	513
3.63900	512
3.64267	510
3.64633	507
3.65000	501
3.65367	497
3.65733	494
3.66100	489
3.66467	485
3.66833	482
3.67200	480
3.67567	479
3.67933	480
3.68300	480
3.68667	478
3.69033	474
3.69400	471
3.69767	471
3.70133	468
3.70500	463
3.70867	457
3.71233	455
3.71600	456
3.71967	456
3.72333	453
3.72700	452
3.73067	451
3.73433	450
3.73800	450
3.74167	449
3.74533	449
3.74900	446
3.75267	439
3.75633	434
3.76000	430
3.76367	428
3.76733	427
3.77100	425
3.77467	423
3.77833	422
3.78200	423
3.78567	424
3.78933	421
3.79300	417
3.79667	415
3.80033	413
3.80400	410
3.80767	407
3.81133	405
3.81500	406
3.81867	404
3.82233	404
3.82600	404
3.82967	404
3.83333	400
3.83700	397
3.84067	396
3.84433	393
3.84800	391
3.85167	387
3.85533	384
3.85900	382
3.86267	381
3.86633	382
3.87000	383
3.87367	382
3.87733	382
3.88100	381
3.88467	379
3.88833	377
3.89200	374
3.89567	370
3.89933	369
3.90300	368
3.90667	367
3.91033	365
3.91400	363
3.91767	362
3.92133	360
3.92500	358
3.92867	359
3.93233	360
3.93600	359
3.93967	357
3.94333	353
3.94700	352
3.95067	350
3.95433	350
3.95800	350
3.96167	352
3.96533	354
3.96900	354
3.97267	354
3.97633	354
3.98000	353
3.98367	350
3.98733	348
3.99100	344
3.99467	341
3.99833	338

[Status Trace (Column Oven Temperature)]
Interval(msec)	1000
# of Points	240
Start Time(min)	0.011
End Time(min)	3.995
Intensity Units	
Intensity Multiplier	1
R.Time (min)	Intensity
0.01122	35.03
0.02788	35.04
0.04455	35.03
0.06122	35.04
0.07788	35.05
0.09455	35.05
0.11122	35.06
0.12788	35.05
0.14455	35.05
0.16122	35.05
0.17788	35.06
0.19455	35.07
0.21122	35.07
0.22788	35.05
0.24455	35.04
0.26122	35.01
0.27788	34.99
0.29455	34.97
0.31122	34.96
0.32788	34.96
0.34455	34.95
0.36122	34.95
0.37788	34.95
0.39455	34.96
0.41122	34.98
0.42788	34.98
0.44455	34.99
0.46122	34.99
0.47788	34.99
0.49455	34.99
0.51122	34.98
0.52788	34.98
0.54455	34.97
0.56122	34.95
0.57788	34.96
0.59455	34.96
0.61122	34.96
0.62788	34.96
0.64455	34.95
0.66122	34.95
0.67788	34.96
0.69455	34.98
0.71122	34.99
0.72788	35.01
0.74455	35.04
0.76122	35.05
0.77788	35.04
0.79455	35.04
0.81122	35.03
0.82788	35.02
0.84455	35.01
0.86122	35.01
0.87788	35.02
0.89455	35.04
0.91122	35.04
0.92788	35.05
0.94455	35.06
0.96122	35.06
0.97788	35.06
0.99455	35.04
1.01122	35.03
1.02788	35.01
1.04455	34.99
1.06122	34.97
1.07788	34.95
1.09455	34.96
1.11122	34.96
1.12788	34.96
1.14455	34.97
1.16122	34.98
1.17788	34.98
1.19455	34.97
1.21122	34.97
1.22788	34.97
1.24455	34.97
1.26122	34.96
1.27788	34.96
1.29455	34.96
1.31122	34.96
1.32788	34.96
1.34455	34.96
1.36122	34.96
1.37788	34.95
1.39455	34.96
1.41122	34.96
1.42788	34.95
1.44455	34.96
1.46122	34.96
1.47788	34.96
1.49455	34.97
1.51122	34.97
1.52788	34.97
1.54455	34.99
1.56122	34.98
1.57788	34.97
1.59455	34.98
1.61122	35.05
1.62788	35.19
1.64455	35.41
1.66122	35.69
1.67788	36.06
1.69455	36.42
1.71122	36.76
1.72788	37.07
1.74455	37.41
1.76122	37.75
1.77788	38.08
1.79455	38.42
1.81122	38.73
1.82788	39.05
1.84455	39.39
1.86122	39.73
1.87788	40.05
1.89455	40.38
1.91122	40.71
1.92788	41.03
1.94455	41.37
1.96122	41.68
1.97788	42.00
1.99455	42.33
2.01122	42.66
2.02788	42.99
2.04455	43.32
2.06122	43.63
2.07788	43.95
2.09455	44.28
2.11122	44.60
2.12788	44.94
2.14455	45.27
2.16122	45.59
2.17788	45.92
2.19455	46.26
2.21122	46.58
2.22788	46.91
2.24455	47.23
2.26122	47.59
2.27788	47.91
2.29455	48.24
2.31122	48.56
2.32788	48.91
2.34455	49.19
2.36122	49.50
2.37788	49.70
2.39455	49.77
2.41122	49.77
2.42788	49.76
2.44455	49.80
2.46122	49.80
2.47788	49.80
2.49455	49.80
2.51122	49.80
2.52788	49.84
2.54455	49.84
2.56122	49.84
2.57788	49.85
2.59455	49.84
2.61122	49.85
2.62788	49.86
2.64455	49.85
2.66122	49.84
2.67788	49.85
2.69455	49.87
2.71122	49.86
2.72788	49.87
2.74455	49.86
2.76122	49.87
2.77788	49.88
2.79455	49.89
2.81122	49.90
2.82788	49.91
2.84455	49.94
2.86122	49.95
2.87788	49.97
2.89455	49.98
2.91122	49.99
2.92788	50.00
2.94455	50.01
2.96122	50.02
2.97788	50.03
2.99455	50.04
3.01122	50.06
3.02788	50.07
3.04455	50.08
3.06122	50.10
3.07788	50.10
3.09455	50.11
3.11122	50.10
3.12788	50.09
3.14455	50.08
3.16122	50.08
3.17788	50.07
3.19455	50.06
3.21122	50.05
3.22788	50.05
3.24455	50.05
3.26122	50.05
3.27788	50.04
3.29455	50.06
3.31122	50.07
3.32788	50.07
3.34455	50.06
3.36122	50.05
3.37788	50.05
3.39455	50.05
3.41122	50.05
3.42788	50.06
3.44455	50.06
3.46122	50.07
3.47788	50.08
3.49455	50.08
3.51122	50.08
3.52788	50.09
3.54455	50.10
3.56122	50.10
3.57788	50.09
3.59455	50.09
3.61122	50.09
3.62788	50.10
3.64455	50.10
3.66122	50.09
3.67788	50.09
3.69455	50.09
3.71122	50.09
3.72788	50.10
3.74455	50.10
3.76122	50.09
3.77788	50.09
3.79455	50.08
3.81122	50.07
3.82788	50.07
3.84455	50.07
3.86122	50.07
3.87788	50.07
3.89455	50.07
3.91122	50.07
3.92788	50.06
3.94455	50.06
3.96122	50.05
3.97788	50.06
3.99455	50.06

[Status Trace (Injection Unit Temperature)]
Interval(msec)	1000
# of Points	240
Start Time(min)	0.011
End Time(min)	3.995
Intensity Units	
Intensity Multiplier	1
R.Time (min)	Intensity
0.01122	99.98
0.02788	99.99
0.04455	99.98
0.06122	99.98
0.07788	99.98
0.09455	99.98
0.11122	99.99
0.12788	99.98
0.14455	99.98
0.16122	99.98
0.17788	99.99
0.19455	99.98
0.21122	99.98
0.22788	99.98
0.24455	99.98
0.26122	99.98
0.27788	99.98
0.29455	99.98
0.31122	99.98
0.32788	99.98
0.34455	99.98
0.36122	99.98
0.37788	99.97
0.39455	99.98
0.41122	99.98
0.42788	99.98
0.44455	99.98
0.46122	99.97
0.47788	99.98
0.49455	99.97
0.51122	99.98
0.52788	99.98
0.54455	99.98
0.56122	99.97
0.57788	99.98
0.59455	99.98
0.61122	99.98
0.62788	99.98
0.64455	99.98
0.66122	99.98
0.67788	99.98
0.69455	99.98
0.71122	99.98
0.72788	99.97
0.74455	99.98
0.76122	99.98
0.77788	99.98
0.79455	99.98
0.81122	99.98
0.82788	99.98
0.84455	99.98
0.86122	99.98
0.87788	99.98
0.89455	99.98
0.91122	99.98
0.92788	99.98
0.94455	99.98
0.96122	99.98
0.97788	99.98
0.99455	99.98
1.01122	99.98
1.02788	99.98
1.04455	99.98
1.06122	99.99
1.07788	99.98
1.09455	99.98
1.11122	99.98
1.12788	99.99
1.14455	99.98
1.16122	99.99
1.17788	99.98
1.19455	99.98
1.21122	99.98
1.22788	99.99
1.24455	99.98
1.26122	99.99
1.27788	99.98
1.29455	99.99
1.31122	99.99
1.32788	99.99
1.34455	99.99
1.36122	99.99
1.37788	99.99
1.39455	99.99
1.41122	99.98
1.42788	99.99
1.44455	99.98
1.46122	99.99
1.47788	99.98
1.49455	99.98
1.51122	99.99
1.52788	99.98
1.54455	99.98
1.56122	99.98
1.57788	99.98
1.59455	99.98
1.61122	99.98
1.62788	99.98
1.64455	99.98
1.66122	99.98
1.67788	99.98
1.69455	99.98
1.71122	99.98
1.72788	99.99
1.74455	99.98
1.76122	99.98
1.77788	99.98
1.79455	99.98
1.81122	99.98
1.82788	99.98
1.84455	99.98
1.86122	99.98
1.87788	99.98
1.89455	99.98
1.91122	99.98
1.92788	99.98
1.94455	99.98
1.96122	99.98
1.97788	99.98
1.99455	99.98
2.01122	99.97
2.02788	99.98
2.04455	99.97
2.06122	99.98
2.07788	99.98
2.09455	99.97
2.11122	99.97
2.12788	99.97
2.14455	99.97
2.16122	99.97
2.17788	99.97
2.19455	99.97
2.21122	99.97
2.22788	99.97
2.24455	99.97
2.26122	99.97
2.27788	99.97
2.29455	99.96
2.31122	99.97
2.32788	99.97
2.34455	99.97
2.36122	99.98
2.37788	99.97
2.39455	99.97
2.41122	99.97
2.42788	99.97
2.44455	99.97
2.46122	99.97
2.47788	99.97
2.49455	99.97
2.51122	99.97
2.52788	99.97
2.54455	99.97
2.56122	99.97
2.57788	99.98
2.59455	99.98
2.61122	99.98
2.62788	99.98
2.64455	99.98
2.66122	99.98
2.67788	99.98
2.69455	99.99
2.71122	99.98
2.72788	99.99
2.74455	99.99
2.76122	99.98
2.77788	99.99
2.79455	99.99
2.81122	99.99
2.82788	99.99
2.84455	99.99
2.86122	100.00
2.87788	100.00
2.89455	100.00
2.91122	100.00
2.92788	100.00
2.94455	100.00
2.96122	100.00
2.97788	100.00
2.99455	100.01
3.01122	100.00
3.02788	100.01
3.04455	100.01
3.06122	100.01
3.07788	100.01
3.09455	100.01
3.11122	100.01
3.12788	100.01
3.14455	100.01
3.16122	100.02
3.17788	100.01
3.19455	100.02
3.21122	100.02
3.22788	100.02
3.24455	100.02
3.26122	100.02
3.27788	100.02
3.29455	100.02
3.31122	100.02
3.32788	100.03
3.34455	100.03
3.36122	100.02
3.37788	100.03
3.39455	100.03
3.41122	100.03
3.42788	100.03
3.44455	100.03
3.46122	100.03
3.47788	100.03
3.49455	100.03
3.51122	100.03
3.52788	100.04
3.54455	100.04
3.56122	100.04
3.57788	100.04
3.59455	100.04
3.61122	100.04
3.62788	100.04
3.64455	100.04
3.66122	100.04
3.67788	100.05
3.69455	100.04
3.71122	100.05
3.72788	100.04
3.74455	100.04
3.76122	100.04
3.77788	100.05
3.79455	100.04
3.81122	100.04
3.82788	100.05
3.84455	100.05
3.86122	100.05
3.87788	100.05
3.89455	100.04
3.91122	100.05
3.92788	100.05
3.94455	100.05
3.96122	100.05
3.97788	100.05
3.99455	100.05

[Status Trace (Carrier Gas Pressure)]
Interval(msec)	1000
# of Points	240
Start Time(min)	0.011
End Time(min)	3.995
Intensity Units	
Intensity Multiplier	1
R.Time (min)	Intensity
0.01122	58.00
0.02788	54.99
0.04455	57.51
0.06122	59.48
0.07788	59.19
0.09455	58.01
0.11122	57.98
0.12788	58.01
0.14455	58.01
0.16122	58.01
0.17788	58.00
0.19455	58.00
0.21122	58.00
0.22788	58.00
0.24455	58.00
0.26122	58.00
0.27788	58.00
0.29455	58.00
0.31122	58.00
0.32788	58.00
0.34455	58.00
0.36122	58.00
0.37788	58.00
0.39455	58.00
0.41122	58.00
0.42788	58.00
0.44455	58.00
0.46122	58.00
0.47788	58.00
0.49455	58.00
0.51122	58.00
0.52788	58.00
0.54455	58.00
0.56122	58.00
0.57788	58.00
0.59455	58.00
0.61122	58.00
0.62788	58.00
0.64455	58.00
0.66122	58.00
0.67788	58.00
0.69455	58.00
0.71122	58.00
0.72788	58.00
0.74455	58.00
0.76122	58.00
0.77788	58.00
0.79455	58.00
0.81122	58.00
0.82788	58.00
0.84455	58.00
0.86122	58.00
0.87788	58.00
0.89455	58.00
0.91122	58.00
0.92788	58.00
0.94455	58.00
0.96122	58.00
0.97788	58.00
0.99455	58.00
1.01122	58.00
1.02788	58.00
1.04455	58.00
1.06122	58.00
1.07788	58.00
1.09455	58.00
1.11122	58.00
1.12788	58.00
1.14455	58.00
1.16122	58.00
1.17788	58.00
1.19455	58.00
1.21122	58.00
1.22788	58.00
1.24455	58.00
1.26122	58.00
1.27788	58.00
1.29455	58.00
1.31122	58.00
1.32788	58.00
1.34455	58.00
1.36122	58.00
1.37788	58.00
1.39455	58.00
1.41122	58.00
1.42788	58.00
1.44455	58.00
1.46122	58.00
1.47788	58.00
1.49455	58.00
1.51122	58.00
1.52788	58.00
1.54455	58.00
1.56122	58.00
1.57788	58.00
1.59455	58.00
1.61122	58.00
1.62788	58.01
1.64455	58.01
1.66122	58.00
1.67788	58.01
1.69455	58.00
1.71122	58.00
1.72788	58.00
1.74455	58.00
1.76122	58.00
1.77788	58.00
1.79455	58.00
1.81122	58.00
1.82788	58.00
1.84455	58.00
1.86122	58.00
1.87788	58.00
1.89455	58.00
1.91122	58.00
1.92788	58.00
1.94455	58.00
1.96122	58.00
1.97788	58.00
1.99455	58.00
2.01122	58.00
2.02788	58.00
2.04455	58.00
2.06122	58.00
2.07788	58.00
2.09455	58.00
2.11122	58.00
2.12788	58.00
2.14455	58.00
2.16122	58.00
2.17788	58.00
2.19455	58.00
2.21122	58.00
2.22788	58.00
2.24455	58.00
2.26122	58.00
2.27788	58.00
2.29455	58.00
2.31122	58.00
2.32788	58.00
2.34455	58.00
2.36122	58.00
2.37788	58.00
2.39455	57.99
2.41122	57.99
2.42788	58.00
2.44455	58.00
2.46122	58.00
2.47788	58.00
2.49455	58.00
2.51122	57.99
2.52788	57.99
2.54455	58.00
2.56122	58.00
2.57788	58.00
2.59455	58.00
2.61122	58.00
2.62788	58.00
2.64455	58.00
2.66122	58.00
2.67788	58.00
2.69455	58.00
2.71122	58.00
2.72788	58.00
2.74455	58.00
2.76122	58.00
2.77788	58.00
2.79455	58.00
2.81122	58.00
2.82788	58.00
2.84455	58.00
2.86122	58.00
2.87788	58.00
2.89455	58.00
2.91122	58.00
2.92788	58.00
2.94455	58.00
2.96122	58.00
2.97788	58.00
2.99455	58.00
3.01122	58.00
3.02788	58.00
3.04455	58.00
3.06122	58.00
3.07788	58.00
3.09455	58.00
3.11122	58.00
3.12788	58.00
3.14455	58.00
3.16122	58.00
3.17788	58.00
3.19455	58.00
3.21122	58.00
3.22788	58.00
3.24455	58.00
3.26122	58.00
3.27788	58.00
3.29455	58.00
3.31122	58.00
3.32788	58.00
3.34455	58.00
3.36122	58.00
3.37788	58.00
3.39455	58.00
3.41122	58.00
3.42788	58.00
3.44455	58.00
3.46122	58.00
3.47788	58.00
3.49455	58.00
3.51122	58.00
3.52788	58.00
3.54455	58.00
3.56122	58.00
3.57788	58.00
3.59455	58.00
3.61122	58.00
3.62788	58.00
3.64455	58.00
3.66122	58.00
3.67788	58.00
3.69455	58.00
3.71122	58.00
3.72788	58.00
3.74455	58.00
3.76122	58.00
3.77788	58.00
3.79455	58.00
3.81122	58.00
3.82788	58.00
3.84455	58.00
3.86122	58.00
3.87788	58.00
3.89455	58.00
3.91122	58.00
3.92788	58.00
3.94455	58.00
3.96122	58.00
3.97788	58.00
3.99455	58.00

[Status Trace (Carrier Gas Flow)]
Interval(msec)	1000
# of Points	240
Start Time(min)	0.011
End Time(min)	3.995
Intensity Units	
Intensity Multiplier	1
R.Time (min)	Intensity
0.01122	34.52
0.02788	34.53
0.04455	34.54
0.06122	34.54
0.07788	34.50
0.09455	34.52
0.11122	34.52
0.12788	34.52
0.14455	34.52
0.16122	34.52
0.17788	34.52
0.19455	34.52
0.21122	34.52
0.22788	34.52
0.24455	34.52
0.26122	34.52
0.27788	34.52
0.29455	34.52
0.31122	34.52
0.32788	34.52
0.34455	34.52
0.36122	34.52
0.37788	34.52
0.39455	34.52
0.41122	34.52
0.42788	34.52
0.44455	34.52
0.46122	34.52
0.47788	34.52
0.49455	34.52
0.51122	34.52
0.52788	34.52
0.54455	34.52
0.56122	34.52
0.57788	34.52
0.59455	34.52
0.61122	34.52
0.62788	34.52
0.64455	34.52
0.66122	34.52
0.67788	34.52
0.69455	34.52
0.71122	34.52
0.72788	34.52
0.74455	34.52
0.76122	34.52
0.77788	34.52
0.79455	34.52
0.81122	34.52
0.82788	34.52
0.84455	34.52
0.86122	34.52
0.87788	34.52
0.89455	34.52
0.91122	34.52
0.92788	34.52
0.94455	34.52
0.96122	34.52
0.97788	34.52
0.99455	34.52
1.01122	34.52
1.02788	34.52
1.04455	34.52
1.06122	34.52
1.07788	34.52
1.09455	34.52
1.11122	34.52
1.12788	34.52
1.14455	34.52
1.16122	34.52
1.17788	34.52
1.19455	34.52
1.21122	34.52
1.22788	34.52
1.24455	34.52
1.26122	34.52
1.27788	34.52
1.29455	34.52
1.31122	34.52
1.32788	34.52
1.34455	34.52
1.36122	34.52
1.37788	34.52
1.39455	34.52
1.41122	34.52
1.42788	34.52
1.44455	34.52
1.46122	34.52
1.47788	34.52
1.49455	34.52
1.51122	34.52
1.52788	34.52
1.54455	34.52
1.56122	34.52
1.57788	34.52
1.59455	34.52
1.61122	34.52
1.62788	34.52
1.64455	34.52
1.66122	34.52
1.67788	34.52
1.69455	34.52
1.71122	34.52
1.72788	34.52
1.74455	34.52
1.76122	34.52
1.77788	34.52
1.79455	34.52
1.81122	34.52
1.82788	34.52
1.84455	34.52
1.86122	34.52
1.87788	34.52
1.89455	34.52
1.91122	34.52
1.92788	34.52
1.94455	34.52
1.96122	34.52
1.97788	34.52
1.99455	34.52
2.01122	34.52
2.02788	34.52
2.04455	34.52
2.06122	34.52
2.07788	34.52
2.09455	34.52
2.11122	34.52
2.12788	34.52
2.14455	34.52
2.16122	34.52
2.17788	34.52
2.19455	34.52
2.21122	34.52
2.22788	34.52
2.24455	34.52
2.26122	34.52
2.27788	34.52
2.29455	34.52
2.31122	34.52
2.32788	34.52
2.34455	34.52
2.36122	34.52
2.37788	34.52
2.39455	34.52
2.41122	34.52
2.42788	34.52
2.44455	34.52
2.46122	34.52
2.47788	34.52
2.49455	34.52
2.51122	34.52
2.52788	34.52
2.54455	34.52
2.56122	34.52
2.57788	34.52
2.59455	34.52
2.61122	34.52
2.62788	34.52
2.64455	34.52
2.66122	34.52
2.67788	34.52
2.69455	34.52
2.71122	34.52
2.72788	34.52
2.74455	34.52
2.76122	34.52
2.77788	34.52
2.79455	34.51
2.81122	34.52
2.82788	34.52
2.84455	34.51
2.86122	34.52
2.87788	34.52
2.89455	34.53
2.91122	34.52
2.92788	34.52
2.94455	34.52
2.96122	34.52
2.97788	34.52
2.99455	34.52
3.01122	34.52
3.02788	34.52
3.04455	34.52
3.06122	34.52
3.07788	34.52
3.09455	34.52
3.11122	34.52
3.12788	34.52
3.14455	34.52
3.16122	34.52
3.17788	34.52
3.19455	34.52
3.21122	34.52
3.22788	34.52
3.24455	34.52
3.26122	34.52
3.27788	34.52
3.29455	34.52
3.31122	34.52
3.32788	34.52
3.34455	34.52
3.36122	34.52
3.37788	34.52
3.39455	34.52
3.41122	34.52
3.42788	34.52
3.44455	34.52
3.46122	34.52
3.47788	34.52
3.49455	34.52
3.51122	34.52
3.52788	34.52
3.54455	34.52
3.56122	34.52
3.57788	34.52
3.59455	34.52
3.61122	34.52
3.62788	34.52
3.64455	34.52
3.66122	34.52
3.67788	34.52
3.69455	34.52
3.71122	34.52
3.72788	34.52
3.74455	34.52
3.76122	34.52
3.77788	34.52
3.79455	34.52
3.81122	34.52
3.82788	34.52
3.84455	34.52
3.86122	34.52
3.87788	34.52
3.89455	34.52
3.91122	34.52
3.92788	34.52
3.94455	34.52
3.96122	34.52
3.97788	34.52
3.99455	34.52

[Status Trace (Column Flow)]
Interval(msec)	1000
# of Points	240
Start Time(min)	0.011
End Time(min)	3.995
Intensity Units	
Intensity Multiplier	1
R.Time (min)	Intensity
0.01122	5.53
0.02788	5.18
0.04455	5.47
0.06122	5.70
0.07788	5.67
0.09455	5.53
0.11122	5.53
0.12788	5.53
0.14455	5.53
0.16122	5.53
0.17788	5.53
0.19455	5.53
0.21122	5.53
0.22788	5.53
0.24455	5.53
0.26122	5.53
0.27788	5.53
0.29455	5.53
0.31122	5.53
0.32788	5.53
0.34455	5.53
0.36122	5.53
0.37788	5.53
0.39455	5.53
0.41122	5.53
0.42788	5.53
0.44455	5.53
0.46122	5.53
0.47788	5.53
0.49455	5.53
0.51122	5.53
0.52788	5.53
0.54455	5.53
0.56122	5.53
0.57788	5.53
0.59455	5.53
0.61122	5.53
0.62788	5.53
0.64455	5.53
0.66122	5.53
0.67788	5.53
0.69455	5.53
0.71122	5.53
0.72788	5.53
0.74455	5.53
0.76122	5.53
0.77788	5.53
0.79455	5.53
0.81122	5.53
0.82788	5.53
0.84455	5.53
0.86122	5.53
0.87788	5.53
0.89455	5.53
0.91122	5.53
0.92788	5.53
0.94455	5.53
0.96122	5.53
0.97788	5.53
0.99455	5.53
1.01122	5.53
1.02788	5.53
1.04455	5.53
1.06122	5.53
1.07788	5.53
1.09455	5.53
1.11122	5.53
1.12788	5.53
1.14455	5.53
1.16122	5.53
1.17788	5.53
1.19455	5.53
1.21122	5.53
1.22788	5.53
1.24455	5.53
1.26122	5.53
1.27788	5.53
1.29455	5.53
1.31122	5.53
1.32788	5.53
1.34455	5.53
1.36122	5.53
1.37788	5.53
1.39455	5.53
1.41122	5.53
1.42788	5.53
1.44455	5.53
1.46122	5.53
1.47788	5.53
1.49455	5.53
1.51122	5.53
1.52788	5.53
1.54455	5.53
1.56122	5.53
1.57788	5.53
1.59455	5.53
1.61122	5.53
1.62788	5.53
1.64455	5.52
1.66122	5.51
1.67788	5.50
1.69455	5.49
1.71122	5.48
1.72788	5.47
1.74455	5.45
1.76122	5.45
1.77788	5.44
1.79455	5.42
1.81122	5.41
1.82788	5.41
1.84455	5.39
1.86122	5.38
1.87788	5.37
1.89455	5.36
1.91122	5.36
1.92788	5.35
1.94455	5.33
1.96122	5.33
1.97788	5.32
1.99455	5.31
2.01122	5.30
2.02788	5.29
2.04455	5.28
2.06122	5.27
2.07788	5.26
2.09455	5.25
2.11122	5.24
2.12788	5.23
2.14455	5.22
2.16122	5.21
2.17788	5.20
2.19455	5.19
2.21122	5.18
2.22788	5.17
2.24455	5.16
2.26122	5.15
2.27788	5.15
2.29455	5.14
2.31122	5.13
2.32788	5.12
2.34455	5.11
2.36122	5.10
2.37788	5.09
2.39455	5.09
2.41122	5.09
2.42788	5.09
2.44455	5.09
2.46122	5.09
2.47788	5.09
2.49455	5.09
2.51122	5.09
2.52788	5.09
2.54455	5.09
2.56122	5.09
2.57788	5.09
2.59455	5.09
2.61122	5.09
2.62788	5.09
2.64455	5.09
2.66122	5.09
2.67788	5.09
2.69455	5.09
2.71122	5.09
2.72788	5.09
2.74455	5.09
2.76122	5.09
2.77788	5.09
2.79455	5.09
2.81122	5.09
2.82788	5.09
2.84455	5.09
2.86122	5.09
2.87788	5.09
2.89455	5.09
2.91122	5.09
2.92788	5.09
2.94455	5.09
2.96122	5.09
2.97788	5.09
2.99455	5.09
3.01122	5.08
3.02788	5.08
3.04455	5.08
3.06122	5.08
3.07788	5.08
3.09455	5.08
3.11122	5.08
3.12788	5.08
3.14455	5.08
3.16122	5.08
3.17788	5.08
3.19455	5.08
3.21122	5.08
3.22788	5.09
3.24455	5.09
3.26122	5.09
3.27788	5.09
3.29455	5.08
3.31122	5.08
3.32788	5.08
3.34455	5.08
3.36122	5.08
3.37788	5.08
3.39455	5.09
3.41122	5.08
3.42788	5.08
3.44455	5.08
3.46122	5.08
3.47788	5.08
3.49455	5.08
3.51122	5.08
3.52788	5.08
3.54455	5.08
3.56122	5.08
3.57788	5.08
3.59455	5.08
3.61122	5.08
3.62788	5.08
3.64455	5.08
3.66122	5.08
3.67788	5.08
3.69455	5.08
3.71122	5.08
3.72788	5.08
3.74455	5.08
3.76122	5.08
3.77788	5.08
3.79455	5.08
3.81122	5.08
3.82788	5.08
3.84455	5.08
3.86122	5.08
3.87788	5.08
3.89455	5.08
3.91122	5.08
3.92788	5.08
3.94455	5.08
3.96122	5.08
3.97788	5.08
3.99455	5.08

[Status Trace (Linear Velocity)]
Interval(msec)	1000
# of Points	240
Start Time(min)	0.011
End Time(min)	3.995
Intensity Units	
Intensity Multiplier	1
R.Time (min)	Intensity
0.01122	39.02
0.02788	37.04
0.04455	38.70
0.06122	39.98
0.07788	39.79
0.09455	39.02
0.11122	39.00
0.12788	39.02
0.14455	39.02
0.16122	39.02
0.17788	39.02
0.19455	39.01
0.21122	39.01
0.22788	39.01
0.24455	39.02
0.26122	39.02
0.27788	39.02
0.29455	39.02
0.31122	39.02
0.32788	39.02
0.34455	39.02
0.36122	39.02
0.37788	39.02
0.39455	39.02
0.41122	39.02
0.42788	39.02
0.44455	39.02
0.46122	39.02
0.47788	39.02
0.49455	39.02
0.51122	39.02
0.52788	39.02
0.54455	39.02
0.56122	39.02
0.57788	39.02
0.59455	39.02
0.61122	39.02
0.62788	39.02
0.64455	39.02
0.66122	39.02
0.67788	39.02
0.69455	39.02
0.71122	39.02
0.72788	39.02
0.74455	39.02
0.76122	39.01
0.77788	39.01
0.79455	39.01
0.81122	39.02
0.82788	39.02
0.84455	39.02
0.86122	39.02
0.87788	39.02
0.89455	39.02
0.91122	39.01
0.92788	39.01
0.94455	39.01
0.96122	39.01
0.97788	39.01
0.99455	39.01
1.01122	39.02
1.02788	39.02
1.04455	39.02
1.06122	39.02
1.07788	39.02
1.09455	39.02
1.11122	39.02
1.12788	39.02
1.14455	39.02
1.16122	39.02
1.17788	39.02
1.19455	39.02
1.21122	39.02
1.22788	39.02
1.24455	39.02
1.26122	39.02
1.27788	39.02
1.29455	39.02
1.31122	39.02
1.32788	39.02
1.34455	39.02
1.36122	39.02
1.37788	39.02
1.39455	39.02
1.41122	39.02
1.42788	39.02
1.44455	39.02
1.46122	39.02
1.47788	39.02
1.49455	39.02
1.51122	39.02
1.52788	39.02
1.54455	39.02
1.56122	39.02
1.57788	39.02
1.59455	39.02
1.61122	39.02
1.62788	39.00
1.64455	38.98
1.66122	38.96
1.67788	38.92
1.69455	38.88
1.71122	38.85
1.72788	38.82
1.74455	38.79
1.76122	38.76
1.77788	38.73
1.79455	38.69
1.81122	38.66
1.82788	38.64
1.84455	38.60
1.86122	38.57
1.87788	38.54
1.89455	38.51
1.91122	38.48
1.92788	38.45
1.94455	38.42
1.96122	38.39
1.97788	38.36
1.99455	38.33
2.01122	38.30
2.02788	38.27
2.04455	38.24
2.06122	38.21
2.07788	38.18
2.09455	38.15
2.11122	38.12
2.12788	38.09
2.14455	38.06
2.16122	38.03
2.17788	38.00
2.19455	37.97
2.21122	37.94
2.22788	37.91
2.24455	37.88
2.26122	37.85
2.27788	37.82
2.29455	37.79
2.31122	37.76
2.32788	37.73
2.34455	37.71
2.36122	37.68
2.37788	37.66
2.39455	37.65
2.41122	37.65
2.42788	37.65
2.44455	37.65
2.46122	37.65
2.47788	37.65
2.49455	37.65
2.51122	37.65
2.52788	37.64
2.54455	37.65
2.56122	37.65
2.57788	37.65
2.59455	37.65
2.61122	37.65
2.62788	37.65
2.64455	37.65
2.66122	37.65
2.67788	37.65
2.69455	37.65
2.71122	37.65
2.72788	37.65
2.74455	37.65
2.76122	37.65
2.77788	37.64
2.79455	37.64
2.81122	37.64
2.82788	37.64
2.84455	37.64
2.86122	37.64
2.87788	37.64
2.89455	37.64
2.91122	37.64
2.92788	37.64
2.94455	37.63
2.96122	37.63
2.97788	37.63
2.99455	37.63
3.01122	37.63
3.02788	37.63
3.04455	37.63
3.06122	37.63
3.07788	37.63
3.09455	37.63
3.11122	37.63
3.12788	37.63
3.14455	37.63
3.16122	37.63
3.17788	37.63
3.19455	37.63
3.21122	37.63
3.22788	37.63
3.24455	37.63
3.26122	37.63
3.27788	37.63
3.29455	37.63
3.31122	37.63
3.32788	37.63
3.34455	37.63
3.36122	37.63
3.37788	37.63
3.39455	37.63
3.41122	37.63
3.42788	37.63
3.44455	37.63
3.46122	37.63
3.47788	37.63
3.49455	37.63
3.51122	37.63
3.52788	37.63
3.54455	37.63
3.56122	37.63
3.57788	37.63
3.59455	37.63
3.61122	37.63
3.62788	37.63
3.64455	37.63
3.66122	37.63
3.67788	37.63
3.69455	37.63
3.71122	37.63
3.72788	37.63
3.74455	37.63
3.76122	37.63
3.77788	37.63
3.79455	37.63
3.81122	37.63
3.82788	37.63
3.84455	37.63
3.86122	37.63
3.87788	37.63
3.89455	37.63
3.91122	37.63
3.92788	37.63
3.94455	37.63
3.96122	37.63
3.97788	37.63
3.99455	37.63

