[Header]
Application Name	LabSolutions
Version	5.110
Data File Name	C:\Users\User\Desktop\GC Analyses\Jack\UIC Prairie Sampling\7.9.22\220909_079.gcd
Output Date	9/28/2022
Output Time	11:29:54 AM

[File Information]
Type	Data File
Generated	9/15/2022 2:01:15 PM
Generated by	System Administrator
Modified	9/15/2022 2:05:45 PM
Modified by	System Administrator

[Sample Information]
Operator Name	System Administrator
Acquired	9/15/2022 2:01:44 PM
Sample Type	1:Standard
Level	1
Sample Name	220909_Run
Sample ID	220909_Run
ISTD Amount1	1
ISTD Amount2	1
ISTD Amount3	1
ISTD Amount4	1
ISTD Amount5	1
ISTD Amount6	1
ISTD Amount7	1
ISTD Amount8	1
ISTD Amount9	1
ISTD Amount10	1
ISTD Amount11	1
ISTD Amount12	1
ISTD Amount13	1
ISTD Amount14	1
ISTD Amount15	1
ISTD Amount16	1
ISTD Amount17	1
ISTD Amount18	1
ISTD Amount19	1
ISTD Amount20	1
ISTD Amount21	1
ISTD Amount22	1
ISTD Amount23	1
ISTD Amount24	1
ISTD Amount25	1
ISTD Amount26	1
ISTD Amount27	1
ISTD Amount28	1
ISTD Amount29	1
ISTD Amount30	1
ISTD Amount31	1
ISTD Amount32	1
Sample Amount	1
Dilution Factor	1
Vial#	1
Injection Volume	1
Injection Count	1
Bar Code	

[Original Files]
Data File	C:\Users\User\Desktop\GC Analyses\Jack\220909\220909_079.gcd
Method File	C:\LabSolutions\Data\GHG_4min_2022\ghg3_togas_w_acet_4 min_new_int.gcm
Batch File	
Report Format File	c:\LabSolutions\System\DEFAULT.lsr

[File Description]


[Configuration]
Instrument Name	C0B7VH3-Instrument1
Instrument #	1
Line #	1
# of Detectors	3
Detector ID	DET#1	DET#2	DET#3
Detector Name	FID	PTCD	ECD
# of Channels	1	1	1

[Peak Table(Ch1)]
# of Peaks	3
Peak#	R.Time	I.Time	F.Time	Area	Height	A/H	Conc.	Mark	ID#	Name	k'	Plate #	Plate Ht.	Tailing	Resolution	Sep.Factor	Area Ratio	Height Ratio	Conc. %	Norm Conc.
1	1.472	1.439	1.538	6852	2864	2.393	100.000	   	1	CO	0.000	7292	20.570	1.400	0.000	0.000	0	0	16.667	16.667
2	1.571	1.538	1.641	16925	9365	1.807	100.000	 V 	2	CH4	0.067	13054	11.491	1.226	1.597	0.000	0	0	16.667	16.667
3	2.000	1.952	2.315	1810609	928277	1.951	400.000	   	3	CO2	0.359	19629	7.642	1.168	7.654	5.333	0	0	66.667	66.667

[Peak Table(Ch2)]
# of Peaks	0

[Peak Table(Ch3)]
# of Peaks	3
Peak#	R.Time	I.Time	F.Time	Area	Height	A/H	Conc.	Mark	ID#	Name	k'	Plate #	Plate Ht.	Tailing	Resolution	Sep.Factor	Area Ratio	Height Ratio	Conc. %	Norm Conc.
1	2.458	1.373	2.649	14226	422	33.748	0.000	   			0.000	156	964.357	0.595	0.000	0.000	0	0	0.000	0.000
2	2.884	2.667	3.137	50950	12763	3.992	1.000	   	1	N2O	0.173	13138	11.417	1.597	0.957	0.000	0	0	50.000	50.000
3	3.313	3.137	3.995	20077	710	28.268	1.000	   	2	SF6	0.348	288	521.029	2.378	0.973	2.009	0	0	50.000	50.000

[Compound Results(Ch1)]
# of IDs	6
ID#	Name	R.Time	Area	Height	Conc.	Curve	3rd	2nd	1st	Constant	Area Ratio	Height Ratio	Conc. %	Norm Conc.
1	CO	1.472	6852	2864	100.000	Linear	0.000000e+00	0.000000e+00	6.851751e+001	0.000000e+00	0	0	16.667	16.667
2	CH4	1.571	16925	9365	100.000	Linear	0.000000e+00	0.000000e+00	1.692480e+002	0.000000e+00	0	0	16.667	16.667
3	CO2	2.000	1810609	928277	400.000	Linear	0.000000e+00	0.000000e+00	4.526523e+003	0.000000e+00	0	0	66.667	66.667
4	Ethylene	0.000	0	0	0.000	Linear	0.000000e+00	0.000000e+00	0.000000e+00	0.000000e+00	0	0	0.000	0.000
5	Acetylene	0.000	0	0	0.000	Linear	0.000000e+00	0.000000e+00	0.000000e+00	0.000000e+00	0	0	0.000	0.000
6	Ethane	0.000	0	0	0.000	Linear	0.000000e+00	0.000000e+00	0.000000e+00	0.000000e+00	0	0	0.000	0.000

[Compound Results(Ch2)]
# of IDs	5
ID#	Name	R.Time	Area	Height	Conc.	Curve	3rd	2nd	1st	Constant	Area Ratio	Height Ratio	Conc. %	Norm Conc.
1	Hydrogen	0.000	0	0	0.000	Linear	0.000000e+00	0.000000e+00	0.000000e+00	0.000000e+00	0	0	0.000	0.000
2	Oxygen	0.000	0	0	0.000	Linear	0.000000e+00	0.000000e+00	0.000000e+00	0.000000e+00	0	0	0.000	0.000
3	Nitrogen	0.000	0	0	0.000	Linear	0.000000e+00	0.000000e+00	0.000000e+00	0.000000e+00	0	0	0.000	0.000
4	Methane	0.000	0	0	0.000	Linear	0.000000e+00	0.000000e+00	0.000000e+00	0.000000e+00	0	0	0.000	0.000
5	Carbon Monoxide	0.000	0	0	0.000	Linear	0.000000e+00	0.000000e+00	0.000000e+00	0.000000e+00	0	0	0.000	0.000

[Compound Results(Ch3)]
# of IDs	2
ID#	Name	R.Time	Area	Height	Conc.	Curve	3rd	2nd	1st	Constant	Area Ratio	Height Ratio	Conc. %	Norm Conc.
1	N2O	2.884	50950	12763	1.000	Linear	0.000000e+00	0.000000e+00	5.094976e+004	0.000000e+00	0	0	50.000	50.000
2	SF6	3.313	20077	710	1.000	Linear	0.000000e+00	0.000000e+00	2.007656e+004	0.000000e+00	0	0	50.000	50.000

[Group Results(Ch1)]
# of Groups	0

[Group Results(Ch2)]
# of Groups	0

[Group Results(Ch3)]
# of Groups	0

[Chromatogram (Ch1)]
Interval(msec)	220
# of Points	1091
Start Time(min)	0.002
End Time(min)	3.998
R.Time (min)	Intensity
0.00167	-32
0.00533	-32
0.00900	-29
0.01267	-25
0.01633	-21
0.02000	-17
0.02367	-15
0.02733	-12
0.03100	-12
0.03467	-12
0.03833	-9
0.04200	-4
0.04567	-1
0.04933	-2
0.05300	-5
0.05667	-12
0.06033	-18
0.06400	-22
0.06767	-23
0.07133	-22
0.07500	-20
0.07867	-19
0.08233	-18
0.08600	-16
0.08967	-16
0.09333	-16
0.09700	-15
0.10067	-14
0.10433	-15
0.10800	-17
0.11167	-20
0.11533	-24
0.11900	-29
0.12267	-35
0.12633	-39
0.13000	-43
0.13367	-49
0.13733	-53
0.14100	-53
0.14467	-51
0.14833	-48
0.15200	-46
0.15567	-43
0.15933	-41
0.16300	-38
0.16667	-31
0.17033	-24
0.17400	-20
0.17767	-21
0.18133	-20
0.18500	-15
0.18867	-9
0.19233	-7
0.19600	-14
0.19967	-23
0.20333	-29
0.20700	-31
0.21067	-30
0.21433	-30
0.21800	-27
0.22167	-24
0.22533	-19
0.22900	-15
0.23267	-14
0.23633	-16
0.24000	-20
0.24367	-29
0.24733	-39
0.25100	-49
0.25467	-56
0.25833	-58
0.26200	-57
0.26567	-54
0.26933	-50
0.27300	-46
0.27667	-42
0.28033	-41
0.28400	-41
0.28767	-39
0.29133	-40
0.29500	-42
0.29867	-42
0.30233	-40
0.30600	-37
0.30967	-32
0.31333	-25
0.31700	-20
0.32067	-16
0.32433	-12
0.32800	-6
0.33167	-0
0.33533	0
0.33900	-2
0.34267	-9
0.34633	-20
0.35000	-30
0.35367	-37
0.35733	-38
0.36100	-40
0.36467	-43
0.36833	-43
0.37200	-42
0.37567	-41
0.37933	-41
0.38300	-42
0.38667	-41
0.39033	-39
0.39400	-36
0.39767	-35
0.40133	-37
0.40500	-40
0.40867	-42
0.41233	-42
0.41600	-39
0.41967	-36
0.42333	-35
0.42700	-35
0.43067	-34
0.43433	-34
0.43800	-35
0.44167	-33
0.44533	-29
0.44900	-25
0.45267	-19
0.45633	-16
0.46000	-21
0.46367	-25
0.46733	-27
0.47100	-27
0.47467	-31
0.47833	-36
0.48200	-39
0.48567	-41
0.48933	-46
0.49300	-49
0.49667	-50
0.50033	-47
0.50400	-42
0.50767	-38
0.51133	-36
0.51500	-33
0.51867	-28
0.52233	-20
0.52600	-13
0.52967	-12
0.53333	-15
0.53700	-21
0.54067	-30
0.54433	-42
0.54800	-54
0.55167	-65
0.55533	-68
0.55900	-67
0.56267	-62
0.56633	-55
0.57000	-51
0.57367	-54
0.57733	-57
0.58100	-60
0.58467	-62
0.58833	-60
0.59200	-53
0.59567	-47
0.59933	-46
0.60300	-47
0.60667	-48
0.61033	-48
0.61400	-49
0.61767	-53
0.62133	-57
0.62500	-59
0.62867	-60
0.63233	-56
0.63600	-51
0.63967	-50
0.64333	-51
0.64700	-52
0.65067	-50
0.65433	-45
0.65800	-40
0.66167	-41
0.66533	-45
0.66900	-49
0.67267	-53
0.67633	-55
0.68000	-53
0.68367	-49
0.68733	-45
0.69100	-44
0.69467	-43
0.69833	-43
0.70200	-42
0.70567	-42
0.70933	-44
0.71300	-46
0.71667	-50
0.72033	-58
0.72400	-67
0.72767	-73
0.73133	-75
0.73500	-78
0.73867	-81
0.74233	-84
0.74600	-86
0.74967	-83
0.75333	-77
0.75700	-71
0.76067	-67
0.76433	-63
0.76800	-59
0.77167	-58
0.77533	-60
0.77900	-64
0.78267	-68
0.78633	-69
0.79000	-68
0.79367	-64
0.79733	-61
0.80100	-61
0.80467	-62
0.80833	-61
0.81200	-59
0.81567	-58
0.81933	-58
0.82300	-59
0.82667	-60
0.83033	-60
0.83400	-62
0.83767	-64
0.84133	-63
0.84500	-58
0.84867	-52
0.85233	-49
0.85600	-49
0.85967	-52
0.86333	-57
0.86700	-60
0.87067	-61
0.87433	-63
0.87800	-64
0.88167	-64
0.88533	-63
0.88900	-65
0.89267	-67
0.89633	-67
0.90000	-61
0.90367	-55
0.90733	-53
0.91100	-55
0.91467	-60
0.91833	-60
0.92200	-56
0.92567	-50
0.92933	-44
0.93300	-44
0.93667	-47
0.94033	-51
0.94400	-57
0.94767	-63
0.95133	-64
0.95500	-58
0.95867	-50
0.96233	-45
0.96600	-45
0.96967	-47
0.97333	-50
0.97700	-52
0.98067	-51
0.98433	-52
0.98800	-54
0.99167	-56
0.99533	-58
0.99900	-62
1.00267	-62
1.00633	-59
1.01000	-57
1.01367	-56
1.01733	-54
1.02100	-53
1.02467	-49
1.02833	-44
1.03200	-38
1.03567	-35
1.03933	-34
1.04300	-34
1.04667	-35
1.05033	-35
1.05400	-36
1.05767	-37
1.06133	-38
1.06500	-40
1.06867	-43
1.07233	-46
1.07600	-49
1.07967	-46
1.08333	-40
1.08700	-36
1.09067	-34
1.09433	-34
1.09800	-33
1.10167	-32
1.10533	-34
1.10900	-37
1.11267	-39
1.11633	-43
1.12000	-44
1.12367	-43
1.12733	-41
1.13100	-38
1.13467	-37
1.13833	-42
1.14200	-47
1.14567	-50
1.14933	-48
1.15300	-43
1.15667	-43
1.16033	-45
1.16400	-46
1.16767	-45
1.17133	-44
1.17500	-45
1.17867	-46
1.18233	-46
1.18600	-41
1.18967	-37
1.19333	-34
1.19700	-35
1.20067	-37
1.20433	-42
1.20800	-50
1.21167	-58
1.21533	-62
1.21900	-64
1.22267	-61
1.22633	-57
1.23000	-53
1.23367	-51
1.23733	-51
1.24100	-55
1.24467	-58
1.24833	-55
1.25200	-47
1.25567	-42
1.25933	-40
1.26300	-42
1.26667	-45
1.27033	-49
1.27400	-52
1.27767	-51
1.28133	-50
1.28500	-47
1.28867	-45
1.29233	-43
1.29600	-40
1.29967	-33
1.30333	-27
1.30700	-27
1.31067	-35
1.31433	-48
1.31800	-61
1.32167	-68
1.32533	-75
1.32900	-82
1.33267	-86
1.33633	-86
1.34000	-83
1.34367	-77
1.34733	-72
1.35100	-68
1.35467	-66
1.35833	-68
1.36200	-68
1.36567	-69
1.36933	-70
1.37300	-65
1.37667	-53
1.38033	-43
1.38400	-43
1.38767	-52
1.39133	-62
1.39500	-71
1.39867	-76
1.40233	-77
1.40600	-78
1.40967	-78
1.41333	-75
1.41700	-72
1.42067	-70
1.42433	-69
1.42800	-67
1.43167	-67
1.43533	-70
1.43900	-68
1.44267	-22
1.44633	178
1.45000	623
1.45367	1216
1.45733	1798
1.46100	2267
1.46467	2588
1.46833	2759
1.47200	2784
1.47567	2678
1.47933	2468
1.48300	2185
1.48667	1861
1.49033	1525
1.49400	1208
1.49767	930
1.50133	696
1.50500	505
1.50867	352
1.51233	233
1.51600	143
1.51967	75
1.52333	22
1.52700	-19
1.53067	-54
1.53433	-81
1.53800	-91
1.54167	-46
1.54533	193
1.54900	882
1.55267	2204
1.55633	4037
1.56000	6007
1.56367	7723
1.56733	8884
1.57100	9252
1.57467	8739
1.57833	7517
1.58200	5955
1.58567	4413
1.58933	3104
1.59300	2095
1.59667	1366
1.60033	862
1.60400	525
1.60767	300
1.61133	148
1.61500	46
1.61867	-21
1.62233	-62
1.62600	-87
1.62967	-105
1.63333	-120
1.63700	-131
1.64067	-138
1.64433	-142
1.64800	-144
1.65167	-141
1.65533	-135
1.65900	-130
1.66267	-125
1.66633	-121
1.67000	-116
1.67367	-111
1.67733	-109
1.68100	-114
1.68467	-122
1.68833	-130
1.69200	-136
1.69567	-139
1.69933	-144
1.70300	-149
1.70667	-152
1.71033	-151
1.71400	-145
1.71767	-137
1.72133	-129
1.72500	-126
1.72867	-126
1.73233	-125
1.73600	-122
1.73967	-118
1.74333	-119
1.74700	-122
1.75067	-123
1.75433	-121
1.75800	-118
1.76167	-118
1.76533	-121
1.76900	-122
1.77267	-119
1.77633	-113
1.78000	-106
1.78367	-103
1.78733	-103
1.79100	-103
1.79467	-102
1.79833	-104
1.80200	-109
1.80567	-117
1.80933	-126
1.81300	-130
1.81667	-131
1.82033	-128
1.82400	-127
1.82767	-128
1.83133	-128
1.83500	-128
1.83867	-132
1.84233	-136
1.84600	-139
1.84967	-141
1.85333	-143
1.85700	-142
1.86067	-139
1.86433	-138
1.86800	-137
1.87167	-133
1.87533	-125
1.87900	-117
1.88267	-114
1.88633	-113
1.89000	-110
1.89367	-111
1.89733	-117
1.90100	-123
1.90467	-125
1.90833	-124
1.91200	-125
1.91567	-127
1.91933	-126
1.92300	-120
1.92667	-115
1.93033	-113
1.93400	-115
1.93767	-118
1.94133	-121
1.94500	-125
1.94867	-127
1.95233	-121
1.95600	-79
1.95967	179
1.96333	1556
1.96700	7409
1.97067	26522
1.97433	74930
1.97800	170589
1.98167	319566
1.98533	505233
1.98900	692093
1.99267	841423
1.99633	924125
2.00000	928181
2.00367	859661
2.00733	739427
2.01100	595400
2.01467	453151
2.01833	329562
2.02200	231598
2.02567	158913
2.02933	107462
2.03300	72207
2.03667	48563
2.04033	32905
2.04400	22599
2.04767	15815
2.05133	11324
2.05500	8318
2.05867	6275
2.06233	4860
2.06600	3861
2.06967	3140
2.07333	2605
2.07700	2200
2.08067	1889
2.08433	1645
2.08800	1449
2.09167	1287
2.09533	1152
2.09900	1041
2.10267	949
2.10633	872
2.11000	807
2.11367	751
2.11733	702
2.12100	659
2.12467	618
2.12833	582
2.13200	549
2.13567	515
2.13933	481
2.14300	452
2.14667	428
2.15033	408
2.15400	391
2.15767	377
2.16133	365
2.16500	351
2.16867	335
2.17233	315
2.17600	296
2.17967	278
2.18333	266
2.18700	257
2.19067	247
2.19433	239
2.19800	234
2.20167	228
2.20533	220
2.20900	210
2.21267	201
2.21633	193
2.22000	186
2.22367	180
2.22733	173
2.23100	169
2.23467	168
2.23833	167
2.24200	163
2.24567	157
2.24933	152
2.25300	150
2.25667	150
2.26033	147
2.26400	143
2.26767	136
2.27133	131
2.27500	129
2.27867	125
2.28233	115
2.28600	105
2.28967	99
2.29333	99
2.29700	99
2.30067	96
2.30433	92
2.30800	83
2.31167	73
2.31533	65
2.31900	59
2.32267	54
2.32633	46
2.33000	41
2.33367	40
2.33733	45
2.34100	53
2.34467	59
2.34833	61
2.35200	63
2.35567	66
2.35933	68
2.36300	70
2.36667	73
2.37033	72
2.37400	67
2.37767	59
2.38133	48
2.38500	37
2.38867	28
2.39233	19
2.39600	17
2.39967	19
2.40333	23
2.40700	28
2.41067	33
2.41433	39
2.41800	44
2.42167	51
2.42533	53
2.42900	51
2.43267	47
2.43633	44
2.44000	42
2.44367	39
2.44733	36
2.45100	33
2.45467	27
2.45833	21
2.46200	20
2.46567	20
2.46933	20
2.47300	22
2.47667	22
2.48033	23
2.48400	21
2.48767	15
2.49133	12
2.49500	13
2.49867	15
2.50233	17
2.50600	18
2.50967	16
2.51333	10
2.51700	-0
2.52067	-9
2.52433	-9
2.52800	-4
2.53167	-4
2.53533	-3
2.53900	-3
2.54267	-5
2.54633	-4
2.55000	2
2.55367	8
2.55733	11
2.56100	9
2.56467	1
2.56833	-12
2.57200	-24
2.57567	-33
2.57933	-33
2.58300	-29
2.58667	-24
2.59033	-23
2.59400	-23
2.59767	-20
2.60133	-20
2.60500	-24
2.60867	-32
2.61233	-41
2.61600	-46
2.61967	-48
2.62333	-49
2.62700	-54
2.63067	-60
2.63433	-65
2.63800	-67
2.64167	-66
2.64533	-62
2.64900	-54
2.65267	-45
2.65633	-37
2.66000	-28
2.66367	-21
2.66733	-19
2.67100	-19
2.67467	-22
2.67833	-26
2.68200	-29
2.68567	-33
2.68933	-38
2.69300	-42
2.69667	-45
2.70033	-43
2.70400	-35
2.70767	-28
2.71133	-23
2.71500	-22
2.71867	-29
2.72233	-40
2.72600	-47
2.72967	-49
2.73333	-52
2.73700	-53
2.74067	-49
2.74433	-45
2.74800	-46
2.75167	-50
2.75533	-53
2.75900	-56
2.76267	-58
2.76633	-56
2.77000	-54
2.77367	-54
2.77733	-59
2.78100	-63
2.78467	-65
2.78833	-63
2.79200	-59
2.79567	-54
2.79933	-50
2.80300	-47
2.80667	-47
2.81033	-47
2.81400	-47
2.81767	-47
2.82133	-52
2.82500	-59
2.82867	-64
2.83233	-66
2.83600	-65
2.83967	-61
2.84333	-54
2.84700	-46
2.85067	-41
2.85433	-37
2.85800	-38
2.86167	-42
2.86533	-50
2.86900	-57
2.87267	-61
2.87633	-61
2.88000	-60
2.88367	-58
2.88733	-59
2.89100	-62
2.89467	-65
2.89833	-70
2.90200	-76
2.90567	-80
2.90933	-81
2.91300	-80
2.91667	-79
2.92033	-79
2.92400	-74
2.92767	-64
2.93133	-55
2.93500	-49
2.93867	-50
2.94233	-54
2.94600	-60
2.94967	-65
2.95333	-71
2.95700	-75
2.96067	-75
2.96433	-74
2.96800	-75
2.97167	-75
2.97533	-75
2.97900	-77
2.98267	-77
2.98633	-75
2.99000	-73
2.99367	-69
2.99733	-66
3.00100	-63
3.00467	-62
3.00833	-64
3.01200	-63
3.01567	-61
3.01933	-59
3.02300	-60
3.02667	-61
3.03033	-63
3.03400	-65
3.03767	-68
3.04133	-70
3.04500	-70
3.04867	-68
3.05233	-67
3.05600	-68
3.05967	-70
3.06333	-72
3.06700	-74
3.07067	-73
3.07433	-73
3.07800	-73
3.08167	-74
3.08533	-77
3.08900	-79
3.09267	-77
3.09633	-72
3.10000	-68
3.10367	-64
3.10733	-65
3.11100	-70
3.11467	-78
3.11833	-82
3.12200	-84
3.12567	-86
3.12933	-84
3.13300	-81
3.13667	-79
3.14033	-78
3.14400	-79
3.14767	-80
3.15133	-81
3.15500	-81
3.15867	-80
3.16233	-80
3.16600	-81
3.16967	-83
3.17333	-84
3.17700	-83
3.18067	-79
3.18433	-73
3.18800	-68
3.19167	-63
3.19533	-60
3.19900	-60
3.20267	-61
3.20633	-60
3.21000	-62
3.21367	-64
3.21733	-65
3.22100	-64
3.22467	-64
3.22833	-68
3.23200	-72
3.23567	-72
3.23933	-68
3.24300	-64
3.24667	-62
3.25033	-63
3.25400	-67
3.25767	-70
3.26133	-71
3.26500	-71
3.26867	-72
3.27233	-73
3.27600	-73
3.27967	-73
3.28333	-71
3.28700	-66
3.29067	-63
3.29433	-62
3.29800	-63
3.30167	-62
3.30533	-58
3.30900	-53
3.31267	-48
3.31633	-47
3.32000	-51
3.32367	-55
3.32733	-60
3.33100	-68
3.33467	-76
3.33833	-84
3.34200	-90
3.34567	-94
3.34933	-95
3.35300	-91
3.35667	-83
3.36033	-73
3.36400	-70
3.36767	-76
3.37133	-85
3.37500	-89
3.37867	-87
3.38233	-83
3.38600	-83
3.38967	-82
3.39333	-77
3.39700	-71
3.40067	-68
3.40433	-70
3.40800	-75
3.41167	-83
3.41533	-88
3.41900	-87
3.42267	-80
3.42633	-72
3.43000	-68
3.43367	-68
3.43733	-69
3.44100	-73
3.44467	-78
3.44833	-82
3.45200	-80
3.45567	-74
3.45933	-66
3.46300	-60
3.46667	-56
3.47033	-56
3.47400	-60
3.47767	-67
3.48133	-75
3.48500	-83
3.48867	-89
3.49233	-92
3.49600	-91
3.49967	-88
3.50333	-85
3.50700	-83
3.51067	-82
3.51433	-82
3.51800	-80
3.52167	-73
3.52533	-69
3.52900	-65
3.53267	-66
3.53633	-70
3.54000	-74
3.54367	-79
3.54733	-85
3.55100	-87
3.55467	-86
3.55833	-79
3.56200	-74
3.56567	-71
3.56933	-71
3.57300	-74
3.57667	-74
3.58033	-74
3.58400	-77
3.58767	-82
3.59133	-88
3.59500	-91
3.59867	-94
3.60233	-96
3.60600	-96
3.60967	-96
3.61333	-93
3.61700	-88
3.62067	-83
3.62433	-81
3.62800	-81
3.63167	-83
3.63533	-86
3.63900	-87
3.64267	-86
3.64633	-84
3.65000	-81
3.65367	-80
3.65733	-81
3.66100	-82
3.66467	-84
3.66833	-85
3.67200	-81
3.67567	-77
3.67933	-75
3.68300	-76
3.68667	-80
3.69033	-83
3.69400	-84
3.69767	-79
3.70133	-72
3.70500	-71
3.70867	-78
3.71233	-87
3.71600	-93
3.71967	-94
3.72333	-90
3.72700	-86
3.73067	-87
3.73433	-90
3.73800	-91
3.74167	-89
3.74533	-85
3.74900	-79
3.75267	-69
3.75633	-60
3.76000	-56
3.76367	-57
3.76733	-60
3.77100	-62
3.77467	-64
3.77833	-71
3.78200	-76
3.78567	-78
3.78933	-75
3.79300	-72
3.79667	-74
3.80033	-82
3.80400	-91
3.80767	-94
3.81133	-94
3.81500	-92
3.81867	-91
3.82233	-88
3.82600	-87
3.82967	-87
3.83333	-87
3.83700	-86
3.84067	-82
3.84433	-74
3.84800	-66
3.85167	-60
3.85533	-60
3.85900	-56
3.86267	-52
3.86633	-52
3.87000	-57
3.87367	-64
3.87733	-68
3.88100	-67
3.88467	-64
3.88833	-60
3.89200	-57
3.89567	-58
3.89933	-62
3.90300	-67
3.90667	-72
3.91033	-72
3.91400	-68
3.91767	-66
3.92133	-70
3.92500	-75
3.92867	-75
3.93233	-74
3.93600	-74
3.93967	-72
3.94333	-67
3.94700	-64
3.95067	-64
3.95433	-68
3.95800	-71
3.96167	-70
3.96533	-65
3.96900	-58
3.97267	-51
3.97633	-43
3.98000	-37
3.98367	-40
3.98733	-50
3.99100	-61
3.99467	-70
3.99833	-75

[Chromatogram (Ch2)]
Interval(msec)	220
# of Points	1091
Start Time(min)	0.002
End Time(min)	3.998
R.Time (min)	Intensity
0.00167	-1
0.00533	-1
0.00900	-1
0.01267	-1
0.01633	-1
0.02000	-1
0.02367	-1
0.02733	-0
0.03100	0
0.03467	1
0.03833	1
0.04200	2
0.04567	3
0.04933	3
0.05300	3
0.05667	3
0.06033	4
0.06400	4
0.06767	4
0.07133	4
0.07500	4
0.07867	4
0.08233	4
0.08600	4
0.08967	5
0.09333	5
0.09700	5
0.10067	4
0.10433	4
0.10800	4
0.11167	4
0.11533	4
0.11900	4
0.12267	3
0.12633	3
0.13000	3
0.13367	3
0.13733	2
0.14100	2
0.14467	1
0.14833	1
0.15200	1
0.15567	1
0.15933	1
0.16300	1
0.16667	1
0.17033	2
0.17400	2
0.17767	2
0.18133	2
0.18500	2
0.18867	2
0.19233	2
0.19600	1
0.19967	1
0.20333	1
0.20700	1
0.21067	1
0.21433	2
0.21800	2
0.22167	2
0.22533	2
0.22900	2
0.23267	2
0.23633	2
0.24000	2
0.24367	2
0.24733	2
0.25100	2
0.25467	1
0.25833	1
0.26200	1
0.26567	0
0.26933	0
0.27300	-0
0.27667	-0
0.28033	-0
0.28400	-0
0.28767	-0
0.29133	-0
0.29500	-0
0.29867	-0
0.30233	-0
0.30600	-0
0.30967	-0
0.31333	-0
0.31700	-0
0.32067	-0
0.32433	-0
0.32800	-0
0.33167	-0
0.33533	-1
0.33900	-1
0.34267	-1
0.34633	-2
0.35000	-2
0.35367	-2
0.35733	-2
0.36100	-3
0.36467	-3
0.36833	-3
0.37200	-3
0.37567	-3
0.37933	-3
0.38300	-3
0.38667	-2
0.39033	-2
0.39400	-1
0.39767	-0
0.40133	0
0.40500	0
0.40867	1
0.41233	1
0.41600	1
0.41967	1
0.42333	1
0.42700	1
0.43067	1
0.43433	1
0.43800	1
0.44167	1
0.44533	1
0.44900	1
0.45267	1
0.45633	1
0.46000	1
0.46367	1
0.46733	1
0.47100	1
0.47467	1
0.47833	1
0.48200	1
0.48567	1
0.48933	1
0.49300	2
0.49667	2
0.50033	2
0.50400	2
0.50767	2
0.51133	2
0.51500	2
0.51867	2
0.52233	2
0.52600	2
0.52967	2
0.53333	2
0.53700	2
0.54067	2
0.54433	2
0.54800	2
0.55167	2
0.55533	2
0.55900	2
0.56267	2
0.56633	2
0.57000	2
0.57367	2
0.57733	2
0.58100	1
0.58467	1
0.58833	1
0.59200	1
0.59567	0
0.59933	1
0.60300	1
0.60667	1
0.61033	1
0.61400	0
0.61767	0
0.62133	0
0.62500	0
0.62867	0
0.63233	0
0.63600	0
0.63967	0
0.64333	0
0.64700	1
0.65067	1
0.65433	1
0.65800	1
0.66167	1
0.66533	2
0.66900	2
0.67267	2
0.67633	2
0.68000	2
0.68367	2
0.68733	1
0.69100	1
0.69467	1
0.69833	1
0.70200	1
0.70567	1
0.70933	0
0.71300	0
0.71667	-0
0.72033	-0
0.72400	-0
0.72767	0
0.73133	-0
0.73500	-0
0.73867	-0
0.74233	-0
0.74600	0
0.74967	0
0.75333	0
0.75700	0
0.76067	0
0.76433	-0
0.76800	-0
0.77167	-1
0.77533	-1
0.77900	-1
0.78267	-2
0.78633	-2
0.79000	-2
0.79367	-3
0.79733	-3
0.80100	-3
0.80467	-3
0.80833	-3
0.81200	-3
0.81567	-3
0.81933	-3
0.82300	-3
0.82667	-3
0.83033	-3
0.83400	-3
0.83767	-3
0.84133	-3
0.84500	-3
0.84867	-3
0.85233	-3
0.85600	-3
0.85967	-3
0.86333	-2
0.86700	-2
0.87067	-2
0.87433	-2
0.87800	-2
0.88167	-2
0.88533	-2
0.88900	-2
0.89267	-2
0.89633	-2
0.90000	-2
0.90367	-2
0.90733	-2
0.91100	-2
0.91467	-2
0.91833	-2
0.92200	-2
0.92567	-2
0.92933	-2
0.93300	-2
0.93667	-2
0.94033	-2
0.94400	-2
0.94767	-2
0.95133	-2
0.95500	-1
0.95867	-1
0.96233	-1
0.96600	-1
0.96967	-1
0.97333	-1
0.97700	-1
0.98067	-1
0.98433	-1
0.98800	-1
0.99167	-1
0.99533	-1
0.99900	-2
1.00267	-2
1.00633	-2
1.01000	-3
1.01367	-3
1.01733	-3
1.02100	-3
1.02467	-2
1.02833	-2
1.03200	-2
1.03567	-1
1.03933	-1
1.04300	-1
1.04667	-0
1.05033	0
1.05400	0
1.05767	1
1.06133	1
1.06500	1
1.06867	2
1.07233	2
1.07600	2
1.07967	2
1.08333	2
1.08700	2
1.09067	3
1.09433	3
1.09800	3
1.10167	2
1.10533	2
1.10900	2
1.11267	2
1.11633	2
1.12000	2
1.12367	1
1.12733	1
1.13100	1
1.13467	0
1.13833	0
1.14200	-0
1.14567	-0
1.14933	-1
1.15300	-1
1.15667	-1
1.16033	-1
1.16400	-1
1.16767	-1
1.17133	-1
1.17500	-1
1.17867	-1
1.18233	-1
1.18600	-1
1.18967	-1
1.19333	-2
1.19700	-1
1.20067	-1
1.20433	-1
1.20800	-1
1.21167	-1
1.21533	-1
1.21900	-0
1.22267	-0
1.22633	0
1.23000	0
1.23367	1
1.23733	1
1.24100	1
1.24467	1
1.24833	1
1.25200	1
1.25567	1
1.25933	1
1.26300	1
1.26667	1
1.27033	1
1.27400	1
1.27767	1
1.28133	1
1.28500	1
1.28867	1
1.29233	0
1.29600	-0
1.29967	-0
1.30333	-0
1.30700	-0
1.31067	-0
1.31433	-0
1.31800	0
1.32167	0
1.32533	0
1.32900	0
1.33267	0
1.33633	-0
1.34000	-1
1.34367	-1
1.34733	-2
1.35100	-2
1.35467	-2
1.35833	-3
1.36200	-3
1.36567	-3
1.36933	-3
1.37300	-3
1.37667	-3
1.38033	-4
1.38400	-4
1.38767	-4
1.39133	-4
1.39500	-4
1.39867	-4
1.40233	-4
1.40600	-4
1.40967	-4
1.41333	-4
1.41700	-4
1.42067	-3
1.42433	-3
1.42800	-3
1.43167	-3
1.43533	-2
1.43900	-2
1.44267	-2
1.44633	-2
1.45000	-1
1.45367	-1
1.45733	-0
1.46100	-0
1.46467	0
1.46833	1
1.47200	1
1.47567	2
1.47933	2
1.48300	2
1.48667	1
1.49033	1
1.49400	1
1.49767	1
1.50133	1
1.50500	1
1.50867	1
1.51233	1
1.51600	1
1.51967	1
1.52333	1
1.52700	1
1.53067	1
1.53433	1
1.53800	1
1.54167	1
1.54533	1
1.54900	1
1.55267	0
1.55633	-0
1.56000	-1
1.56367	-1
1.56733	-2
1.57100	-2
1.57467	-3
1.57833	-3
1.58200	-3
1.58567	-3
1.58933	-3
1.59300	-3
1.59667	-4
1.60033	-4
1.60400	-5
1.60767	-7
1.61133	-8
1.61500	-10
1.61867	-13
1.62233	-15
1.62600	-18
1.62967	-21
1.63333	-24
1.63700	-27
1.64067	-30
1.64433	-34
1.64800	-38
1.65167	-42
1.65533	-45
1.65900	-49
1.66267	-52
1.66633	-56
1.67000	-60
1.67367	-64
1.67733	-69
1.68100	-74
1.68467	-79
1.68833	-84
1.69200	-88
1.69567	-92
1.69933	-96
1.70300	-99
1.70667	-102
1.71033	-104
1.71400	-106
1.71767	-107
1.72133	-109
1.72500	-110
1.72867	-111
1.73233	-111
1.73600	-112
1.73967	-112
1.74333	-113
1.74700	-114
1.75067	-115
1.75433	-115
1.75800	-116
1.76167	-117
1.76533	-117
1.76900	-118
1.77267	-119
1.77633	-120
1.78000	-120
1.78367	-121
1.78733	-122
1.79100	-122
1.79467	-122
1.79833	-122
1.80200	-121
1.80567	-121
1.80933	-120
1.81300	-120
1.81667	-120
1.82033	-120
1.82400	-121
1.82767	-121
1.83133	-122
1.83500	-122
1.83867	-122
1.84233	-122
1.84600	-122
1.84967	-122
1.85333	-122
1.85700	-122
1.86067	-122
1.86433	-121
1.86800	-121
1.87167	-121
1.87533	-121
1.87900	-122
1.88267	-122
1.88633	-122
1.89000	-122
1.89367	-122
1.89733	-122
1.90100	-122
1.90467	-122
1.90833	-123
1.91200	-122
1.91567	-122
1.91933	-122
1.92300	-121
1.92667	-121
1.93033	-121
1.93400	-120
1.93767	-120
1.94133	-120
1.94500	-119
1.94867	-119
1.95233	-119
1.95600	-119
1.95967	-118
1.96333	-118
1.96700	-117
1.97067	-117
1.97433	-117
1.97800	-116
1.98167	-116
1.98533	-116
1.98900	-116
1.99267	-116
1.99633	-116
2.00000	-115
2.00367	-115
2.00733	-115
2.01100	-114
2.01467	-114
2.01833	-113
2.02200	-112
2.02567	-111
2.02933	-111
2.03300	-111
2.03667	-111
2.04033	-111
2.04400	-111
2.04767	-111
2.05133	-110
2.05500	-110
2.05867	-110
2.06233	-109
2.06600	-109
2.06967	-108
2.07333	-108
2.07700	-108
2.08067	-107
2.08433	-107
2.08800	-107
2.09167	-107
2.09533	-107
2.09900	-108
2.10267	-108
2.10633	-108
2.11000	-108
2.11367	-107
2.11733	-106
2.12100	-106
2.12467	-105
2.12833	-105
2.13200	-105
2.13567	-105
2.13933	-105
2.14300	-105
2.14667	-105
2.15033	-104
2.15400	-103
2.15767	-102
2.16133	-102
2.16500	-102
2.16867	-102
2.17233	-102
2.17600	-102
2.17967	-102
2.18333	-102
2.18700	-102
2.19067	-101
2.19433	-100
2.19800	-99
2.20167	-98
2.20533	-97
2.20900	-97
2.21267	-96
2.21633	-96
2.22000	-96
2.22367	-96
2.22733	-96
2.23100	-96
2.23467	-96
2.23833	-96
2.24200	-97
2.24567	-97
2.24933	-97
2.25300	-97
2.25667	-96
2.26033	-96
2.26400	-95
2.26767	-94
2.27133	-94
2.27500	-93
2.27867	-93
2.28233	-92
2.28600	-92
2.28967	-92
2.29333	-91
2.29700	-90
2.30067	-90
2.30433	-90
2.30800	-90
2.31167	-91
2.31533	-91
2.31900	-90
2.32267	-90
2.32633	-89
2.33000	-89
2.33367	-88
2.33733	-88
2.34100	-87
2.34467	-86
2.34833	-86
2.35200	-85
2.35567	-84
2.35933	-84
2.36300	-84
2.36667	-83
2.37033	-82
2.37400	-81
2.37767	-79
2.38133	-76
2.38500	-72
2.38867	-68
2.39233	-64
2.39600	-59
2.39967	-54
2.40333	-50
2.40700	-45
2.41067	-40
2.41433	-36
2.41800	-32
2.42167	-29
2.42533	-25
2.42900	-22
2.43267	-20
2.43633	-17
2.44000	-15
2.44367	-12
2.44733	-10
2.45100	-8
2.45467	-6
2.45833	-4
2.46200	-3
2.46567	-2
2.46933	-1
2.47300	0
2.47667	1
2.48033	2
2.48400	4
2.48767	5
2.49133	6
2.49500	7
2.49867	8
2.50233	9
2.50600	10
2.50967	11
2.51333	12
2.51700	12
2.52067	12
2.52433	13
2.52800	13
2.53167	13
2.53533	14
2.53900	14
2.54267	14
2.54633	14
2.55000	14
2.55367	15
2.55733	16
2.56100	16
2.56467	17
2.56833	17
2.57200	17
2.57567	18
2.57933	18
2.58300	19
2.58667	19
2.59033	19
2.59400	20
2.59767	21
2.60133	21
2.60500	21
2.60867	22
2.61233	22
2.61600	22
2.61967	22
2.62333	22
2.62700	22
2.63067	22
2.63433	23
2.63800	23
2.64167	23
2.64533	22
2.64900	22
2.65267	22
2.65633	22
2.66000	22
2.66367	22
2.66733	22
2.67100	22
2.67467	22
2.67833	22
2.68200	23
2.68567	23
2.68933	23
2.69300	23
2.69667	23
2.70033	23
2.70400	23
2.70767	24
2.71133	24
2.71500	24
2.71867	25
2.72233	26
2.72600	26
2.72967	26
2.73333	26
2.73700	27
2.74067	27
2.74433	27
2.74800	27
2.75167	27
2.75533	27
2.75900	27
2.76267	27
2.76633	27
2.77000	26
2.77367	26
2.77733	25
2.78100	25
2.78467	24
2.78833	24
2.79200	24
2.79567	24
2.79933	24
2.80300	24
2.80667	25
2.81033	25
2.81400	25
2.81767	25
2.82133	25
2.82500	26
2.82867	26
2.83233	27
2.83600	27
2.83967	27
2.84333	27
2.84700	27
2.85067	25
2.85433	22
2.85800	17
2.86167	8
2.86533	-4
2.86900	-20
2.87267	-41
2.87633	-68
2.88000	-99
2.88367	-135
2.88733	-176
2.89100	-223
2.89467	-274
2.89833	-329
2.90200	-389
2.90567	-452
2.90933	-519
2.91300	-589
2.91667	-662
2.92033	-738
2.92400	-817
2.92767	-898
2.93133	-982
2.93500	-1067
2.93867	-1153
2.94233	-1230
2.94600	-1286
2.94967	-1314
2.95333	-1308
2.95700	-1273
2.96067	-1213
2.96433	-1135
2.96800	-1045
2.97167	-950
2.97533	-855
2.97900	-761
2.98267	-673
2.98633	-590
2.99000	-515
2.99367	-447
2.99733	-386
3.00100	-332
3.00467	-285
3.00833	-243
3.01200	-207
3.01567	-176
3.01933	-149
3.02300	-126
3.02667	-106
3.03033	-89
3.03400	-74
3.03767	-61
3.04133	-50
3.04500	-41
3.04867	-32
3.05233	-25
3.05600	-19
3.05967	-14
3.06333	-10
3.06700	-6
3.07067	-3
3.07433	-0
3.07800	2
3.08167	4
3.08533	6
3.08900	8
3.09267	9
3.09633	10
3.10000	11
3.10367	12
3.10733	12
3.11100	13
3.11467	14
3.11833	14
3.12200	15
3.12567	15
3.12933	16
3.13300	16
3.13667	16
3.14033	16
3.14400	17
3.14767	17
3.15133	17
3.15500	17
3.15867	18
3.16233	18
3.16600	18
3.16967	19
3.17333	19
3.17700	19
3.18067	20
3.18433	20
3.18800	20
3.19167	21
3.19533	21
3.19900	21
3.20267	21
3.20633	21
3.21000	22
3.21367	22
3.21733	22
3.22100	23
3.22467	23
3.22833	23
3.23200	24
3.23567	24
3.23933	25
3.24300	25
3.24667	26
3.25033	26
3.25400	26
3.25767	26
3.26133	26
3.26500	26
3.26867	26
3.27233	26
3.27600	26
3.27967	26
3.28333	26
3.28700	26
3.29067	27
3.29433	27
3.29800	27
3.30167	27
3.30533	27
3.30900	28
3.31267	28
3.31633	28
3.32000	28
3.32367	28
3.32733	28
3.33100	28
3.33467	28
3.33833	28
3.34200	28
3.34567	28
3.34933	28
3.35300	29
3.35667	29
3.36033	29
3.36400	29
3.36767	29
3.37133	29
3.37500	29
3.37867	29
3.38233	29
3.38600	29
3.38967	29
3.39333	29
3.39700	28
3.40067	28
3.40433	28
3.40800	28
3.41167	28
3.41533	28
3.41900	28
3.42267	28
3.42633	28
3.43000	28
3.43367	29
3.43733	29
3.44100	29
3.44467	29
3.44833	29
3.45200	29
3.45567	29
3.45933	29
3.46300	29
3.46667	28
3.47033	28
3.47400	28
3.47767	28
3.48133	28
3.48500	28
3.48867	28
3.49233	28
3.49600	28
3.49967	28
3.50333	28
3.50700	27
3.51067	27
3.51433	28
3.51800	28
3.52167	28
3.52533	28
3.52900	28
3.53267	28
3.53633	28
3.54000	29
3.54367	29
3.54733	29
3.55100	29
3.55467	29
3.55833	29
3.56200	29
3.56567	29
3.56933	29
3.57300	29
3.57667	29
3.58033	30
3.58400	30
3.58767	30
3.59133	30
3.59500	30
3.59867	30
3.60233	30
3.60600	30
3.60967	30
3.61333	30
3.61700	30
3.62067	30
3.62433	30
3.62800	30
3.63167	29
3.63533	29
3.63900	29
3.64267	29
3.64633	29
3.65000	29
3.65367	29
3.65733	29
3.66100	29
3.66467	29
3.66833	29
3.67200	29
3.67567	29
3.67933	29
3.68300	29
3.68667	29
3.69033	29
3.69400	29
3.69767	29
3.70133	29
3.70500	30
3.70867	30
3.71233	30
3.71600	30
3.71967	29
3.72333	29
3.72700	29
3.73067	29
3.73433	29
3.73800	29
3.74167	29
3.74533	29
3.74900	29
3.75267	29
3.75633	28
3.76000	28
3.76367	28
3.76733	28
3.77100	28
3.77467	28
3.77833	28
3.78200	28
3.78567	29
3.78933	29
3.79300	29
3.79667	29
3.80033	29
3.80400	29
3.80767	29
3.81133	29
3.81500	29
3.81867	29
3.82233	29
3.82600	29
3.82967	29
3.83333	29
3.83700	29
3.84067	29
3.84433	29
3.84800	28
3.85167	28
3.85533	28
3.85900	28
3.86267	29
3.86633	29
3.87000	29
3.87367	29
3.87733	29
3.88100	29
3.88467	29
3.88833	29
3.89200	29
3.89567	29
3.89933	29
3.90300	29
3.90667	29
3.91033	29
3.91400	29
3.91767	29
3.92133	29
3.92500	29
3.92867	29
3.93233	29
3.93600	29
3.93967	29
3.94333	29
3.94700	29
3.95067	29
3.95433	29
3.95800	29
3.96167	29
3.96533	29
3.96900	29
3.97267	29
3.97633	29
3.98000	29
3.98367	29
3.98733	29
3.99100	29
3.99467	29
3.99833	29

[Chromatogram (Ch3)]
Interval(msec)	220
# of Points	1091
Start Time(min)	0.002
End Time(min)	3.998
R.Time (min)	Intensity
0.00167	-0
0.00533	1
0.00900	2
0.01267	3
0.01633	5
0.02000	5
0.02367	4
0.02733	3
0.03100	3
0.03467	1
0.03833	3
0.04200	4
0.04567	3
0.04933	3
0.05300	3
0.05667	6
0.06033	5
0.06400	3
0.06767	3
0.07133	2
0.07500	0
0.07867	3
0.08233	6
0.08600	5
0.08967	5
0.09333	5
0.09700	5
0.10067	3
0.10433	3
0.10800	2
0.11167	1
0.11533	1
0.11900	2
0.12267	3
0.12633	4
0.13000	2
0.13367	0
0.13733	-0
0.14100	0
0.14467	1
0.14833	2
0.15200	2
0.15567	4
0.15933	3
0.16300	3
0.16667	1
0.17033	0
0.17400	2
0.17767	1
0.18133	-0
0.18500	-0
0.18867	0
0.19233	2
0.19600	3
0.19967	3
0.20333	3
0.20700	4
0.21067	3
0.21433	1
0.21800	0
0.22167	2
0.22533	4
0.22900	6
0.23267	5
0.23633	4
0.24000	2
0.24367	2
0.24733	2
0.25100	2
0.25467	0
0.25833	-1
0.26200	-1
0.26567	1
0.26933	1
0.27300	2
0.27667	2
0.28033	2
0.28400	-1
0.28767	-1
0.29133	-0
0.29500	0
0.29867	1
0.30233	2
0.30600	1
0.30967	1
0.31333	2
0.31700	4
0.32067	4
0.32433	3
0.32800	1
0.33167	2
0.33533	2
0.33900	3
0.34267	1
0.34633	1
0.35000	1
0.35367	1
0.35733	1
0.36100	-1
0.36467	-1
0.36833	1
0.37200	3
0.37567	5
0.37933	5
0.38300	5
0.38667	6
0.39033	6
0.39400	6
0.39767	6
0.40133	7
0.40500	7
0.40867	7
0.41233	8
0.41600	10
0.41967	10
0.42333	7
0.42700	6
0.43067	6
0.43433	4
0.43800	5
0.44167	6
0.44533	7
0.44900	7
0.45267	5
0.45633	6
0.46000	8
0.46367	9
0.46733	12
0.47100	13
0.47467	11
0.47833	10
0.48200	10
0.48567	11
0.48933	9
0.49300	7
0.49667	6
0.50033	5
0.50400	3
0.50767	3
0.51133	4
0.51500	6
0.51867	9
0.52233	10
0.52600	12
0.52967	14
0.53333	15
0.53700	14
0.54067	14
0.54433	14
0.54800	13
0.55167	12
0.55533	11
0.55900	9
0.56267	8
0.56633	8
0.57000	9
0.57367	10
0.57733	10
0.58100	8
0.58467	5
0.58833	6
0.59200	7
0.59567	8
0.59933	8
0.60300	9
0.60667	10
0.61033	11
0.61400	12
0.61767	13
0.62133	13
0.62500	12
0.62867	9
0.63233	7
0.63600	6
0.63967	5
0.64333	4
0.64700	4
0.65067	7
0.65433	9
0.65800	9
0.66167	9
0.66533	10
0.66900	9
0.67267	7
0.67633	6
0.68000	5
0.68367	5
0.68733	4
0.69100	4
0.69467	4
0.69833	5
0.70200	7
0.70567	9
0.70933	10
0.71300	9
0.71667	10
0.72033	11
0.72400	9
0.72767	7
0.73133	6
0.73500	8
0.73867	10
0.74233	10
0.74600	11
0.74967	12
0.75333	12
0.75700	9
0.76067	7
0.76433	6
0.76800	8
0.77167	10
0.77533	10
0.77900	9
0.78267	9
0.78633	10
0.79000	9
0.79367	7
0.79733	5
0.80100	5
0.80467	6
0.80833	7
0.81200	8
0.81567	6
0.81933	6
0.82300	7
0.82667	9
0.83033	8
0.83400	8
0.83767	7
0.84133	7
0.84500	5
0.84867	4
0.85233	3
0.85600	5
0.85967	8
0.86333	10
0.86700	11
0.87067	10
0.87433	12
0.87800	13
0.88167	12
0.88533	10
0.88900	10
0.89267	10
0.89633	10
0.90000	9
0.90367	8
0.90733	8
0.91100	9
0.91467	10
0.91833	9
0.92200	10
0.92567	11
0.92933	13
0.93300	13
0.93667	12
0.94033	10
0.94400	11
0.94767	11
0.95133	10
0.95500	7
0.95867	7
0.96233	8
0.96600	11
0.96967	12
0.97333	12
0.97700	12
0.98067	12
0.98433	14
0.98800	15
0.99167	16
0.99533	17
0.99900	15
1.00267	14
1.00633	12
1.01000	12
1.01367	13
1.01733	12
1.02100	11
1.02467	12
1.02833	12
1.03200	11
1.03567	10
1.03933	12
1.04300	13
1.04667	13
1.05033	16
1.05400	17
1.05767	16
1.06133	16
1.06500	15
1.06867	15
1.07233	16
1.07600	15
1.07967	14
1.08333	14
1.08700	14
1.09067	13
1.09433	13
1.09800	12
1.10167	12
1.10533	13
1.10900	13
1.11267	13
1.11633	13
1.12000	14
1.12367	13
1.12733	12
1.13100	12
1.13467	14
1.13833	15
1.14200	15
1.14567	14
1.14933	17
1.15300	20
1.15667	21
1.16033	21
1.16400	21
1.16767	22
1.17133	20
1.17500	19
1.17867	17
1.18233	17
1.18600	19
1.18967	21
1.19333	22
1.19700	22
1.20067	24
1.20433	24
1.20800	22
1.21167	20
1.21533	20
1.21900	20
1.22267	23
1.22633	25
1.23000	25
1.23367	26
1.23733	24
1.24100	23
1.24467	21
1.24833	20
1.25200	20
1.25567	20
1.25933	21
1.26300	20
1.26667	21
1.27033	23
1.27400	23
1.27767	21
1.28133	19
1.28500	19
1.28867	19
1.29233	19
1.29600	20
1.29967	21
1.30333	22
1.30700	22
1.31067	22
1.31433	22
1.31800	22
1.32167	21
1.32533	20
1.32900	19
1.33267	19
1.33633	19
1.34000	20
1.34367	20
1.34733	19
1.35100	20
1.35467	21
1.35833	21
1.36200	23
1.36567	24
1.36933	23
1.37300	23
1.37667	24
1.38033	27
1.38400	26
1.38767	26
1.39133	27
1.39500	27
1.39867	27
1.40233	26
1.40600	25
1.40967	25
1.41333	23
1.41700	23
1.42067	24
1.42433	23
1.42800	23
1.43167	24
1.43533	25
1.43900	25
1.44267	26
1.44633	27
1.45000	26
1.45367	26
1.45733	26
1.46100	27
1.46467	26
1.46833	25
1.47200	24
1.47567	23
1.47933	24
1.48300	25
1.48667	23
1.49033	23
1.49400	25
1.49767	29
1.50133	30
1.50500	30
1.50867	28
1.51233	26
1.51600	27
1.51967	27
1.52333	28
1.52700	27
1.53067	26
1.53433	26
1.53800	25
1.54167	25
1.54533	25
1.54900	25
1.55267	26
1.55633	26
1.56000	25
1.56367	25
1.56733	24
1.57100	24
1.57467	23
1.57833	23
1.58200	23
1.58567	23
1.58933	23
1.59300	23
1.59667	24
1.60033	25
1.60400	27
1.60767	28
1.61133	30
1.61500	29
1.61867	29
1.62233	29
1.62600	29
1.62967	27
1.63333	23
1.63700	21
1.64067	21
1.64433	22
1.64800	23
1.65167	24
1.65533	26
1.65900	27
1.66267	26
1.66633	25
1.67000	25
1.67367	27
1.67733	28
1.68100	30
1.68467	31
1.68833	32
1.69200	32
1.69567	29
1.69933	28
1.70300	28
1.70667	30
1.71033	30
1.71400	31
1.71767	32
1.72133	31
1.72500	30
1.72867	30
1.73233	31
1.73600	32
1.73967	35
1.74333	36
1.74700	37
1.75067	39
1.75433	38
1.75800	36
1.76167	34
1.76533	36
1.76900	40
1.77267	42
1.77633	44
1.78000	44
1.78367	45
1.78733	45
1.79100	44
1.79467	46
1.79833	50
1.80200	52
1.80567	53
1.80933	53
1.81300	53
1.81667	53
1.82033	53
1.82400	54
1.82767	55
1.83133	56
1.83500	58
1.83867	59
1.84233	60
1.84600	60
1.84967	59
1.85333	60
1.85700	61
1.86067	62
1.86433	61
1.86800	59
1.87167	60
1.87533	61
1.87900	62
1.88267	63
1.88633	65
1.89000	67
1.89367	68
1.89733	69
1.90100	68
1.90467	65
1.90833	65
1.91200	68
1.91567	70
1.91933	72
1.92300	73
1.92667	73
1.93033	73
1.93400	73
1.93767	74
1.94133	75
1.94500	76
1.94867	77
1.95233	78
1.95600	80
1.95967	80
1.96333	81
1.96700	83
1.97067	84
1.97433	85
1.97800	86
1.98167	86
1.98533	87
1.98900	88
1.99267	86
1.99633	84
2.00000	84
2.00367	83
2.00733	84
2.01100	87
2.01467	90
2.01833	90
2.02200	92
2.02567	92
2.02933	92
2.03300	91
2.03667	94
2.04033	97
2.04400	98
2.04767	99
2.05133	100
2.05500	102
2.05867	103
2.06233	104
2.06600	104
2.06967	102
2.07333	102
2.07700	104
2.08067	105
2.08433	106
2.08800	107
2.09167	111
2.09533	113
2.09900	115
2.10267	119
2.10633	123
2.11000	124
2.11367	123
2.11733	122
2.12100	122
2.12467	123
2.12833	125
2.13200	127
2.13567	129
2.13933	131
2.14300	132
2.14667	135
2.15033	137
2.15400	139
2.15767	139
2.16133	139
2.16500	140
2.16867	141
2.17233	145
2.17600	150
2.17967	154
2.18333	155
2.18700	153
2.19067	154
2.19433	156
2.19800	156
2.20167	155
2.20533	156
2.20900	158
2.21267	160
2.21633	163
2.22000	164
2.22367	165
2.22733	165
2.23100	164
2.23467	164
2.23833	165
2.24200	166
2.24567	166
2.24933	166
2.25300	168
2.25667	171
2.26033	175
2.26400	177
2.26767	177
2.27133	177
2.27500	179
2.27867	179
2.28233	180
2.28600	183
2.28967	186
2.29333	188
2.29700	190
2.30067	190
2.30433	192
2.30800	194
2.31167	195
2.31533	195
2.31900	198
2.32267	201
2.32633	204
2.33000	206
2.33367	208
2.33733	210
2.34100	211
2.34467	213
2.34833	213
2.35200	211
2.35567	210
2.35933	210
2.36300	213
2.36667	214
2.37033	215
2.37400	217
2.37767	218
2.38133	221
2.38500	220
2.38867	218
2.39233	218
2.39600	219
2.39967	220
2.40333	222
2.40700	222
2.41067	222
2.41433	224
2.41800	228
2.42167	230
2.42533	234
2.42900	239
2.43267	242
2.43633	243
2.44000	244
2.44367	247
2.44733	251
2.45100	256
2.45467	261
2.45833	263
2.46200	260
2.46567	257
2.46933	254
2.47300	250
2.47667	247
2.48033	246
2.48400	249
2.48767	252
2.49133	251
2.49500	249
2.49867	247
2.50233	243
2.50600	239
2.50967	236
2.51333	233
2.51700	228
2.52067	221
2.52433	215
2.52800	210
2.53167	205
2.53533	201
2.53900	197
2.54267	193
2.54633	191
2.55000	189
2.55367	187
2.55733	184
2.56100	182
2.56467	180
2.56833	178
2.57200	175
2.57567	171
2.57933	170
2.58300	170
2.58667	169
2.59033	168
2.59400	165
2.59767	161
2.60133	153
2.60500	141
2.60867	120
2.61233	91
2.61600	56
2.61967	16
2.62333	-26
2.62700	-64
2.63067	-98
2.63433	-127
2.63800	-151
2.64167	-169
2.64533	-183
2.64900	-191
2.65267	-193
2.65633	-194
2.66000	-193
2.66367	-192
2.66733	-188
2.67100	-180
2.67467	-171
2.67833	-163
2.68200	-155
2.68567	-147
2.68933	-141
2.69300	-134
2.69667	-127
2.70033	-121
2.70400	-113
2.70767	-108
2.71133	-102
2.71500	-96
2.71867	-89
2.72233	-86
2.72600	-82
2.72967	-75
2.73333	-67
2.73700	-61
2.74067	-55
2.74433	-49
2.74800	-42
2.75167	-35
2.75533	-30
2.75900	-28
2.76267	-26
2.76633	-22
2.77000	-18
2.77367	-12
2.77733	-6
2.78100	-1
2.78467	2
2.78833	7
2.79200	13
2.79567	17
2.79933	21
2.80300	21
2.80667	22
2.81033	25
2.81400	29
2.81767	31
2.82133	36
2.82500	47
2.82867	73
2.83233	137
2.83600	281
2.83967	559
2.84333	1031
2.84700	1757
2.85067	2770
2.85433	4062
2.85800	5572
2.86167	7195
2.86533	8792
2.86900	10232
2.87267	11395
2.87633	12198
2.88000	12610
2.88367	12643
2.88733	12350
2.89100	11800
2.89467	11073
2.89833	10236
2.90200	9348
2.90567	8455
2.90933	7586
2.91300	6762
2.91667	5995
2.92033	5292
2.92400	4656
2.92767	4087
2.93133	3579
2.93500	3130
2.93867	2733
2.94233	2381
2.94600	2073
2.94967	1802
2.95333	1567
2.95700	1363
2.96067	1186
2.96433	1032
2.96800	901
2.97167	788
2.97533	689
2.97900	604
2.98267	531
2.98633	468
2.99000	414
2.99367	367
2.99733	328
3.00100	294
3.00467	263
3.00833	238
3.01200	217
3.01567	199
3.01933	184
3.02300	172
3.02667	161
3.03033	152
3.03400	144
3.03767	138
3.04133	133
3.04500	126
3.04867	120
3.05233	114
3.05600	108
3.05967	102
3.06333	101
3.06700	99
3.07067	95
3.07433	91
3.07800	89
3.08167	88
3.08533	88
3.08900	87
3.09267	88
3.09633	88
3.10000	87
3.10367	88
3.10733	89
3.11100	89
3.11467	90
3.11833	91
3.12200	92
3.12567	77
3.12933	27
3.13300	-22
3.13667	-41
3.14033	-26
3.14400	11
3.14767	57
3.15133	105
3.15500	155
3.15867	202
3.16233	246
3.16600	286
3.16967	321
3.17333	356
3.17700	386
3.18067	413
3.18433	438
3.18800	464
3.19167	489
3.19533	510
3.19900	530
3.20267	544
3.20633	558
3.21000	571
3.21367	584
3.21733	597
3.22100	610
3.22467	623
3.22833	635
3.23200	644
3.23567	654
3.23933	663
3.24300	670
3.24667	677
3.25033	683
3.25400	690
3.25767	698
3.26133	702
3.26500	708
3.26867	712
3.27233	716
3.27600	722
3.27967	724
3.28333	725
3.28700	725
3.29067	728
3.29433	729
3.29800	731
3.30167	734
3.30533	736
3.30900	738
3.31267	739
3.31633	738
3.32000	735
3.32367	733
3.32733	731
3.33100	728
3.33467	726
3.33833	727
3.34200	727
3.34567	727
3.34933	726
3.35300	723
3.35667	720
3.36033	717
3.36400	714
3.36767	709
3.37133	708
3.37500	707
3.37867	706
3.38233	704
3.38600	703
3.38967	702
3.39333	703
3.39700	702
3.40067	700
3.40433	698
3.40800	697
3.41167	694
3.41533	690
3.41900	687
3.42267	688
3.42633	688
3.43000	686
3.43367	683
3.43733	681
3.44100	679
3.44467	677
3.44833	674
3.45200	672
3.45567	671
3.45933	669
3.46300	668
3.46667	668
3.47033	666
3.47400	663
3.47767	660
3.48133	658
3.48500	657
3.48867	655
3.49233	652
3.49600	651
3.49967	650
3.50333	647
3.50700	642
3.51067	638
3.51433	635
3.51800	634
3.52167	633
3.52533	631
3.52900	628
3.53267	627
3.53633	623
3.54000	620
3.54367	616
3.54733	612
3.55100	608
3.55467	603
3.55833	598
3.56200	595
3.56567	591
3.56933	586
3.57300	581
3.57667	578
3.58033	575
3.58400	574
3.58767	572
3.59133	568
3.59500	564
3.59867	560
3.60233	556
3.60600	555
3.60967	551
3.61333	548
3.61700	545
3.62067	541
3.62433	538
3.62800	535
3.63167	532
3.63533	528
3.63900	524
3.64267	520
3.64633	518
3.65000	514
3.65367	509
3.65733	506
3.66100	503
3.66467	500
3.66833	497
3.67200	494
3.67567	491
3.67933	487
3.68300	484
3.68667	483
3.69033	479
3.69400	477
3.69767	474
3.70133	469
3.70500	464
3.70867	461
3.71233	457
3.71600	454
3.71967	451
3.72333	446
3.72700	444
3.73067	443
3.73433	441
3.73800	437
3.74167	436
3.74533	434
3.74900	432
3.75267	429
3.75633	424
3.76000	420
3.76367	419
3.76733	418
3.77100	416
3.77467	415
3.77833	412
3.78200	407
3.78567	401
3.78933	397
3.79300	396
3.79667	394
3.80033	392
3.80400	392
3.80767	392
3.81133	391
3.81500	389
3.81867	386
3.82233	381
3.82600	377
3.82967	375
3.83333	371
3.83700	367
3.84067	365
3.84433	363
3.84800	362
3.85167	362
3.85533	360
3.85900	358
3.86267	357
3.86633	355
3.87000	354
3.87367	350
3.87733	348
3.88100	344
3.88467	343
3.88833	342
3.89200	340
3.89567	339
3.89933	339
3.90300	338
3.90667	337
3.91033	337
3.91400	336
3.91767	336
3.92133	337
3.92500	335
3.92867	333
3.93233	330
3.93600	329
3.93967	327
3.94333	326
3.94700	323
3.95067	318
3.95433	316
3.95800	315
3.96167	315
3.96533	315
3.96900	316
3.97267	314
3.97633	311
3.98000	307
3.98367	304
3.98733	302
3.99100	301
3.99467	299
3.99833	300

[Status Trace (Column Oven Temperature)]
Interval(msec)	1000
# of Points	240
Start Time(min)	0.001
End Time(min)	3.984
Intensity Units	
Intensity Multiplier	1
R.Time (min)	Intensity
0.00113	35.03
0.01780	35.03
0.03447	35.02
0.05113	35.01
0.06780	34.99
0.08447	34.99
0.10113	34.99
0.11780	35.00
0.13447	35.00
0.15113	35.01
0.16780	35.00
0.18447	35.00
0.20113	35.00
0.21780	34.99
0.23447	34.98
0.25113	34.99
0.26780	34.99
0.28447	34.98
0.30113	34.98
0.31780	35.00
0.33447	35.01
0.35113	35.01
0.36780	35.02
0.38447	35.02
0.40113	35.01
0.41780	35.00
0.43447	35.00
0.45113	35.00
0.46780	35.00
0.48447	34.99
0.50113	34.98
0.51780	34.98
0.53447	34.98
0.55113	34.97
0.56780	34.98
0.58447	34.98
0.60113	34.98
0.61780	34.98
0.63447	34.97
0.65113	34.97
0.66780	34.96
0.68447	34.96
0.70113	34.95
0.71780	34.96
0.73447	34.97
0.75113	34.96
0.76780	34.96
0.78447	34.98
0.80113	34.99
0.81780	35.00
0.83447	35.01
0.85113	35.02
0.86780	35.01
0.88447	35.02
0.90113	35.03
0.91780	35.04
0.93447	35.04
0.95113	35.02
0.96780	35.03
0.98447	35.03
1.00113	35.04
1.01780	35.03
1.03447	35.02
1.05113	35.01
1.06780	35.00
1.08447	34.98
1.10113	34.98
1.11780	34.97
1.13447	34.98
1.15113	34.99
1.16780	35.00
1.18447	34.99
1.20113	35.00
1.21780	35.00
1.23447	35.00
1.25113	35.00
1.26780	34.99
1.28447	34.98
1.30113	34.97
1.31780	34.98
1.33447	34.99
1.35113	34.99
1.36780	35.01
1.38447	35.02
1.40113	35.03
1.41780	35.02
1.43447	35.02
1.45113	35.00
1.46780	35.00
1.48447	35.00
1.50113	34.99
1.51780	34.99
1.53447	34.98
1.55113	34.98
1.56780	34.98
1.58447	34.99
1.60113	35.03
1.61780	35.14
1.63447	35.30
1.65113	35.52
1.66780	35.80
1.68447	36.16
1.70113	36.53
1.71780	36.88
1.73447	37.20
1.75113	37.54
1.76780	37.88
1.78447	38.22
1.80113	38.54
1.81780	38.87
1.83447	39.20
1.85113	39.53
1.86780	39.87
1.88447	40.20
1.90113	40.53
1.91780	40.85
1.93447	41.18
1.95113	41.51
1.96780	41.82
1.98447	42.15
2.00113	42.47
2.01780	42.77
2.03447	43.11
2.05113	43.42
2.06780	43.75
2.08447	44.07
2.10113	44.41
2.11780	44.72
2.13447	45.07
2.15113	45.37
2.16780	45.72
2.18447	46.06
2.20113	46.37
2.21780	46.69
2.23447	47.05
2.25113	47.38
2.26780	47.69
2.28447	48.02
2.30113	48.36
2.31780	48.71
2.33447	49.03
2.35113	49.32
2.36780	49.59
2.38447	49.70
2.40113	49.71
2.41780	49.71
2.43447	49.72
2.45113	49.72
2.46780	49.74
2.48447	49.74
2.50113	49.74
2.51780	49.75
2.53447	49.78
2.55113	49.79
2.56780	49.81
2.58447	49.82
2.60113	49.82
2.61780	49.82
2.63447	49.82
2.65113	49.83
2.66780	49.84
2.68447	49.85
2.70113	49.87
2.71780	49.86
2.73447	49.85
2.75113	49.85
2.76780	49.89
2.78447	49.90
2.80113	49.91
2.81780	49.92
2.83447	49.92
2.85113	49.91
2.86780	49.92
2.88447	49.93
2.90113	49.93
2.91780	49.93
2.93447	49.94
2.95113	49.96
2.96780	49.97
2.98447	49.98
3.00113	49.98
3.01780	49.99
3.03447	50.01
3.05113	50.00
3.06780	50.01
3.08447	50.02
3.10113	50.03
3.11780	50.04
3.13447	50.06
3.15113	50.08
3.16780	50.08
3.18447	50.10
3.20113	50.10
3.21780	50.10
3.23447	50.09
3.25113	50.09
3.26780	50.09
3.28447	50.09
3.30113	50.08
3.31780	50.08
3.33447	50.08
3.35113	50.07
3.36780	50.07
3.38447	50.07
3.40113	50.07
3.41780	50.07
3.43447	50.07
3.45113	50.07
3.46780	50.07
3.48447	50.07
3.50113	50.08
3.51780	50.08
3.53447	50.08
3.55113	50.09
3.56780	50.07
3.58447	50.07
3.60113	50.07
3.61780	50.07
3.63447	50.07
3.65113	50.08
3.66780	50.08
3.68447	50.07
3.70113	50.06
3.71780	50.07
3.73447	50.07
3.75113	50.07
3.76780	50.08
3.78447	50.08
3.80113	50.09
3.81780	50.09
3.83447	50.09
3.85113	50.09
3.86780	50.09
3.88447	50.09
3.90113	50.09
3.91780	50.09
3.93447	50.09
3.95113	50.09
3.96780	50.10
3.98447	50.09

[Status Trace (Injection Unit Temperature)]
Interval(msec)	1000
# of Points	240
Start Time(min)	0.001
End Time(min)	3.984
Intensity Units	
Intensity Multiplier	1
R.Time (min)	Intensity
0.00113	99.98
0.01780	99.98
0.03447	99.98
0.05113	99.98
0.06780	99.98
0.08447	99.98
0.10113	99.98
0.11780	99.97
0.13447	99.98
0.15113	99.98
0.16780	99.98
0.18447	99.98
0.20113	99.97
0.21780	99.98
0.23447	99.98
0.25113	99.98
0.26780	99.98
0.28447	99.98
0.30113	99.98
0.31780	99.98
0.33447	99.98
0.35113	99.98
0.36780	99.98
0.38447	99.98
0.40113	99.98
0.41780	99.98
0.43447	99.98
0.45113	99.98
0.46780	99.98
0.48447	99.98
0.50113	99.98
0.51780	99.98
0.53447	99.98
0.55113	99.98
0.56780	99.98
0.58447	99.98
0.60113	99.99
0.61780	99.98
0.63447	99.98
0.65113	99.98
0.66780	99.98
0.68447	99.98
0.70113	99.99
0.71780	99.99
0.73447	99.99
0.75113	99.99
0.76780	99.99
0.78447	99.98
0.80113	99.99
0.81780	99.99
0.83447	99.98
0.85113	99.98
0.86780	99.98
0.88447	99.99
0.90113	99.99
0.91780	99.98
0.93447	99.98
0.95113	99.98
0.96780	99.98
0.98447	99.98
1.00113	99.98
1.01780	99.98
1.03447	99.98
1.05113	99.98
1.06780	99.98
1.08447	99.99
1.10113	99.98
1.11780	99.98
1.13447	99.98
1.15113	99.98
1.16780	99.98
1.18447	99.98
1.20113	99.98
1.21780	99.98
1.23447	99.98
1.25113	99.98
1.26780	99.98
1.28447	99.98
1.30113	99.98
1.31780	99.98
1.33447	99.98
1.35113	99.98
1.36780	99.98
1.38447	99.98
1.40113	99.98
1.41780	99.98
1.43447	99.98
1.45113	99.98
1.46780	99.97
1.48447	99.98
1.50113	99.98
1.51780	99.98
1.53447	99.98
1.55113	99.98
1.56780	99.98
1.58447	99.99
1.60113	99.99
1.61780	99.98
1.63447	99.98
1.65113	99.99
1.66780	99.99
1.68447	99.99
1.70113	99.99
1.71780	99.98
1.73447	99.99
1.75113	99.99
1.76780	99.99
1.78447	99.99
1.80113	99.99
1.81780	99.98
1.83447	99.99
1.85113	99.99
1.86780	99.99
1.88447	99.98
1.90113	99.99
1.91780	99.98
1.93447	99.99
1.95113	99.99
1.96780	99.98
1.98447	99.99
2.00113	99.99
2.01780	99.99
2.03447	99.98
2.05113	99.98
2.06780	99.98
2.08447	99.98
2.10113	99.98
2.11780	99.98
2.13447	99.97
2.15113	99.98
2.16780	99.98
2.18447	99.98
2.20113	99.97
2.21780	99.97
2.23447	99.98
2.25113	99.97
2.26780	99.97
2.28447	99.97
2.30113	99.97
2.31780	99.97
2.33447	99.97
2.35113	99.97
2.36780	99.97
2.38447	99.97
2.40113	99.97
2.41780	99.97
2.43447	99.97
2.45113	99.97
2.46780	99.96
2.48447	99.97
2.50113	99.97
2.51780	99.97
2.53447	99.97
2.55113	99.97
2.56780	99.97
2.58447	99.97
2.60113	99.97
2.61780	99.97
2.63447	99.97
2.65113	99.97
2.66780	99.97
2.68447	99.98
2.70113	99.98
2.71780	99.98
2.73447	99.98
2.75113	99.98
2.76780	99.98
2.78447	99.99
2.80113	99.99
2.81780	99.99
2.83447	99.99
2.85113	99.99
2.86780	99.99
2.88447	99.99
2.90113	100.00
2.91780	100.00
2.93447	100.00
2.95113	100.00
2.96780	100.00
2.98447	100.00
3.00113	100.01
3.01780	100.01
3.03447	100.01
3.05113	100.01
3.06780	100.01
3.08447	100.01
3.10113	100.02
3.11780	100.02
3.13447	100.01
3.15113	100.02
3.16780	100.02
3.18447	100.02
3.20113	100.02
3.21780	100.02
3.23447	100.03
3.25113	100.02
3.26780	100.02
3.28447	100.02
3.30113	100.03
3.31780	100.03
3.33447	100.03
3.35113	100.03
3.36780	100.03
3.38447	100.03
3.40113	100.04
3.41780	100.03
3.43447	100.04
3.45113	100.03
3.46780	100.04
3.48447	100.04
3.50113	100.04
3.51780	100.04
3.53447	100.04
3.55113	100.04
3.56780	100.04
3.58447	100.04
3.60113	100.04
3.61780	100.04
3.63447	100.04
3.65113	100.04
3.66780	100.05
3.68447	100.05
3.70113	100.05
3.71780	100.05
3.73447	100.05
3.75113	100.05
3.76780	100.05
3.78447	100.05
3.80113	100.05
3.81780	100.05
3.83447	100.05
3.85113	100.05
3.86780	100.04
3.88447	100.05
3.90113	100.05
3.91780	100.05
3.93447	100.05
3.95113	100.05
3.96780	100.06
3.98447	100.05

[Status Trace (Carrier Gas Pressure)]
Interval(msec)	1000
# of Points	240
Start Time(min)	0.001
End Time(min)	3.984
Intensity Units	
Intensity Multiplier	1
R.Time (min)	Intensity
0.00113	58.00
0.01780	56.66
0.03447	56.04
0.05113	58.34
0.06780	59.92
0.08447	58.49
0.10113	57.97
0.11780	58.00
0.13447	58.01
0.15113	58.01
0.16780	58.00
0.18447	58.00
0.20113	58.00
0.21780	58.00
0.23447	58.00
0.25113	58.00
0.26780	58.00
0.28447	58.00
0.30113	58.00
0.31780	58.00
0.33447	58.00
0.35113	58.00
0.36780	58.00
0.38447	58.00
0.40113	58.00
0.41780	58.00
0.43447	58.00
0.45113	58.00
0.46780	58.00
0.48447	58.00
0.50113	58.00
0.51780	58.00
0.53447	58.00
0.55113	58.00
0.56780	58.00
0.58447	58.00
0.60113	58.00
0.61780	58.00
0.63447	58.00
0.65113	58.00
0.66780	58.00
0.68447	58.00
0.70113	58.00
0.71780	58.00
0.73447	58.00
0.75113	58.00
0.76780	58.00
0.78447	58.00
0.80113	58.00
0.81780	58.00
0.83447	58.00
0.85113	58.00
0.86780	58.00
0.88447	58.00
0.90113	58.00
0.91780	58.00
0.93447	58.00
0.95113	58.00
0.96780	58.00
0.98447	58.00
1.00113	58.00
1.01780	58.00
1.03447	58.00
1.05113	58.00
1.06780	58.00
1.08447	58.00
1.10113	58.00
1.11780	58.00
1.13447	58.00
1.15113	58.00
1.16780	58.00
1.18447	58.00
1.20113	58.00
1.21780	58.00
1.23447	58.00
1.25113	58.00
1.26780	58.00
1.28447	58.00
1.30113	58.00
1.31780	58.00
1.33447	58.00
1.35113	58.00
1.36780	58.00
1.38447	58.00
1.40113	58.00
1.41780	58.00
1.43447	58.00
1.45113	58.00
1.46780	58.00
1.48447	58.00
1.50113	58.00
1.51780	58.00
1.53447	58.00
1.55113	58.00
1.56780	58.00
1.58447	58.00
1.60113	58.00
1.61780	58.00
1.63447	58.00
1.65113	58.00
1.66780	58.00
1.68447	58.01
1.70113	58.00
1.71780	58.00
1.73447	58.00
1.75113	58.00
1.76780	58.00
1.78447	58.00
1.80113	58.00
1.81780	58.00
1.83447	58.00
1.85113	58.00
1.86780	58.00
1.88447	58.00
1.90113	58.00
1.91780	58.00
1.93447	58.00
1.95113	58.00
1.96780	58.00
1.98447	58.00
2.00113	58.00
2.01780	58.00
2.03447	58.00
2.05113	58.00
2.06780	58.00
2.08447	58.00
2.10113	58.00
2.11780	58.00
2.13447	58.00
2.15113	58.00
2.16780	58.00
2.18447	58.00
2.20113	58.00
2.21780	58.00
2.23447	58.00
2.25113	58.00
2.26780	58.00
2.28447	58.00
2.30113	58.00
2.31780	58.00
2.33447	58.00
2.35113	58.00
2.36780	58.00
2.38447	57.99
2.40113	57.99
2.41780	58.00
2.43447	58.00
2.45113	58.00
2.46780	58.00
2.48447	58.00
2.50113	58.00
2.51780	57.99
2.53447	57.99
2.55113	58.00
2.56780	58.00
2.58447	58.00
2.60113	58.00
2.61780	58.00
2.63447	58.00
2.65113	58.00
2.66780	58.00
2.68447	58.00
2.70113	58.00
2.71780	58.00
2.73447	58.00
2.75113	58.00
2.76780	58.00
2.78447	58.00
2.80113	58.00
2.81780	58.00
2.83447	58.00
2.85113	58.00
2.86780	58.00
2.88447	58.00
2.90113	58.00
2.91780	58.00
2.93447	58.00
2.95113	58.00
2.96780	58.00
2.98447	58.00
3.00113	58.00
3.01780	58.00
3.03447	58.00
3.05113	58.00
3.06780	58.00
3.08447	58.00
3.10113	58.00
3.11780	58.00
3.13447	58.00
3.15113	58.00
3.16780	58.00
3.18447	58.00
3.20113	58.00
3.21780	58.00
3.23447	58.00
3.25113	58.00
3.26780	58.00
3.28447	58.00
3.30113	58.00
3.31780	58.00
3.33447	58.00
3.35113	58.00
3.36780	58.00
3.38447	58.00
3.40113	58.00
3.41780	58.00
3.43447	58.00
3.45113	58.00
3.46780	58.00
3.48447	58.00
3.50113	58.00
3.51780	58.00
3.53447	58.00
3.55113	58.00
3.56780	58.00
3.58447	58.00
3.60113	58.00
3.61780	58.00
3.63447	58.00
3.65113	58.00
3.66780	58.00
3.68447	58.00
3.70113	58.00
3.71780	58.00
3.73447	58.00
3.75113	58.00
3.76780	58.00
3.78447	58.00
3.80113	58.00
3.81780	58.00
3.83447	58.00
3.85113	58.00
3.86780	58.00
3.88447	58.00
3.90113	58.00
3.91780	58.00
3.93447	58.00
3.95113	58.00
3.96780	58.00
3.98447	58.00

[Status Trace (Carrier Gas Flow)]
Interval(msec)	1000
# of Points	240
Start Time(min)	0.001
End Time(min)	3.984
Intensity Units	
Intensity Multiplier	1
R.Time (min)	Intensity
0.00113	34.52
0.01780	33.82
0.03447	34.53
0.05113	34.55
0.06780	34.51
0.08447	34.52
0.10113	34.52
0.11780	34.52
0.13447	34.52
0.15113	34.52
0.16780	34.52
0.18447	34.52
0.20113	34.52
0.21780	34.52
0.23447	34.52
0.25113	34.52
0.26780	34.52
0.28447	34.52
0.30113	34.52
0.31780	34.52
0.33447	34.52
0.35113	34.52
0.36780	34.52
0.38447	34.52
0.40113	34.52
0.41780	34.52
0.43447	34.52
0.45113	34.52
0.46780	34.52
0.48447	34.52
0.50113	34.52
0.51780	34.52
0.53447	34.52
0.55113	34.52
0.56780	34.52
0.58447	34.52
0.60113	34.52
0.61780	34.52
0.63447	34.52
0.65113	34.52
0.66780	34.52
0.68447	34.52
0.70113	34.52
0.71780	34.52
0.73447	34.52
0.75113	34.52
0.76780	34.52
0.78447	34.52
0.80113	34.52
0.81780	34.52
0.83447	34.52
0.85113	34.52
0.86780	34.52
0.88447	34.52
0.90113	34.52
0.91780	34.52
0.93447	34.52
0.95113	34.52
0.96780	34.52
0.98447	34.52
1.00113	34.52
1.01780	34.52
1.03447	34.52
1.05113	34.52
1.06780	34.52
1.08447	34.52
1.10113	34.52
1.11780	34.52
1.13447	34.52
1.15113	34.52
1.16780	34.52
1.18447	34.52
1.20113	34.52
1.21780	34.52
1.23447	34.52
1.25113	34.52
1.26780	34.52
1.28447	34.52
1.30113	34.52
1.31780	34.52
1.33447	34.52
1.35113	34.52
1.36780	34.52
1.38447	34.52
1.40113	34.52
1.41780	34.52
1.43447	34.52
1.45113	34.52
1.46780	34.52
1.48447	34.52
1.50113	34.52
1.51780	34.52
1.53447	34.52
1.55113	34.52
1.56780	34.52
1.58447	34.52
1.60113	34.52
1.61780	34.52
1.63447	34.52
1.65113	34.52
1.66780	34.52
1.68447	34.52
1.70113	34.52
1.71780	34.52
1.73447	34.52
1.75113	34.52
1.76780	34.52
1.78447	34.52
1.80113	34.52
1.81780	34.52
1.83447	34.52
1.85113	34.52
1.86780	34.52
1.88447	34.52
1.90113	34.52
1.91780	34.52
1.93447	34.52
1.95113	34.52
1.96780	34.52
1.98447	34.52
2.00113	34.52
2.01780	34.52
2.03447	34.52
2.05113	34.52
2.06780	34.52
2.08447	34.52
2.10113	34.52
2.11780	34.52
2.13447	34.52
2.15113	34.52
2.16780	34.52
2.18447	34.51
2.20113	34.52
2.21780	34.52
2.23447	34.52
2.25113	34.52
2.26780	34.52
2.28447	34.52
2.30113	34.52
2.31780	34.52
2.33447	34.52
2.35113	34.52
2.36780	34.52
2.38447	34.52
2.40113	34.52
2.41780	34.52
2.43447	34.52
2.45113	34.52
2.46780	34.51
2.48447	34.52
2.50113	34.52
2.51780	34.52
2.53447	34.52
2.55113	34.52
2.56780	34.52
2.58447	34.52
2.60113	34.52
2.61780	34.52
2.63447	34.52
2.65113	34.52
2.66780	34.52
2.68447	34.52
2.70113	34.52
2.71780	34.52
2.73447	34.52
2.75113	34.52
2.76780	34.52
2.78447	34.52
2.80113	34.52
2.81780	34.52
2.83447	34.52
2.85113	34.52
2.86780	34.52
2.88447	34.52
2.90113	34.52
2.91780	34.52
2.93447	34.52
2.95113	34.52
2.96780	34.52
2.98447	34.52
3.00113	34.52
3.01780	34.52
3.03447	34.52
3.05113	34.52
3.06780	34.52
3.08447	34.52
3.10113	34.52
3.11780	34.52
3.13447	34.52
3.15113	34.52
3.16780	34.52
3.18447	34.52
3.20113	34.52
3.21780	34.52
3.23447	34.52
3.25113	34.52
3.26780	34.52
3.28447	34.52
3.30113	34.52
3.31780	34.52
3.33447	34.52
3.35113	34.51
3.36780	34.52
3.38447	34.52
3.40113	34.52
3.41780	34.52
3.43447	34.52
3.45113	34.52
3.46780	34.52
3.48447	34.52
3.50113	34.52
3.51780	34.52
3.53447	34.52
3.55113	34.52
3.56780	34.52
3.58447	34.52
3.60113	34.52
3.61780	34.52
3.63447	34.52
3.65113	34.52
3.66780	34.52
3.68447	34.52
3.70113	34.52
3.71780	34.52
3.73447	34.52
3.75113	34.52
3.76780	34.52
3.78447	34.52
3.80113	34.52
3.81780	34.52
3.83447	34.52
3.85113	34.52
3.86780	34.52
3.88447	34.52
3.90113	34.52
3.91780	34.52
3.93447	34.52
3.95113	34.52
3.96780	34.52
3.98447	34.52

[Status Trace (Column Flow)]
Interval(msec)	1000
# of Points	240
Start Time(min)	0.001
End Time(min)	3.984
Intensity Units	
Intensity Multiplier	1
R.Time (min)	Intensity
0.00113	5.53
0.01780	5.37
0.03447	5.30
0.05113	5.57
0.06780	5.76
0.08447	5.59
0.10113	5.53
0.11780	5.53
0.13447	5.53
0.15113	5.53
0.16780	5.53
0.18447	5.53
0.20113	5.53
0.21780	5.53
0.23447	5.53
0.25113	5.53
0.26780	5.53
0.28447	5.53
0.30113	5.53
0.31780	5.53
0.33447	5.53
0.35113	5.53
0.36780	5.53
0.38447	5.53
0.40113	5.53
0.41780	5.53
0.43447	5.53
0.45113	5.53
0.46780	5.53
0.48447	5.53
0.50113	5.53
0.51780	5.53
0.53447	5.53
0.55113	5.53
0.56780	5.53
0.58447	5.53
0.60113	5.53
0.61780	5.53
0.63447	5.53
0.65113	5.53
0.66780	5.53
0.68447	5.53
0.70113	5.53
0.71780	5.53
0.73447	5.53
0.75113	5.53
0.76780	5.53
0.78447	5.53
0.80113	5.53
0.81780	5.53
0.83447	5.53
0.85113	5.53
0.86780	5.53
0.88447	5.53
0.90113	5.53
0.91780	5.53
0.93447	5.53
0.95113	5.53
0.96780	5.53
0.98447	5.53
1.00113	5.53
1.01780	5.53
1.03447	5.53
1.05113	5.53
1.06780	5.53
1.08447	5.53
1.10113	5.53
1.11780	5.53
1.13447	5.53
1.15113	5.53
1.16780	5.53
1.18447	5.53
1.20113	5.53
1.21780	5.53
1.23447	5.53
1.25113	5.53
1.26780	5.53
1.28447	5.53
1.30113	5.53
1.31780	5.53
1.33447	5.53
1.35113	5.53
1.36780	5.53
1.38447	5.53
1.40113	5.53
1.41780	5.53
1.43447	5.53
1.45113	5.53
1.46780	5.53
1.48447	5.53
1.50113	5.53
1.51780	5.53
1.53447	5.53
1.55113	5.53
1.56780	5.53
1.58447	5.53
1.60113	5.53
1.61780	5.53
1.63447	5.52
1.65113	5.52
1.66780	5.51
1.68447	5.50
1.70113	5.48
1.71780	5.47
1.73447	5.46
1.75113	5.45
1.76780	5.44
1.78447	5.43
1.80113	5.42
1.81780	5.41
1.83447	5.40
1.85113	5.39
1.86780	5.38
1.88447	5.37
1.90113	5.36
1.91780	5.35
1.93447	5.34
1.95113	5.33
1.96780	5.32
1.98447	5.31
2.00113	5.30
2.01780	5.29
2.03447	5.28
2.05113	5.27
2.06780	5.27
2.08447	5.26
2.10113	5.25
2.11780	5.24
2.13447	5.23
2.15113	5.22
2.16780	5.21
2.18447	5.20
2.20113	5.19
2.21780	5.18
2.23447	5.17
2.25113	5.16
2.26780	5.15
2.28447	5.14
2.30113	5.13
2.31780	5.12
2.33447	5.11
2.35113	5.11
2.36780	5.10
2.38447	5.09
2.40113	5.09
2.41780	5.09
2.43447	5.09
2.45113	5.09
2.46780	5.09
2.48447	5.09
2.50113	5.09
2.51780	5.09
2.53447	5.09
2.55113	5.09
2.56780	5.09
2.58447	5.09
2.60113	5.09
2.61780	5.09
2.63447	5.09
2.65113	5.09
2.66780	5.09
2.68447	5.09
2.70113	5.09
2.71780	5.09
2.73447	5.09
2.75113	5.09
2.76780	5.09
2.78447	5.09
2.80113	5.09
2.81780	5.09
2.83447	5.09
2.85113	5.09
2.86780	5.09
2.88447	5.09
2.90113	5.09
2.91780	5.09
2.93447	5.09
2.95113	5.09
2.96780	5.09
2.98447	5.09
3.00113	5.09
3.01780	5.09
3.03447	5.09
3.05113	5.09
3.06780	5.09
3.08447	5.09
3.10113	5.09
3.11780	5.09
3.13447	5.09
3.15113	5.08
3.16780	5.08
3.18447	5.08
3.20113	5.08
3.21780	5.08
3.23447	5.08
3.25113	5.08
3.26780	5.08
3.28447	5.08
3.30113	5.08
3.31780	5.08
3.33447	5.08
3.35113	5.09
3.36780	5.09
3.38447	5.09
3.40113	5.09
3.41780	5.09
3.43447	5.09
3.45113	5.09
3.46780	5.09
3.48447	5.08
3.50113	5.08
3.51780	5.08
3.53447	5.08
3.55113	5.08
3.56780	5.08
3.58447	5.08
3.60113	5.08
3.61780	5.08
3.63447	5.08
3.65113	5.08
3.66780	5.08
3.68447	5.08
3.70113	5.09
3.71780	5.08
3.73447	5.08
3.75113	5.08
3.76780	5.08
3.78447	5.08
3.80113	5.08
3.81780	5.08
3.83447	5.08
3.85113	5.08
3.86780	5.08
3.88447	5.08
3.90113	5.08
3.91780	5.08
3.93447	5.08
3.95113	5.08
3.96780	5.08
3.98447	5.08

[Status Trace (Linear Velocity)]
Interval(msec)	1000
# of Points	240
Start Time(min)	0.001
End Time(min)	3.984
Intensity Units	
Intensity Multiplier	1
R.Time (min)	Intensity
0.00113	39.02
0.01780	38.13
0.03447	37.73
0.05113	39.24
0.06780	40.27
0.08447	39.34
0.10113	39.00
0.11780	39.02
0.13447	39.03
0.15113	39.02
0.16780	39.02
0.18447	39.02
0.20113	39.02
0.21780	39.02
0.23447	39.02
0.25113	39.02
0.26780	39.02
0.28447	39.02
0.30113	39.02
0.31780	39.02
0.33447	39.02
0.35113	39.02
0.36780	39.02
0.38447	39.02
0.40113	39.02
0.41780	39.02
0.43447	39.02
0.45113	39.02
0.46780	39.02
0.48447	39.02
0.50113	39.02
0.51780	39.02
0.53447	39.02
0.55113	39.02
0.56780	39.02
0.58447	39.02
0.60113	39.02
0.61780	39.02
0.63447	39.02
0.65113	39.02
0.66780	39.02
0.68447	39.02
0.70113	39.02
0.71780	39.02
0.73447	39.02
0.75113	39.02
0.76780	39.02
0.78447	39.02
0.80113	39.02
0.81780	39.02
0.83447	39.02
0.85113	39.02
0.86780	39.02
0.88447	39.02
0.90113	39.02
0.91780	39.01
0.93447	39.02
0.95113	39.02
0.96780	39.02
0.98447	39.02
1.00113	39.02
1.01780	39.02
1.03447	39.02
1.05113	39.02
1.06780	39.02
1.08447	39.02
1.10113	39.02
1.11780	39.02
1.13447	39.02
1.15113	39.02
1.16780	39.02
1.18447	39.02
1.20113	39.02
1.21780	39.02
1.23447	39.02
1.25113	39.02
1.26780	39.02
1.28447	39.02
1.30113	39.02
1.31780	39.02
1.33447	39.02
1.35113	39.02
1.36780	39.02
1.38447	39.02
1.40113	39.02
1.41780	39.02
1.43447	39.02
1.45113	39.02
1.46780	39.02
1.48447	39.02
1.50113	39.02
1.51780	39.02
1.53447	39.02
1.55113	39.02
1.56780	39.02
1.58447	39.02
1.60113	39.02
1.61780	39.01
1.63447	38.99
1.65113	38.97
1.66780	38.95
1.68447	38.91
1.70113	38.87
1.71780	38.84
1.73447	38.81
1.75113	38.78
1.76780	38.75
1.78447	38.71
1.80113	38.68
1.81780	38.65
1.83447	38.62
1.85113	38.59
1.86780	38.56
1.88447	38.53
1.90113	38.49
1.91780	38.47
1.93447	38.44
1.95113	38.40
1.96780	38.38
1.98447	38.35
2.00113	38.31
2.01780	38.29
2.03447	38.26
2.05113	38.23
2.06780	38.20
2.08447	38.17
2.10113	38.14
2.11780	38.11
2.13447	38.08
2.15113	38.05
2.16780	38.02
2.18447	37.99
2.20113	37.96
2.21780	37.93
2.23447	37.90
2.25113	37.87
2.26780	37.84
2.28447	37.81
2.30113	37.78
2.31780	37.75
2.33447	37.72
2.35113	37.69
2.36780	37.67
2.38447	37.66
2.40113	37.66
2.41780	37.66
2.43447	37.66
2.45113	37.66
2.46780	37.66
2.48447	37.66
2.50113	37.66
2.51780	37.65
2.53447	37.65
2.55113	37.65
2.56780	37.65
2.58447	37.65
2.60113	37.65
2.61780	37.65
2.63447	37.65
2.65113	37.65
2.66780	37.65
2.68447	37.65
2.70113	37.65
2.71780	37.65
2.73447	37.65
2.75113	37.65
2.76780	37.65
2.78447	37.64
2.80113	37.64
2.81780	37.64
2.83447	37.64
2.85113	37.64
2.86780	37.64
2.88447	37.64
2.90113	37.64
2.91780	37.64
2.93447	37.64
2.95113	37.64
2.96780	37.64
2.98447	37.64
3.00113	37.64
3.01780	37.64
3.03447	37.63
3.05113	37.63
3.06780	37.63
3.08447	37.63
3.10113	37.63
3.11780	37.63
3.13447	37.63
3.15113	37.63
3.16780	37.63
3.18447	37.63
3.20113	37.63
3.21780	37.63
3.23447	37.63
3.25113	37.63
3.26780	37.63
3.28447	37.63
3.30113	37.63
3.31780	37.63
3.33447	37.63
3.35113	37.63
3.36780	37.63
3.38447	37.63
3.40113	37.63
3.41780	37.63
3.43447	37.63
3.45113	37.63
3.46780	37.63
3.48447	37.63
3.50113	37.63
3.51780	37.63
3.53447	37.63
3.55113	37.63
3.56780	37.63
3.58447	37.63
3.60113	37.63
3.61780	37.63
3.63447	37.63
3.65113	37.63
3.66780	37.63
3.68447	37.63
3.70113	37.63
3.71780	37.63
3.73447	37.63
3.75113	37.63
3.76780	37.63
3.78447	37.63
3.80113	37.63
3.81780	37.63
3.83447	37.63
3.85113	37.63
3.86780	37.63
3.88447	37.63
3.90113	37.63
3.91780	37.63
3.93447	37.63
3.95113	37.63
3.96780	37.63
3.98447	37.63

