[Header]
Application Name	LabSolutions
Version	5.110
Data File Name	C:\Users\User\Desktop\GC Analyses\Jack\UIC Prairie Sampling\7.9.22\220909_090.gcd
Output Date	9/28/2022
Output Time	11:29:55 AM

[File Information]
Type	Data File
Generated	9/15/2022 3:31:06 PM
Generated by	System Administrator
Modified	9/15/2022 3:35:44 PM
Modified by	System Administrator

[Sample Information]
Operator Name	System Administrator
Acquired	9/15/2022 3:31:43 PM
Sample Type	1:Standard
Level	1
Sample Name	220909_Run
Sample ID	220909_Run
ISTD Amount1	1
ISTD Amount2	1
ISTD Amount3	1
ISTD Amount4	1
ISTD Amount5	1
ISTD Amount6	1
ISTD Amount7	1
ISTD Amount8	1
ISTD Amount9	1
ISTD Amount10	1
ISTD Amount11	1
ISTD Amount12	1
ISTD Amount13	1
ISTD Amount14	1
ISTD Amount15	1
ISTD Amount16	1
ISTD Amount17	1
ISTD Amount18	1
ISTD Amount19	1
ISTD Amount20	1
ISTD Amount21	1
ISTD Amount22	1
ISTD Amount23	1
ISTD Amount24	1
ISTD Amount25	1
ISTD Amount26	1
ISTD Amount27	1
ISTD Amount28	1
ISTD Amount29	1
ISTD Amount30	1
ISTD Amount31	1
ISTD Amount32	1
Sample Amount	1
Dilution Factor	1
Vial#	1
Injection Volume	1
Injection Count	1
Bar Code	

[Original Files]
Data File	C:\Users\User\Desktop\GC Analyses\Jack\220909\220909_090.gcd
Method File	C:\LabSolutions\Data\GHG_4min_2022\ghg3_togas_w_acet_4 min_new_int.gcm
Batch File	
Report Format File	c:\LabSolutions\System\DEFAULT.lsr

[File Description]


[Configuration]
Instrument Name	C0B7VH3-Instrument1
Instrument #	1
Line #	1
# of Detectors	3
Detector ID	DET#1	DET#2	DET#3
Detector Name	FID	PTCD	ECD
# of Channels	1	1	1

[Peak Table(Ch1)]
# of Peaks	3
Peak#	R.Time	I.Time	F.Time	Area	Height	A/H	Conc.	Mark	ID#	Name	k'	Plate #	Plate Ht.	Tailing	Resolution	Sep.Factor	Area Ratio	Height Ratio	Conc. %	Norm Conc.
1	1.468	1.428	1.534	7664	3022	2.536	100.000	   	1	CO	0.000	6726	22.302	1.477	0.000	0.000	0	0	16.667	16.667
2	1.567	1.534	1.641	19768	9970	1.983	100.000	 V 	2	CH4	0.067	11426	13.128	1.277	1.520	0.000	0	0	16.667	16.667
3	1.996	1.949	2.282	2171444	1061893	2.045	400.000	   	3	CO2	0.360	17421	8.610	1.231	7.201	5.333	0	0	66.667	66.667

[Peak Table(Ch2)]
# of Peaks	0

[Peak Table(Ch3)]
# of Peaks	3
Peak#	R.Time	I.Time	F.Time	Area	Height	A/H	Conc.	Mark	ID#	Name	k'	Plate #	Plate Ht.	Tailing	Resolution	Sep.Factor	Area Ratio	Height Ratio	Conc. %	Norm Conc.
1	2.209	2.088	2.323	105	14	7.641	0.000	   			0.000	2663	56.332	0.968	0.000	0.000	0	0	0.000	0.000
2	2.583	2.458	2.660	4460	561	7.949	0.000	   			0.169	3021	49.646	0.000	2.082	0.000	0	0	0.000	0.000
3	2.880	2.660	3.283	64079	14932	4.291	1.000	 V 	1	N2O	0.304	12072	12.426	1.619	2.029	1.794	0	0	100.000	100.000

[Compound Results(Ch1)]
# of IDs	6
ID#	Name	R.Time	Area	Height	Conc.	Curve	3rd	2nd	1st	Constant	Area Ratio	Height Ratio	Conc. %	Norm Conc.
1	CO	1.468	7664	3022	100.000	Linear	0.000000e+00	0.000000e+00	7.664326e+001	0.000000e+00	0	0	16.667	16.667
2	CH4	1.567	19768	9970	100.000	Linear	0.000000e+00	0.000000e+00	1.976793e+002	0.000000e+00	0	0	16.667	16.667
3	CO2	1.996	2171444	1061893	400.000	Linear	0.000000e+00	0.000000e+00	5.428609e+003	0.000000e+00	0	0	66.667	66.667
4	Ethylene	0.000	0	0	0.000	Linear	0.000000e+00	0.000000e+00	0.000000e+00	0.000000e+00	0	0	0.000	0.000
5	Acetylene	0.000	0	0	0.000	Linear	0.000000e+00	0.000000e+00	0.000000e+00	0.000000e+00	0	0	0.000	0.000
6	Ethane	0.000	0	0	0.000	Linear	0.000000e+00	0.000000e+00	0.000000e+00	0.000000e+00	0	0	0.000	0.000

[Compound Results(Ch2)]
# of IDs	5
ID#	Name	R.Time	Area	Height	Conc.	Curve	3rd	2nd	1st	Constant	Area Ratio	Height Ratio	Conc. %	Norm Conc.
1	Hydrogen	0.000	0	0	0.000	Linear	0.000000e+00	0.000000e+00	0.000000e+00	0.000000e+00	0	0	0.000	0.000
2	Oxygen	0.000	0	0	0.000	Linear	0.000000e+00	0.000000e+00	0.000000e+00	0.000000e+00	0	0	0.000	0.000
3	Nitrogen	0.000	0	0	0.000	Linear	0.000000e+00	0.000000e+00	0.000000e+00	0.000000e+00	0	0	0.000	0.000
4	Methane	0.000	0	0	0.000	Linear	0.000000e+00	0.000000e+00	0.000000e+00	0.000000e+00	0	0	0.000	0.000
5	Carbon Monoxide	0.000	0	0	0.000	Linear	0.000000e+00	0.000000e+00	0.000000e+00	0.000000e+00	0	0	0.000	0.000

[Compound Results(Ch3)]
# of IDs	2
ID#	Name	R.Time	Area	Height	Conc.	Curve	3rd	2nd	1st	Constant	Area Ratio	Height Ratio	Conc. %	Norm Conc.
1	N2O	2.880	64079	14932	1.000	Linear	0.000000e+00	0.000000e+00	6.407873e+004	0.000000e+00	0	0	100.000	100.000
2	SF6	0.000	0	0	0.000	Linear	0.000000e+00	0.000000e+00	0.000000e+00	0.000000e+00	0	0	0.000	0.000

[Group Results(Ch1)]
# of Groups	0

[Group Results(Ch2)]
# of Groups	0

[Group Results(Ch3)]
# of Groups	0

[Chromatogram (Ch1)]
Interval(msec)	220
# of Points	1091
Start Time(min)	0.002
End Time(min)	3.998
R.Time (min)	Intensity
0.00167	-21
0.00533	-17
0.00900	-13
0.01267	-12
0.01633	-12
0.02000	-10
0.02367	-5
0.02733	-3
0.03100	-3
0.03467	-2
0.03833	-4
0.04200	-8
0.04567	-12
0.04933	-14
0.05300	-16
0.05667	-18
0.06033	-18
0.06400	-14
0.06767	-7
0.07133	-1
0.07500	1
0.07867	-1
0.08233	-6
0.08600	-11
0.08967	-16
0.09333	-16
0.09700	-16
0.10067	-14
0.10433	-13
0.10800	-13
0.11167	-15
0.11533	-16
0.11900	-15
0.12267	-14
0.12633	-14
0.13000	-17
0.13367	-18
0.13733	-16
0.14100	-15
0.14467	-14
0.14833	-10
0.15200	-6
0.15567	-6
0.15933	-11
0.16300	-17
0.16667	-20
0.17033	-20
0.17400	-19
0.17767	-21
0.18133	-23
0.18500	-22
0.18867	-21
0.19233	-21
0.19600	-24
0.19967	-28
0.20333	-31
0.20700	-30
0.21067	-31
0.21433	-34
0.21800	-34
0.22167	-32
0.22533	-28
0.22900	-22
0.23267	-22
0.23633	-23
0.24000	-23
0.24367	-24
0.24733	-20
0.25100	-12
0.25467	-5
0.25833	-1
0.26200	1
0.26567	-0
0.26933	-5
0.27300	-9
0.27667	-12
0.28033	-15
0.28400	-17
0.28767	-18
0.29133	-15
0.29500	-13
0.29867	-12
0.30233	-12
0.30600	-10
0.30967	-9
0.31333	-14
0.31700	-28
0.32067	-44
0.32433	-52
0.32800	-53
0.33167	-52
0.33533	-51
0.33900	-48
0.34267	-43
0.34633	-35
0.35000	-29
0.35367	-29
0.35733	-35
0.36100	-38
0.36467	-37
0.36833	-29
0.37200	-21
0.37567	-17
0.37933	-16
0.38300	-18
0.38667	-20
0.39033	-23
0.39400	-24
0.39767	-25
0.40133	-27
0.40500	-29
0.40867	-33
0.41233	-38
0.41600	-42
0.41967	-44
0.42333	-40
0.42700	-35
0.43067	-32
0.43433	-32
0.43800	-32
0.44167	-32
0.44533	-31
0.44900	-28
0.45267	-26
0.45633	-24
0.46000	-24
0.46367	-28
0.46733	-33
0.47100	-37
0.47467	-39
0.47833	-41
0.48200	-43
0.48567	-44
0.48933	-44
0.49300	-41
0.49667	-39
0.50033	-38
0.50400	-36
0.50767	-38
0.51133	-41
0.51500	-43
0.51867	-44
0.52233	-42
0.52600	-40
0.52967	-37
0.53333	-35
0.53700	-32
0.54067	-31
0.54433	-31
0.54800	-33
0.55167	-37
0.55533	-42
0.55900	-48
0.56267	-54
0.56633	-60
0.57000	-60
0.57367	-57
0.57733	-52
0.58100	-48
0.58467	-46
0.58833	-47
0.59200	-50
0.59567	-52
0.59933	-51
0.60300	-50
0.60667	-48
0.61033	-47
0.61400	-46
0.61767	-47
0.62133	-50
0.62500	-52
0.62867	-50
0.63233	-46
0.63600	-41
0.63967	-34
0.64333	-27
0.64700	-24
0.65067	-24
0.65433	-26
0.65800	-31
0.66167	-38
0.66533	-38
0.66900	-39
0.67267	-44
0.67633	-49
0.68000	-52
0.68367	-55
0.68733	-60
0.69100	-65
0.69467	-70
0.69833	-72
0.70200	-69
0.70567	-62
0.70933	-56
0.71300	-53
0.71667	-53
0.72033	-55
0.72400	-57
0.72767	-56
0.73133	-53
0.73500	-49
0.73867	-46
0.74233	-48
0.74600	-54
0.74967	-62
0.75333	-68
0.75700	-70
0.76067	-72
0.76433	-76
0.76800	-79
0.77167	-79
0.77533	-76
0.77900	-71
0.78267	-63
0.78633	-53
0.79000	-43
0.79367	-43
0.79733	-49
0.80100	-55
0.80467	-56
0.80833	-57
0.81200	-57
0.81567	-59
0.81933	-62
0.82300	-64
0.82667	-66
0.83033	-68
0.83400	-72
0.83767	-75
0.84133	-76
0.84500	-76
0.84867	-75
0.85233	-72
0.85600	-73
0.85967	-73
0.86333	-72
0.86700	-72
0.87067	-71
0.87433	-72
0.87800	-69
0.88167	-59
0.88533	-53
0.88900	-55
0.89267	-57
0.89633	-56
0.90000	-57
0.90367	-72
0.90733	-88
0.91100	-96
0.91467	-94
0.91833	-90
0.92200	-88
0.92567	-85
0.92933	-85
0.93300	-87
0.93667	-85
0.94033	-80
0.94400	-79
0.94767	-82
0.95133	-85
0.95500	-85
0.95867	-83
0.96233	-82
0.96600	-81
0.96967	-78
0.97333	-75
0.97700	-73
0.98067	-72
0.98433	-70
0.98800	-69
0.99167	-73
0.99533	-80
0.99900	-87
1.00267	-95
1.00633	-100
1.01000	-102
1.01367	-100
1.01733	-97
1.02100	-92
1.02467	-86
1.02833	-81
1.03200	-79
1.03567	-76
1.03933	-75
1.04300	-76
1.04667	-79
1.05033	-84
1.05400	-90
1.05767	-96
1.06133	-97
1.06500	-93
1.06867	-86
1.07233	-80
1.07600	-80
1.07967	-82
1.08333	-88
1.08700	-98
1.09067	-109
1.09433	-114
1.09800	-114
1.10167	-109
1.10533	-102
1.10900	-92
1.11267	-86
1.11633	-86
1.12000	-90
1.12367	-94
1.12733	-99
1.13100	-106
1.13467	-114
1.13833	-116
1.14200	-114
1.14567	-112
1.14933	-111
1.15300	-110
1.15667	-109
1.16033	-106
1.16400	-101
1.16767	-96
1.17133	-88
1.17500	-79
1.17867	-72
1.18233	-73
1.18600	-84
1.18967	-100
1.19333	-118
1.19700	-132
1.20067	-141
1.20433	-141
1.20800	-133
1.21167	-121
1.21533	-107
1.21900	-101
1.22267	-104
1.22633	-109
1.23000	-110
1.23367	-106
1.23733	-102
1.24100	-100
1.24467	-107
1.24833	-119
1.25200	-129
1.25567	-129
1.25933	-127
1.26300	-125
1.26667	-125
1.27033	-122
1.27400	-120
1.27767	-120
1.28133	-122
1.28500	-123
1.28867	-119
1.29233	-117
1.29600	-117
1.29967	-117
1.30333	-115
1.30700	-113
1.31067	-110
1.31433	-110
1.31800	-113
1.32167	-113
1.32533	-116
1.32900	-122
1.33267	-124
1.33633	-122
1.34000	-117
1.34367	-113
1.34733	-111
1.35100	-111
1.35467	-110
1.35833	-106
1.36200	-100
1.36567	-96
1.36933	-95
1.37300	-98
1.37667	-104
1.38033	-108
1.38400	-110
1.38767	-112
1.39133	-116
1.39500	-119
1.39867	-118
1.40233	-118
1.40600	-121
1.40967	-124
1.41333	-126
1.41700	-127
1.42067	-127
1.42433	-125
1.42800	-118
1.43167	-111
1.43533	-100
1.43900	-59
1.44267	105
1.44633	493
1.45000	1051
1.45367	1640
1.45733	2152
1.46100	2535
1.46467	2782
1.46833	2895
1.47200	2884
1.47567	2763
1.47933	2547
1.48300	2255
1.48667	1916
1.49033	1564
1.49400	1228
1.49767	933
1.50133	688
1.50500	491
1.50867	333
1.51233	210
1.51600	116
1.51967	44
1.52333	-12
1.52700	-57
1.53067	-93
1.53433	-111
1.53800	-61
1.54167	232
1.54533	1050
1.54900	2526
1.55267	4435
1.55633	6364
1.56000	8002
1.56367	9191
1.56733	9821
1.57100	9759
1.57467	8951
1.57833	7563
1.58200	5927
1.58567	4358
1.58933	3043
1.59300	2038
1.59667	1316
1.60033	817
1.60400	483
1.60767	262
1.61133	118
1.61500	25
1.61867	-36
1.62233	-79
1.62600	-110
1.62967	-133
1.63333	-149
1.63700	-159
1.64067	-165
1.64433	-166
1.64800	-164
1.65167	-164
1.65533	-164
1.65900	-165
1.66267	-164
1.66633	-163
1.67000	-164
1.67367	-163
1.67733	-160
1.68100	-157
1.68467	-157
1.68833	-156
1.69200	-155
1.69567	-155
1.69933	-154
1.70300	-150
1.70667	-147
1.71033	-143
1.71400	-138
1.71767	-138
1.72133	-141
1.72500	-147
1.72867	-154
1.73233	-159
1.73600	-162
1.73967	-166
1.74333	-169
1.74700	-166
1.75067	-162
1.75433	-156
1.75800	-153
1.76167	-150
1.76533	-151
1.76900	-153
1.77267	-153
1.77633	-150
1.78000	-145
1.78367	-139
1.78733	-132
1.79100	-127
1.79467	-124
1.79833	-126
1.80200	-132
1.80567	-141
1.80933	-148
1.81300	-155
1.81667	-159
1.82033	-163
1.82400	-161
1.82767	-159
1.83133	-157
1.83500	-156
1.83867	-152
1.84233	-147
1.84600	-145
1.84967	-145
1.85333	-146
1.85700	-146
1.86067	-142
1.86433	-133
1.86800	-123
1.87167	-118
1.87533	-120
1.87900	-124
1.88267	-126
1.88633	-129
1.89000	-131
1.89367	-135
1.89733	-140
1.90100	-148
1.90467	-156
1.90833	-162
1.91200	-163
1.91567	-159
1.91933	-154
1.92300	-148
1.92667	-142
1.93033	-134
1.93400	-126
1.93767	-121
1.94133	-120
1.94500	-124
1.94867	-127
1.95233	-102
1.95600	127
1.95967	1443
1.96333	7251
1.96700	26744
1.97067	77060
1.97433	177566
1.97800	334644
1.98167	531151
1.98533	732912
1.98900	904482
1.99267	1019187
1.99633	1061799
2.00000	1028921
2.00367	930424
2.00733	787781
2.01100	627946
2.01467	475032
2.01833	344434
2.02200	241891
2.02567	166195
2.02933	112723
2.03300	76078
2.03667	51457
2.04033	35104
2.04400	24295
2.04767	17141
2.05133	12377
2.05500	9170
2.05867	6977
2.06233	5445
2.06600	4355
2.06967	3562
2.07333	2970
2.07700	2519
2.08067	2166
2.08433	1886
2.08800	1661
2.09167	1477
2.09533	1324
2.09900	1199
2.10267	1099
2.10633	1013
2.11000	935
2.11367	861
2.11733	794
2.12100	738
2.12467	692
2.12833	651
2.13200	614
2.13567	580
2.13933	550
2.14300	523
2.14667	497
2.15033	471
2.15400	448
2.15767	428
2.16133	409
2.16500	390
2.16867	372
2.17233	361
2.17600	353
2.17967	346
2.18333	336
2.18700	321
2.19067	304
2.19433	285
2.19800	267
2.20167	251
2.20533	242
2.20900	240
2.21267	239
2.21633	237
2.22000	232
2.22367	224
2.22733	213
2.23100	202
2.23467	191
2.23833	179
2.24200	169
2.24567	161
2.24933	153
2.25300	141
2.25667	130
2.26033	121
2.26400	116
2.26767	116
2.27133	119
2.27500	118
2.27867	112
2.28233	107
2.28600	103
2.28967	100
2.29333	100
2.29700	100
2.30067	99
2.30433	99
2.30800	102
2.31167	104
2.31533	104
2.31900	106
2.32267	108
2.32633	110
2.33000	111
2.33367	107
2.33733	100
2.34100	93
2.34467	89
2.34833	88
2.35200	86
2.35567	80
2.35933	73
2.36300	68
2.36667	69
2.37033	73
2.37400	79
2.37767	83
2.38133	82
2.38500	78
2.38867	73
2.39233	68
2.39600	60
2.39967	54
2.40333	50
2.40700	46
2.41067	43
2.41433	40
2.41800	38
2.42167	39
2.42533	41
2.42900	43
2.43267	40
2.43633	38
2.44000	38
2.44367	38
2.44733	35
2.45100	29
2.45467	25
2.45833	22
2.46200	21
2.46567	21
2.46933	24
2.47300	28
2.47667	32
2.48033	33
2.48400	28
2.48767	21
2.49133	16
2.49500	16
2.49867	19
2.50233	22
2.50600	22
2.50967	18
2.51333	14
2.51700	13
2.52067	14
2.52433	18
2.52800	17
2.53167	10
2.53533	-0
2.53900	-11
2.54267	-13
2.54633	-12
2.55000	-12
2.55367	-14
2.55733	-14
2.56100	-9
2.56467	-5
2.56833	-6
2.57200	-8
2.57567	-8
2.57933	-6
2.58300	-3
2.58667	-2
2.59033	-1
2.59400	-0
2.59767	-4
2.60133	-10
2.60500	-17
2.60867	-26
2.61233	-31
2.61600	-33
2.61967	-35
2.62333	-35
2.62700	-35
2.63067	-34
2.63433	-34
2.63800	-34
2.64167	-35
2.64533	-36
2.64900	-33
2.65267	-26
2.65633	-19
2.66000	-14
2.66367	-14
2.66733	-16
2.67100	-16
2.67467	-16
2.67833	-19
2.68200	-24
2.68567	-27
2.68933	-27
2.69300	-28
2.69667	-31
2.70033	-35
2.70400	-41
2.70767	-48
2.71133	-51
2.71500	-49
2.71867	-46
2.72233	-47
2.72600	-48
2.72967	-48
2.73333	-46
2.73700	-44
2.74067	-42
2.74433	-39
2.74800	-41
2.75167	-47
2.75533	-52
2.75900	-55
2.76267	-57
2.76633	-58
2.77000	-59
2.77367	-58
2.77733	-55
2.78100	-51
2.78467	-48
2.78833	-48
2.79200	-52
2.79567	-56
2.79933	-59
2.80300	-61
2.80667	-60
2.81033	-59
2.81400	-59
2.81767	-56
2.82133	-49
2.82500	-42
2.82867	-40
2.83233	-41
2.83600	-45
2.83967	-54
2.84333	-64
2.84700	-71
2.85067	-76
2.85433	-78
2.85800	-77
2.86167	-74
2.86533	-72
2.86900	-70
2.87267	-66
2.87633	-63
2.88000	-61
2.88367	-57
2.88733	-53
2.89100	-51
2.89467	-52
2.89833	-56
2.90200	-59
2.90567	-60
2.90933	-61
2.91300	-63
2.91667	-65
2.92033	-67
2.92400	-70
2.92767	-74
2.93133	-75
2.93500	-75
2.93867	-74
2.94233	-74
2.94600	-76
2.94967	-77
2.95333	-77
2.95700	-72
2.96067	-68
2.96433	-67
2.96800	-73
2.97167	-78
2.97533	-77
2.97900	-70
2.98267	-62
2.98633	-58
2.99000	-58
2.99367	-61
2.99733	-64
3.00100	-62
3.00467	-58
3.00833	-56
3.01200	-58
3.01567	-64
3.01933	-69
3.02300	-69
3.02667	-68
3.03033	-73
3.03400	-79
3.03767	-86
3.04133	-89
3.04500	-86
3.04867	-80
3.05233	-78
3.05600	-75
3.05967	-70
3.06333	-68
3.06700	-67
3.07067	-67
3.07433	-71
3.07800	-78
3.08167	-84
3.08533	-85
3.08900	-82
3.09267	-79
3.09633	-78
3.10000	-80
3.10367	-84
3.10733	-88
3.11100	-89
3.11467	-87
3.11833	-84
3.12200	-82
3.12567	-81
3.12933	-76
3.13300	-71
3.13667	-66
3.14033	-64
3.14400	-68
3.14767	-75
3.15133	-80
3.15500	-83
3.15867	-87
3.16233	-92
3.16600	-95
3.16967	-96
3.17333	-100
3.17700	-101
3.18067	-101
3.18433	-99
3.18800	-95
3.19167	-90
3.19533	-86
3.19900	-82
3.20267	-79
3.20633	-77
3.21000	-75
3.21367	-70
3.21733	-63
3.22100	-59
3.22467	-60
3.22833	-64
3.23200	-69
3.23567	-70
3.23933	-72
3.24300	-78
3.24667	-83
3.25033	-86
3.25400	-85
3.25767	-84
3.26133	-86
3.26500	-91
3.26867	-96
3.27233	-98
3.27600	-97
3.27967	-95
3.28333	-93
3.28700	-93
3.29067	-92
3.29433	-84
3.29800	-77
3.30167	-75
3.30533	-73
3.30900	-70
3.31267	-66
3.31633	-65
3.32000	-67
3.32367	-72
3.32733	-76
3.33100	-79
3.33467	-80
3.33833	-80
3.34200	-76
3.34567	-71
3.34933	-69
3.35300	-74
3.35667	-79
3.36033	-82
3.36400	-83
3.36767	-84
3.37133	-84
3.37500	-84
3.37867	-84
3.38233	-84
3.38600	-82
3.38967	-82
3.39333	-84
3.39700	-87
3.40067	-91
3.40433	-92
3.40800	-94
3.41167	-89
3.41533	-80
3.41900	-72
3.42267	-68
3.42633	-70
3.43000	-76
3.43367	-83
3.43733	-88
3.44100	-92
3.44467	-90
3.44833	-86
3.45200	-82
3.45567	-79
3.45933	-78
3.46300	-79
3.46667	-86
3.47033	-92
3.47400	-96
3.47767	-94
3.48133	-87
3.48500	-79
3.48867	-75
3.49233	-76
3.49600	-81
3.49967	-86
3.50333	-91
3.50700	-93
3.51067	-96
3.51433	-100
3.51800	-101
3.52167	-100
3.52533	-100
3.52900	-99
3.53267	-94
3.53633	-89
3.54000	-86
3.54367	-85
3.54733	-81
3.55100	-77
3.55467	-79
3.55833	-80
3.56200	-80
3.56567	-75
3.56933	-68
3.57300	-67
3.57667	-70
3.58033	-78
3.58400	-85
3.58767	-92
3.59133	-95
3.59500	-96
3.59867	-89
3.60233	-76
3.60600	-63
3.60967	-59
3.61333	-64
3.61700	-73
3.62067	-80
3.62433	-85
3.62800	-89
3.63167	-91
3.63533	-92
3.63900	-91
3.64267	-87
3.64633	-82
3.65000	-76
3.65367	-73
3.65733	-74
3.66100	-75
3.66467	-77
3.66833	-81
3.67200	-82
3.67567	-80
3.67933	-78
3.68300	-78
3.68667	-80
3.69033	-84
3.69400	-89
3.69767	-95
3.70133	-96
3.70500	-91
3.70867	-85
3.71233	-82
3.71600	-81
3.71967	-79
3.72333	-73
3.72700	-68
3.73067	-65
3.73433	-66
3.73800	-68
3.74167	-71
3.74533	-73
3.74900	-75
3.75267	-78
3.75633	-78
3.76000	-81
3.76367	-84
3.76733	-86
3.77100	-88
3.77467	-86
3.77833	-81
3.78200	-75
3.78567	-70
3.78933	-67
3.79300	-67
3.79667	-67
3.80033	-64
3.80400	-61
3.80767	-60
3.81133	-63
3.81500	-73
3.81867	-69
3.82233	-69
3.82600	-72
3.82967	-76
3.83333	-81
3.83700	-86
3.84067	-88
3.84433	-88
3.84800	-91
3.85167	-95
3.85533	-99
3.85900	-99
3.86267	-95
3.86633	-91
3.87000	-85
3.87367	-82
3.87733	-82
3.88100	-85
3.88467	-91
3.88833	-92
3.89200	-85
3.89567	-78
3.89933	-75
3.90300	-85
3.90667	-102
3.91033	-105
3.91400	-100
3.91767	-96
3.92133	-93
3.92500	-87
3.92867	-80
3.93233	-72
3.93600	-66
3.93967	-63
3.94333	-69
3.94700	-78
3.95067	-86
3.95433	-90
3.95800	-91
3.96167	-93
3.96533	-95
3.96900	-99
3.97267	-104
3.97633	-108
3.98000	-108
3.98367	-108
3.98733	-104
3.99100	-97
3.99467	-94
3.99833	-94

[Chromatogram (Ch2)]
Interval(msec)	220
# of Points	1091
Start Time(min)	0.002
End Time(min)	3.998
R.Time (min)	Intensity
0.00167	1
0.00533	2
0.00900	2
0.01267	3
0.01633	3
0.02000	4
0.02367	4
0.02733	4
0.03100	5
0.03467	5
0.03833	5
0.04200	5
0.04567	6
0.04933	6
0.05300	6
0.05667	7
0.06033	7
0.06400	7
0.06767	8
0.07133	8
0.07500	7
0.07867	7
0.08233	7
0.08600	7
0.08967	7
0.09333	7
0.09700	7
0.10067	7
0.10433	7
0.10800	8
0.11167	8
0.11533	8
0.11900	8
0.12267	7
0.12633	7
0.13000	6
0.13367	6
0.13733	5
0.14100	5
0.14467	4
0.14833	4
0.15200	3
0.15567	3
0.15933	3
0.16300	3
0.16667	3
0.17033	4
0.17400	4
0.17767	4
0.18133	4
0.18500	4
0.18867	4
0.19233	4
0.19600	4
0.19967	4
0.20333	3
0.20700	3
0.21067	3
0.21433	3
0.21800	3
0.22167	3
0.22533	2
0.22900	2
0.23267	2
0.23633	2
0.24000	2
0.24367	1
0.24733	1
0.25100	1
0.25467	1
0.25833	1
0.26200	0
0.26567	0
0.26933	-0
0.27300	-1
0.27667	-1
0.28033	-2
0.28400	-2
0.28767	-2
0.29133	-2
0.29500	-2
0.29867	-2
0.30233	-2
0.30600	-2
0.30967	-2
0.31333	-2
0.31700	-2
0.32067	-2
0.32433	-2
0.32800	-2
0.33167	-2
0.33533	-2
0.33900	-2
0.34267	-2
0.34633	-2
0.35000	-1
0.35367	-1
0.35733	-1
0.36100	-0
0.36467	-0
0.36833	0
0.37200	0
0.37567	0
0.37933	0
0.38300	0
0.38667	0
0.39033	0
0.39400	1
0.39767	1
0.40133	1
0.40500	1
0.40867	1
0.41233	1
0.41600	1
0.41967	1
0.42333	1
0.42700	1
0.43067	2
0.43433	2
0.43800	2
0.44167	3
0.44533	3
0.44900	3
0.45267	3
0.45633	3
0.46000	3
0.46367	3
0.46733	3
0.47100	3
0.47467	3
0.47833	3
0.48200	3
0.48567	3
0.48933	3
0.49300	3
0.49667	3
0.50033	2
0.50400	2
0.50767	2
0.51133	1
0.51500	1
0.51867	0
0.52233	-0
0.52600	-1
0.52967	-2
0.53333	-2
0.53700	-2
0.54067	-3
0.54433	-3
0.54800	-3
0.55167	-3
0.55533	-3
0.55900	-3
0.56267	-2
0.56633	-2
0.57000	-1
0.57367	-1
0.57733	-0
0.58100	0
0.58467	1
0.58833	1
0.59200	1
0.59567	2
0.59933	2
0.60300	2
0.60667	2
0.61033	2
0.61400	2
0.61767	2
0.62133	2
0.62500	2
0.62867	2
0.63233	2
0.63600	1
0.63967	1
0.64333	1
0.64700	1
0.65067	1
0.65433	2
0.65800	2
0.66167	2
0.66533	2
0.66900	2
0.67267	2
0.67633	2
0.68000	2
0.68367	2
0.68733	1
0.69100	1
0.69467	1
0.69833	1
0.70200	1
0.70567	0
0.70933	0
0.71300	-0
0.71667	-0
0.72033	-0
0.72400	-1
0.72767	-1
0.73133	-1
0.73500	-1
0.73867	-1
0.74233	-0
0.74600	-0
0.74967	0
0.75333	0
0.75700	0
0.76067	-0
0.76433	-0
0.76800	-0
0.77167	-0
0.77533	-0
0.77900	-0
0.78267	-1
0.78633	-1
0.79000	-1
0.79367	-1
0.79733	-1
0.80100	-2
0.80467	-2
0.80833	-2
0.81200	-2
0.81567	-2
0.81933	-2
0.82300	-2
0.82667	-2
0.83033	-2
0.83400	-2
0.83767	-1
0.84133	-1
0.84500	-1
0.84867	-1
0.85233	-1
0.85600	-1
0.85967	-0
0.86333	-0
0.86700	-0
0.87067	-0
0.87433	0
0.87800	0
0.88167	0
0.88533	1
0.88900	1
0.89267	1
0.89633	1
0.90000	2
0.90367	2
0.90733	2
0.91100	2
0.91467	2
0.91833	2
0.92200	2
0.92567	2
0.92933	2
0.93300	1
0.93667	1
0.94033	0
0.94400	0
0.94767	-0
0.95133	-1
0.95500	-1
0.95867	-1
0.96233	-1
0.96600	-1
0.96967	-1
0.97333	-1
0.97700	-1
0.98067	-1
0.98433	-0
0.98800	-0
0.99167	0
0.99533	0
0.99900	0
1.00267	0
1.00633	0
1.01000	0
1.01367	0
1.01733	1
1.02100	0
1.02467	0
1.02833	0
1.03200	0
1.03567	0
1.03933	-0
1.04300	-0
1.04667	-0
1.05033	-1
1.05400	-1
1.05767	-1
1.06133	-1
1.06500	-1
1.06867	-1
1.07233	-1
1.07600	-1
1.07967	-0
1.08333	-0
1.08700	-0
1.09067	-1
1.09433	-1
1.09800	-1
1.10167	-1
1.10533	-2
1.10900	-2
1.11267	-2
1.11633	-2
1.12000	-2
1.12367	-2
1.12733	-2
1.13100	-2
1.13467	-2
1.13833	-2
1.14200	-2
1.14567	-2
1.14933	-2
1.15300	-2
1.15667	-2
1.16033	-1
1.16400	-1
1.16767	-1
1.17133	-1
1.17500	-1
1.17867	-0
1.18233	-0
1.18600	-1
1.18967	-1
1.19333	-1
1.19700	-1
1.20067	-1
1.20433	-1
1.20800	-1
1.21167	-1
1.21533	-1
1.21900	-1
1.22267	-1
1.22633	-1
1.23000	-1
1.23367	-2
1.23733	-2
1.24100	-2
1.24467	-2
1.24833	-2
1.25200	-2
1.25567	-2
1.25933	-2
1.26300	-3
1.26667	-3
1.27033	-2
1.27400	-2
1.27767	-2
1.28133	-2
1.28500	-2
1.28867	-2
1.29233	-2
1.29600	-1
1.29967	-1
1.30333	-1
1.30700	-0
1.31067	-0
1.31433	0
1.31800	0
1.32167	0
1.32533	0
1.32900	0
1.33267	0
1.33633	0
1.34000	0
1.34367	1
1.34733	1
1.35100	0
1.35467	0
1.35833	0
1.36200	-0
1.36567	-0
1.36933	-0
1.37300	-0
1.37667	-0
1.38033	-1
1.38400	-0
1.38767	-0
1.39133	-1
1.39500	-1
1.39867	-1
1.40233	-1
1.40600	-1
1.40967	-1
1.41333	-1
1.41700	-1
1.42067	-2
1.42433	-2
1.42800	-2
1.43167	-2
1.43533	-3
1.43900	-3
1.44267	-3
1.44633	-3
1.45000	-3
1.45367	-3
1.45733	-3
1.46100	-2
1.46467	-2
1.46833	-2
1.47200	-2
1.47567	-2
1.47933	-2
1.48300	-2
1.48667	-2
1.49033	-2
1.49400	-2
1.49767	-1
1.50133	-2
1.50500	-2
1.50867	-2
1.51233	-2
1.51600	-1
1.51967	-1
1.52333	-1
1.52700	-1
1.53067	-1
1.53433	-0
1.53800	-0
1.54167	-0
1.54533	-0
1.54900	-0
1.55267	-0
1.55633	-0
1.56000	-0
1.56367	-0
1.56733	-1
1.57100	-1
1.57467	-1
1.57833	-1
1.58200	-1
1.58567	-2
1.58933	-2
1.59300	-2
1.59667	-3
1.60033	-4
1.60400	-5
1.60767	-6
1.61133	-8
1.61500	-10
1.61867	-12
1.62233	-15
1.62600	-18
1.62967	-21
1.63333	-24
1.63700	-27
1.64067	-31
1.64433	-34
1.64800	-38
1.65167	-41
1.65533	-45
1.65900	-49
1.66267	-53
1.66633	-57
1.67000	-62
1.67367	-67
1.67733	-71
1.68100	-76
1.68467	-81
1.68833	-86
1.69200	-91
1.69567	-95
1.69933	-98
1.70300	-101
1.70667	-104
1.71033	-106
1.71400	-108
1.71767	-110
1.72133	-110
1.72500	-111
1.72867	-112
1.73233	-112
1.73600	-112
1.73967	-113
1.74333	-114
1.74700	-115
1.75067	-115
1.75433	-116
1.75800	-116
1.76167	-116
1.76533	-116
1.76900	-116
1.77267	-116
1.77633	-116
1.78000	-116
1.78367	-117
1.78733	-118
1.79100	-119
1.79467	-119
1.79833	-120
1.80200	-120
1.80567	-121
1.80933	-122
1.81300	-122
1.81667	-122
1.82033	-123
1.82400	-123
1.82767	-123
1.83133	-123
1.83500	-123
1.83867	-122
1.84233	-121
1.84600	-120
1.84967	-119
1.85333	-117
1.85700	-117
1.86067	-116
1.86433	-117
1.86800	-117
1.87167	-118
1.87533	-119
1.87900	-120
1.88267	-121
1.88633	-121
1.89000	-121
1.89367	-121
1.89733	-121
1.90100	-121
1.90467	-121
1.90833	-120
1.91200	-120
1.91567	-120
1.91933	-119
1.92300	-119
1.92667	-118
1.93033	-118
1.93400	-117
1.93767	-117
1.94133	-117
1.94500	-118
1.94867	-118
1.95233	-118
1.95600	-118
1.95967	-118
1.96333	-118
1.96700	-118
1.97067	-119
1.97433	-119
1.97800	-118
1.98167	-118
1.98533	-118
1.98900	-118
1.99267	-119
1.99633	-119
2.00000	-119
2.00367	-119
2.00733	-119
2.01100	-118
2.01467	-117
2.01833	-116
2.02200	-115
2.02567	-113
2.02933	-112
2.03300	-111
2.03667	-110
2.04033	-110
2.04400	-110
2.04767	-109
2.05133	-109
2.05500	-109
2.05867	-109
2.06233	-109
2.06600	-109
2.06967	-109
2.07333	-109
2.07700	-108
2.08067	-107
2.08433	-106
2.08800	-105
2.09167	-104
2.09533	-103
2.09900	-103
2.10267	-103
2.10633	-103
2.11000	-104
2.11367	-104
2.11733	-104
2.12100	-104
2.12467	-104
2.12833	-104
2.13200	-104
2.13567	-104
2.13933	-104
2.14300	-104
2.14667	-105
2.15033	-104
2.15400	-104
2.15767	-104
2.16133	-103
2.16500	-103
2.16867	-102
2.17233	-101
2.17600	-101
2.17967	-101
2.18333	-100
2.18700	-100
2.19067	-99
2.19433	-99
2.19800	-98
2.20167	-97
2.20533	-97
2.20900	-96
2.21267	-96
2.21633	-96
2.22000	-96
2.22367	-97
2.22733	-98
2.23100	-98
2.23467	-98
2.23833	-98
2.24200	-98
2.24567	-98
2.24933	-98
2.25300	-97
2.25667	-97
2.26033	-96
2.26400	-96
2.26767	-95
2.27133	-94
2.27500	-93
2.27867	-93
2.28233	-92
2.28600	-92
2.28967	-92
2.29333	-92
2.29700	-91
2.30067	-91
2.30433	-91
2.30800	-90
2.31167	-90
2.31533	-89
2.31900	-88
2.32267	-88
2.32633	-88
2.33000	-88
2.33367	-88
2.33733	-88
2.34100	-88
2.34467	-88
2.34833	-87
2.35200	-86
2.35567	-86
2.35933	-85
2.36300	-84
2.36667	-84
2.37033	-83
2.37400	-81
2.37767	-79
2.38133	-76
2.38500	-73
2.38867	-70
2.39233	-66
2.39600	-61
2.39967	-56
2.40333	-52
2.40700	-47
2.41067	-42
2.41433	-38
2.41800	-34
2.42167	-30
2.42533	-27
2.42900	-24
2.43267	-22
2.43633	-19
2.44000	-17
2.44367	-15
2.44733	-12
2.45100	-10
2.45467	-8
2.45833	-6
2.46200	-5
2.46567	-3
2.46933	-2
2.47300	-1
2.47667	0
2.48033	2
2.48400	3
2.48767	3
2.49133	4
2.49500	5
2.49867	5
2.50233	5
2.50600	6
2.50967	6
2.51333	7
2.51700	8
2.52067	9
2.52433	10
2.52800	11
2.53167	12
2.53533	12
2.53900	13
2.54267	13
2.54633	13
2.55000	13
2.55367	13
2.55733	13
2.56100	14
2.56467	14
2.56833	15
2.57200	15
2.57567	15
2.57933	16
2.58300	16
2.58667	16
2.59033	17
2.59400	17
2.59767	18
2.60133	19
2.60500	19
2.60867	19
2.61233	20
2.61600	20
2.61967	20
2.62333	20
2.62700	21
2.63067	21
2.63433	22
2.63800	22
2.64167	22
2.64533	23
2.64900	23
2.65267	24
2.65633	24
2.66000	24
2.66367	24
2.66733	24
2.67100	24
2.67467	24
2.67833	24
2.68200	24
2.68567	24
2.68933	24
2.69300	24
2.69667	24
2.70033	24
2.70400	24
2.70767	24
2.71133	24
2.71500	25
2.71867	25
2.72233	25
2.72600	25
2.72967	25
2.73333	25
2.73700	26
2.74067	26
2.74433	26
2.74800	26
2.75167	26
2.75533	26
2.75900	26
2.76267	26
2.76633	26
2.77000	26
2.77367	26
2.77733	26
2.78100	27
2.78467	27
2.78833	27
2.79200	27
2.79567	27
2.79933	27
2.80300	27
2.80667	26
2.81033	26
2.81400	26
2.81767	26
2.82133	26
2.82500	26
2.82867	25
2.83233	25
2.83600	24
2.83967	23
2.84333	22
2.84700	18
2.85067	13
2.85433	4
2.85800	-8
2.86167	-25
2.86533	-46
2.86900	-72
2.87267	-104
2.87633	-141
2.88000	-184
2.88367	-231
2.88733	-283
2.89100	-339
2.89467	-400
2.89833	-464
2.90200	-532
2.90567	-602
2.90933	-676
2.91300	-751
2.91667	-829
2.92033	-909
2.92400	-991
2.92767	-1074
2.93133	-1158
2.93500	-1245
2.93867	-1332
2.94233	-1416
2.94600	-1485
2.94967	-1526
2.95333	-1533
2.95700	-1504
2.96067	-1445
2.96433	-1362
2.96800	-1262
2.97167	-1154
2.97533	-1043
2.97900	-933
2.98267	-828
2.98633	-729
2.99000	-638
2.99367	-555
2.99733	-481
3.00100	-415
3.00467	-357
3.00833	-307
3.01200	-262
3.01567	-224
3.01933	-191
3.02300	-162
3.02667	-137
3.03033	-116
3.03400	-97
3.03767	-82
3.04133	-68
3.04500	-56
3.04867	-46
3.05233	-37
3.05600	-30
3.05967	-24
3.06333	-18
3.06700	-14
3.07067	-10
3.07433	-7
3.07800	-4
3.08167	-1
3.08533	1
3.08900	3
3.09267	4
3.09633	6
3.10000	7
3.10367	8
3.10733	9
3.11100	10
3.11467	11
3.11833	12
3.12200	13
3.12567	13
3.12933	14
3.13300	15
3.13667	15
3.14033	15
3.14400	16
3.14767	16
3.15133	16
3.15500	16
3.15867	16
3.16233	17
3.16600	17
3.16967	17
3.17333	17
3.17700	18
3.18067	18
3.18433	18
3.18800	18
3.19167	19
3.19533	19
3.19900	19
3.20267	20
3.20633	20
3.21000	20
3.21367	21
3.21733	21
3.22100	22
3.22467	22
3.22833	23
3.23200	24
3.23567	24
3.23933	25
3.24300	25
3.24667	26
3.25033	26
3.25400	26
3.25767	26
3.26133	27
3.26500	27
3.26867	27
3.27233	27
3.27600	28
3.27967	28
3.28333	28
3.28700	29
3.29067	29
3.29433	29
3.29800	29
3.30167	29
3.30533	28
3.30900	28
3.31267	28
3.31633	27
3.32000	27
3.32367	27
3.32733	26
3.33100	26
3.33467	26
3.33833	26
3.34200	26
3.34567	26
3.34933	26
3.35300	26
3.35667	26
3.36033	26
3.36400	27
3.36767	27
3.37133	27
3.37500	27
3.37867	27
3.38233	28
3.38600	28
3.38967	28
3.39333	28
3.39700	27
3.40067	27
3.40433	27
3.40800	27
3.41167	27
3.41533	27
3.41900	27
3.42267	27
3.42633	27
3.43000	27
3.43367	27
3.43733	26
3.44100	26
3.44467	26
3.44833	27
3.45200	27
3.45567	27
3.45933	27
3.46300	27
3.46667	26
3.47033	26
3.47400	26
3.47767	26
3.48133	26
3.48500	26
3.48867	27
3.49233	27
3.49600	27
3.49967	27
3.50333	27
3.50700	27
3.51067	27
3.51433	27
3.51800	27
3.52167	27
3.52533	27
3.52900	27
3.53267	27
3.53633	27
3.54000	27
3.54367	27
3.54733	27
3.55100	27
3.55467	27
3.55833	26
3.56200	26
3.56567	26
3.56933	25
3.57300	25
3.57667	25
3.58033	25
3.58400	26
3.58767	26
3.59133	26
3.59500	26
3.59867	27
3.60233	27
3.60600	27
3.60967	27
3.61333	27
3.61700	28
3.62067	28
3.62433	28
3.62800	28
3.63167	28
3.63533	29
3.63900	29
3.64267	29
3.64633	29
3.65000	29
3.65367	30
3.65733	30
3.66100	30
3.66467	30
3.66833	30
3.67200	30
3.67567	30
3.67933	30
3.68300	30
3.68667	30
3.69033	30
3.69400	30
3.69767	29
3.70133	29
3.70500	29
3.70867	28
3.71233	28
3.71600	28
3.71967	28
3.72333	28
3.72700	27
3.73067	27
3.73433	27
3.73800	27
3.74167	27
3.74533	27
3.74900	27
3.75267	27
3.75633	27
3.76000	27
3.76367	27
3.76733	27
3.77100	26
3.77467	26
3.77833	26
3.78200	26
3.78567	26
3.78933	26
3.79300	26
3.79667	26
3.80033	26
3.80400	26
3.80767	27
3.81133	27
3.81500	27
3.81867	27
3.82233	27
3.82600	27
3.82967	28
3.83333	28
3.83700	28
3.84067	28
3.84433	28
3.84800	28
3.85167	28
3.85533	28
3.85900	28
3.86267	28
3.86633	28
3.87000	27
3.87367	27
3.87733	28
3.88100	28
3.88467	28
3.88833	28
3.89200	29
3.89567	29
3.89933	29
3.90300	29
3.90667	29
3.91033	29
3.91400	29
3.91767	29
3.92133	29
3.92500	29
3.92867	30
3.93233	30
3.93600	30
3.93967	30
3.94333	30
3.94700	30
3.95067	30
3.95433	30
3.95800	30
3.96167	30
3.96533	30
3.96900	30
3.97267	30
3.97633	30
3.98000	30
3.98367	30
3.98733	30
3.99100	30
3.99467	29
3.99833	29

[Chromatogram (Ch3)]
Interval(msec)	220
# of Points	1091
Start Time(min)	0.002
End Time(min)	3.998
R.Time (min)	Intensity
0.00167	-1
0.00533	-2
0.00900	-1
0.01267	-1
0.01633	-1
0.02000	-2
0.02367	-2
0.02733	0
0.03100	0
0.03467	-0
0.03833	1
0.04200	1
0.04567	1
0.04933	-2
0.05300	-4
0.05667	-4
0.06033	-4
0.06400	-3
0.06767	0
0.07133	3
0.07500	4
0.07867	3
0.08233	1
0.08600	-1
0.08967	-3
0.09333	-2
0.09700	-0
0.10067	-1
0.10433	-1
0.10800	-1
0.11167	-2
0.11533	-4
0.11900	-2
0.12267	-0
0.12633	1
0.13000	-0
0.13367	-4
0.13733	-4
0.14100	-2
0.14467	-2
0.14833	-3
0.15200	-2
0.15567	-1
0.15933	1
0.16300	1
0.16667	2
0.17033	3
0.17400	3
0.17767	2
0.18133	1
0.18500	1
0.18867	1
0.19233	-1
0.19600	0
0.19967	1
0.20333	1
0.20700	3
0.21067	2
0.21433	1
0.21800	-0
0.22167	1
0.22533	1
0.22900	2
0.23267	3
0.23633	3
0.24000	3
0.24367	2
0.24733	-2
0.25100	-3
0.25467	-2
0.25833	1
0.26200	4
0.26567	5
0.26933	5
0.27300	3
0.27667	2
0.28033	-0
0.28400	1
0.28767	1
0.29133	0
0.29500	1
0.29867	4
0.30233	4
0.30600	2
0.30967	1
0.31333	0
0.31700	1
0.32067	5
0.32433	5
0.32800	5
0.33167	5
0.33533	4
0.33900	4
0.34267	6
0.34633	7
0.35000	7
0.35367	6
0.35733	5
0.36100	6
0.36467	4
0.36833	4
0.37200	5
0.37567	5
0.37933	4
0.38300	4
0.38667	6
0.39033	6
0.39400	6
0.39767	8
0.40133	10
0.40500	10
0.40867	9
0.41233	8
0.41600	8
0.41967	7
0.42333	5
0.42700	6
0.43067	7
0.43433	9
0.43800	9
0.44167	9
0.44533	8
0.44900	7
0.45267	8
0.45633	8
0.46000	10
0.46367	10
0.46733	10
0.47100	10
0.47467	9
0.47833	8
0.48200	9
0.48567	10
0.48933	10
0.49300	10
0.49667	11
0.50033	10
0.50400	10
0.50767	9
0.51133	10
0.51500	11
0.51867	11
0.52233	11
0.52600	14
0.52967	15
0.53333	15
0.53700	15
0.54067	15
0.54433	13
0.54800	12
0.55167	11
0.55533	12
0.55900	11
0.56267	11
0.56633	11
0.57000	12
0.57367	13
0.57733	14
0.58100	15
0.58467	14
0.58833	13
0.59200	13
0.59567	13
0.59933	14
0.60300	16
0.60667	18
0.61033	19
0.61400	21
0.61767	22
0.62133	20
0.62500	18
0.62867	16
0.63233	16
0.63600	16
0.63967	15
0.64333	16
0.64700	17
0.65067	19
0.65433	20
0.65800	20
0.66167	19
0.66533	18
0.66900	20
0.67267	23
0.67633	23
0.68000	20
0.68367	18
0.68733	16
0.69100	15
0.69467	16
0.69833	16
0.70200	17
0.70567	18
0.70933	18
0.71300	17
0.71667	19
0.72033	19
0.72400	19
0.72767	19
0.73133	19
0.73500	19
0.73867	20
0.74233	21
0.74600	22
0.74967	23
0.75333	23
0.75700	22
0.76067	21
0.76433	21
0.76800	20
0.77167	21
0.77533	21
0.77900	22
0.78267	24
0.78633	25
0.79000	24
0.79367	23
0.79733	23
0.80100	23
0.80467	25
0.80833	27
0.81200	28
0.81567	26
0.81933	26
0.82300	27
0.82667	26
0.83033	27
0.83400	27
0.83767	27
0.84133	27
0.84500	26
0.84867	28
0.85233	30
0.85600	30
0.85967	29
0.86333	26
0.86700	24
0.87067	24
0.87433	25
0.87800	27
0.88167	29
0.88533	29
0.88900	30
0.89267	30
0.89633	29
0.90000	29
0.90367	29
0.90733	31
0.91100	32
0.91467	32
0.91833	30
0.92200	28
0.92567	25
0.92933	25
0.93300	26
0.93667	24
0.94033	25
0.94400	24
0.94767	24
0.95133	24
0.95500	24
0.95867	23
0.96233	22
0.96600	23
0.96967	25
0.97333	27
0.97700	29
0.98067	29
0.98433	29
0.98800	32
0.99167	32
0.99533	32
0.99900	34
1.00267	34
1.00633	32
1.01000	30
1.01367	28
1.01733	28
1.02100	28
1.02467	28
1.02833	29
1.03200	31
1.03567	33
1.03933	32
1.04300	29
1.04667	28
1.05033	29
1.05400	30
1.05767	30
1.06133	31
1.06500	31
1.06867	32
1.07233	33
1.07600	34
1.07967	35
1.08333	35
1.08700	36
1.09067	36
1.09433	36
1.09800	36
1.10167	38
1.10533	37
1.10900	35
1.11267	34
1.11633	34
1.12000	34
1.12367	35
1.12733	35
1.13100	37
1.13467	40
1.13833	40
1.14200	38
1.14567	36
1.14933	36
1.15300	37
1.15667	38
1.16033	38
1.16400	40
1.16767	39
1.17133	37
1.17500	37
1.17867	36
1.18233	33
1.18600	33
1.18967	33
1.19333	36
1.19700	38
1.20067	38
1.20433	38
1.20800	38
1.21167	37
1.21533	36
1.21900	36
1.22267	36
1.22633	39
1.23000	42
1.23367	44
1.23733	45
1.24100	46
1.24467	45
1.24833	42
1.25200	40
1.25567	40
1.25933	40
1.26300	42
1.26667	43
1.27033	44
1.27400	42
1.27767	40
1.28133	39
1.28500	39
1.28867	42
1.29233	44
1.29600	45
1.29967	45
1.30333	44
1.30700	44
1.31067	44
1.31433	44
1.31800	44
1.32167	44
1.32533	44
1.32900	42
1.33267	42
1.33633	43
1.34000	43
1.34367	42
1.34733	43
1.35100	45
1.35467	46
1.35833	45
1.36200	44
1.36567	45
1.36933	45
1.37300	46
1.37667	44
1.38033	44
1.38400	44
1.38767	44
1.39133	46
1.39500	46
1.39867	47
1.40233	48
1.40600	49
1.40967	49
1.41333	49
1.41700	49
1.42067	48
1.42433	46
1.42800	43
1.43167	41
1.43533	43
1.43900	44
1.44267	46
1.44633	51
1.45000	54
1.45367	54
1.45733	53
1.46100	52
1.46467	52
1.46833	51
1.47200	51
1.47567	51
1.47933	51
1.48300	51
1.48667	52
1.49033	50
1.49400	49
1.49767	51
1.50133	51
1.50500	49
1.50867	50
1.51233	50
1.51600	50
1.51967	50
1.52333	51
1.52700	52
1.53067	52
1.53433	52
1.53800	51
1.54167	50
1.54533	50
1.54900	52
1.55267	53
1.55633	53
1.56000	53
1.56367	54
1.56733	54
1.57100	54
1.57467	53
1.57833	52
1.58200	52
1.58567	54
1.58933	56
1.59300	57
1.59667	56
1.60033	55
1.60400	55
1.60767	56
1.61133	58
1.61500	60
1.61867	61
1.62233	61
1.62600	62
1.62967	63
1.63333	63
1.63700	63
1.64067	64
1.64433	63
1.64800	62
1.65167	59
1.65533	58
1.65900	57
1.66267	58
1.66633	59
1.67000	62
1.67367	67
1.67733	70
1.68100	71
1.68467	74
1.68833	75
1.69200	78
1.69567	79
1.69933	78
1.70300	77
1.70667	74
1.71033	73
1.71400	74
1.71767	75
1.72133	76
1.72500	77
1.72867	80
1.73233	82
1.73600	82
1.73967	82
1.74333	83
1.74700	84
1.75067	84
1.75433	86
1.75800	87
1.76167	87
1.76533	89
1.76900	91
1.77267	91
1.77633	93
1.78000	94
1.78367	96
1.78733	95
1.79100	95
1.79467	94
1.79833	95
1.80200	95
1.80567	97
1.80933	97
1.81300	96
1.81667	96
1.82033	98
1.82400	102
1.82767	104
1.83133	104
1.83500	106
1.83867	108
1.84233	108
1.84600	108
1.84967	108
1.85333	106
1.85700	106
1.86067	107
1.86433	109
1.86800	111
1.87167	109
1.87533	107
1.87900	107
1.88267	107
1.88633	107
1.89000	108
1.89367	110
1.89733	112
1.90100	113
1.90467	114
1.90833	114
1.91200	114
1.91567	114
1.91933	114
1.92300	115
1.92667	116
1.93033	117
1.93400	118
1.93767	118
1.94133	120
1.94500	121
1.94867	121
1.95233	123
1.95600	123
1.95967	125
1.96333	127
1.96700	127
1.97067	128
1.97433	128
1.97800	128
1.98167	128
1.98533	130
1.98900	133
1.99267	134
1.99633	135
2.00000	134
2.00367	135
2.00733	138
2.01100	140
2.01467	141
2.01833	142
2.02200	145
2.02567	147
2.02933	150
2.03300	150
2.03667	151
2.04033	153
2.04400	153
2.04767	153
2.05133	152
2.05500	153
2.05867	156
2.06233	157
2.06600	159
2.06967	161
2.07333	161
2.07700	162
2.08067	163
2.08433	163
2.08800	165
2.09167	169
2.09533	174
2.09900	177
2.10267	178
2.10633	177
2.11000	177
2.11367	177
2.11733	178
2.12100	182
2.12467	185
2.12833	187
2.13200	189
2.13567	190
2.13933	191
2.14300	192
2.14667	194
2.15033	195
2.15400	196
2.15767	198
2.16133	198
2.16500	199
2.16867	201
2.17233	203
2.17600	205
2.17967	207
2.18333	210
2.18700	212
2.19067	212
2.19433	211
2.19800	212
2.20167	215
2.20533	219
2.20900	221
2.21267	219
2.21633	219
2.22000	219
2.22367	220
2.22733	223
2.23100	226
2.23467	229
2.23833	230
2.24200	229
2.24567	228
2.24933	229
2.25300	230
2.25667	230
2.26033	232
2.26400	232
2.26767	231
2.27133	232
2.27500	234
2.27867	235
2.28233	235
2.28600	236
2.28967	239
2.29333	242
2.29700	244
2.30067	245
2.30433	246
2.30800	247
2.31167	246
2.31533	246
2.31900	246
2.32267	246
2.32633	246
2.33000	247
2.33367	248
2.33733	251
2.34100	253
2.34467	254
2.34833	255
2.35200	257
2.35567	257
2.35933	259
2.36300	261
2.36667	263
2.37033	262
2.37400	264
2.37767	265
2.38133	265
2.38500	265
2.38867	264
2.39233	264
2.39600	267
2.39967	270
2.40333	273
2.40700	275
2.41067	277
2.41433	279
2.41800	283
2.42167	285
2.42533	287
2.42900	289
2.43267	290
2.43633	291
2.44000	292
2.44367	293
2.44733	293
2.45100	284
2.45467	277
2.45833	281
2.46200	299
2.46567	329
2.46933	364
2.47300	404
2.47667	444
2.48033	484
2.48400	522
2.48767	556
2.49133	588
2.49500	620
2.49867	651
2.50233	678
2.50600	701
2.50967	719
2.51333	737
2.51700	755
2.52067	770
2.52433	784
2.52800	796
2.53167	807
2.53533	818
2.53900	830
2.54267	837
2.54633	843
2.55000	848
2.55367	853
2.55733	859
2.56100	866
2.56467	870
2.56833	871
2.57200	873
2.57567	876
2.57933	878
2.58300	879
2.58667	876
2.59033	874
2.59400	871
2.59767	864
2.60133	847
2.60500	822
2.60867	789
2.61233	748
2.61600	705
2.61967	660
2.62333	615
2.62700	572
2.63067	537
2.63433	507
2.63800	483
2.64167	464
2.64533	450
2.64900	441
2.65267	438
2.65633	438
2.66000	439
2.66367	441
2.66733	445
2.67100	451
2.67467	460
2.67833	468
2.68200	475
2.68567	482
2.68933	491
2.69300	499
2.69667	508
2.70033	516
2.70400	523
2.70767	528
2.71133	535
2.71500	542
2.71867	549
2.72233	556
2.72600	562
2.72967	568
2.73333	573
2.73700	578
2.74067	584
2.74433	592
2.74800	598
2.75167	605
2.75533	610
2.75900	615
2.76267	620
2.76633	624
2.77000	629
2.77367	632
2.77733	635
2.78100	640
2.78467	644
2.78833	648
2.79200	654
2.79567	659
2.79933	665
2.80300	669
2.80667	671
2.81033	673
2.81400	676
2.81767	684
2.82133	704
2.82500	749
2.82867	851
2.83233	1055
2.83600	1417
2.83967	1998
2.84333	2850
2.84700	3991
2.85067	5405
2.85433	7031
2.85800	8772
2.86167	10512
2.86533	12125
2.86900	13489
2.87267	14510
2.87633	15128
2.88000	15336
2.88367	15167
2.88733	14680
2.89100	13957
2.89467	13071
2.89833	12091
2.90200	11072
2.90567	10057
2.90933	9082
2.91300	8162
2.91667	7313
2.92033	6537
2.92400	5835
2.92767	5203
2.93133	4639
2.93500	4141
2.93867	3703
2.94233	3313
2.94600	2970
2.94967	2670
2.95333	2407
2.95700	2174
2.96067	1972
2.96433	1799
2.96800	1647
2.97167	1514
2.97533	1401
2.97900	1304
2.98267	1221
2.98633	1152
2.99000	1090
2.99367	1037
2.99733	990
3.00100	950
3.00467	916
3.00833	887
3.01200	861
3.01567	836
3.01933	814
3.02300	794
3.02667	777
3.03033	765
3.03400	758
3.03767	750
3.04133	740
3.04500	730
3.04867	721
3.05233	714
3.05600	709
3.05967	704
3.06333	699
3.06700	696
3.07067	691
3.07433	687
3.07800	683
3.08167	679
3.08533	674
3.08900	670
3.09267	667
3.09633	664
3.10000	662
3.10367	660
3.10733	657
3.11100	654
3.11467	652
3.11833	647
3.12200	645
3.12567	643
3.12933	641
3.13300	638
3.13667	636
3.14033	632
3.14400	628
3.14767	625
3.15133	623
3.15500	621
3.15867	619
3.16233	619
3.16600	618
3.16967	614
3.17333	609
3.17700	607
3.18067	603
3.18433	599
3.18800	595
3.19167	593
3.19533	591
3.19900	589
3.20267	585
3.20633	581
3.21000	578
3.21367	575
3.21733	573
3.22100	572
3.22467	571
3.22833	568
3.23200	564
3.23567	562
3.23933	560
3.24300	556
3.24667	551
3.25033	546
3.25400	542
3.25767	539
3.26133	538
3.26500	538
3.26867	535
3.27233	530
3.27600	528
3.27967	525
3.28333	522
3.28700	518
3.29067	513
3.29433	509
3.29800	506
3.30167	501
3.30533	497
3.30900	492
3.31267	488
3.31633	485
3.32000	483
3.32367	481
3.32733	479
3.33100	478
3.33467	476
3.33833	474
3.34200	474
3.34567	471
3.34933	466
3.35300	463
3.35667	459
3.36033	455
3.36400	453
3.36767	450
3.37133	446
3.37500	440
3.37867	435
3.38233	431
3.38600	428
3.38967	424
3.39333	420
3.39700	418
3.40067	416
3.40433	413
3.40800	408
3.41167	404
3.41533	399
3.41900	395
3.42267	395
3.42633	395
3.43000	395
3.43367	392
3.43733	388
3.44100	384
3.44467	382
3.44833	377
3.45200	374
3.45567	370
3.45933	365
3.46300	359
3.46667	355
3.47033	352
3.47400	349
3.47767	344
3.48133	342
3.48500	340
3.48867	337
3.49233	333
3.49600	331
3.49967	329
3.50333	327
3.50700	323
3.51067	321
3.51433	318
3.51800	316
3.52167	314
3.52533	312
3.52900	309
3.53267	308
3.53633	308
3.54000	305
3.54367	301
3.54733	298
3.55100	294
3.55467	292
3.55833	291
3.56200	291
3.56567	289
3.56933	288
3.57300	286
3.57667	282
3.58033	280
3.58400	280
3.58767	279
3.59133	277
3.59500	274
3.59867	273
3.60233	271
3.60600	267
3.60967	263
3.61333	262
3.61700	264
3.62067	262
3.62433	260
3.62800	258
3.63167	257
3.63533	255
3.63900	254
3.64267	251
3.64633	250
3.65000	247
3.65367	245
3.65733	243
3.66100	241
3.66467	239
3.66833	237
3.67200	236
3.67567	236
3.67933	237
3.68300	235
3.68667	235
3.69033	233
3.69400	233
3.69767	231
3.70133	230
3.70500	230
3.70867	231
3.71233	229
3.71600	227
3.71967	224
3.72333	224
3.72700	224
3.73067	224
3.73433	223
3.73800	221
3.74167	216
3.74533	214
3.74900	213
3.75267	212
3.75633	213
3.76000	213
3.76367	213
3.76733	213
3.77100	212
3.77467	212
3.77833	212
3.78200	211
3.78567	208
3.78933	205
3.79300	204
3.79667	205
3.80033	204
3.80400	203
3.80767	202
3.81133	201
3.81500	200
3.81867	199
3.82233	200
3.82600	199
3.82967	199
3.83333	198
3.83700	197
3.84067	196
3.84433	195
3.84800	194
3.85167	194
3.85533	194
3.85900	193
3.86267	193
3.86633	191
3.87000	188
3.87367	186
3.87733	187
3.88100	187
3.88467	186
3.88833	184
3.89200	182
3.89567	180
3.89933	181
3.90300	180
3.90667	180
3.91033	178
3.91400	176
3.91767	176
3.92133	178
3.92500	177
3.92867	175
3.93233	175
3.93600	177
3.93967	175
3.94333	172
3.94700	169
3.95067	168
3.95433	168
3.95800	169
3.96167	169
3.96533	169
3.96900	171
3.97267	171
3.97633	169
3.98000	168
3.98367	168
3.98733	167
3.99100	166
3.99467	164
3.99833	164

[Status Trace (Column Oven Temperature)]
Interval(msec)	1000
# of Points	240
Start Time(min)	0.016
End Time(min)	4.000
Intensity Units	
Intensity Multiplier	1
R.Time (min)	Intensity
0.01627	35.04
0.03293	35.02
0.04960	34.99
0.06627	34.97
0.08293	34.96
0.09960	34.96
0.11627	34.96
0.13293	34.96
0.14960	34.96
0.16627	34.96
0.18293	34.95
0.19960	34.95
0.21627	34.94
0.23293	34.94
0.24960	34.94
0.26627	34.95
0.28293	34.97
0.29960	34.99
0.31627	34.99
0.33293	35.00
0.34960	35.00
0.36627	35.00
0.38293	34.99
0.39960	34.99
0.41627	34.99
0.43293	34.97
0.44960	34.96
0.46627	34.96
0.48293	34.96
0.49960	34.96
0.51627	34.97
0.53293	34.99
0.54960	35.00
0.56627	35.00
0.58293	34.99
0.59960	34.98
0.61627	34.98
0.63293	34.96
0.64960	34.96
0.66627	34.96
0.68293	34.96
0.69960	34.96
0.71627	34.97
0.73293	34.97
0.74960	34.98
0.76627	34.98
0.78293	34.98
0.79960	34.99
0.81627	35.00
0.83293	34.99
0.84960	35.00
0.86627	35.00
0.88293	34.99
0.89960	34.98
0.91627	34.97
0.93293	34.98
0.94960	34.98
0.96627	34.98
0.98293	34.99
0.99960	34.98
1.01627	34.98
1.03293	34.97
1.04960	34.98
1.06627	34.97
1.08293	34.98
1.09960	34.98
1.11627	34.99
1.13293	34.99
1.14960	34.99
1.16627	34.99
1.18293	34.99
1.19960	34.99
1.21627	34.99
1.23293	34.99
1.24960	34.99
1.26627	35.00
1.28293	35.00
1.29960	34.99
1.31627	34.97
1.33293	34.98
1.34960	34.97
1.36627	34.97
1.38293	34.98
1.39960	34.98
1.41627	34.98
1.43293	35.00
1.44960	35.00
1.46627	35.00
1.48293	34.99
1.49960	34.99
1.51627	34.98
1.53293	34.97
1.54960	34.97
1.56627	34.97
1.58293	34.99
1.59960	35.02
1.61627	35.11
1.63293	35.28
1.64960	35.49
1.66627	35.79
1.68293	36.15
1.69960	36.52
1.71627	36.86
1.73293	37.18
1.74960	37.52
1.76627	37.84
1.78293	38.17
1.79960	38.51
1.81627	38.85
1.83293	39.18
1.84960	39.47
1.86627	39.80
1.88293	40.13
1.89960	40.46
1.91627	40.79
1.93293	41.12
1.94960	41.44
1.96627	41.77
1.98293	42.10
1.99960	42.45
2.01627	42.75
2.03293	43.07
2.04960	43.39
2.06627	43.74
2.08293	44.03
2.09960	44.36
2.11627	44.68
2.13293	45.02
2.14960	45.37
2.16627	45.68
2.18293	46.02
2.19960	46.32
2.21627	46.67
2.23293	47.00
2.24960	47.35
2.26627	47.67
2.28293	48.00
2.29960	48.33
2.31627	48.65
2.33293	49.02
2.34960	49.29
2.36627	49.54
2.38293	49.67
2.39960	49.69
2.41627	49.68
2.43293	49.72
2.44960	49.71
2.46627	49.72
2.48293	49.73
2.49960	49.78
2.51627	49.79
2.53293	49.80
2.54960	49.83
2.56627	49.83
2.58293	49.84
2.59960	49.84
2.61627	49.85
2.63293	49.85
2.64960	49.85
2.66627	49.85
2.68293	49.86
2.69960	49.87
2.71627	49.86
2.73293	49.86
2.74960	49.86
2.76627	49.87
2.78293	49.86
2.79960	49.87
2.81627	49.88
2.83293	49.91
2.84960	49.94
2.86627	49.96
2.88293	49.98
2.89960	50.00
2.91627	50.02
2.93293	50.04
2.94960	50.06
2.96627	50.07
2.98293	50.08
2.99960	50.08
3.01627	50.08
3.03293	50.08
3.04960	50.07
3.06627	50.08
3.08293	50.08
3.09960	50.08
3.11627	50.08
3.13293	50.08
3.14960	50.09
3.16627	50.10
3.18293	50.11
3.19960	50.10
3.21627	50.10
3.23293	50.09
3.24960	50.07
3.26627	50.05
3.28293	50.03
3.29960	50.03
3.31627	50.03
3.33293	50.03
3.34960	50.03
3.36627	50.03
3.38293	50.04
3.39960	50.05
3.41627	50.06
3.43293	50.06
3.44960	50.06
3.46627	50.07
3.48293	50.07
3.49960	50.07
3.51627	50.07
3.53293	50.07
3.54960	50.09
3.56627	50.10
3.58293	50.10
3.59960	50.09
3.61627	50.09
3.63293	50.08
3.64960	50.06
3.66627	50.05
3.68293	50.04
3.69960	50.05
3.71627	50.06
3.73293	50.07
3.74960	50.07
3.76627	50.08
3.78293	50.09
3.79960	50.09
3.81627	50.09
3.83293	50.08
3.84960	50.07
3.86627	50.06
3.88293	50.04
3.89960	50.03
3.91627	50.02
3.93293	50.02
3.94960	50.01
3.96627	50.00
3.98293	50.00
3.99960	49.99

[Status Trace (Injection Unit Temperature)]
Interval(msec)	1000
# of Points	240
Start Time(min)	0.016
End Time(min)	4.000
Intensity Units	
Intensity Multiplier	1
R.Time (min)	Intensity
0.01627	99.98
0.03293	99.99
0.04960	99.99
0.06627	99.99
0.08293	99.99
0.09960	99.99
0.11627	99.98
0.13293	99.99
0.14960	99.99
0.16627	99.99
0.18293	99.99
0.19960	99.99
0.21627	99.99
0.23293	99.99
0.24960	99.99
0.26627	99.99
0.28293	99.99
0.29960	99.99
0.31627	99.99
0.33293	99.99
0.34960	99.99
0.36627	99.99
0.38293	99.99
0.39960	99.99
0.41627	99.99
0.43293	99.99
0.44960	99.99
0.46627	99.99
0.48293	99.99
0.49960	99.99
0.51627	99.99
0.53293	99.99
0.54960	99.99
0.56627	99.99
0.58293	99.98
0.59960	99.99
0.61627	99.98
0.63293	99.99
0.64960	99.98
0.66627	99.99
0.68293	99.99
0.69960	99.99
0.71627	99.98
0.73293	99.98
0.74960	99.98
0.76627	99.98
0.78293	99.99
0.79960	99.98
0.81627	99.98
0.83293	99.99
0.84960	99.98
0.86627	99.98
0.88293	99.98
0.89960	99.98
0.91627	99.99
0.93293	99.98
0.94960	99.99
0.96627	99.98
0.98293	99.99
0.99960	99.99
1.01627	99.98
1.03293	99.99
1.04960	99.98
1.06627	99.99
1.08293	99.99
1.09960	99.99
1.11627	99.99
1.13293	99.99
1.14960	99.99
1.16627	99.99
1.18293	99.99
1.19960	99.99
1.21627	99.99
1.23293	99.99
1.24960	99.99
1.26627	99.99
1.28293	99.99
1.29960	99.99
1.31627	99.99
1.33293	99.98
1.34960	99.99
1.36627	99.99
1.38293	99.99
1.39960	99.99
1.41627	99.99
1.43293	99.99
1.44960	99.99
1.46627	99.99
1.48293	99.99
1.49960	99.99
1.51627	99.99
1.53293	99.99
1.54960	99.99
1.56627	99.99
1.58293	99.99
1.59960	99.99
1.61627	99.99
1.63293	99.99
1.64960	99.99
1.66627	99.99
1.68293	99.99
1.69960	99.99
1.71627	99.99
1.73293	99.99
1.74960	99.99
1.76627	99.99
1.78293	99.99
1.79960	99.98
1.81627	99.99
1.83293	99.99
1.84960	99.98
1.86627	99.99
1.88293	99.98
1.89960	99.98
1.91627	99.99
1.93293	99.98
1.94960	99.98
1.96627	99.98
1.98293	99.98
1.99960	99.98
2.01627	99.98
2.03293	99.98
2.04960	99.98
2.06627	99.98
2.08293	99.97
2.09960	99.97
2.11627	99.98
2.13293	99.97
2.14960	99.97
2.16627	99.97
2.18293	99.97
2.19960	99.97
2.21627	99.97
2.23293	99.97
2.24960	99.97
2.26627	99.97
2.28293	99.97
2.29960	99.97
2.31627	99.96
2.33293	99.96
2.34960	99.96
2.36627	99.96
2.38293	99.97
2.39960	99.96
2.41627	99.97
2.43293	99.96
2.44960	99.97
2.46627	99.97
2.48293	99.97
2.49960	99.97
2.51627	99.97
2.53293	99.97
2.54960	99.97
2.56627	99.98
2.58293	99.97
2.59960	99.98
2.61627	99.98
2.63293	99.98
2.64960	99.98
2.66627	99.98
2.68293	99.98
2.69960	99.98
2.71627	99.99
2.73293	99.99
2.74960	99.99
2.76627	99.99
2.78293	100.00
2.79960	100.00
2.81627	99.99
2.83293	100.00
2.84960	100.00
2.86627	100.00
2.88293	100.00
2.89960	100.00
2.91627	100.01
2.93293	100.01
2.94960	100.01
2.96627	100.01
2.98293	100.01
2.99960	100.01
3.01627	100.01
3.03293	100.02
3.04960	100.02
3.06627	100.02
3.08293	100.02
3.09960	100.02
3.11627	100.02
3.13293	100.02
3.14960	100.03
3.16627	100.02
3.18293	100.03
3.19960	100.03
3.21627	100.03
3.23293	100.03
3.24960	100.03
3.26627	100.03
3.28293	100.03
3.29960	100.04
3.31627	100.04
3.33293	100.04
3.34960	100.04
3.36627	100.04
3.38293	100.04
3.39960	100.04
3.41627	100.05
3.43293	100.04
3.44960	100.05
3.46627	100.05
3.48293	100.04
3.49960	100.05
3.51627	100.04
3.53293	100.05
3.54960	100.05
3.56627	100.05
3.58293	100.05
3.59960	100.05
3.61627	100.05
3.63293	100.05
3.64960	100.05
3.66627	100.05
3.68293	100.05
3.69960	100.05
3.71627	100.05
3.73293	100.05
3.74960	100.05
3.76627	100.05
3.78293	100.05
3.79960	100.05
3.81627	100.04
3.83293	100.05
3.84960	100.05
3.86627	100.05
3.88293	100.06
3.89960	100.06
3.91627	100.05
3.93293	100.05
3.94960	100.05
3.96627	100.05
3.98293	100.05
3.99960	100.05

[Status Trace (Carrier Gas Pressure)]
Interval(msec)	1000
# of Points	240
Start Time(min)	0.016
End Time(min)	4.000
Intensity Units	
Intensity Multiplier	1
R.Time (min)	Intensity
0.01627	56.85
0.03293	55.73
0.04960	58.10
0.06627	59.90
0.08293	58.67
0.09960	57.97
0.11627	58.00
0.13293	58.01
0.14960	58.01
0.16627	58.00
0.18293	58.00
0.19960	58.00
0.21627	58.00
0.23293	58.00
0.24960	58.00
0.26627	58.00
0.28293	58.00
0.29960	58.00
0.31627	58.00
0.33293	58.00
0.34960	58.00
0.36627	58.00
0.38293	58.00
0.39960	58.00
0.41627	58.00
0.43293	58.00
0.44960	58.00
0.46627	58.00
0.48293	58.00
0.49960	58.00
0.51627	58.00
0.53293	58.00
0.54960	58.00
0.56627	58.00
0.58293	58.00
0.59960	58.00
0.61627	58.00
0.63293	58.00
0.64960	58.00
0.66627	58.00
0.68293	58.00
0.69960	58.00
0.71627	58.00
0.73293	58.00
0.74960	58.00
0.76627	58.00
0.78293	58.00
0.79960	58.00
0.81627	58.00
0.83293	58.00
0.84960	58.00
0.86627	58.00
0.88293	58.00
0.89960	58.00
0.91627	58.00
0.93293	58.00
0.94960	58.00
0.96627	58.00
0.98293	58.00
0.99960	58.00
1.01627	58.00
1.03293	58.00
1.04960	58.00
1.06627	58.00
1.08293	58.00
1.09960	58.00
1.11627	58.00
1.13293	58.00
1.14960	58.00
1.16627	58.00
1.18293	58.00
1.19960	58.00
1.21627	58.00
1.23293	58.00
1.24960	58.00
1.26627	58.00
1.28293	58.00
1.29960	58.00
1.31627	58.00
1.33293	58.00
1.34960	58.00
1.36627	58.00
1.38293	58.00
1.39960	58.00
1.41627	58.00
1.43293	58.00
1.44960	58.00
1.46627	58.00
1.48293	58.00
1.49960	58.00
1.51627	58.00
1.53293	58.00
1.54960	58.00
1.56627	58.00
1.58293	58.00
1.59960	58.00
1.61627	58.00
1.63293	58.00
1.64960	58.00
1.66627	58.01
1.68293	58.01
1.69960	58.00
1.71627	58.00
1.73293	58.00
1.74960	58.00
1.76627	58.00
1.78293	58.00
1.79960	58.00
1.81627	58.00
1.83293	58.00
1.84960	58.00
1.86627	58.00
1.88293	58.00
1.89960	58.00
1.91627	58.00
1.93293	58.00
1.94960	58.00
1.96627	58.00
1.98293	58.00
1.99960	58.00
2.01627	58.00
2.03293	58.00
2.04960	58.00
2.06627	58.00
2.08293	58.00
2.09960	58.00
2.11627	58.00
2.13293	58.00
2.14960	58.00
2.16627	58.00
2.18293	58.00
2.19960	58.00
2.21627	58.00
2.23293	58.00
2.24960	58.00
2.26627	58.00
2.28293	58.00
2.29960	58.00
2.31627	58.00
2.33293	58.00
2.34960	58.00
2.36627	58.00
2.38293	57.99
2.39960	57.99
2.41627	58.00
2.43293	58.00
2.44960	58.00
2.46627	58.00
2.48293	58.00
2.49960	58.00
2.51627	57.99
2.53293	57.99
2.54960	58.00
2.56627	58.00
2.58293	58.00
2.59960	58.00
2.61627	58.00
2.63293	58.00
2.64960	58.00
2.66627	58.00
2.68293	58.00
2.69960	58.00
2.71627	58.00
2.73293	58.00
2.74960	58.00
2.76627	58.00
2.78293	58.00
2.79960	58.00
2.81627	58.00
2.83293	58.00
2.84960	58.00
2.86627	58.00
2.88293	58.00
2.89960	58.00
2.91627	58.00
2.93293	58.00
2.94960	58.00
2.96627	58.00
2.98293	58.00
2.99960	58.00
3.01627	58.00
3.03293	58.00
3.04960	58.00
3.06627	58.00
3.08293	58.00
3.09960	58.00
3.11627	58.00
3.13293	58.00
3.14960	58.00
3.16627	58.00
3.18293	58.00
3.19960	58.00
3.21627	58.00
3.23293	58.00
3.24960	58.00
3.26627	58.00
3.28293	58.00
3.29960	58.00
3.31627	58.00
3.33293	58.00
3.34960	58.00
3.36627	58.00
3.38293	58.00
3.39960	58.00
3.41627	58.00
3.43293	58.00
3.44960	58.00
3.46627	58.00
3.48293	58.00
3.49960	58.00
3.51627	58.00
3.53293	58.00
3.54960	58.00
3.56627	58.00
3.58293	58.00
3.59960	58.00
3.61627	58.00
3.63293	58.00
3.64960	58.00
3.66627	58.00
3.68293	58.00
3.69960	58.00
3.71627	58.00
3.73293	58.00
3.74960	58.00
3.76627	58.00
3.78293	58.00
3.79960	58.00
3.81627	58.00
3.83293	58.00
3.84960	58.00
3.86627	58.00
3.88293	58.00
3.89960	58.00
3.91627	58.00
3.93293	58.00
3.94960	58.00
3.96627	58.00
3.98293	58.00
3.99960	58.00

[Status Trace (Carrier Gas Flow)]
Interval(msec)	1000
# of Points	240
Start Time(min)	0.016
End Time(min)	4.000
Intensity Units	
Intensity Multiplier	1
R.Time (min)	Intensity
0.01627	33.89
0.03293	34.53
0.04960	34.56
0.06627	34.51
0.08293	34.52
0.09960	34.52
0.11627	34.52
0.13293	34.52
0.14960	34.52
0.16627	34.52
0.18293	34.52
0.19960	34.52
0.21627	34.52
0.23293	34.52
0.24960	34.52
0.26627	34.52
0.28293	34.52
0.29960	34.52
0.31627	34.52
0.33293	34.52
0.34960	34.52
0.36627	34.52
0.38293	34.52
0.39960	34.52
0.41627	34.52
0.43293	34.52
0.44960	34.52
0.46627	34.52
0.48293	34.52
0.49960	34.52
0.51627	34.52
0.53293	34.52
0.54960	34.52
0.56627	34.52
0.58293	34.52
0.59960	34.52
0.61627	34.52
0.63293	34.52
0.64960	34.52
0.66627	34.52
0.68293	34.52
0.69960	34.52
0.71627	34.52
0.73293	34.52
0.74960	34.52
0.76627	34.52
0.78293	34.52
0.79960	34.52
0.81627	34.52
0.83293	34.52
0.84960	34.52
0.86627	34.52
0.88293	34.52
0.89960	34.52
0.91627	34.52
0.93293	34.52
0.94960	34.52
0.96627	34.52
0.98293	34.52
0.99960	34.52
1.01627	34.52
1.03293	34.52
1.04960	34.52
1.06627	34.52
1.08293	34.52
1.09960	34.52
1.11627	34.52
1.13293	34.52
1.14960	34.52
1.16627	34.52
1.18293	34.52
1.19960	34.52
1.21627	34.52
1.23293	34.52
1.24960	34.52
1.26627	34.52
1.28293	34.52
1.29960	34.52
1.31627	34.52
1.33293	34.52
1.34960	34.52
1.36627	34.52
1.38293	34.52
1.39960	34.52
1.41627	34.52
1.43293	34.52
1.44960	34.52
1.46627	34.52
1.48293	34.52
1.49960	34.52
1.51627	34.52
1.53293	34.52
1.54960	34.52
1.56627	34.52
1.58293	34.52
1.59960	34.52
1.61627	34.52
1.63293	34.52
1.64960	34.52
1.66627	34.52
1.68293	34.52
1.69960	34.52
1.71627	34.52
1.73293	34.52
1.74960	34.52
1.76627	34.52
1.78293	34.52
1.79960	34.52
1.81627	34.52
1.83293	34.52
1.84960	34.52
1.86627	34.52
1.88293	34.52
1.89960	34.52
1.91627	34.52
1.93293	34.52
1.94960	34.52
1.96627	34.52
1.98293	34.52
1.99960	34.52
2.01627	34.52
2.03293	34.52
2.04960	34.52
2.06627	34.52
2.08293	34.52
2.09960	34.52
2.11627	34.52
2.13293	34.52
2.14960	34.52
2.16627	34.52
2.18293	34.52
2.19960	34.52
2.21627	34.52
2.23293	34.52
2.24960	34.52
2.26627	34.52
2.28293	34.52
2.29960	34.52
2.31627	34.52
2.33293	34.52
2.34960	34.52
2.36627	34.52
2.38293	34.52
2.39960	34.52
2.41627	34.52
2.43293	34.52
2.44960	34.52
2.46627	34.52
2.48293	34.52
2.49960	34.52
2.51627	34.52
2.53293	34.52
2.54960	34.52
2.56627	34.52
2.58293	34.52
2.59960	34.52
2.61627	34.52
2.63293	34.52
2.64960	34.52
2.66627	34.53
2.68293	34.52
2.69960	34.52
2.71627	34.52
2.73293	34.52
2.74960	34.52
2.76627	34.52
2.78293	34.52
2.79960	34.52
2.81627	34.52
2.83293	34.52
2.84960	34.52
2.86627	34.52
2.88293	34.52
2.89960	34.52
2.91627	34.52
2.93293	34.52
2.94960	34.52
2.96627	34.52
2.98293	34.52
2.99960	34.52
3.01627	34.52
3.03293	34.52
3.04960	34.52
3.06627	34.52
3.08293	34.52
3.09960	34.52
3.11627	34.52
3.13293	34.52
3.14960	34.52
3.16627	34.52
3.18293	34.52
3.19960	34.52
3.21627	34.52
3.23293	34.52
3.24960	34.52
3.26627	34.52
3.28293	34.52
3.29960	34.52
3.31627	34.52
3.33293	34.52
3.34960	34.52
3.36627	34.52
3.38293	34.52
3.39960	34.52
3.41627	34.52
3.43293	34.52
3.44960	34.52
3.46627	34.52
3.48293	34.52
3.49960	34.52
3.51627	34.52
3.53293	34.52
3.54960	34.52
3.56627	34.52
3.58293	34.52
3.59960	34.52
3.61627	34.52
3.63293	34.52
3.64960	34.52
3.66627	34.52
3.68293	34.52
3.69960	34.52
3.71627	34.52
3.73293	34.52
3.74960	34.52
3.76627	34.52
3.78293	34.52
3.79960	34.52
3.81627	34.52
3.83293	34.52
3.84960	34.52
3.86627	34.52
3.88293	34.52
3.89960	34.52
3.91627	34.52
3.93293	34.52
3.94960	34.52
3.96627	34.52
3.98293	34.52
3.99960	34.52

[Status Trace (Column Flow)]
Interval(msec)	1000
# of Points	240
Start Time(min)	0.016
End Time(min)	4.000
Intensity Units	
Intensity Multiplier	1
R.Time (min)	Intensity
0.01627	5.39
0.03293	5.27
0.04960	5.54
0.06627	5.75
0.08293	5.61
0.09960	5.53
0.11627	5.53
0.13293	5.53
0.14960	5.53
0.16627	5.53
0.18293	5.53
0.19960	5.53
0.21627	5.53
0.23293	5.53
0.24960	5.53
0.26627	5.53
0.28293	5.53
0.29960	5.53
0.31627	5.53
0.33293	5.53
0.34960	5.53
0.36627	5.53
0.38293	5.53
0.39960	5.53
0.41627	5.53
0.43293	5.53
0.44960	5.53
0.46627	5.53
0.48293	5.53
0.49960	5.53
0.51627	5.53
0.53293	5.53
0.54960	5.53
0.56627	5.53
0.58293	5.53
0.59960	5.53
0.61627	5.53
0.63293	5.53
0.64960	5.53
0.66627	5.53
0.68293	5.53
0.69960	5.53
0.71627	5.53
0.73293	5.53
0.74960	5.53
0.76627	5.53
0.78293	5.53
0.79960	5.53
0.81627	5.53
0.83293	5.53
0.84960	5.53
0.86627	5.53
0.88293	5.53
0.89960	5.53
0.91627	5.53
0.93293	5.53
0.94960	5.53
0.96627	5.53
0.98293	5.53
0.99960	5.53
1.01627	5.53
1.03293	5.53
1.04960	5.53
1.06627	5.53
1.08293	5.53
1.09960	5.53
1.11627	5.53
1.13293	5.53
1.14960	5.53
1.16627	5.53
1.18293	5.53
1.19960	5.53
1.21627	5.53
1.23293	5.53
1.24960	5.53
1.26627	5.53
1.28293	5.53
1.29960	5.53
1.31627	5.53
1.33293	5.53
1.34960	5.53
1.36627	5.53
1.38293	5.53
1.39960	5.53
1.41627	5.53
1.43293	5.53
1.44960	5.53
1.46627	5.53
1.48293	5.53
1.49960	5.53
1.51627	5.53
1.53293	5.53
1.54960	5.53
1.56627	5.53
1.58293	5.53
1.59960	5.53
1.61627	5.53
1.63293	5.52
1.64960	5.51
1.66627	5.50
1.68293	5.49
1.69960	5.48
1.71627	5.47
1.73293	5.46
1.74960	5.45
1.76627	5.44
1.78293	5.43
1.79960	5.42
1.81627	5.41
1.83293	5.40
1.84960	5.39
1.86627	5.38
1.88293	5.37
1.89960	5.36
1.91627	5.35
1.93293	5.34
1.94960	5.33
1.96627	5.32
1.98293	5.31
1.99960	5.30
2.01627	5.29
2.03293	5.28
2.04960	5.27
2.06627	5.26
2.08293	5.26
2.09960	5.25
2.11627	5.24
2.13293	5.23
2.14960	5.22
2.16627	5.21
2.18293	5.20
2.19960	5.19
2.21627	5.18
2.23293	5.17
2.24960	5.16
2.26627	5.15
2.28293	5.14
2.29960	5.13
2.31627	5.12
2.33293	5.11
2.34960	5.11
2.36627	5.10
2.38293	5.09
2.39960	5.09
2.41627	5.09
2.43293	5.09
2.44960	5.09
2.46627	5.09
2.48293	5.09
2.49960	5.09
2.51627	5.09
2.53293	5.09
2.54960	5.09
2.56627	5.09
2.58293	5.09
2.59960	5.09
2.61627	5.09
2.63293	5.09
2.64960	5.09
2.66627	5.09
2.68293	5.09
2.69960	5.09
2.71627	5.09
2.73293	5.09
2.74960	5.09
2.76627	5.09
2.78293	5.09
2.79960	5.09
2.81627	5.09
2.83293	5.09
2.84960	5.09
2.86627	5.09
2.88293	5.09
2.89960	5.09
2.91627	5.08
2.93293	5.08
2.94960	5.08
2.96627	5.08
2.98293	5.08
2.99960	5.08
3.01627	5.08
3.03293	5.08
3.04960	5.08
3.06627	5.08
3.08293	5.08
3.09960	5.08
3.11627	5.08
3.13293	5.08
3.14960	5.08
3.16627	5.08
3.18293	5.08
3.19960	5.08
3.21627	5.08
3.23293	5.08
3.24960	5.08
3.26627	5.08
3.28293	5.08
3.29960	5.08
3.31627	5.08
3.33293	5.08
3.34960	5.08
3.36627	5.08
3.38293	5.08
3.39960	5.08
3.41627	5.08
3.43293	5.08
3.44960	5.08
3.46627	5.08
3.48293	5.08
3.49960	5.08
3.51627	5.08
3.53293	5.08
3.54960	5.08
3.56627	5.08
3.58293	5.08
3.59960	5.08
3.61627	5.08
3.63293	5.08
3.64960	5.08
3.66627	5.08
3.68293	5.08
3.69960	5.08
3.71627	5.08
3.73293	5.08
3.74960	5.08
3.76627	5.08
3.78293	5.08
3.79960	5.08
3.81627	5.08
3.83293	5.08
3.84960	5.08
3.86627	5.08
3.88293	5.08
3.89960	5.08
3.91627	5.08
3.93293	5.08
3.94960	5.08
3.96627	5.09
3.98293	5.09
3.99960	5.09

[Status Trace (Linear Velocity)]
Interval(msec)	1000
# of Points	240
Start Time(min)	0.016
End Time(min)	4.000
Intensity Units	
Intensity Multiplier	1
R.Time (min)	Intensity
0.01627	38.26
0.03293	37.53
0.04960	39.09
0.06627	40.27
0.08293	39.46
0.09960	39.00
0.11627	39.02
0.13293	39.03
0.14960	39.03
0.16627	39.02
0.18293	39.03
0.19960	39.03
0.21627	39.03
0.23293	39.03
0.24960	39.03
0.26627	39.03
0.28293	39.02
0.29960	39.02
0.31627	39.02
0.33293	39.02
0.34960	39.02
0.36627	39.02
0.38293	39.02
0.39960	39.02
0.41627	39.02
0.43293	39.02
0.44960	39.02
0.46627	39.02
0.48293	39.02
0.49960	39.02
0.51627	39.02
0.53293	39.02
0.54960	39.02
0.56627	39.02
0.58293	39.02
0.59960	39.02
0.61627	39.02
0.63293	39.02
0.64960	39.02
0.66627	39.02
0.68293	39.02
0.69960	39.02
0.71627	39.02
0.73293	39.02
0.74960	39.02
0.76627	39.02
0.78293	39.02
0.79960	39.02
0.81627	39.02
0.83293	39.02
0.84960	39.02
0.86627	39.02
0.88293	39.02
0.89960	39.02
0.91627	39.02
0.93293	39.02
0.94960	39.02
0.96627	39.02
0.98293	39.02
0.99960	39.02
1.01627	39.02
1.03293	39.02
1.04960	39.02
1.06627	39.02
1.08293	39.02
1.09960	39.02
1.11627	39.02
1.13293	39.02
1.14960	39.02
1.16627	39.02
1.18293	39.02
1.19960	39.02
1.21627	39.02
1.23293	39.02
1.24960	39.02
1.26627	39.02
1.28293	39.02
1.29960	39.02
1.31627	39.02
1.33293	39.02
1.34960	39.02
1.36627	39.02
1.38293	39.02
1.39960	39.02
1.41627	39.02
1.43293	39.02
1.44960	39.02
1.46627	39.02
1.48293	39.02
1.49960	39.02
1.51627	39.02
1.53293	39.02
1.54960	39.02
1.56627	39.02
1.58293	39.02
1.59960	39.02
1.61627	39.01
1.63293	39.00
1.64960	38.98
1.66627	38.95
1.68293	38.92
1.69960	38.88
1.71627	38.84
1.73293	38.81
1.74960	38.78
1.76627	38.75
1.78293	38.72
1.79960	38.69
1.81627	38.65
1.83293	38.62
1.84960	38.59
1.86627	38.56
1.88293	38.54
1.89960	38.50
1.91627	38.47
1.93293	38.44
1.94960	38.41
1.96627	38.38
1.98293	38.35
1.99960	38.32
2.01627	38.29
2.03293	38.26
2.04960	38.23
2.06627	38.20
2.08293	38.17
2.09960	38.14
2.11627	38.11
2.13293	38.08
2.14960	38.05
2.16627	38.02
2.18293	37.99
2.19960	37.96
2.21627	37.93
2.23293	37.91
2.24960	37.87
2.26627	37.84
2.28293	37.82
2.29960	37.79
2.31627	37.75
2.33293	37.72
2.34960	37.70
2.36627	37.67
2.38293	37.66
2.39960	37.66
2.41627	37.66
2.43293	37.66
2.44960	37.66
2.46627	37.66
2.48293	37.66
2.49960	37.65
2.51627	37.65
2.53293	37.65
2.54960	37.65
2.56627	37.65
2.58293	37.65
2.59960	37.65
2.61627	37.65
2.63293	37.65
2.64960	37.65
2.66627	37.65
2.68293	37.65
2.69960	37.65
2.71627	37.65
2.73293	37.65
2.74960	37.65
2.76627	37.65
2.78293	37.65
2.79960	37.65
2.81627	37.65
2.83293	37.64
2.84960	37.64
2.86627	37.64
2.88293	37.64
2.89960	37.63
2.91627	37.63
2.93293	37.63
2.94960	37.63
2.96627	37.63
2.98293	37.63
2.99960	37.63
3.01627	37.63
3.03293	37.63
3.04960	37.63
3.06627	37.63
3.08293	37.63
3.09960	37.63
3.11627	37.63
3.13293	37.63
3.14960	37.63
3.16627	37.63
3.18293	37.62
3.19960	37.62
3.21627	37.62
3.23293	37.63
3.24960	37.63
3.26627	37.63
3.28293	37.63
3.29960	37.63
3.31627	37.63
3.33293	37.63
3.34960	37.63
3.36627	37.63
3.38293	37.63
3.39960	37.63
3.41627	37.63
3.43293	37.63
3.44960	37.63
3.46627	37.63
3.48293	37.63
3.49960	37.63
3.51627	37.63
3.53293	37.63
3.54960	37.63
3.56627	37.63
3.58293	37.63
3.59960	37.63
3.61627	37.63
3.63293	37.63
3.64960	37.63
3.66627	37.63
3.68293	37.63
3.69960	37.63
3.71627	37.63
3.73293	37.63
3.74960	37.63
3.76627	37.63
3.78293	37.63
3.79960	37.63
3.81627	37.63
3.83293	37.63
3.84960	37.63
3.86627	37.63
3.88293	37.63
3.89960	37.63
3.91627	37.63
3.93293	37.63
3.94960	37.63
3.96627	37.63
3.98293	37.63
3.99960	37.64

