[Header]
Application Name	LabSolutions
Version	5.110
Data File Name	C:\Users\User\Desktop\GC Analyses\Jack\UIC Prairie Sampling\7.9.22\220909_032.gcd
Output Date	9/28/2022
Output Time	11:29:51 AM

[File Information]
Type	Data File
Generated	9/13/2022 11:01:24 AM
Generated by	System Administrator
Modified	9/13/2022 11:06:43 AM
Modified by	System Administrator

[Sample Information]
Operator Name	System Administrator
Acquired	9/13/2022 11:02:43 AM
Sample Type	1:Standard
Level	1
Sample Name	220909_Run
Sample ID	220909_Run
ISTD Amount1	1
ISTD Amount2	1
ISTD Amount3	1
ISTD Amount4	1
ISTD Amount5	1
ISTD Amount6	1
ISTD Amount7	1
ISTD Amount8	1
ISTD Amount9	1
ISTD Amount10	1
ISTD Amount11	1
ISTD Amount12	1
ISTD Amount13	1
ISTD Amount14	1
ISTD Amount15	1
ISTD Amount16	1
ISTD Amount17	1
ISTD Amount18	1
ISTD Amount19	1
ISTD Amount20	1
ISTD Amount21	1
ISTD Amount22	1
ISTD Amount23	1
ISTD Amount24	1
ISTD Amount25	1
ISTD Amount26	1
ISTD Amount27	1
ISTD Amount28	1
ISTD Amount29	1
ISTD Amount30	1
ISTD Amount31	1
ISTD Amount32	1
Sample Amount	1
Dilution Factor	1
Vial#	1
Injection Volume	1
Injection Count	1
Bar Code	

[Original Files]
Data File	C:\Users\User\Desktop\GC Analyses\Jack\220909\220909_032.gcd
Method File	C:\LabSolutions\Data\GHG_4min_2022\ghg3_togas_w_acet_4 min_new_int.gcm
Batch File	
Report Format File	c:\LabSolutions\System\DEFAULT.lsr

[File Description]


[Configuration]
Instrument Name	C0B7VH3-Instrument1
Instrument #	1
Line #	1
# of Detectors	3
Detector ID	DET#1	DET#2	DET#3
Detector Name	FID	PTCD	ECD
# of Channels	1	1	1

[Peak Table(Ch1)]
# of Peaks	3
Peak#	R.Time	I.Time	F.Time	Area	Height	A/H	Conc.	Mark	ID#	Name	k'	Plate #	Plate Ht.	Tailing	Resolution	Sep.Factor	Area Ratio	Height Ratio	Conc. %	Norm Conc.
1	1.476	1.435	1.538	16008	7132	2.245	100.000	   	1	CO	0.000	8293	18.087	1.264	0.000	0.000	0	0	16.667	16.667
2	1.571	1.538	1.622	4573	2339	1.955	100.000	 V 	2	CH4	0.065	11493	13.052	1.176	1.545	0.000	0	0	16.667	16.667
3	2.000	1.930	2.345	2096019	1031349	2.032	400.000	   	3	CO2	0.355	18017	8.325	1.186	7.258	5.500	0	0	66.667	66.667

[Peak Table(Ch2)]
# of Peaks	0

[Peak Table(Ch3)]
# of Peaks	2
Peak#	R.Time	I.Time	F.Time	Area	Height	A/H	Conc.	Mark	ID#	Name	k'	Plate #	Plate Ht.	Tailing	Resolution	Sep.Factor	Area Ratio	Height Ratio	Conc. %	Norm Conc.
1	2.587	2.414	2.660	3618	448	8.069	0.000	   			0.000	2887	51.958	0.000	0.000	0.000	0	0	0.000	0.000
2	2.884	2.660	3.236	26517	5705	4.648	1.000	 V 	1	N2O	0.115	12258	12.237	1.169	2.002	0.000	0	0	100.000	100.000

[Compound Results(Ch1)]
# of IDs	6
ID#	Name	R.Time	Area	Height	Conc.	Curve	3rd	2nd	1st	Constant	Area Ratio	Height Ratio	Conc. %	Norm Conc.
1	CO	1.476	16008	7132	100.000	Linear	0.000000e+00	0.000000e+00	1.600830e+002	0.000000e+00	0	0	16.667	16.667
2	CH4	1.571	4573	2339	100.000	Linear	0.000000e+00	0.000000e+00	4.573206e+001	0.000000e+00	0	0	16.667	16.667
3	CO2	2.000	2096019	1031349	400.000	Linear	0.000000e+00	0.000000e+00	5.240048e+003	0.000000e+00	0	0	66.667	66.667
4	Ethylene	0.000	0	0	0.000	Linear	0.000000e+00	0.000000e+00	0.000000e+00	0.000000e+00	0	0	0.000	0.000
5	Acetylene	0.000	0	0	0.000	Linear	0.000000e+00	0.000000e+00	0.000000e+00	0.000000e+00	0	0	0.000	0.000
6	Ethane	0.000	0	0	0.000	Linear	0.000000e+00	0.000000e+00	0.000000e+00	0.000000e+00	0	0	0.000	0.000

[Compound Results(Ch2)]
# of IDs	5
ID#	Name	R.Time	Area	Height	Conc.	Curve	3rd	2nd	1st	Constant	Area Ratio	Height Ratio	Conc. %	Norm Conc.
1	Hydrogen	0.000	0	0	0.000	Linear	0.000000e+00	0.000000e+00	0.000000e+00	0.000000e+00	0	0	0.000	0.000
2	Oxygen	0.000	0	0	0.000	Linear	0.000000e+00	0.000000e+00	0.000000e+00	0.000000e+00	0	0	0.000	0.000
3	Nitrogen	0.000	0	0	0.000	Linear	0.000000e+00	0.000000e+00	0.000000e+00	0.000000e+00	0	0	0.000	0.000
4	Methane	0.000	0	0	0.000	Linear	0.000000e+00	0.000000e+00	0.000000e+00	0.000000e+00	0	0	0.000	0.000
5	Carbon Monoxide	0.000	0	0	0.000	Linear	0.000000e+00	0.000000e+00	0.000000e+00	0.000000e+00	0	0	0.000	0.000

[Compound Results(Ch3)]
# of IDs	2
ID#	Name	R.Time	Area	Height	Conc.	Curve	3rd	2nd	1st	Constant	Area Ratio	Height Ratio	Conc. %	Norm Conc.
1	N2O	2.884	26517	5705	1.000	Linear	0.000000e+00	0.000000e+00	2.651678e+004	0.000000e+00	0	0	100.000	100.000
2	SF6	0.000	0	0	0.000	Linear	0.000000e+00	0.000000e+00	0.000000e+00	0.000000e+00	0	0	0.000	0.000

[Group Results(Ch1)]
# of Groups	0

[Group Results(Ch2)]
# of Groups	0

[Group Results(Ch3)]
# of Groups	0

[Chromatogram (Ch1)]
Interval(msec)	220
# of Points	1091
Start Time(min)	0.002
End Time(min)	3.998
R.Time (min)	Intensity
0.00167	11
0.00533	14
0.00900	14
0.01267	11
0.01633	5
0.02000	2
0.02367	2
0.02733	3
0.03100	5
0.03467	7
0.03833	10
0.04200	13
0.04567	12
0.04933	7
0.05300	1
0.05667	-5
0.06033	-8
0.06400	-5
0.06767	-0
0.07133	6
0.07500	14
0.07867	21
0.08233	25
0.08600	25
0.08967	21
0.09333	14
0.09700	5
0.10067	-4
0.10433	-10
0.10800	-11
0.11167	-8
0.11533	-5
0.11900	-4
0.12267	-5
0.12633	-4
0.13000	-1
0.13367	-2
0.13733	-5
0.14100	-7
0.14467	-9
0.14833	-13
0.15200	-17
0.15567	-21
0.15933	-22
0.16300	-20
0.16667	-19
0.17033	-16
0.17400	-12
0.17767	-4
0.18133	3
0.18500	8
0.18867	10
0.19233	11
0.19600	5
0.19967	-0
0.20333	-7
0.20700	-14
0.21067	-23
0.21433	-28
0.21800	-29
0.22167	-27
0.22533	-26
0.22900	-18
0.23267	-7
0.23633	2
0.24000	8
0.24367	6
0.24733	2
0.25100	-3
0.25467	-9
0.25833	-19
0.26200	-27
0.26567	-30
0.26933	-31
0.27300	-31
0.27667	-28
0.28033	-18
0.28400	-4
0.28767	2
0.29133	1
0.29500	-5
0.29867	-11
0.30233	-13
0.30600	-10
0.30967	-12
0.31333	-16
0.31700	-22
0.32067	-29
0.32433	-30
0.32800	-24
0.33167	-21
0.33533	-24
0.33900	-23
0.34267	-20
0.34633	-16
0.35000	-15
0.35367	-16
0.35733	-12
0.36100	-7
0.36467	-4
0.36833	-2
0.37200	-8
0.37567	-14
0.37933	-15
0.38300	-16
0.38667	-23
0.39033	-32
0.39400	-41
0.39767	-46
0.40133	-49
0.40500	-53
0.40867	-56
0.41233	-53
0.41600	-51
0.41967	-47
0.42333	-42
0.42700	-36
0.43067	-31
0.43433	-22
0.43800	-12
0.44167	-3
0.44533	4
0.44900	6
0.45267	2
0.45633	-3
0.46000	-10
0.46367	-17
0.46733	-24
0.47100	-29
0.47467	-28
0.47833	-24
0.48200	-21
0.48567	-20
0.48933	-19
0.49300	-23
0.49667	-28
0.50033	-28
0.50400	-27
0.50767	-31
0.51133	-37
0.51500	-44
0.51867	-51
0.52233	-54
0.52600	-50
0.52967	-42
0.53333	-35
0.53700	-31
0.54067	-29
0.54433	-26
0.54800	-27
0.55167	-32
0.55533	-39
0.55900	-42
0.56267	-38
0.56633	-34
0.57000	-31
0.57367	-32
0.57733	-28
0.58100	-22
0.58467	-15
0.58833	-12
0.59200	-13
0.59567	-15
0.59933	-23
0.60300	-33
0.60667	-39
0.61033	-46
0.61400	-50
0.61767	-47
0.62133	-41
0.62500	-39
0.62867	-37
0.63233	-30
0.63600	-22
0.63967	-20
0.64333	-24
0.64700	-29
0.65067	-33
0.65433	-33
0.65800	-31
0.66167	-32
0.66533	-39
0.66900	-48
0.67267	-56
0.67633	-57
0.68000	-49
0.68367	-40
0.68733	-38
0.69100	-40
0.69467	-43
0.69833	-46
0.70200	-46
0.70567	-45
0.70933	-44
0.71300	-40
0.71667	-33
0.72033	-22
0.72400	-8
0.72767	-2
0.73133	-6
0.73500	-20
0.73867	-38
0.74233	-49
0.74600	-53
0.74967	-59
0.75333	-61
0.75700	-59
0.76067	-54
0.76433	-53
0.76800	-56
0.77167	-58
0.77533	-58
0.77900	-57
0.78267	-55
0.78633	-48
0.79000	-41
0.79367	-39
0.79733	-41
0.80100	-48
0.80467	-57
0.80833	-59
0.81200	-55
0.81567	-53
0.81933	-53
0.82300	-54
0.82667	-60
0.83033	-63
0.83400	-68
0.83767	-54
0.84133	-46
0.84500	-42
0.84867	-36
0.85233	-34
0.85600	-37
0.85967	-43
0.86333	-49
0.86700	-58
0.87067	-67
0.87433	-72
0.87800	-75
0.88167	-79
0.88533	-82
0.88900	-82
0.89267	-78
0.89633	-70
0.90000	-56
0.90367	-52
0.90733	-53
0.91100	-57
0.91467	-63
0.91833	-67
0.92200	-68
0.92567	-66
0.92933	-64
0.93300	-66
0.93667	-69
0.94033	-65
0.94400	-67
0.94767	-66
0.95133	-62
0.95500	-60
0.95867	-64
0.96233	-71
0.96600	-74
0.96967	-72
0.97333	-70
0.97700	-70
0.98067	-71
0.98433	-69
0.98800	-70
0.99167	-73
0.99533	-78
0.99900	-80
1.00267	-82
1.00633	-83
1.01000	-84
1.01367	-79
1.01733	-73
1.02100	-72
1.02467	-75
1.02833	-76
1.03200	-77
1.03567	-76
1.03933	-77
1.04300	-79
1.04667	-80
1.05033	-81
1.05400	-82
1.05767	-79
1.06133	-74
1.06500	-73
1.06867	-75
1.07233	-76
1.07600	-74
1.07967	-74
1.08333	-73
1.08700	-68
1.09067	-62
1.09433	-62
1.09800	-68
1.10167	-70
1.10533	-72
1.10900	-78
1.11267	-85
1.11633	-88
1.12000	-90
1.12367	-93
1.12733	-95
1.13100	-95
1.13467	-94
1.13833	-94
1.14200	-93
1.14567	-89
1.14933	-87
1.15300	-88
1.15667	-89
1.16033	-91
1.16400	-99
1.16767	-110
1.17133	-103
1.17500	-95
1.17867	-87
1.18233	-83
1.18600	-83
1.18967	-83
1.19333	-86
1.19700	-88
1.20067	-91
1.20433	-92
1.20800	-90
1.21167	-84
1.21533	-77
1.21900	-72
1.22267	-70
1.22633	-67
1.23000	-65
1.23367	-67
1.23733	-77
1.24100	-85
1.24467	-88
1.24833	-90
1.25200	-88
1.25567	-90
1.25933	-92
1.26300	-97
1.26667	-104
1.27033	-105
1.27400	-100
1.27767	-93
1.28133	-87
1.28500	-80
1.28867	-78
1.29233	-82
1.29600	-90
1.29967	-97
1.30333	-103
1.30700	-105
1.31067	-101
1.31433	-99
1.31800	-95
1.32167	-90
1.32533	-89
1.32900	-91
1.33267	-92
1.33633	-95
1.34000	-101
1.34367	-104
1.34733	-103
1.35100	-99
1.35467	-98
1.35833	-102
1.36200	-104
1.36567	-98
1.36933	-95
1.37300	-101
1.37667	-107
1.38033	-108
1.38400	-107
1.38767	-107
1.39133	-106
1.39500	-107
1.39867	-110
1.40233	-106
1.40600	-100
1.40967	-98
1.41333	-102
1.41700	-110
1.42067	-119
1.42433	-125
1.42800	-126
1.43167	-126
1.43533	-124
1.43900	-109
1.44267	-38
1.44633	219
1.45000	783
1.45367	1666
1.45733	2828
1.46100	4116
1.46467	5308
1.46833	6238
1.47200	6812
1.47567	6993
1.47933	6780
1.48300	6207
1.48667	5366
1.49033	4389
1.49400	3420
1.49767	2564
1.50133	1865
1.50500	1322
1.50867	915
1.51233	614
1.51600	391
1.51967	227
1.52333	109
1.52700	24
1.53067	-37
1.53433	-82
1.53800	-109
1.54167	-101
1.54533	-10
1.54900	218
1.55267	593
1.55633	1045
1.56000	1483
1.56367	1838
1.56733	2076
1.57100	2166
1.57467	2081
1.57833	1829
1.58200	1474
1.58567	1099
1.58933	758
1.59300	482
1.59667	273
1.60033	121
1.60400	11
1.60767	-69
1.61133	-125
1.61500	-162
1.61867	-182
1.62233	-191
1.62600	-194
1.62967	-195
1.63333	-197
1.63700	-199
1.64067	-201
1.64433	-200
1.64800	-194
1.65167	-187
1.65533	-181
1.65900	-177
1.66267	-176
1.66633	-179
1.67000	-182
1.67367	-182
1.67733	-177
1.68100	-173
1.68467	-171
1.68833	-173
1.69200	-175
1.69567	-175
1.69933	-178
1.70300	-179
1.70667	-176
1.71033	-173
1.71400	-170
1.71767	-165
1.72133	-156
1.72500	-150
1.72867	-144
1.73233	-144
1.73600	-151
1.73967	-161
1.74333	-170
1.74700	-186
1.75067	-197
1.75433	-200
1.75800	-199
1.76167	-193
1.76533	-181
1.76900	-169
1.77267	-158
1.77633	-151
1.78000	-152
1.78367	-156
1.78733	-162
1.79100	-165
1.79467	-160
1.79833	-151
1.80200	-145
1.80567	-143
1.80933	-141
1.81300	-145
1.81667	-145
1.82033	-150
1.82400	-158
1.82767	-166
1.83133	-169
1.83500	-167
1.83867	-163
1.84233	-157
1.84600	-148
1.84967	-140
1.85333	-135
1.85700	-134
1.86067	-133
1.86433	-135
1.86800	-141
1.87167	-147
1.87533	-148
1.87900	-147
1.88267	-142
1.88633	-135
1.89000	-130
1.89367	-128
1.89733	-130
1.90100	-130
1.90467	-130
1.90833	-131
1.91200	-136
1.91567	-146
1.91933	-157
1.92300	-162
1.92667	-161
1.93033	-156
1.93400	-148
1.93767	-137
1.94133	-127
1.94500	-120
1.94867	-112
1.95233	-100
1.95600	-45
1.95967	305
1.96333	2200
1.96700	10063
1.97067	34871
1.97433	95070
1.97800	208165
1.98167	374883
1.98533	572374
1.98900	765450
1.99267	920409
1.99633	1013054
2.00000	1031228
2.00367	975833
2.00733	861330
2.01100	712450
2.01467	556093
2.01833	413338
2.02200	295615
2.02567	205545
2.02933	140273
2.03300	94764
2.03667	63852
2.04033	43206
2.04400	29544
2.04767	20525
2.05133	14554
2.05500	10570
2.05867	7877
2.06233	6027
2.06600	4727
2.06967	3799
2.07333	3117
2.07700	2607
2.08067	2218
2.08433	1914
2.08800	1674
2.09167	1482
2.09533	1327
2.09900	1199
2.10267	1092
2.10633	998
2.11000	914
2.11367	840
2.11733	779
2.12100	724
2.12467	671
2.12833	623
2.13200	580
2.13567	543
2.13933	507
2.14300	475
2.14667	447
2.15033	420
2.15400	396
2.15767	376
2.16133	361
2.16500	350
2.16867	339
2.17233	325
2.17600	314
2.17967	305
2.18333	291
2.18700	277
2.19067	262
2.19433	247
2.19800	237
2.20167	225
2.20533	216
2.20900	207
2.21267	201
2.21633	194
2.22000	192
2.22367	189
2.22733	180
2.23100	169
2.23467	159
2.23833	152
2.24200	144
2.24567	140
2.24933	133
2.25300	127
2.25667	125
2.26033	125
2.26400	124
2.26767	120
2.27133	114
2.27500	113
2.27867	114
2.28233	114
2.28600	116
2.28967	115
2.29333	107
2.29700	101
2.30067	96
2.30433	93
2.30800	93
2.31167	91
2.31533	85
2.31900	78
2.32267	66
2.32633	56
2.33000	51
2.33367	49
2.33733	49
2.34100	47
2.34467	47
2.34833	48
2.35200	45
2.35567	43
2.35933	46
2.36300	47
2.36667	42
2.37033	36
2.37400	32
2.37767	28
2.38133	25
2.38500	26
2.38867	26
2.39233	30
2.39600	35
2.39967	36
2.40333	31
2.40700	24
2.41067	19
2.41433	18
2.41800	21
2.42167	26
2.42533	25
2.42900	23
2.43267	19
2.43633	15
2.44000	11
2.44367	11
2.44733	11
2.45100	9
2.45467	3
2.45833	2
2.46200	6
2.46567	7
2.46933	4
2.47300	1
2.47667	-1
2.48033	-6
2.48400	-11
2.48767	-15
2.49133	-19
2.49500	-24
2.49867	-26
2.50233	-28
2.50600	-28
2.50967	-22
2.51333	-18
2.51700	-18
2.52067	-19
2.52433	-15
2.52800	-7
2.53167	0
2.53533	8
2.53900	12
2.54267	12
2.54633	10
2.55000	9
2.55367	4
2.55733	-4
2.56100	-15
2.56467	-20
2.56833	-23
2.57200	-27
2.57567	-32
2.57933	-38
2.58300	-44
2.58667	-54
2.59033	-60
2.59400	-55
2.59767	-46
2.60133	-40
2.60500	-34
2.60867	-29
2.61233	-26
2.61600	-26
2.61967	-28
2.62333	-28
2.62700	-26
2.63067	-24
2.63433	-27
2.63800	-32
2.64167	-39
2.64533	-44
2.64900	-49
2.65267	-56
2.65633	-63
2.66000	-67
2.66367	-67
2.66733	-65
2.67100	-62
2.67467	-60
2.67833	-63
2.68200	-63
2.68567	-59
2.68933	-57
2.69300	-56
2.69667	-59
2.70033	-64
2.70400	-69
2.70767	-73
2.71133	-76
2.71500	-76
2.71867	-75
2.72233	-73
2.72600	-74
2.72967	-75
2.73333	-77
2.73700	-81
2.74067	-83
2.74433	-80
2.74800	-77
2.75167	-75
2.75533	-73
2.75900	-66
2.76267	-59
2.76633	-56
2.77000	-57
2.77367	-62
2.77733	-65
2.78100	-70
2.78467	-70
2.78833	-69
2.79200	-69
2.79567	-69
2.79933	-64
2.80300	-61
2.80667	-57
2.81033	-55
2.81400	-62
2.81767	-66
2.82133	-65
2.82500	-60
2.82867	-58
2.83233	-61
2.83600	-62
2.83967	-64
2.84333	-68
2.84700	-69
2.85067	-73
2.85433	-75
2.85800	-74
2.86167	-71
2.86533	-68
2.86900	-68
2.87267	-72
2.87633	-71
2.88000	-66
2.88367	-61
2.88733	-59
2.89100	-56
2.89467	-56
2.89833	-58
2.90200	-60
2.90567	-63
2.90933	-66
2.91300	-69
2.91667	-71
2.92033	-70
2.92400	-68
2.92767	-68
2.93133	-68
2.93500	-69
2.93867	-66
2.94233	-63
2.94600	-57
2.94967	-54
2.95333	-53
2.95700	-57
2.96067	-63
2.96433	-63
2.96800	-60
2.97167	-57
2.97533	-59
2.97900	-63
2.98267	-63
2.98633	-60
2.99000	-59
2.99367	-59
2.99733	-56
3.00100	-54
3.00467	-58
3.00833	-56
3.01200	-51
3.01567	-45
3.01933	-44
3.02300	-44
3.02667	-39
3.03033	-37
3.03400	-35
3.03767	-35
3.04133	-43
3.04500	-56
3.04867	-74
3.05233	-89
3.05600	-90
3.05967	-90
3.06333	-91
3.06700	-89
3.07067	-88
3.07433	-88
3.07800	-87
3.08167	-85
3.08533	-80
3.08900	-77
3.09267	-77
3.09633	-78
3.10000	-79
3.10367	-77
3.10733	-73
3.11100	-71
3.11467	-73
3.11833	-75
3.12200	-74
3.12567	-70
3.12933	-65
3.13300	-61
3.13667	-58
3.14033	-56
3.14400	-55
3.14767	-56
3.15133	-58
3.15500	-58
3.15867	-59
3.16233	-61
3.16600	-66
3.16967	-72
3.17333	-76
3.17700	-78
3.18067	-81
3.18433	-83
3.18800	-85
3.19167	-88
3.19533	-88
3.19900	-87
3.20267	-86
3.20633	-85
3.21000	-84
3.21367	-81
3.21733	-74
3.22100	-64
3.22467	-55
3.22833	-55
3.23200	-62
3.23567	-69
3.23933	-74
3.24300	-74
3.24667	-71
3.25033	-71
3.25400	-74
3.25767	-80
3.26133	-84
3.26500	-87
3.26867	-84
3.27233	-81
3.27600	-82
3.27967	-85
3.28333	-88
3.28700	-89
3.29067	-88
3.29433	-84
3.29800	-81
3.30167	-83
3.30533	-83
3.30900	-81
3.31267	-78
3.31633	-73
3.32000	-72
3.32367	-77
3.32733	-84
3.33100	-90
3.33467	-94
3.33833	-95
3.34200	-91
3.34567	-82
3.34933	-74
3.35300	-65
3.35667	-59
3.36033	-61
3.36400	-64
3.36767	-65
3.37133	-65
3.37500	-65
3.37867	-66
3.38233	-63
3.38600	-58
3.38967	-58
3.39333	-62
3.39700	-70
3.40067	-77
3.40433	-79
3.40800	-79
3.41167	-80
3.41533	-83
3.41900	-87
3.42267	-89
3.42633	-89
3.43000	-87
3.43367	-86
3.43733	-82
3.44100	-78
3.44467	-75
3.44833	-72
3.45200	-75
3.45567	-80
3.45933	-83
3.46300	-84
3.46667	-83
3.47033	-81
3.47400	-78
3.47767	-77
3.48133	-79
3.48500	-77
3.48867	-72
3.49233	-68
3.49600	-68
3.49967	-70
3.50333	-74
3.50700	-78
3.51067	-78
3.51433	-79
3.51800	-77
3.52167	-73
3.52533	-74
3.52900	-78
3.53267	-84
3.53633	-87
3.54000	-83
3.54367	-74
3.54733	-67
3.55100	-65
3.55467	-68
3.55833	-72
3.56200	-76
3.56567	-83
3.56933	-86
3.57300	-81
3.57667	-74
3.58033	-68
3.58400	-64
3.58767	-62
3.59133	-65
3.59500	-76
3.59867	-90
3.60233	-101
3.60600	-106
3.60967	-107
3.61333	-102
3.61700	-94
3.62067	-83
3.62433	-68
3.62800	-58
3.63167	-60
3.63533	-73
3.63900	-87
3.64267	-95
3.64633	-89
3.65000	-82
3.65367	-80
3.65733	-81
3.66100	-79
3.66467	-74
3.66833	-72
3.67200	-75
3.67567	-80
3.67933	-86
3.68300	-93
3.68667	-99
3.69033	-98
3.69400	-95
3.69767	-92
3.70133	-91
3.70500	-90
3.70867	-91
3.71233	-95
3.71600	-99
3.71967	-97
3.72333	-91
3.72700	-84
3.73067	-80
3.73433	-82
3.73800	-87
3.74167	-91
3.74533	-93
3.74900	-91
3.75267	-85
3.75633	-79
3.76000	-74
3.76367	-74
3.76733	-77
3.77100	-82
3.77467	-88
3.77833	-91
3.78200	-94
3.78567	-97
3.78933	-99
3.79300	-98
3.79667	-95
3.80033	-90
3.80400	-84
3.80767	-81
3.81133	-79
3.81500	-78
3.81867	-76
3.82233	-73
3.82600	-68
3.82967	-62
3.83333	-63
3.83700	-67
3.84067	-76
3.84433	-92
3.84800	-108
3.85167	-113
3.85533	-110
3.85900	-98
3.86267	-86
3.86633	-76
3.87000	-75
3.87367	-81
3.87733	-83
3.88100	-81
3.88467	-74
3.88833	-67
3.89200	-64
3.89567	-61
3.89933	-62
3.90300	-66
3.90667	-72
3.91033	-81
3.91400	-89
3.91767	-91
3.92133	-92
3.92500	-93
3.92867	-106
3.93233	-113
3.93600	-111
3.93967	-102
3.94333	-92
3.94700	-86
3.95067	-83
3.95433	-81
3.95800	-79
3.96167	-77
3.96533	-75
3.96900	-79
3.97267	-85
3.97633	-90
3.98000	-95
3.98367	-99
3.98733	-100
3.99100	-98
3.99467	-101
3.99833	-102

[Chromatogram (Ch2)]
Interval(msec)	220
# of Points	1091
Start Time(min)	0.002
End Time(min)	3.998
R.Time (min)	Intensity
0.00167	1
0.00533	1
0.00900	1
0.01267	1
0.01633	1
0.02000	1
0.02367	1
0.02733	1
0.03100	1
0.03467	1
0.03833	1
0.04200	1
0.04567	1
0.04933	1
0.05300	1
0.05667	1
0.06033	1
0.06400	1
0.06767	1
0.07133	0
0.07500	0
0.07867	0
0.08233	0
0.08600	0
0.08967	0
0.09333	0
0.09700	-0
0.10067	-0
0.10433	-0
0.10800	-0
0.11167	-0
0.11533	-0
0.11900	-0
0.12267	-0
0.12633	-0
0.13000	-0
0.13367	-0
0.13733	-0
0.14100	-0
0.14467	-1
0.14833	-1
0.15200	-2
0.15567	-2
0.15933	-2
0.16300	-3
0.16667	-3
0.17033	-3
0.17400	-4
0.17767	-4
0.18133	-4
0.18500	-5
0.18867	-5
0.19233	-5
0.19600	-5
0.19967	-5
0.20333	-6
0.20700	-6
0.21067	-5
0.21433	-5
0.21800	-5
0.22167	-5
0.22533	-4
0.22900	-4
0.23267	-4
0.23633	-4
0.24000	-4
0.24367	-4
0.24733	-4
0.25100	-4
0.25467	-3
0.25833	-3
0.26200	-3
0.26567	-3
0.26933	-3
0.27300	-3
0.27667	-3
0.28033	-3
0.28400	-3
0.28767	-3
0.29133	-4
0.29500	-4
0.29867	-5
0.30233	-5
0.30600	-5
0.30967	-6
0.31333	-6
0.31700	-6
0.32067	-6
0.32433	-6
0.32800	-6
0.33167	-6
0.33533	-6
0.33900	-6
0.34267	-5
0.34633	-5
0.35000	-5
0.35367	-5
0.35733	-5
0.36100	-5
0.36467	-5
0.36833	-5
0.37200	-5
0.37567	-5
0.37933	-5
0.38300	-5
0.38667	-5
0.39033	-5
0.39400	-5
0.39767	-5
0.40133	-5
0.40500	-5
0.40867	-5
0.41233	-5
0.41600	-6
0.41967	-6
0.42333	-6
0.42700	-6
0.43067	-5
0.43433	-5
0.43800	-5
0.44167	-5
0.44533	-5
0.44900	-5
0.45267	-6
0.45633	-6
0.46000	-6
0.46367	-6
0.46733	-6
0.47100	-6
0.47467	-5
0.47833	-5
0.48200	-5
0.48567	-5
0.48933	-5
0.49300	-5
0.49667	-5
0.50033	-5
0.50400	-5
0.50767	-5
0.51133	-5
0.51500	-5
0.51867	-5
0.52233	-5
0.52600	-4
0.52967	-4
0.53333	-3
0.53700	-3
0.54067	-3
0.54433	-2
0.54800	-2
0.55167	-2
0.55533	-2
0.55900	-2
0.56267	-2
0.56633	-3
0.57000	-3
0.57367	-3
0.57733	-4
0.58100	-4
0.58467	-4
0.58833	-4
0.59200	-4
0.59567	-4
0.59933	-4
0.60300	-4
0.60667	-4
0.61033	-4
0.61400	-4
0.61767	-4
0.62133	-4
0.62500	-4
0.62867	-4
0.63233	-4
0.63600	-4
0.63967	-4
0.64333	-5
0.64700	-5
0.65067	-5
0.65433	-6
0.65800	-6
0.66167	-7
0.66533	-7
0.66900	-7
0.67267	-8
0.67633	-8
0.68000	-8
0.68367	-8
0.68733	-8
0.69100	-8
0.69467	-7
0.69833	-7
0.70200	-7
0.70567	-6
0.70933	-6
0.71300	-6
0.71667	-5
0.72033	-5
0.72400	-5
0.72767	-4
0.73133	-4
0.73500	-4
0.73867	-3
0.74233	-3
0.74600	-3
0.74967	-3
0.75333	-3
0.75700	-3
0.76067	-3
0.76433	-3
0.76800	-3
0.77167	-3
0.77533	-3
0.77900	-2
0.78267	-2
0.78633	-2
0.79000	-2
0.79367	-1
0.79733	-1
0.80100	-2
0.80467	-2
0.80833	-2
0.81200	-2
0.81567	-2
0.81933	-2
0.82300	-2
0.82667	-2
0.83033	-2
0.83400	-2
0.83767	-3
0.84133	-3
0.84500	-3
0.84867	-3
0.85233	-3
0.85600	-3
0.85967	-3
0.86333	-3
0.86700	-4
0.87067	-4
0.87433	-5
0.87800	-5
0.88167	-5
0.88533	-5
0.88900	-5
0.89267	-6
0.89633	-6
0.90000	-6
0.90367	-6
0.90733	-6
0.91100	-6
0.91467	-6
0.91833	-6
0.92200	-6
0.92567	-6
0.92933	-6
0.93300	-6
0.93667	-6
0.94033	-7
0.94400	-7
0.94767	-7
0.95133	-7
0.95500	-8
0.95867	-8
0.96233	-8
0.96600	-7
0.96967	-7
0.97333	-7
0.97700	-6
0.98067	-6
0.98433	-5
0.98800	-5
0.99167	-5
0.99533	-4
0.99900	-4
1.00267	-3
1.00633	-3
1.01000	-3
1.01367	-3
1.01733	-2
1.02100	-3
1.02467	-3
1.02833	-3
1.03200	-3
1.03567	-4
1.03933	-4
1.04300	-4
1.04667	-4
1.05033	-4
1.05400	-4
1.05767	-4
1.06133	-4
1.06500	-4
1.06867	-4
1.07233	-4
1.07600	-4
1.07967	-5
1.08333	-5
1.08700	-5
1.09067	-5
1.09433	-5
1.09800	-5
1.10167	-5
1.10533	-5
1.10900	-6
1.11267	-6
1.11633	-6
1.12000	-6
1.12367	-6
1.12733	-7
1.13100	-7
1.13467	-8
1.13833	-8
1.14200	-8
1.14567	-8
1.14933	-9
1.15300	-9
1.15667	-9
1.16033	-9
1.16400	-9
1.16767	-9
1.17133	-8
1.17500	-8
1.17867	-8
1.18233	-8
1.18600	-7
1.18967	-7
1.19333	-7
1.19700	-7
1.20067	-7
1.20433	-7
1.20800	-6
1.21167	-6
1.21533	-6
1.21900	-6
1.22267	-6
1.22633	-6
1.23000	-6
1.23367	-6
1.23733	-6
1.24100	-6
1.24467	-6
1.24833	-6
1.25200	-6
1.25567	-6
1.25933	-6
1.26300	-6
1.26667	-6
1.27033	-6
1.27400	-6
1.27767	-7
1.28133	-7
1.28500	-8
1.28867	-8
1.29233	-8
1.29600	-9
1.29967	-9
1.30333	-10
1.30700	-10
1.31067	-10
1.31433	-10
1.31800	-10
1.32167	-9
1.32533	-9
1.32900	-9
1.33267	-9
1.33633	-8
1.34000	-7
1.34367	-7
1.34733	-6
1.35100	-6
1.35467	-6
1.35833	-6
1.36200	-6
1.36567	-6
1.36933	-6
1.37300	-6
1.37667	-6
1.38033	-5
1.38400	-5
1.38767	-5
1.39133	-5
1.39500	-5
1.39867	-5
1.40233	-5
1.40600	-5
1.40967	-5
1.41333	-5
1.41700	-5
1.42067	-6
1.42433	-6
1.42800	-6
1.43167	-6
1.43533	-6
1.43900	-6
1.44267	-6
1.44633	-6
1.45000	-7
1.45367	-7
1.45733	-7
1.46100	-7
1.46467	-6
1.46833	-6
1.47200	-6
1.47567	-6
1.47933	-5
1.48300	-5
1.48667	-5
1.49033	-5
1.49400	-5
1.49767	-5
1.50133	-4
1.50500	-4
1.50867	-4
1.51233	-4
1.51600	-4
1.51967	-3
1.52333	-3
1.52700	-3
1.53067	-3
1.53433	-4
1.53800	-4
1.54167	-4
1.54533	-4
1.54900	-5
1.55267	-5
1.55633	-5
1.56000	-5
1.56367	-5
1.56733	-5
1.57100	-5
1.57467	-5
1.57833	-5
1.58200	-5
1.58567	-6
1.58933	-6
1.59300	-7
1.59667	-8
1.60033	-9
1.60400	-10
1.60767	-11
1.61133	-13
1.61500	-15
1.61867	-17
1.62233	-20
1.62600	-23
1.62967	-26
1.63333	-28
1.63700	-31
1.64067	-34
1.64433	-37
1.64800	-40
1.65167	-43
1.65533	-47
1.65900	-50
1.66267	-54
1.66633	-59
1.67000	-64
1.67367	-69
1.67733	-75
1.68100	-80
1.68467	-85
1.68833	-90
1.69200	-95
1.69567	-99
1.69933	-102
1.70300	-105
1.70667	-108
1.71033	-110
1.71400	-112
1.71767	-113
1.72133	-114
1.72500	-115
1.72867	-116
1.73233	-116
1.73600	-116
1.73967	-116
1.74333	-116
1.74700	-116
1.75067	-116
1.75433	-116
1.75800	-117
1.76167	-118
1.76533	-119
1.76900	-120
1.77267	-121
1.77633	-122
1.78000	-122
1.78367	-122
1.78733	-123
1.79100	-123
1.79467	-123
1.79833	-123
1.80200	-124
1.80567	-124
1.80933	-124
1.81300	-124
1.81667	-124
1.82033	-124
1.82400	-124
1.82767	-125
1.83133	-125
1.83500	-126
1.83867	-126
1.84233	-126
1.84600	-127
1.84967	-127
1.85333	-126
1.85700	-126
1.86067	-126
1.86433	-126
1.86800	-126
1.87167	-126
1.87533	-126
1.87900	-126
1.88267	-127
1.88633	-127
1.89000	-127
1.89367	-128
1.89733	-128
1.90100	-127
1.90467	-127
1.90833	-126
1.91200	-125
1.91567	-124
1.91933	-123
1.92300	-123
1.92667	-122
1.93033	-122
1.93400	-122
1.93767	-122
1.94133	-122
1.94500	-123
1.94867	-123
1.95233	-123
1.95600	-123
1.95967	-123
1.96333	-122
1.96700	-122
1.97067	-122
1.97433	-121
1.97800	-121
1.98167	-121
1.98533	-120
1.98900	-120
1.99267	-120
1.99633	-121
2.00000	-121
2.00367	-121
2.00733	-120
2.01100	-119
2.01467	-118
2.01833	-118
2.02200	-117
2.02567	-116
2.02933	-116
2.03300	-115
2.03667	-114
2.04033	-114
2.04400	-114
2.04767	-114
2.05133	-114
2.05500	-113
2.05867	-113
2.06233	-112
2.06600	-112
2.06967	-111
2.07333	-111
2.07700	-110
2.08067	-110
2.08433	-110
2.08800	-110
2.09167	-110
2.09533	-110
2.09900	-109
2.10267	-109
2.10633	-108
2.11000	-108
2.11367	-108
2.11733	-108
2.12100	-108
2.12467	-108
2.12833	-108
2.13200	-108
2.13567	-108
2.13933	-108
2.14300	-108
2.14667	-108
2.15033	-107
2.15400	-107
2.15767	-107
2.16133	-106
2.16500	-105
2.16867	-104
2.17233	-104
2.17600	-103
2.17967	-103
2.18333	-102
2.18700	-102
2.19067	-102
2.19433	-102
2.19800	-102
2.20167	-102
2.20533	-102
2.20900	-103
2.21267	-103
2.21633	-103
2.22000	-103
2.22367	-103
2.22733	-102
2.23100	-101
2.23467	-101
2.23833	-100
2.24200	-100
2.24567	-99
2.24933	-99
2.25300	-99
2.25667	-99
2.26033	-99
2.26400	-99
2.26767	-98
2.27133	-98
2.27500	-97
2.27867	-96
2.28233	-95
2.28600	-95
2.28967	-94
2.29333	-94
2.29700	-94
2.30067	-94
2.30433	-94
2.30800	-94
2.31167	-93
2.31533	-93
2.31900	-92
2.32267	-92
2.32633	-92
2.33000	-92
2.33367	-91
2.33733	-91
2.34100	-91
2.34467	-91
2.34833	-91
2.35200	-92
2.35567	-92
2.35933	-92
2.36300	-92
2.36667	-92
2.37033	-91
2.37400	-90
2.37767	-89
2.38133	-87
2.38500	-84
2.38867	-80
2.39233	-76
2.39600	-71
2.39967	-67
2.40333	-61
2.40700	-56
2.41067	-51
2.41433	-46
2.41800	-41
2.42167	-37
2.42533	-33
2.42900	-30
2.43267	-28
2.43633	-25
2.44000	-23
2.44367	-21
2.44733	-18
2.45100	-16
2.45467	-13
2.45833	-11
2.46200	-9
2.46567	-7
2.46933	-6
2.47300	-5
2.47667	-4
2.48033	-4
2.48400	-3
2.48767	-2
2.49133	-0
2.49500	1
2.49867	2
2.50233	3
2.50600	4
2.50967	5
2.51333	5
2.51700	5
2.52067	5
2.52433	5
2.52800	5
2.53167	5
2.53533	6
2.53900	7
2.54267	7
2.54633	8
2.55000	9
2.55367	9
2.55733	10
2.56100	10
2.56467	11
2.56833	11
2.57200	10
2.57567	10
2.57933	10
2.58300	10
2.58667	10
2.59033	10
2.59400	10
2.59767	10
2.60133	11
2.60500	11
2.60867	11
2.61233	12
2.61600	12
2.61967	13
2.62333	13
2.62700	13
2.63067	13
2.63433	13
2.63800	14
2.64167	14
2.64533	14
2.64900	14
2.65267	15
2.65633	15
2.66000	16
2.66367	16
2.66733	16
2.67100	16
2.67467	15
2.67833	15
2.68200	15
2.68567	15
2.68933	15
2.69300	15
2.69667	15
2.70033	16
2.70400	17
2.70767	17
2.71133	18
2.71500	19
2.71867	19
2.72233	20
2.72600	20
2.72967	21
2.73333	21
2.73700	21
2.74067	21
2.74433	20
2.74800	20
2.75167	19
2.75533	19
2.75900	18
2.76267	18
2.76633	17
2.77000	17
2.77367	17
2.77733	17
2.78100	17
2.78467	17
2.78833	17
2.79200	17
2.79567	17
2.79933	17
2.80300	17
2.80667	17
2.81033	17
2.81400	18
2.81767	18
2.82133	18
2.82500	18
2.82867	18
2.83233	18
2.83600	18
2.83967	18
2.84333	18
2.84700	16
2.85067	13
2.85433	8
2.85800	0
2.86167	-11
2.86533	-25
2.86900	-44
2.87267	-67
2.87633	-93
2.88000	-124
2.88367	-158
2.88733	-196
2.89100	-237
2.89467	-281
2.89833	-326
2.90200	-374
2.90567	-422
2.90933	-471
2.91300	-521
2.91667	-570
2.92033	-619
2.92400	-668
2.92767	-715
2.93133	-761
2.93500	-808
2.93867	-858
2.94233	-915
2.94600	-977
2.94967	-1035
2.95333	-1079
2.95700	-1098
2.96067	-1091
2.96433	-1059
2.96800	-1006
2.97167	-939
2.97533	-863
2.97900	-783
2.98267	-703
2.98633	-625
2.99000	-551
2.99367	-483
2.99733	-421
3.00100	-365
3.00467	-315
3.00833	-271
3.01200	-232
3.01567	-198
3.01933	-168
3.02300	-143
3.02667	-121
3.03033	-103
3.03400	-87
3.03767	-73
3.04133	-62
3.04500	-52
3.04867	-43
3.05233	-36
3.05600	-30
3.05967	-25
3.06333	-21
3.06700	-17
3.07067	-13
3.07433	-11
3.07800	-8
3.08167	-6
3.08533	-4
3.08900	-2
3.09267	-1
3.09633	0
3.10000	1
3.10367	2
3.10733	3
3.11100	4
3.11467	4
3.11833	5
3.12200	6
3.12567	6
3.12933	7
3.13300	8
3.13667	8
3.14033	9
3.14400	10
3.14767	11
3.15133	12
3.15500	12
3.15867	13
3.16233	13
3.16600	14
3.16967	15
3.17333	15
3.17700	16
3.18067	16
3.18433	16
3.18800	17
3.19167	17
3.19533	17
3.19900	17
3.20267	17
3.20633	17
3.21000	18
3.21367	18
3.21733	18
3.22100	18
3.22467	18
3.22833	18
3.23200	18
3.23567	18
3.23933	18
3.24300	18
3.24667	18
3.25033	18
3.25400	18
3.25767	18
3.26133	18
3.26500	18
3.26867	18
3.27233	18
3.27600	18
3.27967	18
3.28333	18
3.28700	18
3.29067	18
3.29433	18
3.29800	18
3.30167	18
3.30533	18
3.30900	18
3.31267	19
3.31633	19
3.32000	19
3.32367	19
3.32733	20
3.33100	20
3.33467	20
3.33833	20
3.34200	20
3.34567	20
3.34933	20
3.35300	20
3.35667	20
3.36033	20
3.36400	20
3.36767	20
3.37133	20
3.37500	20
3.37867	20
3.38233	20
3.38600	20
3.38967	20
3.39333	21
3.39700	21
3.40067	21
3.40433	21
3.40800	21
3.41167	21
3.41533	21
3.41900	21
3.42267	21
3.42633	21
3.43000	22
3.43367	22
3.43733	21
3.44100	21
3.44467	21
3.44833	21
3.45200	21
3.45567	21
3.45933	21
3.46300	21
3.46667	21
3.47033	21
3.47400	21
3.47767	21
3.48133	21
3.48500	21
3.48867	21
3.49233	21
3.49600	21
3.49967	21
3.50333	22
3.50700	22
3.51067	22
3.51433	22
3.51800	22
3.52167	22
3.52533	22
3.52900	22
3.53267	22
3.53633	22
3.54000	22
3.54367	23
3.54733	22
3.55100	23
3.55467	23
3.55833	23
3.56200	23
3.56567	23
3.56933	23
3.57300	23
3.57667	23
3.58033	23
3.58400	23
3.58767	23
3.59133	23
3.59500	23
3.59867	23
3.60233	23
3.60600	24
3.60967	24
3.61333	24
3.61700	24
3.62067	24
3.62433	24
3.62800	24
3.63167	24
3.63533	24
3.63900	24
3.64267	24
3.64633	24
3.65000	24
3.65367	24
3.65733	24
3.66100	24
3.66467	23
3.66833	23
3.67200	23
3.67567	23
3.67933	23
3.68300	23
3.68667	23
3.69033	23
3.69400	23
3.69767	23
3.70133	23
3.70500	23
3.70867	23
3.71233	23
3.71600	22
3.71967	22
3.72333	22
3.72700	22
3.73067	22
3.73433	22
3.73800	22
3.74167	22
3.74533	22
3.74900	22
3.75267	23
3.75633	23
3.76000	23
3.76367	23
3.76733	23
3.77100	23
3.77467	23
3.77833	23
3.78200	23
3.78567	23
3.78933	23
3.79300	23
3.79667	23
3.80033	23
3.80400	23
3.80767	23
3.81133	23
3.81500	23
3.81867	23
3.82233	23
3.82600	23
3.82967	23
3.83333	23
3.83700	23
3.84067	22
3.84433	22
3.84800	22
3.85167	22
3.85533	22
3.85900	22
3.86267	22
3.86633	22
3.87000	22
3.87367	22
3.87733	22
3.88100	22
3.88467	22
3.88833	22
3.89200	22
3.89567	22
3.89933	22
3.90300	22
3.90667	22
3.91033	22
3.91400	22
3.91767	22
3.92133	22
3.92500	22
3.92867	23
3.93233	23
3.93600	23
3.93967	23
3.94333	23
3.94700	23
3.95067	22
3.95433	22
3.95800	22
3.96167	22
3.96533	22
3.96900	22
3.97267	22
3.97633	22
3.98000	22
3.98367	21
3.98733	21
3.99100	21
3.99467	21
3.99833	21

[Chromatogram (Ch3)]
Interval(msec)	220
# of Points	1091
Start Time(min)	0.002
End Time(min)	3.998
R.Time (min)	Intensity
0.00167	0
0.00533	3
0.00900	6
0.01267	6
0.01633	5
0.02000	3
0.02367	4
0.02733	4
0.03100	3
0.03467	3
0.03833	2
0.04200	1
0.04567	1
0.04933	2
0.05300	2
0.05667	1
0.06033	1
0.06400	1
0.06767	1
0.07133	1
0.07500	1
0.07867	4
0.08233	7
0.08600	7
0.08967	6
0.09333	5
0.09700	5
0.10067	5
0.10433	7
0.10800	7
0.11167	7
0.11533	7
0.11900	8
0.12267	9
0.12633	12
0.13000	13
0.13367	13
0.13733	11
0.14100	7
0.14467	3
0.14833	2
0.15200	4
0.15567	6
0.15933	7
0.16300	7
0.16667	6
0.17033	6
0.17400	6
0.17767	7
0.18133	7
0.18500	6
0.18867	7
0.19233	6
0.19600	5
0.19967	6
0.20333	4
0.20700	5
0.21067	7
0.21433	8
0.21800	9
0.22167	10
0.22533	11
0.22900	10
0.23267	7
0.23633	5
0.24000	4
0.24367	3
0.24733	5
0.25100	6
0.25467	6
0.25833	7
0.26200	8
0.26567	9
0.26933	9
0.27300	9
0.27667	11
0.28033	13
0.28400	12
0.28767	10
0.29133	8
0.29500	7
0.29867	5
0.30233	4
0.30600	4
0.30967	4
0.31333	4
0.31700	4
0.32067	6
0.32433	8
0.32800	8
0.33167	7
0.33533	6
0.33900	7
0.34267	7
0.34633	7
0.35000	8
0.35367	9
0.35733	9
0.36100	8
0.36467	6
0.36833	7
0.37200	7
0.37567	7
0.37933	6
0.38300	5
0.38667	5
0.39033	6
0.39400	7
0.39767	8
0.40133	8
0.40500	9
0.40867	8
0.41233	8
0.41600	10
0.41967	9
0.42333	7
0.42700	8
0.43067	7
0.43433	7
0.43800	7
0.44167	6
0.44533	5
0.44900	3
0.45267	4
0.45633	6
0.46000	6
0.46367	7
0.46733	9
0.47100	10
0.47467	11
0.47833	9
0.48200	8
0.48567	9
0.48933	9
0.49300	9
0.49667	9
0.50033	8
0.50400	8
0.50767	7
0.51133	5
0.51500	6
0.51867	8
0.52233	8
0.52600	9
0.52967	11
0.53333	12
0.53700	14
0.54067	14
0.54433	14
0.54800	16
0.55167	17
0.55533	17
0.55900	17
0.56267	19
0.56633	20
0.57000	20
0.57367	20
0.57733	19
0.58100	17
0.58467	16
0.58833	15
0.59200	14
0.59567	11
0.59933	11
0.60300	12
0.60667	12
0.61033	12
0.61400	13
0.61767	15
0.62133	16
0.62500	17
0.62867	18
0.63233	20
0.63600	19
0.63967	18
0.64333	17
0.64700	16
0.65067	16
0.65433	16
0.65800	16
0.66167	18
0.66533	19
0.66900	20
0.67267	19
0.67633	18
0.68000	18
0.68367	18
0.68733	17
0.69100	16
0.69467	15
0.69833	18
0.70200	20
0.70567	20
0.70933	21
0.71300	22
0.71667	21
0.72033	20
0.72400	20
0.72767	22
0.73133	21
0.73500	18
0.73867	19
0.74233	21
0.74600	22
0.74967	23
0.75333	22
0.75700	20
0.76067	20
0.76433	19
0.76800	19
0.77167	19
0.77533	21
0.77900	23
0.78267	23
0.78633	24
0.79000	25
0.79367	24
0.79733	23
0.80100	23
0.80467	23
0.80833	24
0.81200	25
0.81567	23
0.81933	24
0.82300	24
0.82667	22
0.83033	20
0.83400	19
0.83767	19
0.84133	19
0.84500	19
0.84867	19
0.85233	19
0.85600	17
0.85967	18
0.86333	20
0.86700	20
0.87067	19
0.87433	20
0.87800	22
0.88167	21
0.88533	22
0.88900	25
0.89267	27
0.89633	26
0.90000	26
0.90367	25
0.90733	26
0.91100	26
0.91467	27
0.91833	28
0.92200	29
0.92567	27
0.92933	25
0.93300	24
0.93667	23
0.94033	21
0.94400	20
0.94767	19
0.95133	19
0.95500	20
0.95867	23
0.96233	27
0.96600	27
0.96967	26
0.97333	26
0.97700	26
0.98067	25
0.98433	25
0.98800	26
0.99167	27
0.99533	29
0.99900	30
1.00267	29
1.00633	26
1.01000	23
1.01367	22
1.01733	22
1.02100	22
1.02467	22
1.02833	25
1.03200	27
1.03567	27
1.03933	25
1.04300	26
1.04667	29
1.05033	30
1.05400	29
1.05767	28
1.06133	29
1.06500	27
1.06867	26
1.07233	27
1.07600	26
1.07967	25
1.08333	27
1.08700	29
1.09067	29
1.09433	27
1.09800	27
1.10167	29
1.10533	30
1.10900	29
1.11267	28
1.11633	29
1.12000	31
1.12367	34
1.12733	35
1.13100	35
1.13467	32
1.13833	31
1.14200	32
1.14567	35
1.14933	36
1.15300	36
1.15667	35
1.16033	35
1.16400	35
1.16767	36
1.17133	36
1.17500	37
1.17867	38
1.18233	38
1.18600	37
1.18967	37
1.19333	36
1.19700	37
1.20067	38
1.20433	36
1.20800	35
1.21167	34
1.21533	32
1.21900	31
1.22267	30
1.22633	30
1.23000	29
1.23367	28
1.23733	28
1.24100	29
1.24467	29
1.24833	31
1.25200	32
1.25567	34
1.25933	34
1.26300	35
1.26667	36
1.27033	37
1.27400	38
1.27767	38
1.28133	40
1.28500	41
1.28867	38
1.29233	36
1.29600	36
1.29967	37
1.30333	40
1.30700	42
1.31067	43
1.31433	43
1.31800	40
1.32167	35
1.32533	35
1.32900	35
1.33267	36
1.33633	37
1.34000	37
1.34367	36
1.34733	35
1.35100	37
1.35467	38
1.35833	37
1.36200	36
1.36567	36
1.36933	38
1.37300	38
1.37667	37
1.38033	35
1.38400	34
1.38767	35
1.39133	35
1.39500	36
1.39867	38
1.40233	40
1.40600	41
1.40967	39
1.41333	38
1.41700	36
1.42067	35
1.42433	34
1.42800	33
1.43167	33
1.43533	36
1.43900	38
1.44267	38
1.44633	37
1.45000	37
1.45367	39
1.45733	37
1.46100	35
1.46467	35
1.46833	36
1.47200	37
1.47567	38
1.47933	39
1.48300	38
1.48667	38
1.49033	39
1.49400	39
1.49767	38
1.50133	39
1.50500	40
1.50867	40
1.51233	42
1.51600	41
1.51967	39
1.52333	38
1.52700	36
1.53067	36
1.53433	35
1.53800	35
1.54167	36
1.54533	37
1.54900	39
1.55267	42
1.55633	42
1.56000	42
1.56367	40
1.56733	38
1.57100	35
1.57467	34
1.57833	36
1.58200	37
1.58567	37
1.58933	36
1.59300	38
1.59667	38
1.60033	39
1.60400	40
1.60767	38
1.61133	37
1.61500	37
1.61867	37
1.62233	38
1.62600	37
1.62967	39
1.63333	41
1.63700	42
1.64067	42
1.64433	41
1.64800	42
1.65167	44
1.65533	47
1.65900	48
1.66267	47
1.66633	46
1.67000	47
1.67367	47
1.67733	47
1.68100	48
1.68467	50
1.68833	52
1.69200	54
1.69567	53
1.69933	54
1.70300	55
1.70667	57
1.71033	57
1.71400	58
1.71767	58
1.72133	57
1.72500	58
1.72867	58
1.73233	58
1.73600	57
1.73967	56
1.74333	57
1.74700	59
1.75067	58
1.75433	58
1.75800	59
1.76167	59
1.76533	59
1.76900	60
1.77267	64
1.77633	67
1.78000	70
1.78367	72
1.78733	73
1.79100	73
1.79467	74
1.79833	74
1.80200	73
1.80567	74
1.80933	76
1.81300	76
1.81667	78
1.82033	79
1.82400	80
1.82767	81
1.83133	82
1.83500	84
1.83867	84
1.84233	83
1.84600	82
1.84967	80
1.85333	80
1.85700	82
1.86067	83
1.86433	84
1.86800	85
1.87167	88
1.87533	90
1.87900	89
1.88267	89
1.88633	92
1.89000	94
1.89367	96
1.89733	97
1.90100	97
1.90467	94
1.90833	92
1.91200	91
1.91567	93
1.91933	97
1.92300	100
1.92667	99
1.93033	97
1.93400	97
1.93767	97
1.94133	98
1.94500	98
1.94867	98
1.95233	98
1.95600	98
1.95967	101
1.96333	101
1.96700	102
1.97067	103
1.97433	106
1.97800	109
1.98167	113
1.98533	112
1.98900	112
1.99267	115
1.99633	119
2.00000	119
2.00367	117
2.00733	115
2.01100	114
2.01467	114
2.01833	115
2.02200	117
2.02567	119
2.02933	119
2.03300	120
2.03667	122
2.04033	124
2.04400	124
2.04767	123
2.05133	125
2.05500	127
2.05867	128
2.06233	129
2.06600	132
2.06967	134
2.07333	137
2.07700	139
2.08067	137
2.08433	137
2.08800	139
2.09167	139
2.09533	141
2.09900	143
2.10267	145
2.10633	144
2.11000	145
2.11367	146
2.11733	148
2.12100	149
2.12467	151
2.12833	152
2.13200	155
2.13567	156
2.13933	158
2.14300	159
2.14667	160
2.15033	161
2.15400	161
2.15767	163
2.16133	165
2.16500	167
2.16867	169
2.17233	172
2.17600	172
2.17967	174
2.18333	177
2.18700	177
2.19067	177
2.19433	177
2.19800	179
2.20167	180
2.20533	180
2.20900	181
2.21267	183
2.21633	187
2.22000	189
2.22367	190
2.22733	191
2.23100	193
2.23467	192
2.23833	190
2.24200	189
2.24567	190
2.24933	191
2.25300	193
2.25667	197
2.26033	198
2.26400	197
2.26767	198
2.27133	201
2.27500	203
2.27867	205
2.28233	205
2.28600	205
2.28967	207
2.29333	211
2.29700	212
2.30067	213
2.30433	214
2.30800	216
2.31167	219
2.31533	223
2.31900	224
2.32267	223
2.32633	223
2.33000	224
2.33367	227
2.33733	229
2.34100	231
2.34467	233
2.34833	234
2.35200	232
2.35567	232
2.35933	232
2.36300	234
2.36667	236
2.37033	238
2.37400	242
2.37767	244
2.38133	243
2.38500	239
2.38867	237
2.39233	239
2.39600	242
2.39967	241
2.40333	240
2.40700	241
2.41067	243
2.41433	246
2.41800	252
2.42167	258
2.42533	263
2.42900	265
2.43267	265
2.43633	266
2.44000	267
2.44367	269
2.44733	270
2.45100	271
2.45467	275
2.45833	284
2.46200	298
2.46567	318
2.46933	344
2.47300	372
2.47667	399
2.48033	427
2.48400	455
2.48767	482
2.49133	506
2.49500	527
2.49867	548
2.50233	566
2.50600	585
2.50967	600
2.51333	612
2.51700	621
2.52067	632
2.52433	643
2.52800	651
2.53167	660
2.53533	668
2.53900	676
2.54267	683
2.54633	690
2.55000	697
2.55367	703
2.55733	710
2.56100	716
2.56467	720
2.56833	726
2.57200	733
2.57567	736
2.57933	738
2.58300	741
2.58667	745
2.59033	745
2.59400	746
2.59767	744
2.60133	739
2.60500	728
2.60867	709
2.61233	679
2.61600	645
2.61967	605
2.62333	565
2.62700	529
2.63067	495
2.63433	466
2.63800	444
2.64167	426
2.64533	414
2.64900	406
2.65267	402
2.65633	399
2.66000	398
2.66367	400
2.66733	406
2.67100	414
2.67467	424
2.67833	434
2.68200	445
2.68567	455
2.68933	465
2.69300	477
2.69667	487
2.70033	495
2.70400	502
2.70767	508
2.71133	513
2.71500	520
2.71867	526
2.72233	534
2.72600	543
2.72967	551
2.73333	558
2.73700	564
2.74067	568
2.74433	573
2.74800	581
2.75167	589
2.75533	594
2.75900	599
2.76267	603
2.76633	609
2.77000	615
2.77367	620
2.77733	627
2.78100	631
2.78467	632
2.78833	634
2.79200	638
2.79567	642
2.79933	645
2.80300	649
2.80667	653
2.81033	655
2.81400	654
2.81767	653
2.82133	654
2.82500	662
2.82867	681
2.83233	719
2.83600	794
2.83967	932
2.84333	1156
2.84700	1483
2.85067	1924
2.85433	2470
2.85800	3097
2.86167	3767
2.86533	4429
2.86900	5028
2.87267	5519
2.87633	5866
2.88000	6055
2.88367	6087
2.88733	5978
2.89100	5754
2.89467	5447
2.89833	5087
2.90200	4697
2.90567	4304
2.90933	3920
2.91300	3554
2.91667	3211
2.92033	2896
2.92400	2612
2.92767	2359
2.93133	2132
2.93500	1931
2.93867	1758
2.94233	1606
2.94600	1472
2.94967	1356
2.95333	1256
2.95700	1168
2.96067	1091
2.96433	1026
2.96800	970
2.97167	921
2.97533	878
2.97900	840
2.98267	809
2.98633	783
2.99000	760
2.99367	739
2.99733	721
3.00100	703
3.00467	688
3.00833	676
3.01200	665
3.01567	656
3.01933	649
3.02300	642
3.02667	635
3.03033	627
3.03400	618
3.03767	613
3.04133	609
3.04500	603
3.04867	599
3.05233	597
3.05600	596
3.05967	593
3.06333	588
3.06700	583
3.07067	580
3.07433	577
3.07800	574
3.08167	572
3.08533	568
3.08900	565
3.09267	562
3.09633	559
3.10000	557
3.10367	557
3.10733	557
3.11100	555
3.11467	551
3.11833	551
3.12200	551
3.12567	548
3.12933	544
3.13300	542
3.13667	541
3.14033	538
3.14400	537
3.14767	534
3.15133	529
3.15500	523
3.15867	522
3.16233	522
3.16600	521
3.16967	519
3.17333	516
3.17700	514
3.18067	511
3.18433	507
3.18800	504
3.19167	501
3.19533	499
3.19900	499
3.20267	499
3.20633	497
3.21000	495
3.21367	494
3.21733	491
3.22100	488
3.22467	488
3.22833	487
3.23200	485
3.23567	484
3.23933	482
3.24300	478
3.24667	475
3.25033	474
3.25400	471
3.25767	469
3.26133	468
3.26500	467
3.26867	465
3.27233	462
3.27600	462
3.27967	459
3.28333	454
3.28700	450
3.29067	447
3.29433	445
3.29800	442
3.30167	439
3.30533	438
3.30900	437
3.31267	436
3.31633	433
3.32000	430
3.32367	427
3.32733	423
3.33100	419
3.33467	416
3.33833	414
3.34200	413
3.34567	412
3.34933	410
3.35300	408
3.35667	406
3.36033	404
3.36400	400
3.36767	400
3.37133	400
3.37500	400
3.37867	398
3.38233	395
3.38600	392
3.38967	389
3.39333	384
3.39700	381
3.40067	377
3.40433	375
3.40800	373
3.41167	373
3.41533	370
3.41900	367
3.42267	362
3.42633	359
3.43000	359
3.43367	359
3.43733	357
3.44100	356
3.44467	352
3.44833	347
3.45200	343
3.45567	341
3.45933	339
3.46300	337
3.46667	337
3.47033	339
3.47400	339
3.47767	340
3.48133	337
3.48500	334
3.48867	329
3.49233	327
3.49600	326
3.49967	323
3.50333	322
3.50700	321
3.51067	320
3.51433	318
3.51800	314
3.52167	310
3.52533	308
3.52900	308
3.53267	306
3.53633	306
3.54000	306
3.54367	307
3.54733	307
3.55100	307
3.55467	304
3.55833	301
3.56200	297
3.56567	294
3.56933	293
3.57300	291
3.57667	288
3.58033	285
3.58400	283
3.58767	282
3.59133	279
3.59500	277
3.59867	278
3.60233	279
3.60600	279
3.60967	279
3.61333	277
3.61700	276
3.62067	275
3.62433	272
3.62800	269
3.63167	266
3.63533	264
3.63900	263
3.64267	262
3.64633	258
3.65000	256
3.65367	254
3.65733	253
3.66100	253
3.66467	253
3.66833	253
3.67200	253
3.67567	252
3.67933	250
3.68300	248
3.68667	247
3.69033	245
3.69400	243
3.69767	241
3.70133	238
3.70500	235
3.70867	232
3.71233	232
3.71600	230
3.71967	229
3.72333	228
3.72700	228
3.73067	228
3.73433	226
3.73800	224
3.74167	224
3.74533	223
3.74900	222
3.75267	223
3.75633	224
3.76000	224
3.76367	224
3.76733	221
3.77100	219
3.77467	219
3.77833	220
3.78200	218
3.78567	215
3.78933	213
3.79300	213
3.79667	211
3.80033	208
3.80400	206
3.80767	205
3.81133	204
3.81500	202
3.81867	201
3.82233	199
3.82600	198
3.82967	198
3.83333	199
3.83700	201
3.84067	201
3.84433	202
3.84800	200
3.85167	198
3.85533	197
3.85900	195
3.86267	193
3.86633	192
3.87000	193
3.87367	192
3.87733	191
3.88100	189
3.88467	187
3.88833	186
3.89200	185
3.89567	186
3.89933	185
3.90300	183
3.90667	179
3.91033	179
3.91400	182
3.91767	182
3.92133	179
3.92500	177
3.92867	176
3.93233	177
3.93600	177
3.93967	177
3.94333	177
3.94700	177
3.95067	177
3.95433	176
3.95800	173
3.96167	171
3.96533	170
3.96900	168
3.97267	169
3.97633	172
3.98000	173
3.98367	172
3.98733	168
3.99100	165
3.99467	165
3.99833	164

[Status Trace (Column Oven Temperature)]
Interval(msec)	1000
# of Points	240
Start Time(min)	0.003
End Time(min)	3.986
Intensity Units	
Intensity Multiplier	1
R.Time (min)	Intensity
0.00288	35.01
0.01955	35.00
0.03622	35.00
0.05288	34.98
0.06955	34.97
0.08622	34.96
0.10288	34.95
0.11955	34.95
0.13622	34.95
0.15288	34.96
0.16955	34.97
0.18622	34.97
0.20288	34.97
0.21955	34.98
0.23622	34.97
0.25288	34.96
0.26955	34.96
0.28622	34.97
0.30288	34.98
0.31955	34.98
0.33622	34.98
0.35288	34.98
0.36955	34.98
0.38622	34.99
0.40288	35.00
0.41955	35.00
0.43622	35.00
0.45288	35.00
0.46955	35.01
0.48622	35.01
0.50288	35.01
0.51955	35.00
0.53622	34.98
0.55288	34.98
0.56955	34.98
0.58622	34.98
0.60288	34.99
0.61955	34.99
0.63622	34.99
0.65288	35.00
0.66955	35.02
0.68622	35.02
0.70288	35.01
0.71955	35.00
0.73622	34.99
0.75288	34.99
0.76955	34.99
0.78622	34.98
0.80288	34.97
0.81955	34.97
0.83622	34.97
0.85288	34.96
0.86955	34.96
0.88622	34.97
0.90288	34.97
0.91955	34.97
0.93622	34.98
0.95288	35.00
0.96955	35.01
0.98622	34.99
1.00288	34.98
1.01955	34.97
1.03622	34.96
1.05288	34.96
1.06955	34.96
1.08622	34.96
1.10288	34.97
1.11955	34.99
1.13622	35.00
1.15288	35.00
1.16955	35.00
1.18622	35.00
1.20288	34.99
1.21955	34.99
1.23622	34.99
1.25288	34.98
1.26955	34.99
1.28622	35.01
1.30288	35.02
1.31955	35.03
1.33622	35.02
1.35288	35.01
1.36955	35.01
1.38622	35.00
1.40288	35.00
1.41955	35.00
1.43622	35.01
1.45288	35.01
1.46955	35.01
1.48622	35.00
1.50288	34.98
1.51955	34.97
1.53622	34.97
1.55288	34.97
1.56955	34.98
1.58622	35.00
1.60288	35.05
1.61955	35.15
1.63622	35.31
1.65288	35.52
1.66955	35.84
1.68622	36.22
1.70288	36.59
1.71955	36.93
1.73622	37.24
1.75288	37.56
1.76955	37.91
1.78622	38.24
1.80288	38.57
1.81955	38.89
1.83622	39.25
1.85288	39.56
1.86955	39.89
1.88622	40.24
1.90288	40.55
1.91955	40.87
1.93622	41.20
1.95288	41.55
1.96955	41.86
1.98622	42.20
2.00288	42.53
2.01955	42.85
2.03622	43.16
2.05288	43.50
2.06955	43.79
2.08622	44.13
2.10288	44.45
2.11955	44.77
2.13622	45.12
2.15288	45.44
2.16955	45.77
2.18622	46.09
2.20288	46.42
2.21955	46.75
2.23622	47.07
2.25288	47.41
2.26955	47.74
2.28622	48.06
2.30288	48.39
2.31955	48.72
2.33622	49.05
2.35288	49.38
2.36955	49.64
2.38622	49.76
2.40288	49.79
2.41955	49.78
2.43622	49.79
2.45288	49.79
2.46955	49.80
2.48622	49.80
2.50288	49.79
2.51955	49.81
2.53622	49.82
2.55288	49.81
2.56955	49.82
2.58622	49.84
2.60288	49.84
2.61955	49.86
2.63622	49.85
2.65288	49.84
2.66955	49.87
2.68622	49.89
2.70288	49.88
2.71955	49.85
2.73622	49.85
2.75288	49.87
2.76955	49.89
2.78622	49.92
2.80288	49.92
2.81955	49.93
2.83622	49.95
2.85288	49.96
2.86955	49.96
2.88622	49.95
2.90288	49.96
2.91955	49.95
2.93622	49.94
2.95288	49.96
2.96955	49.98
2.98622	49.99
3.00288	50.00
3.01955	50.00
3.03622	50.01
3.05288	50.03
3.06955	50.05
3.08622	50.07
3.10288	50.09
3.11955	50.10
3.13622	50.10
3.15288	50.10
3.16955	50.08
3.18622	50.07
3.20288	50.06
3.21955	50.06
3.23622	50.06
3.25288	50.07
3.26955	50.07
3.28622	50.08
3.30288	50.09
3.31955	50.08
3.33622	50.08
3.35288	50.09
3.36955	50.09
3.38622	50.09
3.40288	50.09
3.41955	50.09
3.43622	50.09
3.45288	50.10
3.46955	50.10
3.48622	50.10
3.50288	50.10
3.51955	50.10
3.53622	50.10
3.55288	50.09
3.56955	50.08
3.58622	50.08
3.60288	50.07
3.61955	50.06
3.63622	50.04
3.65288	50.04
3.66955	50.03
3.68622	50.03
3.70288	50.03
3.71955	50.03
3.73622	50.02
3.75288	50.02
3.76955	50.01
3.78622	50.02
3.80288	50.01
3.81955	50.02
3.83622	50.01
3.85288	50.02
3.86955	50.02
3.88622	50.02
3.90288	50.02
3.91955	50.02
3.93622	50.02
3.95288	50.02
3.96955	50.02
3.98622	50.04

[Status Trace (Injection Unit Temperature)]
Interval(msec)	1000
# of Points	240
Start Time(min)	0.003
End Time(min)	3.986
Intensity Units	
Intensity Multiplier	1
R.Time (min)	Intensity
0.00288	99.98
0.01955	99.98
0.03622	99.99
0.05288	99.99
0.06955	99.99
0.08622	99.98
0.10288	99.99
0.11955	99.99
0.13622	99.99
0.15288	99.99
0.16955	99.98
0.18622	99.99
0.20288	99.99
0.21955	99.99
0.23622	99.99
0.25288	99.99
0.26955	99.99
0.28622	99.99
0.30288	99.99
0.31955	99.99
0.33622	99.99
0.35288	99.99
0.36955	99.99
0.38622	99.99
0.40288	99.99
0.41955	99.99
0.43622	99.99
0.45288	99.99
0.46955	99.99
0.48622	99.98
0.50288	99.99
0.51955	99.99
0.53622	99.98
0.55288	99.98
0.56955	99.99
0.58622	99.98
0.60288	99.99
0.61955	99.99
0.63622	99.98
0.65288	99.98
0.66955	99.98
0.68622	99.99
0.70288	99.99
0.71955	99.99
0.73622	99.99
0.75288	99.99
0.76955	99.99
0.78622	99.99
0.80288	99.98
0.81955	99.99
0.83622	99.99
0.85288	99.98
0.86955	99.99
0.88622	99.99
0.90288	99.99
0.91955	99.99
0.93622	99.99
0.95288	99.99
0.96955	99.99
0.98622	99.99
1.00288	99.99
1.01955	99.99
1.03622	99.99
1.05288	99.99
1.06955	99.99
1.08622	99.99
1.10288	99.99
1.11955	99.99
1.13622	99.99
1.15288	99.99
1.16955	99.99
1.18622	99.99
1.20288	99.99
1.21955	99.99
1.23622	99.99
1.25288	99.99
1.26955	99.99
1.28622	99.99
1.30288	99.99
1.31955	99.99
1.33622	99.99
1.35288	99.99
1.36955	99.99
1.38622	100.00
1.40288	99.99
1.41955	99.99
1.43622	99.99
1.45288	99.99
1.46955	99.99
1.48622	99.99
1.50288	99.99
1.51955	99.99
1.53622	99.99
1.55288	99.99
1.56955	100.00
1.58622	99.99
1.60288	99.99
1.61955	99.99
1.63622	99.99
1.65288	99.99
1.66955	99.99
1.68622	99.99
1.70288	99.99
1.71955	99.99
1.73622	99.99
1.75288	100.00
1.76955	99.99
1.78622	99.99
1.80288	99.99
1.81955	99.99
1.83622	99.99
1.85288	99.99
1.86955	99.99
1.88622	99.99
1.90288	99.99
1.91955	99.99
1.93622	99.98
1.95288	99.98
1.96955	99.98
1.98622	99.98
2.00288	99.99
2.01955	99.98
2.03622	99.98
2.05288	99.98
2.06955	99.98
2.08622	99.98
2.10288	99.97
2.11955	99.97
2.13622	99.97
2.15288	99.98
2.16955	99.98
2.18622	99.97
2.20288	99.97
2.21955	99.97
2.23622	99.97
2.25288	99.97
2.26955	99.97
2.28622	99.96
2.30288	99.97
2.31955	99.97
2.33622	99.97
2.35288	99.97
2.36955	99.97
2.38622	99.97
2.40288	99.97
2.41955	99.97
2.43622	99.97
2.45288	99.97
2.46955	99.97
2.48622	99.97
2.50288	99.97
2.51955	99.97
2.53622	99.98
2.55288	99.98
2.56955	99.98
2.58622	99.98
2.60288	99.97
2.61955	99.98
2.63622	99.98
2.65288	99.98
2.66955	99.98
2.68622	99.98
2.70288	99.98
2.71955	99.98
2.73622	99.99
2.75288	99.99
2.76955	99.99
2.78622	99.99
2.80288	99.99
2.81955	100.00
2.83622	99.99
2.85288	100.00
2.86955	100.00
2.88622	100.00
2.90288	100.00
2.91955	100.01
2.93622	100.00
2.95288	100.01
2.96955	100.01
2.98622	100.01
3.00288	100.01
3.01955	100.01
3.03622	100.01
3.05288	100.02
3.06955	100.01
3.08622	100.02
3.10288	100.02
3.11955	100.02
3.13622	100.02
3.15288	100.02
3.16955	100.02
3.18622	100.03
3.20288	100.03
3.21955	100.03
3.23622	100.03
3.25288	100.03
3.26955	100.03
3.28622	100.03
3.30288	100.03
3.31955	100.04
3.33622	100.03
3.35288	100.03
3.36955	100.04
3.38622	100.04
3.40288	100.04
3.41955	100.04
3.43622	100.04
3.45288	100.04
3.46955	100.04
3.48622	100.04
3.50288	100.05
3.51955	100.04
3.53622	100.05
3.55288	100.05
3.56955	100.05
3.58622	100.05
3.60288	100.05
3.61955	100.05
3.63622	100.04
3.65288	100.05
3.66955	100.04
3.68622	100.04
3.70288	100.05
3.71955	100.05
3.73622	100.05
3.75288	100.05
3.76955	100.05
3.78622	100.05
3.80288	100.05
3.81955	100.05
3.83622	100.05
3.85288	100.05
3.86955	100.05
3.88622	100.05
3.90288	100.05
3.91955	100.05
3.93622	100.06
3.95288	100.05
3.96955	100.05
3.98622	100.05

[Status Trace (Carrier Gas Pressure)]
Interval(msec)	1000
# of Points	240
Start Time(min)	0.003
End Time(min)	3.986
Intensity Units	
Intensity Multiplier	1
R.Time (min)	Intensity
0.00288	58.00
0.01955	56.14
0.03622	56.26
0.05288	58.52
0.06955	59.90
0.08622	58.36
0.10288	57.97
0.11955	58.01
0.13622	58.01
0.15288	58.01
0.16955	58.00
0.18622	58.00
0.20288	58.00
0.21955	58.00
0.23622	58.00
0.25288	58.00
0.26955	58.00
0.28622	58.00
0.30288	58.00
0.31955	58.00
0.33622	58.00
0.35288	58.00
0.36955	58.00
0.38622	58.00
0.40288	58.00
0.41955	58.00
0.43622	58.00
0.45288	58.00
0.46955	58.00
0.48622	58.00
0.50288	58.00
0.51955	58.00
0.53622	58.00
0.55288	58.00
0.56955	58.00
0.58622	58.00
0.60288	58.00
0.61955	58.00
0.63622	58.00
0.65288	58.00
0.66955	58.00
0.68622	58.00
0.70288	58.00
0.71955	58.00
0.73622	58.00
0.75288	58.00
0.76955	58.00
0.78622	58.00
0.80288	58.00
0.81955	58.00
0.83622	58.00
0.85288	58.00
0.86955	58.00
0.88622	58.00
0.90288	58.00
0.91955	58.00
0.93622	58.00
0.95288	58.00
0.96955	58.00
0.98622	58.00
1.00288	58.00
1.01955	58.00
1.03622	58.00
1.05288	58.00
1.06955	58.00
1.08622	58.00
1.10288	58.00
1.11955	58.00
1.13622	58.00
1.15288	58.00
1.16955	58.00
1.18622	58.00
1.20288	58.00
1.21955	58.00
1.23622	58.00
1.25288	58.00
1.26955	58.00
1.28622	58.00
1.30288	58.00
1.31955	58.00
1.33622	58.00
1.35288	58.00
1.36955	58.00
1.38622	58.00
1.40288	58.00
1.41955	58.00
1.43622	58.00
1.45288	58.00
1.46955	58.00
1.48622	58.00
1.50288	58.00
1.51955	58.00
1.53622	58.00
1.55288	58.00
1.56955	58.00
1.58622	58.00
1.60288	58.00
1.61955	58.00
1.63622	58.00
1.65288	58.00
1.66955	58.01
1.68622	58.01
1.70288	58.00
1.71955	58.00
1.73622	58.00
1.75288	58.00
1.76955	58.00
1.78622	58.00
1.80288	58.00
1.81955	58.00
1.83622	58.00
1.85288	58.00
1.86955	58.00
1.88622	58.00
1.90288	58.00
1.91955	58.00
1.93622	58.00
1.95288	58.00
1.96955	58.00
1.98622	58.00
2.00288	58.00
2.01955	58.00
2.03622	58.00
2.05288	58.00
2.06955	58.00
2.08622	58.00
2.10288	58.00
2.11955	58.00
2.13622	58.00
2.15288	58.00
2.16955	58.00
2.18622	58.00
2.20288	58.00
2.21955	58.00
2.23622	58.00
2.25288	58.00
2.26955	58.00
2.28622	58.00
2.30288	58.00
2.31955	58.00
2.33622	58.00
2.35288	58.00
2.36955	58.00
2.38622	57.99
2.40288	57.99
2.41955	58.00
2.43622	58.00
2.45288	58.00
2.46955	58.00
2.48622	58.00
2.50288	57.97
2.51955	58.01
2.53622	57.99
2.55288	58.00
2.56955	58.00
2.58622	58.00
2.60288	58.00
2.61955	58.00
2.63622	58.00
2.65288	58.00
2.66955	58.00
2.68622	58.00
2.70288	58.00
2.71955	58.00
2.73622	58.00
2.75288	58.00
2.76955	58.00
2.78622	58.00
2.80288	58.00
2.81955	58.00
2.83622	58.00
2.85288	58.00
2.86955	58.00
2.88622	58.00
2.90288	58.00
2.91955	58.00
2.93622	58.00
2.95288	58.00
2.96955	58.00
2.98622	58.00
3.00288	58.00
3.01955	58.00
3.03622	58.00
3.05288	58.00
3.06955	58.00
3.08622	58.00
3.10288	58.00
3.11955	58.00
3.13622	58.00
3.15288	58.00
3.16955	58.00
3.18622	58.00
3.20288	58.00
3.21955	58.00
3.23622	58.00
3.25288	58.00
3.26955	58.00
3.28622	58.00
3.30288	58.00
3.31955	58.00
3.33622	58.00
3.35288	58.00
3.36955	58.00
3.38622	58.00
3.40288	58.00
3.41955	58.00
3.43622	58.00
3.45288	58.00
3.46955	58.00
3.48622	58.00
3.50288	58.00
3.51955	58.00
3.53622	58.00
3.55288	58.00
3.56955	58.00
3.58622	58.00
3.60288	58.00
3.61955	58.00
3.63622	58.00
3.65288	58.00
3.66955	58.00
3.68622	58.00
3.70288	58.00
3.71955	58.00
3.73622	58.00
3.75288	58.00
3.76955	58.00
3.78622	58.00
3.80288	58.00
3.81955	58.00
3.83622	58.00
3.85288	58.00
3.86955	58.00
3.88622	58.00
3.90288	58.00
3.91955	58.00
3.93622	58.00
3.95288	58.00
3.96955	58.00
3.98622	58.00

[Status Trace (Carrier Gas Flow)]
Interval(msec)	1000
# of Points	240
Start Time(min)	0.003
End Time(min)	3.986
Intensity Units	
Intensity Multiplier	1
R.Time (min)	Intensity
0.00288	34.52
0.01955	34.63
0.03622	34.53
0.05288	34.54
0.06955	34.50
0.08622	34.52
0.10288	34.52
0.11955	34.52
0.13622	34.52
0.15288	34.52
0.16955	34.52
0.18622	34.52
0.20288	34.52
0.21955	34.52
0.23622	34.50
0.25288	34.52
0.26955	34.52
0.28622	34.52
0.30288	34.52
0.31955	34.52
0.33622	34.52
0.35288	34.52
0.36955	34.52
0.38622	34.51
0.40288	34.52
0.41955	34.52
0.43622	34.53
0.45288	34.52
0.46955	34.52
0.48622	34.52
0.50288	34.52
0.51955	34.52
0.53622	34.52
0.55288	34.52
0.56955	34.52
0.58622	34.51
0.60288	34.51
0.61955	34.52
0.63622	34.53
0.65288	34.52
0.66955	34.51
0.68622	34.51
0.70288	34.52
0.71955	34.52
0.73622	34.53
0.75288	34.53
0.76955	34.52
0.78622	34.52
0.80288	34.52
0.81955	34.52
0.83622	34.52
0.85288	34.52
0.86955	34.52
0.88622	34.52
0.90288	34.52
0.91955	34.52
0.93622	34.52
0.95288	34.52
0.96955	34.52
0.98622	34.53
1.00288	34.52
1.01955	34.52
1.03622	34.52
1.05288	34.52
1.06955	34.52
1.08622	34.52
1.10288	34.52
1.11955	34.52
1.13622	34.52
1.15288	34.52
1.16955	34.52
1.18622	34.52
1.20288	34.52
1.21955	34.52
1.23622	34.52
1.25288	34.52
1.26955	34.52
1.28622	34.52
1.30288	34.52
1.31955	34.52
1.33622	34.52
1.35288	34.52
1.36955	34.52
1.38622	34.52
1.40288	34.52
1.41955	34.52
1.43622	34.52
1.45288	34.52
1.46955	34.52
1.48622	34.52
1.50288	34.52
1.51955	34.52
1.53622	34.52
1.55288	34.52
1.56955	34.52
1.58622	34.52
1.60288	34.52
1.61955	34.52
1.63622	34.52
1.65288	34.52
1.66955	34.52
1.68622	34.52
1.70288	34.52
1.71955	34.52
1.73622	34.52
1.75288	34.52
1.76955	34.52
1.78622	34.52
1.80288	34.52
1.81955	34.52
1.83622	34.52
1.85288	34.52
1.86955	34.52
1.88622	34.52
1.90288	34.52
1.91955	34.52
1.93622	34.52
1.95288	34.52
1.96955	34.52
1.98622	34.52
2.00288	34.52
2.01955	34.52
2.03622	34.52
2.05288	34.52
2.06955	34.52
2.08622	34.52
2.10288	34.52
2.11955	34.52
2.13622	34.52
2.15288	34.52
2.16955	34.52
2.18622	34.52
2.20288	34.52
2.21955	34.52
2.23622	34.52
2.25288	34.52
2.26955	34.52
2.28622	34.52
2.30288	34.52
2.31955	34.52
2.33622	34.52
2.35288	34.52
2.36955	34.52
2.38622	34.52
2.40288	34.52
2.41955	34.52
2.43622	34.52
2.45288	34.52
2.46955	34.52
2.48622	34.52
2.50288	34.61
2.51955	34.54
2.53622	34.52
2.55288	34.52
2.56955	34.52
2.58622	34.52
2.60288	34.52
2.61955	34.52
2.63622	34.53
2.65288	34.52
2.66955	34.52
2.68622	34.52
2.70288	34.52
2.71955	34.52
2.73622	34.52
2.75288	34.52
2.76955	34.52
2.78622	34.52
2.80288	34.51
2.81955	34.52
2.83622	34.52
2.85288	34.52
2.86955	34.52
2.88622	34.52
2.90288	34.52
2.91955	34.52
2.93622	34.52
2.95288	34.53
2.96955	34.51
2.98622	34.52
3.00288	34.51
3.01955	34.52
3.03622	34.52
3.05288	34.51
3.06955	34.52
3.08622	34.53
3.10288	34.52
3.11955	34.52
3.13622	34.50
3.15288	34.52
3.16955	34.52
3.18622	34.52
3.20288	34.53
3.21955	34.52
3.23622	34.51
3.25288	34.53
3.26955	34.53
3.28622	34.52
3.30288	34.52
3.31955	34.50
3.33622	34.52
3.35288	34.52
3.36955	34.52
3.38622	34.51
3.40288	34.52
3.41955	34.52
3.43622	34.52
3.45288	34.52
3.46955	34.52
3.48622	34.52
3.50288	34.52
3.51955	34.52
3.53622	34.52
3.55288	34.52
3.56955	34.52
3.58622	34.52
3.60288	34.52
3.61955	34.51
3.63622	34.52
3.65288	34.52
3.66955	34.52
3.68622	34.52
3.70288	34.52
3.71955	34.52
3.73622	34.52
3.75288	34.52
3.76955	34.52
3.78622	34.52
3.80288	34.52
3.81955	34.52
3.83622	34.52
3.85288	34.52
3.86955	34.52
3.88622	34.52
3.90288	34.52
3.91955	34.52
3.93622	34.52
3.95288	34.52
3.96955	34.52
3.98622	34.52

[Status Trace (Column Flow)]
Interval(msec)	1000
# of Points	240
Start Time(min)	0.003
End Time(min)	3.986
Intensity Units	
Intensity Multiplier	1
R.Time (min)	Intensity
0.00288	5.49
0.01955	5.28
0.03622	5.29
0.05288	5.55
0.06955	5.71
0.08622	5.53
0.10288	5.49
0.11955	5.49
0.13622	5.49
0.15288	5.49
0.16955	5.49
0.18622	5.49
0.20288	5.49
0.21955	5.49
0.23622	5.49
0.25288	5.49
0.26955	5.49
0.28622	5.49
0.30288	5.49
0.31955	5.49
0.33622	5.49
0.35288	5.49
0.36955	5.49
0.38622	5.49
0.40288	5.49
0.41955	5.49
0.43622	5.49
0.45288	5.49
0.46955	5.49
0.48622	5.49
0.50288	5.49
0.51955	5.49
0.53622	5.49
0.55288	5.49
0.56955	5.49
0.58622	5.49
0.60288	5.49
0.61955	5.49
0.63622	5.49
0.65288	5.49
0.66955	5.49
0.68622	5.49
0.70288	5.49
0.71955	5.49
0.73622	5.49
0.75288	5.49
0.76955	5.49
0.78622	5.49
0.80288	5.49
0.81955	5.49
0.83622	5.49
0.85288	5.49
0.86955	5.49
0.88622	5.49
0.90288	5.49
0.91955	5.49
0.93622	5.49
0.95288	5.49
0.96955	5.49
0.98622	5.49
1.00288	5.49
1.01955	5.49
1.03622	5.49
1.05288	5.49
1.06955	5.49
1.08622	5.49
1.10288	5.49
1.11955	5.49
1.13622	5.49
1.15288	5.49
1.16955	5.49
1.18622	5.49
1.20288	5.49
1.21955	5.49
1.23622	5.49
1.25288	5.49
1.26955	5.49
1.28622	5.49
1.30288	5.49
1.31955	5.49
1.33622	5.49
1.35288	5.49
1.36955	5.49
1.38622	5.49
1.40288	5.49
1.41955	5.49
1.43622	5.49
1.45288	5.49
1.46955	5.49
1.48622	5.49
1.50288	5.49
1.51955	5.49
1.53622	5.49
1.55288	5.49
1.56955	5.49
1.58622	5.49
1.60288	5.49
1.61955	5.49
1.63622	5.48
1.65288	5.48
1.66955	5.47
1.68622	5.46
1.70288	5.44
1.71955	5.43
1.73622	5.42
1.75288	5.41
1.76955	5.40
1.78622	5.39
1.80288	5.38
1.81955	5.37
1.83622	5.36
1.85288	5.35
1.86955	5.34
1.88622	5.33
1.90288	5.32
1.91955	5.31
1.93622	5.30
1.95288	5.29
1.96955	5.28
1.98622	5.27
2.00288	5.26
2.01955	5.25
2.03622	5.25
2.05288	5.24
2.06955	5.23
2.08622	5.22
2.10288	5.21
2.11955	5.20
2.13622	5.19
2.15288	5.18
2.16955	5.17
2.18622	5.16
2.20288	5.15
2.21955	5.14
2.23622	5.13
2.25288	5.12
2.26955	5.11
2.28622	5.11
2.30288	5.10
2.31955	5.09
2.33622	5.08
2.35288	5.07
2.36955	5.06
2.38622	5.06
2.40288	5.06
2.41955	5.06
2.43622	5.06
2.45288	5.06
2.46955	5.06
2.48622	5.06
2.50288	5.05
2.51955	5.06
2.53622	5.05
2.55288	5.06
2.56955	5.06
2.58622	5.05
2.60288	5.05
2.61955	5.05
2.63622	5.05
2.65288	5.05
2.66955	5.05
2.68622	5.05
2.70288	5.05
2.71955	5.05
2.73622	5.05
2.75288	5.05
2.76955	5.05
2.78622	5.05
2.80288	5.05
2.81955	5.05
2.83622	5.05
2.85288	5.05
2.86955	5.05
2.88622	5.05
2.90288	5.05
2.91955	5.05
2.93622	5.05
2.95288	5.05
2.96955	5.05
2.98622	5.05
3.00288	5.05
3.01955	5.05
3.03622	5.05
3.05288	5.05
3.06955	5.05
3.08622	5.05
3.10288	5.05
3.11955	5.05
3.13622	5.05
3.15288	5.05
3.16955	5.05
3.18622	5.05
3.20288	5.05
3.21955	5.05
3.23622	5.05
3.25288	5.05
3.26955	5.05
3.28622	5.05
3.30288	5.05
3.31955	5.05
3.33622	5.05
3.35288	5.05
3.36955	5.05
3.38622	5.05
3.40288	5.05
3.41955	5.05
3.43622	5.05
3.45288	5.05
3.46955	5.05
3.48622	5.05
3.50288	5.05
3.51955	5.05
3.53622	5.05
3.55288	5.05
3.56955	5.05
3.58622	5.05
3.60288	5.05
3.61955	5.05
3.63622	5.05
3.65288	5.05
3.66955	5.05
3.68622	5.05
3.70288	5.05
3.71955	5.05
3.73622	5.05
3.75288	5.05
3.76955	5.05
3.78622	5.05
3.80288	5.05
3.81955	5.05
3.83622	5.05
3.85288	5.05
3.86955	5.05
3.88622	5.05
3.90288	5.05
3.91955	5.05
3.93622	5.05
3.95288	5.05
3.96955	5.05
3.98622	5.05

[Status Trace (Linear Velocity)]
Interval(msec)	1000
# of Points	240
Start Time(min)	0.003
End Time(min)	3.986
Intensity Units	
Intensity Multiplier	1
R.Time (min)	Intensity
0.00288	39.01
0.01955	37.79
0.03622	37.87
0.05288	39.35
0.06955	40.25
0.08622	39.25
0.10288	38.99
0.11955	39.02
0.13622	39.02
0.15288	39.02
0.16955	39.02
0.18622	39.02
0.20288	39.01
0.21955	39.01
0.23622	39.01
0.25288	39.01
0.26955	39.01
0.28622	39.01
0.30288	39.01
0.31955	39.01
0.33622	39.01
0.35288	39.01
0.36955	39.01
0.38622	39.01
0.40288	39.01
0.41955	39.01
0.43622	39.01
0.45288	39.01
0.46955	39.01
0.48622	39.01
0.50288	39.01
0.51955	39.01
0.53622	39.01
0.55288	39.01
0.56955	39.01
0.58622	39.01
0.60288	39.01
0.61955	39.01
0.63622	39.01
0.65288	39.01
0.66955	39.01
0.68622	39.01
0.70288	39.01
0.71955	39.01
0.73622	39.01
0.75288	39.01
0.76955	39.01
0.78622	39.01
0.80288	39.01
0.81955	39.01
0.83622	39.01
0.85288	39.01
0.86955	39.01
0.88622	39.01
0.90288	39.01
0.91955	39.01
0.93622	39.01
0.95288	39.01
0.96955	39.01
0.98622	39.01
1.00288	39.01
1.01955	39.01
1.03622	39.01
1.05288	39.01
1.06955	39.01
1.08622	39.01
1.10288	39.01
1.11955	39.01
1.13622	39.01
1.15288	39.01
1.16955	39.01
1.18622	39.01
1.20288	39.01
1.21955	39.01
1.23622	39.01
1.25288	39.01
1.26955	39.01
1.28622	39.01
1.30288	39.01
1.31955	39.01
1.33622	39.01
1.35288	39.01
1.36955	39.01
1.38622	39.01
1.40288	39.01
1.41955	39.01
1.43622	39.01
1.45288	39.01
1.46955	39.01
1.48622	39.01
1.50288	39.01
1.51955	39.01
1.53622	39.01
1.55288	39.01
1.56955	39.01
1.58622	39.01
1.60288	39.01
1.61955	39.00
1.63622	38.98
1.65288	38.96
1.66955	38.93
1.68622	38.90
1.70288	38.86
1.71955	38.83
1.73622	38.80
1.75288	38.77
1.76955	38.73
1.78622	38.70
1.80288	38.67
1.81955	38.64
1.83622	38.61
1.85288	38.58
1.86955	38.55
1.88622	38.52
1.90288	38.49
1.91955	38.45
1.93622	38.43
1.95288	38.39
1.96955	38.36
1.98622	38.33
2.00288	38.30
2.01955	38.27
2.03622	38.24
2.05288	38.21
2.06955	38.18
2.08622	38.16
2.10288	38.13
2.11955	38.09
2.13622	38.07
2.15288	38.04
2.16955	38.00
2.18622	37.98
2.20288	37.95
2.21955	37.92
2.23622	37.89
2.25288	37.86
2.26955	37.83
2.28622	37.80
2.30288	37.77
2.31955	37.74
2.33622	37.71
2.35288	37.68
2.36955	37.66
2.38622	37.64
2.40288	37.64
2.41955	37.64
2.43622	37.64
2.45288	37.64
2.46955	37.64
2.48622	37.64
2.50288	37.63
2.51955	37.65
2.53622	37.64
2.55288	37.64
2.56955	37.64
2.58622	37.64
2.60288	37.64
2.61955	37.64
2.63622	37.64
2.65288	37.64
2.66955	37.64
2.68622	37.64
2.70288	37.64
2.71955	37.64
2.73622	37.64
2.75288	37.64
2.76955	37.64
2.78622	37.63
2.80288	37.63
2.81955	37.63
2.83622	37.63
2.85288	37.63
2.86955	37.63
2.88622	37.63
2.90288	37.63
2.91955	37.63
2.93622	37.63
2.95288	37.63
2.96955	37.63
2.98622	37.63
3.00288	37.63
3.01955	37.63
3.03622	37.63
3.05288	37.62
3.06955	37.62
3.08622	37.62
3.10288	37.62
3.11955	37.62
3.13622	37.62
3.15288	37.62
3.16955	37.62
3.18622	37.62
3.20288	37.62
3.21955	37.62
3.23622	37.62
3.25288	37.62
3.26955	37.62
3.28622	37.62
3.30288	37.62
3.31955	37.62
3.33622	37.62
3.35288	37.62
3.36955	37.62
3.38622	37.62
3.40288	37.62
3.41955	37.62
3.43622	37.62
3.45288	37.62
3.46955	37.62
3.48622	37.62
3.50288	37.62
3.51955	37.62
3.53622	37.62
3.55288	37.62
3.56955	37.62
3.58622	37.62
3.60288	37.62
3.61955	37.62
3.63622	37.62
3.65288	37.62
3.66955	37.62
3.68622	37.62
3.70288	37.62
3.71955	37.62
3.73622	37.62
3.75288	37.62
3.76955	37.62
3.78622	37.62
3.80288	37.62
3.81955	37.62
3.83622	37.62
3.85288	37.62
3.86955	37.62
3.88622	37.62
3.90288	37.62
3.91955	37.62
3.93622	37.62
3.95288	37.62
3.96955	37.62
3.98622	37.62

