[Header]
Application Name	LabSolutions
Version	5.110
Data File Name	C:\Users\User\Desktop\GC Analyses\Jack\UIC Prairie Sampling\7.9.22\220909_120.gcd
Output Date	9/28/2022
Output Time	11:29:57 AM

[File Information]
Type	Data File
Generated	9/20/2022 3:08:08 PM
Generated by	System Administrator
Modified	9/20/2022 3:12:31 PM
Modified by	System Administrator

[Sample Information]
Operator Name	System Administrator
Acquired	9/20/2022 3:08:30 PM
Sample Type	1:Standard
Level	1
Sample Name	220909_Run
Sample ID	220909_Run
ISTD Amount1	1
ISTD Amount2	1
ISTD Amount3	1
ISTD Amount4	1
ISTD Amount5	1
ISTD Amount6	1
ISTD Amount7	1
ISTD Amount8	1
ISTD Amount9	1
ISTD Amount10	1
ISTD Amount11	1
ISTD Amount12	1
ISTD Amount13	1
ISTD Amount14	1
ISTD Amount15	1
ISTD Amount16	1
ISTD Amount17	1
ISTD Amount18	1
ISTD Amount19	1
ISTD Amount20	1
ISTD Amount21	1
ISTD Amount22	1
ISTD Amount23	1
ISTD Amount24	1
ISTD Amount25	1
ISTD Amount26	1
ISTD Amount27	1
ISTD Amount28	1
ISTD Amount29	1
ISTD Amount30	1
ISTD Amount31	1
ISTD Amount32	1
Sample Amount	1
Dilution Factor	1
Vial#	1
Injection Volume	1
Injection Count	1
Bar Code	

[Original Files]
Data File	C:\Users\User\Desktop\GC Analyses\Jack\220909\220909_120.gcd
Method File	C:\LabSolutions\Data\GHG_4min_2022\ghg3_togas_w_acet_4 min_new_int.gcm
Batch File	
Report Format File	c:\LabSolutions\System\DEFAULT.lsr

[File Description]


[Configuration]
Instrument Name	C0B7VH3-Instrument1
Instrument #	1
Line #	1
# of Detectors	3
Detector ID	DET#1	DET#2	DET#3
Detector Name	FID	PTCD	ECD
# of Channels	1	1	1

[Peak Table(Ch1)]
# of Peaks	3
Peak#	R.Time	I.Time	F.Time	Area	Height	A/H	Conc.	Mark	ID#	Name	k'	Plate #	Plate Ht.	Tailing	Resolution	Sep.Factor	Area Ratio	Height Ratio	Conc. %	Norm Conc.
1	1.476	1.439	1.538	19858	9184	2.162	100.000	   	1	CO	0.000	8934	16.790	1.270	0.000	0.000	0	0	16.667	16.667
2	1.571	1.538	1.630	4465	2297	1.944	100.000	 V 	2	CH4	0.065	11772	12.742	1.181	1.584	0.000	0	0	16.667	16.667
3	2.000	1.945	2.326	1730863	852767	2.030	400.000	   	3	CO2	0.355	18047	8.311	1.186	7.304	5.500	0	0	66.667	66.667

[Peak Table(Ch2)]
# of Peaks	0

[Peak Table(Ch3)]
# of Peaks	3
Peak#	R.Time	I.Time	F.Time	Area	Height	A/H	Conc.	Mark	ID#	Name	k'	Plate #	Plate Ht.	Tailing	Resolution	Sep.Factor	Area Ratio	Height Ratio	Conc. %	Norm Conc.
1	2.444	0.970	2.510	14840	436	34.007	0.000	   			0.000	152	988.759	0.000	0.000	0.000	0	0	0.000	0.000
2	2.590	2.510	2.649	2022	307	6.594	0.000	 V 			0.060	103	1460.643	0.000	0.162	0.000	0	0	0.000	0.000
3	2.884	2.660	3.991	59766	5060	11.812	1.000	   	1	N2O	0.180	9115	16.456	7.631	0.513	3.000	0	0	100.000	100.000

[Compound Results(Ch1)]
# of IDs	6
ID#	Name	R.Time	Area	Height	Conc.	Curve	3rd	2nd	1st	Constant	Area Ratio	Height Ratio	Conc. %	Norm Conc.
1	CO	1.476	19858	9184	100.000	Linear	0.000000e+00	0.000000e+00	1.985839e+002	0.000000e+00	0	0	16.667	16.667
2	CH4	1.571	4465	2297	100.000	Linear	0.000000e+00	0.000000e+00	4.465212e+001	0.000000e+00	0	0	16.667	16.667
3	CO2	2.000	1730863	852767	400.000	Linear	0.000000e+00	0.000000e+00	4.327158e+003	0.000000e+00	0	0	66.667	66.667
4	Ethylene	0.000	0	0	0.000	Linear	0.000000e+00	0.000000e+00	0.000000e+00	0.000000e+00	0	0	0.000	0.000
5	Acetylene	0.000	0	0	0.000	Linear	0.000000e+00	0.000000e+00	0.000000e+00	0.000000e+00	0	0	0.000	0.000
6	Ethane	0.000	0	0	0.000	Linear	0.000000e+00	0.000000e+00	0.000000e+00	0.000000e+00	0	0	0.000	0.000

[Compound Results(Ch2)]
# of IDs	5
ID#	Name	R.Time	Area	Height	Conc.	Curve	3rd	2nd	1st	Constant	Area Ratio	Height Ratio	Conc. %	Norm Conc.
1	Hydrogen	0.000	0	0	0.000	Linear	0.000000e+00	0.000000e+00	0.000000e+00	0.000000e+00	0	0	0.000	0.000
2	Oxygen	0.000	0	0	0.000	Linear	0.000000e+00	0.000000e+00	0.000000e+00	0.000000e+00	0	0	0.000	0.000
3	Nitrogen	0.000	0	0	0.000	Linear	0.000000e+00	0.000000e+00	0.000000e+00	0.000000e+00	0	0	0.000	0.000
4	Methane	0.000	0	0	0.000	Linear	0.000000e+00	0.000000e+00	0.000000e+00	0.000000e+00	0	0	0.000	0.000
5	Carbon Monoxide	0.000	0	0	0.000	Linear	0.000000e+00	0.000000e+00	0.000000e+00	0.000000e+00	0	0	0.000	0.000

[Compound Results(Ch3)]
# of IDs	2
ID#	Name	R.Time	Area	Height	Conc.	Curve	3rd	2nd	1st	Constant	Area Ratio	Height Ratio	Conc. %	Norm Conc.
1	N2O	2.884	59766	5060	1.000	Linear	0.000000e+00	0.000000e+00	5.976615e+004	0.000000e+00	0	0	100.000	100.000
2	SF6	0.000	0	0	0.000	Linear	0.000000e+00	0.000000e+00	0.000000e+00	0.000000e+00	0	0	0.000	0.000

[Group Results(Ch1)]
# of Groups	0

[Group Results(Ch2)]
# of Groups	0

[Group Results(Ch3)]
# of Groups	0

[Chromatogram (Ch1)]
Interval(msec)	220
# of Points	1091
Start Time(min)	0.002
End Time(min)	3.998
R.Time (min)	Intensity
0.00167	-21
0.00533	-14
0.00900	-10
0.01267	-4
0.01633	2
0.02000	4
0.02367	1
0.02733	-7
0.03100	-13
0.03467	-16
0.03833	-20
0.04200	-26
0.04567	-32
0.04933	-37
0.05300	-40
0.05667	-40
0.06033	-36
0.06400	-32
0.06767	-27
0.07133	-21
0.07500	-17
0.07867	-12
0.08233	-7
0.08600	-5
0.08967	-2
0.09333	0
0.09700	0
0.10067	-2
0.10433	-5
0.10800	-6
0.11167	-5
0.11533	-4
0.11900	-3
0.12267	-0
0.12633	1
0.13000	2
0.13367	3
0.13733	7
0.14100	10
0.14467	10
0.14833	11
0.15200	15
0.15567	20
0.15933	24
0.16300	21
0.16667	13
0.17033	5
0.17400	-0
0.17767	1
0.18133	6
0.18500	12
0.18867	14
0.19233	9
0.19600	0
0.19967	-9
0.20333	-17
0.20700	-24
0.21067	-28
0.21433	-27
0.21800	-25
0.22167	-25
0.22533	-30
0.22900	-34
0.23267	-36
0.23633	-34
0.24000	-32
0.24367	-30
0.24733	-28
0.25100	-24
0.25467	-19
0.25833	-16
0.26200	-16
0.26567	-21
0.26933	-31
0.27300	-38
0.27667	-41
0.28033	-46
0.28400	-52
0.28767	-55
0.29133	-58
0.29500	-59
0.29867	-57
0.30233	-52
0.30600	-44
0.30967	-34
0.31333	-26
0.31700	-23
0.32067	-24
0.32433	-27
0.32800	-32
0.33167	-38
0.33533	-45
0.33900	-50
0.34267	-53
0.34633	-54
0.35000	-54
0.35367	-53
0.35733	-52
0.36100	-51
0.36467	-52
0.36833	-54
0.37200	-55
0.37567	-52
0.37933	-49
0.38300	-50
0.38667	-54
0.39033	-56
0.39400	-56
0.39767	-52
0.40133	-46
0.40500	-44
0.40867	-47
0.41233	-52
0.41600	-57
0.41967	-60
0.42333	-63
0.42700	-64
0.43067	-63
0.43433	-59
0.43800	-56
0.44167	-53
0.44533	-53
0.44900	-54
0.45267	-55
0.45633	-54
0.46000	-51
0.46367	-49
0.46733	-47
0.47100	-43
0.47467	-39
0.47833	-37
0.48200	-39
0.48567	-40
0.48933	-42
0.49300	-45
0.49667	-49
0.50033	-53
0.50400	-54
0.50767	-54
0.51133	-52
0.51500	-54
0.51867	-56
0.52233	-57
0.52600	-56
0.52967	-54
0.53333	-53
0.53700	-54
0.54067	-53
0.54433	-50
0.54800	-50
0.55167	-52
0.55533	-55
0.55900	-55
0.56267	-50
0.56633	-48
0.57000	-44
0.57367	-41
0.57733	-42
0.58100	-45
0.58467	-52
0.58833	-60
0.59200	-62
0.59567	-58
0.59933	-54
0.60300	-54
0.60667	-56
0.61033	-61
0.61400	-66
0.61767	-69
0.62133	-66
0.62500	-59
0.62867	-57
0.63233	-59
0.63600	-62
0.63967	-64
0.64333	-63
0.64700	-61
0.65067	-57
0.65433	-53
0.65800	-53
0.66167	-55
0.66533	-55
0.66900	-56
0.67267	-59
0.67633	-62
0.68000	-67
0.68367	-69
0.68733	-67
0.69100	-64
0.69467	-64
0.69833	-68
0.70200	-73
0.70567	-76
0.70933	-77
0.71300	-77
0.71667	-73
0.72033	-67
0.72400	-59
0.72767	-51
0.73133	-49
0.73500	-51
0.73867	-55
0.74233	-57
0.74600	-60
0.74967	-64
0.75333	-68
0.75700	-70
0.76067	-71
0.76433	-69
0.76800	-63
0.77167	-58
0.77533	-56
0.77900	-56
0.78267	-55
0.78633	-55
0.79000	-56
0.79367	-60
0.79733	-65
0.80100	-71
0.80467	-76
0.80833	-77
0.81200	-75
0.81567	-75
0.81933	-78
0.82300	-79
0.82667	-76
0.83033	-71
0.83400	-67
0.83767	-67
0.84133	-68
0.84500	-68
0.84867	-69
0.85233	-68
0.85600	-67
0.85967	-67
0.86333	-66
0.86700	-65
0.87067	-64
0.87433	-56
0.87800	-45
0.88167	-39
0.88533	-39
0.88900	-46
0.89267	-58
0.89633	-67
0.90000	-69
0.90367	-67
0.90733	-64
0.91100	-64
0.91467	-65
0.91833	-67
0.92200	-70
0.92567	-74
0.92933	-75
0.93300	-73
0.93667	-69
0.94033	-66
0.94400	-65
0.94767	-67
0.95133	-72
0.95500	-76
0.95867	-81
0.96233	-85
0.96600	-86
0.96967	-85
0.97333	-85
0.97700	-82
0.98067	-77
0.98433	-74
0.98800	-72
0.99167	-66
0.99533	-58
0.99900	-53
1.00267	-53
1.00633	-56
1.01000	-59
1.01367	-59
1.01733	-59
1.02100	-62
1.02467	-66
1.02833	-70
1.03200	-73
1.03567	-75
1.03933	-75
1.04300	-72
1.04667	-69
1.05033	-68
1.05400	-67
1.05767	-66
1.06133	-64
1.06500	-62
1.06867	-61
1.07233	-62
1.07600	-62
1.07967	-61
1.08333	-59
1.08700	-59
1.09067	-63
1.09433	-68
1.09800	-73
1.10167	-78
1.10533	-82
1.10900	-84
1.11267	-83
1.11633	-77
1.12000	-68
1.12367	-62
1.12733	-62
1.13100	-66
1.13467	-71
1.13833	-70
1.14200	-66
1.14567	-65
1.14933	-64
1.15300	-65
1.15667	-66
1.16033	-67
1.16400	-68
1.16767	-71
1.17133	-73
1.17500	-76
1.17867	-78
1.18233	-79
1.18600	-78
1.18967	-74
1.19333	-73
1.19700	-73
1.20067	-73
1.20433	-72
1.20800	-72
1.21167	-71
1.21533	-70
1.21900	-71
1.22267	-69
1.22633	-66
1.23000	-65
1.23367	-66
1.23733	-70
1.24100	-73
1.24467	-76
1.24833	-78
1.25200	-79
1.25567	-80
1.25933	-82
1.26300	-83
1.26667	-82
1.27033	-77
1.27400	-69
1.27767	-59
1.28133	-48
1.28500	-44
1.28867	-48
1.29233	-56
1.29600	-63
1.29967	-66
1.30333	-66
1.30700	-65
1.31067	-63
1.31433	-63
1.31800	-65
1.32167	-65
1.32533	-61
1.32900	-55
1.33267	-56
1.33633	-63
1.34000	-71
1.34367	-76
1.34733	-80
1.35100	-79
1.35467	-76
1.35833	-74
1.36200	-70
1.36567	-68
1.36933	-69
1.37300	-70
1.37667	-70
1.38033	-69
1.38400	-67
1.38767	-66
1.39133	-67
1.39500	-69
1.39867	-71
1.40233	-71
1.40600	-67
1.40967	-61
1.41333	-59
1.41700	-60
1.42067	-64
1.42433	-67
1.42800	-68
1.43167	-68
1.43533	-69
1.43900	-59
1.44267	10
1.44633	245
1.45000	754
1.45367	1655
1.45733	3039
1.46100	4741
1.46467	6414
1.46833	7780
1.47200	8703
1.47567	9123
1.47933	8998
1.48300	8338
1.48667	7249
1.49033	5927
1.49400	4597
1.49767	3420
1.50133	2469
1.50500	1745
1.50867	1213
1.51233	830
1.51600	558
1.51967	366
1.52333	227
1.52700	130
1.53067	64
1.53433	18
1.53800	-11
1.54167	-7
1.54533	79
1.54900	310
1.55267	689
1.55633	1143
1.56000	1574
1.56367	1917
1.56733	2146
1.57100	2228
1.57467	2135
1.57833	1878
1.58200	1521
1.58567	1142
1.58933	803
1.59300	533
1.59667	338
1.60033	201
1.60400	106
1.60767	44
1.61133	3
1.61500	-24
1.61867	-44
1.62233	-58
1.62600	-68
1.62967	-74
1.63333	-76
1.63700	-75
1.64067	-71
1.64433	-69
1.64800	-70
1.65167	-71
1.65533	-75
1.65900	-79
1.66267	-81
1.66633	-81
1.67000	-84
1.67367	-91
1.67733	-95
1.68100	-96
1.68467	-96
1.68833	-95
1.69200	-96
1.69567	-98
1.69933	-99
1.70300	-98
1.70667	-94
1.71033	-86
1.71400	-78
1.71767	-74
1.72133	-71
1.72500	-68
1.72867	-68
1.73233	-68
1.73600	-69
1.73967	-74
1.74333	-77
1.74700	-77
1.75067	-71
1.75433	-67
1.75800	-68
1.76167	-72
1.76533	-74
1.76900	-75
1.77267	-75
1.77633	-74
1.78000	-74
1.78367	-74
1.78733	-74
1.79100	-74
1.79467	-73
1.79833	-71
1.80200	-68
1.80567	-66
1.80933	-61
1.81300	-55
1.81667	-49
1.82033	-45
1.82400	-41
1.82767	-41
1.83133	-45
1.83500	-47
1.83867	-46
1.84233	-45
1.84600	-47
1.84967	-50
1.85333	-54
1.85700	-60
1.86067	-67
1.86433	-74
1.86800	-77
1.87167	-75
1.87533	-69
1.87900	-64
1.88267	-61
1.88633	-58
1.89000	-54
1.89367	-50
1.89733	-45
1.90100	-42
1.90467	-43
1.90833	-43
1.91200	-38
1.91567	-31
1.91933	-29
1.92300	-31
1.92667	-37
1.93033	-45
1.93400	-54
1.93767	-60
1.94133	-62
1.94500	-58
1.94867	-53
1.95233	-46
1.95600	3
1.95967	314
1.96333	1939
1.96700	8557
1.97067	29130
1.97433	78504
1.97800	170909
1.98167	307518
1.98533	470122
1.98900	629657
1.99267	758346
1.99633	836203
2.00000	852735
2.00367	807955
2.00733	713652
2.01100	590319
2.01467	460477
2.01833	341892
2.02200	244223
2.02567	169656
2.02933	115749
2.03300	78237
2.03667	52794
2.04033	35814
2.04400	24576
2.04767	17152
2.05133	12229
2.05500	8932
2.05867	6695
2.06233	5154
2.06600	4073
2.06967	3298
2.07333	2730
2.07700	2303
2.08067	1978
2.08433	1726
2.08800	1524
2.09167	1358
2.09533	1220
2.09900	1106
2.10267	1011
2.10633	930
2.11000	859
2.11367	795
2.11733	741
2.12100	696
2.12467	655
2.12833	617
2.13200	583
2.13567	555
2.13933	529
2.14300	503
2.14667	478
2.15033	453
2.15400	432
2.15767	416
2.16133	403
2.16500	392
2.16867	381
2.17233	368
2.17600	351
2.17967	331
2.18333	313
2.18700	302
2.19067	293
2.19433	286
2.19800	278
2.20167	273
2.20533	268
2.20900	265
2.21267	260
2.21633	254
2.22000	244
2.22367	235
2.22733	228
2.23100	223
2.23467	218
2.23833	213
2.24200	205
2.24567	196
2.24933	190
2.25300	185
2.25667	181
2.26033	178
2.26400	174
2.26767	170
2.27133	167
2.27500	165
2.27867	167
2.28233	173
2.28600	176
2.28967	172
2.29333	162
2.29700	150
2.30067	141
2.30433	138
2.30800	139
2.31167	141
2.31533	142
2.31900	140
2.32267	135
2.32633	126
2.33000	120
2.33367	116
2.33733	115
2.34100	115
2.34467	113
2.34833	110
2.35200	109
2.35567	106
2.35933	100
2.36300	101
2.36667	107
2.37033	112
2.37400	117
2.37767	123
2.38133	127
2.38500	124
2.38867	114
2.39233	104
2.39600	98
2.39967	94
2.40333	88
2.40700	85
2.41067	84
2.41433	82
2.41800	81
2.42167	83
2.42533	84
2.42900	91
2.43267	99
2.43633	105
2.44000	106
2.44367	106
2.44733	105
2.45100	104
2.45467	102
2.45833	100
2.46200	97
2.46567	92
2.46933	87
2.47300	83
2.47667	80
2.48033	79
2.48400	80
2.48767	85
2.49133	92
2.49500	96
2.49867	96
2.50233	96
2.50600	90
2.50967	83
2.51333	76
2.51700	72
2.52067	71
2.52433	70
2.52800	67
2.53167	63
2.53533	60
2.53900	59
2.54267	59
2.54633	59
2.55000	60
2.55367	61
2.55733	61
2.56100	60
2.56467	58
2.56833	56
2.57200	55
2.57567	57
2.57933	59
2.58300	60
2.58667	61
2.59033	59
2.59400	54
2.59767	49
2.60133	45
2.60500	45
2.60867	46
2.61233	46
2.61600	46
2.61967	43
2.62333	40
2.62700	41
2.63067	44
2.63433	47
2.63800	48
2.64167	51
2.64533	52
2.64900	51
2.65267	49
2.65633	45
2.66000	41
2.66367	34
2.66733	24
2.67100	19
2.67467	17
2.67833	17
2.68200	16
2.68567	15
2.68933	15
2.69300	18
2.69667	25
2.70033	35
2.70400	41
2.70767	43
2.71133	40
2.71500	34
2.71867	28
2.72233	25
2.72600	25
2.72967	25
2.73333	24
2.73700	21
2.74067	17
2.74433	13
2.74800	11
2.75167	15
2.75533	21
2.75900	25
2.76267	28
2.76633	28
2.77000	27
2.77367	27
2.77733	26
2.78100	19
2.78467	7
2.78833	-5
2.79200	-11
2.79567	-10
2.79933	-5
2.80300	2
2.80667	10
2.81033	15
2.81400	20
2.81767	22
2.82133	22
2.82500	21
2.82867	18
2.83233	11
2.83600	6
2.83967	3
2.84333	4
2.84700	7
2.85067	9
2.85433	10
2.85800	10
2.86167	7
2.86533	6
2.86900	8
2.87267	14
2.87633	20
2.88000	23
2.88367	19
2.88733	14
2.89100	10
2.89467	7
2.89833	6
2.90200	4
2.90567	-1
2.90933	-7
2.91300	-8
2.91667	-7
2.92033	-1
2.92400	7
2.92767	14
2.93133	16
2.93500	14
2.93867	10
2.94233	7
2.94600	5
2.94967	5
2.95333	3
2.95700	-1
2.96067	-3
2.96433	-5
2.96800	-8
2.97167	-10
2.97533	-10
2.97900	-9
2.98267	-5
2.98633	-3
2.99000	-2
2.99367	3
2.99733	10
3.00100	15
3.00467	16
3.00833	14
3.01200	12
3.01567	10
3.01933	7
3.02300	5
3.02667	6
3.03033	7
3.03400	7
3.03767	7
3.04133	7
3.04500	7
3.04867	5
3.05233	5
3.05600	7
3.05967	6
3.06333	3
3.06700	3
3.07067	2
3.07433	-1
3.07800	-8
3.08167	-13
3.08533	-16
3.08900	-18
3.09267	-18
3.09633	-17
3.10000	-15
3.10367	-12
3.10733	-11
3.11100	-11
3.11467	-10
3.11833	-8
3.12200	-7
3.12567	-6
3.12933	-8
3.13300	-18
3.13667	-30
3.14033	-41
3.14400	-46
3.14767	-42
3.15133	-35
3.15500	-28
3.15867	-23
3.16233	-20
3.16600	-17
3.16967	-16
3.17333	-18
3.17700	-21
3.18067	-21
3.18433	-18
3.18800	-14
3.19167	-13
3.19533	-14
3.19900	-16
3.20267	-17
3.20633	-17
3.21000	-16
3.21367	-16
3.21733	-13
3.22100	-9
3.22467	-6
3.22833	-6
3.23200	-10
3.23567	-18
3.23933	-27
3.24300	-33
3.24667	-33
3.25033	-29
3.25400	-30
3.25767	-34
3.26133	-36
3.26500	-33
3.26867	-23
3.27233	-13
3.27600	-10
3.27967	-15
3.28333	-21
3.28700	-24
3.29067	-24
3.29433	-25
3.29800	-24
3.30167	-23
3.30533	-23
3.30900	-22
3.31267	-19
3.31633	-14
3.32000	-7
3.32367	-4
3.32733	-7
3.33100	-10
3.33467	-14
3.33833	-20
3.34200	-23
3.34567	-23
3.34933	-23
3.35300	-23
3.35667	-23
3.36033	-24
3.36400	-26
3.36767	-29
3.37133	-29
3.37500	-27
3.37867	-26
3.38233	-28
3.38600	-29
3.38967	-27
3.39333	-28
3.39700	-30
3.40067	-32
3.40433	-34
3.40800	-37
3.41167	-41
3.41533	-43
3.41900	-42
3.42267	-39
3.42633	-34
3.43000	-27
3.43367	-22
3.43733	-20
3.44100	-24
3.44467	-31
3.44833	-37
3.45200	-38
3.45567	-34
3.45933	-30
3.46300	-29
3.46667	-31
3.47033	-34
3.47400	-34
3.47767	-33
3.48133	-29
3.48500	-23
3.48867	-22
3.49233	-25
3.49600	-30
3.49967	-34
3.50333	-34
3.50700	-33
3.51067	-33
3.51433	-33
3.51800	-32
3.52167	-31
3.52533	-28
3.52900	-23
3.53267	-19
3.53633	-14
3.54000	-12
3.54367	-11
3.54733	-13
3.55100	-20
3.55467	-27
3.55833	-31
3.56200	-30
3.56567	-29
3.56933	-27
3.57300	-28
3.57667	-30
3.58033	-32
3.58400	-31
3.58767	-29
3.59133	-27
3.59500	-25
3.59867	-22
3.60233	-16
3.60600	-12
3.60967	-10
3.61333	-10
3.61700	-11
3.62067	-15
3.62433	-22
3.62800	-27
3.63167	-30
3.63533	-30
3.63900	-33
3.64267	-39
3.64633	-43
3.65000	-44
3.65367	-45
3.65733	-46
3.66100	-47
3.66467	-48
3.66833	-47
3.67200	-41
3.67567	-31
3.67933	-25
3.68300	-21
3.68667	-17
3.69033	-13
3.69400	-10
3.69767	-12
3.70133	-16
3.70500	-20
3.70867	-23
3.71233	-23
3.71600	-25
3.71967	-26
3.72333	-29
3.72700	-30
3.73067	-26
3.73433	-22
3.73800	-20
3.74167	-18
3.74533	-20
3.74900	-27
3.75267	-33
3.75633	-36
3.76000	-35
3.76367	-30
3.76733	-24
3.77100	-19
3.77467	-18
3.77833	-23
3.78200	-28
3.78567	-32
3.78933	-37
3.79300	-43
3.79667	-47
3.80033	-48
3.80400	-45
3.80767	-39
3.81133	-31
3.81500	-24
3.81867	-23
3.82233	-25
3.82600	-22
3.82967	-16
3.83333	-11
3.83700	-12
3.84067	-21
3.84433	-28
3.84800	-32
3.85167	-35
3.85533	-41
3.85900	-47
3.86267	-51
3.86633	-54
3.87000	-55
3.87367	-55
3.87733	-53
3.88100	-53
3.88467	-54
3.88833	-56
3.89200	-56
3.89567	-53
3.89933	-50
3.90300	-47
3.90667	-46
3.91033	-45
3.91400	-43
3.91767	-40
3.92133	-33
3.92500	-27
3.92867	-25
3.93233	-25
3.93600	-28
3.93967	-34
3.94333	-39
3.94700	-41
3.95067	-39
3.95433	-38
3.95800	-37
3.96167	-41
3.96533	-47
3.96900	-50
3.97267	-48
3.97633	-42
3.98000	-37
3.98367	-33
3.98733	-35
3.99100	-37
3.99467	-40
3.99833	-42

[Chromatogram (Ch2)]
Interval(msec)	220
# of Points	1091
Start Time(min)	0.002
End Time(min)	3.998
R.Time (min)	Intensity
0.00167	-0
0.00533	-0
0.00900	-0
0.01267	-0
0.01633	-0
0.02000	-0
0.02367	-1
0.02733	-1
0.03100	-1
0.03467	-1
0.03833	-1
0.04200	-2
0.04567	-2
0.04933	-2
0.05300	-3
0.05667	-3
0.06033	-3
0.06400	-3
0.06767	-3
0.07133	-3
0.07500	-3
0.07867	-3
0.08233	-3
0.08600	-3
0.08967	-3
0.09333	-4
0.09700	-4
0.10067	-4
0.10433	-4
0.10800	-4
0.11167	-4
0.11533	-4
0.11900	-4
0.12267	-4
0.12633	-3
0.13000	-3
0.13367	-3
0.13733	-3
0.14100	-3
0.14467	-2
0.14833	-2
0.15200	-2
0.15567	-2
0.15933	-1
0.16300	-1
0.16667	-1
0.17033	-1
0.17400	-1
0.17767	-1
0.18133	-1
0.18500	-1
0.18867	-1
0.19233	-1
0.19600	-0
0.19967	0
0.20333	1
0.20700	1
0.21067	1
0.21433	2
0.21800	2
0.22167	2
0.22533	2
0.22900	2
0.23267	2
0.23633	3
0.24000	3
0.24367	3
0.24733	3
0.25100	3
0.25467	3
0.25833	2
0.26200	2
0.26567	2
0.26933	2
0.27300	2
0.27667	2
0.28033	1
0.28400	1
0.28767	1
0.29133	1
0.29500	0
0.29867	0
0.30233	-0
0.30600	-0
0.30967	-0
0.31333	-0
0.31700	-0
0.32067	-0
0.32433	-0
0.32800	-0
0.33167	-0
0.33533	-1
0.33900	-1
0.34267	-1
0.34633	-1
0.35000	-1
0.35367	-2
0.35733	-2
0.36100	-2
0.36467	-2
0.36833	-2
0.37200	-2
0.37567	-2
0.37933	-2
0.38300	-2
0.38667	-2
0.39033	-1
0.39400	-1
0.39767	-1
0.40133	-0
0.40500	0
0.40867	1
0.41233	1
0.41600	1
0.41967	1
0.42333	1
0.42700	1
0.43067	1
0.43433	1
0.43800	1
0.44167	1
0.44533	1
0.44900	1
0.45267	1
0.45633	1
0.46000	1
0.46367	1
0.46733	1
0.47100	1
0.47467	1
0.47833	1
0.48200	1
0.48567	0
0.48933	0
0.49300	-0
0.49667	-1
0.50033	-1
0.50400	-2
0.50767	-2
0.51133	-2
0.51500	-2
0.51867	-2
0.52233	-2
0.52600	-3
0.52967	-3
0.53333	-3
0.53700	-4
0.54067	-4
0.54433	-4
0.54800	-4
0.55167	-4
0.55533	-4
0.55900	-5
0.56267	-5
0.56633	-5
0.57000	-5
0.57367	-5
0.57733	-5
0.58100	-5
0.58467	-6
0.58833	-6
0.59200	-6
0.59567	-6
0.59933	-5
0.60300	-5
0.60667	-5
0.61033	-4
0.61400	-4
0.61767	-3
0.62133	-3
0.62500	-2
0.62867	-2
0.63233	-1
0.63600	-1
0.63967	-1
0.64333	-0
0.64700	-0
0.65067	0
0.65433	0
0.65800	0
0.66167	0
0.66533	0
0.66900	0
0.67267	0
0.67633	0
0.68000	0
0.68367	1
0.68733	1
0.69100	1
0.69467	2
0.69833	2
0.70200	3
0.70567	3
0.70933	3
0.71300	3
0.71667	3
0.72033	2
0.72400	2
0.72767	2
0.73133	2
0.73500	2
0.73867	2
0.74233	2
0.74600	2
0.74967	2
0.75333	2
0.75700	2
0.76067	2
0.76433	2
0.76800	2
0.77167	2
0.77533	2
0.77900	2
0.78267	2
0.78633	1
0.79000	1
0.79367	1
0.79733	1
0.80100	1
0.80467	0
0.80833	-0
0.81200	-0
0.81567	-0
0.81933	-1
0.82300	-1
0.82667	-1
0.83033	-1
0.83400	-1
0.83767	-1
0.84133	-2
0.84500	-2
0.84867	-2
0.85233	-2
0.85600	-2
0.85967	-2
0.86333	-2
0.86700	-2
0.87067	-3
0.87433	-3
0.87800	-3
0.88167	-3
0.88533	-3
0.88900	-3
0.89267	-3
0.89633	-3
0.90000	-3
0.90367	-3
0.90733	-3
0.91100	-3
0.91467	-2
0.91833	-2
0.92200	-1
0.92567	-1
0.92933	-1
0.93300	-1
0.93667	-0
0.94033	-0
0.94400	0
0.94767	1
0.95133	1
0.95500	1
0.95867	1
0.96233	1
0.96600	1
0.96967	1
0.97333	1
0.97700	0
0.98067	-0
0.98433	-1
0.98800	-1
0.99167	-1
0.99533	-2
0.99900	-2
1.00267	-2
1.00633	-2
1.01000	-2
1.01367	-2
1.01733	-3
1.02100	-3
1.02467	-3
1.02833	-3
1.03200	-4
1.03567	-4
1.03933	-5
1.04300	-5
1.04667	-5
1.05033	-5
1.05400	-5
1.05767	-5
1.06133	-5
1.06500	-5
1.06867	-5
1.07233	-5
1.07600	-5
1.07967	-5
1.08333	-5
1.08700	-5
1.09067	-5
1.09433	-5
1.09800	-5
1.10167	-5
1.10533	-5
1.10900	-4
1.11267	-4
1.11633	-4
1.12000	-4
1.12367	-4
1.12733	-4
1.13100	-3
1.13467	-3
1.13833	-2
1.14200	-2
1.14567	-1
1.14933	-1
1.15300	-0
1.15667	0
1.16033	1
1.16400	1
1.16767	2
1.17133	2
1.17500	2
1.17867	2
1.18233	2
1.18600	2
1.18967	1
1.19333	1
1.19700	1
1.20067	1
1.20433	1
1.20800	0
1.21167	-0
1.21533	-0
1.21900	-1
1.22267	-1
1.22633	-2
1.23000	-2
1.23367	-2
1.23733	-2
1.24100	-2
1.24467	-2
1.24833	-2
1.25200	-2
1.25567	-2
1.25933	-2
1.26300	-2
1.26667	-2
1.27033	-2
1.27400	-2
1.27767	-1
1.28133	-1
1.28500	-0
1.28867	0
1.29233	1
1.29600	1
1.29967	1
1.30333	1
1.30700	1
1.31067	1
1.31433	1
1.31800	1
1.32167	1
1.32533	1
1.32900	1
1.33267	2
1.33633	2
1.34000	2
1.34367	2
1.34733	2
1.35100	2
1.35467	3
1.35833	3
1.36200	3
1.36567	3
1.36933	3
1.37300	3
1.37667	3
1.38033	3
1.38400	3
1.38767	2
1.39133	2
1.39500	1
1.39867	0
1.40233	-0
1.40600	-1
1.40967	-2
1.41333	-2
1.41700	-2
1.42067	-3
1.42433	-3
1.42800	-3
1.43167	-3
1.43533	-3
1.43900	-2
1.44267	-2
1.44633	-2
1.45000	-2
1.45367	-2
1.45733	-2
1.46100	-2
1.46467	-2
1.46833	-1
1.47200	-1
1.47567	-1
1.47933	-0
1.48300	0
1.48667	1
1.49033	1
1.49400	1
1.49767	1
1.50133	1
1.50500	1
1.50867	1
1.51233	1
1.51600	1
1.51967	0
1.52333	0
1.52700	0
1.53067	0
1.53433	0
1.53800	0
1.54167	0
1.54533	0
1.54900	1
1.55267	1
1.55633	1
1.56000	1
1.56367	1
1.56733	1
1.57100	1
1.57467	0
1.57833	0
1.58200	-0
1.58567	-0
1.58933	-1
1.59300	-1
1.59667	-1
1.60033	-2
1.60400	-3
1.60767	-4
1.61133	-5
1.61500	-7
1.61867	-9
1.62233	-11
1.62600	-14
1.62967	-17
1.63333	-21
1.63700	-24
1.64067	-28
1.64433	-32
1.64800	-36
1.65167	-40
1.65533	-44
1.65900	-48
1.66267	-53
1.66633	-58
1.67000	-64
1.67367	-70
1.67733	-75
1.68100	-80
1.68467	-85
1.68833	-89
1.69200	-93
1.69567	-96
1.69933	-98
1.70300	-100
1.70667	-102
1.71033	-103
1.71400	-105
1.71767	-106
1.72133	-106
1.72500	-107
1.72867	-108
1.73233	-109
1.73600	-110
1.73967	-111
1.74333	-112
1.74700	-113
1.75067	-114
1.75433	-115
1.75800	-115
1.76167	-115
1.76533	-114
1.76900	-114
1.77267	-114
1.77633	-114
1.78000	-114
1.78367	-114
1.78733	-115
1.79100	-116
1.79467	-116
1.79833	-117
1.80200	-118
1.80567	-119
1.80933	-120
1.81300	-120
1.81667	-121
1.82033	-121
1.82400	-121
1.82767	-121
1.83133	-121
1.83500	-120
1.83867	-120
1.84233	-120
1.84600	-120
1.84967	-120
1.85333	-121
1.85700	-121
1.86067	-121
1.86433	-121
1.86800	-121
1.87167	-121
1.87533	-121
1.87900	-121
1.88267	-121
1.88633	-121
1.89000	-121
1.89367	-121
1.89733	-121
1.90100	-121
1.90467	-121
1.90833	-121
1.91200	-121
1.91567	-120
1.91933	-120
1.92300	-119
1.92667	-119
1.93033	-119
1.93400	-119
1.93767	-118
1.94133	-118
1.94500	-117
1.94867	-116
1.95233	-116
1.95600	-115
1.95967	-114
1.96333	-114
1.96700	-113
1.97067	-113
1.97433	-113
1.97800	-113
1.98167	-114
1.98533	-114
1.98900	-114
1.99267	-114
1.99633	-113
2.00000	-113
2.00367	-113
2.00733	-113
2.01100	-113
2.01467	-113
2.01833	-113
2.02200	-112
2.02567	-112
2.02933	-112
2.03300	-112
2.03667	-111
2.04033	-111
2.04400	-111
2.04767	-111
2.05133	-111
2.05500	-111
2.05867	-111
2.06233	-110
2.06600	-110
2.06967	-109
2.07333	-108
2.07700	-108
2.08067	-107
2.08433	-105
2.08800	-105
2.09167	-104
2.09533	-104
2.09900	-105
2.10267	-105
2.10633	-104
2.11000	-104
2.11367	-104
2.11733	-104
2.12100	-103
2.12467	-103
2.12833	-103
2.13200	-103
2.13567	-103
2.13933	-102
2.14300	-102
2.14667	-101
2.15033	-101
2.15400	-100
2.15767	-99
2.16133	-99
2.16500	-98
2.16867	-98
2.17233	-97
2.17600	-96
2.17967	-96
2.18333	-95
2.18700	-95
2.19067	-95
2.19433	-95
2.19800	-95
2.20167	-96
2.20533	-96
2.20900	-96
2.21267	-96
2.21633	-96
2.22000	-96
2.22367	-96
2.22733	-96
2.23100	-96
2.23467	-96
2.23833	-96
2.24200	-96
2.24567	-96
2.24933	-96
2.25300	-95
2.25667	-95
2.26033	-95
2.26400	-94
2.26767	-94
2.27133	-94
2.27500	-93
2.27867	-92
2.28233	-91
2.28600	-90
2.28967	-89
2.29333	-89
2.29700	-88
2.30067	-87
2.30433	-88
2.30800	-89
2.31167	-89
2.31533	-90
2.31900	-91
2.32267	-91
2.32633	-91
2.33000	-90
2.33367	-90
2.33733	-89
2.34100	-89
2.34467	-88
2.34833	-87
2.35200	-87
2.35567	-86
2.35933	-86
2.36300	-85
2.36667	-85
2.37033	-84
2.37400	-82
2.37767	-80
2.38133	-78
2.38500	-74
2.38867	-71
2.39233	-67
2.39600	-62
2.39967	-57
2.40333	-52
2.40700	-48
2.41067	-43
2.41433	-39
2.41800	-35
2.42167	-31
2.42533	-27
2.42900	-24
2.43267	-21
2.43633	-19
2.44000	-16
2.44367	-15
2.44733	-13
2.45100	-11
2.45467	-9
2.45833	-8
2.46200	-6
2.46567	-4
2.46933	-3
2.47300	-1
2.47667	0
2.48033	1
2.48400	2
2.48767	2
2.49133	3
2.49500	4
2.49867	5
2.50233	5
2.50600	6
2.50967	7
2.51333	7
2.51700	8
2.52067	8
2.52433	8
2.52800	9
2.53167	10
2.53533	10
2.53900	11
2.54267	12
2.54633	13
2.55000	14
2.55367	15
2.55733	16
2.56100	17
2.56467	17
2.56833	17
2.57200	16
2.57567	16
2.57933	15
2.58300	15
2.58667	15
2.59033	15
2.59400	15
2.59767	15
2.60133	16
2.60500	16
2.60867	16
2.61233	17
2.61600	17
2.61967	17
2.62333	17
2.62700	18
2.63067	18
2.63433	18
2.63800	18
2.64167	18
2.64533	18
2.64900	18
2.65267	18
2.65633	19
2.66000	19
2.66367	19
2.66733	20
2.67100	20
2.67467	20
2.67833	20
2.68200	21
2.68567	21
2.68933	22
2.69300	22
2.69667	23
2.70033	23
2.70400	24
2.70767	24
2.71133	24
2.71500	24
2.71867	23
2.72233	23
2.72600	23
2.72967	22
2.73333	22
2.73700	22
2.74067	22
2.74433	22
2.74800	22
2.75167	22
2.75533	22
2.75900	23
2.76267	23
2.76633	23
2.77000	24
2.77367	24
2.77733	24
2.78100	24
2.78467	24
2.78833	25
2.79200	25
2.79567	24
2.79933	24
2.80300	24
2.80667	24
2.81033	24
2.81400	24
2.81767	24
2.82133	24
2.82500	24
2.82867	24
2.83233	25
2.83600	25
2.83967	25
2.84333	24
2.84700	23
2.85067	21
2.85433	17
2.85800	10
2.86167	1
2.86533	-12
2.86900	-29
2.87267	-50
2.87633	-75
2.88000	-104
2.88367	-137
2.88733	-173
2.89100	-213
2.89467	-256
2.89833	-301
2.90200	-348
2.90567	-397
2.90933	-446
2.91300	-496
2.91667	-546
2.92033	-596
2.92400	-646
2.92767	-694
2.93133	-742
2.93500	-790
2.93867	-840
2.94233	-895
2.94600	-957
2.94967	-1017
2.95333	-1064
2.95700	-1089
2.96067	-1087
2.96433	-1059
2.96800	-1010
2.97167	-946
2.97533	-872
2.97900	-792
2.98267	-712
2.98633	-634
2.99000	-560
2.99367	-491
2.99733	-428
3.00100	-371
3.00467	-320
3.00833	-275
3.01200	-236
3.01567	-201
3.01933	-172
3.02300	-146
3.02667	-123
3.03033	-104
3.03400	-87
3.03767	-73
3.04133	-61
3.04500	-50
3.04867	-41
3.05233	-33
3.05600	-26
3.05967	-20
3.06333	-15
3.06700	-11
3.07067	-8
3.07433	-4
3.07800	-1
3.08167	1
3.08533	3
3.08900	5
3.09267	7
3.09633	8
3.10000	10
3.10367	11
3.10733	12
3.11100	13
3.11467	14
3.11833	14
3.12200	15
3.12567	16
3.12933	16
3.13300	16
3.13667	17
3.14033	17
3.14400	17
3.14767	17
3.15133	17
3.15500	18
3.15867	18
3.16233	18
3.16600	19
3.16967	19
3.17333	19
3.17700	19
3.18067	19
3.18433	19
3.18800	19
3.19167	20
3.19533	20
3.19900	20
3.20267	20
3.20633	21
3.21000	21
3.21367	21
3.21733	22
3.22100	22
3.22467	22
3.22833	22
3.23200	22
3.23567	22
3.23933	22
3.24300	22
3.24667	22
3.25033	22
3.25400	22
3.25767	22
3.26133	22
3.26500	22
3.26867	22
3.27233	22
3.27600	22
3.27967	22
3.28333	23
3.28700	23
3.29067	23
3.29433	23
3.29800	24
3.30167	24
3.30533	24
3.30900	24
3.31267	24
3.31633	25
3.32000	25
3.32367	25
3.32733	25
3.33100	25
3.33467	26
3.33833	26
3.34200	26
3.34567	25
3.34933	25
3.35300	25
3.35667	25
3.36033	25
3.36400	26
3.36767	26
3.37133	26
3.37500	26
3.37867	27
3.38233	27
3.38600	27
3.38967	27
3.39333	27
3.39700	26
3.40067	26
3.40433	26
3.40800	26
3.41167	25
3.41533	25
3.41900	25
3.42267	25
3.42633	25
3.43000	26
3.43367	26
3.43733	26
3.44100	26
3.44467	26
3.44833	26
3.45200	26
3.45567	26
3.45933	26
3.46300	26
3.46667	26
3.47033	26
3.47400	26
3.47767	26
3.48133	26
3.48500	26
3.48867	26
3.49233	26
3.49600	26
3.49967	25
3.50333	25
3.50700	25
3.51067	25
3.51433	25
3.51800	25
3.52167	26
3.52533	26
3.52900	26
3.53267	26
3.53633	26
3.54000	26
3.54367	26
3.54733	26
3.55100	27
3.55467	27
3.55833	27
3.56200	27
3.56567	28
3.56933	28
3.57300	28
3.57667	28
3.58033	28
3.58400	28
3.58767	28
3.59133	28
3.59500	28
3.59867	27
3.60233	27
3.60600	27
3.60967	27
3.61333	26
3.61700	26
3.62067	26
3.62433	26
3.62800	25
3.63167	25
3.63533	25
3.63900	25
3.64267	24
3.64633	24
3.65000	24
3.65367	24
3.65733	24
3.66100	24
3.66467	24
3.66833	24
3.67200	24
3.67567	24
3.67933	24
3.68300	24
3.68667	24
3.69033	25
3.69400	25
3.69767	25
3.70133	24
3.70500	24
3.70867	24
3.71233	24
3.71600	25
3.71967	25
3.72333	25
3.72700	25
3.73067	26
3.73433	26
3.73800	27
3.74167	27
3.74533	27
3.74900	27
3.75267	28
3.75633	28
3.76000	28
3.76367	28
3.76733	28
3.77100	29
3.77467	29
3.77833	29
3.78200	29
3.78567	29
3.78933	29
3.79300	29
3.79667	29
3.80033	29
3.80400	29
3.80767	29
3.81133	29
3.81500	29
3.81867	29
3.82233	29
3.82600	29
3.82967	29
3.83333	29
3.83700	29
3.84067	29
3.84433	29
3.84800	29
3.85167	29
3.85533	29
3.85900	29
3.86267	29
3.86633	29
3.87000	29
3.87367	29
3.87733	29
3.88100	29
3.88467	29
3.88833	29
3.89200	29
3.89567	29
3.89933	29
3.90300	29
3.90667	28
3.91033	28
3.91400	28
3.91767	28
3.92133	28
3.92500	28
3.92867	27
3.93233	27
3.93600	27
3.93967	27
3.94333	28
3.94700	28
3.95067	28
3.95433	28
3.95800	28
3.96167	28
3.96533	28
3.96900	28
3.97267	28
3.97633	28
3.98000	28
3.98367	28
3.98733	28
3.99100	27
3.99467	27
3.99833	27

[Chromatogram (Ch3)]
Interval(msec)	220
# of Points	1091
Start Time(min)	0.002
End Time(min)	3.998
R.Time (min)	Intensity
0.00167	0
0.00533	1
0.00900	-0
0.01267	-0
0.01633	3
0.02000	4
0.02367	4
0.02733	3
0.03100	-0
0.03467	-3
0.03833	-5
0.04200	-4
0.04567	-4
0.04933	-4
0.05300	-2
0.05667	1
0.06033	2
0.06400	2
0.06767	3
0.07133	2
0.07500	3
0.07867	4
0.08233	4
0.08600	3
0.08967	3
0.09333	4
0.09700	3
0.10067	2
0.10433	1
0.10800	0
0.11167	0
0.11533	-0
0.11900	0
0.12267	1
0.12633	2
0.13000	2
0.13367	-1
0.13733	-3
0.14100	-2
0.14467	-3
0.14833	-1
0.15200	0
0.15567	1
0.15933	4
0.16300	5
0.16667	5
0.17033	5
0.17400	8
0.17767	10
0.18133	10
0.18500	8
0.18867	6
0.19233	3
0.19600	2
0.19967	1
0.20333	-1
0.20700	-2
0.21067	-0
0.21433	1
0.21800	2
0.22167	1
0.22533	-2
0.22900	-3
0.23267	-3
0.23633	-2
0.24000	-2
0.24367	-4
0.24733	-2
0.25100	2
0.25467	4
0.25833	7
0.26200	8
0.26567	7
0.26933	8
0.27300	8
0.27667	7
0.28033	6
0.28400	6
0.28767	6
0.29133	5
0.29500	3
0.29867	3
0.30233	5
0.30600	7
0.30967	8
0.31333	9
0.31700	9
0.32067	9
0.32433	9
0.32800	6
0.33167	3
0.33533	2
0.33900	2
0.34267	1
0.34633	2
0.35000	4
0.35367	4
0.35733	5
0.36100	7
0.36467	7
0.36833	6
0.37200	6
0.37567	5
0.37933	5
0.38300	6
0.38667	6
0.39033	5
0.39400	7
0.39767	6
0.40133	5
0.40500	5
0.40867	4
0.41233	4
0.41600	4
0.41967	3
0.42333	3
0.42700	3
0.43067	6
0.43433	8
0.43800	8
0.44167	7
0.44533	6
0.44900	6
0.45267	5
0.45633	5
0.46000	7
0.46367	9
0.46733	10
0.47100	10
0.47467	11
0.47833	10
0.48200	9
0.48567	12
0.48933	14
0.49300	14
0.49667	13
0.50033	13
0.50400	12
0.50767	8
0.51133	7
0.51500	8
0.51867	8
0.52233	10
0.52600	11
0.52967	11
0.53333	10
0.53700	10
0.54067	11
0.54433	11
0.54800	12
0.55167	13
0.55533	13
0.55900	13
0.56267	12
0.56633	12
0.57000	14
0.57367	16
0.57733	15
0.58100	14
0.58467	16
0.58833	17
0.59200	17
0.59567	17
0.59933	18
0.60300	16
0.60667	14
0.61033	14
0.61400	14
0.61767	12
0.62133	12
0.62500	15
0.62867	15
0.63233	15
0.63600	15
0.63967	15
0.64333	16
0.64700	16
0.65067	15
0.65433	15
0.65800	14
0.66167	13
0.66533	12
0.66900	12
0.67267	13
0.67633	13
0.68000	13
0.68367	14
0.68733	14
0.69100	14
0.69467	15
0.69833	16
0.70200	14
0.70567	15
0.70933	18
0.71300	17
0.71667	16
0.72033	17
0.72400	18
0.72767	17
0.73133	14
0.73500	12
0.73867	13
0.74233	15
0.74600	18
0.74967	20
0.75333	19
0.75700	18
0.76067	18
0.76433	19
0.76800	20
0.77167	20
0.77533	16
0.77900	14
0.78267	14
0.78633	13
0.79000	13
0.79367	15
0.79733	16
0.80100	18
0.80467	20
0.80833	20
0.81200	20
0.81567	19
0.81933	17
0.82300	18
0.82667	17
0.83033	17
0.83400	18
0.83767	18
0.84133	21
0.84500	25
0.84867	26
0.85233	24
0.85600	23
0.85967	24
0.86333	24
0.86700	26
0.87067	27
0.87433	25
0.87800	24
0.88167	23
0.88533	23
0.88900	23
0.89267	22
0.89633	22
0.90000	22
0.90367	23
0.90733	24
0.91100	24
0.91467	25
0.91833	25
0.92200	24
0.92567	23
0.92933	23
0.93300	23
0.93667	23
0.94033	22
0.94400	22
0.94767	20
0.95133	19
0.95500	20
0.95867	22
0.96233	22
0.96600	21
0.96967	21
0.97333	22
0.97700	22
0.98067	23
0.98433	22
0.98800	22
0.99167	23
0.99533	24
0.99900	26
1.00267	28
1.00633	26
1.01000	26
1.01367	27
1.01733	26
1.02100	27
1.02467	30
1.02833	31
1.03200	31
1.03567	29
1.03933	31
1.04300	33
1.04667	35
1.05033	35
1.05400	36
1.05767	35
1.06133	36
1.06500	38
1.06867	38
1.07233	39
1.07600	38
1.07967	34
1.08333	31
1.08700	31
1.09067	32
1.09433	32
1.09800	34
1.10167	38
1.10533	39
1.10900	42
1.11267	43
1.11633	43
1.12000	43
1.12367	42
1.12733	42
1.13100	42
1.13467	42
1.13833	41
1.14200	41
1.14567	43
1.14933	43
1.15300	42
1.15667	41
1.16033	40
1.16400	41
1.16767	40
1.17133	40
1.17500	41
1.17867	41
1.18233	40
1.18600	39
1.18967	39
1.19333	39
1.19700	41
1.20067	43
1.20433	44
1.20800	44
1.21167	45
1.21533	46
1.21900	48
1.22267	48
1.22633	49
1.23000	49
1.23367	48
1.23733	49
1.24100	48
1.24467	47
1.24833	46
1.25200	43
1.25567	43
1.25933	42
1.26300	42
1.26667	41
1.27033	44
1.27400	46
1.27767	47
1.28133	46
1.28500	46
1.28867	48
1.29233	50
1.29600	51
1.29967	51
1.30333	51
1.30700	52
1.31067	52
1.31433	52
1.31800	51
1.32167	50
1.32533	51
1.32900	51
1.33267	50
1.33633	50
1.34000	51
1.34367	52
1.34733	52
1.35100	53
1.35467	54
1.35833	52
1.36200	51
1.36567	50
1.36933	50
1.37300	51
1.37667	53
1.38033	54
1.38400	53
1.38767	51
1.39133	50
1.39500	50
1.39867	51
1.40233	52
1.40600	54
1.40967	56
1.41333	57
1.41700	57
1.42067	58
1.42433	59
1.42800	58
1.43167	57
1.43533	57
1.43900	57
1.44267	58
1.44633	60
1.45000	59
1.45367	58
1.45733	56
1.46100	56
1.46467	57
1.46833	56
1.47200	55
1.47567	55
1.47933	58
1.48300	62
1.48667	61
1.49033	58
1.49400	59
1.49767	60
1.50133	60
1.50500	62
1.50867	63
1.51233	61
1.51600	60
1.51967	59
1.52333	59
1.52700	58
1.53067	59
1.53433	59
1.53800	58
1.54167	59
1.54533	58
1.54900	58
1.55267	59
1.55633	59
1.56000	61
1.56367	62
1.56733	64
1.57100	65
1.57467	67
1.57833	67
1.58200	65
1.58567	65
1.58933	66
1.59300	67
1.59667	67
1.60033	67
1.60400	67
1.60767	67
1.61133	68
1.61500	67
1.61867	66
1.62233	67
1.62600	68
1.62967	68
1.63333	69
1.63700	70
1.64067	69
1.64433	69
1.64800	68
1.65167	68
1.65533	70
1.65900	71
1.66267	72
1.66633	72
1.67000	73
1.67367	76
1.67733	79
1.68100	79
1.68467	81
1.68833	82
1.69200	83
1.69567	85
1.69933	86
1.70300	86
1.70667	88
1.71033	88
1.71400	87
1.71767	90
1.72133	91
1.72500	91
1.72867	93
1.73233	96
1.73600	98
1.73967	98
1.74333	98
1.74700	97
1.75067	96
1.75433	94
1.75800	94
1.76167	96
1.76533	99
1.76900	99
1.77267	98
1.77633	98
1.78000	100
1.78367	103
1.78733	102
1.79100	102
1.79467	105
1.79833	108
1.80200	108
1.80567	108
1.80933	109
1.81300	112
1.81667	113
1.82033	116
1.82400	117
1.82767	118
1.83133	119
1.83500	119
1.83867	120
1.84233	120
1.84600	120
1.84967	122
1.85333	124
1.85700	125
1.86067	124
1.86433	126
1.86800	128
1.87167	129
1.87533	128
1.87900	130
1.88267	130
1.88633	128
1.89000	128
1.89367	130
1.89733	134
1.90100	137
1.90467	136
1.90833	136
1.91200	138
1.91567	139
1.91933	139
1.92300	140
1.92667	140
1.93033	140
1.93400	139
1.93767	139
1.94133	140
1.94500	141
1.94867	144
1.95233	146
1.95600	146
1.95967	147
1.96333	148
1.96700	149
1.97067	150
1.97433	150
1.97800	151
1.98167	153
1.98533	154
1.98900	155
1.99267	156
1.99633	157
2.00000	159
2.00367	159
2.00733	161
2.01100	163
2.01467	166
2.01833	170
2.02200	172
2.02567	170
2.02933	169
2.03300	170
2.03667	172
2.04033	174
2.04400	174
2.04767	176
2.05133	179
2.05500	184
2.05867	187
2.06233	187
2.06600	188
2.06967	191
2.07333	192
2.07700	193
2.08067	196
2.08433	198
2.08800	199
2.09167	200
2.09533	200
2.09900	202
2.10267	205
2.10633	206
2.11000	208
2.11367	212
2.11733	214
2.12100	216
2.12467	218
2.12833	219
2.13200	222
2.13567	224
2.13933	224
2.14300	225
2.14667	226
2.15033	229
2.15400	231
2.15767	234
2.16133	237
2.16500	239
2.16867	242
2.17233	244
2.17600	247
2.17967	247
2.18333	248
2.18700	247
2.19067	248
2.19433	253
2.19800	257
2.20167	259
2.20533	261
2.20900	265
2.21267	266
2.21633	266
2.22000	264
2.22367	263
2.22733	264
2.23100	266
2.23467	269
2.23833	274
2.24200	278
2.24567	280
2.24933	281
2.25300	281
2.25667	280
2.26033	281
2.26400	282
2.26767	286
2.27133	291
2.27500	295
2.27867	297
2.28233	298
2.28600	298
2.28967	297
2.29333	298
2.29700	300
2.30067	302
2.30433	302
2.30800	304
2.31167	306
2.31533	307
2.31900	309
2.32267	311
2.32633	313
2.33000	315
2.33367	315
2.33733	317
2.34100	320
2.34467	324
2.34833	326
2.35200	325
2.35567	326
2.35933	328
2.36300	330
2.36667	333
2.37033	335
2.37400	338
2.37767	341
2.38133	345
2.38500	347
2.38867	345
2.39233	346
2.39600	346
2.39967	346
2.40333	346
2.40700	346
2.41067	347
2.41433	350
2.41800	354
2.42167	356
2.42533	359
2.42900	359
2.43267	361
2.43633	364
2.44000	366
2.44367	367
2.44733	359
2.45100	338
2.45467	312
2.45833	286
2.46200	265
2.46567	250
2.46933	239
2.47300	231
2.47667	225
2.48033	222
2.48400	220
2.48767	218
2.49133	217
2.49500	216
2.49867	218
2.50233	218
2.50600	216
2.50967	214
2.51333	215
2.51700	216
2.52067	217
2.52433	217
2.52800	217
2.53167	217
2.53533	216
2.53900	216
2.54267	214
2.54633	214
2.55000	216
2.55367	216
2.55733	217
2.56100	219
2.56467	221
2.56833	223
2.57200	224
2.57567	225
2.57933	226
2.58300	227
2.58667	228
2.59033	228
2.59400	226
2.59767	221
2.60133	216
2.60500	205
2.60867	188
2.61233	163
2.61600	132
2.61967	95
2.62333	60
2.62700	29
2.63067	0
2.63433	-26
2.63800	-47
2.64167	-63
2.64533	-76
2.64900	-82
2.65267	-84
2.65633	-83
2.66000	-79
2.66367	-72
2.66733	-65
2.67100	-57
2.67467	-48
2.67833	-39
2.68200	-29
2.68567	-17
2.68933	-6
2.69300	7
2.69667	20
2.70033	31
2.70400	40
2.70767	50
2.71133	60
2.71500	69
2.71867	78
2.72233	88
2.72600	95
2.72967	101
2.73333	106
2.73700	112
2.74067	119
2.74433	126
2.74800	134
2.75167	141
2.75533	146
2.75900	150
2.76267	155
2.76633	160
2.77000	165
2.77367	170
2.77733	175
2.78100	180
2.78467	183
2.78833	188
2.79200	193
2.79567	197
2.79933	199
2.80300	204
2.80667	208
2.81033	212
2.81400	215
2.81767	219
2.82133	223
2.82500	228
2.82867	241
2.83233	271
2.83600	332
2.83967	443
2.84333	628
2.84700	906
2.85067	1287
2.85433	1766
2.85800	2322
2.86167	2922
2.86533	3521
2.86900	4064
2.87267	4504
2.87633	4814
2.88000	4993
2.88367	5063
2.88733	5037
2.89100	4925
2.89467	4742
2.89833	4507
2.90200	4243
2.90567	3968
2.90933	3694
2.91300	3430
2.91667	3182
2.92033	2955
2.92400	2749
2.92767	2566
2.93133	2402
2.93500	2257
2.93867	2130
2.94233	2019
2.94600	1924
2.94967	1839
2.95333	1765
2.95700	1703
2.96067	1648
2.96433	1600
2.96800	1557
2.97167	1520
2.97533	1488
2.97900	1458
2.98267	1429
2.98633	1402
2.99000	1382
2.99367	1363
2.99733	1345
3.00100	1327
3.00467	1313
3.00833	1299
3.01200	1287
3.01567	1275
3.01933	1266
3.02300	1256
3.02667	1246
3.03033	1235
3.03400	1225
3.03767	1216
3.04133	1206
3.04500	1196
3.04867	1191
3.05233	1185
3.05600	1180
3.05967	1174
3.06333	1168
3.06700	1162
3.07067	1156
3.07433	1151
3.07800	1144
3.08167	1138
3.08533	1136
3.08900	1135
3.09267	1134
3.09633	1130
3.10000	1126
3.10367	1122
3.10733	1115
3.11100	1110
3.11467	1105
3.11833	1102
3.12200	1103
3.12567	1104
3.12933	1103
3.13300	1101
3.13667	1100
3.14033	1099
3.14400	1100
3.14767	1099
3.15133	1099
3.15500	1098
3.15867	1096
3.16233	1094
3.16600	1091
3.16967	1091
3.17333	1091
3.17700	1091
3.18067	1093
3.18433	1093
3.18800	1092
3.19167	1092
3.19533	1091
3.19900	1091
3.20267	1090
3.20633	1089
3.21000	1089
3.21367	1089
3.21733	1088
3.22100	1086
3.22467	1084
3.22833	1081
3.23200	1079
3.23567	1077
3.23933	1076
3.24300	1077
3.24667	1075
3.25033	1071
3.25400	1068
3.25767	1065
3.26133	1062
3.26500	1059
3.26867	1055
3.27233	1049
3.27600	1043
3.27967	1039
3.28333	1037
3.28700	1033
3.29067	1029
3.29433	1025
3.29800	1020
3.30167	1015
3.30533	1010
3.30900	1006
3.31267	1000
3.31633	992
3.32000	986
3.32367	980
3.32733	972
3.33100	966
3.33467	962
3.33833	959
3.34200	953
3.34567	947
3.34933	941
3.35300	933
3.35667	925
3.36033	919
3.36400	914
3.36767	910
3.37133	904
3.37500	897
3.37867	891
3.38233	884
3.38600	877
3.38967	871
3.39333	867
3.39700	861
3.40067	856
3.40433	851
3.40800	845
3.41167	839
3.41533	833
3.41900	828
3.42267	826
3.42633	823
3.43000	818
3.43367	813
3.43733	808
3.44100	806
3.44467	801
3.44833	794
3.45200	787
3.45567	781
3.45933	778
3.46300	773
3.46667	765
3.47033	758
3.47400	752
3.47767	746
3.48133	741
3.48500	737
3.48867	732
3.49233	727
3.49600	719
3.49967	714
3.50333	711
3.50700	710
3.51067	708
3.51433	704
3.51800	699
3.52167	693
3.52533	688
3.52900	685
3.53267	681
3.53633	675
3.54000	670
3.54367	665
3.54733	662
3.55100	661
3.55467	658
3.55833	656
3.56200	653
3.56567	650
3.56933	645
3.57300	640
3.57667	635
3.58033	631
3.58400	628
3.58767	624
3.59133	622
3.59500	620
3.59867	616
3.60233	613
3.60600	611
3.60967	608
3.61333	607
3.61700	606
3.62067	602
3.62433	598
3.62800	595
3.63167	591
3.63533	588
3.63900	586
3.64267	584
3.64633	583
3.65000	581
3.65367	577
3.65733	573
3.66100	569
3.66467	566
3.66833	565
3.67200	565
3.67567	564
3.67933	561
3.68300	557
3.68667	554
3.69033	551
3.69400	549
3.69767	548
3.70133	544
3.70500	539
3.70867	534
3.71233	529
3.71600	527
3.71967	526
3.72333	526
3.72700	526
3.73067	526
3.73433	525
3.73800	524
3.74167	522
3.74533	519
3.74900	516
3.75267	513
3.75633	510
3.76000	508
3.76367	506
3.76733	504
3.77100	504
3.77467	504
3.77833	503
3.78200	501
3.78567	500
3.78933	498
3.79300	497
3.79667	494
3.80033	489
3.80400	486
3.80767	485
3.81133	482
3.81500	481
3.81867	482
3.82233	481
3.82600	480
3.82967	478
3.83333	476
3.83700	475
3.84067	474
3.84433	471
3.84800	470
3.85167	469
3.85533	467
3.85900	467
3.86267	464
3.86633	460
3.87000	459
3.87367	459
3.87733	459
3.88100	457
3.88467	457
3.88833	456
3.89200	452
3.89567	448
3.89933	444
3.90300	441
3.90667	439
3.91033	436
3.91400	436
3.91767	436
3.92133	435
3.92500	433
3.92867	432
3.93233	431
3.93600	431
3.93967	430
3.94333	431
3.94700	429
3.95067	428
3.95433	426
3.95800	423
3.96167	423
3.96533	423
3.96900	421
3.97267	419
3.97633	416
3.98000	413
3.98367	410
3.98733	408
3.99100	409
3.99467	409
3.99833	412

[Status Trace (Column Oven Temperature)]
Interval(msec)	1000
# of Points	240
Start Time(min)	0.007
End Time(min)	3.990
Intensity Units	
Intensity Multiplier	1
R.Time (min)	Intensity
0.00697	35.03
0.02363	35.02
0.04030	35.02
0.05697	35.03
0.07363	35.04
0.09030	35.05
0.10697	35.06
0.12363	35.06
0.14030	35.07
0.15697	35.07
0.17363	35.06
0.19030	35.05
0.20697	35.02
0.22363	35.01
0.24030	34.99
0.25697	34.98
0.27363	34.98
0.29030	34.98
0.30697	34.99
0.32363	34.99
0.34030	34.99
0.35697	35.00
0.37363	34.99
0.39030	34.99
0.40697	34.98
0.42363	34.98
0.44030	34.97
0.45697	34.98
0.47363	34.98
0.49030	34.98
0.50697	34.98
0.52363	35.00
0.54030	35.01
0.55697	35.03
0.57363	35.05
0.59030	35.06
0.60697	35.06
0.62363	35.04
0.64030	35.03
0.65697	35.02
0.67363	35.00
0.69030	34.99
0.70697	34.98
0.72363	34.98
0.74030	34.97
0.75697	34.97
0.77363	34.96
0.79030	34.95
0.80697	34.96
0.82363	34.98
0.84030	34.97
0.85697	34.98
0.87363	34.99
0.89030	35.00
0.90697	34.99
0.92363	34.98
0.94030	34.98
0.95697	34.97
0.97363	34.97
0.99030	34.98
1.00697	34.99
1.02363	35.00
1.04030	35.02
1.05697	35.04
1.07363	35.06
1.09030	35.08
1.10697	35.07
1.12363	35.07
1.14030	35.06
1.15697	35.04
1.17363	35.05
1.19030	35.05
1.20697	35.05
1.22363	35.06
1.24030	35.06
1.25697	35.05
1.27363	35.04
1.29030	35.03
1.30697	35.03
1.32363	35.01
1.34030	34.99
1.35697	34.98
1.37363	34.98
1.39030	34.99
1.40697	34.99
1.42363	35.01
1.44030	35.01
1.45697	35.01
1.47363	35.00
1.49030	34.98
1.50697	34.98
1.52363	34.97
1.54030	34.96
1.55697	34.95
1.57363	34.95
1.59030	34.96
1.60697	35.01
1.62363	35.13
1.64030	35.32
1.65697	35.58
1.67363	35.94
1.69030	36.29
1.70697	36.64
1.72363	36.98
1.74030	37.32
1.75697	37.65
1.77363	37.96
1.79030	38.30
1.80697	38.65
1.82363	38.98
1.84030	39.30
1.85697	39.64
1.87363	39.97
1.89030	40.30
1.90697	40.62
1.92363	40.95
1.94030	41.29
1.95697	41.58
1.97363	41.92
1.99030	42.25
2.00697	42.57
2.02363	42.90
2.04030	43.24
2.05697	43.57
2.07363	43.88
2.09030	44.19
2.10697	44.51
2.12363	44.84
2.14030	45.18
2.15697	45.51
2.17363	45.81
2.19030	46.13
2.20697	46.48
2.22363	46.81
2.24030	47.14
2.25697	47.47
2.27363	47.81
2.29030	48.10
2.30697	48.47
2.32363	48.80
2.34030	49.12
2.35697	49.42
2.37363	49.66
2.39030	49.73
2.40697	49.75
2.42363	49.75
2.44030	49.76
2.45697	49.76
2.47363	49.75
2.49030	49.77
2.50697	49.77
2.52363	49.79
2.54030	49.80
2.55697	49.80
2.57363	49.83
2.59030	49.83
2.60697	49.83
2.62363	49.83
2.64030	49.85
2.65697	49.85
2.67363	49.86
2.69030	49.85
2.70697	49.85
2.72363	49.87
2.74030	49.88
2.75697	49.87
2.77363	49.87
2.79030	49.88
2.80697	49.88
2.82363	49.89
2.84030	49.89
2.85697	49.90
2.87363	49.91
2.89030	49.94
2.90697	49.94
2.92363	49.95
2.94030	49.95
2.95697	49.98
2.97363	49.99
2.99030	50.02
3.00697	50.04
3.02363	50.06
3.04030	50.07
3.05697	50.07
3.07363	50.07
3.09030	50.07
3.10697	50.06
3.12363	50.06
3.14030	50.07
3.15697	50.08
3.17363	50.09
3.19030	50.09
3.20697	50.08
3.22363	50.08
3.24030	50.09
3.25697	50.10
3.27363	50.10
3.29030	50.10
3.30697	50.11
3.32363	50.10
3.34030	50.09
3.35697	50.09
3.37363	50.08
3.39030	50.07
3.40697	50.07
3.42363	50.06
3.44030	50.06
3.45697	50.06
3.47363	50.06
3.49030	50.07
3.50697	50.08
3.52363	50.08
3.54030	50.08
3.55697	50.07
3.57363	50.06
3.59030	50.06
3.60697	50.06
3.62363	50.07
3.64030	50.08
3.65697	50.08
3.67363	50.09
3.69030	50.10
3.70697	50.11
3.72363	50.10
3.74030	50.09
3.75697	50.08
3.77363	50.07
3.79030	50.05
3.80697	50.03
3.82363	50.02
3.84030	50.02
3.85697	50.01
3.87363	50.00
3.89030	50.00
3.90697	50.00
3.92363	50.00
3.94030	49.99
3.95697	49.99
3.97363	49.98
3.99030	49.98

[Status Trace (Injection Unit Temperature)]
Interval(msec)	1000
# of Points	240
Start Time(min)	0.007
End Time(min)	3.990
Intensity Units	
Intensity Multiplier	1
R.Time (min)	Intensity
0.00697	99.98
0.02363	99.99
0.04030	99.99
0.05697	99.98
0.07363	99.98
0.09030	99.98
0.10697	99.98
0.12363	99.98
0.14030	99.99
0.15697	99.98
0.17363	99.98
0.19030	99.99
0.20697	99.99
0.22363	99.98
0.24030	99.98
0.25697	99.98
0.27363	99.98
0.29030	99.98
0.30697	99.98
0.32363	99.98
0.34030	99.98
0.35697	99.98
0.37363	99.98
0.39030	99.98
0.40697	99.98
0.42363	99.98
0.44030	99.98
0.45697	99.98
0.47363	99.98
0.49030	99.98
0.50697	99.98
0.52363	99.98
0.54030	99.98
0.55697	99.98
0.57363	99.98
0.59030	99.98
0.60697	99.97
0.62363	99.98
0.64030	99.97
0.65697	99.98
0.67363	99.98
0.69030	99.98
0.70697	99.98
0.72363	99.98
0.74030	99.98
0.75697	99.98
0.77363	99.98
0.79030	99.98
0.80697	99.98
0.82363	99.98
0.84030	99.98
0.85697	99.98
0.87363	99.98
0.89030	99.98
0.90697	99.97
0.92363	99.98
0.94030	99.98
0.95697	99.98
0.97363	99.98
0.99030	99.98
1.00697	99.98
1.02363	99.98
1.04030	99.98
1.05697	99.98
1.07363	99.98
1.09030	99.98
1.10697	99.98
1.12363	99.98
1.14030	99.98
1.15697	99.98
1.17363	99.98
1.19030	99.98
1.20697	99.98
1.22363	99.98
1.24030	99.98
1.25697	99.98
1.27363	99.99
1.29030	99.98
1.30697	99.99
1.32363	99.99
1.34030	99.98
1.35697	99.99
1.37363	99.98
1.39030	99.98
1.40697	99.98
1.42363	99.98
1.44030	99.99
1.45697	99.99
1.47363	99.99
1.49030	99.98
1.50697	99.99
1.52363	99.98
1.54030	99.98
1.55697	99.99
1.57363	99.98
1.59030	99.98
1.60697	99.98
1.62363	99.99
1.64030	99.98
1.65697	99.99
1.67363	99.98
1.69030	99.98
1.70697	99.99
1.72363	99.99
1.74030	99.99
1.75697	99.99
1.77363	99.98
1.79030	99.98
1.80697	99.98
1.82363	99.99
1.84030	99.98
1.85697	99.99
1.87363	99.98
1.89030	99.98
1.90697	99.98
1.92363	99.98
1.94030	99.98
1.95697	99.98
1.97363	99.98
1.99030	99.98
2.00697	99.98
2.02363	99.98
2.04030	99.98
2.05697	99.97
2.07363	99.97
2.09030	99.98
2.10697	99.97
2.12363	99.97
2.14030	99.97
2.15697	99.97
2.17363	99.97
2.19030	99.97
2.20697	99.97
2.22363	99.97
2.24030	99.97
2.25697	99.96
2.27363	99.96
2.29030	99.96
2.30697	99.97
2.32363	99.96
2.34030	99.97
2.35697	99.96
2.37363	99.96
2.39030	99.97
2.40697	99.96
2.42363	99.97
2.44030	99.96
2.45697	99.97
2.47363	99.96
2.49030	99.97
2.50697	99.97
2.52363	99.96
2.54030	99.97
2.55697	99.97
2.57363	99.97
2.59030	99.97
2.60697	99.98
2.62363	99.97
2.64030	99.98
2.65697	99.98
2.67363	99.98
2.69030	99.98
2.70697	99.98
2.72363	99.99
2.74030	99.99
2.75697	99.98
2.77363	99.99
2.79030	99.99
2.80697	99.99
2.82363	100.00
2.84030	100.00
2.85697	100.00
2.87363	100.00
2.89030	100.00
2.90697	100.01
2.92363	100.01
2.94030	100.01
2.95697	100.01
2.97363	100.01
2.99030	100.01
3.00697	100.01
3.02363	100.02
3.04030	100.01
3.05697	100.02
3.07363	100.02
3.09030	100.02
3.10697	100.02
3.12363	100.02
3.14030	100.02
3.15697	100.02
3.17363	100.03
3.19030	100.03
3.20697	100.02
3.22363	100.02
3.24030	100.03
3.25697	100.02
3.27363	100.03
3.29030	100.03
3.30697	100.02
3.32363	100.03
3.34030	100.03
3.35697	100.03
3.37363	100.03
3.39030	100.03
3.40697	100.03
3.42363	100.04
3.44030	100.04
3.45697	100.04
3.47363	100.03
3.49030	100.04
3.50697	100.04
3.52363	100.04
3.54030	100.04
3.55697	100.04
3.57363	100.04
3.59030	100.04
3.60697	100.04
3.62363	100.04
3.64030	100.04
3.65697	100.04
3.67363	100.04
3.69030	100.04
3.70697	100.04
3.72363	100.04
3.74030	100.04
3.75697	100.04
3.77363	100.05
3.79030	100.05
3.80697	100.04
3.82363	100.04
3.84030	100.04
3.85697	100.05
3.87363	100.05
3.89030	100.04
3.90697	100.05
3.92363	100.05
3.94030	100.05
3.95697	100.05
3.97363	100.05
3.99030	100.05

[Status Trace (Carrier Gas Pressure)]
Interval(msec)	1000
# of Points	240
Start Time(min)	0.007
End Time(min)	3.990
Intensity Units	
Intensity Multiplier	1
R.Time (min)	Intensity
0.00697	58.00
0.02363	55.59
0.04030	56.91
0.05697	59.08
0.07363	59.67
0.09030	58.12
0.10697	57.97
0.12363	58.01
0.14030	58.01
0.15697	58.00
0.17363	58.00
0.19030	58.00
0.20697	58.00
0.22363	58.00
0.24030	58.00
0.25697	58.00
0.27363	58.00
0.29030	58.00
0.30697	58.00
0.32363	58.00
0.34030	58.00
0.35697	58.00
0.37363	58.00
0.39030	58.00
0.40697	58.00
0.42363	58.00
0.44030	58.00
0.45697	58.00
0.47363	58.00
0.49030	58.00
0.50697	58.00
0.52363	58.00
0.54030	58.00
0.55697	58.00
0.57363	58.00
0.59030	58.00
0.60697	58.00
0.62363	58.00
0.64030	58.00
0.65697	58.00
0.67363	58.00
0.69030	58.00
0.70697	58.00
0.72363	58.00
0.74030	58.00
0.75697	58.00
0.77363	58.00
0.79030	58.00
0.80697	58.00
0.82363	58.00
0.84030	58.00
0.85697	58.00
0.87363	58.00
0.89030	58.00
0.90697	58.00
0.92363	58.00
0.94030	58.00
0.95697	58.00
0.97363	58.00
0.99030	58.00
1.00697	58.00
1.02363	58.00
1.04030	58.00
1.05697	58.00
1.07363	58.00
1.09030	58.00
1.10697	58.00
1.12363	58.00
1.14030	58.00
1.15697	58.00
1.17363	58.00
1.19030	58.00
1.20697	58.00
1.22363	58.00
1.24030	58.00
1.25697	58.00
1.27363	58.00
1.29030	58.00
1.30697	58.00
1.32363	58.00
1.34030	58.00
1.35697	58.00
1.37363	58.00
1.39030	58.00
1.40697	58.00
1.42363	58.00
1.44030	58.00
1.45697	58.00
1.47363	58.00
1.49030	58.00
1.50697	58.00
1.52363	58.00
1.54030	58.00
1.55697	58.00
1.57363	58.00
1.59030	58.00
1.60697	58.00
1.62363	58.00
1.64030	58.00
1.65697	58.01
1.67363	58.01
1.69030	58.00
1.70697	58.00
1.72363	58.00
1.74030	58.00
1.75697	58.00
1.77363	58.00
1.79030	58.00
1.80697	58.00
1.82363	58.00
1.84030	58.00
1.85697	58.00
1.87363	58.00
1.89030	58.00
1.90697	58.00
1.92363	58.00
1.94030	58.00
1.95697	58.00
1.97363	58.00
1.99030	58.00
2.00697	58.00
2.02363	58.00
2.04030	58.00
2.05697	58.00
2.07363	58.00
2.09030	58.00
2.10697	58.00
2.12363	58.00
2.14030	58.00
2.15697	58.00
2.17363	58.00
2.19030	58.00
2.20697	58.00
2.22363	58.00
2.24030	58.00
2.25697	58.00
2.27363	58.00
2.29030	58.00
2.30697	58.00
2.32363	58.00
2.34030	58.00
2.35697	58.00
2.37363	58.00
2.39030	57.99
2.40697	57.99
2.42363	58.00
2.44030	58.00
2.45697	58.00
2.47363	58.00
2.49030	58.00
2.50697	58.00
2.52363	57.99
2.54030	58.00
2.55697	58.00
2.57363	58.00
2.59030	58.00
2.60697	58.00
2.62363	58.00
2.64030	58.00
2.65697	58.00
2.67363	58.00
2.69030	58.00
2.70697	58.00
2.72363	58.00
2.74030	58.00
2.75697	58.00
2.77363	58.00
2.79030	58.00
2.80697	58.00
2.82363	58.00
2.84030	58.00
2.85697	58.00
2.87363	58.00
2.89030	58.00
2.90697	58.00
2.92363	58.00
2.94030	58.00
2.95697	58.00
2.97363	58.00
2.99030	58.00
3.00697	58.00
3.02363	58.00
3.04030	58.00
3.05697	58.00
3.07363	58.00
3.09030	58.00
3.10697	58.00
3.12363	58.00
3.14030	58.00
3.15697	58.00
3.17363	58.00
3.19030	58.00
3.20697	58.00
3.22363	58.00
3.24030	58.00
3.25697	58.00
3.27363	58.00
3.29030	58.00
3.30697	58.00
3.32363	58.00
3.34030	58.00
3.35697	58.00
3.37363	58.00
3.39030	58.00
3.40697	58.00
3.42363	58.00
3.44030	58.00
3.45697	58.00
3.47363	58.00
3.49030	58.00
3.50697	58.00
3.52363	58.00
3.54030	58.00
3.55697	58.00
3.57363	58.00
3.59030	58.00
3.60697	58.00
3.62363	58.00
3.64030	58.00
3.65697	58.00
3.67363	58.00
3.69030	58.00
3.70697	58.00
3.72363	58.00
3.74030	58.00
3.75697	58.00
3.77363	58.00
3.79030	58.00
3.80697	58.00
3.82363	58.00
3.84030	58.00
3.85697	58.00
3.87363	58.00
3.89030	58.00
3.90697	58.00
3.92363	58.00
3.94030	58.00
3.95697	58.00
3.97363	58.00
3.99030	58.00

[Status Trace (Carrier Gas Flow)]
Interval(msec)	1000
# of Points	240
Start Time(min)	0.007
End Time(min)	3.990
Intensity Units	
Intensity Multiplier	1
R.Time (min)	Intensity
0.00697	34.52
0.02363	34.53
0.04030	34.54
0.05697	34.55
0.07363	34.49
0.09030	34.51
0.10697	34.52
0.12363	34.52
0.14030	34.53
0.15697	34.51
0.17363	34.52
0.19030	34.52
0.20697	34.52
0.22363	34.52
0.24030	34.52
0.25697	34.52
0.27363	34.52
0.29030	34.52
0.30697	34.52
0.32363	34.52
0.34030	34.53
0.35697	34.52
0.37363	34.52
0.39030	34.52
0.40697	34.52
0.42363	34.52
0.44030	34.52
0.45697	34.52
0.47363	34.52
0.49030	34.52
0.50697	34.52
0.52363	34.52
0.54030	34.52
0.55697	34.52
0.57363	34.52
0.59030	34.52
0.60697	34.52
0.62363	34.52
0.64030	34.52
0.65697	34.52
0.67363	34.52
0.69030	34.52
0.70697	34.52
0.72363	34.52
0.74030	34.52
0.75697	34.52
0.77363	34.52
0.79030	34.52
0.80697	34.52
0.82363	34.52
0.84030	34.52
0.85697	34.52
0.87363	34.52
0.89030	34.52
0.90697	34.52
0.92363	34.52
0.94030	34.52
0.95697	34.52
0.97363	34.52
0.99030	34.52
1.00697	34.52
1.02363	34.52
1.04030	34.52
1.05697	34.52
1.07363	34.52
1.09030	34.52
1.10697	34.52
1.12363	34.52
1.14030	34.52
1.15697	34.52
1.17363	34.52
1.19030	34.52
1.20697	34.52
1.22363	34.52
1.24030	34.52
1.25697	34.52
1.27363	34.52
1.29030	34.52
1.30697	34.52
1.32363	34.52
1.34030	34.52
1.35697	34.52
1.37363	34.52
1.39030	34.52
1.40697	34.52
1.42363	34.52
1.44030	34.52
1.45697	34.52
1.47363	34.52
1.49030	34.52
1.50697	34.52
1.52363	34.52
1.54030	34.52
1.55697	34.52
1.57363	34.52
1.59030	34.52
1.60697	34.52
1.62363	34.52
1.64030	34.52
1.65697	34.52
1.67363	34.52
1.69030	34.52
1.70697	34.52
1.72363	34.52
1.74030	34.52
1.75697	34.52
1.77363	34.52
1.79030	34.52
1.80697	34.52
1.82363	34.52
1.84030	34.52
1.85697	34.52
1.87363	34.52
1.89030	34.51
1.90697	34.52
1.92363	34.52
1.94030	34.52
1.95697	34.52
1.97363	34.52
1.99030	34.52
2.00697	34.52
2.02363	34.52
2.04030	34.52
2.05697	34.51
2.07363	34.52
2.09030	34.52
2.10697	34.52
2.12363	34.51
2.14030	34.52
2.15697	34.52
2.17363	34.52
2.19030	34.52
2.20697	34.52
2.22363	34.52
2.24030	34.52
2.25697	34.52
2.27363	34.52
2.29030	34.53
2.30697	34.53
2.32363	34.52
2.34030	34.51
2.35697	34.51
2.37363	34.51
2.39030	34.50
2.40697	34.51
2.42363	34.52
2.44030	34.52
2.45697	34.53
2.47363	34.51
2.49030	34.52
2.50697	34.34
2.52363	34.52
2.54030	34.52
2.55697	34.52
2.57363	34.52
2.59030	34.52
2.60697	34.52
2.62363	34.52
2.64030	34.52
2.65697	34.52
2.67363	34.52
2.69030	34.52
2.70697	34.52
2.72363	34.52
2.74030	34.52
2.75697	34.52
2.77363	34.52
2.79030	34.52
2.80697	34.52
2.82363	34.52
2.84030	34.52
2.85697	34.52
2.87363	34.52
2.89030	34.52
2.90697	34.52
2.92363	34.52
2.94030	34.52
2.95697	34.52
2.97363	34.52
2.99030	34.52
3.00697	34.52
3.02363	34.52
3.04030	34.52
3.05697	34.52
3.07363	34.52
3.09030	34.52
3.10697	34.52
3.12363	34.52
3.14030	34.52
3.15697	34.52
3.17363	34.53
3.19030	34.52
3.20697	34.52
3.22363	34.52
3.24030	34.52
3.25697	34.52
3.27363	34.52
3.29030	34.52
3.30697	34.52
3.32363	34.52
3.34030	34.52
3.35697	34.52
3.37363	34.52
3.39030	34.52
3.40697	34.52
3.42363	34.52
3.44030	34.52
3.45697	34.52
3.47363	34.52
3.49030	34.52
3.50697	34.52
3.52363	34.51
3.54030	34.52
3.55697	34.52
3.57363	34.51
3.59030	34.52
3.60697	34.52
3.62363	34.52
3.64030	34.52
3.65697	34.52
3.67363	34.51
3.69030	34.53
3.70697	34.52
3.72363	34.51
3.74030	34.53
3.75697	34.52
3.77363	34.51
3.79030	34.50
3.80697	34.52
3.82363	34.52
3.84030	34.52
3.85697	34.52
3.87363	34.51
3.89030	34.51
3.90697	34.51
3.92363	34.51
3.94030	34.52
3.95697	34.51
3.97363	34.52
3.99030	34.51

[Status Trace (Column Flow)]
Interval(msec)	1000
# of Points	240
Start Time(min)	0.007
End Time(min)	3.990
Intensity Units	
Intensity Multiplier	1
R.Time (min)	Intensity
0.00697	5.49
0.02363	5.21
0.04030	5.36
0.05697	5.61
0.07363	5.68
0.09030	5.50
0.10697	5.49
0.12363	5.49
0.14030	5.49
0.15697	5.49
0.17363	5.49
0.19030	5.49
0.20697	5.49
0.22363	5.49
0.24030	5.49
0.25697	5.49
0.27363	5.49
0.29030	5.49
0.30697	5.49
0.32363	5.49
0.34030	5.49
0.35697	5.49
0.37363	5.49
0.39030	5.49
0.40697	5.49
0.42363	5.49
0.44030	5.49
0.45697	5.49
0.47363	5.49
0.49030	5.49
0.50697	5.49
0.52363	5.49
0.54030	5.49
0.55697	5.49
0.57363	5.49
0.59030	5.49
0.60697	5.49
0.62363	5.49
0.64030	5.49
0.65697	5.49
0.67363	5.49
0.69030	5.49
0.70697	5.49
0.72363	5.49
0.74030	5.49
0.75697	5.49
0.77363	5.49
0.79030	5.49
0.80697	5.49
0.82363	5.49
0.84030	5.49
0.85697	5.49
0.87363	5.49
0.89030	5.49
0.90697	5.49
0.92363	5.49
0.94030	5.49
0.95697	5.49
0.97363	5.49
0.99030	5.49
1.00697	5.49
1.02363	5.49
1.04030	5.49
1.05697	5.49
1.07363	5.49
1.09030	5.49
1.10697	5.49
1.12363	5.49
1.14030	5.49
1.15697	5.49
1.17363	5.49
1.19030	5.49
1.20697	5.49
1.22363	5.49
1.24030	5.49
1.25697	5.49
1.27363	5.49
1.29030	5.49
1.30697	5.49
1.32363	5.49
1.34030	5.49
1.35697	5.49
1.37363	5.49
1.39030	5.49
1.40697	5.49
1.42363	5.49
1.44030	5.49
1.45697	5.49
1.47363	5.49
1.49030	5.49
1.50697	5.49
1.52363	5.49
1.54030	5.49
1.55697	5.49
1.57363	5.49
1.59030	5.49
1.60697	5.49
1.62363	5.49
1.64030	5.48
1.65697	5.47
1.67363	5.46
1.69030	5.45
1.70697	5.44
1.72363	5.43
1.74030	5.42
1.75697	5.41
1.77363	5.40
1.79030	5.39
1.80697	5.38
1.82363	5.37
1.84030	5.36
1.85697	5.35
1.87363	5.34
1.89030	5.33
1.90697	5.32
1.92363	5.31
1.94030	5.30
1.95697	5.29
1.97363	5.28
1.99030	5.27
2.00697	5.26
2.02363	5.25
2.04030	5.24
2.05697	5.23
2.07363	5.22
2.09030	5.21
2.10697	5.20
2.12363	5.19
2.14030	5.18
2.15697	5.18
2.17363	5.17
2.19030	5.16
2.20697	5.15
2.22363	5.14
2.24030	5.13
2.25697	5.12
2.27363	5.11
2.29030	5.10
2.30697	5.09
2.32363	5.08
2.34030	5.07
2.35697	5.07
2.37363	5.06
2.39030	5.06
2.40697	5.06
2.42363	5.06
2.44030	5.06
2.45697	5.06
2.47363	5.06
2.49030	5.06
2.50697	5.05
2.52363	5.05
2.54030	5.05
2.55697	5.05
2.57363	5.05
2.59030	5.05
2.60697	5.05
2.62363	5.05
2.64030	5.05
2.65697	5.05
2.67363	5.05
2.69030	5.05
2.70697	5.05
2.72363	5.05
2.74030	5.05
2.75697	5.05
2.77363	5.05
2.79030	5.05
2.80697	5.05
2.82363	5.05
2.84030	5.05
2.85697	5.05
2.87363	5.05
2.89030	5.05
2.90697	5.05
2.92363	5.05
2.94030	5.05
2.95697	5.05
2.97363	5.05
2.99030	5.05
3.00697	5.05
3.02363	5.05
3.04030	5.05
3.05697	5.05
3.07363	5.05
3.09030	5.05
3.10697	5.05
3.12363	5.05
3.14030	5.05
3.15697	5.05
3.17363	5.05
3.19030	5.05
3.20697	5.05
3.22363	5.05
3.24030	5.05
3.25697	5.05
3.27363	5.05
3.29030	5.05
3.30697	5.05
3.32363	5.05
3.34030	5.05
3.35697	5.05
3.37363	5.05
3.39030	5.05
3.40697	5.05
3.42363	5.05
3.44030	5.05
3.45697	5.05
3.47363	5.05
3.49030	5.05
3.50697	5.05
3.52363	5.05
3.54030	5.05
3.55697	5.05
3.57363	5.05
3.59030	5.05
3.60697	5.05
3.62363	5.05
3.64030	5.05
3.65697	5.05
3.67363	5.05
3.69030	5.05
3.70697	5.05
3.72363	5.05
3.74030	5.05
3.75697	5.05
3.77363	5.05
3.79030	5.05
3.80697	5.05
3.82363	5.05
3.84030	5.05
3.85697	5.05
3.87363	5.05
3.89030	5.05
3.90697	5.05
3.92363	5.05
3.94030	5.05
3.95697	5.05
3.97363	5.05
3.99030	5.05

[Status Trace (Linear Velocity)]
Interval(msec)	1000
# of Points	240
Start Time(min)	0.007
End Time(min)	3.990
Intensity Units	
Intensity Multiplier	1
R.Time (min)	Intensity
0.00697	39.01
0.02363	37.43
0.04030	38.29
0.05697	39.71
0.07363	40.10
0.09030	39.08
0.10697	38.99
0.12363	39.01
0.14030	39.01
0.15697	39.01
0.17363	39.01
0.19030	39.01
0.20697	39.01
0.22363	39.01
0.24030	39.01
0.25697	39.01
0.27363	39.01
0.29030	39.01
0.30697	39.01
0.32363	39.01
0.34030	39.01
0.35697	39.01
0.37363	39.01
0.39030	39.01
0.40697	39.01
0.42363	39.01
0.44030	39.01
0.45697	39.01
0.47363	39.01
0.49030	39.01
0.50697	39.01
0.52363	39.01
0.54030	39.01
0.55697	39.01
0.57363	39.00
0.59030	39.00
0.60697	39.00
0.62363	39.00
0.64030	39.01
0.65697	39.01
0.67363	39.01
0.69030	39.01
0.70697	39.01
0.72363	39.01
0.74030	39.01
0.75697	39.01
0.77363	39.01
0.79030	39.01
0.80697	39.01
0.82363	39.01
0.84030	39.01
0.85697	39.01
0.87363	39.01
0.89030	39.01
0.90697	39.01
0.92363	39.01
0.94030	39.01
0.95697	39.01
0.97363	39.01
0.99030	39.01
1.00697	39.01
1.02363	39.01
1.04030	39.01
1.05697	39.00
1.07363	39.00
1.09030	39.00
1.10697	39.00
1.12363	39.00
1.14030	39.00
1.15697	39.00
1.17363	39.00
1.19030	39.00
1.20697	39.00
1.22363	39.00
1.24030	39.00
1.25697	39.00
1.27363	39.01
1.29030	39.01
1.30697	39.01
1.32363	39.01
1.34030	39.01
1.35697	39.01
1.37363	39.01
1.39030	39.01
1.40697	39.01
1.42363	39.01
1.44030	39.01
1.45697	39.01
1.47363	39.01
1.49030	39.01
1.50697	39.01
1.52363	39.01
1.54030	39.01
1.55697	39.01
1.57363	39.01
1.59030	39.01
1.60697	39.01
1.62363	39.00
1.64030	38.98
1.65697	38.96
1.67363	38.92
1.69030	38.89
1.70697	38.85
1.72363	38.82
1.74030	38.79
1.75697	38.76
1.77363	38.73
1.79030	38.70
1.80697	38.66
1.82363	38.63
1.84030	38.60
1.85697	38.57
1.87363	38.54
1.89030	38.51
1.90697	38.48
1.92363	38.45
1.94030	38.42
1.95697	38.39
1.97363	38.36
1.99030	38.33
2.00697	38.30
2.02363	38.27
2.04030	38.23
2.05697	38.20
2.07363	38.18
2.09030	38.15
2.10697	38.12
2.12363	38.09
2.14030	38.06
2.15697	38.03
2.17363	38.00
2.19030	37.97
2.20697	37.94
2.22363	37.91
2.24030	37.88
2.25697	37.85
2.27363	37.82
2.29030	37.79
2.30697	37.76
2.32363	37.73
2.34030	37.70
2.35697	37.68
2.37363	37.65
2.39030	37.64
2.40697	37.64
2.42363	37.65
2.44030	37.65
2.45697	37.65
2.47363	37.65
2.49030	37.65
2.50697	37.64
2.52363	37.64
2.54030	37.64
2.55697	37.64
2.57363	37.64
2.59030	37.64
2.60697	37.64
2.62363	37.64
2.64030	37.64
2.65697	37.64
2.67363	37.64
2.69030	37.64
2.70697	37.64
2.72363	37.64
2.74030	37.64
2.75697	37.64
2.77363	37.64
2.79030	37.64
2.80697	37.64
2.82363	37.64
2.84030	37.63
2.85697	37.63
2.87363	37.63
2.89030	37.63
2.90697	37.63
2.92363	37.63
2.94030	37.63
2.95697	37.63
2.97363	37.63
2.99030	37.62
3.00697	37.62
3.02363	37.62
3.04030	37.62
3.05697	37.62
3.07363	37.62
3.09030	37.62
3.10697	37.62
3.12363	37.62
3.14030	37.62
3.15697	37.62
3.17363	37.62
3.19030	37.62
3.20697	37.62
3.22363	37.62
3.24030	37.62
3.25697	37.62
3.27363	37.62
3.29030	37.62
3.30697	37.62
3.32363	37.62
3.34030	37.62
3.35697	37.62
3.37363	37.62
3.39030	37.62
3.40697	37.62
3.42363	37.62
3.44030	37.62
3.45697	37.62
3.47363	37.62
3.49030	37.62
3.50697	37.62
3.52363	37.62
3.54030	37.62
3.55697	37.62
3.57363	37.62
3.59030	37.62
3.60697	37.62
3.62363	37.62
3.64030	37.62
3.65697	37.62
3.67363	37.62
3.69030	37.62
3.70697	37.62
3.72363	37.62
3.74030	37.62
3.75697	37.62
3.77363	37.62
3.79030	37.62
3.80697	37.62
3.82363	37.62
3.84030	37.62
3.85697	37.62
3.87363	37.63
3.89030	37.63
3.90697	37.63
3.92363	37.63
3.94030	37.63
3.95697	37.63
3.97363	37.63
3.99030	37.63

