[Header]
Application Name	LabSolutions
Version	5.110
Data File Name	C:\Users\User\Desktop\GC Analyses\Jack\UIC Prairie Sampling\7.9.22\220909_086.gcd
Output Date	9/28/2022
Output Time	11:29:55 AM

[File Information]
Type	Data File
Generated	9/15/2022 2:57:19 PM
Generated by	System Administrator
Modified	9/15/2022 3:02:38 PM
Modified by	System Administrator

[Sample Information]
Operator Name	System Administrator
Acquired	9/15/2022 2:58:37 PM
Sample Type	1:Standard
Level	1
Sample Name	220909_Run
Sample ID	220909_Run
ISTD Amount1	1
ISTD Amount2	1
ISTD Amount3	1
ISTD Amount4	1
ISTD Amount5	1
ISTD Amount6	1
ISTD Amount7	1
ISTD Amount8	1
ISTD Amount9	1
ISTD Amount10	1
ISTD Amount11	1
ISTD Amount12	1
ISTD Amount13	1
ISTD Amount14	1
ISTD Amount15	1
ISTD Amount16	1
ISTD Amount17	1
ISTD Amount18	1
ISTD Amount19	1
ISTD Amount20	1
ISTD Amount21	1
ISTD Amount22	1
ISTD Amount23	1
ISTD Amount24	1
ISTD Amount25	1
ISTD Amount26	1
ISTD Amount27	1
ISTD Amount28	1
ISTD Amount29	1
ISTD Amount30	1
ISTD Amount31	1
ISTD Amount32	1
Sample Amount	1
Dilution Factor	1
Vial#	1
Injection Volume	1
Injection Count	1
Bar Code	

[Original Files]
Data File	C:\Users\User\Desktop\GC Analyses\Jack\220909\220909_086.gcd
Method File	C:\LabSolutions\Data\GHG_4min_2022\ghg3_togas_w_acet_4 min_new_int.gcm
Batch File	
Report Format File	c:\LabSolutions\System\DEFAULT.lsr

[File Description]


[Configuration]
Instrument Name	C0B7VH3-Instrument1
Instrument #	1
Line #	1
# of Detectors	3
Detector ID	DET#1	DET#2	DET#3
Detector Name	FID	PTCD	ECD
# of Channels	1	1	1

[Peak Table(Ch1)]
# of Peaks	3
Peak#	R.Time	I.Time	F.Time	Area	Height	A/H	Conc.	Mark	ID#	Name	k'	Plate #	Plate Ht.	Tailing	Resolution	Sep.Factor	Area Ratio	Height Ratio	Conc. %	Norm Conc.
1	1.476	1.435	1.538	19960	9105	2.192	100.000	   	1	CO	0.000	8471	17.708	1.170	0.000	0.000	0	0	16.667	16.667
2	1.567	1.538	1.619	4586	2377	1.929	100.000	 V 	2	CH4	0.062	11806	12.706	1.235	1.505	0.000	0	0	16.667	16.667
3	1.996	1.949	2.235	1345716	663375	2.029	400.000	   	3	CO2	0.353	17722	8.464	1.233	7.291	5.680	0	0	66.667	66.667

[Peak Table(Ch2)]
# of Peaks	0

[Peak Table(Ch3)]
# of Peaks	2
Peak#	R.Time	I.Time	F.Time	Area	Height	A/H	Conc.	Mark	ID#	Name	k'	Plate #	Plate Ht.	Tailing	Resolution	Sep.Factor	Area Ratio	Height Ratio	Conc. %	Norm Conc.
1	2.572	1.670	2.656	10931	807	13.544	0.000	   			0.000	1718	87.315	0.000	0.000	0.000	0	0	0.000	0.000
2	2.880	2.656	3.929	45656	5612	8.136	1.000	 V 	1	N2O	0.120	10736	13.972	0.000	1.714	0.000	0	0	100.000	100.000

[Compound Results(Ch1)]
# of IDs	6
ID#	Name	R.Time	Area	Height	Conc.	Curve	3rd	2nd	1st	Constant	Area Ratio	Height Ratio	Conc. %	Norm Conc.
1	CO	1.476	19960	9105	100.000	Linear	0.000000e+00	0.000000e+00	1.995955e+002	0.000000e+00	0	0	16.667	16.667
2	CH4	1.567	4586	2377	100.000	Linear	0.000000e+00	0.000000e+00	4.585968e+001	0.000000e+00	0	0	16.667	16.667
3	CO2	1.996	1345716	663375	400.000	Linear	0.000000e+00	0.000000e+00	3.364291e+003	0.000000e+00	0	0	66.667	66.667
4	Ethylene	0.000	0	0	0.000	Linear	0.000000e+00	0.000000e+00	0.000000e+00	0.000000e+00	0	0	0.000	0.000
5	Acetylene	0.000	0	0	0.000	Linear	0.000000e+00	0.000000e+00	0.000000e+00	0.000000e+00	0	0	0.000	0.000
6	Ethane	0.000	0	0	0.000	Linear	0.000000e+00	0.000000e+00	0.000000e+00	0.000000e+00	0	0	0.000	0.000

[Compound Results(Ch2)]
# of IDs	5
ID#	Name	R.Time	Area	Height	Conc.	Curve	3rd	2nd	1st	Constant	Area Ratio	Height Ratio	Conc. %	Norm Conc.
1	Hydrogen	0.000	0	0	0.000	Linear	0.000000e+00	0.000000e+00	0.000000e+00	0.000000e+00	0	0	0.000	0.000
2	Oxygen	0.000	0	0	0.000	Linear	0.000000e+00	0.000000e+00	0.000000e+00	0.000000e+00	0	0	0.000	0.000
3	Nitrogen	0.000	0	0	0.000	Linear	0.000000e+00	0.000000e+00	0.000000e+00	0.000000e+00	0	0	0.000	0.000
4	Methane	0.000	0	0	0.000	Linear	0.000000e+00	0.000000e+00	0.000000e+00	0.000000e+00	0	0	0.000	0.000
5	Carbon Monoxide	0.000	0	0	0.000	Linear	0.000000e+00	0.000000e+00	0.000000e+00	0.000000e+00	0	0	0.000	0.000

[Compound Results(Ch3)]
# of IDs	2
ID#	Name	R.Time	Area	Height	Conc.	Curve	3rd	2nd	1st	Constant	Area Ratio	Height Ratio	Conc. %	Norm Conc.
1	N2O	2.880	45656	5612	1.000	Linear	0.000000e+00	0.000000e+00	4.565583e+004	0.000000e+00	0	0	100.000	100.000
2	SF6	0.000	0	0	0.000	Linear	0.000000e+00	0.000000e+00	0.000000e+00	0.000000e+00	0	0	0.000	0.000

[Group Results(Ch1)]
# of Groups	0

[Group Results(Ch2)]
# of Groups	0

[Group Results(Ch3)]
# of Groups	0

[Chromatogram (Ch1)]
Interval(msec)	220
# of Points	1091
Start Time(min)	0.002
End Time(min)	3.998
R.Time (min)	Intensity
0.00167	11
0.00533	13
0.00900	9
0.01267	1
0.01633	-9
0.02000	-12
0.02367	-6
0.02733	2
0.03100	4
0.03467	-1
0.03833	-5
0.04200	-6
0.04567	-4
0.04933	-1
0.05300	-1
0.05667	-4
0.06033	-2
0.06400	5
0.06767	14
0.07133	22
0.07500	29
0.07867	31
0.08233	28
0.08600	23
0.08967	18
0.09333	14
0.09700	10
0.10067	7
0.10433	7
0.10800	8
0.11167	7
0.11533	-0
0.11900	-6
0.12267	-5
0.12633	1
0.13000	5
0.13367	4
0.13733	-4
0.14100	-15
0.14467	-23
0.14833	-31
0.15200	-37
0.15567	-39
0.15933	-38
0.16300	-39
0.16667	-44
0.17033	-47
0.17400	-45
0.17767	-40
0.18133	-35
0.18500	-30
0.18867	-23
0.19233	-15
0.19600	-9
0.19967	-8
0.20333	-9
0.20700	-13
0.21067	-18
0.21433	-20
0.21800	-19
0.22167	-18
0.22533	-16
0.22900	-15
0.23267	-17
0.23633	-21
0.24000	-27
0.24367	-30
0.24733	-27
0.25100	-22
0.25467	-18
0.25833	-17
0.26200	-14
0.26567	-12
0.26933	-9
0.27300	-8
0.27667	-9
0.28033	-10
0.28400	-10
0.28767	-10
0.29133	-10
0.29500	-10
0.29867	-12
0.30233	-14
0.30600	-17
0.30967	-19
0.31333	-18
0.31700	-19
0.32067	-21
0.32433	-22
0.32800	-23
0.33167	-24
0.33533	-24
0.33900	-21
0.34267	-19
0.34633	-15
0.35000	-11
0.35367	-8
0.35733	-8
0.36100	-11
0.36467	-10
0.36833	-5
0.37200	-1
0.37567	1
0.37933	3
0.38300	4
0.38667	-3
0.39033	-13
0.39400	-23
0.39767	-28
0.40133	-27
0.40500	-24
0.40867	-19
0.41233	-15
0.41600	-12
0.41967	-8
0.42333	-3
0.42700	2
0.43067	5
0.43433	4
0.43800	0
0.44167	-4
0.44533	-2
0.44900	3
0.45267	4
0.45633	-2
0.46000	-9
0.46367	-18
0.46733	-27
0.47100	-38
0.47467	-46
0.47833	-50
0.48200	-46
0.48567	-39
0.48933	-34
0.49300	-35
0.49667	-37
0.50033	-41
0.50400	-42
0.50767	-43
0.51133	-46
0.51500	-54
0.51867	-62
0.52233	-66
0.52600	-65
0.52967	-59
0.53333	-50
0.53700	-37
0.54067	-27
0.54433	-26
0.54800	-32
0.55167	-41
0.55533	-48
0.55900	-50
0.56267	-51
0.56633	-52
0.57000	-51
0.57367	-49
0.57733	-44
0.58100	-40
0.58467	-37
0.58833	-30
0.59200	-21
0.59567	-12
0.59933	-8
0.60300	-7
0.60667	-10
0.61033	-12
0.61400	-15
0.61767	-17
0.62133	-19
0.62500	-24
0.62867	-30
0.63233	-35
0.63600	-39
0.63967	-39
0.64333	-38
0.64700	-36
0.65067	-35
0.65433	-36
0.65800	-41
0.66167	-43
0.66533	-44
0.66900	-43
0.67267	-39
0.67633	-34
0.68000	-30
0.68367	-30
0.68733	-31
0.69100	-29
0.69467	-26
0.69833	-21
0.70200	-16
0.70567	-13
0.70933	-13
0.71300	-12
0.71667	-8
0.72033	-6
0.72400	-13
0.72767	-27
0.73133	-43
0.73500	-57
0.73867	-66
0.74233	-66
0.74600	-59
0.74967	-47
0.75333	-38
0.75700	-34
0.76067	-29
0.76433	-25
0.76800	-23
0.77167	-25
0.77533	-30
0.77900	-34
0.78267	-37
0.78633	-40
0.79000	-40
0.79367	-38
0.79733	-35
0.80100	-30
0.80467	-21
0.80833	-14
0.81200	-15
0.81567	-19
0.81933	-24
0.82300	-30
0.82667	-36
0.83033	-41
0.83400	-45
0.83767	-51
0.84133	-55
0.84500	-52
0.84867	-45
0.85233	-36
0.85600	-28
0.85967	-22
0.86333	-20
0.86700	-20
0.87067	-21
0.87433	-20
0.87800	-21
0.88167	-23
0.88533	-24
0.88900	-28
0.89267	-32
0.89633	-36
0.90000	-38
0.90367	-39
0.90733	-38
0.91100	-34
0.91467	-31
0.91833	-26
0.92200	-23
0.92567	-28
0.92933	-36
0.93300	-43
0.93667	-48
0.94033	-47
0.94400	-44
0.94767	-42
0.95133	-41
0.95500	-38
0.95867	-35
0.96233	-38
0.96600	-42
0.96967	-46
0.97333	-49
0.97700	-52
0.98067	-55
0.98433	-53
0.98800	-45
0.99167	-36
0.99533	-31
0.99900	-34
1.00267	-45
1.00633	-53
1.01000	-60
1.01367	-60
1.01733	-57
1.02100	-54
1.02467	-53
1.02833	-52
1.03200	-55
1.03567	-63
1.03933	-70
1.04300	-73
1.04667	-72
1.05033	-68
1.05400	-62
1.05767	-55
1.06133	-50
1.06500	-47
1.06867	-46
1.07233	-47
1.07600	-48
1.07967	-50
1.08333	-49
1.08700	-46
1.09067	-43
1.09433	-43
1.09800	-46
1.10167	-51
1.10533	-56
1.10900	-58
1.11267	-59
1.11633	-61
1.12000	-63
1.12367	-61
1.12733	-59
1.13100	-55
1.13467	-49
1.13833	-46
1.14200	-48
1.14567	-49
1.14933	-48
1.15300	-47
1.15667	-49
1.16033	-51
1.16400	-54
1.16767	-55
1.17133	-57
1.17500	-60
1.17867	-62
1.18233	-62
1.18600	-63
1.18967	-64
1.19333	-65
1.19700	-67
1.20067	-72
1.20433	-74
1.20800	-74
1.21167	-74
1.21533	-75
1.21900	-71
1.22267	-63
1.22633	-54
1.23000	-49
1.23367	-51
1.23733	-56
1.24100	-62
1.24467	-64
1.24833	-63
1.25200	-62
1.25567	-65
1.25933	-74
1.26300	-82
1.26667	-86
1.27033	-83
1.27400	-76
1.27767	-66
1.28133	-59
1.28500	-56
1.28867	-54
1.29233	-53
1.29600	-53
1.29967	-55
1.30333	-58
1.30700	-65
1.31067	-72
1.31433	-76
1.31800	-78
1.32167	-78
1.32533	-78
1.32900	-75
1.33267	-69
1.33633	-64
1.34000	-64
1.34367	-67
1.34733	-69
1.35100	-71
1.35467	-72
1.35833	-71
1.36200	-70
1.36567	-71
1.36933	-72
1.37300	-70
1.37667	-68
1.38033	-66
1.38400	-65
1.38767	-64
1.39133	-65
1.39500	-70
1.39867	-75
1.40233	-81
1.40600	-80
1.40967	-75
1.41333	-74
1.41700	-75
1.42067	-78
1.42433	-81
1.42800	-82
1.43167	-79
1.43533	-68
1.43900	-27
1.44267	138
1.44633	564
1.45000	1338
1.45367	2535
1.45733	4098
1.46100	5751
1.46467	7203
1.46833	8283
1.47200	8910
1.47567	9031
1.47933	8621
1.48300	7729
1.48667	6510
1.49033	5182
1.49400	3937
1.49767	2889
1.50133	2066
1.50500	1446
1.50867	989
1.51233	658
1.51600	420
1.51967	251
1.52333	133
1.52700	49
1.53067	-9
1.53433	-47
1.53800	-58
1.54167	-4
1.54533	173
1.54900	512
1.55267	963
1.55633	1428
1.56000	1829
1.56367	2126
1.56733	2288
1.57100	2277
1.57467	2077
1.57833	1735
1.58200	1336
1.58567	960
1.58933	645
1.59300	402
1.59667	225
1.60033	102
1.60400	23
1.60767	-28
1.61133	-61
1.61500	-83
1.61867	-97
1.62233	-105
1.62600	-107
1.62967	-107
1.63333	-107
1.63700	-108
1.64067	-113
1.64433	-118
1.64800	-120
1.65167	-119
1.65533	-115
1.65900	-114
1.66267	-115
1.66633	-119
1.67000	-123
1.67367	-129
1.67733	-135
1.68100	-142
1.68467	-146
1.68833	-147
1.69200	-144
1.69567	-139
1.69933	-135
1.70300	-134
1.70667	-132
1.71033	-130
1.71400	-129
1.71767	-125
1.72133	-121
1.72500	-117
1.72867	-114
1.73233	-109
1.73600	-103
1.73967	-101
1.74333	-102
1.74700	-101
1.75067	-100
1.75433	-98
1.75800	-96
1.76167	-92
1.76533	-90
1.76900	-90
1.77267	-94
1.77633	-101
1.78000	-109
1.78367	-114
1.78733	-115
1.79100	-116
1.79467	-118
1.79833	-116
1.80200	-110
1.80567	-102
1.80933	-94
1.81300	-89
1.81667	-89
1.82033	-96
1.82400	-104
1.82767	-109
1.83133	-112
1.83500	-112
1.83867	-113
1.84233	-117
1.84600	-123
1.84967	-126
1.85333	-124
1.85700	-119
1.86067	-116
1.86433	-112
1.86800	-106
1.87167	-99
1.87533	-93
1.87900	-90
1.88267	-90
1.88633	-92
1.89000	-94
1.89367	-95
1.89733	-97
1.90100	-98
1.90467	-101
1.90833	-106
1.91200	-110
1.91567	-111
1.91933	-108
1.92300	-105
1.92667	-102
1.93033	-99
1.93400	-98
1.93767	-96
1.94133	-90
1.94500	-86
1.94867	-83
1.95233	-63
1.95600	79
1.95967	893
1.96333	4444
1.96700	16238
1.97067	46404
1.97433	106514
1.97800	201103
1.98167	321352
1.98533	447471
1.98900	557295
1.99267	632937
1.99633	663326
2.00000	645163
2.00367	584061
2.00733	493927
2.01100	392658
2.01467	296087
2.01833	214032
2.02200	149935
2.02567	102822
2.02933	69645
2.03300	46963
2.03667	31749
2.04033	21656
2.04400	14988
2.04767	10576
2.05133	7635
2.05500	5656
2.05867	4304
2.06233	3364
2.06600	2697
2.06967	2214
2.07333	1852
2.07700	1569
2.08067	1345
2.08433	1168
2.08800	1029
2.09167	916
2.09533	827
2.09900	758
2.10267	697
2.10633	640
2.11000	588
2.11367	541
2.11733	502
2.12100	469
2.12467	441
2.12833	415
2.13200	393
2.13567	372
2.13933	354
2.14300	340
2.14667	326
2.15033	312
2.15400	297
2.15767	276
2.16133	256
2.16500	242
2.16867	231
2.17233	221
2.17600	210
2.17967	200
2.18333	198
2.18700	199
2.19067	202
2.19433	203
2.19800	199
2.20167	192
2.20533	182
2.20900	173
2.21267	168
2.21633	163
2.22000	154
2.22367	145
2.22733	137
2.23100	128
2.23467	121
2.23833	113
2.24200	110
2.24567	114
2.24933	125
2.25300	135
2.25667	143
2.26033	144
2.26400	136
2.26767	124
2.27133	110
2.27500	97
2.27867	88
2.28233	82
2.28600	74
2.28967	69
2.29333	73
2.29700	78
2.30067	83
2.30433	87
2.30800	87
2.31167	82
2.31533	77
2.31900	74
2.32267	77
2.32633	81
2.33000	82
2.33367	80
2.33733	73
2.34100	66
2.34467	63
2.34833	63
2.35200	64
2.35567	65
2.35933	64
2.36300	66
2.36667	66
2.37033	65
2.37400	63
2.37767	57
2.38133	51
2.38500	46
2.38867	43
2.39233	43
2.39600	48
2.39967	52
2.40333	54
2.40700	58
2.41067	61
2.41433	63
2.41800	64
2.42167	61
2.42533	58
2.42900	55
2.43267	54
2.43633	57
2.44000	62
2.44367	68
2.44733	71
2.45100	66
2.45467	59
2.45833	52
2.46200	47
2.46567	42
2.46933	38
2.47300	37
2.47667	39
2.48033	39
2.48400	38
2.48767	40
2.49133	46
2.49500	55
2.49867	60
2.50233	57
2.50600	51
2.50967	44
2.51333	38
2.51700	35
2.52067	36
2.52433	43
2.52800	50
2.53167	53
2.53533	51
2.53900	49
2.54267	45
2.54633	38
2.55000	31
2.55367	26
2.55733	22
2.56100	19
2.56467	17
2.56833	16
2.57200	16
2.57567	18
2.57933	19
2.58300	20
2.58667	17
2.59033	15
2.59400	16
2.59767	21
2.60133	22
2.60500	18
2.60867	16
2.61233	14
2.61600	14
2.61967	17
2.62333	20
2.62700	21
2.63067	19
2.63433	16
2.63800	12
2.64167	12
2.64533	12
2.64900	10
2.65267	8
2.65633	9
2.66000	12
2.66367	15
2.66733	16
2.67100	15
2.67467	15
2.67833	14
2.68200	11
2.68567	10
2.68933	9
2.69300	5
2.69667	2
2.70033	2
2.70400	4
2.70767	7
2.71133	8
2.71500	9
2.71867	9
2.72233	12
2.72600	16
2.72967	21
2.73333	24
2.73700	29
2.74067	33
2.74433	35
2.74800	28
2.75167	16
2.75533	2
2.75900	-8
2.76267	-12
2.76633	-9
2.77000	3
2.77367	17
2.77733	25
2.78100	23
2.78467	14
2.78833	4
2.79200	-3
2.79567	-3
2.79933	2
2.80300	7
2.80667	9
2.81033	8
2.81400	6
2.81767	6
2.82133	6
2.82500	6
2.82867	5
2.83233	1
2.83600	-2
2.83967	-3
2.84333	-1
2.84700	1
2.85067	2
2.85433	2
2.85800	2
2.86167	3
2.86533	4
2.86900	8
2.87267	11
2.87633	10
2.88000	5
2.88367	2
2.88733	-0
2.89100	0
2.89467	5
2.89833	7
2.90200	5
2.90567	-1
2.90933	-9
2.91300	-16
2.91667	-20
2.92033	-23
2.92400	-23
2.92767	-18
2.93133	-12
2.93500	-7
2.93867	-4
2.94233	-3
2.94600	-3
2.94967	-2
2.95333	0
2.95700	2
2.96067	3
2.96433	6
2.96800	9
2.97167	8
2.97533	4
2.97900	5
2.98267	10
2.98633	16
2.99000	24
2.99367	36
2.99733	45
3.00100	49
3.00467	47
3.00833	39
3.01200	29
3.01567	20
3.01933	14
3.02300	11
3.02667	9
3.03033	11
3.03400	13
3.03767	10
3.04133	5
3.04500	-0
3.04867	-2
3.05233	1
3.05600	9
3.05967	17
3.06333	21
3.06700	18
3.07067	13
3.07433	8
3.07800	6
3.08167	1
3.08533	-5
3.08900	-10
3.09267	-11
3.09633	-7
3.10000	-1
3.10367	6
3.10733	12
3.11100	15
3.11467	16
3.11833	14
3.12200	10
3.12567	9
3.12933	11
3.13300	11
3.13667	10
3.14033	7
3.14400	2
3.14767	-2
3.15133	-3
3.15500	-4
3.15867	-3
3.16233	-0
3.16600	4
3.16967	8
3.17333	12
3.17700	17
3.18067	21
3.18433	24
3.18800	23
3.19167	18
3.19533	11
3.19900	3
3.20267	-2
3.20633	-5
3.21000	-5
3.21367	-5
3.21733	-7
3.22100	-11
3.22467	-15
3.22833	-14
3.23200	-11
3.23567	-6
3.23933	1
3.24300	5
3.24667	7
3.25033	10
3.25400	12
3.25767	13
3.26133	12
3.26500	10
3.26867	4
3.27233	-4
3.27600	-9
3.27967	-11
3.28333	-11
3.28700	-8
3.29067	1
3.29433	10
3.29800	10
3.30167	9
3.30533	10
3.30900	10
3.31267	11
3.31633	10
3.32000	8
3.32367	6
3.32733	5
3.33100	9
3.33467	11
3.33833	9
3.34200	6
3.34567	4
3.34933	6
3.35300	9
3.35667	10
3.36033	6
3.36400	1
3.36767	-1
3.37133	-2
3.37500	-3
3.37867	-6
3.38233	-7
3.38600	-7
3.38967	-6
3.39333	-9
3.39700	-12
3.40067	-16
3.40433	-24
3.40800	-31
3.41167	-35
3.41533	-36
3.41900	-34
3.42267	-29
3.42633	-24
3.43000	-21
3.43367	-20
3.43733	-17
3.44100	-13
3.44467	-9
3.44833	-9
3.45200	-11
3.45567	-14
3.45933	-19
3.46300	-24
3.46667	-28
3.47033	-31
3.47400	-30
3.47767	-25
3.48133	-19
3.48500	-14
3.48867	-11
3.49233	-8
3.49600	-7
3.49967	-11
3.50333	-16
3.50700	-21
3.51067	-25
3.51433	-22
3.51800	-15
3.52167	-5
3.52533	1
3.52900	3
3.53267	1
3.53633	0
3.54000	4
3.54367	7
3.54733	5
3.55100	-2
3.55467	-17
3.55833	-35
3.56200	-48
3.56567	-51
3.56933	-45
3.57300	-39
3.57667	-34
3.58033	-28
3.58400	-19
3.58767	-10
3.59133	-6
3.59500	-5
3.59867	-9
3.60233	-11
3.60600	-14
3.60967	-19
3.61333	-23
3.61700	-24
3.62067	-23
3.62433	-22
3.62800	-18
3.63167	-10
3.63533	0
3.63900	8
3.64267	10
3.64633	8
3.65000	4
3.65367	-3
3.65733	-8
3.66100	-10
3.66467	-9
3.66833	-6
3.67200	-3
3.67567	1
3.67933	3
3.68300	2
3.68667	1
3.69033	-3
3.69400	-8
3.69767	-13
3.70133	-14
3.70500	-15
3.70867	-17
3.71233	-17
3.71600	-10
3.71967	1
3.72333	9
3.72700	11
3.73067	10
3.73433	7
3.73800	4
3.74167	-1
3.74533	-6
3.74900	-13
3.75267	-19
3.75633	-22
3.76000	-24
3.76367	-27
3.76733	-27
3.77100	-25
3.77467	-21
3.77833	-15
3.78200	-9
3.78567	-6
3.78933	-5
3.79300	-5
3.79667	-7
3.80033	-8
3.80400	-11
3.80767	-14
3.81133	-15
3.81500	-16
3.81867	-18
3.82233	-23
3.82600	-26
3.82967	-26
3.83333	-23
3.83700	-22
3.84067	-22
3.84433	-23
3.84800	-24
3.85167	-21
3.85533	-14
3.85900	-8
3.86267	-5
3.86633	-7
3.87000	-14
3.87367	-21
3.87733	-25
3.88100	-28
3.88467	-28
3.88833	-27
3.89200	-25
3.89567	-23
3.89933	-19
3.90300	-17
3.90667	-16
3.91033	-15
3.91400	-17
3.91767	-20
3.92133	-22
3.92500	-22
3.92867	-21
3.93233	-16
3.93600	-11
3.93967	-12
3.94333	-19
3.94700	-25
3.95067	-29
3.95433	-31
3.95800	-33
3.96167	-35
3.96533	-37
3.96900	-40
3.97267	-40
3.97633	-40
3.98000	-35
3.98367	-29
3.98733	-26
3.99100	-22
3.99467	-17
3.99833	-10

[Chromatogram (Ch2)]
Interval(msec)	220
# of Points	1091
Start Time(min)	0.002
End Time(min)	3.998
R.Time (min)	Intensity
0.00167	0
0.00533	0
0.00900	1
0.01267	1
0.01633	0
0.02000	0
0.02367	0
0.02733	0
0.03100	0
0.03467	1
0.03833	0
0.04200	0
0.04567	0
0.04933	0
0.05300	0
0.05667	0
0.06033	0
0.06400	0
0.06767	0
0.07133	0
0.07500	0
0.07867	0
0.08233	0
0.08600	0
0.08967	0
0.09333	0
0.09700	1
0.10067	1
0.10433	1
0.10800	1
0.11167	0
0.11533	0
0.11900	0
0.12267	-0
0.12633	-0
0.13000	-1
0.13367	-1
0.13733	-1
0.14100	-1
0.14467	-1
0.14833	-2
0.15200	-2
0.15567	-3
0.15933	-3
0.16300	-4
0.16667	-4
0.17033	-4
0.17400	-4
0.17767	-4
0.18133	-4
0.18500	-4
0.18867	-4
0.19233	-3
0.19600	-3
0.19967	-3
0.20333	-2
0.20700	-2
0.21067	-2
0.21433	-2
0.21800	-1
0.22167	-1
0.22533	-0
0.22900	0
0.23267	1
0.23633	1
0.24000	1
0.24367	2
0.24733	2
0.25100	2
0.25467	2
0.25833	2
0.26200	2
0.26567	2
0.26933	2
0.27300	2
0.27667	1
0.28033	1
0.28400	1
0.28767	0
0.29133	0
0.29500	0
0.29867	-0
0.30233	-0
0.30600	-1
0.30967	-1
0.31333	-1
0.31700	-1
0.32067	-1
0.32433	-1
0.32800	-1
0.33167	-1
0.33533	-1
0.33900	-1
0.34267	-1
0.34633	-1
0.35000	-1
0.35367	-1
0.35733	-1
0.36100	-1
0.36467	0
0.36833	1
0.37200	1
0.37567	2
0.37933	2
0.38300	3
0.38667	4
0.39033	4
0.39400	5
0.39767	5
0.40133	5
0.40500	5
0.40867	5
0.41233	5
0.41600	5
0.41967	5
0.42333	5
0.42700	5
0.43067	5
0.43433	5
0.43800	5
0.44167	4
0.44533	4
0.44900	4
0.45267	4
0.45633	3
0.46000	3
0.46367	3
0.46733	3
0.47100	3
0.47467	2
0.47833	2
0.48200	2
0.48567	1
0.48933	1
0.49300	1
0.49667	0
0.50033	-0
0.50400	-1
0.50767	-1
0.51133	-2
0.51500	-2
0.51867	-3
0.52233	-3
0.52600	-4
0.52967	-4
0.53333	-4
0.53700	-4
0.54067	-4
0.54433	-4
0.54800	-4
0.55167	-4
0.55533	-3
0.55900	-3
0.56267	-2
0.56633	-2
0.57000	-1
0.57367	-0
0.57733	0
0.58100	1
0.58467	1
0.58833	1
0.59200	2
0.59567	2
0.59933	2
0.60300	2
0.60667	2
0.61033	2
0.61400	2
0.61767	2
0.62133	2
0.62500	2
0.62867	2
0.63233	2
0.63600	2
0.63967	2
0.64333	2
0.64700	2
0.65067	2
0.65433	2
0.65800	1
0.66167	1
0.66533	1
0.66900	0
0.67267	0
0.67633	-0
0.68000	-0
0.68367	-1
0.68733	-1
0.69100	-1
0.69467	-1
0.69833	-2
0.70200	-2
0.70567	-2
0.70933	-2
0.71300	-2
0.71667	-2
0.72033	-1
0.72400	-1
0.72767	-1
0.73133	-1
0.73500	-0
0.73867	-0
0.74233	0
0.74600	0
0.74967	1
0.75333	1
0.75700	1
0.76067	1
0.76433	1
0.76800	1
0.77167	1
0.77533	1
0.77900	1
0.78267	1
0.78633	1
0.79000	1
0.79367	1
0.79733	2
0.80100	2
0.80467	2
0.80833	2
0.81200	2
0.81567	2
0.81933	2
0.82300	2
0.82667	1
0.83033	1
0.83400	1
0.83767	1
0.84133	0
0.84500	-0
0.84867	-0
0.85233	-1
0.85600	-1
0.85967	-1
0.86333	-1
0.86700	-1
0.87067	-1
0.87433	-1
0.87800	-1
0.88167	-2
0.88533	-2
0.88900	-2
0.89267	-2
0.89633	-2
0.90000	-2
0.90367	-2
0.90733	-2
0.91100	-2
0.91467	-2
0.91833	-2
0.92200	-2
0.92567	-1
0.92933	-1
0.93300	-1
0.93667	-1
0.94033	-1
0.94400	-0
0.94767	-0
0.95133	-0
0.95500	-0
0.95867	0
0.96233	0
0.96600	0
0.96967	1
0.97333	1
0.97700	1
0.98067	1
0.98433	1
0.98800	1
0.99167	1
0.99533	1
0.99900	1
1.00267	1
1.00633	1
1.01000	0
1.01367	-0
1.01733	-0
1.02100	-1
1.02467	-1
1.02833	-1
1.03200	-1
1.03567	-1
1.03933	-1
1.04300	-2
1.04667	-2
1.05033	-2
1.05400	-2
1.05767	-1
1.06133	-1
1.06500	-1
1.06867	-0
1.07233	-0
1.07600	0
1.07967	0
1.08333	-0
1.08700	-0
1.09067	-0
1.09433	-1
1.09800	-1
1.10167	-2
1.10533	-2
1.10900	-3
1.11267	-3
1.11633	-3
1.12000	-3
1.12367	-3
1.12733	-3
1.13100	-3
1.13467	-3
1.13833	-3
1.14200	-3
1.14567	-3
1.14933	-4
1.15300	-4
1.15667	-4
1.16033	-4
1.16400	-4
1.16767	-4
1.17133	-3
1.17500	-3
1.17867	-2
1.18233	-1
1.18600	-1
1.18967	-0
1.19333	0
1.19700	1
1.20067	1
1.20433	2
1.20800	2
1.21167	2
1.21533	2
1.21900	2
1.22267	2
1.22633	1
1.23000	1
1.23367	1
1.23733	1
1.24100	1
1.24467	0
1.24833	0
1.25200	0
1.25567	0
1.25933	-0
1.26300	-0
1.26667	-0
1.27033	-0
1.27400	-1
1.27767	-1
1.28133	-2
1.28500	-2
1.28867	-3
1.29233	-3
1.29600	-4
1.29967	-4
1.30333	-4
1.30700	-4
1.31067	-4
1.31433	-4
1.31800	-4
1.32167	-4
1.32533	-4
1.32900	-4
1.33267	-4
1.33633	-4
1.34000	-4
1.34367	-4
1.34733	-4
1.35100	-4
1.35467	-4
1.35833	-4
1.36200	-4
1.36567	-4
1.36933	-4
1.37300	-4
1.37667	-5
1.38033	-5
1.38400	-5
1.38767	-6
1.39133	-6
1.39500	-5
1.39867	-5
1.40233	-4
1.40600	-4
1.40967	-4
1.41333	-3
1.41700	-3
1.42067	-2
1.42433	-2
1.42800	-2
1.43167	-1
1.43533	-1
1.43900	-1
1.44267	-1
1.44633	-1
1.45000	-1
1.45367	-1
1.45733	-1
1.46100	-2
1.46467	-3
1.46833	-3
1.47200	-3
1.47567	-3
1.47933	-3
1.48300	-3
1.48667	-3
1.49033	-3
1.49400	-2
1.49767	-2
1.50133	-2
1.50500	-1
1.50867	-1
1.51233	-1
1.51600	-1
1.51967	-1
1.52333	-1
1.52700	-1
1.53067	-0
1.53433	0
1.53800	0
1.54167	1
1.54533	1
1.54900	1
1.55267	1
1.55633	1
1.56000	1
1.56367	1
1.56733	1
1.57100	1
1.57467	1
1.57833	0
1.58200	-0
1.58567	-1
1.58933	-1
1.59300	-2
1.59667	-3
1.60033	-4
1.60400	-5
1.60767	-7
1.61133	-9
1.61500	-11
1.61867	-13
1.62233	-15
1.62600	-18
1.62967	-21
1.63333	-25
1.63700	-28
1.64067	-32
1.64433	-36
1.64800	-39
1.65167	-43
1.65533	-46
1.65900	-49
1.66267	-52
1.66633	-56
1.67000	-60
1.67367	-64
1.67733	-68
1.68100	-73
1.68467	-78
1.68833	-83
1.69200	-87
1.69567	-91
1.69933	-95
1.70300	-98
1.70667	-101
1.71033	-104
1.71400	-105
1.71767	-107
1.72133	-108
1.72500	-109
1.72867	-110
1.73233	-111
1.73600	-112
1.73967	-113
1.74333	-114
1.74700	-115
1.75067	-115
1.75433	-116
1.75800	-117
1.76167	-117
1.76533	-118
1.76900	-118
1.77267	-119
1.77633	-120
1.78000	-120
1.78367	-121
1.78733	-121
1.79100	-121
1.79467	-121
1.79833	-121
1.80200	-121
1.80567	-122
1.80933	-122
1.81300	-122
1.81667	-123
1.82033	-123
1.82400	-123
1.82767	-123
1.83133	-123
1.83500	-123
1.83867	-123
1.84233	-123
1.84600	-123
1.84967	-123
1.85333	-123
1.85700	-123
1.86067	-123
1.86433	-123
1.86800	-124
1.87167	-124
1.87533	-123
1.87900	-123
1.88267	-122
1.88633	-122
1.89000	-122
1.89367	-121
1.89733	-121
1.90100	-120
1.90467	-120
1.90833	-120
1.91200	-119
1.91567	-119
1.91933	-120
1.92300	-120
1.92667	-120
1.93033	-120
1.93400	-120
1.93767	-120
1.94133	-120
1.94500	-120
1.94867	-120
1.95233	-120
1.95600	-120
1.95967	-120
1.96333	-120
1.96700	-119
1.97067	-118
1.97433	-118
1.97800	-117
1.98167	-116
1.98533	-116
1.98900	-115
1.99267	-114
1.99633	-114
2.00000	-113
2.00367	-113
2.00733	-114
2.01100	-114
2.01467	-114
2.01833	-113
2.02200	-113
2.02567	-112
2.02933	-112
2.03300	-112
2.03667	-112
2.04033	-112
2.04400	-112
2.04767	-112
2.05133	-112
2.05500	-111
2.05867	-111
2.06233	-111
2.06600	-110
2.06967	-110
2.07333	-110
2.07700	-110
2.08067	-110
2.08433	-110
2.08800	-110
2.09167	-110
2.09533	-110
2.09900	-109
2.10267	-108
2.10633	-108
2.11000	-107
2.11367	-106
2.11733	-105
2.12100	-104
2.12467	-103
2.12833	-103
2.13200	-103
2.13567	-103
2.13933	-103
2.14300	-103
2.14667	-103
2.15033	-102
2.15400	-101
2.15767	-101
2.16133	-100
2.16500	-100
2.16867	-100
2.17233	-99
2.17600	-99
2.17967	-99
2.18333	-99
2.18700	-99
2.19067	-99
2.19433	-99
2.19800	-99
2.20167	-99
2.20533	-99
2.20900	-100
2.21267	-100
2.21633	-100
2.22000	-100
2.22367	-100
2.22733	-99
2.23100	-99
2.23467	-99
2.23833	-98
2.24200	-98
2.24567	-98
2.24933	-97
2.25300	-96
2.25667	-95
2.26033	-95
2.26400	-95
2.26767	-95
2.27133	-95
2.27500	-95
2.27867	-95
2.28233	-94
2.28600	-94
2.28967	-93
2.29333	-92
2.29700	-92
2.30067	-92
2.30433	-92
2.30800	-92
2.31167	-92
2.31533	-92
2.31900	-92
2.32267	-92
2.32633	-91
2.33000	-91
2.33367	-90
2.33733	-89
2.34100	-88
2.34467	-87
2.34833	-86
2.35200	-86
2.35567	-85
2.35933	-85
2.36300	-84
2.36667	-84
2.37033	-83
2.37400	-82
2.37767	-80
2.38133	-77
2.38500	-74
2.38867	-71
2.39233	-67
2.39600	-62
2.39967	-58
2.40333	-53
2.40700	-48
2.41067	-43
2.41433	-38
2.41800	-34
2.42167	-30
2.42533	-26
2.42900	-23
2.43267	-20
2.43633	-18
2.44000	-15
2.44367	-13
2.44733	-12
2.45100	-10
2.45467	-8
2.45833	-6
2.46200	-4
2.46567	-3
2.46933	-1
2.47300	0
2.47667	2
2.48033	3
2.48400	4
2.48767	5
2.49133	6
2.49500	6
2.49867	7
2.50233	7
2.50600	8
2.50967	9
2.51333	9
2.51700	10
2.52067	10
2.52433	11
2.52800	11
2.53167	11
2.53533	12
2.53900	12
2.54267	13
2.54633	13
2.55000	13
2.55367	13
2.55733	13
2.56100	14
2.56467	14
2.56833	14
2.57200	14
2.57567	13
2.57933	13
2.58300	14
2.58667	14
2.59033	14
2.59400	15
2.59767	15
2.60133	15
2.60500	16
2.60867	17
2.61233	18
2.61600	19
2.61967	19
2.62333	20
2.62700	20
2.63067	20
2.63433	20
2.63800	20
2.64167	20
2.64533	21
2.64900	21
2.65267	21
2.65633	21
2.66000	21
2.66367	21
2.66733	21
2.67100	22
2.67467	22
2.67833	22
2.68200	22
2.68567	23
2.68933	23
2.69300	23
2.69667	23
2.70033	23
2.70400	24
2.70767	24
2.71133	24
2.71500	24
2.71867	24
2.72233	24
2.72600	24
2.72967	24
2.73333	24
2.73700	24
2.74067	24
2.74433	24
2.74800	25
2.75167	25
2.75533	25
2.75900	25
2.76267	25
2.76633	26
2.77000	26
2.77367	26
2.77733	26
2.78100	26
2.78467	27
2.78833	27
2.79200	27
2.79567	27
2.79933	26
2.80300	26
2.80667	25
2.81033	25
2.81400	25
2.81767	25
2.82133	25
2.82500	25
2.82867	25
2.83233	25
2.83600	25
2.83967	25
2.84333	24
2.84700	21
2.85067	17
2.85433	11
2.85800	2
2.86167	-11
2.86533	-28
2.86900	-48
2.87267	-72
2.87633	-101
2.88000	-133
2.88367	-169
2.88733	-208
2.89100	-250
2.89467	-294
2.89833	-341
2.90200	-389
2.90567	-438
2.90933	-487
2.91300	-537
2.91667	-587
2.92033	-636
2.92400	-685
2.92767	-732
2.93133	-780
2.93500	-829
2.93867	-884
2.94233	-945
2.94600	-1006
2.94967	-1055
2.95333	-1083
2.95700	-1084
2.96067	-1059
2.96433	-1012
2.96800	-950
2.97167	-876
2.97533	-798
2.97900	-717
2.98267	-639
2.98633	-564
2.99000	-495
2.99367	-431
2.99733	-373
3.00100	-322
3.00467	-276
3.00833	-236
3.01200	-201
3.01567	-171
3.01933	-144
3.02300	-121
3.02667	-102
3.03033	-85
3.03400	-70
3.03767	-58
3.04133	-47
3.04500	-38
3.04867	-30
3.05233	-23
3.05600	-17
3.05967	-13
3.06333	-9
3.06700	-5
3.07067	-2
3.07433	0
3.07800	3
3.08167	5
3.08533	7
3.08900	8
3.09267	9
3.09633	10
3.10000	11
3.10367	12
3.10733	13
3.11100	14
3.11467	14
3.11833	14
3.12200	15
3.12567	15
3.12933	15
3.13300	16
3.13667	16
3.14033	16
3.14400	17
3.14767	17
3.15133	17
3.15500	18
3.15867	18
3.16233	18
3.16600	18
3.16967	19
3.17333	19
3.17700	19
3.18067	19
3.18433	20
3.18800	20
3.19167	20
3.19533	21
3.19900	21
3.20267	21
3.20633	21
3.21000	21
3.21367	22
3.21733	22
3.22100	22
3.22467	23
3.22833	23
3.23200	24
3.23567	24
3.23933	25
3.24300	25
3.24667	26
3.25033	26
3.25400	26
3.25767	27
3.26133	27
3.26500	28
3.26867	28
3.27233	28
3.27600	29
3.27967	29
3.28333	29
3.28700	29
3.29067	29
3.29433	29
3.29800	29
3.30167	29
3.30533	29
3.30900	29
3.31267	29
3.31633	29
3.32000	29
3.32367	29
3.32733	29
3.33100	28
3.33467	28
3.33833	28
3.34200	28
3.34567	28
3.34933	28
3.35300	28
3.35667	28
3.36033	28
3.36400	29
3.36767	29
3.37133	29
3.37500	29
3.37867	29
3.38233	29
3.38600	29
3.38967	29
3.39333	28
3.39700	28
3.40067	28
3.40433	29
3.40800	29
3.41167	29
3.41533	29
3.41900	29
3.42267	29
3.42633	29
3.43000	28
3.43367	28
3.43733	28
3.44100	28
3.44467	27
3.44833	27
3.45200	28
3.45567	28
3.45933	28
3.46300	28
3.46667	27
3.47033	27
3.47400	27
3.47767	27
3.48133	26
3.48500	26
3.48867	26
3.49233	26
3.49600	26
3.49967	26
3.50333	26
3.50700	26
3.51067	26
3.51433	26
3.51800	26
3.52167	27
3.52533	27
3.52900	27
3.53267	27
3.53633	28
3.54000	28
3.54367	28
3.54733	27
3.55100	27
3.55467	27
3.55833	27
3.56200	27
3.56567	27
3.56933	27
3.57300	27
3.57667	27
3.58033	27
3.58400	28
3.58767	28
3.59133	28
3.59500	28
3.59867	28
3.60233	28
3.60600	28
3.60967	27
3.61333	27
3.61700	27
3.62067	27
3.62433	27
3.62800	27
3.63167	27
3.63533	27
3.63900	27
3.64267	27
3.64633	28
3.65000	28
3.65367	28
3.65733	28
3.66100	28
3.66467	27
3.66833	27
3.67200	27
3.67567	27
3.67933	28
3.68300	28
3.68667	28
3.69033	28
3.69400	28
3.69767	28
3.70133	27
3.70500	27
3.70867	27
3.71233	27
3.71600	27
3.71967	27
3.72333	27
3.72700	27
3.73067	27
3.73433	27
3.73800	27
3.74167	27
3.74533	27
3.74900	27
3.75267	26
3.75633	26
3.76000	26
3.76367	26
3.76733	26
3.77100	26
3.77467	26
3.77833	26
3.78200	26
3.78567	26
3.78933	26
3.79300	27
3.79667	27
3.80033	27
3.80400	27
3.80767	27
3.81133	27
3.81500	27
3.81867	27
3.82233	27
3.82600	27
3.82967	27
3.83333	26
3.83700	26
3.84067	26
3.84433	26
3.84800	26
3.85167	26
3.85533	26
3.85900	26
3.86267	26
3.86633	26
3.87000	26
3.87367	26
3.87733	26
3.88100	27
3.88467	27
3.88833	27
3.89200	27
3.89567	28
3.89933	28
3.90300	28
3.90667	28
3.91033	28
3.91400	28
3.91767	29
3.92133	29
3.92500	28
3.92867	28
3.93233	28
3.93600	28
3.93967	29
3.94333	29
3.94700	29
3.95067	29
3.95433	29
3.95800	29
3.96167	29
3.96533	29
3.96900	29
3.97267	29
3.97633	29
3.98000	29
3.98367	29
3.98733	28
3.99100	28
3.99467	27
3.99833	27

[Chromatogram (Ch3)]
Interval(msec)	220
# of Points	1091
Start Time(min)	0.002
End Time(min)	3.998
R.Time (min)	Intensity
0.00167	1
0.00533	2
0.00900	4
0.01267	5
0.01633	5
0.02000	5
0.02367	5
0.02733	5
0.03100	6
0.03467	7
0.03833	9
0.04200	9
0.04567	9
0.04933	10
0.05300	11
0.05667	12
0.06033	13
0.06400	11
0.06767	11
0.07133	11
0.07500	11
0.07867	11
0.08233	10
0.08600	9
0.08967	7
0.09333	7
0.09700	8
0.10067	10
0.10433	12
0.10800	13
0.11167	14
0.11533	14
0.11900	13
0.12267	13
0.12633	13
0.13000	13
0.13367	14
0.13733	12
0.14100	11
0.14467	9
0.14833	8
0.15200	8
0.15567	9
0.15933	10
0.16300	9
0.16667	7
0.17033	7
0.17400	8
0.17767	8
0.18133	8
0.18500	9
0.18867	10
0.19233	9
0.19600	8
0.19967	8
0.20333	8
0.20700	9
0.21067	9
0.21433	11
0.21800	9
0.22167	8
0.22533	8
0.22900	10
0.23267	12
0.23633	13
0.24000	14
0.24367	15
0.24733	16
0.25100	16
0.25467	15
0.25833	14
0.26200	12
0.26567	11
0.26933	10
0.27300	9
0.27667	11
0.28033	13
0.28400	13
0.28767	14
0.29133	14
0.29500	13
0.29867	11
0.30233	11
0.30600	12
0.30967	13
0.31333	14
0.31700	16
0.32067	19
0.32433	22
0.32800	24
0.33167	24
0.33533	23
0.33900	23
0.34267	23
0.34633	21
0.35000	19
0.35367	18
0.35733	19
0.36100	20
0.36467	20
0.36833	18
0.37200	17
0.37567	20
0.37933	24
0.38300	26
0.38667	26
0.39033	22
0.39400	20
0.39767	17
0.40133	15
0.40500	16
0.40867	16
0.41233	15
0.41600	16
0.41967	17
0.42333	18
0.42700	17
0.43067	19
0.43433	19
0.43800	20
0.44167	21
0.44533	22
0.44900	21
0.45267	21
0.45633	20
0.46000	21
0.46367	22
0.46733	23
0.47100	24
0.47467	24
0.47833	24
0.48200	23
0.48567	23
0.48933	22
0.49300	19
0.49667	18
0.50033	17
0.50400	17
0.50767	19
0.51133	22
0.51500	22
0.51867	20
0.52233	19
0.52600	21
0.52967	23
0.53333	26
0.53700	28
0.54067	29
0.54433	31
0.54800	31
0.55167	31
0.55533	30
0.55900	30
0.56267	30
0.56633	30
0.57000	30
0.57367	29
0.57733	29
0.58100	30
0.58467	31
0.58833	30
0.59200	28
0.59567	27
0.59933	28
0.60300	29
0.60667	30
0.61033	30
0.61400	31
0.61767	31
0.62133	31
0.62500	31
0.62867	30
0.63233	32
0.63600	33
0.63967	32
0.64333	32
0.64700	32
0.65067	31
0.65433	29
0.65800	29
0.66167	30
0.66533	30
0.66900	30
0.67267	31
0.67633	29
0.68000	28
0.68367	29
0.68733	29
0.69100	28
0.69467	28
0.69833	28
0.70200	28
0.70567	31
0.70933	33
0.71300	33
0.71667	31
0.72033	31
0.72400	31
0.72767	31
0.73133	30
0.73500	29
0.73867	29
0.74233	29
0.74600	29
0.74967	31
0.75333	35
0.75700	37
0.76067	36
0.76433	38
0.76800	39
0.77167	37
0.77533	33
0.77900	31
0.78267	30
0.78633	32
0.79000	34
0.79367	35
0.79733	36
0.80100	36
0.80467	35
0.80833	33
0.81200	34
0.81567	36
0.81933	36
0.82300	35
0.82667	34
0.83033	34
0.83400	34
0.83767	34
0.84133	35
0.84500	36
0.84867	36
0.85233	34
0.85600	34
0.85967	34
0.86333	34
0.86700	34
0.87067	37
0.87433	39
0.87800	38
0.88167	38
0.88533	37
0.88900	37
0.89267	35
0.89633	34
0.90000	35
0.90367	36
0.90733	35
0.91100	34
0.91467	33
0.91833	32
0.92200	31
0.92567	31
0.92933	31
0.93300	30
0.93667	30
0.94033	31
0.94400	34
0.94767	34
0.95133	35
0.95500	36
0.95867	36
0.96233	35
0.96600	37
0.96967	38
0.97333	38
0.97700	40
0.98067	41
0.98433	40
0.98800	39
0.99167	39
0.99533	40
0.99900	41
1.00267	39
1.00633	38
1.01000	38
1.01367	38
1.01733	38
1.02100	37
1.02467	38
1.02833	37
1.03200	35
1.03567	35
1.03933	33
1.04300	32
1.04667	32
1.05033	33
1.05400	32
1.05767	32
1.06133	32
1.06500	32
1.06867	32
1.07233	32
1.07600	33
1.07967	34
1.08333	34
1.08700	35
1.09067	37
1.09433	36
1.09800	36
1.10167	35
1.10533	36
1.10900	37
1.11267	38
1.11633	37
1.12000	37
1.12367	39
1.12733	39
1.13100	36
1.13467	35
1.13833	36
1.14200	34
1.14567	33
1.14933	34
1.15300	34
1.15667	33
1.16033	33
1.16400	35
1.16767	36
1.17133	37
1.17500	38
1.17867	39
1.18233	40
1.18600	40
1.18967	39
1.19333	37
1.19700	36
1.20067	37
1.20433	39
1.20800	39
1.21167	38
1.21533	37
1.21900	39
1.22267	37
1.22633	35
1.23000	37
1.23367	40
1.23733	39
1.24100	37
1.24467	37
1.24833	38
1.25200	37
1.25567	36
1.25933	36
1.26300	38
1.26667	38
1.27033	37
1.27400	37
1.27767	36
1.28133	37
1.28500	38
1.28867	39
1.29233	40
1.29600	40
1.29967	40
1.30333	40
1.30700	40
1.31067	40
1.31433	39
1.31800	39
1.32167	38
1.32533	36
1.32900	34
1.33267	35
1.33633	36
1.34000	39
1.34367	41
1.34733	43
1.35100	44
1.35467	43
1.35833	43
1.36200	44
1.36567	45
1.36933	46
1.37300	44
1.37667	42
1.38033	40
1.38400	40
1.38767	41
1.39133	41
1.39500	41
1.39867	41
1.40233	44
1.40600	46
1.40967	47
1.41333	45
1.41700	42
1.42067	41
1.42433	43
1.42800	43
1.43167	42
1.43533	42
1.43900	44
1.44267	47
1.44633	47
1.45000	46
1.45367	45
1.45733	45
1.46100	48
1.46467	50
1.46833	50
1.47200	50
1.47567	51
1.47933	51
1.48300	51
1.48667	51
1.49033	49
1.49400	46
1.49767	45
1.50133	46
1.50500	47
1.50867	47
1.51233	46
1.51600	46
1.51967	47
1.52333	48
1.52700	49
1.53067	50
1.53433	50
1.53800	49
1.54167	49
1.54533	49
1.54900	48
1.55267	47
1.55633	45
1.56000	44
1.56367	42
1.56733	42
1.57100	44
1.57467	47
1.57833	47
1.58200	47
1.58567	47
1.58933	48
1.59300	48
1.59667	51
1.60033	55
1.60400	58
1.60767	59
1.61133	60
1.61500	60
1.61867	60
1.62233	60
1.62600	58
1.62967	57
1.63333	58
1.63700	57
1.64067	56
1.64433	57
1.64800	59
1.65167	58
1.65533	58
1.65900	60
1.66267	60
1.66633	59
1.67000	60
1.67367	64
1.67733	69
1.68100	71
1.68467	69
1.68833	69
1.69200	69
1.69567	69
1.69933	69
1.70300	70
1.70667	73
1.71033	76
1.71400	77
1.71767	77
1.72133	79
1.72500	80
1.72867	81
1.73233	81
1.73600	82
1.73967	81
1.74333	79
1.74700	79
1.75067	80
1.75433	81
1.75800	84
1.76167	86
1.76533	88
1.76900	88
1.77267	88
1.77633	89
1.78000	89
1.78367	90
1.78733	90
1.79100	91
1.79467	91
1.79833	92
1.80200	93
1.80567	96
1.80933	97
1.81300	97
1.81667	96
1.82033	96
1.82400	95
1.82767	94
1.83133	95
1.83500	96
1.83867	99
1.84233	100
1.84600	101
1.84967	102
1.85333	102
1.85700	103
1.86067	101
1.86433	100
1.86800	101
1.87167	100
1.87533	102
1.87900	105
1.88267	106
1.88633	107
1.89000	109
1.89367	110
1.89733	109
1.90100	108
1.90467	109
1.90833	112
1.91200	114
1.91567	113
1.91933	111
1.92300	110
1.92667	109
1.93033	109
1.93400	109
1.93767	111
1.94133	113
1.94500	116
1.94867	118
1.95233	119
1.95600	118
1.95967	117
1.96333	119
1.96700	122
1.97067	124
1.97433	126
1.97800	126
1.98167	128
1.98533	129
1.98900	130
1.99267	131
1.99633	133
2.00000	135
2.00367	135
2.00733	134
2.01100	135
2.01467	136
2.01833	137
2.02200	137
2.02567	138
2.02933	140
2.03300	143
2.03667	145
2.04033	146
2.04400	147
2.04767	150
2.05133	152
2.05500	154
2.05867	154
2.06233	156
2.06600	157
2.06967	159
2.07333	161
2.07700	161
2.08067	162
2.08433	163
2.08800	164
2.09167	164
2.09533	165
2.09900	167
2.10267	169
2.10633	173
2.11000	176
2.11367	178
2.11733	179
2.12100	178
2.12467	178
2.12833	179
2.13200	181
2.13567	181
2.13933	182
2.14300	185
2.14667	188
2.15033	190
2.15400	191
2.15767	194
2.16133	196
2.16500	196
2.16867	196
2.17233	196
2.17600	197
2.17967	201
2.18333	205
2.18700	209
2.19067	212
2.19433	213
2.19800	216
2.20167	217
2.20533	216
2.20900	215
2.21267	216
2.21633	216
2.22000	217
2.22367	220
2.22733	222
2.23100	223
2.23467	222
2.23833	221
2.24200	221
2.24567	224
2.24933	226
2.25300	228
2.25667	231
2.26033	232
2.26400	233
2.26767	234
2.27133	236
2.27500	236
2.27867	236
2.28233	236
2.28600	235
2.28967	236
2.29333	238
2.29700	241
2.30067	244
2.30433	246
2.30800	249
2.31167	249
2.31533	248
2.31900	249
2.32267	251
2.32633	253
2.33000	252
2.33367	251
2.33733	251
2.34100	252
2.34467	253
2.34833	254
2.35200	256
2.35567	259
2.35933	260
2.36300	261
2.36667	262
2.37033	261
2.37400	261
2.37767	261
2.38133	262
2.38500	261
2.38867	259
2.39233	258
2.39600	261
2.39967	265
2.40333	267
2.40700	270
2.41067	273
2.41433	276
2.41800	277
2.42167	277
2.42533	278
2.42900	279
2.43267	281
2.43633	283
2.44000	284
2.44367	286
2.44733	290
2.45100	293
2.45467	301
2.45833	319
2.46200	344
2.46567	377
2.46933	418
2.47300	462
2.47667	505
2.48033	546
2.48400	588
2.48767	627
2.49133	661
2.49500	691
2.49867	719
2.50233	744
2.50600	766
2.50967	786
2.51333	805
2.51700	823
2.52067	838
2.52433	853
2.52800	865
2.53167	876
2.53533	886
2.53900	892
2.54267	898
2.54633	905
2.55000	911
2.55367	918
2.55733	924
2.56100	929
2.56467	934
2.56833	940
2.57200	945
2.57567	945
2.57933	944
2.58300	946
2.58667	945
2.59033	943
2.59400	940
2.59767	935
2.60133	926
2.60500	911
2.60867	890
2.61233	862
2.61600	828
2.61967	791
2.62333	753
2.62700	717
2.63067	685
2.63433	658
2.63800	636
2.64167	620
2.64533	606
2.64900	599
2.65267	597
2.65633	597
2.66000	600
2.66367	602
2.66733	606
2.67100	613
2.67467	621
2.67833	627
2.68200	633
2.68567	641
2.68933	648
2.69300	653
2.69667	653
2.70033	657
2.70400	663
2.70767	670
2.71133	677
2.71500	683
2.71867	689
2.72233	696
2.72600	703
2.72967	708
2.73333	712
2.73700	715
2.74067	717
2.74433	723
2.74800	728
2.75167	733
2.75533	737
2.75900	741
2.76267	745
2.76633	747
2.77000	750
2.77367	754
2.77733	758
2.78100	761
2.78467	764
2.78833	768
2.79200	770
2.79567	773
2.79933	774
2.80300	776
2.80667	777
2.81033	779
2.81400	782
2.81767	785
2.82133	793
2.82500	808
2.82867	838
2.83233	897
2.83600	1004
2.83967	1185
2.84333	1457
2.84700	1832
2.85067	2308
2.85433	2868
2.85800	3479
2.86167	4093
2.86533	4664
2.86900	5144
2.87267	5499
2.87633	5711
2.88000	5776
2.88367	5707
2.88733	5525
2.89100	5260
2.89467	4940
2.89833	4589
2.90200	4224
2.90567	3867
2.90933	3525
2.91300	3206
2.91667	2916
2.92033	2651
2.92400	2415
2.92767	2205
2.93133	2019
2.93500	1855
2.93867	1711
2.94233	1588
2.94600	1483
2.94967	1388
2.95333	1306
2.95700	1234
2.96067	1170
2.96433	1116
2.96800	1071
2.97167	1031
2.97533	999
2.97900	973
2.98267	949
2.98633	929
2.99000	912
2.99367	895
2.99733	880
3.00100	865
3.00467	852
3.00833	840
3.01200	831
3.01567	824
3.01933	816
3.02300	810
3.02667	804
3.03033	800
3.03400	797
3.03767	792
3.04133	789
3.04500	784
3.04867	781
3.05233	777
3.05600	774
3.05967	770
3.06333	765
3.06700	760
3.07067	758
3.07433	758
3.07800	757
3.08167	754
3.08533	753
3.08900	752
3.09267	748
3.09633	746
3.10000	744
3.10367	742
3.10733	741
3.11100	738
3.11467	734
3.11833	733
3.12200	734
3.12567	731
3.12933	727
3.13300	727
3.13667	726
3.14033	723
3.14400	721
3.14767	717
3.15133	712
3.15500	707
3.15867	706
3.16233	704
3.16600	704
3.16967	705
3.17333	704
3.17700	701
3.18067	697
3.18433	691
3.18800	687
3.19167	681
3.19533	675
3.19900	673
3.20267	671
3.20633	670
3.21000	669
3.21367	667
3.21733	666
3.22100	664
3.22467	660
3.22833	657
3.23200	655
3.23567	654
3.23933	653
3.24300	651
3.24667	651
3.25033	646
3.25400	640
3.25767	634
3.26133	631
3.26500	629
3.26867	628
3.27233	628
3.27600	626
3.27967	623
3.28333	619
3.28700	615
3.29067	611
3.29433	608
3.29800	603
3.30167	598
3.30533	594
3.30900	588
3.31267	582
3.31633	577
3.32000	572
3.32367	569
3.32733	566
3.33100	565
3.33467	561
3.33833	558
3.34200	555
3.34567	551
3.34933	548
3.35300	546
3.35667	543
3.36033	539
3.36400	534
3.36767	530
3.37133	528
3.37500	526
3.37867	523
3.38233	521
3.38600	517
3.38967	515
3.39333	512
3.39700	507
3.40067	502
3.40433	499
3.40800	495
3.41167	490
3.41533	485
3.41900	482
3.42267	480
3.42633	477
3.43000	473
3.43367	468
3.43733	464
3.44100	462
3.44467	460
3.44833	456
3.45200	452
3.45567	448
3.45933	445
3.46300	443
3.46667	441
3.47033	438
3.47400	436
3.47767	434
3.48133	431
3.48500	426
3.48867	422
3.49233	417
3.49600	415
3.49967	411
3.50333	406
3.50700	403
3.51067	400
3.51433	399
3.51800	398
3.52167	395
3.52533	394
3.52900	391
3.53267	388
3.53633	386
3.54000	385
3.54367	382
3.54733	379
3.55100	377
3.55467	375
3.55833	372
3.56200	369
3.56567	368
3.56933	368
3.57300	365
3.57667	362
3.58033	361
3.58400	358
3.58767	355
3.59133	353
3.59500	351
3.59867	351
3.60233	349
3.60600	346
3.60967	345
3.61333	343
3.61700	342
3.62067	341
3.62433	340
3.62800	339
3.63167	337
3.63533	333
3.63900	330
3.64267	328
3.64633	327
3.65000	326
3.65367	325
3.65733	323
3.66100	323
3.66467	322
3.66833	318
3.67200	315
3.67567	312
3.67933	311
3.68300	310
3.68667	310
3.69033	309
3.69400	309
3.69767	308
3.70133	306
3.70500	305
3.70867	304
3.71233	302
3.71600	299
3.71967	298
3.72333	298
3.72700	297
3.73067	298
3.73433	298
3.73800	297
3.74167	293
3.74533	290
3.74900	288
3.75267	286
3.75633	287
3.76000	288
3.76367	289
3.76733	289
3.77100	288
3.77467	287
3.77833	284
3.78200	281
3.78567	279
3.78933	278
3.79300	278
3.79667	280
3.80033	281
3.80400	281
3.80767	281
3.81133	280
3.81500	277
3.81867	276
3.82233	276
3.82600	274
3.82967	272
3.83333	270
3.83700	269
3.84067	269
3.84433	271
3.84800	272
3.85167	271
3.85533	269
3.85900	268
3.86267	267
3.86633	268
3.87000	269
3.87367	269
3.87733	267
3.88100	266
3.88467	264
3.88833	261
3.89200	260
3.89567	259
3.89933	258
3.90300	258
3.90667	258
3.91033	257
3.91400	257
3.91767	258
3.92133	259
3.92500	258
3.92867	255
3.93233	252
3.93600	253
3.93967	254
3.94333	253
3.94700	250
3.95067	250
3.95433	252
3.95800	252
3.96167	251
3.96533	252
3.96900	253
3.97267	255
3.97633	253
3.98000	252
3.98367	251
3.98733	251
3.99100	250
3.99467	250
3.99833	249

[Status Trace (Column Oven Temperature)]
Interval(msec)	1000
# of Points	240
Start Time(min)	0.008
End Time(min)	3.992
Intensity Units	
Intensity Multiplier	1
R.Time (min)	Intensity
0.00843	35.00
0.02510	35.00
0.04177	35.00
0.05843	35.01
0.07510	35.01
0.09177	35.01
0.10843	35.02
0.12510	35.02
0.14177	35.04
0.15843	35.06
0.17510	35.07
0.19177	35.08
0.20843	35.08
0.22510	35.05
0.24177	35.04
0.25843	35.04
0.27510	35.03
0.29177	35.04
0.30843	35.03
0.32510	35.05
0.34177	35.05
0.35843	35.05
0.37510	35.04
0.39177	35.02
0.40843	34.99
0.42510	34.97
0.44177	34.96
0.45843	34.97
0.47510	34.96
0.49177	34.98
0.50843	35.00
0.52510	35.01
0.54177	35.02
0.55843	35.02
0.57510	35.01
0.59177	35.00
0.60843	34.99
0.62510	34.98
0.64177	34.98
0.65843	34.98
0.67510	34.99
0.69177	35.01
0.70843	35.02
0.72510	35.01
0.74177	35.00
0.75843	34.99
0.77510	34.99
0.79177	34.99
0.80843	34.97
0.82510	34.97
0.84177	34.98
0.85843	34.99
0.87510	34.99
0.89177	35.00
0.90843	34.99
0.92510	34.99
0.94177	34.98
0.95843	34.97
0.97510	34.97
0.99177	34.96
1.00843	34.96
1.02510	34.97
1.04177	34.97
1.05843	34.97
1.07510	34.97
1.09177	34.97
1.10843	34.99
1.12510	35.00
1.14177	35.01
1.15843	35.02
1.17510	35.01
1.19177	34.99
1.20843	34.98
1.22510	34.98
1.24177	34.97
1.25843	34.98
1.27510	34.98
1.29177	35.00
1.30843	35.00
1.32510	35.01
1.34177	35.01
1.35843	35.02
1.37510	35.03
1.39177	35.04
1.40843	35.04
1.42510	35.02
1.44177	35.02
1.45843	35.03
1.47510	35.05
1.49177	35.04
1.50843	35.02
1.52510	35.02
1.54177	35.01
1.55843	35.00
1.57510	35.00
1.59177	35.01
1.60843	35.08
1.62510	35.21
1.64177	35.40
1.65843	35.64
1.67510	35.96
1.69177	36.33
1.70843	36.67
1.72510	37.01
1.74177	37.36
1.75843	37.69
1.77510	38.03
1.79177	38.35
1.80843	38.69
1.82510	39.02
1.84177	39.35
1.85843	39.68
1.87510	40.01
1.89177	40.33
1.90843	40.65
1.92510	40.97
1.94177	41.29
1.95843	41.64
1.97510	41.95
1.99177	42.28
2.00843	42.61
2.02510	42.93
2.04177	43.26
2.05843	43.59
2.07510	43.91
2.09177	44.26
2.10843	44.56
2.12510	44.89
2.14177	45.22
2.15843	45.54
2.17510	45.86
2.19177	46.18
2.20843	46.52
2.22510	46.85
2.24177	47.19
2.25843	47.51
2.27510	47.85
2.29177	48.17
2.30843	48.52
2.32510	48.86
2.34177	49.16
2.35843	49.45
2.37510	49.65
2.39177	49.73
2.40843	49.72
2.42510	49.72
2.44177	49.72
2.45843	49.73
2.47510	49.73
2.49177	49.74
2.50843	49.76
2.52510	49.77
2.54177	49.79
2.55843	49.80
2.57510	49.82
2.59177	49.83
2.60843	49.83
2.62510	49.83
2.64177	49.83
2.65843	49.85
2.67510	49.86
2.69177	49.85
2.70843	49.86
2.72510	49.85
2.74177	49.85
2.75843	49.86
2.77510	49.84
2.79177	49.87
2.80843	49.89
2.82510	49.91
2.84177	49.92
2.85843	49.93
2.87510	49.94
2.89177	49.94
2.90843	49.95
2.92510	49.97
2.94177	49.98
2.95843	49.99
2.97510	49.99
2.99177	50.00
3.00843	50.01
3.02510	50.03
3.04177	50.03
3.05843	50.03
3.07510	50.03
3.09177	50.04
3.10843	50.05
3.12510	50.06
3.14177	50.08
3.15843	50.09
3.17510	50.09
3.19177	50.10
3.20843	50.11
3.22510	50.10
3.24177	50.09
3.25843	50.07
3.27510	50.05
3.29177	50.04
3.30843	50.03
3.32510	50.03
3.34177	50.02
3.35843	50.01
3.37510	50.01
3.39177	50.00
3.40843	50.01
3.42510	50.01
3.44177	50.01
3.45843	50.02
3.47510	50.03
3.49177	50.04
3.50843	50.04
3.52510	50.04
3.54177	50.05
3.55843	50.05
3.57510	50.05
3.59177	50.04
3.60843	50.05
3.62510	50.05
3.64177	50.06
3.65843	50.06
3.67510	50.06
3.69177	50.06
3.70843	50.07
3.72510	50.07
3.74177	50.08
3.75843	50.08
3.77510	50.09
3.79177	50.08
3.80843	50.08
3.82510	50.09
3.84177	50.09
3.85843	50.09
3.87510	50.09
3.89177	50.09
3.90843	50.08
3.92510	50.08
3.94177	50.07
3.95843	50.06
3.97510	50.06
3.99177	50.07

[Status Trace (Injection Unit Temperature)]
Interval(msec)	1000
# of Points	240
Start Time(min)	0.008
End Time(min)	3.992
Intensity Units	
Intensity Multiplier	1
R.Time (min)	Intensity
0.00843	99.98
0.02510	99.98
0.04177	99.98
0.05843	99.98
0.07510	99.98
0.09177	99.98
0.10843	99.98
0.12510	99.98
0.14177	99.98
0.15843	99.98
0.17510	99.99
0.19177	99.98
0.20843	99.99
0.22510	99.98
0.24177	99.98
0.25843	99.99
0.27510	99.98
0.29177	99.98
0.30843	99.98
0.32510	99.98
0.34177	99.98
0.35843	99.98
0.37510	99.99
0.39177	99.98
0.40843	99.98
0.42510	99.98
0.44177	99.98
0.45843	99.99
0.47510	99.99
0.49177	99.99
0.50843	99.98
0.52510	99.99
0.54177	99.99
0.55843	99.98
0.57510	99.99
0.59177	99.99
0.60843	99.99
0.62510	99.99
0.64177	99.99
0.65843	99.99
0.67510	99.99
0.69177	99.99
0.70843	99.99
0.72510	99.99
0.74177	99.99
0.75843	99.99
0.77510	99.99
0.79177	99.99
0.80843	99.98
0.82510	99.99
0.84177	99.99
0.85843	99.99
0.87510	99.99
0.89177	99.98
0.90843	99.98
0.92510	99.98
0.94177	99.99
0.95843	99.99
0.97510	99.99
0.99177	99.99
1.00843	99.99
1.02510	99.98
1.04177	99.99
1.05843	99.98
1.07510	99.99
1.09177	99.99
1.10843	99.99
1.12510	99.99
1.14177	99.99
1.15843	99.99
1.17510	99.99
1.19177	99.99
1.20843	99.99
1.22510	99.99
1.24177	99.99
1.25843	99.99
1.27510	99.99
1.29177	99.99
1.30843	99.99
1.32510	99.99
1.34177	99.99
1.35843	99.99
1.37510	99.99
1.39177	99.99
1.40843	99.99
1.42510	99.99
1.44177	99.99
1.45843	99.99
1.47510	99.99
1.49177	99.99
1.50843	99.99
1.52510	99.99
1.54177	100.00
1.55843	99.99
1.57510	99.99
1.59177	99.99
1.60843	99.99
1.62510	99.99
1.64177	99.99
1.65843	99.99
1.67510	99.99
1.69177	99.99
1.70843	99.99
1.72510	99.99
1.74177	99.99
1.75843	99.99
1.77510	99.99
1.79177	99.99
1.80843	99.99
1.82510	99.99
1.84177	99.98
1.85843	99.99
1.87510	99.98
1.89177	99.98
1.90843	99.98
1.92510	99.98
1.94177	99.98
1.95843	99.98
1.97510	99.98
1.99177	99.98
2.00843	99.97
2.02510	99.98
2.04177	99.98
2.05843	99.97
2.07510	99.98
2.09177	99.98
2.10843	99.98
2.12510	99.97
2.14177	99.97
2.15843	99.97
2.17510	99.97
2.19177	99.97
2.20843	99.97
2.22510	99.97
2.24177	99.97
2.25843	99.97
2.27510	99.97
2.29177	99.97
2.30843	99.97
2.32510	99.97
2.34177	99.97
2.35843	99.97
2.37510	99.97
2.39177	99.97
2.40843	99.97
2.42510	99.97
2.44177	99.97
2.45843	99.97
2.47510	99.97
2.49177	99.97
2.50843	99.97
2.52510	99.97
2.54177	99.97
2.55843	99.97
2.57510	99.97
2.59177	99.98
2.60843	99.97
2.62510	99.98
2.64177	99.98
2.65843	99.98
2.67510	99.98
2.69177	99.98
2.70843	99.98
2.72510	99.99
2.74177	99.98
2.75843	99.99
2.77510	99.99
2.79177	99.99
2.80843	99.99
2.82510	100.00
2.84177	100.00
2.85843	100.00
2.87510	100.00
2.89177	100.00
2.90843	100.01
2.92510	100.01
2.94177	100.01
2.95843	100.00
2.97510	100.01
2.99177	100.01
3.00843	100.01
3.02510	100.01
3.04177	100.01
3.05843	100.02
3.07510	100.02
3.09177	100.02
3.10843	100.02
3.12510	100.02
3.14177	100.02
3.15843	100.03
3.17510	100.02
3.19177	100.03
3.20843	100.02
3.22510	100.02
3.24177	100.03
3.25843	100.03
3.27510	100.03
3.29177	100.03
3.30843	100.03
3.32510	100.03
3.34177	100.03
3.35843	100.03
3.37510	100.04
3.39177	100.04
3.40843	100.04
3.42510	100.04
3.44177	100.04
3.45843	100.04
3.47510	100.04
3.49177	100.04
3.50843	100.03
3.52510	100.04
3.54177	100.04
3.55843	100.04
3.57510	100.04
3.59177	100.04
3.60843	100.04
3.62510	100.05
3.64177	100.05
3.65843	100.05
3.67510	100.05
3.69177	100.05
3.70843	100.05
3.72510	100.05
3.74177	100.05
3.75843	100.05
3.77510	100.05
3.79177	100.05
3.80843	100.06
3.82510	100.05
3.84177	100.05
3.85843	100.06
3.87510	100.06
3.89177	100.06
3.90843	100.05
3.92510	100.05
3.94177	100.06
3.95843	100.06
3.97510	100.06
3.99177	100.06

[Status Trace (Carrier Gas Pressure)]
Interval(msec)	1000
# of Points	240
Start Time(min)	0.008
End Time(min)	3.992
Intensity Units	
Intensity Multiplier	1
R.Time (min)	Intensity
0.00843	58.00
0.02510	55.38
0.04177	57.08
0.05843	59.22
0.07510	59.48
0.09177	58.09
0.10843	57.98
0.12510	58.01
0.14177	58.01
0.15843	58.01
0.17510	58.00
0.19177	58.00
0.20843	58.00
0.22510	58.00
0.24177	58.00
0.25843	58.00
0.27510	58.00
0.29177	58.00
0.30843	58.00
0.32510	58.00
0.34177	58.00
0.35843	58.00
0.37510	58.00
0.39177	58.00
0.40843	58.00
0.42510	58.00
0.44177	58.00
0.45843	58.00
0.47510	58.00
0.49177	58.00
0.50843	58.00
0.52510	58.00
0.54177	58.00
0.55843	58.00
0.57510	58.00
0.59177	58.00
0.60843	58.00
0.62510	58.00
0.64177	58.00
0.65843	58.00
0.67510	58.00
0.69177	58.00
0.70843	58.00
0.72510	58.00
0.74177	58.00
0.75843	58.00
0.77510	58.00
0.79177	58.00
0.80843	58.00
0.82510	58.00
0.84177	58.00
0.85843	58.00
0.87510	58.00
0.89177	58.00
0.90843	58.00
0.92510	58.00
0.94177	58.00
0.95843	58.00
0.97510	58.00
0.99177	58.00
1.00843	58.00
1.02510	58.00
1.04177	58.00
1.05843	58.00
1.07510	58.00
1.09177	58.00
1.10843	58.00
1.12510	58.00
1.14177	58.00
1.15843	58.00
1.17510	58.00
1.19177	58.00
1.20843	58.00
1.22510	58.00
1.24177	58.00
1.25843	58.00
1.27510	58.00
1.29177	58.00
1.30843	58.00
1.32510	58.00
1.34177	58.00
1.35843	58.00
1.37510	58.00
1.39177	58.00
1.40843	58.00
1.42510	58.00
1.44177	58.00
1.45843	58.00
1.47510	58.00
1.49177	58.00
1.50843	58.00
1.52510	58.00
1.54177	58.00
1.55843	58.00
1.57510	58.00
1.59177	58.00
1.60843	58.00
1.62510	58.00
1.64177	58.00
1.65843	58.00
1.67510	58.01
1.69177	58.01
1.70843	58.00
1.72510	58.00
1.74177	58.00
1.75843	58.00
1.77510	58.00
1.79177	58.00
1.80843	58.00
1.82510	58.00
1.84177	58.00
1.85843	58.00
1.87510	58.00
1.89177	58.00
1.90843	58.00
1.92510	58.00
1.94177	58.00
1.95843	58.00
1.97510	58.00
1.99177	58.00
2.00843	58.00
2.02510	58.00
2.04177	58.00
2.05843	58.00
2.07510	58.00
2.09177	58.00
2.10843	58.00
2.12510	58.00
2.14177	58.00
2.15843	58.00
2.17510	58.00
2.19177	58.00
2.20843	58.00
2.22510	58.00
2.24177	58.00
2.25843	58.00
2.27510	58.00
2.29177	58.00
2.30843	58.00
2.32510	58.00
2.34177	58.00
2.35843	58.00
2.37510	58.00
2.39177	57.99
2.40843	57.99
2.42510	58.00
2.44177	58.00
2.45843	58.00
2.47510	58.00
2.49177	58.00
2.50843	58.00
2.52510	57.98
2.54177	58.00
2.55843	58.00
2.57510	58.00
2.59177	58.00
2.60843	58.00
2.62510	58.00
2.64177	58.00
2.65843	58.00
2.67510	58.00
2.69177	58.00
2.70843	58.00
2.72510	58.00
2.74177	58.00
2.75843	58.00
2.77510	58.00
2.79177	58.00
2.80843	58.00
2.82510	58.00
2.84177	58.00
2.85843	58.00
2.87510	58.00
2.89177	58.00
2.90843	58.00
2.92510	58.00
2.94177	58.00
2.95843	58.00
2.97510	58.00
2.99177	58.00
3.00843	58.00
3.02510	58.00
3.04177	58.00
3.05843	58.00
3.07510	58.00
3.09177	58.00
3.10843	58.00
3.12510	58.00
3.14177	58.00
3.15843	58.00
3.17510	58.00
3.19177	58.00
3.20843	58.00
3.22510	58.00
3.24177	58.00
3.25843	58.00
3.27510	58.00
3.29177	58.00
3.30843	58.00
3.32510	58.00
3.34177	58.00
3.35843	58.00
3.37510	58.00
3.39177	58.00
3.40843	58.00
3.42510	58.00
3.44177	58.00
3.45843	58.00
3.47510	58.00
3.49177	58.00
3.50843	58.00
3.52510	58.00
3.54177	58.00
3.55843	58.00
3.57510	58.00
3.59177	58.00
3.60843	58.00
3.62510	58.00
3.64177	58.00
3.65843	58.00
3.67510	58.00
3.69177	58.00
3.70843	58.00
3.72510	58.00
3.74177	58.00
3.75843	58.00
3.77510	58.00
3.79177	58.00
3.80843	58.00
3.82510	58.00
3.84177	58.00
3.85843	58.00
3.87510	58.00
3.89177	58.00
3.90843	58.00
3.92510	58.00
3.94177	58.00
3.95843	58.00
3.97510	58.00
3.99177	58.00

[Status Trace (Carrier Gas Flow)]
Interval(msec)	1000
# of Points	240
Start Time(min)	0.008
End Time(min)	3.992
Intensity Units	
Intensity Multiplier	1
R.Time (min)	Intensity
0.00843	34.52
0.02510	34.54
0.04177	34.55
0.05843	34.55
0.07510	34.51
0.09177	34.51
0.10843	34.52
0.12510	34.52
0.14177	34.53
0.15843	34.52
0.17510	34.52
0.19177	34.52
0.20843	34.53
0.22510	34.52
0.24177	34.51
0.25843	34.52
0.27510	34.52
0.29177	34.51
0.30843	34.52
0.32510	34.52
0.34177	34.52
0.35843	34.52
0.37510	34.52
0.39177	34.52
0.40843	34.52
0.42510	34.52
0.44177	34.52
0.45843	34.52
0.47510	34.52
0.49177	34.52
0.50843	34.52
0.52510	34.52
0.54177	34.52
0.55843	34.52
0.57510	34.52
0.59177	34.52
0.60843	34.52
0.62510	34.52
0.64177	34.52
0.65843	34.52
0.67510	34.52
0.69177	34.52
0.70843	34.52
0.72510	34.52
0.74177	34.52
0.75843	34.52
0.77510	34.52
0.79177	34.52
0.80843	34.52
0.82510	34.52
0.84177	34.52
0.85843	34.52
0.87510	34.51
0.89177	34.52
0.90843	34.52
0.92510	34.52
0.94177	34.52
0.95843	34.52
0.97510	34.52
0.99177	34.52
1.00843	34.52
1.02510	34.52
1.04177	34.52
1.05843	34.52
1.07510	34.52
1.09177	34.52
1.10843	34.52
1.12510	34.52
1.14177	34.52
1.15843	34.52
1.17510	34.52
1.19177	34.52
1.20843	34.52
1.22510	34.52
1.24177	34.52
1.25843	34.52
1.27510	34.52
1.29177	34.52
1.30843	34.52
1.32510	34.52
1.34177	34.52
1.35843	34.52
1.37510	34.52
1.39177	34.52
1.40843	34.52
1.42510	34.52
1.44177	34.52
1.45843	34.52
1.47510	34.52
1.49177	34.52
1.50843	34.52
1.52510	34.52
1.54177	34.52
1.55843	34.52
1.57510	34.52
1.59177	34.52
1.60843	34.52
1.62510	34.52
1.64177	34.52
1.65843	34.52
1.67510	34.52
1.69177	34.52
1.70843	34.52
1.72510	34.52
1.74177	34.52
1.75843	34.52
1.77510	34.52
1.79177	34.52
1.80843	34.52
1.82510	34.52
1.84177	34.52
1.85843	34.52
1.87510	34.52
1.89177	34.52
1.90843	34.52
1.92510	34.52
1.94177	34.52
1.95843	34.52
1.97510	34.52
1.99177	34.52
2.00843	34.52
2.02510	34.52
2.04177	34.52
2.05843	34.52
2.07510	34.52
2.09177	34.52
2.10843	34.52
2.12510	34.52
2.14177	34.52
2.15843	34.52
2.17510	34.52
2.19177	34.52
2.20843	34.52
2.22510	34.52
2.24177	34.52
2.25843	34.52
2.27510	34.52
2.29177	34.52
2.30843	34.52
2.32510	34.52
2.34177	34.52
2.35843	34.52
2.37510	34.52
2.39177	34.50
2.40843	34.52
2.42510	34.52
2.44177	34.52
2.45843	34.52
2.47510	34.52
2.49177	34.52
2.50843	34.45
2.52510	34.52
2.54177	34.52
2.55843	34.52
2.57510	34.52
2.59177	34.52
2.60843	34.52
2.62510	34.52
2.64177	34.52
2.65843	34.52
2.67510	34.52
2.69177	34.52
2.70843	34.52
2.72510	34.52
2.74177	34.52
2.75843	34.52
2.77510	34.52
2.79177	34.52
2.80843	34.52
2.82510	34.52
2.84177	34.52
2.85843	34.52
2.87510	34.52
2.89177	34.52
2.90843	34.52
2.92510	34.52
2.94177	34.52
2.95843	34.52
2.97510	34.52
2.99177	34.52
3.00843	34.52
3.02510	34.52
3.04177	34.52
3.05843	34.52
3.07510	34.52
3.09177	34.52
3.10843	34.52
3.12510	34.52
3.14177	34.52
3.15843	34.52
3.17510	34.52
3.19177	34.52
3.20843	34.52
3.22510	34.52
3.24177	34.52
3.25843	34.52
3.27510	34.52
3.29177	34.52
3.30843	34.52
3.32510	34.52
3.34177	34.52
3.35843	34.52
3.37510	34.52
3.39177	34.52
3.40843	34.52
3.42510	34.52
3.44177	34.52
3.45843	34.52
3.47510	34.52
3.49177	34.52
3.50843	34.52
3.52510	34.52
3.54177	34.52
3.55843	34.52
3.57510	34.52
3.59177	34.52
3.60843	34.52
3.62510	34.52
3.64177	34.52
3.65843	34.52
3.67510	34.52
3.69177	34.52
3.70843	34.52
3.72510	34.52
3.74177	34.52
3.75843	34.52
3.77510	34.51
3.79177	34.52
3.80843	34.52
3.82510	34.52
3.84177	34.52
3.85843	34.52
3.87510	34.53
3.89177	34.52
3.90843	34.51
3.92510	34.52
3.94177	34.53
3.95843	34.51
3.97510	34.52
3.99177	34.52

[Status Trace (Column Flow)]
Interval(msec)	1000
# of Points	240
Start Time(min)	0.008
End Time(min)	3.992
Intensity Units	
Intensity Multiplier	1
R.Time (min)	Intensity
0.00843	5.53
0.02510	5.23
0.04177	5.42
0.05843	5.67
0.07510	5.70
0.09177	5.54
0.10843	5.53
0.12510	5.53
0.14177	5.53
0.15843	5.53
0.17510	5.53
0.19177	5.53
0.20843	5.53
0.22510	5.53
0.24177	5.53
0.25843	5.53
0.27510	5.53
0.29177	5.53
0.30843	5.53
0.32510	5.53
0.34177	5.53
0.35843	5.53
0.37510	5.53
0.39177	5.53
0.40843	5.53
0.42510	5.53
0.44177	5.53
0.45843	5.53
0.47510	5.53
0.49177	5.53
0.50843	5.53
0.52510	5.53
0.54177	5.53
0.55843	5.53
0.57510	5.53
0.59177	5.53
0.60843	5.53
0.62510	5.53
0.64177	5.53
0.65843	5.53
0.67510	5.53
0.69177	5.53
0.70843	5.53
0.72510	5.53
0.74177	5.53
0.75843	5.53
0.77510	5.53
0.79177	5.53
0.80843	5.53
0.82510	5.53
0.84177	5.53
0.85843	5.53
0.87510	5.53
0.89177	5.53
0.90843	5.53
0.92510	5.53
0.94177	5.53
0.95843	5.53
0.97510	5.53
0.99177	5.53
1.00843	5.53
1.02510	5.53
1.04177	5.53
1.05843	5.53
1.07510	5.53
1.09177	5.53
1.10843	5.53
1.12510	5.53
1.14177	5.53
1.15843	5.53
1.17510	5.53
1.19177	5.53
1.20843	5.53
1.22510	5.53
1.24177	5.53
1.25843	5.53
1.27510	5.53
1.29177	5.53
1.30843	5.53
1.32510	5.53
1.34177	5.53
1.35843	5.53
1.37510	5.53
1.39177	5.53
1.40843	5.53
1.42510	5.53
1.44177	5.53
1.45843	5.53
1.47510	5.53
1.49177	5.53
1.50843	5.53
1.52510	5.53
1.54177	5.53
1.55843	5.53
1.57510	5.53
1.59177	5.53
1.60843	5.53
1.62510	5.52
1.64177	5.52
1.65843	5.51
1.67510	5.50
1.69177	5.49
1.70843	5.48
1.72510	5.47
1.74177	5.46
1.75843	5.45
1.77510	5.44
1.79177	5.43
1.80843	5.42
1.82510	5.41
1.84177	5.40
1.85843	5.38
1.87510	5.38
1.89177	5.37
1.90843	5.36
1.92510	5.35
1.94177	5.34
1.95843	5.33
1.97510	5.32
1.99177	5.31
2.00843	5.30
2.02510	5.29
2.04177	5.28
2.05843	5.27
2.07510	5.26
2.09177	5.25
2.10843	5.24
2.12510	5.23
2.14177	5.22
2.15843	5.21
2.17510	5.20
2.19177	5.19
2.20843	5.18
2.22510	5.18
2.24177	5.17
2.25843	5.16
2.27510	5.15
2.29177	5.14
2.30843	5.13
2.32510	5.12
2.34177	5.11
2.35843	5.10
2.37510	5.10
2.39177	5.09
2.40843	5.09
2.42510	5.09
2.44177	5.09
2.45843	5.09
2.47510	5.09
2.49177	5.09
2.50843	5.09
2.52510	5.09
2.54177	5.09
2.55843	5.09
2.57510	5.09
2.59177	5.09
2.60843	5.09
2.62510	5.09
2.64177	5.09
2.65843	5.09
2.67510	5.09
2.69177	5.09
2.70843	5.09
2.72510	5.09
2.74177	5.09
2.75843	5.09
2.77510	5.09
2.79177	5.09
2.80843	5.09
2.82510	5.09
2.84177	5.09
2.85843	5.09
2.87510	5.09
2.89177	5.09
2.90843	5.09
2.92510	5.09
2.94177	5.09
2.95843	5.09
2.97510	5.09
2.99177	5.09
3.00843	5.09
3.02510	5.09
3.04177	5.09
3.05843	5.09
3.07510	5.09
3.09177	5.08
3.10843	5.08
3.12510	5.08
3.14177	5.08
3.15843	5.08
3.17510	5.08
3.19177	5.08
3.20843	5.08
3.22510	5.08
3.24177	5.08
3.25843	5.08
3.27510	5.08
3.29177	5.08
3.30843	5.09
3.32510	5.09
3.34177	5.09
3.35843	5.09
3.37510	5.09
3.39177	5.09
3.40843	5.09
3.42510	5.09
3.44177	5.09
3.45843	5.09
3.47510	5.09
3.49177	5.08
3.50843	5.08
3.52510	5.08
3.54177	5.08
3.55843	5.08
3.57510	5.08
3.59177	5.08
3.60843	5.08
3.62510	5.08
3.64177	5.08
3.65843	5.08
3.67510	5.08
3.69177	5.08
3.70843	5.08
3.72510	5.08
3.74177	5.08
3.75843	5.08
3.77510	5.08
3.79177	5.08
3.80843	5.08
3.82510	5.08
3.84177	5.08
3.85843	5.08
3.87510	5.08
3.89177	5.08
3.90843	5.08
3.92510	5.08
3.94177	5.08
3.95843	5.08
3.97510	5.08
3.99177	5.08

[Status Trace (Linear Velocity)]
Interval(msec)	1000
# of Points	240
Start Time(min)	0.008
End Time(min)	3.992
Intensity Units	
Intensity Multiplier	1
R.Time (min)	Intensity
0.00843	39.02
0.02510	37.30
0.04177	38.41
0.05843	39.82
0.07510	39.99
0.09177	39.08
0.10843	39.00
0.12510	39.02
0.14177	39.02
0.15843	39.02
0.17510	39.01
0.19177	39.01
0.20843	39.01
0.22510	39.01
0.24177	39.02
0.25843	39.02
0.27510	39.02
0.29177	39.02
0.30843	39.02
0.32510	39.02
0.34177	39.02
0.35843	39.01
0.37510	39.01
0.39177	39.02
0.40843	39.02
0.42510	39.02
0.44177	39.02
0.45843	39.02
0.47510	39.02
0.49177	39.02
0.50843	39.02
0.52510	39.02
0.54177	39.02
0.55843	39.02
0.57510	39.02
0.59177	39.02
0.60843	39.02
0.62510	39.02
0.64177	39.02
0.65843	39.02
0.67510	39.02
0.69177	39.02
0.70843	39.02
0.72510	39.02
0.74177	39.02
0.75843	39.02
0.77510	39.02
0.79177	39.02
0.80843	39.02
0.82510	39.02
0.84177	39.02
0.85843	39.02
0.87510	39.02
0.89177	39.02
0.90843	39.02
0.92510	39.02
0.94177	39.02
0.95843	39.02
0.97510	39.02
0.99177	39.02
1.00843	39.02
1.02510	39.02
1.04177	39.02
1.05843	39.02
1.07510	39.02
1.09177	39.02
1.10843	39.02
1.12510	39.02
1.14177	39.02
1.15843	39.02
1.17510	39.02
1.19177	39.02
1.20843	39.02
1.22510	39.02
1.24177	39.02
1.25843	39.02
1.27510	39.02
1.29177	39.02
1.30843	39.02
1.32510	39.02
1.34177	39.02
1.35843	39.02
1.37510	39.02
1.39177	39.01
1.40843	39.01
1.42510	39.02
1.44177	39.02
1.45843	39.02
1.47510	39.01
1.49177	39.01
1.50843	39.02
1.52510	39.02
1.54177	39.02
1.55843	39.02
1.57510	39.02
1.59177	39.02
1.60843	39.01
1.62510	39.00
1.64177	38.99
1.65843	38.96
1.67510	38.93
1.69177	38.90
1.70843	38.86
1.72510	38.83
1.74177	38.80
1.75843	38.76
1.77510	38.73
1.79177	38.70
1.80843	38.67
1.82510	38.64
1.84177	38.61
1.85843	38.57
1.87510	38.54
1.89177	38.52
1.90843	38.48
1.92510	38.46
1.94177	38.43
1.95843	38.39
1.97510	38.36
1.99177	38.34
2.00843	38.30
2.02510	38.27
2.04177	38.24
2.05843	38.21
2.07510	38.18
2.09177	38.15
2.10843	38.12
2.12510	38.10
2.14177	38.07
2.15843	38.03
2.17510	38.01
2.19177	37.98
2.20843	37.95
2.22510	37.92
2.24177	37.89
2.25843	37.86
2.27510	37.83
2.29177	37.80
2.30843	37.77
2.32510	37.74
2.34177	37.71
2.35843	37.68
2.37510	37.66
2.39177	37.65
2.40843	37.65
2.42510	37.66
2.44177	37.66
2.45843	37.66
2.47510	37.66
2.49177	37.66
2.50843	37.65
2.52510	37.64
2.54177	37.65
2.55843	37.65
2.57510	37.65
2.59177	37.65
2.60843	37.65
2.62510	37.65
2.64177	37.65
2.65843	37.65
2.67510	37.65
2.69177	37.65
2.70843	37.65
2.72510	37.65
2.74177	37.65
2.75843	37.65
2.77510	37.65
2.79177	37.65
2.80843	37.64
2.82510	37.64
2.84177	37.64
2.85843	37.64
2.87510	37.64
2.89177	37.64
2.90843	37.64
2.92510	37.64
2.94177	37.64
2.95843	37.64
2.97510	37.64
2.99177	37.63
3.00843	37.63
3.02510	37.63
3.04177	37.63
3.05843	37.63
3.07510	37.63
3.09177	37.63
3.10843	37.63
3.12510	37.63
3.14177	37.63
3.15843	37.63
3.17510	37.63
3.19177	37.63
3.20843	37.62
3.22510	37.62
3.24177	37.63
3.25843	37.63
3.27510	37.63
3.29177	37.63
3.30843	37.63
3.32510	37.63
3.34177	37.63
3.35843	37.63
3.37510	37.63
3.39177	37.63
3.40843	37.63
3.42510	37.63
3.44177	37.63
3.45843	37.63
3.47510	37.63
3.49177	37.63
3.50843	37.63
3.52510	37.63
3.54177	37.63
3.55843	37.63
3.57510	37.63
3.59177	37.63
3.60843	37.63
3.62510	37.63
3.64177	37.63
3.65843	37.63
3.67510	37.63
3.69177	37.63
3.70843	37.63
3.72510	37.63
3.74177	37.63
3.75843	37.63
3.77510	37.63
3.79177	37.63
3.80843	37.63
3.82510	37.63
3.84177	37.63
3.85843	37.63
3.87510	37.63
3.89177	37.63
3.90843	37.63
3.92510	37.63
3.94177	37.63
3.95843	37.63
3.97510	37.63
3.99177	37.63

