[Header]
Application Name	LabSolutions
Version	5.110
Data File Name	C:\Users\User\Desktop\GC Analyses\Jack\UIC Prairie Sampling\7.9.22\220909_070.gcd
Output Date	9/28/2022
Output Time	11:29:53 AM

[File Information]
Type	Data File
Generated	9/15/2022 12:55:43 PM
Generated by	System Administrator
Modified	9/15/2022 1:00:31 PM
Modified by	System Administrator

[Sample Information]
Operator Name	System Administrator
Acquired	9/15/2022 12:56:30 PM
Sample Type	1:Standard
Level	1
Sample Name	220909_Run
Sample ID	220909_Run
ISTD Amount1	1
ISTD Amount2	1
ISTD Amount3	1
ISTD Amount4	1
ISTD Amount5	1
ISTD Amount6	1
ISTD Amount7	1
ISTD Amount8	1
ISTD Amount9	1
ISTD Amount10	1
ISTD Amount11	1
ISTD Amount12	1
ISTD Amount13	1
ISTD Amount14	1
ISTD Amount15	1
ISTD Amount16	1
ISTD Amount17	1
ISTD Amount18	1
ISTD Amount19	1
ISTD Amount20	1
ISTD Amount21	1
ISTD Amount22	1
ISTD Amount23	1
ISTD Amount24	1
ISTD Amount25	1
ISTD Amount26	1
ISTD Amount27	1
ISTD Amount28	1
ISTD Amount29	1
ISTD Amount30	1
ISTD Amount31	1
ISTD Amount32	1
Sample Amount	1
Dilution Factor	1
Vial#	1
Injection Volume	1
Injection Count	1
Bar Code	

[Original Files]
Data File	C:\Users\User\Desktop\GC Analyses\Jack\220909\220909_070.gcd
Method File	C:\LabSolutions\Data\GHG_4min_2022\ghg3_togas_w_acet_4 min_new_int.gcm
Batch File	
Report Format File	c:\LabSolutions\System\DEFAULT.lsr

[File Description]


[Configuration]
Instrument Name	C0B7VH3-Instrument1
Instrument #	1
Line #	1
# of Detectors	3
Detector ID	DET#1	DET#2	DET#3
Detector Name	FID	PTCD	ECD
# of Channels	1	1	1

[Peak Table(Ch1)]
# of Peaks	3
Peak#	R.Time	I.Time	F.Time	Area	Height	A/H	Conc.	Mark	ID#	Name	k'	Plate #	Plate Ht.	Tailing	Resolution	Sep.Factor	Area Ratio	Height Ratio	Conc. %	Norm Conc.
1	1.468	1.439	1.534	8556	3510	2.438	100.000	   	1	CO	0.000	7313	20.513	1.489	0.000	0.000	0	0	16.667	16.667
2	1.571	1.534	1.641	20640	10410	1.983	100.000	 V 	2	CH4	0.070	11519	13.022	1.122	1.614	0.000	0	0	16.667	16.667
3	1.996	1.952	2.330	2159426	1051517	2.054	400.000	   	3	CO2	0.360	17508	8.568	1.265	7.154	5.143	0	0	66.667	66.667

[Peak Table(Ch2)]
# of Peaks	0

[Peak Table(Ch3)]
# of Peaks	2
Peak#	R.Time	I.Time	F.Time	Area	Height	A/H	Conc.	Mark	ID#	Name	k'	Plate #	Plate Ht.	Tailing	Resolution	Sep.Factor	Area Ratio	Height Ratio	Conc. %	Norm Conc.
1	2.480	0.665	2.649	19728	443	44.515	0.000	   			0.000	122	1226.357	0.549	0.000	0.000	0	0	0.000	0.000
2	2.880	2.664	3.962	69624	15466	4.502	1.000	   	1	N2O	0.161	12195	12.300	1.610	0.798	0.000	0	0	100.000	100.000

[Compound Results(Ch1)]
# of IDs	6
ID#	Name	R.Time	Area	Height	Conc.	Curve	3rd	2nd	1st	Constant	Area Ratio	Height Ratio	Conc. %	Norm Conc.
1	CO	1.468	8556	3510	100.000	Linear	0.000000e+00	0.000000e+00	8.555860e+001	0.000000e+00	0	0	16.667	16.667
2	CH4	1.571	20640	10410	100.000	Linear	0.000000e+00	0.000000e+00	2.064025e+002	0.000000e+00	0	0	16.667	16.667
3	CO2	1.996	2159426	1051517	400.000	Linear	0.000000e+00	0.000000e+00	5.398564e+003	0.000000e+00	0	0	66.667	66.667
4	Ethylene	0.000	0	0	0.000	Linear	0.000000e+00	0.000000e+00	0.000000e+00	0.000000e+00	0	0	0.000	0.000
5	Acetylene	0.000	0	0	0.000	Linear	0.000000e+00	0.000000e+00	0.000000e+00	0.000000e+00	0	0	0.000	0.000
6	Ethane	0.000	0	0	0.000	Linear	0.000000e+00	0.000000e+00	0.000000e+00	0.000000e+00	0	0	0.000	0.000

[Compound Results(Ch2)]
# of IDs	5
ID#	Name	R.Time	Area	Height	Conc.	Curve	3rd	2nd	1st	Constant	Area Ratio	Height Ratio	Conc. %	Norm Conc.
1	Hydrogen	0.000	0	0	0.000	Linear	0.000000e+00	0.000000e+00	0.000000e+00	0.000000e+00	0	0	0.000	0.000
2	Oxygen	0.000	0	0	0.000	Linear	0.000000e+00	0.000000e+00	0.000000e+00	0.000000e+00	0	0	0.000	0.000
3	Nitrogen	0.000	0	0	0.000	Linear	0.000000e+00	0.000000e+00	0.000000e+00	0.000000e+00	0	0	0.000	0.000
4	Methane	0.000	0	0	0.000	Linear	0.000000e+00	0.000000e+00	0.000000e+00	0.000000e+00	0	0	0.000	0.000
5	Carbon Monoxide	0.000	0	0	0.000	Linear	0.000000e+00	0.000000e+00	0.000000e+00	0.000000e+00	0	0	0.000	0.000

[Compound Results(Ch3)]
# of IDs	2
ID#	Name	R.Time	Area	Height	Conc.	Curve	3rd	2nd	1st	Constant	Area Ratio	Height Ratio	Conc. %	Norm Conc.
1	N2O	2.880	69624	15466	1.000	Linear	0.000000e+00	0.000000e+00	6.962447e+004	0.000000e+00	0	0	100.000	100.000
2	SF6	0.000	0	0	0.000	Linear	0.000000e+00	0.000000e+00	0.000000e+00	0.000000e+00	0	0	0.000	0.000

[Group Results(Ch1)]
# of Groups	0

[Group Results(Ch2)]
# of Groups	0

[Group Results(Ch3)]
# of Groups	0

[Chromatogram (Ch1)]
Interval(msec)	220
# of Points	1091
Start Time(min)	0.002
End Time(min)	3.998
R.Time (min)	Intensity
0.00167	15
0.00533	8
0.00900	2
0.01267	-5
0.01633	-11
0.02000	-15
0.02367	-18
0.02733	-21
0.03100	-22
0.03467	-19
0.03833	-13
0.04200	-5
0.04567	4
0.04933	11
0.05300	16
0.05667	20
0.06033	22
0.06400	27
0.06767	38
0.07133	47
0.07500	49
0.07867	45
0.08233	43
0.08600	43
0.08967	43
0.09333	45
0.09700	51
0.10067	55
0.10433	55
0.10800	48
0.11167	38
0.11533	28
0.11900	22
0.12267	18
0.12633	15
0.13000	14
0.13367	14
0.13733	18
0.14100	20
0.14467	24
0.14833	32
0.15200	42
0.15567	50
0.15933	53
0.16300	49
0.16667	45
0.17033	44
0.17400	44
0.17767	44
0.18133	41
0.18500	33
0.18867	25
0.19233	20
0.19600	19
0.19967	21
0.20333	22
0.20700	20
0.21067	22
0.21433	28
0.21800	35
0.22167	40
0.22533	42
0.22900	40
0.23267	40
0.23633	43
0.24000	48
0.24367	53
0.24733	57
0.25100	59
0.25467	60
0.25833	60
0.26200	56
0.26567	50
0.26933	44
0.27300	41
0.27667	39
0.28033	37
0.28400	37
0.28767	36
0.29133	34
0.29500	31
0.29867	28
0.30233	25
0.30600	21
0.30967	19
0.31333	21
0.31700	26
0.32067	31
0.32433	35
0.32800	40
0.33167	44
0.33533	45
0.33900	45
0.34267	46
0.34633	48
0.35000	51
0.35367	54
0.35733	53
0.36100	45
0.36467	35
0.36833	26
0.37200	21
0.37567	20
0.37933	20
0.38300	20
0.38667	20
0.39033	22
0.39400	28
0.39767	30
0.40133	29
0.40500	28
0.40867	29
0.41233	33
0.41600	35
0.41967	33
0.42333	29
0.42700	31
0.43067	36
0.43433	42
0.43800	42
0.44167	36
0.44533	29
0.44900	24
0.45267	22
0.45633	20
0.46000	18
0.46367	15
0.46733	11
0.47100	9
0.47467	6
0.47833	6
0.48200	6
0.48567	7
0.48933	7
0.49300	9
0.49667	16
0.50033	23
0.50400	29
0.50767	33
0.51133	35
0.51500	33
0.51867	27
0.52233	21
0.52600	16
0.52967	8
0.53333	2
0.53700	1
0.54067	4
0.54433	11
0.54800	15
0.55167	15
0.55533	17
0.55900	22
0.56267	28
0.56633	32
0.57000	32
0.57367	29
0.57733	26
0.58100	22
0.58467	16
0.58833	9
0.59200	5
0.59567	4
0.59933	5
0.60300	8
0.60667	11
0.61033	13
0.61400	13
0.61767	11
0.62133	3
0.62500	-5
0.62867	-11
0.63233	-13
0.63600	-14
0.63967	-12
0.64333	-8
0.64700	-4
0.65067	-6
0.65433	-12
0.65800	-12
0.66167	-10
0.66533	-10
0.66900	-14
0.67267	-19
0.67633	-22
0.68000	-21
0.68367	-19
0.68733	-21
0.69100	-23
0.69467	-22
0.69833	-20
0.70200	-17
0.70567	-12
0.70933	-7
0.71300	-6
0.71667	-7
0.72033	-8
0.72400	-12
0.72767	-12
0.73133	-7
0.73500	-4
0.73867	-4
0.74233	-4
0.74600	2
0.74967	6
0.75333	5
0.75700	-3
0.76067	-12
0.76433	-17
0.76800	-19
0.77167	-22
0.77533	-29
0.77900	-35
0.78267	-36
0.78633	-35
0.79000	-33
0.79367	-30
0.79733	-32
0.80100	-34
0.80467	-33
0.80833	-27
0.81200	-19
0.81567	-15
0.81933	-15
0.82300	-16
0.82667	-15
0.83033	-13
0.83400	-11
0.83767	-11
0.84133	-14
0.84500	-21
0.84867	-28
0.85233	-33
0.85600	-34
0.85967	-35
0.86333	-37
0.86700	-40
0.87067	-44
0.87433	-50
0.87800	-54
0.88167	-57
0.88533	-55
0.88900	-46
0.89267	-37
0.89633	-34
0.90000	-34
0.90367	-35
0.90733	-35
0.91100	-38
0.91467	-41
0.91833	-41
0.92200	-41
0.92567	-38
0.92933	-36
0.93300	-35
0.93667	-35
0.94033	-37
0.94400	-37
0.94767	-38
0.95133	-40
0.95500	-44
0.95867	-51
0.96233	-57
0.96600	-60
0.96967	-60
0.97333	-58
0.97700	-52
0.98067	-45
0.98433	-36
0.98800	-32
0.99167	-34
0.99533	-40
0.99900	-44
1.00267	-45
1.00633	-47
1.01000	-49
1.01367	-49
1.01733	-49
1.02100	-45
1.02467	-40
1.02833	-37
1.03200	-36
1.03567	-35
1.03933	-36
1.04300	-37
1.04667	-39
1.05033	-42
1.05400	-42
1.05767	-39
1.06133	-37
1.06500	-35
1.06867	-34
1.07233	-34
1.07600	-35
1.07967	-37
1.08333	-40
1.08700	-42
1.09067	-40
1.09433	-36
1.09800	-37
1.10167	-42
1.10533	-47
1.10900	-49
1.11267	-50
1.11633	-53
1.12000	-53
1.12367	-52
1.12733	-52
1.13100	-50
1.13467	-50
1.13833	-50
1.14200	-49
1.14567	-46
1.14933	-46
1.15300	-50
1.15667	-51
1.16033	-51
1.16400	-51
1.16767	-52
1.17133	-53
1.17500	-53
1.17867	-54
1.18233	-54
1.18600	-55
1.18967	-58
1.19333	-61
1.19700	-68
1.20067	-76
1.20433	-80
1.20800	-78
1.21167	-72
1.21533	-66
1.21900	-59
1.22267	-56
1.22633	-56
1.23000	-60
1.23367	-63
1.23733	-64
1.24100	-65
1.24467	-66
1.24833	-66
1.25200	-61
1.25567	-55
1.25933	-50
1.26300	-49
1.26667	-50
1.27033	-49
1.27400	-51
1.27767	-58
1.28133	-64
1.28500	-67
1.28867	-69
1.29233	-68
1.29600	-68
1.29967	-64
1.30333	-60
1.30700	-54
1.31067	-48
1.31433	-43
1.31800	-40
1.32167	-41
1.32533	-46
1.32900	-54
1.33267	-63
1.33633	-69
1.34000	-69
1.34367	-67
1.34733	-67
1.35100	-68
1.35467	-69
1.35833	-69
1.36200	-67
1.36567	-61
1.36933	-58
1.37300	-59
1.37667	-62
1.38033	-64
1.38400	-64
1.38767	-64
1.39133	-66
1.39500	-70
1.39867	-72
1.40233	-71
1.40600	-67
1.40967	-65
1.41333	-62
1.41700	-58
1.42067	-54
1.42433	-52
1.42800	-54
1.43167	-58
1.43533	-61
1.43900	-35
1.44267	139
1.44633	617
1.45000	1334
1.45367	2085
1.45733	2715
1.46100	3145
1.46467	3386
1.46833	3461
1.47200	3385
1.47567	3180
1.47933	2882
1.48300	2521
1.48667	2131
1.49033	1744
1.49400	1385
1.49767	1070
1.50133	802
1.50500	584
1.50867	412
1.51233	279
1.51600	175
1.51967	90
1.52333	26
1.52700	-21
1.53067	-55
1.53433	-73
1.53800	-26
1.54167	250
1.54533	1041
1.54900	2515
1.55267	4478
1.55633	6506
1.56000	8256
1.56367	9554
1.56733	10288
1.57100	10314
1.57467	9558
1.57833	8160
1.58200	6459
1.58567	4795
1.58933	3382
1.59300	2289
1.59667	1494
1.60033	942
1.60400	571
1.60767	325
1.61133	163
1.61500	59
1.61867	-6
1.62233	-47
1.62600	-74
1.62967	-94
1.63333	-110
1.63700	-122
1.64067	-128
1.64433	-132
1.64800	-135
1.65167	-139
1.65533	-141
1.65900	-142
1.66267	-143
1.66633	-144
1.67000	-144
1.67367	-143
1.67733	-138
1.68100	-134
1.68467	-131
1.68833	-129
1.69200	-128
1.69567	-125
1.69933	-120
1.70300	-116
1.70667	-117
1.71033	-118
1.71400	-124
1.71767	-133
1.72133	-139
1.72500	-141
1.72867	-142
1.73233	-141
1.73600	-141
1.73967	-140
1.74333	-137
1.74700	-133
1.75067	-131
1.75433	-126
1.75800	-122
1.76167	-118
1.76533	-112
1.76900	-107
1.77267	-105
1.77633	-106
1.78000	-105
1.78367	-103
1.78733	-102
1.79100	-105
1.79467	-113
1.79833	-121
1.80200	-125
1.80567	-122
1.80933	-118
1.81300	-114
1.81667	-112
1.82033	-110
1.82400	-107
1.82767	-102
1.83133	-98
1.83500	-100
1.83867	-107
1.84233	-116
1.84600	-124
1.84967	-132
1.85333	-136
1.85700	-137
1.86067	-135
1.86433	-129
1.86800	-121
1.87167	-117
1.87533	-115
1.87900	-116
1.88267	-118
1.88633	-120
1.89000	-122
1.89367	-122
1.89733	-119
1.90100	-117
1.90467	-116
1.90833	-115
1.91200	-116
1.91567	-120
1.91933	-122
1.92300	-116
1.92667	-104
1.93033	-88
1.93400	-80
1.93767	-82
1.94133	-92
1.94500	-107
1.94867	-120
1.95233	-104
1.95600	61
1.95967	1042
1.96333	5560
1.96700	21459
1.97067	64491
1.97433	154278
1.97800	300784
1.98167	491192
1.98533	693108
1.98900	870345
1.99267	995337
1.99633	1051436
2.00000	1032962
2.00367	946708
2.00733	811897
2.01100	654792
2.01467	500321
2.01833	365644
2.02200	258238
2.02567	178039
2.02933	120919
2.03300	81560
2.03667	55033
2.04033	37398
2.04400	25747
2.04767	18056
2.05133	12947
2.05500	9516
2.05867	7176
2.06233	5553
2.06600	4405
2.06967	3578
2.07333	2973
2.07700	2517
2.08067	2165
2.08433	1889
2.08800	1670
2.09167	1488
2.09533	1335
2.09900	1204
2.10267	1095
2.10633	1005
2.11000	929
2.11367	863
2.11733	802
2.12100	746
2.12467	694
2.12833	646
2.13200	606
2.13567	570
2.13933	539
2.14300	511
2.14667	485
2.15033	464
2.15400	445
2.15767	426
2.16133	404
2.16500	385
2.16867	368
2.17233	354
2.17600	341
2.17967	330
2.18333	321
2.18700	317
2.19067	314
2.19433	310
2.19800	301
2.20167	287
2.20533	270
2.20900	251
2.21267	234
2.21633	222
2.22000	214
2.22367	210
2.22733	211
2.23100	208
2.23467	199
2.23833	185
2.24200	173
2.24567	162
2.24933	153
2.25300	148
2.25667	146
2.26033	145
2.26400	146
2.26767	150
2.27133	155
2.27500	157
2.27867	156
2.28233	153
2.28600	149
2.28967	145
2.29333	140
2.29700	133
2.30067	128
2.30433	124
2.30800	123
2.31167	120
2.31533	115
2.31900	109
2.32267	103
2.32633	99
2.33000	97
2.33367	93
2.33733	90
2.34100	85
2.34467	80
2.34833	79
2.35200	86
2.35567	95
2.35933	99
2.36300	98
2.36667	95
2.37033	90
2.37400	83
2.37767	78
2.38133	74
2.38500	73
2.38867	73
2.39233	71
2.39600	66
2.39967	61
2.40333	58
2.40700	57
2.41067	61
2.41433	67
2.41800	72
2.42167	74
2.42533	77
2.42900	79
2.43267	76
2.43633	70
2.44000	65
2.44367	65
2.44733	69
2.45100	73
2.45467	77
2.45833	77
2.46200	73
2.46567	65
2.46933	58
2.47300	52
2.47667	48
2.48033	48
2.48400	51
2.48767	53
2.49133	52
2.49500	48
2.49867	44
2.50233	40
2.50600	35
2.50967	31
2.51333	26
2.51700	22
2.52067	20
2.52433	23
2.52800	28
2.53167	34
2.53533	37
2.53900	36
2.54267	29
2.54633	21
2.55000	12
2.55367	6
2.55733	6
2.56100	7
2.56467	9
2.56833	13
2.57200	16
2.57567	18
2.57933	18
2.58300	15
2.58667	10
2.59033	6
2.59400	3
2.59767	2
2.60133	6
2.60500	13
2.60867	16
2.61233	14
2.61600	14
2.61967	12
2.62333	9
2.62700	6
2.63067	-0
2.63433	-5
2.63800	-9
2.64167	-12
2.64533	-14
2.64900	-16
2.65267	-17
2.65633	-18
2.66000	-21
2.66367	-19
2.66733	-18
2.67100	-20
2.67467	-21
2.67833	-17
2.68200	-11
2.68567	-10
2.68933	-11
2.69300	-14
2.69667	-15
2.70033	-9
2.70400	-4
2.70767	-6
2.71133	-9
2.71500	-10
2.71867	-12
2.72233	-17
2.72600	-22
2.72967	-27
2.73333	-29
2.73700	-29
2.74067	-24
2.74433	-23
2.74800	-23
2.75167	-25
2.75533	-28
2.75900	-31
2.76267	-34
2.76633	-37
2.77000	-38
2.77367	-36
2.77733	-34
2.78100	-30
2.78467	-28
2.78833	-26
2.79200	-25
2.79567	-22
2.79933	-23
2.80300	-27
2.80667	-33
2.81033	-38
2.81400	-39
2.81767	-39
2.82133	-36
2.82500	-33
2.82867	-30
2.83233	-25
2.83600	-19
2.83967	-14
2.84333	-12
2.84700	-14
2.85067	-19
2.85433	-27
2.85800	-32
2.86167	-33
2.86533	-32
2.86900	-33
2.87267	-36
2.87633	-38
2.88000	-40
2.88367	-39
2.88733	-33
2.89100	-24
2.89467	-21
2.89833	-24
2.90200	-26
2.90567	-23
2.90933	-17
2.91300	-12
2.91667	-12
2.92033	-12
2.92400	-14
2.92767	-14
2.93133	-14
2.93500	-16
2.93867	-18
2.94233	-24
2.94600	-31
2.94967	-37
2.95333	-39
2.95700	-39
2.96067	-39
2.96433	-41
2.96800	-42
2.97167	-39
2.97533	-31
2.97900	-22
2.98267	-18
2.98633	-17
2.99000	-18
2.99367	-17
2.99733	-17
3.00100	-19
3.00467	-22
3.00833	-24
3.01200	-23
3.01567	-18
3.01933	-16
3.02300	-21
3.02667	-31
3.03033	-39
3.03400	-41
3.03767	-39
3.04133	-38
3.04500	-39
3.04867	-39
3.05233	-39
3.05600	-39
3.05967	-42
3.06333	-46
3.06700	-47
3.07067	-46
3.07433	-44
3.07800	-38
3.08167	-32
3.08533	-27
3.08900	-24
3.09267	-23
3.09633	-24
3.10000	-25
3.10367	-25
3.10733	-27
3.11100	-31
3.11467	-38
3.11833	-43
3.12200	-44
3.12567	-44
3.12933	-46
3.13300	-48
3.13667	-44
3.14033	-42
3.14400	-46
3.14767	-52
3.15133	-57
3.15500	-58
3.15867	-56
3.16233	-50
3.16600	-45
3.16967	-41
3.17333	-37
3.17700	-34
3.18067	-32
3.18433	-32
3.18800	-31
3.19167	-32
3.19533	-36
3.19900	-40
3.20267	-42
3.20633	-42
3.21000	-44
3.21367	-42
3.21733	-37
3.22100	-34
3.22467	-36
3.22833	-39
3.23200	-40
3.23567	-40
3.23933	-40
3.24300	-41
3.24667	-40
3.25033	-41
3.25400	-45
3.25767	-51
3.26133	-56
3.26500	-59
3.26867	-55
3.27233	-47
3.27600	-37
3.27967	-29
3.28333	-27
3.28700	-30
3.29067	-35
3.29433	-38
3.29800	-41
3.30167	-40
3.30533	-37
3.30900	-32
3.31267	-28
3.31633	-29
3.32000	-37
3.32367	-48
3.32733	-56
3.33100	-57
3.33467	-55
3.33833	-49
3.34200	-44
3.34567	-42
3.34933	-39
3.35300	-36
3.35667	-35
3.36033	-38
3.36400	-44
3.36767	-49
3.37133	-55
3.37500	-57
3.37867	-58
3.38233	-59
3.38600	-60
3.38967	-60
3.39333	-59
3.39700	-57
3.40067	-53
3.40433	-51
3.40800	-52
3.41167	-52
3.41533	-50
3.41900	-48
3.42267	-45
3.42633	-46
3.43000	-51
3.43367	-56
3.43733	-59
3.44100	-60
3.44467	-60
3.44833	-61
3.45200	-61
3.45567	-60
3.45933	-60
3.46300	-56
3.46667	-49
3.47033	-42
3.47400	-39
3.47767	-40
3.48133	-42
3.48500	-43
3.48867	-46
3.49233	-49
3.49600	-52
3.49967	-53
3.50333	-53
3.50700	-55
3.51067	-58
3.51433	-59
3.51800	-57
3.52167	-57
3.52533	-59
3.52900	-62
3.53267	-66
3.53633	-64
3.54000	-59
3.54367	-56
3.54733	-56
3.55100	-56
3.55467	-53
3.55833	-49
3.56200	-49
3.56567	-54
3.56933	-59
3.57300	-61
3.57667	-59
3.58033	-55
3.58400	-51
3.58767	-49
3.59133	-52
3.59500	-54
3.59867	-55
3.60233	-55
3.60600	-55
3.60967	-58
3.61333	-62
3.61700	-60
3.62067	-56
3.62433	-50
3.62800	-49
3.63167	-50
3.63533	-52
3.63900	-53
3.64267	-55
3.64633	-57
3.65000	-57
3.65367	-57
3.65733	-58
3.66100	-57
3.66467	-55
3.66833	-51
3.67200	-45
3.67567	-43
3.67933	-41
3.68300	-43
3.68667	-49
3.69033	-56
3.69400	-58
3.69767	-61
3.70133	-65
3.70500	-64
3.70867	-57
3.71233	-51
3.71600	-50
3.71967	-52
3.72333	-55
3.72700	-56
3.73067	-53
3.73433	-48
3.73800	-46
3.74167	-50
3.74533	-59
3.74900	-68
3.75267	-71
3.75633	-70
3.76000	-69
3.76367	-72
3.76733	-78
3.77100	-83
3.77467	-79
3.77833	-71
3.78200	-65
3.78567	-62
3.78933	-58
3.79300	-55
3.79667	-54
3.80033	-54
3.80400	-58
3.80767	-63
3.81133	-64
3.81500	-64
3.81867	-65
3.82233	-64
3.82600	-61
3.82967	-56
3.83333	-52
3.83700	-51
3.84067	-54
3.84433	-60
3.84800	-66
3.85167	-70
3.85533	-70
3.85900	-71
3.86267	-71
3.86633	-71
3.87000	-73
3.87367	-75
3.87733	-76
3.88100	-74
3.88467	-72
3.88833	-72
3.89200	-74
3.89567	-74
3.89933	-72
3.90300	-70
3.90667	-68
3.91033	-65
3.91400	-61
3.91767	-56
3.92133	-50
3.92500	-49
3.92867	-52
3.93233	-57
3.93600	-59
3.93967	-59
3.94333	-56
3.94700	-53
3.95067	-57
3.95433	-64
3.95800	-72
3.96167	-77
3.96533	-78
3.96900	-77
3.97267	-74
3.97633	-68
3.98000	-64
3.98367	-65
3.98733	-68
3.99100	-69
3.99467	-65
3.99833	-61

[Chromatogram (Ch2)]
Interval(msec)	220
# of Points	1091
Start Time(min)	0.002
End Time(min)	3.998
R.Time (min)	Intensity
0.00167	-0
0.00533	-0
0.00900	0
0.01267	0
0.01633	0
0.02000	0
0.02367	0
0.02733	1
0.03100	1
0.03467	1
0.03833	1
0.04200	1
0.04567	1
0.04933	1
0.05300	0
0.05667	-0
0.06033	-0
0.06400	-1
0.06767	-1
0.07133	-1
0.07500	-2
0.07867	-2
0.08233	-2
0.08600	-2
0.08967	-2
0.09333	-2
0.09700	-1
0.10067	-1
0.10433	-1
0.10800	-0
0.11167	0
0.11533	0
0.11900	1
0.12267	1
0.12633	1
0.13000	1
0.13367	2
0.13733	2
0.14100	2
0.14467	2
0.14833	1
0.15200	1
0.15567	1
0.15933	0
0.16300	-0
0.16667	-1
0.17033	-1
0.17400	-1
0.17767	-1
0.18133	-1
0.18500	-0
0.18867	-0
0.19233	0
0.19600	0
0.19967	1
0.20333	1
0.20700	1
0.21067	0
0.21433	0
0.21800	-0
0.22167	-0
0.22533	-0
0.22900	-0
0.23267	-1
0.23633	-1
0.24000	-1
0.24367	-1
0.24733	-1
0.25100	-1
0.25467	-1
0.25833	-1
0.26200	-1
0.26567	-1
0.26933	-1
0.27300	-1
0.27667	-1
0.28033	-1
0.28400	-1
0.28767	-1
0.29133	-1
0.29500	-1
0.29867	-1
0.30233	-2
0.30600	-2
0.30967	-2
0.31333	-2
0.31700	-2
0.32067	-2
0.32433	-2
0.32800	-2
0.33167	-2
0.33533	-2
0.33900	-1
0.34267	-1
0.34633	-1
0.35000	-1
0.35367	-1
0.35733	-1
0.36100	-1
0.36467	-1
0.36833	-1
0.37200	-0
0.37567	-0
0.37933	-0
0.38300	-0
0.38667	-0
0.39033	-0
0.39400	-1
0.39767	-1
0.40133	-1
0.40500	-2
0.40867	-2
0.41233	-2
0.41600	-2
0.41967	-1
0.42333	-1
0.42700	-1
0.43067	-0
0.43433	-0
0.43800	-0
0.44167	0
0.44533	0
0.44900	-0
0.45267	-0
0.45633	-0
0.46000	0
0.46367	0
0.46733	0
0.47100	0
0.47467	0
0.47833	-0
0.48200	-0
0.48567	-1
0.48933	-1
0.49300	-1
0.49667	-1
0.50033	-1
0.50400	-2
0.50767	-2
0.51133	-2
0.51500	-2
0.51867	-2
0.52233	-3
0.52600	-3
0.52967	-4
0.53333	-4
0.53700	-5
0.54067	-5
0.54433	-5
0.54800	-5
0.55167	-5
0.55533	-5
0.55900	-4
0.56267	-4
0.56633	-4
0.57000	-4
0.57367	-3
0.57733	-3
0.58100	-3
0.58467	-3
0.58833	-3
0.59200	-3
0.59567	-2
0.59933	-2
0.60300	-2
0.60667	-1
0.61033	-1
0.61400	-1
0.61767	-1
0.62133	-0
0.62500	-0
0.62867	-0
0.63233	-0
0.63600	-0
0.63967	-0
0.64333	-0
0.64700	-0
0.65067	-0
0.65433	-0
0.65800	-0
0.66167	0
0.66533	0
0.66900	-0
0.67267	-0
0.67633	0
0.68000	0
0.68367	1
0.68733	0
0.69100	0
0.69467	-1
0.69833	-1
0.70200	-2
0.70567	-2
0.70933	-2
0.71300	-2
0.71667	-2
0.72033	-2
0.72400	-2
0.72767	-2
0.73133	-2
0.73500	-2
0.73867	-2
0.74233	-2
0.74600	-3
0.74967	-3
0.75333	-3
0.75700	-3
0.76067	-3
0.76433	-3
0.76800	-4
0.77167	-4
0.77533	-4
0.77900	-4
0.78267	-4
0.78633	-4
0.79000	-4
0.79367	-4
0.79733	-4
0.80100	-4
0.80467	-4
0.80833	-4
0.81200	-4
0.81567	-4
0.81933	-4
0.82300	-4
0.82667	-4
0.83033	-3
0.83400	-3
0.83767	-3
0.84133	-3
0.84500	-3
0.84867	-3
0.85233	-3
0.85600	-3
0.85967	-3
0.86333	-3
0.86700	-3
0.87067	-3
0.87433	-3
0.87800	-3
0.88167	-3
0.88533	-4
0.88900	-4
0.89267	-4
0.89633	-4
0.90000	-3
0.90367	-3
0.90733	-3
0.91100	-3
0.91467	-3
0.91833	-3
0.92200	-3
0.92567	-2
0.92933	-2
0.93300	-2
0.93667	-2
0.94033	-2
0.94400	-2
0.94767	-2
0.95133	-2
0.95500	-2
0.95867	-2
0.96233	-2
0.96600	-2
0.96967	-3
0.97333	-3
0.97700	-3
0.98067	-4
0.98433	-4
0.98800	-4
0.99167	-5
0.99533	-5
0.99900	-5
1.00267	-5
1.00633	-5
1.01000	-5
1.01367	-5
1.01733	-5
1.02100	-5
1.02467	-5
1.02833	-4
1.03200	-4
1.03567	-4
1.03933	-4
1.04300	-4
1.04667	-4
1.05033	-4
1.05400	-4
1.05767	-4
1.06133	-5
1.06500	-5
1.06867	-5
1.07233	-5
1.07600	-5
1.07967	-4
1.08333	-4
1.08700	-4
1.09067	-3
1.09433	-3
1.09800	-3
1.10167	-3
1.10533	-3
1.10900	-3
1.11267	-3
1.11633	-3
1.12000	-3
1.12367	-4
1.12733	-4
1.13100	-4
1.13467	-4
1.13833	-4
1.14200	-5
1.14567	-5
1.14933	-5
1.15300	-5
1.15667	-5
1.16033	-5
1.16400	-5
1.16767	-4
1.17133	-4
1.17500	-3
1.17867	-3
1.18233	-3
1.18600	-2
1.18967	-2
1.19333	-2
1.19700	-2
1.20067	-1
1.20433	-1
1.20800	-0
1.21167	-0
1.21533	-0
1.21900	-1
1.22267	-1
1.22633	-2
1.23000	-2
1.23367	-2
1.23733	-2
1.24100	-2
1.24467	-2
1.24833	-2
1.25200	-2
1.25567	-3
1.25933	-3
1.26300	-3
1.26667	-3
1.27033	-3
1.27400	-3
1.27767	-3
1.28133	-3
1.28500	-3
1.28867	-3
1.29233	-3
1.29600	-3
1.29967	-3
1.30333	-2
1.30700	-2
1.31067	-2
1.31433	-2
1.31800	-2
1.32167	-2
1.32533	-2
1.32900	-2
1.33267	-3
1.33633	-3
1.34000	-3
1.34367	-3
1.34733	-3
1.35100	-2
1.35467	-2
1.35833	-2
1.36200	-2
1.36567	-2
1.36933	-2
1.37300	-2
1.37667	-2
1.38033	-2
1.38400	-2
1.38767	-2
1.39133	-2
1.39500	-2
1.39867	-2
1.40233	-2
1.40600	-2
1.40967	-2
1.41333	-2
1.41700	-2
1.42067	-2
1.42433	-2
1.42800	-2
1.43167	-2
1.43533	-2
1.43900	-3
1.44267	-2
1.44633	-2
1.45000	-2
1.45367	-3
1.45733	-3
1.46100	-3
1.46467	-3
1.46833	-3
1.47200	-3
1.47567	-3
1.47933	-3
1.48300	-3
1.48667	-3
1.49033	-3
1.49400	-3
1.49767	-2
1.50133	-2
1.50500	-2
1.50867	-2
1.51233	-2
1.51600	-2
1.51967	-2
1.52333	-3
1.52700	-3
1.53067	-3
1.53433	-3
1.53800	-3
1.54167	-4
1.54533	-4
1.54900	-4
1.55267	-4
1.55633	-4
1.56000	-4
1.56367	-4
1.56733	-4
1.57100	-5
1.57467	-5
1.57833	-5
1.58200	-5
1.58567	-5
1.58933	-5
1.59300	-6
1.59667	-7
1.60033	-8
1.60400	-9
1.60767	-11
1.61133	-12
1.61500	-14
1.61867	-16
1.62233	-19
1.62600	-21
1.62967	-24
1.63333	-27
1.63700	-30
1.64067	-34
1.64433	-37
1.64800	-41
1.65167	-44
1.65533	-47
1.65900	-50
1.66267	-54
1.66633	-58
1.67000	-62
1.67367	-66
1.67733	-71
1.68100	-76
1.68467	-81
1.68833	-86
1.69200	-90
1.69567	-94
1.69933	-97
1.70300	-100
1.70667	-103
1.71033	-105
1.71400	-107
1.71767	-108
1.72133	-110
1.72500	-111
1.72867	-112
1.73233	-113
1.73600	-114
1.73967	-115
1.74333	-116
1.74700	-116
1.75067	-117
1.75433	-117
1.75800	-117
1.76167	-117
1.76533	-117
1.76900	-118
1.77267	-119
1.77633	-119
1.78000	-120
1.78367	-121
1.78733	-122
1.79100	-123
1.79467	-123
1.79833	-124
1.80200	-124
1.80567	-124
1.80933	-124
1.81300	-124
1.81667	-123
1.82033	-123
1.82400	-124
1.82767	-124
1.83133	-124
1.83500	-124
1.83867	-125
1.84233	-125
1.84600	-125
1.84967	-125
1.85333	-125
1.85700	-125
1.86067	-125
1.86433	-125
1.86800	-125
1.87167	-125
1.87533	-125
1.87900	-125
1.88267	-125
1.88633	-125
1.89000	-125
1.89367	-124
1.89733	-124
1.90100	-123
1.90467	-123
1.90833	-123
1.91200	-123
1.91567	-124
1.91933	-124
1.92300	-123
1.92667	-123
1.93033	-122
1.93400	-122
1.93767	-121
1.94133	-121
1.94500	-120
1.94867	-120
1.95233	-119
1.95600	-118
1.95967	-118
1.96333	-118
1.96700	-119
1.97067	-119
1.97433	-119
1.97800	-119
1.98167	-119
1.98533	-118
1.98900	-118
1.99267	-118
1.99633	-117
2.00000	-117
2.00367	-116
2.00733	-116
2.01100	-117
2.01467	-117
2.01833	-117
2.02200	-116
2.02567	-116
2.02933	-115
2.03300	-114
2.03667	-113
2.04033	-112
2.04400	-111
2.04767	-111
2.05133	-111
2.05500	-111
2.05867	-111
2.06233	-110
2.06600	-110
2.06967	-110
2.07333	-110
2.07700	-110
2.08067	-110
2.08433	-110
2.08800	-110
2.09167	-110
2.09533	-110
2.09900	-110
2.10267	-109
2.10633	-109
2.11000	-108
2.11367	-108
2.11733	-107
2.12100	-106
2.12467	-105
2.12833	-104
2.13200	-103
2.13567	-103
2.13933	-102
2.14300	-102
2.14667	-102
2.15033	-101
2.15400	-101
2.15767	-102
2.16133	-102
2.16500	-102
2.16867	-102
2.17233	-102
2.17600	-101
2.17967	-100
2.18333	-99
2.18700	-99
2.19067	-98
2.19433	-98
2.19800	-98
2.20167	-99
2.20533	-100
2.20900	-101
2.21267	-101
2.21633	-101
2.22000	-102
2.22367	-101
2.22733	-101
2.23100	-100
2.23467	-100
2.23833	-99
2.24200	-99
2.24567	-99
2.24933	-99
2.25300	-100
2.25667	-100
2.26033	-100
2.26400	-99
2.26767	-99
2.27133	-98
2.27500	-98
2.27867	-97
2.28233	-97
2.28600	-96
2.28967	-96
2.29333	-95
2.29700	-95
2.30067	-94
2.30433	-93
2.30800	-93
2.31167	-92
2.31533	-92
2.31900	-91
2.32267	-91
2.32633	-91
2.33000	-90
2.33367	-90
2.33733	-89
2.34100	-89
2.34467	-88
2.34833	-88
2.35200	-88
2.35567	-88
2.35933	-88
2.36300	-89
2.36667	-89
2.37033	-89
2.37400	-88
2.37767	-86
2.38133	-83
2.38500	-80
2.38867	-76
2.39233	-72
2.39600	-67
2.39967	-61
2.40333	-56
2.40700	-50
2.41067	-45
2.41433	-41
2.41800	-36
2.42167	-32
2.42533	-29
2.42900	-26
2.43267	-23
2.43633	-20
2.44000	-18
2.44367	-15
2.44733	-13
2.45100	-11
2.45467	-10
2.45833	-8
2.46200	-7
2.46567	-6
2.46933	-5
2.47300	-4
2.47667	-3
2.48033	-2
2.48400	-0
2.48767	1
2.49133	2
2.49500	3
2.49867	4
2.50233	5
2.50600	6
2.50967	6
2.51333	7
2.51700	7
2.52067	7
2.52433	8
2.52800	9
2.53167	9
2.53533	10
2.53900	10
2.54267	11
2.54633	12
2.55000	12
2.55367	13
2.55733	13
2.56100	13
2.56467	13
2.56833	13
2.57200	14
2.57567	14
2.57933	14
2.58300	14
2.58667	14
2.59033	15
2.59400	15
2.59767	16
2.60133	17
2.60500	17
2.60867	17
2.61233	18
2.61600	18
2.61967	17
2.62333	17
2.62700	17
2.63067	17
2.63433	17
2.63800	17
2.64167	17
2.64533	17
2.64900	18
2.65267	18
2.65633	19
2.66000	19
2.66367	19
2.66733	20
2.67100	20
2.67467	20
2.67833	20
2.68200	20
2.68567	20
2.68933	20
2.69300	20
2.69667	21
2.70033	21
2.70400	21
2.70767	22
2.71133	22
2.71500	22
2.71867	22
2.72233	22
2.72600	21
2.72967	21
2.73333	21
2.73700	21
2.74067	21
2.74433	21
2.74800	21
2.75167	21
2.75533	21
2.75900	22
2.76267	22
2.76633	22
2.77000	23
2.77367	23
2.77733	23
2.78100	23
2.78467	23
2.78833	23
2.79200	23
2.79567	23
2.79933	23
2.80300	23
2.80667	23
2.81033	22
2.81400	22
2.81767	22
2.82133	22
2.82500	22
2.82867	22
2.83233	22
2.83600	22
2.83967	21
2.84333	20
2.84700	17
2.85067	12
2.85433	4
2.85800	-7
2.86167	-23
2.86533	-43
2.86900	-69
2.87267	-100
2.87633	-136
2.88000	-177
2.88367	-224
2.88733	-275
2.89100	-332
2.89467	-392
2.89833	-456
2.90200	-524
2.90567	-595
2.90933	-668
2.91300	-744
2.91667	-823
2.92033	-904
2.92400	-987
2.92767	-1071
2.93133	-1157
2.93500	-1245
2.93867	-1334
2.94233	-1420
2.94600	-1494
2.94967	-1542
2.95333	-1556
2.95700	-1534
2.96067	-1480
2.96433	-1400
2.96800	-1302
2.97167	-1194
2.97533	-1082
2.97900	-970
2.98267	-863
2.98633	-761
2.99000	-668
2.99367	-583
2.99733	-506
3.00100	-438
3.00467	-378
3.00833	-325
3.01200	-278
3.01567	-238
3.01933	-203
3.02300	-173
3.02667	-147
3.03033	-125
3.03400	-106
3.03767	-89
3.04133	-75
3.04500	-63
3.04867	-53
3.05233	-45
3.05600	-37
3.05967	-31
3.06333	-26
3.06700	-21
3.07067	-17
3.07433	-14
3.07800	-11
3.08167	-8
3.08533	-5
3.08900	-3
3.09267	-1
3.09633	0
3.10000	2
3.10367	3
3.10733	4
3.11100	6
3.11467	6
3.11833	7
3.12200	8
3.12567	8
3.12933	9
3.13300	9
3.13667	9
3.14033	9
3.14400	10
3.14767	10
3.15133	10
3.15500	11
3.15867	11
3.16233	12
3.16600	12
3.16967	13
3.17333	13
3.17700	14
3.18067	15
3.18433	15
3.18800	16
3.19167	17
3.19533	17
3.19900	18
3.20267	18
3.20633	19
3.21000	19
3.21367	20
3.21733	20
3.22100	20
3.22467	21
3.22833	21
3.23200	21
3.23567	21
3.23933	21
3.24300	21
3.24667	21
3.25033	22
3.25400	22
3.25767	22
3.26133	22
3.26500	22
3.26867	22
3.27233	23
3.27600	23
3.27967	23
3.28333	23
3.28700	23
3.29067	23
3.29433	23
3.29800	24
3.30167	24
3.30533	24
3.30900	24
3.31267	24
3.31633	24
3.32000	24
3.32367	24
3.32733	23
3.33100	23
3.33467	23
3.33833	23
3.34200	23
3.34567	24
3.34933	24
3.35300	24
3.35667	24
3.36033	24
3.36400	24
3.36767	24
3.37133	23
3.37500	23
3.37867	23
3.38233	23
3.38600	23
3.38967	23
3.39333	23
3.39700	23
3.40067	23
3.40433	23
3.40800	23
3.41167	23
3.41533	23
3.41900	23
3.42267	23
3.42633	23
3.43000	23
3.43367	23
3.43733	23
3.44100	23
3.44467	23
3.44833	23
3.45200	23
3.45567	23
3.45933	23
3.46300	23
3.46667	23
3.47033	23
3.47400	23
3.47767	23
3.48133	23
3.48500	23
3.48867	23
3.49233	24
3.49600	24
3.49967	24
3.50333	24
3.50700	24
3.51067	24
3.51433	23
3.51800	23
3.52167	23
3.52533	23
3.52900	23
3.53267	23
3.53633	23
3.54000	23
3.54367	23
3.54733	23
3.55100	23
3.55467	23
3.55833	23
3.56200	24
3.56567	24
3.56933	24
3.57300	24
3.57667	25
3.58033	25
3.58400	25
3.58767	25
3.59133	25
3.59500	25
3.59867	25
3.60233	25
3.60600	25
3.60967	25
3.61333	25
3.61700	25
3.62067	25
3.62433	25
3.62800	25
3.63167	25
3.63533	25
3.63900	25
3.64267	25
3.64633	25
3.65000	25
3.65367	25
3.65733	25
3.66100	25
3.66467	25
3.66833	25
3.67200	25
3.67567	25
3.67933	24
3.68300	24
3.68667	24
3.69033	24
3.69400	24
3.69767	24
3.70133	24
3.70500	24
3.70867	24
3.71233	24
3.71600	24
3.71967	24
3.72333	24
3.72700	24
3.73067	24
3.73433	24
3.73800	24
3.74167	24
3.74533	24
3.74900	24
3.75267	25
3.75633	25
3.76000	25
3.76367	25
3.76733	25
3.77100	25
3.77467	25
3.77833	25
3.78200	25
3.78567	25
3.78933	25
3.79300	25
3.79667	25
3.80033	25
3.80400	25
3.80767	25
3.81133	25
3.81500	25
3.81867	25
3.82233	25
3.82600	25
3.82967	25
3.83333	25
3.83700	25
3.84067	25
3.84433	25
3.84800	25
3.85167	25
3.85533	25
3.85900	25
3.86267	25
3.86633	25
3.87000	25
3.87367	25
3.87733	25
3.88100	25
3.88467	25
3.88833	25
3.89200	25
3.89567	25
3.89933	25
3.90300	25
3.90667	25
3.91033	26
3.91400	26
3.91767	26
3.92133	26
3.92500	26
3.92867	26
3.93233	26
3.93600	26
3.93967	26
3.94333	26
3.94700	26
3.95067	26
3.95433	26
3.95800	25
3.96167	25
3.96533	25
3.96900	25
3.97267	26
3.97633	26
3.98000	26
3.98367	26
3.98733	25
3.99100	25
3.99467	25
3.99833	25

[Chromatogram (Ch3)]
Interval(msec)	220
# of Points	1091
Start Time(min)	0.002
End Time(min)	3.998
R.Time (min)	Intensity
0.00167	-0
0.00533	1
0.00900	-0
0.01267	-1
0.01633	-1
0.02000	-1
0.02367	-1
0.02733	1
0.03100	4
0.03467	6
0.03833	7
0.04200	9
0.04567	7
0.04933	4
0.05300	3
0.05667	5
0.06033	5
0.06400	6
0.06767	5
0.07133	4
0.07500	4
0.07867	5
0.08233	4
0.08600	5
0.08967	7
0.09333	8
0.09700	7
0.10067	7
0.10433	6
0.10800	6
0.11167	5
0.11533	5
0.11900	4
0.12267	4
0.12633	5
0.13000	7
0.13367	6
0.13733	5
0.14100	6
0.14467	7
0.14833	7
0.15200	8
0.15567	9
0.15933	10
0.16300	10
0.16667	10
0.17033	9
0.17400	6
0.17767	4
0.18133	3
0.18500	3
0.18867	3
0.19233	4
0.19600	6
0.19967	6
0.20333	6
0.20700	6
0.21067	5
0.21433	3
0.21800	2
0.22167	2
0.22533	2
0.22900	2
0.23267	3
0.23633	3
0.24000	4
0.24367	4
0.24733	4
0.25100	2
0.25467	0
0.25833	-0
0.26200	-1
0.26567	-2
0.26933	-3
0.27300	-3
0.27667	-3
0.28033	-2
0.28400	-3
0.28767	-5
0.29133	-5
0.29500	-4
0.29867	-5
0.30233	-5
0.30600	-6
0.30967	-6
0.31333	-5
0.31700	-3
0.32067	-2
0.32433	-4
0.32800	-3
0.33167	-1
0.33533	1
0.33900	4
0.34267	3
0.34633	2
0.35000	2
0.35367	1
0.35733	2
0.36100	0
0.36467	-2
0.36833	-1
0.37200	-1
0.37567	-2
0.37933	-2
0.38300	-1
0.38667	0
0.39033	0
0.39400	-1
0.39767	-1
0.40133	-2
0.40500	-3
0.40867	-3
0.41233	-4
0.41600	-3
0.41967	-1
0.42333	-2
0.42700	-4
0.43067	-6
0.43433	-5
0.43800	-1
0.44167	0
0.44533	-0
0.44900	0
0.45267	1
0.45633	1
0.46000	1
0.46367	2
0.46733	4
0.47100	5
0.47467	3
0.47833	0
0.48200	-1
0.48567	-3
0.48933	-4
0.49300	-5
0.49667	-6
0.50033	-5
0.50400	-4
0.50767	-4
0.51133	-3
0.51500	-3
0.51867	-3
0.52233	-2
0.52600	-2
0.52967	-0
0.53333	1
0.53700	1
0.54067	1
0.54433	0
0.54800	-2
0.55167	-3
0.55533	-4
0.55900	-4
0.56267	-4
0.56633	-3
0.57000	-2
0.57367	-2
0.57733	-0
0.58100	3
0.58467	4
0.58833	5
0.59200	5
0.59567	4
0.59933	2
0.60300	-0
0.60667	-3
0.61033	-4
0.61400	-3
0.61767	-2
0.62133	-1
0.62500	-2
0.62867	-1
0.63233	-0
0.63600	2
0.63967	1
0.64333	-1
0.64700	-1
0.65067	-0
0.65433	-1
0.65800	-2
0.66167	-3
0.66533	-3
0.66900	-2
0.67267	-1
0.67633	0
0.68000	1
0.68367	2
0.68733	5
0.69100	5
0.69467	4
0.69833	4
0.70200	4
0.70567	2
0.70933	2
0.71300	3
0.71667	6
0.72033	7
0.72400	6
0.72767	3
0.73133	1
0.73500	1
0.73867	0
0.74233	0
0.74600	1
0.74967	1
0.75333	1
0.75700	2
0.76067	3
0.76433	2
0.76800	2
0.77167	4
0.77533	6
0.77900	8
0.78267	9
0.78633	7
0.79000	7
0.79367	7
0.79733	7
0.80100	6
0.80467	5
0.80833	4
0.81200	5
0.81567	5
0.81933	6
0.82300	6
0.82667	7
0.83033	7
0.83400	5
0.83767	6
0.84133	8
0.84500	9
0.84867	8
0.85233	7
0.85600	9
0.85967	10
0.86333	10
0.86700	9
0.87067	8
0.87433	8
0.87800	7
0.88167	6
0.88533	7
0.88900	9
0.89267	11
0.89633	12
0.90000	13
0.90367	10
0.90733	9
0.91100	8
0.91467	9
0.91833	11
0.92200	12
0.92567	13
0.92933	15
0.93300	14
0.93667	13
0.94033	12
0.94400	13
0.94767	14
0.95133	13
0.95500	11
0.95867	10
0.96233	9
0.96600	9
0.96967	8
0.97333	9
0.97700	10
0.98067	11
0.98433	11
0.98800	13
0.99167	13
0.99533	11
0.99900	11
1.00267	15
1.00633	17
1.01000	18
1.01367	18
1.01733	17
1.02100	14
1.02467	14
1.02833	14
1.03200	15
1.03567	16
1.03933	16
1.04300	16
1.04667	17
1.05033	17
1.05400	17
1.05767	17
1.06133	16
1.06500	14
1.06867	14
1.07233	13
1.07600	15
1.07967	18
1.08333	20
1.08700	20
1.09067	18
1.09433	18
1.09800	18
1.10167	19
1.10533	19
1.10900	17
1.11267	17
1.11633	17
1.12000	16
1.12367	15
1.12733	15
1.13100	14
1.13467	13
1.13833	13
1.14200	15
1.14567	17
1.14933	19
1.15300	20
1.15667	22
1.16033	22
1.16400	21
1.16767	21
1.17133	20
1.17500	19
1.17867	20
1.18233	20
1.18600	20
1.18967	19
1.19333	18
1.19700	18
1.20067	17
1.20433	17
1.20800	18
1.21167	18
1.21533	18
1.21900	19
1.22267	20
1.22633	21
1.23000	23
1.23367	24
1.23733	25
1.24100	24
1.24467	23
1.24833	24
1.25200	25
1.25567	27
1.25933	28
1.26300	25
1.26667	21
1.27033	20
1.27400	21
1.27767	21
1.28133	22
1.28500	24
1.28867	25
1.29233	26
1.29600	24
1.29967	22
1.30333	22
1.30700	21
1.31067	22
1.31433	23
1.31800	24
1.32167	27
1.32533	29
1.32900	29
1.33267	29
1.33633	27
1.34000	26
1.34367	26
1.34733	26
1.35100	27
1.35467	28
1.35833	27
1.36200	27
1.36567	28
1.36933	28
1.37300	29
1.37667	30
1.38033	29
1.38400	29
1.38767	30
1.39133	29
1.39500	27
1.39867	25
1.40233	23
1.40600	22
1.40967	22
1.41333	23
1.41700	27
1.42067	30
1.42433	30
1.42800	30
1.43167	31
1.43533	32
1.43900	31
1.44267	32
1.44633	33
1.45000	34
1.45367	36
1.45733	36
1.46100	35
1.46467	35
1.46833	35
1.47200	35
1.47567	33
1.47933	32
1.48300	32
1.48667	32
1.49033	33
1.49400	33
1.49767	34
1.50133	35
1.50500	34
1.50867	34
1.51233	34
1.51600	33
1.51967	32
1.52333	33
1.52700	35
1.53067	36
1.53433	36
1.53800	34
1.54167	32
1.54533	32
1.54900	29
1.55267	30
1.55633	33
1.56000	34
1.56367	35
1.56733	35
1.57100	35
1.57467	35
1.57833	34
1.58200	35
1.58567	36
1.58933	38
1.59300	38
1.59667	37
1.60033	36
1.60400	37
1.60767	38
1.61133	40
1.61500	42
1.61867	43
1.62233	44
1.62600	42
1.62967	41
1.63333	40
1.63700	40
1.64067	38
1.64433	39
1.64800	41
1.65167	41
1.65533	41
1.65900	43
1.66267	44
1.66633	45
1.67000	46
1.67367	46
1.67733	48
1.68100	49
1.68467	50
1.68833	52
1.69200	54
1.69567	55
1.69933	58
1.70300	58
1.70667	58
1.71033	58
1.71400	58
1.71767	58
1.72133	58
1.72500	58
1.72867	58
1.73233	60
1.73600	61
1.73967	61
1.74333	61
1.74700	62
1.75067	63
1.75433	63
1.75800	64
1.76167	67
1.76533	70
1.76900	72
1.77267	72
1.77633	71
1.78000	71
1.78367	72
1.78733	74
1.79100	74
1.79467	73
1.79833	73
1.80200	77
1.80567	78
1.80933	79
1.81300	81
1.81667	82
1.82033	83
1.82400	85
1.82767	85
1.83133	86
1.83500	86
1.83867	88
1.84233	90
1.84600	92
1.84967	93
1.85333	95
1.85700	95
1.86067	95
1.86433	95
1.86800	95
1.87167	95
1.87533	94
1.87900	93
1.88267	93
1.88633	94
1.89000	96
1.89367	100
1.89733	99
1.90100	98
1.90467	97
1.90833	98
1.91200	101
1.91567	103
1.91933	103
1.92300	104
1.92667	104
1.93033	104
1.93400	106
1.93767	108
1.94133	108
1.94500	111
1.94867	114
1.95233	116
1.95600	116
1.95967	115
1.96333	114
1.96700	114
1.97067	115
1.97433	117
1.97800	120
1.98167	122
1.98533	123
1.98900	126
1.99267	128
1.99633	129
2.00000	132
2.00367	133
2.00733	133
2.01100	132
2.01467	132
2.01833	133
2.02200	135
2.02567	136
2.02933	135
2.03300	135
2.03667	136
2.04033	138
2.04400	141
2.04767	145
2.05133	147
2.05500	149
2.05867	150
2.06233	151
2.06600	151
2.06967	153
2.07333	154
2.07700	156
2.08067	157
2.08433	159
2.08800	159
2.09167	163
2.09533	167
2.09900	170
2.10267	172
2.10633	174
2.11000	176
2.11367	178
2.11733	181
2.12100	183
2.12467	184
2.12833	183
2.13200	184
2.13567	185
2.13933	186
2.14300	187
2.14667	187
2.15033	185
2.15400	188
2.15767	194
2.16133	199
2.16500	201
2.16867	202
2.17233	205
2.17600	208
2.17967	209
2.18333	208
2.18700	207
2.19067	208
2.19433	211
2.19800	214
2.20167	217
2.20533	218
2.20900	218
2.21267	219
2.21633	219
2.22000	216
2.22367	218
2.22733	222
2.23100	225
2.23467	227
2.23833	230
2.24200	232
2.24567	230
2.24933	228
2.25300	229
2.25667	231
2.26033	234
2.26400	236
2.26767	237
2.27133	235
2.27500	237
2.27867	240
2.28233	242
2.28600	242
2.28967	242
2.29333	245
2.29700	249
2.30067	253
2.30433	255
2.30800	254
2.31167	254
2.31533	257
2.31900	258
2.32267	260
2.32633	262
2.33000	263
2.33367	264
2.33733	264
2.34100	266
2.34467	269
2.34833	274
2.35200	277
2.35567	279
2.35933	279
2.36300	280
2.36667	284
2.37033	289
2.37400	291
2.37767	291
2.38133	289
2.38500	286
2.38867	282
2.39233	282
2.39600	283
2.39967	286
2.40333	288
2.40700	290
2.41067	294
2.41433	299
2.41800	300
2.42167	302
2.42533	303
2.42900	305
2.43267	307
2.43633	309
2.44000	309
2.44367	311
2.44733	314
2.45100	317
2.45467	316
2.45833	315
2.46200	316
2.46567	318
2.46933	320
2.47300	320
2.47667	319
2.48033	320
2.48400	319
2.48767	318
2.49133	319
2.49500	318
2.49867	317
2.50233	315
2.50600	311
2.50967	306
2.51333	302
2.51700	297
2.52067	295
2.52433	293
2.52800	291
2.53167	290
2.53533	289
2.53900	286
2.54267	283
2.54633	281
2.55000	281
2.55367	281
2.55733	279
2.56100	276
2.56467	272
2.56833	268
2.57200	267
2.57567	266
2.57933	264
2.58300	260
2.58667	259
2.59033	258
2.59400	254
2.59767	243
2.60133	226
2.60500	203
2.60867	173
2.61233	136
2.61600	93
2.61967	50
2.62333	9
2.62700	-28
2.63067	-61
2.63433	-86
2.63800	-104
2.64167	-118
2.64533	-128
2.64900	-135
2.65267	-137
2.65633	-137
2.66000	-136
2.66367	-134
2.66733	-129
2.67100	-123
2.67467	-115
2.67833	-107
2.68200	-99
2.68567	-91
2.68933	-83
2.69300	-74
2.69667	-68
2.70033	-60
2.70400	-51
2.70767	-42
2.71133	-33
2.71500	-26
2.71867	-21
2.72233	-16
2.72600	-9
2.72967	-1
2.73333	5
2.73700	8
2.74067	11
2.74433	15
2.74800	22
2.75167	28
2.75533	36
2.75900	43
2.76267	49
2.76633	54
2.77000	58
2.77367	62
2.77733	65
2.78100	69
2.78467	71
2.78833	74
2.79200	78
2.79567	79
2.79933	82
2.80300	83
2.80667	86
2.81033	91
2.81400	96
2.81767	104
2.82133	124
2.82500	170
2.82867	272
2.83233	478
2.83600	849
2.83967	1444
2.84333	2310
2.84700	3479
2.85067	4938
2.85433	6622
2.85800	8430
2.86167	10243
2.86533	11933
2.86900	13367
2.87267	14450
2.87633	15117
2.88000	15360
2.88367	15210
2.88733	14728
2.89100	13990
2.89467	13071
2.89833	12049
2.90200	10986
2.90567	9927
2.90933	8905
2.91300	7943
2.91667	7052
2.92033	6239
2.92400	5503
2.92767	4842
2.93133	4249
2.93500	3720
2.93867	3252
2.94233	2839
2.94600	2480
2.94967	2166
2.95333	1892
2.95700	1653
2.96067	1444
2.96433	1261
2.96800	1104
2.97167	969
2.97533	851
2.97900	748
2.98267	660
2.98633	585
2.99000	522
2.99367	467
2.99733	419
3.00100	377
3.00467	340
3.00833	310
3.01200	285
3.01567	262
3.01933	242
3.02300	225
3.02667	210
3.03033	197
3.03400	185
3.03767	175
3.04133	166
3.04500	159
3.04867	155
3.05233	151
3.05600	149
3.05967	147
3.06333	142
3.06700	137
3.07067	133
3.07433	133
3.07800	132
3.08167	130
3.08533	127
3.08900	126
3.09267	125
3.09633	125
3.10000	125
3.10367	125
3.10733	126
3.11100	126
3.11467	126
3.11833	124
3.12200	122
3.12567	122
3.12933	122
3.13300	122
3.13667	122
3.14033	122
3.14400	123
3.14767	124
3.15133	124
3.15500	123
3.15867	122
3.16233	122
3.16600	123
3.16967	126
3.17333	126
3.17700	126
3.18067	127
3.18433	127
3.18800	125
3.19167	123
3.19533	125
3.19900	129
3.20267	130
3.20633	131
3.21000	131
3.21367	130
3.21733	129
3.22100	130
3.22467	129
3.22833	128
3.23200	127
3.23567	127
3.23933	128
3.24300	128
3.24667	131
3.25033	132
3.25400	131
3.25767	129
3.26133	129
3.26500	130
3.26867	131
3.27233	132
3.27600	133
3.27967	133
3.28333	134
3.28700	137
3.29067	137
3.29433	135
3.29800	131
3.30167	129
3.30533	131
3.30900	133
3.31267	134
3.31633	133
3.32000	132
3.32367	132
3.32733	133
3.33100	133
3.33467	130
3.33833	130
3.34200	130
3.34567	133
3.34933	134
3.35300	135
3.35667	135
3.36033	135
3.36400	133
3.36767	130
3.37133	131
3.37500	132
3.37867	129
3.38233	126
3.38600	125
3.38967	126
3.39333	126
3.39700	128
3.40067	131
3.40433	133
3.40800	131
3.41167	127
3.41533	126
3.41900	125
3.42267	123
3.42633	122
3.43000	117
3.43367	116
3.43733	117
3.44100	118
3.44467	118
3.44833	117
3.45200	116
3.45567	113
3.45933	112
3.46300	113
3.46667	114
3.47033	115
3.47400	115
3.47767	113
3.48133	112
3.48500	111
3.48867	112
3.49233	111
3.49600	110
3.49967	110
3.50333	109
3.50700	106
3.51067	103
3.51433	103
3.51800	103
3.52167	105
3.52533	105
3.52900	103
3.53267	99
3.53633	97
3.54000	98
3.54367	98
3.54733	97
3.55100	98
3.55467	99
3.55833	99
3.56200	99
3.56567	98
3.56933	95
3.57300	95
3.57667	97
3.58033	97
3.58400	96
3.58767	96
3.59133	95
3.59500	93
3.59867	91
3.60233	88
3.60600	86
3.60967	85
3.61333	85
3.61700	83
3.62067	81
3.62433	80
3.62800	80
3.63167	80
3.63533	79
3.63900	78
3.64267	76
3.64633	74
3.65000	76
3.65367	77
3.65733	75
3.66100	73
3.66467	74
3.66833	76
3.67200	78
3.67567	78
3.67933	76
3.68300	75
3.68667	75
3.69033	71
3.69400	67
3.69767	68
3.70133	69
3.70500	69
3.70867	69
3.71233	68
3.71600	68
3.71967	68
3.72333	66
3.72700	64
3.73067	64
3.73433	66
3.73800	66
3.74167	66
3.74533	66
3.74900	64
3.75267	63
3.75633	61
3.76000	61
3.76367	58
3.76733	58
3.77100	59
3.77467	60
3.77833	59
3.78200	58
3.78567	58
3.78933	56
3.79300	55
3.79667	54
3.80033	53
3.80400	50
3.80767	48
3.81133	48
3.81500	48
3.81867	49
3.82233	49
3.82600	50
3.82967	51
3.83333	51
3.83700	51
3.84067	48
3.84433	46
3.84800	45
3.85167	45
3.85533	44
3.85900	44
3.86267	45
3.86633	45
3.87000	44
3.87367	43
3.87733	43
3.88100	42
3.88467	41
3.88833	39
3.89200	38
3.89567	39
3.89933	39
3.90300	40
3.90667	40
3.91033	40
3.91400	40
3.91767	39
3.92133	38
3.92500	38
3.92867	39
3.93233	40
3.93600	40
3.93967	39
3.94333	38
3.94700	36
3.95067	35
3.95433	36
3.95800	36
3.96167	33
3.96533	31
3.96900	30
3.97267	29
3.97633	29
3.98000	31
3.98367	32
3.98733	31
3.99100	32
3.99467	35
3.99833	36

[Status Trace (Column Oven Temperature)]
Interval(msec)	1000
# of Points	240
Start Time(min)	0.001
End Time(min)	3.984
Intensity Units	
Intensity Multiplier	1
R.Time (min)	Intensity
0.00053	35.00
0.01720	34.99
0.03387	34.98
0.05053	34.98
0.06720	34.99
0.08387	35.00
0.10053	35.00
0.11720	34.99
0.13387	34.98
0.15053	34.99
0.16720	34.99
0.18387	34.98
0.20053	34.97
0.21720	34.96
0.23387	34.97
0.25053	34.98
0.26720	34.98
0.28387	34.98
0.30053	34.98
0.31720	34.98
0.33387	34.97
0.35053	34.97
0.36720	34.96
0.38387	34.96
0.40053	34.97
0.41720	34.96
0.43387	34.96
0.45053	34.96
0.46720	34.95
0.48387	34.95
0.50053	34.96
0.51720	34.97
0.53387	34.99
0.55053	34.99
0.56720	35.00
0.58387	35.00
0.60053	34.99
0.61720	34.98
0.63387	34.96
0.65053	34.96
0.66720	34.95
0.68387	34.95
0.70053	34.94
0.71720	34.94
0.73387	34.95
0.75053	34.96
0.76720	34.97
0.78387	34.98
0.80053	34.98
0.81720	34.98
0.83387	34.98
0.85053	34.97
0.86720	34.97
0.88387	34.97
0.90053	34.97
0.91720	34.96
0.93387	34.96
0.95053	34.96
0.96720	34.97
0.98387	34.98
1.00053	34.98
1.01720	34.98
1.03387	34.99
1.05053	35.00
1.06720	35.00
1.08387	35.00
1.10053	35.00
1.11720	35.00
1.13387	35.01
1.15053	35.01
1.16720	35.00
1.18387	34.99
1.20053	34.98
1.21720	34.98
1.23387	34.98
1.25053	34.99
1.26720	35.00
1.28387	35.00
1.30053	34.99
1.31720	35.00
1.33387	34.99
1.35053	34.99
1.36720	34.98
1.38387	34.97
1.40053	34.97
1.41720	34.97
1.43387	34.97
1.45053	34.97
1.46720	34.97
1.48387	34.97
1.50053	34.98
1.51720	34.98
1.53387	34.98
1.55053	34.99
1.56720	34.99
1.58387	35.00
1.60053	35.05
1.61720	35.14
1.63387	35.29
1.65053	35.51
1.66720	35.79
1.68387	36.16
1.70053	36.52
1.71720	36.86
1.73387	37.20
1.75053	37.52
1.76720	37.86
1.78387	38.19
1.80053	38.53
1.81720	38.86
1.83387	39.19
1.85053	39.53
1.86720	39.85
1.88387	40.19
1.90053	40.50
1.91720	40.83
1.93387	41.16
1.95053	41.48
1.96720	41.80
1.98387	42.12
2.00053	42.44
2.01720	42.77
2.03387	43.10
2.05053	43.42
2.06720	43.74
2.08387	44.07
2.10053	44.41
2.11720	44.73
2.13387	45.04
2.15053	45.36
2.16720	45.69
2.18387	46.00
2.20053	46.36
2.21720	46.70
2.23387	47.02
2.25053	47.36
2.26720	47.68
2.28387	48.02
2.30053	48.35
2.31720	48.67
2.33387	49.00
2.35053	49.30
2.36720	49.59
2.38387	49.73
2.40053	49.74
2.41720	49.73
2.43387	49.75
2.45053	49.74
2.46720	49.76
2.48387	49.77
2.50053	49.78
2.51720	49.80
2.53387	49.81
2.55053	49.80
2.56720	49.81
2.58387	49.82
2.60053	49.82
2.61720	49.83
2.63387	49.85
2.65053	49.85
2.66720	49.85
2.68387	49.86
2.70053	49.85
2.71720	49.86
2.73387	49.87
2.75053	49.87
2.76720	49.87
2.78387	49.87
2.80053	49.88
2.81720	49.90
2.83387	49.91
2.85053	49.92
2.86720	49.94
2.88387	49.96
2.90053	49.97
2.91720	49.98
2.93387	49.99
2.95053	50.01
2.96720	50.03
2.98387	50.05
3.00053	50.05
3.01720	50.05
3.03387	50.05
3.05053	50.05
3.06720	50.07
3.08387	50.06
3.10053	50.06
3.11720	50.08
3.13387	50.09
3.15053	50.10
3.16720	50.11
3.18387	50.10
3.20053	50.09
3.21720	50.07
3.23387	50.06
3.25053	50.07
3.26720	50.06
3.28387	50.05
3.30053	50.04
3.31720	50.04
3.33387	50.04
3.35053	50.03
3.36720	50.03
3.38387	50.03
3.40053	50.04
3.41720	50.03
3.43387	50.04
3.45053	50.05
3.46720	50.06
3.48387	50.06
3.50053	50.06
3.51720	50.07
3.53387	50.08
3.55053	50.08
3.56720	50.07
3.58387	50.07
3.60053	50.07
3.61720	50.07
3.63387	50.08
3.65053	50.07
3.66720	50.08
3.68387	50.09
3.70053	50.09
3.71720	50.09
3.73387	50.09
3.75053	50.09
3.76720	50.09
3.78387	50.09
3.80053	50.09
3.81720	50.08
3.83387	50.08
3.85053	50.08
3.86720	50.07
3.88387	50.07
3.90053	50.05
3.91720	50.04
3.93387	50.04
3.95053	50.04
3.96720	50.04
3.98387	50.04

[Status Trace (Injection Unit Temperature)]
Interval(msec)	1000
# of Points	240
Start Time(min)	0.001
End Time(min)	3.984
Intensity Units	
Intensity Multiplier	1
R.Time (min)	Intensity
0.00053	99.98
0.01720	99.98
0.03387	99.98
0.05053	99.98
0.06720	99.98
0.08387	99.98
0.10053	99.98
0.11720	99.98
0.13387	99.98
0.15053	99.98
0.16720	99.98
0.18387	99.98
0.20053	99.98
0.21720	99.98
0.23387	99.98
0.25053	99.98
0.26720	99.98
0.28387	99.98
0.30053	99.98
0.31720	99.98
0.33387	99.98
0.35053	99.98
0.36720	99.97
0.38387	99.98
0.40053	99.98
0.41720	99.97
0.43387	99.98
0.45053	99.98
0.46720	99.98
0.48387	99.98
0.50053	99.98
0.51720	99.98
0.53387	99.97
0.55053	99.98
0.56720	99.98
0.58387	99.97
0.60053	99.98
0.61720	99.98
0.63387	99.98
0.65053	99.98
0.66720	99.97
0.68387	99.97
0.70053	99.98
0.71720	99.97
0.73387	99.98
0.75053	99.98
0.76720	99.97
0.78387	99.97
0.80053	99.97
0.81720	99.97
0.83387	99.98
0.85053	99.97
0.86720	99.98
0.88387	99.97
0.90053	99.98
0.91720	99.97
0.93387	99.97
0.95053	99.98
0.96720	99.98
0.98387	99.98
1.00053	99.98
1.01720	99.98
1.03387	99.98
1.05053	99.98
1.06720	99.98
1.08387	99.98
1.10053	99.98
1.11720	99.98
1.13387	99.98
1.15053	99.98
1.16720	99.98
1.18387	99.98
1.20053	99.98
1.21720	99.98
1.23387	99.99
1.25053	99.98
1.26720	99.99
1.28387	99.99
1.30053	99.98
1.31720	99.98
1.33387	99.99
1.35053	99.98
1.36720	99.99
1.38387	99.98
1.40053	99.98
1.41720	99.99
1.43387	99.99
1.45053	99.99
1.46720	99.99
1.48387	99.99
1.50053	99.99
1.51720	99.99
1.53387	99.99
1.55053	99.99
1.56720	99.99
1.58387	99.99
1.60053	99.99
1.61720	99.99
1.63387	99.99
1.65053	99.99
1.66720	99.99
1.68387	99.98
1.70053	99.99
1.71720	99.99
1.73387	99.99
1.75053	99.99
1.76720	99.99
1.78387	99.99
1.80053	99.99
1.81720	99.98
1.83387	99.98
1.85053	99.98
1.86720	99.98
1.88387	99.98
1.90053	99.98
1.91720	99.98
1.93387	99.98
1.95053	99.98
1.96720	99.98
1.98387	99.97
2.00053	99.98
2.01720	99.98
2.03387	99.97
2.05053	99.97
2.06720	99.97
2.08387	99.97
2.10053	99.98
2.11720	99.97
2.13387	99.97
2.15053	99.97
2.16720	99.97
2.18387	99.97
2.20053	99.97
2.21720	99.97
2.23387	99.97
2.25053	99.97
2.26720	99.97
2.28387	99.97
2.30053	99.97
2.31720	99.97
2.33387	99.97
2.35053	99.97
2.36720	99.97
2.38387	99.97
2.40053	99.97
2.41720	99.97
2.43387	99.97
2.45053	99.96
2.46720	99.97
2.48387	99.97
2.50053	99.97
2.51720	99.97
2.53387	99.97
2.55053	99.97
2.56720	99.97
2.58387	99.97
2.60053	99.98
2.61720	99.97
2.63387	99.97
2.65053	99.98
2.66720	99.98
2.68387	99.98
2.70053	99.98
2.71720	99.98
2.73387	99.98
2.75053	99.98
2.76720	99.98
2.78387	99.99
2.80053	99.99
2.81720	99.99
2.83387	100.00
2.85053	100.00
2.86720	100.00
2.88387	100.00
2.90053	100.00
2.91720	100.00
2.93387	100.00
2.95053	100.01
2.96720	100.00
2.98387	100.00
3.00053	100.01
3.01720	100.01
3.03387	100.01
3.05053	100.01
3.06720	100.02
3.08387	100.02
3.10053	100.02
3.11720	100.02
3.13387	100.01
3.15053	100.02
3.16720	100.02
3.18387	100.02
3.20053	100.02
3.21720	100.02
3.23387	100.02
3.25053	100.03
3.26720	100.03
3.28387	100.03
3.30053	100.02
3.31720	100.02
3.33387	100.03
3.35053	100.03
3.36720	100.02
3.38387	100.03
3.40053	100.03
3.41720	100.03
3.43387	100.03
3.45053	100.03
3.46720	100.04
3.48387	100.03
3.50053	100.03
3.51720	100.04
3.53387	100.03
3.55053	100.04
3.56720	100.03
3.58387	100.03
3.60053	100.04
3.61720	100.04
3.63387	100.04
3.65053	100.04
3.66720	100.04
3.68387	100.04
3.70053	100.04
3.71720	100.04
3.73387	100.04
3.75053	100.04
3.76720	100.04
3.78387	100.04
3.80053	100.04
3.81720	100.04
3.83387	100.04
3.85053	100.04
3.86720	100.04
3.88387	100.04
3.90053	100.04
3.91720	100.04
3.93387	100.04
3.95053	100.04
3.96720	100.04
3.98387	100.04

[Status Trace (Carrier Gas Pressure)]
Interval(msec)	1000
# of Points	240
Start Time(min)	0.001
End Time(min)	3.984
Intensity Units	
Intensity Multiplier	1
R.Time (min)	Intensity
0.00053	58.00
0.01720	56.79
0.03387	55.94
0.05053	58.14
0.06720	59.91
0.08387	58.53
0.10053	57.98
0.11720	58.00
0.13387	58.01
0.15053	58.01
0.16720	58.00
0.18387	58.00
0.20053	58.00
0.21720	58.00
0.23387	58.00
0.25053	58.00
0.26720	58.00
0.28387	58.00
0.30053	58.00
0.31720	58.00
0.33387	58.00
0.35053	58.00
0.36720	58.00
0.38387	58.00
0.40053	58.00
0.41720	58.00
0.43387	58.00
0.45053	58.00
0.46720	58.00
0.48387	58.00
0.50053	58.00
0.51720	58.00
0.53387	58.00
0.55053	58.00
0.56720	58.00
0.58387	58.00
0.60053	58.00
0.61720	58.00
0.63387	58.00
0.65053	58.00
0.66720	58.00
0.68387	58.00
0.70053	58.00
0.71720	58.00
0.73387	58.00
0.75053	58.00
0.76720	58.00
0.78387	58.00
0.80053	58.00
0.81720	58.00
0.83387	58.00
0.85053	58.00
0.86720	58.00
0.88387	58.00
0.90053	58.00
0.91720	58.00
0.93387	58.00
0.95053	58.00
0.96720	58.00
0.98387	58.00
1.00053	58.00
1.01720	58.00
1.03387	58.00
1.05053	58.00
1.06720	58.00
1.08387	58.00
1.10053	58.00
1.11720	58.00
1.13387	58.00
1.15053	58.00
1.16720	58.00
1.18387	58.00
1.20053	58.00
1.21720	58.00
1.23387	58.00
1.25053	58.00
1.26720	58.00
1.28387	58.00
1.30053	58.00
1.31720	58.00
1.33387	58.00
1.35053	58.00
1.36720	58.00
1.38387	58.00
1.40053	58.00
1.41720	58.00
1.43387	58.00
1.45053	58.00
1.46720	58.00
1.48387	58.00
1.50053	58.00
1.51720	58.00
1.53387	58.00
1.55053	58.00
1.56720	58.00
1.58387	58.00
1.60053	58.00
1.61720	58.00
1.63387	58.00
1.65053	58.00
1.66720	58.00
1.68387	58.01
1.70053	58.00
1.71720	58.00
1.73387	58.00
1.75053	58.00
1.76720	58.00
1.78387	58.00
1.80053	58.00
1.81720	58.00
1.83387	58.00
1.85053	58.00
1.86720	58.00
1.88387	58.00
1.90053	58.00
1.91720	58.00
1.93387	58.00
1.95053	58.00
1.96720	58.00
1.98387	58.00
2.00053	58.00
2.01720	58.00
2.03387	58.00
2.05053	58.00
2.06720	58.00
2.08387	58.00
2.10053	58.00
2.11720	58.00
2.13387	58.00
2.15053	58.00
2.16720	58.00
2.18387	58.00
2.20053	58.00
2.21720	58.00
2.23387	58.00
2.25053	58.00
2.26720	58.00
2.28387	58.00
2.30053	58.00
2.31720	58.00
2.33387	58.00
2.35053	58.00
2.36720	58.00
2.38387	57.99
2.40053	57.99
2.41720	58.00
2.43387	58.00
2.45053	58.00
2.46720	58.00
2.48387	58.00
2.50053	58.00
2.51720	57.98
2.53387	57.99
2.55053	58.00
2.56720	58.00
2.58387	58.00
2.60053	58.00
2.61720	58.00
2.63387	58.00
2.65053	58.00
2.66720	58.00
2.68387	58.00
2.70053	58.00
2.71720	58.00
2.73387	58.00
2.75053	58.00
2.76720	58.00
2.78387	58.00
2.80053	58.00
2.81720	58.00
2.83387	58.00
2.85053	58.00
2.86720	58.00
2.88387	58.00
2.90053	58.00
2.91720	58.00
2.93387	58.00
2.95053	58.00
2.96720	58.00
2.98387	58.00
3.00053	58.00
3.01720	58.00
3.03387	58.00
3.05053	58.00
3.06720	58.00
3.08387	58.00
3.10053	58.00
3.11720	58.00
3.13387	58.00
3.15053	58.00
3.16720	58.00
3.18387	58.00
3.20053	58.00
3.21720	58.00
3.23387	58.00
3.25053	58.00
3.26720	58.00
3.28387	58.00
3.30053	58.00
3.31720	58.00
3.33387	58.00
3.35053	58.00
3.36720	58.00
3.38387	58.00
3.40053	58.00
3.41720	58.00
3.43387	58.00
3.45053	58.00
3.46720	58.00
3.48387	58.00
3.50053	58.00
3.51720	58.00
3.53387	58.00
3.55053	58.00
3.56720	58.00
3.58387	58.00
3.60053	58.00
3.61720	58.00
3.63387	58.00
3.65053	58.00
3.66720	58.00
3.68387	58.00
3.70053	58.00
3.71720	58.00
3.73387	58.00
3.75053	58.00
3.76720	58.00
3.78387	58.00
3.80053	58.00
3.81720	58.00
3.83387	58.00
3.85053	58.00
3.86720	58.00
3.88387	58.00
3.90053	58.00
3.91720	58.00
3.93387	58.00
3.95053	58.00
3.96720	58.00
3.98387	58.00

[Status Trace (Carrier Gas Flow)]
Interval(msec)	1000
# of Points	240
Start Time(min)	0.001
End Time(min)	3.984
Intensity Units	
Intensity Multiplier	1
R.Time (min)	Intensity
0.00053	34.52
0.01720	33.82
0.03387	34.54
0.05053	34.54
0.06720	34.51
0.08387	34.52
0.10053	34.52
0.11720	34.53
0.13387	34.52
0.15053	34.52
0.16720	34.52
0.18387	34.52
0.20053	34.52
0.21720	34.52
0.23387	34.52
0.25053	34.52
0.26720	34.52
0.28387	34.53
0.30053	34.52
0.31720	34.52
0.33387	34.53
0.35053	34.50
0.36720	34.52
0.38387	34.51
0.40053	34.51
0.41720	34.53
0.43387	34.53
0.45053	34.52
0.46720	34.51
0.48387	34.52
0.50053	34.53
0.51720	34.52
0.53387	34.52
0.55053	34.51
0.56720	34.52
0.58387	34.52
0.60053	34.52
0.61720	34.52
0.63387	34.52
0.65053	34.52
0.66720	34.52
0.68387	34.51
0.70053	34.52
0.71720	34.52
0.73387	34.53
0.75053	34.53
0.76720	34.52
0.78387	34.52
0.80053	34.52
0.81720	34.52
0.83387	34.52
0.85053	34.52
0.86720	34.52
0.88387	34.52
0.90053	34.52
0.91720	34.52
0.93387	34.52
0.95053	34.52
0.96720	34.52
0.98387	34.52
1.00053	34.52
1.01720	34.52
1.03387	34.52
1.05053	34.52
1.06720	34.52
1.08387	34.52
1.10053	34.52
1.11720	34.52
1.13387	34.52
1.15053	34.52
1.16720	34.52
1.18387	34.52
1.20053	34.52
1.21720	34.52
1.23387	34.52
1.25053	34.52
1.26720	34.52
1.28387	34.52
1.30053	34.52
1.31720	34.52
1.33387	34.52
1.35053	34.52
1.36720	34.52
1.38387	34.52
1.40053	34.52
1.41720	34.52
1.43387	34.52
1.45053	34.52
1.46720	34.52
1.48387	34.52
1.50053	34.52
1.51720	34.52
1.53387	34.52
1.55053	34.52
1.56720	34.52
1.58387	34.52
1.60053	34.52
1.61720	34.52
1.63387	34.52
1.65053	34.52
1.66720	34.52
1.68387	34.52
1.70053	34.52
1.71720	34.52
1.73387	34.52
1.75053	34.52
1.76720	34.52
1.78387	34.52
1.80053	34.52
1.81720	34.52
1.83387	34.52
1.85053	34.52
1.86720	34.52
1.88387	34.52
1.90053	34.52
1.91720	34.52
1.93387	34.52
1.95053	34.52
1.96720	34.52
1.98387	34.52
2.00053	34.52
2.01720	34.52
2.03387	34.52
2.05053	34.52
2.06720	34.52
2.08387	34.52
2.10053	34.52
2.11720	34.52
2.13387	34.52
2.15053	34.52
2.16720	34.52
2.18387	34.52
2.20053	34.52
2.21720	34.52
2.23387	34.52
2.25053	34.52
2.26720	34.52
2.28387	34.52
2.30053	34.52
2.31720	34.52
2.33387	34.52
2.35053	34.52
2.36720	34.52
2.38387	34.52
2.40053	34.52
2.41720	34.52
2.43387	34.52
2.45053	34.52
2.46720	34.52
2.48387	34.52
2.50053	34.52
2.51720	34.52
2.53387	34.52
2.55053	34.52
2.56720	34.52
2.58387	34.51
2.60053	34.52
2.61720	34.52
2.63387	34.51
2.65053	34.52
2.66720	34.50
2.68387	34.51
2.70053	34.51
2.71720	34.51
2.73387	34.53
2.75053	34.52
2.76720	34.52
2.78387	34.53
2.80053	34.52
2.81720	34.52
2.83387	34.52
2.85053	34.52
2.86720	34.51
2.88387	34.52
2.90053	34.52
2.91720	34.52
2.93387	34.52
2.95053	34.52
2.96720	34.52
2.98387	34.52
3.00053	34.52
3.01720	34.52
3.03387	34.52
3.05053	34.52
3.06720	34.52
3.08387	34.52
3.10053	34.52
3.11720	34.52
3.13387	34.52
3.15053	34.52
3.16720	34.52
3.18387	34.52
3.20053	34.52
3.21720	34.52
3.23387	34.52
3.25053	34.52
3.26720	34.52
3.28387	34.52
3.30053	34.52
3.31720	34.52
3.33387	34.52
3.35053	34.52
3.36720	34.52
3.38387	34.52
3.40053	34.52
3.41720	34.52
3.43387	34.52
3.45053	34.52
3.46720	34.52
3.48387	34.52
3.50053	34.52
3.51720	34.52
3.53387	34.52
3.55053	34.52
3.56720	34.52
3.58387	34.52
3.60053	34.52
3.61720	34.52
3.63387	34.52
3.65053	34.52
3.66720	34.52
3.68387	34.52
3.70053	34.52
3.71720	34.52
3.73387	34.51
3.75053	34.52
3.76720	34.52
3.78387	34.52
3.80053	34.52
3.81720	34.51
3.83387	34.52
3.85053	34.52
3.86720	34.52
3.88387	34.52
3.90053	34.52
3.91720	34.52
3.93387	34.52
3.95053	34.52
3.96720	34.52
3.98387	34.52

[Status Trace (Column Flow)]
Interval(msec)	1000
# of Points	240
Start Time(min)	0.001
End Time(min)	3.984
Intensity Units	
Intensity Multiplier	1
R.Time (min)	Intensity
0.00053	5.53
0.01720	5.39
0.03387	5.29
0.05053	5.55
0.06720	5.76
0.08387	5.59
0.10053	5.53
0.11720	5.53
0.13387	5.53
0.15053	5.53
0.16720	5.53
0.18387	5.53
0.20053	5.53
0.21720	5.53
0.23387	5.53
0.25053	5.53
0.26720	5.53
0.28387	5.53
0.30053	5.53
0.31720	5.53
0.33387	5.53
0.35053	5.53
0.36720	5.53
0.38387	5.53
0.40053	5.53
0.41720	5.53
0.43387	5.53
0.45053	5.53
0.46720	5.53
0.48387	5.53
0.50053	5.53
0.51720	5.53
0.53387	5.53
0.55053	5.53
0.56720	5.53
0.58387	5.53
0.60053	5.53
0.61720	5.53
0.63387	5.53
0.65053	5.53
0.66720	5.53
0.68387	5.53
0.70053	5.53
0.71720	5.53
0.73387	5.53
0.75053	5.53
0.76720	5.53
0.78387	5.53
0.80053	5.53
0.81720	5.53
0.83387	5.53
0.85053	5.53
0.86720	5.53
0.88387	5.53
0.90053	5.53
0.91720	5.53
0.93387	5.53
0.95053	5.53
0.96720	5.53
0.98387	5.53
1.00053	5.53
1.01720	5.53
1.03387	5.53
1.05053	5.53
1.06720	5.53
1.08387	5.53
1.10053	5.53
1.11720	5.53
1.13387	5.53
1.15053	5.53
1.16720	5.53
1.18387	5.53
1.20053	5.53
1.21720	5.53
1.23387	5.53
1.25053	5.53
1.26720	5.53
1.28387	5.53
1.30053	5.53
1.31720	5.53
1.33387	5.53
1.35053	5.53
1.36720	5.53
1.38387	5.53
1.40053	5.53
1.41720	5.53
1.43387	5.53
1.45053	5.53
1.46720	5.53
1.48387	5.53
1.50053	5.53
1.51720	5.53
1.53387	5.53
1.55053	5.53
1.56720	5.53
1.58387	5.53
1.60053	5.53
1.61720	5.53
1.63387	5.52
1.65053	5.52
1.66720	5.51
1.68387	5.50
1.70053	5.49
1.71720	5.47
1.73387	5.46
1.75053	5.45
1.76720	5.44
1.78387	5.43
1.80053	5.42
1.81720	5.41
1.83387	5.40
1.85053	5.39
1.86720	5.38
1.88387	5.37
1.90053	5.36
1.91720	5.35
1.93387	5.34
1.95053	5.33
1.96720	5.32
1.98387	5.31
2.00053	5.31
2.01720	5.30
2.03387	5.28
2.05053	5.28
2.06720	5.27
2.08387	5.26
2.10053	5.25
2.11720	5.24
2.13387	5.23
2.15053	5.22
2.16720	5.21
2.18387	5.20
2.20053	5.19
2.21720	5.18
2.23387	5.17
2.25053	5.16
2.26720	5.15
2.28387	5.14
2.30053	5.14
2.31720	5.13
2.33387	5.12
2.35053	5.11
2.36720	5.10
2.38387	5.10
2.40053	5.09
2.41720	5.10
2.43387	5.10
2.45053	5.10
2.46720	5.09
2.48387	5.09
2.50053	5.09
2.51720	5.09
2.53387	5.09
2.55053	5.09
2.56720	5.09
2.58387	5.09
2.60053	5.09
2.61720	5.09
2.63387	5.09
2.65053	5.09
2.66720	5.09
2.68387	5.09
2.70053	5.09
2.71720	5.09
2.73387	5.09
2.75053	5.09
2.76720	5.09
2.78387	5.09
2.80053	5.09
2.81720	5.09
2.83387	5.09
2.85053	5.09
2.86720	5.09
2.88387	5.09
2.90053	5.09
2.91720	5.09
2.93387	5.09
2.95053	5.09
2.96720	5.09
2.98387	5.09
3.00053	5.09
3.01720	5.09
3.03387	5.09
3.05053	5.09
3.06720	5.09
3.08387	5.09
3.10053	5.09
3.11720	5.09
3.13387	5.09
3.15053	5.09
3.16720	5.09
3.18387	5.09
3.20053	5.09
3.21720	5.09
3.23387	5.09
3.25053	5.09
3.26720	5.09
3.28387	5.09
3.30053	5.09
3.31720	5.09
3.33387	5.09
3.35053	5.09
3.36720	5.09
3.38387	5.09
3.40053	5.09
3.41720	5.09
3.43387	5.09
3.45053	5.09
3.46720	5.09
3.48387	5.09
3.50053	5.09
3.51720	5.09
3.53387	5.09
3.55053	5.09
3.56720	5.09
3.58387	5.09
3.60053	5.09
3.61720	5.09
3.63387	5.09
3.65053	5.09
3.66720	5.09
3.68387	5.09
3.70053	5.09
3.71720	5.09
3.73387	5.09
3.75053	5.09
3.76720	5.09
3.78387	5.09
3.80053	5.09
3.81720	5.09
3.83387	5.09
3.85053	5.09
3.86720	5.09
3.88387	5.09
3.90053	5.09
3.91720	5.09
3.93387	5.09
3.95053	5.09
3.96720	5.09
3.98387	5.09

[Status Trace (Linear Velocity)]
Interval(msec)	1000
# of Points	240
Start Time(min)	0.001
End Time(min)	3.984
Intensity Units	
Intensity Multiplier	1
R.Time (min)	Intensity
0.00053	39.02
0.01720	38.23
0.03387	37.67
0.05053	39.11
0.06720	40.27
0.08387	39.37
0.10053	39.00
0.11720	39.02
0.13387	39.03
0.15053	39.03
0.16720	39.02
0.18387	39.02
0.20053	39.02
0.21720	39.02
0.23387	39.02
0.25053	39.02
0.26720	39.02
0.28387	39.02
0.30053	39.02
0.31720	39.02
0.33387	39.02
0.35053	39.02
0.36720	39.02
0.38387	39.02
0.40053	39.02
0.41720	39.02
0.43387	39.02
0.45053	39.02
0.46720	39.02
0.48387	39.02
0.50053	39.02
0.51720	39.02
0.53387	39.02
0.55053	39.02
0.56720	39.02
0.58387	39.02
0.60053	39.02
0.61720	39.02
0.63387	39.02
0.65053	39.02
0.66720	39.02
0.68387	39.02
0.70053	39.02
0.71720	39.03
0.73387	39.02
0.75053	39.02
0.76720	39.02
0.78387	39.02
0.80053	39.02
0.81720	39.02
0.83387	39.02
0.85053	39.02
0.86720	39.02
0.88387	39.02
0.90053	39.02
0.91720	39.02
0.93387	39.02
0.95053	39.02
0.96720	39.02
0.98387	39.02
1.00053	39.02
1.01720	39.02
1.03387	39.02
1.05053	39.02
1.06720	39.02
1.08387	39.02
1.10053	39.02
1.11720	39.02
1.13387	39.02
1.15053	39.02
1.16720	39.02
1.18387	39.02
1.20053	39.02
1.21720	39.02
1.23387	39.02
1.25053	39.02
1.26720	39.02
1.28387	39.02
1.30053	39.02
1.31720	39.02
1.33387	39.02
1.35053	39.02
1.36720	39.02
1.38387	39.02
1.40053	39.02
1.41720	39.02
1.43387	39.02
1.45053	39.02
1.46720	39.02
1.48387	39.02
1.50053	39.02
1.51720	39.02
1.53387	39.02
1.55053	39.02
1.56720	39.02
1.58387	39.02
1.60053	39.02
1.61720	39.01
1.63387	38.99
1.65053	38.97
1.66720	38.95
1.68387	38.91
1.70053	38.88
1.71720	38.84
1.73387	38.81
1.75053	38.78
1.76720	38.75
1.78387	38.71
1.80053	38.69
1.81720	38.66
1.83387	38.62
1.85053	38.59
1.86720	38.56
1.88387	38.53
1.90053	38.50
1.91720	38.47
1.93387	38.44
1.95053	38.41
1.96720	38.38
1.98387	38.35
2.00053	38.32
2.01720	38.29
2.03387	38.26
2.05053	38.23
2.06720	38.20
2.08387	38.17
2.10053	38.14
2.11720	38.11
2.13387	38.08
2.15053	38.05
2.16720	38.02
2.18387	37.99
2.20053	37.96
2.21720	37.93
2.23387	37.90
2.25053	37.87
2.26720	37.84
2.28387	37.81
2.30053	37.78
2.31720	37.76
2.33387	37.72
2.35053	37.70
2.36720	37.67
2.38387	37.65
2.40053	37.65
2.41720	37.66
2.43387	37.66
2.45053	37.66
2.46720	37.66
2.48387	37.65
2.50053	37.65
2.51720	37.64
2.53387	37.64
2.55053	37.65
2.56720	37.65
2.58387	37.65
2.60053	37.65
2.61720	37.65
2.63387	37.65
2.65053	37.65
2.66720	37.65
2.68387	37.65
2.70053	37.65
2.71720	37.65
2.73387	37.65
2.75053	37.65
2.76720	37.65
2.78387	37.65
2.80053	37.65
2.81720	37.64
2.83387	37.64
2.85053	37.64
2.86720	37.64
2.88387	37.64
2.90053	37.64
2.91720	37.64
2.93387	37.64
2.95053	37.63
2.96720	37.63
2.98387	37.63
3.00053	37.63
3.01720	37.63
3.03387	37.63
3.05053	37.63
3.06720	37.63
3.08387	37.63
3.10053	37.63
3.11720	37.63
3.13387	37.63
3.15053	37.63
3.16720	37.63
3.18387	37.63
3.20053	37.63
3.21720	37.63
3.23387	37.63
3.25053	37.63
3.26720	37.63
3.28387	37.63
3.30053	37.63
3.31720	37.63
3.33387	37.63
3.35053	37.63
3.36720	37.63
3.38387	37.63
3.40053	37.63
3.41720	37.63
3.43387	37.63
3.45053	37.63
3.46720	37.63
3.48387	37.63
3.50053	37.63
3.51720	37.63
3.53387	37.63
3.55053	37.63
3.56720	37.63
3.58387	37.63
3.60053	37.63
3.61720	37.63
3.63387	37.63
3.65053	37.63
3.66720	37.63
3.68387	37.63
3.70053	37.63
3.71720	37.63
3.73387	37.63
3.75053	37.63
3.76720	37.63
3.78387	37.63
3.80053	37.63
3.81720	37.63
3.83387	37.63
3.85053	37.63
3.86720	37.63
3.88387	37.63
3.90053	37.63
3.91720	37.63
3.93387	37.63
3.95053	37.63
3.96720	37.63
3.98387	37.63

