[Header]
Application Name	LabSolutions
Version	5.110
Data File Name	C:\Users\User\Desktop\GC Analyses\Jack\UIC Prairie Sampling\7.9.22\220909_118.gcd
Output Date	9/28/2022
Output Time	11:29:57 AM

[File Information]
Type	Data File
Generated	9/20/2022 2:52:03 PM
Generated by	System Administrator
Modified	9/20/2022 2:56:26 PM
Modified by	System Administrator

[Sample Information]
Operator Name	System Administrator
Acquired	9/20/2022 2:52:25 PM
Sample Type	1:Standard
Level	1
Sample Name	220909_Run
Sample ID	220909_Run
ISTD Amount1	1
ISTD Amount2	1
ISTD Amount3	1
ISTD Amount4	1
ISTD Amount5	1
ISTD Amount6	1
ISTD Amount7	1
ISTD Amount8	1
ISTD Amount9	1
ISTD Amount10	1
ISTD Amount11	1
ISTD Amount12	1
ISTD Amount13	1
ISTD Amount14	1
ISTD Amount15	1
ISTD Amount16	1
ISTD Amount17	1
ISTD Amount18	1
ISTD Amount19	1
ISTD Amount20	1
ISTD Amount21	1
ISTD Amount22	1
ISTD Amount23	1
ISTD Amount24	1
ISTD Amount25	1
ISTD Amount26	1
ISTD Amount27	1
ISTD Amount28	1
ISTD Amount29	1
ISTD Amount30	1
ISTD Amount31	1
ISTD Amount32	1
Sample Amount	1
Dilution Factor	1
Vial#	1
Injection Volume	1
Injection Count	1
Bar Code	

[Original Files]
Data File	C:\Users\User\Desktop\GC Analyses\Jack\220909\220909_118.gcd
Method File	C:\LabSolutions\Data\GHG_4min_2022\ghg3_togas_w_acet_4 min_new_int.gcm
Batch File	
Report Format File	c:\LabSolutions\System\DEFAULT.lsr

[File Description]


[Configuration]
Instrument Name	C0B7VH3-Instrument1
Instrument #	1
Line #	1
# of Detectors	3
Detector ID	DET#1	DET#2	DET#3
Detector Name	FID	PTCD	ECD
# of Channels	1	1	1

[Peak Table(Ch1)]
# of Peaks	3
Peak#	R.Time	I.Time	F.Time	Area	Height	A/H	Conc.	Mark	ID#	Name	k'	Plate #	Plate Ht.	Tailing	Resolution	Sep.Factor	Area Ratio	Height Ratio	Conc. %	Norm Conc.
1	1.476	1.432	1.538	17793	8034	2.215	100.000	   	1	CO	0.000	8546	17.552	1.252	0.000	0.000	0	0	16.667	16.667
2	1.571	1.538	1.641	5409	2740	1.974	100.000	 V 	2	CH4	0.065	11598	12.933	1.172	1.560	0.000	0	0	16.667	16.667
3	2.000	1.952	2.271	1144792	563842	2.030	400.000	   	3	CO2	0.355	17957	8.353	1.195	7.268	5.500	0	0	66.667	66.667

[Peak Table(Ch2)]
# of Peaks	0

[Peak Table(Ch3)]
# of Peaks	2
Peak#	R.Time	I.Time	F.Time	Area	Height	A/H	Conc.	Mark	ID#	Name	k'	Plate #	Plate Ht.	Tailing	Resolution	Sep.Factor	Area Ratio	Height Ratio	Conc. %	Norm Conc.
1	2.455	1.663	2.649	8745	273	31.980	0.000	   			0.000	149	1004.477	0.627	0.000	0.000	0	0	0.000	0.000
2	2.884	2.821	3.056	20049	5427	3.694	1.000	   	1	N2O	0.175	13520	11.094	1.526	0.950	0.000	0	0	100.000	100.000

[Compound Results(Ch1)]
# of IDs	6
ID#	Name	R.Time	Area	Height	Conc.	Curve	3rd	2nd	1st	Constant	Area Ratio	Height Ratio	Conc. %	Norm Conc.
1	CO	1.476	17793	8034	100.000	Linear	0.000000e+00	0.000000e+00	1.779282e+002	0.000000e+00	0	0	16.667	16.667
2	CH4	1.571	5409	2740	100.000	Linear	0.000000e+00	0.000000e+00	5.408799e+001	0.000000e+00	0	0	16.667	16.667
3	CO2	2.000	1144792	563842	400.000	Linear	0.000000e+00	0.000000e+00	2.861981e+003	0.000000e+00	0	0	66.667	66.667
4	Ethylene	0.000	0	0	0.000	Linear	0.000000e+00	0.000000e+00	0.000000e+00	0.000000e+00	0	0	0.000	0.000
5	Acetylene	0.000	0	0	0.000	Linear	0.000000e+00	0.000000e+00	0.000000e+00	0.000000e+00	0	0	0.000	0.000
6	Ethane	0.000	0	0	0.000	Linear	0.000000e+00	0.000000e+00	0.000000e+00	0.000000e+00	0	0	0.000	0.000

[Compound Results(Ch2)]
# of IDs	5
ID#	Name	R.Time	Area	Height	Conc.	Curve	3rd	2nd	1st	Constant	Area Ratio	Height Ratio	Conc. %	Norm Conc.
1	Hydrogen	0.000	0	0	0.000	Linear	0.000000e+00	0.000000e+00	0.000000e+00	0.000000e+00	0	0	0.000	0.000
2	Oxygen	0.000	0	0	0.000	Linear	0.000000e+00	0.000000e+00	0.000000e+00	0.000000e+00	0	0	0.000	0.000
3	Nitrogen	0.000	0	0	0.000	Linear	0.000000e+00	0.000000e+00	0.000000e+00	0.000000e+00	0	0	0.000	0.000
4	Methane	0.000	0	0	0.000	Linear	0.000000e+00	0.000000e+00	0.000000e+00	0.000000e+00	0	0	0.000	0.000
5	Carbon Monoxide	0.000	0	0	0.000	Linear	0.000000e+00	0.000000e+00	0.000000e+00	0.000000e+00	0	0	0.000	0.000

[Compound Results(Ch3)]
# of IDs	2
ID#	Name	R.Time	Area	Height	Conc.	Curve	3rd	2nd	1st	Constant	Area Ratio	Height Ratio	Conc. %	Norm Conc.
1	N2O	2.884	20049	5427	1.000	Linear	0.000000e+00	0.000000e+00	2.004852e+004	0.000000e+00	0	0	100.000	100.000
2	SF6	0.000	0	0	0.000	Linear	0.000000e+00	0.000000e+00	0.000000e+00	0.000000e+00	0	0	0.000	0.000

[Group Results(Ch1)]
# of Groups	0

[Group Results(Ch2)]
# of Groups	0

[Group Results(Ch3)]
# of Groups	0

[Chromatogram (Ch1)]
Interval(msec)	220
# of Points	1091
Start Time(min)	0.002
End Time(min)	3.998
R.Time (min)	Intensity
0.00167	-3
0.00533	6
0.00900	14
0.01267	17
0.01633	12
0.02000	1
0.02367	-14
0.02733	-27
0.03100	-35
0.03467	-41
0.03833	-46
0.04200	-42
0.04567	-32
0.04933	-23
0.05300	-16
0.05667	-14
0.06033	-12
0.06400	-9
0.06767	-8
0.07133	-10
0.07500	-13
0.07867	-16
0.08233	-18
0.08600	-22
0.08967	-22
0.09333	-21
0.09700	-20
0.10067	-21
0.10433	-23
0.10800	-25
0.11167	-26
0.11533	-26
0.11900	-26
0.12267	-26
0.12633	-25
0.13000	-23
0.13367	-19
0.13733	-14
0.14100	-13
0.14467	-14
0.14833	-9
0.15200	-4
0.15567	-1
0.15933	-5
0.16300	-14
0.16667	-21
0.17033	-25
0.17400	-29
0.17767	-34
0.18133	-37
0.18500	-38
0.18867	-37
0.19233	-34
0.19600	-28
0.19967	-25
0.20333	-26
0.20700	-26
0.21067	-22
0.21433	-13
0.21800	-4
0.22167	3
0.22533	10
0.22900	14
0.23267	12
0.23633	7
0.24000	-1
0.24367	-9
0.24733	-18
0.25100	-28
0.25467	-41
0.25833	-54
0.26200	-62
0.26567	-65
0.26933	-67
0.27300	-68
0.27667	-66
0.28033	-61
0.28400	-55
0.28767	-49
0.29133	-41
0.29500	-33
0.29867	-25
0.30233	-21
0.30600	-22
0.30967	-28
0.31333	-37
0.31700	-44
0.32067	-44
0.32433	-40
0.32800	-35
0.33167	-33
0.33533	-31
0.33900	-28
0.34267	-27
0.34633	-30
0.35000	-31
0.35367	-30
0.35733	-27
0.36100	-23
0.36467	-17
0.36833	-11
0.37200	-8
0.37567	-10
0.37933	-15
0.38300	-23
0.38667	-28
0.39033	-29
0.39400	-28
0.39767	-27
0.40133	-26
0.40500	-27
0.40867	-29
0.41233	-32
0.41600	-34
0.41967	-34
0.42333	-34
0.42700	-33
0.43067	-30
0.43433	-28
0.43800	-27
0.44167	-28
0.44533	-30
0.44900	-30
0.45267	-29
0.45633	-31
0.46000	-37
0.46367	-44
0.46733	-46
0.47100	-44
0.47467	-40
0.47833	-34
0.48200	-24
0.48567	-12
0.48933	-3
0.49300	-4
0.49667	-12
0.50033	-21
0.50400	-23
0.50767	-22
0.51133	-25
0.51500	-30
0.51867	-37
0.52233	-46
0.52600	-52
0.52967	-54
0.53333	-55
0.53700	-58
0.54067	-61
0.54433	-61
0.54800	-58
0.55167	-54
0.55533	-48
0.55900	-43
0.56267	-40
0.56633	-41
0.57000	-43
0.57367	-44
0.57733	-43
0.58100	-44
0.58467	-47
0.58833	-51
0.59200	-50
0.59567	-45
0.59933	-40
0.60300	-36
0.60667	-34
0.61033	-33
0.61400	-34
0.61767	-35
0.62133	-38
0.62500	-42
0.62867	-41
0.63233	-38
0.63600	-37
0.63967	-39
0.64333	-44
0.64700	-48
0.65067	-52
0.65433	-54
0.65800	-53
0.66167	-47
0.66533	-38
0.66900	-34
0.67267	-35
0.67633	-38
0.68000	-42
0.68367	-47
0.68733	-55
0.69100	-62
0.69467	-65
0.69833	-60
0.70200	-52
0.70567	-47
0.70933	-44
0.71300	-44
0.71667	-45
0.72033	-45
0.72400	-44
0.72767	-46
0.73133	-49
0.73500	-54
0.73867	-59
0.74233	-61
0.74600	-60
0.74967	-56
0.75333	-52
0.75700	-49
0.76067	-48
0.76433	-46
0.76800	-45
0.77167	-43
0.77533	-39
0.77900	-38
0.78267	-38
0.78633	-41
0.79000	-44
0.79367	-44
0.79733	-44
0.80100	-44
0.80467	-43
0.80833	-46
0.81200	-52
0.81567	-57
0.81933	-58
0.82300	-56
0.82667	-55
0.83033	-54
0.83400	-54
0.83767	-58
0.84133	-62
0.84500	-64
0.84867	-58
0.85233	-46
0.85600	-35
0.85967	-31
0.86333	-38
0.86700	-49
0.87067	-56
0.87433	-60
0.87800	-60
0.88167	-54
0.88533	-46
0.88900	-40
0.89267	-35
0.89633	-34
0.90000	-33
0.90367	-37
0.90733	-46
0.91100	-55
0.91467	-63
0.91833	-67
0.92200	-67
0.92567	-65
0.92933	-65
0.93300	-64
0.93667	-64
0.94033	-64
0.94400	-63
0.94767	-62
0.95133	-61
0.95500	-61
0.95867	-60
0.96233	-57
0.96600	-55
0.96967	-54
0.97333	-51
0.97700	-52
0.98067	-55
0.98433	-59
0.98800	-62
0.99167	-64
0.99533	-66
0.99900	-65
1.00267	-59
1.00633	-53
1.01000	-48
1.01367	-44
1.01733	-43
1.02100	-46
1.02467	-54
1.02833	-63
1.03200	-68
1.03567	-68
1.03933	-70
1.04300	-74
1.04667	-79
1.05033	-82
1.05400	-83
1.05767	-82
1.06133	-77
1.06500	-71
1.06867	-65
1.07233	-57
1.07600	-51
1.07967	-51
1.08333	-53
1.08700	-55
1.09067	-64
1.09433	-74
1.09800	-80
1.10167	-81
1.10533	-81
1.10900	-80
1.11267	-77
1.11633	-71
1.12000	-65
1.12367	-58
1.12733	-49
1.13100	-44
1.13467	-46
1.13833	-54
1.14200	-65
1.14567	-74
1.14933	-81
1.15300	-84
1.15667	-83
1.16033	-82
1.16400	-80
1.16767	-78
1.17133	-73
1.17500	-70
1.17867	-71
1.18233	-74
1.18600	-78
1.18967	-78
1.19333	-75
1.19700	-73
1.20067	-70
1.20433	-70
1.20800	-72
1.21167	-74
1.21533	-72
1.21900	-70
1.22267	-67
1.22633	-67
1.23000	-69
1.23367	-71
1.23733	-73
1.24100	-74
1.24467	-76
1.24833	-75
1.25200	-77
1.25567	-80
1.25933	-82
1.26300	-81
1.26667	-80
1.27033	-79
1.27400	-80
1.27767	-88
1.28133	-96
1.28500	-101
1.28867	-99
1.29233	-92
1.29600	-85
1.29967	-77
1.30333	-71
1.30700	-69
1.31067	-71
1.31433	-74
1.31800	-78
1.32167	-82
1.32533	-86
1.32900	-89
1.33267	-91
1.33633	-92
1.34000	-91
1.34367	-88
1.34733	-84
1.35100	-80
1.35467	-77
1.35833	-74
1.36200	-74
1.36567	-74
1.36933	-74
1.37300	-75
1.37667	-76
1.38033	-77
1.38400	-79
1.38767	-79
1.39133	-81
1.39500	-83
1.39867	-85
1.40233	-87
1.40600	-87
1.40967	-86
1.41333	-82
1.41700	-78
1.42067	-76
1.42433	-75
1.42800	-73
1.43167	-70
1.43533	-65
1.43900	-51
1.44267	27
1.44633	296
1.45000	852
1.45367	1753
1.45733	3018
1.46100	4478
1.46467	5858
1.46833	6954
1.47200	7666
1.47567	7953
1.47933	7790
1.48300	7186
1.48667	6233
1.49033	5097
1.49400	3963
1.49767	2960
1.50133	2143
1.50500	1517
1.50867	1052
1.51233	712
1.51600	467
1.51967	298
1.52333	182
1.52700	101
1.53067	43
1.53433	3
1.53800	-18
1.54167	1
1.54533	118
1.54900	399
1.55267	850
1.55633	1379
1.56000	1878
1.56367	2279
1.56733	2544
1.57100	2634
1.57467	2515
1.57833	2200
1.58200	1769
1.58567	1320
1.58933	922
1.59300	606
1.59667	372
1.60033	210
1.60400	104
1.60767	35
1.61133	-10
1.61500	-40
1.61867	-64
1.62233	-81
1.62600	-90
1.62967	-97
1.63333	-105
1.63700	-115
1.64067	-125
1.64433	-131
1.64800	-132
1.65167	-129
1.65533	-119
1.65900	-105
1.66267	-94
1.66633	-89
1.67000	-90
1.67367	-92
1.67733	-95
1.68100	-96
1.68467	-99
1.68833	-103
1.69200	-104
1.69567	-104
1.69933	-103
1.70300	-101
1.70667	-99
1.71033	-100
1.71400	-102
1.71767	-101
1.72133	-99
1.72500	-95
1.72867	-94
1.73233	-96
1.73600	-98
1.73967	-100
1.74333	-101
1.74700	-104
1.75067	-105
1.75433	-105
1.75800	-103
1.76167	-103
1.76533	-105
1.76900	-109
1.77267	-112
1.77633	-113
1.78000	-110
1.78367	-107
1.78733	-107
1.79100	-105
1.79467	-103
1.79833	-101
1.80200	-98
1.80567	-95
1.80933	-95
1.81300	-101
1.81667	-109
1.82033	-118
1.82400	-117
1.82767	-108
1.83133	-98
1.83500	-94
1.83867	-93
1.84233	-92
1.84600	-92
1.84967	-92
1.85333	-90
1.85700	-88
1.86067	-85
1.86433	-85
1.86800	-89
1.87167	-98
1.87533	-109
1.87900	-115
1.88267	-116
1.88633	-111
1.89000	-103
1.89367	-94
1.89733	-88
1.90100	-85
1.90467	-82
1.90833	-78
1.91200	-75
1.91567	-72
1.91933	-68
1.92300	-65
1.92667	-66
1.93033	-70
1.93400	-72
1.93767	-73
1.94133	-73
1.94500	-75
1.94867	-77
1.95233	-76
1.95600	-45
1.95967	153
1.96333	1198
1.96700	5446
1.97067	18611
1.97433	50077
1.97800	108898
1.98167	196263
1.98533	301503
1.98900	406636
1.99267	493602
1.99633	548620
2.00000	563795
2.00367	538036
2.00733	478126
2.01100	397337
2.01467	310990
2.01833	231511
2.02200	165762
2.02567	115412
2.02933	78927
2.03300	53488
2.03667	36204
2.04033	24648
2.04400	16989
2.04767	11921
2.05133	8553
2.05500	6288
2.05867	4741
2.06233	3663
2.06600	2900
2.06967	2351
2.07333	1947
2.07700	1644
2.08067	1414
2.08433	1236
2.08800	1091
2.09167	973
2.09533	872
2.09900	785
2.10267	713
2.10633	655
2.11000	611
2.11367	574
2.11733	538
2.12100	503
2.12467	468
2.12833	439
2.13200	415
2.13567	393
2.13933	369
2.14300	345
2.14667	324
2.15033	304
2.15400	288
2.15767	279
2.16133	273
2.16500	266
2.16867	256
2.17233	247
2.17600	238
2.17967	230
2.18333	222
2.18700	210
2.19067	199
2.19433	191
2.19800	184
2.20167	181
2.20533	183
2.20900	185
2.21267	186
2.21633	185
2.22000	181
2.22367	173
2.22733	165
2.23100	157
2.23467	153
2.23833	151
2.24200	148
2.24567	147
2.24933	146
2.25300	142
2.25667	136
2.26033	127
2.26400	122
2.26767	118
2.27133	115
2.27500	111
2.27867	108
2.28233	108
2.28600	111
2.28967	111
2.29333	108
2.29700	106
2.30067	106
2.30433	105
2.30800	101
2.31167	97
2.31533	95
2.31900	95
2.32267	95
2.32633	99
2.33000	105
2.33367	109
2.33733	111
2.34100	110
2.34467	105
2.34833	97
2.35200	92
2.35567	95
2.35933	103
2.36300	107
2.36667	106
2.37033	100
2.37400	90
2.37767	80
2.38133	72
2.38500	64
2.38867	59
2.39233	57
2.39600	57
2.39967	60
2.40333	66
2.40700	72
2.41067	77
2.41433	84
2.41800	92
2.42167	98
2.42533	99
2.42900	99
2.43267	100
2.43633	100
2.44000	103
2.44367	107
2.44733	110
2.45100	108
2.45467	101
2.45833	94
2.46200	89
2.46567	90
2.46933	93
2.47300	93
2.47667	93
2.48033	89
2.48400	86
2.48767	84
2.49133	81
2.49500	77
2.49867	76
2.50233	80
2.50600	86
2.50967	90
2.51333	91
2.51700	89
2.52067	88
2.52433	88
2.52800	91
2.53167	94
2.53533	94
2.53900	92
2.54267	92
2.54633	92
2.55000	90
2.55367	85
2.55733	80
2.56100	79
2.56467	81
2.56833	86
2.57200	90
2.57567	91
2.57933	87
2.58300	80
2.58667	71
2.59033	65
2.59400	64
2.59767	65
2.60133	65
2.60500	66
2.60867	69
2.61233	72
2.61600	79
2.61967	85
2.62333	90
2.62700	95
2.63067	98
2.63433	100
2.63800	103
2.64167	106
2.64533	109
2.64900	110
2.65267	109
2.65633	106
2.66000	102
2.66367	97
2.66733	92
2.67100	87
2.67467	82
2.67833	78
2.68200	76
2.68567	75
2.68933	73
2.69300	71
2.69667	70
2.70033	73
2.70400	77
2.70767	84
2.71133	93
2.71500	100
2.71867	104
2.72233	108
2.72600	113
2.72967	115
2.73333	115
2.73700	114
2.74067	108
2.74433	100
2.74800	95
2.75167	94
2.75533	97
2.75900	100
2.76267	99
2.76633	97
2.77000	96
2.77367	98
2.77733	100
2.78100	100
2.78467	100
2.78833	101
2.79200	104
2.79567	108
2.79933	108
2.80300	105
2.80667	102
2.81033	99
2.81400	100
2.81767	104
2.82133	104
2.82500	100
2.82867	95
2.83233	91
2.83600	88
2.83967	88
2.84333	90
2.84700	95
2.85067	100
2.85433	106
2.85800	111
2.86167	115
2.86533	112
2.86900	105
2.87267	102
2.87633	107
2.88000	116
2.88367	119
2.88733	115
2.89100	108
2.89467	99
2.89833	91
2.90200	87
2.90567	86
2.90933	89
2.91300	92
2.91667	93
2.92033	95
2.92400	96
2.92767	96
2.93133	97
2.93500	96
2.93867	94
2.94233	92
2.94600	91
2.94967	90
2.95333	88
2.95700	86
2.96067	84
2.96433	85
2.96800	86
2.97167	85
2.97533	86
2.97900	89
2.98267	95
2.98633	102
2.99000	106
2.99367	107
2.99733	107
3.00100	105
3.00467	101
3.00833	93
3.01200	84
3.01567	79
3.01933	77
3.02300	80
3.02667	85
3.03033	90
3.03400	92
3.03767	91
3.04133	89
3.04500	87
3.04867	86
3.05233	85
3.05600	83
3.05967	82
3.06333	81
3.06700	82
3.07067	82
3.07433	84
3.07800	89
3.08167	93
3.08533	92
3.08900	92
3.09267	92
3.09633	90
3.10000	85
3.10367	79
3.10733	75
3.11100	73
3.11467	74
3.11833	78
3.12200	84
3.12567	87
3.12933	87
3.13300	86
3.13667	86
3.14033	88
3.14400	87
3.14767	81
3.15133	73
3.15500	67
3.15867	64
3.16233	64
3.16600	63
3.16967	63
3.17333	61
3.17700	56
3.18067	52
3.18433	48
3.18800	47
3.19167	51
3.19533	57
3.19900	62
3.20267	64
3.20633	61
3.21000	55
3.21367	54
3.21733	59
3.22100	63
3.22467	64
3.22833	66
3.23200	69
3.23567	68
3.23933	66
3.24300	61
3.24667	55
3.25033	50
3.25400	49
3.25767	49
3.26133	49
3.26500	50
3.26867	51
3.27233	52
3.27600	55
3.27967	60
3.28333	67
3.28700	71
3.29067	68
3.29433	58
3.29800	52
3.30167	52
3.30533	56
3.30900	58
3.31267	56
3.31633	51
3.32000	48
3.32367	50
3.32733	54
3.33100	57
3.33467	60
3.33833	64
3.34200	67
3.34567	65
3.34933	59
3.35300	54
3.35667	51
3.36033	47
3.36400	44
3.36767	46
3.37133	51
3.37500	51
3.37867	49
3.38233	46
3.38600	46
3.38967	45
3.39333	45
3.39700	46
3.40067	50
3.40433	55
3.40800	59
3.41167	57
3.41533	54
3.41900	52
3.42267	51
3.42633	46
3.43000	38
3.43367	31
3.43733	25
3.44100	21
3.44467	21
3.44833	23
3.45200	26
3.45567	31
3.45933	39
3.46300	50
3.46667	60
3.47033	63
3.47400	63
3.47767	59
3.48133	51
3.48500	44
3.48867	43
3.49233	47
3.49600	53
3.49967	56
3.50333	57
3.50700	57
3.51067	57
3.51433	59
3.51800	60
3.52167	58
3.52533	58
3.52900	63
3.53267	68
3.53633	71
3.54000	77
3.54367	86
3.54733	94
3.55100	99
3.55467	101
3.55833	102
3.56200	104
3.56567	106
3.56933	107
3.57300	112
3.57667	120
3.58033	127
3.58400	132
3.58767	136
3.59133	141
3.59500	147
3.59867	155
3.60233	161
3.60600	163
3.60967	163
3.61333	162
3.61700	158
3.62067	154
3.62433	154
3.62800	158
3.63167	160
3.63533	157
3.63900	151
3.64267	142
3.64633	136
3.65000	135
3.65367	140
3.65733	146
3.66100	148
3.66467	146
3.66833	147
3.67200	154
3.67567	157
3.67933	154
3.68300	152
3.68667	153
3.69033	156
3.69400	158
3.69767	156
3.70133	153
3.70500	151
3.70867	146
3.71233	141
3.71600	139
3.71967	140
3.72333	145
3.72700	151
3.73067	156
3.73433	158
3.73800	155
3.74167	151
3.74533	145
3.74900	138
3.75267	130
3.75633	126
3.76000	129
3.76367	138
3.76733	148
3.77100	155
3.77467	157
3.77833	155
3.78200	149
3.78567	142
3.78933	138
3.79300	137
3.79667	138
3.80033	137
3.80400	138
3.80767	139
3.81133	144
3.81500	151
3.81867	156
3.82233	157
3.82600	158
3.82967	160
3.83333	163
3.83700	163
3.84067	158
3.84433	149
3.84800	139
3.85167	132
3.85533	130
3.85900	130
3.86267	132
3.86633	132
3.87000	133
3.87367	134
3.87733	134
3.88100	132
3.88467	129
3.88833	124
3.89200	123
3.89567	124
3.89933	127
3.90300	132
3.90667	138
3.91033	142
3.91400	145
3.91767	143
3.92133	137
3.92500	131
3.92867	126
3.93233	122
3.93600	118
3.93967	117
3.94333	116
3.94700	118
3.95067	124
3.95433	133
3.95800	142
3.96167	149
3.96533	150
3.96900	143
3.97267	133
3.97633	128
3.98000	124
3.98367	118
3.98733	114
3.99100	113
3.99467	117
3.99833	124

[Chromatogram (Ch2)]
Interval(msec)	220
# of Points	1091
Start Time(min)	0.002
End Time(min)	3.998
R.Time (min)	Intensity
0.00167	-1
0.00533	-1
0.00900	-1
0.01267	-2
0.01633	-2
0.02000	-2
0.02367	-2
0.02733	-2
0.03100	-2
0.03467	-2
0.03833	-2
0.04200	-2
0.04567	-2
0.04933	-2
0.05300	-2
0.05667	-1
0.06033	-1
0.06400	-1
0.06767	-1
0.07133	-1
0.07500	-0
0.07867	0
0.08233	0
0.08600	1
0.08967	1
0.09333	1
0.09700	1
0.10067	2
0.10433	2
0.10800	2
0.11167	2
0.11533	2
0.11900	2
0.12267	2
0.12633	2
0.13000	2
0.13367	2
0.13733	2
0.14100	2
0.14467	2
0.14833	2
0.15200	2
0.15567	1
0.15933	1
0.16300	1
0.16667	1
0.17033	1
0.17400	1
0.17767	1
0.18133	1
0.18500	1
0.18867	1
0.19233	1
0.19600	1
0.19967	1
0.20333	1
0.20700	1
0.21067	1
0.21433	1
0.21800	1
0.22167	1
0.22533	1
0.22900	2
0.23267	2
0.23633	2
0.24000	2
0.24367	2
0.24733	2
0.25100	2
0.25467	2
0.25833	2
0.26200	1
0.26567	1
0.26933	1
0.27300	0
0.27667	-0
0.28033	-1
0.28400	-2
0.28767	-2
0.29133	-2
0.29500	-3
0.29867	-3
0.30233	-3
0.30600	-3
0.30967	-3
0.31333	-3
0.31700	-4
0.32067	-4
0.32433	-4
0.32800	-4
0.33167	-4
0.33533	-4
0.33900	-4
0.34267	-4
0.34633	-4
0.35000	-4
0.35367	-5
0.35733	-5
0.36100	-5
0.36467	-6
0.36833	-6
0.37200	-6
0.37567	-5
0.37933	-5
0.38300	-5
0.38667	-4
0.39033	-4
0.39400	-3
0.39767	-3
0.40133	-2
0.40500	-2
0.40867	-2
0.41233	-2
0.41600	-1
0.41967	-1
0.42333	-1
0.42700	-1
0.43067	-1
0.43433	-1
0.43800	-1
0.44167	-1
0.44533	-1
0.44900	-1
0.45267	-2
0.45633	-2
0.46000	-2
0.46367	-2
0.46733	-3
0.47100	-3
0.47467	-3
0.47833	-3
0.48200	-3
0.48567	-3
0.48933	-3
0.49300	-3
0.49667	-2
0.50033	-2
0.50400	-2
0.50767	-2
0.51133	-2
0.51500	-2
0.51867	-2
0.52233	-1
0.52600	-1
0.52967	-0
0.53333	0
0.53700	0
0.54067	0
0.54433	0
0.54800	0
0.55167	0
0.55533	1
0.55900	1
0.56267	1
0.56633	1
0.57000	1
0.57367	0
0.57733	1
0.58100	1
0.58467	1
0.58833	1
0.59200	1
0.59567	2
0.59933	2
0.60300	2
0.60667	2
0.61033	2
0.61400	2
0.61767	2
0.62133	1
0.62500	1
0.62867	1
0.63233	1
0.63600	1
0.63967	1
0.64333	1
0.64700	0
0.65067	0
0.65433	0
0.65800	-0
0.66167	-0
0.66533	-0
0.66900	-0
0.67267	-0
0.67633	-0
0.68000	-0
0.68367	-0
0.68733	-0
0.69100	-0
0.69467	-0
0.69833	0
0.70200	0
0.70567	1
0.70933	1
0.71300	1
0.71667	1
0.72033	1
0.72400	1
0.72767	1
0.73133	1
0.73500	1
0.73867	1
0.74233	1
0.74600	1
0.74967	0
0.75333	-0
0.75700	-1
0.76067	-1
0.76433	-1
0.76800	-1
0.77167	-1
0.77533	-1
0.77900	-1
0.78267	-1
0.78633	-1
0.79000	-1
0.79367	-1
0.79733	-1
0.80100	-1
0.80467	-1
0.80833	-1
0.81200	-1
0.81567	-1
0.81933	-1
0.82300	-1
0.82667	-1
0.83033	-0
0.83400	-0
0.83767	-1
0.84133	-1
0.84500	-1
0.84867	-1
0.85233	-2
0.85600	-2
0.85967	-2
0.86333	-2
0.86700	-2
0.87067	-2
0.87433	-2
0.87800	-2
0.88167	-2
0.88533	-2
0.88900	-2
0.89267	-2
0.89633	-2
0.90000	-2
0.90367	-2
0.90733	-2
0.91100	-2
0.91467	-2
0.91833	-2
0.92200	-2
0.92567	-2
0.92933	-2
0.93300	-2
0.93667	-2
0.94033	-2
0.94400	-2
0.94767	-2
0.95133	-2
0.95500	-2
0.95867	-2
0.96233	-2
0.96600	-2
0.96967	-2
0.97333	-2
0.97700	-2
0.98067	-2
0.98433	-2
0.98800	-2
0.99167	-2
0.99533	-2
0.99900	-2
1.00267	-2
1.00633	-2
1.01000	-2
1.01367	-2
1.01733	-2
1.02100	-2
1.02467	-1
1.02833	-1
1.03200	-1
1.03567	-1
1.03933	-1
1.04300	-1
1.04667	-1
1.05033	-1
1.05400	-2
1.05767	-2
1.06133	-1
1.06500	-1
1.06867	-1
1.07233	-1
1.07600	-1
1.07967	-1
1.08333	-1
1.08700	-1
1.09067	-1
1.09433	-1
1.09800	-1
1.10167	-1
1.10533	-1
1.10900	-1
1.11267	-2
1.11633	-2
1.12000	-2
1.12367	-2
1.12733	-2
1.13100	-2
1.13467	-2
1.13833	-2
1.14200	-2
1.14567	-1
1.14933	-1
1.15300	-1
1.15667	-1
1.16033	-1
1.16400	-1
1.16767	-1
1.17133	-1
1.17500	-1
1.17867	-2
1.18233	-2
1.18600	-2
1.18967	-2
1.19333	-2
1.19700	-2
1.20067	-2
1.20433	-2
1.20800	-2
1.21167	-2
1.21533	-2
1.21900	-2
1.22267	-2
1.22633	-3
1.23000	-3
1.23367	-3
1.23733	-3
1.24100	-3
1.24467	-2
1.24833	-2
1.25200	-2
1.25567	-3
1.25933	-3
1.26300	-3
1.26667	-3
1.27033	-3
1.27400	-4
1.27767	-4
1.28133	-4
1.28500	-4
1.28867	-4
1.29233	-3
1.29600	-3
1.29967	-3
1.30333	-3
1.30700	-3
1.31067	-2
1.31433	-2
1.31800	-1
1.32167	-1
1.32533	-1
1.32900	-0
1.33267	-0
1.33633	0
1.34000	0
1.34367	0
1.34733	0
1.35100	0
1.35467	0
1.35833	0
1.36200	0
1.36567	-0
1.36933	-0
1.37300	-1
1.37667	-1
1.38033	-1
1.38400	-1
1.38767	-1
1.39133	-1
1.39500	-1
1.39867	-1
1.40233	-1
1.40600	-1
1.40967	-1
1.41333	-0
1.41700	-0
1.42067	-0
1.42433	-0
1.42800	0
1.43167	0
1.43533	0
1.43900	0
1.44267	0
1.44633	-0
1.45000	-0
1.45367	-0
1.45733	-1
1.46100	-1
1.46467	-1
1.46833	-1
1.47200	-1
1.47567	-1
1.47933	-1
1.48300	-1
1.48667	-1
1.49033	-1
1.49400	-1
1.49767	-2
1.50133	-2
1.50500	-2
1.50867	-2
1.51233	-3
1.51600	-3
1.51967	-3
1.52333	-4
1.52700	-4
1.53067	-5
1.53433	-5
1.53800	-6
1.54167	-6
1.54533	-7
1.54900	-7
1.55267	-8
1.55633	-8
1.56000	-8
1.56367	-9
1.56733	-9
1.57100	-9
1.57467	-9
1.57833	-9
1.58200	-9
1.58567	-9
1.58933	-9
1.59300	-9
1.59667	-9
1.60033	-9
1.60400	-9
1.60767	-10
1.61133	-11
1.61500	-12
1.61867	-14
1.62233	-16
1.62600	-18
1.62967	-20
1.63333	-22
1.63700	-25
1.64067	-28
1.64433	-31
1.64800	-34
1.65167	-37
1.65533	-41
1.65900	-44
1.66267	-47
1.66633	-51
1.67000	-54
1.67367	-58
1.67733	-63
1.68100	-68
1.68467	-73
1.68833	-78
1.69200	-83
1.69567	-88
1.69933	-92
1.70300	-96
1.70667	-100
1.71033	-103
1.71400	-105
1.71767	-107
1.72133	-109
1.72500	-110
1.72867	-111
1.73233	-112
1.73600	-113
1.73967	-113
1.74333	-113
1.74700	-113
1.75067	-113
1.75433	-113
1.75800	-113
1.76167	-114
1.76533	-114
1.76900	-115
1.77267	-116
1.77633	-116
1.78000	-117
1.78367	-118
1.78733	-119
1.79100	-119
1.79467	-120
1.79833	-121
1.80200	-121
1.80567	-120
1.80933	-120
1.81300	-119
1.81667	-118
1.82033	-117
1.82400	-117
1.82767	-117
1.83133	-117
1.83500	-117
1.83867	-118
1.84233	-119
1.84600	-120
1.84967	-120
1.85333	-120
1.85700	-120
1.86067	-120
1.86433	-120
1.86800	-120
1.87167	-120
1.87533	-121
1.87900	-121
1.88267	-121
1.88633	-121
1.89000	-120
1.89367	-120
1.89733	-119
1.90100	-119
1.90467	-119
1.90833	-118
1.91200	-118
1.91567	-118
1.91933	-118
1.92300	-118
1.92667	-117
1.93033	-117
1.93400	-116
1.93767	-116
1.94133	-116
1.94500	-116
1.94867	-116
1.95233	-116
1.95600	-116
1.95967	-116
1.96333	-116
1.96700	-116
1.97067	-116
1.97433	-115
1.97800	-115
1.98167	-115
1.98533	-115
1.98900	-114
1.99267	-114
1.99633	-113
2.00000	-113
2.00367	-113
2.00733	-113
2.01100	-113
2.01467	-113
2.01833	-113
2.02200	-113
2.02567	-112
2.02933	-112
2.03300	-112
2.03667	-112
2.04033	-112
2.04400	-112
2.04767	-112
2.05133	-112
2.05500	-112
2.05867	-111
2.06233	-111
2.06600	-110
2.06967	-110
2.07333	-110
2.07700	-111
2.08067	-111
2.08433	-111
2.08800	-110
2.09167	-109
2.09533	-109
2.09900	-108
2.10267	-107
2.10633	-107
2.11000	-106
2.11367	-105
2.11733	-105
2.12100	-105
2.12467	-105
2.12833	-105
2.13200	-104
2.13567	-104
2.13933	-103
2.14300	-103
2.14667	-102
2.15033	-102
2.15400	-102
2.15767	-102
2.16133	-102
2.16500	-102
2.16867	-102
2.17233	-101
2.17600	-101
2.17967	-101
2.18333	-101
2.18700	-100
2.19067	-100
2.19433	-99
2.19800	-99
2.20167	-99
2.20533	-98
2.20900	-97
2.21267	-96
2.21633	-95
2.22000	-95
2.22367	-95
2.22733	-95
2.23100	-95
2.23467	-95
2.23833	-95
2.24200	-95
2.24567	-95
2.24933	-94
2.25300	-95
2.25667	-95
2.26033	-95
2.26400	-95
2.26767	-95
2.27133	-94
2.27500	-93
2.27867	-92
2.28233	-91
2.28600	-90
2.28967	-90
2.29333	-89
2.29700	-88
2.30067	-88
2.30433	-88
2.30800	-88
2.31167	-88
2.31533	-89
2.31900	-89
2.32267	-89
2.32633	-89
2.33000	-88
2.33367	-87
2.33733	-86
2.34100	-85
2.34467	-84
2.34833	-83
2.35200	-82
2.35567	-82
2.35933	-82
2.36300	-82
2.36667	-82
2.37033	-82
2.37400	-81
2.37767	-80
2.38133	-78
2.38500	-75
2.38867	-72
2.39233	-68
2.39600	-63
2.39967	-59
2.40333	-54
2.40700	-48
2.41067	-43
2.41433	-38
2.41800	-34
2.42167	-30
2.42533	-26
2.42900	-23
2.43267	-21
2.43633	-18
2.44000	-16
2.44367	-14
2.44733	-12
2.45100	-10
2.45467	-8
2.45833	-6
2.46200	-5
2.46567	-3
2.46933	-2
2.47300	-1
2.47667	0
2.48033	1
2.48400	2
2.48767	3
2.49133	4
2.49500	5
2.49867	6
2.50233	7
2.50600	8
2.50967	9
2.51333	10
2.51700	10
2.52067	10
2.52433	11
2.52800	12
2.53167	12
2.53533	13
2.53900	14
2.54267	14
2.54633	14
2.55000	14
2.55367	15
2.55733	15
2.56100	15
2.56467	15
2.56833	15
2.57200	15
2.57567	15
2.57933	15
2.58300	15
2.58667	16
2.59033	16
2.59400	16
2.59767	16
2.60133	16
2.60500	17
2.60867	17
2.61233	17
2.61600	18
2.61967	19
2.62333	19
2.62700	20
2.63067	20
2.63433	19
2.63800	19
2.64167	19
2.64533	19
2.64900	18
2.65267	18
2.65633	18
2.66000	18
2.66367	19
2.66733	19
2.67100	19
2.67467	19
2.67833	20
2.68200	20
2.68567	20
2.68933	20
2.69300	21
2.69667	21
2.70033	21
2.70400	21
2.70767	22
2.71133	22
2.71500	23
2.71867	23
2.72233	23
2.72600	24
2.72967	24
2.73333	24
2.73700	24
2.74067	24
2.74433	24
2.74800	24
2.75167	24
2.75533	24
2.75900	24
2.76267	25
2.76633	25
2.77000	25
2.77367	25
2.77733	25
2.78100	25
2.78467	24
2.78833	24
2.79200	23
2.79567	23
2.79933	23
2.80300	23
2.80667	23
2.81033	23
2.81400	23
2.81767	24
2.82133	24
2.82500	24
2.82867	24
2.83233	25
2.83600	25
2.83967	25
2.84333	25
2.84700	24
2.85067	21
2.85433	17
2.85800	10
2.86167	-0
2.86533	-14
2.86900	-31
2.87267	-53
2.87633	-79
2.88000	-109
2.88367	-142
2.88733	-180
2.89100	-221
2.89467	-265
2.89833	-311
2.90200	-359
2.90567	-409
2.90933	-460
2.91300	-512
2.91667	-563
2.92033	-614
2.92400	-665
2.92767	-715
2.93133	-765
2.93500	-814
2.93867	-866
2.94233	-924
2.94600	-987
2.94967	-1048
2.95333	-1094
2.95700	-1118
2.96067	-1114
2.96433	-1084
2.96800	-1032
2.97167	-965
2.97533	-888
2.97900	-806
2.98267	-724
2.98633	-643
2.99000	-567
2.99367	-496
2.99733	-432
3.00100	-373
3.00467	-321
3.00833	-276
3.01200	-235
3.01567	-200
3.01933	-170
3.02300	-143
3.02667	-121
3.03033	-101
3.03400	-85
3.03767	-70
3.04133	-58
3.04500	-48
3.04867	-39
3.05233	-31
3.05600	-25
3.05967	-19
3.06333	-14
3.06700	-10
3.07067	-6
3.07433	-3
3.07800	-1
3.08167	1
3.08533	3
3.08900	5
3.09267	6
3.09633	7
3.10000	8
3.10367	9
3.10733	10
3.11100	11
3.11467	11
3.11833	12
3.12200	12
3.12567	13
3.12933	13
3.13300	14
3.13667	14
3.14033	14
3.14400	14
3.14767	15
3.15133	14
3.15500	14
3.15867	14
3.16233	15
3.16600	15
3.16967	15
3.17333	16
3.17700	16
3.18067	16
3.18433	17
3.18800	17
3.19167	17
3.19533	18
3.19900	19
3.20267	19
3.20633	20
3.21000	21
3.21367	22
3.21733	22
3.22100	23
3.22467	23
3.22833	24
3.23200	24
3.23567	24
3.23933	24
3.24300	25
3.24667	25
3.25033	25
3.25400	25
3.25767	25
3.26133	26
3.26500	26
3.26867	26
3.27233	26
3.27600	26
3.27967	26
3.28333	27
3.28700	27
3.29067	27
3.29433	27
3.29800	27
3.30167	26
3.30533	27
3.30900	27
3.31267	27
3.31633	27
3.32000	28
3.32367	28
3.32733	28
3.33100	28
3.33467	28
3.33833	28
3.34200	28
3.34567	27
3.34933	27
3.35300	27
3.35667	27
3.36033	27
3.36400	27
3.36767	27
3.37133	27
3.37500	27
3.37867	27
3.38233	27
3.38600	27
3.38967	27
3.39333	27
3.39700	27
3.40067	27
3.40433	27
3.40800	27
3.41167	27
3.41533	27
3.41900	27
3.42267	27
3.42633	27
3.43000	27
3.43367	27
3.43733	27
3.44100	27
3.44467	27
3.44833	27
3.45200	27
3.45567	27
3.45933	27
3.46300	27
3.46667	27
3.47033	27
3.47400	27
3.47767	27
3.48133	27
3.48500	27
3.48867	28
3.49233	28
3.49600	28
3.49967	27
3.50333	27
3.50700	27
3.51067	27
3.51433	27
3.51800	27
3.52167	27
3.52533	27
3.52900	27
3.53267	27
3.53633	26
3.54000	26
3.54367	26
3.54733	26
3.55100	26
3.55467	26
3.55833	26
3.56200	26
3.56567	26
3.56933	26
3.57300	26
3.57667	27
3.58033	27
3.58400	27
3.58767	27
3.59133	28
3.59500	28
3.59867	28
3.60233	28
3.60600	28
3.60967	28
3.61333	28
3.61700	29
3.62067	29
3.62433	29
3.62800	30
3.63167	30
3.63533	30
3.63900	31
3.64267	31
3.64633	32
3.65000	32
3.65367	32
3.65733	32
3.66100	33
3.66467	33
3.66833	33
3.67200	33
3.67567	33
3.67933	33
3.68300	33
3.68667	33
3.69033	33
3.69400	33
3.69767	33
3.70133	33
3.70500	33
3.70867	33
3.71233	32
3.71600	32
3.71967	32
3.72333	32
3.72700	32
3.73067	31
3.73433	31
3.73800	31
3.74167	30
3.74533	30
3.74900	30
3.75267	30
3.75633	30
3.76000	30
3.76367	30
3.76733	29
3.77100	29
3.77467	29
3.77833	29
3.78200	30
3.78567	30
3.78933	30
3.79300	30
3.79667	30
3.80033	31
3.80400	31
3.80767	31
3.81133	31
3.81500	31
3.81867	31
3.82233	31
3.82600	31
3.82967	31
3.83333	30
3.83700	30
3.84067	29
3.84433	29
3.84800	29
3.85167	29
3.85533	28
3.85900	28
3.86267	28
3.86633	28
3.87000	28
3.87367	28
3.87733	28
3.88100	28
3.88467	28
3.88833	28
3.89200	28
3.89567	28
3.89933	28
3.90300	27
3.90667	27
3.91033	27
3.91400	27
3.91767	27
3.92133	27
3.92500	27
3.92867	27
3.93233	27
3.93600	27
3.93967	27
3.94333	27
3.94700	27
3.95067	27
3.95433	27
3.95800	27
3.96167	27
3.96533	27
3.96900	27
3.97267	27
3.97633	27
3.98000	27
3.98367	27
3.98733	27
3.99100	26
3.99467	26
3.99833	26

[Chromatogram (Ch3)]
Interval(msec)	220
# of Points	1091
Start Time(min)	0.002
End Time(min)	3.998
R.Time (min)	Intensity
0.00167	-1
0.00533	-3
0.00900	-2
0.01267	-1
0.01633	-0
0.02000	1
0.02367	3
0.02733	4
0.03100	-0
0.03467	-3
0.03833	-2
0.04200	-1
0.04567	0
0.04933	1
0.05300	-1
0.05667	-1
0.06033	-0
0.06400	-2
0.06767	-3
0.07133	-3
0.07500	-2
0.07867	-2
0.08233	-4
0.08600	-6
0.08967	-7
0.09333	-8
0.09700	-5
0.10067	-3
0.10433	-3
0.10800	-5
0.11167	-5
0.11533	-4
0.11900	-3
0.12267	-1
0.12633	-1
0.13000	-1
0.13367	-2
0.13733	-2
0.14100	-2
0.14467	-2
0.14833	-2
0.15200	-4
0.15567	-6
0.15933	-7
0.16300	-9
0.16667	-9
0.17033	-8
0.17400	-8
0.17767	-7
0.18133	-6
0.18500	-4
0.18867	-2
0.19233	-0
0.19600	-0
0.19967	-1
0.20333	1
0.20700	1
0.21067	2
0.21433	2
0.21800	3
0.22167	4
0.22533	5
0.22900	4
0.23267	3
0.23633	3
0.24000	5
0.24367	5
0.24733	4
0.25100	1
0.25467	-1
0.25833	-2
0.26200	-3
0.26567	-4
0.26933	-5
0.27300	-6
0.27667	-6
0.28033	-2
0.28400	0
0.28767	-1
0.29133	-3
0.29500	-2
0.29867	-2
0.30233	-3
0.30600	-3
0.30967	-2
0.31333	-2
0.31700	-4
0.32067	-4
0.32433	-1
0.32800	2
0.33167	4
0.33533	5
0.33900	2
0.34267	0
0.34633	0
0.35000	1
0.35367	2
0.35733	-0
0.36100	-0
0.36467	-0
0.36833	-1
0.37200	-2
0.37567	-3
0.37933	-4
0.38300	-4
0.38667	-3
0.39033	-2
0.39400	-2
0.39767	-3
0.40133	-4
0.40500	-5
0.40867	-5
0.41233	-3
0.41600	1
0.41967	2
0.42333	1
0.42700	-0
0.43067	-1
0.43433	-2
0.43800	-3
0.44167	-5
0.44533	-6
0.44900	-5
0.45267	-4
0.45633	-4
0.46000	-3
0.46367	-1
0.46733	-1
0.47100	1
0.47467	1
0.47833	0
0.48200	-0
0.48567	-0
0.48933	-0
0.49300	-2
0.49667	-2
0.50033	-0
0.50400	1
0.50767	0
0.51133	-0
0.51500	1
0.51867	1
0.52233	1
0.52600	1
0.52967	3
0.53333	4
0.53700	4
0.54067	4
0.54433	2
0.54800	1
0.55167	-0
0.55533	-1
0.55900	-3
0.56267	-4
0.56633	-3
0.57000	0
0.57367	1
0.57733	0
0.58100	-3
0.58467	-4
0.58833	-1
0.59200	3
0.59567	4
0.59933	2
0.60300	-1
0.60667	-2
0.61033	-5
0.61400	-5
0.61767	-2
0.62133	1
0.62500	3
0.62867	3
0.63233	2
0.63600	-0
0.63967	-2
0.64333	-3
0.64700	-6
0.65067	-5
0.65433	-4
0.65800	-4
0.66167	-4
0.66533	-3
0.66900	-2
0.67267	-1
0.67633	-1
0.68000	1
0.68367	1
0.68733	-1
0.69100	-4
0.69467	-5
0.69833	-4
0.70200	-5
0.70567	-5
0.70933	-4
0.71300	-3
0.71667	-3
0.72033	-3
0.72400	-2
0.72767	-2
0.73133	-1
0.73500	0
0.73867	1
0.74233	1
0.74600	0
0.74967	1
0.75333	-0
0.75700	-2
0.76067	-1
0.76433	1
0.76800	3
0.77167	4
0.77533	4
0.77900	2
0.78267	1
0.78633	0
0.79000	-1
0.79367	-0
0.79733	1
0.80100	-1
0.80467	-4
0.80833	-5
0.81200	-5
0.81567	-6
0.81933	-5
0.82300	-4
0.82667	-4
0.83033	-4
0.83400	-2
0.83767	1
0.84133	1
0.84500	2
0.84867	3
0.85233	2
0.85600	1
0.85967	1
0.86333	1
0.86700	0
0.87067	-1
0.87433	-1
0.87800	-0
0.88167	-1
0.88533	-3
0.88900	-4
0.89267	-3
0.89633	-1
0.90000	0
0.90367	2
0.90733	5
0.91100	4
0.91467	2
0.91833	2
0.92200	1
0.92567	-0
0.92933	-1
0.93300	-3
0.93667	-5
0.94033	-6
0.94400	-6
0.94767	-5
0.95133	-4
0.95500	-2
0.95867	-1
0.96233	-2
0.96600	-0
0.96967	3
0.97333	3
0.97700	2
0.98067	-0
0.98433	0
0.98800	-1
0.99167	-3
0.99533	-3
0.99900	-1
1.00267	2
1.00633	2
1.01000	0
1.01367	-0
1.01733	-0
1.02100	-0
1.02467	-1
1.02833	2
1.03200	4
1.03567	6
1.03933	4
1.04300	3
1.04667	2
1.05033	2
1.05400	1
1.05767	0
1.06133	-1
1.06500	-3
1.06867	-4
1.07233	-3
1.07600	-2
1.07967	-3
1.08333	-2
1.08700	-0
1.09067	2
1.09433	2
1.09800	0
1.10167	-1
1.10533	-2
1.10900	-2
1.11267	-2
1.11633	-1
1.12000	1
1.12367	4
1.12733	6
1.13100	7
1.13467	4
1.13833	3
1.14200	4
1.14567	5
1.14933	5
1.15300	6
1.15667	6
1.16033	5
1.16400	2
1.16767	1
1.17133	2
1.17500	2
1.17867	1
1.18233	-1
1.18600	-2
1.18967	-2
1.19333	-3
1.19700	-3
1.20067	-3
1.20433	-1
1.20800	-1
1.21167	-0
1.21533	-1
1.21900	-2
1.22267	-1
1.22633	-0
1.23000	-1
1.23367	-1
1.23733	-2
1.24100	-1
1.24467	0
1.24833	-0
1.25200	-2
1.25567	-2
1.25933	-1
1.26300	-0
1.26667	1
1.27033	3
1.27400	1
1.27767	0
1.28133	-1
1.28500	1
1.28867	3
1.29233	4
1.29600	4
1.29967	2
1.30333	-0
1.30700	-1
1.31067	2
1.31433	5
1.31800	6
1.32167	6
1.32533	7
1.32900	6
1.33267	5
1.33633	4
1.34000	1
1.34367	-3
1.34733	-7
1.35100	-8
1.35467	-6
1.35833	-4
1.36200	-2
1.36567	1
1.36933	3
1.37300	1
1.37667	-1
1.38033	-1
1.38400	-0
1.38767	-0
1.39133	-1
1.39500	-1
1.39867	-2
1.40233	-2
1.40600	-4
1.40967	-5
1.41333	-5
1.41700	-4
1.42067	-6
1.42433	-7
1.42800	-7
1.43167	-5
1.43533	-3
1.43900	-1
1.44267	3
1.44633	5
1.45000	5
1.45367	4
1.45733	5
1.46100	7
1.46467	8
1.46833	7
1.47200	8
1.47567	8
1.47933	6
1.48300	5
1.48667	5
1.49033	4
1.49400	2
1.49767	1
1.50133	0
1.50500	-0
1.50867	-1
1.51233	0
1.51600	1
1.51967	-1
1.52333	-1
1.52700	-0
1.53067	-2
1.53433	-3
1.53800	-3
1.54167	-4
1.54533	-5
1.54900	-5
1.55267	-5
1.55633	-4
1.56000	-2
1.56367	2
1.56733	3
1.57100	3
1.57467	4
1.57833	5
1.58200	7
1.58567	8
1.58933	8
1.59300	5
1.59667	3
1.60033	4
1.60400	6
1.60767	9
1.61133	13
1.61500	15
1.61867	13
1.62233	12
1.62600	9
1.62967	7
1.63333	8
1.63700	11
1.64067	9
1.64433	7
1.64800	5
1.65167	4
1.65533	4
1.65900	6
1.66267	8
1.66633	10
1.67000	10
1.67367	10
1.67733	11
1.68100	13
1.68467	15
1.68833	17
1.69200	16
1.69567	14
1.69933	13
1.70300	14
1.70667	16
1.71033	17
1.71400	17
1.71767	19
1.72133	19
1.72500	20
1.72867	21
1.73233	20
1.73600	21
1.73967	23
1.74333	23
1.74700	24
1.75067	27
1.75433	29
1.75800	29
1.76167	30
1.76533	29
1.76900	29
1.77267	29
1.77633	32
1.78000	35
1.78367	37
1.78733	37
1.79100	36
1.79467	37
1.79833	38
1.80200	37
1.80567	38
1.80933	39
1.81300	39
1.81667	38
1.82033	35
1.82400	34
1.82767	36
1.83133	38
1.83500	41
1.83867	40
1.84233	40
1.84600	41
1.84967	42
1.85333	45
1.85700	47
1.86067	49
1.86433	48
1.86800	47
1.87167	48
1.87533	49
1.87900	48
1.88267	48
1.88633	49
1.89000	50
1.89367	49
1.89733	49
1.90100	49
1.90467	49
1.90833	51
1.91200	51
1.91567	52
1.91933	53
1.92300	54
1.92667	57
1.93033	59
1.93400	60
1.93767	59
1.94133	59
1.94500	60
1.94867	61
1.95233	61
1.95600	62
1.95967	63
1.96333	62
1.96700	61
1.97067	61
1.97433	64
1.97800	68
1.98167	70
1.98533	70
1.98900	69
1.99267	70
1.99633	70
2.00000	71
2.00367	70
2.00733	72
2.01100	75
2.01467	77
2.01833	79
2.02200	79
2.02567	79
2.02933	77
2.03300	78
2.03667	81
2.04033	85
2.04400	87
2.04767	87
2.05133	89
2.05500	89
2.05867	90
2.06233	91
2.06600	94
2.06967	97
2.07333	101
2.07700	102
2.08067	102
2.08433	105
2.08800	108
2.09167	107
2.09533	107
2.09900	109
2.10267	110
2.10633	111
2.11000	112
2.11367	112
2.11733	115
2.12100	118
2.12467	122
2.12833	123
2.13200	125
2.13567	126
2.13933	128
2.14300	130
2.14667	133
2.15033	135
2.15400	135
2.15767	136
2.16133	137
2.16500	140
2.16867	143
2.17233	145
2.17600	145
2.17967	146
2.18333	146
2.18700	146
2.19067	147
2.19433	149
2.19800	150
2.20167	151
2.20533	150
2.20900	148
2.21267	152
2.21633	158
2.22000	161
2.22367	161
2.22733	161
2.23100	162
2.23467	163
2.23833	164
2.24200	164
2.24567	166
2.24933	166
2.25300	166
2.25667	168
2.26033	170
2.26400	172
2.26767	172
2.27133	171
2.27500	172
2.27867	171
2.28233	169
2.28600	170
2.28967	170
2.29333	169
2.29700	170
2.30067	174
2.30433	178
2.30800	181
2.31167	181
2.31533	181
2.31900	182
2.32267	185
2.32633	188
2.33000	191
2.33367	193
2.33733	198
2.34100	200
2.34467	199
2.34833	196
2.35200	196
2.35567	197
2.35933	199
2.36300	200
2.36667	200
2.37033	201
2.37400	202
2.37767	204
2.38133	206
2.38500	207
2.38867	208
2.39233	206
2.39600	203
2.39967	205
2.40333	206
2.40700	205
2.41067	207
2.41433	207
2.41800	210
2.42167	213
2.42533	214
2.42900	218
2.43267	220
2.43633	220
2.44000	217
2.44367	215
2.44733	217
2.45100	220
2.45467	221
2.45833	218
2.46200	215
2.46567	210
2.46933	207
2.47300	207
2.47667	209
2.48033	210
2.48400	211
2.48767	212
2.49133	213
2.49500	214
2.49867	213
2.50233	210
2.50600	208
2.50967	206
2.51333	203
2.51700	201
2.52067	200
2.52433	201
2.52800	203
2.53167	202
2.53533	202
2.53900	201
2.54267	199
2.54633	200
2.55000	201
2.55367	202
2.55733	204
2.56100	207
2.56467	208
2.56833	209
2.57200	208
2.57567	207
2.57933	205
2.58300	203
2.58667	204
2.59033	203
2.59400	201
2.59767	198
2.60133	192
2.60500	183
2.60867	170
2.61233	149
2.61600	122
2.61967	94
2.62333	66
2.62700	38
2.63067	12
2.63433	-12
2.63800	-34
2.64167	-51
2.64533	-62
2.64900	-68
2.65267	-71
2.65633	-72
2.66000	-71
2.66367	-68
2.66733	-63
2.67100	-59
2.67467	-56
2.67833	-52
2.68200	-46
2.68567	-39
2.68933	-33
2.69300	-27
2.69667	-22
2.70033	-15
2.70400	-9
2.70767	-5
2.71133	-2
2.71500	2
2.71867	10
2.72233	16
2.72600	20
2.72967	22
2.73333	25
2.73700	27
2.74067	32
2.74433	34
2.74800	38
2.75167	41
2.75533	45
2.75900	48
2.76267	50
2.76633	51
2.77000	51
2.77367	52
2.77733	54
2.78100	56
2.78467	58
2.78833	59
2.79200	58
2.79567	61
2.79933	61
2.80300	59
2.80667	58
2.81033	56
2.81400	53
2.81767	51
2.82133	49
2.82500	53
2.82867	66
2.83233	96
2.83600	161
2.83967	281
2.84333	479
2.84700	777
2.85067	1191
2.85433	1719
2.85800	2338
2.86167	3008
2.86533	3677
2.86900	4293
2.87267	4807
2.87633	5180
2.88000	5394
2.88367	5447
2.88733	5357
2.89100	5144
2.89467	4840
2.89833	4480
2.90200	4091
2.90567	3695
2.90933	3302
2.91300	2927
2.91667	2583
2.92033	2267
2.92400	1980
2.92767	1723
2.93133	1495
2.93500	1293
2.93867	1114
2.94233	956
2.94600	819
2.94967	702
2.95333	601
2.95700	513
2.96067	438
2.96433	371
2.96800	313
2.97167	265
2.97533	220
2.97900	182
2.98267	149
2.98633	122
2.99000	95
2.99367	71
2.99733	52
3.00100	34
3.00467	20
3.00833	9
3.01200	-1
3.01567	-8
3.01933	-14
3.02300	-18
3.02667	-21
3.03033	-28
3.03400	-33
3.03767	-38
3.04133	-43
3.04500	-48
3.04867	-51
3.05233	-55
3.05600	-59
3.05967	-62
3.06333	-63
3.06700	-64
3.07067	-65
3.07433	-66
3.07800	-66
3.08167	-67
3.08533	-68
3.08900	-68
3.09267	-70
3.09633	-72
3.10000	-76
3.10367	-78
3.10733	-81
3.11100	-83
3.11467	-83
3.11833	-82
3.12200	-82
3.12567	-83
3.12933	-85
3.13300	-87
3.13667	-86
3.14033	-85
3.14400	-86
3.14767	-88
3.15133	-89
3.15500	-88
3.15867	-87
3.16233	-88
3.16600	-88
3.16967	-89
3.17333	-90
3.17700	-91
3.18067	-91
3.18433	-91
3.18800	-91
3.19167	-91
3.19533	-91
3.19900	-90
3.20267	-91
3.20633	-90
3.21000	-88
3.21367	-85
3.21733	-87
3.22100	-88
3.22467	-90
3.22833	-90
3.23200	-89
3.23567	-89
3.23933	-87
3.24300	-84
3.24667	-82
3.25033	-82
3.25400	-82
3.25767	-82
3.26133	-82
3.26500	-82
3.26867	-81
3.27233	-79
3.27600	-78
3.27967	-76
3.28333	-75
3.28700	-74
3.29067	-74
3.29433	-75
3.29800	-75
3.30167	-73
3.30533	-71
3.30900	-71
3.31267	-71
3.31633	-72
3.32000	-74
3.32367	-74
3.32733	-72
3.33100	-72
3.33467	-72
3.33833	-72
3.34200	-72
3.34567	-73
3.34933	-73
3.35300	-72
3.35667	-71
3.36033	-72
3.36400	-71
3.36767	-69
3.37133	-68
3.37500	-69
3.37867	-70
3.38233	-72
3.38600	-73
3.38967	-74
3.39333	-73
3.39700	-72
3.40067	-70
3.40433	-68
3.40800	-67
3.41167	-65
3.41533	-64
3.41900	-62
3.42267	-61
3.42633	-62
3.43000	-63
3.43367	-64
3.43733	-64
3.44100	-64
3.44467	-63
3.44833	-63
3.45200	-65
3.45567	-66
3.45933	-66
3.46300	-64
3.46667	-63
3.47033	-63
3.47400	-60
3.47767	-57
3.48133	-53
3.48500	-51
3.48867	-52
3.49233	-54
3.49600	-56
3.49967	-55
3.50333	-55
3.50700	-55
3.51067	-58
3.51433	-59
3.51800	-58
3.52167	-57
3.52533	-56
3.52900	-55
3.53267	-53
3.53633	-51
3.54000	-50
3.54367	-48
3.54733	-47
3.55100	-47
3.55467	-48
3.55833	-49
3.56200	-49
3.56567	-47
3.56933	-46
3.57300	-47
3.57667	-46
3.58033	-47
3.58400	-49
3.58767	-48
3.59133	-47
3.59500	-45
3.59867	-43
3.60233	-44
3.60600	-44
3.60967	-43
3.61333	-42
3.61700	-41
3.62067	-40
3.62433	-42
3.62800	-44
3.63167	-44
3.63533	-43
3.63900	-41
3.64267	-40
3.64633	-38
3.65000	-36
3.65367	-37
3.65733	-40
3.66100	-39
3.66467	-37
3.66833	-37
3.67200	-35
3.67567	-36
3.67933	-38
3.68300	-40
3.68667	-40
3.69033	-39
3.69400	-40
3.69767	-38
3.70133	-37
3.70500	-35
3.70867	-34
3.71233	-33
3.71600	-31
3.71967	-30
3.72333	-31
3.72700	-31
3.73067	-30
3.73433	-31
3.73800	-31
3.74167	-29
3.74533	-30
3.74900	-29
3.75267	-27
3.75633	-28
3.76000	-31
3.76367	-34
3.76733	-35
3.77100	-35
3.77467	-34
3.77833	-33
3.78200	-31
3.78567	-29
3.78933	-29
3.79300	-28
3.79667	-27
3.80033	-26
3.80400	-28
3.80767	-26
3.81133	-23
3.81500	-22
3.81867	-23
3.82233	-24
3.82600	-26
3.82967	-27
3.83333	-27
3.83700	-27
3.84067	-25
3.84433	-24
3.84800	-25
3.85167	-25
3.85533	-23
3.85900	-22
3.86267	-21
3.86633	-17
3.87000	-15
3.87367	-14
3.87733	-14
3.88100	-16
3.88467	-17
3.88833	-16
3.89200	-13
3.89567	-13
3.89933	-14
3.90300	-14
3.90667	-12
3.91033	-10
3.91400	-12
3.91767	-12
3.92133	-11
3.92500	-11
3.92867	-12
3.93233	-14
3.93600	-15
3.93967	-12
3.94333	-9
3.94700	-8
3.95067	-8
3.95433	-10
3.95800	-11
3.96167	-9
3.96533	-8
3.96900	-7
3.97267	-6
3.97633	-5
3.98000	-4
3.98367	-6
3.98733	-8
3.99100	-8
3.99467	-9
3.99833	-9

[Status Trace (Column Oven Temperature)]
Interval(msec)	1000
# of Points	240
Start Time(min)	0.011
End Time(min)	3.995
Intensity Units	
Intensity Multiplier	1
R.Time (min)	Intensity
0.01137	35.05
0.02803	35.05
0.04470	35.05
0.06137	35.04
0.07803	35.02
0.09470	35.01
0.11137	35.01
0.12803	35.00
0.14470	34.99
0.16137	34.99
0.17803	34.99
0.19470	34.98
0.21137	34.97
0.22803	34.97
0.24470	34.97
0.26137	34.96
0.27803	34.96
0.29470	34.96
0.31137	34.98
0.32803	35.00
0.34470	35.00
0.36137	35.01
0.37803	35.02
0.39470	35.02
0.41137	35.01
0.42803	35.00
0.44470	35.00
0.46137	35.01
0.47803	35.03
0.49470	35.02
0.51137	35.02
0.52803	35.01
0.54470	34.99
0.56137	35.00
0.57803	34.99
0.59470	34.99
0.61137	34.97
0.62803	34.98
0.64470	34.98
0.66137	34.99
0.67803	34.97
0.69470	34.97
0.71137	34.96
0.72803	34.95
0.74470	34.96
0.76137	34.95
0.77803	34.96
0.79470	34.96
0.81137	34.95
0.82803	34.96
0.84470	34.96
0.86137	34.97
0.87803	34.98
0.89470	34.98
0.91137	34.98
0.92803	34.98
0.94470	34.98
0.96137	34.97
0.97803	34.98
0.99470	34.98
1.01137	34.98
1.02803	34.98
1.04470	34.98
1.06137	34.98
1.07803	34.98
1.09470	34.98
1.11137	34.99
1.12803	34.98
1.14470	34.98
1.16137	34.98
1.17803	34.98
1.19470	34.98
1.21137	34.98
1.22803	35.00
1.24470	34.99
1.26137	35.01
1.27803	35.02
1.29470	35.02
1.31137	35.01
1.32803	35.00
1.34470	34.99
1.36137	34.99
1.37803	34.99
1.39470	34.99
1.41137	35.00
1.42803	34.98
1.44470	34.97
1.46137	34.97
1.47803	34.97
1.49470	34.97
1.51137	34.98
1.52803	35.01
1.54470	35.03
1.56137	35.06
1.57803	35.07
1.59470	35.10
1.61137	35.17
1.62803	35.29
1.64470	35.47
1.66137	35.69
1.67803	36.00
1.69470	36.38
1.71137	36.74
1.72803	37.09
1.74470	37.40
1.76137	37.74
1.77803	38.06
1.79470	38.42
1.81137	38.73
1.82803	39.04
1.84470	39.39
1.86137	39.71
1.87803	40.05
1.89470	40.37
1.91137	40.70
1.92803	41.02
1.94470	41.36
1.96137	41.68
1.97803	42.01
1.99470	42.32
2.01137	42.66
2.02803	42.98
2.04470	43.34
2.06137	43.65
2.07803	44.00
2.09470	44.31
2.11137	44.64
2.12803	44.96
2.14470	45.29
2.16137	45.61
2.17803	45.95
2.19470	46.29
2.21137	46.59
2.22803	46.93
2.24470	47.26
2.26137	47.60
2.27803	47.91
2.29470	48.23
2.31137	48.56
2.32803	48.90
2.34470	49.18
2.36137	49.50
2.37803	49.69
2.39470	49.75
2.41137	49.73
2.42803	49.75
2.44470	49.76
2.46137	49.76
2.47803	49.77
2.49470	49.78
2.51137	49.78
2.52803	49.79
2.54470	49.79
2.56137	49.81
2.57803	49.81
2.59470	49.82
2.61137	49.82
2.62803	49.81
2.64470	49.83
2.66137	49.85
2.67803	49.85
2.69470	49.86
2.71137	49.86
2.72803	49.86
2.74470	49.86
2.76137	49.85
2.77803	49.86
2.79470	49.88
2.81137	49.89
2.82803	49.89
2.84470	49.90
2.86137	49.92
2.87803	49.94
2.89470	49.96
2.91137	49.97
2.92803	49.97
2.94470	49.99
2.96137	50.00
2.97803	49.99
2.99470	49.99
3.01137	49.99
3.02803	50.00
3.04470	50.00
3.06137	50.01
3.07803	50.02
3.09470	50.03
3.11137	50.04
3.12803	50.06
3.14470	50.08
3.16137	50.09
3.17803	50.11
3.19470	50.11
3.21137	50.09
3.22803	50.07
3.24470	50.07
3.26137	50.06
3.27803	50.05
3.29470	50.05
3.31137	50.04
3.32803	50.03
3.34470	50.03
3.36137	50.04
3.37803	50.05
3.39470	50.05
3.41137	50.05
3.42803	50.06
3.44470	50.07
3.46137	50.06
3.47803	50.07
3.49470	50.07
3.51137	50.09
3.52803	50.10
3.54470	50.11
3.56137	50.11
3.57803	50.11
3.59470	50.12
3.61137	50.11
3.62803	50.09
3.64470	50.07
3.66137	50.04
3.67803	50.02
3.69470	50.00
3.71137	49.99
3.72803	49.99
3.74470	49.99
3.76137	49.99
3.77803	49.99
3.79470	49.98
3.81137	49.96
3.82803	49.96
3.84470	49.96
3.86137	49.96
3.87803	49.96
3.89470	49.97
3.91137	49.99
3.92803	49.99
3.94470	50.00
3.96137	49.99
3.97803	50.00
3.99470	50.01

[Status Trace (Injection Unit Temperature)]
Interval(msec)	1000
# of Points	240
Start Time(min)	0.011
End Time(min)	3.995
Intensity Units	
Intensity Multiplier	1
R.Time (min)	Intensity
0.01137	100.00
0.02803	99.99
0.04470	100.00
0.06137	100.00
0.07803	100.00
0.09470	100.00
0.11137	99.99
0.12803	100.00
0.14470	99.99
0.16137	100.00
0.17803	100.00
0.19470	100.00
0.21137	100.00
0.22803	100.00
0.24470	99.99
0.26137	100.00
0.27803	100.00
0.29470	100.00
0.31137	99.99
0.32803	100.00
0.34470	100.00
0.36137	99.99
0.37803	99.99
0.39470	99.99
0.41137	100.00
0.42803	100.00
0.44470	99.99
0.46137	99.99
0.47803	100.00
0.49470	99.99
0.51137	99.99
0.52803	100.00
0.54470	100.00
0.56137	99.99
0.57803	100.00
0.59470	99.99
0.61137	99.99
0.62803	99.99
0.64470	99.99
0.66137	99.99
0.67803	100.00
0.69470	99.99
0.71137	99.99
0.72803	99.99
0.74470	99.99
0.76137	99.99
0.77803	99.99
0.79470	100.00
0.81137	100.00
0.82803	100.00
0.84470	100.00
0.86137	99.99
0.87803	99.99
0.89470	100.00
0.91137	100.00
0.92803	99.99
0.94470	99.99
0.96137	100.00
0.97803	100.00
0.99470	100.00
1.01137	100.00
1.02803	99.99
1.04470	100.00
1.06137	99.99
1.07803	99.99
1.09470	100.00
1.11137	100.00
1.12803	100.00
1.14470	100.00
1.16137	100.00
1.17803	99.99
1.19470	100.00
1.21137	100.00
1.22803	100.00
1.24470	100.00
1.26137	99.99
1.27803	100.00
1.29470	99.99
1.31137	99.99
1.32803	99.99
1.34470	100.00
1.36137	100.00
1.37803	100.00
1.39470	100.00
1.41137	100.00
1.42803	100.00
1.44470	100.00
1.46137	99.99
1.47803	100.00
1.49470	100.00
1.51137	99.99
1.52803	100.00
1.54470	99.99
1.56137	100.00
1.57803	100.00
1.59470	100.00
1.61137	99.99
1.62803	99.99
1.64470	100.00
1.66137	99.99
1.67803	99.99
1.69470	99.99
1.71137	99.99
1.72803	99.99
1.74470	99.99
1.76137	99.99
1.77803	99.99
1.79470	99.99
1.81137	99.99
1.82803	99.99
1.84470	99.99
1.86137	99.99
1.87803	99.99
1.89470	99.98
1.91137	99.99
1.92803	99.98
1.94470	99.98
1.96137	99.98
1.97803	99.98
1.99470	99.98
2.01137	99.98
2.02803	99.98
2.04470	99.98
2.06137	99.98
2.07803	99.98
2.09470	99.98
2.11137	99.98
2.12803	99.97
2.14470	99.98
2.16137	99.98
2.17803	99.98
2.19470	99.97
2.21137	99.97
2.22803	99.98
2.24470	99.98
2.26137	99.98
2.27803	99.98
2.29470	99.98
2.31137	99.98
2.32803	99.98
2.34470	99.97
2.36137	99.98
2.37803	99.98
2.39470	99.98
2.41137	99.98
2.42803	99.98
2.44470	99.98
2.46137	99.98
2.47803	99.98
2.49470	99.98
2.51137	99.98
2.52803	99.98
2.54470	99.99
2.56137	99.98
2.57803	99.98
2.59470	99.99
2.61137	99.99
2.62803	99.98
2.64470	99.99
2.66137	99.99
2.67803	99.99
2.69470	99.99
2.71137	99.99
2.72803	99.99
2.74470	100.00
2.76137	99.99
2.77803	100.00
2.79470	100.00
2.81137	100.00
2.82803	100.00
2.84470	100.00
2.86137	100.00
2.87803	100.01
2.89470	100.00
2.91137	100.01
2.92803	100.01
2.94470	100.01
2.96137	100.01
2.97803	100.01
2.99470	100.01
3.01137	100.02
3.02803	100.02
3.04470	100.02
3.06137	100.02
3.07803	100.02
3.09470	100.02
3.11137	100.03
3.12803	100.02
3.14470	100.03
3.16137	100.03
3.17803	100.03
3.19470	100.03
3.21137	100.03
3.22803	100.03
3.24470	100.03
3.26137	100.03
3.27803	100.03
3.29470	100.03
3.31137	100.03
3.32803	100.04
3.34470	100.03
3.36137	100.03
3.37803	100.04
3.39470	100.04
3.41137	100.04
3.42803	100.04
3.44470	100.04
3.46137	100.04
3.47803	100.04
3.49470	100.04
3.51137	100.04
3.52803	100.04
3.54470	100.04
3.56137	100.05
3.57803	100.05
3.59470	100.04
3.61137	100.05
3.62803	100.05
3.64470	100.05
3.66137	100.05
3.67803	100.05
3.69470	100.05
3.71137	100.05
3.72803	100.05
3.74470	100.05
3.76137	100.06
3.77803	100.05
3.79470	100.06
3.81137	100.06
3.82803	100.06
3.84470	100.06
3.86137	100.06
3.87803	100.06
3.89470	100.06
3.91137	100.06
3.92803	100.06
3.94470	100.06
3.96137	100.06
3.97803	100.06
3.99470	100.06

[Status Trace (Carrier Gas Pressure)]
Interval(msec)	1000
# of Points	240
Start Time(min)	0.011
End Time(min)	3.995
Intensity Units	
Intensity Multiplier	1
R.Time (min)	Intensity
0.01137	58.00
0.02803	55.00
0.04470	57.53
0.06137	59.50
0.07803	59.17
0.09470	58.01
0.11137	57.98
0.12803	58.01
0.14470	58.01
0.16137	58.01
0.17803	58.00
0.19470	58.00
0.21137	58.00
0.22803	58.00
0.24470	58.00
0.26137	58.00
0.27803	58.00
0.29470	58.00
0.31137	58.00
0.32803	58.00
0.34470	58.00
0.36137	58.00
0.37803	58.00
0.39470	58.00
0.41137	58.00
0.42803	58.00
0.44470	58.00
0.46137	58.00
0.47803	58.00
0.49470	58.00
0.51137	58.00
0.52803	58.00
0.54470	58.00
0.56137	58.00
0.57803	58.00
0.59470	58.00
0.61137	58.00
0.62803	58.00
0.64470	58.00
0.66137	58.00
0.67803	58.00
0.69470	58.00
0.71137	58.00
0.72803	58.00
0.74470	58.00
0.76137	58.00
0.77803	58.00
0.79470	58.00
0.81137	58.00
0.82803	58.00
0.84470	58.00
0.86137	58.00
0.87803	58.00
0.89470	58.00
0.91137	58.00
0.92803	58.00
0.94470	58.00
0.96137	58.00
0.97803	58.00
0.99470	58.00
1.01137	58.00
1.02803	58.00
1.04470	58.00
1.06137	58.00
1.07803	58.00
1.09470	58.00
1.11137	58.00
1.12803	58.00
1.14470	58.00
1.16137	58.00
1.17803	58.00
1.19470	58.00
1.21137	58.00
1.22803	58.00
1.24470	58.00
1.26137	58.00
1.27803	58.00
1.29470	58.00
1.31137	58.00
1.32803	58.00
1.34470	58.00
1.36137	58.00
1.37803	58.00
1.39470	58.00
1.41137	58.00
1.42803	58.00
1.44470	58.00
1.46137	58.00
1.47803	58.00
1.49470	58.00
1.51137	58.00
1.52803	58.00
1.54470	58.00
1.56137	58.00
1.57803	58.00
1.59470	58.00
1.61137	58.00
1.62803	58.00
1.64470	58.00
1.66137	58.00
1.67803	58.01
1.69470	58.01
1.71137	58.00
1.72803	58.00
1.74470	58.00
1.76137	58.00
1.77803	58.00
1.79470	58.00
1.81137	58.00
1.82803	58.00
1.84470	58.00
1.86137	58.00
1.87803	58.00
1.89470	58.00
1.91137	58.00
1.92803	58.00
1.94470	58.00
1.96137	58.00
1.97803	58.00
1.99470	58.00
2.01137	58.00
2.02803	58.00
2.04470	58.00
2.06137	58.00
2.07803	58.00
2.09470	58.00
2.11137	58.00
2.12803	58.00
2.14470	58.00
2.16137	58.00
2.17803	58.00
2.19470	58.00
2.21137	58.00
2.22803	58.00
2.24470	58.00
2.26137	58.00
2.27803	58.00
2.29470	58.00
2.31137	58.00
2.32803	58.00
2.34470	58.00
2.36137	58.00
2.37803	58.00
2.39470	57.99
2.41137	57.99
2.42803	58.00
2.44470	58.00
2.46137	58.00
2.47803	58.00
2.49470	58.00
2.51137	58.00
2.52803	57.99
2.54470	58.00
2.56137	58.00
2.57803	58.00
2.59470	58.00
2.61137	58.00
2.62803	58.00
2.64470	58.00
2.66137	58.00
2.67803	58.00
2.69470	58.00
2.71137	58.00
2.72803	58.00
2.74470	58.00
2.76137	58.00
2.77803	58.00
2.79470	58.00
2.81137	58.00
2.82803	58.00
2.84470	58.00
2.86137	58.00
2.87803	58.00
2.89470	58.00
2.91137	58.00
2.92803	58.00
2.94470	58.00
2.96137	58.00
2.97803	58.00
2.99470	58.00
3.01137	58.00
3.02803	58.00
3.04470	58.00
3.06137	58.00
3.07803	58.00
3.09470	58.00
3.11137	58.00
3.12803	58.00
3.14470	58.00
3.16137	58.00
3.17803	58.00
3.19470	58.00
3.21137	58.00
3.22803	58.00
3.24470	58.00
3.26137	58.00
3.27803	58.00
3.29470	58.00
3.31137	58.00
3.32803	58.00
3.34470	58.00
3.36137	58.00
3.37803	58.00
3.39470	58.00
3.41137	58.00
3.42803	58.00
3.44470	58.00
3.46137	58.00
3.47803	58.00
3.49470	58.00
3.51137	58.00
3.52803	58.00
3.54470	58.00
3.56137	58.00
3.57803	58.00
3.59470	58.00
3.61137	58.00
3.62803	58.00
3.64470	58.00
3.66137	58.00
3.67803	58.00
3.69470	58.00
3.71137	58.00
3.72803	58.00
3.74470	58.00
3.76137	58.00
3.77803	58.00
3.79470	58.00
3.81137	58.00
3.82803	58.00
3.84470	58.00
3.86137	58.00
3.87803	58.00
3.89470	58.00
3.91137	58.00
3.92803	58.00
3.94470	58.00
3.96137	58.00
3.97803	58.00
3.99470	58.00

[Status Trace (Carrier Gas Flow)]
Interval(msec)	1000
# of Points	240
Start Time(min)	0.011
End Time(min)	3.995
Intensity Units	
Intensity Multiplier	1
R.Time (min)	Intensity
0.01137	34.52
0.02803	34.54
0.04470	34.55
0.06137	34.54
0.07803	34.50
0.09470	34.52
0.11137	34.52
0.12803	34.52
0.14470	34.52
0.16137	34.52
0.17803	34.52
0.19470	34.52
0.21137	34.52
0.22803	34.52
0.24470	34.52
0.26137	34.52
0.27803	34.52
0.29470	34.52
0.31137	34.52
0.32803	34.52
0.34470	34.52
0.36137	34.52
0.37803	34.52
0.39470	34.52
0.41137	34.52
0.42803	34.52
0.44470	34.52
0.46137	34.52
0.47803	34.52
0.49470	34.52
0.51137	34.52
0.52803	34.52
0.54470	34.52
0.56137	34.52
0.57803	34.52
0.59470	34.52
0.61137	34.52
0.62803	34.52
0.64470	34.52
0.66137	34.52
0.67803	34.52
0.69470	34.52
0.71137	34.52
0.72803	34.52
0.74470	34.52
0.76137	34.52
0.77803	34.52
0.79470	34.52
0.81137	34.52
0.82803	34.52
0.84470	34.52
0.86137	34.52
0.87803	34.52
0.89470	34.52
0.91137	34.52
0.92803	34.52
0.94470	34.52
0.96137	34.52
0.97803	34.52
0.99470	34.52
1.01137	34.52
1.02803	34.52
1.04470	34.52
1.06137	34.52
1.07803	34.52
1.09470	34.52
1.11137	34.52
1.12803	34.52
1.14470	34.52
1.16137	34.52
1.17803	34.52
1.19470	34.52
1.21137	34.52
1.22803	34.52
1.24470	34.52
1.26137	34.52
1.27803	34.52
1.29470	34.52
1.31137	34.52
1.32803	34.52
1.34470	34.52
1.36137	34.52
1.37803	34.52
1.39470	34.52
1.41137	34.52
1.42803	34.52
1.44470	34.52
1.46137	34.52
1.47803	34.52
1.49470	34.52
1.51137	34.52
1.52803	34.52
1.54470	34.52
1.56137	34.52
1.57803	34.52
1.59470	34.52
1.61137	34.52
1.62803	34.52
1.64470	34.52
1.66137	34.52
1.67803	34.52
1.69470	34.52
1.71137	34.52
1.72803	34.52
1.74470	34.52
1.76137	34.52
1.77803	34.52
1.79470	34.52
1.81137	34.52
1.82803	34.52
1.84470	34.52
1.86137	34.52
1.87803	34.52
1.89470	34.52
1.91137	34.52
1.92803	34.52
1.94470	34.52
1.96137	34.52
1.97803	34.52
1.99470	34.52
2.01137	34.52
2.02803	34.52
2.04470	34.52
2.06137	34.52
2.07803	34.52
2.09470	34.52
2.11137	34.52
2.12803	34.52
2.14470	34.52
2.16137	34.52
2.17803	34.52
2.19470	34.52
2.21137	34.52
2.22803	34.52
2.24470	34.52
2.26137	34.52
2.27803	34.52
2.29470	34.52
2.31137	34.52
2.32803	34.52
2.34470	34.52
2.36137	34.52
2.37803	34.52
2.39470	34.52
2.41137	34.52
2.42803	34.52
2.44470	34.52
2.46137	34.52
2.47803	34.52
2.49470	34.52
2.51137	34.52
2.52803	34.51
2.54470	34.52
2.56137	34.51
2.57803	34.52
2.59470	34.52
2.61137	34.52
2.62803	34.52
2.64470	34.52
2.66137	34.52
2.67803	34.52
2.69470	34.52
2.71137	34.52
2.72803	34.52
2.74470	34.52
2.76137	34.52
2.77803	34.52
2.79470	34.52
2.81137	34.52
2.82803	34.51
2.84470	34.52
2.86137	34.52
2.87803	34.52
2.89470	34.52
2.91137	34.52
2.92803	34.52
2.94470	34.52
2.96137	34.52
2.97803	34.52
2.99470	34.52
3.01137	34.52
3.02803	34.52
3.04470	34.52
3.06137	34.52
3.07803	34.52
3.09470	34.52
3.11137	34.52
3.12803	34.52
3.14470	34.52
3.16137	34.53
3.17803	34.52
3.19470	34.52
3.21137	34.52
3.22803	34.52
3.24470	34.52
3.26137	34.52
3.27803	34.52
3.29470	34.52
3.31137	34.51
3.32803	34.51
3.34470	34.51
3.36137	34.52
3.37803	34.52
3.39470	34.52
3.41137	34.52
3.42803	34.52
3.44470	34.53
3.46137	34.52
3.47803	34.52
3.49470	34.52
3.51137	34.52
3.52803	34.52
3.54470	34.52
3.56137	34.52
3.57803	34.52
3.59470	34.52
3.61137	34.52
3.62803	34.52
3.64470	34.52
3.66137	34.52
3.67803	34.52
3.69470	34.52
3.71137	34.52
3.72803	34.52
3.74470	34.52
3.76137	34.52
3.77803	34.52
3.79470	34.52
3.81137	34.52
3.82803	34.52
3.84470	34.52
3.86137	34.52
3.87803	34.52
3.89470	34.52
3.91137	34.52
3.92803	34.52
3.94470	34.52
3.96137	34.52
3.97803	34.52
3.99470	34.53

[Status Trace (Column Flow)]
Interval(msec)	1000
# of Points	240
Start Time(min)	0.011
End Time(min)	3.995
Intensity Units	
Intensity Multiplier	1
R.Time (min)	Intensity
0.01137	5.49
0.02803	5.15
0.04470	5.44
0.06137	5.67
0.07803	5.63
0.09470	5.49
0.11137	5.49
0.12803	5.49
0.14470	5.49
0.16137	5.49
0.17803	5.49
0.19470	5.49
0.21137	5.49
0.22803	5.49
0.24470	5.49
0.26137	5.49
0.27803	5.49
0.29470	5.49
0.31137	5.49
0.32803	5.49
0.34470	5.49
0.36137	5.49
0.37803	5.49
0.39470	5.49
0.41137	5.49
0.42803	5.49
0.44470	5.49
0.46137	5.49
0.47803	5.49
0.49470	5.49
0.51137	5.49
0.52803	5.49
0.54470	5.49
0.56137	5.49
0.57803	5.49
0.59470	5.49
0.61137	5.49
0.62803	5.49
0.64470	5.49
0.66137	5.49
0.67803	5.49
0.69470	5.49
0.71137	5.49
0.72803	5.49
0.74470	5.49
0.76137	5.49
0.77803	5.49
0.79470	5.49
0.81137	5.49
0.82803	5.49
0.84470	5.49
0.86137	5.49
0.87803	5.49
0.89470	5.49
0.91137	5.49
0.92803	5.49
0.94470	5.49
0.96137	5.49
0.97803	5.49
0.99470	5.49
1.01137	5.49
1.02803	5.49
1.04470	5.49
1.06137	5.49
1.07803	5.49
1.09470	5.49
1.11137	5.49
1.12803	5.49
1.14470	5.49
1.16137	5.49
1.17803	5.49
1.19470	5.49
1.21137	5.49
1.22803	5.49
1.24470	5.49
1.26137	5.49
1.27803	5.49
1.29470	5.49
1.31137	5.49
1.32803	5.49
1.34470	5.49
1.36137	5.49
1.37803	5.49
1.39470	5.49
1.41137	5.49
1.42803	5.49
1.44470	5.49
1.46137	5.49
1.47803	5.49
1.49470	5.49
1.51137	5.49
1.52803	5.49
1.54470	5.49
1.56137	5.49
1.57803	5.49
1.59470	5.49
1.61137	5.49
1.62803	5.48
1.64470	5.48
1.66137	5.47
1.67803	5.46
1.69470	5.45
1.71137	5.44
1.72803	5.43
1.74470	5.42
1.76137	5.41
1.77803	5.40
1.79470	5.39
1.81137	5.38
1.82803	5.37
1.84470	5.36
1.86137	5.35
1.87803	5.34
1.89470	5.33
1.91137	5.32
1.92803	5.31
1.94470	5.30
1.96137	5.29
1.97803	5.28
1.99470	5.27
2.01137	5.26
2.02803	5.25
2.04470	5.24
2.06137	5.23
2.07803	5.22
2.09470	5.21
2.11137	5.20
2.12803	5.19
2.14470	5.18
2.16137	5.17
2.17803	5.16
2.19470	5.15
2.21137	5.15
2.22803	5.14
2.24470	5.13
2.26137	5.12
2.27803	5.11
2.29470	5.10
2.31137	5.09
2.32803	5.08
2.34470	5.07
2.36137	5.06
2.37803	5.06
2.39470	5.06
2.41137	5.06
2.42803	5.06
2.44470	5.06
2.46137	5.06
2.47803	5.06
2.49470	5.06
2.51137	5.06
2.52803	5.06
2.54470	5.06
2.56137	5.06
2.57803	5.06
2.59470	5.06
2.61137	5.06
2.62803	5.06
2.64470	5.06
2.66137	5.06
2.67803	5.05
2.69470	5.06
2.71137	5.06
2.72803	5.05
2.74470	5.05
2.76137	5.05
2.77803	5.05
2.79470	5.05
2.81137	5.05
2.82803	5.05
2.84470	5.05
2.86137	5.05
2.87803	5.05
2.89470	5.05
2.91137	5.05
2.92803	5.05
2.94470	5.05
2.96137	5.05
2.97803	5.05
2.99470	5.05
3.01137	5.05
3.02803	5.05
3.04470	5.05
3.06137	5.05
3.07803	5.05
3.09470	5.05
3.11137	5.05
3.12803	5.05
3.14470	5.05
3.16137	5.05
3.17803	5.05
3.19470	5.05
3.21137	5.05
3.22803	5.05
3.24470	5.05
3.26137	5.05
3.27803	5.05
3.29470	5.05
3.31137	5.05
3.32803	5.05
3.34470	5.05
3.36137	5.05
3.37803	5.05
3.39470	5.05
3.41137	5.05
3.42803	5.05
3.44470	5.05
3.46137	5.05
3.47803	5.05
3.49470	5.05
3.51137	5.05
3.52803	5.05
3.54470	5.05
3.56137	5.05
3.57803	5.05
3.59470	5.05
3.61137	5.05
3.62803	5.05
3.64470	5.05
3.66137	5.05
3.67803	5.05
3.69470	5.05
3.71137	5.05
3.72803	5.05
3.74470	5.05
3.76137	5.05
3.77803	5.05
3.79470	5.05
3.81137	5.05
3.82803	5.05
3.84470	5.05
3.86137	5.05
3.87803	5.05
3.89470	5.05
3.91137	5.05
3.92803	5.05
3.94470	5.05
3.96137	5.05
3.97803	5.05
3.99470	5.05

[Status Trace (Linear Velocity)]
Interval(msec)	1000
# of Points	240
Start Time(min)	0.011
End Time(min)	3.995
Intensity Units	
Intensity Multiplier	1
R.Time (min)	Intensity
0.01137	39.01
0.02803	37.04
0.04470	38.70
0.06137	39.99
0.07803	39.77
0.09470	39.01
0.11137	39.00
0.12803	39.02
0.14470	39.02
0.16137	39.01
0.17803	39.01
0.19470	39.01
0.21137	39.01
0.22803	39.01
0.24470	39.01
0.26137	39.02
0.27803	39.02
0.29470	39.01
0.31137	39.01
0.32803	39.01
0.34470	39.01
0.36137	39.01
0.37803	39.01
0.39470	39.01
0.41137	39.01
0.42803	39.01
0.44470	39.01
0.46137	39.01
0.47803	39.01
0.49470	39.01
0.51137	39.01
0.52803	39.01
0.54470	39.01
0.56137	39.01
0.57803	39.01
0.59470	39.01
0.61137	39.01
0.62803	39.01
0.64470	39.01
0.66137	39.01
0.67803	39.01
0.69470	39.01
0.71137	39.01
0.72803	39.01
0.74470	39.01
0.76137	39.01
0.77803	39.01
0.79470	39.01
0.81137	39.01
0.82803	39.01
0.84470	39.01
0.86137	39.01
0.87803	39.01
0.89470	39.01
0.91137	39.01
0.92803	39.01
0.94470	39.01
0.96137	39.01
0.97803	39.01
0.99470	39.01
1.01137	39.01
1.02803	39.01
1.04470	39.01
1.06137	39.01
1.07803	39.01
1.09470	39.01
1.11137	39.01
1.12803	39.01
1.14470	39.01
1.16137	39.01
1.17803	39.01
1.19470	39.01
1.21137	39.01
1.22803	39.01
1.24470	39.01
1.26137	39.01
1.27803	39.01
1.29470	39.01
1.31137	39.01
1.32803	39.01
1.34470	39.01
1.36137	39.01
1.37803	39.01
1.39470	39.01
1.41137	39.01
1.42803	39.01
1.44470	39.01
1.46137	39.01
1.47803	39.01
1.49470	39.01
1.51137	39.01
1.52803	39.01
1.54470	39.01
1.56137	39.00
1.57803	39.00
1.59470	39.00
1.61137	38.99
1.62803	38.98
1.64470	38.97
1.66137	38.95
1.67803	38.92
1.69470	38.88
1.71137	38.84
1.72803	38.81
1.74470	38.78
1.76137	38.75
1.77803	38.72
1.79470	38.68
1.81137	38.65
1.82803	38.63
1.84470	38.59
1.86137	38.56
1.87803	38.53
1.89470	38.50
1.91137	38.47
1.92803	38.44
1.94470	38.41
1.96137	38.38
1.97803	38.35
1.99470	38.32
2.01137	38.29
2.02803	38.26
2.04470	38.23
2.06137	38.20
2.07803	38.17
2.09470	38.14
2.11137	38.11
2.12803	38.08
2.14470	38.05
2.16137	38.02
2.17803	37.99
2.19470	37.96
2.21137	37.93
2.22803	37.90
2.24470	37.87
2.26137	37.84
2.27803	37.81
2.29470	37.78
2.31137	37.75
2.32803	37.72
2.34470	37.70
2.36137	37.67
2.37803	37.65
2.39470	37.64
2.41137	37.64
2.42803	37.65
2.44470	37.65
2.46137	37.65
2.47803	37.65
2.49470	37.64
2.51137	37.64
2.52803	37.64
2.54470	37.64
2.56137	37.64
2.57803	37.64
2.59470	37.64
2.61137	37.64
2.62803	37.64
2.64470	37.64
2.66137	37.64
2.67803	37.64
2.69470	37.64
2.71137	37.64
2.72803	37.64
2.74470	37.64
2.76137	37.64
2.77803	37.64
2.79470	37.64
2.81137	37.63
2.82803	37.63
2.84470	37.63
2.86137	37.63
2.87803	37.63
2.89470	37.63
2.91137	37.63
2.92803	37.63
2.94470	37.63
2.96137	37.63
2.97803	37.63
2.99470	37.63
3.01137	37.63
3.02803	37.63
3.04470	37.63
3.06137	37.62
3.07803	37.62
3.09470	37.62
3.11137	37.62
3.12803	37.62
3.14470	37.62
3.16137	37.62
3.17803	37.62
3.19470	37.62
3.21137	37.62
3.22803	37.62
3.24470	37.62
3.26137	37.62
3.27803	37.62
3.29470	37.62
3.31137	37.62
3.32803	37.62
3.34470	37.62
3.36137	37.62
3.37803	37.62
3.39470	37.62
3.41137	37.62
3.42803	37.62
3.44470	37.62
3.46137	37.62
3.47803	37.62
3.49470	37.62
3.51137	37.62
3.52803	37.62
3.54470	37.62
3.56137	37.62
3.57803	37.62
3.59470	37.62
3.61137	37.62
3.62803	37.62
3.64470	37.62
3.66137	37.62
3.67803	37.62
3.69470	37.63
3.71137	37.63
3.72803	37.63
3.74470	37.63
3.76137	37.63
3.77803	37.63
3.79470	37.63
3.81137	37.63
3.82803	37.63
3.84470	37.63
3.86137	37.63
3.87803	37.63
3.89470	37.63
3.91137	37.63
3.92803	37.63
3.94470	37.63
3.96137	37.63
3.97803	37.63
3.99470	37.62

