[Header]
Application Name	LabSolutions
Version	5.110
Data File Name	C:\Users\User\Desktop\GC Analyses\Jack\UIC Prairie Sampling\7.9.22\220909_113.gcd
Output Date	9/28/2022
Output Time	11:29:56 AM

[File Information]
Type	Data File
Generated	9/20/2022 2:12:07 PM
Generated by	System Administrator
Modified	9/20/2022 2:16:33 PM
Modified by	System Administrator

[Sample Information]
Operator Name	System Administrator
Acquired	9/20/2022 2:12:32 PM
Sample Type	1:Standard
Level	1
Sample Name	220909_Run
Sample ID	220909_Run
ISTD Amount1	1
ISTD Amount2	1
ISTD Amount3	1
ISTD Amount4	1
ISTD Amount5	1
ISTD Amount6	1
ISTD Amount7	1
ISTD Amount8	1
ISTD Amount9	1
ISTD Amount10	1
ISTD Amount11	1
ISTD Amount12	1
ISTD Amount13	1
ISTD Amount14	1
ISTD Amount15	1
ISTD Amount16	1
ISTD Amount17	1
ISTD Amount18	1
ISTD Amount19	1
ISTD Amount20	1
ISTD Amount21	1
ISTD Amount22	1
ISTD Amount23	1
ISTD Amount24	1
ISTD Amount25	1
ISTD Amount26	1
ISTD Amount27	1
ISTD Amount28	1
ISTD Amount29	1
ISTD Amount30	1
ISTD Amount31	1
ISTD Amount32	1
Sample Amount	1
Dilution Factor	1
Vial#	1
Injection Volume	1
Injection Count	1
Bar Code	

[Original Files]
Data File	C:\Users\User\Desktop\GC Analyses\Jack\220909\220909_113.gcd
Method File	C:\LabSolutions\Data\GHG_4min_2022\ghg3_togas_w_acet_4 min_new_int.gcm
Batch File	
Report Format File	c:\LabSolutions\System\DEFAULT.lsr

[File Description]


[Configuration]
Instrument Name	C0B7VH3-Instrument1
Instrument #	1
Line #	1
# of Detectors	3
Detector ID	DET#1	DET#2	DET#3
Detector Name	FID	PTCD	ECD
# of Channels	1	1	1

[Peak Table(Ch1)]
# of Peaks	3
Peak#	R.Time	I.Time	F.Time	Area	Height	A/H	Conc.	Mark	ID#	Name	k'	Plate #	Plate Ht.	Tailing	Resolution	Sep.Factor	Area Ratio	Height Ratio	Conc. %	Norm Conc.
1	1.476	1.439	1.538	20105	9242	2.175	100.000	   	1	CO	0.000	8858	16.934	1.279	0.000	0.000	0	0	16.667	16.667
2	1.571	1.538	1.622	4412	2268	1.945	100.000	 V 	2	CH4	0.065	11255	13.328	1.154	1.563	0.000	0	0	16.667	16.667
3	2.000	1.949	2.224	1418941	699677	2.028	400.000	   	3	CO2	0.355	17927	8.367	1.204	7.211	5.500	0	0	66.667	66.667

[Peak Table(Ch2)]
# of Peaks	0

[Peak Table(Ch3)]
# of Peaks	3
Peak#	R.Time	I.Time	F.Time	Area	Height	A/H	Conc.	Mark	ID#	Name	k'	Plate #	Plate Ht.	Tailing	Resolution	Sep.Factor	Area Ratio	Height Ratio	Conc. %	Norm Conc.
1	2.458	0.977	2.649	15920	397	40.123	0.000	   			0.000	86	1739.455	0.567	0.000	0.000	0	0	0.000	0.000
2	2.884	2.664	2.972	19857	4972	3.993	1.000	   	1	N2O	0.173	12801	11.718	0.000	0.733	0.000	0	0	100.000	100.000
3	3.067	2.972	3.991	32205	1073	30.000	0.000	 V 			0.248	236	636.211	0.000	0.407	1.431	0	0	0.000	0.000

[Compound Results(Ch1)]
# of IDs	6
ID#	Name	R.Time	Area	Height	Conc.	Curve	3rd	2nd	1st	Constant	Area Ratio	Height Ratio	Conc. %	Norm Conc.
1	CO	1.476	20105	9242	100.000	Linear	0.000000e+00	0.000000e+00	2.010454e+002	0.000000e+00	0	0	16.667	16.667
2	CH4	1.571	4412	2268	100.000	Linear	0.000000e+00	0.000000e+00	4.412384e+001	0.000000e+00	0	0	16.667	16.667
3	CO2	2.000	1418941	699677	400.000	Linear	0.000000e+00	0.000000e+00	3.547353e+003	0.000000e+00	0	0	66.667	66.667
4	Ethylene	0.000	0	0	0.000	Linear	0.000000e+00	0.000000e+00	0.000000e+00	0.000000e+00	0	0	0.000	0.000
5	Acetylene	0.000	0	0	0.000	Linear	0.000000e+00	0.000000e+00	0.000000e+00	0.000000e+00	0	0	0.000	0.000
6	Ethane	0.000	0	0	0.000	Linear	0.000000e+00	0.000000e+00	0.000000e+00	0.000000e+00	0	0	0.000	0.000

[Compound Results(Ch2)]
# of IDs	5
ID#	Name	R.Time	Area	Height	Conc.	Curve	3rd	2nd	1st	Constant	Area Ratio	Height Ratio	Conc. %	Norm Conc.
1	Hydrogen	0.000	0	0	0.000	Linear	0.000000e+00	0.000000e+00	0.000000e+00	0.000000e+00	0	0	0.000	0.000
2	Oxygen	0.000	0	0	0.000	Linear	0.000000e+00	0.000000e+00	0.000000e+00	0.000000e+00	0	0	0.000	0.000
3	Nitrogen	0.000	0	0	0.000	Linear	0.000000e+00	0.000000e+00	0.000000e+00	0.000000e+00	0	0	0.000	0.000
4	Methane	0.000	0	0	0.000	Linear	0.000000e+00	0.000000e+00	0.000000e+00	0.000000e+00	0	0	0.000	0.000
5	Carbon Monoxide	0.000	0	0	0.000	Linear	0.000000e+00	0.000000e+00	0.000000e+00	0.000000e+00	0	0	0.000	0.000

[Compound Results(Ch3)]
# of IDs	2
ID#	Name	R.Time	Area	Height	Conc.	Curve	3rd	2nd	1st	Constant	Area Ratio	Height Ratio	Conc. %	Norm Conc.
1	N2O	2.884	19857	4972	1.000	Linear	0.000000e+00	0.000000e+00	1.985690e+004	0.000000e+00	0	0	100.000	100.000
2	SF6	0.000	0	0	0.000	Linear	0.000000e+00	0.000000e+00	0.000000e+00	0.000000e+00	0	0	0.000	0.000

[Group Results(Ch1)]
# of Groups	0

[Group Results(Ch2)]
# of Groups	0

[Group Results(Ch3)]
# of Groups	0

[Chromatogram (Ch1)]
Interval(msec)	220
# of Points	1091
Start Time(min)	0.002
End Time(min)	3.998
R.Time (min)	Intensity
0.00167	-20
0.00533	-28
0.00900	-30
0.01267	-30
0.01633	-27
0.02000	-23
0.02367	-21
0.02733	-20
0.03100	-19
0.03467	-18
0.03833	-16
0.04200	-14
0.04567	-12
0.04933	-10
0.05300	-4
0.05667	3
0.06033	10
0.06400	14
0.06767	13
0.07133	7
0.07500	3
0.07867	-0
0.08233	-2
0.08600	-7
0.08967	-12
0.09333	-16
0.09700	-17
0.10067	-15
0.10433	-11
0.10800	-8
0.11167	-5
0.11533	-3
0.11900	-3
0.12267	0
0.12633	6
0.13000	13
0.13367	19
0.13733	23
0.14100	22
0.14467	17
0.14833	11
0.15200	7
0.15567	3
0.15933	-0
0.16300	-2
0.16667	-6
0.17033	-8
0.17400	-6
0.17767	-1
0.18133	3
0.18500	3
0.18867	1
0.19233	3
0.19600	8
0.19967	14
0.20333	21
0.20700	27
0.21067	34
0.21433	39
0.21800	40
0.22167	37
0.22533	32
0.22900	26
0.23267	18
0.23633	10
0.24000	4
0.24367	0
0.24733	-2
0.25100	-5
0.25467	-8
0.25833	-8
0.26200	-4
0.26567	1
0.26933	5
0.27300	7
0.27667	6
0.28033	6
0.28400	8
0.28767	11
0.29133	12
0.29500	12
0.29867	12
0.30233	8
0.30600	1
0.30967	-6
0.31333	-13
0.31700	-14
0.32067	-10
0.32433	-3
0.32800	2
0.33167	1
0.33533	-1
0.33900	-7
0.34267	-18
0.34633	-29
0.35000	-36
0.35367	-42
0.35733	-48
0.36100	-52
0.36467	-51
0.36833	-42
0.37200	-30
0.37567	-24
0.37933	-23
0.38300	-26
0.38667	-31
0.39033	-34
0.39400	-35
0.39767	-33
0.40133	-31
0.40500	-33
0.40867	-41
0.41233	-54
0.41600	-67
0.41967	-71
0.42333	-66
0.42700	-57
0.43067	-51
0.43433	-47
0.43800	-45
0.44167	-45
0.44533	-44
0.44900	-41
0.45267	-40
0.45633	-40
0.46000	-39
0.46367	-40
0.46733	-42
0.47100	-44
0.47467	-45
0.47833	-45
0.48200	-48
0.48567	-52
0.48933	-53
0.49300	-51
0.49667	-49
0.50033	-49
0.50400	-48
0.50767	-45
0.51133	-38
0.51500	-31
0.51867	-30
0.52233	-34
0.52600	-40
0.52967	-48
0.53333	-54
0.53700	-55
0.54067	-49
0.54433	-42
0.54800	-39
0.55167	-38
0.55533	-41
0.55900	-45
0.56267	-51
0.56633	-54
0.57000	-53
0.57367	-50
0.57733	-49
0.58100	-52
0.58467	-58
0.58833	-62
0.59200	-64
0.59567	-63
0.59933	-63
0.60300	-66
0.60667	-70
0.61033	-70
0.61400	-64
0.61767	-58
0.62133	-55
0.62500	-52
0.62867	-52
0.63233	-55
0.63600	-58
0.63967	-58
0.64333	-58
0.64700	-59
0.65067	-58
0.65433	-54
0.65800	-49
0.66167	-46
0.66533	-47
0.66900	-51
0.67267	-56
0.67633	-59
0.68000	-60
0.68367	-62
0.68733	-62
0.69100	-62
0.69467	-62
0.69833	-62
0.70200	-64
0.70567	-69
0.70933	-74
0.71300	-76
0.71667	-76
0.72033	-76
0.72400	-79
0.72767	-79
0.73133	-77
0.73500	-76
0.73867	-76
0.74233	-79
0.74600	-81
0.74967	-81
0.75333	-80
0.75700	-81
0.76067	-83
0.76433	-84
0.76800	-82
0.77167	-79
0.77533	-75
0.77900	-73
0.78267	-72
0.78633	-72
0.79000	-72
0.79367	-71
0.79733	-67
0.80100	-62
0.80467	-58
0.80833	-55
0.81200	-52
0.81567	-54
0.81933	-59
0.82300	-68
0.82667	-78
0.83033	-81
0.83400	-78
0.83767	-75
0.84133	-74
0.84500	-76
0.84867	-79
0.85233	-82
0.85600	-84
0.85967	-82
0.86333	-82
0.86700	-85
0.87067	-89
0.87433	-86
0.87800	-78
0.88167	-69
0.88533	-66
0.88900	-66
0.89267	-67
0.89633	-69
0.90000	-70
0.90367	-73
0.90733	-76
0.91100	-75
0.91467	-71
0.91833	-67
0.92200	-67
0.92567	-69
0.92933	-73
0.93300	-80
0.93667	-86
0.94033	-91
0.94400	-91
0.94767	-92
0.95133	-93
0.95500	-92
0.95867	-88
0.96233	-81
0.96600	-75
0.96967	-71
0.97333	-70
0.97700	-72
0.98067	-78
0.98433	-85
0.98800	-90
0.99167	-90
0.99533	-89
0.99900	-88
1.00267	-88
1.00633	-88
1.01000	-89
1.01367	-90
1.01733	-93
1.02100	-101
1.02467	-109
1.02833	-115
1.03200	-115
1.03567	-106
1.03933	-93
1.04300	-82
1.04667	-80
1.05033	-85
1.05400	-94
1.05767	-102
1.06133	-102
1.06500	-97
1.06867	-94
1.07233	-92
1.07600	-93
1.07967	-98
1.08333	-103
1.08700	-106
1.09067	-107
1.09433	-106
1.09800	-104
1.10167	-104
1.10533	-101
1.10900	-96
1.11267	-93
1.11633	-94
1.12000	-94
1.12367	-94
1.12733	-96
1.13100	-101
1.13467	-103
1.13833	-105
1.14200	-107
1.14567	-107
1.14933	-106
1.15300	-107
1.15667	-108
1.16033	-108
1.16400	-106
1.16767	-103
1.17133	-103
1.17500	-103
1.17867	-101
1.18233	-97
1.18600	-94
1.18967	-91
1.19333	-85
1.19700	-80
1.20067	-79
1.20433	-84
1.20800	-93
1.21167	-101
1.21533	-108
1.21900	-112
1.22267	-113
1.22633	-113
1.23000	-111
1.23367	-108
1.23733	-110
1.24100	-115
1.24467	-118
1.24833	-120
1.25200	-119
1.25567	-116
1.25933	-110
1.26300	-101
1.26667	-93
1.27033	-89
1.27400	-89
1.27767	-94
1.28133	-104
1.28500	-114
1.28867	-121
1.29233	-123
1.29600	-123
1.29967	-120
1.30333	-116
1.30700	-111
1.31067	-104
1.31433	-100
1.31800	-99
1.32167	-103
1.32533	-110
1.32900	-116
1.33267	-120
1.33633	-119
1.34000	-116
1.34367	-113
1.34733	-112
1.35100	-111
1.35467	-107
1.35833	-98
1.36200	-90
1.36567	-82
1.36933	-77
1.37300	-76
1.37667	-82
1.38033	-91
1.38400	-100
1.38767	-106
1.39133	-106
1.39500	-103
1.39867	-100
1.40233	-95
1.40600	-91
1.40967	-87
1.41333	-81
1.41700	-77
1.42067	-76
1.42433	-77
1.42800	-79
1.43167	-81
1.43533	-84
1.43900	-79
1.44267	-23
1.44633	199
1.45000	709
1.45367	1620
1.45733	3009
1.46100	4712
1.46467	6386
1.46833	7761
1.47200	8705
1.47567	9158
1.47933	9076
1.48300	8451
1.48667	7379
1.49033	6057
1.49400	4711
1.49767	3513
1.50133	2539
1.50500	1792
1.50867	1239
1.51233	839
1.51600	555
1.51967	354
1.52333	216
1.52700	121
1.53067	54
1.53433	6
1.53800	-25
1.54167	-22
1.54533	62
1.54900	283
1.55267	646
1.55633	1082
1.56000	1501
1.56367	1843
1.56733	2077
1.57100	2173
1.57467	2100
1.57833	1861
1.58200	1513
1.58567	1135
1.58933	795
1.59300	520
1.59667	312
1.60033	165
1.60400	65
1.60767	-1
1.61133	-45
1.61500	-75
1.61867	-92
1.62233	-102
1.62600	-107
1.62967	-110
1.63333	-110
1.63700	-99
1.64067	-88
1.64433	-90
1.64800	-98
1.65167	-108
1.65533	-113
1.65900	-117
1.66267	-120
1.66633	-120
1.67000	-122
1.67367	-126
1.67733	-129
1.68100	-131
1.68467	-127
1.68833	-123
1.69200	-119
1.69567	-118
1.69933	-118
1.70300	-120
1.70667	-124
1.71033	-129
1.71400	-131
1.71767	-132
1.72133	-130
1.72500	-126
1.72867	-124
1.73233	-120
1.73600	-115
1.73967	-110
1.74333	-109
1.74700	-112
1.75067	-114
1.75433	-116
1.75800	-117
1.76167	-119
1.76533	-125
1.76900	-130
1.77267	-132
1.77633	-129
1.78000	-123
1.78367	-118
1.78733	-119
1.79100	-123
1.79467	-125
1.79833	-126
1.80200	-126
1.80567	-125
1.80933	-122
1.81300	-115
1.81667	-111
1.82033	-112
1.82400	-115
1.82767	-114
1.83133	-111
1.83500	-110
1.83867	-114
1.84233	-119
1.84600	-121
1.84967	-121
1.85333	-120
1.85700	-123
1.86067	-125
1.86433	-126
1.86800	-126
1.87167	-122
1.87533	-118
1.87900	-114
1.88267	-111
1.88633	-111
1.89000	-114
1.89367	-116
1.89733	-114
1.90100	-109
1.90467	-102
1.90833	-100
1.91200	-102
1.91567	-101
1.91933	-95
1.92300	-91
1.92667	-91
1.93033	-97
1.93400	-109
1.93767	-122
1.94133	-127
1.94500	-126
1.94867	-118
1.95233	-105
1.95600	-67
1.95967	144
1.96333	1279
1.96700	6020
1.97067	21101
1.97433	58126
1.97800	128886
1.98167	235681
1.98533	366175
1.98900	498061
1.99267	608037
1.99633	678444
2.00000	699599
2.00367	670176
2.00733	598110
2.01100	499206
2.01467	392291
2.01833	293007
2.02200	210275
2.02567	146567
2.02933	100219
2.03300	67827
2.03667	45788
2.04033	31045
2.04400	21272
2.04767	14813
2.05133	10529
2.05500	7664
2.05867	5724
2.06233	4388
2.06600	3452
2.06967	2778
2.07333	2282
2.07700	1912
2.08067	1631
2.08433	1410
2.08800	1233
2.09167	1091
2.09533	972
2.09900	871
2.10267	786
2.10633	717
2.11000	659
2.11367	611
2.11733	568
2.12100	527
2.12467	491
2.12833	460
2.13200	433
2.13567	413
2.13933	395
2.14300	372
2.14667	347
2.15033	327
2.15400	313
2.15767	301
2.16133	288
2.16500	269
2.16867	247
2.17233	232
2.17600	221
2.17967	213
2.18333	206
2.18700	203
2.19067	202
2.19433	192
2.19800	174
2.20167	157
2.20533	143
2.20900	131
2.21267	118
2.21633	106
2.22000	96
2.22367	93
2.22733	95
2.23100	98
2.23467	101
2.23833	104
2.24200	106
2.24567	106
2.24933	104
2.25300	104
2.25667	104
2.26033	97
2.26400	85
2.26767	76
2.27133	71
2.27500	67
2.27867	62
2.28233	58
2.28600	56
2.28967	55
2.29333	55
2.29700	55
2.30067	54
2.30433	52
2.30800	53
2.31167	56
2.31533	60
2.31900	59
2.32267	56
2.32633	53
2.33000	49
2.33367	46
2.33733	45
2.34100	47
2.34467	49
2.34833	47
2.35200	40
2.35567	31
2.35933	24
2.36300	21
2.36667	23
2.37033	24
2.37400	25
2.37767	25
2.38133	25
2.38500	25
2.38867	25
2.39233	28
2.39600	28
2.39967	23
2.40333	18
2.40700	11
2.41067	6
2.41433	6
2.41800	8
2.42167	9
2.42533	11
2.42900	12
2.43267	13
2.43633	18
2.44000	27
2.44367	34
2.44733	34
2.45100	28
2.45467	23
2.45833	19
2.46200	12
2.46567	2
2.46933	-6
2.47300	-15
2.47667	-19
2.48033	-16
2.48400	-8
2.48767	-1
2.49133	1
2.49500	-4
2.49867	-12
2.50233	-20
2.50600	-24
2.50967	-25
2.51333	-24
2.51700	-21
2.52067	-15
2.52433	-10
2.52800	-9
2.53167	-13
2.53533	-16
2.53900	-19
2.54267	-23
2.54633	-27
2.55000	-31
2.55367	-32
2.55733	-33
2.56100	-34
2.56467	-34
2.56833	-36
2.57200	-36
2.57567	-34
2.57933	-35
2.58300	-40
2.58667	-45
2.59033	-49
2.59400	-52
2.59767	-53
2.60133	-51
2.60500	-46
2.60867	-41
2.61233	-43
2.61600	-48
2.61967	-53
2.62333	-56
2.62700	-57
2.63067	-56
2.63433	-52
2.63800	-48
2.64167	-45
2.64533	-45
2.64900	-48
2.65267	-52
2.65633	-57
2.66000	-63
2.66367	-67
2.66733	-71
2.67100	-74
2.67467	-75
2.67833	-72
2.68200	-65
2.68567	-57
2.68933	-52
2.69300	-51
2.69667	-53
2.70033	-53
2.70400	-55
2.70767	-57
2.71133	-58
2.71500	-60
2.71867	-61
2.72233	-63
2.72600	-68
2.72967	-76
2.73333	-82
2.73700	-87
2.74067	-89
2.74433	-87
2.74800	-81
2.75167	-77
2.75533	-76
2.75900	-75
2.76267	-71
2.76633	-65
2.77000	-58
2.77367	-52
2.77733	-51
2.78100	-54
2.78467	-61
2.78833	-67
2.79200	-70
2.79567	-68
2.79933	-69
2.80300	-76
2.80667	-86
2.81033	-94
2.81400	-97
2.81767	-96
2.82133	-91
2.82500	-81
2.82867	-71
2.83233	-63
2.83600	-62
2.83967	-66
2.84333	-74
2.84700	-82
2.85067	-88
2.85433	-91
2.85800	-89
2.86167	-87
2.86533	-86
2.86900	-90
2.87267	-98
2.87633	-101
2.88000	-99
2.88367	-93
2.88733	-86
2.89100	-83
2.89467	-82
2.89833	-80
2.90200	-80
2.90567	-79
2.90933	-79
2.91300	-79
2.91667	-79
2.92033	-77
2.92400	-75
2.92767	-73
2.93133	-75
2.93500	-79
2.93867	-86
2.94233	-96
2.94600	-102
2.94967	-102
2.95333	-100
2.95700	-97
2.96067	-93
2.96433	-93
2.96800	-92
2.97167	-89
2.97533	-81
2.97900	-72
2.98267	-66
2.98633	-65
2.99000	-69
2.99367	-77
2.99733	-85
3.00100	-88
3.00467	-86
3.00833	-80
3.01200	-73
3.01567	-68
3.01933	-69
3.02300	-70
3.02667	-71
3.03033	-73
3.03400	-78
3.03767	-85
3.04133	-91
3.04500	-94
3.04867	-96
3.05233	-99
3.05600	-103
3.05967	-105
3.06333	-102
3.06700	-98
3.07067	-92
3.07433	-89
3.07800	-88
3.08167	-90
3.08533	-96
3.08900	-101
3.09267	-105
3.09633	-106
3.10000	-106
3.10367	-107
3.10733	-105
3.11100	-102
3.11467	-100
3.11833	-100
3.12200	-101
3.12567	-103
3.12933	-107
3.13300	-108
3.13667	-107
3.14033	-105
3.14400	-99
3.14767	-92
3.15133	-91
3.15500	-94
3.15867	-101
3.16233	-107
3.16600	-108
3.16967	-105
3.17333	-102
3.17700	-100
3.18067	-97
3.18433	-94
3.18800	-92
3.19167	-91
3.19533	-88
3.19900	-89
3.20267	-91
3.20633	-91
3.21000	-91
3.21367	-93
3.21733	-101
3.22100	-110
3.22467	-118
3.22833	-121
3.23200	-120
3.23567	-117
3.23933	-115
3.24300	-115
3.24667	-116
3.25033	-117
3.25400	-113
3.25767	-104
3.26133	-100
3.26500	-101
3.26867	-102
3.27233	-99
3.27600	-94
3.27967	-92
3.28333	-95
3.28700	-101
3.29067	-107
3.29433	-111
3.29800	-113
3.30167	-117
3.30533	-120
3.30900	-122
3.31267	-120
3.31633	-117
3.32000	-113
3.32367	-112
3.32733	-112
3.33100	-111
3.33467	-108
3.33833	-103
3.34200	-98
3.34567	-91
3.34933	-88
3.35300	-92
3.35667	-100
3.36033	-105
3.36400	-105
3.36767	-107
3.37133	-111
3.37500	-113
3.37867	-112
3.38233	-107
3.38600	-103
3.38967	-102
3.39333	-102
3.39700	-103
3.40067	-105
3.40433	-109
3.40800	-113
3.41167	-117
3.41533	-123
3.41900	-128
3.42267	-131
3.42633	-130
3.43000	-129
3.43367	-124
3.43733	-113
3.44100	-102
3.44467	-95
3.44833	-94
3.45200	-99
3.45567	-105
3.45933	-108
3.46300	-107
3.46667	-102
3.47033	-97
3.47400	-95
3.47767	-99
3.48133	-107
3.48500	-117
3.48867	-127
3.49233	-134
3.49600	-137
3.49967	-134
3.50333	-127
3.50700	-121
3.51067	-117
3.51433	-120
3.51800	-125
3.52167	-130
3.52533	-132
3.52900	-131
3.53267	-128
3.53633	-126
3.54000	-127
3.54367	-127
3.54733	-123
3.55100	-117
3.55467	-110
3.55833	-106
3.56200	-104
3.56567	-103
3.56933	-104
3.57300	-109
3.57667	-114
3.58033	-116
3.58400	-116
3.58767	-113
3.59133	-112
3.59500	-109
3.59867	-105
3.60233	-105
3.60600	-104
3.60967	-101
3.61333	-97
3.61700	-94
3.62067	-94
3.62433	-97
3.62800	-100
3.63167	-99
3.63533	-96
3.63900	-97
3.64267	-102
3.64633	-108
3.65000	-112
3.65367	-115
3.65733	-118
3.66100	-120
3.66467	-120
3.66833	-118
3.67200	-113
3.67567	-108
3.67933	-104
3.68300	-100
3.68667	-97
3.69033	-95
3.69400	-96
3.69767	-97
3.70133	-99
3.70500	-102
3.70867	-106
3.71233	-104
3.71600	-100
3.71967	-97
3.72333	-97
3.72700	-99
3.73067	-103
3.73433	-109
3.73800	-115
3.74167	-119
3.74533	-122
3.74900	-119
3.75267	-112
3.75633	-102
3.76000	-94
3.76367	-87
3.76733	-82
3.77100	-81
3.77467	-81
3.77833	-84
3.78200	-88
3.78567	-88
3.78933	-83
3.79300	-80
3.79667	-81
3.80033	-87
3.80400	-94
3.80767	-100
3.81133	-106
3.81500	-113
3.81867	-118
3.82233	-117
3.82600	-109
3.82967	-99
3.83333	-91
3.83700	-87
3.84067	-88
3.84433	-91
3.84800	-95
3.85167	-100
3.85533	-101
3.85900	-98
3.86267	-95
3.86633	-94
3.87000	-96
3.87367	-96
3.87733	-93
3.88100	-89
3.88467	-85
3.88833	-86
3.89200	-89
3.89567	-93
3.89933	-96
3.90300	-96
3.90667	-94
3.91033	-88
3.91400	-82
3.91767	-76
3.92133	-71
3.92500	-65
3.92867	-60
3.93233	-60
3.93600	-61
3.93967	-65
3.94333	-74
3.94700	-83
3.95067	-91
3.95433	-99
3.95800	-101
3.96167	-100
3.96533	-99
3.96900	-97
3.97267	-93
3.97633	-89
3.98000	-85
3.98367	-83
3.98733	-80
3.99100	-81
3.99467	-84
3.99833	-87

[Chromatogram (Ch2)]
Interval(msec)	220
# of Points	1091
Start Time(min)	0.002
End Time(min)	3.998
R.Time (min)	Intensity
0.00167	1
0.00533	1
0.00900	2
0.01267	2
0.01633	3
0.02000	3
0.02367	3
0.02733	4
0.03100	4
0.03467	5
0.03833	5
0.04200	6
0.04567	6
0.04933	6
0.05300	6
0.05667	6
0.06033	6
0.06400	6
0.06767	6
0.07133	6
0.07500	5
0.07867	5
0.08233	5
0.08600	5
0.08967	5
0.09333	5
0.09700	5
0.10067	5
0.10433	5
0.10800	5
0.11167	6
0.11533	6
0.11900	6
0.12267	6
0.12633	6
0.13000	6
0.13367	7
0.13733	7
0.14100	7
0.14467	6
0.14833	6
0.15200	6
0.15567	5
0.15933	5
0.16300	5
0.16667	5
0.17033	4
0.17400	4
0.17767	4
0.18133	4
0.18500	4
0.18867	4
0.19233	4
0.19600	4
0.19967	4
0.20333	4
0.20700	4
0.21067	4
0.21433	3
0.21800	3
0.22167	2
0.22533	2
0.22900	2
0.23267	2
0.23633	2
0.24000	2
0.24367	2
0.24733	2
0.25100	2
0.25467	1
0.25833	2
0.26200	2
0.26567	1
0.26933	1
0.27300	1
0.27667	1
0.28033	1
0.28400	1
0.28767	1
0.29133	1
0.29500	2
0.29867	2
0.30233	2
0.30600	2
0.30967	2
0.31333	2
0.31700	2
0.32067	2
0.32433	3
0.32800	3
0.33167	3
0.33533	3
0.33900	3
0.34267	3
0.34633	3
0.35000	3
0.35367	3
0.35733	2
0.36100	2
0.36467	2
0.36833	2
0.37200	2
0.37567	2
0.37933	2
0.38300	2
0.38667	2
0.39033	2
0.39400	2
0.39767	2
0.40133	3
0.40500	3
0.40867	3
0.41233	3
0.41600	3
0.41967	3
0.42333	4
0.42700	4
0.43067	4
0.43433	3
0.43800	3
0.44167	3
0.44533	3
0.44900	2
0.45267	2
0.45633	1
0.46000	1
0.46367	0
0.46733	-0
0.47100	-1
0.47467	-1
0.47833	-1
0.48200	-1
0.48567	-1
0.48933	-1
0.49300	-1
0.49667	-2
0.50033	-2
0.50400	-2
0.50767	-1
0.51133	-1
0.51500	-1
0.51867	-0
0.52233	0
0.52600	1
0.52967	1
0.53333	1
0.53700	2
0.54067	2
0.54433	3
0.54800	3
0.55167	3
0.55533	3
0.55900	3
0.56267	3
0.56633	3
0.57000	3
0.57367	3
0.57733	3
0.58100	3
0.58467	3
0.58833	3
0.59200	3
0.59567	3
0.59933	3
0.60300	3
0.60667	3
0.61033	3
0.61400	3
0.61767	2
0.62133	2
0.62500	2
0.62867	2
0.63233	2
0.63600	1
0.63967	1
0.64333	1
0.64700	1
0.65067	0
0.65433	0
0.65800	-0
0.66167	-0
0.66533	-0
0.66900	-1
0.67267	-1
0.67633	-1
0.68000	-1
0.68367	-1
0.68733	-1
0.69100	-1
0.69467	-1
0.69833	-1
0.70200	-1
0.70567	-0
0.70933	-0
0.71300	0
0.71667	1
0.72033	1
0.72400	1
0.72767	1
0.73133	1
0.73500	1
0.73867	2
0.74233	2
0.74600	2
0.74967	2
0.75333	2
0.75700	1
0.76067	1
0.76433	1
0.76800	1
0.77167	1
0.77533	1
0.77900	0
0.78267	0
0.78633	-0
0.79000	-0
0.79367	-0
0.79733	0
0.80100	0
0.80467	0
0.80833	1
0.81200	1
0.81567	1
0.81933	1
0.82300	1
0.82667	1
0.83033	1
0.83400	1
0.83767	1
0.84133	1
0.84500	0
0.84867	-0
0.85233	-1
0.85600	-1
0.85967	-1
0.86333	-2
0.86700	-2
0.87067	-2
0.87433	-2
0.87800	-2
0.88167	-3
0.88533	-3
0.88900	-3
0.89267	-3
0.89633	-3
0.90000	-3
0.90367	-3
0.90733	-2
0.91100	-2
0.91467	-1
0.91833	-1
0.92200	0
0.92567	1
0.92933	1
0.93300	2
0.93667	3
0.94033	3
0.94400	4
0.94767	4
0.95133	5
0.95500	5
0.95867	5
0.96233	5
0.96600	5
0.96967	6
0.97333	6
0.97700	6
0.98067	5
0.98433	5
0.98800	4
0.99167	4
0.99533	3
0.99900	3
1.00267	2
1.00633	2
1.01000	2
1.01367	2
1.01733	2
1.02100	2
1.02467	2
1.02833	2
1.03200	3
1.03567	3
1.03933	3
1.04300	3
1.04667	3
1.05033	3
1.05400	3
1.05767	3
1.06133	3
1.06500	3
1.06867	3
1.07233	3
1.07600	2
1.07967	2
1.08333	2
1.08700	2
1.09067	2
1.09433	2
1.09800	3
1.10167	3
1.10533	3
1.10900	3
1.11267	3
1.11633	3
1.12000	3
1.12367	3
1.12733	3
1.13100	3
1.13467	3
1.13833	2
1.14200	2
1.14567	2
1.14933	1
1.15300	1
1.15667	1
1.16033	0
1.16400	0
1.16767	-0
1.17133	-0
1.17500	-0
1.17867	-0
1.18233	-1
1.18600	-1
1.18967	-1
1.19333	-1
1.19700	-1
1.20067	-1
1.20433	-1
1.20800	-0
1.21167	-0
1.21533	-0
1.21900	-0
1.22267	-1
1.22633	-1
1.23000	-1
1.23367	-1
1.23733	-1
1.24100	-1
1.24467	-1
1.24833	-1
1.25200	-1
1.25567	-1
1.25933	-1
1.26300	-1
1.26667	-0
1.27033	0
1.27400	1
1.27767	1
1.28133	1
1.28500	1
1.28867	2
1.29233	1
1.29600	1
1.29967	1
1.30333	1
1.30700	1
1.31067	0
1.31433	-0
1.31800	-0
1.32167	-1
1.32533	-1
1.32900	-1
1.33267	-1
1.33633	-1
1.34000	-1
1.34367	-1
1.34733	-1
1.35100	-0
1.35467	-0
1.35833	0
1.36200	0
1.36567	1
1.36933	1
1.37300	1
1.37667	2
1.38033	2
1.38400	2
1.38767	2
1.39133	2
1.39500	2
1.39867	2
1.40233	2
1.40600	2
1.40967	1
1.41333	1
1.41700	1
1.42067	1
1.42433	1
1.42800	1
1.43167	1
1.43533	1
1.43900	1
1.44267	1
1.44633	2
1.45000	2
1.45367	2
1.45733	2
1.46100	2
1.46467	2
1.46833	2
1.47200	2
1.47567	2
1.47933	2
1.48300	2
1.48667	2
1.49033	2
1.49400	2
1.49767	2
1.50133	2
1.50500	2
1.50867	2
1.51233	2
1.51600	2
1.51967	2
1.52333	2
1.52700	2
1.53067	1
1.53433	1
1.53800	1
1.54167	1
1.54533	1
1.54900	1
1.55267	0
1.55633	0
1.56000	0
1.56367	-0
1.56733	-0
1.57100	-1
1.57467	-1
1.57833	-1
1.58200	-1
1.58567	-1
1.58933	-1
1.59300	-2
1.59667	-2
1.60033	-2
1.60400	-3
1.60767	-4
1.61133	-5
1.61500	-7
1.61867	-9
1.62233	-11
1.62600	-14
1.62967	-17
1.63333	-21
1.63700	-24
1.64067	-28
1.64433	-32
1.64800	-36
1.65167	-40
1.65533	-44
1.65900	-49
1.66267	-53
1.66633	-57
1.67000	-61
1.67367	-66
1.67733	-71
1.68100	-76
1.68467	-81
1.68833	-85
1.69200	-89
1.69567	-93
1.69933	-96
1.70300	-99
1.70667	-101
1.71033	-103
1.71400	-104
1.71767	-105
1.72133	-106
1.72500	-107
1.72867	-107
1.73233	-108
1.73600	-108
1.73967	-109
1.74333	-109
1.74700	-110
1.75067	-111
1.75433	-112
1.75800	-113
1.76167	-114
1.76533	-115
1.76900	-117
1.77267	-118
1.77633	-119
1.78000	-119
1.78367	-119
1.78733	-118
1.79100	-118
1.79467	-117
1.79833	-116
1.80200	-115
1.80567	-115
1.80933	-114
1.81300	-114
1.81667	-115
1.82033	-115
1.82400	-116
1.82767	-117
1.83133	-118
1.83500	-118
1.83867	-118
1.84233	-118
1.84600	-118
1.84967	-117
1.85333	-117
1.85700	-117
1.86067	-118
1.86433	-118
1.86800	-119
1.87167	-119
1.87533	-119
1.87900	-120
1.88267	-120
1.88633	-120
1.89000	-120
1.89367	-120
1.89733	-120
1.90100	-120
1.90467	-120
1.90833	-120
1.91200	-120
1.91567	-120
1.91933	-120
1.92300	-120
1.92667	-120
1.93033	-119
1.93400	-118
1.93767	-118
1.94133	-117
1.94500	-116
1.94867	-116
1.95233	-115
1.95600	-116
1.95967	-116
1.96333	-116
1.96700	-116
1.97067	-116
1.97433	-116
1.97800	-115
1.98167	-115
1.98533	-114
1.98900	-113
1.99267	-113
1.99633	-112
2.00000	-112
2.00367	-112
2.00733	-112
2.01100	-112
2.01467	-112
2.01833	-112
2.02200	-112
2.02567	-112
2.02933	-112
2.03300	-112
2.03667	-112
2.04033	-112
2.04400	-111
2.04767	-111
2.05133	-110
2.05500	-110
2.05867	-109
2.06233	-109
2.06600	-108
2.06967	-107
2.07333	-106
2.07700	-105
2.08067	-104
2.08433	-103
2.08800	-103
2.09167	-103
2.09533	-103
2.09900	-103
2.10267	-104
2.10633	-104
2.11000	-103
2.11367	-103
2.11733	-103
2.12100	-102
2.12467	-102
2.12833	-102
2.13200	-101
2.13567	-101
2.13933	-102
2.14300	-102
2.14667	-102
2.15033	-102
2.15400	-103
2.15767	-102
2.16133	-102
2.16500	-101
2.16867	-101
2.17233	-100
2.17600	-99
2.17967	-98
2.18333	-97
2.18700	-96
2.19067	-96
2.19433	-95
2.19800	-95
2.20167	-94
2.20533	-94
2.20900	-94
2.21267	-93
2.21633	-93
2.22000	-92
2.22367	-92
2.22733	-91
2.23100	-91
2.23467	-91
2.23833	-92
2.24200	-92
2.24567	-93
2.24933	-93
2.25300	-93
2.25667	-94
2.26033	-94
2.26400	-94
2.26767	-94
2.27133	-94
2.27500	-93
2.27867	-93
2.28233	-92
2.28600	-92
2.28967	-91
2.29333	-91
2.29700	-91
2.30067	-91
2.30433	-91
2.30800	-90
2.31167	-90
2.31533	-89
2.31900	-89
2.32267	-89
2.32633	-88
2.33000	-87
2.33367	-87
2.33733	-86
2.34100	-85
2.34467	-85
2.34833	-84
2.35200	-83
2.35567	-83
2.35933	-83
2.36300	-83
2.36667	-83
2.37033	-83
2.37400	-82
2.37767	-81
2.38133	-79
2.38500	-76
2.38867	-72
2.39233	-68
2.39600	-63
2.39967	-58
2.40333	-54
2.40700	-49
2.41067	-44
2.41433	-39
2.41800	-35
2.42167	-31
2.42533	-27
2.42900	-24
2.43267	-21
2.43633	-18
2.44000	-15
2.44367	-13
2.44733	-11
2.45100	-9
2.45467	-8
2.45833	-7
2.46200	-6
2.46567	-4
2.46933	-3
2.47300	-1
2.47667	0
2.48033	2
2.48400	3
2.48767	4
2.49133	5
2.49500	5
2.49867	6
2.50233	6
2.50600	6
2.50967	7
2.51333	7
2.51700	7
2.52067	8
2.52433	9
2.52800	10
2.53167	11
2.53533	12
2.53900	13
2.54267	13
2.54633	14
2.55000	15
2.55367	15
2.55733	15
2.56100	15
2.56467	15
2.56833	15
2.57200	15
2.57567	15
2.57933	15
2.58300	15
2.58667	15
2.59033	16
2.59400	16
2.59767	16
2.60133	17
2.60500	17
2.60867	17
2.61233	18
2.61600	18
2.61967	18
2.62333	18
2.62700	18
2.63067	18
2.63433	18
2.63800	19
2.64167	19
2.64533	19
2.64900	19
2.65267	20
2.65633	20
2.66000	21
2.66367	21
2.66733	21
2.67100	22
2.67467	21
2.67833	21
2.68200	21
2.68567	21
2.68933	21
2.69300	21
2.69667	21
2.70033	22
2.70400	22
2.70767	22
2.71133	22
2.71500	22
2.71867	21
2.72233	21
2.72600	21
2.72967	21
2.73333	21
2.73700	21
2.74067	21
2.74433	21
2.74800	21
2.75167	21
2.75533	22
2.75900	22
2.76267	23
2.76633	23
2.77000	24
2.77367	24
2.77733	25
2.78100	25
2.78467	26
2.78833	26
2.79200	27
2.79567	27
2.79933	27
2.80300	27
2.80667	27
2.81033	27
2.81400	27
2.81767	27
2.82133	27
2.82500	26
2.82867	26
2.83233	26
2.83600	26
2.83967	25
2.84333	25
2.84700	23
2.85067	21
2.85433	17
2.85800	10
2.86167	1
2.86533	-12
2.86900	-29
2.87267	-50
2.87633	-75
2.88000	-104
2.88367	-137
2.88733	-173
2.89100	-213
2.89467	-255
2.89833	-299
2.90200	-346
2.90567	-394
2.90933	-444
2.91300	-493
2.91667	-543
2.92033	-592
2.92400	-641
2.92767	-689
2.93133	-736
2.93500	-783
2.93867	-831
2.94233	-884
2.94600	-944
2.94967	-1005
2.95333	-1055
2.95700	-1085
2.96067	-1089
2.96433	-1067
2.96800	-1022
2.97167	-961
2.97533	-888
2.97900	-810
2.98267	-729
2.98633	-650
2.99000	-575
2.99367	-505
2.99733	-440
3.00100	-382
3.00467	-330
3.00833	-284
3.01200	-243
3.01567	-208
3.01933	-177
3.02300	-150
3.02667	-127
3.03033	-107
3.03400	-90
3.03767	-75
3.04133	-63
3.04500	-52
3.04867	-42
3.05233	-34
3.05600	-27
3.05967	-21
3.06333	-16
3.06700	-12
3.07067	-8
3.07433	-5
3.07800	-2
3.08167	-0
3.08533	2
3.08900	4
3.09267	5
3.09633	7
3.10000	8
3.10367	10
3.10733	11
3.11100	12
3.11467	13
3.11833	14
3.12200	14
3.12567	15
3.12933	15
3.13300	16
3.13667	16
3.14033	17
3.14400	17
3.14767	17
3.15133	18
3.15500	18
3.15867	18
3.16233	19
3.16600	19
3.16967	19
3.17333	19
3.17700	20
3.18067	20
3.18433	20
3.18800	20
3.19167	20
3.19533	20
3.19900	20
3.20267	20
3.20633	20
3.21000	20
3.21367	20
3.21733	20
3.22100	20
3.22467	20
3.22833	20
3.23200	21
3.23567	21
3.23933	21
3.24300	21
3.24667	21
3.25033	21
3.25400	22
3.25767	22
3.26133	22
3.26500	22
3.26867	22
3.27233	22
3.27600	22
3.27967	22
3.28333	22
3.28700	22
3.29067	22
3.29433	22
3.29800	22
3.30167	22
3.30533	22
3.30900	22
3.31267	22
3.31633	22
3.32000	22
3.32367	23
3.32733	23
3.33100	23
3.33467	23
3.33833	23
3.34200	24
3.34567	24
3.34933	24
3.35300	24
3.35667	24
3.36033	24
3.36400	24
3.36767	24
3.37133	24
3.37500	24
3.37867	24
3.38233	23
3.38600	23
3.38967	23
3.39333	23
3.39700	23
3.40067	24
3.40433	24
3.40800	24
3.41167	24
3.41533	25
3.41900	25
3.42267	25
3.42633	26
3.43000	26
3.43367	27
3.43733	27
3.44100	28
3.44467	28
3.44833	28
3.45200	28
3.45567	28
3.45933	28
3.46300	28
3.46667	28
3.47033	29
3.47400	29
3.47767	29
3.48133	29
3.48500	30
3.48867	30
3.49233	30
3.49600	30
3.49967	30
3.50333	30
3.50700	30
3.51067	30
3.51433	30
3.51800	30
3.52167	30
3.52533	30
3.52900	30
3.53267	30
3.53633	29
3.54000	29
3.54367	29
3.54733	28
3.55100	28
3.55467	28
3.55833	28
3.56200	27
3.56567	27
3.56933	27
3.57300	27
3.57667	26
3.58033	26
3.58400	26
3.58767	26
3.59133	26
3.59500	27
3.59867	27
3.60233	27
3.60600	27
3.60967	27
3.61333	27
3.61700	27
3.62067	27
3.62433	26
3.62800	26
3.63167	26
3.63533	26
3.63900	26
3.64267	26
3.64633	26
3.65000	26
3.65367	26
3.65733	25
3.66100	25
3.66467	25
3.66833	25
3.67200	25
3.67567	25
3.67933	25
3.68300	25
3.68667	25
3.69033	25
3.69400	25
3.69767	25
3.70133	24
3.70500	24
3.70867	24
3.71233	23
3.71600	23
3.71967	23
3.72333	23
3.72700	23
3.73067	23
3.73433	23
3.73800	23
3.74167	23
3.74533	23
3.74900	23
3.75267	23
3.75633	24
3.76000	24
3.76367	24
3.76733	24
3.77100	24
3.77467	25
3.77833	25
3.78200	25
3.78567	25
3.78933	25
3.79300	25
3.79667	25
3.80033	25
3.80400	25
3.80767	25
3.81133	25
3.81500	25
3.81867	25
3.82233	25
3.82600	25
3.82967	24
3.83333	24
3.83700	25
3.84067	25
3.84433	25
3.84800	26
3.85167	26
3.85533	26
3.85900	27
3.86267	27
3.86633	27
3.87000	27
3.87367	27
3.87733	27
3.88100	27
3.88467	27
3.88833	27
3.89200	28
3.89567	28
3.89933	28
3.90300	28
3.90667	28
3.91033	28
3.91400	28
3.91767	28
3.92133	28
3.92500	28
3.92867	27
3.93233	27
3.93600	27
3.93967	27
3.94333	27
3.94700	27
3.95067	27
3.95433	27
3.95800	27
3.96167	27
3.96533	27
3.96900	27
3.97267	27
3.97633	27
3.98000	27
3.98367	27
3.98733	27
3.99100	26
3.99467	26
3.99833	26

[Chromatogram (Ch3)]
Interval(msec)	220
# of Points	1091
Start Time(min)	0.002
End Time(min)	3.998
R.Time (min)	Intensity
0.00167	0
0.00533	-1
0.00900	-0
0.01267	1
0.01633	2
0.02000	3
0.02367	5
0.02733	4
0.03100	1
0.03467	1
0.03833	3
0.04200	4
0.04567	5
0.04933	4
0.05300	4
0.05667	3
0.06033	4
0.06400	5
0.06767	4
0.07133	6
0.07500	7
0.07867	7
0.08233	9
0.08600	9
0.08967	8
0.09333	9
0.09700	8
0.10067	7
0.10433	8
0.10800	5
0.11167	3
0.11533	1
0.11900	-1
0.12267	-1
0.12633	-1
0.13000	2
0.13367	3
0.13733	3
0.14100	2
0.14467	2
0.14833	4
0.15200	4
0.15567	5
0.15933	5
0.16300	4
0.16667	2
0.17033	3
0.17400	4
0.17767	3
0.18133	2
0.18500	1
0.18867	1
0.19233	1
0.19600	-0
0.19967	-1
0.20333	-0
0.20700	-1
0.21067	-2
0.21433	-1
0.21800	1
0.22167	1
0.22533	1
0.22900	1
0.23267	1
0.23633	2
0.24000	5
0.24367	6
0.24733	5
0.25100	3
0.25467	3
0.25833	3
0.26200	4
0.26567	5
0.26933	6
0.27300	9
0.27667	11
0.28033	10
0.28400	10
0.28767	11
0.29133	9
0.29500	9
0.29867	10
0.30233	10
0.30600	10
0.30967	8
0.31333	7
0.31700	8
0.32067	9
0.32433	10
0.32800	9
0.33167	8
0.33533	8
0.33900	9
0.34267	9
0.34633	9
0.35000	10
0.35367	9
0.35733	10
0.36100	11
0.36467	13
0.36833	11
0.37200	9
0.37567	8
0.37933	8
0.38300	8
0.38667	7
0.39033	6
0.39400	4
0.39767	2
0.40133	3
0.40500	6
0.40867	8
0.41233	9
0.41600	10
0.41967	10
0.42333	10
0.42700	12
0.43067	13
0.43433	14
0.43800	14
0.44167	14
0.44533	12
0.44900	12
0.45267	12
0.45633	11
0.46000	11
0.46367	11
0.46733	11
0.47100	12
0.47467	11
0.47833	11
0.48200	11
0.48567	11
0.48933	11
0.49300	11
0.49667	12
0.50033	12
0.50400	13
0.50767	14
0.51133	17
0.51500	20
0.51867	23
0.52233	23
0.52600	22
0.52967	20
0.53333	20
0.53700	19
0.54067	18
0.54433	15
0.54800	14
0.55167	13
0.55533	13
0.55900	13
0.56267	12
0.56633	12
0.57000	12
0.57367	13
0.57733	15
0.58100	19
0.58467	19
0.58833	19
0.59200	18
0.59567	17
0.59933	16
0.60300	15
0.60667	17
0.61033	19
0.61400	19
0.61767	19
0.62133	18
0.62500	17
0.62867	17
0.63233	16
0.63600	17
0.63967	17
0.64333	16
0.64700	17
0.65067	18
0.65433	20
0.65800	21
0.66167	21
0.66533	21
0.66900	22
0.67267	22
0.67633	23
0.68000	23
0.68367	23
0.68733	24
0.69100	24
0.69467	22
0.69833	22
0.70200	23
0.70567	23
0.70933	23
0.71300	24
0.71667	25
0.72033	24
0.72400	24
0.72767	23
0.73133	23
0.73500	23
0.73867	23
0.74233	23
0.74600	24
0.74967	24
0.75333	24
0.75700	22
0.76067	21
0.76433	22
0.76800	21
0.77167	21
0.77533	23
0.77900	27
0.78267	28
0.78633	28
0.79000	27
0.79367	28
0.79733	29
0.80100	29
0.80467	28
0.80833	25
0.81200	24
0.81567	24
0.81933	24
0.82300	25
0.82667	25
0.83033	25
0.83400	26
0.83767	27
0.84133	27
0.84500	27
0.84867	27
0.85233	28
0.85600	28
0.85967	28
0.86333	28
0.86700	28
0.87067	27
0.87433	27
0.87800	29
0.88167	30
0.88533	30
0.88900	30
0.89267	30
0.89633	31
0.90000	31
0.90367	32
0.90733	34
0.91100	34
0.91467	34
0.91833	34
0.92200	30
0.92567	27
0.92933	26
0.93300	25
0.93667	23
0.94033	25
0.94400	28
0.94767	27
0.95133	27
0.95500	29
0.95867	31
0.96233	32
0.96600	31
0.96967	29
0.97333	27
0.97700	26
0.98067	28
0.98433	31
0.98800	33
0.99167	36
0.99533	39
0.99900	41
1.00267	40
1.00633	40
1.01000	39
1.01367	36
1.01733	36
1.02100	36
1.02467	37
1.02833	38
1.03200	37
1.03567	37
1.03933	35
1.04300	35
1.04667	35
1.05033	36
1.05400	37
1.05767	40
1.06133	42
1.06500	42
1.06867	42
1.07233	42
1.07600	41
1.07967	40
1.08333	39
1.08700	42
1.09067	47
1.09433	48
1.09800	46
1.10167	46
1.10533	45
1.10900	43
1.11267	43
1.11633	47
1.12000	51
1.12367	52
1.12733	50
1.13100	47
1.13467	48
1.13833	50
1.14200	50
1.14567	48
1.14933	48
1.15300	48
1.15667	46
1.16033	45
1.16400	45
1.16767	47
1.17133	49
1.17500	51
1.17867	52
1.18233	51
1.18600	50
1.18967	49
1.19333	49
1.19700	51
1.20067	52
1.20433	53
1.20800	54
1.21167	54
1.21533	52
1.21900	52
1.22267	53
1.22633	53
1.23000	54
1.23367	54
1.23733	52
1.24100	52
1.24467	52
1.24833	52
1.25200	53
1.25567	54
1.25933	54
1.26300	53
1.26667	54
1.27033	55
1.27400	56
1.27767	55
1.28133	54
1.28500	52
1.28867	55
1.29233	55
1.29600	55
1.29967	55
1.30333	56
1.30700	56
1.31067	56
1.31433	57
1.31800	56
1.32167	56
1.32533	58
1.32900	59
1.33267	60
1.33633	58
1.34000	57
1.34367	58
1.34733	61
1.35100	63
1.35467	64
1.35833	65
1.36200	63
1.36567	61
1.36933	59
1.37300	58
1.37667	59
1.38033	58
1.38400	59
1.38767	61
1.39133	62
1.39500	62
1.39867	63
1.40233	63
1.40600	65
1.40967	65
1.41333	66
1.41700	65
1.42067	65
1.42433	63
1.42800	62
1.43167	63
1.43533	63
1.43900	64
1.44267	67
1.44633	69
1.45000	68
1.45367	67
1.45733	66
1.46100	67
1.46467	69
1.46833	70
1.47200	69
1.47567	69
1.47933	69
1.48300	72
1.48667	75
1.49033	77
1.49400	77
1.49767	76
1.50133	74
1.50500	73
1.50867	72
1.51233	71
1.51600	71
1.51967	71
1.52333	72
1.52700	74
1.53067	76
1.53433	76
1.53800	74
1.54167	72
1.54533	71
1.54900	70
1.55267	69
1.55633	71
1.56000	74
1.56367	77
1.56733	76
1.57100	73
1.57467	72
1.57833	72
1.58200	74
1.58567	74
1.58933	73
1.59300	74
1.59667	74
1.60033	75
1.60400	73
1.60767	72
1.61133	72
1.61500	74
1.61867	75
1.62233	76
1.62600	76
1.62967	77
1.63333	78
1.63700	79
1.64067	80
1.64433	81
1.64800	81
1.65167	82
1.65533	83
1.65900	82
1.66267	81
1.66633	82
1.67000	83
1.67367	84
1.67733	84
1.68100	86
1.68467	88
1.68833	90
1.69200	92
1.69567	90
1.69933	89
1.70300	90
1.70667	92
1.71033	92
1.71400	89
1.71767	87
1.72133	86
1.72500	87
1.72867	89
1.73233	92
1.73600	95
1.73967	98
1.74333	98
1.74700	97
1.75067	98
1.75433	101
1.75800	104
1.76167	103
1.76533	104
1.76900	104
1.77267	105
1.77633	106
1.78000	106
1.78367	107
1.78733	109
1.79100	111
1.79467	113
1.79833	114
1.80200	116
1.80567	117
1.80933	117
1.81300	120
1.81667	120
1.82033	120
1.82400	120
1.82767	120
1.83133	122
1.83500	123
1.83867	123
1.84233	123
1.84600	123
1.84967	124
1.85333	126
1.85700	130
1.86067	133
1.86433	132
1.86800	132
1.87167	132
1.87533	132
1.87900	131
1.88267	132
1.88633	132
1.89000	132
1.89367	132
1.89733	131
1.90100	132
1.90467	132
1.90833	129
1.91200	129
1.91567	129
1.91933	129
1.92300	130
1.92667	131
1.93033	131
1.93400	130
1.93767	130
1.94133	131
1.94500	133
1.94867	136
1.95233	138
1.95600	139
1.95967	141
1.96333	143
1.96700	143
1.97067	144
1.97433	147
1.97800	150
1.98167	152
1.98533	153
1.98900	151
1.99267	150
1.99633	151
2.00000	154
2.00367	159
2.00733	163
2.01100	165
2.01467	165
2.01833	166
2.02200	168
2.02567	169
2.02933	169
2.03300	169
2.03667	170
2.04033	169
2.04400	168
2.04767	168
2.05133	171
2.05500	172
2.05867	175
2.06233	178
2.06600	180
2.06967	180
2.07333	180
2.07700	179
2.08067	181
2.08433	182
2.08800	183
2.09167	186
2.09533	190
2.09900	192
2.10267	194
2.10633	195
2.11000	197
2.11367	199
2.11733	200
2.12100	199
2.12467	200
2.12833	203
2.13200	204
2.13567	207
2.13933	209
2.14300	207
2.14667	208
2.15033	211
2.15400	213
2.15767	214
2.16133	217
2.16500	220
2.16867	225
2.17233	228
2.17600	229
2.17967	231
2.18333	230
2.18700	231
2.19067	233
2.19433	233
2.19800	235
2.20167	237
2.20533	240
2.20900	242
2.21267	244
2.21633	245
2.22000	245
2.22367	246
2.22733	247
2.23100	248
2.23467	249
2.23833	251
2.24200	253
2.24567	254
2.24933	253
2.25300	253
2.25667	257
2.26033	259
2.26400	260
2.26767	260
2.27133	262
2.27500	261
2.27867	260
2.28233	263
2.28600	268
2.28967	273
2.29333	276
2.29700	277
2.30067	279
2.30433	281
2.30800	282
2.31167	282
2.31533	281
2.31900	282
2.32267	283
2.32633	285
2.33000	290
2.33367	293
2.33733	294
2.34100	295
2.34467	299
2.34833	300
2.35200	300
2.35567	300
2.35933	300
2.36300	301
2.36667	303
2.37033	306
2.37400	308
2.37767	308
2.38133	308
2.38500	309
2.38867	309
2.39233	310
2.39600	312
2.39967	314
2.40333	318
2.40700	321
2.41067	323
2.41433	323
2.41800	324
2.42167	326
2.42533	328
2.42900	328
2.43267	331
2.43633	336
2.44000	339
2.44367	340
2.44733	344
2.45100	347
2.45467	347
2.45833	348
2.46200	345
2.46567	342
2.46933	339
2.47300	335
2.47667	333
2.48033	332
2.48400	332
2.48767	332
2.49133	330
2.49500	326
2.49867	322
2.50233	317
2.50600	312
2.50967	308
2.51333	304
2.51700	301
2.52067	297
2.52433	293
2.52800	287
2.53167	283
2.53533	280
2.53900	277
2.54267	275
2.54633	273
2.55000	270
2.55367	270
2.55733	271
2.56100	268
2.56467	263
2.56833	259
2.57200	256
2.57567	255
2.57933	254
2.58300	253
2.58667	252
2.59033	249
2.59400	245
2.59767	243
2.60133	239
2.60500	229
2.60867	211
2.61233	187
2.61600	157
2.61967	124
2.62333	89
2.62700	56
2.63067	26
2.63433	-1
2.63800	-25
2.64167	-42
2.64533	-52
2.64900	-59
2.65267	-62
2.65633	-63
2.66000	-62
2.66367	-59
2.66733	-53
2.67100	-45
2.67467	-37
2.67833	-30
2.68200	-22
2.68567	-12
2.68933	-6
2.69300	3
2.69667	12
2.70033	21
2.70400	29
2.70767	36
2.71133	42
2.71500	48
2.71867	56
2.72233	63
2.72600	69
2.72967	75
2.73333	82
2.73700	89
2.74067	96
2.74433	103
2.74800	107
2.75167	110
2.75533	115
2.75900	118
2.76267	123
2.76633	126
2.77000	129
2.77367	131
2.77733	134
2.78100	138
2.78467	140
2.78833	143
2.79200	147
2.79567	148
2.79933	149
2.80300	150
2.80667	154
2.81033	156
2.81400	159
2.81767	162
2.82133	166
2.82500	173
2.82867	187
2.83233	216
2.83600	272
2.83967	377
2.84333	553
2.84700	816
2.85067	1183
2.85433	1648
2.85800	2193
2.86167	2787
2.86533	3383
2.86900	3936
2.87267	4398
2.87633	4736
2.88000	4933
2.88367	4987
2.88733	4910
2.89100	4726
2.89467	4461
2.89833	4143
2.90200	3799
2.90567	3447
2.90933	3101
2.91300	2773
2.91667	2468
2.92033	2189
2.92400	1933
2.92767	1706
2.93133	1503
2.93500	1324
2.93867	1166
2.94233	1030
2.94600	912
2.94967	809
2.95333	720
2.95700	644
2.96067	564
2.96433	468
2.96800	399
2.97167	374
2.97533	383
2.97900	418
2.98267	467
2.98633	525
2.99000	581
2.99367	636
2.99733	690
3.00100	744
3.00467	794
3.00833	839
3.01200	881
3.01567	920
3.01933	953
3.02300	983
3.02667	1010
3.03033	1035
3.03400	1057
3.03767	1076
3.04133	1094
3.04500	1108
3.04867	1120
3.05233	1129
3.05600	1136
3.05967	1141
3.06333	1145
3.06700	1150
3.07067	1150
3.07433	1147
3.07800	1146
3.08167	1146
3.08533	1146
3.08900	1144
3.09267	1140
3.09633	1136
3.10000	1130
3.10367	1125
3.10733	1118
3.11100	1114
3.11467	1110
3.11833	1107
3.12200	1104
3.12567	1098
3.12933	1091
3.13300	1084
3.13667	1077
3.14033	1072
3.14400	1067
3.14767	1063
3.15133	1059
3.15500	1056
3.15867	1052
3.16233	1048
3.16600	1044
3.16967	1042
3.17333	1041
3.17700	1040
3.18067	1037
3.18433	1034
3.18800	1031
3.19167	1027
3.19533	1025
3.19900	1022
3.20267	1021
3.20633	1022
3.21000	1020
3.21367	1019
3.21733	1019
3.22100	1018
3.22467	1015
3.22833	1014
3.23200	1014
3.23567	1015
3.23933	1015
3.24300	1013
3.24667	1014
3.25033	1016
3.25400	1016
3.25767	1015
3.26133	1015
3.26500	1013
3.26867	1010
3.27233	1007
3.27600	1004
3.27967	1002
3.28333	1002
3.28700	999
3.29067	997
3.29433	996
3.29800	995
3.30167	995
3.30533	994
3.30900	992
3.31267	989
3.31633	984
3.32000	979
3.32367	975
3.32733	973
3.33100	969
3.33467	964
3.33833	959
3.34200	950
3.34567	943
3.34933	937
3.35300	932
3.35667	928
3.36033	925
3.36400	921
3.36767	918
3.37133	911
3.37500	904
3.37867	898
3.38233	893
3.38600	887
3.38967	881
3.39333	875
3.39700	870
3.40067	865
3.40433	859
3.40800	853
3.41167	846
3.41533	840
3.41900	834
3.42267	829
3.42633	826
3.43000	821
3.43367	817
3.43733	812
3.44100	809
3.44467	805
3.44833	801
3.45200	797
3.45567	792
3.45933	786
3.46300	777
3.46667	768
3.47033	763
3.47400	759
3.47767	755
3.48133	751
3.48500	748
3.48867	744
3.49233	738
3.49600	732
3.49967	728
3.50333	724
3.50700	720
3.51067	713
3.51433	706
3.51800	702
3.52167	701
3.52533	697
3.52900	692
3.53267	687
3.53633	681
3.54000	677
3.54367	674
3.54733	670
3.55100	666
3.55467	662
3.55833	660
3.56200	655
3.56567	650
3.56933	644
3.57300	638
3.57667	634
3.58033	630
3.58400	626
3.58767	622
3.59133	619
3.59500	615
3.59867	611
3.60233	609
3.60600	606
3.60967	605
3.61333	603
3.61700	600
3.62067	596
3.62433	593
3.62800	591
3.63167	591
3.63533	589
3.63900	585
3.64267	579
3.64633	574
3.65000	568
3.65367	564
3.65733	563
3.66100	560
3.66467	557
3.66833	553
3.67200	549
3.67567	545
3.67933	542
3.68300	540
3.68667	538
3.69033	538
3.69400	536
3.69767	534
3.70133	531
3.70500	529
3.70867	527
3.71233	525
3.71600	521
3.71967	518
3.72333	513
3.72700	509
3.73067	505
3.73433	503
3.73800	501
3.74167	499
3.74533	498
3.74900	496
3.75267	494
3.75633	493
3.76000	490
3.76367	490
3.76733	489
3.77100	486
3.77467	482
3.77833	479
3.78200	477
3.78567	477
3.78933	474
3.79300	471
3.79667	469
3.80033	465
3.80400	465
3.80767	466
3.81133	466
3.81500	464
3.81867	462
3.82233	460
3.82600	458
3.82967	456
3.83333	454
3.83700	455
3.84067	455
3.84433	452
3.84800	448
3.85167	446
3.85533	446
3.85900	444
3.86267	442
3.86633	440
3.87000	438
3.87367	435
3.87733	434
3.88100	435
3.88467	434
3.88833	432
3.89200	429
3.89567	426
3.89933	424
3.90300	421
3.90667	417
3.91033	415
3.91400	415
3.91767	413
3.92133	412
3.92500	411
3.92867	409
3.93233	406
3.93600	404
3.93967	403
3.94333	402
3.94700	400
3.95067	398
3.95433	394
3.95800	394
3.96167	393
3.96533	395
3.96900	396
3.97267	393
3.97633	390
3.98000	390
3.98367	390
3.98733	389
3.99100	387
3.99467	387
3.99833	389

[Status Trace (Column Oven Temperature)]
Interval(msec)	1000
# of Points	240
Start Time(min)	0.002
End Time(min)	3.985
Intensity Units	
Intensity Multiplier	1
R.Time (min)	Intensity
0.00187	35.09
0.01853	35.09
0.03520	35.06
0.05187	35.04
0.06853	35.03
0.08520	35.02
0.10187	35.00
0.11853	34.99
0.13520	34.98
0.15187	34.98
0.16853	34.98
0.18520	34.98
0.20187	34.99
0.21853	35.00
0.23520	35.01
0.25187	35.00
0.26853	35.00
0.28520	35.00
0.30187	34.99
0.31853	34.99
0.33520	34.99
0.35187	34.98
0.36853	34.98
0.38520	34.98
0.40187	34.97
0.41853	34.96
0.43520	34.96
0.45187	34.97
0.46853	34.99
0.48520	35.01
0.50187	35.01
0.51853	35.00
0.53520	34.99
0.55187	34.99
0.56853	34.98
0.58520	34.97
0.60187	34.97
0.61853	34.97
0.63520	34.97
0.65187	34.98
0.66853	34.98
0.68520	34.99
0.70187	35.00
0.71853	35.01
0.73520	35.00
0.75187	35.01
0.76853	35.02
0.78520	35.03
0.80187	35.02
0.81853	35.02
0.83520	35.03
0.85187	35.04
0.86853	35.06
0.88520	35.08
0.90187	35.08
0.91853	35.06
0.93520	35.05
0.95187	35.03
0.96853	35.02
0.98520	35.02
1.00187	35.02
1.01853	35.02
1.03520	35.01
1.05187	35.00
1.06853	35.00
1.08520	34.99
1.10187	34.99
1.11853	34.98
1.13520	34.98
1.15187	34.99
1.16853	34.99
1.18520	34.99
1.20187	35.00
1.21853	35.00
1.23520	35.00
1.25187	35.01
1.26853	35.00
1.28520	35.00
1.30187	35.01
1.31853	35.02
1.33520	35.02
1.35187	35.01
1.36853	35.00
1.38520	35.00
1.40187	35.00
1.41853	35.00
1.43520	34.99
1.45187	34.99
1.46853	34.99
1.48520	34.98
1.50187	34.99
1.51853	34.98
1.53520	34.98
1.55187	34.99
1.56853	34.99
1.58520	35.00
1.60187	35.03
1.61853	35.12
1.63520	35.29
1.65187	35.52
1.66853	35.83
1.68520	36.20
1.70187	36.56
1.71853	36.89
1.73520	37.21
1.75187	37.54
1.76853	37.91
1.78520	38.21
1.80187	38.51
1.81853	38.86
1.83520	39.19
1.85187	39.50
1.86853	39.84
1.88520	40.18
1.90187	40.52
1.91853	40.84
1.93520	41.16
1.95187	41.50
1.96853	41.84
1.98520	42.15
2.00187	42.47
2.01853	42.80
2.03520	43.13
2.05187	43.47
2.06853	43.77
2.08520	44.09
2.10187	44.44
2.11853	44.74
2.13520	45.07
2.15187	45.40
2.16853	45.73
2.18520	46.05
2.20187	46.39
2.21853	46.70
2.23520	47.03
2.25187	47.37
2.26853	47.70
2.28520	48.02
2.30187	48.36
2.31853	48.70
2.33520	49.02
2.35187	49.31
2.36853	49.59
2.38520	49.71
2.40187	49.73
2.41853	49.73
2.43520	49.71
2.45187	49.74
2.46853	49.74
2.48520	49.75
2.50187	49.77
2.51853	49.77
2.53520	49.78
2.55187	49.78
2.56853	49.81
2.58520	49.81
2.60187	49.82
2.61853	49.82
2.63520	49.83
2.65187	49.84
2.66853	49.83
2.68520	49.85
2.70187	49.85
2.71853	49.88
2.73520	49.90
2.75187	49.90
2.76853	49.89
2.78520	49.88
2.80187	49.87
2.81853	49.88
2.83520	49.90
2.85187	49.93
2.86853	49.94
2.88520	49.95
2.90187	49.95
2.91853	49.94
2.93520	49.94
2.95187	49.94
2.96853	49.94
2.98520	49.95
3.00187	49.97
3.01853	49.99
3.03520	50.00
3.05187	50.01
3.06853	50.02
3.08520	50.03
3.10187	50.03
3.11853	50.04
3.13520	50.04
3.15187	50.04
3.16853	50.04
3.18520	50.04
3.20187	50.05
3.21853	50.06
3.23520	50.07
3.25187	50.07
3.26853	50.08
3.28520	50.08
3.30187	50.09
3.31853	50.10
3.33520	50.09
3.35187	50.09
3.36853	50.11
3.38520	50.12
3.40187	50.13
3.41853	50.12
3.43520	50.10
3.45187	50.09
3.46853	50.06
3.48520	50.04
3.50187	50.02
3.51853	50.00
3.53520	49.99
3.55187	49.99
3.56853	50.00
3.58520	50.01
3.60187	50.00
3.61853	50.00
3.63520	49.99
3.65187	50.00
3.66853	50.00
3.68520	50.01
3.70187	50.02
3.71853	50.04
3.73520	50.05
3.75187	50.05
3.76853	50.06
3.78520	50.07
3.80187	50.07
3.81853	50.07
3.83520	50.07
3.85187	50.05
3.86853	50.05
3.88520	50.03
3.90187	50.03
3.91853	50.03
3.93520	50.03
3.95187	50.03
3.96853	50.02
3.98520	50.03

[Status Trace (Injection Unit Temperature)]
Interval(msec)	1000
# of Points	240
Start Time(min)	0.002
End Time(min)	3.985
Intensity Units	
Intensity Multiplier	1
R.Time (min)	Intensity
0.00187	99.99
0.01853	99.99
0.03520	99.98
0.05187	99.98
0.06853	99.99
0.08520	99.98
0.10187	99.99
0.11853	99.98
0.13520	99.99
0.15187	99.98
0.16853	99.98
0.18520	99.99
0.20187	99.98
0.21853	99.99
0.23520	99.99
0.25187	99.99
0.26853	99.98
0.28520	99.99
0.30187	99.99
0.31853	99.98
0.33520	99.99
0.35187	99.98
0.36853	99.99
0.38520	99.98
0.40187	99.98
0.41853	99.98
0.43520	99.98
0.45187	99.98
0.46853	99.98
0.48520	99.98
0.50187	99.98
0.51853	99.98
0.53520	99.98
0.55187	99.98
0.56853	99.99
0.58520	99.98
0.60187	99.99
0.61853	99.98
0.63520	99.99
0.65187	99.98
0.66853	99.98
0.68520	99.99
0.70187	99.98
0.71853	99.98
0.73520	99.98
0.75187	99.98
0.76853	99.98
0.78520	99.98
0.80187	99.98
0.81853	99.98
0.83520	99.98
0.85187	99.98
0.86853	99.99
0.88520	99.98
0.90187	99.98
0.91853	99.98
0.93520	99.98
0.95187	99.98
0.96853	99.98
0.98520	99.98
1.00187	99.98
1.01853	99.98
1.03520	99.98
1.05187	99.98
1.06853	99.98
1.08520	99.98
1.10187	99.98
1.11853	99.98
1.13520	99.98
1.15187	99.98
1.16853	99.98
1.18520	99.98
1.20187	99.98
1.21853	99.98
1.23520	99.98
1.25187	99.98
1.26853	99.98
1.28520	99.98
1.30187	99.98
1.31853	99.98
1.33520	99.98
1.35187	99.98
1.36853	99.98
1.38520	99.98
1.40187	99.98
1.41853	99.98
1.43520	99.98
1.45187	99.98
1.46853	99.98
1.48520	99.98
1.50187	99.98
1.51853	99.98
1.53520	99.98
1.55187	99.98
1.56853	99.98
1.58520	99.98
1.60187	99.99
1.61853	99.99
1.63520	99.98
1.65187	99.98
1.66853	99.99
1.68520	99.98
1.70187	99.98
1.71853	99.98
1.73520	99.98
1.75187	99.98
1.76853	99.98
1.78520	99.98
1.80187	99.98
1.81853	99.98
1.83520	99.98
1.85187	99.98
1.86853	99.98
1.88520	99.98
1.90187	99.98
1.91853	99.98
1.93520	99.98
1.95187	99.98
1.96853	99.97
1.98520	99.98
2.00187	99.98
2.01853	99.98
2.03520	99.97
2.05187	99.97
2.06853	99.97
2.08520	99.97
2.10187	99.97
2.11853	99.97
2.13520	99.97
2.15187	99.97
2.16853	99.97
2.18520	99.97
2.20187	99.97
2.21853	99.97
2.23520	99.97
2.25187	99.97
2.26853	99.97
2.28520	99.96
2.30187	99.97
2.31853	99.96
2.33520	99.96
2.35187	99.97
2.36853	99.97
2.38520	99.96
2.40187	99.97
2.41853	99.96
2.43520	99.97
2.45187	99.96
2.46853	99.97
2.48520	99.97
2.50187	99.97
2.51853	99.97
2.53520	99.97
2.55187	99.97
2.56853	99.97
2.58520	99.98
2.60187	99.97
2.61853	99.97
2.63520	99.98
2.65187	99.98
2.66853	99.98
2.68520	99.98
2.70187	99.98
2.71853	99.99
2.73520	99.98
2.75187	99.99
2.76853	99.99
2.78520	99.99
2.80187	99.99
2.81853	99.99
2.83520	99.99
2.85187	99.99
2.86853	100.00
2.88520	100.00
2.90187	100.00
2.91853	100.00
2.93520	100.00
2.95187	100.01
2.96853	100.00
2.98520	100.01
3.00187	100.01
3.01853	100.01
3.03520	100.01
3.05187	100.01
3.06853	100.01
3.08520	100.02
3.10187	100.01
3.11853	100.02
3.13520	100.02
3.15187	100.02
3.16853	100.01
3.18520	100.02
3.20187	100.02
3.21853	100.02
3.23520	100.02
3.25187	100.02
3.26853	100.02
3.28520	100.03
3.30187	100.03
3.31853	100.02
3.33520	100.02
3.35187	100.02
3.36853	100.03
3.38520	100.02
3.40187	100.03
3.41853	100.03
3.43520	100.02
3.45187	100.02
3.46853	100.03
3.48520	100.03
3.50187	100.03
3.51853	100.03
3.53520	100.03
3.55187	100.03
3.56853	100.03
3.58520	100.03
3.60187	100.04
3.61853	100.03
3.63520	100.03
3.65187	100.03
3.66853	100.03
3.68520	100.04
3.70187	100.03
3.71853	100.04
3.73520	100.04
3.75187	100.04
3.76853	100.04
3.78520	100.04
3.80187	100.04
3.81853	100.04
3.83520	100.04
3.85187	100.04
3.86853	100.04
3.88520	100.04
3.90187	100.04
3.91853	100.04
3.93520	100.04
3.95187	100.04
3.96853	100.05
3.98520	100.05

[Status Trace (Carrier Gas Pressure)]
Interval(msec)	1000
# of Points	240
Start Time(min)	0.002
End Time(min)	3.985
Intensity Units	
Intensity Multiplier	1
R.Time (min)	Intensity
0.00187	58.00
0.01853	56.44
0.03520	56.20
0.05187	58.35
0.06853	59.92
0.08520	58.39
0.10187	57.97
0.11853	58.00
0.13520	58.01
0.15187	58.01
0.16853	58.00
0.18520	58.00
0.20187	58.00
0.21853	58.00
0.23520	58.00
0.25187	58.00
0.26853	58.00
0.28520	58.00
0.30187	58.00
0.31853	58.00
0.33520	58.00
0.35187	58.00
0.36853	58.00
0.38520	58.00
0.40187	58.00
0.41853	58.00
0.43520	58.00
0.45187	58.00
0.46853	58.00
0.48520	58.00
0.50187	58.00
0.51853	58.00
0.53520	58.00
0.55187	58.00
0.56853	58.00
0.58520	58.00
0.60187	58.00
0.61853	58.00
0.63520	58.00
0.65187	58.00
0.66853	58.00
0.68520	58.00
0.70187	58.00
0.71853	58.00
0.73520	58.00
0.75187	58.00
0.76853	58.00
0.78520	58.00
0.80187	58.00
0.81853	58.00
0.83520	58.00
0.85187	58.00
0.86853	58.00
0.88520	58.00
0.90187	58.00
0.91853	58.00
0.93520	58.00
0.95187	58.00
0.96853	58.00
0.98520	58.00
1.00187	58.00
1.01853	58.00
1.03520	58.00
1.05187	58.00
1.06853	58.00
1.08520	58.00
1.10187	58.00
1.11853	58.00
1.13520	58.00
1.15187	58.00
1.16853	58.00
1.18520	58.00
1.20187	58.00
1.21853	58.00
1.23520	58.00
1.25187	58.00
1.26853	58.00
1.28520	58.00
1.30187	58.00
1.31853	58.00
1.33520	58.00
1.35187	58.00
1.36853	58.00
1.38520	58.00
1.40187	58.00
1.41853	58.00
1.43520	58.00
1.45187	58.00
1.46853	58.00
1.48520	58.00
1.50187	58.00
1.51853	58.00
1.53520	58.00
1.55187	58.00
1.56853	58.00
1.58520	58.00
1.60187	58.00
1.61853	58.00
1.63520	58.00
1.65187	58.00
1.66853	58.01
1.68520	58.01
1.70187	58.00
1.71853	58.00
1.73520	58.00
1.75187	58.00
1.76853	58.00
1.78520	58.00
1.80187	58.00
1.81853	58.00
1.83520	58.00
1.85187	58.00
1.86853	58.00
1.88520	58.00
1.90187	58.00
1.91853	58.00
1.93520	58.00
1.95187	58.00
1.96853	58.00
1.98520	58.00
2.00187	58.00
2.01853	58.00
2.03520	58.00
2.05187	58.00
2.06853	58.00
2.08520	58.00
2.10187	58.00
2.11853	58.00
2.13520	58.00
2.15187	58.00
2.16853	58.00
2.18520	58.00
2.20187	58.00
2.21853	58.00
2.23520	58.00
2.25187	58.00
2.26853	58.00
2.28520	58.00
2.30187	58.00
2.31853	58.00
2.33520	58.00
2.35187	58.00
2.36853	58.00
2.38520	57.99
2.40187	57.99
2.41853	58.00
2.43520	58.00
2.45187	58.00
2.46853	58.00
2.48520	58.00
2.50187	58.00
2.51853	58.00
2.53520	57.99
2.55187	58.00
2.56853	58.00
2.58520	58.00
2.60187	58.00
2.61853	58.00
2.63520	58.00
2.65187	58.00
2.66853	58.00
2.68520	58.00
2.70187	58.00
2.71853	58.00
2.73520	58.00
2.75187	58.00
2.76853	58.00
2.78520	58.00
2.80187	58.00
2.81853	58.00
2.83520	58.00
2.85187	58.00
2.86853	58.00
2.88520	58.00
2.90187	58.00
2.91853	58.00
2.93520	58.00
2.95187	58.00
2.96853	58.00
2.98520	58.00
3.00187	58.00
3.01853	58.00
3.03520	58.00
3.05187	58.00
3.06853	58.00
3.08520	58.00
3.10187	58.00
3.11853	58.00
3.13520	58.00
3.15187	58.00
3.16853	58.00
3.18520	58.00
3.20187	58.00
3.21853	58.00
3.23520	58.00
3.25187	58.00
3.26853	58.00
3.28520	58.00
3.30187	58.00
3.31853	58.00
3.33520	58.00
3.35187	58.00
3.36853	58.00
3.38520	58.00
3.40187	58.00
3.41853	58.00
3.43520	58.00
3.45187	58.00
3.46853	58.00
3.48520	58.00
3.50187	58.00
3.51853	58.00
3.53520	58.00
3.55187	58.00
3.56853	58.00
3.58520	58.00
3.60187	58.00
3.61853	58.00
3.63520	58.00
3.65187	58.00
3.66853	58.00
3.68520	58.00
3.70187	58.00
3.71853	58.00
3.73520	58.00
3.75187	58.00
3.76853	58.00
3.78520	58.00
3.80187	58.00
3.81853	58.00
3.83520	58.00
3.85187	58.00
3.86853	58.00
3.88520	58.00
3.90187	58.00
3.91853	58.00
3.93520	58.00
3.95187	58.00
3.96853	58.00
3.98520	58.00

[Status Trace (Carrier Gas Flow)]
Interval(msec)	1000
# of Points	240
Start Time(min)	0.002
End Time(min)	3.985
Intensity Units	
Intensity Multiplier	1
R.Time (min)	Intensity
0.00187	34.52
0.01853	34.33
0.03520	34.55
0.05187	34.55
0.06853	34.49
0.08520	34.50
0.10187	34.52
0.11853	34.53
0.13520	34.52
0.15187	34.52
0.16853	34.52
0.18520	34.52
0.20187	34.52
0.21853	34.52
0.23520	34.52
0.25187	34.50
0.26853	34.52
0.28520	34.52
0.30187	34.51
0.31853	34.52
0.33520	34.52
0.35187	34.50
0.36853	34.52
0.38520	34.54
0.40187	34.51
0.41853	34.52
0.43520	34.52
0.45187	34.52
0.46853	34.51
0.48520	34.52
0.50187	34.52
0.51853	34.52
0.53520	34.52
0.55187	34.52
0.56853	34.52
0.58520	34.52
0.60187	34.52
0.61853	34.52
0.63520	34.52
0.65187	34.52
0.66853	34.52
0.68520	34.52
0.70187	34.52
0.71853	34.52
0.73520	34.52
0.75187	34.52
0.76853	34.52
0.78520	34.52
0.80187	34.52
0.81853	34.52
0.83520	34.52
0.85187	34.52
0.86853	34.52
0.88520	34.52
0.90187	34.52
0.91853	34.52
0.93520	34.52
0.95187	34.52
0.96853	34.52
0.98520	34.52
1.00187	34.52
1.01853	34.52
1.03520	34.52
1.05187	34.52
1.06853	34.52
1.08520	34.52
1.10187	34.52
1.11853	34.52
1.13520	34.52
1.15187	34.52
1.16853	34.52
1.18520	34.52
1.20187	34.52
1.21853	34.52
1.23520	34.52
1.25187	34.52
1.26853	34.52
1.28520	34.52
1.30187	34.52
1.31853	34.52
1.33520	34.52
1.35187	34.52
1.36853	34.52
1.38520	34.52
1.40187	34.52
1.41853	34.52
1.43520	34.52
1.45187	34.52
1.46853	34.52
1.48520	34.52
1.50187	34.52
1.51853	34.52
1.53520	34.51
1.55187	34.52
1.56853	34.52
1.58520	34.52
1.60187	34.52
1.61853	34.52
1.63520	34.52
1.65187	34.52
1.66853	34.50
1.68520	34.54
1.70187	34.54
1.71853	34.50
1.73520	34.54
1.75187	34.52
1.76853	34.53
1.78520	34.52
1.80187	34.52
1.81853	34.52
1.83520	34.52
1.85187	34.53
1.86853	34.52
1.88520	34.54
1.90187	34.53
1.91853	34.50
1.93520	34.52
1.95187	34.54
1.96853	34.53
1.98520	34.52
2.00187	34.52
2.01853	34.52
2.03520	34.52
2.05187	34.50
2.06853	34.52
2.08520	34.53
2.10187	34.50
2.11853	34.51
2.13520	34.52
2.15187	34.52
2.16853	34.52
2.18520	34.50
2.20187	34.51
2.21853	34.52
2.23520	34.50
2.25187	34.53
2.26853	34.51
2.28520	34.52
2.30187	34.52
2.31853	34.51
2.33520	34.51
2.35187	34.54
2.36853	34.52
2.38520	34.52
2.40187	34.52
2.41853	34.52
2.43520	34.52
2.45187	34.52
2.46853	34.52
2.48520	34.52
2.50187	34.52
2.51853	34.51
2.53520	34.52
2.55187	34.52
2.56853	34.53
2.58520	34.51
2.60187	34.53
2.61853	34.54
2.63520	34.52
2.65187	34.52
2.66853	34.51
2.68520	34.52
2.70187	34.54
2.71853	34.52
2.73520	34.53
2.75187	34.53
2.76853	34.54
2.78520	34.51
2.80187	34.52
2.81853	34.53
2.83520	34.52
2.85187	34.51
2.86853	34.52
2.88520	34.52
2.90187	34.52
2.91853	34.52
2.93520	34.52
2.95187	34.52
2.96853	34.50
2.98520	34.52
3.00187	34.54
3.01853	34.50
3.03520	34.51
3.05187	34.50
3.06853	34.53
3.08520	34.53
3.10187	34.51
3.11853	34.53
3.13520	34.52
3.15187	34.52
3.16853	34.54
3.18520	34.54
3.20187	34.51
3.21853	34.53
3.23520	34.52
3.25187	34.52
3.26853	34.52
3.28520	34.49
3.30187	34.52
3.31853	34.52
3.33520	34.52
3.35187	34.53
3.36853	34.51
3.38520	34.52
3.40187	34.51
3.41853	34.53
3.43520	34.52
3.45187	34.52
3.46853	34.51
3.48520	34.52
3.50187	34.52
3.51853	34.51
3.53520	34.51
3.55187	34.52
3.56853	34.52
3.58520	34.52
3.60187	34.52
3.61853	34.52
3.63520	34.52
3.65187	34.51
3.66853	34.52
3.68520	34.52
3.70187	34.52
3.71853	34.52
3.73520	34.52
3.75187	34.52
3.76853	34.52
3.78520	34.52
3.80187	34.52
3.81853	34.52
3.83520	34.52
3.85187	34.52
3.86853	34.52
3.88520	34.52
3.90187	34.52
3.91853	34.52
3.93520	34.52
3.95187	34.52
3.96853	34.52
3.98520	34.52

[Status Trace (Column Flow)]
Interval(msec)	1000
# of Points	240
Start Time(min)	0.002
End Time(min)	3.985
Intensity Units	
Intensity Multiplier	1
R.Time (min)	Intensity
0.00187	5.49
0.01853	5.31
0.03520	5.29
0.05187	5.54
0.06853	5.72
0.08520	5.54
0.10187	5.49
0.11853	5.50
0.13520	5.50
0.15187	5.50
0.16853	5.50
0.18520	5.50
0.20187	5.50
0.21853	5.50
0.23520	5.50
0.25187	5.50
0.26853	5.50
0.28520	5.50
0.30187	5.50
0.31853	5.50
0.33520	5.50
0.35187	5.50
0.36853	5.50
0.38520	5.50
0.40187	5.50
0.41853	5.50
0.43520	5.50
0.45187	5.50
0.46853	5.50
0.48520	5.50
0.50187	5.50
0.51853	5.50
0.53520	5.50
0.55187	5.50
0.56853	5.50
0.58520	5.50
0.60187	5.50
0.61853	5.50
0.63520	5.50
0.65187	5.50
0.66853	5.50
0.68520	5.50
0.70187	5.50
0.71853	5.50
0.73520	5.50
0.75187	5.50
0.76853	5.49
0.78520	5.49
0.80187	5.49
0.81853	5.50
0.83520	5.49
0.85187	5.49
0.86853	5.49
0.88520	5.49
0.90187	5.49
0.91853	5.49
0.93520	5.49
0.95187	5.49
0.96853	5.49
0.98520	5.49
1.00187	5.49
1.01853	5.49
1.03520	5.50
1.05187	5.50
1.06853	5.50
1.08520	5.50
1.10187	5.50
1.11853	5.50
1.13520	5.50
1.15187	5.50
1.16853	5.50
1.18520	5.50
1.20187	5.50
1.21853	5.50
1.23520	5.50
1.25187	5.50
1.26853	5.50
1.28520	5.50
1.30187	5.50
1.31853	5.49
1.33520	5.49
1.35187	5.50
1.36853	5.50
1.38520	5.50
1.40187	5.50
1.41853	5.50
1.43520	5.50
1.45187	5.50
1.46853	5.50
1.48520	5.50
1.50187	5.50
1.51853	5.50
1.53520	5.50
1.55187	5.50
1.56853	5.50
1.58520	5.50
1.60187	5.49
1.61853	5.49
1.63520	5.49
1.65187	5.48
1.66853	5.47
1.68520	5.46
1.70187	5.45
1.71853	5.44
1.73520	5.43
1.75187	5.42
1.76853	5.41
1.78520	5.40
1.80187	5.39
1.81853	5.38
1.83520	5.37
1.85187	5.36
1.86853	5.35
1.88520	5.34
1.90187	5.33
1.91853	5.32
1.93520	5.31
1.95187	5.30
1.96853	5.29
1.98520	5.28
2.00187	5.27
2.01853	5.26
2.03520	5.25
2.05187	5.24
2.06853	5.23
2.08520	5.22
2.10187	5.21
2.11853	5.20
2.13520	5.19
2.15187	5.18
2.16853	5.17
2.18520	5.16
2.20187	5.16
2.21853	5.15
2.23520	5.14
2.25187	5.13
2.26853	5.12
2.28520	5.11
2.30187	5.10
2.31853	5.09
2.33520	5.08
2.35187	5.07
2.36853	5.07
2.38520	5.06
2.40187	5.06
2.41853	5.06
2.43520	5.06
2.45187	5.06
2.46853	5.06
2.48520	5.06
2.50187	5.06
2.51853	5.06
2.53520	5.06
2.55187	5.06
2.56853	5.06
2.58520	5.06
2.60187	5.06
2.61853	5.06
2.63520	5.06
2.65187	5.06
2.66853	5.06
2.68520	5.06
2.70187	5.06
2.71853	5.06
2.73520	5.06
2.75187	5.06
2.76853	5.06
2.78520	5.06
2.80187	5.06
2.81853	5.06
2.83520	5.06
2.85187	5.06
2.86853	5.06
2.88520	5.06
2.90187	5.06
2.91853	5.06
2.93520	5.06
2.95187	5.06
2.96853	5.06
2.98520	5.06
3.00187	5.06
3.01853	5.05
3.03520	5.05
3.05187	5.05
3.06853	5.05
3.08520	5.05
3.10187	5.05
3.11853	5.05
3.13520	5.05
3.15187	5.05
3.16853	5.05
3.18520	5.05
3.20187	5.05
3.21853	5.05
3.23520	5.05
3.25187	5.05
3.26853	5.05
3.28520	5.05
3.30187	5.05
3.31853	5.05
3.33520	5.05
3.35187	5.05
3.36853	5.05
3.38520	5.05
3.40187	5.05
3.41853	5.05
3.43520	5.05
3.45187	5.05
3.46853	5.05
3.48520	5.05
3.50187	5.05
3.51853	5.05
3.53520	5.05
3.55187	5.05
3.56853	5.05
3.58520	5.05
3.60187	5.05
3.61853	5.05
3.63520	5.05
3.65187	5.05
3.66853	5.05
3.68520	5.05
3.70187	5.05
3.71853	5.05
3.73520	5.05
3.75187	5.05
3.76853	5.05
3.78520	5.05
3.80187	5.05
3.81853	5.05
3.83520	5.05
3.85187	5.05
3.86853	5.05
3.88520	5.05
3.90187	5.05
3.91853	5.05
3.93520	5.05
3.95187	5.05
3.96853	5.05
3.98520	5.05

[Status Trace (Linear Velocity)]
Interval(msec)	1000
# of Points	240
Start Time(min)	0.002
End Time(min)	3.985
Intensity Units	
Intensity Multiplier	1
R.Time (min)	Intensity
0.00187	39.00
0.01853	37.98
0.03520	37.83
0.05187	39.24
0.06853	40.27
0.08520	39.26
0.10187	38.99
0.11853	39.01
0.13520	39.02
0.15187	39.02
0.16853	39.02
0.18520	39.01
0.20187	39.01
0.21853	39.01
0.23520	39.01
0.25187	39.01
0.26853	39.01
0.28520	39.01
0.30187	39.01
0.31853	39.01
0.33520	39.01
0.35187	39.01
0.36853	39.01
0.38520	39.01
0.40187	39.01
0.41853	39.01
0.43520	39.01
0.45187	39.01
0.46853	39.01
0.48520	39.01
0.50187	39.01
0.51853	39.01
0.53520	39.01
0.55187	39.01
0.56853	39.01
0.58520	39.01
0.60187	39.01
0.61853	39.01
0.63520	39.01
0.65187	39.01
0.66853	39.01
0.68520	39.01
0.70187	39.01
0.71853	39.01
0.73520	39.01
0.75187	39.01
0.76853	39.01
0.78520	39.01
0.80187	39.01
0.81853	39.01
0.83520	39.01
0.85187	39.01
0.86853	39.00
0.88520	39.00
0.90187	39.00
0.91853	39.00
0.93520	39.01
0.95187	39.01
0.96853	39.01
0.98520	39.01
1.00187	39.01
1.01853	39.01
1.03520	39.01
1.05187	39.01
1.06853	39.01
1.08520	39.01
1.10187	39.01
1.11853	39.01
1.13520	39.01
1.15187	39.01
1.16853	39.01
1.18520	39.01
1.20187	39.01
1.21853	39.01
1.23520	39.01
1.25187	39.01
1.26853	39.01
1.28520	39.01
1.30187	39.01
1.31853	39.01
1.33520	39.01
1.35187	39.01
1.36853	39.01
1.38520	39.01
1.40187	39.01
1.41853	39.01
1.43520	39.01
1.45187	39.01
1.46853	39.01
1.48520	39.01
1.50187	39.01
1.51853	39.01
1.53520	39.01
1.55187	39.01
1.56853	39.01
1.58520	39.01
1.60187	39.01
1.61853	39.00
1.63520	38.99
1.65187	38.96
1.66853	38.93
1.68520	38.90
1.70187	38.86
1.71853	38.83
1.73520	38.80
1.75187	38.77
1.76853	38.73
1.78520	38.70
1.80187	38.67
1.81853	38.64
1.83520	38.61
1.85187	38.58
1.86853	38.55
1.88520	38.52
1.90187	38.49
1.91853	38.46
1.93520	38.43
1.95187	38.40
1.96853	38.36
1.98520	38.33
2.00187	38.31
2.01853	38.28
2.03520	38.25
2.05187	38.21
2.06853	38.19
2.08520	38.16
2.10187	38.13
2.11853	38.10
2.13520	38.07
2.15187	38.04
2.16853	38.01
2.18520	37.98
2.20187	37.95
2.21853	37.92
2.23520	37.89
2.25187	37.86
2.26853	37.83
2.28520	37.80
2.30187	37.77
2.31853	37.74
2.33520	37.71
2.35187	37.69
2.36853	37.66
2.38520	37.65
2.40187	37.64
2.41853	37.65
2.43520	37.65
2.45187	37.65
2.46853	37.65
2.48520	37.65
2.50187	37.65
2.51853	37.64
2.53520	37.64
2.55187	37.65
2.56853	37.64
2.58520	37.64
2.60187	37.64
2.61853	37.64
2.63520	37.64
2.65187	37.64
2.66853	37.64
2.68520	37.64
2.70187	37.64
2.71853	37.64
2.73520	37.64
2.75187	37.63
2.76853	37.64
2.78520	37.64
2.80187	37.64
2.81853	37.64
2.83520	37.64
2.85187	37.63
2.86853	37.63
2.88520	37.63
2.90187	37.63
2.91853	37.63
2.93520	37.63
2.95187	37.63
2.96853	37.63
2.98520	37.63
3.00187	37.63
3.01853	37.63
3.03520	37.63
3.05187	37.63
3.06853	37.63
3.08520	37.62
3.10187	37.62
3.11853	37.62
3.13520	37.62
3.15187	37.62
3.16853	37.62
3.18520	37.62
3.20187	37.62
3.21853	37.62
3.23520	37.62
3.25187	37.62
3.26853	37.62
3.28520	37.62
3.30187	37.62
3.31853	37.62
3.33520	37.62
3.35187	37.62
3.36853	37.62
3.38520	37.62
3.40187	37.61
3.41853	37.61
3.43520	37.62
3.45187	37.62
3.46853	37.62
3.48520	37.62
3.50187	37.62
3.51853	37.63
3.53520	37.63
3.55187	37.63
3.56853	37.63
3.58520	37.63
3.60187	37.63
3.61853	37.63
3.63520	37.63
3.65187	37.63
3.66853	37.63
3.68520	37.63
3.70187	37.62
3.71853	37.62
3.73520	37.62
3.75187	37.62
3.76853	37.62
3.78520	37.62
3.80187	37.62
3.81853	37.62
3.83520	37.62
3.85187	37.62
3.86853	37.62
3.88520	37.62
3.90187	37.62
3.91853	37.62
3.93520	37.62
3.95187	37.62
3.96853	37.62
3.98520	37.62

