[Header]
Application Name	LabSolutions
Version	5.110
Data File Name	C:\Users\User\Desktop\GC Analyses\Jack\UIC Prairie Sampling\7.9.22\220909_011.gcd
Output Date	9/28/2022
Output Time	11:29:49 AM

[File Information]
Type	Data File
Generated	9/9/2022 2:06:26 PM
Generated by	System Administrator
Modified	9/9/2022 2:10:48 PM
Modified by	System Administrator

[Sample Information]
Operator Name	System Administrator
Acquired	9/9/2022 2:06:48 PM
Sample Type	1:Standard
Level	1
Sample Name	220909_Run
Sample ID	220909_Run
ISTD Amount1	1
ISTD Amount2	1
ISTD Amount3	1
ISTD Amount4	1
ISTD Amount5	1
ISTD Amount6	1
ISTD Amount7	1
ISTD Amount8	1
ISTD Amount9	1
ISTD Amount10	1
ISTD Amount11	1
ISTD Amount12	1
ISTD Amount13	1
ISTD Amount14	1
ISTD Amount15	1
ISTD Amount16	1
ISTD Amount17	1
ISTD Amount18	1
ISTD Amount19	1
ISTD Amount20	1
ISTD Amount21	1
ISTD Amount22	1
ISTD Amount23	1
ISTD Amount24	1
ISTD Amount25	1
ISTD Amount26	1
ISTD Amount27	1
ISTD Amount28	1
ISTD Amount29	1
ISTD Amount30	1
ISTD Amount31	1
ISTD Amount32	1
Sample Amount	1
Dilution Factor	1
Vial#	1
Injection Volume	1
Injection Count	1
Bar Code	

[Original Files]
Data File	C:\Users\User\Desktop\GC Analyses\Jack\220909\220909_011.gcd
Method File	C:\LabSolutions\Data\GHG_4min_2022\ghg3_togas_w_acet_4 min_new_int.gcm
Batch File	
Report Format File	c:\LabSolutions\System\DEFAULT.lsr

[File Description]


[Configuration]
Instrument Name	C0B7VH3-Instrument1
Instrument #	1
Line #	1
# of Detectors	3
Detector ID	DET#1	DET#2	DET#3
Detector Name	FID	PTCD	ECD
# of Channels	1	1	1

[Peak Table(Ch1)]
# of Peaks	3
Peak#	R.Time	I.Time	F.Time	Area	Height	A/H	Conc.	Mark	ID#	Name	k'	Plate #	Plate Ht.	Tailing	Resolution	Sep.Factor	Area Ratio	Height Ratio	Conc. %	Norm Conc.
1	1.468	1.435	1.534	9494	4204	2.259	100.000	   	1	CO	0.000	8061	18.608	1.460	0.000	0.000	0	0	16.667	16.667
2	1.567	1.534	1.630	20272	10405	1.948	100.000	 V 	2	CH4	0.067	11485	13.061	1.227	1.598	0.000	0	0	16.667	16.667
3	1.996	1.945	2.323	2130983	1048612	2.032	400.000	   	3	CO2	0.360	17782	8.436	1.206	7.248	5.333	0	0	66.667	66.667

[Peak Table(Ch2)]
# of Peaks	0

[Peak Table(Ch3)]
# of Peaks	3
Peak#	R.Time	I.Time	F.Time	Area	Height	A/H	Conc.	Mark	ID#	Name	k'	Plate #	Plate Ht.	Tailing	Resolution	Sep.Factor	Area Ratio	Height Ratio	Conc. %	Norm Conc.
1	2.462	1.006	2.649	19744	487	40.511	0.000	   			0.000	100	1494.826	0.564	0.000	0.000	0	0	0.000	0.000
2	2.876	2.807	3.056	62418	16290	3.832	1.000	   	1	N2O	0.168	12636	11.870	1.514	0.763	0.000	0	0	50.000	50.000
3	3.390	3.206	3.965	22512	752	29.953	1.000	   	2	SF6	0.377	324	463.177	2.060	1.200	2.239	0	0	50.000	50.000

[Compound Results(Ch1)]
# of IDs	6
ID#	Name	R.Time	Area	Height	Conc.	Curve	3rd	2nd	1st	Constant	Area Ratio	Height Ratio	Conc. %	Norm Conc.
1	CO	1.468	9494	4204	100.000	Linear	0.000000e+00	0.000000e+00	9.494140e+001	0.000000e+00	0	0	16.667	16.667
2	CH4	1.567	20272	10405	100.000	Linear	0.000000e+00	0.000000e+00	2.027201e+002	0.000000e+00	0	0	16.667	16.667
3	CO2	1.996	2130983	1048612	400.000	Linear	0.000000e+00	0.000000e+00	5.327457e+003	0.000000e+00	0	0	66.667	66.667
4	Ethylene	0.000	0	0	0.000	Linear	0.000000e+00	0.000000e+00	0.000000e+00	0.000000e+00	0	0	0.000	0.000
5	Acetylene	0.000	0	0	0.000	Linear	0.000000e+00	0.000000e+00	0.000000e+00	0.000000e+00	0	0	0.000	0.000
6	Ethane	0.000	0	0	0.000	Linear	0.000000e+00	0.000000e+00	0.000000e+00	0.000000e+00	0	0	0.000	0.000

[Compound Results(Ch2)]
# of IDs	5
ID#	Name	R.Time	Area	Height	Conc.	Curve	3rd	2nd	1st	Constant	Area Ratio	Height Ratio	Conc. %	Norm Conc.
1	Hydrogen	0.000	0	0	0.000	Linear	0.000000e+00	0.000000e+00	0.000000e+00	0.000000e+00	0	0	0.000	0.000
2	Oxygen	0.000	0	0	0.000	Linear	0.000000e+00	0.000000e+00	0.000000e+00	0.000000e+00	0	0	0.000	0.000
3	Nitrogen	0.000	0	0	0.000	Linear	0.000000e+00	0.000000e+00	0.000000e+00	0.000000e+00	0	0	0.000	0.000
4	Methane	0.000	0	0	0.000	Linear	0.000000e+00	0.000000e+00	0.000000e+00	0.000000e+00	0	0	0.000	0.000
5	Carbon Monoxide	0.000	0	0	0.000	Linear	0.000000e+00	0.000000e+00	0.000000e+00	0.000000e+00	0	0	0.000	0.000

[Compound Results(Ch3)]
# of IDs	2
ID#	Name	R.Time	Area	Height	Conc.	Curve	3rd	2nd	1st	Constant	Area Ratio	Height Ratio	Conc. %	Norm Conc.
1	N2O	2.876	62418	16290	1.000	Linear	0.000000e+00	0.000000e+00	6.241782e+004	0.000000e+00	0	0	50.000	50.000
2	SF6	3.390	22512	752	1.000	Linear	0.000000e+00	0.000000e+00	2.251222e+004	0.000000e+00	0	0	50.000	50.000

[Group Results(Ch1)]
# of Groups	0

[Group Results(Ch2)]
# of Groups	0

[Group Results(Ch3)]
# of Groups	0

[Chromatogram (Ch1)]
Interval(msec)	220
# of Points	1091
Start Time(min)	0.002
End Time(min)	3.998
R.Time (min)	Intensity
0.00167	-21
0.00533	-20
0.00900	-7
0.01267	5
0.01633	7
0.02000	7
0.02367	5
0.02733	-3
0.03100	-6
0.03467	-9
0.03833	-13
0.04200	-11
0.04567	-6
0.04933	-1
0.05300	-1
0.05667	-4
0.06033	3
0.06400	3
0.06767	-1
0.07133	-8
0.07500	-15
0.07867	-17
0.08233	-19
0.08600	-20
0.08967	-18
0.09333	-15
0.09700	-15
0.10067	-17
0.10433	-21
0.10800	-23
0.11167	-23
0.11533	-20
0.11900	-16
0.12267	-13
0.12633	-12
0.13000	-9
0.13367	-7
0.13733	-9
0.14100	-15
0.14467	-20
0.14833	-24
0.15200	-23
0.15567	-23
0.15933	-24
0.16300	-20
0.16667	-15
0.17033	-9
0.17400	-7
0.17767	-4
0.18133	3
0.18500	11
0.18867	10
0.19233	7
0.19600	3
0.19967	-10
0.20333	-21
0.20700	-24
0.21067	-24
0.21433	-16
0.21800	-13
0.22167	-10
0.22533	-7
0.22900	-8
0.23267	-13
0.23633	-12
0.24000	-15
0.24367	-18
0.24733	-22
0.25100	-27
0.25467	-29
0.25833	-26
0.26200	-18
0.26567	-13
0.26933	-15
0.27300	-18
0.27667	-17
0.28033	-16
0.28400	-16
0.28767	-21
0.29133	-27
0.29500	-31
0.29867	-32
0.30233	-29
0.30600	-30
0.30967	-27
0.31333	-20
0.31700	-19
0.32067	-19
0.32433	-15
0.32800	-12
0.33167	-14
0.33533	-19
0.33900	-27
0.34267	-31
0.34633	-27
0.35000	-20
0.35367	-14
0.35733	-8
0.36100	-0
0.36467	4
0.36833	5
0.37200	3
0.37567	-2
0.37933	-7
0.38300	-13
0.38667	-20
0.39033	-22
0.39400	-21
0.39767	-19
0.40133	-19
0.40500	-21
0.40867	-22
0.41233	-24
0.41600	-29
0.41967	-35
0.42333	-39
0.42700	-37
0.43067	-34
0.43433	-31
0.43800	-27
0.44167	-23
0.44533	-22
0.44900	-22
0.45267	-23
0.45633	-28
0.46000	-31
0.46367	-29
0.46733	-26
0.47100	-25
0.47467	-26
0.47833	-27
0.48200	-28
0.48567	-27
0.48933	-24
0.49300	-22
0.49667	-21
0.50033	-19
0.50400	-18
0.50767	-16
0.51133	-12
0.51500	-10
0.51867	-11
0.52233	-17
0.52600	-22
0.52967	-28
0.53333	-33
0.53700	-31
0.54067	-28
0.54433	-27
0.54800	-28
0.55167	-31
0.55533	-30
0.55900	-32
0.56267	-33
0.56633	-36
0.57000	-38
0.57367	-42
0.57733	-42
0.58100	-42
0.58467	-47
0.58833	-52
0.59200	-55
0.59567	-58
0.59933	-57
0.60300	-52
0.60667	-46
0.61033	-41
0.61400	-34
0.61767	-29
0.62133	-23
0.62500	-19
0.62867	-20
0.63233	-26
0.63600	-32
0.63967	-35
0.64333	-38
0.64700	-43
0.65067	-50
0.65433	-52
0.65800	-52
0.66167	-50
0.66533	-45
0.66900	-41
0.67267	-36
0.67633	-32
0.68000	-32
0.68367	-39
0.68733	-45
0.69100	-49
0.69467	-51
0.69833	-48
0.70200	-40
0.70567	-33
0.70933	-28
0.71300	-26
0.71667	-32
0.72033	-40
0.72400	-48
0.72767	-54
0.73133	-49
0.73500	-46
0.73867	-44
0.74233	-42
0.74600	-38
0.74967	-35
0.75333	-36
0.75700	-41
0.76067	-45
0.76433	-49
0.76800	-50
0.77167	-50
0.77533	-45
0.77900	-36
0.78267	-30
0.78633	-25
0.79000	-24
0.79367	-27
0.79733	-34
0.80100	-43
0.80467	-47
0.80833	-48
0.81200	-50
0.81567	-52
0.81933	-51
0.82300	-51
0.82667	-51
0.83033	-51
0.83400	-51
0.83767	-52
0.84133	-55
0.84500	-58
0.84867	-59
0.85233	-59
0.85600	-57
0.85967	-55
0.86333	-56
0.86700	-64
0.87067	-71
0.87433	-75
0.87800	-75
0.88167	-76
0.88533	-74
0.88900	-69
0.89267	-65
0.89633	-65
0.90000	-67
0.90367	-69
0.90733	-70
0.91100	-72
0.91467	-74
0.91833	-72
0.92200	-66
0.92567	-58
0.92933	-53
0.93300	-47
0.93667	-44
0.94033	-43
0.94400	-44
0.94767	-49
0.95133	-56
0.95500	-63
0.95867	-69
0.96233	-73
0.96600	-72
0.96967	-67
0.97333	-59
0.97700	-53
0.98067	-50
0.98433	-51
0.98800	-55
0.99167	-61
0.99533	-67
0.99900	-73
1.00267	-81
1.00633	-83
1.01000	-82
1.01367	-79
1.01733	-76
1.02100	-74
1.02467	-72
1.02833	-70
1.03200	-70
1.03567	-71
1.03933	-73
1.04300	-73
1.04667	-69
1.05033	-66
1.05400	-65
1.05767	-66
1.06133	-66
1.06500	-68
1.06867	-73
1.07233	-79
1.07600	-82
1.07967	-88
1.08333	-86
1.08700	-77
1.09067	-69
1.09433	-64
1.09800	-62
1.10167	-60
1.10533	-60
1.10900	-59
1.11267	-58
1.11633	-59
1.12000	-64
1.12367	-68
1.12733	-71
1.13100	-72
1.13467	-73
1.13833	-73
1.14200	-71
1.14567	-67
1.14933	-64
1.15300	-64
1.15667	-64
1.16033	-67
1.16400	-70
1.16767	-72
1.17133	-77
1.17500	-76
1.17867	-77
1.18233	-83
1.18600	-84
1.18967	-82
1.19333	-78
1.19700	-74
1.20067	-70
1.20433	-68
1.20800	-68
1.21167	-67
1.21533	-66
1.21900	-66
1.22267	-68
1.22633	-70
1.23000	-71
1.23367	-70
1.23733	-71
1.24100	-74
1.24467	-75
1.24833	-74
1.25200	-70
1.25567	-67
1.25933	-68
1.26300	-68
1.26667	-67
1.27033	-67
1.27400	-70
1.27767	-70
1.28133	-69
1.28500	-68
1.28867	-65
1.29233	-63
1.29600	-63
1.29967	-65
1.30333	-67
1.30700	-68
1.31067	-66
1.31433	-65
1.31800	-67
1.32167	-69
1.32533	-71
1.32900	-72
1.33267	-71
1.33633	-73
1.34000	-74
1.34367	-75
1.34733	-73
1.35100	-69
1.35467	-72
1.35833	-75
1.36200	-76
1.36567	-76
1.36933	-74
1.37300	-78
1.37667	-85
1.38033	-82
1.38400	-73
1.38767	-62
1.39133	-50
1.39500	-45
1.39867	-46
1.40233	-58
1.40600	-74
1.40967	-87
1.41333	-93
1.41700	-96
1.42067	-95
1.42433	-95
1.42800	-96
1.43167	-96
1.43533	-87
1.43900	-38
1.44267	163
1.44633	629
1.45000	1317
1.45367	2110
1.45733	2871
1.46100	3499
1.46467	3932
1.46833	4117
1.47200	4017
1.47567	3679
1.47933	3204
1.48300	2684
1.48667	2183
1.49033	1733
1.49400	1351
1.49767	1036
1.50133	783
1.50500	582
1.50867	421
1.51233	291
1.51600	190
1.51967	110
1.52333	47
1.52700	2
1.53067	-29
1.53433	-38
1.53800	42
1.54167	413
1.54533	1367
1.54900	2995
1.55267	5018
1.55633	7005
1.56000	8648
1.56367	9796
1.56733	10320
1.57100	10081
1.57467	9075
1.57833	7528
1.58200	5808
1.58567	4224
1.58933	2933
1.59300	1962
1.59667	1268
1.60033	788
1.60400	466
1.60767	253
1.61133	117
1.61500	31
1.61867	-24
1.62233	-58
1.62600	-77
1.62967	-85
1.63333	-88
1.63700	-86
1.64067	-84
1.64433	-85
1.64800	-90
1.65167	-99
1.65533	-107
1.65900	-114
1.66267	-120
1.66633	-121
1.67000	-120
1.67367	-119
1.67733	-119
1.68100	-117
1.68467	-114
1.68833	-114
1.69200	-119
1.69567	-126
1.69933	-131
1.70300	-134
1.70667	-133
1.71033	-133
1.71400	-136
1.71767	-141
1.72133	-146
1.72500	-149
1.72867	-150
1.73233	-148
1.73600	-140
1.73967	-129
1.74333	-119
1.74700	-114
1.75067	-112
1.75433	-111
1.75800	-112
1.76167	-110
1.76533	-106
1.76900	-106
1.77267	-107
1.77633	-110
1.78000	-110
1.78367	-111
1.78733	-112
1.79100	-111
1.79467	-110
1.79833	-112
1.80200	-112
1.80567	-109
1.80933	-105
1.81300	-101
1.81667	-100
1.82033	-98
1.82400	-96
1.82767	-95
1.83133	-94
1.83500	-93
1.83867	-92
1.84233	-92
1.84600	-96
1.84967	-98
1.85333	-99
1.85700	-103
1.86067	-105
1.86433	-104
1.86800	-102
1.87167	-100
1.87533	-99
1.87900	-100
1.88267	-104
1.88633	-110
1.89000	-116
1.89367	-121
1.89733	-123
1.90100	-126
1.90467	-130
1.90833	-132
1.91200	-130
1.91567	-128
1.91933	-126
1.92300	-122
1.92667	-116
1.93033	-111
1.93400	-110
1.93767	-107
1.94133	-102
1.94500	-98
1.94867	-90
1.95233	-50
1.95600	230
1.95967	1786
1.96333	8471
1.96700	30272
1.97067	84981
1.97433	191407
1.97800	353667
1.98167	551801
1.98533	750297
1.98900	914380
1.99267	1018423
1.99633	1048540
2.00000	1003845
2.00367	896783
2.00733	750311
2.01100	591466
2.01467	443056
2.01833	318581
2.02200	222190
2.02567	151764
2.02933	102399
2.03300	68771
2.03667	46286
2.04033	31415
2.04400	21628
2.04767	15177
2.05133	10892
2.05500	8016
2.05867	6054
2.06233	4693
2.06600	3730
2.06967	3035
2.07333	2526
2.07700	2145
2.08067	1855
2.08433	1628
2.08800	1447
2.09167	1302
2.09533	1182
2.09900	1082
2.10267	994
2.10633	913
2.11000	838
2.11367	772
2.11733	714
2.12100	660
2.12467	613
2.12833	572
2.13200	540
2.13567	512
2.13933	489
2.14300	470
2.14667	455
2.15033	441
2.15400	427
2.15767	409
2.16133	388
2.16500	369
2.16867	352
2.17233	340
2.17600	331
2.17967	316
2.18333	295
2.18700	276
2.19067	259
2.19433	245
2.19800	246
2.20167	246
2.20533	242
2.20900	234
2.21267	221
2.21633	214
2.22000	210
2.22367	206
2.22733	197
2.23100	186
2.23467	178
2.23833	170
2.24200	163
2.24567	161
2.24933	161
2.25300	163
2.25667	165
2.26033	164
2.26400	160
2.26767	153
2.27133	145
2.27500	142
2.27867	144
2.28233	145
2.28600	139
2.28967	130
2.29333	121
2.29700	114
2.30067	111
2.30433	112
2.30800	112
2.31167	110
2.31533	105
2.31900	98
2.32267	91
2.32633	83
2.33000	76
2.33367	75
2.33733	75
2.34100	71
2.34467	68
2.34833	67
2.35200	67
2.35567	72
2.35933	82
2.36300	91
2.36667	95
2.37033	92
2.37400	89
2.37767	84
2.38133	76
2.38500	66
2.38867	58
2.39233	53
2.39600	56
2.39967	57
2.40333	53
2.40700	45
2.41067	40
2.41433	39
2.41800	37
2.42167	32
2.42533	26
2.42900	26
2.43267	30
2.43633	35
2.44000	37
2.44367	37
2.44733	33
2.45100	26
2.45467	18
2.45833	11
2.46200	10
2.46567	12
2.46933	14
2.47300	14
2.47667	14
2.48033	15
2.48400	16
2.48767	13
2.49133	7
2.49500	0
2.49867	-2
2.50233	-1
2.50600	1
2.50967	4
2.51333	7
2.51700	9
2.52067	9
2.52433	7
2.52800	8
2.53167	8
2.53533	5
2.53900	0
2.54267	-4
2.54633	-6
2.55000	-4
2.55367	-1
2.55733	-0
2.56100	-1
2.56467	-3
2.56833	-5
2.57200	-7
2.57567	-10
2.57933	-13
2.58300	-18
2.58667	-20
2.59033	-17
2.59400	-11
2.59767	-3
2.60133	4
2.60500	7
2.60867	6
2.61233	5
2.61600	3
2.61967	-3
2.62333	-12
2.62700	-20
2.63067	-25
2.63433	-28
2.63800	-31
2.64167	-34
2.64533	-39
2.64900	-47
2.65267	-54
2.65633	-56
2.66000	-53
2.66367	-46
2.66733	-37
2.67100	-27
2.67467	-23
2.67833	-25
2.68200	-27
2.68567	-27
2.68933	-25
2.69300	-20
2.69667	-15
2.70033	-14
2.70400	-17
2.70767	-24
2.71133	-33
2.71500	-38
2.71867	-41
2.72233	-44
2.72600	-47
2.72967	-48
2.73333	-48
2.73700	-44
2.74067	-39
2.74433	-36
2.74800	-35
2.75167	-35
2.75533	-34
2.75900	-34
2.76267	-35
2.76633	-37
2.77000	-42
2.77367	-47
2.77733	-53
2.78100	-56
2.78467	-58
2.78833	-53
2.79200	-48
2.79567	-46
2.79933	-45
2.80300	-45
2.80667	-45
2.81033	-48
2.81400	-54
2.81767	-60
2.82133	-65
2.82500	-69
2.82867	-72
2.83233	-70
2.83600	-61
2.83967	-52
2.84333	-46
2.84700	-41
2.85067	-39
2.85433	-38
2.85800	-37
2.86167	-38
2.86533	-42
2.86900	-47
2.87267	-49
2.87633	-51
2.88000	-52
2.88367	-51
2.88733	-48
2.89100	-44
2.89467	-40
2.89833	-38
2.90200	-39
2.90567	-46
2.90933	-55
2.91300	-63
2.91667	-68
2.92033	-71
2.92400	-73
2.92767	-77
2.93133	-80
2.93500	-80
2.93867	-77
2.94233	-70
2.94600	-64
2.94967	-59
2.95333	-55
2.95700	-57
2.96067	-60
2.96433	-62
2.96800	-59
2.97167	-55
2.97533	-51
2.97900	-49
2.98267	-51
2.98633	-54
2.99000	-57
2.99367	-62
2.99733	-64
3.00100	-64
3.00467	-61
3.00833	-55
3.01200	-48
3.01567	-45
3.01933	-44
3.02300	-45
3.02667	-48
3.03033	-53
3.03400	-59
3.03767	-66
3.04133	-72
3.04500	-74
3.04867	-77
3.05233	-71
3.05600	-65
3.05967	-61
3.06333	-59
3.06700	-60
3.07067	-60
3.07433	-58
3.07800	-57
3.08167	-60
3.08533	-68
3.08900	-73
3.09267	-75
3.09633	-74
3.10000	-73
3.10367	-72
3.10733	-71
3.11100	-67
3.11467	-60
3.11833	-54
3.12200	-50
3.12567	-47
3.12933	-48
3.13300	-54
3.13667	-61
3.14033	-69
3.14400	-75
3.14767	-74
3.15133	-65
3.15500	-54
3.15867	-48
3.16233	-48
3.16600	-51
3.16967	-56
3.17333	-61
3.17700	-62
3.18067	-60
3.18433	-58
3.18800	-57
3.19167	-56
3.19533	-58
3.19900	-61
3.20267	-61
3.20633	-61
3.21000	-62
3.21367	-64
3.21733	-68
3.22100	-90
3.22467	-97
3.22833	-87
3.23200	-77
3.23567	-72
3.23933	-72
3.24300	-72
3.24667	-69
3.25033	-64
3.25400	-57
3.25767	-53
3.26133	-51
3.26500	-54
3.26867	-55
3.27233	-53
3.27600	-52
3.27967	-49
3.28333	-49
3.28700	-48
3.29067	-51
3.29433	-45
3.29800	-43
3.30167	-44
3.30533	-48
3.30900	-54
3.31267	-65
3.31633	-74
3.32000	-77
3.32367	-76
3.32733	-71
3.33100	-67
3.33467	-65
3.33833	-63
3.34200	-62
3.34567	-61
3.34933	-63
3.35300	-65
3.35667	-70
3.36033	-76
3.36400	-80
3.36767	-76
3.37133	-76
3.37500	-79
3.37867	-75
3.38233	-66
3.38600	-62
3.38967	-60
3.39333	-61
3.39700	-62
3.40067	-64
3.40433	-67
3.40800	-69
3.41167	-76
3.41533	-77
3.41900	-74
3.42267	-74
3.42633	-77
3.43000	-75
3.43367	-72
3.43733	-69
3.44100	-66
3.44467	-55
3.44833	-43
3.45200	-37
3.45567	-43
3.45933	-56
3.46300	-66
3.46667	-72
3.47033	-76
3.47400	-80
3.47767	-83
3.48133	-85
3.48500	-87
3.48867	-86
3.49233	-84
3.49600	-84
3.49967	-84
3.50333	-80
3.50700	-78
3.51067	-75
3.51433	-75
3.51800	-74
3.52167	-75
3.52533	-80
3.52900	-73
3.53267	-66
3.53633	-64
3.54000	-67
3.54367	-77
3.54733	-80
3.55100	-76
3.55467	-75
3.55833	-73
3.56200	-74
3.56567	-83
3.56933	-85
3.57300	-85
3.57667	-82
3.58033	-76
3.58400	-68
3.58767	-56
3.59133	-44
3.59500	-42
3.59867	-42
3.60233	-43
3.60600	-42
3.60967	-41
3.61333	-43
3.61700	-50
3.62067	-58
3.62433	-64
3.62800	-68
3.63167	-68
3.63533	-70
3.63900	-73
3.64267	-75
3.64633	-78
3.65000	-80
3.65367	-79
3.65733	-79
3.66100	-76
3.66467	-74
3.66833	-73
3.67200	-73
3.67567	-67
3.67933	-59
3.68300	-63
3.68667	-82
3.69033	-93
3.69400	-98
3.69767	-99
3.70133	-98
3.70500	-91
3.70867	-81
3.71233	-72
3.71600	-67
3.71967	-66
3.72333	-67
3.72700	-63
3.73067	-63
3.73433	-70
3.73800	-78
3.74167	-87
3.74533	-91
3.74900	-93
3.75267	-91
3.75633	-89
3.76000	-86
3.76367	-85
3.76733	-86
3.77100	-84
3.77467	-80
3.77833	-80
3.78200	-83
3.78567	-83
3.78933	-82
3.79300	-81
3.79667	-78
3.80033	-71
3.80400	-65
3.80767	-61
3.81133	-60
3.81500	-65
3.81867	-76
3.82233	-80
3.82600	-85
3.82967	-85
3.83333	-82
3.83700	-78
3.84067	-76
3.84433	-74
3.84800	-66
3.85167	-63
3.85533	-64
3.85900	-65
3.86267	-68
3.86633	-74
3.87000	-81
3.87367	-86
3.87733	-90
3.88100	-91
3.88467	-91
3.88833	-90
3.89200	-90
3.89567	-90
3.89933	-90
3.90300	-90
3.90667	-93
3.91033	-90
3.91400	-90
3.91767	-92
3.92133	-92
3.92500	-93
3.92867	-94
3.93233	-91
3.93600	-85
3.93967	-78
3.94333	-71
3.94700	-62
3.95067	-54
3.95433	-50
3.95800	-52
3.96167	-63
3.96533	-75
3.96900	-85
3.97267	-94
3.97633	-101
3.98000	-107
3.98367	-101
3.98733	-93
3.99100	-82
3.99467	-73
3.99833	-70

[Chromatogram (Ch2)]
Interval(msec)	220
# of Points	1091
Start Time(min)	0.002
End Time(min)	3.998
R.Time (min)	Intensity
0.00167	0
0.00533	0
0.00900	0
0.01267	1
0.01633	0
0.02000	0
0.02367	1
0.02733	1
0.03100	1
0.03467	1
0.03833	1
0.04200	1
0.04567	1
0.04933	1
0.05300	1
0.05667	1
0.06033	1
0.06400	1
0.06767	0
0.07133	0
0.07500	-0
0.07867	-1
0.08233	-1
0.08600	-1
0.08967	-1
0.09333	-1
0.09700	-0
0.10067	0
0.10433	0
0.10800	1
0.11167	1
0.11533	2
0.11900	2
0.12267	2
0.12633	2
0.13000	2
0.13367	2
0.13733	3
0.14100	3
0.14467	3
0.14833	3
0.15200	3
0.15567	3
0.15933	3
0.16300	3
0.16667	3
0.17033	3
0.17400	2
0.17767	2
0.18133	2
0.18500	2
0.18867	2
0.19233	1
0.19600	1
0.19967	1
0.20333	1
0.20700	1
0.21067	0
0.21433	0
0.21800	0
0.22167	0
0.22533	0
0.22900	-0
0.23267	-1
0.23633	-1
0.24000	-1
0.24367	-2
0.24733	-2
0.25100	-2
0.25467	-2
0.25833	-2
0.26200	-2
0.26567	-1
0.26933	-1
0.27300	-1
0.27667	-1
0.28033	-1
0.28400	-0
0.28767	-0
0.29133	-0
0.29500	-0
0.29867	-0
0.30233	-0
0.30600	-0
0.30967	-0
0.31333	-0
0.31700	-0
0.32067	-0
0.32433	0
0.32800	0
0.33167	0
0.33533	1
0.33900	1
0.34267	1
0.34633	1
0.35000	2
0.35367	2
0.35733	2
0.36100	1
0.36467	1
0.36833	1
0.37200	1
0.37567	1
0.37933	1
0.38300	1
0.38667	1
0.39033	1
0.39400	2
0.39767	2
0.40133	2
0.40500	2
0.40867	2
0.41233	2
0.41600	1
0.41967	1
0.42333	1
0.42700	0
0.43067	-0
0.43433	-1
0.43800	-1
0.44167	-1
0.44533	-2
0.44900	-2
0.45267	-2
0.45633	-2
0.46000	-2
0.46367	-2
0.46733	-2
0.47100	-2
0.47467	-2
0.47833	-2
0.48200	-1
0.48567	-1
0.48933	-1
0.49300	-0
0.49667	1
0.50033	1
0.50400	2
0.50767	3
0.51133	3
0.51500	3
0.51867	4
0.52233	4
0.52600	5
0.52967	5
0.53333	5
0.53700	5
0.54067	5
0.54433	5
0.54800	6
0.55167	6
0.55533	5
0.55900	5
0.56267	5
0.56633	5
0.57000	5
0.57367	4
0.57733	4
0.58100	3
0.58467	3
0.58833	3
0.59200	3
0.59567	2
0.59933	2
0.60300	2
0.60667	2
0.61033	2
0.61400	1
0.61767	1
0.62133	1
0.62500	1
0.62867	1
0.63233	1
0.63600	1
0.63967	2
0.64333	2
0.64700	2
0.65067	2
0.65433	2
0.65800	1
0.66167	1
0.66533	1
0.66900	1
0.67267	1
0.67633	1
0.68000	2
0.68367	2
0.68733	2
0.69100	2
0.69467	3
0.69833	3
0.70200	3
0.70567	3
0.70933	3
0.71300	3
0.71667	3
0.72033	3
0.72400	3
0.72767	2
0.73133	2
0.73500	2
0.73867	2
0.74233	2
0.74600	2
0.74967	2
0.75333	2
0.75700	2
0.76067	2
0.76433	2
0.76800	2
0.77167	2
0.77533	2
0.77900	1
0.78267	1
0.78633	1
0.79000	1
0.79367	1
0.79733	1
0.80100	0
0.80467	0
0.80833	-0
0.81200	-0
0.81567	-0
0.81933	-0
0.82300	-0
0.82667	-0
0.83033	-0
0.83400	-1
0.83767	-1
0.84133	-1
0.84500	-1
0.84867	-1
0.85233	-1
0.85600	-2
0.85967	-2
0.86333	-2
0.86700	-2
0.87067	-2
0.87433	-3
0.87800	-3
0.88167	-3
0.88533	-4
0.88900	-4
0.89267	-4
0.89633	-4
0.90000	-4
0.90367	-4
0.90733	-4
0.91100	-4
0.91467	-4
0.91833	-3
0.92200	-3
0.92567	-2
0.92933	-1
0.93300	-1
0.93667	-0
0.94033	0
0.94400	1
0.94767	1
0.95133	1
0.95500	1
0.95867	1
0.96233	1
0.96600	1
0.96967	0
0.97333	0
0.97700	0
0.98067	1
0.98433	1
0.98800	1
0.99167	1
0.99533	1
0.99900	2
1.00267	2
1.00633	2
1.01000	2
1.01367	2
1.01733	2
1.02100	2
1.02467	2
1.02833	2
1.03200	2
1.03567	2
1.03933	2
1.04300	2
1.04667	2
1.05033	2
1.05400	2
1.05767	2
1.06133	3
1.06500	3
1.06867	2
1.07233	2
1.07600	2
1.07967	2
1.08333	2
1.08700	2
1.09067	1
1.09433	1
1.09800	1
1.10167	1
1.10533	1
1.10900	1
1.11267	1
1.11633	1
1.12000	1
1.12367	1
1.12733	1
1.13100	1
1.13467	1
1.13833	1
1.14200	1
1.14567	1
1.14933	1
1.15300	1
1.15667	1
1.16033	1
1.16400	1
1.16767	1
1.17133	1
1.17500	1
1.17867	1
1.18233	1
1.18600	1
1.18967	1
1.19333	1
1.19700	1
1.20067	1
1.20433	1
1.20800	1
1.21167	1
1.21533	1
1.21900	1
1.22267	0
1.22633	0
1.23000	0
1.23367	0
1.23733	0
1.24100	0
1.24467	0
1.24833	0
1.25200	0
1.25567	0
1.25933	0
1.26300	0
1.26667	-0
1.27033	-0
1.27400	-0
1.27767	-0
1.28133	-0
1.28500	-0
1.28867	-0
1.29233	-1
1.29600	-1
1.29967	-1
1.30333	-1
1.30700	-2
1.31067	-2
1.31433	-2
1.31800	-3
1.32167	-3
1.32533	-3
1.32900	-3
1.33267	-3
1.33633	-3
1.34000	-3
1.34367	-4
1.34733	-4
1.35100	-4
1.35467	-4
1.35833	-4
1.36200	-4
1.36567	-4
1.36933	-4
1.37300	-4
1.37667	-4
1.38033	-4
1.38400	-5
1.38767	-5
1.39133	-5
1.39500	-5
1.39867	-5
1.40233	-5
1.40600	-4
1.40967	-4
1.41333	-4
1.41700	-4
1.42067	-4
1.42433	-4
1.42800	-3
1.43167	-3
1.43533	-3
1.43900	-2
1.44267	-2
1.44633	-1
1.45000	-1
1.45367	-1
1.45733	-1
1.46100	-0
1.46467	-1
1.46833	-1
1.47200	-1
1.47567	-1
1.47933	-1
1.48300	-1
1.48667	-1
1.49033	-1
1.49400	-1
1.49767	-1
1.50133	-1
1.50500	-1
1.50867	-1
1.51233	-1
1.51600	-1
1.51967	-0
1.52333	-0
1.52700	-0
1.53067	0
1.53433	0
1.53800	1
1.54167	1
1.54533	2
1.54900	2
1.55267	2
1.55633	2
1.56000	2
1.56367	2
1.56733	2
1.57100	2
1.57467	2
1.57833	2
1.58200	1
1.58567	1
1.58933	0
1.59300	-0
1.59667	-1
1.60033	-1
1.60400	-2
1.60767	-3
1.61133	-5
1.61500	-6
1.61867	-9
1.62233	-11
1.62600	-14
1.62967	-16
1.63333	-20
1.63700	-23
1.64067	-26
1.64433	-30
1.64800	-34
1.65167	-38
1.65533	-41
1.65900	-46
1.66267	-50
1.66633	-55
1.67000	-60
1.67367	-66
1.67733	-71
1.68100	-77
1.68467	-82
1.68833	-87
1.69200	-91
1.69567	-95
1.69933	-97
1.70300	-100
1.70667	-102
1.71033	-104
1.71400	-105
1.71767	-107
1.72133	-108
1.72500	-110
1.72867	-111
1.73233	-112
1.73600	-113
1.73967	-114
1.74333	-114
1.74700	-114
1.75067	-114
1.75433	-114
1.75800	-114
1.76167	-114
1.76533	-114
1.76900	-115
1.77267	-116
1.77633	-118
1.78000	-119
1.78367	-120
1.78733	-120
1.79100	-120
1.79467	-120
1.79833	-121
1.80200	-121
1.80567	-120
1.80933	-120
1.81300	-119
1.81667	-119
1.82033	-119
1.82400	-119
1.82767	-119
1.83133	-119
1.83500	-120
1.83867	-120
1.84233	-120
1.84600	-120
1.84967	-120
1.85333	-119
1.85700	-119
1.86067	-119
1.86433	-118
1.86800	-118
1.87167	-118
1.87533	-118
1.87900	-119
1.88267	-119
1.88633	-120
1.89000	-120
1.89367	-120
1.89733	-120
1.90100	-120
1.90467	-120
1.90833	-120
1.91200	-120
1.91567	-119
1.91933	-119
1.92300	-118
1.92667	-118
1.93033	-118
1.93400	-118
1.93767	-117
1.94133	-117
1.94500	-117
1.94867	-116
1.95233	-116
1.95600	-116
1.95967	-115
1.96333	-115
1.96700	-115
1.97067	-115
1.97433	-115
1.97800	-115
1.98167	-114
1.98533	-114
1.98900	-114
1.99267	-113
1.99633	-113
2.00000	-113
2.00367	-113
2.00733	-113
2.01100	-114
2.01467	-114
2.01833	-113
2.02200	-113
2.02567	-112
2.02933	-112
2.03300	-111
2.03667	-111
2.04033	-110
2.04400	-110
2.04767	-110
2.05133	-109
2.05500	-109
2.05867	-109
2.06233	-109
2.06600	-109
2.06967	-109
2.07333	-108
2.07700	-108
2.08067	-108
2.08433	-107
2.08800	-107
2.09167	-106
2.09533	-106
2.09900	-105
2.10267	-105
2.10633	-104
2.11000	-104
2.11367	-104
2.11733	-103
2.12100	-103
2.12467	-103
2.12833	-102
2.13200	-102
2.13567	-102
2.13933	-101
2.14300	-101
2.14667	-100
2.15033	-100
2.15400	-100
2.15767	-100
2.16133	-101
2.16500	-101
2.16867	-100
2.17233	-100
2.17600	-99
2.17967	-99
2.18333	-98
2.18700	-97
2.19067	-97
2.19433	-97
2.19800	-96
2.20167	-96
2.20533	-96
2.20900	-96
2.21267	-96
2.21633	-97
2.22000	-97
2.22367	-96
2.22733	-96
2.23100	-95
2.23467	-94
2.23833	-93
2.24200	-93
2.24567	-93
2.24933	-93
2.25300	-93
2.25667	-93
2.26033	-93
2.26400	-94
2.26767	-94
2.27133	-94
2.27500	-94
2.27867	-94
2.28233	-94
2.28600	-94
2.28967	-93
2.29333	-93
2.29700	-92
2.30067	-91
2.30433	-90
2.30800	-90
2.31167	-89
2.31533	-89
2.31900	-89
2.32267	-89
2.32633	-89
2.33000	-89
2.33367	-89
2.33733	-89
2.34100	-89
2.34467	-88
2.34833	-88
2.35200	-87
2.35567	-86
2.35933	-85
2.36300	-84
2.36667	-82
2.37033	-80
2.37400	-78
2.37767	-75
2.38133	-72
2.38500	-68
2.38867	-63
2.39233	-59
2.39600	-54
2.39967	-49
2.40333	-44
2.40700	-40
2.41067	-35
2.41433	-32
2.41800	-28
2.42167	-25
2.42533	-22
2.42900	-20
2.43267	-17
2.43633	-15
2.44000	-13
2.44367	-11
2.44733	-9
2.45100	-7
2.45467	-5
2.45833	-4
2.46200	-2
2.46567	-1
2.46933	0
2.47300	1
2.47667	2
2.48033	4
2.48400	5
2.48767	6
2.49133	7
2.49500	8
2.49867	8
2.50233	9
2.50600	9
2.50967	9
2.51333	10
2.51700	10
2.52067	11
2.52433	11
2.52800	11
2.53167	12
2.53533	12
2.53900	13
2.54267	13
2.54633	14
2.55000	15
2.55367	15
2.55733	15
2.56100	16
2.56467	16
2.56833	16
2.57200	16
2.57567	16
2.57933	16
2.58300	16
2.58667	17
2.59033	17
2.59400	17
2.59767	18
2.60133	18
2.60500	18
2.60867	19
2.61233	19
2.61600	19
2.61967	20
2.62333	20
2.62700	21
2.63067	21
2.63433	21
2.63800	20
2.64167	20
2.64533	20
2.64900	20
2.65267	20
2.65633	20
2.66000	20
2.66367	20
2.66733	20
2.67100	21
2.67467	21
2.67833	22
2.68200	22
2.68567	22
2.68933	23
2.69300	23
2.69667	24
2.70033	25
2.70400	25
2.70767	25
2.71133	25
2.71500	25
2.71867	25
2.72233	25
2.72600	25
2.72967	25
2.73333	25
2.73700	25
2.74067	25
2.74433	26
2.74800	26
2.75167	26
2.75533	26
2.75900	26
2.76267	26
2.76633	27
2.77000	27
2.77367	27
2.77733	27
2.78100	26
2.78467	26
2.78833	25
2.79200	25
2.79567	24
2.79933	24
2.80300	24
2.80667	23
2.81033	24
2.81400	24
2.81767	24
2.82133	25
2.82500	25
2.82867	26
2.83233	26
2.83600	26
2.83967	25
2.84333	22
2.84700	18
2.85067	11
2.85433	1
2.85800	-14
2.86167	-34
2.86533	-58
2.86900	-88
2.87267	-123
2.87633	-163
2.88000	-209
2.88367	-259
2.88733	-314
2.89100	-373
2.89467	-436
2.89833	-503
2.90200	-573
2.90567	-646
2.90933	-721
2.91300	-798
2.91667	-878
2.92033	-960
2.92400	-1043
2.92767	-1128
2.93133	-1214
2.93500	-1302
2.93867	-1389
2.94233	-1465
2.94600	-1518
2.94967	-1539
2.95333	-1524
2.95700	-1475
2.96067	-1400
2.96433	-1305
2.96800	-1199
2.97167	-1088
2.97533	-976
2.97900	-868
2.98267	-767
2.98633	-672
2.99000	-586
2.99367	-509
2.99733	-440
3.00100	-378
3.00467	-325
3.00833	-278
3.01200	-237
3.01567	-202
3.01933	-171
3.02300	-145
3.02667	-122
3.03033	-103
3.03400	-87
3.03767	-73
3.04133	-60
3.04500	-50
3.04867	-41
3.05233	-34
3.05600	-27
3.05967	-22
3.06333	-17
3.06700	-13
3.07067	-9
3.07433	-6
3.07800	-4
3.08167	-2
3.08533	0
3.08900	2
3.09267	4
3.09633	5
3.10000	6
3.10367	7
3.10733	9
3.11100	10
3.11467	11
3.11833	12
3.12200	13
3.12567	13
3.12933	14
3.13300	15
3.13667	15
3.14033	15
3.14400	15
3.14767	15
3.15133	15
3.15500	15
3.15867	15
3.16233	16
3.16600	16
3.16967	16
3.17333	16
3.17700	17
3.18067	17
3.18433	17
3.18800	17
3.19167	18
3.19533	18
3.19900	18
3.20267	19
3.20633	19
3.21000	20
3.21367	20
3.21733	20
3.22100	20
3.22467	20
3.22833	20
3.23200	21
3.23567	21
3.23933	21
3.24300	21
3.24667	21
3.25033	21
3.25400	21
3.25767	21
3.26133	21
3.26500	21
3.26867	21
3.27233	22
3.27600	22
3.27967	22
3.28333	23
3.28700	23
3.29067	24
3.29433	24
3.29800	24
3.30167	24
3.30533	24
3.30900	24
3.31267	24
3.31633	24
3.32000	24
3.32367	24
3.32733	25
3.33100	25
3.33467	25
3.33833	25
3.34200	25
3.34567	25
3.34933	25
3.35300	26
3.35667	26
3.36033	26
3.36400	27
3.36767	27
3.37133	27
3.37500	27
3.37867	27
3.38233	27
3.38600	28
3.38967	28
3.39333	28
3.39700	28
3.40067	29
3.40433	29
3.40800	29
3.41167	29
3.41533	29
3.41900	29
3.42267	29
3.42633	29
3.43000	29
3.43367	29
3.43733	29
3.44100	29
3.44467	29
3.44833	29
3.45200	29
3.45567	29
3.45933	29
3.46300	29
3.46667	29
3.47033	29
3.47400	29
3.47767	29
3.48133	29
3.48500	29
3.48867	29
3.49233	29
3.49600	29
3.49967	29
3.50333	29
3.50700	28
3.51067	28
3.51433	28
3.51800	28
3.52167	28
3.52533	28
3.52900	28
3.53267	28
3.53633	28
3.54000	29
3.54367	29
3.54733	29
3.55100	29
3.55467	29
3.55833	29
3.56200	29
3.56567	30
3.56933	30
3.57300	30
3.57667	30
3.58033	30
3.58400	30
3.58767	29
3.59133	29
3.59500	29
3.59867	29
3.60233	29
3.60600	28
3.60967	28
3.61333	28
3.61700	28
3.62067	28
3.62433	28
3.62800	27
3.63167	27
3.63533	27
3.63900	27
3.64267	27
3.64633	27
3.65000	27
3.65367	27
3.65733	27
3.66100	27
3.66467	27
3.66833	27
3.67200	28
3.67567	28
3.67933	28
3.68300	28
3.68667	28
3.69033	27
3.69400	27
3.69767	27
3.70133	27
3.70500	27
3.70867	27
3.71233	27
3.71600	27
3.71967	27
3.72333	27
3.72700	27
3.73067	27
3.73433	27
3.73800	27
3.74167	27
3.74533	27
3.74900	27
3.75267	27
3.75633	27
3.76000	27
3.76367	27
3.76733	26
3.77100	26
3.77467	26
3.77833	26
3.78200	26
3.78567	26
3.78933	26
3.79300	26
3.79667	26
3.80033	26
3.80400	26
3.80767	26
3.81133	26
3.81500	26
3.81867	26
3.82233	27
3.82600	26
3.82967	26
3.83333	26
3.83700	26
3.84067	26
3.84433	26
3.84800	27
3.85167	27
3.85533	27
3.85900	28
3.86267	28
3.86633	28
3.87000	28
3.87367	28
3.87733	28
3.88100	28
3.88467	28
3.88833	29
3.89200	29
3.89567	29
3.89933	29
3.90300	30
3.90667	30
3.91033	30
3.91400	30
3.91767	30
3.92133	30
3.92500	30
3.92867	30
3.93233	30
3.93600	30
3.93967	30
3.94333	30
3.94700	31
3.95067	31
3.95433	31
3.95800	31
3.96167	31
3.96533	31
3.96900	30
3.97267	30
3.97633	30
3.98000	29
3.98367	29
3.98733	29
3.99100	29
3.99467	29
3.99833	28

[Chromatogram (Ch3)]
Interval(msec)	220
# of Points	1091
Start Time(min)	0.002
End Time(min)	3.998
R.Time (min)	Intensity
0.00167	0
0.00533	0
0.00900	1
0.01267	2
0.01633	4
0.02000	6
0.02367	7
0.02733	6
0.03100	6
0.03467	7
0.03833	7
0.04200	7
0.04567	7
0.04933	6
0.05300	5
0.05667	5
0.06033	5
0.06400	5
0.06767	4
0.07133	4
0.07500	4
0.07867	6
0.08233	7
0.08600	8
0.08967	9
0.09333	8
0.09700	5
0.10067	5
0.10433	6
0.10800	6
0.11167	5
0.11533	3
0.11900	1
0.12267	0
0.12633	1
0.13000	3
0.13367	4
0.13733	3
0.14100	1
0.14467	1
0.14833	2
0.15200	2
0.15567	2
0.15933	2
0.16300	2
0.16667	2
0.17033	2
0.17400	2
0.17767	2
0.18133	1
0.18500	2
0.18867	1
0.19233	1
0.19600	2
0.19967	4
0.20333	3
0.20700	2
0.21067	2
0.21433	0
0.21800	0
0.22167	1
0.22533	1
0.22900	0
0.23267	1
0.23633	3
0.24000	3
0.24367	0
0.24733	2
0.25100	4
0.25467	4
0.25833	4
0.26200	4
0.26567	3
0.26933	1
0.27300	0
0.27667	-0
0.28033	-1
0.28400	-2
0.28767	-1
0.29133	0
0.29500	2
0.29867	3
0.30233	3
0.30600	4
0.30967	6
0.31333	6
0.31700	7
0.32067	7
0.32433	6
0.32800	6
0.33167	5
0.33533	3
0.33900	2
0.34267	2
0.34633	1
0.35000	2
0.35367	4
0.35733	2
0.36100	0
0.36467	1
0.36833	2
0.37200	3
0.37567	3
0.37933	4
0.38300	2
0.38667	0
0.39033	1
0.39400	2
0.39767	4
0.40133	5
0.40500	6
0.40867	5
0.41233	4
0.41600	3
0.41967	4
0.42333	4
0.42700	4
0.43067	4
0.43433	3
0.43800	3
0.44167	2
0.44533	1
0.44900	2
0.45267	3
0.45633	3
0.46000	4
0.46367	3
0.46733	4
0.47100	5
0.47467	5
0.47833	3
0.48200	1
0.48567	-0
0.48933	-0
0.49300	1
0.49667	3
0.50033	4
0.50400	4
0.50767	4
0.51133	5
0.51500	7
0.51867	7
0.52233	5
0.52600	4
0.52967	3
0.53333	1
0.53700	0
0.54067	1
0.54433	1
0.54800	3
0.55167	7
0.55533	9
0.55900	11
0.56267	10
0.56633	7
0.57000	6
0.57367	6
0.57733	5
0.58100	5
0.58467	3
0.58833	0
0.59200	-0
0.59567	0
0.59933	3
0.60300	4
0.60667	2
0.61033	1
0.61400	2
0.61767	3
0.62133	4
0.62500	5
0.62867	7
0.63233	7
0.63600	7
0.63967	7
0.64333	5
0.64700	3
0.65067	2
0.65433	1
0.65800	-0
0.66167	-0
0.66533	0
0.66900	1
0.67267	2
0.67633	4
0.68000	6
0.68367	6
0.68733	4
0.69100	4
0.69467	4
0.69833	3
0.70200	4
0.70567	6
0.70933	6
0.71300	3
0.71667	3
0.72033	3
0.72400	3
0.72767	3
0.73133	5
0.73500	6
0.73867	6
0.74233	4
0.74600	2
0.74967	2
0.75333	1
0.75700	0
0.76067	0
0.76433	0
0.76800	1
0.77167	0
0.77533	-0
0.77900	1
0.78267	1
0.78633	1
0.79000	3
0.79367	4
0.79733	3
0.80100	2
0.80467	3
0.80833	5
0.81200	4
0.81567	4
0.81933	5
0.82300	4
0.82667	5
0.83033	7
0.83400	7
0.83767	8
0.84133	9
0.84500	7
0.84867	5
0.85233	2
0.85600	1
0.85967	1
0.86333	2
0.86700	6
0.87067	9
0.87433	10
0.87800	9
0.88167	8
0.88533	6
0.88900	5
0.89267	4
0.89633	3
0.90000	-1
0.90367	-2
0.90733	-1
0.91100	1
0.91467	3
0.91833	3
0.92200	3
0.92567	2
0.92933	2
0.93300	1
0.93667	1
0.94033	1
0.94400	-1
0.94767	-1
0.95133	-0
0.95500	2
0.95867	3
0.96233	4
0.96600	5
0.96967	6
0.97333	5
0.97700	5
0.98067	5
0.98433	4
0.98800	4
0.99167	4
0.99533	2
0.99900	-0
1.00267	-2
1.00633	0
1.01000	2
1.01367	2
1.01733	1
1.02100	2
1.02467	4
1.02833	3
1.03200	2
1.03567	-0
1.03933	-4
1.04300	-4
1.04667	-0
1.05033	2
1.05400	2
1.05767	2
1.06133	3
1.06500	4
1.06867	3
1.07233	3
1.07600	4
1.07967	5
1.08333	7
1.08700	7
1.09067	6
1.09433	7
1.09800	6
1.10167	5
1.10533	5
1.10900	6
1.11267	8
1.11633	9
1.12000	8
1.12367	5
1.12733	3
1.13100	3
1.13467	3
1.13833	2
1.14200	1
1.14567	1
1.14933	-0
1.15300	-1
1.15667	-1
1.16033	1
1.16400	4
1.16767	6
1.17133	6
1.17500	4
1.17867	4
1.18233	4
1.18600	5
1.18967	6
1.19333	3
1.19700	1
1.20067	-1
1.20433	-1
1.20800	0
1.21167	-0
1.21533	-1
1.21900	-0
1.22267	-1
1.22633	-1
1.23000	-0
1.23367	1
1.23733	-0
1.24100	-1
1.24467	0
1.24833	2
1.25200	2
1.25567	3
1.25933	1
1.26300	-0
1.26667	-0
1.27033	-1
1.27400	0
1.27767	2
1.28133	4
1.28500	6
1.28867	6
1.29233	5
1.29600	4
1.29967	2
1.30333	1
1.30700	0
1.31067	0
1.31433	0
1.31800	-1
1.32167	-2
1.32533	-3
1.32900	-6
1.33267	-8
1.33633	-8
1.34000	-7
1.34367	-5
1.34733	-3
1.35100	-1
1.35467	0
1.35833	-0
1.36200	-1
1.36567	1
1.36933	1
1.37300	1
1.37667	2
1.38033	1
1.38400	0
1.38767	1
1.39133	2
1.39500	3
1.39867	4
1.40233	6
1.40600	6
1.40967	6
1.41333	6
1.41700	7
1.42067	7
1.42433	6
1.42800	5
1.43167	5
1.43533	6
1.43900	8
1.44267	9
1.44633	9
1.45000	10
1.45367	10
1.45733	9
1.46100	7
1.46467	8
1.46833	9
1.47200	10
1.47567	10
1.47933	10
1.48300	7
1.48667	5
1.49033	4
1.49400	2
1.49767	1
1.50133	1
1.50500	2
1.50867	3
1.51233	5
1.51600	5
1.51967	5
1.52333	5
1.52700	4
1.53067	2
1.53433	2
1.53800	2
1.54167	3
1.54533	3
1.54900	3
1.55267	4
1.55633	6
1.56000	7
1.56367	7
1.56733	8
1.57100	7
1.57467	5
1.57833	3
1.58200	1
1.58567	2
1.58933	3
1.59300	4
1.59667	5
1.60033	8
1.60400	9
1.60767	8
1.61133	7
1.61500	6
1.61867	8
1.62233	8
1.62600	9
1.62967	11
1.63333	15
1.63700	15
1.64067	13
1.64433	13
1.64800	13
1.65167	13
1.65533	13
1.65900	13
1.66267	11
1.66633	9
1.67000	8
1.67367	7
1.67733	9
1.68100	11
1.68467	12
1.68833	13
1.69200	15
1.69567	14
1.69933	13
1.70300	13
1.70667	12
1.71033	11
1.71400	11
1.71767	12
1.72133	11
1.72500	11
1.72867	11
1.73233	12
1.73600	13
1.73967	13
1.74333	12
1.74700	12
1.75067	12
1.75433	12
1.75800	11
1.76167	11
1.76533	14
1.76900	16
1.77267	16
1.77633	15
1.78000	15
1.78367	13
1.78733	13
1.79100	14
1.79467	15
1.79833	15
1.80200	14
1.80567	13
1.80933	13
1.81300	13
1.81667	17
1.82033	20
1.82400	22
1.82767	23
1.83133	25
1.83500	26
1.83867	26
1.84233	25
1.84600	23
1.84967	21
1.85333	21
1.85700	22
1.86067	25
1.86433	26
1.86800	28
1.87167	29
1.87533	32
1.87900	31
1.88267	30
1.88633	29
1.89000	29
1.89367	30
1.89733	31
1.90100	32
1.90467	32
1.90833	33
1.91200	34
1.91567	34
1.91933	33
1.92300	34
1.92667	37
1.93033	39
1.93400	41
1.93767	41
1.94133	40
1.94500	41
1.94867	40
1.95233	39
1.95600	36
1.95967	36
1.96333	37
1.96700	37
1.97067	39
1.97433	41
1.97800	43
1.98167	44
1.98533	45
1.98900	47
1.99267	48
1.99633	48
2.00000	46
2.00367	46
2.00733	46
2.01100	46
2.01467	49
2.01833	51
2.02200	52
2.02567	51
2.02933	50
2.03300	49
2.03667	47
2.04033	48
2.04400	52
2.04767	55
2.05133	57
2.05500	58
2.05867	59
2.06233	58
2.06600	59
2.06967	59
2.07333	60
2.07700	63
2.08067	63
2.08433	64
2.08800	64
2.09167	65
2.09533	69
2.09900	72
2.10267	70
2.10633	69
2.11000	70
2.11367	70
2.11733	69
2.12100	68
2.12467	69
2.12833	70
2.13200	73
2.13567	77
2.13933	79
2.14300	78
2.14667	78
2.15033	77
2.15400	77
2.15767	79
2.16133	82
2.16500	84
2.16867	85
2.17233	85
2.17600	86
2.17967	87
2.18333	90
2.18700	92
2.19067	90
2.19433	89
2.19800	89
2.20167	88
2.20533	91
2.20900	93
2.21267	94
2.21633	95
2.22000	97
2.22367	99
2.22733	99
2.23100	100
2.23467	101
2.23833	102
2.24200	103
2.24567	103
2.24933	105
2.25300	105
2.25667	108
2.26033	110
2.26400	110
2.26767	109
2.27133	110
2.27500	112
2.27867	112
2.28233	110
2.28600	110
2.28967	112
2.29333	114
2.29700	114
2.30067	116
2.30433	118
2.30800	120
2.31167	120
2.31533	122
2.31900	124
2.32267	124
2.32633	123
2.33000	122
2.33367	121
2.33733	123
2.34100	125
2.34467	125
2.34833	124
2.35200	123
2.35567	126
2.35933	128
2.36300	129
2.36667	129
2.37033	127
2.37400	126
2.37767	127
2.38133	127
2.38500	124
2.38867	116
2.39233	113
2.39600	115
2.39967	122
2.40333	133
2.40700	144
2.41067	154
2.41433	163
2.41800	173
2.42167	180
2.42533	188
2.42900	194
2.43267	198
2.43633	200
2.44000	201
2.44367	202
2.44733	201
2.45100	200
2.45467	201
2.45833	202
2.46200	203
2.46567	201
2.46933	199
2.47300	197
2.47667	194
2.48033	191
2.48400	187
2.48767	182
2.49133	180
2.49500	177
2.49867	173
2.50233	169
2.50600	165
2.50967	161
2.51333	157
2.51700	152
2.52067	146
2.52433	141
2.52800	134
2.53167	128
2.53533	123
2.53900	118
2.54267	111
2.54633	105
2.55000	98
2.55367	93
2.55733	87
2.56100	84
2.56467	83
2.56833	78
2.57200	72
2.57567	67
2.57933	61
2.58300	59
2.58667	56
2.59033	48
2.59400	38
2.59767	22
2.60133	-1
2.60500	-28
2.60867	-61
2.61233	-99
2.61600	-138
2.61967	-176
2.62333	-209
2.62700	-237
2.63067	-264
2.63433	-286
2.63800	-301
2.64167	-310
2.64533	-316
2.64900	-321
2.65267	-322
2.65633	-323
2.66000	-322
2.66367	-320
2.66733	-318
2.67100	-314
2.67467	-310
2.67833	-306
2.68200	-304
2.68567	-299
2.68933	-295
2.69300	-294
2.69667	-291
2.70033	-287
2.70400	-285
2.70767	-283
2.71133	-281
2.71500	-277
2.71867	-270
2.72233	-263
2.72600	-259
2.72967	-253
2.73333	-248
2.73700	-245
2.74067	-242
2.74433	-238
2.74800	-234
2.75167	-231
2.75533	-229
2.75900	-224
2.76267	-218
2.76633	-215
2.77000	-213
2.77367	-208
2.77733	-201
2.78100	-196
2.78467	-193
2.78833	-190
2.79200	-188
2.79567	-187
2.79933	-184
2.80300	-181
2.80667	-177
2.81033	-170
2.81400	-159
2.81767	-135
2.82133	-71
2.82500	71
2.82867	348
2.83233	828
2.83600	1576
2.83967	2634
2.84333	4013
2.84700	5680
2.85067	7560
2.85433	9534
2.85800	11459
2.86167	13184
2.86533	14584
2.86900	15564
2.87267	16089
2.87633	16160
2.88000	15828
2.88367	15170
2.88733	14273
2.89100	13225
2.89467	12103
2.89833	10962
2.90200	9844
2.90567	8780
2.90933	7785
2.91300	6867
2.91667	6031
2.92033	5279
2.92400	4606
2.92767	4009
2.93133	3480
2.93500	3017
2.93867	2608
2.94233	2249
2.94600	1935
2.94967	1662
2.95333	1426
2.95700	1222
2.96067	1045
2.96433	888
2.96800	754
2.97167	641
2.97533	546
2.97900	461
2.98267	387
2.98633	324
2.99000	270
2.99367	224
2.99733	184
3.00100	149
3.00467	120
3.00833	96
3.01200	77
3.01567	61
3.01933	49
3.02300	38
3.02667	28
3.03033	19
3.03400	9
3.03767	4
3.04133	-0
3.04500	-5
3.04867	-8
3.05233	-9
3.05600	-10
3.05967	-10
3.06333	-10
3.06700	-11
3.07067	-11
3.07433	-8
3.07800	-7
3.08167	-7
3.08533	-8
3.08900	-7
3.09267	-4
3.09633	-5
3.10000	-6
3.10367	-3
3.10733	2
3.11100	6
3.11467	10
3.11833	12
3.12200	14
3.12567	14
3.12933	14
3.13300	15
3.13667	18
3.14033	20
3.14400	22
3.14767	25
3.15133	27
3.15500	28
3.15867	28
3.16233	28
3.16600	30
3.16967	35
3.17333	39
3.17700	40
3.18067	41
3.18433	41
3.18800	42
3.19167	44
3.19533	45
3.19900	41
3.20267	40
3.20633	50
3.21000	71
3.21367	104
3.21733	140
3.22100	179
3.22467	222
3.22833	263
3.23200	302
3.23567	341
3.23933	380
3.24300	417
3.24667	453
3.25033	486
3.25400	516
3.25767	546
3.26133	574
3.26500	602
3.26867	627
3.27233	650
3.27600	671
3.27967	692
3.28333	711
3.28700	729
3.29067	746
3.29433	763
3.29800	780
3.30167	797
3.30533	814
3.30900	830
3.31267	844
3.31633	853
3.32000	859
3.32367	867
3.32733	876
3.33100	883
3.33467	888
3.33833	894
3.34200	900
3.34567	906
3.34933	912
3.35300	917
3.35667	919
3.36033	922
3.36400	925
3.36767	927
3.37133	930
3.37500	932
3.37867	934
3.38233	939
3.38600	945
3.38967	950
3.39333	951
3.39700	951
3.40067	949
3.40433	947
3.40800	946
3.41167	947
3.41533	947
3.41900	946
3.42267	946
3.42633	947
3.43000	948
3.43367	951
3.43733	954
3.44100	958
3.44467	962
3.44833	965
3.45200	967
3.45567	968
3.45933	969
3.46300	969
3.46667	970
3.47033	972
3.47400	973
3.47767	976
3.48133	979
3.48500	982
3.48867	984
3.49233	985
3.49600	986
3.49967	987
3.50333	989
3.50700	994
3.51067	998
3.51433	1002
3.51800	1003
3.52167	1002
3.52533	1003
3.52900	1006
3.53267	1009
3.53633	1009
3.54000	1007
3.54367	1008
3.54733	1010
3.55100	1012
3.55467	1014
3.55833	1013
3.56200	1011
3.56567	1009
3.56933	1007
3.57300	1006
3.57667	1005
3.58033	1004
3.58400	1005
3.58767	1005
3.59133	1003
3.59500	1002
3.59867	1006
3.60233	1008
3.60600	1008
3.60967	1008
3.61333	1009
3.61700	1010
3.62067	1009
3.62433	1009
3.62800	1008
3.63167	1007
3.63533	1005
3.63900	1004
3.64267	1001
3.64633	999
3.65000	997
3.65367	995
3.65733	993
3.66100	991
3.66467	989
3.66833	985
3.67200	981
3.67567	978
3.67933	976
3.68300	975
3.68667	973
3.69033	970
3.69400	966
3.69767	961
3.70133	957
3.70500	953
3.70867	948
3.71233	945
3.71600	943
3.71967	941
3.72333	937
3.72700	932
3.73067	927
3.73433	922
3.73800	919
3.74167	915
3.74533	912
3.74900	907
3.75267	901
3.75633	898
3.76000	894
3.76367	891
3.76733	889
3.77100	886
3.77467	882
3.77833	879
3.78200	876
3.78567	872
3.78933	866
3.79300	860
3.79667	856
3.80033	851
3.80400	847
3.80767	844
3.81133	841
3.81500	838
3.81867	834
3.82233	828
3.82600	824
3.82967	821
3.83333	816
3.83700	813
3.84067	810
3.84433	808
3.84800	806
3.85167	802
3.85533	797
3.85900	791
3.86267	786
3.86633	784
3.87000	780
3.87367	773
3.87733	767
3.88100	761
3.88467	754
3.88833	748
3.89200	741
3.89567	738
3.89933	734
3.90300	731
3.90667	730
3.91033	727
3.91400	723
3.91767	721
3.92133	718
3.92500	713
3.92867	707
3.93233	700
3.93600	694
3.93967	688
3.94333	683
3.94700	680
3.95067	676
3.95433	674
3.95800	671
3.96167	668
3.96533	665
3.96900	661
3.97267	658
3.97633	655
3.98000	652
3.98367	648
3.98733	645
3.99100	640
3.99467	632
3.99833	619

[Status Trace (Column Oven Temperature)]
Interval(msec)	1000
# of Points	239
Start Time(min)	0.016
End Time(min)	3.983
Intensity Units	
Intensity Multiplier	1
R.Time (min)	Intensity
0.01610	34.97
0.03277	34.98
0.04943	34.99
0.06610	35.00
0.08277	35.01
0.09943	35.01
0.11610	35.01
0.13277	35.00
0.14943	34.99
0.16610	34.99
0.18277	34.99
0.19943	34.99
0.21610	34.99
0.23277	35.00
0.24943	35.00
0.26610	35.00
0.28277	35.00
0.29943	35.00
0.31610	35.00
0.33277	35.00
0.34943	34.99
0.36610	34.99
0.38277	34.98
0.39943	34.98
0.41610	34.98
0.43277	35.00
0.44943	35.01
0.46610	35.02
0.48277	35.01
0.49943	35.00
0.51610	34.98
0.53277	34.97
0.54943	34.95
0.56610	34.94
0.58277	34.95
0.59943	34.95
0.61610	34.96
0.63277	34.97
0.64943	34.97
0.66610	34.98
0.68277	34.97
0.69943	34.97
0.71610	34.97
0.73277	34.96
0.74943	34.95
0.76610	34.95
0.78277	34.95
0.79943	34.95
0.81610	34.96
0.83277	34.96
0.84943	34.98
0.86610	34.99
0.88277	35.01
0.89943	35.02
0.91610	35.02
0.93277	35.02
0.94943	35.01
0.96610	35.02
0.98277	35.01
0.99943	35.01
1.01610	35.00
1.03277	34.98
1.04943	34.97
1.06610	34.96
1.08277	34.97
1.09943	34.96
1.11610	34.96
1.13277	34.96
1.14943	34.95
1.16610	34.95
1.18277	34.96
1.19943	34.96
1.21610	34.95
1.23277	34.96
1.24943	34.97
1.26610	34.97
1.28277	34.98
1.29943	34.98
1.31610	34.99
1.33277	34.99
1.34943	35.01
1.36610	35.02
1.38277	35.03
1.39943	35.04
1.41610	35.04
1.43277	35.04
1.44943	35.03
1.46610	35.02
1.48277	35.02
1.49943	35.02
1.51610	35.02
1.53277	35.01
1.54943	34.99
1.56610	34.98
1.58277	34.98
1.59943	35.01
1.61610	35.09
1.63277	35.24
1.64943	35.45
1.66610	35.76
1.68277	36.13
1.69943	36.49
1.71610	36.83
1.73277	37.18
1.74943	37.49
1.76610	37.82
1.78277	38.17
1.79943	38.50
1.81610	38.81
1.83277	39.15
1.84943	39.48
1.86610	39.80
1.88277	40.14
1.89943	40.48
1.91610	40.79
1.93277	41.11
1.94943	41.45
1.96610	41.77
1.98277	42.09
1.99943	42.42
2.01610	42.74
2.03277	43.06
2.04943	43.38
2.06610	43.71
2.08277	44.04
2.09943	44.35
2.11610	44.69
2.13277	44.99
2.14943	45.33
2.16610	45.67
2.18277	46.00
2.19943	46.32
2.21610	46.66
2.23277	46.98
2.24943	47.31
2.26610	47.66
2.28277	47.99
2.29943	48.32
2.31610	48.64
2.33277	49.00
2.34943	49.32
2.36610	49.53
2.38277	49.61
2.39943	49.62
2.41610	49.63
2.43277	49.63
2.44943	49.64
2.46610	49.67
2.48277	49.67
2.49943	49.68
2.51610	49.69
2.53277	49.71
2.54943	49.73
2.56610	49.75
2.58277	49.76
2.59943	49.79
2.61610	49.80
2.63277	49.82
2.64943	49.84
2.66610	49.85
2.68277	49.85
2.69943	49.84
2.71610	49.86
2.73277	49.86
2.74943	49.85
2.76610	49.85
2.78277	49.89
2.79943	49.90
2.81610	49.92
2.83277	49.90
2.84943	49.90
2.86610	49.91
2.88277	49.93
2.89943	49.93
2.91610	49.95
2.93277	49.94
2.94943	49.94
2.96610	49.94
2.98277	49.95
2.99943	49.95
3.01610	49.96
3.03277	49.97
3.04943	49.97
3.06610	49.98
3.08277	49.99
3.09943	50.00
3.11610	50.00
3.13277	50.01
3.14943	50.02
3.16610	50.02
3.18277	50.03
3.19943	50.04
3.21610	50.05
3.23277	50.06
3.24943	50.08
3.26610	50.09
3.28277	50.10
3.29943	50.10
3.31610	50.10
3.33277	50.11
3.34943	50.11
3.36610	50.10
3.38277	50.09
3.39943	50.08
3.41610	50.07
3.43277	50.06
3.44943	50.06
3.46610	50.06
3.48277	50.05
3.49943	50.05
3.51610	50.05
3.53277	50.04
3.54943	50.04
3.56610	50.03
3.58277	50.02
3.59943	50.03
3.61610	50.04
3.63277	50.04
3.64943	50.04
3.66610	50.05
3.68277	50.05
3.69943	50.05
3.71610	50.05
3.73277	50.07
3.74943	50.08
3.76610	50.08
3.78277	50.09
3.79943	50.10
3.81610	50.10
3.83277	50.10
3.84943	50.09
3.86610	50.08
3.88277	50.06
3.89943	50.05
3.91610	50.05
3.93277	50.04
3.94943	50.03
3.96610	50.02
3.98277	50.03

[Status Trace (Injection Unit Temperature)]
Interval(msec)	1000
# of Points	239
Start Time(min)	0.016
End Time(min)	3.983
Intensity Units	
Intensity Multiplier	1
R.Time (min)	Intensity
0.01610	99.98
0.03277	99.98
0.04943	99.98
0.06610	99.98
0.08277	99.98
0.09943	99.98
0.11610	99.98
0.13277	99.98
0.14943	99.98
0.16610	99.98
0.18277	99.98
0.19943	99.98
0.21610	99.98
0.23277	99.98
0.24943	99.98
0.26610	99.98
0.28277	99.98
0.29943	99.98
0.31610	99.98
0.33277	99.98
0.34943	99.98
0.36610	99.98
0.38277	99.98
0.39943	99.98
0.41610	99.98
0.43277	99.98
0.44943	99.98
0.46610	99.98
0.48277	99.98
0.49943	99.98
0.51610	99.98
0.53277	99.98
0.54943	99.98
0.56610	99.98
0.58277	99.98
0.59943	99.98
0.61610	99.98
0.63277	99.99
0.64943	99.98
0.66610	99.98
0.68277	99.98
0.69943	99.99
0.71610	99.98
0.73277	99.98
0.74943	99.98
0.76610	99.99
0.78277	99.98
0.79943	99.98
0.81610	99.98
0.83277	99.98
0.84943	99.98
0.86610	99.98
0.88277	99.98
0.89943	99.99
0.91610	99.98
0.93277	99.98
0.94943	99.98
0.96610	99.98
0.98277	99.98
0.99943	99.98
1.01610	99.98
1.03277	99.98
1.04943	99.98
1.06610	99.98
1.08277	99.98
1.09943	99.98
1.11610	99.98
1.13277	99.98
1.14943	99.98
1.16610	99.98
1.18277	99.98
1.19943	99.98
1.21610	99.98
1.23277	99.98
1.24943	99.98
1.26610	99.99
1.28277	99.99
1.29943	99.99
1.31610	99.99
1.33277	99.98
1.34943	99.98
1.36610	99.99
1.38277	99.99
1.39943	99.98
1.41610	99.98
1.43277	99.99
1.44943	99.98
1.46610	99.98
1.48277	99.98
1.49943	99.98
1.51610	99.98
1.53277	99.98
1.54943	99.98
1.56610	99.98
1.58277	99.99
1.59943	99.99
1.61610	99.98
1.63277	99.98
1.64943	99.99
1.66610	99.98
1.68277	99.99
1.69943	99.98
1.71610	99.98
1.73277	99.98
1.74943	99.98
1.76610	99.99
1.78277	99.98
1.79943	99.99
1.81610	99.98
1.83277	99.98
1.84943	99.99
1.86610	99.98
1.88277	99.98
1.89943	99.98
1.91610	99.98
1.93277	99.98
1.94943	99.98
1.96610	99.98
1.98277	99.98
1.99943	99.97
2.01610	99.97
2.03277	99.98
2.04943	99.98
2.06610	99.97
2.08277	99.97
2.09943	99.97
2.11610	99.97
2.13277	99.97
2.14943	99.97
2.16610	99.97
2.18277	99.97
2.19943	99.97
2.21610	99.97
2.23277	99.97
2.24943	99.97
2.26610	99.97
2.28277	99.97
2.29943	99.97
2.31610	99.97
2.33277	99.97
2.34943	99.97
2.36610	99.97
2.38277	99.97
2.39943	99.97
2.41610	99.97
2.43277	99.98
2.44943	99.98
2.46610	99.97
2.48277	99.97
2.49943	99.98
2.51610	99.98
2.53277	99.98
2.54943	99.98
2.56610	99.98
2.58277	99.98
2.59943	99.98
2.61610	99.98
2.63277	99.99
2.64943	99.99
2.66610	99.99
2.68277	99.99
2.69943	99.98
2.71610	99.99
2.73277	99.99
2.74943	99.99
2.76610	99.99
2.78277	100.00
2.79943	100.00
2.81610	100.00
2.83277	100.00
2.84943	100.00
2.86610	100.00
2.88277	100.00
2.89943	100.00
2.91610	100.01
2.93277	100.01
2.94943	100.01
2.96610	100.01
2.98277	100.01
2.99943	100.01
3.01610	100.01
3.03277	100.02
3.04943	100.01
3.06610	100.02
3.08277	100.02
3.09943	100.02
3.11610	100.02
3.13277	100.02
3.14943	100.02
3.16610	100.02
3.18277	100.02
3.19943	100.02
3.21610	100.03
3.23277	100.02
3.24943	100.03
3.26610	100.03
3.28277	100.03
3.29943	100.03
3.31610	100.03
3.33277	100.03
3.34943	100.03
3.36610	100.03
3.38277	100.04
3.39943	100.04
3.41610	100.04
3.43277	100.04
3.44943	100.03
3.46610	100.04
3.48277	100.04
3.49943	100.04
3.51610	100.03
3.53277	100.04
3.54943	100.04
3.56610	100.04
3.58277	100.04
3.59943	100.04
3.61610	100.04
3.63277	100.05
3.64943	100.04
3.66610	100.05
3.68277	100.05
3.69943	100.05
3.71610	100.05
3.73277	100.05
3.74943	100.05
3.76610	100.05
3.78277	100.05
3.79943	100.05
3.81610	100.05
3.83277	100.05
3.84943	100.05
3.86610	100.05
3.88277	100.05
3.89943	100.05
3.91610	100.05
3.93277	100.05
3.94943	100.05
3.96610	100.05
3.98277	100.05

[Status Trace (Carrier Gas Pressure)]
Interval(msec)	1000
# of Points	239
Start Time(min)	0.016
End Time(min)	3.983
Intensity Units	
Intensity Multiplier	1
R.Time (min)	Intensity
0.01610	56.92
0.03277	55.85
0.04943	58.08
0.06610	59.90
0.08277	58.58
0.09943	57.97
0.11610	58.00
0.13277	58.01
0.14943	58.01
0.16610	58.01
0.18277	58.00
0.19943	58.00
0.21610	58.00
0.23277	58.00
0.24943	58.00
0.26610	58.00
0.28277	58.00
0.29943	58.00
0.31610	58.00
0.33277	58.00
0.34943	58.00
0.36610	58.00
0.38277	58.00
0.39943	58.00
0.41610	58.00
0.43277	58.00
0.44943	58.00
0.46610	58.00
0.48277	58.00
0.49943	58.00
0.51610	58.00
0.53277	58.00
0.54943	58.00
0.56610	58.00
0.58277	58.00
0.59943	58.00
0.61610	58.00
0.63277	58.00
0.64943	58.00
0.66610	58.00
0.68277	58.00
0.69943	58.00
0.71610	58.00
0.73277	58.00
0.74943	58.00
0.76610	58.00
0.78277	58.00
0.79943	58.00
0.81610	58.00
0.83277	58.00
0.84943	58.00
0.86610	58.00
0.88277	58.00
0.89943	58.00
0.91610	58.00
0.93277	58.00
0.94943	58.00
0.96610	58.00
0.98277	58.00
0.99943	58.00
1.01610	58.00
1.03277	58.00
1.04943	58.00
1.06610	58.00
1.08277	58.00
1.09943	58.00
1.11610	58.00
1.13277	58.00
1.14943	58.00
1.16610	58.00
1.18277	58.00
1.19943	58.00
1.21610	58.00
1.23277	58.00
1.24943	58.00
1.26610	58.00
1.28277	58.00
1.29943	58.00
1.31610	58.00
1.33277	58.00
1.34943	58.00
1.36610	58.00
1.38277	58.00
1.39943	58.00
1.41610	58.00
1.43277	58.00
1.44943	58.00
1.46610	58.00
1.48277	58.00
1.49943	58.00
1.51610	58.00
1.53277	58.00
1.54943	58.00
1.56610	58.00
1.58277	58.00
1.59943	58.00
1.61610	58.00
1.63277	58.00
1.64943	58.01
1.66610	58.01
1.68277	58.01
1.69943	58.00
1.71610	58.00
1.73277	58.00
1.74943	58.00
1.76610	58.00
1.78277	58.00
1.79943	58.00
1.81610	58.00
1.83277	58.00
1.84943	58.00
1.86610	58.00
1.88277	58.00
1.89943	58.00
1.91610	58.00
1.93277	58.00
1.94943	58.00
1.96610	58.00
1.98277	58.00
1.99943	58.00
2.01610	58.00
2.03277	58.00
2.04943	58.00
2.06610	58.00
2.08277	58.00
2.09943	58.00
2.11610	58.00
2.13277	58.00
2.14943	58.00
2.16610	58.00
2.18277	58.00
2.19943	58.00
2.21610	58.00
2.23277	58.00
2.24943	58.00
2.26610	58.00
2.28277	58.00
2.29943	58.00
2.31610	58.00
2.33277	58.00
2.34943	58.00
2.36610	58.00
2.38277	57.99
2.39943	57.99
2.41610	58.00
2.43277	58.00
2.44943	58.00
2.46610	58.00
2.48277	58.00
2.49943	58.00
2.51610	57.99
2.53277	57.99
2.54943	58.00
2.56610	58.00
2.58277	58.00
2.59943	58.00
2.61610	58.00
2.63277	58.00
2.64943	58.00
2.66610	58.00
2.68277	58.00
2.69943	58.00
2.71610	58.00
2.73277	58.00
2.74943	58.00
2.76610	58.00
2.78277	58.00
2.79943	58.00
2.81610	58.00
2.83277	58.00
2.84943	58.00
2.86610	58.00
2.88277	58.00
2.89943	58.00
2.91610	58.00
2.93277	58.00
2.94943	58.00
2.96610	58.00
2.98277	58.00
2.99943	58.00
3.01610	58.00
3.03277	58.00
3.04943	58.00
3.06610	58.00
3.08277	58.00
3.09943	58.00
3.11610	58.00
3.13277	58.00
3.14943	58.00
3.16610	58.00
3.18277	58.00
3.19943	58.00
3.21610	58.00
3.23277	58.00
3.24943	58.00
3.26610	58.00
3.28277	58.00
3.29943	58.00
3.31610	58.00
3.33277	58.00
3.34943	58.00
3.36610	58.00
3.38277	58.00
3.39943	58.00
3.41610	58.00
3.43277	58.00
3.44943	58.00
3.46610	58.00
3.48277	58.00
3.49943	58.00
3.51610	58.00
3.53277	58.00
3.54943	58.00
3.56610	58.00
3.58277	58.00
3.59943	58.00
3.61610	58.00
3.63277	58.00
3.64943	58.00
3.66610	58.00
3.68277	58.00
3.69943	58.00
3.71610	58.00
3.73277	58.00
3.74943	58.00
3.76610	58.00
3.78277	58.00
3.79943	58.00
3.81610	58.00
3.83277	58.00
3.84943	58.00
3.86610	58.00
3.88277	58.00
3.89943	58.00
3.91610	58.00
3.93277	58.00
3.94943	58.00
3.96610	58.00
3.98277	58.00

[Status Trace (Carrier Gas Flow)]
Interval(msec)	1000
# of Points	239
Start Time(min)	0.016
End Time(min)	3.983
Intensity Units	
Intensity Multiplier	1
R.Time (min)	Intensity
0.01610	33.81
0.03277	34.54
0.04943	34.54
0.06610	34.52
0.08277	34.51
0.09943	34.52
0.11610	34.52
0.13277	34.52
0.14943	34.52
0.16610	34.52
0.18277	34.52
0.19943	34.52
0.21610	34.52
0.23277	34.52
0.24943	34.52
0.26610	34.52
0.28277	34.52
0.29943	34.52
0.31610	34.52
0.33277	34.52
0.34943	34.52
0.36610	34.52
0.38277	34.52
0.39943	34.52
0.41610	34.52
0.43277	34.52
0.44943	34.52
0.46610	34.52
0.48277	34.52
0.49943	34.52
0.51610	34.52
0.53277	34.52
0.54943	34.52
0.56610	34.52
0.58277	34.52
0.59943	34.52
0.61610	34.52
0.63277	34.52
0.64943	34.52
0.66610	34.52
0.68277	34.52
0.69943	34.52
0.71610	34.52
0.73277	34.52
0.74943	34.52
0.76610	34.52
0.78277	34.52
0.79943	34.52
0.81610	34.52
0.83277	34.52
0.84943	34.52
0.86610	34.52
0.88277	34.52
0.89943	34.52
0.91610	34.52
0.93277	34.52
0.94943	34.52
0.96610	34.52
0.98277	34.52
0.99943	34.52
1.01610	34.52
1.03277	34.52
1.04943	34.52
1.06610	34.52
1.08277	34.52
1.09943	34.52
1.11610	34.52
1.13277	34.52
1.14943	34.52
1.16610	34.52
1.18277	34.52
1.19943	34.52
1.21610	34.52
1.23277	34.52
1.24943	34.52
1.26610	34.52
1.28277	34.52
1.29943	34.52
1.31610	34.52
1.33277	34.52
1.34943	34.52
1.36610	34.52
1.38277	34.52
1.39943	34.52
1.41610	34.52
1.43277	34.52
1.44943	34.52
1.46610	34.52
1.48277	34.52
1.49943	34.52
1.51610	34.52
1.53277	34.51
1.54943	34.52
1.56610	34.52
1.58277	34.52
1.59943	34.52
1.61610	34.52
1.63277	34.52
1.64943	34.51
1.66610	34.52
1.68277	34.52
1.69943	34.52
1.71610	34.52
1.73277	34.52
1.74943	34.52
1.76610	34.52
1.78277	34.52
1.79943	34.52
1.81610	34.52
1.83277	34.52
1.84943	34.52
1.86610	34.52
1.88277	34.52
1.89943	34.52
1.91610	34.52
1.93277	34.52
1.94943	34.52
1.96610	34.52
1.98277	34.52
1.99943	34.52
2.01610	34.52
2.03277	34.52
2.04943	34.52
2.06610	34.52
2.08277	34.52
2.09943	34.52
2.11610	34.52
2.13277	34.52
2.14943	34.52
2.16610	34.52
2.18277	34.52
2.19943	34.52
2.21610	34.52
2.23277	34.52
2.24943	34.52
2.26610	34.52
2.28277	34.52
2.29943	34.52
2.31610	34.52
2.33277	34.52
2.34943	34.52
2.36610	34.52
2.38277	34.52
2.39943	34.52
2.41610	34.52
2.43277	34.52
2.44943	34.52
2.46610	34.52
2.48277	34.52
2.49943	34.52
2.51610	34.51
2.53277	34.52
2.54943	34.52
2.56610	34.52
2.58277	34.52
2.59943	34.52
2.61610	34.52
2.63277	34.52
2.64943	34.52
2.66610	34.52
2.68277	34.52
2.69943	34.52
2.71610	34.52
2.73277	34.51
2.74943	34.52
2.76610	34.52
2.78277	34.52
2.79943	34.52
2.81610	34.52
2.83277	34.52
2.84943	34.52
2.86610	34.52
2.88277	34.52
2.89943	34.52
2.91610	34.52
2.93277	34.52
2.94943	34.52
2.96610	34.52
2.98277	34.52
2.99943	34.52
3.01610	34.52
3.03277	34.52
3.04943	34.52
3.06610	34.52
3.08277	34.52
3.09943	34.51
3.11610	34.52
3.13277	34.52
3.14943	34.52
3.16610	34.51
3.18277	34.52
3.19943	34.51
3.21610	34.52
3.23277	34.51
3.24943	34.53
3.26610	34.51
3.28277	34.52
3.29943	34.52
3.31610	34.52
3.33277	34.52
3.34943	34.51
3.36610	34.51
3.38277	34.52
3.39943	34.52
3.41610	34.52
3.43277	34.52
3.44943	34.52
3.46610	34.51
3.48277	34.52
3.49943	34.52
3.51610	34.52
3.53277	34.52
3.54943	34.52
3.56610	34.52
3.58277	34.52
3.59943	34.52
3.61610	34.52
3.63277	34.52
3.64943	34.52
3.66610	34.52
3.68277	34.52
3.69943	34.52
3.71610	34.52
3.73277	34.52
3.74943	34.52
3.76610	34.52
3.78277	34.52
3.79943	34.52
3.81610	34.52
3.83277	34.52
3.84943	34.52
3.86610	34.52
3.88277	34.52
3.89943	34.52
3.91610	34.52
3.93277	34.52
3.94943	34.52
3.96610	34.52
3.98277	34.52

[Status Trace (Column Flow)]
Interval(msec)	1000
# of Points	239
Start Time(min)	0.016
End Time(min)	3.983
Intensity Units	
Intensity Multiplier	1
R.Time (min)	Intensity
0.01610	5.37
0.03277	5.25
0.04943	5.50
0.06610	5.72
0.08277	5.56
0.09943	5.49
0.11610	5.50
0.13277	5.50
0.14943	5.50
0.16610	5.50
0.18277	5.50
0.19943	5.50
0.21610	5.50
0.23277	5.50
0.24943	5.50
0.26610	5.50
0.28277	5.50
0.29943	5.50
0.31610	5.50
0.33277	5.50
0.34943	5.50
0.36610	5.50
0.38277	5.50
0.39943	5.50
0.41610	5.50
0.43277	5.50
0.44943	5.50
0.46610	5.50
0.48277	5.50
0.49943	5.50
0.51610	5.50
0.53277	5.50
0.54943	5.50
0.56610	5.50
0.58277	5.50
0.59943	5.50
0.61610	5.50
0.63277	5.50
0.64943	5.50
0.66610	5.50
0.68277	5.50
0.69943	5.50
0.71610	5.50
0.73277	5.50
0.74943	5.50
0.76610	5.50
0.78277	5.50
0.79943	5.50
0.81610	5.50
0.83277	5.50
0.84943	5.50
0.86610	5.50
0.88277	5.50
0.89943	5.49
0.91610	5.49
0.93277	5.49
0.94943	5.50
0.96610	5.50
0.98277	5.50
0.99943	5.50
1.01610	5.50
1.03277	5.50
1.04943	5.50
1.06610	5.50
1.08277	5.50
1.09943	5.50
1.11610	5.50
1.13277	5.50
1.14943	5.50
1.16610	5.50
1.18277	5.50
1.19943	5.50
1.21610	5.50
1.23277	5.50
1.24943	5.50
1.26610	5.50
1.28277	5.50
1.29943	5.50
1.31610	5.50
1.33277	5.50
1.34943	5.50
1.36610	5.49
1.38277	5.49
1.39943	5.49
1.41610	5.49
1.43277	5.49
1.44943	5.49
1.46610	5.49
1.48277	5.49
1.49943	5.49
1.51610	5.49
1.53277	5.49
1.54943	5.50
1.56610	5.50
1.58277	5.50
1.59943	5.50
1.61610	5.49
1.63277	5.49
1.64943	5.48
1.66610	5.47
1.68277	5.46
1.69943	5.45
1.71610	5.44
1.73277	5.43
1.74943	5.42
1.76610	5.41
1.78277	5.40
1.79943	5.39
1.81610	5.38
1.83277	5.37
1.84943	5.36
1.86610	5.35
1.88277	5.34
1.89943	5.33
1.91610	5.32
1.93277	5.31
1.94943	5.30
1.96610	5.29
1.98277	5.28
1.99943	5.27
2.01610	5.26
2.03277	5.25
2.04943	5.24
2.06610	5.23
2.08277	5.22
2.09943	5.21
2.11610	5.20
2.13277	5.19
2.14943	5.19
2.16610	5.18
2.18277	5.17
2.19943	5.16
2.21610	5.15
2.23277	5.14
2.24943	5.13
2.26610	5.12
2.28277	5.11
2.29943	5.10
2.31610	5.09
2.33277	5.08
2.34943	5.07
2.36610	5.07
2.38277	5.06
2.39943	5.06
2.41610	5.06
2.43277	5.06
2.44943	5.06
2.46610	5.06
2.48277	5.06
2.49943	5.06
2.51610	5.06
2.53277	5.06
2.54943	5.06
2.56610	5.06
2.58277	5.06
2.59943	5.06
2.61610	5.06
2.63277	5.06
2.64943	5.06
2.66610	5.06
2.68277	5.06
2.69943	5.06
2.71610	5.06
2.73277	5.06
2.74943	5.06
2.76610	5.06
2.78277	5.06
2.79943	5.06
2.81610	5.06
2.83277	5.06
2.84943	5.06
2.86610	5.06
2.88277	5.06
2.89943	5.06
2.91610	5.06
2.93277	5.06
2.94943	5.06
2.96610	5.06
2.98277	5.06
2.99943	5.06
3.01610	5.06
3.03277	5.06
3.04943	5.06
3.06610	5.05
3.08277	5.05
3.09943	5.05
3.11610	5.05
3.13277	5.05
3.14943	5.05
3.16610	5.05
3.18277	5.05
3.19943	5.05
3.21610	5.05
3.23277	5.05
3.24943	5.05
3.26610	5.05
3.28277	5.05
3.29943	5.05
3.31610	5.05
3.33277	5.05
3.34943	5.05
3.36610	5.05
3.38277	5.05
3.39943	5.05
3.41610	5.05
3.43277	5.05
3.44943	5.05
3.46610	5.05
3.48277	5.05
3.49943	5.05
3.51610	5.05
3.53277	5.05
3.54943	5.05
3.56610	5.05
3.58277	5.05
3.59943	5.05
3.61610	5.05
3.63277	5.05
3.64943	5.05
3.66610	5.05
3.68277	5.05
3.69943	5.05
3.71610	5.05
3.73277	5.05
3.74943	5.05
3.76610	5.05
3.78277	5.05
3.79943	5.05
3.81610	5.05
3.83277	5.05
3.84943	5.05
3.86610	5.05
3.88277	5.05
3.89943	5.05
3.91610	5.05
3.93277	5.05
3.94943	5.05
3.96610	5.05
3.98277	5.05

[Status Trace (Linear Velocity)]
Interval(msec)	1000
# of Points	239
Start Time(min)	0.016
End Time(min)	3.983
Intensity Units	
Intensity Multiplier	1
R.Time (min)	Intensity
0.01610	38.30
0.03277	37.60
0.04943	39.06
0.06610	40.25
0.08277	39.39
0.09943	38.99
0.11610	39.01
0.13277	39.02
0.14943	39.02
0.16610	39.01
0.18277	39.01
0.19943	39.01
0.21610	39.01
0.23277	39.01
0.24943	39.01
0.26610	39.01
0.28277	39.01
0.29943	39.01
0.31610	39.01
0.33277	39.01
0.34943	39.01
0.36610	39.01
0.38277	39.01
0.39943	39.01
0.41610	39.01
0.43277	39.01
0.44943	39.01
0.46610	39.01
0.48277	39.01
0.49943	39.01
0.51610	39.01
0.53277	39.01
0.54943	39.02
0.56610	39.02
0.58277	39.02
0.59943	39.02
0.61610	39.02
0.63277	39.01
0.64943	39.01
0.66610	39.01
0.68277	39.01
0.69943	39.01
0.71610	39.01
0.73277	39.01
0.74943	39.02
0.76610	39.02
0.78277	39.02
0.79943	39.02
0.81610	39.01
0.83277	39.01
0.84943	39.01
0.86610	39.01
0.88277	39.01
0.89943	39.01
0.91610	39.01
0.93277	39.01
0.94943	39.01
0.96610	39.01
0.98277	39.01
0.99943	39.01
1.01610	39.01
1.03277	39.01
1.04943	39.01
1.06610	39.01
1.08277	39.01
1.09943	39.01
1.11610	39.01
1.13277	39.01
1.14943	39.02
1.16610	39.02
1.18277	39.01
1.19943	39.02
1.21610	39.01
1.23277	39.01
1.24943	39.01
1.26610	39.01
1.28277	39.01
1.29943	39.01
1.31610	39.01
1.33277	39.01
1.34943	39.01
1.36610	39.01
1.38277	39.01
1.39943	39.01
1.41610	39.01
1.43277	39.01
1.44943	39.01
1.46610	39.01
1.48277	39.01
1.49943	39.01
1.51610	39.01
1.53277	39.01
1.54943	39.01
1.56610	39.01
1.58277	39.01
1.59943	39.01
1.61610	39.00
1.63277	38.99
1.64943	38.97
1.66610	38.94
1.68277	38.91
1.69943	38.87
1.71610	38.84
1.73277	38.80
1.74943	38.77
1.76610	38.74
1.78277	38.71
1.79943	38.68
1.81610	38.65
1.83277	38.62
1.84943	38.58
1.86610	38.55
1.88277	38.52
1.89943	38.49
1.91610	38.46
1.93277	38.43
1.94943	38.40
1.96610	38.37
1.98277	38.34
1.99943	38.31
2.01610	38.28
2.03277	38.25
2.04943	38.22
2.06610	38.19
2.08277	38.16
2.09943	38.13
2.11610	38.10
2.13277	38.07
2.14943	38.04
2.16610	38.01
2.18277	37.98
2.19943	37.96
2.21610	37.92
2.23277	37.89
2.24943	37.87
2.26610	37.84
2.28277	37.81
2.29943	37.78
2.31610	37.75
2.33277	37.72
2.34943	37.69
2.36610	37.67
2.38277	37.66
2.39943	37.66
2.41610	37.66
2.43277	37.66
2.44943	37.66
2.46610	37.66
2.48277	37.65
2.49943	37.65
2.51610	37.65
2.53277	37.65
2.54943	37.65
2.56610	37.65
2.58277	37.65
2.59943	37.65
2.61610	37.64
2.63277	37.64
2.64943	37.64
2.66610	37.64
2.68277	37.64
2.69943	37.64
2.71610	37.64
2.73277	37.64
2.74943	37.64
2.76610	37.64
2.78277	37.64
2.79943	37.64
2.81610	37.63
2.83277	37.63
2.84943	37.64
2.86610	37.63
2.88277	37.63
2.89943	37.63
2.91610	37.63
2.93277	37.63
2.94943	37.63
2.96610	37.63
2.98277	37.63
2.99943	37.63
3.01610	37.63
3.03277	37.63
3.04943	37.63
3.06610	37.63
3.08277	37.63
3.09943	37.63
3.11610	37.63
3.13277	37.63
3.14943	37.63
3.16610	37.62
3.18277	37.62
3.19943	37.62
3.21610	37.62
3.23277	37.62
3.24943	37.62
3.26610	37.62
3.28277	37.62
3.29943	37.62
3.31610	37.62
3.33277	37.62
3.34943	37.62
3.36610	37.62
3.38277	37.62
3.39943	37.62
3.41610	37.62
3.43277	37.62
3.44943	37.62
3.46610	37.62
3.48277	37.62
3.49943	37.62
3.51610	37.62
3.53277	37.62
3.54943	37.62
3.56610	37.62
3.58277	37.62
3.59943	37.62
3.61610	37.62
3.63277	37.62
3.64943	37.62
3.66610	37.62
3.68277	37.62
3.69943	37.62
3.71610	37.62
3.73277	37.62
3.74943	37.62
3.76610	37.62
3.78277	37.62
3.79943	37.62
3.81610	37.62
3.83277	37.62
3.84943	37.62
3.86610	37.62
3.88277	37.62
3.89943	37.62
3.91610	37.62
3.93277	37.62
3.94943	37.62
3.96610	37.62
3.98277	37.62

