[Header]
Application Name	LabSolutions
Version	5.110
Data File Name	C:\Users\User\Desktop\GC Analyses\Jack\UIC Prairie Sampling\7.9.22\220909_102.gcd
Output Date	9/28/2022
Output Time	11:29:56 AM

[File Information]
Type	Data File
Generated	9/20/2022 12:52:43 PM
Generated by	System Administrator
Modified	9/20/2022 12:57:05 PM
Modified by	System Administrator

[Sample Information]
Operator Name	System Administrator
Acquired	9/20/2022 12:53:04 PM
Sample Type	1:Standard
Level	1
Sample Name	220909_Run
Sample ID	220909_Run
ISTD Amount1	1
ISTD Amount2	1
ISTD Amount3	1
ISTD Amount4	1
ISTD Amount5	1
ISTD Amount6	1
ISTD Amount7	1
ISTD Amount8	1
ISTD Amount9	1
ISTD Amount10	1
ISTD Amount11	1
ISTD Amount12	1
ISTD Amount13	1
ISTD Amount14	1
ISTD Amount15	1
ISTD Amount16	1
ISTD Amount17	1
ISTD Amount18	1
ISTD Amount19	1
ISTD Amount20	1
ISTD Amount21	1
ISTD Amount22	1
ISTD Amount23	1
ISTD Amount24	1
ISTD Amount25	1
ISTD Amount26	1
ISTD Amount27	1
ISTD Amount28	1
ISTD Amount29	1
ISTD Amount30	1
ISTD Amount31	1
ISTD Amount32	1
Sample Amount	1
Dilution Factor	1
Vial#	1
Injection Volume	1
Injection Count	1
Bar Code	

[Original Files]
Data File	C:\Users\User\Desktop\GC Analyses\Jack\220909\220909_102.gcd
Method File	C:\LabSolutions\Data\GHG_4min_2022\ghg3_togas_w_acet_4 min_new_int.gcm
Batch File	
Report Format File	c:\LabSolutions\System\DEFAULT.lsr

[File Description]


[Configuration]
Instrument Name	C0B7VH3-Instrument1
Instrument #	1
Line #	1
# of Detectors	3
Detector ID	DET#1	DET#2	DET#3
Detector Name	FID	PTCD	ECD
# of Channels	1	1	1

[Peak Table(Ch1)]
# of Peaks	3
Peak#	R.Time	I.Time	F.Time	Area	Height	A/H	Conc.	Mark	ID#	Name	k'	Plate #	Plate Ht.	Tailing	Resolution	Sep.Factor	Area Ratio	Height Ratio	Conc. %	Norm Conc.
1	1.483	1.435	1.538	6806	3729	1.825	100.000	   	1	CO	0.000	11397	13.162	1.309	0.000	0.000	0	0	16.667	16.667
2	1.578	1.556	1.604	1405	1034	1.358	100.000	   	2	CH4	0.064	24220	6.193	1.085	1.983	0.000	0	0	16.667	16.667
3	2.007	1.952	2.235	486922	288160	1.690	400.000	   	3	CO2	0.354	25737	5.828	1.255	9.468	5.500	0	0	66.667	66.667

[Peak Table(Ch2)]
# of Peaks	0

[Peak Table(Ch3)]
# of Peaks	2
Peak#	R.Time	I.Time	F.Time	Area	Height	A/H	Conc.	Mark	ID#	Name	k'	Plate #	Plate Ht.	Tailing	Resolution	Sep.Factor	Area Ratio	Height Ratio	Conc. %	Norm Conc.
1	2.583	2.414	2.840	10728	671	15.982	0.000	   			0.000	303	494.703	0.000	0.000	0.000	0	0	0.000	0.000
2	2.891	2.840	3.173	9842	2149	4.579	1.000	 V 	1	N2O	0.119	12708	11.804	0.000	0.885	0.000	0	0	100.000	100.000

[Compound Results(Ch1)]
# of IDs	6
ID#	Name	R.Time	Area	Height	Conc.	Curve	3rd	2nd	1st	Constant	Area Ratio	Height Ratio	Conc. %	Norm Conc.
1	CO	1.483	6806	3729	100.000	Linear	0.000000e+00	0.000000e+00	6.806185e+001	0.000000e+00	0	0	16.667	16.667
2	CH4	1.578	1405	1034	100.000	Linear	0.000000e+00	0.000000e+00	1.404848e+001	0.000000e+00	0	0	16.667	16.667
3	CO2	2.007	486922	288160	400.000	Linear	0.000000e+00	0.000000e+00	1.217304e+003	0.000000e+00	0	0	66.667	66.667
4	Ethylene	0.000	0	0	0.000	Linear	0.000000e+00	0.000000e+00	0.000000e+00	0.000000e+00	0	0	0.000	0.000
5	Acetylene	0.000	0	0	0.000	Linear	0.000000e+00	0.000000e+00	0.000000e+00	0.000000e+00	0	0	0.000	0.000
6	Ethane	0.000	0	0	0.000	Linear	0.000000e+00	0.000000e+00	0.000000e+00	0.000000e+00	0	0	0.000	0.000

[Compound Results(Ch2)]
# of IDs	5
ID#	Name	R.Time	Area	Height	Conc.	Curve	3rd	2nd	1st	Constant	Area Ratio	Height Ratio	Conc. %	Norm Conc.
1	Hydrogen	0.000	0	0	0.000	Linear	0.000000e+00	0.000000e+00	0.000000e+00	0.000000e+00	0	0	0.000	0.000
2	Oxygen	0.000	0	0	0.000	Linear	0.000000e+00	0.000000e+00	0.000000e+00	0.000000e+00	0	0	0.000	0.000
3	Nitrogen	0.000	0	0	0.000	Linear	0.000000e+00	0.000000e+00	0.000000e+00	0.000000e+00	0	0	0.000	0.000
4	Methane	0.000	0	0	0.000	Linear	0.000000e+00	0.000000e+00	0.000000e+00	0.000000e+00	0	0	0.000	0.000
5	Carbon Monoxide	0.000	0	0	0.000	Linear	0.000000e+00	0.000000e+00	0.000000e+00	0.000000e+00	0	0	0.000	0.000

[Compound Results(Ch3)]
# of IDs	2
ID#	Name	R.Time	Area	Height	Conc.	Curve	3rd	2nd	1st	Constant	Area Ratio	Height Ratio	Conc. %	Norm Conc.
1	N2O	2.891	9842	2149	1.000	Linear	0.000000e+00	0.000000e+00	9.842211e+003	0.000000e+00	0	0	100.000	100.000
2	SF6	0.000	0	0	0.000	Linear	0.000000e+00	0.000000e+00	0.000000e+00	0.000000e+00	0	0	0.000	0.000

[Group Results(Ch1)]
# of Groups	0

[Group Results(Ch2)]
# of Groups	0

[Group Results(Ch3)]
# of Groups	0

[Chromatogram (Ch1)]
Interval(msec)	220
# of Points	1091
Start Time(min)	0.002
End Time(min)	3.998
R.Time (min)	Intensity
0.00167	12
0.00533	13
0.00900	11
0.01267	9
0.01633	9
0.02000	12
0.02367	18
0.02733	26
0.03100	28
0.03467	22
0.03833	11
0.04200	4
0.04567	0
0.04933	-0
0.05300	3
0.05667	8
0.06033	11
0.06400	6
0.06767	1
0.07133	-1
0.07500	-1
0.07867	-6
0.08233	-13
0.08600	-18
0.08967	-20
0.09333	-20
0.09700	-18
0.10067	-13
0.10433	-9
0.10800	-9
0.11167	-10
0.11533	-11
0.11900	-14
0.12267	-15
0.12633	-10
0.13000	-1
0.13367	3
0.13733	2
0.14100	2
0.14467	2
0.14833	2
0.15200	2
0.15567	1
0.15933	1
0.16300	2
0.16667	2
0.17033	-2
0.17400	-7
0.17767	-12
0.18133	-13
0.18500	-14
0.18867	-15
0.19233	-12
0.19600	-6
0.19967	0
0.20333	5
0.20700	10
0.21067	11
0.21433	12
0.21800	12
0.22167	13
0.22533	12
0.22900	12
0.23267	11
0.23633	9
0.24000	3
0.24367	-4
0.24733	-11
0.25100	-16
0.25467	-20
0.25833	-21
0.26200	-21
0.26567	-20
0.26933	-18
0.27300	-14
0.27667	-11
0.28033	-9
0.28400	-10
0.28767	-13
0.29133	-14
0.29500	-11
0.29867	-5
0.30233	-1
0.30600	-1
0.30967	-5
0.31333	-10
0.31700	-13
0.32067	-10
0.32433	-7
0.32800	-4
0.33167	-3
0.33533	-1
0.33900	1
0.34267	-0
0.34633	-5
0.35000	-12
0.35367	-18
0.35733	-19
0.36100	-17
0.36467	-15
0.36833	-14
0.37200	-14
0.37567	-16
0.37933	-17
0.38300	-13
0.38667	-7
0.39033	-3
0.39400	0
0.39767	1
0.40133	-1
0.40500	-4
0.40867	-5
0.41233	-8
0.41600	-12
0.41967	-19
0.42333	-24
0.42700	-24
0.43067	-22
0.43433	-23
0.43800	-26
0.44167	-26
0.44533	-24
0.44900	-22
0.45267	-19
0.45633	-13
0.46000	-10
0.46367	-7
0.46733	-5
0.47100	-6
0.47467	-8
0.47833	-12
0.48200	-15
0.48567	-21
0.48933	-26
0.49300	-29
0.49667	-29
0.50033	-28
0.50400	-23
0.50767	-17
0.51133	-14
0.51500	-17
0.51867	-22
0.52233	-21
0.52600	-16
0.52967	-12
0.53333	-11
0.53700	-11
0.54067	-13
0.54433	-16
0.54800	-21
0.55167	-27
0.55533	-30
0.55900	-34
0.56267	-39
0.56633	-40
0.57000	-37
0.57367	-35
0.57733	-34
0.58100	-32
0.58467	-29
0.58833	-28
0.59200	-30
0.59567	-33
0.59933	-35
0.60300	-35
0.60667	-37
0.61033	-37
0.61400	-36
0.61767	-37
0.62133	-41
0.62500	-47
0.62867	-51
0.63233	-50
0.63600	-46
0.63967	-40
0.64333	-33
0.64700	-29
0.65067	-27
0.65433	-28
0.65800	-29
0.66167	-33
0.66533	-35
0.66900	-38
0.67267	-40
0.67633	-41
0.68000	-42
0.68367	-40
0.68733	-35
0.69100	-28
0.69467	-22
0.69833	-19
0.70200	-21
0.70567	-26
0.70933	-34
0.71300	-43
0.71667	-47
0.72033	-49
0.72400	-50
0.72767	-49
0.73133	-44
0.73500	-39
0.73867	-36
0.74233	-36
0.74600	-41
0.74967	-47
0.75333	-53
0.75700	-53
0.76067	-45
0.76433	-35
0.76800	-30
0.77167	-28
0.77533	-24
0.77900	-20
0.78267	-19
0.78633	-26
0.79000	-37
0.79367	-48
0.79733	-58
0.80100	-68
0.80467	-76
0.80833	-78
0.81200	-76
0.81567	-70
0.81933	-61
0.82300	-55
0.82667	-50
0.83033	-47
0.83400	-45
0.83767	-46
0.84133	-44
0.84500	-40
0.84867	-37
0.85233	-38
0.85600	-39
0.85967	-40
0.86333	-45
0.86700	-49
0.87067	-54
0.87433	-57
0.87800	-56
0.88167	-54
0.88533	-50
0.88900	-49
0.89267	-52
0.89633	-51
0.90000	-49
0.90367	-47
0.90733	-47
0.91100	-46
0.91467	-50
0.91833	-58
0.92200	-65
0.92567	-67
0.92933	-66
0.93300	-62
0.93667	-56
0.94033	-53
0.94400	-50
0.94767	-46
0.95133	-45
0.95500	-46
0.95867	-50
0.96233	-56
0.96600	-62
0.96967	-65
0.97333	-62
0.97700	-57
0.98067	-57
0.98433	-59
0.98800	-60
0.99167	-61
0.99533	-61
0.99900	-61
1.00267	-58
1.00633	-50
1.01000	-42
1.01367	-36
1.01733	-35
1.02100	-39
1.02467	-51
1.02833	-63
1.03200	-75
1.03567	-81
1.03933	-81
1.04300	-80
1.04667	-81
1.05033	-84
1.05400	-87
1.05767	-91
1.06133	-95
1.06500	-95
1.06867	-93
1.07233	-90
1.07600	-87
1.07967	-85
1.08333	-82
1.08700	-76
1.09067	-71
1.09433	-68
1.09800	-67
1.10167	-67
1.10533	-69
1.10900	-72
1.11267	-73
1.11633	-69
1.12000	-59
1.12367	-51
1.12733	-51
1.13100	-57
1.13467	-63
1.13833	-71
1.14200	-79
1.14567	-87
1.14933	-94
1.15300	-97
1.15667	-94
1.16033	-86
1.16400	-80
1.16767	-81
1.17133	-86
1.17500	-91
1.17867	-94
1.18233	-95
1.18600	-95
1.18967	-94
1.19333	-92
1.19700	-93
1.20067	-91
1.20433	-86
1.20800	-78
1.21167	-71
1.21533	-66
1.21900	-65
1.22267	-67
1.22633	-68
1.23000	-69
1.23367	-71
1.23733	-77
1.24100	-84
1.24467	-91
1.24833	-95
1.25200	-94
1.25567	-91
1.25933	-89
1.26300	-85
1.26667	-79
1.27033	-74
1.27400	-74
1.27767	-78
1.28133	-83
1.28500	-88
1.28867	-90
1.29233	-89
1.29600	-83
1.29967	-78
1.30333	-76
1.30700	-79
1.31067	-85
1.31433	-90
1.31800	-94
1.32167	-93
1.32533	-87
1.32900	-86
1.33267	-89
1.33633	-96
1.34000	-103
1.34367	-107
1.34733	-109
1.35100	-111
1.35467	-114
1.35833	-115
1.36200	-111
1.36567	-107
1.36933	-106
1.37300	-107
1.37667	-107
1.38033	-107
1.38400	-105
1.38767	-101
1.39133	-98
1.39500	-95
1.39867	-92
1.40233	-91
1.40600	-93
1.40967	-99
1.41333	-106
1.41700	-112
1.42067	-116
1.42433	-116
1.42800	-113
1.43167	-111
1.43533	-108
1.43900	-104
1.44267	-100
1.44633	-96
1.45000	-91
1.45367	-76
1.45733	-15
1.46100	192
1.46467	611
1.46833	1207
1.47200	1920
1.47567	2668
1.47933	3296
1.48300	3613
1.48667	3533
1.49033	3123
1.49400	2540
1.49767	1935
1.50133	1402
1.50500	980
1.50867	661
1.51233	424
1.51600	248
1.51967	120
1.52333	30
1.52700	-34
1.53067	-76
1.53433	-105
1.53800	-124
1.54167	-133
1.54533	-132
1.54900	-130
1.55267	-128
1.55633	-106
1.56000	-25
1.56367	161
1.56733	448
1.57100	746
1.57467	936
1.57833	956
1.58200	830
1.58567	630
1.58933	422
1.59300	246
1.59667	111
1.60033	17
1.60400	-46
1.60767	-87
1.61133	-115
1.61500	-136
1.61867	-149
1.62233	-156
1.62600	-156
1.62967	-149
1.63333	-138
1.63700	-128
1.64067	-128
1.64433	-131
1.64800	-134
1.65167	-137
1.65533	-136
1.65900	-136
1.66267	-135
1.66633	-132
1.67000	-130
1.67367	-129
1.67733	-126
1.68100	-124
1.68467	-125
1.68833	-127
1.69200	-128
1.69567	-125
1.69933	-116
1.70300	-108
1.70667	-107
1.71033	-108
1.71400	-112
1.71767	-117
1.72133	-122
1.72500	-125
1.72867	-127
1.73233	-129
1.73600	-132
1.73967	-134
1.74333	-137
1.74700	-140
1.75067	-140
1.75433	-136
1.75800	-131
1.76167	-128
1.76533	-130
1.76900	-135
1.77267	-140
1.77633	-140
1.78000	-136
1.78367	-131
1.78733	-125
1.79100	-122
1.79467	-119
1.79833	-116
1.80200	-115
1.80567	-115
1.80933	-117
1.81300	-117
1.81667	-116
1.82033	-114
1.82400	-114
1.82767	-117
1.83133	-124
1.83500	-130
1.83867	-134
1.84233	-134
1.84600	-128
1.84967	-118
1.85333	-110
1.85700	-106
1.86067	-108
1.86433	-113
1.86800	-118
1.87167	-122
1.87533	-124
1.87900	-125
1.88267	-126
1.88633	-125
1.89000	-121
1.89367	-116
1.89733	-109
1.90100	-102
1.90467	-100
1.90833	-105
1.91200	-113
1.91567	-120
1.91933	-125
1.92300	-125
1.92667	-125
1.93033	-120
1.93400	-116
1.93767	-115
1.94133	-119
1.94500	-123
1.94867	-122
1.95233	-116
1.95600	-106
1.95967	-93
1.96333	-75
1.96700	-45
1.97067	34
1.97433	333
1.97800	1579
1.98167	6089
1.98533	19081
1.98900	48204
1.99267	98678
1.99633	165686
2.00000	232217
2.00367	277227
2.00733	288080
2.01100	266111
2.01467	223089
2.01833	173160
2.02200	126760
2.02567	88940
2.02933	60636
2.03300	40628
2.03667	27010
2.04033	17971
2.04400	12060
2.04767	8215
2.05133	5709
2.05500	4065
2.05867	2980
2.06233	2254
2.06600	1760
2.06967	1415
2.07333	1164
2.07700	974
2.08067	832
2.08433	723
2.08800	638
2.09167	567
2.09533	505
2.09900	455
2.10267	418
2.10633	393
2.11000	369
2.11367	337
2.11733	301
2.12100	264
2.12467	233
2.12833	208
2.13200	189
2.13567	175
2.13933	167
2.14300	160
2.14667	152
2.15033	143
2.15400	139
2.15767	138
2.16133	138
2.16500	136
2.16867	134
2.17233	135
2.17600	132
2.17967	125
2.18333	119
2.18700	116
2.19067	112
2.19433	104
2.19800	94
2.20167	87
2.20533	84
2.20900	86
2.21267	90
2.21633	90
2.22000	85
2.22367	79
2.22733	74
2.23100	71
2.23467	66
2.23833	61
2.24200	58
2.24567	55
2.24933	53
2.25300	52
2.25667	53
2.26033	56
2.26400	58
2.26767	62
2.27133	69
2.27500	74
2.27867	71
2.28233	63
2.28600	58
2.28967	57
2.29333	55
2.29700	51
2.30067	43
2.30433	32
2.30800	24
2.31167	18
2.31533	16
2.31900	18
2.32267	19
2.32633	18
2.33000	19
2.33367	19
2.33733	18
2.34100	21
2.34467	29
2.34833	34
2.35200	32
2.35567	27
2.35933	24
2.36300	24
2.36667	26
2.37033	29
2.37400	33
2.37767	36
2.38133	35
2.38500	33
2.38867	32
2.39233	32
2.39600	33
2.39967	35
2.40333	35
2.40700	34
2.41067	33
2.41433	34
2.41800	37
2.42167	39
2.42533	38
2.42900	37
2.43267	38
2.43633	41
2.44000	39
2.44367	34
2.44733	29
2.45100	25
2.45467	23
2.45833	23
2.46200	19
2.46567	17
2.46933	21
2.47300	27
2.47667	29
2.48033	31
2.48400	29
2.48767	25
2.49133	20
2.49500	15
2.49867	11
2.50233	10
2.50600	10
2.50967	15
2.51333	23
2.51700	28
2.52067	27
2.52433	22
2.52800	20
2.53167	20
2.53533	20
2.53900	20
2.54267	17
2.54633	11
2.55000	6
2.55367	5
2.55733	9
2.56100	12
2.56467	14
2.56833	15
2.57200	12
2.57567	11
2.57933	10
2.58300	7
2.58667	6
2.59033	5
2.59400	1
2.59767	-3
2.60133	-6
2.60500	-7
2.60867	-8
2.61233	-11
2.61600	-14
2.61967	-15
2.62333	-12
2.62700	-9
2.63067	-9
2.63433	-13
2.63800	-14
2.64167	-12
2.64533	-8
2.64900	-5
2.65267	-2
2.65633	-2
2.66000	-5
2.66367	-7
2.66733	-10
2.67100	-15
2.67467	-19
2.67833	-22
2.68200	-21
2.68567	-19
2.68933	-18
2.69300	-15
2.69667	-10
2.70033	-4
2.70400	-1
2.70767	4
2.71133	8
2.71500	14
2.71867	20
2.72233	23
2.72600	21
2.72967	15
2.73333	8
2.73700	2
2.74067	-5
2.74433	-11
2.74800	-10
2.75167	-7
2.75533	-7
2.75900	-7
2.76267	-2
2.76633	3
2.77000	5
2.77367	1
2.77733	-4
2.78100	-11
2.78467	-18
2.78833	-24
2.79200	-28
2.79567	-30
2.79933	-28
2.80300	-23
2.80667	-17
2.81033	-12
2.81400	-10
2.81767	-9
2.82133	-9
2.82500	-10
2.82867	-11
2.83233	-13
2.83600	-14
2.83967	-12
2.84333	-8
2.84700	-8
2.85067	-13
2.85433	-21
2.85800	-26
2.86167	-28
2.86533	-27
2.86900	-23
2.87267	-19
2.87633	-13
2.88000	-7
2.88367	-2
2.88733	-1
2.89100	-3
2.89467	-7
2.89833	-10
2.90200	-12
2.90567	-17
2.90933	-20
2.91300	-22
2.91667	-26
2.92033	-30
2.92400	-31
2.92767	-27
2.93133	-20
2.93500	-13
2.93867	-9
2.94233	-7
2.94600	-7
2.94967	-5
2.95333	-1
2.95700	3
2.96067	3
2.96433	-3
2.96800	-10
2.97167	-13
2.97533	-14
2.97900	-14
2.98267	-16
2.98633	-16
2.99000	-13
2.99367	-9
2.99733	-9
3.00100	-12
3.00467	-14
3.00833	-14
3.01200	-15
3.01567	-15
3.01933	-15
3.02300	-15
3.02667	-12
3.03033	-8
3.03400	-5
3.03767	-5
3.04133	-6
3.04500	-4
3.04867	2
3.05233	8
3.05600	10
3.05967	8
3.06333	6
3.06700	4
3.07067	0
3.07433	-6
3.07800	-13
3.08167	-21
3.08533	-25
3.08900	-29
3.09267	-32
3.09633	-29
3.10000	-22
3.10367	-15
3.10733	-15
3.11100	-18
3.11467	-19
3.11833	-19
3.12200	-20
3.12567	-20
3.12933	-18
3.13300	-14
3.13667	-6
3.14033	3
3.14400	6
3.14767	6
3.15133	3
3.15500	-4
3.15867	-9
3.16233	-11
3.16600	-12
3.16967	-12
3.17333	-8
3.17700	-3
3.18067	-1
3.18433	-3
3.18800	-8
3.19167	-14
3.19533	-17
3.19900	-18
3.20267	-16
3.20633	-12
3.21000	-6
3.21367	-0
3.21733	6
3.22100	16
3.22467	27
3.22833	33
3.23200	32
3.23567	27
3.23933	19
3.24300	6
3.24667	-7
3.25033	-17
3.25400	-20
3.25767	-16
3.26133	-7
3.26500	1
3.26867	2
3.27233	-2
3.27600	-4
3.27967	-5
3.28333	-6
3.28700	-8
3.29067	-11
3.29433	-10
3.29800	-7
3.30167	-5
3.30533	-4
3.30900	-0
3.31267	4
3.31633	9
3.32000	14
3.32367	18
3.32733	20
3.33100	22
3.33467	21
3.33833	20
3.34200	25
3.34567	31
3.34933	32
3.35300	29
3.35667	25
3.36033	22
3.36400	18
3.36767	14
3.37133	13
3.37500	15
3.37867	21
3.38233	29
3.38600	30
3.38967	26
3.39333	19
3.39700	16
3.40067	18
3.40433	22
3.40800	25
3.41167	27
3.41533	29
3.41900	33
3.42267	36
3.42633	34
3.43000	29
3.43367	24
3.43733	17
3.44100	8
3.44467	2
3.44833	6
3.45200	13
3.45567	19
3.45933	21
3.46300	23
3.46667	24
3.47033	24
3.47400	24
3.47767	23
3.48133	20
3.48500	20
3.48867	24
3.49233	29
3.49600	31
3.49967	32
3.50333	33
3.50700	33
3.51067	35
3.51433	40
3.51800	44
3.52167	46
3.52533	46
3.52900	47
3.53267	46
3.53633	42
3.54000	35
3.54367	29
3.54733	24
3.55100	22
3.55467	20
3.55833	18
3.56200	18
3.56567	19
3.56933	20
3.57300	22
3.57667	25
3.58033	28
3.58400	28
3.58767	29
3.59133	33
3.59500	36
3.59867	40
3.60233	45
3.60600	50
3.60967	56
3.61333	56
3.61700	52
3.62067	46
3.62433	44
3.62800	43
3.63167	43
3.63533	45
3.63900	47
3.64267	47
3.64633	48
3.65000	51
3.65367	53
3.65733	52
3.66100	49
3.66467	47
3.66833	46
3.67200	49
3.67567	54
3.67933	60
3.68300	64
3.68667	67
3.69033	67
3.69400	65
3.69767	63
3.70133	60
3.70500	55
3.70867	49
3.71233	46
3.71600	47
3.71967	49
3.72333	50
3.72700	51
3.73067	50
3.73433	49
3.73800	50
3.74167	55
3.74533	65
3.74900	72
3.75267	75
3.75633	71
3.76000	64
3.76367	60
3.76733	56
3.77100	53
3.77467	53
3.77833	53
3.78200	51
3.78567	51
3.78933	51
3.79300	49
3.79667	48
3.80033	47
3.80400	46
3.80767	46
3.81133	46
3.81500	44
3.81867	41
3.82233	39
3.82600	42
3.82967	46
3.83333	52
3.83700	58
3.84067	65
3.84433	67
3.84800	63
3.85167	55
3.85533	45
3.85900	34
3.86267	27
3.86633	23
3.87000	25
3.87367	29
3.87733	33
3.88100	35
3.88467	31
3.88833	26
3.89200	24
3.89567	27
3.89933	33
3.90300	38
3.90667	41
3.91033	40
3.91400	37
3.91767	35
3.92133	36
3.92500	37
3.92867	38
3.93233	35
3.93600	31
3.93967	30
3.94333	30
3.94700	31
3.95067	32
3.95433	33
3.95800	32
3.96167	28
3.96533	25
3.96900	26
3.97267	27
3.97633	31
3.98000	36
3.98367	40
3.98733	45
3.99100	48
3.99467	53
3.99833	57

[Chromatogram (Ch2)]
Interval(msec)	220
# of Points	1091
Start Time(min)	0.002
End Time(min)	3.998
R.Time (min)	Intensity
0.00167	1
0.00533	1
0.00900	1
0.01267	1
0.01633	1
0.02000	1
0.02367	1
0.02733	1
0.03100	1
0.03467	1
0.03833	1
0.04200	1
0.04567	1
0.04933	1
0.05300	1
0.05667	1
0.06033	1
0.06400	1
0.06767	1
0.07133	1
0.07500	1
0.07867	1
0.08233	1
0.08600	2
0.08967	2
0.09333	3
0.09700	3
0.10067	3
0.10433	4
0.10800	4
0.11167	4
0.11533	3
0.11900	3
0.12267	3
0.12633	2
0.13000	2
0.13367	2
0.13733	2
0.14100	1
0.14467	1
0.14833	1
0.15200	1
0.15567	0
0.15933	-0
0.16300	-1
0.16667	-1
0.17033	-1
0.17400	-1
0.17767	-1
0.18133	-1
0.18500	-0
0.18867	-0
0.19233	0
0.19600	1
0.19967	1
0.20333	1
0.20700	1
0.21067	1
0.21433	1
0.21800	1
0.22167	1
0.22533	1
0.22900	1
0.23267	1
0.23633	1
0.24000	0
0.24367	-0
0.24733	-1
0.25100	-1
0.25467	-1
0.25833	-2
0.26200	-2
0.26567	-2
0.26933	-2
0.27300	-2
0.27667	-2
0.28033	-2
0.28400	-2
0.28767	-2
0.29133	-2
0.29500	-3
0.29867	-3
0.30233	-3
0.30600	-3
0.30967	-3
0.31333	-3
0.31700	-3
0.32067	-3
0.32433	-3
0.32800	-3
0.33167	-3
0.33533	-3
0.33900	-2
0.34267	-2
0.34633	-2
0.35000	-2
0.35367	-2
0.35733	-2
0.36100	-2
0.36467	-1
0.36833	-1
0.37200	-1
0.37567	-1
0.37933	-0
0.38300	-0
0.38667	0
0.39033	0
0.39400	1
0.39767	1
0.40133	1
0.40500	1
0.40867	1
0.41233	0
0.41600	0
0.41967	-0
0.42333	-0
0.42700	-0
0.43067	-0
0.43433	-0
0.43800	-0
0.44167	0
0.44533	0
0.44900	0
0.45267	0
0.45633	1
0.46000	1
0.46367	1
0.46733	1
0.47100	1
0.47467	1
0.47833	1
0.48200	1
0.48567	0
0.48933	0
0.49300	0
0.49667	-0
0.50033	-0
0.50400	-0
0.50767	-0
0.51133	-0
0.51500	-0
0.51867	-0
0.52233	0
0.52600	0
0.52967	0
0.53333	0
0.53700	0
0.54067	0
0.54433	0
0.54800	0
0.55167	-0
0.55533	-0
0.55900	-0
0.56267	-0
0.56633	-0
0.57000	-0
0.57367	0
0.57733	0
0.58100	0
0.58467	0
0.58833	0
0.59200	0
0.59567	0
0.59933	0
0.60300	0
0.60667	-0
0.61033	-0
0.61400	-0
0.61767	-0
0.62133	-0
0.62500	-0
0.62867	-0
0.63233	-0
0.63600	-0
0.63967	-0
0.64333	-1
0.64700	-1
0.65067	-1
0.65433	-1
0.65800	-1
0.66167	-1
0.66533	-1
0.66900	-1
0.67267	-1
0.67633	-1
0.68000	-1
0.68367	-0
0.68733	-0
0.69100	-0
0.69467	-1
0.69833	-1
0.70200	-0
0.70567	-0
0.70933	0
0.71300	0
0.71667	1
0.72033	1
0.72400	1
0.72767	2
0.73133	2
0.73500	2
0.73867	2
0.74233	2
0.74600	2
0.74967	2
0.75333	2
0.75700	1
0.76067	1
0.76433	1
0.76800	1
0.77167	1
0.77533	1
0.77900	1
0.78267	0
0.78633	0
0.79000	0
0.79367	-0
0.79733	-0
0.80100	-0
0.80467	-0
0.80833	-0
0.81200	0
0.81567	0
0.81933	0
0.82300	0
0.82667	0
0.83033	0
0.83400	0
0.83767	0
0.84133	-0
0.84500	-0
0.84867	-0
0.85233	-0
0.85600	-1
0.85967	-1
0.86333	-1
0.86700	-1
0.87067	-1
0.87433	-1
0.87800	-1
0.88167	-1
0.88533	-2
0.88900	-2
0.89267	-2
0.89633	-2
0.90000	-1
0.90367	-1
0.90733	-1
0.91100	-1
0.91467	-1
0.91833	-2
0.92200	-2
0.92567	-3
0.92933	-3
0.93300	-3
0.93667	-4
0.94033	-4
0.94400	-4
0.94767	-4
0.95133	-4
0.95500	-4
0.95867	-4
0.96233	-4
0.96600	-4
0.96967	-4
0.97333	-4
0.97700	-4
0.98067	-4
0.98433	-4
0.98800	-4
0.99167	-4
0.99533	-4
0.99900	-4
1.00267	-3
1.00633	-3
1.01000	-3
1.01367	-2
1.01733	-2
1.02100	-2
1.02467	-1
1.02833	-1
1.03200	-1
1.03567	-1
1.03933	-1
1.04300	-1
1.04667	-1
1.05033	-1
1.05400	-1
1.05767	-1
1.06133	-1
1.06500	-1
1.06867	-1
1.07233	-1
1.07600	-1
1.07967	-1
1.08333	-1
1.08700	-1
1.09067	-1
1.09433	-1
1.09800	-1
1.10167	-1
1.10533	-2
1.10900	-2
1.11267	-2
1.11633	-2
1.12000	-2
1.12367	-2
1.12733	-2
1.13100	-1
1.13467	-2
1.13833	-2
1.14200	-2
1.14567	-3
1.14933	-3
1.15300	-3
1.15667	-4
1.16033	-4
1.16400	-4
1.16767	-4
1.17133	-4
1.17500	-5
1.17867	-5
1.18233	-5
1.18600	-5
1.18967	-5
1.19333	-5
1.19700	-5
1.20067	-4
1.20433	-4
1.20800	-4
1.21167	-3
1.21533	-3
1.21900	-2
1.22267	-2
1.22633	-1
1.23000	-1
1.23367	-1
1.23733	-0
1.24100	-0
1.24467	-0
1.24833	0
1.25200	0
1.25567	1
1.25933	1
1.26300	1
1.26667	1
1.27033	1
1.27400	1
1.27767	1
1.28133	1
1.28500	1
1.28867	1
1.29233	0
1.29600	-0
1.29967	-0
1.30333	-1
1.30700	-1
1.31067	-1
1.31433	-1
1.31800	-1
1.32167	-2
1.32533	-2
1.32900	-2
1.33267	-2
1.33633	-2
1.34000	-3
1.34367	-3
1.34733	-3
1.35100	-3
1.35467	-3
1.35833	-3
1.36200	-4
1.36567	-4
1.36933	-4
1.37300	-4
1.37667	-4
1.38033	-5
1.38400	-5
1.38767	-5
1.39133	-5
1.39500	-5
1.39867	-6
1.40233	-6
1.40600	-7
1.40967	-7
1.41333	-7
1.41700	-6
1.42067	-6
1.42433	-5
1.42800	-5
1.43167	-4
1.43533	-4
1.43900	-3
1.44267	-3
1.44633	-3
1.45000	-3
1.45367	-4
1.45733	-4
1.46100	-4
1.46467	-4
1.46833	-4
1.47200	-4
1.47567	-4
1.47933	-4
1.48300	-4
1.48667	-4
1.49033	-4
1.49400	-4
1.49767	-3
1.50133	-3
1.50500	-3
1.50867	-3
1.51233	-2
1.51600	-2
1.51967	-2
1.52333	-2
1.52700	-2
1.53067	-2
1.53433	-2
1.53800	-2
1.54167	-2
1.54533	-2
1.54900	-3
1.55267	-3
1.55633	-3
1.56000	-4
1.56367	-4
1.56733	-5
1.57100	-5
1.57467	-5
1.57833	-5
1.58200	-5
1.58567	-5
1.58933	-5
1.59300	-5
1.59667	-5
1.60033	-6
1.60400	-7
1.60767	-8
1.61133	-10
1.61500	-12
1.61867	-14
1.62233	-16
1.62600	-19
1.62967	-21
1.63333	-25
1.63700	-28
1.64067	-31
1.64433	-35
1.64800	-39
1.65167	-43
1.65533	-47
1.65900	-50
1.66267	-54
1.66633	-58
1.67000	-62
1.67367	-67
1.67733	-71
1.68100	-76
1.68467	-81
1.68833	-86
1.69200	-90
1.69567	-94
1.69933	-98
1.70300	-100
1.70667	-103
1.71033	-105
1.71400	-107
1.71767	-109
1.72133	-110
1.72500	-111
1.72867	-112
1.73233	-112
1.73600	-112
1.73967	-112
1.74333	-112
1.74700	-112
1.75067	-113
1.75433	-113
1.75800	-114
1.76167	-115
1.76533	-116
1.76900	-117
1.77267	-118
1.77633	-119
1.78000	-119
1.78367	-119
1.78733	-119
1.79100	-120
1.79467	-120
1.79833	-120
1.80200	-120
1.80567	-121
1.80933	-121
1.81300	-121
1.81667	-121
1.82033	-121
1.82400	-120
1.82767	-120
1.83133	-119
1.83500	-119
1.83867	-119
1.84233	-119
1.84600	-119
1.84967	-119
1.85333	-119
1.85700	-120
1.86067	-120
1.86433	-120
1.86800	-120
1.87167	-120
1.87533	-120
1.87900	-121
1.88267	-121
1.88633	-121
1.89000	-122
1.89367	-122
1.89733	-122
1.90100	-122
1.90467	-122
1.90833	-122
1.91200	-122
1.91567	-122
1.91933	-122
1.92300	-121
1.92667	-121
1.93033	-121
1.93400	-121
1.93767	-121
1.94133	-121
1.94500	-121
1.94867	-120
1.95233	-120
1.95600	-120
1.95967	-120
1.96333	-120
1.96700	-120
1.97067	-120
1.97433	-119
1.97800	-119
1.98167	-118
1.98533	-118
1.98900	-117
1.99267	-117
1.99633	-117
2.00000	-116
2.00367	-116
2.00733	-116
2.01100	-115
2.01467	-114
2.01833	-114
2.02200	-113
2.02567	-113
2.02933	-112
2.03300	-112
2.03667	-111
2.04033	-111
2.04400	-110
2.04767	-109
2.05133	-109
2.05500	-108
2.05867	-108
2.06233	-107
2.06600	-107
2.06967	-107
2.07333	-107
2.07700	-108
2.08067	-108
2.08433	-109
2.08800	-109
2.09167	-109
2.09533	-109
2.09900	-109
2.10267	-108
2.10633	-108
2.11000	-108
2.11367	-108
2.11733	-108
2.12100	-108
2.12467	-108
2.12833	-108
2.13200	-107
2.13567	-107
2.13933	-106
2.14300	-106
2.14667	-105
2.15033	-105
2.15400	-104
2.15767	-103
2.16133	-102
2.16500	-102
2.16867	-101
2.17233	-101
2.17600	-101
2.17967	-100
2.18333	-100
2.18700	-99
2.19067	-99
2.19433	-98
2.19800	-97
2.20167	-96
2.20533	-96
2.20900	-95
2.21267	-95
2.21633	-95
2.22000	-95
2.22367	-95
2.22733	-95
2.23100	-94
2.23467	-93
2.23833	-93
2.24200	-92
2.24567	-92
2.24933	-92
2.25300	-92
2.25667	-92
2.26033	-92
2.26400	-92
2.26767	-92
2.27133	-92
2.27500	-92
2.27867	-91
2.28233	-91
2.28600	-91
2.28967	-91
2.29333	-91
2.29700	-92
2.30067	-92
2.30433	-92
2.30800	-92
2.31167	-92
2.31533	-92
2.31900	-91
2.32267	-91
2.32633	-90
2.33000	-89
2.33367	-89
2.33733	-88
2.34100	-88
2.34467	-87
2.34833	-87
2.35200	-86
2.35567	-85
2.35933	-83
2.36300	-82
2.36667	-80
2.37033	-78
2.37400	-76
2.37767	-74
2.38133	-71
2.38500	-67
2.38867	-63
2.39233	-59
2.39600	-55
2.39967	-50
2.40333	-46
2.40700	-41
2.41067	-37
2.41433	-33
2.41800	-29
2.42167	-25
2.42533	-22
2.42900	-20
2.43267	-18
2.43633	-16
2.44000	-15
2.44367	-13
2.44733	-12
2.45100	-10
2.45467	-8
2.45833	-6
2.46200	-4
2.46567	-3
2.46933	-1
2.47300	0
2.47667	1
2.48033	2
2.48400	3
2.48767	4
2.49133	5
2.49500	6
2.49867	7
2.50233	8
2.50600	9
2.50967	9
2.51333	10
2.51700	10
2.52067	10
2.52433	10
2.52800	10
2.53167	10
2.53533	10
2.53900	11
2.54267	10
2.54633	11
2.55000	11
2.55367	11
2.55733	12
2.56100	12
2.56467	13
2.56833	13
2.57200	14
2.57567	14
2.57933	14
2.58300	14
2.58667	14
2.59033	15
2.59400	15
2.59767	15
2.60133	15
2.60500	16
2.60867	16
2.61233	15
2.61600	15
2.61967	15
2.62333	14
2.62700	15
2.63067	15
2.63433	15
2.63800	15
2.64167	16
2.64533	17
2.64900	17
2.65267	18
2.65633	18
2.66000	18
2.66367	18
2.66733	18
2.67100	19
2.67467	19
2.67833	19
2.68200	19
2.68567	20
2.68933	20
2.69300	20
2.69667	21
2.70033	21
2.70400	22
2.70767	22
2.71133	22
2.71500	22
2.71867	22
2.72233	23
2.72600	22
2.72967	22
2.73333	22
2.73700	22
2.74067	22
2.74433	21
2.74800	21
2.75167	21
2.75533	21
2.75900	21
2.76267	21
2.76633	21
2.77000	21
2.77367	21
2.77733	22
2.78100	22
2.78467	22
2.78833	22
2.79200	22
2.79567	22
2.79933	22
2.80300	22
2.80667	22
2.81033	23
2.81400	23
2.81767	23
2.82133	23
2.82500	23
2.82867	23
2.83233	23
2.83600	23
2.83967	23
2.84333	23
2.84700	23
2.85067	23
2.85433	23
2.85800	23
2.86167	23
2.86533	23
2.86900	22
2.87267	20
2.87633	16
2.88000	10
2.88367	2
2.88733	-10
2.89100	-25
2.89467	-44
2.89833	-66
2.90200	-92
2.90567	-121
2.90933	-152
2.91300	-186
2.91667	-222
2.92033	-261
2.92400	-304
2.92767	-348
2.93133	-389
2.93500	-422
2.93867	-442
2.94233	-449
2.94600	-443
2.94967	-426
2.95333	-401
2.95700	-370
2.96067	-337
2.96433	-303
2.96800	-269
2.97167	-237
2.97533	-207
2.97900	-179
2.98267	-154
2.98633	-131
2.99000	-111
2.99367	-93
2.99733	-78
3.00100	-64
3.00467	-52
3.00833	-42
3.01200	-33
3.01567	-26
3.01933	-19
3.02300	-14
3.02667	-9
3.03033	-5
3.03400	-2
3.03767	1
3.04133	3
3.04500	6
3.04867	8
3.05233	9
3.05600	10
3.05967	11
3.06333	12
3.06700	13
3.07067	14
3.07433	14
3.07800	15
3.08167	15
3.08533	15
3.08900	15
3.09267	15
3.09633	15
3.10000	16
3.10367	16
3.10733	17
3.11100	17
3.11467	18
3.11833	18
3.12200	18
3.12567	19
3.12933	19
3.13300	19
3.13667	20
3.14033	20
3.14400	20
3.14767	20
3.15133	21
3.15500	21
3.15867	21
3.16233	21
3.16600	21
3.16967	21
3.17333	21
3.17700	21
3.18067	21
3.18433	21
3.18800	21
3.19167	21
3.19533	21
3.19900	21
3.20267	21
3.20633	21
3.21000	21
3.21367	21
3.21733	21
3.22100	21
3.22467	21
3.22833	21
3.23200	21
3.23567	21
3.23933	21
3.24300	22
3.24667	22
3.25033	22
3.25400	23
3.25767	23
3.26133	23
3.26500	23
3.26867	23
3.27233	23
3.27600	24
3.27967	24
3.28333	24
3.28700	24
3.29067	24
3.29433	24
3.29800	24
3.30167	24
3.30533	24
3.30900	24
3.31267	24
3.31633	24
3.32000	24
3.32367	24
3.32733	24
3.33100	24
3.33467	24
3.33833	24
3.34200	24
3.34567	24
3.34933	24
3.35300	25
3.35667	25
3.36033	25
3.36400	25
3.36767	25
3.37133	24
3.37500	24
3.37867	24
3.38233	24
3.38600	24
3.38967	24
3.39333	24
3.39700	24
3.40067	24
3.40433	24
3.40800	24
3.41167	25
3.41533	25
3.41900	25
3.42267	25
3.42633	25
3.43000	25
3.43367	26
3.43733	26
3.44100	26
3.44467	26
3.44833	26
3.45200	26
3.45567	26
3.45933	26
3.46300	26
3.46667	26
3.47033	26
3.47400	26
3.47767	26
3.48133	25
3.48500	25
3.48867	25
3.49233	25
3.49600	25
3.49967	24
3.50333	24
3.50700	24
3.51067	24
3.51433	23
3.51800	23
3.52167	23
3.52533	23
3.52900	23
3.53267	23
3.53633	23
3.54000	23
3.54367	23
3.54733	23
3.55100	23
3.55467	23
3.55833	23
3.56200	23
3.56567	23
3.56933	23
3.57300	24
3.57667	24
3.58033	24
3.58400	24
3.58767	24
3.59133	24
3.59500	24
3.59867	24
3.60233	24
3.60600	24
3.60967	24
3.61333	24
3.61700	24
3.62067	24
3.62433	24
3.62800	24
3.63167	24
3.63533	24
3.63900	24
3.64267	24
3.64633	24
3.65000	24
3.65367	24
3.65733	24
3.66100	24
3.66467	24
3.66833	23
3.67200	23
3.67567	23
3.67933	23
3.68300	23
3.68667	23
3.69033	23
3.69400	23
3.69767	23
3.70133	23
3.70500	23
3.70867	23
3.71233	23
3.71600	23
3.71967	23
3.72333	23
3.72700	23
3.73067	23
3.73433	23
3.73800	23
3.74167	23
3.74533	23
3.74900	23
3.75267	23
3.75633	23
3.76000	23
3.76367	23
3.76733	23
3.77100	23
3.77467	23
3.77833	23
3.78200	23
3.78567	23
3.78933	23
3.79300	23
3.79667	23
3.80033	23
3.80400	23
3.80767	23
3.81133	23
3.81500	23
3.81867	23
3.82233	24
3.82600	24
3.82967	24
3.83333	24
3.83700	24
3.84067	24
3.84433	24
3.84800	24
3.85167	24
3.85533	24
3.85900	24
3.86267	24
3.86633	24
3.87000	24
3.87367	24
3.87733	24
3.88100	25
3.88467	25
3.88833	25
3.89200	25
3.89567	24
3.89933	24
3.90300	24
3.90667	24
3.91033	24
3.91400	24
3.91767	24
3.92133	23
3.92500	23
3.92867	23
3.93233	23
3.93600	24
3.93967	24
3.94333	24
3.94700	24
3.95067	25
3.95433	25
3.95800	25
3.96167	25
3.96533	25
3.96900	25
3.97267	25
3.97633	25
3.98000	25
3.98367	25
3.98733	25
3.99100	25
3.99467	24
3.99833	24

[Chromatogram (Ch3)]
Interval(msec)	220
# of Points	1091
Start Time(min)	0.002
End Time(min)	3.998
R.Time (min)	Intensity
0.00167	1
0.00533	2
0.00900	3
0.01267	3
0.01633	3
0.02000	1
0.02367	0
0.02733	1
0.03100	4
0.03467	9
0.03833	9
0.04200	8
0.04567	6
0.04933	4
0.05300	2
0.05667	2
0.06033	1
0.06400	1
0.06767	3
0.07133	4
0.07500	4
0.07867	4
0.08233	2
0.08600	0
0.08967	1
0.09333	2
0.09700	3
0.10067	3
0.10433	4
0.10800	3
0.11167	3
0.11533	4
0.11900	6
0.12267	6
0.12633	8
0.13000	12
0.13367	12
0.13733	11
0.14100	12
0.14467	10
0.14833	10
0.15200	9
0.15567	10
0.15933	11
0.16300	13
0.16667	14
0.17033	14
0.17400	13
0.17767	13
0.18133	12
0.18500	11
0.18867	11
0.19233	11
0.19600	11
0.19967	12
0.20333	16
0.20700	19
0.21067	18
0.21433	19
0.21800	19
0.22167	18
0.22533	16
0.22900	15
0.23267	13
0.23633	12
0.24000	13
0.24367	15
0.24733	16
0.25100	16
0.25467	18
0.25833	19
0.26200	20
0.26567	20
0.26933	19
0.27300	19
0.27667	20
0.28033	19
0.28400	16
0.28767	15
0.29133	14
0.29500	12
0.29867	12
0.30233	14
0.30600	17
0.30967	18
0.31333	20
0.31700	21
0.32067	22
0.32433	24
0.32800	24
0.33167	23
0.33533	23
0.33900	23
0.34267	22
0.34633	21
0.35000	21
0.35367	24
0.35733	27
0.36100	27
0.36467	27
0.36833	27
0.37200	27
0.37567	27
0.37933	25
0.38300	25
0.38667	25
0.39033	26
0.39400	25
0.39767	25
0.40133	27
0.40500	29
0.40867	30
0.41233	31
0.41600	30
0.41967	31
0.42333	32
0.42700	33
0.43067	31
0.43433	31
0.43800	31
0.44167	30
0.44533	30
0.44900	31
0.45267	29
0.45633	29
0.46000	29
0.46367	27
0.46733	26
0.47100	26
0.47467	26
0.47833	27
0.48200	29
0.48567	31
0.48933	31
0.49300	31
0.49667	30
0.50033	29
0.50400	30
0.50767	30
0.51133	32
0.51500	34
0.51867	36
0.52233	36
0.52600	35
0.52967	34
0.53333	33
0.53700	34
0.54067	34
0.54433	33
0.54800	34
0.55167	34
0.55533	34
0.55900	35
0.56267	35
0.56633	35
0.57000	35
0.57367	37
0.57733	37
0.58100	39
0.58467	40
0.58833	38
0.59200	36
0.59567	35
0.59933	36
0.60300	37
0.60667	37
0.61033	37
0.61400	39
0.61767	40
0.62133	43
0.62500	45
0.62867	47
0.63233	48
0.63600	48
0.63967	46
0.64333	45
0.64700	43
0.65067	41
0.65433	40
0.65800	43
0.66167	43
0.66533	40
0.66900	38
0.67267	39
0.67633	41
0.68000	42
0.68367	41
0.68733	40
0.69100	39
0.69467	39
0.69833	40
0.70200	39
0.70567	38
0.70933	35
0.71300	33
0.71667	36
0.72033	40
0.72400	40
0.72767	39
0.73133	39
0.73500	38
0.73867	39
0.74233	39
0.74600	38
0.74967	38
0.75333	38
0.75700	38
0.76067	37
0.76433	38
0.76800	39
0.77167	41
0.77533	41
0.77900	40
0.78267	40
0.78633	40
0.79000	40
0.79367	41
0.79733	40
0.80100	38
0.80467	40
0.80833	42
0.81200	42
0.81567	42
0.81933	42
0.82300	41
0.82667	40
0.83033	39
0.83400	40
0.83767	42
0.84133	42
0.84500	42
0.84867	44
0.85233	45
0.85600	45
0.85967	43
0.86333	39
0.86700	39
0.87067	40
0.87433	39
0.87800	37
0.88167	37
0.88533	39
0.88900	42
0.89267	45
0.89633	45
0.90000	43
0.90367	41
0.90733	41
0.91100	41
0.91467	42
0.91833	42
0.92200	44
0.92567	44
0.92933	45
0.93300	46
0.93667	45
0.94033	44
0.94400	47
0.94767	47
0.95133	48
0.95500	50
0.95867	52
0.96233	53
0.96600	55
0.96967	59
0.97333	61
0.97700	60
0.98067	57
0.98433	56
0.98800	57
0.99167	58
0.99533	59
0.99900	60
1.00267	59
1.00633	59
1.01000	61
1.01367	61
1.01733	61
1.02100	60
1.02467	60
1.02833	59
1.03200	60
1.03567	61
1.03933	61
1.04300	62
1.04667	61
1.05033	61
1.05400	63
1.05767	64
1.06133	63
1.06500	63
1.06867	64
1.07233	64
1.07600	63
1.07967	62
1.08333	62
1.08700	61
1.09067	61
1.09433	62
1.09800	61
1.10167	62
1.10533	63
1.10900	65
1.11267	67
1.11633	67
1.12000	66
1.12367	68
1.12733	73
1.13100	75
1.13467	72
1.13833	68
1.14200	67
1.14567	67
1.14933	67
1.15300	67
1.15667	67
1.16033	65
1.16400	63
1.16767	61
1.17133	61
1.17500	61
1.17867	62
1.18233	63
1.18600	63
1.18967	62
1.19333	62
1.19700	62
1.20067	62
1.20433	63
1.20800	65
1.21167	65
1.21533	62
1.21900	61
1.22267	61
1.22633	61
1.23000	61
1.23367	62
1.23733	66
1.24100	67
1.24467	65
1.24833	63
1.25200	63
1.25567	65
1.25933	66
1.26300	65
1.26667	64
1.27033	64
1.27400	64
1.27767	63
1.28133	62
1.28500	60
1.28867	57
1.29233	57
1.29600	59
1.29967	60
1.30333	60
1.30700	59
1.31067	59
1.31433	56
1.31800	53
1.32167	54
1.32533	56
1.32900	57
1.33267	58
1.33633	59
1.34000	60
1.34367	60
1.34733	61
1.35100	63
1.35467	65
1.35833	66
1.36200	64
1.36567	61
1.36933	60
1.37300	59
1.37667	59
1.38033	60
1.38400	61
1.38767	60
1.39133	60
1.39500	58
1.39867	55
1.40233	55
1.40600	58
1.40967	59
1.41333	62
1.41700	62
1.42067	60
1.42433	61
1.42800	62
1.43167	64
1.43533	67
1.43900	69
1.44267	69
1.44633	69
1.45000	69
1.45367	69
1.45733	70
1.46100	71
1.46467	72
1.46833	72
1.47200	72
1.47567	71
1.47933	69
1.48300	67
1.48667	64
1.49033	62
1.49400	63
1.49767	63
1.50133	64
1.50500	66
1.50867	68
1.51233	69
1.51600	69
1.51967	69
1.52333	67
1.52700	63
1.53067	63
1.53433	65
1.53800	65
1.54167	66
1.54533	67
1.54900	67
1.55267	69
1.55633	68
1.56000	67
1.56367	67
1.56733	68
1.57100	67
1.57467	67
1.57833	66
1.58200	66
1.58567	68
1.58933	68
1.59300	68
1.59667	68
1.60033	66
1.60400	66
1.60767	67
1.61133	67
1.61500	68
1.61867	71
1.62233	74
1.62600	74
1.62967	74
1.63333	77
1.63700	79
1.64067	79
1.64433	79
1.64800	81
1.65167	81
1.65533	80
1.65900	78
1.66267	79
1.66633	80
1.67000	80
1.67367	82
1.67733	82
1.68100	80
1.68467	78
1.68833	79
1.69200	80
1.69567	81
1.69933	83
1.70300	84
1.70667	85
1.71033	85
1.71400	86
1.71767	87
1.72133	89
1.72500	90
1.72867	90
1.73233	90
1.73600	91
1.73967	92
1.74333	90
1.74700	89
1.75067	92
1.75433	92
1.75800	94
1.76167	97
1.76533	99
1.76900	101
1.77267	102
1.77633	104
1.78000	106
1.78367	108
1.78733	108
1.79100	109
1.79467	109
1.79833	108
1.80200	108
1.80567	108
1.80933	111
1.81300	114
1.81667	114
1.82033	115
1.82400	115
1.82767	117
1.83133	118
1.83500	118
1.83867	117
1.84233	114
1.84600	112
1.84967	113
1.85333	113
1.85700	113
1.86067	113
1.86433	113
1.86800	113
1.87167	114
1.87533	118
1.87900	119
1.88267	118
1.88633	119
1.89000	120
1.89367	121
1.89733	123
1.90100	124
1.90467	123
1.90833	121
1.91200	121
1.91567	121
1.91933	121
1.92300	122
1.92667	121
1.93033	122
1.93400	124
1.93767	128
1.94133	132
1.94500	134
1.94867	135
1.95233	136
1.95600	136
1.95967	138
1.96333	138
1.96700	139
1.97067	142
1.97433	143
1.97800	145
1.98167	145
1.98533	146
1.98900	147
1.99267	148
1.99633	146
2.00000	143
2.00367	144
2.00733	147
2.01100	149
2.01467	151
2.01833	154
2.02200	157
2.02567	160
2.02933	164
2.03300	167
2.03667	168
2.04033	167
2.04400	165
2.04767	166
2.05133	170
2.05500	173
2.05867	177
2.06233	178
2.06600	178
2.06967	177
2.07333	177
2.07700	180
2.08067	183
2.08433	184
2.08800	186
2.09167	188
2.09533	190
2.09900	190
2.10267	190
2.10633	192
2.11000	194
2.11367	196
2.11733	196
2.12100	198
2.12467	201
2.12833	201
2.13200	202
2.13567	206
2.13933	209
2.14300	211
2.14667	212
2.15033	212
2.15400	213
2.15767	213
2.16133	211
2.16500	214
2.16867	219
2.17233	221
2.17600	220
2.17967	219
2.18333	218
2.18700	220
2.19067	222
2.19433	226
2.19800	227
2.20167	227
2.20533	227
2.20900	228
2.21267	231
2.21633	237
2.22000	241
2.22367	242
2.22733	244
2.23100	245
2.23467	246
2.23833	245
2.24200	244
2.24567	243
2.24933	244
2.25300	246
2.25667	248
2.26033	251
2.26400	254
2.26767	257
2.27133	258
2.27500	259
2.27867	259
2.28233	259
2.28600	258
2.28967	258
2.29333	259
2.29700	260
2.30067	263
2.30433	267
2.30800	267
2.31167	269
2.31533	273
2.31900	275
2.32267	274
2.32633	276
2.33000	279
2.33367	280
2.33733	279
2.34100	280
2.34467	282
2.34833	282
2.35200	283
2.35567	284
2.35933	286
2.36300	287
2.36667	290
2.37033	294
2.37400	295
2.37767	296
2.38133	297
2.38500	295
2.38867	294
2.39233	294
2.39600	293
2.39967	292
2.40333	292
2.40700	292
2.41067	293
2.41433	298
2.41800	301
2.42167	301
2.42533	301
2.42900	301
2.43267	303
2.43633	306
2.44000	306
2.44367	308
2.44733	309
2.45100	308
2.45467	310
2.45833	323
2.46200	349
2.46567	384
2.46933	429
2.47300	477
2.47667	527
2.48033	575
2.48400	621
2.48767	664
2.49133	701
2.49500	733
2.49867	760
2.50233	788
2.50600	813
2.50967	836
2.51333	856
2.51700	873
2.52067	890
2.52433	905
2.52800	918
2.53167	931
2.53533	941
2.53900	951
2.54267	960
2.54633	969
2.55000	976
2.55367	981
2.55733	986
2.56100	992
2.56467	996
2.56833	997
2.57200	996
2.57567	998
2.57933	1002
2.58300	1005
2.58667	1003
2.59033	1000
2.59400	998
2.59767	998
2.60133	1000
2.60500	999
2.60867	994
2.61233	991
2.61600	989
2.61967	982
2.62333	969
2.62700	951
2.63067	930
2.63433	909
2.63800	889
2.64167	868
2.64533	847
2.64900	831
2.65267	816
2.65633	805
2.66000	800
2.66367	797
2.66733	794
2.67100	791
2.67467	789
2.67833	790
2.68200	794
2.68567	796
2.68933	796
2.69300	796
2.69667	795
2.70033	795
2.70400	795
2.70767	793
2.71133	793
2.71500	794
2.71867	796
2.72233	797
2.72600	798
2.72967	798
2.73333	799
2.73700	799
2.74067	795
2.74433	791
2.74800	788
2.75167	784
2.75533	781
2.75900	780
2.76267	779
2.76633	774
2.77000	768
2.77367	761
2.77733	756
2.78100	754
2.78467	752
2.78833	749
2.79200	747
2.79567	745
2.79933	741
2.80300	737
2.80667	734
2.81033	732
2.81400	728
2.81767	725
2.82133	722
2.82500	720
2.82867	718
2.83233	718
2.83600	715
2.83967	713
2.84333	715
2.84700	726
2.85067	752
2.85433	808
2.85800	909
2.86167	1065
2.86533	1278
2.86900	1534
2.87267	1808
2.87633	2069
2.88000	2287
2.88367	2443
2.88733	2530
2.89100	2548
2.89467	2506
2.89833	2417
2.90200	2294
2.90567	2154
2.90933	2007
2.91300	1860
2.91667	1722
2.92033	1592
2.92400	1475
2.92767	1369
2.93133	1273
2.93500	1188
2.93867	1113
2.94233	1047
2.94600	990
2.94967	939
2.95333	896
2.95700	859
2.96067	826
2.96433	798
2.96800	771
2.97167	747
2.97533	727
2.97900	713
2.98267	700
2.98633	687
2.99000	674
2.99367	662
2.99733	651
3.00100	640
3.00467	631
3.00833	623
3.01200	617
3.01567	610
3.01933	605
3.02300	601
3.02667	597
3.03033	593
3.03400	590
3.03767	585
3.04133	578
3.04500	575
3.04867	573
3.05233	569
3.05600	566
3.05967	564
3.06333	562
3.06700	560
3.07067	556
3.07433	548
3.07800	544
3.08167	541
3.08533	539
3.08900	537
3.09267	534
3.09633	531
3.10000	529
3.10367	526
3.10733	523
3.11100	520
3.11467	517
3.11833	513
3.12200	508
3.12567	505
3.12933	503
3.13300	502
3.13667	502
3.14033	501
3.14400	497
3.14767	492
3.15133	486
3.15500	479
3.15867	475
3.16233	471
3.16600	467
3.16967	463
3.17333	459
3.17700	455
3.18067	450
3.18433	447
3.18800	447
3.19167	446
3.19533	443
3.19900	439
3.20267	434
3.20633	430
3.21000	424
3.21367	419
3.21733	416
3.22100	414
3.22467	412
3.22833	410
3.23200	407
3.23567	403
3.23933	400
3.24300	396
3.24667	391
3.25033	385
3.25400	378
3.25767	372
3.26133	370
3.26500	370
3.26867	368
3.27233	365
3.27600	360
3.27967	354
3.28333	347
3.28700	341
3.29067	335
3.29433	330
3.29800	326
3.30167	321
3.30533	315
3.30900	312
3.31267	309
3.31633	305
3.32000	299
3.32367	293
3.32733	287
3.33100	283
3.33467	280
3.33833	276
3.34200	273
3.34567	269
3.34933	263
3.35300	259
3.35667	254
3.36033	250
3.36400	244
3.36767	236
3.37133	229
3.37500	225
3.37867	221
3.38233	216
3.38600	212
3.38967	209
3.39333	207
3.39700	203
3.40067	199
3.40433	196
3.40800	194
3.41167	190
3.41533	185
3.41900	181
3.42267	176
3.42633	172
3.43000	169
3.43367	165
3.43733	159
3.44100	152
3.44467	146
3.44833	139
3.45200	134
3.45567	129
3.45933	124
3.46300	117
3.46667	112
3.47033	108
3.47400	104
3.47767	101
3.48133	96
3.48500	89
3.48867	85
3.49233	84
3.49600	81
3.49967	77
3.50333	75
3.50700	72
3.51067	69
3.51433	66
3.51800	63
3.52167	61
3.52533	60
3.52900	58
3.53267	56
3.53633	53
3.54000	51
3.54367	47
3.54733	43
3.55100	40
3.55467	37
3.55833	34
3.56200	31
3.56567	30
3.56933	29
3.57300	29
3.57667	27
3.58033	23
3.58400	20
3.58767	17
3.59133	14
3.59500	13
3.59867	13
3.60233	12
3.60600	10
3.60967	7
3.61333	4
3.61700	1
3.62067	-2
3.62433	-3
3.62800	-2
3.63167	-2
3.63533	-2
3.63900	-2
3.64267	-1
3.64633	1
3.65000	1
3.65367	-2
3.65733	-5
3.66100	-7
3.66467	-8
3.66833	-7
3.67200	-5
3.67567	-5
3.67933	-6
3.68300	-8
3.68667	-10
3.69033	-12
3.69400	-13
3.69767	-12
3.70133	-11
3.70500	-12
3.70867	-14
3.71233	-14
3.71600	-12
3.71967	-12
3.72333	-12
3.72700	-10
3.73067	-9
3.73433	-10
3.73800	-12
3.74167	-14
3.74533	-15
3.74900	-14
3.75267	-11
3.75633	-11
3.76000	-12
3.76367	-12
3.76733	-13
3.77100	-14
3.77467	-13
3.77833	-12
3.78200	-11
3.78567	-11
3.78933	-8
3.79300	-7
3.79667	-8
3.80033	-9
3.80400	-10
3.80767	-10
3.81133	-11
3.81500	-14
3.81867	-14
3.82233	-13
3.82600	-10
3.82967	-8
3.83333	-7
3.83700	-4
3.84067	-2
3.84433	-2
3.84800	-1
3.85167	-1
3.85533	2
3.85900	5
3.86267	8
3.86633	9
3.87000	8
3.87367	7
3.87733	8
3.88100	8
3.88467	10
3.88833	12
3.89200	12
3.89567	12
3.89933	11
3.90300	10
3.90667	12
3.91033	16
3.91400	17
3.91767	18
3.92133	21
3.92500	24
3.92867	26
3.93233	27
3.93600	27
3.93967	27
3.94333	27
3.94700	26
3.95067	25
3.95433	23
3.95800	22
3.96167	24
3.96533	26
3.96900	26
3.97267	26
3.97633	30
3.98000	35
3.98367	37
3.98733	38
3.99100	38
3.99467	39
3.99833	39

[Status Trace (Column Oven Temperature)]
Interval(msec)	1000
# of Points	240
Start Time(min)	0.016
End Time(min)	4.000
Intensity Units	
Intensity Multiplier	1
R.Time (min)	Intensity
0.01647	35.01
0.03313	35.00
0.04980	35.01
0.06647	35.00
0.08313	34.99
0.09980	34.97
0.11647	34.98
0.13313	34.99
0.14980	34.99
0.16647	35.00
0.18313	34.99
0.19980	34.98
0.21647	34.98
0.23313	34.97
0.24980	34.98
0.26647	34.99
0.28313	34.99
0.29980	34.99
0.31647	35.01
0.33313	35.01
0.34980	35.01
0.36647	35.00
0.38313	34.99
0.39980	34.99
0.41647	35.00
0.43313	34.99
0.44980	34.99
0.46647	34.99
0.48313	34.98
0.49980	34.99
0.51647	34.98
0.53313	34.98
0.54980	34.98
0.56647	34.98
0.58313	34.98
0.59980	34.99
0.61647	34.99
0.63313	34.99
0.64980	34.99
0.66647	34.99
0.68313	34.99
0.69980	34.98
0.71647	34.97
0.73313	34.97
0.74980	34.96
0.76647	34.96
0.78313	34.97
0.79980	34.96
0.81647	34.95
0.83313	34.95
0.84980	34.95
0.86647	34.95
0.88313	34.95
0.89980	34.95
0.91647	34.96
0.93313	34.98
0.94980	35.00
0.96647	35.01
0.98313	35.02
0.99980	35.02
1.01647	35.02
1.03313	35.00
1.04980	35.00
1.06647	35.00
1.08313	35.00
1.09980	34.99
1.11647	34.99
1.13313	35.00
1.14980	35.01
1.16647	35.02
1.18313	35.03
1.19980	35.03
1.21647	35.02
1.23313	35.01
1.24980	34.99
1.26647	34.97
1.28313	34.97
1.29980	34.98
1.31647	34.97
1.33313	34.97
1.34980	34.98
1.36647	34.98
1.38313	35.00
1.39980	35.01
1.41647	35.01
1.43313	35.00
1.44980	35.00
1.46647	35.01
1.48313	35.01
1.49980	35.01
1.51647	35.01
1.53313	35.00
1.54980	35.01
1.56647	35.02
1.58313	35.02
1.59980	35.05
1.61647	35.14
1.63313	35.29
1.64980	35.51
1.66647	35.78
1.68313	36.14
1.69980	36.50
1.71647	36.86
1.73313	37.18
1.74980	37.49
1.76647	37.85
1.78313	38.17
1.79980	38.50
1.81647	38.84
1.83313	39.15
1.84980	39.48
1.86647	39.82
1.88313	40.15
1.89980	40.49
1.91647	40.81
1.93313	41.15
1.94980	41.48
1.96647	41.81
1.98313	42.14
1.99980	42.47
2.01647	42.78
2.03313	43.12
2.04980	43.43
2.06647	43.76
2.08313	44.10
2.09980	44.43
2.11647	44.75
2.13313	45.08
2.14980	45.41
2.16647	45.72
2.18313	46.05
2.19980	46.36
2.21647	46.69
2.23313	47.02
2.24980	47.34
2.26647	47.66
2.28313	47.99
2.29980	48.35
2.31647	48.66
2.33313	48.99
2.34980	49.29
2.36647	49.54
2.38313	49.66
2.39980	49.67
2.41647	49.66
2.43313	49.68
2.44980	49.69
2.46647	49.68
2.48313	49.69
2.49980	49.70
2.51647	49.71
2.53313	49.73
2.54980	49.75
2.56647	49.76
2.58313	49.78
2.59980	49.78
2.61647	49.83
2.63313	49.84
2.64980	49.85
2.66647	49.85
2.68313	49.85
2.69980	49.84
2.71647	49.85
2.73313	49.86
2.74980	49.87
2.76647	49.86
2.78313	49.87
2.79980	49.87
2.81647	49.88
2.83313	49.89
2.84980	49.90
2.86647	49.90
2.88313	49.92
2.89980	49.95
2.91647	49.97
2.93313	49.98
2.94980	49.99
2.96647	49.99
2.98313	49.99
2.99980	50.00
3.01647	50.00
3.03313	50.01
3.04980	50.02
3.06647	50.04
3.08313	50.06
3.09980	50.07
3.11647	50.08
3.13313	50.08
3.14980	50.08
3.16647	50.08
3.18313	50.09
3.19980	50.09
3.21647	50.10
3.23313	50.10
3.24980	50.10
3.26647	50.10
3.28313	50.10
3.29980	50.09
3.31647	50.09
3.33313	50.08
3.34980	50.07
3.36647	50.07
3.38313	50.08
3.39980	50.07
3.41647	50.05
3.43313	50.04
3.44980	50.04
3.46647	50.03
3.48313	50.03
3.49980	50.03
3.51647	50.03
3.53313	50.04
3.54980	50.05
3.56647	50.04
3.58313	50.04
3.59980	50.04
3.61647	50.04
3.63313	50.03
3.64980	50.04
3.66647	50.05
3.68313	50.05
3.69980	50.06
3.71647	50.06
3.73313	50.06
3.74980	50.07
3.76647	50.08
3.78313	50.08
3.79980	50.08
3.81647	50.08
3.83313	50.09
3.84980	50.09
3.86647	50.09
3.88313	50.08
3.89980	50.09
3.91647	50.09
3.93313	50.08
3.94980	50.08
3.96647	50.06
3.98313	50.06
3.99980	50.07

[Status Trace (Injection Unit Temperature)]
Interval(msec)	1000
# of Points	240
Start Time(min)	0.016
End Time(min)	4.000
Intensity Units	
Intensity Multiplier	1
R.Time (min)	Intensity
0.01647	99.98
0.03313	99.98
0.04980	99.99
0.06647	99.98
0.08313	99.99
0.09980	99.99
0.11647	99.99
0.13313	99.98
0.14980	99.99
0.16647	99.98
0.18313	99.99
0.19980	99.98
0.21647	99.99
0.23313	99.99
0.24980	99.99
0.26647	99.99
0.28313	99.99
0.29980	99.99
0.31647	99.98
0.33313	99.98
0.34980	99.98
0.36647	99.99
0.38313	99.99
0.39980	99.98
0.41647	99.99
0.43313	99.99
0.44980	99.99
0.46647	99.98
0.48313	99.98
0.49980	99.98
0.51647	99.98
0.53313	99.99
0.54980	99.98
0.56647	99.99
0.58313	99.99
0.59980	99.99
0.61647	99.98
0.63313	99.99
0.64980	99.99
0.66647	99.98
0.68313	99.98
0.69980	99.99
0.71647	99.99
0.73313	99.98
0.74980	99.99
0.76647	99.98
0.78313	99.99
0.79980	99.98
0.81647	99.98
0.83313	99.99
0.84980	99.99
0.86647	99.98
0.88313	99.99
0.89980	99.98
0.91647	99.98
0.93313	99.98
0.94980	99.99
0.96647	99.99
0.98313	99.98
0.99980	99.99
1.01647	99.98
1.03313	99.98
1.04980	99.99
1.06647	99.98
1.08313	99.98
1.09980	99.99
1.11647	99.98
1.13313	99.98
1.14980	99.99
1.16647	99.98
1.18313	99.99
1.19980	99.99
1.21647	99.98
1.23313	99.99
1.24980	99.99
1.26647	99.98
1.28313	99.99
1.29980	99.98
1.31647	99.99
1.33313	99.99
1.34980	99.99
1.36647	99.99
1.38313	99.99
1.39980	99.99
1.41647	99.99
1.43313	99.99
1.44980	99.99
1.46647	99.99
1.48313	99.99
1.49980	99.99
1.51647	99.99
1.53313	99.99
1.54980	99.99
1.56647	99.99
1.58313	99.99
1.59980	99.99
1.61647	99.99
1.63313	99.99
1.64980	99.99
1.66647	99.99
1.68313	99.99
1.69980	99.99
1.71647	99.99
1.73313	99.99
1.74980	99.99
1.76647	99.99
1.78313	99.99
1.79980	99.99
1.81647	99.99
1.83313	99.98
1.84980	99.99
1.86647	99.99
1.88313	99.99
1.89980	99.99
1.91647	99.98
1.93313	99.99
1.94980	99.98
1.96647	99.98
1.98313	99.99
1.99980	99.98
2.01647	99.98
2.03313	99.98
2.04980	99.98
2.06647	99.98
2.08313	99.98
2.09980	99.98
2.11647	99.98
2.13313	99.98
2.14980	99.97
2.16647	99.98
2.18313	99.98
2.19980	99.97
2.21647	99.97
2.23313	99.98
2.24980	99.97
2.26647	99.97
2.28313	99.97
2.29980	99.97
2.31647	99.97
2.33313	99.97
2.34980	99.97
2.36647	99.97
2.38313	99.97
2.39980	99.97
2.41647	99.97
2.43313	99.97
2.44980	99.97
2.46647	99.97
2.48313	99.97
2.49980	99.97
2.51647	99.97
2.53313	99.97
2.54980	99.97
2.56647	99.97
2.58313	99.97
2.59980	99.98
2.61647	99.98
2.63313	99.98
2.64980	99.98
2.66647	99.99
2.68313	99.98
2.69980	99.99
2.71647	99.99
2.73313	99.99
2.74980	99.99
2.76647	99.99
2.78313	99.99
2.79980	99.99
2.81647	100.00
2.83313	100.00
2.84980	100.00
2.86647	100.00
2.88313	100.00
2.89980	100.00
2.91647	100.01
2.93313	100.01
2.94980	100.01
2.96647	100.01
2.98313	100.01
2.99980	100.01
3.01647	100.01
3.03313	100.02
3.04980	100.02
3.06647	100.02
3.08313	100.02
3.09980	100.02
3.11647	100.02
3.13313	100.02
3.14980	100.03
3.16647	100.02
3.18313	100.02
3.19980	100.03
3.21647	100.03
3.23313	100.03
3.24980	100.03
3.26647	100.03
3.28313	100.03
3.29980	100.04
3.31647	100.04
3.33313	100.04
3.34980	100.04
3.36647	100.04
3.38313	100.04
3.39980	100.04
3.41647	100.05
3.43313	100.04
3.44980	100.04
3.46647	100.05
3.48313	100.05
3.49980	100.05
3.51647	100.05
3.53313	100.05
3.54980	100.05
3.56647	100.05
3.58313	100.05
3.59980	100.05
3.61647	100.05
3.63313	100.05
3.64980	100.05
3.66647	100.05
3.68313	100.05
3.69980	100.05
3.71647	100.05
3.73313	100.05
3.74980	100.05
3.76647	100.05
3.78313	100.06
3.79980	100.05
3.81647	100.05
3.83313	100.05
3.84980	100.05
3.86647	100.05
3.88313	100.05
3.89980	100.05
3.91647	100.05
3.93313	100.05
3.94980	100.05
3.96647	100.05
3.98313	100.05
3.99980	100.05

[Status Trace (Carrier Gas Pressure)]
Interval(msec)	1000
# of Points	240
Start Time(min)	0.016
End Time(min)	4.000
Intensity Units	
Intensity Multiplier	1
R.Time (min)	Intensity
0.01647	56.89
0.03313	55.90
0.04980	58.12
0.06647	59.90
0.08313	58.53
0.09980	57.97
0.11647	58.00
0.13313	58.01
0.14980	58.01
0.16647	58.00
0.18313	58.00
0.19980	58.00
0.21647	58.00
0.23313	58.00
0.24980	58.00
0.26647	58.00
0.28313	58.00
0.29980	58.00
0.31647	58.00
0.33313	58.00
0.34980	58.00
0.36647	58.00
0.38313	58.00
0.39980	58.00
0.41647	58.00
0.43313	58.00
0.44980	58.00
0.46647	58.00
0.48313	58.00
0.49980	58.00
0.51647	58.00
0.53313	58.00
0.54980	58.00
0.56647	58.00
0.58313	58.00
0.59980	58.00
0.61647	58.00
0.63313	58.00
0.64980	58.00
0.66647	58.00
0.68313	58.00
0.69980	58.00
0.71647	58.00
0.73313	58.00
0.74980	58.00
0.76647	58.00
0.78313	58.00
0.79980	58.00
0.81647	58.00
0.83313	58.00
0.84980	58.00
0.86647	58.00
0.88313	58.00
0.89980	58.00
0.91647	58.00
0.93313	58.00
0.94980	58.00
0.96647	58.00
0.98313	58.00
0.99980	58.00
1.01647	58.00
1.03313	58.00
1.04980	58.00
1.06647	58.00
1.08313	58.00
1.09980	58.00
1.11647	58.00
1.13313	58.00
1.14980	58.00
1.16647	58.00
1.18313	58.00
1.19980	58.00
1.21647	58.00
1.23313	58.00
1.24980	58.00
1.26647	58.00
1.28313	58.00
1.29980	58.00
1.31647	58.00
1.33313	58.00
1.34980	58.00
1.36647	58.00
1.38313	58.00
1.39980	58.00
1.41647	58.00
1.43313	58.00
1.44980	58.00
1.46647	58.00
1.48313	58.00
1.49980	58.00
1.51647	58.00
1.53313	58.00
1.54980	58.00
1.56647	58.00
1.58313	58.00
1.59980	58.00
1.61647	58.00
1.63313	58.01
1.64980	58.00
1.66647	58.00
1.68313	58.01
1.69980	58.00
1.71647	58.00
1.73313	58.00
1.74980	58.00
1.76647	58.00
1.78313	58.00
1.79980	58.00
1.81647	58.00
1.83313	58.00
1.84980	58.00
1.86647	58.00
1.88313	58.00
1.89980	58.00
1.91647	58.00
1.93313	58.00
1.94980	58.00
1.96647	58.00
1.98313	58.00
1.99980	58.00
2.01647	58.00
2.03313	58.00
2.04980	58.00
2.06647	58.00
2.08313	58.00
2.09980	58.00
2.11647	58.00
2.13313	58.00
2.14980	58.00
2.16647	58.00
2.18313	58.00
2.19980	58.00
2.21647	58.00
2.23313	58.00
2.24980	58.00
2.26647	58.00
2.28313	58.00
2.29980	58.00
2.31647	58.00
2.33313	58.00
2.34980	58.00
2.36647	58.00
2.38313	57.99
2.39980	57.99
2.41647	58.00
2.43313	58.00
2.44980	58.00
2.46647	58.00
2.48313	58.00
2.49980	58.00
2.51647	57.99
2.53313	57.99
2.54980	58.00
2.56647	58.00
2.58313	58.00
2.59980	58.00
2.61647	58.00
2.63313	58.00
2.64980	58.00
2.66647	58.00
2.68313	58.00
2.69980	58.00
2.71647	58.00
2.73313	58.00
2.74980	58.00
2.76647	58.00
2.78313	58.00
2.79980	58.00
2.81647	58.00
2.83313	58.00
2.84980	58.00
2.86647	58.00
2.88313	58.00
2.89980	58.00
2.91647	58.00
2.93313	58.00
2.94980	58.00
2.96647	58.00
2.98313	58.00
2.99980	58.00
3.01647	58.00
3.03313	58.00
3.04980	58.00
3.06647	58.00
3.08313	58.00
3.09980	58.00
3.11647	58.00
3.13313	58.00
3.14980	58.00
3.16647	58.00
3.18313	58.00
3.19980	58.00
3.21647	58.00
3.23313	58.00
3.24980	58.00
3.26647	58.00
3.28313	58.00
3.29980	58.00
3.31647	58.00
3.33313	58.00
3.34980	58.00
3.36647	58.00
3.38313	58.00
3.39980	58.00
3.41647	58.00
3.43313	58.00
3.44980	58.00
3.46647	58.00
3.48313	58.00
3.49980	58.00
3.51647	58.00
3.53313	58.00
3.54980	58.00
3.56647	58.00
3.58313	58.00
3.59980	58.00
3.61647	58.00
3.63313	58.00
3.64980	58.00
3.66647	58.00
3.68313	58.00
3.69980	58.00
3.71647	58.00
3.73313	58.00
3.74980	58.00
3.76647	58.00
3.78313	58.00
3.79980	58.00
3.81647	58.00
3.83313	58.00
3.84980	58.00
3.86647	58.00
3.88313	58.00
3.89980	58.00
3.91647	58.00
3.93313	58.00
3.94980	58.00
3.96647	58.00
3.98313	58.00
3.99980	58.00

[Status Trace (Carrier Gas Flow)]
Interval(msec)	1000
# of Points	240
Start Time(min)	0.016
End Time(min)	4.000
Intensity Units	
Intensity Multiplier	1
R.Time (min)	Intensity
0.01647	33.90
0.03313	34.54
0.04980	34.55
0.06647	34.52
0.08313	34.51
0.09980	34.52
0.11647	34.52
0.13313	34.52
0.14980	34.52
0.16647	34.52
0.18313	34.52
0.19980	34.52
0.21647	34.52
0.23313	34.52
0.24980	34.52
0.26647	34.52
0.28313	34.52
0.29980	34.52
0.31647	34.52
0.33313	34.52
0.34980	34.52
0.36647	34.52
0.38313	34.52
0.39980	34.52
0.41647	34.52
0.43313	34.52
0.44980	34.52
0.46647	34.52
0.48313	34.52
0.49980	34.52
0.51647	34.52
0.53313	34.52
0.54980	34.52
0.56647	34.52
0.58313	34.52
0.59980	34.52
0.61647	34.52
0.63313	34.52
0.64980	34.52
0.66647	34.52
0.68313	34.52
0.69980	34.52
0.71647	34.52
0.73313	34.52
0.74980	34.52
0.76647	34.52
0.78313	34.52
0.79980	34.52
0.81647	34.52
0.83313	34.52
0.84980	34.52
0.86647	34.52
0.88313	34.52
0.89980	34.52
0.91647	34.52
0.93313	34.52
0.94980	34.52
0.96647	34.52
0.98313	34.52
0.99980	34.52
1.01647	34.52
1.03313	34.52
1.04980	34.52
1.06647	34.52
1.08313	34.52
1.09980	34.52
1.11647	34.52
1.13313	34.52
1.14980	34.52
1.16647	34.52
1.18313	34.52
1.19980	34.52
1.21647	34.52
1.23313	34.52
1.24980	34.52
1.26647	34.52
1.28313	34.52
1.29980	34.52
1.31647	34.52
1.33313	34.52
1.34980	34.52
1.36647	34.52
1.38313	34.52
1.39980	34.52
1.41647	34.52
1.43313	34.52
1.44980	34.52
1.46647	34.52
1.48313	34.52
1.49980	34.52
1.51647	34.52
1.53313	34.52
1.54980	34.52
1.56647	34.52
1.58313	34.52
1.59980	34.52
1.61647	34.52
1.63313	34.52
1.64980	34.52
1.66647	34.52
1.68313	34.52
1.69980	34.52
1.71647	34.52
1.73313	34.52
1.74980	34.52
1.76647	34.52
1.78313	34.52
1.79980	34.52
1.81647	34.52
1.83313	34.52
1.84980	34.52
1.86647	34.52
1.88313	34.52
1.89980	34.52
1.91647	34.52
1.93313	34.52
1.94980	34.52
1.96647	34.52
1.98313	34.52
1.99980	34.52
2.01647	34.52
2.03313	34.52
2.04980	34.52
2.06647	34.52
2.08313	34.52
2.09980	34.52
2.11647	34.52
2.13313	34.52
2.14980	34.52
2.16647	34.52
2.18313	34.52
2.19980	34.52
2.21647	34.52
2.23313	34.52
2.24980	34.52
2.26647	34.52
2.28313	34.52
2.29980	34.52
2.31647	34.52
2.33313	34.52
2.34980	34.52
2.36647	34.52
2.38313	34.52
2.39980	34.52
2.41647	34.52
2.43313	34.52
2.44980	34.51
2.46647	34.52
2.48313	34.51
2.49980	34.52
2.51647	34.52
2.53313	34.52
2.54980	34.52
2.56647	34.52
2.58313	34.52
2.59980	34.52
2.61647	34.52
2.63313	34.52
2.64980	34.52
2.66647	34.52
2.68313	34.52
2.69980	34.52
2.71647	34.52
2.73313	34.52
2.74980	34.52
2.76647	34.52
2.78313	34.52
2.79980	34.52
2.81647	34.52
2.83313	34.52
2.84980	34.52
2.86647	34.52
2.88313	34.52
2.89980	34.52
2.91647	34.52
2.93313	34.52
2.94980	34.52
2.96647	34.52
2.98313	34.52
2.99980	34.52
3.01647	34.52
3.03313	34.52
3.04980	34.52
3.06647	34.52
3.08313	34.52
3.09980	34.52
3.11647	34.52
3.13313	34.52
3.14980	34.52
3.16647	34.52
3.18313	34.52
3.19980	34.52
3.21647	34.52
3.23313	34.51
3.24980	34.52
3.26647	34.52
3.28313	34.52
3.29980	34.52
3.31647	34.52
3.33313	34.52
3.34980	34.52
3.36647	34.51
3.38313	34.51
3.39980	34.52
3.41647	34.52
3.43313	34.52
3.44980	34.51
3.46647	34.52
3.48313	34.52
3.49980	34.52
3.51647	34.53
3.53313	34.53
3.54980	34.52
3.56647	34.52
3.58313	34.51
3.59980	34.52
3.61647	34.52
3.63313	34.51
3.64980	34.52
3.66647	34.52
3.68313	34.52
3.69980	34.53
3.71647	34.52
3.73313	34.52
3.74980	34.52
3.76647	34.52
3.78313	34.52
3.79980	34.52
3.81647	34.52
3.83313	34.52
3.84980	34.52
3.86647	34.52
3.88313	34.52
3.89980	34.52
3.91647	34.52
3.93313	34.52
3.94980	34.52
3.96647	34.52
3.98313	34.52
3.99980	34.52

[Status Trace (Column Flow)]
Interval(msec)	1000
# of Points	240
Start Time(min)	0.016
End Time(min)	4.000
Intensity Units	
Intensity Multiplier	1
R.Time (min)	Intensity
0.01647	5.37
0.03313	5.26
0.04980	5.51
0.06647	5.72
0.08313	5.56
0.09980	5.50
0.11647	5.50
0.13313	5.50
0.14980	5.50
0.16647	5.50
0.18313	5.50
0.19980	5.50
0.21647	5.50
0.23313	5.50
0.24980	5.50
0.26647	5.50
0.28313	5.50
0.29980	5.50
0.31647	5.50
0.33313	5.50
0.34980	5.50
0.36647	5.50
0.38313	5.50
0.39980	5.50
0.41647	5.50
0.43313	5.50
0.44980	5.50
0.46647	5.50
0.48313	5.50
0.49980	5.50
0.51647	5.50
0.53313	5.50
0.54980	5.50
0.56647	5.50
0.58313	5.50
0.59980	5.50
0.61647	5.50
0.63313	5.50
0.64980	5.50
0.66647	5.50
0.68313	5.50
0.69980	5.50
0.71647	5.50
0.73313	5.50
0.74980	5.50
0.76647	5.50
0.78313	5.50
0.79980	5.50
0.81647	5.50
0.83313	5.50
0.84980	5.50
0.86647	5.50
0.88313	5.50
0.89980	5.50
0.91647	5.50
0.93313	5.50
0.94980	5.50
0.96647	5.50
0.98313	5.50
0.99980	5.50
1.01647	5.50
1.03313	5.50
1.04980	5.50
1.06647	5.50
1.08313	5.50
1.09980	5.50
1.11647	5.50
1.13313	5.50
1.14980	5.50
1.16647	5.50
1.18313	5.50
1.19980	5.50
1.21647	5.50
1.23313	5.50
1.24980	5.50
1.26647	5.50
1.28313	5.50
1.29980	5.50
1.31647	5.50
1.33313	5.50
1.34980	5.50
1.36647	5.50
1.38313	5.50
1.39980	5.50
1.41647	5.50
1.43313	5.50
1.44980	5.50
1.46647	5.50
1.48313	5.50
1.49980	5.50
1.51647	5.50
1.53313	5.50
1.54980	5.50
1.56647	5.50
1.58313	5.50
1.59980	5.50
1.61647	5.49
1.63313	5.49
1.64980	5.48
1.66647	5.47
1.68313	5.46
1.69980	5.45
1.71647	5.44
1.73313	5.43
1.74980	5.42
1.76647	5.41
1.78313	5.40
1.79980	5.39
1.81647	5.38
1.83313	5.37
1.84980	5.36
1.86647	5.35
1.88313	5.34
1.89980	5.33
1.91647	5.32
1.93313	5.31
1.94980	5.30
1.96647	5.29
1.98313	5.28
1.99980	5.27
2.01647	5.26
2.03313	5.25
2.04980	5.24
2.06647	5.23
2.08313	5.22
2.09980	5.21
2.11647	5.21
2.13313	5.20
2.14980	5.19
2.16647	5.18
2.18313	5.17
2.19980	5.16
2.21647	5.15
2.23313	5.14
2.24980	5.13
2.26647	5.12
2.28313	5.11
2.29980	5.10
2.31647	5.09
2.33313	5.09
2.34980	5.08
2.36647	5.07
2.38313	5.07
2.39980	5.07
2.41647	5.07
2.43313	5.07
2.44980	5.07
2.46647	5.07
2.48313	5.07
2.49980	5.07
2.51647	5.06
2.53313	5.06
2.54980	5.06
2.56647	5.06
2.58313	5.06
2.59980	5.06
2.61647	5.06
2.63313	5.06
2.64980	5.06
2.66647	5.06
2.68313	5.06
2.69980	5.06
2.71647	5.06
2.73313	5.06
2.74980	5.06
2.76647	5.06
2.78313	5.06
2.79980	5.06
2.81647	5.06
2.83313	5.06
2.84980	5.06
2.86647	5.06
2.88313	5.06
2.89980	5.06
2.91647	5.06
2.93313	5.06
2.94980	5.06
2.96647	5.06
2.98313	5.06
2.99980	5.06
3.01647	5.06
3.03313	5.06
3.04980	5.06
3.06647	5.06
3.08313	5.06
3.09980	5.06
3.11647	5.05
3.13313	5.05
3.14980	5.05
3.16647	5.05
3.18313	5.05
3.19980	5.05
3.21647	5.05
3.23313	5.05
3.24980	5.05
3.26647	5.05
3.28313	5.05
3.29980	5.05
3.31647	5.05
3.33313	5.05
3.34980	5.06
3.36647	5.06
3.38313	5.06
3.39980	5.06
3.41647	5.06
3.43313	5.06
3.44980	5.06
3.46647	5.06
3.48313	5.06
3.49980	5.06
3.51647	5.06
3.53313	5.06
3.54980	5.06
3.56647	5.06
3.58313	5.06
3.59980	5.06
3.61647	5.06
3.63313	5.06
3.64980	5.06
3.66647	5.06
3.68313	5.06
3.69980	5.06
3.71647	5.06
3.73313	5.06
3.74980	5.06
3.76647	5.06
3.78313	5.06
3.79980	5.05
3.81647	5.05
3.83313	5.05
3.84980	5.05
3.86647	5.05
3.88313	5.05
3.89980	5.05
3.91647	5.05
3.93313	5.05
3.94980	5.06
3.96647	5.06
3.98313	5.06
3.99980	5.06

[Status Trace (Linear Velocity)]
Interval(msec)	1000
# of Points	240
Start Time(min)	0.016
End Time(min)	4.000
Intensity Units	
Intensity Multiplier	1
R.Time (min)	Intensity
0.01647	38.28
0.03313	37.63
0.04980	39.09
0.06647	40.25
0.08313	39.36
0.09980	38.99
0.11647	39.01
0.13313	39.02
0.14980	39.02
0.16647	39.01
0.18313	39.01
0.19980	39.01
0.21647	39.02
0.23313	39.02
0.24980	39.01
0.26647	39.01
0.28313	39.01
0.29980	39.01
0.31647	39.01
0.33313	39.01
0.34980	39.01
0.36647	39.01
0.38313	39.01
0.39980	39.01
0.41647	39.01
0.43313	39.01
0.44980	39.01
0.46647	39.01
0.48313	39.01
0.49980	39.01
0.51647	39.01
0.53313	39.01
0.54980	39.01
0.56647	39.01
0.58313	39.01
0.59980	39.01
0.61647	39.01
0.63313	39.01
0.64980	39.01
0.66647	39.01
0.68313	39.01
0.69980	39.01
0.71647	39.01
0.73313	39.01
0.74980	39.02
0.76647	39.02
0.78313	39.01
0.79980	39.01
0.81647	39.02
0.83313	39.02
0.84980	39.02
0.86647	39.02
0.88313	39.02
0.89980	39.02
0.91647	39.02
0.93313	39.01
0.94980	39.01
0.96647	39.01
0.98313	39.01
0.99980	39.01
1.01647	39.01
1.03313	39.01
1.04980	39.01
1.06647	39.01
1.08313	39.01
1.09980	39.01
1.11647	39.01
1.13313	39.01
1.14980	39.01
1.16647	39.01
1.18313	39.01
1.19980	39.01
1.21647	39.01
1.23313	39.01
1.24980	39.01
1.26647	39.01
1.28313	39.01
1.29980	39.01
1.31647	39.01
1.33313	39.01
1.34980	39.01
1.36647	39.01
1.38313	39.01
1.39980	39.01
1.41647	39.01
1.43313	39.01
1.44980	39.01
1.46647	39.01
1.48313	39.01
1.49980	39.01
1.51647	39.01
1.53313	39.01
1.54980	39.01
1.56647	39.01
1.58313	39.01
1.59980	39.01
1.61647	39.00
1.63313	38.99
1.64980	38.97
1.66647	38.94
1.68313	38.91
1.69980	38.87
1.71647	38.83
1.73313	38.80
1.74980	38.77
1.76647	38.74
1.78313	38.71
1.79980	38.68
1.81647	38.65
1.83313	38.62
1.84980	38.59
1.86647	38.55
1.88313	38.52
1.89980	38.49
1.91647	38.46
1.93313	38.43
1.94980	38.40
1.96647	38.37
1.98313	38.34
1.99980	38.31
2.01647	38.28
2.03313	38.25
2.04980	38.22
2.06647	38.19
2.08313	38.16
2.09980	38.13
2.11647	38.10
2.13313	38.07
2.14980	38.04
2.16647	38.01
2.18313	37.98
2.19980	37.95
2.21647	37.92
2.23313	37.89
2.24980	37.86
2.26647	37.84
2.28313	37.81
2.29980	37.77
2.31647	37.75
2.33313	37.72
2.34980	37.69
2.36647	37.67
2.38313	37.65
2.39980	37.65
2.41647	37.66
2.43313	37.66
2.44980	37.65
2.46647	37.65
2.48313	37.65
2.49980	37.65
2.51647	37.65
2.53313	37.64
2.54980	37.65
2.56647	37.65
2.58313	37.65
2.59980	37.65
2.61647	37.64
2.63313	37.64
2.64980	37.64
2.66647	37.64
2.68313	37.64
2.69980	37.64
2.71647	37.64
2.73313	37.64
2.74980	37.64
2.76647	37.64
2.78313	37.64
2.79980	37.64
2.81647	37.64
2.83313	37.64
2.84980	37.64
2.86647	37.64
2.88313	37.63
2.89980	37.63
2.91647	37.63
2.93313	37.63
2.94980	37.63
2.96647	37.63
2.98313	37.63
2.99980	37.63
3.01647	37.63
3.03313	37.63
3.04980	37.63
3.06647	37.62
3.08313	37.62
3.09980	37.62
3.11647	37.62
3.13313	37.62
3.14980	37.62
3.16647	37.62
3.18313	37.62
3.19980	37.62
3.21647	37.62
3.23313	37.62
3.24980	37.62
3.26647	37.62
3.28313	37.62
3.29980	37.62
3.31647	37.62
3.33313	37.62
3.34980	37.62
3.36647	37.62
3.38313	37.62
3.39980	37.62
3.41647	37.62
3.43313	37.62
3.44980	37.62
3.46647	37.62
3.48313	37.62
3.49980	37.62
3.51647	37.62
3.53313	37.62
3.54980	37.62
3.56647	37.62
3.58313	37.62
3.59980	37.62
3.61647	37.62
3.63313	37.62
3.64980	37.62
3.66647	37.62
3.68313	37.62
3.69980	37.62
3.71647	37.62
3.73313	37.62
3.74980	37.62
3.76647	37.62
3.78313	37.62
3.79980	37.62
3.81647	37.62
3.83313	37.62
3.84980	37.62
3.86647	37.62
3.88313	37.62
3.89980	37.62
3.91647	37.62
3.93313	37.62
3.94980	37.62
3.96647	37.62
3.98313	37.62
3.99980	37.62

