[Header]
Application Name	LabSolutions
Version	5.110
Data File Name	C:\Users\User\Desktop\GC Analyses\Jack\UIC Prairie Sampling\7.9.22\220909_094.gcd
Output Date	9/28/2022
Output Time	11:29:55 AM

[File Information]
Type	Data File
Generated	9/20/2022 11:50:36 AM
Generated by	System Administrator
Modified	9/20/2022 11:54:54 AM
Modified by	System Administrator

[Sample Information]
Operator Name	System Administrator
Acquired	9/20/2022 11:50:53 AM
Sample Type	1:Standard
Level	1
Sample Name	220909_Run
Sample ID	220909_Run
ISTD Amount1	1
ISTD Amount2	1
ISTD Amount3	1
ISTD Amount4	1
ISTD Amount5	1
ISTD Amount6	1
ISTD Amount7	1
ISTD Amount8	1
ISTD Amount9	1
ISTD Amount10	1
ISTD Amount11	1
ISTD Amount12	1
ISTD Amount13	1
ISTD Amount14	1
ISTD Amount15	1
ISTD Amount16	1
ISTD Amount17	1
ISTD Amount18	1
ISTD Amount19	1
ISTD Amount20	1
ISTD Amount21	1
ISTD Amount22	1
ISTD Amount23	1
ISTD Amount24	1
ISTD Amount25	1
ISTD Amount26	1
ISTD Amount27	1
ISTD Amount28	1
ISTD Amount29	1
ISTD Amount30	1
ISTD Amount31	1
ISTD Amount32	1
Sample Amount	1
Dilution Factor	1
Vial#	1
Injection Volume	1
Injection Count	1
Bar Code	

[Original Files]
Data File	C:\Users\User\Desktop\GC Analyses\Jack\220909\220909_094.gcd
Method File	C:\LabSolutions\Data\GHG_4min_2022\ghg3_togas_w_acet_4 min_new_int.gcm
Batch File	
Report Format File	c:\LabSolutions\System\DEFAULT.lsr

[File Description]


[Configuration]
Instrument Name	C0B7VH3-Instrument1
Instrument #	1
Line #	1
# of Detectors	3
Detector ID	DET#1	DET#2	DET#3
Detector Name	FID	PTCD	ECD
# of Channels	1	1	1

[Peak Table(Ch1)]
# of Peaks	3
Peak#	R.Time	I.Time	F.Time	Area	Height	A/H	Conc.	Mark	ID#	Name	k'	Plate #	Plate Ht.	Tailing	Resolution	Sep.Factor	Area Ratio	Height Ratio	Conc. %	Norm Conc.
1	1.472	1.439	1.534	7476	3025	2.472	100.000	   	1	CO	0.000	6903	21.729	1.421	0.000	0.000	0	0	16.667	16.667
2	1.571	1.534	1.637	20253	10290	1.968	100.000	 V 	2	CH4	0.067	11421	13.133	1.246	1.527	0.000	0	0	16.667	16.667
3	2.000	1.949	2.297	2126168	1041379	2.042	400.000	   	3	CO2	0.359	17466	8.588	1.223	7.190	5.333	0	0	66.667	66.667

[Peak Table(Ch2)]
# of Peaks	0

[Peak Table(Ch3)]
# of Peaks	3
Peak#	R.Time	I.Time	F.Time	Area	Height	A/H	Conc.	Mark	ID#	Name	k'	Plate #	Plate Ht.	Tailing	Resolution	Sep.Factor	Area Ratio	Height Ratio	Conc. %	Norm Conc.
1	2.444	1.325	2.649	18501	504	36.720	0.000	   			0.000	124	1205.617	0.597	0.000	0.000	0	0	0.000	0.000
2	2.884	2.660	3.258	73746	18240	4.043	1.000	   	1	N2O	0.180	12329	12.167	1.604	0.898	0.000	0	0	50.000	50.000
3	3.412	3.269	3.965	15470	700	22.115	1.000	   	2	SF6	0.396	446	335.971	2.393	1.409	2.200	0	0	50.000	50.000

[Compound Results(Ch1)]
# of IDs	6
ID#	Name	R.Time	Area	Height	Conc.	Curve	3rd	2nd	1st	Constant	Area Ratio	Height Ratio	Conc. %	Norm Conc.
1	CO	1.472	7476	3025	100.000	Linear	0.000000e+00	0.000000e+00	7.476176e+001	0.000000e+00	0	0	16.667	16.667
2	CH4	1.571	20253	10290	100.000	Linear	0.000000e+00	0.000000e+00	2.025304e+002	0.000000e+00	0	0	16.667	16.667
3	CO2	2.000	2126168	1041379	400.000	Linear	0.000000e+00	0.000000e+00	5.315420e+003	0.000000e+00	0	0	66.667	66.667
4	Ethylene	0.000	0	0	0.000	Linear	0.000000e+00	0.000000e+00	0.000000e+00	0.000000e+00	0	0	0.000	0.000
5	Acetylene	0.000	0	0	0.000	Linear	0.000000e+00	0.000000e+00	0.000000e+00	0.000000e+00	0	0	0.000	0.000
6	Ethane	0.000	0	0	0.000	Linear	0.000000e+00	0.000000e+00	0.000000e+00	0.000000e+00	0	0	0.000	0.000

[Compound Results(Ch2)]
# of IDs	5
ID#	Name	R.Time	Area	Height	Conc.	Curve	3rd	2nd	1st	Constant	Area Ratio	Height Ratio	Conc. %	Norm Conc.
1	Hydrogen	0.000	0	0	0.000	Linear	0.000000e+00	0.000000e+00	0.000000e+00	0.000000e+00	0	0	0.000	0.000
2	Oxygen	0.000	0	0	0.000	Linear	0.000000e+00	0.000000e+00	0.000000e+00	0.000000e+00	0	0	0.000	0.000
3	Nitrogen	0.000	0	0	0.000	Linear	0.000000e+00	0.000000e+00	0.000000e+00	0.000000e+00	0	0	0.000	0.000
4	Methane	0.000	0	0	0.000	Linear	0.000000e+00	0.000000e+00	0.000000e+00	0.000000e+00	0	0	0.000	0.000
5	Carbon Monoxide	0.000	0	0	0.000	Linear	0.000000e+00	0.000000e+00	0.000000e+00	0.000000e+00	0	0	0.000	0.000

[Compound Results(Ch3)]
# of IDs	2
ID#	Name	R.Time	Area	Height	Conc.	Curve	3rd	2nd	1st	Constant	Area Ratio	Height Ratio	Conc. %	Norm Conc.
1	N2O	2.884	73746	18240	1.000	Linear	0.000000e+00	0.000000e+00	7.374573e+004	0.000000e+00	0	0	50.000	50.000
2	SF6	3.412	15470	700	1.000	Linear	0.000000e+00	0.000000e+00	1.547037e+004	0.000000e+00	0	0	50.000	50.000

[Group Results(Ch1)]
# of Groups	0

[Group Results(Ch2)]
# of Groups	0

[Group Results(Ch3)]
# of Groups	0

[Chromatogram (Ch1)]
Interval(msec)	220
# of Points	1091
Start Time(min)	0.002
End Time(min)	3.998
R.Time (min)	Intensity
0.00167	10
0.00533	12
0.00900	15
0.01267	19
0.01633	20
0.02000	17
0.02367	13
0.02733	9
0.03100	4
0.03467	-1
0.03833	-6
0.04200	-10
0.04567	-10
0.04933	-8
0.05300	-5
0.05667	0
0.06033	4
0.06400	8
0.06767	11
0.07133	13
0.07500	12
0.07867	6
0.08233	-1
0.08600	-5
0.08967	-3
0.09333	2
0.09700	5
0.10067	8
0.10433	6
0.10800	5
0.11167	6
0.11533	9
0.11900	13
0.12267	16
0.12633	15
0.13000	11
0.13367	3
0.13733	-9
0.14100	-18
0.14467	-23
0.14833	-25
0.15200	-24
0.15567	-21
0.15933	-16
0.16300	-6
0.16667	3
0.17033	11
0.17400	17
0.17767	22
0.18133	24
0.18500	19
0.18867	12
0.19233	1
0.19600	-9
0.19967	-13
0.20333	-13
0.20700	-15
0.21067	-18
0.21433	-21
0.21800	-23
0.22167	-21
0.22533	-17
0.22900	-10
0.23267	0
0.23633	11
0.24000	18
0.24367	18
0.24733	16
0.25100	11
0.25467	5
0.25833	2
0.26200	1
0.26567	2
0.26933	4
0.27300	5
0.27667	6
0.28033	8
0.28400	9
0.28767	8
0.29133	5
0.29500	6
0.29867	12
0.30233	16
0.30600	18
0.30967	19
0.31333	17
0.31700	16
0.32067	15
0.32433	15
0.32800	18
0.33167	21
0.33533	23
0.33900	22
0.34267	19
0.34633	16
0.35000	11
0.35367	6
0.35733	3
0.36100	-1
0.36467	-3
0.36833	-7
0.37200	-14
0.37567	-24
0.37933	-32
0.38300	-35
0.38667	-33
0.39033	-25
0.39400	-14
0.39767	-6
0.40133	-3
0.40500	-0
0.40867	-1
0.41233	-6
0.41600	-7
0.41967	-8
0.42333	-11
0.42700	-16
0.43067	-20
0.43433	-21
0.43800	-23
0.44167	-25
0.44533	-26
0.44900	-26
0.45267	-21
0.45633	-14
0.46000	-7
0.46367	-2
0.46733	-0
0.47100	-6
0.47467	-13
0.47833	-19
0.48200	-24
0.48567	-22
0.48933	-16
0.49300	-11
0.49667	-9
0.50033	-9
0.50400	-6
0.50767	1
0.51133	6
0.51500	14
0.51867	21
0.52233	18
0.52600	6
0.52967	-12
0.53333	-32
0.53700	-46
0.54067	-54
0.54433	-54
0.54800	-49
0.55167	-43
0.55533	-38
0.55900	-34
0.56267	-28
0.56633	-23
0.57000	-21
0.57367	-21
0.57733	-24
0.58100	-26
0.58467	-25
0.58833	-23
0.59200	-20
0.59567	-22
0.59933	-29
0.60300	-38
0.60667	-46
0.61033	-52
0.61400	-56
0.61767	-62
0.62133	-66
0.62500	-67
0.62867	-64
0.63233	-58
0.63600	-52
0.63967	-47
0.64333	-44
0.64700	-41
0.65067	-37
0.65433	-33
0.65800	-29
0.66167	-26
0.66533	-24
0.66900	-25
0.67267	-29
0.67633	-32
0.68000	-35
0.68367	-38
0.68733	-40
0.69100	-40
0.69467	-37
0.69833	-35
0.70200	-34
0.70567	-35
0.70933	-37
0.71300	-39
0.71667	-40
0.72033	-43
0.72400	-49
0.72767	-56
0.73133	-57
0.73500	-55
0.73867	-50
0.74233	-48
0.74600	-50
0.74967	-53
0.75333	-56
0.75700	-56
0.76067	-56
0.76433	-56
0.76800	-56
0.77167	-54
0.77533	-52
0.77900	-49
0.78267	-47
0.78633	-50
0.79000	-52
0.79367	-53
0.79733	-53
0.80100	-55
0.80467	-56
0.80833	-54
0.81200	-52
0.81567	-49
0.81933	-51
0.82300	-58
0.82667	-53
0.83033	-48
0.83400	-49
0.83767	-50
0.84133	-47
0.84500	-43
0.84867	-41
0.85233	-44
0.85600	-49
0.85967	-52
0.86333	-49
0.86700	-42
0.87067	-36
0.87433	-34
0.87800	-35
0.88167	-36
0.88533	-37
0.88900	-38
0.89267	-42
0.89633	-45
0.90000	-46
0.90367	-50
0.90733	-57
0.91100	-63
0.91467	-65
0.91833	-67
0.92200	-68
0.92567	-64
0.92933	-58
0.93300	-52
0.93667	-50
0.94033	-52
0.94400	-56
0.94767	-63
0.95133	-69
0.95500	-74
0.95867	-79
0.96233	-83
0.96600	-85
0.96967	-84
0.97333	-78
0.97700	-70
0.98067	-65
0.98433	-62
0.98800	-61
0.99167	-63
0.99533	-59
0.99900	-52
1.00267	-46
1.00633	-45
1.01000	-50
1.01367	-58
1.01733	-66
1.02100	-70
1.02467	-72
1.02833	-72
1.03200	-72
1.03567	-73
1.03933	-73
1.04300	-68
1.04667	-63
1.05033	-57
1.05400	-53
1.05767	-51
1.06133	-50
1.06500	-50
1.06867	-51
1.07233	-53
1.07600	-54
1.07967	-57
1.08333	-61
1.08700	-66
1.09067	-67
1.09433	-63
1.09800	-54
1.10167	-44
1.10533	-34
1.10900	-29
1.11267	-29
1.11633	-32
1.12000	-34
1.12367	-33
1.12733	-31
1.13100	-28
1.13467	-28
1.13833	-28
1.14200	-29
1.14567	-32
1.14933	-35
1.15300	-35
1.15667	-36
1.16033	-36
1.16400	-36
1.16767	-35
1.17133	-36
1.17500	-40
1.17867	-44
1.18233	-46
1.18600	-47
1.18967	-46
1.19333	-46
1.19700	-48
1.20067	-51
1.20433	-53
1.20800	-49
1.21167	-41
1.21533	-31
1.21900	-27
1.22267	-29
1.22633	-36
1.23000	-43
1.23367	-48
1.23733	-53
1.24100	-57
1.24467	-58
1.24833	-54
1.25200	-50
1.25567	-49
1.25933	-51
1.26300	-52
1.26667	-54
1.27033	-58
1.27400	-63
1.27767	-66
1.28133	-66
1.28500	-62
1.28867	-55
1.29233	-48
1.29600	-44
1.29967	-44
1.30333	-40
1.30700	-33
1.31067	-26
1.31433	-23
1.31800	-28
1.32167	-38
1.32533	-48
1.32900	-54
1.33267	-59
1.33633	-59
1.34000	-57
1.34367	-57
1.34733	-59
1.35100	-62
1.35467	-64
1.35833	-60
1.36200	-52
1.36567	-48
1.36933	-48
1.37300	-50
1.37667	-51
1.38033	-52
1.38400	-55
1.38767	-55
1.39133	-52
1.39500	-48
1.39867	-43
1.40233	-37
1.40600	-33
1.40967	-30
1.41333	-30
1.41700	-30
1.42067	-31
1.42433	-35
1.42800	-39
1.43167	-41
1.43533	-41
1.43900	-35
1.44267	19
1.44633	228
1.45000	671
1.45367	1267
1.45733	1866
1.46100	2362
1.46467	2711
1.46833	2914
1.47200	2983
1.47567	2925
1.47933	2754
1.48300	2493
1.48667	2174
1.49033	1827
1.49400	1488
1.49767	1180
1.50133	912
1.50500	685
1.50867	499
1.51233	351
1.51600	240
1.51967	157
1.52333	92
1.52700	42
1.53067	5
1.53433	-22
1.53800	-26
1.54167	63
1.54533	449
1.54900	1417
1.55267	3043
1.55633	5042
1.56000	6990
1.56367	8594
1.56733	9712
1.57100	10228
1.57467	10007
1.57833	9034
1.58200	7519
1.58567	5820
1.58933	4245
1.59300	2960
1.59667	1996
1.60033	1312
1.60400	846
1.60767	534
1.61133	327
1.61500	189
1.61867	95
1.62233	28
1.62600	-21
1.62967	-53
1.63333	-70
1.63700	-76
1.64067	-78
1.64433	-80
1.64800	-84
1.65167	-91
1.65533	-97
1.65900	-103
1.66267	-108
1.66633	-107
1.67000	-100
1.67367	-92
1.67733	-87
1.68100	-87
1.68467	-89
1.68833	-91
1.69200	-93
1.69567	-97
1.69933	-101
1.70300	-105
1.70667	-108
1.71033	-114
1.71400	-118
1.71767	-118
1.72133	-116
1.72500	-111
1.72867	-105
1.73233	-96
1.73600	-88
1.73967	-83
1.74333	-83
1.74700	-85
1.75067	-85
1.75433	-84
1.75800	-86
1.76167	-89
1.76533	-95
1.76900	-100
1.77267	-101
1.77633	-103
1.78000	-102
1.78367	-98
1.78733	-91
1.79100	-89
1.79467	-91
1.79833	-93
1.80200	-89
1.80567	-85
1.80933	-84
1.81300	-81
1.81667	-76
1.82033	-72
1.82400	-70
1.82767	-71
1.83133	-74
1.83500	-75
1.83867	-75
1.84233	-74
1.84600	-72
1.84967	-71
1.85333	-73
1.85700	-75
1.86067	-75
1.86433	-71
1.86800	-67
1.87167	-62
1.87533	-58
1.87900	-60
1.88267	-62
1.88633	-60
1.89000	-59
1.89367	-63
1.89733	-67
1.90100	-71
1.90467	-70
1.90833	-70
1.91200	-72
1.91567	-77
1.91933	-81
1.92300	-80
1.92667	-77
1.93033	-77
1.93400	-77
1.93767	-76
1.94133	-72
1.94500	-67
1.94867	-61
1.95233	-53
1.95600	-19
1.95967	221
1.96333	1568
1.96700	7463
1.97067	27209
1.97433	77998
1.97800	178801
1.98167	335303
1.98533	529730
1.98900	727601
1.99267	893946
1.99633	1003306
2.00000	1041354
2.00367	1005902
2.00733	906972
2.01100	765734
2.01467	608653
2.01833	459158
2.02200	332009
2.02567	232524
2.02933	159302
2.03300	107719
2.03667	72462
2.04033	48836
2.04400	33187
2.04767	22871
2.05133	16063
2.05500	11542
2.05867	8513
2.06233	6450
2.06600	5020
2.06967	4003
2.07333	3268
2.07700	2729
2.08067	2324
2.08433	2013
2.08800	1767
2.09167	1568
2.09533	1403
2.09900	1264
2.10267	1149
2.10633	1055
2.11000	978
2.11367	912
2.11733	852
2.12100	797
2.12467	747
2.12833	704
2.13200	665
2.13567	630
2.13933	598
2.14300	570
2.14667	544
2.15033	520
2.15400	497
2.15767	473
2.16133	452
2.16500	438
2.16867	427
2.17233	415
2.17600	402
2.17967	389
2.18333	378
2.18700	367
2.19067	357
2.19433	350
2.19800	342
2.20167	330
2.20533	317
2.20900	306
2.21267	296
2.21633	284
2.22000	281
2.22367	280
2.22733	282
2.23100	284
2.23467	285
2.23833	281
2.24200	272
2.24567	264
2.24933	255
2.25300	249
2.25667	245
2.26033	242
2.26400	239
2.26767	236
2.27133	235
2.27500	232
2.27867	231
2.28233	227
2.28600	218
2.28967	206
2.29333	195
2.29700	191
2.30067	191
2.30433	193
2.30800	193
2.31167	191
2.31533	187
2.31900	188
2.32267	191
2.32633	195
2.33000	193
2.33367	189
2.33733	183
2.34100	178
2.34467	176
2.34833	174
2.35200	173
2.35567	174
2.35933	176
2.36300	175
2.36667	172
2.37033	169
2.37400	167
2.37767	166
2.38133	168
2.38500	173
2.38867	178
2.39233	180
2.39600	176
2.39967	173
2.40333	170
2.40700	167
2.41067	161
2.41433	153
2.41800	148
2.42167	148
2.42533	153
2.42900	159
2.43267	165
2.43633	167
2.44000	165
2.44367	159
2.44733	152
2.45100	144
2.45467	136
2.45833	129
2.46200	124
2.46567	121
2.46933	119
2.47300	121
2.47667	127
2.48033	134
2.48400	140
2.48767	142
2.49133	141
2.49500	139
2.49867	132
2.50233	128
2.50600	129
2.50967	132
2.51333	133
2.51700	128
2.52067	121
2.52433	115
2.52800	109
2.53167	106
2.53533	105
2.53900	108
2.54267	111
2.54633	109
2.55000	103
2.55367	98
2.55733	98
2.56100	101
2.56467	103
2.56833	103
2.57200	100
2.57567	97
2.57933	94
2.58300	92
2.58667	88
2.59033	85
2.59400	80
2.59767	74
2.60133	72
2.60500	76
2.60867	82
2.61233	87
2.61600	89
2.61967	89
2.62333	85
2.62700	78
2.63067	73
2.63433	71
2.63800	77
2.64167	88
2.64533	102
2.64900	110
2.65267	112
2.65633	106
2.66000	94
2.66367	79
2.66733	65
2.67100	55
2.67467	48
2.67833	45
2.68200	46
2.68567	51
2.68933	56
2.69300	55
2.69667	48
2.70033	44
2.70400	45
2.70767	48
2.71133	48
2.71500	45
2.71867	42
2.72233	41
2.72600	40
2.72967	44
2.73333	53
2.73700	59
2.74067	52
2.74433	53
2.74800	50
2.75167	49
2.75533	54
2.75900	61
2.76267	68
2.76633	73
2.77000	76
2.77367	75
2.77733	71
2.78100	67
2.78467	62
2.78833	57
2.79200	52
2.79567	50
2.79933	54
2.80300	57
2.80667	58
2.81033	55
2.81400	51
2.81767	47
2.82133	45
2.82500	44
2.82867	41
2.83233	37
2.83600	30
2.83967	28
2.84333	29
2.84700	34
2.85067	38
2.85433	40
2.85800	39
2.86167	39
2.86533	40
2.86900	46
2.87267	53
2.87633	56
2.88000	53
2.88367	44
2.88733	36
2.89100	28
2.89467	22
2.89833	19
2.90200	20
2.90567	22
2.90933	18
2.91300	14
2.91667	11
2.92033	14
2.92400	15
2.92767	18
2.93133	22
2.93500	28
2.93867	34
2.94233	35
2.94600	35
2.94967	35
2.95333	35
2.95700	36
2.96067	38
2.96433	38
2.96800	38
2.97167	37
2.97533	35
2.97900	31
2.98267	23
2.98633	13
2.99000	6
2.99367	7
2.99733	14
3.00100	19
3.00467	20
3.00833	16
3.01200	12
3.01567	13
3.01933	17
3.02300	21
3.02667	27
3.03033	33
3.03400	38
3.03767	40
3.04133	36
3.04500	31
3.04867	29
3.05233	28
3.05600	25
3.05967	20
3.06333	15
3.06700	14
3.07067	13
3.07433	10
3.07800	6
3.08167	2
3.08533	-1
3.08900	2
3.09267	8
3.09633	14
3.10000	15
3.10367	10
3.10733	2
3.11100	-5
3.11467	-3
3.11833	3
3.12200	7
3.12567	11
3.12933	14
3.13300	16
3.13667	18
3.14033	19
3.14400	19
3.14767	18
3.15133	15
3.15500	14
3.15867	13
3.16233	11
3.16600	5
3.16967	-2
3.17333	-6
3.17700	-6
3.18067	-4
3.18433	-3
3.18800	-3
3.19167	-4
3.19533	-6
3.19900	-7
3.20267	-3
3.20633	2
3.21000	10
3.21367	18
3.21733	23
3.22100	25
3.22467	22
3.22833	18
3.23200	12
3.23567	4
3.23933	-5
3.24300	-10
3.24667	-11
3.25033	-10
3.25400	-8
3.25767	-1
3.26133	7
3.26500	10
3.26867	10
3.27233	7
3.27600	5
3.27967	4
3.28333	5
3.28700	4
3.29067	3
3.29433	5
3.29800	7
3.30167	9
3.30533	10
3.30900	8
3.31267	6
3.31633	4
3.32000	2
3.32367	-0
3.32733	1
3.33100	4
3.33467	5
3.33833	4
3.34200	3
3.34567	0
3.34933	-5
3.35300	-11
3.35667	-17
3.36033	-23
3.36400	-30
3.36767	-36
3.37133	-39
3.37500	-37
3.37867	-34
3.38233	-26
3.38600	-16
3.38967	-8
3.39333	-4
3.39700	-5
3.40067	-8
3.40433	-7
3.40800	-0
3.41167	6
3.41533	6
3.41900	-1
3.42267	-12
3.42633	-23
3.43000	-29
3.43367	-27
3.43733	-20
3.44100	-15
3.44467	-12
3.44833	-12
3.45200	-12
3.45567	-13
3.45933	-16
3.46300	-14
3.46667	-10
3.47033	-7
3.47400	-7
3.47767	-6
3.48133	-7
3.48500	-8
3.48867	-5
3.49233	-2
3.49600	-4
3.49967	-11
3.50333	-16
3.50700	-18
3.51067	-22
3.51433	-25
3.51800	-25
3.52167	-23
3.52533	-23
3.52900	-25
3.53267	-27
3.53633	-26
3.54000	-22
3.54367	-18
3.54733	-14
3.55100	-12
3.55467	-10
3.55833	-10
3.56200	-13
3.56567	-16
3.56933	-18
3.57300	-17
3.57667	-15
3.58033	-17
3.58400	-19
3.58767	-20
3.59133	-22
3.59500	-23
3.59867	-22
3.60233	-23
3.60600	-25
3.60967	-28
3.61333	-34
3.61700	-38
3.62067	-38
3.62433	-33
3.62800	-28
3.63167	-22
3.63533	-17
3.63900	-16
3.64267	-16
3.64633	-16
3.65000	-17
3.65367	-19
3.65733	-23
3.66100	-24
3.66467	-23
3.66833	-19
3.67200	-22
3.67567	-30
3.67933	-38
3.68300	-41
3.68667	-42
3.69033	-42
3.69400	-40
3.69767	-39
3.70133	-40
3.70500	-39
3.70867	-37
3.71233	-33
3.71600	-32
3.71967	-31
3.72333	-32
3.72700	-33
3.73067	-31
3.73433	-29
3.73800	-28
3.74167	-25
3.74533	-23
3.74900	-23
3.75267	-26
3.75633	-28
3.76000	-29
3.76367	-30
3.76733	-26
3.77100	-21
3.77467	-19
3.77833	-20
3.78200	-23
3.78567	-27
3.78933	-30
3.79300	-32
3.79667	-37
3.80033	-42
3.80400	-43
3.80767	-39
3.81133	-36
3.81500	-35
3.81867	-36
3.82233	-38
3.82600	-41
3.82967	-40
3.83333	-36
3.83700	-30
3.84067	-25
3.84433	-26
3.84800	-26
3.85167	-23
3.85533	-25
3.85900	-32
3.86267	-39
3.86633	-40
3.87000	-36
3.87367	-36
3.87733	-39
3.88100	-44
3.88467	-45
3.88833	-44
3.89200	-42
3.89567	-41
3.89933	-41
3.90300	-41
3.90667	-40
3.91033	-39
3.91400	-36
3.91767	-35
3.92133	-37
3.92500	-40
3.92867	-43
3.93233	-47
3.93600	-44
3.93967	-41
3.94333	-37
3.94700	-35
3.95067	-35
3.95433	-37
3.95800	-42
3.96167	-46
3.96533	-45
3.96900	-42
3.97267	-38
3.97633	-35
3.98000	-31
3.98367	-27
3.98733	-28
3.99100	-34
3.99467	-38
3.99833	-38

[Chromatogram (Ch2)]
Interval(msec)	220
# of Points	1091
Start Time(min)	0.002
End Time(min)	3.998
R.Time (min)	Intensity
0.00167	-0
0.00533	-1
0.00900	-1
0.01267	-1
0.01633	-1
0.02000	-1
0.02367	-1
0.02733	-1
0.03100	-1
0.03467	-1
0.03833	-1
0.04200	-1
0.04567	-1
0.04933	-2
0.05300	-2
0.05667	-2
0.06033	-2
0.06400	-2
0.06767	-1
0.07133	-1
0.07500	-1
0.07867	-1
0.08233	-0
0.08600	0
0.08967	1
0.09333	1
0.09700	2
0.10067	2
0.10433	2
0.10800	2
0.11167	3
0.11533	3
0.11900	3
0.12267	3
0.12633	2
0.13000	2
0.13367	2
0.13733	1
0.14100	0
0.14467	-0
0.14833	-1
0.15200	-1
0.15567	-2
0.15933	-2
0.16300	-2
0.16667	-2
0.17033	-1
0.17400	-1
0.17767	-1
0.18133	-1
0.18500	-0
0.18867	0
0.19233	1
0.19600	1
0.19967	2
0.20333	2
0.20700	2
0.21067	2
0.21433	2
0.21800	2
0.22167	2
0.22533	2
0.22900	2
0.23267	3
0.23633	3
0.24000	3
0.24367	3
0.24733	3
0.25100	3
0.25467	3
0.25833	3
0.26200	3
0.26567	3
0.26933	3
0.27300	3
0.27667	4
0.28033	4
0.28400	4
0.28767	4
0.29133	4
0.29500	3
0.29867	3
0.30233	4
0.30600	4
0.30967	4
0.31333	4
0.31700	3
0.32067	3
0.32433	2
0.32800	2
0.33167	1
0.33533	1
0.33900	1
0.34267	0
0.34633	-1
0.35000	-1
0.35367	-1
0.35733	-2
0.36100	-2
0.36467	-2
0.36833	-2
0.37200	-2
0.37567	-2
0.37933	-2
0.38300	-2
0.38667	-2
0.39033	-2
0.39400	-2
0.39767	-2
0.40133	-2
0.40500	-2
0.40867	-2
0.41233	-1
0.41600	-1
0.41967	-1
0.42333	-1
0.42700	-1
0.43067	-1
0.43433	-1
0.43800	-1
0.44167	-1
0.44533	-1
0.44900	-1
0.45267	-1
0.45633	-1
0.46000	-0
0.46367	-0
0.46733	-0
0.47100	0
0.47467	1
0.47833	1
0.48200	1
0.48567	1
0.48933	1
0.49300	1
0.49667	1
0.50033	1
0.50400	1
0.50767	1
0.51133	1
0.51500	1
0.51867	1
0.52233	1
0.52600	1
0.52967	1
0.53333	1
0.53700	1
0.54067	1
0.54433	1
0.54800	1
0.55167	2
0.55533	2
0.55900	2
0.56267	3
0.56633	3
0.57000	3
0.57367	4
0.57733	4
0.58100	4
0.58467	5
0.58833	5
0.59200	5
0.59567	5
0.59933	5
0.60300	4
0.60667	4
0.61033	4
0.61400	3
0.61767	3
0.62133	3
0.62500	3
0.62867	2
0.63233	2
0.63600	2
0.63967	2
0.64333	1
0.64700	1
0.65067	1
0.65433	0
0.65800	0
0.66167	0
0.66533	0
0.66900	-0
0.67267	-0
0.67633	0
0.68000	0
0.68367	0
0.68733	-0
0.69100	-0
0.69467	-1
0.69833	-1
0.70200	-1
0.70567	-1
0.70933	-1
0.71300	-1
0.71667	-1
0.72033	-1
0.72400	-1
0.72767	-0
0.73133	-0
0.73500	-0
0.73867	-0
0.74233	0
0.74600	0
0.74967	0
0.75333	1
0.75700	1
0.76067	1
0.76433	1
0.76800	1
0.77167	1
0.77533	1
0.77900	1
0.78267	2
0.78633	2
0.79000	2
0.79367	2
0.79733	2
0.80100	3
0.80467	3
0.80833	3
0.81200	3
0.81567	3
0.81933	3
0.82300	3
0.82667	3
0.83033	3
0.83400	3
0.83767	3
0.84133	2
0.84500	2
0.84867	2
0.85233	2
0.85600	2
0.85967	1
0.86333	1
0.86700	0
0.87067	-0
0.87433	-1
0.87800	-1
0.88167	-1
0.88533	-2
0.88900	-2
0.89267	-2
0.89633	-1
0.90000	-1
0.90367	-1
0.90733	-1
0.91100	-2
0.91467	-2
0.91833	-2
0.92200	-2
0.92567	-2
0.92933	-2
0.93300	-2
0.93667	-2
0.94033	-1
0.94400	-1
0.94767	-1
0.95133	-2
0.95500	-2
0.95867	-2
0.96233	-2
0.96600	-2
0.96967	-2
0.97333	-2
0.97700	-2
0.98067	-2
0.98433	-2
0.98800	-2
0.99167	-2
0.99533	-1
0.99900	-1
1.00267	-1
1.00633	-0
1.01000	-0
1.01367	-0
1.01733	-0
1.02100	-0
1.02467	-0
1.02833	-0
1.03200	-0
1.03567	-0
1.03933	-0
1.04300	-0
1.04667	-0
1.05033	-0
1.05400	-0
1.05767	-0
1.06133	-0
1.06500	-0
1.06867	-0
1.07233	-0
1.07600	-0
1.07967	-0
1.08333	-1
1.08700	-1
1.09067	-1
1.09433	-1
1.09800	-1
1.10167	-0
1.10533	0
1.10900	0
1.11267	0
1.11633	0
1.12000	0
1.12367	0
1.12733	0
1.13100	0
1.13467	0
1.13833	-0
1.14200	-0
1.14567	-1
1.14933	-1
1.15300	-1
1.15667	-1
1.16033	-1
1.16400	-1
1.16767	-1
1.17133	-1
1.17500	-1
1.17867	-0
1.18233	-0
1.18600	-0
1.18967	-0
1.19333	-0
1.19700	-0
1.20067	0
1.20433	0
1.20800	1
1.21167	1
1.21533	1
1.21900	1
1.22267	0
1.22633	0
1.23000	0
1.23367	-0
1.23733	-0
1.24100	-0
1.24467	-1
1.24833	-1
1.25200	-1
1.25567	-2
1.25933	-2
1.26300	-2
1.26667	-2
1.27033	-2
1.27400	-2
1.27767	-2
1.28133	-2
1.28500	-2
1.28867	-2
1.29233	-2
1.29600	-2
1.29967	-2
1.30333	-3
1.30700	-3
1.31067	-3
1.31433	-3
1.31800	-2
1.32167	-2
1.32533	-2
1.32900	-3
1.33267	-3
1.33633	-3
1.34000	-2
1.34367	-2
1.34733	-2
1.35100	-1
1.35467	-1
1.35833	-1
1.36200	-1
1.36567	-1
1.36933	-1
1.37300	-1
1.37667	-1
1.38033	-0
1.38400	-0
1.38767	0
1.39133	0
1.39500	0
1.39867	1
1.40233	1
1.40600	1
1.40967	1
1.41333	1
1.41700	1
1.42067	1
1.42433	1
1.42800	1
1.43167	2
1.43533	2
1.43900	1
1.44267	1
1.44633	1
1.45000	2
1.45367	2
1.45733	2
1.46100	2
1.46467	2
1.46833	2
1.47200	1
1.47567	1
1.47933	0
1.48300	0
1.48667	0
1.49033	-0
1.49400	-0
1.49767	-0
1.50133	-1
1.50500	-1
1.50867	-1
1.51233	-2
1.51600	-2
1.51967	-2
1.52333	-3
1.52700	-3
1.53067	-3
1.53433	-3
1.53800	-3
1.54167	-2
1.54533	-2
1.54900	-2
1.55267	-2
1.55633	-2
1.56000	-2
1.56367	-1
1.56733	-1
1.57100	-1
1.57467	-0
1.57833	-0
1.58200	-1
1.58567	-1
1.58933	-1
1.59300	-1
1.59667	-2
1.60033	-2
1.60400	-3
1.60767	-4
1.61133	-6
1.61500	-8
1.61867	-10
1.62233	-12
1.62600	-15
1.62967	-18
1.63333	-21
1.63700	-24
1.64067	-28
1.64433	-31
1.64800	-35
1.65167	-38
1.65533	-42
1.65900	-46
1.66267	-50
1.66633	-55
1.67000	-60
1.67367	-66
1.67733	-71
1.68100	-76
1.68467	-81
1.68833	-86
1.69200	-90
1.69567	-93
1.69933	-96
1.70300	-99
1.70667	-101
1.71033	-103
1.71400	-104
1.71767	-106
1.72133	-106
1.72500	-107
1.72867	-108
1.73233	-109
1.73600	-110
1.73967	-111
1.74333	-112
1.74700	-113
1.75067	-114
1.75433	-114
1.75800	-115
1.76167	-115
1.76533	-116
1.76900	-117
1.77267	-118
1.77633	-119
1.78000	-119
1.78367	-120
1.78733	-120
1.79100	-121
1.79467	-121
1.79833	-122
1.80200	-121
1.80567	-121
1.80933	-121
1.81300	-121
1.81667	-121
1.82033	-121
1.82400	-121
1.82767	-121
1.83133	-121
1.83500	-121
1.83867	-121
1.84233	-121
1.84600	-121
1.84967	-121
1.85333	-121
1.85700	-121
1.86067	-121
1.86433	-122
1.86800	-122
1.87167	-122
1.87533	-122
1.87900	-121
1.88267	-120
1.88633	-119
1.89000	-119
1.89367	-119
1.89733	-118
1.90100	-118
1.90467	-119
1.90833	-119
1.91200	-119
1.91567	-118
1.91933	-118
1.92300	-118
1.92667	-118
1.93033	-118
1.93400	-118
1.93767	-117
1.94133	-117
1.94500	-117
1.94867	-116
1.95233	-116
1.95600	-116
1.95967	-116
1.96333	-116
1.96700	-116
1.97067	-116
1.97433	-116
1.97800	-116
1.98167	-116
1.98533	-116
1.98900	-116
1.99267	-116
1.99633	-115
2.00000	-115
2.00367	-114
2.00733	-114
2.01100	-114
2.01467	-114
2.01833	-114
2.02200	-114
2.02567	-114
2.02933	-114
2.03300	-114
2.03667	-113
2.04033	-113
2.04400	-113
2.04767	-112
2.05133	-112
2.05500	-111
2.05867	-110
2.06233	-110
2.06600	-110
2.06967	-109
2.07333	-109
2.07700	-110
2.08067	-110
2.08433	-110
2.08800	-109
2.09167	-109
2.09533	-108
2.09900	-108
2.10267	-108
2.10633	-107
2.11000	-107
2.11367	-106
2.11733	-106
2.12100	-105
2.12467	-104
2.12833	-104
2.13200	-103
2.13567	-103
2.13933	-102
2.14300	-102
2.14667	-101
2.15033	-101
2.15400	-102
2.15767	-102
2.16133	-101
2.16500	-101
2.16867	-100
2.17233	-100
2.17600	-99
2.17967	-99
2.18333	-99
2.18700	-98
2.19067	-98
2.19433	-98
2.19800	-98
2.20167	-98
2.20533	-97
2.20900	-96
2.21267	-96
2.21633	-96
2.22000	-95
2.22367	-95
2.22733	-96
2.23100	-96
2.23467	-97
2.23833	-97
2.24200	-97
2.24567	-97
2.24933	-97
2.25300	-97
2.25667	-96
2.26033	-96
2.26400	-96
2.26767	-96
2.27133	-96
2.27500	-95
2.27867	-95
2.28233	-95
2.28600	-95
2.28967	-94
2.29333	-94
2.29700	-93
2.30067	-92
2.30433	-91
2.30800	-90
2.31167	-90
2.31533	-90
2.31900	-89
2.32267	-89
2.32633	-89
2.33000	-89
2.33367	-88
2.33733	-88
2.34100	-87
2.34467	-87
2.34833	-86
2.35200	-85
2.35567	-85
2.35933	-84
2.36300	-84
2.36667	-83
2.37033	-82
2.37400	-81
2.37767	-79
2.38133	-76
2.38500	-73
2.38867	-70
2.39233	-66
2.39600	-61
2.39967	-56
2.40333	-51
2.40700	-46
2.41067	-41
2.41433	-37
2.41800	-33
2.42167	-30
2.42533	-27
2.42900	-24
2.43267	-21
2.43633	-18
2.44000	-16
2.44367	-14
2.44733	-11
2.45100	-9
2.45467	-7
2.45833	-6
2.46200	-4
2.46567	-3
2.46933	-2
2.47300	-1
2.47667	1
2.48033	2
2.48400	3
2.48767	4
2.49133	5
2.49500	6
2.49867	6
2.50233	7
2.50600	8
2.50967	9
2.51333	9
2.51700	10
2.52067	11
2.52433	12
2.52800	12
2.53167	12
2.53533	12
2.53900	12
2.54267	12
2.54633	13
2.55000	13
2.55367	14
2.55733	14
2.56100	14
2.56467	14
2.56833	14
2.57200	14
2.57567	14
2.57933	14
2.58300	14
2.58667	14
2.59033	15
2.59400	15
2.59767	16
2.60133	17
2.60500	17
2.60867	18
2.61233	18
2.61600	19
2.61967	19
2.62333	20
2.62700	20
2.63067	21
2.63433	21
2.63800	21
2.64167	21
2.64533	21
2.64900	21
2.65267	21
2.65633	21
2.66000	21
2.66367	21
2.66733	21
2.67100	21
2.67467	21
2.67833	21
2.68200	21
2.68567	21
2.68933	21
2.69300	22
2.69667	22
2.70033	23
2.70400	23
2.70767	23
2.71133	24
2.71500	24
2.71867	23
2.72233	23
2.72600	22
2.72967	22
2.73333	21
2.73700	21
2.74067	21
2.74433	21
2.74800	21
2.75167	21
2.75533	21
2.75900	21
2.76267	21
2.76633	22
2.77000	22
2.77367	23
2.77733	23
2.78100	23
2.78467	24
2.78833	24
2.79200	24
2.79567	24
2.79933	24
2.80300	24
2.80667	24
2.81033	23
2.81400	23
2.81767	23
2.82133	23
2.82500	23
2.82867	23
2.83233	23
2.83600	23
2.83967	22
2.84333	21
2.84700	20
2.85067	17
2.85433	12
2.85800	5
2.86167	-6
2.86533	-22
2.86900	-42
2.87267	-66
2.87633	-96
2.88000	-132
2.88367	-172
2.88733	-218
2.89100	-269
2.89467	-325
2.89833	-384
2.90200	-448
2.90567	-515
2.90933	-585
2.91300	-658
2.91667	-733
2.92033	-810
2.92400	-890
2.92767	-971
2.93133	-1055
2.93500	-1139
2.93867	-1226
2.94233	-1314
2.94600	-1399
2.94967	-1472
2.95333	-1520
2.95700	-1535
2.96067	-1513
2.96433	-1460
2.96800	-1381
2.97167	-1285
2.97533	-1178
2.97900	-1067
2.98267	-956
2.98633	-850
2.99000	-750
2.99367	-658
2.99733	-574
3.00100	-498
3.00467	-431
3.00833	-371
3.01200	-319
3.01567	-274
3.01933	-234
3.02300	-200
3.02667	-170
3.03033	-145
3.03400	-123
3.03767	-104
3.04133	-88
3.04500	-74
3.04867	-62
3.05233	-52
3.05600	-44
3.05967	-36
3.06333	-30
3.06700	-25
3.07067	-20
3.07433	-16
3.07800	-12
3.08167	-9
3.08533	-7
3.08900	-4
3.09267	-3
3.09633	-1
3.10000	1
3.10367	2
3.10733	3
3.11100	4
3.11467	5
3.11833	5
3.12200	6
3.12567	7
3.12933	7
3.13300	8
3.13667	9
3.14033	9
3.14400	10
3.14767	10
3.15133	11
3.15500	11
3.15867	11
3.16233	11
3.16600	12
3.16967	12
3.17333	12
3.17700	13
3.18067	13
3.18433	13
3.18800	14
3.19167	14
3.19533	14
3.19900	15
3.20267	15
3.20633	16
3.21000	16
3.21367	16
3.21733	16
3.22100	17
3.22467	17
3.22833	17
3.23200	18
3.23567	18
3.23933	18
3.24300	18
3.24667	18
3.25033	18
3.25400	18
3.25767	18
3.26133	19
3.26500	19
3.26867	19
3.27233	19
3.27600	19
3.27967	20
3.28333	20
3.28700	20
3.29067	21
3.29433	21
3.29800	21
3.30167	21
3.30533	21
3.30900	22
3.31267	22
3.31633	22
3.32000	22
3.32367	22
3.32733	22
3.33100	22
3.33467	22
3.33833	22
3.34200	22
3.34567	23
3.34933	23
3.35300	24
3.35667	24
3.36033	24
3.36400	24
3.36767	25
3.37133	25
3.37500	25
3.37867	25
3.38233	25
3.38600	25
3.38967	25
3.39333	26
3.39700	26
3.40067	26
3.40433	26
3.40800	26
3.41167	26
3.41533	26
3.41900	26
3.42267	26
3.42633	26
3.43000	27
3.43367	27
3.43733	27
3.44100	27
3.44467	27
3.44833	27
3.45200	28
3.45567	28
3.45933	28
3.46300	28
3.46667	28
3.47033	28
3.47400	27
3.47767	27
3.48133	27
3.48500	27
3.48867	27
3.49233	27
3.49600	27
3.49967	27
3.50333	27
3.50700	27
3.51067	27
3.51433	27
3.51800	27
3.52167	26
3.52533	26
3.52900	26
3.53267	26
3.53633	26
3.54000	26
3.54367	26
3.54733	26
3.55100	26
3.55467	26
3.55833	25
3.56200	25
3.56567	25
3.56933	25
3.57300	25
3.57667	25
3.58033	24
3.58400	24
3.58767	24
3.59133	24
3.59500	24
3.59867	24
3.60233	24
3.60600	24
3.60967	23
3.61333	23
3.61700	23
3.62067	23
3.62433	23
3.62800	23
3.63167	23
3.63533	23
3.63900	23
3.64267	23
3.64633	23
3.65000	23
3.65367	23
3.65733	23
3.66100	23
3.66467	23
3.66833	23
3.67200	23
3.67567	23
3.67933	24
3.68300	24
3.68667	24
3.69033	24
3.69400	24
3.69767	24
3.70133	24
3.70500	25
3.70867	25
3.71233	25
3.71600	25
3.71967	25
3.72333	25
3.72700	25
3.73067	25
3.73433	25
3.73800	25
3.74167	25
3.74533	25
3.74900	25
3.75267	25
3.75633	25
3.76000	25
3.76367	25
3.76733	25
3.77100	25
3.77467	25
3.77833	25
3.78200	25
3.78567	25
3.78933	25
3.79300	25
3.79667	24
3.80033	24
3.80400	24
3.80767	24
3.81133	24
3.81500	24
3.81867	24
3.82233	24
3.82600	24
3.82967	24
3.83333	24
3.83700	24
3.84067	24
3.84433	24
3.84800	24
3.85167	24
3.85533	24
3.85900	24
3.86267	24
3.86633	23
3.87000	23
3.87367	23
3.87733	23
3.88100	23
3.88467	23
3.88833	23
3.89200	23
3.89567	23
3.89933	23
3.90300	23
3.90667	23
3.91033	24
3.91400	24
3.91767	24
3.92133	24
3.92500	24
3.92867	24
3.93233	24
3.93600	24
3.93967	23
3.94333	23
3.94700	23
3.95067	23
3.95433	23
3.95800	23
3.96167	23
3.96533	23
3.96900	23
3.97267	22
3.97633	22
3.98000	22
3.98367	22
3.98733	22
3.99100	23
3.99467	23
3.99833	23

[Chromatogram (Ch3)]
Interval(msec)	220
# of Points	1091
Start Time(min)	0.002
End Time(min)	3.998
R.Time (min)	Intensity
0.00167	0
0.00533	0
0.00900	-2
0.01267	-4
0.01633	-4
0.02000	-4
0.02367	-4
0.02733	-4
0.03100	-6
0.03467	-7
0.03833	-6
0.04200	-4
0.04567	-1
0.04933	-0
0.05300	-2
0.05667	-3
0.06033	-3
0.06400	-3
0.06767	-1
0.07133	-1
0.07500	-2
0.07867	-2
0.08233	-2
0.08600	-3
0.08967	-4
0.09333	-3
0.09700	-2
0.10067	-1
0.10433	-0
0.10800	-1
0.11167	-2
0.11533	-2
0.11900	-2
0.12267	-2
0.12633	0
0.13000	1
0.13367	1
0.13733	-0
0.14100	-4
0.14467	-5
0.14833	-6
0.15200	-4
0.15567	-5
0.15933	-4
0.16300	-3
0.16667	-2
0.17033	0
0.17400	0
0.17767	0
0.18133	-1
0.18500	-1
0.18867	-2
0.19233	-2
0.19600	-1
0.19967	-0
0.20333	1
0.20700	2
0.21067	1
0.21433	0
0.21800	1
0.22167	2
0.22533	3
0.22900	4
0.23267	5
0.23633	5
0.24000	5
0.24367	3
0.24733	0
0.25100	-1
0.25467	0
0.25833	1
0.26200	1
0.26567	1
0.26933	2
0.27300	3
0.27667	3
0.28033	4
0.28400	4
0.28767	4
0.29133	4
0.29500	3
0.29867	2
0.30233	3
0.30600	5
0.30967	7
0.31333	9
0.31700	9
0.32067	9
0.32433	9
0.32800	8
0.33167	8
0.33533	8
0.33900	6
0.34267	6
0.34633	4
0.35000	3
0.35367	0
0.35733	-0
0.36100	1
0.36467	2
0.36833	2
0.37200	3
0.37567	5
0.37933	5
0.38300	4
0.38667	5
0.39033	4
0.39400	4
0.39767	4
0.40133	7
0.40500	7
0.40867	7
0.41233	6
0.41600	6
0.41967	6
0.42333	6
0.42700	6
0.43067	5
0.43433	5
0.43800	6
0.44167	5
0.44533	5
0.44900	4
0.45267	3
0.45633	4
0.46000	6
0.46367	8
0.46733	6
0.47100	5
0.47467	5
0.47833	6
0.48200	7
0.48567	7
0.48933	6
0.49300	7
0.49667	9
0.50033	9
0.50400	8
0.50767	11
0.51133	12
0.51500	11
0.51867	9
0.52233	7
0.52600	7
0.52967	7
0.53333	8
0.53700	9
0.54067	9
0.54433	11
0.54800	11
0.55167	12
0.55533	11
0.55900	11
0.56267	13
0.56633	12
0.57000	9
0.57367	9
0.57733	9
0.58100	10
0.58467	9
0.58833	10
0.59200	11
0.59567	12
0.59933	12
0.60300	11
0.60667	9
0.61033	8
0.61400	8
0.61767	8
0.62133	6
0.62500	6
0.62867	7
0.63233	8
0.63600	7
0.63967	6
0.64333	7
0.64700	8
0.65067	9
0.65433	8
0.65800	8
0.66167	11
0.66533	12
0.66900	12
0.67267	12
0.67633	13
0.68000	14
0.68367	13
0.68733	13
0.69100	12
0.69467	13
0.69833	12
0.70200	10
0.70567	11
0.70933	12
0.71300	11
0.71667	10
0.72033	10
0.72400	10
0.72767	10
0.73133	10
0.73500	11
0.73867	11
0.74233	11
0.74600	10
0.74967	8
0.75333	9
0.75700	12
0.76067	14
0.76433	15
0.76800	13
0.77167	13
0.77533	12
0.77900	14
0.78267	14
0.78633	14
0.79000	13
0.79367	12
0.79733	10
0.80100	8
0.80467	7
0.80833	6
0.81200	7
0.81567	10
0.81933	12
0.82300	12
0.82667	13
0.83033	11
0.83400	10
0.83767	11
0.84133	13
0.84500	16
0.84867	17
0.85233	17
0.85600	14
0.85967	12
0.86333	12
0.86700	14
0.87067	15
0.87433	16
0.87800	17
0.88167	17
0.88533	17
0.88900	16
0.89267	16
0.89633	14
0.90000	12
0.90367	11
0.90733	12
0.91100	12
0.91467	13
0.91833	14
0.92200	17
0.92567	19
0.92933	18
0.93300	16
0.93667	15
0.94033	14
0.94400	13
0.94767	14
0.95133	15
0.95500	14
0.95867	12
0.96233	12
0.96600	14
0.96967	17
0.97333	15
0.97700	14
0.98067	17
0.98433	19
0.98800	20
0.99167	19
0.99533	16
0.99900	13
1.00267	14
1.00633	17
1.01000	18
1.01367	18
1.01733	17
1.02100	17
1.02467	18
1.02833	18
1.03200	17
1.03567	18
1.03933	19
1.04300	19
1.04667	17
1.05033	16
1.05400	16
1.05767	17
1.06133	18
1.06500	20
1.06867	21
1.07233	21
1.07600	23
1.07967	24
1.08333	23
1.08700	23
1.09067	24
1.09433	25
1.09800	26
1.10167	26
1.10533	28
1.10900	29
1.11267	29
1.11633	27
1.12000	26
1.12367	24
1.12733	25
1.13100	27
1.13467	29
1.13833	29
1.14200	30
1.14567	30
1.14933	30
1.15300	30
1.15667	29
1.16033	30
1.16400	30
1.16767	30
1.17133	31
1.17500	31
1.17867	30
1.18233	29
1.18600	30
1.18967	30
1.19333	30
1.19700	32
1.20067	35
1.20433	37
1.20800	37
1.21167	38
1.21533	37
1.21900	35
1.22267	34
1.22633	34
1.23000	37
1.23367	37
1.23733	37
1.24100	38
1.24467	38
1.24833	38
1.25200	37
1.25567	38
1.25933	38
1.26300	37
1.26667	38
1.27033	39
1.27400	40
1.27767	39
1.28133	37
1.28500	36
1.28867	36
1.29233	36
1.29600	37
1.29967	39
1.30333	40
1.30700	41
1.31067	40
1.31433	39
1.31800	38
1.32167	38
1.32533	39
1.32900	40
1.33267	42
1.33633	44
1.34000	44
1.34367	44
1.34733	44
1.35100	44
1.35467	43
1.35833	44
1.36200	43
1.36567	42
1.36933	40
1.37300	38
1.37667	38
1.38033	38
1.38400	38
1.38767	39
1.39133	42
1.39500	43
1.39867	42
1.40233	43
1.40600	43
1.40967	42
1.41333	39
1.41700	38
1.42067	41
1.42433	42
1.42800	42
1.43167	43
1.43533	44
1.43900	43
1.44267	41
1.44633	40
1.45000	39
1.45367	39
1.45733	39
1.46100	39
1.46467	38
1.46833	37
1.47200	36
1.47567	36
1.47933	37
1.48300	40
1.48667	40
1.49033	42
1.49400	42
1.49767	41
1.50133	42
1.50500	42
1.50867	41
1.51233	42
1.51600	42
1.51967	42
1.52333	42
1.52700	41
1.53067	41
1.53433	43
1.53800	44
1.54167	46
1.54533	46
1.54900	45
1.55267	43
1.55633	43
1.56000	43
1.56367	44
1.56733	46
1.57100	47
1.57467	49
1.57833	51
1.58200	51
1.58567	48
1.58933	46
1.59300	46
1.59667	46
1.60033	45
1.60400	45
1.60767	47
1.61133	48
1.61500	49
1.61867	49
1.62233	49
1.62600	48
1.62967	49
1.63333	50
1.63700	52
1.64067	52
1.64433	52
1.64800	51
1.65167	49
1.65533	49
1.65900	52
1.66267	56
1.66633	57
1.67000	56
1.67367	56
1.67733	57
1.68100	60
1.68467	62
1.68833	60
1.69200	60
1.69567	59
1.69933	59
1.70300	59
1.70667	60
1.71033	61
1.71400	62
1.71767	61
1.72133	61
1.72500	62
1.72867	63
1.73233	65
1.73600	67
1.73967	68
1.74333	69
1.74700	70
1.75067	71
1.75433	73
1.75800	73
1.76167	73
1.76533	72
1.76900	70
1.77267	70
1.77633	71
1.78000	72
1.78367	74
1.78733	76
1.79100	76
1.79467	75
1.79833	76
1.80200	77
1.80567	77
1.80933	76
1.81300	79
1.81667	80
1.82033	82
1.82400	84
1.82767	85
1.83133	88
1.83500	92
1.83867	94
1.84233	94
1.84600	94
1.84967	94
1.85333	93
1.85700	93
1.86067	94
1.86433	93
1.86800	93
1.87167	97
1.87533	99
1.87900	98
1.88267	96
1.88633	96
1.89000	98
1.89367	101
1.89733	102
1.90100	103
1.90467	104
1.90833	104
1.91200	103
1.91567	101
1.91933	104
1.92300	108
1.92667	110
1.93033	111
1.93400	112
1.93767	115
1.94133	116
1.94500	116
1.94867	117
1.95233	117
1.95600	120
1.95967	122
1.96333	123
1.96700	125
1.97067	128
1.97433	130
1.97800	129
1.98167	129
1.98533	129
1.98900	130
1.99267	130
1.99633	131
2.00000	131
2.00367	133
2.00733	135
2.01100	136
2.01467	138
2.01833	142
2.02200	143
2.02567	143
2.02933	144
2.03300	145
2.03667	146
2.04033	147
2.04400	147
2.04767	149
2.05133	152
2.05500	154
2.05867	156
2.06233	156
2.06600	155
2.06967	155
2.07333	155
2.07700	158
2.08067	161
2.08433	162
2.08800	165
2.09167	169
2.09533	172
2.09900	174
2.10267	174
2.10633	174
2.11000	174
2.11367	175
2.11733	177
2.12100	178
2.12467	178
2.12833	179
2.13200	180
2.13567	182
2.13933	183
2.14300	185
2.14667	185
2.15033	185
2.15400	187
2.15767	191
2.16133	195
2.16500	198
2.16867	199
2.17233	197
2.17600	198
2.17967	200
2.18333	201
2.18700	201
2.19067	200
2.19433	202
2.19800	204
2.20167	206
2.20533	206
2.20900	205
2.21267	206
2.21633	207
2.22000	210
2.22367	211
2.22733	210
2.23100	211
2.23467	214
2.23833	217
2.24200	221
2.24567	224
2.24933	225
2.25300	223
2.25667	222
2.26033	223
2.26400	225
2.26767	224
2.27133	224
2.27500	226
2.27867	230
2.28233	233
2.28600	237
2.28967	239
2.29333	240
2.29700	241
2.30067	244
2.30433	245
2.30800	247
2.31167	249
2.31533	249
2.31900	250
2.32267	251
2.32633	251
2.33000	252
2.33367	252
2.33733	253
2.34100	255
2.34467	257
2.34833	259
2.35200	260
2.35567	260
2.35933	262
2.36300	264
2.36667	267
2.37033	269
2.37400	271
2.37767	273
2.38133	274
2.38500	273
2.38867	272
2.39233	272
2.39600	271
2.39967	272
2.40333	273
2.40700	275
2.41067	277
2.41433	279
2.41800	281
2.42167	283
2.42533	284
2.42900	286
2.43267	290
2.43633	294
2.44000	295
2.44367	296
2.44733	295
2.45100	293
2.45467	292
2.45833	289
2.46200	286
2.46567	283
2.46933	281
2.47300	278
2.47667	274
2.48033	271
2.48400	267
2.48767	262
2.49133	257
2.49500	251
2.49867	244
2.50233	236
2.50600	227
2.50967	218
2.51333	210
2.51700	203
2.52067	196
2.52433	191
2.52800	185
2.53167	177
2.53533	170
2.53900	165
2.54267	163
2.54633	161
2.55000	159
2.55367	155
2.55733	150
2.56100	145
2.56467	142
2.56833	140
2.57200	137
2.57567	134
2.57933	131
2.58300	129
2.58667	126
2.59033	123
2.59400	117
2.59767	110
2.60133	101
2.60500	87
2.60867	64
2.61233	36
2.61600	3
2.61967	-32
2.62333	-71
2.62700	-110
2.63067	-147
2.63433	-178
2.63800	-205
2.64167	-228
2.64533	-243
2.64900	-253
2.65267	-256
2.65633	-255
2.66000	-251
2.66367	-246
2.66733	-241
2.67100	-234
2.67467	-226
2.67833	-215
2.68200	-205
2.68567	-196
2.68933	-188
2.69300	-178
2.69667	-167
2.70033	-157
2.70400	-150
2.70767	-143
2.71133	-134
2.71500	-125
2.71867	-115
2.72233	-108
2.72600	-102
2.72967	-95
2.73333	-89
2.73700	-84
2.74067	-78
2.74433	-72
2.74800	-67
2.75167	-64
2.75533	-60
2.75900	-52
2.76267	-43
2.76633	-39
2.77000	-37
2.77367	-34
2.77733	-31
2.78100	-27
2.78467	-24
2.78833	-22
2.79200	-18
2.79567	-16
2.79933	-12
2.80300	-7
2.80667	-2
2.81033	4
2.81400	9
2.81767	13
2.82133	20
2.82500	38
2.82867	82
2.83233	186
2.83600	403
2.83967	806
2.84333	1468
2.84700	2456
2.85067	3797
2.85433	5481
2.85800	7452
2.86167	9594
2.86533	11760
2.86900	13794
2.87267	15542
2.87633	16879
2.88000	17726
2.88367	18067
2.88733	17931
2.89100	17392
2.89467	16540
2.89833	15472
2.90200	14274
2.90567	13018
2.90933	11765
2.91300	10553
2.91667	9408
2.92033	8346
2.92400	7372
2.92767	6489
2.93133	5695
2.93500	4985
2.93867	4354
2.94233	3795
2.94600	3302
2.94967	2867
2.95333	2486
2.95700	2153
2.96067	1862
2.96433	1610
2.96800	1389
2.97167	1199
2.97533	1034
2.97900	891
2.98267	767
2.98633	661
2.99000	568
2.99367	487
2.99733	414
3.00100	351
3.00467	298
3.00833	257
3.01200	220
3.01567	188
3.01933	159
3.02300	133
3.02667	114
3.03033	99
3.03400	85
3.03767	68
3.04133	56
3.04500	48
3.04867	40
3.05233	30
3.05600	21
3.05967	13
3.06333	8
3.06700	5
3.07067	-0
3.07433	-5
3.07800	-9
3.08167	-11
3.08533	-13
3.08900	-15
3.09267	-15
3.09633	-15
3.10000	-15
3.10367	-17
3.10733	-20
3.11100	-26
3.11467	-29
3.11833	-28
3.12200	-26
3.12567	-25
3.12933	-24
3.13300	-24
3.13667	-26
3.14033	-29
3.14400	-28
3.14767	-27
3.15133	-25
3.15500	-23
3.15867	-25
3.16233	-28
3.16600	-27
3.16967	-26
3.17333	-25
3.17700	-24
3.18067	-25
3.18433	-26
3.18800	-28
3.19167	-30
3.19533	-31
3.19900	-30
3.20267	-30
3.20633	-29
3.21000	-27
3.21367	-28
3.21733	-31
3.22100	-33
3.22467	-35
3.22833	-35
3.23200	-35
3.23567	-33
3.23933	-30
3.24300	-31
3.24667	-31
3.25033	-30
3.25400	-33
3.25767	-42
3.26133	-48
3.26500	-48
3.26867	-38
3.27233	-17
3.27600	12
3.27967	48
3.28333	89
3.28700	134
3.29067	178
3.29433	222
3.29800	264
3.30167	301
3.30533	337
3.30900	372
3.31267	404
3.31633	433
3.32000	461
3.32367	488
3.32733	511
3.33100	533
3.33467	553
3.33833	574
3.34200	593
3.34567	611
3.34933	628
3.35300	645
3.35667	660
3.36033	672
3.36400	682
3.36767	690
3.37133	697
3.37500	704
3.37867	709
3.38233	714
3.38600	719
3.38967	724
3.39333	728
3.39700	731
3.40067	734
3.40433	736
3.40800	739
3.41167	744
3.41533	745
3.41900	745
3.42267	743
3.42633	740
3.43000	737
3.43367	736
3.43733	734
3.44100	733
3.44467	731
3.44833	730
3.45200	726
3.45567	722
3.45933	720
3.46300	717
3.46667	715
3.47033	712
3.47400	708
3.47767	704
3.48133	701
3.48500	698
3.48867	695
3.49233	692
3.49600	688
3.49967	682
3.50333	679
3.50700	678
3.51067	675
3.51433	673
3.51800	671
3.52167	665
3.52533	661
3.52900	656
3.53267	653
3.53633	652
3.54000	650
3.54367	648
3.54733	645
3.55100	642
3.55467	637
3.55833	633
3.56200	632
3.56567	631
3.56933	630
3.57300	628
3.57667	623
3.58033	620
3.58400	617
3.58767	614
3.59133	613
3.59500	611
3.59867	607
3.60233	603
3.60600	599
3.60967	596
3.61333	593
3.61700	591
3.62067	591
3.62433	589
3.62800	586
3.63167	584
3.63533	581
3.63900	577
3.64267	571
3.64633	568
3.65000	564
3.65367	561
3.65733	558
3.66100	555
3.66467	554
3.66833	551
3.67200	549
3.67567	547
3.67933	546
3.68300	544
3.68667	544
3.69033	541
3.69400	535
3.69767	530
3.70133	524
3.70500	518
3.70867	514
3.71233	512
3.71600	508
3.71967	504
3.72333	502
3.72700	503
3.73067	501
3.73433	501
3.73800	500
3.74167	497
3.74533	493
3.74900	489
3.75267	485
3.75633	481
3.76000	475
3.76367	472
3.76733	471
3.77100	471
3.77467	470
3.77833	468
3.78200	464
3.78567	462
3.78933	460
3.79300	458
3.79667	456
3.80033	455
3.80400	452
3.80767	448
3.81133	446
3.81500	445
3.81867	443
3.82233	439
3.82600	434
3.82967	430
3.83333	428
3.83700	428
3.84067	428
3.84433	426
3.84800	422
3.85167	418
3.85533	415
3.85900	414
3.86267	414
3.86633	412
3.87000	411
3.87367	409
3.87733	409
3.88100	409
3.88467	407
3.88833	404
3.89200	403
3.89567	402
3.89933	400
3.90300	397
3.90667	394
3.91033	394
3.91400	394
3.91767	392
3.92133	389
3.92500	383
3.92867	381
3.93233	379
3.93600	376
3.93967	374
3.94333	372
3.94700	369
3.95067	367
3.95433	366
3.95800	366
3.96167	366
3.96533	364
3.96900	363
3.97267	359
3.97633	355
3.98000	352
3.98367	351
3.98733	351
3.99100	350
3.99467	349
3.99833	346

[Status Trace (Column Oven Temperature)]
Interval(msec)	1000
# of Points	240
Start Time(min)	0.001
End Time(min)	3.984
Intensity Units	
Intensity Multiplier	1
R.Time (min)	Intensity
0.00097	35.05
0.01763	35.05
0.03430	35.06
0.05097	35.06
0.06763	35.06
0.08430	35.07
0.10097	35.06
0.11763	35.06
0.13430	35.07
0.15097	35.07
0.16763	35.07
0.18430	35.06
0.20097	35.05
0.21763	35.03
0.23430	35.04
0.25097	35.02
0.26763	35.02
0.28430	35.00
0.30097	34.99
0.31763	34.99
0.33430	35.00
0.35097	35.01
0.36763	35.01
0.38430	35.01
0.40097	35.02
0.41763	35.03
0.43430	35.02
0.45097	35.02
0.46763	35.00
0.48430	35.00
0.50097	35.00
0.51763	35.00
0.53430	35.00
0.55097	34.98
0.56763	34.97
0.58430	34.97
0.60097	34.96
0.61763	34.96
0.63430	34.97
0.65097	34.97
0.66763	34.98
0.68430	35.00
0.70097	35.01
0.71763	35.01
0.73430	35.01
0.75097	35.01
0.76763	35.00
0.78430	34.98
0.80097	34.97
0.81763	34.96
0.83430	34.96
0.85097	34.96
0.86763	34.97
0.88430	34.97
0.90097	34.97
0.91763	34.98
0.93430	35.00
0.95097	34.99
0.96763	35.00
0.98430	35.01
1.00097	35.01
1.01763	35.00
1.03430	35.00
1.05097	34.99
1.06763	34.99
1.08430	35.00
1.10097	35.00
1.11763	34.98
1.13430	34.99
1.15097	35.00
1.16763	34.99
1.18430	34.99
1.20097	34.98
1.21763	34.98
1.23430	34.99
1.25097	34.99
1.26763	35.00
1.28430	35.00
1.30097	35.00
1.31763	35.00
1.33430	35.00
1.35097	35.00
1.36763	35.00
1.38430	34.99
1.40097	34.98
1.41763	34.97
1.43430	34.97
1.45097	34.97
1.46763	34.97
1.48430	34.97
1.50097	34.97
1.51763	34.98
1.53430	34.98
1.55097	34.98
1.56763	34.98
1.58430	34.99
1.60097	35.02
1.61763	35.11
1.63430	35.25
1.65097	35.46
1.66763	35.78
1.68430	36.15
1.70097	36.50
1.71763	36.83
1.73430	37.17
1.75097	37.51
1.76763	37.83
1.78430	38.18
1.80097	38.51
1.81763	38.86
1.83430	39.18
1.85097	39.50
1.86763	39.84
1.88430	40.16
1.90097	40.48
1.91763	40.80
1.93430	41.13
1.95097	41.45
1.96763	41.78
1.98430	42.11
2.00097	42.44
2.01763	42.76
2.03430	43.10
2.05097	43.41
2.06763	43.73
2.08430	44.06
2.10097	44.38
2.11763	44.71
2.13430	45.02
2.15097	45.37
2.16763	45.69
2.18430	46.02
2.20097	46.35
2.21763	46.66
2.23430	47.01
2.25097	47.33
2.26763	47.69
2.28430	48.03
2.30097	48.34
2.31763	48.68
2.33430	49.01
2.35097	49.31
2.36763	49.56
2.38430	49.69
2.40097	49.70
2.41763	49.70
2.43430	49.70
2.45097	49.71
2.46763	49.73
2.48430	49.73
2.50097	49.75
2.51763	49.75
2.53430	49.77
2.55097	49.78
2.56763	49.80
2.58430	49.82
2.60097	49.82
2.61763	49.82
2.63430	49.82
2.65097	49.84
2.66763	49.85
2.68430	49.85
2.70097	49.85
2.71763	49.86
2.73430	49.89
2.75097	49.90
2.76763	49.89
2.78430	49.88
2.80097	49.89
2.81763	49.90
2.83430	49.93
2.85097	49.94
2.86763	49.94
2.88430	49.96
2.90097	49.97
2.91763	49.97
2.93430	49.97
2.95097	49.97
2.96763	49.97
2.98430	49.96
3.00097	49.96
3.01763	49.98
3.03430	50.00
3.05097	50.01
3.06763	50.02
3.08430	50.03
3.10097	50.04
3.11763	50.06
3.13430	50.06
3.15097	50.07
3.16763	50.07
3.18430	50.08
3.20097	50.08
3.21763	50.09
3.23430	50.09
3.25097	50.09
3.26763	50.10
3.28430	50.10
3.30097	50.10
3.31763	50.10
3.33430	50.11
3.35097	50.10
3.36763	50.09
3.38430	50.07
3.40097	50.06
3.41763	50.05
3.43430	50.03
3.45097	50.02
3.46763	50.01
3.48430	50.00
3.50097	49.99
3.51763	49.99
3.53430	49.99
3.55097	50.00
3.56763	50.00
3.58430	50.01
3.60097	50.02
3.61763	50.03
3.63430	50.04
3.65097	50.04
3.66763	50.04
3.68430	50.03
3.70097	50.03
3.71763	50.02
3.73430	50.02
3.75097	50.02
3.76763	50.01
3.78430	50.02
3.80097	50.02
3.81763	50.03
3.83430	50.03
3.85097	50.03
3.86763	50.03
3.88430	50.03
3.90097	50.04
3.91763	50.04
3.93430	50.04
3.95097	50.05
3.96763	50.06
3.98430	50.07

[Status Trace (Injection Unit Temperature)]
Interval(msec)	1000
# of Points	240
Start Time(min)	0.001
End Time(min)	3.984
Intensity Units	
Intensity Multiplier	1
R.Time (min)	Intensity
0.00097	99.98
0.01763	99.98
0.03430	99.97
0.05097	99.98
0.06763	99.98
0.08430	99.98
0.10097	99.98
0.11763	99.98
0.13430	99.98
0.15097	99.98
0.16763	99.98
0.18430	99.98
0.20097	99.99
0.21763	99.98
0.23430	99.98
0.25097	99.98
0.26763	99.99
0.28430	99.98
0.30097	99.98
0.31763	99.98
0.33430	99.99
0.35097	99.98
0.36763	99.98
0.38430	99.98
0.40097	99.98
0.41763	99.98
0.43430	99.99
0.45097	99.98
0.46763	99.98
0.48430	99.98
0.50097	99.98
0.51763	99.98
0.53430	99.98
0.55097	99.98
0.56763	99.98
0.58430	99.98
0.60097	99.98
0.61763	99.98
0.63430	99.98
0.65097	99.98
0.66763	99.98
0.68430	99.98
0.70097	99.98
0.71763	99.98
0.73430	99.98
0.75097	99.98
0.76763	99.98
0.78430	99.98
0.80097	99.98
0.81763	99.98
0.83430	99.98
0.85097	99.98
0.86763	99.98
0.88430	99.98
0.90097	99.98
0.91763	99.98
0.93430	99.98
0.95097	99.98
0.96763	99.98
0.98430	99.98
1.00097	99.98
1.01763	99.98
1.03430	99.97
1.05097	99.98
1.06763	99.98
1.08430	99.98
1.10097	99.98
1.11763	99.98
1.13430	99.98
1.15097	99.98
1.16763	99.98
1.18430	99.98
1.20097	99.98
1.21763	99.98
1.23430	99.98
1.25097	99.98
1.26763	99.98
1.28430	99.98
1.30097	99.98
1.31763	99.98
1.33430	99.98
1.35097	99.98
1.36763	99.98
1.38430	99.98
1.40097	99.98
1.41763	99.98
1.43430	99.98
1.45097	99.98
1.46763	99.98
1.48430	99.98
1.50097	99.98
1.51763	99.98
1.53430	99.98
1.55097	99.98
1.56763	99.98
1.58430	99.98
1.60097	99.98
1.61763	99.98
1.63430	99.98
1.65097	99.98
1.66763	99.98
1.68430	99.98
1.70097	99.98
1.71763	99.98
1.73430	99.98
1.75097	99.98
1.76763	99.98
1.78430	99.98
1.80097	99.98
1.81763	99.98
1.83430	99.98
1.85097	99.98
1.86763	99.97
1.88430	99.98
1.90097	99.98
1.91763	99.98
1.93430	99.98
1.95097	99.98
1.96763	99.98
1.98430	99.98
2.00097	99.98
2.01763	99.97
2.03430	99.98
2.05097	99.98
2.06763	99.98
2.08430	99.97
2.10097	99.97
2.11763	99.97
2.13430	99.97
2.15097	99.98
2.16763	99.97
2.18430	99.97
2.20097	99.97
2.21763	99.97
2.23430	99.97
2.25097	99.97
2.26763	99.97
2.28430	99.97
2.30097	99.97
2.31763	99.97
2.33430	99.97
2.35097	99.97
2.36763	99.97
2.38430	99.97
2.40097	99.96
2.41763	99.96
2.43430	99.97
2.45097	99.97
2.46763	99.96
2.48430	99.96
2.50097	99.97
2.51763	99.97
2.53430	99.97
2.55097	99.97
2.56763	99.97
2.58430	99.97
2.60097	99.97
2.61763	99.97
2.63430	99.97
2.65097	99.98
2.66763	99.98
2.68430	99.98
2.70097	99.98
2.71763	99.98
2.73430	99.98
2.75097	99.98
2.76763	99.98
2.78430	99.98
2.80097	99.99
2.81763	99.99
2.83430	99.99
2.85097	99.99
2.86763	100.00
2.88430	99.99
2.90097	100.00
2.91763	100.00
2.93430	100.00
2.95097	100.00
2.96763	100.00
2.98430	100.00
3.00097	100.01
3.01763	100.01
3.03430	100.01
3.05097	100.01
3.06763	100.01
3.08430	100.01
3.10097	100.01
3.11763	100.02
3.13430	100.01
3.15097	100.02
3.16763	100.02
3.18430	100.02
3.20097	100.02
3.21763	100.02
3.23430	100.02
3.25097	100.02
3.26763	100.02
3.28430	100.02
3.30097	100.02
3.31763	100.03
3.33430	100.03
3.35097	100.03
3.36763	100.03
3.38430	100.03
3.40097	100.03
3.41763	100.04
3.43430	100.03
3.45097	100.04
3.46763	100.04
3.48430	100.03
3.50097	100.04
3.51763	100.04
3.53430	100.04
3.55097	100.04
3.56763	100.04
3.58430	100.04
3.60097	100.04
3.61763	100.05
3.63430	100.04
3.65097	100.05
3.66763	100.04
3.68430	100.05
3.70097	100.05
3.71763	100.05
3.73430	100.04
3.75097	100.04
3.76763	100.04
3.78430	100.05
3.80097	100.05
3.81763	100.05
3.83430	100.05
3.85097	100.05
3.86763	100.05
3.88430	100.05
3.90097	100.05
3.91763	100.05
3.93430	100.05
3.95097	100.05
3.96763	100.05
3.98430	100.05

[Status Trace (Carrier Gas Pressure)]
Interval(msec)	1000
# of Points	240
Start Time(min)	0.001
End Time(min)	3.984
Intensity Units	
Intensity Multiplier	1
R.Time (min)	Intensity
0.00097	58.00
0.01763	56.54
0.03430	55.98
0.05097	58.32
0.06763	59.91
0.08430	58.47
0.10097	57.97
0.11763	58.00
0.13430	58.01
0.15097	58.01
0.16763	58.00
0.18430	58.00
0.20097	58.00
0.21763	58.00
0.23430	58.00
0.25097	58.00
0.26763	58.00
0.28430	58.00
0.30097	58.00
0.31763	58.00
0.33430	58.00
0.35097	58.00
0.36763	58.00
0.38430	58.00
0.40097	58.00
0.41763	58.00
0.43430	58.00
0.45097	58.00
0.46763	58.00
0.48430	58.00
0.50097	58.00
0.51763	58.00
0.53430	58.00
0.55097	58.00
0.56763	58.00
0.58430	58.00
0.60097	58.00
0.61763	58.00
0.63430	58.00
0.65097	58.00
0.66763	58.00
0.68430	58.00
0.70097	58.00
0.71763	58.00
0.73430	58.00
0.75097	58.00
0.76763	58.00
0.78430	58.00
0.80097	58.00
0.81763	58.00
0.83430	58.00
0.85097	58.00
0.86763	58.00
0.88430	58.00
0.90097	58.00
0.91763	58.00
0.93430	58.00
0.95097	58.00
0.96763	58.00
0.98430	58.00
1.00097	58.00
1.01763	58.00
1.03430	58.00
1.05097	58.00
1.06763	58.00
1.08430	58.00
1.10097	58.00
1.11763	58.00
1.13430	58.00
1.15097	58.00
1.16763	58.00
1.18430	58.00
1.20097	58.00
1.21763	58.00
1.23430	58.00
1.25097	58.00
1.26763	58.00
1.28430	58.00
1.30097	58.00
1.31763	58.00
1.33430	58.00
1.35097	58.00
1.36763	58.00
1.38430	58.00
1.40097	58.00
1.41763	58.00
1.43430	58.00
1.45097	58.00
1.46763	58.00
1.48430	58.00
1.50097	58.00
1.51763	58.00
1.53430	58.00
1.55097	58.00
1.56763	58.00
1.58430	58.00
1.60097	58.00
1.61763	58.00
1.63430	58.00
1.65097	58.00
1.66763	58.01
1.68430	58.01
1.70097	58.00
1.71763	58.00
1.73430	58.00
1.75097	58.00
1.76763	58.00
1.78430	58.00
1.80097	58.00
1.81763	58.00
1.83430	58.00
1.85097	58.00
1.86763	58.00
1.88430	58.00
1.90097	58.00
1.91763	58.00
1.93430	58.00
1.95097	58.00
1.96763	58.00
1.98430	58.00
2.00097	58.00
2.01763	58.00
2.03430	58.00
2.05097	58.00
2.06763	58.00
2.08430	58.00
2.10097	58.00
2.11763	58.00
2.13430	58.00
2.15097	58.00
2.16763	58.00
2.18430	58.00
2.20097	58.00
2.21763	58.00
2.23430	58.00
2.25097	58.00
2.26763	58.00
2.28430	58.00
2.30097	58.00
2.31763	58.00
2.33430	58.00
2.35097	58.00
2.36763	58.00
2.38430	57.99
2.40097	57.99
2.41763	58.00
2.43430	58.00
2.45097	58.00
2.46763	58.00
2.48430	58.00
2.50097	58.00
2.51763	57.98
2.53430	57.99
2.55097	58.00
2.56763	58.00
2.58430	58.00
2.60097	58.00
2.61763	58.00
2.63430	58.00
2.65097	58.00
2.66763	58.00
2.68430	58.00
2.70097	58.00
2.71763	58.00
2.73430	58.00
2.75097	58.00
2.76763	58.00
2.78430	58.00
2.80097	58.00
2.81763	58.00
2.83430	58.00
2.85097	58.00
2.86763	58.00
2.88430	58.00
2.90097	58.00
2.91763	58.00
2.93430	58.00
2.95097	58.00
2.96763	58.00
2.98430	58.00
3.00097	58.00
3.01763	58.00
3.03430	58.00
3.05097	58.00
3.06763	58.00
3.08430	58.00
3.10097	58.00
3.11763	58.00
3.13430	58.00
3.15097	58.00
3.16763	58.00
3.18430	58.00
3.20097	58.00
3.21763	58.00
3.23430	58.00
3.25097	58.00
3.26763	58.00
3.28430	58.00
3.30097	58.00
3.31763	58.00
3.33430	58.00
3.35097	58.00
3.36763	58.00
3.38430	58.00
3.40097	58.00
3.41763	58.00
3.43430	58.00
3.45097	58.00
3.46763	58.00
3.48430	58.00
3.50097	58.00
3.51763	58.00
3.53430	58.00
3.55097	58.00
3.56763	58.00
3.58430	58.00
3.60097	58.00
3.61763	58.00
3.63430	58.00
3.65097	58.00
3.66763	58.00
3.68430	58.00
3.70097	58.00
3.71763	58.00
3.73430	58.00
3.75097	58.00
3.76763	58.00
3.78430	58.00
3.80097	58.00
3.81763	58.00
3.83430	58.00
3.85097	58.00
3.86763	58.00
3.88430	58.00
3.90097	58.00
3.91763	58.00
3.93430	58.00
3.95097	58.00
3.96763	58.00
3.98430	58.00

[Status Trace (Carrier Gas Flow)]
Interval(msec)	1000
# of Points	240
Start Time(min)	0.001
End Time(min)	3.984
Intensity Units	
Intensity Multiplier	1
R.Time (min)	Intensity
0.00097	34.52
0.01763	34.09
0.03430	34.55
0.05097	34.55
0.06763	34.48
0.08430	34.51
0.10097	34.52
0.11763	34.52
0.13430	34.52
0.15097	34.52
0.16763	34.52
0.18430	34.52
0.20097	34.52
0.21763	34.52
0.23430	34.52
0.25097	34.52
0.26763	34.52
0.28430	34.52
0.30097	34.52
0.31763	34.52
0.33430	34.52
0.35097	34.52
0.36763	34.52
0.38430	34.52
0.40097	34.52
0.41763	34.52
0.43430	34.51
0.45097	34.52
0.46763	34.52
0.48430	34.52
0.50097	34.52
0.51763	34.52
0.53430	34.52
0.55097	34.52
0.56763	34.52
0.58430	34.52
0.60097	34.52
0.61763	34.52
0.63430	34.52
0.65097	34.52
0.66763	34.52
0.68430	34.52
0.70097	34.52
0.71763	34.51
0.73430	34.52
0.75097	34.52
0.76763	34.52
0.78430	34.52
0.80097	34.52
0.81763	34.53
0.83430	34.52
0.85097	34.51
0.86763	34.52
0.88430	34.51
0.90097	34.53
0.91763	34.51
0.93430	34.51
0.95097	34.52
0.96763	34.52
0.98430	34.52
1.00097	34.52
1.01763	34.52
1.03430	34.53
1.05097	34.52
1.06763	34.52
1.08430	34.52
1.10097	34.52
1.11763	34.52
1.13430	34.52
1.15097	34.52
1.16763	34.52
1.18430	34.53
1.20097	34.52
1.21763	34.52
1.23430	34.52
1.25097	34.50
1.26763	34.52
1.28430	34.52
1.30097	34.53
1.31763	34.52
1.33430	34.52
1.35097	34.52
1.36763	34.52
1.38430	34.52
1.40097	34.52
1.41763	34.52
1.43430	34.52
1.45097	34.52
1.46763	34.51
1.48430	34.52
1.50097	34.52
1.51763	34.52
1.53430	34.52
1.55097	34.52
1.56763	34.52
1.58430	34.52
1.60097	34.52
1.61763	34.52
1.63430	34.52
1.65097	34.52
1.66763	34.52
1.68430	34.52
1.70097	34.52
1.71763	34.52
1.73430	34.52
1.75097	34.52
1.76763	34.52
1.78430	34.52
1.80097	34.52
1.81763	34.52
1.83430	34.52
1.85097	34.52
1.86763	34.52
1.88430	34.52
1.90097	34.52
1.91763	34.52
1.93430	34.52
1.95097	34.52
1.96763	34.52
1.98430	34.52
2.00097	34.52
2.01763	34.52
2.03430	34.52
2.05097	34.52
2.06763	34.52
2.08430	34.51
2.10097	34.52
2.11763	34.52
2.13430	34.52
2.15097	34.52
2.16763	34.52
2.18430	34.52
2.20097	34.52
2.21763	34.52
2.23430	34.52
2.25097	34.52
2.26763	34.52
2.28430	34.52
2.30097	34.52
2.31763	34.52
2.33430	34.52
2.35097	34.52
2.36763	34.51
2.38430	34.52
2.40097	34.52
2.41763	34.52
2.43430	34.52
2.45097	34.52
2.46763	34.52
2.48430	34.52
2.50097	34.52
2.51763	34.52
2.53430	34.52
2.55097	34.52
2.56763	34.52
2.58430	34.52
2.60097	34.52
2.61763	34.52
2.63430	34.52
2.65097	34.52
2.66763	34.52
2.68430	34.52
2.70097	34.52
2.71763	34.52
2.73430	34.52
2.75097	34.52
2.76763	34.52
2.78430	34.52
2.80097	34.52
2.81763	34.52
2.83430	34.52
2.85097	34.52
2.86763	34.52
2.88430	34.52
2.90097	34.52
2.91763	34.52
2.93430	34.52
2.95097	34.51
2.96763	34.52
2.98430	34.52
3.00097	34.52
3.01763	34.52
3.03430	34.52
3.05097	34.52
3.06763	34.52
3.08430	34.52
3.10097	34.52
3.11763	34.52
3.13430	34.52
3.15097	34.50
3.16763	34.52
3.18430	34.52
3.20097	34.52
3.21763	34.52
3.23430	34.51
3.25097	34.52
3.26763	34.52
3.28430	34.53
3.30097	34.52
3.31763	34.51
3.33430	34.52
3.35097	34.52
3.36763	34.52
3.38430	34.54
3.40097	34.52
3.41763	34.52
3.43430	34.53
3.45097	34.52
3.46763	34.53
3.48430	34.51
3.50097	34.51
3.51763	34.51
3.53430	34.52
3.55097	34.52
3.56763	34.52
3.58430	34.52
3.60097	34.51
3.61763	34.52
3.63430	34.52
3.65097	34.52
3.66763	34.52
3.68430	34.52
3.70097	34.52
3.71763	34.52
3.73430	34.52
3.75097	34.52
3.76763	34.52
3.78430	34.52
3.80097	34.52
3.81763	34.52
3.83430	34.52
3.85097	34.52
3.86763	34.52
3.88430	34.52
3.90097	34.52
3.91763	34.52
3.93430	34.52
3.95097	34.52
3.96763	34.52
3.98430	34.52

[Status Trace (Column Flow)]
Interval(msec)	1000
# of Points	240
Start Time(min)	0.001
End Time(min)	3.984
Intensity Units	
Intensity Multiplier	1
R.Time (min)	Intensity
0.00097	5.50
0.01763	5.33
0.03430	5.26
0.05097	5.53
0.06763	5.72
0.08430	5.55
0.10097	5.49
0.11763	5.50
0.13430	5.50
0.15097	5.50
0.16763	5.50
0.18430	5.50
0.20097	5.50
0.21763	5.50
0.23430	5.50
0.25097	5.50
0.26763	5.50
0.28430	5.50
0.30097	5.50
0.31763	5.50
0.33430	5.50
0.35097	5.50
0.36763	5.50
0.38430	5.50
0.40097	5.50
0.41763	5.50
0.43430	5.50
0.45097	5.50
0.46763	5.50
0.48430	5.50
0.50097	5.50
0.51763	5.50
0.53430	5.50
0.55097	5.50
0.56763	5.50
0.58430	5.50
0.60097	5.50
0.61763	5.50
0.63430	5.50
0.65097	5.50
0.66763	5.50
0.68430	5.50
0.70097	5.50
0.71763	5.50
0.73430	5.50
0.75097	5.50
0.76763	5.50
0.78430	5.50
0.80097	5.50
0.81763	5.50
0.83430	5.50
0.85097	5.50
0.86763	5.50
0.88430	5.50
0.90097	5.50
0.91763	5.50
0.93430	5.50
0.95097	5.50
0.96763	5.50
0.98430	5.50
1.00097	5.50
1.01763	5.50
1.03430	5.50
1.05097	5.50
1.06763	5.50
1.08430	5.50
1.10097	5.50
1.11763	5.50
1.13430	5.50
1.15097	5.50
1.16763	5.50
1.18430	5.50
1.20097	5.50
1.21763	5.50
1.23430	5.50
1.25097	5.50
1.26763	5.50
1.28430	5.50
1.30097	5.50
1.31763	5.50
1.33430	5.50
1.35097	5.50
1.36763	5.50
1.38430	5.50
1.40097	5.50
1.41763	5.50
1.43430	5.50
1.45097	5.50
1.46763	5.50
1.48430	5.50
1.50097	5.50
1.51763	5.50
1.53430	5.50
1.55097	5.50
1.56763	5.50
1.58430	5.50
1.60097	5.50
1.61763	5.49
1.63430	5.49
1.65097	5.48
1.66763	5.47
1.68430	5.46
1.70097	5.45
1.71763	5.44
1.73430	5.43
1.75097	5.42
1.76763	5.41
1.78430	5.40
1.80097	5.39
1.81763	5.38
1.83430	5.37
1.85097	5.36
1.86763	5.35
1.88430	5.34
1.90097	5.33
1.91763	5.32
1.93430	5.31
1.95097	5.30
1.96763	5.29
1.98430	5.28
2.00097	5.27
2.01763	5.26
2.03430	5.25
2.05097	5.24
2.06763	5.23
2.08430	5.22
2.10097	5.21
2.11763	5.21
2.13430	5.20
2.15097	5.19
2.16763	5.18
2.18430	5.17
2.20097	5.16
2.21763	5.15
2.23430	5.14
2.25097	5.13
2.26763	5.12
2.28430	5.11
2.30097	5.10
2.31763	5.09
2.33430	5.08
2.35097	5.08
2.36763	5.07
2.38430	5.06
2.40097	5.06
2.41763	5.06
2.43430	5.06
2.45097	5.06
2.46763	5.06
2.48430	5.06
2.50097	5.06
2.51763	5.06
2.53430	5.06
2.55097	5.06
2.56763	5.06
2.58430	5.06
2.60097	5.06
2.61763	5.06
2.63430	5.06
2.65097	5.06
2.66763	5.06
2.68430	5.06
2.70097	5.06
2.71763	5.06
2.73430	5.06
2.75097	5.06
2.76763	5.06
2.78430	5.06
2.80097	5.06
2.81763	5.06
2.83430	5.06
2.85097	5.06
2.86763	5.06
2.88430	5.06
2.90097	5.06
2.91763	5.06
2.93430	5.06
2.95097	5.06
2.96763	5.06
2.98430	5.06
3.00097	5.06
3.01763	5.06
3.03430	5.06
3.05097	5.06
3.06763	5.06
3.08430	5.06
3.10097	5.06
3.11763	5.05
3.13430	5.05
3.15097	5.05
3.16763	5.05
3.18430	5.05
3.20097	5.05
3.21763	5.05
3.23430	5.05
3.25097	5.05
3.26763	5.05
3.28430	5.05
3.30097	5.05
3.31763	5.05
3.33430	5.05
3.35097	5.05
3.36763	5.05
3.38430	5.05
3.40097	5.05
3.41763	5.05
3.43430	5.06
3.45097	5.06
3.46763	5.06
3.48430	5.06
3.50097	5.06
3.51763	5.06
3.53430	5.06
3.55097	5.06
3.56763	5.06
3.58430	5.06
3.60097	5.06
3.61763	5.06
3.63430	5.06
3.65097	5.06
3.66763	5.06
3.68430	5.06
3.70097	5.06
3.71763	5.06
3.73430	5.06
3.75097	5.06
3.76763	5.06
3.78430	5.06
3.80097	5.06
3.81763	5.06
3.83430	5.06
3.85097	5.06
3.86763	5.06
3.88430	5.06
3.90097	5.06
3.91763	5.06
3.93430	5.06
3.95097	5.06
3.96763	5.05
3.98430	5.05

[Status Trace (Linear Velocity)]
Interval(msec)	1000
# of Points	240
Start Time(min)	0.001
End Time(min)	3.984
Intensity Units	
Intensity Multiplier	1
R.Time (min)	Intensity
0.00097	39.01
0.01763	38.05
0.03430	37.68
0.05097	39.21
0.06763	40.26
0.08430	39.31
0.10097	38.99
0.11763	39.01
0.13430	39.01
0.15097	39.01
0.16763	39.01
0.18430	39.01
0.20097	39.01
0.21763	39.01
0.23430	39.01
0.25097	39.01
0.26763	39.01
0.28430	39.01
0.30097	39.01
0.31763	39.01
0.33430	39.01
0.35097	39.01
0.36763	39.01
0.38430	39.01
0.40097	39.01
0.41763	39.01
0.43430	39.01
0.45097	39.01
0.46763	39.01
0.48430	39.01
0.50097	39.01
0.51763	39.01
0.53430	39.01
0.55097	39.01
0.56763	39.01
0.58430	39.01
0.60097	39.02
0.61763	39.02
0.63430	39.01
0.65097	39.01
0.66763	39.01
0.68430	39.01
0.70097	39.01
0.71763	39.01
0.73430	39.01
0.75097	39.01
0.76763	39.01
0.78430	39.01
0.80097	39.01
0.81763	39.01
0.83430	39.02
0.85097	39.01
0.86763	39.01
0.88430	39.01
0.90097	39.01
0.91763	39.01
0.93430	39.01
0.95097	39.01
0.96763	39.01
0.98430	39.01
1.00097	39.01
1.01763	39.01
1.03430	39.01
1.05097	39.01
1.06763	39.01
1.08430	39.01
1.10097	39.01
1.11763	39.01
1.13430	39.01
1.15097	39.01
1.16763	39.01
1.18430	39.01
1.20097	39.01
1.21763	39.01
1.23430	39.01
1.25097	39.01
1.26763	39.01
1.28430	39.01
1.30097	39.01
1.31763	39.01
1.33430	39.01
1.35097	39.01
1.36763	39.01
1.38430	39.01
1.40097	39.01
1.41763	39.01
1.43430	39.01
1.45097	39.01
1.46763	39.01
1.48430	39.01
1.50097	39.01
1.51763	39.01
1.53430	39.01
1.55097	39.01
1.56763	39.01
1.58430	39.01
1.60097	39.01
1.61763	39.00
1.63430	38.99
1.65097	38.97
1.66763	38.94
1.68430	38.90
1.70097	38.87
1.71763	38.84
1.73430	38.80
1.75097	38.77
1.76763	38.74
1.78430	38.71
1.80097	38.68
1.81763	38.64
1.83430	38.61
1.85097	38.58
1.86763	38.55
1.88430	38.52
1.90097	38.49
1.91763	38.46
1.93430	38.43
1.95097	38.40
1.96763	38.37
1.98430	38.34
2.00097	38.31
2.01763	38.28
2.03430	38.25
2.05097	38.22
2.06763	38.19
2.08430	38.16
2.10097	38.13
2.11763	38.10
2.13430	38.07
2.15097	38.04
2.16763	38.01
2.18430	37.98
2.20097	37.95
2.21763	37.92
2.23430	37.89
2.25097	37.86
2.26763	37.83
2.28430	37.80
2.30097	37.77
2.31763	37.74
2.33430	37.72
2.35097	37.69
2.36763	37.66
2.38430	37.65
2.40097	37.65
2.41763	37.65
2.43430	37.65
2.45097	37.65
2.46763	37.65
2.48430	37.65
2.50097	37.65
2.51763	37.64
2.53430	37.64
2.55097	37.65
2.56763	37.64
2.58430	37.64
2.60097	37.64
2.61763	37.64
2.63430	37.64
2.65097	37.64
2.66763	37.64
2.68430	37.64
2.70097	37.64
2.71763	37.64
2.73430	37.64
2.75097	37.64
2.76763	37.64
2.78430	37.64
2.80097	37.64
2.81763	37.64
2.83430	37.63
2.85097	37.63
2.86763	37.63
2.88430	37.63
2.90097	37.63
2.91763	37.63
2.93430	37.63
2.95097	37.63
2.96763	37.63
2.98430	37.63
3.00097	37.63
3.01763	37.63
3.03430	37.63
3.05097	37.63
3.06763	37.63
3.08430	37.62
3.10097	37.62
3.11763	37.62
3.13430	37.62
3.15097	37.62
3.16763	37.62
3.18430	37.62
3.20097	37.62
3.21763	37.62
3.23430	37.62
3.25097	37.62
3.26763	37.62
3.28430	37.62
3.30097	37.62
3.31763	37.62
3.33430	37.62
3.35097	37.62
3.36763	37.62
3.38430	37.62
3.40097	37.62
3.41763	37.62
3.43430	37.62
3.45097	37.63
3.46763	37.63
3.48430	37.63
3.50097	37.63
3.51763	37.63
3.53430	37.63
3.55097	37.63
3.56763	37.63
3.58430	37.63
3.60097	37.63
3.61763	37.62
3.63430	37.62
3.65097	37.62
3.66763	37.62
3.68430	37.62
3.70097	37.62
3.71763	37.63
3.73430	37.63
3.75097	37.63
3.76763	37.63
3.78430	37.63
3.80097	37.63
3.81763	37.62
3.83430	37.62
3.85097	37.62
3.86763	37.62
3.88430	37.62
3.90097	37.62
3.91763	37.62
3.93430	37.62
3.95097	37.62
3.96763	37.62
3.98430	37.62

