[Header]
Application Name	LabSolutions
Version	5.110
Data File Name	C:\Users\User\Desktop\GC Analyses\Jack\UIC Prairie Sampling\7.9.22\220909_077.gcd
Output Date	9/28/2022
Output Time	11:29:54 AM

[File Information]
Type	Data File
Generated	9/15/2022 1:47:09 PM
Generated by	System Administrator
Modified	9/15/2022 1:51:38 PM
Modified by	System Administrator

[Sample Information]
Operator Name	System Administrator
Acquired	9/15/2022 1:47:36 PM
Sample Type	1:Standard
Level	1
Sample Name	220909_Run
Sample ID	220909_Run
ISTD Amount1	1
ISTD Amount2	1
ISTD Amount3	1
ISTD Amount4	1
ISTD Amount5	1
ISTD Amount6	1
ISTD Amount7	1
ISTD Amount8	1
ISTD Amount9	1
ISTD Amount10	1
ISTD Amount11	1
ISTD Amount12	1
ISTD Amount13	1
ISTD Amount14	1
ISTD Amount15	1
ISTD Amount16	1
ISTD Amount17	1
ISTD Amount18	1
ISTD Amount19	1
ISTD Amount20	1
ISTD Amount21	1
ISTD Amount22	1
ISTD Amount23	1
ISTD Amount24	1
ISTD Amount25	1
ISTD Amount26	1
ISTD Amount27	1
ISTD Amount28	1
ISTD Amount29	1
ISTD Amount30	1
ISTD Amount31	1
ISTD Amount32	1
Sample Amount	1
Dilution Factor	1
Vial#	1
Injection Volume	1
Injection Count	1
Bar Code	

[Original Files]
Data File	C:\Users\User\Desktop\GC Analyses\Jack\220909\220909_077.gcd
Method File	C:\LabSolutions\Data\GHG_4min_2022\ghg3_togas_w_acet_4 min_new_int.gcm
Batch File	
Report Format File	c:\LabSolutions\System\DEFAULT.lsr

[File Description]


[Configuration]
Instrument Name	C0B7VH3-Instrument1
Instrument #	1
Line #	1
# of Detectors	3
Detector ID	DET#1	DET#2	DET#3
Detector Name	FID	PTCD	ECD
# of Channels	1	1	1

[Peak Table(Ch1)]
# of Peaks	4
Peak#	R.Time	I.Time	F.Time	Area	Height	A/H	Conc.	Mark	ID#	Name	k'	Plate #	Plate Ht.	Tailing	Resolution	Sep.Factor	Area Ratio	Height Ratio	Conc. %	Norm Conc.
1	0.717	0.530	1.113	1311	69	19.047	0.000	   			0.000	72	2073.808	1.707	0.000	0.000	0	0	0.000	0.000
2	1.468	1.421	1.534	7584	2996	2.532	100.000	   	1	CO	1.049	6636	22.604	1.448	3.674	0.000	0	0	16.667	16.667
3	1.567	1.534	1.641	20610	10396	1.982	100.000	 V 	2	CH4	1.187	11446	13.105	1.275	1.515	1.132	0	0	16.667	16.667
4	1.996	1.949	2.293	2155804	1052722	2.048	400.000	   	3	CO2	1.786	17411	8.615	1.237	7.203	1.504	0	0	66.667	66.667

[Peak Table(Ch2)]
# of Peaks	0

[Peak Table(Ch3)]
# of Peaks	3
Peak#	R.Time	I.Time	F.Time	Area	Height	A/H	Conc.	Mark	ID#	Name	k'	Plate #	Plate Ht.	Tailing	Resolution	Sep.Factor	Area Ratio	Height Ratio	Conc. %	Norm Conc.
1	2.477	0.882	2.649	19673	463	42.520	0.000	   			0.000	96	1566.072	0.556	0.000	0.000	0	0	0.000	0.000
2	2.880	2.660	3.063	62400	15451	4.039	1.000	   	1	N2O	0.163	12262	12.233	1.584	0.723	0.000	0	0	50.000	50.000
3	3.199	3.063	3.995	26045	870	29.923	1.000	 V 	2	SF6	0.292	258	580.844	0.000	0.709	1.791	0	0	50.000	50.000

[Compound Results(Ch1)]
# of IDs	6
ID#	Name	R.Time	Area	Height	Conc.	Curve	3rd	2nd	1st	Constant	Area Ratio	Height Ratio	Conc. %	Norm Conc.
1	CO	1.468	7584	2996	100.000	Linear	0.000000e+00	0.000000e+00	7.584248e+001	0.000000e+00	0	0	16.667	16.667
2	CH4	1.567	20610	10396	100.000	Linear	0.000000e+00	0.000000e+00	2.060971e+002	0.000000e+00	0	0	16.667	16.667
3	CO2	1.996	2155804	1052722	400.000	Linear	0.000000e+00	0.000000e+00	5.389510e+003	0.000000e+00	0	0	66.667	66.667
4	Ethylene	0.000	0	0	0.000	Linear	0.000000e+00	0.000000e+00	0.000000e+00	0.000000e+00	0	0	0.000	0.000
5	Acetylene	0.000	0	0	0.000	Linear	0.000000e+00	0.000000e+00	0.000000e+00	0.000000e+00	0	0	0.000	0.000
6	Ethane	0.000	0	0	0.000	Linear	0.000000e+00	0.000000e+00	0.000000e+00	0.000000e+00	0	0	0.000	0.000

[Compound Results(Ch2)]
# of IDs	5
ID#	Name	R.Time	Area	Height	Conc.	Curve	3rd	2nd	1st	Constant	Area Ratio	Height Ratio	Conc. %	Norm Conc.
1	Hydrogen	0.000	0	0	0.000	Linear	0.000000e+00	0.000000e+00	0.000000e+00	0.000000e+00	0	0	0.000	0.000
2	Oxygen	0.000	0	0	0.000	Linear	0.000000e+00	0.000000e+00	0.000000e+00	0.000000e+00	0	0	0.000	0.000
3	Nitrogen	0.000	0	0	0.000	Linear	0.000000e+00	0.000000e+00	0.000000e+00	0.000000e+00	0	0	0.000	0.000
4	Methane	0.000	0	0	0.000	Linear	0.000000e+00	0.000000e+00	0.000000e+00	0.000000e+00	0	0	0.000	0.000
5	Carbon Monoxide	0.000	0	0	0.000	Linear	0.000000e+00	0.000000e+00	0.000000e+00	0.000000e+00	0	0	0.000	0.000

[Compound Results(Ch3)]
# of IDs	2
ID#	Name	R.Time	Area	Height	Conc.	Curve	3rd	2nd	1st	Constant	Area Ratio	Height Ratio	Conc. %	Norm Conc.
1	N2O	2.880	62400	15451	1.000	Linear	0.000000e+00	0.000000e+00	6.239962e+004	0.000000e+00	0	0	50.000	50.000
2	SF6	3.199	26045	870	1.000	Linear	0.000000e+00	0.000000e+00	2.604522e+004	0.000000e+00	0	0	50.000	50.000

[Group Results(Ch1)]
# of Groups	0

[Group Results(Ch2)]
# of Groups	0

[Group Results(Ch3)]
# of Groups	0

[Chromatogram (Ch1)]
Interval(msec)	220
# of Points	1091
Start Time(min)	0.002
End Time(min)	3.998
R.Time (min)	Intensity
0.00167	6
0.00533	7
0.00900	6
0.01267	3
0.01633	2
0.02000	2
0.02367	1
0.02733	0
0.03100	-2
0.03467	-3
0.03833	-3
0.04200	-2
0.04567	-1
0.04933	3
0.05300	7
0.05667	7
0.06033	6
0.06400	5
0.06767	3
0.07133	2
0.07500	3
0.07867	8
0.08233	17
0.08600	23
0.08967	24
0.09333	22
0.09700	19
0.10067	15
0.10433	14
0.10800	13
0.11167	11
0.11533	8
0.11900	2
0.12267	-0
0.12633	-4
0.13000	-3
0.13367	2
0.13733	6
0.14100	7
0.14467	5
0.14833	4
0.15200	5
0.15567	6
0.15933	8
0.16300	15
0.16667	23
0.17033	30
0.17400	27
0.17767	15
0.18133	-1
0.18500	-17
0.18867	-29
0.19233	-34
0.19600	-29
0.19967	-19
0.20333	-9
0.20700	-6
0.21067	-12
0.21433	-20
0.21800	-25
0.22167	-27
0.22533	-26
0.22900	-24
0.23267	-20
0.23633	-15
0.24000	-12
0.24367	-10
0.24733	-6
0.25100	3
0.25467	12
0.25833	15
0.26200	11
0.26567	6
0.26933	-0
0.27300	-3
0.27667	-4
0.28033	-6
0.28400	-8
0.28767	-9
0.29133	-7
0.29500	-5
0.29867	-5
0.30233	-7
0.30600	-9
0.30967	-10
0.31333	-11
0.31700	-10
0.32067	-9
0.32433	-9
0.32800	-8
0.33167	-5
0.33533	-3
0.33900	-1
0.34267	-0
0.34633	-2
0.35000	-5
0.35367	-7
0.35733	-9
0.36100	-10
0.36467	-8
0.36833	-3
0.37200	2
0.37567	6
0.37933	8
0.38300	4
0.38667	-2
0.39033	-6
0.39400	-8
0.39767	-11
0.40133	-15
0.40500	-20
0.40867	-21
0.41233	-17
0.41600	-11
0.41967	-5
0.42333	-5
0.42700	-8
0.43067	-12
0.43433	-14
0.43800	-13
0.44167	-11
0.44533	-14
0.44900	-17
0.45267	-19
0.45633	-19
0.46000	-19
0.46367	-22
0.46733	-27
0.47100	-28
0.47467	-28
0.47833	-28
0.48200	-27
0.48567	-25
0.48933	-25
0.49300	-27
0.49667	-30
0.50033	-32
0.50400	-31
0.50767	-28
0.51133	-27
0.51500	-29
0.51867	-31
0.52233	-32
0.52600	-31
0.52967	-26
0.53333	-22
0.53700	-21
0.54067	-19
0.54433	-21
0.54800	-23
0.55167	-24
0.55533	-21
0.55900	-20
0.56267	-21
0.56633	-20
0.57000	-15
0.57367	-13
0.57733	-14
0.58100	-17
0.58467	-16
0.58833	-12
0.59200	-9
0.59567	-6
0.59933	-5
0.60300	-5
0.60667	-1
0.61033	10
0.61400	23
0.61767	32
0.62133	33
0.62500	29
0.62867	24
0.63233	18
0.63600	15
0.63967	16
0.64333	20
0.64700	22
0.65067	21
0.65433	21
0.65800	24
0.66167	28
0.66533	30
0.66900	30
0.67267	28
0.67633	27
0.68000	28
0.68367	31
0.68733	34
0.69100	39
0.69467	41
0.69833	43
0.70200	43
0.70567	43
0.70933	44
0.71300	44
0.71667	44
0.72033	44
0.72400	42
0.72767	41
0.73133	39
0.73500	39
0.73867	41
0.74233	44
0.74600	42
0.74967	38
0.75333	31
0.75700	27
0.76067	27
0.76433	29
0.76800	31
0.77167	32
0.77533	32
0.77900	30
0.78267	27
0.78633	29
0.79000	29
0.79367	25
0.79733	22
0.80100	21
0.80467	24
0.80833	27
0.81200	31
0.81567	32
0.81933	32
0.82300	29
0.82667	27
0.83033	24
0.83400	21
0.83767	16
0.84133	12
0.84500	12
0.84867	12
0.85233	12
0.85600	10
0.85967	9
0.86333	11
0.86700	13
0.87067	17
0.87433	24
0.87800	30
0.88167	32
0.88533	27
0.88900	17
0.89267	10
0.89633	8
0.90000	10
0.90367	12
0.90733	14
0.91100	16
0.91467	16
0.91833	21
0.92200	26
0.92567	28
0.92933	27
0.93300	24
0.93667	22
0.94033	17
0.94400	12
0.94767	6
0.95133	1
0.95500	-1
0.95867	-3
0.96233	-3
0.96600	2
0.96967	8
0.97333	13
0.97700	15
0.98067	14
0.98433	13
0.98800	10
0.99167	5
0.99533	1
0.99900	-0
1.00267	-0
1.00633	-1
1.01000	0
1.01367	2
1.01733	5
1.02100	9
1.02467	10
1.02833	11
1.03200	9
1.03567	7
1.03933	7
1.04300	8
1.04667	6
1.05033	2
1.05400	-1
1.05767	-2
1.06133	1
1.06500	3
1.06867	6
1.07233	8
1.07600	7
1.07967	4
1.08333	-1
1.08700	-1
1.09067	1
1.09433	0
1.09800	-4
1.10167	-9
1.10533	-13
1.10900	-17
1.11267	-22
1.11633	-27
1.12000	-28
1.12367	-25
1.12733	-20
1.13100	-17
1.13467	-17
1.13833	-17
1.14200	-16
1.14567	-13
1.14933	-14
1.15300	-18
1.15667	-22
1.16033	-23
1.16400	-24
1.16767	-23
1.17133	-19
1.17500	-18
1.17867	-16
1.18233	-16
1.18600	-16
1.18967	-17
1.19333	-19
1.19700	-24
1.20067	-30
1.20433	-36
1.20800	-37
1.21167	-36
1.21533	-34
1.21900	-30
1.22267	-28
1.22633	-27
1.23000	-28
1.23367	-27
1.23733	-25
1.24100	-25
1.24467	-27
1.24833	-29
1.25200	-29
1.25567	-28
1.25933	-28
1.26300	-30
1.26667	-31
1.27033	-34
1.27400	-34
1.27767	-29
1.28133	-25
1.28500	-26
1.28867	-33
1.29233	-40
1.29600	-42
1.29967	-42
1.30333	-42
1.30700	-40
1.31067	-36
1.31433	-32
1.31800	-32
1.32167	-40
1.32533	-50
1.32900	-56
1.33267	-56
1.33633	-56
1.34000	-58
1.34367	-60
1.34733	-61
1.35100	-57
1.35467	-50
1.35833	-44
1.36200	-42
1.36567	-43
1.36933	-44
1.37300	-44
1.37667	-43
1.38033	-43
1.38400	-43
1.38767	-41
1.39133	-41
1.39500	-43
1.39867	-47
1.40233	-51
1.40600	-54
1.40967	-59
1.41333	-63
1.41700	-65
1.42067	-62
1.42433	-58
1.42800	-51
1.43167	-43
1.43533	-31
1.43900	11
1.44267	177
1.44633	576
1.45000	1156
1.45367	1758
1.45733	2263
1.46100	2623
1.46467	2839
1.46833	2925
1.47200	2885
1.47567	2738
1.47933	2507
1.48300	2216
1.48667	1890
1.49033	1556
1.49400	1243
1.49767	968
1.50133	735
1.50500	543
1.50867	387
1.51233	263
1.51600	166
1.51967	90
1.52333	29
1.52700	-18
1.53067	-51
1.53433	-65
1.53800	-8
1.54167	293
1.54533	1127
1.54900	2646
1.55267	4631
1.55633	6651
1.56000	8370
1.56367	9625
1.56733	10307
1.57100	10276
1.57467	9467
1.57833	8038
1.58200	6329
1.58567	4677
1.58933	3288
1.59300	2223
1.59667	1454
1.60033	919
1.60400	561
1.60767	326
1.61133	171
1.61500	69
1.61867	5
1.62233	-36
1.62600	-61
1.62967	-78
1.63333	-89
1.63700	-98
1.64067	-102
1.64433	-103
1.64800	-101
1.65167	-99
1.65533	-100
1.65900	-105
1.66267	-113
1.66633	-122
1.67000	-126
1.67367	-132
1.67733	-137
1.68100	-140
1.68467	-139
1.68833	-138
1.69200	-136
1.69567	-134
1.69933	-134
1.70300	-133
1.70667	-127
1.71033	-118
1.71400	-105
1.71767	-93
1.72133	-85
1.72500	-85
1.72867	-95
1.73233	-111
1.73600	-128
1.73967	-141
1.74333	-145
1.74700	-144
1.75067	-138
1.75433	-128
1.75800	-119
1.76167	-111
1.76533	-104
1.76900	-103
1.77267	-104
1.77633	-106
1.78000	-105
1.78367	-103
1.78733	-104
1.79100	-110
1.79467	-118
1.79833	-123
1.80200	-126
1.80567	-126
1.80933	-123
1.81300	-113
1.81667	-100
1.82033	-95
1.82400	-93
1.82767	-93
1.83133	-93
1.83500	-90
1.83867	-84
1.84233	-81
1.84600	-84
1.84967	-93
1.85333	-103
1.85700	-109
1.86067	-111
1.86433	-106
1.86800	-97
1.87167	-90
1.87533	-88
1.87900	-93
1.88267	-101
1.88633	-106
1.89000	-105
1.89367	-101
1.89733	-95
1.90100	-95
1.90467	-100
1.90833	-105
1.91200	-108
1.91567	-110
1.91933	-112
1.92300	-111
1.92667	-105
1.93033	-99
1.93400	-95
1.93767	-95
1.94133	-99
1.94500	-102
1.94867	-97
1.95233	-65
1.95600	150
1.95967	1377
1.96333	6833
1.96700	25360
1.97067	73757
1.97433	171437
1.97800	325449
1.98167	519502
1.98533	719850
1.98900	891284
1.99267	1007400
1.99633	1052655
2.00000	1023491
2.00367	929029
2.00733	789574
2.01100	631412
2.01467	478859
2.01833	347808
2.02200	244489
2.02567	167992
2.02933	113842
2.03300	76686
2.03667	51714
2.04033	35135
2.04400	24189
2.04767	16961
2.05133	12162
2.05500	8944
2.05867	6758
2.06233	5244
2.06600	4173
2.06967	3399
2.07333	2828
2.07700	2395
2.08067	2060
2.08433	1794
2.08800	1580
2.09167	1407
2.09533	1265
2.09900	1148
2.10267	1048
2.10633	961
2.11000	881
2.11367	810
2.11733	749
2.12100	701
2.12467	660
2.12833	623
2.13200	589
2.13567	560
2.13933	534
2.14300	510
2.14667	482
2.15033	452
2.15400	424
2.15767	403
2.16133	388
2.16500	377
2.16867	368
2.17233	361
2.17600	353
2.17967	340
2.18333	325
2.18700	310
2.19067	301
2.19433	296
2.19800	291
2.20167	284
2.20533	273
2.20900	257
2.21267	242
2.21633	228
2.22000	214
2.22367	202
2.22733	195
2.23100	193
2.23467	194
2.23833	194
2.24200	192
2.24567	186
2.24933	178
2.25300	171
2.25667	166
2.26033	162
2.26400	159
2.26767	157
2.27133	156
2.27500	154
2.27867	148
2.28233	137
2.28600	128
2.28967	123
2.29333	118
2.29700	115
2.30067	116
2.30433	119
2.30800	121
2.31167	120
2.31533	116
2.31900	113
2.32267	116
2.32633	120
2.33000	122
2.33367	123
2.33733	123
2.34100	118
2.34467	110
2.34833	103
2.35200	95
2.35567	89
2.35933	88
2.36300	86
2.36667	84
2.37033	82
2.37400	81
2.37767	79
2.38133	75
2.38500	69
2.38867	65
2.39233	64
2.39600	65
2.39967	70
2.40333	80
2.40700	87
2.41067	89
2.41433	84
2.41800	78
2.42167	73
2.42533	69
2.42900	66
2.43267	61
2.43633	58
2.44000	57
2.44367	59
2.44733	58
2.45100	58
2.45467	60
2.45833	63
2.46200	70
2.46567	76
2.46933	75
2.47300	67
2.47667	56
2.48033	49
2.48400	45
2.48767	41
2.49133	39
2.49500	39
2.49867	37
2.50233	34
2.50600	35
2.50967	38
2.51333	40
2.51700	37
2.52067	34
2.52433	36
2.52800	41
2.53167	45
2.53533	46
2.53900	45
2.54267	44
2.54633	41
2.55000	35
2.55367	29
2.55733	21
2.56100	12
2.56467	5
2.56833	1
2.57200	-1
2.57567	-1
2.57933	3
2.58300	7
2.58667	12
2.59033	18
2.59400	25
2.59767	29
2.60133	27
2.60500	22
2.60867	17
2.61233	12
2.61600	10
2.61967	8
2.62333	7
2.62700	4
2.63067	2
2.63433	2
2.63800	4
2.64167	6
2.64533	4
2.64900	3
2.65267	5
2.65633	8
2.66000	8
2.66367	5
2.66733	2
2.67100	4
2.67467	7
2.67833	12
2.68200	15
2.68567	11
2.68933	4
2.69300	-2
2.69667	-6
2.70033	-9
2.70400	-8
2.70767	-6
2.71133	-5
2.71500	-3
2.71867	-2
2.72233	-5
2.72600	-9
2.72967	-13
2.73333	-16
2.73700	-17
2.74067	-17
2.74433	-12
2.74800	-6
2.75167	1
2.75533	6
2.75900	9
2.76267	7
2.76633	-2
2.77000	-14
2.77367	-23
2.77733	-29
2.78100	-33
2.78467	-35
2.78833	-37
2.79200	-37
2.79567	-32
2.79933	-24
2.80300	-20
2.80667	-18
2.81033	-14
2.81400	-9
2.81767	-6
2.82133	-2
2.82500	-2
2.82867	0
2.83233	2
2.83600	5
2.83967	7
2.84333	6
2.84700	4
2.85067	2
2.85433	1
2.85800	0
2.86167	-1
2.86533	-2
2.86900	-1
2.87267	-5
2.87633	-11
2.88000	-14
2.88367	-14
2.88733	-14
2.89100	-15
2.89467	-14
2.89833	-14
2.90200	-13
2.90567	-10
2.90933	-7
2.91300	-7
2.91667	-8
2.92033	-8
2.92400	-8
2.92767	-8
2.93133	-9
2.93500	-8
2.93867	-5
2.94233	-4
2.94600	-12
2.94967	-25
2.95333	-38
2.95700	-49
2.96067	-52
2.96433	-52
2.96800	-49
2.97167	-45
2.97533	-40
2.97900	-32
2.98267	-24
2.98633	-21
2.99000	-22
2.99367	-24
2.99733	-25
3.00100	-26
3.00467	-29
3.00833	-27
3.01200	-24
3.01567	-21
3.01933	-20
3.02300	-23
3.02667	-27
3.03033	-31
3.03400	-34
3.03767	-35
3.04133	-37
3.04500	-37
3.04867	-35
3.05233	-31
3.05600	-26
3.05967	-23
3.06333	-24
3.06700	-25
3.07067	-23
3.07433	-21
3.07800	-25
3.08167	-30
3.08533	-31
3.08900	-27
3.09267	-28
3.09633	-30
3.10000	-35
3.10367	-39
3.10733	-40
3.11100	-37
3.11467	-28
3.11833	-21
3.12200	-18
3.12567	-16
3.12933	-13
3.13300	-10
3.13667	-4
3.14033	2
3.14400	4
3.14767	2
3.15133	-4
3.15500	-12
3.15867	-24
3.16233	-38
3.16600	-51
3.16967	-57
3.17333	-55
3.17700	-51
3.18067	-48
3.18433	-46
3.18800	-43
3.19167	-41
3.19533	-39
3.19900	-37
3.20267	-36
3.20633	-35
3.21000	-33
3.21367	-34
3.21733	-43
3.22100	-53
3.22467	-59
3.22833	-57
3.23200	-54
3.23567	-54
3.23933	-55
3.24300	-54
3.24667	-51
3.25033	-42
3.25400	-34
3.25767	-29
3.26133	-27
3.26500	-29
3.26867	-34
3.27233	-37
3.27600	-37
3.27967	-35
3.28333	-30
3.28700	-25
3.29067	-25
3.29433	-27
3.29800	-33
3.30167	-39
3.30533	-42
3.30900	-43
3.31267	-41
3.31633	-37
3.32000	-37
3.32367	-39
3.32733	-41
3.33100	-41
3.33467	-40
3.33833	-38
3.34200	-35
3.34567	-37
3.34933	-38
3.35300	-39
3.35667	-37
3.36033	-35
3.36400	-35
3.36767	-36
3.37133	-34
3.37500	-32
3.37867	-30
3.38233	-29
3.38600	-31
3.38967	-39
3.39333	-49
3.39700	-55
3.40067	-58
3.40433	-59
3.40800	-56
3.41167	-46
3.41533	-37
3.41900	-32
3.42267	-28
3.42633	-28
3.43000	-28
3.43367	-27
3.43733	-28
3.44100	-34
3.44467	-43
3.44833	-50
3.45200	-52
3.45567	-46
3.45933	-32
3.46300	-24
3.46667	-24
3.47033	-30
3.47400	-39
3.47767	-47
3.48133	-52
3.48500	-54
3.48867	-52
3.49233	-51
3.49600	-52
3.49967	-51
3.50333	-48
3.50700	-45
3.51067	-44
3.51433	-47
3.51800	-51
3.52167	-51
3.52533	-49
3.52900	-47
3.53267	-48
3.53633	-50
3.54000	-52
3.54367	-52
3.54733	-50
3.55100	-45
3.55467	-38
3.55833	-32
3.56200	-29
3.56567	-31
3.56933	-35
3.57300	-40
3.57667	-46
3.58033	-52
3.58400	-53
3.58767	-49
3.59133	-43
3.59500	-39
3.59867	-37
3.60233	-38
3.60600	-40
3.60967	-43
3.61333	-43
3.61700	-47
3.62067	-51
3.62433	-52
3.62800	-52
3.63167	-50
3.63533	-46
3.63900	-44
3.64267	-41
3.64633	-41
3.65000	-43
3.65367	-43
3.65733	-41
3.66100	-43
3.66467	-48
3.66833	-52
3.67200	-53
3.67567	-53
3.67933	-51
3.68300	-51
3.68667	-53
3.69033	-53
3.69400	-53
3.69767	-55
3.70133	-57
3.70500	-57
3.70867	-53
3.71233	-44
3.71600	-37
3.71967	-35
3.72333	-37
3.72700	-42
3.73067	-44
3.73433	-44
3.73800	-40
3.74167	-39
3.74533	-42
3.74900	-47
3.75267	-54
3.75633	-59
3.76000	-60
3.76367	-58
3.76733	-56
3.77100	-58
3.77467	-61
3.77833	-61
3.78200	-58
3.78567	-51
3.78933	-44
3.79300	-40
3.79667	-38
3.80033	-38
3.80400	-39
3.80767	-40
3.81133	-38
3.81500	-38
3.81867	-40
3.82233	-42
3.82600	-49
3.82967	-58
3.83333	-66
3.83700	-71
3.84067	-75
3.84433	-77
3.84800	-78
3.85167	-76
3.85533	-71
3.85900	-63
3.86267	-55
3.86633	-52
3.87000	-49
3.87367	-46
3.87733	-43
3.88100	-43
3.88467	-43
3.88833	-40
3.89200	-40
3.89567	-45
3.89933	-50
3.90300	-54
3.90667	-59
3.91033	-62
3.91400	-63
3.91767	-62
3.92133	-63
3.92500	-66
3.92867	-68
3.93233	-69
3.93600	-69
3.93967	-64
3.94333	-58
3.94700	-54
3.95067	-52
3.95433	-51
3.95800	-49
3.96167	-50
3.96533	-52
3.96900	-55
3.97267	-55
3.97633	-53
3.98000	-48
3.98367	-43
3.98733	-42
3.99100	-41
3.99467	-39
3.99833	-38

[Chromatogram (Ch2)]
Interval(msec)	220
# of Points	1091
Start Time(min)	0.002
End Time(min)	3.998
R.Time (min)	Intensity
0.00167	1
0.00533	1
0.00900	1
0.01267	1
0.01633	0
0.02000	-0
0.02367	-0
0.02733	-1
0.03100	-1
0.03467	-1
0.03833	-2
0.04200	-2
0.04567	-2
0.04933	-2
0.05300	-2
0.05667	-3
0.06033	-3
0.06400	-3
0.06767	-3
0.07133	-3
0.07500	-3
0.07867	-3
0.08233	-3
0.08600	-3
0.08967	-3
0.09333	-3
0.09700	-3
0.10067	-2
0.10433	-2
0.10800	-1
0.11167	-0
0.11533	1
0.11900	1
0.12267	2
0.12633	2
0.13000	2
0.13367	2
0.13733	3
0.14100	3
0.14467	3
0.14833	3
0.15200	3
0.15567	3
0.15933	3
0.16300	3
0.16667	3
0.17033	3
0.17400	3
0.17767	3
0.18133	3
0.18500	3
0.18867	3
0.19233	3
0.19600	3
0.19967	2
0.20333	2
0.20700	2
0.21067	2
0.21433	1
0.21800	1
0.22167	1
0.22533	1
0.22900	0
0.23267	0
0.23633	0
0.24000	-0
0.24367	-0
0.24733	-0
0.25100	-0
0.25467	-0
0.25833	-0
0.26200	-0
0.26567	-1
0.26933	-1
0.27300	-1
0.27667	-2
0.28033	-2
0.28400	-2
0.28767	-2
0.29133	-2
0.29500	-2
0.29867	-2
0.30233	-2
0.30600	-1
0.30967	-1
0.31333	-1
0.31700	-1
0.32067	-1
0.32433	-0
0.32800	-0
0.33167	0
0.33533	0
0.33900	1
0.34267	1
0.34633	1
0.35000	1
0.35367	1
0.35733	1
0.36100	1
0.36467	1
0.36833	0
0.37200	0
0.37567	0
0.37933	-0
0.38300	-0
0.38667	-0
0.39033	-0
0.39400	-0
0.39767	-0
0.40133	0
0.40500	0
0.40867	0
0.41233	0
0.41600	1
0.41967	1
0.42333	1
0.42700	1
0.43067	0
0.43433	0
0.43800	-0
0.44167	-1
0.44533	-1
0.44900	-1
0.45267	-2
0.45633	-2
0.46000	-2
0.46367	-2
0.46733	-2
0.47100	-2
0.47467	-2
0.47833	-3
0.48200	-3
0.48567	-3
0.48933	-2
0.49300	-2
0.49667	-2
0.50033	-2
0.50400	-2
0.50767	-1
0.51133	-1
0.51500	-1
0.51867	-1
0.52233	-1
0.52600	-0
0.52967	0
0.53333	0
0.53700	1
0.54067	1
0.54433	1
0.54800	1
0.55167	1
0.55533	1
0.55900	1
0.56267	1
0.56633	1
0.57000	1
0.57367	1
0.57733	1
0.58100	1
0.58467	0
0.58833	0
0.59200	0
0.59567	0
0.59933	0
0.60300	-0
0.60667	-0
0.61033	-1
0.61400	-1
0.61767	-1
0.62133	-1
0.62500	-0
0.62867	-0
0.63233	-0
0.63600	-0
0.63967	-0
0.64333	-1
0.64700	-1
0.65067	-1
0.65433	-1
0.65800	-1
0.66167	-1
0.66533	-1
0.66900	-2
0.67267	-2
0.67633	-2
0.68000	-2
0.68367	-2
0.68733	-2
0.69100	-2
0.69467	-1
0.69833	-1
0.70200	-1
0.70567	-1
0.70933	-1
0.71300	-1
0.71667	-1
0.72033	-0
0.72400	0
0.72767	0
0.73133	1
0.73500	1
0.73867	1
0.74233	1
0.74600	0
0.74967	0
0.75333	0
0.75700	0
0.76067	0
0.76433	0
0.76800	1
0.77167	0
0.77533	0
0.77900	0
0.78267	0
0.78633	-0
0.79000	-0
0.79367	-0
0.79733	-1
0.80100	-1
0.80467	-1
0.80833	-1
0.81200	-2
0.81567	-2
0.81933	-3
0.82300	-3
0.82667	-3
0.83033	-3
0.83400	-3
0.83767	-3
0.84133	-3
0.84500	-3
0.84867	-3
0.85233	-3
0.85600	-3
0.85967	-3
0.86333	-3
0.86700	-2
0.87067	-2
0.87433	-2
0.87800	-3
0.88167	-3
0.88533	-3
0.88900	-4
0.89267	-4
0.89633	-4
0.90000	-5
0.90367	-5
0.90733	-5
0.91100	-6
0.91467	-6
0.91833	-6
0.92200	-6
0.92567	-6
0.92933	-5
0.93300	-5
0.93667	-5
0.94033	-4
0.94400	-4
0.94767	-3
0.95133	-2
0.95500	-2
0.95867	-1
0.96233	-1
0.96600	-1
0.96967	-1
0.97333	-1
0.97700	-0
0.98067	-0
0.98433	-0
0.98800	-0
0.99167	-0
0.99533	-0
0.99900	-1
1.00267	-1
1.00633	-1
1.01000	-1
1.01367	-1
1.01733	-1
1.02100	-1
1.02467	-1
1.02833	-1
1.03200	-1
1.03567	-1
1.03933	-1
1.04300	-1
1.04667	-1
1.05033	-2
1.05400	-2
1.05767	-2
1.06133	-2
1.06500	-3
1.06867	-3
1.07233	-3
1.07600	-3
1.07967	-2
1.08333	-2
1.08700	-1
1.09067	-0
1.09433	-0
1.09800	-0
1.10167	-0
1.10533	-0
1.10900	-1
1.11267	-1
1.11633	-1
1.12000	-2
1.12367	-2
1.12733	-3
1.13100	-3
1.13467	-3
1.13833	-3
1.14200	-3
1.14567	-4
1.14933	-4
1.15300	-4
1.15667	-4
1.16033	-4
1.16400	-4
1.16767	-4
1.17133	-3
1.17500	-3
1.17867	-2
1.18233	-2
1.18600	-2
1.18967	-1
1.19333	-0
1.19700	0
1.20067	1
1.20433	1
1.20800	2
1.21167	2
1.21533	2
1.21900	2
1.22267	2
1.22633	2
1.23000	1
1.23367	1
1.23733	1
1.24100	1
1.24467	0
1.24833	-0
1.25200	-0
1.25567	-0
1.25933	-0
1.26300	-0
1.26667	-0
1.27033	-0
1.27400	-0
1.27767	-0
1.28133	-0
1.28500	-0
1.28867	-0
1.29233	-1
1.29600	-1
1.29967	-1
1.30333	-1
1.30700	-1
1.31067	-1
1.31433	-1
1.31800	-1
1.32167	-1
1.32533	-1
1.32900	-1
1.33267	-1
1.33633	-0
1.34000	0
1.34367	0
1.34733	1
1.35100	1
1.35467	1
1.35833	0
1.36200	0
1.36567	-0
1.36933	-0
1.37300	-1
1.37667	-1
1.38033	-1
1.38400	-1
1.38767	-1
1.39133	-1
1.39500	-1
1.39867	-1
1.40233	-1
1.40600	-1
1.40967	-1
1.41333	-1
1.41700	-1
1.42067	-1
1.42433	-1
1.42800	-1
1.43167	-1
1.43533	-1
1.43900	-1
1.44267	-1
1.44633	-1
1.45000	-1
1.45367	-1
1.45733	-1
1.46100	-1
1.46467	-2
1.46833	-2
1.47200	-2
1.47567	-2
1.47933	-3
1.48300	-3
1.48667	-3
1.49033	-3
1.49400	-3
1.49767	-3
1.50133	-3
1.50500	-3
1.50867	-3
1.51233	-2
1.51600	-2
1.51967	-2
1.52333	-2
1.52700	-2
1.53067	-2
1.53433	-2
1.53800	-2
1.54167	-2
1.54533	-2
1.54900	-2
1.55267	-2
1.55633	-1
1.56000	-1
1.56367	-1
1.56733	-1
1.57100	-0
1.57467	-0
1.57833	-0
1.58200	0
1.58567	-0
1.58933	-0
1.59300	-1
1.59667	-2
1.60033	-3
1.60400	-4
1.60767	-6
1.61133	-7
1.61500	-10
1.61867	-12
1.62233	-15
1.62600	-17
1.62967	-20
1.63333	-23
1.63700	-27
1.64067	-30
1.64433	-34
1.64800	-38
1.65167	-42
1.65533	-46
1.65900	-50
1.66267	-54
1.66633	-59
1.67000	-65
1.67367	-70
1.67733	-75
1.68100	-80
1.68467	-84
1.68833	-89
1.69200	-92
1.69567	-96
1.69933	-99
1.70300	-101
1.70667	-104
1.71033	-105
1.71400	-107
1.71767	-108
1.72133	-109
1.72500	-110
1.72867	-111
1.73233	-112
1.73600	-113
1.73967	-114
1.74333	-116
1.74700	-117
1.75067	-118
1.75433	-119
1.75800	-120
1.76167	-121
1.76533	-121
1.76900	-121
1.77267	-121
1.77633	-120
1.78000	-120
1.78367	-120
1.78733	-120
1.79100	-120
1.79467	-120
1.79833	-120
1.80200	-121
1.80567	-121
1.80933	-122
1.81300	-123
1.81667	-123
1.82033	-123
1.82400	-123
1.82767	-122
1.83133	-122
1.83500	-122
1.83867	-122
1.84233	-122
1.84600	-122
1.84967	-122
1.85333	-122
1.85700	-122
1.86067	-122
1.86433	-122
1.86800	-123
1.87167	-123
1.87533	-124
1.87900	-124
1.88267	-124
1.88633	-124
1.89000	-124
1.89367	-124
1.89733	-124
1.90100	-123
1.90467	-122
1.90833	-121
1.91200	-121
1.91567	-120
1.91933	-120
1.92300	-120
1.92667	-121
1.93033	-121
1.93400	-121
1.93767	-121
1.94133	-121
1.94500	-121
1.94867	-120
1.95233	-120
1.95600	-119
1.95967	-119
1.96333	-119
1.96700	-119
1.97067	-118
1.97433	-118
1.97800	-118
1.98167	-118
1.98533	-118
1.98900	-118
1.99267	-118
1.99633	-118
2.00000	-118
2.00367	-118
2.00733	-117
2.01100	-117
2.01467	-116
2.01833	-115
2.02200	-115
2.02567	-115
2.02933	-115
2.03300	-114
2.03667	-113
2.04033	-113
2.04400	-112
2.04767	-111
2.05133	-110
2.05500	-110
2.05867	-109
2.06233	-109
2.06600	-109
2.06967	-110
2.07333	-110
2.07700	-110
2.08067	-110
2.08433	-110
2.08800	-110
2.09167	-110
2.09533	-110
2.09900	-111
2.10267	-111
2.10633	-111
2.11000	-111
2.11367	-110
2.11733	-109
2.12100	-109
2.12467	-108
2.12833	-107
2.13200	-107
2.13567	-106
2.13933	-105
2.14300	-105
2.14667	-104
2.15033	-103
2.15400	-103
2.15767	-102
2.16133	-102
2.16500	-102
2.16867	-101
2.17233	-101
2.17600	-101
2.17967	-100
2.18333	-100
2.18700	-99
2.19067	-99
2.19433	-99
2.19800	-99
2.20167	-98
2.20533	-98
2.20900	-99
2.21267	-99
2.21633	-99
2.22000	-99
2.22367	-99
2.22733	-99
2.23100	-98
2.23467	-97
2.23833	-97
2.24200	-97
2.24567	-97
2.24933	-98
2.25300	-99
2.25667	-100
2.26033	-100
2.26400	-101
2.26767	-101
2.27133	-101
2.27500	-100
2.27867	-99
2.28233	-98
2.28600	-97
2.28967	-96
2.29333	-95
2.29700	-94
2.30067	-94
2.30433	-93
2.30800	-92
2.31167	-92
2.31533	-91
2.31900	-90
2.32267	-89
2.32633	-89
2.33000	-88
2.33367	-89
2.33733	-89
2.34100	-89
2.34467	-88
2.34833	-88
2.35200	-88
2.35567	-88
2.35933	-88
2.36300	-87
2.36667	-86
2.37033	-85
2.37400	-83
2.37767	-80
2.38133	-77
2.38500	-74
2.38867	-70
2.39233	-65
2.39600	-61
2.39967	-56
2.40333	-51
2.40700	-47
2.41067	-42
2.41433	-38
2.41800	-35
2.42167	-31
2.42533	-28
2.42900	-24
2.43267	-21
2.43633	-19
2.44000	-16
2.44367	-14
2.44733	-12
2.45100	-10
2.45467	-8
2.45833	-6
2.46200	-5
2.46567	-4
2.46933	-3
2.47300	-2
2.47667	-1
2.48033	0
2.48400	1
2.48767	3
2.49133	4
2.49500	5
2.49867	6
2.50233	6
2.50600	7
2.50967	7
2.51333	7
2.51700	8
2.52067	9
2.52433	10
2.52800	11
2.53167	11
2.53533	12
2.53900	13
2.54267	13
2.54633	12
2.55000	12
2.55367	11
2.55733	11
2.56100	11
2.56467	11
2.56833	12
2.57200	12
2.57567	13
2.57933	14
2.58300	14
2.58667	15
2.59033	15
2.59400	15
2.59767	14
2.60133	15
2.60500	15
2.60867	15
2.61233	16
2.61600	16
2.61967	17
2.62333	17
2.62700	18
2.63067	18
2.63433	18
2.63800	19
2.64167	19
2.64533	19
2.64900	20
2.65267	20
2.65633	20
2.66000	21
2.66367	21
2.66733	21
2.67100	20
2.67467	20
2.67833	20
2.68200	19
2.68567	19
2.68933	19
2.69300	19
2.69667	20
2.70033	20
2.70400	20
2.70767	21
2.71133	21
2.71500	22
2.71867	22
2.72233	23
2.72600	23
2.72967	23
2.73333	23
2.73700	23
2.74067	22
2.74433	22
2.74800	21
2.75167	21
2.75533	21
2.75900	21
2.76267	22
2.76633	22
2.77000	23
2.77367	23
2.77733	23
2.78100	23
2.78467	23
2.78833	23
2.79200	23
2.79567	23
2.79933	23
2.80300	23
2.80667	23
2.81033	23
2.81400	23
2.81767	23
2.82133	23
2.82500	23
2.82867	23
2.83233	23
2.83600	23
2.83967	22
2.84333	21
2.84700	18
2.85067	13
2.85433	4
2.85800	-7
2.86167	-23
2.86533	-43
2.86900	-69
2.87267	-100
2.87633	-136
2.88000	-177
2.88367	-223
2.88733	-275
2.89100	-331
2.89467	-391
2.89833	-455
2.90200	-522
2.90567	-593
2.90933	-666
2.91300	-742
2.91667	-820
2.92033	-900
2.92400	-983
2.92767	-1067
2.93133	-1152
2.93500	-1240
2.93867	-1328
2.94233	-1414
2.94600	-1487
2.94967	-1536
2.95333	-1551
2.95700	-1530
2.96067	-1476
2.96433	-1397
2.96800	-1301
2.97167	-1193
2.97533	-1081
2.97900	-970
2.98267	-863
2.98633	-762
2.99000	-669
2.99367	-584
2.99733	-507
3.00100	-439
3.00467	-379
3.00833	-326
3.01200	-280
3.01567	-240
3.01933	-205
3.02300	-175
3.02667	-149
3.03033	-126
3.03400	-107
3.03767	-91
3.04133	-77
3.04500	-65
3.04867	-54
3.05233	-45
3.05600	-37
3.05967	-31
3.06333	-25
3.06700	-20
3.07067	-16
3.07433	-13
3.07800	-10
3.08167	-7
3.08533	-5
3.08900	-3
3.09267	-2
3.09633	-0
3.10000	1
3.10367	2
3.10733	3
3.11100	4
3.11467	5
3.11833	6
3.12200	6
3.12567	7
3.12933	7
3.13300	8
3.13667	9
3.14033	9
3.14400	10
3.14767	10
3.15133	11
3.15500	11
3.15867	11
3.16233	12
3.16600	12
3.16967	12
3.17333	13
3.17700	13
3.18067	13
3.18433	14
3.18800	14
3.19167	14
3.19533	14
3.19900	15
3.20267	15
3.20633	15
3.21000	15
3.21367	16
3.21733	16
3.22100	16
3.22467	17
3.22833	17
3.23200	18
3.23567	18
3.23933	18
3.24300	19
3.24667	19
3.25033	19
3.25400	19
3.25767	19
3.26133	19
3.26500	20
3.26867	20
3.27233	20
3.27600	20
3.27967	20
3.28333	20
3.28700	20
3.29067	20
3.29433	20
3.29800	21
3.30167	21
3.30533	21
3.30900	21
3.31267	21
3.31633	21
3.32000	21
3.32367	21
3.32733	22
3.33100	22
3.33467	22
3.33833	23
3.34200	23
3.34567	23
3.34933	23
3.35300	23
3.35667	24
3.36033	24
3.36400	24
3.36767	24
3.37133	24
3.37500	24
3.37867	24
3.38233	24
3.38600	24
3.38967	24
3.39333	24
3.39700	24
3.40067	24
3.40433	24
3.40800	24
3.41167	24
3.41533	24
3.41900	24
3.42267	24
3.42633	24
3.43000	25
3.43367	25
3.43733	25
3.44100	25
3.44467	25
3.44833	25
3.45200	24
3.45567	24
3.45933	24
3.46300	24
3.46667	24
3.47033	24
3.47400	24
3.47767	24
3.48133	24
3.48500	24
3.48867	24
3.49233	24
3.49600	24
3.49967	24
3.50333	24
3.50700	24
3.51067	24
3.51433	24
3.51800	24
3.52167	24
3.52533	24
3.52900	24
3.53267	24
3.53633	25
3.54000	25
3.54367	25
3.54733	25
3.55100	25
3.55467	25
3.55833	25
3.56200	25
3.56567	25
3.56933	25
3.57300	25
3.57667	24
3.58033	24
3.58400	24
3.58767	24
3.59133	24
3.59500	24
3.59867	24
3.60233	24
3.60600	24
3.60967	24
3.61333	24
3.61700	24
3.62067	24
3.62433	24
3.62800	25
3.63167	25
3.63533	25
3.63900	25
3.64267	25
3.64633	25
3.65000	25
3.65367	25
3.65733	26
3.66100	26
3.66467	26
3.66833	25
3.67200	25
3.67567	25
3.67933	25
3.68300	25
3.68667	25
3.69033	25
3.69400	25
3.69767	25
3.70133	25
3.70500	25
3.70867	25
3.71233	25
3.71600	25
3.71967	26
3.72333	26
3.72700	26
3.73067	26
3.73433	26
3.73800	26
3.74167	26
3.74533	26
3.74900	26
3.75267	26
3.75633	26
3.76000	26
3.76367	26
3.76733	26
3.77100	26
3.77467	26
3.77833	26
3.78200	26
3.78567	26
3.78933	26
3.79300	26
3.79667	26
3.80033	25
3.80400	25
3.80767	25
3.81133	25
3.81500	24
3.81867	24
3.82233	24
3.82600	24
3.82967	25
3.83333	25
3.83700	25
3.84067	25
3.84433	26
3.84800	26
3.85167	26
3.85533	26
3.85900	26
3.86267	26
3.86633	26
3.87000	26
3.87367	27
3.87733	27
3.88100	26
3.88467	26
3.88833	26
3.89200	26
3.89567	26
3.89933	26
3.90300	26
3.90667	26
3.91033	26
3.91400	26
3.91767	26
3.92133	26
3.92500	27
3.92867	27
3.93233	27
3.93600	27
3.93967	27
3.94333	27
3.94700	26
3.95067	26
3.95433	26
3.95800	26
3.96167	26
3.96533	25
3.96900	25
3.97267	25
3.97633	25
3.98000	24
3.98367	24
3.98733	24
3.99100	24
3.99467	25
3.99833	25

[Chromatogram (Ch3)]
Interval(msec)	220
# of Points	1091
Start Time(min)	0.002
End Time(min)	3.998
R.Time (min)	Intensity
0.00167	-0
0.00533	0
0.00900	1
0.01267	3
0.01633	5
0.02000	6
0.02367	6
0.02733	5
0.03100	4
0.03467	3
0.03833	0
0.04200	-1
0.04567	-0
0.04933	2
0.05300	4
0.05667	3
0.06033	3
0.06400	1
0.06767	-1
0.07133	-2
0.07500	-3
0.07867	-3
0.08233	-3
0.08600	-3
0.08967	-3
0.09333	-3
0.09700	-1
0.10067	-0
0.10433	-2
0.10800	-3
0.11167	-4
0.11533	-4
0.11900	-4
0.12267	-4
0.12633	-3
0.13000	-2
0.13367	-2
0.13733	-3
0.14100	-2
0.14467	-1
0.14833	-2
0.15200	-5
0.15567	-5
0.15933	-4
0.16300	-5
0.16667	-6
0.17033	-6
0.17400	-5
0.17767	-3
0.18133	-2
0.18500	-1
0.18867	-0
0.19233	-0
0.19600	0
0.19967	-1
0.20333	-3
0.20700	-2
0.21067	-1
0.21433	-2
0.21800	-1
0.22167	1
0.22533	1
0.22900	-1
0.23267	-1
0.23633	-0
0.24000	0
0.24367	0
0.24733	-1
0.25100	-2
0.25467	-2
0.25833	-1
0.26200	-0
0.26567	1
0.26933	1
0.27300	0
0.27667	1
0.28033	4
0.28400	4
0.28767	2
0.29133	0
0.29500	0
0.29867	1
0.30233	2
0.30600	1
0.30967	0
0.31333	1
0.31700	2
0.32067	3
0.32433	3
0.32800	3
0.33167	1
0.33533	-3
0.33900	-3
0.34267	-3
0.34633	-2
0.35000	-2
0.35367	-2
0.35733	-2
0.36100	-1
0.36467	-0
0.36833	0
0.37200	1
0.37567	0
0.37933	-0
0.38300	-2
0.38667	-2
0.39033	-2
0.39400	-1
0.39767	0
0.40133	2
0.40500	-0
0.40867	-2
0.41233	-1
0.41600	-0
0.41967	0
0.42333	1
0.42700	2
0.43067	4
0.43433	5
0.43800	5
0.44167	4
0.44533	3
0.44900	1
0.45267	1
0.45633	0
0.46000	2
0.46367	3
0.46733	2
0.47100	2
0.47467	1
0.47833	1
0.48200	2
0.48567	4
0.48933	4
0.49300	3
0.49667	3
0.50033	4
0.50400	5
0.50767	4
0.51133	2
0.51500	4
0.51867	3
0.52233	2
0.52600	3
0.52967	2
0.53333	1
0.53700	1
0.54067	2
0.54433	1
0.54800	1
0.55167	0
0.55533	1
0.55900	3
0.56267	5
0.56633	6
0.57000	3
0.57367	1
0.57733	1
0.58100	0
0.58467	1
0.58833	1
0.59200	1
0.59567	3
0.59933	3
0.60300	2
0.60667	-1
0.61033	1
0.61400	3
0.61767	4
0.62133	6
0.62500	7
0.62867	6
0.63233	5
0.63600	5
0.63967	6
0.64333	6
0.64700	7
0.65067	8
0.65433	8
0.65800	7
0.66167	6
0.66533	4
0.66900	4
0.67267	7
0.67633	9
0.68000	10
0.68367	7
0.68733	3
0.69100	0
0.69467	-0
0.69833	2
0.70200	4
0.70567	6
0.70933	8
0.71300	6
0.71667	4
0.72033	3
0.72400	5
0.72767	7
0.73133	7
0.73500	6
0.73867	5
0.74233	4
0.74600	4
0.74967	5
0.75333	4
0.75700	5
0.76067	7
0.76433	10
0.76800	12
0.77167	13
0.77533	13
0.77900	11
0.78267	11
0.78633	10
0.79000	6
0.79367	3
0.79733	4
0.80100	4
0.80467	5
0.80833	6
0.81200	6
0.81567	5
0.81933	5
0.82300	6
0.82667	8
0.83033	9
0.83400	9
0.83767	9
0.84133	7
0.84500	5
0.84867	5
0.85233	6
0.85600	8
0.85967	8
0.86333	7
0.86700	6
0.87067	5
0.87433	4
0.87800	3
0.88167	0
0.88533	0
0.88900	1
0.89267	3
0.89633	4
0.90000	2
0.90367	2
0.90733	3
0.91100	5
0.91467	8
0.91833	9
0.92200	9
0.92567	9
0.92933	10
0.93300	11
0.93667	10
0.94033	9
0.94400	9
0.94767	9
0.95133	9
0.95500	8
0.95867	6
0.96233	4
0.96600	1
0.96967	0
0.97333	-0
0.97700	1
0.98067	4
0.98433	7
0.98800	8
0.99167	9
0.99533	10
0.99900	9
1.00267	8
1.00633	6
1.01000	6
1.01367	7
1.01733	8
1.02100	9
1.02467	10
1.02833	7
1.03200	5
1.03567	6
1.03933	7
1.04300	7
1.04667	7
1.05033	6
1.05400	6
1.05767	5
1.06133	5
1.06500	6
1.06867	7
1.07233	7
1.07600	6
1.07967	7
1.08333	10
1.08700	12
1.09067	13
1.09433	13
1.09800	11
1.10167	10
1.10533	8
1.10900	7
1.11267	7
1.11633	5
1.12000	3
1.12367	3
1.12733	3
1.13100	4
1.13467	4
1.13833	6
1.14200	6
1.14567	7
1.14933	9
1.15300	9
1.15667	11
1.16033	13
1.16400	14
1.16767	14
1.17133	13
1.17500	11
1.17867	10
1.18233	11
1.18600	13
1.18967	14
1.19333	13
1.19700	13
1.20067	13
1.20433	13
1.20800	13
1.21167	15
1.21533	15
1.21900	15
1.22267	14
1.22633	13
1.23000	13
1.23367	14
1.23733	13
1.24100	12
1.24467	11
1.24833	10
1.25200	11
1.25567	14
1.25933	14
1.26300	14
1.26667	13
1.27033	11
1.27400	11
1.27767	11
1.28133	11
1.28500	12
1.28867	13
1.29233	14
1.29600	13
1.29967	11
1.30333	9
1.30700	9
1.31067	8
1.31433	9
1.31800	10
1.32167	10
1.32533	10
1.32900	10
1.33267	11
1.33633	14
1.34000	14
1.34367	14
1.34733	14
1.35100	14
1.35467	14
1.35833	14
1.36200	15
1.36567	15
1.36933	13
1.37300	13
1.37667	12
1.38033	12
1.38400	13
1.38767	14
1.39133	14
1.39500	15
1.39867	16
1.40233	17
1.40600	17
1.40967	17
1.41333	16
1.41700	13
1.42067	11
1.42433	12
1.42800	11
1.43167	10
1.43533	10
1.43900	12
1.44267	14
1.44633	16
1.45000	17
1.45367	17
1.45733	15
1.46100	13
1.46467	11
1.46833	12
1.47200	15
1.47567	16
1.47933	17
1.48300	16
1.48667	17
1.49033	16
1.49400	12
1.49767	11
1.50133	13
1.50500	15
1.50867	16
1.51233	16
1.51600	15
1.51967	15
1.52333	15
1.52700	16
1.53067	16
1.53433	16
1.53800	16
1.54167	16
1.54533	17
1.54900	18
1.55267	17
1.55633	18
1.56000	18
1.56367	17
1.56733	18
1.57100	17
1.57467	18
1.57833	20
1.58200	21
1.58567	22
1.58933	20
1.59300	19
1.59667	18
1.60033	19
1.60400	20
1.60767	19
1.61133	19
1.61500	20
1.61867	21
1.62233	21
1.62600	22
1.62967	24
1.63333	24
1.63700	23
1.64067	22
1.64433	21
1.64800	20
1.65167	19
1.65533	22
1.65900	26
1.66267	28
1.66633	30
1.67000	30
1.67367	30
1.67733	30
1.68100	29
1.68467	28
1.68833	27
1.69200	29
1.69567	31
1.69933	31
1.70300	32
1.70667	31
1.71033	31
1.71400	32
1.71767	31
1.72133	33
1.72500	35
1.72867	36
1.73233	36
1.73600	35
1.73967	36
1.74333	37
1.74700	38
1.75067	40
1.75433	41
1.75800	44
1.76167	46
1.76533	45
1.76900	45
1.77267	43
1.77633	42
1.78000	42
1.78367	42
1.78733	43
1.79100	44
1.79467	43
1.79833	43
1.80200	46
1.80567	48
1.80933	49
1.81300	49
1.81667	50
1.82033	52
1.82400	55
1.82767	56
1.83133	57
1.83500	58
1.83867	60
1.84233	61
1.84600	63
1.84967	62
1.85333	59
1.85700	57
1.86067	56
1.86433	56
1.86800	58
1.87167	58
1.87533	58
1.87900	58
1.88267	58
1.88633	59
1.89000	61
1.89367	64
1.89733	64
1.90100	64
1.90467	65
1.90833	66
1.91200	69
1.91567	71
1.91933	74
1.92300	74
1.92667	74
1.93033	74
1.93400	75
1.93767	76
1.94133	74
1.94500	72
1.94867	71
1.95233	73
1.95600	74
1.95967	74
1.96333	76
1.96700	79
1.97067	81
1.97433	82
1.97800	84
1.98167	85
1.98533	87
1.98900	89
1.99267	91
1.99633	91
2.00000	90
2.00367	89
2.00733	88
2.01100	89
2.01467	92
2.01833	95
2.02200	96
2.02567	98
2.02933	100
2.03300	102
2.03667	103
2.04033	103
2.04400	103
2.04767	105
2.05133	107
2.05500	108
2.05867	109
2.06233	111
2.06600	111
2.06967	110
2.07333	110
2.07700	112
2.08067	116
2.08433	118
2.08800	120
2.09167	120
2.09533	121
2.09900	122
2.10267	124
2.10633	126
2.11000	127
2.11367	128
2.11733	130
2.12100	132
2.12467	134
2.12833	135
2.13200	135
2.13567	137
2.13933	140
2.14300	142
2.14667	142
2.15033	142
2.15400	141
2.15767	142
2.16133	145
2.16500	146
2.16867	146
2.17233	147
2.17600	149
2.17967	150
2.18333	153
2.18700	155
2.19067	156
2.19433	158
2.19800	161
2.20167	162
2.20533	163
2.20900	166
2.21267	167
2.21633	169
2.22000	170
2.22367	172
2.22733	172
2.23100	173
2.23467	175
2.23833	178
2.24200	180
2.24567	181
2.24933	182
2.25300	182
2.25667	184
2.26033	185
2.26400	184
2.26767	185
2.27133	184
2.27500	185
2.27867	185
2.28233	187
2.28600	190
2.28967	192
2.29333	194
2.29700	197
2.30067	200
2.30433	200
2.30800	202
2.31167	203
2.31533	205
2.31900	206
2.32267	206
2.32633	207
2.33000	207
2.33367	209
2.33733	209
2.34100	210
2.34467	211
2.34833	212
2.35200	214
2.35567	216
2.35933	217
2.36300	219
2.36667	220
2.37033	222
2.37400	223
2.37767	222
2.38133	224
2.38500	224
2.38867	225
2.39233	227
2.39600	228
2.39967	229
2.40333	231
2.40700	234
2.41067	237
2.41433	239
2.41800	240
2.42167	241
2.42533	241
2.42900	240
2.43267	241
2.43633	244
2.44000	248
2.44367	251
2.44733	253
2.45100	256
2.45467	259
2.45833	262
2.46200	263
2.46567	264
2.46933	265
2.47300	267
2.47667	266
2.48033	265
2.48400	264
2.48767	263
2.49133	262
2.49500	260
2.49867	260
2.50233	259
2.50600	257
2.50967	254
2.51333	251
2.51700	246
2.52067	241
2.52433	235
2.52800	229
2.53167	225
2.53533	221
2.53900	217
2.54267	216
2.54633	214
2.55000	212
2.55367	209
2.55733	209
2.56100	209
2.56467	207
2.56833	202
2.57200	199
2.57567	196
2.57933	195
2.58300	193
2.58667	189
2.59033	186
2.59400	181
2.59767	172
2.60133	157
2.60500	132
2.60867	100
2.61233	61
2.61600	18
2.61967	-25
2.62333	-66
2.62700	-102
2.63067	-134
2.63433	-161
2.63800	-182
2.64167	-199
2.64533	-210
2.64900	-218
2.65267	-221
2.65633	-220
2.66000	-217
2.66367	-212
2.66733	-203
2.67100	-195
2.67467	-188
2.67833	-181
2.68200	-171
2.68567	-163
2.68933	-158
2.69300	-150
2.69667	-143
2.70033	-138
2.70400	-127
2.70767	-114
2.71133	-104
2.71500	-96
2.71867	-89
2.72233	-84
2.72600	-80
2.72967	-75
2.73333	-69
2.73700	-62
2.74067	-55
2.74433	-49
2.74800	-44
2.75167	-39
2.75533	-33
2.75900	-28
2.76267	-23
2.76633	-20
2.77000	-16
2.77367	-12
2.77733	-7
2.78100	-3
2.78467	3
2.78833	6
2.79200	10
2.79567	15
2.79933	20
2.80300	23
2.80667	26
2.81033	28
2.81400	33
2.81767	43
2.82133	65
2.82500	116
2.82867	227
2.83233	448
2.83600	842
2.83967	1470
2.84333	2382
2.84700	3593
2.85067	5083
2.85433	6786
2.85800	8603
2.86167	10413
2.86533	12079
2.86900	13478
2.87267	14514
2.87633	15134
2.88000	15329
2.88367	15127
2.88733	14601
2.89100	13832
2.89467	12895
2.89833	11864
2.90200	10800
2.90567	9743
2.90933	8728
2.91300	7774
2.91667	6893
2.92033	6086
2.92400	5356
2.92767	4703
2.93133	4119
2.93500	3604
2.93867	3152
2.94233	2754
2.94600	2401
2.94967	2089
2.95333	1818
2.95700	1585
2.96067	1381
2.96433	1204
2.96800	1053
2.97167	922
2.97533	806
2.97900	708
2.98267	625
2.98633	553
2.99000	491
2.99367	438
2.99733	391
3.00100	350
3.00467	315
3.00833	285
3.01200	260
3.01567	239
3.01933	222
3.02300	207
3.02667	193
3.03033	181
3.03400	171
3.03767	160
3.04133	150
3.04500	144
3.04867	141
3.05233	132
3.05600	93
3.05967	50
3.06333	37
3.06700	57
3.07067	97
3.07433	148
3.07800	201
3.08167	255
3.08533	308
3.08900	360
3.09267	407
3.09633	450
3.10000	486
3.10367	520
3.10733	551
3.11100	580
3.11467	605
3.11833	628
3.12200	648
3.12567	669
3.12933	689
3.13300	709
3.13667	726
3.14033	742
3.14400	759
3.14767	777
3.15133	793
3.15500	808
3.15867	822
3.16233	834
3.16600	845
3.16967	854
3.17333	862
3.17700	868
3.18067	872
3.18433	875
3.18800	879
3.19167	881
3.19533	884
3.19900	886
3.20267	887
3.20633	888
3.21000	890
3.21367	891
3.21733	891
3.22100	890
3.22467	890
3.22833	889
3.23200	885
3.23567	879
3.23933	874
3.24300	872
3.24667	871
3.25033	868
3.25400	867
3.25767	866
3.26133	865
3.26500	862
3.26867	859
3.27233	857
3.27600	855
3.27967	853
3.28333	852
3.28700	851
3.29067	849
3.29433	846
3.29800	843
3.30167	841
3.30533	840
3.30900	839
3.31267	838
3.31633	835
3.32000	833
3.32367	832
3.32733	831
3.33100	830
3.33467	828
3.33833	827
3.34200	825
3.34567	825
3.34933	825
3.35300	824
3.35667	823
3.36033	823
3.36400	819
3.36767	818
3.37133	818
3.37500	818
3.37867	816
3.38233	815
3.38600	814
3.38967	811
3.39333	809
3.39700	806
3.40067	803
3.40433	800
3.40800	797
3.41167	796
3.41533	796
3.41900	792
3.42267	788
3.42633	784
3.43000	780
3.43367	776
3.43733	774
3.44100	772
3.44467	768
3.44833	763
3.45200	761
3.45567	758
3.45933	754
3.46300	750
3.46667	748
3.47033	746
3.47400	740
3.47767	736
3.48133	732
3.48500	728
3.48867	726
3.49233	724
3.49600	722
3.49967	719
3.50333	715
3.50700	711
3.51067	710
3.51433	707
3.51800	702
3.52167	697
3.52533	692
3.52900	686
3.53267	682
3.53633	680
3.54000	677
3.54367	675
3.54733	671
3.55100	667
3.55467	664
3.55833	663
3.56200	661
3.56567	657
3.56933	653
3.57300	646
3.57667	642
3.58033	639
3.58400	637
3.58767	634
3.59133	631
3.59500	629
3.59867	625
3.60233	622
3.60600	617
3.60967	612
3.61333	607
3.61700	604
3.62067	601
3.62433	598
3.62800	595
3.63167	591
3.63533	586
3.63900	582
3.64267	580
3.64633	579
3.65000	576
3.65367	570
3.65733	563
3.66100	557
3.66467	553
3.66833	550
3.67200	548
3.67567	547
3.67933	547
3.68300	544
3.68667	542
3.69033	538
3.69400	535
3.69767	531
3.70133	528
3.70500	525
3.70867	522
3.71233	519
3.71600	514
3.71967	510
3.72333	508
3.72700	506
3.73067	504
3.73433	500
3.73800	498
3.74167	496
3.74533	493
3.74900	489
3.75267	486
3.75633	481
3.76000	475
3.76367	471
3.76733	471
3.77100	471
3.77467	470
3.77833	469
3.78200	467
3.78567	464
3.78933	459
3.79300	458
3.79667	457
3.80033	457
3.80400	455
3.80767	453
3.81133	450
3.81500	446
3.81867	444
3.82233	441
3.82600	438
3.82967	436
3.83333	435
3.83700	432
3.84067	428
3.84433	424
3.84800	421
3.85167	421
3.85533	419
3.85900	417
3.86267	416
3.86633	416
3.87000	415
3.87367	413
3.87733	411
3.88100	407
3.88467	403
3.88833	400
3.89200	396
3.89567	392
3.89933	389
3.90300	388
3.90667	388
3.91033	388
3.91400	386
3.91767	385
3.92133	384
3.92500	382
3.92867	382
3.93233	381
3.93600	382
3.93967	383
3.94333	382
3.94700	381
3.95067	379
3.95433	377
3.95800	376
3.96167	374
3.96533	374
3.96900	373
3.97267	371
3.97633	368
3.98000	367
3.98367	366
3.98733	365
3.99100	362
3.99467	360
3.99833	356

[Status Trace (Column Oven Temperature)]
Interval(msec)	1000
# of Points	240
Start Time(min)	0.016
End Time(min)	3.999
Intensity Units	
Intensity Multiplier	1
R.Time (min)	Intensity
0.01560	35.00
0.03227	35.01
0.04893	35.03
0.06560	35.04
0.08227	35.04
0.09893	35.03
0.11560	35.03
0.13227	35.00
0.14893	34.99
0.16560	34.99
0.18227	34.97
0.19893	34.97
0.21560	34.98
0.23227	34.97
0.24893	34.98
0.26560	34.98
0.28227	34.99
0.29893	34.99
0.31560	34.99
0.33227	34.99
0.34893	34.99
0.36560	34.98
0.38227	34.98
0.39893	34.97
0.41560	34.96
0.43227	34.97
0.44893	34.99
0.46560	34.99
0.48227	34.99
0.49893	34.98
0.51560	34.98
0.53227	34.98
0.54893	34.98
0.56560	34.98
0.58227	34.97
0.59893	34.97
0.61560	34.98
0.63227	34.98
0.64893	34.98
0.66560	34.99
0.68227	34.99
0.69893	34.98
0.71560	34.98
0.73227	34.96
0.74893	34.96
0.76560	34.96
0.78227	34.97
0.79893	34.98
0.81560	34.98
0.83227	34.98
0.84893	34.99
0.86560	34.99
0.88227	35.00
0.89893	35.02
0.91560	35.03
0.93227	35.04
0.94893	35.03
0.96560	35.02
0.98227	35.01
0.99893	35.01
1.01560	35.01
1.03227	35.01
1.04893	35.01
1.06560	35.03
1.08227	35.02
1.09893	35.01
1.11560	35.01
1.13227	35.02
1.14893	35.03
1.16560	35.03
1.18227	35.02
1.19893	35.01
1.21560	34.99
1.23227	34.99
1.24893	34.99
1.26560	34.99
1.28227	34.99
1.29893	34.99
1.31560	34.99
1.33227	34.98
1.34893	34.97
1.36560	34.98
1.38227	34.97
1.39893	34.97
1.41560	34.97
1.43227	34.97
1.44893	34.98
1.46560	34.99
1.48227	34.99
1.49893	34.99
1.51560	34.98
1.53227	34.98
1.54893	34.98
1.56560	34.97
1.58227	34.97
1.59893	35.00
1.61560	35.08
1.63227	35.24
1.64893	35.45
1.66560	35.77
1.68227	36.13
1.69893	36.49
1.71560	36.82
1.73227	37.16
1.74893	37.51
1.76560	37.84
1.78227	38.16
1.79893	38.49
1.81560	38.82
1.83227	39.16
1.84893	39.48
1.86560	39.81
1.88227	40.14
1.89893	40.45
1.91560	40.77
1.93227	41.12
1.94893	41.43
1.96560	41.76
1.98227	42.09
1.99893	42.42
2.01560	42.75
2.03227	43.08
2.04893	43.38
2.06560	43.71
2.08227	44.03
2.09893	44.38
2.11560	44.71
2.13227	45.03
2.14893	45.36
2.16560	45.68
2.18227	46.01
2.19893	46.32
2.21560	46.67
2.23227	46.97
2.24893	47.34
2.26560	47.68
2.28227	48.01
2.29893	48.36
2.31560	48.67
2.33227	48.99
2.34893	49.29
2.36560	49.54
2.38227	49.68
2.39893	49.69
2.41560	49.70
2.43227	49.71
2.44893	49.70
2.46560	49.72
2.48227	49.72
2.49893	49.74
2.51560	49.76
2.53227	49.75
2.54893	49.79
2.56560	49.79
2.58227	49.81
2.59893	49.83
2.61560	49.82
2.63227	49.84
2.64893	49.83
2.66560	49.85
2.68227	49.86
2.69893	49.85
2.71560	49.84
2.73227	49.86
2.74893	49.88
2.76560	49.89
2.78227	49.89
2.79893	49.88
2.81560	49.89
2.83227	49.90
2.84893	49.90
2.86560	49.90
2.88227	49.92
2.89893	49.93
2.91560	49.94
2.93227	49.94
2.94893	49.94
2.96560	49.94
2.98227	49.95
2.99893	49.97
3.01560	49.98
3.03227	49.98
3.04893	49.99
3.06560	49.99
3.08227	50.01
3.09893	50.02
3.11560	50.03
3.13227	50.03
3.14893	50.04
3.16560	50.06
3.18227	50.06
3.19893	50.07
3.21560	50.08
3.23227	50.08
3.24893	50.08
3.26560	50.09
3.28227	50.10
3.29893	50.10
3.31560	50.10
3.33227	50.09
3.34893	50.09
3.36560	50.09
3.38227	50.09
3.39893	50.09
3.41560	50.08
3.43227	50.08
3.44893	50.09
3.46560	50.09
3.48227	50.09
3.49893	50.09
3.51560	50.08
3.53227	50.08
3.54893	50.08
3.56560	50.09
3.58227	50.09
3.59893	50.10
3.61560	50.11
3.63227	50.10
3.64893	50.10
3.66560	50.09
3.68227	50.08
3.69893	50.08
3.71560	50.08
3.73227	50.08
3.74893	50.08
3.76560	50.08
3.78227	50.07
3.79893	50.08
3.81560	50.09
3.83227	50.09
3.84893	50.08
3.86560	50.07
3.88227	50.06
3.89893	50.05
3.91560	50.05
3.93227	50.04
3.94893	50.04
3.96560	50.05
3.98227	50.05
3.99893	50.05

[Status Trace (Injection Unit Temperature)]
Interval(msec)	1000
# of Points	240
Start Time(min)	0.016
End Time(min)	3.999
Intensity Units	
Intensity Multiplier	1
R.Time (min)	Intensity
0.01560	99.98
0.03227	99.98
0.04893	99.98
0.06560	99.98
0.08227	99.98
0.09893	99.98
0.11560	99.98
0.13227	99.98
0.14893	99.98
0.16560	99.98
0.18227	99.98
0.19893	99.98
0.21560	99.98
0.23227	99.98
0.24893	99.98
0.26560	99.98
0.28227	99.98
0.29893	99.98
0.31560	99.98
0.33227	99.98
0.34893	99.98
0.36560	99.98
0.38227	99.98
0.39893	99.98
0.41560	99.98
0.43227	99.98
0.44893	99.98
0.46560	99.98
0.48227	99.98
0.49893	99.98
0.51560	99.98
0.53227	99.98
0.54893	99.98
0.56560	99.98
0.58227	99.98
0.59893	99.98
0.61560	99.98
0.63227	99.98
0.64893	99.98
0.66560	99.98
0.68227	99.98
0.69893	99.98
0.71560	99.98
0.73227	99.98
0.74893	99.98
0.76560	99.98
0.78227	99.99
0.79893	99.98
0.81560	99.98
0.83227	99.98
0.84893	99.98
0.86560	99.98
0.88227	99.98
0.89893	99.98
0.91560	99.98
0.93227	99.98
0.94893	99.99
0.96560	99.98
0.98227	99.98
0.99893	99.98
1.01560	99.98
1.03227	99.98
1.04893	99.98
1.06560	99.98
1.08227	99.99
1.09893	99.98
1.11560	99.99
1.13227	99.98
1.14893	99.98
1.16560	99.98
1.18227	99.98
1.19893	99.99
1.21560	99.98
1.23227	99.98
1.24893	99.99
1.26560	99.99
1.28227	99.99
1.29893	99.99
1.31560	99.98
1.33227	99.99
1.34893	99.98
1.36560	99.99
1.38227	99.98
1.39893	99.98
1.41560	99.99
1.43227	99.98
1.44893	99.98
1.46560	99.99
1.48227	99.99
1.49893	99.99
1.51560	99.99
1.53227	99.98
1.54893	99.98
1.56560	99.99
1.58227	99.98
1.59893	99.98
1.61560	99.99
1.63227	99.98
1.64893	99.99
1.66560	99.98
1.68227	99.99
1.69893	99.98
1.71560	99.99
1.73227	99.99
1.74893	99.98
1.76560	99.98
1.78227	99.98
1.79893	99.98
1.81560	99.99
1.83227	99.98
1.84893	99.98
1.86560	99.98
1.88227	99.98
1.89893	99.98
1.91560	99.98
1.93227	99.98
1.94893	99.98
1.96560	99.98
1.98227	99.98
1.99893	99.97
2.01560	99.98
2.03227	99.98
2.04893	99.98
2.06560	99.97
2.08227	99.97
2.09893	99.97
2.11560	99.97
2.13227	99.97
2.14893	99.97
2.16560	99.98
2.18227	99.97
2.19893	99.97
2.21560	99.97
2.23227	99.97
2.24893	99.97
2.26560	99.97
2.28227	99.97
2.29893	99.97
2.31560	99.97
2.33227	99.97
2.34893	99.97
2.36560	99.97
2.38227	99.97
2.39893	99.97
2.41560	99.97
2.43227	99.97
2.44893	99.98
2.46560	99.97
2.48227	99.97
2.49893	99.97
2.51560	99.98
2.53227	99.98
2.54893	99.97
2.56560	99.98
2.58227	99.98
2.59893	99.98
2.61560	99.98
2.63227	99.98
2.64893	99.98
2.66560	99.98
2.68227	99.98
2.69893	99.98
2.71560	99.99
2.73227	99.99
2.74893	99.99
2.76560	99.99
2.78227	99.99
2.79893	100.00
2.81560	100.00
2.83227	100.00
2.84893	100.00
2.86560	100.00
2.88227	100.00
2.89893	100.00
2.91560	100.01
2.93227	100.01
2.94893	100.01
2.96560	100.00
2.98227	100.01
2.99893	100.01
3.01560	100.01
3.03227	100.01
3.04893	100.01
3.06560	100.01
3.08227	100.01
3.09893	100.02
3.11560	100.02
3.13227	100.02
3.14893	100.02
3.16560	100.02
3.18227	100.02
3.19893	100.02
3.21560	100.02
3.23227	100.02
3.24893	100.02
3.26560	100.02
3.28227	100.02
3.29893	100.02
3.31560	100.01
3.33227	100.03
3.34893	100.03
3.36560	100.02
3.38227	100.03
3.39893	100.03
3.41560	100.03
3.43227	100.03
3.44893	100.03
3.46560	100.03
3.48227	100.03
3.49893	100.03
3.51560	100.04
3.53227	100.03
3.54893	100.03
3.56560	100.04
3.58227	100.04
3.59893	100.04
3.61560	100.04
3.63227	100.04
3.64893	100.04
3.66560	100.04
3.68227	100.04
3.69893	100.04
3.71560	100.04
3.73227	100.04
3.74893	100.04
3.76560	100.04
3.78227	100.04
3.79893	100.05
3.81560	100.04
3.83227	100.05
3.84893	100.05
3.86560	100.04
3.88227	100.05
3.89893	100.04
3.91560	100.05
3.93227	100.05
3.94893	100.05
3.96560	100.04
3.98227	100.05
3.99893	100.04

[Status Trace (Carrier Gas Pressure)]
Interval(msec)	1000
# of Points	240
Start Time(min)	0.016
End Time(min)	3.999
Intensity Units	
Intensity Multiplier	1
R.Time (min)	Intensity
0.01560	57.02
0.03227	55.62
0.04893	58.03
0.06560	59.88
0.08227	58.71
0.09893	57.98
0.11560	58.00
0.13227	58.01
0.14893	58.01
0.16560	58.00
0.18227	58.00
0.19893	58.00
0.21560	58.00
0.23227	58.00
0.24893	58.00
0.26560	58.00
0.28227	58.00
0.29893	58.00
0.31560	58.00
0.33227	58.00
0.34893	58.00
0.36560	58.00
0.38227	58.00
0.39893	58.00
0.41560	58.00
0.43227	58.00
0.44893	58.00
0.46560	58.00
0.48227	58.00
0.49893	58.00
0.51560	58.00
0.53227	58.00
0.54893	58.00
0.56560	58.00
0.58227	58.00
0.59893	58.00
0.61560	58.00
0.63227	58.00
0.64893	58.00
0.66560	58.00
0.68227	58.00
0.69893	58.00
0.71560	58.00
0.73227	58.00
0.74893	58.00
0.76560	58.00
0.78227	58.00
0.79893	58.00
0.81560	58.00
0.83227	58.00
0.84893	58.00
0.86560	58.00
0.88227	58.00
0.89893	58.00
0.91560	58.00
0.93227	58.00
0.94893	58.00
0.96560	58.00
0.98227	58.00
0.99893	58.00
1.01560	58.00
1.03227	58.00
1.04893	58.00
1.06560	58.00
1.08227	58.00
1.09893	58.00
1.11560	58.00
1.13227	58.00
1.14893	58.00
1.16560	58.00
1.18227	58.00
1.19893	58.00
1.21560	58.00
1.23227	58.00
1.24893	58.00
1.26560	58.00
1.28227	58.00
1.29893	58.00
1.31560	58.00
1.33227	58.00
1.34893	58.00
1.36560	58.00
1.38227	58.00
1.39893	58.00
1.41560	58.00
1.43227	58.00
1.44893	58.00
1.46560	58.00
1.48227	58.00
1.49893	58.00
1.51560	58.00
1.53227	58.00
1.54893	58.00
1.56560	58.00
1.58227	58.00
1.59893	58.00
1.61560	58.00
1.63227	58.00
1.64893	58.00
1.66560	58.01
1.68227	58.01
1.69893	58.00
1.71560	58.00
1.73227	58.00
1.74893	58.00
1.76560	58.00
1.78227	58.00
1.79893	58.00
1.81560	58.00
1.83227	58.00
1.84893	58.00
1.86560	58.00
1.88227	58.00
1.89893	58.00
1.91560	58.00
1.93227	58.00
1.94893	58.00
1.96560	58.00
1.98227	58.00
1.99893	58.00
2.01560	58.00
2.03227	58.00
2.04893	58.00
2.06560	58.00
2.08227	58.00
2.09893	58.00
2.11560	58.00
2.13227	58.00
2.14893	58.00
2.16560	58.00
2.18227	58.00
2.19893	58.00
2.21560	58.00
2.23227	58.00
2.24893	58.00
2.26560	58.00
2.28227	58.00
2.29893	58.00
2.31560	58.00
2.33227	58.00
2.34893	58.00
2.36560	58.00
2.38227	57.99
2.39893	57.99
2.41560	58.00
2.43227	58.00
2.44893	58.00
2.46560	58.00
2.48227	58.00
2.49893	58.00
2.51560	57.99
2.53227	57.99
2.54893	58.00
2.56560	58.00
2.58227	58.00
2.59893	58.00
2.61560	58.00
2.63227	58.00
2.64893	58.00
2.66560	58.00
2.68227	58.00
2.69893	58.00
2.71560	58.00
2.73227	58.00
2.74893	58.00
2.76560	58.00
2.78227	58.00
2.79893	58.00
2.81560	58.00
2.83227	58.00
2.84893	58.00
2.86560	58.00
2.88227	58.00
2.89893	58.00
2.91560	58.00
2.93227	58.00
2.94893	58.00
2.96560	58.00
2.98227	58.00
2.99893	58.00
3.01560	58.00
3.03227	58.00
3.04893	58.00
3.06560	58.00
3.08227	58.00
3.09893	58.00
3.11560	58.00
3.13227	58.00
3.14893	58.00
3.16560	58.00
3.18227	58.00
3.19893	58.00
3.21560	58.00
3.23227	58.00
3.24893	58.00
3.26560	58.00
3.28227	58.00
3.29893	58.00
3.31560	58.00
3.33227	58.00
3.34893	58.00
3.36560	58.00
3.38227	58.00
3.39893	58.00
3.41560	58.00
3.43227	58.00
3.44893	58.00
3.46560	58.00
3.48227	58.00
3.49893	58.00
3.51560	58.00
3.53227	58.00
3.54893	58.00
3.56560	58.00
3.58227	58.00
3.59893	58.00
3.61560	58.00
3.63227	58.00
3.64893	58.00
3.66560	58.00
3.68227	58.00
3.69893	58.00
3.71560	58.00
3.73227	58.00
3.74893	58.00
3.76560	58.00
3.78227	58.00
3.79893	58.00
3.81560	58.00
3.83227	58.00
3.84893	58.00
3.86560	58.00
3.88227	58.00
3.89893	58.00
3.91560	58.00
3.93227	58.00
3.94893	58.00
3.96560	58.00
3.98227	58.00
3.99893	58.00

[Status Trace (Carrier Gas Flow)]
Interval(msec)	1000
# of Points	240
Start Time(min)	0.016
End Time(min)	3.999
Intensity Units	
Intensity Multiplier	1
R.Time (min)	Intensity
0.01560	33.89
0.03227	34.54
0.04893	34.55
0.06560	34.52
0.08227	34.51
0.09893	34.52
0.11560	34.52
0.13227	34.52
0.14893	34.52
0.16560	34.52
0.18227	34.52
0.19893	34.52
0.21560	34.52
0.23227	34.52
0.24893	34.52
0.26560	34.52
0.28227	34.52
0.29893	34.52
0.31560	34.52
0.33227	34.52
0.34893	34.52
0.36560	34.52
0.38227	34.52
0.39893	34.52
0.41560	34.52
0.43227	34.52
0.44893	34.52
0.46560	34.52
0.48227	34.52
0.49893	34.52
0.51560	34.52
0.53227	34.52
0.54893	34.52
0.56560	34.52
0.58227	34.52
0.59893	34.52
0.61560	34.52
0.63227	34.52
0.64893	34.52
0.66560	34.52
0.68227	34.52
0.69893	34.52
0.71560	34.52
0.73227	34.52
0.74893	34.52
0.76560	34.52
0.78227	34.52
0.79893	34.52
0.81560	34.52
0.83227	34.52
0.84893	34.52
0.86560	34.52
0.88227	34.52
0.89893	34.52
0.91560	34.52
0.93227	34.52
0.94893	34.52
0.96560	34.52
0.98227	34.52
0.99893	34.52
1.01560	34.52
1.03227	34.52
1.04893	34.52
1.06560	34.52
1.08227	34.52
1.09893	34.52
1.11560	34.52
1.13227	34.52
1.14893	34.52
1.16560	34.52
1.18227	34.52
1.19893	34.52
1.21560	34.52
1.23227	34.52
1.24893	34.52
1.26560	34.52
1.28227	34.52
1.29893	34.52
1.31560	34.52
1.33227	34.52
1.34893	34.52
1.36560	34.52
1.38227	34.52
1.39893	34.52
1.41560	34.52
1.43227	34.52
1.44893	34.52
1.46560	34.52
1.48227	34.52
1.49893	34.52
1.51560	34.52
1.53227	34.52
1.54893	34.52
1.56560	34.52
1.58227	34.52
1.59893	34.52
1.61560	34.52
1.63227	34.52
1.64893	34.52
1.66560	34.52
1.68227	34.52
1.69893	34.52
1.71560	34.52
1.73227	34.52
1.74893	34.52
1.76560	34.52
1.78227	34.52
1.79893	34.52
1.81560	34.52
1.83227	34.52
1.84893	34.52
1.86560	34.52
1.88227	34.52
1.89893	34.52
1.91560	34.52
1.93227	34.52
1.94893	34.52
1.96560	34.52
1.98227	34.52
1.99893	34.52
2.01560	34.52
2.03227	34.52
2.04893	34.52
2.06560	34.52
2.08227	34.52
2.09893	34.52
2.11560	34.52
2.13227	34.52
2.14893	34.52
2.16560	34.52
2.18227	34.52
2.19893	34.52
2.21560	34.52
2.23227	34.52
2.24893	34.52
2.26560	34.52
2.28227	34.52
2.29893	34.52
2.31560	34.52
2.33227	34.52
2.34893	34.52
2.36560	34.52
2.38227	34.52
2.39893	34.51
2.41560	34.52
2.43227	34.52
2.44893	34.52
2.46560	34.52
2.48227	34.52
2.49893	34.52
2.51560	34.52
2.53227	34.52
2.54893	34.52
2.56560	34.52
2.58227	34.52
2.59893	34.52
2.61560	34.52
2.63227	34.52
2.64893	34.52
2.66560	34.52
2.68227	34.52
2.69893	34.52
2.71560	34.52
2.73227	34.52
2.74893	34.52
2.76560	34.52
2.78227	34.52
2.79893	34.52
2.81560	34.52
2.83227	34.52
2.84893	34.52
2.86560	34.52
2.88227	34.52
2.89893	34.52
2.91560	34.52
2.93227	34.52
2.94893	34.52
2.96560	34.51
2.98227	34.51
2.99893	34.53
3.01560	34.52
3.03227	34.52
3.04893	34.52
3.06560	34.52
3.08227	34.51
3.09893	34.52
3.11560	34.52
3.13227	34.52
3.14893	34.53
3.16560	34.52
3.18227	34.52
3.19893	34.51
3.21560	34.53
3.23227	34.51
3.24893	34.51
3.26560	34.53
3.28227	34.51
3.29893	34.52
3.31560	34.52
3.33227	34.52
3.34893	34.52
3.36560	34.52
3.38227	34.52
3.39893	34.52
3.41560	34.52
3.43227	34.52
3.44893	34.52
3.46560	34.52
3.48227	34.52
3.49893	34.52
3.51560	34.52
3.53227	34.52
3.54893	34.52
3.56560	34.52
3.58227	34.52
3.59893	34.52
3.61560	34.52
3.63227	34.52
3.64893	34.52
3.66560	34.52
3.68227	34.52
3.69893	34.52
3.71560	34.52
3.73227	34.52
3.74893	34.52
3.76560	34.52
3.78227	34.52
3.79893	34.52
3.81560	34.52
3.83227	34.52
3.84893	34.52
3.86560	34.52
3.88227	34.52
3.89893	34.52
3.91560	34.52
3.93227	34.52
3.94893	34.52
3.96560	34.52
3.98227	34.52
3.99893	34.52

[Status Trace (Column Flow)]
Interval(msec)	1000
# of Points	240
Start Time(min)	0.016
End Time(min)	3.999
Intensity Units	
Intensity Multiplier	1
R.Time (min)	Intensity
0.01560	5.42
0.03227	5.25
0.04893	5.53
0.06560	5.75
0.08227	5.61
0.09893	5.53
0.11560	5.53
0.13227	5.53
0.14893	5.53
0.16560	5.53
0.18227	5.53
0.19893	5.53
0.21560	5.53
0.23227	5.53
0.24893	5.53
0.26560	5.53
0.28227	5.53
0.29893	5.53
0.31560	5.53
0.33227	5.53
0.34893	5.53
0.36560	5.53
0.38227	5.53
0.39893	5.53
0.41560	5.53
0.43227	5.53
0.44893	5.53
0.46560	5.53
0.48227	5.53
0.49893	5.53
0.51560	5.53
0.53227	5.53
0.54893	5.53
0.56560	5.53
0.58227	5.53
0.59893	5.53
0.61560	5.53
0.63227	5.53
0.64893	5.53
0.66560	5.53
0.68227	5.53
0.69893	5.53
0.71560	5.53
0.73227	5.53
0.74893	5.53
0.76560	5.53
0.78227	5.53
0.79893	5.53
0.81560	5.53
0.83227	5.53
0.84893	5.53
0.86560	5.53
0.88227	5.53
0.89893	5.53
0.91560	5.53
0.93227	5.53
0.94893	5.53
0.96560	5.53
0.98227	5.53
0.99893	5.53
1.01560	5.53
1.03227	5.53
1.04893	5.53
1.06560	5.53
1.08227	5.53
1.09893	5.53
1.11560	5.53
1.13227	5.53
1.14893	5.53
1.16560	5.53
1.18227	5.53
1.19893	5.53
1.21560	5.53
1.23227	5.53
1.24893	5.53
1.26560	5.53
1.28227	5.53
1.29893	5.53
1.31560	5.53
1.33227	5.53
1.34893	5.53
1.36560	5.53
1.38227	5.53
1.39893	5.53
1.41560	5.53
1.43227	5.53
1.44893	5.53
1.46560	5.53
1.48227	5.53
1.49893	5.53
1.51560	5.53
1.53227	5.53
1.54893	5.53
1.56560	5.53
1.58227	5.53
1.59893	5.53
1.61560	5.53
1.63227	5.52
1.64893	5.52
1.66560	5.51
1.68227	5.50
1.69893	5.49
1.71560	5.47
1.73227	5.46
1.74893	5.45
1.76560	5.44
1.78227	5.43
1.79893	5.42
1.81560	5.41
1.83227	5.40
1.84893	5.39
1.86560	5.38
1.88227	5.37
1.89893	5.36
1.91560	5.35
1.93227	5.34
1.94893	5.33
1.96560	5.32
1.98227	5.31
1.99893	5.30
2.01560	5.29
2.03227	5.29
2.04893	5.28
2.06560	5.27
2.08227	5.26
2.09893	5.25
2.11560	5.24
2.13227	5.23
2.14893	5.22
2.16560	5.21
2.18227	5.20
2.19893	5.19
2.21560	5.18
2.23227	5.17
2.24893	5.16
2.26560	5.15
2.28227	5.14
2.29893	5.13
2.31560	5.12
2.33227	5.12
2.34893	5.11
2.36560	5.10
2.38227	5.10
2.39893	5.09
2.41560	5.09
2.43227	5.09
2.44893	5.10
2.46560	5.09
2.48227	5.09
2.49893	5.09
2.51560	5.09
2.53227	5.09
2.54893	5.09
2.56560	5.09
2.58227	5.09
2.59893	5.09
2.61560	5.09
2.63227	5.09
2.64893	5.09
2.66560	5.09
2.68227	5.09
2.69893	5.09
2.71560	5.09
2.73227	5.09
2.74893	5.09
2.76560	5.09
2.78227	5.09
2.79893	5.09
2.81560	5.09
2.83227	5.09
2.84893	5.09
2.86560	5.09
2.88227	5.09
2.89893	5.09
2.91560	5.09
2.93227	5.09
2.94893	5.09
2.96560	5.09
2.98227	5.09
2.99893	5.09
3.01560	5.09
3.03227	5.09
3.04893	5.09
3.06560	5.09
3.08227	5.09
3.09893	5.09
3.11560	5.09
3.13227	5.09
3.14893	5.09
3.16560	5.09
3.18227	5.09
3.19893	5.09
3.21560	5.08
3.23227	5.08
3.24893	5.08
3.26560	5.08
3.28227	5.08
3.29893	5.08
3.31560	5.08
3.33227	5.08
3.34893	5.08
3.36560	5.08
3.38227	5.08
3.39893	5.08
3.41560	5.08
3.43227	5.08
3.44893	5.08
3.46560	5.08
3.48227	5.08
3.49893	5.08
3.51560	5.08
3.53227	5.08
3.54893	5.08
3.56560	5.08
3.58227	5.08
3.59893	5.08
3.61560	5.08
3.63227	5.08
3.64893	5.08
3.66560	5.08
3.68227	5.08
3.69893	5.08
3.71560	5.08
3.73227	5.08
3.74893	5.08
3.76560	5.08
3.78227	5.08
3.79893	5.08
3.81560	5.08
3.83227	5.08
3.84893	5.08
3.86560	5.09
3.88227	5.09
3.89893	5.09
3.91560	5.09
3.93227	5.09
3.94893	5.09
3.96560	5.09
3.98227	5.09
3.99893	5.09

[Status Trace (Linear Velocity)]
Interval(msec)	1000
# of Points	240
Start Time(min)	0.016
End Time(min)	3.999
Intensity Units	
Intensity Multiplier	1
R.Time (min)	Intensity
0.01560	38.38
0.03227	37.46
0.04893	39.04
0.06560	40.25
0.08227	39.48
0.09893	39.00
0.11560	39.01
0.13227	39.03
0.14893	39.03
0.16560	39.02
0.18227	39.02
0.19893	39.02
0.21560	39.02
0.23227	39.02
0.24893	39.02
0.26560	39.02
0.28227	39.02
0.29893	39.02
0.31560	39.02
0.33227	39.02
0.34893	39.02
0.36560	39.02
0.38227	39.02
0.39893	39.02
0.41560	39.02
0.43227	39.02
0.44893	39.02
0.46560	39.02
0.48227	39.02
0.49893	39.02
0.51560	39.02
0.53227	39.02
0.54893	39.02
0.56560	39.02
0.58227	39.02
0.59893	39.02
0.61560	39.02
0.63227	39.02
0.64893	39.02
0.66560	39.02
0.68227	39.02
0.69893	39.02
0.71560	39.02
0.73227	39.02
0.74893	39.02
0.76560	39.02
0.78227	39.02
0.79893	39.02
0.81560	39.02
0.83227	39.02
0.84893	39.02
0.86560	39.02
0.88227	39.02
0.89893	39.02
0.91560	39.02
0.93227	39.02
0.94893	39.02
0.96560	39.02
0.98227	39.02
0.99893	39.02
1.01560	39.02
1.03227	39.02
1.04893	39.02
1.06560	39.02
1.08227	39.02
1.09893	39.02
1.11560	39.02
1.13227	39.02
1.14893	39.02
1.16560	39.02
1.18227	39.02
1.19893	39.02
1.21560	39.02
1.23227	39.02
1.24893	39.02
1.26560	39.02
1.28227	39.02
1.29893	39.02
1.31560	39.02
1.33227	39.02
1.34893	39.02
1.36560	39.02
1.38227	39.02
1.39893	39.02
1.41560	39.02
1.43227	39.02
1.44893	39.02
1.46560	39.02
1.48227	39.02
1.49893	39.02
1.51560	39.02
1.53227	39.02
1.54893	39.02
1.56560	39.02
1.58227	39.02
1.59893	39.02
1.61560	39.01
1.63227	39.00
1.64893	38.98
1.66560	38.95
1.68227	38.92
1.69893	38.88
1.71560	38.84
1.73227	38.82
1.74893	38.78
1.76560	38.75
1.78227	38.72
1.79893	38.69
1.81560	38.65
1.83227	38.63
1.84893	38.60
1.86560	38.56
1.88227	38.53
1.89893	38.50
1.91560	38.47
1.93227	38.44
1.94893	38.41
1.96560	38.38
1.98227	38.35
1.99893	38.32
2.01560	38.29
2.03227	38.26
2.04893	38.23
2.06560	38.20
2.08227	38.17
2.09893	38.14
2.11560	38.11
2.13227	38.08
2.14893	38.05
2.16560	38.02
2.18227	37.99
2.19893	37.97
2.21560	37.93
2.23227	37.91
2.24893	37.88
2.26560	37.84
2.28227	37.81
2.29893	37.78
2.31560	37.75
2.33227	37.73
2.34893	37.70
2.36560	37.67
2.38227	37.66
2.39893	37.66
2.41560	37.66
2.43227	37.66
2.44893	37.66
2.46560	37.66
2.48227	37.66
2.49893	37.66
2.51560	37.65
2.53227	37.65
2.54893	37.66
2.56560	37.65
2.58227	37.65
2.59893	37.65
2.61560	37.65
2.63227	37.65
2.64893	37.65
2.66560	37.65
2.68227	37.65
2.69893	37.65
2.71560	37.65
2.73227	37.65
2.74893	37.65
2.76560	37.64
2.78227	37.64
2.79893	37.65
2.81560	37.64
2.83227	37.64
2.84893	37.64
2.86560	37.64
2.88227	37.64
2.89893	37.64
2.91560	37.64
2.93227	37.64
2.94893	37.64
2.96560	37.64
2.98227	37.64
2.99893	37.64
3.01560	37.64
3.03227	37.64
3.04893	37.64
3.06560	37.64
3.08227	37.63
3.09893	37.63
3.11560	37.63
3.13227	37.63
3.14893	37.63
3.16560	37.63
3.18227	37.63
3.19893	37.63
3.21560	37.63
3.23227	37.63
3.24893	37.63
3.26560	37.63
3.28227	37.63
3.29893	37.63
3.31560	37.63
3.33227	37.63
3.34893	37.63
3.36560	37.63
3.38227	37.63
3.39893	37.63
3.41560	37.63
3.43227	37.63
3.44893	37.63
3.46560	37.63
3.48227	37.63
3.49893	37.63
3.51560	37.63
3.53227	37.63
3.54893	37.63
3.56560	37.63
3.58227	37.63
3.59893	37.63
3.61560	37.63
3.63227	37.63
3.64893	37.63
3.66560	37.63
3.68227	37.63
3.69893	37.63
3.71560	37.63
3.73227	37.63
3.74893	37.63
3.76560	37.63
3.78227	37.63
3.79893	37.63
3.81560	37.63
3.83227	37.63
3.84893	37.63
3.86560	37.63
3.88227	37.63
3.89893	37.63
3.91560	37.63
3.93227	37.63
3.94893	37.63
3.96560	37.63
3.98227	37.63
3.99893	37.63

