[Header]
Application Name	LabSolutions
Version	5.110
Data File Name	C:\Users\User\Desktop\GC Analyses\Jack\UIC Prairie Sampling\7.22.22\220722_096.gcd
Output Date	10/5/2022
Output Time	2:13:44 PM

[File Information]
Type	Data File
Generated	10/5/2022 12:37:17 PM
Generated by	System Administrator
Modified	10/5/2022 12:41:27 PM
Modified by	System Administrator

[Sample Information]
Operator Name	System Administrator
Acquired	10/5/2022 12:37:26 PM
Sample Type	1:Standard
Level	1
Sample Name	220722_UICPrairie
Sample ID	220722_UICPrairie
ISTD Amount1	1
ISTD Amount2	1
ISTD Amount3	1
ISTD Amount4	1
ISTD Amount5	1
ISTD Amount6	1
ISTD Amount7	1
ISTD Amount8	1
ISTD Amount9	1
ISTD Amount10	1
ISTD Amount11	1
ISTD Amount12	1
ISTD Amount13	1
ISTD Amount14	1
ISTD Amount15	1
ISTD Amount16	1
ISTD Amount17	1
ISTD Amount18	1
ISTD Amount19	1
ISTD Amount20	1
ISTD Amount21	1
ISTD Amount22	1
ISTD Amount23	1
ISTD Amount24	1
ISTD Amount25	1
ISTD Amount26	1
ISTD Amount27	1
ISTD Amount28	1
ISTD Amount29	1
ISTD Amount30	1
ISTD Amount31	1
ISTD Amount32	1
Sample Amount	1
Dilution Factor	1
Vial#	1
Injection Volume	1
Injection Count	1
Bar Code	

[Original Files]
Data File	C:\Users\User\Desktop\GC Analyses\Jack\UIC Prairie Sampling\7.22.22\220722_096.gcd
Method File	C:\LabSolutions\Data\GHG_4min_2022\ghg3_togas_w_acet_4 min_new_int.gcm
Batch File	
Report Format File	c:\LabSolutions\System\DEFAULT.lsr

[File Description]


[Configuration]
Instrument Name	C0B7VH3-Instrument1
Instrument #	1
Line #	1
# of Detectors	3
Detector ID	DET#1	DET#2	DET#3
Detector Name	FID	PTCD	ECD
# of Channels	1	1	1

[Peak Table(Ch1)]
# of Peaks	3
Peak#	R.Time	I.Time	F.Time	Area	Height	A/H	Conc.	Mark	ID#	Name	k'	Plate #	Plate Ht.	Tailing	Resolution	Sep.Factor	Area Ratio	Height Ratio	Conc. %	Norm Conc.
1	1.479	1.435	1.542	19416	8991	2.159	100.000	   	1	CO	0.000	8930	16.797	1.190	0.000	0.000	0	0	16.667	16.667
2	1.575	1.542	1.644	4848	2432	1.993	100.000	 V 	2	CH4	0.064	11494	13.050	1.055	1.571	0.000	0	0	16.667	16.667
3	2.004	1.956	2.220	1118483	547111	2.044	400.000	   	3	CO2	0.354	18023	8.323	1.159	7.244	5.500	0	0	66.667	66.667

[Peak Table(Ch2)]
# of Peaks	0

[Peak Table(Ch3)]
# of Peaks	3
Peak#	R.Time	I.Time	F.Time	Area	Height	A/H	Conc.	Mark	ID#	Name	k'	Plate #	Plate Ht.	Tailing	Resolution	Sep.Factor	Area Ratio	Height Ratio	Conc. %	Norm Conc.
1	2.594	1.974	2.660	4266	372	11.482	0.000	   			0.000	2379	63.053	0.000	0.000	0.000	0	0	0.000	0.000
2	2.752	2.660	2.818	1903	234	8.134	0.082	 V 	1	N2O	0.061	753	199.115	0.000	0.514	0.000	0	0	8.249	8.249
3	2.887	2.818	3.258	21169	5141	4.117	0.918	 V 	1	N2O	0.113	12888	11.639	1.528	0.540	1.860	0	0	91.751	91.751

[Compound Results(Ch1)]
# of IDs	6
ID#	Name	R.Time	Area	Height	Conc.	Curve	3rd	2nd	1st	Constant	Area Ratio	Height Ratio	Conc. %	Norm Conc.
1	CO	1.479	19416	8991	100.000	Linear	0.000000e+00	0.000000e+00	1.941619e+002	0.000000e+00	0	0	16.667	16.667
2	CH4	1.575	4848	2432	100.000	Linear	0.000000e+00	0.000000e+00	4.847863e+001	0.000000e+00	0	0	16.667	16.667
3	CO2	2.004	1118483	547111	400.000	Linear	0.000000e+00	0.000000e+00	2.796208e+003	0.000000e+00	0	0	66.667	66.667
4	Ethylene	0.000	0	0	0.000	Linear	0.000000e+00	0.000000e+00	0.000000e+00	0.000000e+00	0	0	0.000	0.000
5	Acetylene	0.000	0	0	0.000	Linear	0.000000e+00	0.000000e+00	0.000000e+00	0.000000e+00	0	0	0.000	0.000
6	Ethane	0.000	0	0	0.000	Linear	0.000000e+00	0.000000e+00	0.000000e+00	0.000000e+00	0	0	0.000	0.000

[Compound Results(Ch2)]
# of IDs	5
ID#	Name	R.Time	Area	Height	Conc.	Curve	3rd	2nd	1st	Constant	Area Ratio	Height Ratio	Conc. %	Norm Conc.
1	Hydrogen	0.000	0	0	0.000	Linear	0.000000e+00	0.000000e+00	0.000000e+00	0.000000e+00	0	0	0.000	0.000
2	Oxygen	0.000	0	0	0.000	Linear	0.000000e+00	0.000000e+00	0.000000e+00	0.000000e+00	0	0	0.000	0.000
3	Nitrogen	0.000	0	0	0.000	Linear	0.000000e+00	0.000000e+00	0.000000e+00	0.000000e+00	0	0	0.000	0.000
4	Methane	0.000	0	0	0.000	Linear	0.000000e+00	0.000000e+00	0.000000e+00	0.000000e+00	0	0	0.000	0.000
5	Carbon Monoxide	0.000	0	0	0.000	Linear	0.000000e+00	0.000000e+00	0.000000e+00	0.000000e+00	0	0	0.000	0.000

[Compound Results(Ch3)]
# of IDs	2
ID#	Name	R.Time	Area	Height	Conc.	Curve	3rd	2nd	1st	Constant	Area Ratio	Height Ratio	Conc. %	Norm Conc.
1	N2O	2.887	23072	5375	1.000	Linear	0.000000e+00	0.000000e+00	2.307171e+004	0.000000e+00	0	0	100.000	100.000
2	SF6	0.000	0	0	0.000	Linear	0.000000e+00	0.000000e+00	0.000000e+00	0.000000e+00	0	0	0.000	0.000

[Group Results(Ch1)]
# of Groups	0

[Group Results(Ch2)]
# of Groups	0

[Group Results(Ch3)]
# of Groups	0

[Chromatogram (Ch1)]
Interval(msec)	220
# of Points	1091
Start Time(min)	0.002
End Time(min)	3.998
R.Time (min)	Intensity
0.00167	-5
0.00533	-9
0.00900	-9
0.01267	-6
0.01633	1
0.02000	7
0.02367	11
0.02733	13
0.03100	11
0.03467	5
0.03833	-1
0.04200	-4
0.04567	-2
0.04933	2
0.05300	7
0.05667	11
0.06033	11
0.06400	7
0.06767	2
0.07133	1
0.07500	1
0.07867	1
0.08233	2
0.08600	9
0.08967	18
0.09333	23
0.09700	20
0.10067	15
0.10433	13
0.10800	10
0.11167	4
0.11533	-2
0.11900	-8
0.12267	-10
0.12633	-12
0.13000	-16
0.13367	-22
0.13733	-29
0.14100	-38
0.14467	-45
0.14833	-46
0.15200	-40
0.15567	-31
0.15933	-22
0.16300	-16
0.16667	-10
0.17033	-5
0.17400	-2
0.17767	-2
0.18133	-2
0.18500	-2
0.18867	-8
0.19233	-18
0.19600	-25
0.19967	-28
0.20333	-28
0.20700	-23
0.21067	-16
0.21433	-12
0.21800	-10
0.22167	-8
0.22533	-11
0.22900	-17
0.23267	-21
0.23633	-19
0.24000	-16
0.24367	-14
0.24733	-15
0.25100	-15
0.25467	-13
0.25833	-14
0.26200	-14
0.26567	-13
0.26933	-9
0.27300	-7
0.27667	-9
0.28033	-10
0.28400	-8
0.28767	-5
0.29133	-4
0.29500	-4
0.29867	-5
0.30233	-5
0.30600	-7
0.30967	-13
0.31333	-18
0.31700	-22
0.32067	-23
0.32433	-25
0.32800	-27
0.33167	-29
0.33533	-29
0.33900	-28
0.34267	-27
0.34633	-25
0.35000	-21
0.35367	-17
0.35733	-15
0.36100	-17
0.36467	-20
0.36833	-20
0.37200	-14
0.37567	-6
0.37933	2
0.38300	7
0.38667	9
0.39033	7
0.39400	3
0.39767	-2
0.40133	-7
0.40500	-10
0.40867	-11
0.41233	-11
0.41600	-9
0.41967	-7
0.42333	-11
0.42700	-16
0.43067	-22
0.43433	-26
0.43800	-27
0.44167	-30
0.44533	-32
0.44900	-33
0.45267	-33
0.45633	-32
0.46000	-31
0.46367	-29
0.46733	-28
0.47100	-27
0.47467	-29
0.47833	-30
0.48200	-31
0.48567	-33
0.48933	-34
0.49300	-33
0.49667	-32
0.50033	-28
0.50400	-23
0.50767	-18
0.51133	-14
0.51500	-14
0.51867	-15
0.52233	-13
0.52600	-8
0.52967	-1
0.53333	0
0.53700	-0
0.54067	-2
0.54433	-4
0.54800	-7
0.55167	-8
0.55533	-9
0.55900	-13
0.56267	-20
0.56633	-27
0.57000	-33
0.57367	-37
0.57733	-40
0.58100	-43
0.58467	-42
0.58833	-40
0.59200	-38
0.59567	-31
0.59933	-22
0.60300	-17
0.60667	-17
0.61033	-20
0.61400	-21
0.61767	-22
0.62133	-22
0.62500	-25
0.62867	-27
0.63233	-30
0.63600	-31
0.63967	-31
0.64333	-28
0.64700	-24
0.65067	-20
0.65433	-17
0.65800	-14
0.66167	-14
0.66533	-16
0.66900	-15
0.67267	-12
0.67633	-9
0.68000	-9
0.68367	-13
0.68733	-21
0.69100	-28
0.69467	-33
0.69833	-36
0.70200	-37
0.70567	-36
0.70933	-33
0.71300	-31
0.71667	-36
0.72033	-39
0.72400	-39
0.72767	-36
0.73133	-31
0.73500	-27
0.73867	-29
0.74233	-31
0.74600	-34
0.74967	-32
0.75333	-31
0.75700	-32
0.76067	-29
0.76433	-27
0.76800	-30
0.77167	-36
0.77533	-42
0.77900	-46
0.78267	-47
0.78633	-44
0.79000	-40
0.79367	-39
0.79733	-43
0.80100	-46
0.80467	-47
0.80833	-45
0.81200	-42
0.81567	-36
0.81933	-33
0.82300	-34
0.82667	-36
0.83033	-37
0.83400	-38
0.83767	-38
0.84133	-36
0.84500	-37
0.84867	-37
0.85233	-36
0.85600	-36
0.85967	-36
0.86333	-36
0.86700	-37
0.87067	-41
0.87433	-47
0.87800	-50
0.88167	-49
0.88533	-43
0.88900	-34
0.89267	-29
0.89633	-30
0.90000	-35
0.90367	-40
0.90733	-45
0.91100	-52
0.91467	-54
0.91833	-51
0.92200	-47
0.92567	-42
0.92933	-41
0.93300	-40
0.93667	-41
0.94033	-41
0.94400	-38
0.94767	-38
0.95133	-42
0.95500	-48
0.95867	-54
0.96233	-55
0.96600	-53
0.96967	-50
0.97333	-48
0.97700	-48
0.98067	-50
0.98433	-50
0.98800	-47
0.99167	-43
0.99533	-40
0.99900	-38
1.00267	-39
1.00633	-38
1.01000	-38
1.01367	-37
1.01733	-38
1.02100	-43
1.02467	-52
1.02833	-58
1.03200	-58
1.03567	-53
1.03933	-47
1.04300	-40
1.04667	-33
1.05033	-27
1.05400	-26
1.05767	-30
1.06133	-37
1.06500	-43
1.06867	-47
1.07233	-49
1.07600	-50
1.07967	-49
1.08333	-48
1.08700	-45
1.09067	-42
1.09433	-44
1.09800	-50
1.10167	-56
1.10533	-58
1.10900	-59
1.11267	-57
1.11633	-53
1.12000	-49
1.12367	-47
1.12733	-41
1.13100	-36
1.13467	-31
1.13833	-27
1.14200	-25
1.14567	-24
1.14933	-21
1.15300	-19
1.15667	-22
1.16033	-34
1.16400	-52
1.16767	-66
1.17133	-75
1.17500	-76
1.17867	-71
1.18233	-65
1.18600	-63
1.18967	-64
1.19333	-62
1.19700	-58
1.20067	-54
1.20433	-51
1.20800	-52
1.21167	-54
1.21533	-54
1.21900	-53
1.22267	-50
1.22633	-45
1.23000	-41
1.23367	-36
1.23733	-30
1.24100	-28
1.24467	-33
1.24833	-41
1.25200	-51
1.25567	-60
1.25933	-65
1.26300	-66
1.26667	-67
1.27033	-65
1.27400	-60
1.27767	-51
1.28133	-45
1.28500	-43
1.28867	-48
1.29233	-56
1.29600	-65
1.29967	-68
1.30333	-66
1.30700	-60
1.31067	-54
1.31433	-47
1.31800	-44
1.32167	-47
1.32533	-53
1.32900	-57
1.33267	-55
1.33633	-52
1.34000	-53
1.34367	-56
1.34733	-60
1.35100	-64
1.35467	-66
1.35833	-68
1.36200	-67
1.36567	-65
1.36933	-64
1.37300	-64
1.37667	-60
1.38033	-59
1.38400	-59
1.38767	-59
1.39133	-59
1.39500	-60
1.39867	-63
1.40233	-66
1.40600	-65
1.40967	-61
1.41333	-58
1.41700	-57
1.42067	-61
1.42433	-67
1.42800	-72
1.43167	-72
1.43533	-67
1.43900	-54
1.44267	-11
1.44633	127
1.45000	455
1.45367	1062
1.45733	2102
1.46100	3585
1.46467	5244
1.46833	6761
1.47200	7938
1.47567	8680
1.47933	8922
1.48300	8617
1.48667	7792
1.49033	6597
1.49400	5260
1.49767	3992
1.50133	2918
1.50500	2074
1.50867	1443
1.51233	984
1.51600	658
1.51967	432
1.52333	280
1.52700	180
1.53067	113
1.53433	65
1.53800	34
1.54167	24
1.54533	66
1.54900	230
1.55267	555
1.55633	1001
1.56000	1470
1.56367	1876
1.56733	2180
1.57100	2352
1.57467	2358
1.57833	2180
1.58200	1852
1.58567	1453
1.58933	1062
1.59300	727
1.59667	466
1.60033	277
1.60400	147
1.60767	61
1.61133	13
1.61500	-14
1.61867	-29
1.62233	-37
1.62600	-43
1.62967	-50
1.63333	-55
1.63700	-62
1.64067	-69
1.64433	-77
1.64800	-88
1.65167	-95
1.65533	-95
1.65900	-92
1.66267	-89
1.66633	-86
1.67000	-85
1.67367	-86
1.67733	-90
1.68100	-96
1.68467	-102
1.68833	-108
1.69200	-108
1.69567	-103
1.69933	-96
1.70300	-90
1.70667	-88
1.71033	-84
1.71400	-82
1.71767	-81
1.72133	-79
1.72500	-77
1.72867	-76
1.73233	-77
1.73600	-79
1.73967	-81
1.74333	-81
1.74700	-79
1.75067	-76
1.75433	-75
1.75800	-77
1.76167	-82
1.76533	-86
1.76900	-88
1.77267	-90
1.77633	-92
1.78000	-90
1.78367	-87
1.78733	-86
1.79100	-82
1.79467	-81
1.79833	-82
1.80200	-87
1.80567	-91
1.80933	-92
1.81300	-92
1.81667	-88
1.82033	-85
1.82400	-82
1.82767	-77
1.83133	-71
1.83500	-63
1.83867	-56
1.84233	-55
1.84600	-56
1.84967	-59
1.85333	-65
1.85700	-72
1.86067	-77
1.86433	-84
1.86800	-88
1.87167	-87
1.87533	-86
1.87900	-85
1.88267	-85
1.88633	-83
1.89000	-82
1.89367	-82
1.89733	-80
1.90100	-78
1.90467	-76
1.90833	-72
1.91200	-69
1.91567	-69
1.91933	-71
1.92300	-73
1.92667	-75
1.93033	-74
1.93400	-72
1.93767	-71
1.94133	-68
1.94500	-71
1.94867	-74
1.95233	-69
1.95600	-57
1.95967	-1
1.96333	327
1.96700	1929
1.97067	7925
1.97433	25001
1.97800	62709
1.98167	128228
1.98533	219371
1.98900	323256
1.99267	421953
1.99633	499034
2.00000	542852
2.00367	547097
2.00733	512361
2.01100	447070
2.01467	365339
2.01833	281881
2.02200	207500
2.02567	147387
2.02933	102115
2.03300	69687
2.03667	47252
2.04033	32078
2.04400	21953
2.04767	15240
2.05133	10787
2.05500	7819
2.05867	5818
2.06233	4443
2.06600	3482
2.06967	2800
2.07333	2306
2.07700	1941
2.08067	1663
2.08433	1447
2.08800	1273
2.09167	1130
2.09533	1011
2.09900	910
2.10267	826
2.10633	754
2.11000	692
2.11367	639
2.11733	596
2.12100	560
2.12467	526
2.12833	493
2.13200	464
2.13567	440
2.13933	417
2.14300	396
2.14667	377
2.15033	359
2.15400	342
2.15767	329
2.16133	317
2.16500	303
2.16867	290
2.17233	278
2.17600	266
2.17967	253
2.18333	242
2.18700	236
2.19067	232
2.19433	226
2.19800	217
2.20167	210
2.20533	203
2.20900	196
2.21267	189
2.21633	185
2.22000	181
2.22367	179
2.22733	179
2.23100	182
2.23467	187
2.23833	189
2.24200	186
2.24567	175
2.24933	160
2.25300	146
2.25667	132
2.26033	124
2.26400	122
2.26767	125
2.27133	130
2.27500	133
2.27867	135
2.28233	137
2.28600	134
2.28967	126
2.29333	117
2.29700	110
2.30067	101
2.30433	89
2.30800	79
2.31167	73
2.31533	72
2.31900	73
2.32267	77
2.32633	77
2.33000	75
2.33367	73
2.33733	72
2.34100	71
2.34467	72
2.34833	73
2.35200	75
2.35567	78
2.35933	80
2.36300	82
2.36667	87
2.37033	94
2.37400	98
2.37767	97
2.38133	95
2.38500	95
2.38867	98
2.39233	99
2.39600	96
2.39967	90
2.40333	83
2.40700	80
2.41067	76
2.41433	72
2.41800	70
2.42167	69
2.42533	66
2.42900	67
2.43267	71
2.43633	75
2.44000	80
2.44367	86
2.44733	90
2.45100	93
2.45467	96
2.45833	96
2.46200	94
2.46567	89
2.46933	82
2.47300	75
2.47667	70
2.48033	67
2.48400	65
2.48767	64
2.49133	63
2.49500	62
2.49867	61
2.50233	59
2.50600	59
2.50967	61
2.51333	61
2.51700	62
2.52067	62
2.52433	63
2.52800	67
2.53167	68
2.53533	70
2.53900	72
2.54267	70
2.54633	66
2.55000	57
2.55367	47
2.55733	38
2.56100	34
2.56467	32
2.56833	32
2.57200	35
2.57567	40
2.57933	45
2.58300	49
2.58667	50
2.59033	44
2.59400	40
2.59767	40
2.60133	40
2.60500	38
2.60867	38
2.61233	43
2.61600	44
2.61967	43
2.62333	35
2.62700	28
2.63067	28
2.63433	31
2.63800	30
2.64167	23
2.64533	15
2.64900	17
2.65267	21
2.65633	26
2.66000	34
2.66367	45
2.66733	50
2.67100	48
2.67467	40
2.67833	30
2.68200	20
2.68567	14
2.68933	11
2.69300	10
2.69667	13
2.70033	15
2.70400	16
2.70767	18
2.71133	21
2.71500	20
2.71867	14
2.72233	7
2.72600	3
2.72967	2
2.73333	5
2.73700	12
2.74067	21
2.74433	27
2.74800	28
2.75167	27
2.75533	24
2.75900	21
2.76267	23
2.76633	27
2.77000	28
2.77367	28
2.77733	29
2.78100	30
2.78467	29
2.78833	25
2.79200	21
2.79567	19
2.79933	17
2.80300	14
2.80667	12
2.81033	9
2.81400	9
2.81767	12
2.82133	17
2.82500	25
2.82867	31
2.83233	34
2.83600	35
2.83967	34
2.84333	32
2.84700	26
2.85067	16
2.85433	5
2.85800	-3
2.86167	-3
2.86533	2
2.86900	8
2.87267	12
2.87633	13
2.88000	16
2.88367	24
2.88733	33
2.89100	40
2.89467	43
2.89833	41
2.90200	40
2.90567	40
2.90933	40
2.91300	39
2.91667	33
2.92033	24
2.92400	15
2.92767	9
2.93133	4
2.93500	4
2.93867	6
2.94233	7
2.94600	5
2.94967	4
2.95333	2
2.95700	1
2.96067	-1
2.96433	-1
2.96800	2
2.97167	4
2.97533	4
2.97900	1
2.98267	1
2.98633	3
2.99000	6
2.99367	7
2.99733	8
3.00100	11
3.00467	16
3.00833	22
3.01200	28
3.01567	35
3.01933	40
3.02300	44
3.02667	44
3.03033	41
3.03400	35
3.03767	27
3.04133	21
3.04500	19
3.04867	17
3.05233	15
3.05600	15
3.05967	14
3.06333	14
3.06700	16
3.07067	18
3.07433	17
3.07800	14
3.08167	12
3.08533	12
3.08900	10
3.09267	2
3.09633	-5
3.10000	-10
3.10367	-12
3.10733	-12
3.11100	-11
3.11467	-7
3.11833	-5
3.12200	-2
3.12567	0
3.12933	4
3.13300	9
3.13667	14
3.14033	17
3.14400	16
3.14767	11
3.15133	9
3.15500	11
3.15867	10
3.16233	10
3.16600	10
3.16967	8
3.17333	3
3.17700	-1
3.18067	0
3.18433	0
3.18800	0
3.19167	0
3.19533	-1
3.19900	-4
3.20267	-5
3.20633	-4
3.21000	-3
3.21367	2
3.21733	10
3.22100	14
3.22467	15
3.22833	16
3.23200	14
3.23567	6
3.23933	-6
3.24300	-13
3.24667	-17
3.25033	-17
3.25400	-14
3.25767	-8
3.26133	1
3.26500	13
3.26867	22
3.27233	25
3.27600	20
3.27967	11
3.28333	1
3.28700	-4
3.29067	-5
3.29433	-3
3.29800	-4
3.30167	-11
3.30533	-17
3.30900	-19
3.31267	-23
3.31633	-27
3.32000	-27
3.32367	-27
3.32733	-24
3.33100	-18
3.33467	-11
3.33833	-6
3.34200	1
3.34567	11
3.34933	16
3.35300	16
3.35667	11
3.36033	6
3.36400	6
3.36767	7
3.37133	8
3.37500	10
3.37867	12
3.38233	11
3.38600	7
3.38967	-4
3.39333	-17
3.39700	-25
3.40067	-28
3.40433	-27
3.40800	-22
3.41167	-15
3.41533	-7
3.41900	-0
3.42267	3
3.42633	3
3.43000	0
3.43367	-2
3.43733	-6
3.44100	-12
3.44467	-16
3.44833	-13
3.45200	-5
3.45567	1
3.45933	2
3.46300	2
3.46667	-0
3.47033	-5
3.47400	-10
3.47767	-17
3.48133	-21
3.48500	-21
3.48867	-18
3.49233	-15
3.49600	-16
3.49967	-19
3.50333	-24
3.50700	-27
3.51067	-27
3.51433	-25
3.51800	-20
3.52167	-18
3.52533	-19
3.52900	-18
3.53267	-15
3.53633	-8
3.54000	-3
3.54367	-0
3.54733	0
3.55100	2
3.55467	2
3.55833	1
3.56200	-1
3.56567	-3
3.56933	-4
3.57300	-5
3.57667	-2
3.58033	1
3.58400	5
3.58767	6
3.59133	6
3.59500	6
3.59867	8
3.60233	10
3.60600	11
3.60967	10
3.61333	5
3.61700	2
3.62067	-0
3.62433	-0
3.62800	-0
3.63167	-4
3.63533	-10
3.63900	-11
3.64267	-8
3.64633	-3
3.65000	2
3.65367	5
3.65733	4
3.66100	1
3.66467	-0
3.66833	-2
3.67200	-5
3.67567	-10
3.67933	-15
3.68300	-15
3.68667	-13
3.69033	-12
3.69400	-10
3.69767	-10
3.70133	-10
3.70500	-10
3.70867	-11
3.71233	-13
3.71600	-15
3.71967	-16
3.72333	-15
3.72700	-14
3.73067	-14
3.73433	-15
3.73800	-15
3.74167	-13
3.74533	-11
3.74900	-9
3.75267	-7
3.75633	-3
3.76000	0
3.76367	1
3.76733	-1
3.77100	-2
3.77467	-4
3.77833	-3
3.78200	-1
3.78567	0
3.78933	1
3.79300	2
3.79667	4
3.80033	1
3.80400	-10
3.80767	-19
3.81133	-23
3.81500	-21
3.81867	-18
3.82233	-13
3.82600	-11
3.82967	-10
3.83333	-8
3.83700	-5
3.84067	-5
3.84433	-10
3.84800	-18
3.85167	-25
3.85533	-29
3.85900	-26
3.86267	-21
3.86633	-14
3.87000	-10
3.87367	-7
3.87733	-7
3.88100	-8
3.88467	-5
3.88833	-3
3.89200	-3
3.89567	-8
3.89933	-14
3.90300	-20
3.90667	-21
3.91033	-21
3.91400	-22
3.91767	-24
3.92133	-20
3.92500	-13
3.92867	-7
3.93233	-11
3.93600	-21
3.93967	-34
3.94333	-45
3.94700	-49
3.95067	-49
3.95433	-48
3.95800	-44
3.96167	-36
3.96533	-27
3.96900	-20
3.97267	-15
3.97633	-12
3.98000	-9
3.98367	-10
3.98733	-11
3.99100	-13
3.99467	-17
3.99833	-22

[Chromatogram (Ch2)]
Interval(msec)	220
# of Points	1091
Start Time(min)	0.002
End Time(min)	3.998
R.Time (min)	Intensity
0.00167	0
0.00533	0
0.00900	1
0.01267	1
0.01633	1
0.02000	2
0.02367	2
0.02733	2
0.03100	2
0.03467	2
0.03833	3
0.04200	3
0.04567	3
0.04933	3
0.05300	3
0.05667	3
0.06033	3
0.06400	3
0.06767	3
0.07133	3
0.07500	3
0.07867	2
0.08233	2
0.08600	2
0.08967	2
0.09333	2
0.09700	1
0.10067	1
0.10433	1
0.10800	1
0.11167	1
0.11533	1
0.11900	2
0.12267	2
0.12633	3
0.13000	3
0.13367	4
0.13733	4
0.14100	4
0.14467	4
0.14833	4
0.15200	4
0.15567	4
0.15933	4
0.16300	4
0.16667	4
0.17033	5
0.17400	5
0.17767	4
0.18133	5
0.18500	5
0.18867	5
0.19233	5
0.19600	5
0.19967	5
0.20333	5
0.20700	5
0.21067	5
0.21433	5
0.21800	6
0.22167	6
0.22533	6
0.22900	6
0.23267	6
0.23633	6
0.24000	6
0.24367	7
0.24733	7
0.25100	7
0.25467	7
0.25833	7
0.26200	7
0.26567	6
0.26933	6
0.27300	5
0.27667	5
0.28033	5
0.28400	4
0.28767	4
0.29133	4
0.29500	4
0.29867	4
0.30233	4
0.30600	4
0.30967	4
0.31333	4
0.31700	4
0.32067	4
0.32433	4
0.32800	4
0.33167	4
0.33533	4
0.33900	4
0.34267	4
0.34633	4
0.35000	3
0.35367	3
0.35733	3
0.36100	3
0.36467	3
0.36833	3
0.37200	2
0.37567	2
0.37933	2
0.38300	2
0.38667	2
0.39033	2
0.39400	2
0.39767	2
0.40133	2
0.40500	2
0.40867	2
0.41233	2
0.41600	2
0.41967	2
0.42333	2
0.42700	2
0.43067	2
0.43433	2
0.43800	2
0.44167	2
0.44533	3
0.44900	3
0.45267	3
0.45633	2
0.46000	2
0.46367	2
0.46733	2
0.47100	2
0.47467	2
0.47833	2
0.48200	2
0.48567	2
0.48933	2
0.49300	2
0.49667	2
0.50033	2
0.50400	2
0.50767	2
0.51133	3
0.51500	3
0.51867	3
0.52233	3
0.52600	3
0.52967	3
0.53333	3
0.53700	2
0.54067	2
0.54433	2
0.54800	2
0.55167	2
0.55533	2
0.55900	3
0.56267	3
0.56633	3
0.57000	2
0.57367	2
0.57733	2
0.58100	2
0.58467	2
0.58833	2
0.59200	2
0.59567	2
0.59933	2
0.60300	2
0.60667	2
0.61033	2
0.61400	2
0.61767	2
0.62133	2
0.62500	1
0.62867	1
0.63233	1
0.63600	1
0.63967	1
0.64333	0
0.64700	0
0.65067	1
0.65433	1
0.65800	1
0.66167	1
0.66533	1
0.66900	1
0.67267	1
0.67633	1
0.68000	2
0.68367	2
0.68733	2
0.69100	2
0.69467	2
0.69833	2
0.70200	2
0.70567	2
0.70933	2
0.71300	2
0.71667	2
0.72033	2
0.72400	2
0.72767	2
0.73133	2
0.73500	2
0.73867	2
0.74233	2
0.74600	2
0.74967	1
0.75333	1
0.75700	1
0.76067	1
0.76433	1
0.76800	1
0.77167	1
0.77533	1
0.77900	1
0.78267	1
0.78633	1
0.79000	1
0.79367	1
0.79733	1
0.80100	1
0.80467	1
0.80833	1
0.81200	1
0.81567	1
0.81933	1
0.82300	1
0.82667	1
0.83033	1
0.83400	1
0.83767	1
0.84133	1
0.84500	1
0.84867	1
0.85233	1
0.85600	1
0.85967	1
0.86333	1
0.86700	1
0.87067	1
0.87433	1
0.87800	1
0.88167	0
0.88533	0
0.88900	0
0.89267	0
0.89633	-0
0.90000	-0
0.90367	-0
0.90733	-1
0.91100	-1
0.91467	-0
0.91833	-0
0.92200	-0
0.92567	-0
0.92933	-0
0.93300	-0
0.93667	-0
0.94033	-0
0.94400	-0
0.94767	-0
0.95133	0
0.95500	0
0.95867	1
0.96233	1
0.96600	1
0.96967	1
0.97333	1
0.97700	1
0.98067	1
0.98433	0
0.98800	0
0.99167	0
0.99533	-0
0.99900	-0
1.00267	-0
1.00633	-0
1.01000	-0
1.01367	-0
1.01733	-0
1.02100	-0
1.02467	-0
1.02833	-0
1.03200	-0
1.03567	-0
1.03933	-0
1.04300	-0
1.04667	-0
1.05033	0
1.05400	0
1.05767	1
1.06133	1
1.06500	1
1.06867	1
1.07233	1
1.07600	1
1.07967	1
1.08333	1
1.08700	1
1.09067	1
1.09433	1
1.09800	1
1.10167	1
1.10533	1
1.10900	1
1.11267	1
1.11633	1
1.12000	1
1.12367	1
1.12733	1
1.13100	1
1.13467	2
1.13833	2
1.14200	3
1.14567	3
1.14933	3
1.15300	4
1.15667	4
1.16033	4
1.16400	5
1.16767	5
1.17133	5
1.17500	5
1.17867	5
1.18233	5
1.18600	5
1.18967	5
1.19333	5
1.19700	5
1.20067	5
1.20433	5
1.20800	5
1.21167	4
1.21533	4
1.21900	4
1.22267	3
1.22633	3
1.23000	3
1.23367	2
1.23733	2
1.24100	2
1.24467	2
1.24833	2
1.25200	2
1.25567	2
1.25933	2
1.26300	2
1.26667	2
1.27033	2
1.27400	2
1.27767	3
1.28133	3
1.28500	3
1.28867	3
1.29233	3
1.29600	3
1.29967	3
1.30333	3
1.30700	3
1.31067	3
1.31433	3
1.31800	3
1.32167	3
1.32533	3
1.32900	3
1.33267	3
1.33633	2
1.34000	2
1.34367	2
1.34733	1
1.35100	1
1.35467	1
1.35833	1
1.36200	1
1.36567	0
1.36933	0
1.37300	-0
1.37667	-1
1.38033	-1
1.38400	-1
1.38767	-1
1.39133	-2
1.39500	-1
1.39867	-1
1.40233	-2
1.40600	-2
1.40967	-2
1.41333	-2
1.41700	-2
1.42067	-2
1.42433	-2
1.42800	-2
1.43167	-2
1.43533	-1
1.43900	-1
1.44267	-1
1.44633	-0
1.45000	0
1.45367	0
1.45733	1
1.46100	1
1.46467	1
1.46833	1
1.47200	1
1.47567	2
1.47933	2
1.48300	2
1.48667	2
1.49033	2
1.49400	2
1.49767	2
1.50133	2
1.50500	2
1.50867	2
1.51233	2
1.51600	2
1.51967	2
1.52333	1
1.52700	1
1.53067	1
1.53433	1
1.53800	1
1.54167	1
1.54533	1
1.54900	1
1.55267	0
1.55633	0
1.56000	0
1.56367	0
1.56733	0
1.57100	0
1.57467	0
1.57833	0
1.58200	0
1.58567	-0
1.58933	-0
1.59300	-0
1.59667	-0
1.60033	-1
1.60400	-2
1.60767	-3
1.61133	-5
1.61500	-6
1.61867	-9
1.62233	-11
1.62600	-14
1.62967	-17
1.63333	-20
1.63700	-24
1.64067	-27
1.64433	-31
1.64800	-35
1.65167	-38
1.65533	-42
1.65900	-46
1.66267	-50
1.66633	-54
1.67000	-59
1.67367	-64
1.67733	-69
1.68100	-74
1.68467	-79
1.68833	-84
1.69200	-88
1.69567	-92
1.69933	-96
1.70300	-98
1.70667	-101
1.71033	-102
1.71400	-104
1.71767	-106
1.72133	-107
1.72500	-108
1.72867	-109
1.73233	-111
1.73600	-112
1.73967	-112
1.74333	-113
1.74700	-113
1.75067	-114
1.75433	-115
1.75800	-115
1.76167	-116
1.76533	-116
1.76900	-116
1.77267	-116
1.77633	-116
1.78000	-115
1.78367	-115
1.78733	-115
1.79100	-115
1.79467	-115
1.79833	-116
1.80200	-117
1.80567	-117
1.80933	-118
1.81300	-119
1.81667	-119
1.82033	-119
1.82400	-119
1.82767	-119
1.83133	-119
1.83500	-119
1.83867	-119
1.84233	-118
1.84600	-117
1.84967	-117
1.85333	-117
1.85700	-117
1.86067	-117
1.86433	-118
1.86800	-118
1.87167	-118
1.87533	-118
1.87900	-118
1.88267	-118
1.88633	-117
1.89000	-117
1.89367	-116
1.89733	-116
1.90100	-116
1.90467	-116
1.90833	-116
1.91200	-116
1.91567	-116
1.91933	-116
1.92300	-116
1.92667	-116
1.93033	-116
1.93400	-115
1.93767	-115
1.94133	-115
1.94500	-114
1.94867	-114
1.95233	-114
1.95600	-114
1.95967	-113
1.96333	-113
1.96700	-112
1.97067	-112
1.97433	-111
1.97800	-111
1.98167	-111
1.98533	-112
1.98900	-112
1.99267	-112
1.99633	-111
2.00000	-111
2.00367	-111
2.00733	-111
2.01100	-111
2.01467	-111
2.01833	-110
2.02200	-110
2.02567	-111
2.02933	-111
2.03300	-111
2.03667	-111
2.04033	-111
2.04400	-111
2.04767	-110
2.05133	-109
2.05500	-108
2.05867	-106
2.06233	-105
2.06600	-105
2.06967	-104
2.07333	-104
2.07700	-104
2.08067	-104
2.08433	-104
2.08800	-103
2.09167	-103
2.09533	-102
2.09900	-102
2.10267	-102
2.10633	-102
2.11000	-101
2.11367	-101
2.11733	-100
2.12100	-100
2.12467	-99
2.12833	-99
2.13200	-99
2.13567	-99
2.13933	-99
2.14300	-98
2.14667	-98
2.15033	-97
2.15400	-97
2.15767	-97
2.16133	-96
2.16500	-96
2.16867	-96
2.17233	-95
2.17600	-94
2.17967	-94
2.18333	-93
2.18700	-93
2.19067	-93
2.19433	-93
2.19800	-93
2.20167	-93
2.20533	-93
2.20900	-93
2.21267	-93
2.21633	-93
2.22000	-93
2.22367	-94
2.22733	-94
2.23100	-94
2.23467	-94
2.23833	-94
2.24200	-94
2.24567	-94
2.24933	-93
2.25300	-93
2.25667	-92
2.26033	-91
2.26400	-90
2.26767	-90
2.27133	-89
2.27500	-89
2.27867	-90
2.28233	-90
2.28600	-91
2.28967	-91
2.29333	-91
2.29700	-91
2.30067	-92
2.30433	-92
2.30800	-93
2.31167	-93
2.31533	-93
2.31900	-92
2.32267	-91
2.32633	-90
2.33000	-89
2.33367	-87
2.33733	-86
2.34100	-84
2.34467	-83
2.34833	-83
2.35200	-82
2.35567	-82
2.35933	-81
2.36300	-80
2.36667	-79
2.37033	-78
2.37400	-76
2.37767	-73
2.38133	-70
2.38500	-66
2.38867	-62
2.39233	-57
2.39600	-53
2.39967	-48
2.40333	-44
2.40700	-39
2.41067	-35
2.41433	-31
2.41800	-27
2.42167	-24
2.42533	-22
2.42900	-19
2.43267	-17
2.43633	-15
2.44000	-12
2.44367	-10
2.44733	-8
2.45100	-7
2.45467	-6
2.45833	-5
2.46200	-3
2.46567	-2
2.46933	-0
2.47300	1
2.47667	3
2.48033	4
2.48400	4
2.48767	5
2.49133	6
2.49500	7
2.49867	8
2.50233	8
2.50600	9
2.50967	10
2.51333	10
2.51700	11
2.52067	11
2.52433	12
2.52800	12
2.53167	13
2.53533	13
2.53900	14
2.54267	15
2.54633	16
2.55000	16
2.55367	16
2.55733	16
2.56100	16
2.56467	15
2.56833	15
2.57200	15
2.57567	15
2.57933	15
2.58300	15
2.58667	16
2.59033	16
2.59400	16
2.59767	16
2.60133	16
2.60500	16
2.60867	16
2.61233	17
2.61600	17
2.61967	18
2.62333	18
2.62700	18
2.63067	19
2.63433	19
2.63800	19
2.64167	20
2.64533	20
2.64900	20
2.65267	21
2.65633	21
2.66000	21
2.66367	22
2.66733	22
2.67100	22
2.67467	22
2.67833	22
2.68200	22
2.68567	22
2.68933	22
2.69300	22
2.69667	22
2.70033	22
2.70400	22
2.70767	23
2.71133	23
2.71500	23
2.71867	24
2.72233	24
2.72600	24
2.72967	25
2.73333	25
2.73700	25
2.74067	26
2.74433	26
2.74800	26
2.75167	27
2.75533	27
2.75900	27
2.76267	27
2.76633	27
2.77000	28
2.77367	28
2.77733	28
2.78100	27
2.78467	27
2.78833	26
2.79200	26
2.79567	25
2.79933	24
2.80300	24
2.80667	23
2.81033	23
2.81400	23
2.81767	23
2.82133	23
2.82500	24
2.82867	24
2.83233	24
2.83600	24
2.83967	25
2.84333	25
2.84700	24
2.85067	23
2.85433	20
2.85800	16
2.86167	10
2.86533	0
2.86900	-12
2.87267	-29
2.87633	-50
2.88000	-74
2.88367	-103
2.88733	-135
2.89100	-171
2.89467	-210
2.89833	-252
2.90200	-297
2.90567	-343
2.90933	-392
2.91300	-441
2.91667	-491
2.92033	-540
2.92400	-590
2.92767	-640
2.93133	-689
2.93500	-737
2.93867	-786
2.94233	-838
2.94600	-895
2.94967	-957
2.95333	-1015
2.95700	-1057
2.96067	-1076
2.96433	-1069
2.96800	-1037
2.97167	-986
2.97533	-920
2.97900	-845
2.98267	-766
2.98633	-687
2.99000	-610
2.99367	-538
2.99733	-471
3.00100	-409
3.00467	-354
3.00833	-305
3.01200	-262
3.01567	-224
3.01933	-190
3.02300	-161
3.02667	-136
3.03033	-114
3.03400	-96
3.03767	-79
3.04133	-66
3.04500	-54
3.04867	-44
3.05233	-35
3.05600	-28
3.05967	-22
3.06333	-17
3.06700	-12
3.07067	-9
3.07433	-6
3.07800	-3
3.08167	-1
3.08533	1
3.08900	3
3.09267	5
3.09633	6
3.10000	7
3.10367	8
3.10733	9
3.11100	9
3.11467	10
3.11833	10
3.12200	11
3.12567	12
3.12933	13
3.13300	14
3.13667	14
3.14033	15
3.14400	15
3.14767	16
3.15133	16
3.15500	17
3.15867	18
3.16233	18
3.16600	19
3.16967	19
3.17333	20
3.17700	20
3.18067	21
3.18433	21
3.18800	22
3.19167	22
3.19533	22
3.19900	23
3.20267	23
3.20633	24
3.21000	24
3.21367	24
3.21733	24
3.22100	25
3.22467	25
3.22833	25
3.23200	25
3.23567	25
3.23933	25
3.24300	25
3.24667	25
3.25033	25
3.25400	25
3.25767	25
3.26133	25
3.26500	25
3.26867	25
3.27233	25
3.27600	25
3.27967	25
3.28333	26
3.28700	26
3.29067	26
3.29433	26
3.29800	26
3.30167	26
3.30533	26
3.30900	26
3.31267	26
3.31633	26
3.32000	26
3.32367	26
3.32733	26
3.33100	26
3.33467	26
3.33833	26
3.34200	26
3.34567	26
3.34933	27
3.35300	27
3.35667	27
3.36033	27
3.36400	27
3.36767	27
3.37133	27
3.37500	27
3.37867	27
3.38233	27
3.38600	27
3.38967	27
3.39333	27
3.39700	27
3.40067	27
3.40433	27
3.40800	27
3.41167	27
3.41533	27
3.41900	27
3.42267	27
3.42633	27
3.43000	27
3.43367	26
3.43733	26
3.44100	26
3.44467	27
3.44833	27
3.45200	27
3.45567	28
3.45933	28
3.46300	28
3.46667	28
3.47033	28
3.47400	28
3.47767	28
3.48133	28
3.48500	28
3.48867	28
3.49233	28
3.49600	28
3.49967	28
3.50333	28
3.50700	28
3.51067	28
3.51433	28
3.51800	28
3.52167	28
3.52533	29
3.52900	28
3.53267	28
3.53633	28
3.54000	28
3.54367	28
3.54733	28
3.55100	27
3.55467	27
3.55833	27
3.56200	27
3.56567	27
3.56933	27
3.57300	27
3.57667	27
3.58033	27
3.58400	27
3.58767	27
3.59133	27
3.59500	27
3.59867	27
3.60233	27
3.60600	28
3.60967	28
3.61333	28
3.61700	28
3.62067	28
3.62433	28
3.62800	28
3.63167	28
3.63533	28
3.63900	28
3.64267	29
3.64633	29
3.65000	29
3.65367	29
3.65733	29
3.66100	29
3.66467	30
3.66833	30
3.67200	30
3.67567	30
3.67933	30
3.68300	30
3.68667	30
3.69033	30
3.69400	30
3.69767	30
3.70133	30
3.70500	30
3.70867	30
3.71233	30
3.71600	29
3.71967	29
3.72333	30
3.72700	29
3.73067	29
3.73433	29
3.73800	30
3.74167	30
3.74533	30
3.74900	30
3.75267	30
3.75633	30
3.76000	30
3.76367	30
3.76733	30
3.77100	30
3.77467	30
3.77833	30
3.78200	29
3.78567	29
3.78933	29
3.79300	30
3.79667	30
3.80033	29
3.80400	29
3.80767	29
3.81133	29
3.81500	29
3.81867	29
3.82233	29
3.82600	29
3.82967	28
3.83333	28
3.83700	28
3.84067	28
3.84433	28
3.84800	28
3.85167	29
3.85533	28
3.85900	28
3.86267	28
3.86633	28
3.87000	28
3.87367	27
3.87733	27
3.88100	27
3.88467	27
3.88833	27
3.89200	27
3.89567	27
3.89933	27
3.90300	27
3.90667	27
3.91033	27
3.91400	27
3.91767	27
3.92133	27
3.92500	27
3.92867	27
3.93233	27
3.93600	27
3.93967	28
3.94333	28
3.94700	28
3.95067	29
3.95433	29
3.95800	29
3.96167	29
3.96533	29
3.96900	29
3.97267	29
3.97633	29
3.98000	29
3.98367	29
3.98733	29
3.99100	29
3.99467	29
3.99833	29

[Chromatogram (Ch3)]
Interval(msec)	220
# of Points	1091
Start Time(min)	0.002
End Time(min)	3.998
R.Time (min)	Intensity
0.00167	0
0.00533	-2
0.00900	-2
0.01267	0
0.01633	2
0.02000	3
0.02367	6
0.02733	7
0.03100	7
0.03467	8
0.03833	9
0.04200	9
0.04567	9
0.04933	8
0.05300	8
0.05667	7
0.06033	6
0.06400	9
0.06767	11
0.07133	9
0.07500	7
0.07867	6
0.08233	5
0.08600	6
0.08967	6
0.09333	7
0.09700	7
0.10067	5
0.10433	5
0.10800	8
0.11167	10
0.11533	10
0.11900	9
0.12267	9
0.12633	8
0.13000	6
0.13367	2
0.13733	1
0.14100	2
0.14467	4
0.14833	4
0.15200	5
0.15567	5
0.15933	6
0.16300	7
0.16667	6
0.17033	5
0.17400	4
0.17767	5
0.18133	4
0.18500	3
0.18867	3
0.19233	6
0.19600	9
0.19967	9
0.20333	6
0.20700	5
0.21067	3
0.21433	2
0.21800	0
0.22167	0
0.22533	-2
0.22900	-3
0.23267	-3
0.23633	-1
0.24000	1
0.24367	3
0.24733	6
0.25100	8
0.25467	11
0.25833	10
0.26200	6
0.26567	5
0.26933	4
0.27300	3
0.27667	4
0.28033	5
0.28400	4
0.28767	3
0.29133	2
0.29500	2
0.29867	1
0.30233	2
0.30600	4
0.30967	5
0.31333	5
0.31700	3
0.32067	0
0.32433	0
0.32800	-0
0.33167	1
0.33533	2
0.33900	1
0.34267	-0
0.34633	-2
0.35000	-0
0.35367	2
0.35733	2
0.36100	3
0.36467	4
0.36833	5
0.37200	5
0.37567	6
0.37933	3
0.38300	1
0.38667	2
0.39033	5
0.39400	5
0.39767	4
0.40133	4
0.40500	5
0.40867	6
0.41233	6
0.41600	6
0.41967	6
0.42333	8
0.42700	9
0.43067	8
0.43433	7
0.43800	8
0.44167	9
0.44533	8
0.44900	8
0.45267	8
0.45633	7
0.46000	6
0.46367	5
0.46733	6
0.47100	7
0.47467	8
0.47833	10
0.48200	11
0.48567	13
0.48933	14
0.49300	14
0.49667	13
0.50033	10
0.50400	8
0.50767	8
0.51133	9
0.51500	6
0.51867	4
0.52233	3
0.52600	4
0.52967	4
0.53333	4
0.53700	3
0.54067	2
0.54433	2
0.54800	4
0.55167	7
0.55533	9
0.55900	8
0.56267	5
0.56633	3
0.57000	4
0.57367	2
0.57733	3
0.58100	3
0.58467	4
0.58833	6
0.59200	6
0.59567	6
0.59933	5
0.60300	3
0.60667	1
0.61033	-1
0.61400	-1
0.61767	-0
0.62133	0
0.62500	1
0.62867	1
0.63233	-3
0.63600	-4
0.63967	-5
0.64333	-4
0.64700	-3
0.65067	-2
0.65433	-0
0.65800	-1
0.66167	-2
0.66533	-1
0.66900	-0
0.67267	-1
0.67633	-2
0.68000	-2
0.68367	-1
0.68733	2
0.69100	4
0.69467	5
0.69833	5
0.70200	4
0.70567	3
0.70933	3
0.71300	2
0.71667	5
0.72033	6
0.72400	5
0.72767	1
0.73133	-3
0.73500	-4
0.73867	-3
0.74233	-0
0.74600	3
0.74967	4
0.75333	4
0.75700	3
0.76067	3
0.76433	3
0.76800	2
0.77167	1
0.77533	-0
0.77900	-3
0.78267	-2
0.78633	-1
0.79000	1
0.79367	1
0.79733	1
0.80100	2
0.80467	2
0.80833	1
0.81200	-0
0.81567	-0
0.81933	-0
0.82300	-0
0.82667	2
0.83033	3
0.83400	5
0.83767	5
0.84133	5
0.84500	5
0.84867	4
0.85233	2
0.85600	1
0.85967	-1
0.86333	-2
0.86700	-3
0.87067	-3
0.87433	-1
0.87800	2
0.88167	5
0.88533	7
0.88900	5
0.89267	3
0.89633	3
0.90000	5
0.90367	4
0.90733	4
0.91100	4
0.91467	2
0.91833	-2
0.92200	-4
0.92567	-4
0.92933	-4
0.93300	-3
0.93667	-1
0.94033	-0
0.94400	-1
0.94767	-3
0.95133	-2
0.95500	-4
0.95867	-4
0.96233	-2
0.96600	-1
0.96967	3
0.97333	4
0.97700	3
0.98067	3
0.98433	2
0.98800	3
0.99167	3
0.99533	2
0.99900	3
1.00267	4
1.00633	4
1.01000	6
1.01367	8
1.01733	11
1.02100	11
1.02467	9
1.02833	5
1.03200	2
1.03567	2
1.03933	4
1.04300	6
1.04667	6
1.05033	7
1.05400	9
1.05767	10
1.06133	12
1.06500	13
1.06867	13
1.07233	12
1.07600	10
1.07967	8
1.08333	8
1.08700	8
1.09067	7
1.09433	6
1.09800	3
1.10167	1
1.10533	1
1.10900	3
1.11267	5
1.11633	4
1.12000	3
1.12367	3
1.12733	3
1.13100	3
1.13467	3
1.13833	3
1.14200	5
1.14567	7
1.14933	7
1.15300	8
1.15667	10
1.16033	10
1.16400	11
1.16767	12
1.17133	10
1.17500	6
1.17867	3
1.18233	3
1.18600	5
1.18967	5
1.19333	8
1.19700	9
1.20067	10
1.20433	10
1.20800	8
1.21167	7
1.21533	7
1.21900	8
1.22267	9
1.22633	9
1.23000	9
1.23367	9
1.23733	11
1.24100	11
1.24467	9
1.24833	9
1.25200	9
1.25567	9
1.25933	8
1.26300	7
1.26667	9
1.27033	10
1.27400	10
1.27767	9
1.28133	9
1.28500	10
1.28867	11
1.29233	12
1.29600	12
1.29967	11
1.30333	11
1.30700	12
1.31067	11
1.31433	9
1.31800	8
1.32167	7
1.32533	6
1.32900	8
1.33267	9
1.33633	8
1.34000	7
1.34367	7
1.34733	8
1.35100	10
1.35467	12
1.35833	9
1.36200	6
1.36567	7
1.36933	9
1.37300	9
1.37667	11
1.38033	12
1.38400	13
1.38767	12
1.39133	11
1.39500	11
1.39867	12
1.40233	11
1.40600	11
1.40967	12
1.41333	10
1.41700	10
1.42067	11
1.42433	12
1.42800	12
1.43167	11
1.43533	12
1.43900	13
1.44267	15
1.44633	18
1.45000	19
1.45367	15
1.45733	12
1.46100	10
1.46467	9
1.46833	10
1.47200	9
1.47567	8
1.47933	5
1.48300	3
1.48667	2
1.49033	2
1.49400	4
1.49767	4
1.50133	3
1.50500	4
1.50867	6
1.51233	7
1.51600	6
1.51967	3
1.52333	1
1.52700	-0
1.53067	1
1.53433	2
1.53800	3
1.54167	4
1.54533	6
1.54900	6
1.55267	6
1.55633	5
1.56000	6
1.56367	6
1.56733	4
1.57100	5
1.57467	6
1.57833	9
1.58200	11
1.58567	12
1.58933	12
1.59300	11
1.59667	11
1.60033	10
1.60400	10
1.60767	11
1.61133	12
1.61500	13
1.61867	16
1.62233	16
1.62600	17
1.62967	18
1.63333	17
1.63700	16
1.64067	13
1.64433	11
1.64800	11
1.65167	14
1.65533	16
1.65900	18
1.66267	19
1.66633	19
1.67000	21
1.67367	22
1.67733	22
1.68100	20
1.68467	19
1.68833	19
1.69200	19
1.69567	20
1.69933	19
1.70300	19
1.70667	22
1.71033	26
1.71400	26
1.71767	25
1.72133	25
1.72500	27
1.72867	28
1.73233	30
1.73600	31
1.73967	30
1.74333	30
1.74700	31
1.75067	32
1.75433	32
1.75800	33
1.76167	33
1.76533	32
1.76900	34
1.77267	36
1.77633	35
1.78000	36
1.78367	39
1.78733	42
1.79100	43
1.79467	44
1.79833	45
1.80200	41
1.80567	39
1.80933	41
1.81300	43
1.81667	43
1.82033	43
1.82400	44
1.82767	45
1.83133	45
1.83500	44
1.83867	44
1.84233	43
1.84600	42
1.84967	42
1.85333	43
1.85700	45
1.86067	46
1.86433	44
1.86800	44
1.87167	46
1.87533	49
1.87900	49
1.88267	49
1.88633	48
1.89000	48
1.89367	49
1.89733	49
1.90100	50
1.90467	50
1.90833	47
1.91200	47
1.91567	48
1.91933	50
1.92300	51
1.92667	49
1.93033	47
1.93400	48
1.93767	49
1.94133	51
1.94500	52
1.94867	54
1.95233	57
1.95600	59
1.95967	59
1.96333	59
1.96700	60
1.97067	57
1.97433	57
1.97800	59
1.98167	62
1.98533	65
1.98900	66
1.99267	67
1.99633	67
2.00000	68
2.00367	70
2.00733	71
2.01100	71
2.01467	72
2.01833	73
2.02200	74
2.02567	77
2.02933	79
2.03300	79
2.03667	80
2.04033	80
2.04400	80
2.04767	80
2.05133	78
2.05500	78
2.05867	81
2.06233	84
2.06600	84
2.06967	84
2.07333	87
2.07700	92
2.08067	95
2.08433	95
2.08800	95
2.09167	94
2.09533	96
2.09900	96
2.10267	99
2.10633	99
2.11000	99
2.11367	102
2.11733	104
2.12100	105
2.12467	107
2.12833	107
2.13200	108
2.13567	108
2.13933	106
2.14300	107
2.14667	108
2.15033	109
2.15400	111
2.15767	112
2.16133	114
2.16500	114
2.16867	115
2.17233	119
2.17600	123
2.17967	124
2.18333	124
2.18700	126
2.19067	129
2.19433	132
2.19800	132
2.20167	131
2.20533	132
2.20900	135
2.21267	138
2.21633	140
2.22000	140
2.22367	139
2.22733	139
2.23100	140
2.23467	141
2.23833	144
2.24200	142
2.24567	140
2.24933	140
2.25300	143
2.25667	144
2.26033	148
2.26400	150
2.26767	152
2.27133	154
2.27500	154
2.27867	156
2.28233	159
2.28600	161
2.28967	160
2.29333	160
2.29700	162
2.30067	167
2.30433	169
2.30800	169
2.31167	171
2.31533	169
2.31900	169
2.32267	169
2.32633	169
2.33000	168
2.33367	167
2.33733	168
2.34100	169
2.34467	171
2.34833	173
2.35200	177
2.35567	180
2.35933	181
2.36300	183
2.36667	185
2.37033	187
2.37400	188
2.37767	190
2.38133	192
2.38500	192
2.38867	194
2.39233	195
2.39600	195
2.39967	194
2.40333	194
2.40700	194
2.41067	195
2.41433	196
2.41800	198
2.42167	199
2.42533	199
2.42900	199
2.43267	201
2.43633	202
2.44000	205
2.44367	208
2.44733	214
2.45100	216
2.45467	212
2.45833	207
2.46200	208
2.46567	212
2.46933	218
2.47300	229
2.47667	244
2.48033	258
2.48400	275
2.48767	295
2.49133	313
2.49500	326
2.49867	340
2.50233	355
2.50600	369
2.50967	382
2.51333	395
2.51700	406
2.52067	417
2.52433	427
2.52800	435
2.53167	446
2.53533	454
2.53900	462
2.54267	468
2.54633	473
2.55000	479
2.55367	483
2.55733	489
2.56100	495
2.56467	500
2.56833	506
2.57200	509
2.57567	510
2.57933	514
2.58300	518
2.58667	520
2.59033	522
2.59400	525
2.59767	525
2.60133	523
2.60500	522
2.60867	515
2.61233	502
2.61600	484
2.61967	460
2.62333	433
2.62700	405
2.63067	380
2.63433	356
2.63800	334
2.64167	315
2.64533	301
2.64900	291
2.65267	285
2.65633	282
2.66000	283
2.66367	286
2.66733	289
2.67100	295
2.67467	302
2.67833	311
2.68200	321
2.68567	331
2.68933	340
2.69300	348
2.69667	355
2.70033	362
2.70400	368
2.70767	374
2.71133	380
2.71500	386
2.71867	393
2.72233	397
2.72600	399
2.72967	399
2.73333	401
2.73700	402
2.74067	404
2.74433	407
2.74800	409
2.75167	412
2.75533	412
2.75900	410
2.76267	409
2.76633	409
2.77000	406
2.77367	404
2.77733	402
2.78100	399
2.78467	397
2.78833	395
2.79200	396
2.79567	397
2.79933	399
2.80300	397
2.80667	392
2.81033	389
2.81400	387
2.81767	384
2.82133	387
2.82500	389
2.82867	394
2.83233	410
2.83600	442
2.83967	509
2.84333	628
2.84700	820
2.85067	1110
2.85433	1510
2.85800	2011
2.86167	2591
2.86533	3213
2.86900	3827
2.87267	4382
2.87633	4836
2.88000	5155
2.88367	5320
2.88733	5340
2.89100	5233
2.89467	5019
2.89833	4728
2.90200	4389
2.90567	4029
2.90933	3665
2.91300	3310
2.91667	2973
2.92033	2661
2.92400	2376
2.92767	2120
2.93133	1891
2.93500	1687
2.93867	1508
2.94233	1351
2.94600	1213
2.94967	1093
2.95333	991
2.95700	904
2.96067	831
2.96433	765
2.96800	705
2.97167	653
2.97533	607
2.97900	567
2.98267	535
2.98633	509
2.99000	485
2.99367	464
2.99733	447
3.00100	433
3.00467	421
3.00833	411
3.01200	402
3.01567	395
3.01933	389
3.02300	382
3.02667	374
3.03033	366
3.03400	358
3.03767	353
3.04133	350
3.04500	346
3.04867	340
3.05233	337
3.05600	334
3.05967	332
3.06333	329
3.06700	329
3.07067	328
3.07433	324
3.07800	319
3.08167	316
3.08533	314
3.08900	311
3.09267	309
3.09633	308
3.10000	308
3.10367	307
3.10733	305
3.11100	304
3.11467	302
3.11833	298
3.12200	295
3.12567	293
3.12933	291
3.13300	289
3.13667	289
3.14033	288
3.14400	287
3.14767	286
3.15133	284
3.15500	284
3.15867	286
3.16233	287
3.16600	286
3.16967	286
3.17333	283
3.17700	282
3.18067	280
3.18433	278
3.18800	277
3.19167	274
3.19533	274
3.19900	272
3.20267	271
3.20633	272
3.21000	273
3.21367	273
3.21733	273
3.22100	271
3.22467	269
3.22833	267
3.23200	265
3.23567	262
3.23933	259
3.24300	257
3.24667	256
3.25033	257
3.25400	257
3.25767	256
3.26133	256
3.26500	254
3.26867	252
3.27233	251
3.27600	249
3.27967	247
3.28333	247
3.28700	247
3.29067	245
3.29433	245
3.29800	243
3.30167	243
3.30533	242
3.30900	240
3.31267	237
3.31633	236
3.32000	232
3.32367	229
3.32733	226
3.33100	224
3.33467	222
3.33833	219
3.34200	218
3.34567	219
3.34933	217
3.35300	215
3.35667	212
3.36033	209
3.36400	209
3.36767	208
3.37133	206
3.37500	203
3.37867	202
3.38233	199
3.38600	196
3.38967	194
3.39333	192
3.39700	194
3.40067	196
3.40433	194
3.40800	193
3.41167	193
3.41533	193
3.41900	191
3.42267	188
3.42633	186
3.43000	184
3.43367	185
3.43733	185
3.44100	183
3.44467	181
3.44833	179
3.45200	177
3.45567	175
3.45933	173
3.46300	170
3.46667	169
3.47033	167
3.47400	166
3.47767	164
3.48133	164
3.48500	163
3.48867	161
3.49233	160
3.49600	157
3.49967	156
3.50333	157
3.50700	155
3.51067	153
3.51433	151
3.51800	149
3.52167	147
3.52533	147
3.52900	147
3.53267	146
3.53633	147
3.54000	145
3.54367	143
3.54733	143
3.55100	143
3.55467	143
3.55833	143
3.56200	141
3.56567	141
3.56933	140
3.57300	137
3.57667	134
3.58033	134
3.58400	132
3.58767	131
3.59133	132
3.59500	133
3.59867	134
3.60233	134
3.60600	133
3.60967	133
3.61333	133
3.61700	130
3.62067	128
3.62433	127
3.62800	128
3.63167	128
3.63533	126
3.63900	126
3.64267	126
3.64633	123
3.65000	119
3.65367	116
3.65733	114
3.66100	114
3.66467	116
3.66833	115
3.67200	113
3.67567	112
3.67933	111
3.68300	111
3.68667	112
3.69033	113
3.69400	113
3.69767	113
3.70133	112
3.70500	109
3.70867	106
3.71233	106
3.71600	108
3.71967	109
3.72333	110
3.72700	110
3.73067	110
3.73433	108
3.73800	105
3.74167	103
3.74533	102
3.74900	102
3.75267	101
3.75633	99
3.76000	99
3.76367	101
3.76733	102
3.77100	102
3.77467	103
3.77833	104
3.78200	103
3.78567	103
3.78933	103
3.79300	102
3.79667	101
3.80033	98
3.80400	95
3.80767	94
3.81133	95
3.81500	95
3.81867	92
3.82233	88
3.82600	87
3.82967	88
3.83333	88
3.83700	88
3.84067	89
3.84433	89
3.84800	89
3.85167	90
3.85533	90
3.85900	89
3.86267	88
3.86633	87
3.87000	87
3.87367	90
3.87733	92
3.88100	90
3.88467	88
3.88833	88
3.89200	89
3.89567	89
3.89933	89
3.90300	89
3.90667	90
3.91033	90
3.91400	87
3.91767	86
3.92133	87
3.92500	88
3.92867	88
3.93233	86
3.93600	84
3.93967	82
3.94333	80
3.94700	77
3.95067	75
3.95433	73
3.95800	74
3.96167	76
3.96533	75
3.96900	76
3.97267	79
3.97633	81
3.98000	82
3.98367	81
3.98733	81
3.99100	80
3.99467	83
3.99833	84

[Status Trace (Column Oven Temperature)]
Interval(msec)	1000
# of Points	240
Start Time(min)	0.014
End Time(min)	3.998
Intensity Units	
Intensity Multiplier	1
R.Time (min)	Intensity
0.01425	35.00
0.03092	35.00
0.04758	35.00
0.06425	35.01
0.08092	35.02
0.09758	35.05
0.11425	35.05
0.13092	35.03
0.14758	35.03
0.16425	35.02
0.18092	35.01
0.19758	34.99
0.21425	34.98
0.23092	34.97
0.24758	34.95
0.26425	34.95
0.28092	34.96
0.29758	34.95
0.31425	34.96
0.33092	34.96
0.34758	34.96
0.36425	34.97
0.38092	34.97
0.39758	34.97
0.41425	34.97
0.43092	34.97
0.44758	34.98
0.46425	34.97
0.48092	34.97
0.49758	34.97
0.51425	34.97
0.53092	34.98
0.54758	34.99
0.56425	34.98
0.58092	34.98
0.59758	34.97
0.61425	34.97
0.63092	34.97
0.64758	34.98
0.66425	34.98
0.68092	34.98
0.69758	34.98
0.71425	34.98
0.73092	34.98
0.74758	35.00
0.76425	35.00
0.78092	35.00
0.79758	35.00
0.81425	35.00
0.83092	34.99
0.84758	34.99
0.86425	34.99
0.88092	35.00
0.89758	35.01
0.91425	35.01
0.93092	35.01
0.94758	35.00
0.96425	35.01
0.98092	35.01
0.99758	35.03
1.01425	35.02
1.03092	35.03
1.04758	35.03
1.06425	35.04
1.08092	35.04
1.09758	35.06
1.11425	35.06
1.13092	35.04
1.14758	35.02
1.16425	35.01
1.18092	34.99
1.19758	34.99
1.21425	34.99
1.23092	35.00
1.24758	34.99
1.26425	34.99
1.28092	34.99
1.29758	34.97
1.31425	34.97
1.33092	34.97
1.34758	34.98
1.36425	34.99
1.38092	35.00
1.39758	35.01
1.41425	35.02
1.43092	35.01
1.44758	35.01
1.46425	34.99
1.48092	34.99
1.49758	34.99
1.51425	34.98
1.53092	34.99
1.54758	34.98
1.56425	34.98
1.58092	34.98
1.59758	35.00
1.61425	35.09
1.63092	35.25
1.64758	35.44
1.66425	35.73
1.68092	36.10
1.69758	36.45
1.71425	36.79
1.73092	37.14
1.74758	37.49
1.76425	37.82
1.78092	38.12
1.79758	38.47
1.81425	38.80
1.83092	39.13
1.84758	39.46
1.86425	39.79
1.88092	40.12
1.89758	40.45
1.91425	40.77
1.93092	41.10
1.94758	41.43
1.96425	41.74
1.98092	42.07
1.99758	42.40
2.01425	42.72
2.03092	43.06
2.04758	43.39
2.06425	43.70
2.08092	44.03
2.09758	44.36
2.11425	44.67
2.13092	45.01
2.14758	45.33
2.16425	45.66
2.18092	45.98
2.19758	46.30
2.21425	46.63
2.23092	46.96
2.24758	47.30
2.26425	47.60
2.28092	47.94
2.29758	48.32
2.31425	48.68
2.33092	48.99
2.34758	49.30
2.36425	49.56
2.38092	49.65
2.39758	49.66
2.41425	49.66
2.43092	49.67
2.44758	49.68
2.46425	49.68
2.48092	49.69
2.49758	49.70
2.51425	49.71
2.53092	49.73
2.54758	49.73
2.56425	49.78
2.58092	49.79
2.59758	49.81
2.61425	49.81
2.63092	49.82
2.64758	49.83
2.66425	49.83
2.68092	49.84
2.69758	49.87
2.71425	49.87
2.73092	49.86
2.74758	49.86
2.76425	49.85
2.78092	49.88
2.79758	49.90
2.81425	49.92
2.83092	49.93
2.84758	49.94
2.86425	49.95
2.88092	49.95
2.89758	49.95
2.91425	49.95
2.93092	49.96
2.94758	49.96
2.96425	49.97
2.98092	49.97
2.99758	49.98
3.01425	49.99
3.03092	50.00
3.04758	50.00
3.06425	50.02
3.08092	50.04
3.09758	50.06
3.11425	50.08
3.13092	50.09
3.14758	50.10
3.16425	50.10
3.18092	50.09
3.19758	50.09
3.21425	50.08
3.23092	50.08
3.24758	50.08
3.26425	50.07
3.28092	50.07
3.29758	50.07
3.31425	50.08
3.33092	50.08
3.34758	50.08
3.36425	50.08
3.38092	50.07
3.39758	50.08
3.41425	50.08
3.43092	50.09
3.44758	50.09
3.46425	50.09
3.48092	50.09
3.49758	50.09
3.51425	50.08
3.53092	50.09
3.54758	50.09
3.56425	50.09
3.58092	50.09
3.59758	50.09
3.61425	50.10
3.63092	50.10
3.64758	50.10
3.66425	50.09
3.68092	50.08
3.69758	50.07
3.71425	50.07
3.73092	50.06
3.74758	50.05
3.76425	50.05
3.78092	50.06
3.79758	50.06
3.81425	50.06
3.83092	50.06
3.84758	50.06
3.86425	50.07
3.88092	50.08
3.89758	50.09
3.91425	50.10
3.93092	50.09
3.94758	50.09
3.96425	50.09
3.98092	50.09
3.99758	50.09

[Status Trace (Injection Unit Temperature)]
Interval(msec)	1000
# of Points	240
Start Time(min)	0.014
End Time(min)	3.998
Intensity Units	
Intensity Multiplier	1
R.Time (min)	Intensity
0.01425	99.98
0.03092	99.99
0.04758	99.98
0.06425	99.98
0.08092	99.98
0.09758	99.99
0.11425	99.98
0.13092	99.99
0.14758	99.98
0.16425	99.99
0.18092	99.98
0.19758	99.99
0.21425	99.98
0.23092	99.99
0.24758	99.99
0.26425	99.98
0.28092	99.99
0.29758	99.99
0.31425	99.99
0.33092	99.98
0.34758	99.98
0.36425	99.99
0.38092	99.99
0.39758	99.99
0.41425	99.98
0.43092	99.99
0.44758	99.99
0.46425	99.99
0.48092	99.99
0.49758	99.99
0.51425	99.99
0.53092	99.98
0.54758	99.99
0.56425	99.99
0.58092	99.99
0.59758	99.99
0.61425	99.99
0.63092	100.00
0.64758	99.99
0.66425	99.98
0.68092	99.99
0.69758	99.99
0.71425	99.99
0.73092	99.99
0.74758	99.99
0.76425	99.99
0.78092	99.99
0.79758	99.99
0.81425	99.99
0.83092	100.00
0.84758	99.99
0.86425	99.99
0.88092	99.99
0.89758	99.99
0.91425	99.99
0.93092	99.99
0.94758	100.00
0.96425	99.99
0.98092	99.99
0.99758	99.99
1.01425	99.99
1.03092	99.99
1.04758	99.99
1.06425	99.99
1.08092	99.99
1.09758	99.99
1.11425	99.99
1.13092	99.99
1.14758	99.99
1.16425	99.99
1.18092	99.98
1.19758	99.99
1.21425	99.99
1.23092	99.98
1.24758	99.99
1.26425	99.99
1.28092	99.99
1.29758	99.98
1.31425	99.98
1.33092	99.98
1.34758	99.99
1.36425	99.99
1.38092	99.98
1.39758	99.99
1.41425	99.99
1.43092	99.99
1.44758	99.99
1.46425	99.99
1.48092	99.99
1.49758	99.99
1.51425	99.99
1.53092	99.99
1.54758	99.99
1.56425	99.99
1.58092	99.99
1.59758	99.99
1.61425	99.99
1.63092	99.99
1.64758	99.99
1.66425	99.99
1.68092	99.99
1.69758	99.99
1.71425	99.99
1.73092	99.99
1.74758	99.99
1.76425	99.99
1.78092	99.98
1.79758	99.99
1.81425	99.99
1.83092	99.99
1.84758	99.99
1.86425	99.99
1.88092	99.99
1.89758	99.99
1.91425	99.98
1.93092	99.98
1.94758	99.99
1.96425	99.98
1.98092	99.98
1.99758	99.98
2.01425	99.98
2.03092	99.98
2.04758	99.98
2.06425	99.98
2.08092	99.98
2.09758	99.98
2.11425	99.97
2.13092	99.98
2.14758	99.98
2.16425	99.98
2.18092	99.97
2.19758	99.98
2.21425	99.97
2.23092	99.97
2.24758	99.97
2.26425	99.97
2.28092	99.97
2.29758	99.97
2.31425	99.97
2.33092	99.97
2.34758	99.97
2.36425	99.97
2.38092	99.96
2.39758	99.97
2.41425	99.97
2.43092	99.97
2.44758	99.97
2.46425	99.97
2.48092	99.97
2.49758	99.96
2.51425	99.97
2.53092	99.97
2.54758	99.97
2.56425	99.97
2.58092	99.97
2.59758	99.97
2.61425	99.97
2.63092	99.97
2.64758	99.97
2.66425	99.97
2.68092	99.98
2.69758	99.98
2.71425	99.98
2.73092	99.98
2.74758	99.98
2.76425	99.98
2.78092	99.98
2.79758	99.98
2.81425	99.99
2.83092	99.99
2.84758	99.99
2.86425	99.99
2.88092	100.00
2.89758	99.99
2.91425	100.00
2.93092	100.00
2.94758	100.00
2.96425	100.00
2.98092	100.00
2.99758	100.01
3.01425	100.01
3.03092	100.01
3.04758	100.01
3.06425	100.01
3.08092	100.01
3.09758	100.02
3.11425	100.02
3.13092	100.02
3.14758	100.02
3.16425	100.02
3.18092	100.02
3.19758	100.03
3.21425	100.02
3.23092	100.03
3.24758	100.03
3.26425	100.02
3.28092	100.03
3.29758	100.03
3.31425	100.03
3.33092	100.03
3.34758	100.03
3.36425	100.03
3.38092	100.03
3.39758	100.04
3.41425	100.04
3.43092	100.04
3.44758	100.04
3.46425	100.04
3.48092	100.04
3.49758	100.04
3.51425	100.04
3.53092	100.04
3.54758	100.04
3.56425	100.04
3.58092	100.05
3.59758	100.04
3.61425	100.05
3.63092	100.05
3.64758	100.05
3.66425	100.05
3.68092	100.05
3.69758	100.05
3.71425	100.05
3.73092	100.05
3.74758	100.05
3.76425	100.05
3.78092	100.05
3.79758	100.05
3.81425	100.05
3.83092	100.05
3.84758	100.05
3.86425	100.05
3.88092	100.05
3.89758	100.05
3.91425	100.05
3.93092	100.05
3.94758	100.06
3.96425	100.05
3.98092	100.05
3.99758	100.05

[Status Trace (Carrier Gas Pressure)]
Interval(msec)	1000
# of Points	240
Start Time(min)	0.014
End Time(min)	3.998
Intensity Units	
Intensity Multiplier	1
R.Time (min)	Intensity
0.01425	57.67
0.03092	55.43
0.04758	57.93
0.06425	59.78
0.08092	58.78
0.09758	57.98
0.11425	57.99
0.13092	58.01
0.14758	58.01
0.16425	58.00
0.18092	58.00
0.19758	58.00
0.21425	58.00
0.23092	58.00
0.24758	58.00
0.26425	58.00
0.28092	58.00
0.29758	58.00
0.31425	58.00
0.33092	58.00
0.34758	58.00
0.36425	58.00
0.38092	58.00
0.39758	58.00
0.41425	58.00
0.43092	58.00
0.44758	58.00
0.46425	58.00
0.48092	58.00
0.49758	58.00
0.51425	58.00
0.53092	58.00
0.54758	58.00
0.56425	58.00
0.58092	58.00
0.59758	58.00
0.61425	58.00
0.63092	58.00
0.64758	58.00
0.66425	58.00
0.68092	58.00
0.69758	58.00
0.71425	58.00
0.73092	58.00
0.74758	58.00
0.76425	58.00
0.78092	58.00
0.79758	58.00
0.81425	58.00
0.83092	58.00
0.84758	58.00
0.86425	58.00
0.88092	58.00
0.89758	58.00
0.91425	58.00
0.93092	58.00
0.94758	58.00
0.96425	58.00
0.98092	58.00
0.99758	58.00
1.01425	58.00
1.03092	58.00
1.04758	58.00
1.06425	58.00
1.08092	58.00
1.09758	58.00
1.11425	58.00
1.13092	58.00
1.14758	58.00
1.16425	58.00
1.18092	58.00
1.19758	58.00
1.21425	58.00
1.23092	58.00
1.24758	58.00
1.26425	58.00
1.28092	58.00
1.29758	58.00
1.31425	58.00
1.33092	58.00
1.34758	58.00
1.36425	58.00
1.38092	58.00
1.39758	58.00
1.41425	58.00
1.43092	58.00
1.44758	58.00
1.46425	58.00
1.48092	58.00
1.49758	58.00
1.51425	58.00
1.53092	58.00
1.54758	58.00
1.56425	58.00
1.58092	58.00
1.59758	58.00
1.61425	58.00
1.63092	58.00
1.64758	58.00
1.66425	58.01
1.68092	58.01
1.69758	58.00
1.71425	58.00
1.73092	58.00
1.74758	58.00
1.76425	58.00
1.78092	58.00
1.79758	58.00
1.81425	58.00
1.83092	58.00
1.84758	58.00
1.86425	58.00
1.88092	58.00
1.89758	58.00
1.91425	58.00
1.93092	58.00
1.94758	58.00
1.96425	58.00
1.98092	58.00
1.99758	58.00
2.01425	58.00
2.03092	58.00
2.04758	58.00
2.06425	58.00
2.08092	58.00
2.09758	58.00
2.11425	58.00
2.13092	58.00
2.14758	58.00
2.16425	58.00
2.18092	58.00
2.19758	58.00
2.21425	58.00
2.23092	58.00
2.24758	58.00
2.26425	58.00
2.28092	58.00
2.29758	58.00
2.31425	58.00
2.33092	58.00
2.34758	58.00
2.36425	58.00
2.38092	57.99
2.39758	57.99
2.41425	58.00
2.43092	58.00
2.44758	58.00
2.46425	58.00
2.48092	58.00
2.49758	58.00
2.51425	57.99
2.53092	57.99
2.54758	58.00
2.56425	58.00
2.58092	58.00
2.59758	58.00
2.61425	58.00
2.63092	58.00
2.64758	58.00
2.66425	58.00
2.68092	58.00
2.69758	58.00
2.71425	58.00
2.73092	58.00
2.74758	58.00
2.76425	58.00
2.78092	58.00
2.79758	58.00
2.81425	58.00
2.83092	58.00
2.84758	58.00
2.86425	58.00
2.88092	58.00
2.89758	58.00
2.91425	58.00
2.93092	58.00
2.94758	58.00
2.96425	58.00
2.98092	58.00
2.99758	58.00
3.01425	58.00
3.03092	58.00
3.04758	58.00
3.06425	58.00
3.08092	58.00
3.09758	58.00
3.11425	58.00
3.13092	58.00
3.14758	58.00
3.16425	58.00
3.18092	58.00
3.19758	58.00
3.21425	58.00
3.23092	58.00
3.24758	58.00
3.26425	58.00
3.28092	58.00
3.29758	58.00
3.31425	58.00
3.33092	58.00
3.34758	58.00
3.36425	58.00
3.38092	58.00
3.39758	58.00
3.41425	58.00
3.43092	58.00
3.44758	58.00
3.46425	58.00
3.48092	58.00
3.49758	58.00
3.51425	58.00
3.53092	58.00
3.54758	58.00
3.56425	58.00
3.58092	58.00
3.59758	58.00
3.61425	58.00
3.63092	58.00
3.64758	58.00
3.66425	58.00
3.68092	58.00
3.69758	58.00
3.71425	58.00
3.73092	58.00
3.74758	58.00
3.76425	58.00
3.78092	58.00
3.79758	58.00
3.81425	58.00
3.83092	58.00
3.84758	58.00
3.86425	58.00
3.88092	58.00
3.89758	58.00
3.91425	58.00
3.93092	58.00
3.94758	58.00
3.96425	58.00
3.98092	58.00
3.99758	58.00

[Status Trace (Carrier Gas Flow)]
Interval(msec)	1000
# of Points	240
Start Time(min)	0.014
End Time(min)	3.998
Intensity Units	
Intensity Multiplier	1
R.Time (min)	Intensity
0.01425	34.39
0.03092	34.54
0.04758	34.54
0.06425	34.53
0.08092	34.50
0.09758	34.52
0.11425	34.52
0.13092	34.52
0.14758	34.52
0.16425	34.52
0.18092	34.52
0.19758	34.52
0.21425	34.52
0.23092	34.52
0.24758	34.52
0.26425	34.52
0.28092	34.52
0.29758	34.52
0.31425	34.52
0.33092	34.52
0.34758	34.52
0.36425	34.52
0.38092	34.52
0.39758	34.52
0.41425	34.52
0.43092	34.52
0.44758	34.52
0.46425	34.52
0.48092	34.52
0.49758	34.52
0.51425	34.52
0.53092	34.52
0.54758	34.52
0.56425	34.52
0.58092	34.52
0.59758	34.52
0.61425	34.52
0.63092	34.52
0.64758	34.52
0.66425	34.52
0.68092	34.52
0.69758	34.52
0.71425	34.52
0.73092	34.52
0.74758	34.52
0.76425	34.52
0.78092	34.52
0.79758	34.52
0.81425	34.52
0.83092	34.52
0.84758	34.52
0.86425	34.52
0.88092	34.52
0.89758	34.52
0.91425	34.52
0.93092	34.52
0.94758	34.52
0.96425	34.52
0.98092	34.52
0.99758	34.52
1.01425	34.52
1.03092	34.52
1.04758	34.52
1.06425	34.52
1.08092	34.52
1.09758	34.52
1.11425	34.52
1.13092	34.52
1.14758	34.52
1.16425	34.52
1.18092	34.52
1.19758	34.52
1.21425	34.52
1.23092	34.52
1.24758	34.52
1.26425	34.52
1.28092	34.52
1.29758	34.52
1.31425	34.52
1.33092	34.52
1.34758	34.52
1.36425	34.52
1.38092	34.52
1.39758	34.52
1.41425	34.52
1.43092	34.52
1.44758	34.52
1.46425	34.52
1.48092	34.52
1.49758	34.52
1.51425	34.52
1.53092	34.52
1.54758	34.52
1.56425	34.52
1.58092	34.52
1.59758	34.52
1.61425	34.52
1.63092	34.52
1.64758	34.52
1.66425	34.52
1.68092	34.52
1.69758	34.52
1.71425	34.52
1.73092	34.52
1.74758	34.52
1.76425	34.52
1.78092	34.52
1.79758	34.52
1.81425	34.52
1.83092	34.52
1.84758	34.52
1.86425	34.52
1.88092	34.52
1.89758	34.52
1.91425	34.52
1.93092	34.52
1.94758	34.52
1.96425	34.52
1.98092	34.52
1.99758	34.52
2.01425	34.52
2.03092	34.52
2.04758	34.52
2.06425	34.52
2.08092	34.52
2.09758	34.52
2.11425	34.52
2.13092	34.52
2.14758	34.52
2.16425	34.52
2.18092	34.52
2.19758	34.52
2.21425	34.52
2.23092	34.52
2.24758	34.52
2.26425	34.52
2.28092	34.52
2.29758	34.52
2.31425	34.52
2.33092	34.52
2.34758	34.52
2.36425	34.52
2.38092	34.52
2.39758	34.52
2.41425	34.52
2.43092	34.52
2.44758	34.52
2.46425	34.52
2.48092	34.52
2.49758	34.52
2.51425	34.52
2.53092	34.52
2.54758	34.52
2.56425	34.52
2.58092	34.52
2.59758	34.52
2.61425	34.52
2.63092	34.52
2.64758	34.52
2.66425	34.52
2.68092	34.52
2.69758	34.52
2.71425	34.52
2.73092	34.52
2.74758	34.52
2.76425	34.52
2.78092	34.52
2.79758	34.52
2.81425	34.52
2.83092	34.52
2.84758	34.52
2.86425	34.52
2.88092	34.52
2.89758	34.52
2.91425	34.52
2.93092	34.52
2.94758	34.52
2.96425	34.52
2.98092	34.52
2.99758	34.52
3.01425	34.52
3.03092	34.52
3.04758	34.52
3.06425	34.52
3.08092	34.52
3.09758	34.52
3.11425	34.52
3.13092	34.52
3.14758	34.52
3.16425	34.52
3.18092	34.52
3.19758	34.52
3.21425	34.52
3.23092	34.52
3.24758	34.52
3.26425	34.52
3.28092	34.52
3.29758	34.52
3.31425	34.52
3.33092	34.52
3.34758	34.52
3.36425	34.52
3.38092	34.52
3.39758	34.52
3.41425	34.52
3.43092	34.52
3.44758	34.52
3.46425	34.52
3.48092	34.52
3.49758	34.52
3.51425	34.52
3.53092	34.52
3.54758	34.52
3.56425	34.52
3.58092	34.52
3.59758	34.52
3.61425	34.52
3.63092	34.52
3.64758	34.52
3.66425	34.52
3.68092	34.52
3.69758	34.52
3.71425	34.52
3.73092	34.52
3.74758	34.52
3.76425	34.52
3.78092	34.52
3.79758	34.52
3.81425	34.52
3.83092	34.52
3.84758	34.52
3.86425	34.52
3.88092	34.53
3.89758	34.52
3.91425	34.52
3.93092	34.52
3.94758	34.54
3.96425	34.51
3.98092	34.53
3.99758	34.53

[Status Trace (Column Flow)]
Interval(msec)	1000
# of Points	240
Start Time(min)	0.014
End Time(min)	3.998
Intensity Units	
Intensity Multiplier	1
R.Time (min)	Intensity
0.01425	5.49
0.03092	5.23
0.04758	5.52
0.06425	5.73
0.08092	5.61
0.09758	5.52
0.11425	5.52
0.13092	5.52
0.14758	5.52
0.16425	5.52
0.18092	5.52
0.19758	5.52
0.21425	5.52
0.23092	5.52
0.24758	5.52
0.26425	5.52
0.28092	5.52
0.29758	5.52
0.31425	5.52
0.33092	5.52
0.34758	5.52
0.36425	5.52
0.38092	5.52
0.39758	5.52
0.41425	5.52
0.43092	5.52
0.44758	5.52
0.46425	5.52
0.48092	5.52
0.49758	5.52
0.51425	5.52
0.53092	5.52
0.54758	5.52
0.56425	5.52
0.58092	5.52
0.59758	5.52
0.61425	5.52
0.63092	5.52
0.64758	5.52
0.66425	5.52
0.68092	5.52
0.69758	5.52
0.71425	5.52
0.73092	5.52
0.74758	5.52
0.76425	5.52
0.78092	5.52
0.79758	5.52
0.81425	5.52
0.83092	5.52
0.84758	5.52
0.86425	5.52
0.88092	5.52
0.89758	5.52
0.91425	5.52
0.93092	5.52
0.94758	5.52
0.96425	5.52
0.98092	5.52
0.99758	5.52
1.01425	5.52
1.03092	5.52
1.04758	5.52
1.06425	5.52
1.08092	5.52
1.09758	5.52
1.11425	5.52
1.13092	5.52
1.14758	5.52
1.16425	5.52
1.18092	5.52
1.19758	5.52
1.21425	5.52
1.23092	5.52
1.24758	5.52
1.26425	5.52
1.28092	5.52
1.29758	5.52
1.31425	5.52
1.33092	5.52
1.34758	5.52
1.36425	5.52
1.38092	5.52
1.39758	5.52
1.41425	5.52
1.43092	5.52
1.44758	5.52
1.46425	5.52
1.48092	5.52
1.49758	5.52
1.51425	5.52
1.53092	5.52
1.54758	5.52
1.56425	5.52
1.58092	5.52
1.59758	5.52
1.61425	5.52
1.63092	5.52
1.64758	5.51
1.66425	5.50
1.68092	5.49
1.69758	5.48
1.71425	5.47
1.73092	5.46
1.74758	5.45
1.76425	5.44
1.78092	5.43
1.79758	5.42
1.81425	5.41
1.83092	5.40
1.84758	5.39
1.86425	5.38
1.88092	5.37
1.89758	5.36
1.91425	5.35
1.93092	5.34
1.94758	5.33
1.96425	5.32
1.98092	5.31
1.99758	5.30
2.01425	5.29
2.03092	5.28
2.04758	5.27
2.06425	5.26
2.08092	5.25
2.09758	5.24
2.11425	5.23
2.13092	5.22
2.14758	5.21
2.16425	5.20
2.18092	5.19
2.19758	5.18
2.21425	5.18
2.23092	5.17
2.24758	5.16
2.26425	5.15
2.28092	5.14
2.29758	5.13
2.31425	5.12
2.33092	5.11
2.34758	5.10
2.36425	5.09
2.38092	5.09
2.39758	5.09
2.41425	5.09
2.43092	5.09
2.44758	5.09
2.46425	5.09
2.48092	5.09
2.49758	5.09
2.51425	5.09
2.53092	5.09
2.54758	5.09
2.56425	5.09
2.58092	5.09
2.59758	5.08
2.61425	5.09
2.63092	5.08
2.64758	5.08
2.66425	5.08
2.68092	5.08
2.69758	5.08
2.71425	5.08
2.73092	5.08
2.74758	5.08
2.76425	5.08
2.78092	5.08
2.79758	5.08
2.81425	5.08
2.83092	5.08
2.84758	5.08
2.86425	5.08
2.88092	5.08
2.89758	5.08
2.91425	5.08
2.93092	5.08
2.94758	5.08
2.96425	5.08
2.98092	5.08
2.99758	5.08
3.01425	5.08
3.03092	5.08
3.04758	5.08
3.06425	5.08
3.08092	5.08
3.09758	5.08
3.11425	5.08
3.13092	5.08
3.14758	5.08
3.16425	5.08
3.18092	5.08
3.19758	5.08
3.21425	5.08
3.23092	5.08
3.24758	5.08
3.26425	5.08
3.28092	5.08
3.29758	5.08
3.31425	5.08
3.33092	5.08
3.34758	5.08
3.36425	5.08
3.38092	5.08
3.39758	5.08
3.41425	5.08
3.43092	5.08
3.44758	5.08
3.46425	5.08
3.48092	5.08
3.49758	5.08
3.51425	5.08
3.53092	5.08
3.54758	5.08
3.56425	5.08
3.58092	5.08
3.59758	5.08
3.61425	5.08
3.63092	5.08
3.64758	5.08
3.66425	5.08
3.68092	5.08
3.69758	5.08
3.71425	5.08
3.73092	5.08
3.74758	5.08
3.76425	5.08
3.78092	5.08
3.79758	5.08
3.81425	5.08
3.83092	5.08
3.84758	5.08
3.86425	5.08
3.88092	5.08
3.89758	5.08
3.91425	5.08
3.93092	5.08
3.94758	5.08
3.96425	5.08
3.98092	5.08
3.99758	5.08

[Status Trace (Linear Velocity)]
Interval(msec)	1000
# of Points	240
Start Time(min)	0.014
End Time(min)	3.998
Intensity Units	
Intensity Multiplier	1
R.Time (min)	Intensity
0.01425	38.80
0.03092	37.33
0.04758	38.97
0.06425	40.19
0.08092	39.53
0.09758	39.00
0.11425	39.01
0.13092	39.02
0.14758	39.02
0.16425	39.02
0.18092	39.02
0.19758	39.02
0.21425	39.02
0.23092	39.02
0.24758	39.02
0.26425	39.02
0.28092	39.02
0.29758	39.02
0.31425	39.02
0.33092	39.02
0.34758	39.02
0.36425	39.02
0.38092	39.02
0.39758	39.02
0.41425	39.02
0.43092	39.02
0.44758	39.02
0.46425	39.02
0.48092	39.02
0.49758	39.02
0.51425	39.02
0.53092	39.02
0.54758	39.02
0.56425	39.02
0.58092	39.02
0.59758	39.02
0.61425	39.02
0.63092	39.02
0.64758	39.02
0.66425	39.02
0.68092	39.02
0.69758	39.02
0.71425	39.02
0.73092	39.02
0.74758	39.02
0.76425	39.02
0.78092	39.02
0.79758	39.02
0.81425	39.02
0.83092	39.02
0.84758	39.02
0.86425	39.02
0.88092	39.02
0.89758	39.02
0.91425	39.02
0.93092	39.02
0.94758	39.02
0.96425	39.02
0.98092	39.02
0.99758	39.01
1.01425	39.01
1.03092	39.01
1.04758	39.01
1.06425	39.01
1.08092	39.01
1.09758	39.01
1.11425	39.01
1.13092	39.01
1.14758	39.01
1.16425	39.02
1.18092	39.02
1.19758	39.02
1.21425	39.02
1.23092	39.02
1.24758	39.02
1.26425	39.02
1.28092	39.02
1.29758	39.02
1.31425	39.02
1.33092	39.02
1.34758	39.02
1.36425	39.02
1.38092	39.02
1.39758	39.02
1.41425	39.02
1.43092	39.02
1.44758	39.02
1.46425	39.02
1.48092	39.02
1.49758	39.02
1.51425	39.02
1.53092	39.02
1.54758	39.02
1.56425	39.02
1.58092	39.02
1.59758	39.02
1.61425	39.01
1.63092	39.00
1.64758	38.98
1.66425	38.95
1.68092	38.92
1.69758	38.88
1.71425	38.85
1.73092	38.82
1.74758	38.78
1.76425	38.75
1.78092	38.72
1.79758	38.69
1.81425	38.66
1.83092	38.63
1.84758	38.60
1.86425	38.57
1.88092	38.53
1.89758	38.50
1.91425	38.47
1.93092	38.44
1.94758	38.41
1.96425	38.38
1.98092	38.35
1.99758	38.32
2.01425	38.29
2.03092	38.26
2.04758	38.23
2.06425	38.20
2.08092	38.17
2.09758	38.14
2.11425	38.11
2.13092	38.08
2.14758	38.05
2.16425	38.02
2.18092	38.00
2.19758	37.97
2.21425	37.94
2.23092	37.91
2.24758	37.87
2.26425	37.85
2.28092	37.82
2.29758	37.79
2.31425	37.75
2.33092	37.72
2.34758	37.70
2.36425	37.67
2.38092	37.66
2.39758	37.66
2.41425	37.66
2.43092	37.66
2.44758	37.66
2.46425	37.66
2.48092	37.66
2.49758	37.66
2.51425	37.65
2.53092	37.65
2.54758	37.66
2.56425	37.65
2.58092	37.65
2.59758	37.65
2.61425	37.65
2.63092	37.65
2.64758	37.65
2.66425	37.65
2.68092	37.65
2.69758	37.64
2.71425	37.64
2.73092	37.64
2.74758	37.65
2.76425	37.65
2.78092	37.65
2.79758	37.64
2.81425	37.64
2.83092	37.64
2.84758	37.64
2.86425	37.64
2.88092	37.64
2.89758	37.64
2.91425	37.64
2.93092	37.64
2.94758	37.64
2.96425	37.64
2.98092	37.64
2.99758	37.63
3.01425	37.63
3.03092	37.63
3.04758	37.63
3.06425	37.63
3.08092	37.63
3.09758	37.63
3.11425	37.63
3.13092	37.62
3.14758	37.62
3.16425	37.62
3.18092	37.62
3.19758	37.63
3.21425	37.63
3.23092	37.63
3.24758	37.63
3.26425	37.63
3.28092	37.63
3.29758	37.63
3.31425	37.63
3.33092	37.63
3.34758	37.63
3.36425	37.63
3.38092	37.63
3.39758	37.63
3.41425	37.63
3.43092	37.63
3.44758	37.62
3.46425	37.63
3.48092	37.63
3.49758	37.63
3.51425	37.63
3.53092	37.63
3.54758	37.63
3.56425	37.63
3.58092	37.62
3.59758	37.62
3.61425	37.62
3.63092	37.62
3.64758	37.62
3.66425	37.63
3.68092	37.63
3.69758	37.63
3.71425	37.63
3.73092	37.63
3.74758	37.63
3.76425	37.63
3.78092	37.63
3.79758	37.63
3.81425	37.63
3.83092	37.63
3.84758	37.63
3.86425	37.63
3.88092	37.63
3.89758	37.62
3.91425	37.62
3.93092	37.62
3.94758	37.62
3.96425	37.62
3.98092	37.63
3.99758	37.63

