[Header]
Application Name	LabSolutions
Version	5.110
Data File Name	C:\Users\User\Desktop\GC Analyses\Jack\UIC Prairie Sampling\7.22.22\220722_030.gcd
Output Date	10/5/2022
Output Time	2:13:39 PM

[File Information]
Type	Data File
Generated	9/28/2022 10:27:12 AM
Generated by	System Administrator
Modified	9/28/2022 10:31:42 AM
Modified by	System Administrator

[Sample Information]
Operator Name	System Administrator
Acquired	9/28/2022 10:27:41 AM
Sample Type	1:Standard
Level	1
Sample Name	220722_UICPrairie
Sample ID	220722_UICPrairie
ISTD Amount1	1
ISTD Amount2	1
ISTD Amount3	1
ISTD Amount4	1
ISTD Amount5	1
ISTD Amount6	1
ISTD Amount7	1
ISTD Amount8	1
ISTD Amount9	1
ISTD Amount10	1
ISTD Amount11	1
ISTD Amount12	1
ISTD Amount13	1
ISTD Amount14	1
ISTD Amount15	1
ISTD Amount16	1
ISTD Amount17	1
ISTD Amount18	1
ISTD Amount19	1
ISTD Amount20	1
ISTD Amount21	1
ISTD Amount22	1
ISTD Amount23	1
ISTD Amount24	1
ISTD Amount25	1
ISTD Amount26	1
ISTD Amount27	1
ISTD Amount28	1
ISTD Amount29	1
ISTD Amount30	1
ISTD Amount31	1
ISTD Amount32	1
Sample Amount	1
Dilution Factor	1
Vial#	1
Injection Volume	1
Injection Count	1
Bar Code	

[Original Files]
Data File	C:\Users\User\Desktop\GC Analyses\Jack\UIC Prairie Sampling\7.22.22\220722_030.gcd
Method File	C:\LabSolutions\Data\GHG_4min_2022\ghg3_togas_w_acet_4 min_new_int.gcm
Batch File	
Report Format File	c:\LabSolutions\System\DEFAULT.lsr

[File Description]


[Configuration]
Instrument Name	C0B7VH3-Instrument1
Instrument #	1
Line #	1
# of Detectors	3
Detector ID	DET#1	DET#2	DET#3
Detector Name	FID	PTCD	ECD
# of Channels	1	1	1

[Peak Table(Ch1)]
# of Peaks	3
Peak#	R.Time	I.Time	F.Time	Area	Height	A/H	Conc.	Mark	ID#	Name	k'	Plate #	Plate Ht.	Tailing	Resolution	Sep.Factor	Area Ratio	Height Ratio	Conc. %	Norm Conc.
1	1.472	1.424	1.534	6182	2329	2.655	100.000	   	1	CO	0.000	6191	24.230	1.529	0.000	0.000	0	0	16.667	16.667
2	1.571	1.534	1.652	21274	10546	2.017	100.000	 V 	2	CH4	0.067	11073	13.546	1.240	1.472	0.000	0	0	16.667	16.667
3	2.000	1.949	2.290	2195924	1062756	2.066	400.000	   	3	CO2	0.359	17611	8.517	1.218	7.150	5.333	0	0	66.667	66.667

[Peak Table(Ch2)]
# of Peaks	0

[Peak Table(Ch3)]
# of Peaks	4
Peak#	R.Time	I.Time	F.Time	Area	Height	A/H	Conc.	Mark	ID#	Name	k'	Plate #	Plate Ht.	Tailing	Resolution	Sep.Factor	Area Ratio	Height Ratio	Conc. %	Norm Conc.
1	2.444	0.005	2.645	37375	700	53.401	0.000	   			0.000	90	1658.405	0.544	0.000	0.000	0	0	0.000	0.000
2	2.796	2.660	2.810	1565	270	5.796	0.025	   	1	N2O	0.144	478	313.787	0.000	0.457	0.000	0	0	1.247	1.247
3	2.884	2.810	3.192	61182	15283	4.003	0.975	 V 	1	N2O	0.180	12513	11.988	1.511	0.286	1.250	0	0	48.753	48.753
4	3.313	3.199	3.965	15000	683	21.973	1.000	   	2	SF6	0.356	501	299.422	3.248	1.234	1.975	0	0	50.000	50.000

[Compound Results(Ch1)]
# of IDs	6
ID#	Name	R.Time	Area	Height	Conc.	Curve	3rd	2nd	1st	Constant	Area Ratio	Height Ratio	Conc. %	Norm Conc.
1	CO	1.472	6182	2329	100.000	Linear	0.000000e+00	0.000000e+00	6.182084e+001	0.000000e+00	0	0	16.667	16.667
2	CH4	1.571	21274	10546	100.000	Linear	0.000000e+00	0.000000e+00	2.127395e+002	0.000000e+00	0	0	16.667	16.667
3	CO2	2.000	2195924	1062756	400.000	Linear	0.000000e+00	0.000000e+00	5.489809e+003	0.000000e+00	0	0	66.667	66.667
4	Ethylene	0.000	0	0	0.000	Linear	0.000000e+00	0.000000e+00	0.000000e+00	0.000000e+00	0	0	0.000	0.000
5	Acetylene	0.000	0	0	0.000	Linear	0.000000e+00	0.000000e+00	0.000000e+00	0.000000e+00	0	0	0.000	0.000
6	Ethane	0.000	0	0	0.000	Linear	0.000000e+00	0.000000e+00	0.000000e+00	0.000000e+00	0	0	0.000	0.000

[Compound Results(Ch2)]
# of IDs	5
ID#	Name	R.Time	Area	Height	Conc.	Curve	3rd	2nd	1st	Constant	Area Ratio	Height Ratio	Conc. %	Norm Conc.
1	Hydrogen	0.000	0	0	0.000	Linear	0.000000e+00	0.000000e+00	0.000000e+00	0.000000e+00	0	0	0.000	0.000
2	Oxygen	0.000	0	0	0.000	Linear	0.000000e+00	0.000000e+00	0.000000e+00	0.000000e+00	0	0	0.000	0.000
3	Nitrogen	0.000	0	0	0.000	Linear	0.000000e+00	0.000000e+00	0.000000e+00	0.000000e+00	0	0	0.000	0.000
4	Methane	0.000	0	0	0.000	Linear	0.000000e+00	0.000000e+00	0.000000e+00	0.000000e+00	0	0	0.000	0.000
5	Carbon Monoxide	0.000	0	0	0.000	Linear	0.000000e+00	0.000000e+00	0.000000e+00	0.000000e+00	0	0	0.000	0.000

[Compound Results(Ch3)]
# of IDs	2
ID#	Name	R.Time	Area	Height	Conc.	Curve	3rd	2nd	1st	Constant	Area Ratio	Height Ratio	Conc. %	Norm Conc.
1	N2O	2.884	62747	15553	1.000	Linear	0.000000e+00	0.000000e+00	6.274701e+004	0.000000e+00	0	0	50.000	50.000
2	SF6	3.313	15000	683	1.000	Linear	0.000000e+00	0.000000e+00	1.499982e+004	0.000000e+00	0	0	50.000	50.000

[Group Results(Ch1)]
# of Groups	0

[Group Results(Ch2)]
# of Groups	0

[Group Results(Ch3)]
# of Groups	0

[Chromatogram (Ch1)]
Interval(msec)	220
# of Points	1091
Start Time(min)	0.002
End Time(min)	3.998
R.Time (min)	Intensity
0.00167	-2
0.00533	2
0.00900	7
0.01267	6
0.01633	2
0.02000	-1
0.02367	1
0.02733	11
0.03100	21
0.03467	27
0.03833	30
0.04200	34
0.04567	39
0.04933	40
0.05300	34
0.05667	22
0.06033	10
0.06400	2
0.06767	0
0.07133	5
0.07500	12
0.07867	17
0.08233	20
0.08600	24
0.08967	30
0.09333	34
0.09700	35
0.10067	33
0.10433	31
0.10800	29
0.11167	27
0.11533	23
0.11900	21
0.12267	21
0.12633	20
0.13000	17
0.13367	14
0.13733	13
0.14100	17
0.14467	24
0.14833	29
0.15200	33
0.15567	37
0.15933	37
0.16300	39
0.16667	40
0.17033	39
0.17400	38
0.17767	37
0.18133	32
0.18500	29
0.18867	27
0.19233	30
0.19600	35
0.19967	40
0.20333	45
0.20700	50
0.21067	51
0.21433	46
0.21800	41
0.22167	41
0.22533	45
0.22900	51
0.23267	53
0.23633	50
0.24000	47
0.24367	49
0.24733	54
0.25100	52
0.25467	44
0.25833	35
0.26200	31
0.26567	32
0.26933	34
0.27300	33
0.27667	31
0.28033	31
0.28400	31
0.28767	27
0.29133	24
0.29500	26
0.29867	30
0.30233	34
0.30600	37
0.30967	41
0.31333	48
0.31700	54
0.32067	54
0.32433	46
0.32800	34
0.33167	22
0.33533	15
0.33900	11
0.34267	10
0.34633	16
0.35000	24
0.35367	29
0.35733	31
0.36100	33
0.36467	35
0.36833	36
0.37200	36
0.37567	34
0.37933	31
0.38300	28
0.38667	23
0.39033	20
0.39400	20
0.39767	24
0.40133	27
0.40500	29
0.40867	32
0.41233	35
0.41600	37
0.41967	38
0.42333	41
0.42700	44
0.43067	47
0.43433	49
0.43800	48
0.44167	45
0.44533	41
0.44900	40
0.45267	40
0.45633	36
0.46000	26
0.46367	18
0.46733	13
0.47100	9
0.47467	10
0.47833	11
0.48200	10
0.48567	10
0.48933	15
0.49300	23
0.49667	31
0.50033	34
0.50400	29
0.50767	20
0.51133	9
0.51500	4
0.51867	9
0.52233	13
0.52600	15
0.52967	15
0.53333	13
0.53700	10
0.54067	10
0.54433	15
0.54800	21
0.55167	21
0.55533	17
0.55900	11
0.56267	8
0.56633	7
0.57000	10
0.57367	11
0.57733	11
0.58100	10
0.58467	11
0.58833	12
0.59200	12
0.59567	7
0.59933	-3
0.60300	-6
0.60667	-5
0.61033	-2
0.61400	2
0.61767	7
0.62133	11
0.62500	12
0.62867	11
0.63233	9
0.63600	5
0.63967	1
0.64333	1
0.64700	7
0.65067	15
0.65433	18
0.65800	16
0.66167	14
0.66533	13
0.66900	13
0.67267	12
0.67633	10
0.68000	9
0.68367	9
0.68733	14
0.69100	23
0.69467	30
0.69833	32
0.70200	27
0.70567	16
0.70933	4
0.71300	-4
0.71667	-10
0.72033	-8
0.72400	-3
0.72767	4
0.73133	14
0.73500	22
0.73867	24
0.74233	20
0.74600	13
0.74967	7
0.75333	3
0.75700	1
0.76067	-1
0.76433	-6
0.76800	-11
0.77167	-11
0.77533	-10
0.77900	-8
0.78267	-6
0.78633	-4
0.79000	-5
0.79367	-8
0.79733	-9
0.80100	-10
0.80467	-9
0.80833	-8
0.81200	-9
0.81567	-11
0.81933	-14
0.82300	-16
0.82667	-15
0.83033	-10
0.83400	-3
0.83767	6
0.84133	14
0.84500	20
0.84867	17
0.85233	10
0.85600	2
0.85967	-7
0.86333	-17
0.86700	-20
0.87067	-18
0.87433	-16
0.87800	-13
0.88167	-12
0.88533	-11
0.88900	-12
0.89267	-12
0.89633	-10
0.90000	-4
0.90367	4
0.90733	9
0.91100	13
0.91467	13
0.91833	9
0.92200	4
0.92567	-3
0.92933	-9
0.93300	-13
0.93667	-14
0.94033	-18
0.94400	-22
0.94767	-23
0.95133	-23
0.95500	-19
0.95867	-15
0.96233	-12
0.96600	-12
0.96967	-13
0.97333	-15
0.97700	-16
0.98067	-19
0.98433	-20
0.98800	-19
0.99167	-14
0.99533	-7
0.99900	3
1.00267	17
1.00633	27
1.01000	25
1.01367	16
1.01733	2
1.02100	-15
1.02467	-26
1.02833	-30
1.03200	-33
1.03567	-34
1.03933	-29
1.04300	-20
1.04667	-13
1.05033	-8
1.05400	-7
1.05767	-8
1.06133	-7
1.06500	-7
1.06867	-8
1.07233	-13
1.07600	-17
1.07967	-19
1.08333	-23
1.08700	-30
1.09067	-37
1.09433	-38
1.09800	-39
1.10167	-39
1.10533	-41
1.10900	-41
1.11267	-40
1.11633	-39
1.12000	-40
1.12367	-41
1.12733	-40
1.13100	-38
1.13467	-35
1.13833	-33
1.14200	-31
1.14567	-31
1.14933	-32
1.15300	-32
1.15667	-30
1.16033	-30
1.16400	-31
1.16767	-33
1.17133	-38
1.17500	-46
1.17867	-54
1.18233	-58
1.18600	-58
1.18967	-56
1.19333	-51
1.19700	-47
1.20067	-42
1.20433	-39
1.20800	-41
1.21167	-45
1.21533	-44
1.21900	-41
1.22267	-40
1.22633	-39
1.23000	-36
1.23367	-31
1.23733	-26
1.24100	-23
1.24467	-21
1.24833	-16
1.25200	-17
1.25567	-24
1.25933	-31
1.26300	-37
1.26667	-46
1.27033	-51
1.27400	-50
1.27767	-48
1.28133	-47
1.28500	-46
1.28867	-46
1.29233	-45
1.29600	-42
1.29967	-39
1.30333	-36
1.30700	-37
1.31067	-43
1.31433	-49
1.31800	-52
1.32167	-52
1.32533	-51
1.32900	-51
1.33267	-50
1.33633	-52
1.34000	-56
1.34367	-59
1.34733	-63
1.35100	-67
1.35467	-65
1.35833	-58
1.36200	-53
1.36567	-52
1.36933	-51
1.37300	-47
1.37667	-42
1.38033	-40
1.38400	-40
1.38767	-40
1.39133	-45
1.39500	-54
1.39867	-62
1.40233	-69
1.40600	-75
1.40967	-81
1.41333	-83
1.41700	-82
1.42067	-80
1.42433	-75
1.42800	-68
1.43167	-64
1.43533	-62
1.43900	-49
1.44267	7
1.44633	197
1.45000	567
1.45367	1030
1.45733	1469
1.46100	1820
1.46467	2060
1.46833	2200
1.47200	2252
1.47567	2221
1.47933	2114
1.48300	1947
1.48667	1732
1.49033	1486
1.49400	1232
1.49767	989
1.50133	773
1.50500	592
1.50867	444
1.51233	325
1.51600	231
1.51967	160
1.52333	106
1.52700	68
1.53067	39
1.53433	18
1.53800	16
1.54167	110
1.54533	519
1.54900	1532
1.55267	3208
1.55633	5237
1.56000	7193
1.56367	8793
1.56733	9918
1.57100	10465
1.57467	10301
1.57833	9381
1.58200	7887
1.58567	6169
1.58933	4549
1.59300	3203
1.59667	2175
1.60033	1431
1.60400	919
1.60767	580
1.61133	361
1.61500	219
1.61867	124
1.62233	62
1.62600	22
1.62967	-5
1.63333	-27
1.63700	-42
1.64067	-54
1.64433	-66
1.64800	-78
1.65167	-85
1.65533	-87
1.65900	-84
1.66267	-82
1.66633	-81
1.67000	-81
1.67367	-81
1.67733	-85
1.68100	-92
1.68467	-99
1.68833	-102
1.69200	-101
1.69567	-96
1.69933	-87
1.70300	-76
1.70667	-72
1.71033	-75
1.71400	-81
1.71767	-86
1.72133	-92
1.72500	-96
1.72867	-96
1.73233	-94
1.73600	-92
1.73967	-90
1.74333	-87
1.74700	-85
1.75067	-83
1.75433	-83
1.75800	-85
1.76167	-88
1.76533	-93
1.76900	-95
1.77267	-97
1.77633	-99
1.78000	-98
1.78367	-96
1.78733	-94
1.79100	-90
1.79467	-85
1.79833	-80
1.80200	-77
1.80567	-76
1.80933	-78
1.81300	-79
1.81667	-78
1.82033	-79
1.82400	-81
1.82767	-86
1.83133	-91
1.83500	-94
1.83867	-94
1.84233	-92
1.84600	-88
1.84967	-87
1.85333	-87
1.85700	-86
1.86067	-84
1.86433	-83
1.86800	-82
1.87167	-82
1.87533	-81
1.87900	-79
1.88267	-78
1.88633	-79
1.89000	-85
1.89367	-88
1.89733	-89
1.90100	-85
1.90467	-76
1.90833	-64
1.91200	-56
1.91567	-55
1.91933	-59
1.92300	-63
1.92667	-67
1.93033	-71
1.93400	-74
1.93767	-75
1.94133	-78
1.94500	-80
1.94867	-75
1.95233	-63
1.95600	-13
1.95967	294
1.96333	1947
1.96700	8910
1.97067	31376
1.97433	87185
1.97800	194653
1.98167	357373
1.98533	554981
1.98900	752874
1.99267	917591
1.99633	1025302
2.00000	1062723
2.00367	1027088
2.00733	927797
2.01100	785592
2.01467	626605
2.01833	474376
2.02200	344165
2.02567	241787
2.02933	166131
2.03300	112655
2.03667	76003
2.04033	51384
2.04400	35045
2.04767	24258
2.05133	17131
2.05500	12395
2.05867	9217
2.06233	7049
2.06600	5540
2.06967	4462
2.07333	3675
2.07700	3079
2.08067	2625
2.08433	2271
2.08800	1996
2.09167	1776
2.09533	1595
2.09900	1442
2.10267	1310
2.10633	1198
2.11000	1106
2.11367	1029
2.11733	962
2.12100	903
2.12467	854
2.12833	811
2.13200	772
2.13567	732
2.13933	691
2.14300	656
2.14667	625
2.15033	599
2.15400	577
2.15767	556
2.16133	533
2.16500	509
2.16867	488
2.17233	471
2.17600	461
2.17967	454
2.18333	443
2.18700	426
2.19067	409
2.19433	397
2.19800	383
2.20167	365
2.20533	345
2.20900	328
2.21267	320
2.21633	316
2.22000	313
2.22367	310
2.22733	304
2.23100	297
2.23467	292
2.23833	289
2.24200	288
2.24567	290
2.24933	291
2.25300	289
2.25667	283
2.26033	277
2.26400	271
2.26767	268
2.27133	265
2.27500	264
2.27867	257
2.28233	241
2.28600	223
2.28967	208
2.29333	201
2.29700	199
2.30067	201
2.30433	207
2.30800	214
2.31167	220
2.31533	224
2.31900	228
2.32267	227
2.32633	226
2.33000	225
2.33367	221
2.33733	217
2.34100	211
2.34467	204
2.34833	197
2.35200	191
2.35567	187
2.35933	185
2.36300	184
2.36667	181
2.37033	180
2.37400	177
2.37767	175
2.38133	172
2.38500	171
2.38867	171
2.39233	170
2.39600	171
2.39967	175
2.40333	180
2.40700	186
2.41067	190
2.41433	195
2.41800	198
2.42167	195
2.42533	187
2.42900	179
2.43267	173
2.43633	171
2.44000	168
2.44367	164
2.44733	158
2.45100	153
2.45467	152
2.45833	154
2.46200	158
2.46567	162
2.46933	164
2.47300	163
2.47667	157
2.48033	156
2.48400	158
2.48767	161
2.49133	160
2.49500	156
2.49867	152
2.50233	151
2.50600	152
2.50967	153
2.51333	152
2.51700	155
2.52067	158
2.52433	159
2.52800	158
2.53167	151
2.53533	141
2.53900	131
2.54267	126
2.54633	123
2.55000	123
2.55367	126
2.55733	128
2.56100	127
2.56467	126
2.56833	125
2.57200	121
2.57567	117
2.57933	115
2.58300	118
2.58667	120
2.59033	123
2.59400	124
2.59767	123
2.60133	122
2.60500	120
2.60867	117
2.61233	112
2.61600	106
2.61967	104
2.62333	106
2.62700	108
2.63067	109
2.63433	109
2.63800	108
2.64167	106
2.64533	106
2.64900	106
2.65267	105
2.65633	104
2.66000	103
2.66367	102
2.66733	103
2.67100	103
2.67467	105
2.67833	108
2.68200	112
2.68567	116
2.68933	119
2.69300	120
2.69667	117
2.70033	113
2.70400	110
2.70767	108
2.71133	109
2.71500	110
2.71867	112
2.72233	114
2.72600	113
2.72967	107
2.73333	98
2.73700	90
2.74067	86
2.74433	85
2.74800	86
2.75167	86
2.75533	84
2.75900	84
2.76267	87
2.76633	89
2.77000	93
2.77367	95
2.77733	95
2.78100	90
2.78467	84
2.78833	82
2.79200	83
2.79567	84
2.79933	84
2.80300	86
2.80667	88
2.81033	90
2.81400	90
2.81767	89
2.82133	90
2.82500	94
2.82867	96
2.83233	96
2.83600	97
2.83967	97
2.84333	94
2.84700	89
2.85067	85
2.85433	85
2.85800	85
2.86167	86
2.86533	83
2.86900	75
2.87267	69
2.87633	67
2.88000	67
2.88367	68
2.88733	71
2.89100	76
2.89467	79
2.89833	81
2.90200	81
2.90567	83
2.90933	85
2.91300	85
2.91667	82
2.92033	76
2.92400	70
2.92767	67
2.93133	65
2.93500	63
2.93867	61
2.94233	59
2.94600	59
2.94967	63
2.95333	69
2.95700	74
2.96067	77
2.96433	77
2.96800	77
2.97167	77
2.97533	77
2.97900	79
2.98267	83
2.98633	90
2.99000	94
2.99367	91
2.99733	85
3.00100	82
3.00467	82
3.00833	83
3.01200	84
3.01567	82
3.01933	82
3.02300	82
3.02667	81
3.03033	79
3.03400	78
3.03767	80
3.04133	83
3.04500	82
3.04867	81
3.05233	79
3.05600	76
3.05967	74
3.06333	74
3.06700	74
3.07067	71
3.07433	63
3.07800	57
3.08167	54
3.08533	52
3.08900	57
3.09267	66
3.09633	74
3.10000	79
3.10367	81
3.10733	81
3.11100	77
3.11467	73
3.11833	72
3.12200	74
3.12567	77
3.12933	75
3.13300	70
3.13667	64
3.14033	62
3.14400	67
3.14767	74
3.15133	78
3.15500	78
3.15867	78
3.16233	77
3.16600	72
3.16967	66
3.17333	63
3.17700	58
3.18067	52
3.18433	49
3.18800	51
3.19167	55
3.19533	60
3.19900	64
3.20267	64
3.20633	61
3.21000	61
3.21367	61
3.21733	59
3.22100	56
3.22467	55
3.22833	58
3.23200	62
3.23567	64
3.23933	68
3.24300	71
3.24667	76
3.25033	77
3.25400	74
3.25767	68
3.26133	63
3.26500	58
3.26867	55
3.27233	57
3.27600	60
3.27967	64
3.28333	69
3.28700	76
3.29067	81
3.29433	83
3.29800	80
3.30167	73
3.30533	68
3.30900	64
3.31267	60
3.31633	57
3.32000	54
3.32367	51
3.32733	48
3.33100	46
3.33467	45
3.33833	44
3.34200	44
3.34567	45
3.34933	43
3.35300	40
3.35667	41
3.36033	42
3.36400	44
3.36767	48
3.37133	50
3.37500	51
3.37867	49
3.38233	44
3.38600	39
3.38967	37
3.39333	35
3.39700	38
3.40067	43
3.40433	52
3.40800	60
3.41167	63
3.41533	65
3.41900	65
3.42267	63
3.42633	61
3.43000	58
3.43367	54
3.43733	50
3.44100	51
3.44467	56
3.44833	59
3.45200	57
3.45567	50
3.45933	45
3.46300	41
3.46667	38
3.47033	35
3.47400	36
3.47767	39
3.48133	42
3.48500	45
3.48867	45
3.49233	44
3.49600	42
3.49967	37
3.50333	32
3.50700	31
3.51067	32
3.51433	35
3.51800	40
3.52167	46
3.52533	53
3.52900	59
3.53267	61
3.53633	59
3.54000	57
3.54367	56
3.54733	56
3.55100	55
3.55467	55
3.55833	51
3.56200	42
3.56567	33
3.56933	27
3.57300	25
3.57667	25
3.58033	25
3.58400	25
3.58767	29
3.59133	35
3.59500	42
3.59867	47
3.60233	50
3.60600	55
3.60967	59
3.61333	59
3.61700	53
3.62067	44
3.62433	37
3.62800	32
3.63167	28
3.63533	29
3.63900	29
3.64267	29
3.64633	30
3.65000	31
3.65367	36
3.65733	45
3.66100	53
3.66467	57
3.66833	56
3.67200	53
3.67567	52
3.67933	52
3.68300	52
3.68667	54
3.69033	55
3.69400	56
3.69767	57
3.70133	58
3.70500	58
3.70867	59
3.71233	63
3.71600	68
3.71967	69
3.72333	68
3.72700	63
3.73067	59
3.73433	55
3.73800	52
3.74167	48
3.74533	46
3.74900	46
3.75267	45
3.75633	41
3.76000	37
3.76367	34
3.76733	34
3.77100	37
3.77467	40
3.77833	42
3.78200	43
3.78567	46
3.78933	48
3.79300	50
3.79667	50
3.80033	46
3.80400	42
3.80767	39
3.81133	39
3.81500	42
3.81867	48
3.82233	52
3.82600	58
3.82967	65
3.83333	68
3.83700	67
3.84067	61
3.84433	55
3.84800	48
3.85167	40
3.85533	29
3.85900	22
3.86267	21
3.86633	26
3.87000	30
3.87367	32
3.87733	31
3.88100	29
3.88467	27
3.88833	27
3.89200	28
3.89567	29
3.89933	31
3.90300	32
3.90667	35
3.91033	39
3.91400	40
3.91767	38
3.92133	39
3.92500	43
3.92867	51
3.93233	54
3.93600	49
3.93967	41
3.94333	36
3.94700	39
3.95067	44
3.95433	50
3.95800	53
3.96167	51
3.96533	45
3.96900	40
3.97267	37
3.97633	37
3.98000	37
3.98367	36
3.98733	34
3.99100	32
3.99467	32
3.99833	31

[Chromatogram (Ch2)]
Interval(msec)	220
# of Points	1091
Start Time(min)	0.002
End Time(min)	3.998
R.Time (min)	Intensity
0.00167	0
0.00533	0
0.00900	0
0.01267	0
0.01633	0
0.02000	0
0.02367	0
0.02733	0
0.03100	0
0.03467	1
0.03833	1
0.04200	1
0.04567	0
0.04933	0
0.05300	-0
0.05667	-0
0.06033	0
0.06400	0
0.06767	1
0.07133	1
0.07500	1
0.07867	2
0.08233	2
0.08600	2
0.08967	3
0.09333	3
0.09700	4
0.10067	4
0.10433	5
0.10800	6
0.11167	6
0.11533	7
0.11900	7
0.12267	6
0.12633	6
0.13000	6
0.13367	6
0.13733	6
0.14100	6
0.14467	6
0.14833	7
0.15200	7
0.15567	7
0.15933	7
0.16300	7
0.16667	7
0.17033	7
0.17400	7
0.17767	7
0.18133	7
0.18500	7
0.18867	7
0.19233	6
0.19600	6
0.19967	6
0.20333	6
0.20700	5
0.21067	5
0.21433	5
0.21800	5
0.22167	5
0.22533	5
0.22900	5
0.23267	5
0.23633	5
0.24000	5
0.24367	5
0.24733	5
0.25100	5
0.25467	5
0.25833	5
0.26200	5
0.26567	5
0.26933	4
0.27300	4
0.27667	4
0.28033	4
0.28400	3
0.28767	3
0.29133	3
0.29500	3
0.29867	2
0.30233	2
0.30600	2
0.30967	1
0.31333	1
0.31700	0
0.32067	0
0.32433	-0
0.32800	-0
0.33167	-1
0.33533	-1
0.33900	-1
0.34267	-1
0.34633	-2
0.35000	-2
0.35367	-2
0.35733	-2
0.36100	-2
0.36467	-1
0.36833	-1
0.37200	-1
0.37567	-0
0.37933	-0
0.38300	-0
0.38667	0
0.39033	0
0.39400	0
0.39767	0
0.40133	0
0.40500	0
0.40867	0
0.41233	1
0.41600	1
0.41967	1
0.42333	1
0.42700	2
0.43067	2
0.43433	2
0.43800	2
0.44167	2
0.44533	2
0.44900	2
0.45267	2
0.45633	1
0.46000	2
0.46367	2
0.46733	2
0.47100	2
0.47467	2
0.47833	2
0.48200	2
0.48567	2
0.48933	2
0.49300	2
0.49667	3
0.50033	3
0.50400	4
0.50767	4
0.51133	4
0.51500	4
0.51867	4
0.52233	4
0.52600	5
0.52967	5
0.53333	5
0.53700	5
0.54067	5
0.54433	5
0.54800	5
0.55167	5
0.55533	5
0.55900	4
0.56267	4
0.56633	4
0.57000	4
0.57367	3
0.57733	3
0.58100	3
0.58467	3
0.58833	3
0.59200	3
0.59567	3
0.59933	3
0.60300	3
0.60667	3
0.61033	2
0.61400	2
0.61767	2
0.62133	2
0.62500	2
0.62867	2
0.63233	2
0.63600	1
0.63967	1
0.64333	1
0.64700	1
0.65067	0
0.65433	0
0.65800	0
0.66167	0
0.66533	0
0.66900	0
0.67267	-0
0.67633	-0
0.68000	-0
0.68367	-0
0.68733	-0
0.69100	-1
0.69467	-1
0.69833	-1
0.70200	-1
0.70567	-1
0.70933	-1
0.71300	-1
0.71667	-1
0.72033	-1
0.72400	-1
0.72767	-1
0.73133	-1
0.73500	-1
0.73867	-1
0.74233	-1
0.74600	-1
0.74967	-1
0.75333	-1
0.75700	-0
0.76067	-0
0.76433	-0
0.76800	-0
0.77167	-1
0.77533	-0
0.77900	-0
0.78267	-0
0.78633	-0
0.79000	-0
0.79367	-0
0.79733	-0
0.80100	-0
0.80467	0
0.80833	0
0.81200	0
0.81567	1
0.81933	1
0.82300	1
0.82667	1
0.83033	0
0.83400	0
0.83767	-0
0.84133	-1
0.84500	-1
0.84867	-2
0.85233	-2
0.85600	-2
0.85967	-2
0.86333	-2
0.86700	-2
0.87067	-2
0.87433	-2
0.87800	-2
0.88167	-1
0.88533	-1
0.88900	-1
0.89267	-1
0.89633	-0
0.90000	-0
0.90367	-0
0.90733	-0
0.91100	0
0.91467	0
0.91833	0
0.92200	0
0.92567	-0
0.92933	-0
0.93300	-0
0.93667	0
0.94033	0
0.94400	1
0.94767	1
0.95133	1
0.95500	2
0.95867	2
0.96233	2
0.96600	2
0.96967	2
0.97333	2
0.97700	3
0.98067	3
0.98433	3
0.98800	3
0.99167	3
0.99533	2
0.99900	2
1.00267	2
1.00633	2
1.01000	2
1.01367	2
1.01733	2
1.02100	2
1.02467	2
1.02833	2
1.03200	2
1.03567	2
1.03933	2
1.04300	2
1.04667	2
1.05033	2
1.05400	2
1.05767	2
1.06133	1
1.06500	1
1.06867	1
1.07233	1
1.07600	1
1.07967	1
1.08333	2
1.08700	2
1.09067	2
1.09433	2
1.09800	2
1.10167	1
1.10533	1
1.10900	1
1.11267	0
1.11633	-0
1.12000	-1
1.12367	-1
1.12733	-1
1.13100	-1
1.13467	-1
1.13833	-1
1.14200	-1
1.14567	-1
1.14933	-0
1.15300	-0
1.15667	0
1.16033	1
1.16400	1
1.16767	1
1.17133	2
1.17500	2
1.17867	2
1.18233	2
1.18600	2
1.18967	3
1.19333	3
1.19700	3
1.20067	3
1.20433	3
1.20800	3
1.21167	2
1.21533	2
1.21900	2
1.22267	2
1.22633	2
1.23000	1
1.23367	1
1.23733	1
1.24100	1
1.24467	0
1.24833	0
1.25200	-0
1.25567	-0
1.25933	-1
1.26300	-1
1.26667	-2
1.27033	-2
1.27400	-2
1.27767	-2
1.28133	-2
1.28500	-3
1.28867	-2
1.29233	-2
1.29600	-2
1.29967	-2
1.30333	-1
1.30700	-1
1.31067	-1
1.31433	-1
1.31800	-1
1.32167	-1
1.32533	-1
1.32900	-2
1.33267	-2
1.33633	-2
1.34000	-2
1.34367	-2
1.34733	-2
1.35100	-2
1.35467	-2
1.35833	-2
1.36200	-2
1.36567	-2
1.36933	-2
1.37300	-2
1.37667	-2
1.38033	-1
1.38400	-1
1.38767	-1
1.39133	-1
1.39500	-1
1.39867	-0
1.40233	0
1.40600	1
1.40967	1
1.41333	1
1.41700	1
1.42067	1
1.42433	1
1.42800	1
1.43167	1
1.43533	1
1.43900	0
1.44267	-0
1.44633	-1
1.45000	-1
1.45367	-2
1.45733	-2
1.46100	-2
1.46467	-3
1.46833	-3
1.47200	-3
1.47567	-4
1.47933	-4
1.48300	-4
1.48667	-4
1.49033	-5
1.49400	-5
1.49767	-5
1.50133	-5
1.50500	-4
1.50867	-4
1.51233	-4
1.51600	-4
1.51967	-5
1.52333	-5
1.52700	-5
1.53067	-5
1.53433	-5
1.53800	-5
1.54167	-5
1.54533	-5
1.54900	-5
1.55267	-5
1.55633	-5
1.56000	-5
1.56367	-5
1.56733	-5
1.57100	-5
1.57467	-4
1.57833	-4
1.58200	-4
1.58567	-4
1.58933	-4
1.59300	-3
1.59667	-3
1.60033	-4
1.60400	-4
1.60767	-5
1.61133	-6
1.61500	-7
1.61867	-9
1.62233	-11
1.62600	-13
1.62967	-16
1.63333	-19
1.63700	-22
1.64067	-25
1.64433	-28
1.64800	-32
1.65167	-36
1.65533	-40
1.65900	-44
1.66267	-48
1.66633	-52
1.67000	-57
1.67367	-63
1.67733	-68
1.68100	-74
1.68467	-79
1.68833	-85
1.69200	-90
1.69567	-95
1.69933	-99
1.70300	-103
1.70667	-106
1.71033	-108
1.71400	-110
1.71767	-112
1.72133	-113
1.72500	-114
1.72867	-115
1.73233	-115
1.73600	-116
1.73967	-116
1.74333	-115
1.74700	-115
1.75067	-115
1.75433	-116
1.75800	-116
1.76167	-118
1.76533	-119
1.76900	-120
1.77267	-121
1.77633	-122
1.78000	-122
1.78367	-123
1.78733	-123
1.79100	-122
1.79467	-122
1.79833	-121
1.80200	-121
1.80567	-121
1.80933	-121
1.81300	-121
1.81667	-122
1.82033	-123
1.82400	-123
1.82767	-124
1.83133	-125
1.83500	-125
1.83867	-126
1.84233	-126
1.84600	-126
1.84967	-126
1.85333	-126
1.85700	-126
1.86067	-126
1.86433	-126
1.86800	-126
1.87167	-125
1.87533	-125
1.87900	-125
1.88267	-124
1.88633	-124
1.89000	-123
1.89367	-122
1.89733	-122
1.90100	-121
1.90467	-121
1.90833	-121
1.91200	-121
1.91567	-120
1.91933	-120
1.92300	-120
1.92667	-121
1.93033	-121
1.93400	-121
1.93767	-121
1.94133	-121
1.94500	-120
1.94867	-120
1.95233	-119
1.95600	-118
1.95967	-118
1.96333	-117
1.96700	-117
1.97067	-118
1.97433	-118
1.97800	-119
1.98167	-120
1.98533	-120
1.98900	-120
1.99267	-120
1.99633	-119
2.00000	-118
2.00367	-117
2.00733	-116
2.01100	-115
2.01467	-115
2.01833	-114
2.02200	-114
2.02567	-114
2.02933	-113
2.03300	-113
2.03667	-112
2.04033	-111
2.04400	-110
2.04767	-110
2.05133	-109
2.05500	-109
2.05867	-109
2.06233	-109
2.06600	-109
2.06967	-109
2.07333	-109
2.07700	-109
2.08067	-110
2.08433	-109
2.08800	-109
2.09167	-109
2.09533	-110
2.09900	-109
2.10267	-109
2.10633	-109
2.11000	-108
2.11367	-108
2.11733	-107
2.12100	-106
2.12467	-106
2.12833	-106
2.13200	-105
2.13567	-105
2.13933	-105
2.14300	-105
2.14667	-105
2.15033	-105
2.15400	-105
2.15767	-105
2.16133	-106
2.16500	-105
2.16867	-105
2.17233	-104
2.17600	-103
2.17967	-102
2.18333	-100
2.18700	-100
2.19067	-99
2.19433	-98
2.19800	-97
2.20167	-97
2.20533	-97
2.20900	-97
2.21267	-96
2.21633	-96
2.22000	-96
2.22367	-96
2.22733	-96
2.23100	-96
2.23467	-97
2.23833	-98
2.24200	-99
2.24567	-100
2.24933	-100
2.25300	-100
2.25667	-100
2.26033	-100
2.26400	-99
2.26767	-99
2.27133	-98
2.27500	-97
2.27867	-96
2.28233	-95
2.28600	-94
2.28967	-93
2.29333	-92
2.29700	-92
2.30067	-92
2.30433	-93
2.30800	-93
2.31167	-93
2.31533	-94
2.31900	-94
2.32267	-94
2.32633	-94
2.33000	-93
2.33367	-93
2.33733	-92
2.34100	-91
2.34467	-91
2.34833	-90
2.35200	-89
2.35567	-89
2.35933	-88
2.36300	-87
2.36667	-86
2.37033	-84
2.37400	-82
2.37767	-80
2.38133	-77
2.38500	-73
2.38867	-69
2.39233	-65
2.39600	-60
2.39967	-55
2.40333	-51
2.40700	-46
2.41067	-42
2.41433	-38
2.41800	-34
2.42167	-31
2.42533	-28
2.42900	-25
2.43267	-22
2.43633	-19
2.44000	-17
2.44367	-15
2.44733	-14
2.45100	-12
2.45467	-10
2.45833	-9
2.46200	-7
2.46567	-6
2.46933	-5
2.47300	-4
2.47667	-3
2.48033	-2
2.48400	-1
2.48767	1
2.49133	2
2.49500	3
2.49867	4
2.50233	4
2.50600	5
2.50967	6
2.51333	6
2.51700	7
2.52067	8
2.52433	9
2.52800	9
2.53167	10
2.53533	10
2.53900	11
2.54267	11
2.54633	12
2.55000	12
2.55367	12
2.55733	13
2.56100	13
2.56467	12
2.56833	12
2.57200	11
2.57567	11
2.57933	10
2.58300	10
2.58667	10
2.59033	11
2.59400	11
2.59767	12
2.60133	12
2.60500	12
2.60867	13
2.61233	13
2.61600	14
2.61967	15
2.62333	15
2.62700	16
2.63067	16
2.63433	16
2.63800	16
2.64167	17
2.64533	17
2.64900	17
2.65267	17
2.65633	17
2.66000	17
2.66367	17
2.66733	17
2.67100	17
2.67467	17
2.67833	17
2.68200	17
2.68567	17
2.68933	17
2.69300	17
2.69667	17
2.70033	17
2.70400	18
2.70767	18
2.71133	19
2.71500	19
2.71867	20
2.72233	20
2.72600	21
2.72967	21
2.73333	21
2.73700	21
2.74067	21
2.74433	21
2.74800	21
2.75167	21
2.75533	21
2.75900	21
2.76267	21
2.76633	21
2.77000	20
2.77367	21
2.77733	21
2.78100	21
2.78467	21
2.78833	21
2.79200	21
2.79567	21
2.79933	21
2.80300	21
2.80667	20
2.81033	20
2.81400	20
2.81767	21
2.82133	21
2.82500	21
2.82867	21
2.83233	21
2.83600	21
2.83967	21
2.84333	20
2.84700	19
2.85067	15
2.85433	10
2.85800	2
2.86167	-9
2.86533	-24
2.86900	-44
2.87267	-69
2.87633	-99
2.88000	-135
2.88367	-175
2.88733	-221
2.89100	-272
2.89467	-327
2.89833	-387
2.90200	-451
2.90567	-518
2.90933	-588
2.91300	-661
2.91667	-736
2.92033	-814
2.92400	-894
2.92767	-977
2.93133	-1061
2.93500	-1146
2.93867	-1233
2.94233	-1321
2.94600	-1408
2.94967	-1485
2.95333	-1540
2.95700	-1562
2.96067	-1548
2.96433	-1501
2.96800	-1426
2.97167	-1332
2.97533	-1227
2.97900	-1115
2.98267	-1003
2.98633	-895
2.99000	-792
2.99367	-696
2.99733	-609
3.00100	-530
3.00467	-460
3.00833	-398
3.01200	-343
3.01567	-295
3.01933	-253
3.02300	-217
3.02667	-185
3.03033	-158
3.03400	-135
3.03767	-116
3.04133	-98
3.04500	-84
3.04867	-71
3.05233	-60
3.05600	-51
3.05967	-43
3.06333	-36
3.06700	-31
3.07067	-26
3.07433	-22
3.07800	-18
3.08167	-15
3.08533	-12
3.08900	-9
3.09267	-7
3.09633	-5
3.10000	-3
3.10367	-2
3.10733	-1
3.11100	1
3.11467	2
3.11833	2
3.12200	3
3.12567	4
3.12933	5
3.13300	6
3.13667	6
3.14033	7
3.14400	7
3.14767	8
3.15133	8
3.15500	9
3.15867	9
3.16233	9
3.16600	10
3.16967	10
3.17333	10
3.17700	10
3.18067	10
3.18433	10
3.18800	10
3.19167	11
3.19533	11
3.19900	11
3.20267	12
3.20633	12
3.21000	12
3.21367	12
3.21733	13
3.22100	13
3.22467	13
3.22833	14
3.23200	14
3.23567	15
3.23933	15
3.24300	15
3.24667	15
3.25033	16
3.25400	16
3.25767	16
3.26133	16
3.26500	16
3.26867	17
3.27233	17
3.27600	17
3.27967	18
3.28333	18
3.28700	19
3.29067	19
3.29433	20
3.29800	20
3.30167	20
3.30533	20
3.30900	20
3.31267	20
3.31633	20
3.32000	20
3.32367	20
3.32733	20
3.33100	20
3.33467	21
3.33833	21
3.34200	21
3.34567	22
3.34933	22
3.35300	22
3.35667	22
3.36033	22
3.36400	22
3.36767	22
3.37133	22
3.37500	22
3.37867	22
3.38233	22
3.38600	22
3.38967	22
3.39333	22
3.39700	22
3.40067	22
3.40433	22
3.40800	22
3.41167	22
3.41533	22
3.41900	22
3.42267	22
3.42633	22
3.43000	22
3.43367	22
3.43733	22
3.44100	22
3.44467	23
3.44833	23
3.45200	23
3.45567	23
3.45933	23
3.46300	23
3.46667	23
3.47033	23
3.47400	23
3.47767	23
3.48133	22
3.48500	22
3.48867	22
3.49233	21
3.49600	21
3.49967	21
3.50333	21
3.50700	20
3.51067	20
3.51433	20
3.51800	20
3.52167	20
3.52533	20
3.52900	20
3.53267	20
3.53633	20
3.54000	20
3.54367	20
3.54733	20
3.55100	20
3.55467	20
3.55833	20
3.56200	20
3.56567	20
3.56933	20
3.57300	20
3.57667	20
3.58033	20
3.58400	20
3.58767	20
3.59133	20
3.59500	20
3.59867	20
3.60233	20
3.60600	20
3.60967	19
3.61333	19
3.61700	19
3.62067	19
3.62433	19
3.62800	19
3.63167	19
3.63533	19
3.63900	19
3.64267	19
3.64633	19
3.65000	19
3.65367	19
3.65733	19
3.66100	19
3.66467	19
3.66833	19
3.67200	19
3.67567	19
3.67933	19
3.68300	19
3.68667	19
3.69033	20
3.69400	20
3.69767	20
3.70133	20
3.70500	20
3.70867	20
3.71233	20
3.71600	20
3.71967	20
3.72333	20
3.72700	20
3.73067	20
3.73433	20
3.73800	20
3.74167	20
3.74533	20
3.74900	20
3.75267	20
3.75633	20
3.76000	21
3.76367	21
3.76733	21
3.77100	21
3.77467	21
3.77833	21
3.78200	21
3.78567	21
3.78933	20
3.79300	20
3.79667	20
3.80033	20
3.80400	20
3.80767	20
3.81133	20
3.81500	20
3.81867	20
3.82233	19
3.82600	19
3.82967	19
3.83333	19
3.83700	19
3.84067	19
3.84433	19
3.84800	20
3.85167	20
3.85533	20
3.85900	20
3.86267	20
3.86633	20
3.87000	20
3.87367	20
3.87733	20
3.88100	20
3.88467	20
3.88833	20
3.89200	20
3.89567	20
3.89933	20
3.90300	20
3.90667	20
3.91033	20
3.91400	20
3.91767	20
3.92133	20
3.92500	20
3.92867	21
3.93233	21
3.93600	22
3.93967	22
3.94333	22
3.94700	23
3.95067	23
3.95433	23
3.95800	23
3.96167	23
3.96533	23
3.96900	23
3.97267	23
3.97633	23
3.98000	23
3.98367	23
3.98733	23
3.99100	23
3.99467	24
3.99833	24

[Chromatogram (Ch3)]
Interval(msec)	220
# of Points	1091
Start Time(min)	0.002
End Time(min)	3.998
R.Time (min)	Intensity
0.00167	-1
0.00533	-1
0.00900	2
0.01267	5
0.01633	6
0.02000	5
0.02367	4
0.02733	2
0.03100	-2
0.03467	-3
0.03833	-2
0.04200	-1
0.04567	-1
0.04933	-1
0.05300	-0
0.05667	1
0.06033	1
0.06400	-0
0.06767	-1
0.07133	2
0.07500	5
0.07867	7
0.08233	6
0.08600	4
0.08967	2
0.09333	1
0.09700	2
0.10067	3
0.10433	4
0.10800	4
0.11167	3
0.11533	2
0.11900	2
0.12267	3
0.12633	2
0.13000	-1
0.13367	-1
0.13733	1
0.14100	2
0.14467	3
0.14833	3
0.15200	2
0.15567	-1
0.15933	-1
0.16300	0
0.16667	1
0.17033	0
0.17400	1
0.17767	2
0.18133	1
0.18500	2
0.18867	1
0.19233	0
0.19600	-0
0.19967	-1
0.20333	-1
0.20700	2
0.21067	4
0.21433	5
0.21800	4
0.22167	3
0.22533	3
0.22900	3
0.23267	4
0.23633	2
0.24000	1
0.24367	-1
0.24733	-2
0.25100	-1
0.25467	-0
0.25833	0
0.26200	2
0.26567	2
0.26933	2
0.27300	-0
0.27667	2
0.28033	8
0.28400	9
0.28767	8
0.29133	7
0.29500	5
0.29867	3
0.30233	2
0.30600	3
0.30967	1
0.31333	-1
0.31700	-2
0.32067	-0
0.32433	1
0.32800	1
0.33167	1
0.33533	-0
0.33900	-1
0.34267	-1
0.34633	1
0.35000	5
0.35367	8
0.35733	8
0.36100	5
0.36467	3
0.36833	0
0.37200	-1
0.37567	-2
0.37933	-3
0.38300	-3
0.38667	-3
0.39033	-0
0.39400	3
0.39767	5
0.40133	6
0.40500	8
0.40867	4
0.41233	1
0.41600	1
0.41967	2
0.42333	2
0.42700	0
0.43067	-0
0.43433	1
0.43800	4
0.44167	6
0.44533	7
0.44900	6
0.45267	4
0.45633	5
0.46000	5
0.46367	5
0.46733	4
0.47100	3
0.47467	3
0.47833	3
0.48200	3
0.48567	5
0.48933	5
0.49300	6
0.49667	6
0.50033	5
0.50400	5
0.50767	4
0.51133	6
0.51500	7
0.51867	7
0.52233	5
0.52600	4
0.52967	3
0.53333	3
0.53700	3
0.54067	4
0.54433	4
0.54800	3
0.55167	5
0.55533	8
0.55900	8
0.56267	7
0.56633	4
0.57000	4
0.57367	5
0.57733	7
0.58100	7
0.58467	5
0.58833	5
0.59200	8
0.59567	11
0.59933	11
0.60300	12
0.60667	13
0.61033	11
0.61400	8
0.61767	7
0.62133	6
0.62500	6
0.62867	5
0.63233	5
0.63600	5
0.63967	8
0.64333	9
0.64700	6
0.65067	4
0.65433	2
0.65800	1
0.66167	-0
0.66533	-1
0.66900	0
0.67267	4
0.67633	7
0.68000	11
0.68367	11
0.68733	11
0.69100	10
0.69467	8
0.69833	8
0.70200	8
0.70567	9
0.70933	8
0.71300	7
0.71667	6
0.72033	6
0.72400	8
0.72767	8
0.73133	8
0.73500	11
0.73867	13
0.74233	11
0.74600	9
0.74967	8
0.75333	8
0.75700	9
0.76067	9
0.76433	9
0.76800	10
0.77167	13
0.77533	14
0.77900	13
0.78267	11
0.78633	10
0.79000	9
0.79367	10
0.79733	12
0.80100	14
0.80467	15
0.80833	17
0.81200	18
0.81567	19
0.81933	18
0.82300	16
0.82667	15
0.83033	15
0.83400	14
0.83767	13
0.84133	13
0.84500	13
0.84867	14
0.85233	13
0.85600	13
0.85967	11
0.86333	8
0.86700	9
0.87067	10
0.87433	11
0.87800	10
0.88167	11
0.88533	11
0.88900	11
0.89267	12
0.89633	10
0.90000	10
0.90367	10
0.90733	11
0.91100	11
0.91467	10
0.91833	11
0.92200	12
0.92567	14
0.92933	15
0.93300	15
0.93667	16
0.94033	17
0.94400	18
0.94767	16
0.95133	16
0.95500	14
0.95867	11
0.96233	9
0.96600	9
0.96967	9
0.97333	10
0.97700	10
0.98067	12
0.98433	14
0.98800	14
0.99167	14
0.99533	16
0.99900	16
1.00267	15
1.00633	13
1.01000	14
1.01367	13
1.01733	13
1.02100	13
1.02467	14
1.02833	16
1.03200	19
1.03567	22
1.03933	25
1.04300	23
1.04667	21
1.05033	19
1.05400	16
1.05767	16
1.06133	15
1.06500	15
1.06867	15
1.07233	14
1.07600	12
1.07967	12
1.08333	15
1.08700	18
1.09067	21
1.09433	23
1.09800	23
1.10167	23
1.10533	24
1.10900	25
1.11267	24
1.11633	22
1.12000	23
1.12367	23
1.12733	23
1.13100	22
1.13467	20
1.13833	20
1.14200	21
1.14567	22
1.14933	22
1.15300	23
1.15667	24
1.16033	24
1.16400	22
1.16767	21
1.17133	20
1.17500	22
1.17867	23
1.18233	24
1.18600	23
1.18967	22
1.19333	19
1.19700	16
1.20067	16
1.20433	18
1.20800	19
1.21167	21
1.21533	21
1.21900	18
1.22267	17
1.22633	19
1.23000	21
1.23367	22
1.23733	22
1.24100	22
1.24467	22
1.24833	22
1.25200	21
1.25567	20
1.25933	21
1.26300	21
1.26667	20
1.27033	20
1.27400	19
1.27767	17
1.28133	17
1.28500	18
1.28867	22
1.29233	25
1.29600	25
1.29967	23
1.30333	21
1.30700	22
1.31067	23
1.31433	23
1.31800	25
1.32167	26
1.32533	26
1.32900	26
1.33267	27
1.33633	25
1.34000	22
1.34367	20
1.34733	20
1.35100	21
1.35467	23
1.35833	25
1.36200	26
1.36567	26
1.36933	25
1.37300	24
1.37667	24
1.38033	24
1.38400	24
1.38767	24
1.39133	23
1.39500	21
1.39867	20
1.40233	23
1.40600	24
1.40967	24
1.41333	25
1.41700	27
1.42067	28
1.42433	28
1.42800	28
1.43167	26
1.43533	22
1.43900	21
1.44267	23
1.44633	25
1.45000	26
1.45367	27
1.45733	27
1.46100	26
1.46467	24
1.46833	24
1.47200	25
1.47567	28
1.47933	28
1.48300	27
1.48667	26
1.49033	27
1.49400	30
1.49767	32
1.50133	29
1.50500	26
1.50867	24
1.51233	23
1.51600	23
1.51967	25
1.52333	26
1.52700	28
1.53067	28
1.53433	26
1.53800	23
1.54167	22
1.54533	23
1.54900	23
1.55267	23
1.55633	23
1.56000	25
1.56367	25
1.56733	24
1.57100	24
1.57467	24
1.57833	25
1.58200	25
1.58567	24
1.58933	23
1.59300	24
1.59667	24
1.60033	26
1.60400	28
1.60767	29
1.61133	28
1.61500	29
1.61867	28
1.62233	28
1.62600	29
1.62967	30
1.63333	30
1.63700	30
1.64067	32
1.64433	34
1.64800	36
1.65167	36
1.65533	38
1.65900	38
1.66267	39
1.66633	40
1.67000	41
1.67367	42
1.67733	41
1.68100	43
1.68467	46
1.68833	48
1.69200	49
1.69567	48
1.69933	47
1.70300	48
1.70667	49
1.71033	50
1.71400	52
1.71767	57
1.72133	57
1.72500	53
1.72867	49
1.73233	48
1.73600	50
1.73967	50
1.74333	51
1.74700	53
1.75067	57
1.75433	61
1.75800	63
1.76167	63
1.76533	62
1.76900	62
1.77267	62
1.77633	62
1.78000	63
1.78367	65
1.78733	66
1.79100	68
1.79467	70
1.79833	69
1.80200	69
1.80567	70
1.80933	72
1.81300	73
1.81667	73
1.82033	74
1.82400	77
1.82767	79
1.83133	81
1.83500	83
1.83867	85
1.84233	84
1.84600	82
1.84967	82
1.85333	83
1.85700	84
1.86067	84
1.86433	85
1.86800	87
1.87167	89
1.87533	90
1.87900	91
1.88267	91
1.88633	92
1.89000	93
1.89367	93
1.89733	92
1.90100	91
1.90467	92
1.90833	93
1.91200	94
1.91567	97
1.91933	100
1.92300	103
1.92667	105
1.93033	107
1.93400	107
1.93767	107
1.94133	106
1.94500	106
1.94867	107
1.95233	108
1.95600	111
1.95967	114
1.96333	117
1.96700	120
1.97067	122
1.97433	123
1.97800	123
1.98167	126
1.98533	128
1.98900	127
1.99267	127
1.99633	128
2.00000	130
2.00367	130
2.00733	129
2.01100	130
2.01467	135
2.01833	142
2.02200	144
2.02567	142
2.02933	140
2.03300	141
2.03667	144
2.04033	146
2.04400	149
2.04767	154
2.05133	158
2.05500	160
2.05867	162
2.06233	165
2.06600	167
2.06967	168
2.07333	169
2.07700	170
2.08067	171
2.08433	173
2.08800	176
2.09167	178
2.09533	181
2.09900	182
2.10267	182
2.10633	183
2.11000	184
2.11367	186
2.11733	187
2.12100	187
2.12467	190
2.12833	192
2.13200	192
2.13567	192
2.13933	194
2.14300	199
2.14667	202
2.15033	203
2.15400	203
2.15767	202
2.16133	203
2.16500	204
2.16867	210
2.17233	214
2.17600	216
2.17967	218
2.18333	223
2.18700	226
2.19067	228
2.19433	227
2.19800	227
2.20167	229
2.20533	231
2.20900	233
2.21267	234
2.21633	235
2.22000	238
2.22367	243
2.22733	249
2.23100	254
2.23467	257
2.23833	258
2.24200	255
2.24567	253
2.24933	254
2.25300	258
2.25667	262
2.26033	265
2.26400	269
2.26767	274
2.27133	277
2.27500	280
2.27867	285
2.28233	286
2.28600	287
2.28967	290
2.29333	293
2.29700	297
2.30067	301
2.30433	302
2.30800	304
2.31167	308
2.31533	312
2.31900	317
2.32267	321
2.32633	324
2.33000	328
2.33367	327
2.33733	330
2.34100	334
2.34467	337
2.34833	340
2.35200	342
2.35567	345
2.35933	348
2.36300	350
2.36667	353
2.37033	359
2.37400	363
2.37767	363
2.38133	362
2.38500	360
2.38867	360
2.39233	362
2.39600	364
2.39967	363
2.40333	362
2.40700	365
2.41067	367
2.41433	370
2.41800	373
2.42167	376
2.42533	378
2.42900	377
2.43267	377
2.43633	380
2.44000	385
2.44367	390
2.44733	388
2.45100	381
2.45467	367
2.45833	351
2.46200	332
2.46567	319
2.46933	309
2.47300	297
2.47667	285
2.48033	276
2.48400	268
2.48767	257
2.49133	245
2.49500	230
2.49867	215
2.50233	199
2.50600	186
2.50967	173
2.51333	158
2.51700	144
2.52067	129
2.52433	117
2.52800	109
2.53167	103
2.53533	98
2.53900	93
2.54267	89
2.54633	85
2.55000	81
2.55367	78
2.55733	73
2.56100	69
2.56467	65
2.56833	60
2.57200	55
2.57567	51
2.57933	46
2.58300	42
2.58667	38
2.59033	34
2.59400	27
2.59767	18
2.60133	5
2.60500	-13
2.60867	-40
2.61233	-73
2.61600	-111
2.61967	-150
2.62333	-187
2.62700	-224
2.63067	-258
2.63433	-289
2.63800	-313
2.64167	-328
2.64533	-336
2.64900	-339
2.65267	-339
2.65633	-338
2.66000	-333
2.66367	-325
2.66733	-319
2.67100	-311
2.67467	-301
2.67833	-289
2.68200	-276
2.68567	-262
2.68933	-249
2.69300	-236
2.69667	-226
2.70033	-215
2.70400	-204
2.70767	-195
2.71133	-187
2.71500	-177
2.71867	-167
2.72233	-155
2.72600	-145
2.72967	-136
2.73333	-131
2.73700	-126
2.74067	-120
2.74433	-112
2.74800	-105
2.75167	-98
2.75533	-92
2.75900	-89
2.76267	-85
2.76633	-79
2.77000	-73
2.77367	-69
2.77733	-65
2.78100	-62
2.78467	-58
2.78833	-55
2.79200	-53
2.79567	-50
2.79933	-50
2.80300	-52
2.80667	-55
2.81033	-58
2.81400	-57
2.81767	-53
2.82133	-44
2.82500	-20
2.82867	41
2.83233	176
2.83600	439
2.83967	890
2.84333	1592
2.84700	2589
2.85067	3883
2.85433	5442
2.85800	7188
2.86167	9011
2.86533	10775
2.86900	12350
2.87267	13618
2.87633	14493
2.88000	14939
2.88367	14972
2.88733	14635
2.89100	13999
2.89467	13149
2.89833	12162
2.90200	11106
2.90567	10033
2.90933	8985
2.91300	7992
2.91667	7067
2.92033	6216
2.92400	5446
2.92767	4755
2.93133	4135
2.93500	3586
2.93867	3101
2.94233	2672
2.94600	2297
2.94967	1966
2.95333	1677
2.95700	1427
2.96067	1209
2.96433	1019
2.96800	853
2.97167	710
2.97533	589
2.97900	485
2.98267	394
2.98633	316
2.99000	249
2.99367	189
2.99733	140
3.00100	97
3.00467	59
3.00833	26
3.01200	-3
3.01567	-28
3.01933	-49
3.02300	-66
3.02667	-80
3.03033	-92
3.03400	-106
3.03767	-117
3.04133	-126
3.04500	-135
3.04867	-143
3.05233	-148
3.05600	-152
3.05967	-157
3.06333	-163
3.06700	-166
3.07067	-168
3.07433	-172
3.07800	-176
3.08167	-178
3.08533	-178
3.08900	-179
3.09267	-179
3.09633	-178
3.10000	-178
3.10367	-181
3.10733	-184
3.11100	-186
3.11467	-187
3.11833	-186
3.12200	-185
3.12567	-184
3.12933	-185
3.13300	-188
3.13667	-189
3.14033	-191
3.14400	-192
3.14767	-193
3.15133	-195
3.15500	-196
3.15867	-198
3.16233	-199
3.16600	-197
3.16967	-196
3.17333	-193
3.17700	-193
3.18067	-193
3.18433	-207
3.18800	-248
3.19167	-282
3.19533	-290
3.19900	-276
3.20267	-244
3.20633	-201
3.21000	-151
3.21367	-101
3.21733	-52
3.22100	-3
3.22467	43
3.22833	84
3.23200	122
3.23567	157
3.23933	190
3.24300	221
3.24667	247
3.25033	269
3.25400	289
3.25767	309
3.26133	327
3.26500	343
3.26867	356
3.27233	369
3.27600	379
3.27967	392
3.28333	405
3.28700	414
3.29067	420
3.29433	424
3.29800	432
3.30167	437
3.30533	442
3.30900	447
3.31267	449
3.31633	447
3.32000	445
3.32367	444
3.32733	445
3.33100	445
3.33467	444
3.33833	443
3.34200	441
3.34567	439
3.34933	436
3.35300	431
3.35667	428
3.36033	421
3.36400	414
3.36767	408
3.37133	403
3.37500	400
3.37867	397
3.38233	393
3.38600	389
3.38967	384
3.39333	378
3.39700	374
3.40067	372
3.40433	368
3.40800	363
3.41167	358
3.41533	355
3.41900	351
3.42267	349
3.42633	346
3.43000	342
3.43367	338
3.43733	334
3.44100	331
3.44467	330
3.44833	329
3.45200	327
3.45567	327
3.45933	326
3.46300	322
3.46667	316
3.47033	308
3.47400	302
3.47767	299
3.48133	296
3.48500	294
3.48867	293
3.49233	292
3.49600	287
3.49967	283
3.50333	279
3.50700	275
3.51067	270
3.51433	266
3.51800	262
3.52167	261
3.52533	257
3.52900	252
3.53267	247
3.53633	243
3.54000	239
3.54367	235
3.54733	231
3.55100	227
3.55467	226
3.55833	224
3.56200	218
3.56567	212
3.56933	210
3.57300	207
3.57667	203
3.58033	200
3.58400	196
3.58767	194
3.59133	190
3.59500	185
3.59867	183
3.60233	181
3.60600	178
3.60967	176
3.61333	175
3.61700	173
3.62067	172
3.62433	167
3.62800	165
3.63167	164
3.63533	161
3.63900	161
3.64267	158
3.64633	155
3.65000	152
3.65367	148
3.65733	148
3.66100	150
3.66467	149
3.66833	145
3.67200	141
3.67567	136
3.67933	134
3.68300	132
3.68667	130
3.69033	127
3.69400	124
3.69767	122
3.70133	121
3.70500	118
3.70867	117
3.71233	114
3.71600	112
3.71967	108
3.72333	106
3.72700	107
3.73067	107
3.73433	106
3.73800	104
3.74167	101
3.74533	99
3.74900	98
3.75267	95
3.75633	92
3.76000	91
3.76367	90
3.76733	88
3.77100	85
3.77467	85
3.77833	82
3.78200	78
3.78567	73
3.78933	68
3.79300	64
3.79667	60
3.80033	57
3.80400	58
3.80767	60
3.81133	59
3.81500	59
3.81867	58
3.82233	57
3.82600	55
3.82967	54
3.83333	53
3.83700	53
3.84067	49
3.84433	45
3.84800	45
3.85167	46
3.85533	44
3.85900	41
3.86267	37
3.86633	35
3.87000	32
3.87367	30
3.87733	29
3.88100	29
3.88467	28
3.88833	27
3.89200	27
3.89567	29
3.89933	30
3.90300	28
3.90667	28
3.91033	29
3.91400	26
3.91767	22
3.92133	20
3.92500	21
3.92867	22
3.93233	21
3.93600	17
3.93967	17
3.94333	17
3.94700	17
3.95067	15
3.95433	15
3.95800	12
3.96167	11
3.96533	9
3.96900	6
3.97267	5
3.97633	4
3.98000	4
3.98367	3
3.98733	3
3.99100	2
3.99467	-0
3.99833	-2

[Status Trace (Column Oven Temperature)]
Interval(msec)	1000
# of Points	240
Start Time(min)	0.003
End Time(min)	3.986
Intensity Units	
Intensity Multiplier	1
R.Time (min)	Intensity
0.00263	35.07
0.01930	35.07
0.03597	35.06
0.05263	35.07
0.06930	35.06
0.08597	35.05
0.10263	35.04
0.11930	35.03
0.13597	35.02
0.15263	35.01
0.16930	35.00
0.18597	34.99
0.20263	34.98
0.21930	34.98
0.23597	34.96
0.25263	34.96
0.26930	34.97
0.28597	34.97
0.30263	34.98
0.31930	34.98
0.33597	35.00
0.35263	35.01
0.36930	35.02
0.38597	35.02
0.40263	35.02
0.41930	35.02
0.43597	35.01
0.45263	35.02
0.46930	35.02
0.48597	35.01
0.50263	35.00
0.51930	34.98
0.53597	34.97
0.55263	34.97
0.56930	34.96
0.58597	34.96
0.60263	34.96
0.61930	34.96
0.63597	34.97
0.65263	34.97
0.66930	34.97
0.68597	34.99
0.70263	35.00
0.71930	35.00
0.73597	35.01
0.75263	35.01
0.76930	35.02
0.78597	35.01
0.80263	35.01
0.81930	35.01
0.83597	35.02
0.85263	35.03
0.86930	35.04
0.88597	35.03
0.90263	35.03
0.91930	35.04
0.93597	35.04
0.95263	35.03
0.96930	35.02
0.98597	35.01
1.00263	35.02
1.01930	35.01
1.03597	35.01
1.05263	35.00
1.06930	35.00
1.08597	34.99
1.10263	34.99
1.11930	35.00
1.13597	35.01
1.15263	35.00
1.16930	34.99
1.18597	34.98
1.20263	34.97
1.21930	34.97
1.23597	34.98
1.25263	34.99
1.26930	34.99
1.28597	35.00
1.30263	34.98
1.31930	34.98
1.33597	34.98
1.35263	34.98
1.36930	34.99
1.38597	34.98
1.40263	34.98
1.41930	34.97
1.43597	34.97
1.45263	34.99
1.46930	35.01
1.48597	35.02
1.50263	35.03
1.51930	35.04
1.53597	35.05
1.55263	35.06
1.56930	35.06
1.58597	35.06
1.60263	35.09
1.61930	35.17
1.63597	35.32
1.65263	35.52
1.66930	35.82
1.68597	36.20
1.70263	36.57
1.71930	36.92
1.73597	37.24
1.75263	37.56
1.76930	37.91
1.78597	38.24
1.80263	38.57
1.81930	38.89
1.83597	39.23
1.85263	39.56
1.86930	39.90
1.88597	40.22
1.90263	40.54
1.91930	40.86
1.93597	41.20
1.95263	41.51
1.96930	41.84
1.98597	42.18
2.00263	42.49
2.01930	42.83
2.03597	43.15
2.05263	43.45
2.06930	43.79
2.08597	44.12
2.10263	44.44
2.11930	44.76
2.13597	45.08
2.15263	45.43
2.16930	45.75
2.18597	46.06
2.20263	46.38
2.21930	46.70
2.23597	47.06
2.25263	47.42
2.26930	47.75
2.28597	48.06
2.30263	48.39
2.31930	48.73
2.33597	49.06
2.35263	49.36
2.36930	49.58
2.38597	49.67
2.40263	49.67
2.41930	49.67
2.43597	49.68
2.45263	49.69
2.46930	49.71
2.48597	49.71
2.50263	49.74
2.51930	49.75
2.53597	49.76
2.55263	49.76
2.56930	49.80
2.58597	49.82
2.60263	49.83
2.61930	49.83
2.63597	49.84
2.65263	49.85
2.66930	49.86
2.68597	49.88
2.70263	49.87
2.71930	49.85
2.73597	49.85
2.75263	49.85
2.76930	49.86
2.78597	49.87
2.80263	49.88
2.81930	49.90
2.83597	49.91
2.85263	49.94
2.86930	49.95
2.88597	49.96
2.90263	49.98
2.91930	49.98
2.93597	49.99
2.95263	49.99
2.96930	49.99
2.98597	49.99
3.00263	50.00
3.01930	50.00
3.03597	50.01
3.05263	50.02
3.06930	50.04
3.08597	50.04
3.10263	50.04
3.11930	50.05
3.13597	50.06
3.15263	50.07
3.16930	50.08
3.18597	50.10
3.20263	50.10
3.21930	50.10
3.23597	50.09
3.25263	50.10
3.26930	50.10
3.28597	50.09
3.30263	50.08
3.31930	50.08
3.33597	50.06
3.35263	50.05
3.36930	50.03
3.38597	50.03
3.40263	50.01
3.41930	50.01
3.43597	50.01
3.45263	50.00
3.46930	50.00
3.48597	50.00
3.50263	50.01
3.51930	50.01
3.53597	50.02
3.55263	50.01
3.56930	50.02
3.58597	50.02
3.60263	50.02
3.61930	50.03
3.63597	50.03
3.65263	50.04
3.66930	50.05
3.68597	50.05
3.70263	50.05
3.71930	50.05
3.73597	50.06
3.75263	50.06
3.76930	50.06
3.78597	50.07
3.80263	50.07
3.81930	50.08
3.83597	50.09
3.85263	50.09
3.86930	50.09
3.88597	50.10
3.90263	50.11
3.91930	50.11
3.93597	50.09
3.95263	50.08
3.96930	50.08
3.98597	50.07

[Status Trace (Injection Unit Temperature)]
Interval(msec)	1000
# of Points	240
Start Time(min)	0.003
End Time(min)	3.986
Intensity Units	
Intensity Multiplier	1
R.Time (min)	Intensity
0.00263	99.98
0.01930	99.98
0.03597	99.99
0.05263	99.99
0.06930	99.99
0.08597	99.98
0.10263	99.98
0.11930	99.99
0.13597	99.99
0.15263	99.98
0.16930	99.99
0.18597	99.99
0.20263	99.99
0.21930	99.99
0.23597	99.98
0.25263	99.98
0.26930	99.98
0.28597	99.98
0.30263	99.98
0.31930	99.98
0.33597	99.99
0.35263	99.99
0.36930	99.98
0.38597	99.98
0.40263	99.98
0.41930	99.99
0.43597	99.99
0.45263	99.98
0.46930	99.98
0.48597	99.98
0.50263	99.98
0.51930	99.98
0.53597	99.98
0.55263	99.98
0.56930	99.98
0.58597	99.98
0.60263	99.98
0.61930	99.98
0.63597	99.99
0.65263	99.98
0.66930	99.98
0.68597	99.98
0.70263	99.98
0.71930	99.98
0.73597	99.98
0.75263	99.98
0.76930	99.98
0.78597	99.98
0.80263	99.98
0.81930	99.98
0.83597	99.98
0.85263	99.98
0.86930	99.98
0.88597	99.99
0.90263	99.98
0.91930	99.99
0.93597	99.98
0.95263	99.98
0.96930	99.98
0.98597	99.99
1.00263	99.98
1.01930	99.98
1.03597	99.98
1.05263	99.98
1.06930	99.98
1.08597	99.99
1.10263	99.98
1.11930	99.98
1.13597	99.98
1.15263	99.99
1.16930	99.98
1.18597	99.98
1.20263	99.99
1.21930	99.99
1.23597	99.99
1.25263	99.99
1.26930	99.99
1.28597	99.99
1.30263	99.98
1.31930	99.99
1.33597	99.99
1.35263	99.99
1.36930	99.99
1.38597	99.99
1.40263	99.99
1.41930	99.99
1.43597	99.99
1.45263	99.99
1.46930	99.99
1.48597	99.98
1.50263	99.98
1.51930	99.99
1.53597	99.98
1.55263	99.99
1.56930	99.99
1.58597	99.99
1.60263	99.99
1.61930	99.98
1.63597	99.99
1.65263	99.99
1.66930	99.99
1.68597	99.98
1.70263	99.99
1.71930	99.99
1.73597	99.99
1.75263	99.99
1.76930	99.99
1.78597	99.99
1.80263	99.98
1.81930	99.98
1.83597	99.99
1.85263	99.99
1.86930	99.99
1.88597	99.98
1.90263	99.99
1.91930	99.99
1.93597	99.98
1.95263	99.99
1.96930	99.99
1.98597	99.99
2.00263	99.98
2.01930	99.99
2.03597	99.98
2.05263	99.98
2.06930	99.98
2.08597	99.98
2.10263	99.98
2.11930	99.98
2.13597	99.97
2.15263	99.98
2.16930	99.98
2.18597	99.97
2.20263	99.98
2.21930	99.97
2.23597	99.97
2.25263	99.97
2.26930	99.97
2.28597	99.97
2.30263	99.97
2.31930	99.97
2.33597	99.97
2.35263	99.97
2.36930	99.97
2.38597	99.97
2.40263	99.97
2.41930	99.97
2.43597	99.97
2.45263	99.97
2.46930	99.97
2.48597	99.97
2.50263	99.97
2.51930	99.97
2.53597	99.97
2.55263	99.97
2.56930	99.98
2.58597	99.97
2.60263	99.98
2.61930	99.98
2.63597	99.98
2.65263	99.98
2.66930	99.98
2.68597	99.98
2.70263	99.98
2.71930	99.98
2.73597	99.99
2.75263	99.99
2.76930	99.99
2.78597	99.99
2.80263	99.99
2.81930	99.99
2.83597	100.00
2.85263	100.00
2.86930	100.00
2.88597	100.00
2.90263	100.00
2.91930	100.00
2.93597	100.00
2.95263	100.00
2.96930	100.01
2.98597	100.01
3.00263	100.01
3.01930	100.01
3.03597	100.01
3.05263	100.01
3.06930	100.01
3.08597	100.01
3.10263	100.01
3.11930	100.02
3.13597	100.02
3.15263	100.01
3.16930	100.02
3.18597	100.02
3.20263	100.02
3.21930	100.02
3.23597	100.02
3.25263	100.03
3.26930	100.03
3.28597	100.02
3.30263	100.03
3.31930	100.03
3.33597	100.03
3.35263	100.03
3.36930	100.03
3.38597	100.03
3.40263	100.03
3.41930	100.03
3.43597	100.03
3.45263	100.04
3.46930	100.03
3.48597	100.03
3.50263	100.04
3.51930	100.04
3.53597	100.04
3.55263	100.04
3.56930	100.03
3.58597	100.04
3.60263	100.04
3.61930	100.04
3.63597	100.04
3.65263	100.04
3.66930	100.04
3.68597	100.04
3.70263	100.04
3.71930	100.04
3.73597	100.04
3.75263	100.04
3.76930	100.04
3.78597	100.04
3.80263	100.05
3.81930	100.04
3.83597	100.04
3.85263	100.05
3.86930	100.04
3.88597	100.05
3.90263	100.04
3.91930	100.05
3.93597	100.04
3.95263	100.05
3.96930	100.04
3.98597	100.05

[Status Trace (Carrier Gas Pressure)]
Interval(msec)	1000
# of Points	240
Start Time(min)	0.003
End Time(min)	3.986
Intensity Units	
Intensity Multiplier	1
R.Time (min)	Intensity
0.00263	58.00
0.01930	56.19
0.03597	56.26
0.05263	58.54
0.06930	59.87
0.08597	58.34
0.10263	57.97
0.11930	58.01
0.13597	58.01
0.15263	58.01
0.16930	58.00
0.18597	58.00
0.20263	58.00
0.21930	58.00
0.23597	58.00
0.25263	58.00
0.26930	58.00
0.28597	58.00
0.30263	58.00
0.31930	58.00
0.33597	58.00
0.35263	58.00
0.36930	58.00
0.38597	58.00
0.40263	58.00
0.41930	58.00
0.43597	58.00
0.45263	58.00
0.46930	58.00
0.48597	58.00
0.50263	58.00
0.51930	58.00
0.53597	58.00
0.55263	58.00
0.56930	58.00
0.58597	58.00
0.60263	58.00
0.61930	58.00
0.63597	58.00
0.65263	58.00
0.66930	58.00
0.68597	58.00
0.70263	58.00
0.71930	58.00
0.73597	58.00
0.75263	58.00
0.76930	58.00
0.78597	58.00
0.80263	58.00
0.81930	58.00
0.83597	58.00
0.85263	58.00
0.86930	58.00
0.88597	58.00
0.90263	58.00
0.91930	58.00
0.93597	58.00
0.95263	58.00
0.96930	58.00
0.98597	58.00
1.00263	58.00
1.01930	58.00
1.03597	58.00
1.05263	58.00
1.06930	58.00
1.08597	58.00
1.10263	58.00
1.11930	58.00
1.13597	58.00
1.15263	58.00
1.16930	58.00
1.18597	58.00
1.20263	58.00
1.21930	58.00
1.23597	58.00
1.25263	58.00
1.26930	58.00
1.28597	58.00
1.30263	58.00
1.31930	58.00
1.33597	58.00
1.35263	58.00
1.36930	58.00
1.38597	58.00
1.40263	58.00
1.41930	58.00
1.43597	58.00
1.45263	58.00
1.46930	58.00
1.48597	58.00
1.50263	58.00
1.51930	58.00
1.53597	58.00
1.55263	58.00
1.56930	58.00
1.58597	58.00
1.60263	58.00
1.61930	58.00
1.63597	58.00
1.65263	58.00
1.66930	58.01
1.68597	58.01
1.70263	58.00
1.71930	58.00
1.73597	58.00
1.75263	58.00
1.76930	58.00
1.78597	58.00
1.80263	58.00
1.81930	58.00
1.83597	58.00
1.85263	58.00
1.86930	58.00
1.88597	58.00
1.90263	58.00
1.91930	58.00
1.93597	58.00
1.95263	58.00
1.96930	58.00
1.98597	58.00
2.00263	58.00
2.01930	58.00
2.03597	58.00
2.05263	58.00
2.06930	58.00
2.08597	58.00
2.10263	58.00
2.11930	58.00
2.13597	58.00
2.15263	58.00
2.16930	58.00
2.18597	58.00
2.20263	58.00
2.21930	58.00
2.23597	58.00
2.25263	58.00
2.26930	58.00
2.28597	58.00
2.30263	58.00
2.31930	58.00
2.33597	58.00
2.35263	58.00
2.36930	58.00
2.38597	57.99
2.40263	57.99
2.41930	58.00
2.43597	58.00
2.45263	58.00
2.46930	58.00
2.48597	58.00
2.50263	57.98
2.51930	58.00
2.53597	57.99
2.55263	58.00
2.56930	58.00
2.58597	58.00
2.60263	58.00
2.61930	58.00
2.63597	58.00
2.65263	58.00
2.66930	58.00
2.68597	58.00
2.70263	58.00
2.71930	58.00
2.73597	58.00
2.75263	58.00
2.76930	58.00
2.78597	58.00
2.80263	58.00
2.81930	58.00
2.83597	58.00
2.85263	58.00
2.86930	58.00
2.88597	58.00
2.90263	58.00
2.91930	58.00
2.93597	58.00
2.95263	58.00
2.96930	58.00
2.98597	58.00
3.00263	58.00
3.01930	58.00
3.03597	58.00
3.05263	58.00
3.06930	58.00
3.08597	58.00
3.10263	58.00
3.11930	58.00
3.13597	58.00
3.15263	58.00
3.16930	58.00
3.18597	58.00
3.20263	58.00
3.21930	58.00
3.23597	58.00
3.25263	58.00
3.26930	58.00
3.28597	58.00
3.30263	58.00
3.31930	58.00
3.33597	58.00
3.35263	58.00
3.36930	58.00
3.38597	58.00
3.40263	58.00
3.41930	58.00
3.43597	58.00
3.45263	58.00
3.46930	58.00
3.48597	58.00
3.50263	58.00
3.51930	58.00
3.53597	58.00
3.55263	58.00
3.56930	58.00
3.58597	58.00
3.60263	58.00
3.61930	58.00
3.63597	58.00
3.65263	58.00
3.66930	58.00
3.68597	58.00
3.70263	58.00
3.71930	58.00
3.73597	58.00
3.75263	58.00
3.76930	58.00
3.78597	58.00
3.80263	58.00
3.81930	58.00
3.83597	58.00
3.85263	58.00
3.86930	58.00
3.88597	58.00
3.90263	58.00
3.91930	58.00
3.93597	58.00
3.95263	58.00
3.96930	58.00
3.98597	58.00

[Status Trace (Carrier Gas Flow)]
Interval(msec)	1000
# of Points	240
Start Time(min)	0.003
End Time(min)	3.986
Intensity Units	
Intensity Multiplier	1
R.Time (min)	Intensity
0.00263	34.52
0.01930	34.62
0.03597	34.55
0.05263	34.54
0.06930	34.49
0.08597	34.52
0.10263	34.52
0.11930	34.52
0.13597	34.52
0.15263	34.52
0.16930	34.52
0.18597	34.52
0.20263	34.52
0.21930	34.52
0.23597	34.52
0.25263	34.52
0.26930	34.52
0.28597	34.52
0.30263	34.52
0.31930	34.52
0.33597	34.52
0.35263	34.52
0.36930	34.52
0.38597	34.52
0.40263	34.52
0.41930	34.52
0.43597	34.52
0.45263	34.52
0.46930	34.52
0.48597	34.52
0.50263	34.52
0.51930	34.52
0.53597	34.51
0.55263	34.51
0.56930	34.51
0.58597	34.52
0.60263	34.52
0.61930	34.52
0.63597	34.51
0.65263	34.51
0.66930	34.52
0.68597	34.52
0.70263	34.52
0.71930	34.52
0.73597	34.52
0.75263	34.52
0.76930	34.52
0.78597	34.52
0.80263	34.52
0.81930	34.52
0.83597	34.52
0.85263	34.52
0.86930	34.52
0.88597	34.53
0.90263	34.52
0.91930	34.52
0.93597	34.52
0.95263	34.52
0.96930	34.52
0.98597	34.52
1.00263	34.52
1.01930	34.52
1.03597	34.52
1.05263	34.52
1.06930	34.52
1.08597	34.52
1.10263	34.52
1.11930	34.52
1.13597	34.52
1.15263	34.52
1.16930	34.52
1.18597	34.52
1.20263	34.52
1.21930	34.52
1.23597	34.52
1.25263	34.52
1.26930	34.52
1.28597	34.52
1.30263	34.52
1.31930	34.52
1.33597	34.52
1.35263	34.52
1.36930	34.52
1.38597	34.52
1.40263	34.52
1.41930	34.52
1.43597	34.52
1.45263	34.52
1.46930	34.52
1.48597	34.52
1.50263	34.52
1.51930	34.52
1.53597	34.52
1.55263	34.52
1.56930	34.51
1.58597	34.52
1.60263	34.51
1.61930	34.51
1.63597	34.53
1.65263	34.54
1.66930	34.52
1.68597	34.52
1.70263	34.52
1.71930	34.52
1.73597	34.52
1.75263	34.52
1.76930	34.52
1.78597	34.52
1.80263	34.52
1.81930	34.51
1.83597	34.52
1.85263	34.52
1.86930	34.52
1.88597	34.52
1.90263	34.52
1.91930	34.52
1.93597	34.51
1.95263	34.52
1.96930	34.52
1.98597	34.52
2.00263	34.52
2.01930	34.52
2.03597	34.52
2.05263	34.52
2.06930	34.52
2.08597	34.52
2.10263	34.52
2.11930	34.52
2.13597	34.52
2.15263	34.52
2.16930	34.52
2.18597	34.52
2.20263	34.52
2.21930	34.52
2.23597	34.52
2.25263	34.52
2.26930	34.52
2.28597	34.52
2.30263	34.52
2.31930	34.52
2.33597	34.52
2.35263	34.53
2.36930	34.52
2.38597	34.54
2.40263	34.52
2.41930	34.52
2.43597	34.51
2.45263	34.51
2.46930	34.52
2.48597	34.52
2.50263	34.59
2.51930	34.52
2.53597	34.52
2.55263	34.52
2.56930	34.52
2.58597	34.52
2.60263	34.52
2.61930	34.52
2.63597	34.52
2.65263	34.52
2.66930	34.50
2.68597	34.52
2.70263	34.51
2.71930	34.52
2.73597	34.52
2.75263	34.52
2.76930	34.53
2.78597	34.52
2.80263	34.52
2.81930	34.52
2.83597	34.52
2.85263	34.52
2.86930	34.52
2.88597	34.52
2.90263	34.52
2.91930	34.50
2.93597	34.52
2.95263	34.52
2.96930	34.52
2.98597	34.52
3.00263	34.52
3.01930	34.52
3.03597	34.52
3.05263	34.52
3.06930	34.52
3.08597	34.52
3.10263	34.52
3.11930	34.52
3.13597	34.52
3.15263	34.52
3.16930	34.52
3.18597	34.52
3.20263	34.52
3.21930	34.52
3.23597	34.52
3.25263	34.52
3.26930	34.52
3.28597	34.52
3.30263	34.51
3.31930	34.52
3.33597	34.52
3.35263	34.52
3.36930	34.54
3.38597	34.52
3.40263	34.52
3.41930	34.52
3.43597	34.52
3.45263	34.52
3.46930	34.52
3.48597	34.52
3.50263	34.52
3.51930	34.52
3.53597	34.52
3.55263	34.52
3.56930	34.52
3.58597	34.52
3.60263	34.52
3.61930	34.52
3.63597	34.52
3.65263	34.52
3.66930	34.52
3.68597	34.52
3.70263	34.52
3.71930	34.52
3.73597	34.52
3.75263	34.52
3.76930	34.52
3.78597	34.52
3.80263	34.52
3.81930	34.52
3.83597	34.52
3.85263	34.52
3.86930	34.52
3.88597	34.52
3.90263	34.51
3.91930	34.52
3.93597	34.52
3.95263	34.52
3.96930	34.51
3.98597	34.51

[Status Trace (Column Flow)]
Interval(msec)	1000
# of Points	240
Start Time(min)	0.003
End Time(min)	3.986
Intensity Units	
Intensity Multiplier	1
R.Time (min)	Intensity
0.00263	5.57
0.01930	5.36
0.03597	5.37
0.05263	5.63
0.06930	5.79
0.08597	5.61
0.10263	5.57
0.11930	5.57
0.13597	5.57
0.15263	5.57
0.16930	5.57
0.18597	5.57
0.20263	5.57
0.21930	5.57
0.23597	5.57
0.25263	5.57
0.26930	5.57
0.28597	5.57
0.30263	5.57
0.31930	5.57
0.33597	5.57
0.35263	5.57
0.36930	5.57
0.38597	5.57
0.40263	5.57
0.41930	5.57
0.43597	5.57
0.45263	5.57
0.46930	5.57
0.48597	5.57
0.50263	5.57
0.51930	5.57
0.53597	5.57
0.55263	5.57
0.56930	5.57
0.58597	5.57
0.60263	5.57
0.61930	5.57
0.63597	5.57
0.65263	5.57
0.66930	5.57
0.68597	5.57
0.70263	5.57
0.71930	5.57
0.73597	5.57
0.75263	5.57
0.76930	5.57
0.78597	5.57
0.80263	5.57
0.81930	5.57
0.83597	5.57
0.85263	5.57
0.86930	5.57
0.88597	5.57
0.90263	5.57
0.91930	5.57
0.93597	5.57
0.95263	5.57
0.96930	5.57
0.98597	5.57
1.00263	5.57
1.01930	5.57
1.03597	5.57
1.05263	5.57
1.06930	5.57
1.08597	5.57
1.10263	5.57
1.11930	5.57
1.13597	5.57
1.15263	5.57
1.16930	5.57
1.18597	5.57
1.20263	5.57
1.21930	5.57
1.23597	5.57
1.25263	5.57
1.26930	5.57
1.28597	5.57
1.30263	5.57
1.31930	5.57
1.33597	5.57
1.35263	5.57
1.36930	5.57
1.38597	5.57
1.40263	5.57
1.41930	5.57
1.43597	5.57
1.45263	5.57
1.46930	5.57
1.48597	5.57
1.50263	5.57
1.51930	5.57
1.53597	5.57
1.55263	5.57
1.56930	5.57
1.58597	5.57
1.60263	5.57
1.61930	5.57
1.63597	5.56
1.65263	5.56
1.66930	5.55
1.68597	5.54
1.70263	5.52
1.71930	5.51
1.73597	5.50
1.75263	5.49
1.76930	5.48
1.78597	5.47
1.80263	5.46
1.81930	5.45
1.83597	5.44
1.85263	5.43
1.86930	5.42
1.88597	5.41
1.90263	5.40
1.91930	5.39
1.93597	5.38
1.95263	5.37
1.96930	5.36
1.98597	5.35
2.00263	5.34
2.01930	5.33
2.03597	5.32
2.05263	5.31
2.06930	5.30
2.08597	5.29
2.10263	5.28
2.11930	5.27
2.13597	5.27
2.15263	5.26
2.16930	5.25
2.18597	5.24
2.20263	5.23
2.21930	5.22
2.23597	5.21
2.25263	5.20
2.26930	5.19
2.28597	5.18
2.30263	5.17
2.31930	5.16
2.33597	5.15
2.35263	5.14
2.36930	5.14
2.38597	5.13
2.40263	5.13
2.41930	5.13
2.43597	5.13
2.45263	5.13
2.46930	5.13
2.48597	5.13
2.50263	5.13
2.51930	5.13
2.53597	5.13
2.55263	5.13
2.56930	5.13
2.58597	5.13
2.60263	5.13
2.61930	5.13
2.63597	5.13
2.65263	5.13
2.66930	5.13
2.68597	5.13
2.70263	5.13
2.71930	5.13
2.73597	5.13
2.75263	5.13
2.76930	5.13
2.78597	5.13
2.80263	5.13
2.81930	5.13
2.83597	5.13
2.85263	5.13
2.86930	5.13
2.88597	5.13
2.90263	5.13
2.91930	5.13
2.93597	5.13
2.95263	5.13
2.96930	5.13
2.98597	5.13
3.00263	5.13
3.01930	5.13
3.03597	5.12
3.05263	5.12
3.06930	5.12
3.08597	5.12
3.10263	5.12
3.11930	5.12
3.13597	5.12
3.15263	5.12
3.16930	5.12
3.18597	5.12
3.20263	5.12
3.21930	5.12
3.23597	5.12
3.25263	5.12
3.26930	5.12
3.28597	5.12
3.30263	5.12
3.31930	5.12
3.33597	5.12
3.35263	5.12
3.36930	5.12
3.38597	5.12
3.40263	5.12
3.41930	5.12
3.43597	5.12
3.45263	5.13
3.46930	5.13
3.48597	5.13
3.50263	5.12
3.51930	5.12
3.53597	5.12
3.55263	5.12
3.56930	5.12
3.58597	5.12
3.60263	5.12
3.61930	5.12
3.63597	5.12
3.65263	5.12
3.66930	5.12
3.68597	5.12
3.70263	5.12
3.71930	5.12
3.73597	5.12
3.75263	5.12
3.76930	5.12
3.78597	5.12
3.80263	5.12
3.81930	5.12
3.83597	5.12
3.85263	5.12
3.86930	5.12
3.88597	5.12
3.90263	5.12
3.91930	5.12
3.93597	5.12
3.95263	5.12
3.96930	5.12
3.98597	5.12

[Status Trace (Linear Velocity)]
Interval(msec)	1000
# of Points	240
Start Time(min)	0.003
End Time(min)	3.986
Intensity Units	
Intensity Multiplier	1
R.Time (min)	Intensity
0.00263	39.02
0.01930	37.84
0.03597	37.88
0.05263	39.38
0.06930	40.25
0.08597	39.25
0.10263	39.01
0.11930	39.03
0.13597	39.03
0.15263	39.03
0.16930	39.03
0.18597	39.03
0.20263	39.03
0.21930	39.03
0.23597	39.03
0.25263	39.03
0.26930	39.03
0.28597	39.03
0.30263	39.03
0.31930	39.03
0.33597	39.03
0.35263	39.03
0.36930	39.03
0.38597	39.03
0.40263	39.03
0.41930	39.03
0.43597	39.03
0.45263	39.03
0.46930	39.03
0.48597	39.03
0.50263	39.03
0.51930	39.03
0.53597	39.03
0.55263	39.03
0.56930	39.03
0.58597	39.03
0.60263	39.03
0.61930	39.03
0.63597	39.03
0.65263	39.03
0.66930	39.03
0.68597	39.03
0.70263	39.03
0.71930	39.03
0.73597	39.03
0.75263	39.03
0.76930	39.03
0.78597	39.03
0.80263	39.03
0.81930	39.03
0.83597	39.03
0.85263	39.03
0.86930	39.02
0.88597	39.03
0.90263	39.03
0.91930	39.02
0.93597	39.02
0.95263	39.03
0.96930	39.03
0.98597	39.03
1.00263	39.03
1.01930	39.03
1.03597	39.03
1.05263	39.03
1.06930	39.03
1.08597	39.03
1.10263	39.03
1.11930	39.03
1.13597	39.03
1.15263	39.03
1.16930	39.03
1.18597	39.03
1.20263	39.03
1.21930	39.03
1.23597	39.03
1.25263	39.03
1.26930	39.03
1.28597	39.03
1.30263	39.03
1.31930	39.03
1.33597	39.03
1.35263	39.03
1.36930	39.03
1.38597	39.03
1.40263	39.03
1.41930	39.03
1.43597	39.03
1.45263	39.03
1.46930	39.03
1.48597	39.03
1.50263	39.03
1.51930	39.02
1.53597	39.02
1.55263	39.02
1.56930	39.02
1.58597	39.02
1.60263	39.02
1.61930	39.01
1.63597	39.00
1.65263	38.98
1.66930	38.95
1.68597	38.92
1.70263	38.88
1.71930	38.84
1.73597	38.82
1.75263	38.78
1.76930	38.75
1.78597	38.72
1.80263	38.69
1.81930	38.66
1.83597	38.63
1.85263	38.59
1.86930	38.56
1.88597	38.53
1.90263	38.50
1.91930	38.47
1.93597	38.44
1.95263	38.41
1.96930	38.38
1.98597	38.35
2.00263	38.32
2.01930	38.29
2.03597	38.26
2.05263	38.23
2.06930	38.20
2.08597	38.18
2.10263	38.14
2.11930	38.11
2.13597	38.09
2.15263	38.05
2.16930	38.02
2.18597	38.00
2.20263	37.97
2.21930	37.94
2.23597	37.91
2.25263	37.87
2.26930	37.84
2.28597	37.82
2.30263	37.79
2.31930	37.76
2.33597	37.73
2.35263	37.70
2.36930	37.68
2.38597	37.67
2.40263	37.67
2.41930	37.67
2.43597	37.67
2.45263	37.67
2.46930	37.67
2.48597	37.67
2.50263	37.65
2.51930	37.67
2.53597	37.66
2.55263	37.67
2.56930	37.66
2.58597	37.66
2.60263	37.66
2.61930	37.66
2.63597	37.66
2.65263	37.66
2.66930	37.66
2.68597	37.65
2.70263	37.66
2.71930	37.66
2.73597	37.66
2.75263	37.66
2.76930	37.66
2.78597	37.66
2.80263	37.65
2.81930	37.65
2.83597	37.65
2.85263	37.65
2.86930	37.65
2.88597	37.65
2.90263	37.65
2.91930	37.65
2.93597	37.64
2.95263	37.64
2.96930	37.65
2.98597	37.64
3.00263	37.64
3.01930	37.64
3.03597	37.64
3.05263	37.64
3.06930	37.64
3.08597	37.64
3.10263	37.64
3.11930	37.64
3.13597	37.64
3.15263	37.64
3.16930	37.64
3.18597	37.64
3.20263	37.63
3.21930	37.64
3.23597	37.63
3.25263	37.64
3.26930	37.63
3.28597	37.64
3.30263	37.64
3.31930	37.64
3.33597	37.64
3.35263	37.64
3.36930	37.64
3.38597	37.64
3.40263	37.64
3.41930	37.64
3.43597	37.64
3.45263	37.64
3.46930	37.64
3.48597	37.64
3.50263	37.64
3.51930	37.64
3.53597	37.64
3.55263	37.64
3.56930	37.64
3.58597	37.64
3.60263	37.64
3.61930	37.64
3.63597	37.64
3.65263	37.64
3.66930	37.64
3.68597	37.64
3.70263	37.64
3.71930	37.64
3.73597	37.64
3.75263	37.64
3.76930	37.64
3.78597	37.64
3.80263	37.64
3.81930	37.64
3.83597	37.64
3.85263	37.64
3.86930	37.64
3.88597	37.64
3.90263	37.63
3.91930	37.63
3.93597	37.64
3.95263	37.64
3.96930	37.64
3.98597	37.64

