[Header]
Application Name	LabSolutions
Version	5.110
Data File Name	C:\Users\User\Desktop\GC Analyses\Jack\UIC Prairie Sampling\7.22.22\220722_025.gcd
Output Date	10/5/2022
Output Time	2:13:39 PM

[File Information]
Type	Data File
Generated	9/26/2022 1:58:04 PM
Generated by	System Administrator
Modified	9/26/2022 2:02:26 PM
Modified by	System Administrator

[Sample Information]
Operator Name	System Administrator
Acquired	9/26/2022 1:58:24 PM
Sample Type	1:Standard
Level	1
Sample Name	220722_UICPrairie
Sample ID	220722_UICPrairie
ISTD Amount1	1
ISTD Amount2	1
ISTD Amount3	1
ISTD Amount4	1
ISTD Amount5	1
ISTD Amount6	1
ISTD Amount7	1
ISTD Amount8	1
ISTD Amount9	1
ISTD Amount10	1
ISTD Amount11	1
ISTD Amount12	1
ISTD Amount13	1
ISTD Amount14	1
ISTD Amount15	1
ISTD Amount16	1
ISTD Amount17	1
ISTD Amount18	1
ISTD Amount19	1
ISTD Amount20	1
ISTD Amount21	1
ISTD Amount22	1
ISTD Amount23	1
ISTD Amount24	1
ISTD Amount25	1
ISTD Amount26	1
ISTD Amount27	1
ISTD Amount28	1
ISTD Amount29	1
ISTD Amount30	1
ISTD Amount31	1
ISTD Amount32	1
Sample Amount	1
Dilution Factor	1
Vial#	1
Injection Volume	1
Injection Count	1
Bar Code	

[Original Files]
Data File	C:\Users\User\Desktop\GC Analyses\Jack\UIC Prairie Sampling\7.22.22\220722_025.gcd
Method File	C:\LabSolutions\Data\GHG_4min_2022\ghg3_togas_w_acet_4 min_new_int.gcm
Batch File	
Report Format File	c:\LabSolutions\System\DEFAULT.lsr

[File Description]


[Configuration]
Instrument Name	C0B7VH3-Instrument1
Instrument #	1
Line #	1
# of Detectors	3
Detector ID	DET#1	DET#2	DET#3
Detector Name	FID	PTCD	ECD
# of Channels	1	1	1

[Peak Table(Ch1)]
# of Peaks	3
Peak#	R.Time	I.Time	F.Time	Area	Height	A/H	Conc.	Mark	ID#	Name	k'	Plate #	Plate Ht.	Tailing	Resolution	Sep.Factor	Area Ratio	Height Ratio	Conc. %	Norm Conc.
1	1.479	1.443	1.542	14631	6605	2.215	100.000	   	1	CO	0.000	8509	17.629	1.195	0.000	0.000	0	0	16.667	16.667
2	1.575	1.542	1.633	4255	2185	1.948	100.000	 V 	2	CH4	0.064	11848	12.661	1.106	1.563	0.000	0	0	16.667	16.667
3	2.000	1.949	2.293	2041586	1000898	2.040	400.000	   	3	CO2	0.352	18007	8.330	1.309	7.241	5.462	0	0	66.667	66.667

[Peak Table(Ch2)]
# of Peaks	0

[Peak Table(Ch3)]
# of Peaks	3
Peak#	R.Time	I.Time	F.Time	Area	Height	A/H	Conc.	Mark	ID#	Name	k'	Plate #	Plate Ht.	Tailing	Resolution	Sep.Factor	Area Ratio	Height Ratio	Conc. %	Norm Conc.
1	2.557	2.458	2.660	7234	814	8.886	0.000	   			0.000	2290	65.495	0.000	0.000	0.000	0	0	0.000	0.000
2	2.763	2.660	2.829	4359	496	8.785	0.160	 V 	1	N2O	0.080	261	574.877	0.000	0.457	0.000	0	0	15.953	15.953
3	2.887	2.829	3.265	22964	5113	4.492	0.840	 V 	1	N2O	0.129	11992	12.509	0.000	0.316	1.607	0	0	84.047	84.047

[Compound Results(Ch1)]
# of IDs	6
ID#	Name	R.Time	Area	Height	Conc.	Curve	3rd	2nd	1st	Constant	Area Ratio	Height Ratio	Conc. %	Norm Conc.
1	CO	1.479	14631	6605	100.000	Linear	0.000000e+00	0.000000e+00	1.463111e+002	0.000000e+00	0	0	16.667	16.667
2	CH4	1.575	4255	2185	100.000	Linear	0.000000e+00	0.000000e+00	4.254874e+001	0.000000e+00	0	0	16.667	16.667
3	CO2	2.000	2041586	1000898	400.000	Linear	0.000000e+00	0.000000e+00	5.103964e+003	0.000000e+00	0	0	66.667	66.667
4	Ethylene	0.000	0	0	0.000	Linear	0.000000e+00	0.000000e+00	0.000000e+00	0.000000e+00	0	0	0.000	0.000
5	Acetylene	0.000	0	0	0.000	Linear	0.000000e+00	0.000000e+00	0.000000e+00	0.000000e+00	0	0	0.000	0.000
6	Ethane	0.000	0	0	0.000	Linear	0.000000e+00	0.000000e+00	0.000000e+00	0.000000e+00	0	0	0.000	0.000

[Compound Results(Ch2)]
# of IDs	5
ID#	Name	R.Time	Area	Height	Conc.	Curve	3rd	2nd	1st	Constant	Area Ratio	Height Ratio	Conc. %	Norm Conc.
1	Hydrogen	0.000	0	0	0.000	Linear	0.000000e+00	0.000000e+00	0.000000e+00	0.000000e+00	0	0	0.000	0.000
2	Oxygen	0.000	0	0	0.000	Linear	0.000000e+00	0.000000e+00	0.000000e+00	0.000000e+00	0	0	0.000	0.000
3	Nitrogen	0.000	0	0	0.000	Linear	0.000000e+00	0.000000e+00	0.000000e+00	0.000000e+00	0	0	0.000	0.000
4	Methane	0.000	0	0	0.000	Linear	0.000000e+00	0.000000e+00	0.000000e+00	0.000000e+00	0	0	0.000	0.000
5	Carbon Monoxide	0.000	0	0	0.000	Linear	0.000000e+00	0.000000e+00	0.000000e+00	0.000000e+00	0	0	0.000	0.000

[Compound Results(Ch3)]
# of IDs	2
ID#	Name	R.Time	Area	Height	Conc.	Curve	3rd	2nd	1st	Constant	Area Ratio	Height Ratio	Conc. %	Norm Conc.
1	N2O	2.887	27323	5609	1.000	Linear	0.000000e+00	0.000000e+00	2.732288e+004	0.000000e+00	0	0	100.000	100.000
2	SF6	0.000	0	0	0.000	Linear	0.000000e+00	0.000000e+00	0.000000e+00	0.000000e+00	0	0	0.000	0.000

[Group Results(Ch1)]
# of Groups	0

[Group Results(Ch2)]
# of Groups	0

[Group Results(Ch3)]
# of Groups	0

[Chromatogram (Ch1)]
Interval(msec)	220
# of Points	1091
Start Time(min)	0.002
End Time(min)	3.998
R.Time (min)	Intensity
0.00167	-37
0.00533	-38
0.00900	-31
0.01267	-21
0.01633	-13
0.02000	-10
0.02367	-10
0.02733	-12
0.03100	-14
0.03467	-17
0.03833	-20
0.04200	-20
0.04567	-16
0.04933	-10
0.05300	-3
0.05667	3
0.06033	5
0.06400	2
0.06767	-6
0.07133	-14
0.07500	-24
0.07867	-38
0.08233	-49
0.08600	-55
0.08967	-52
0.09333	-42
0.09700	-33
0.10067	-29
0.10433	-31
0.10800	-34
0.11167	-37
0.11533	-37
0.11900	-35
0.12267	-32
0.12633	-27
0.13000	-22
0.13367	-21
0.13733	-23
0.14100	-26
0.14467	-29
0.14833	-29
0.15200	-30
0.15567	-29
0.15933	-27
0.16300	-23
0.16667	-17
0.17033	-9
0.17400	-3
0.17767	-0
0.18133	-2
0.18500	-8
0.18867	-16
0.19233	-25
0.19600	-30
0.19967	-30
0.20333	-26
0.20700	-18
0.21067	-11
0.21433	-9
0.21800	-14
0.22167	-20
0.22533	-24
0.22900	-21
0.23267	-17
0.23633	-14
0.24000	-15
0.24367	-16
0.24733	-16
0.25100	-18
0.25467	-22
0.25833	-22
0.26200	-19
0.26567	-19
0.26933	-21
0.27300	-20
0.27667	-19
0.28033	-16
0.28400	-15
0.28767	-17
0.29133	-21
0.29500	-27
0.29867	-34
0.30233	-38
0.30600	-38
0.30967	-36
0.31333	-32
0.31700	-26
0.32067	-21
0.32433	-15
0.32800	-11
0.33167	-15
0.33533	-26
0.33900	-35
0.34267	-39
0.34633	-37
0.35000	-33
0.35367	-30
0.35733	-27
0.36100	-22
0.36467	-12
0.36833	-2
0.37200	5
0.37567	4
0.37933	-2
0.38300	-9
0.38667	-17
0.39033	-25
0.39400	-30
0.39767	-32
0.40133	-34
0.40500	-37
0.40867	-37
0.41233	-36
0.41600	-36
0.41967	-37
0.42333	-42
0.42700	-44
0.43067	-45
0.43433	-43
0.43800	-38
0.44167	-32
0.44533	-27
0.44900	-23
0.45267	-18
0.45633	-9
0.46000	5
0.46367	12
0.46733	11
0.47100	-1
0.47467	-21
0.47833	-42
0.48200	-57
0.48567	-64
0.48933	-67
0.49300	-63
0.49667	-58
0.50033	-55
0.50400	-59
0.50767	-64
0.51133	-68
0.51500	-67
0.51867	-64
0.52233	-60
0.52600	-56
0.52967	-54
0.53333	-50
0.53700	-44
0.54067	-37
0.54433	-32
0.54800	-29
0.55167	-28
0.55533	-27
0.55900	-22
0.56267	-16
0.56633	-12
0.57000	-16
0.57367	-26
0.57733	-37
0.58100	-46
0.58467	-54
0.58833	-58
0.59200	-60
0.59567	-61
0.59933	-59
0.60300	-54
0.60667	-50
0.61033	-50
0.61400	-54
0.61767	-58
0.62133	-59
0.62500	-58
0.62867	-55
0.63233	-50
0.63600	-43
0.63967	-38
0.64333	-36
0.64700	-33
0.65067	-32
0.65433	-33
0.65800	-37
0.66167	-41
0.66533	-41
0.66900	-42
0.67267	-46
0.67633	-51
0.68000	-53
0.68367	-50
0.68733	-47
0.69100	-44
0.69467	-40
0.69833	-34
0.70200	-26
0.70567	-20
0.70933	-16
0.71300	-19
0.71667	-30
0.72033	-44
0.72400	-55
0.72767	-63
0.73133	-67
0.73500	-66
0.73867	-62
0.74233	-59
0.74600	-56
0.74967	-54
0.75333	-52
0.75700	-51
0.76067	-48
0.76433	-44
0.76800	-39
0.77167	-38
0.77533	-38
0.77900	-41
0.78267	-46
0.78633	-51
0.79000	-55
0.79367	-60
0.79733	-64
0.80100	-66
0.80467	-63
0.80833	-54
0.81200	-47
0.81567	-47
0.81933	-48
0.82300	-49
0.82667	-51
0.83033	-56
0.83400	-64
0.83767	-72
0.84133	-80
0.84500	-85
0.84867	-86
0.85233	-83
0.85600	-77
0.85967	-72
0.86333	-65
0.86700	-58
0.87067	-52
0.87433	-49
0.87800	-49
0.88167	-50
0.88533	-52
0.88900	-54
0.89267	-57
0.89633	-62
0.90000	-65
0.90367	-68
0.90733	-64
0.91100	-60
0.91467	-56
0.91833	-55
0.92200	-57
0.92567	-59
0.92933	-62
0.93300	-64
0.93667	-63
0.94033	-58
0.94400	-52
0.94767	-52
0.95133	-55
0.95500	-60
0.95867	-64
0.96233	-67
0.96600	-69
0.96967	-70
0.97333	-69
0.97700	-70
0.98067	-72
0.98433	-75
0.98800	-79
0.99167	-79
0.99533	-75
0.99900	-69
1.00267	-65
1.00633	-62
1.01000	-61
1.01367	-61
1.01733	-61
1.02100	-63
1.02467	-66
1.02833	-68
1.03200	-66
1.03567	-61
1.03933	-54
1.04300	-49
1.04667	-48
1.05033	-49
1.05400	-52
1.05767	-58
1.06133	-66
1.06500	-75
1.06867	-79
1.07233	-79
1.07600	-75
1.07967	-71
1.08333	-71
1.08700	-74
1.09067	-81
1.09433	-88
1.09800	-91
1.10167	-90
1.10533	-88
1.10900	-82
1.11267	-76
1.11633	-71
1.12000	-70
1.12367	-75
1.12733	-81
1.13100	-83
1.13467	-81
1.13833	-76
1.14200	-74
1.14567	-73
1.14933	-77
1.15300	-81
1.15667	-86
1.16033	-89
1.16400	-86
1.16767	-81
1.17133	-77
1.17500	-77
1.17867	-78
1.18233	-81
1.18600	-83
1.18967	-81
1.19333	-74
1.19700	-71
1.20067	-75
1.20433	-82
1.20800	-89
1.21167	-93
1.21533	-96
1.21900	-100
1.22267	-100
1.22633	-95
1.23000	-86
1.23367	-80
1.23733	-73
1.24100	-64
1.24467	-55
1.24833	-55
1.25200	-65
1.25567	-77
1.25933	-90
1.26300	-101
1.26667	-109
1.27033	-112
1.27400	-110
1.27767	-103
1.28133	-98
1.28500	-96
1.28867	-95
1.29233	-93
1.29600	-94
1.29967	-99
1.30333	-106
1.30700	-111
1.31067	-112
1.31433	-110
1.31800	-103
1.32167	-96
1.32533	-91
1.32900	-88
1.33267	-85
1.33633	-82
1.34000	-79
1.34367	-79
1.34733	-84
1.35100	-93
1.35467	-103
1.35833	-112
1.36200	-119
1.36567	-125
1.36933	-125
1.37300	-121
1.37667	-116
1.38033	-113
1.38400	-107
1.38767	-100
1.39133	-93
1.39500	-87
1.39867	-84
1.40233	-86
1.40600	-92
1.40967	-97
1.41333	-103
1.41700	-106
1.42067	-105
1.42433	-103
1.42800	-103
1.43167	-105
1.43533	-111
1.43900	-113
1.44267	-87
1.44633	34
1.45000	355
1.45367	920
1.45733	1772
1.46100	2889
1.46467	4085
1.46833	5142
1.47200	5931
1.47567	6397
1.47933	6509
1.48300	6249
1.48667	5641
1.49033	4783
1.49400	3827
1.49767	2919
1.50133	2149
1.50500	1538
1.50867	1071
1.51233	727
1.51600	479
1.51967	302
1.52333	177
1.52700	91
1.53067	28
1.53433	-20
1.53800	-56
1.54167	-71
1.54533	-36
1.54900	106
1.55267	396
1.55633	798
1.56000	1225
1.56367	1598
1.56733	1883
1.57100	2051
1.57467	2069
1.57833	1914
1.58200	1618
1.58567	1254
1.58933	898
1.59300	598
1.59667	367
1.60033	200
1.60400	84
1.60767	6
1.61133	-45
1.61500	-76
1.61867	-94
1.62233	-104
1.62600	-113
1.62967	-122
1.63333	-129
1.63700	-132
1.64067	-132
1.64433	-127
1.64800	-123
1.65167	-124
1.65533	-132
1.65900	-138
1.66267	-139
1.66633	-136
1.67000	-132
1.67367	-130
1.67733	-132
1.68100	-138
1.68467	-143
1.68833	-145
1.69200	-146
1.69567	-145
1.69933	-146
1.70300	-152
1.70667	-157
1.71033	-157
1.71400	-154
1.71767	-152
1.72133	-151
1.72500	-148
1.72867	-143
1.73233	-137
1.73600	-130
1.73967	-126
1.74333	-126
1.74700	-130
1.75067	-136
1.75433	-141
1.75800	-141
1.76167	-138
1.76533	-136
1.76900	-136
1.77267	-136
1.77633	-135
1.78000	-135
1.78367	-134
1.78733	-132
1.79100	-127
1.79467	-122
1.79833	-123
1.80200	-128
1.80567	-132
1.80933	-131
1.81300	-127
1.81667	-128
1.82033	-129
1.82400	-131
1.82767	-132
1.83133	-132
1.83500	-132
1.83867	-133
1.84233	-134
1.84600	-138
1.84967	-140
1.85333	-141
1.85700	-140
1.86067	-139
1.86433	-133
1.86800	-124
1.87167	-117
1.87533	-114
1.87900	-114
1.88267	-118
1.88633	-124
1.89000	-130
1.89367	-135
1.89733	-139
1.90100	-141
1.90467	-141
1.90833	-139
1.91200	-133
1.91567	-128
1.91933	-124
1.92300	-122
1.92667	-119
1.93033	-118
1.93400	-119
1.93767	-124
1.94133	-126
1.94500	-123
1.94867	-118
1.95233	-111
1.95600	-98
1.95967	-6
1.96333	597
1.96700	3625
1.97067	15102
1.97433	48260
1.97800	122050
1.98167	249911
1.98533	425326
1.98900	620536
1.99267	799698
1.99633	933050
2.00000	1000817
2.00367	994838
2.00733	920242
2.01100	794970
2.01467	644667
2.01833	494593
2.02200	362515
2.02567	256578
2.02933	177191
2.03300	120524
2.03667	81419
2.04033	55032
2.04400	37469
2.04767	25855
2.05133	18177
2.05500	13071
2.05867	9635
2.06233	7286
2.06600	5655
2.06967	4497
2.07333	3653
2.07700	3030
2.08067	2562
2.08433	2199
2.08800	1910
2.09167	1676
2.09533	1484
2.09900	1324
2.10267	1190
2.10633	1079
2.11000	989
2.11367	912
2.11733	846
2.12100	788
2.12467	741
2.12833	699
2.13200	659
2.13567	616
2.13933	571
2.14300	528
2.14667	490
2.15033	456
2.15400	429
2.15767	406
2.16133	387
2.16500	372
2.16867	359
2.17233	345
2.17600	332
2.17967	320
2.18333	309
2.18700	298
2.19067	286
2.19433	275
2.19800	266
2.20167	260
2.20533	253
2.20900	244
2.21267	231
2.21633	218
2.22000	211
2.22367	208
2.22733	211
2.23100	214
2.23467	211
2.23833	201
2.24200	188
2.24567	176
2.24933	168
2.25300	163
2.25667	160
2.26033	157
2.26400	153
2.26767	149
2.27133	146
2.27500	145
2.27867	144
2.28233	141
2.28600	135
2.28967	130
2.29333	127
2.29700	125
2.30067	126
2.30433	126
2.30800	126
2.31167	126
2.31533	124
2.31900	120
2.32267	115
2.32633	110
2.33000	105
2.33367	101
2.33733	97
2.34100	92
2.34467	90
2.34833	93
2.35200	102
2.35567	109
2.35933	107
2.36300	98
2.36667	90
2.37033	87
2.37400	84
2.37767	81
2.38133	78
2.38500	75
2.38867	73
2.39233	73
2.39600	73
2.39967	71
2.40333	71
2.40700	74
2.41067	76
2.41433	77
2.41800	79
2.42167	81
2.42533	83
2.42900	84
2.43267	84
2.43633	83
2.44000	81
2.44367	79
2.44733	74
2.45100	69
2.45467	66
2.45833	61
2.46200	55
2.46567	49
2.46933	46
2.47300	45
2.47667	47
2.48033	50
2.48400	50
2.48767	51
2.49133	52
2.49500	53
2.49867	54
2.50233	55
2.50600	55
2.50967	54
2.51333	53
2.51700	51
2.52067	44
2.52433	35
2.52800	27
2.53167	23
2.53533	22
2.53900	21
2.54267	21
2.54633	25
2.55000	30
2.55367	33
2.55733	33
2.56100	30
2.56467	25
2.56833	22
2.57200	20
2.57567	22
2.57933	29
2.58300	36
2.58667	40
2.59033	36
2.59400	29
2.59767	23
2.60133	15
2.60500	8
2.60867	3
2.61233	2
2.61600	5
2.61967	10
2.62333	14
2.62700	19
2.63067	24
2.63433	23
2.63800	23
2.64167	23
2.64533	27
2.64900	33
2.65267	36
2.65633	31
2.66000	23
2.66367	18
2.66733	16
2.67100	15
2.67467	15
2.67833	17
2.68200	20
2.68567	24
2.68933	27
2.69300	28
2.69667	27
2.70033	25
2.70400	23
2.70767	19
2.71133	15
2.71500	14
2.71867	13
2.72233	12
2.72600	13
2.72967	16
2.73333	19
2.73700	22
2.74067	24
2.74433	24
2.74800	25
2.75167	24
2.75533	24
2.75900	24
2.76267	23
2.76633	23
2.77000	25
2.77367	29
2.77733	36
2.78100	42
2.78467	41
2.78833	33
2.79200	24
2.79567	19
2.79933	18
2.80300	19
2.80667	24
2.81033	31
2.81400	37
2.81767	38
2.82133	34
2.82500	26
2.82867	18
2.83233	11
2.83600	10
2.83967	14
2.84333	23
2.84700	30
2.85067	34
2.85433	34
2.85800	32
2.86167	30
2.86533	29
2.86900	30
2.87267	32
2.87633	34
2.88000	36
2.88367	36
2.88733	35
2.89100	34
2.89467	33
2.89833	28
2.90200	23
2.90567	23
2.90933	25
2.91300	27
2.91667	28
2.92033	28
2.92400	25
2.92767	21
2.93133	17
2.93500	17
2.93867	20
2.94233	23
2.94600	26
2.94967	27
2.95333	27
2.95700	29
2.96067	33
2.96433	33
2.96800	30
2.97167	25
2.97533	22
2.97900	19
2.98267	19
2.98633	22
2.99000	26
2.99367	28
2.99733	28
3.00100	26
3.00467	25
3.00833	27
3.01200	28
3.01567	28
3.01933	28
3.02300	31
3.02667	32
3.03033	34
3.03400	36
3.03767	38
3.04133	41
3.04500	42
3.04867	38
3.05233	27
3.05600	20
3.05967	15
3.06333	14
3.06700	14
3.07067	12
3.07433	7
3.07800	0
3.08167	-3
3.08533	-1
3.08900	2
3.09267	4
3.09633	6
3.10000	9
3.10367	10
3.10733	12
3.11100	12
3.11467	12
3.11833	9
3.12200	4
3.12567	-4
3.12933	-11
3.13300	-12
3.13667	-7
3.14033	-0
3.14400	5
3.14767	8
3.15133	12
3.15500	17
3.15867	23
3.16233	25
3.16600	22
3.16967	16
3.17333	11
3.17700	7
3.18067	1
3.18433	-4
3.18800	-3
3.19167	2
3.19533	7
3.19900	10
3.20267	10
3.20633	7
3.21000	2
3.21367	-5
3.21733	-11
3.22100	-12
3.22467	-11
3.22833	-8
3.23200	-8
3.23567	-11
3.23933	-17
3.24300	-21
3.24667	-18
3.25033	-13
3.25400	-8
3.25767	-4
3.26133	-2
3.26500	3
3.26867	6
3.27233	4
3.27600	-3
3.27967	-11
3.28333	-20
3.28700	-23
3.29067	-20
3.29433	-15
3.29800	-11
3.30167	-12
3.30533	-15
3.30900	-19
3.31267	-21
3.31633	-24
3.32000	-26
3.32367	-23
3.32733	-19
3.33100	-17
3.33467	-17
3.33833	-17
3.34200	-19
3.34567	-19
3.34933	-22
3.35300	-21
3.35667	-16
3.36033	-13
3.36400	-14
3.36767	-13
3.37133	-14
3.37500	-18
3.37867	-22
3.38233	-23
3.38600	-23
3.38967	-22
3.39333	-23
3.39700	-25
3.40067	-26
3.40433	-26
3.40800	-24
3.41167	-20
3.41533	-17
3.41900	-14
3.42267	-12
3.42633	-13
3.43000	-15
3.43367	-18
3.43733	-20
3.44100	-23
3.44467	-25
3.44833	-21
3.45200	-17
3.45567	-15
3.45933	-16
3.46300	-16
3.46667	-18
3.47033	-21
3.47400	-22
3.47767	-21
3.48133	-19
3.48500	-16
3.48867	-11
3.49233	-7
3.49600	-9
3.49967	-15
3.50333	-21
3.50700	-26
3.51067	-25
3.51433	-24
3.51800	-25
3.52167	-28
3.52533	-29
3.52900	-30
3.53267	-32
3.53633	-33
3.54000	-32
3.54367	-28
3.54733	-26
3.55100	-26
3.55467	-29
3.55833	-33
3.56200	-32
3.56567	-29
3.56933	-30
3.57300	-33
3.57667	-33
3.58033	-31
3.58400	-28
3.58767	-24
3.59133	-24
3.59500	-24
3.59867	-26
3.60233	-27
3.60600	-26
3.60967	-25
3.61333	-26
3.61700	-28
3.62067	-32
3.62433	-35
3.62800	-36
3.63167	-33
3.63533	-28
3.63900	-20
3.64267	-12
3.64633	-10
3.65000	-16
3.65367	-27
3.65733	-37
3.66100	-38
3.66467	-31
3.66833	-23
3.67200	-22
3.67567	-30
3.67933	-40
3.68300	-48
3.68667	-51
3.69033	-51
3.69400	-48
3.69767	-47
3.70133	-45
3.70500	-43
3.70867	-42
3.71233	-41
3.71600	-43
3.71967	-46
3.72333	-49
3.72700	-48
3.73067	-44
3.73433	-40
3.73800	-33
3.74167	-27
3.74533	-25
3.74900	-24
3.75267	-26
3.75633	-28
3.76000	-27
3.76367	-23
3.76733	-16
3.77100	-11
3.77467	-13
3.77833	-22
3.78200	-31
3.78567	-36
3.78933	-38
3.79300	-39
3.79667	-38
3.80033	-36
3.80400	-33
3.80767	-31
3.81133	-30
3.81500	-29
3.81867	-29
3.82233	-27
3.82600	-22
3.82967	-20
3.83333	-18
3.83700	-14
3.84067	-11
3.84433	-11
3.84800	-14
3.85167	-17
3.85533	-14
3.85900	-10
3.86267	-7
3.86633	-7
3.87000	-8
3.87367	-12
3.87733	-17
3.88100	-20
3.88467	-19
3.88833	-21
3.89200	-24
3.89567	-25
3.89933	-25
3.90300	-25
3.90667	-21
3.91033	-15
3.91400	-14
3.91767	-14
3.92133	-15
3.92500	-15
3.92867	-16
3.93233	-16
3.93600	-10
3.93967	-2
3.94333	4
3.94700	8
3.95067	7
3.95433	3
3.95800	0
3.96167	-3
3.96533	-8
3.96900	-12
3.97267	-17
3.97633	-21
3.98000	-21
3.98367	-18
3.98733	-13
3.99100	-8
3.99467	-5
3.99833	-7

[Chromatogram (Ch2)]
Interval(msec)	220
# of Points	1091
Start Time(min)	0.002
End Time(min)	3.998
R.Time (min)	Intensity
0.00167	1
0.00533	1
0.00900	1
0.01267	1
0.01633	1
0.02000	1
0.02367	1
0.02733	1
0.03100	2
0.03467	2
0.03833	2
0.04200	3
0.04567	3
0.04933	3
0.05300	3
0.05667	3
0.06033	3
0.06400	3
0.06767	3
0.07133	3
0.07500	3
0.07867	3
0.08233	3
0.08600	3
0.08967	3
0.09333	3
0.09700	2
0.10067	2
0.10433	2
0.10800	2
0.11167	1
0.11533	1
0.11900	1
0.12267	1
0.12633	1
0.13000	1
0.13367	1
0.13733	1
0.14100	0
0.14467	0
0.14833	0
0.15200	-0
0.15567	-1
0.15933	-1
0.16300	-2
0.16667	-2
0.17033	-2
0.17400	-3
0.17767	-3
0.18133	-4
0.18500	-4
0.18867	-4
0.19233	-4
0.19600	-4
0.19967	-4
0.20333	-4
0.20700	-4
0.21067	-3
0.21433	-3
0.21800	-3
0.22167	-2
0.22533	-2
0.22900	-1
0.23267	-1
0.23633	-0
0.24000	-0
0.24367	-0
0.24733	-0
0.25100	-0
0.25467	-0
0.25833	-0
0.26200	-0
0.26567	-0
0.26933	-0
0.27300	-0
0.27667	-0
0.28033	0
0.28400	0
0.28767	0
0.29133	1
0.29500	1
0.29867	1
0.30233	1
0.30600	2
0.30967	2
0.31333	2
0.31700	2
0.32067	2
0.32433	2
0.32800	2
0.33167	2
0.33533	2
0.33900	2
0.34267	2
0.34633	2
0.35000	1
0.35367	1
0.35733	0
0.36100	-1
0.36467	-1
0.36833	-1
0.37200	-2
0.37567	-2
0.37933	-2
0.38300	-3
0.38667	-3
0.39033	-3
0.39400	-3
0.39767	-3
0.40133	-3
0.40500	-3
0.40867	-2
0.41233	-2
0.41600	-2
0.41967	-1
0.42333	-1
0.42700	-1
0.43067	-1
0.43433	-1
0.43800	-1
0.44167	-1
0.44533	-1
0.44900	-1
0.45267	-1
0.45633	-2
0.46000	-2
0.46367	-2
0.46733	-3
0.47100	-3
0.47467	-3
0.47833	-3
0.48200	-3
0.48567	-3
0.48933	-4
0.49300	-4
0.49667	-4
0.50033	-4
0.50400	-4
0.50767	-5
0.51133	-5
0.51500	-5
0.51867	-5
0.52233	-5
0.52600	-5
0.52967	-5
0.53333	-5
0.53700	-4
0.54067	-4
0.54433	-4
0.54800	-4
0.55167	-4
0.55533	-4
0.55900	-4
0.56267	-4
0.56633	-3
0.57000	-3
0.57367	-4
0.57733	-4
0.58100	-4
0.58467	-3
0.58833	-3
0.59200	-3
0.59567	-3
0.59933	-3
0.60300	-3
0.60667	-3
0.61033	-3
0.61400	-3
0.61767	-3
0.62133	-3
0.62500	-3
0.62867	-3
0.63233	-3
0.63600	-3
0.63967	-3
0.64333	-3
0.64700	-2
0.65067	-2
0.65433	-2
0.65800	-2
0.66167	-2
0.66533	-1
0.66900	-1
0.67267	-1
0.67633	-1
0.68000	-1
0.68367	-1
0.68733	-1
0.69100	-1
0.69467	-1
0.69833	-1
0.70200	-1
0.70567	-1
0.70933	-1
0.71300	-1
0.71667	-1
0.72033	-1
0.72400	-1
0.72767	-1
0.73133	-1
0.73500	-1
0.73867	-2
0.74233	-1
0.74600	-1
0.74967	-1
0.75333	-1
0.75700	-1
0.76067	-1
0.76433	-1
0.76800	-0
0.77167	-0
0.77533	0
0.77900	0
0.78267	1
0.78633	1
0.79000	1
0.79367	1
0.79733	1
0.80100	1
0.80467	0
0.80833	0
0.81200	0
0.81567	-0
0.81933	-1
0.82300	-1
0.82667	-2
0.83033	-2
0.83400	-3
0.83767	-3
0.84133	-3
0.84500	-3
0.84867	-3
0.85233	-3
0.85600	-3
0.85967	-3
0.86333	-3
0.86700	-3
0.87067	-3
0.87433	-3
0.87800	-3
0.88167	-3
0.88533	-3
0.88900	-3
0.89267	-3
0.89633	-3
0.90000	-3
0.90367	-3
0.90733	-3
0.91100	-3
0.91467	-3
0.91833	-2
0.92200	-2
0.92567	-2
0.92933	-2
0.93300	-2
0.93667	-2
0.94033	-2
0.94400	-2
0.94767	-2
0.95133	-2
0.95500	-2
0.95867	-2
0.96233	-2
0.96600	-1
0.96967	-1
0.97333	-1
0.97700	-1
0.98067	-0
0.98433	-0
0.98800	-0
0.99167	-0
0.99533	-1
0.99900	-1
1.00267	-1
1.00633	-1
1.01000	-1
1.01367	-1
1.01733	-1
1.02100	-1
1.02467	-0
1.02833	-0
1.03200	-0
1.03567	-0
1.03933	-1
1.04300	-1
1.04667	-1
1.05033	-1
1.05400	-1
1.05767	-1
1.06133	-1
1.06500	-1
1.06867	-1
1.07233	-2
1.07600	-2
1.07967	-2
1.08333	-2
1.08700	-2
1.09067	-2
1.09433	-2
1.09800	-2
1.10167	-2
1.10533	-3
1.10900	-3
1.11267	-3
1.11633	-3
1.12000	-3
1.12367	-3
1.12733	-3
1.13100	-3
1.13467	-3
1.13833	-3
1.14200	-4
1.14567	-4
1.14933	-4
1.15300	-5
1.15667	-5
1.16033	-5
1.16400	-6
1.16767	-6
1.17133	-6
1.17500	-6
1.17867	-6
1.18233	-6
1.18600	-6
1.18967	-6
1.19333	-6
1.19700	-6
1.20067	-6
1.20433	-6
1.20800	-6
1.21167	-7
1.21533	-7
1.21900	-7
1.22267	-7
1.22633	-8
1.23000	-8
1.23367	-7
1.23733	-7
1.24100	-7
1.24467	-6
1.24833	-6
1.25200	-6
1.25567	-6
1.25933	-6
1.26300	-6
1.26667	-6
1.27033	-6
1.27400	-6
1.27767	-5
1.28133	-5
1.28500	-5
1.28867	-5
1.29233	-5
1.29600	-5
1.29967	-5
1.30333	-5
1.30700	-4
1.31067	-4
1.31433	-4
1.31800	-3
1.32167	-3
1.32533	-3
1.32900	-3
1.33267	-3
1.33633	-3
1.34000	-3
1.34367	-3
1.34733	-3
1.35100	-2
1.35467	-2
1.35833	-2
1.36200	-2
1.36567	-2
1.36933	-2
1.37300	-2
1.37667	-2
1.38033	-2
1.38400	-2
1.38767	-3
1.39133	-3
1.39500	-3
1.39867	-3
1.40233	-3
1.40600	-3
1.40967	-4
1.41333	-4
1.41700	-4
1.42067	-4
1.42433	-4
1.42800	-4
1.43167	-4
1.43533	-4
1.43900	-4
1.44267	-4
1.44633	-4
1.45000	-4
1.45367	-4
1.45733	-3
1.46100	-3
1.46467	-3
1.46833	-3
1.47200	-2
1.47567	-2
1.47933	-2
1.48300	-2
1.48667	-3
1.49033	-3
1.49400	-3
1.49767	-3
1.50133	-3
1.50500	-3
1.50867	-2
1.51233	-2
1.51600	-2
1.51967	-2
1.52333	-1
1.52700	-1
1.53067	-1
1.53433	-1
1.53800	-1
1.54167	-0
1.54533	-0
1.54900	-0
1.55267	-0
1.55633	-0
1.56000	-0
1.56367	-1
1.56733	-1
1.57100	-2
1.57467	-2
1.57833	-3
1.58200	-3
1.58567	-3
1.58933	-4
1.59300	-5
1.59667	-6
1.60033	-7
1.60400	-8
1.60767	-10
1.61133	-12
1.61500	-14
1.61867	-17
1.62233	-19
1.62600	-23
1.62967	-26
1.63333	-29
1.63700	-32
1.64067	-36
1.64433	-39
1.64800	-42
1.65167	-46
1.65533	-49
1.65900	-53
1.66267	-57
1.66633	-60
1.67000	-65
1.67367	-69
1.67733	-74
1.68100	-79
1.68467	-83
1.68833	-88
1.69200	-92
1.69567	-96
1.69933	-99
1.70300	-102
1.70667	-105
1.71033	-107
1.71400	-109
1.71767	-110
1.72133	-111
1.72500	-112
1.72867	-112
1.73233	-112
1.73600	-112
1.73967	-112
1.74333	-112
1.74700	-112
1.75067	-113
1.75433	-114
1.75800	-115
1.76167	-116
1.76533	-117
1.76900	-117
1.77267	-118
1.77633	-119
1.78000	-120
1.78367	-121
1.78733	-121
1.79100	-122
1.79467	-122
1.79833	-122
1.80200	-122
1.80567	-122
1.80933	-122
1.81300	-122
1.81667	-122
1.82033	-121
1.82400	-121
1.82767	-122
1.83133	-122
1.83500	-122
1.83867	-122
1.84233	-122
1.84600	-122
1.84967	-122
1.85333	-122
1.85700	-121
1.86067	-121
1.86433	-122
1.86800	-122
1.87167	-123
1.87533	-123
1.87900	-123
1.88267	-123
1.88633	-123
1.89000	-123
1.89367	-123
1.89733	-123
1.90100	-122
1.90467	-122
1.90833	-122
1.91200	-122
1.91567	-122
1.91933	-122
1.92300	-121
1.92667	-121
1.93033	-121
1.93400	-121
1.93767	-121
1.94133	-122
1.94500	-122
1.94867	-122
1.95233	-121
1.95600	-121
1.95967	-121
1.96333	-120
1.96700	-120
1.97067	-119
1.97433	-118
1.97800	-118
1.98167	-117
1.98533	-117
1.98900	-116
1.99267	-116
1.99633	-116
2.00000	-116
2.00367	-116
2.00733	-116
2.01100	-116
2.01467	-116
2.01833	-116
2.02200	-115
2.02567	-115
2.02933	-115
2.03300	-115
2.03667	-115
2.04033	-114
2.04400	-114
2.04767	-114
2.05133	-114
2.05500	-113
2.05867	-113
2.06233	-113
2.06600	-112
2.06967	-111
2.07333	-111
2.07700	-111
2.08067	-111
2.08433	-110
2.08800	-110
2.09167	-110
2.09533	-109
2.09900	-109
2.10267	-109
2.10633	-108
2.11000	-108
2.11367	-108
2.11733	-108
2.12100	-108
2.12467	-107
2.12833	-106
2.13200	-105
2.13567	-105
2.13933	-104
2.14300	-104
2.14667	-103
2.15033	-103
2.15400	-103
2.15767	-103
2.16133	-102
2.16500	-102
2.16867	-101
2.17233	-100
2.17600	-100
2.17967	-100
2.18333	-100
2.18700	-100
2.19067	-100
2.19433	-100
2.19800	-100
2.20167	-100
2.20533	-99
2.20900	-99
2.21267	-99
2.21633	-99
2.22000	-98
2.22367	-98
2.22733	-97
2.23100	-97
2.23467	-97
2.23833	-96
2.24200	-96
2.24567	-96
2.24933	-96
2.25300	-97
2.25667	-97
2.26033	-97
2.26400	-97
2.26767	-96
2.27133	-96
2.27500	-95
2.27867	-95
2.28233	-94
2.28600	-94
2.28967	-94
2.29333	-94
2.29700	-94
2.30067	-95
2.30433	-95
2.30800	-96
2.31167	-96
2.31533	-96
2.31900	-96
2.32267	-95
2.32633	-94
2.33000	-93
2.33367	-92
2.33733	-91
2.34100	-90
2.34467	-89
2.34833	-88
2.35200	-87
2.35567	-86
2.35933	-85
2.36300	-84
2.36667	-83
2.37033	-82
2.37400	-80
2.37767	-78
2.38133	-76
2.38500	-73
2.38867	-70
2.39233	-66
2.39600	-62
2.39967	-58
2.40333	-54
2.40700	-49
2.41067	-44
2.41433	-40
2.41800	-36
2.42167	-33
2.42533	-30
2.42900	-27
2.43267	-24
2.43633	-22
2.44000	-20
2.44367	-18
2.44733	-15
2.45100	-13
2.45467	-11
2.45833	-9
2.46200	-8
2.46567	-7
2.46933	-6
2.47300	-5
2.47667	-3
2.48033	-2
2.48400	-0
2.48767	1
2.49133	2
2.49500	3
2.49867	4
2.50233	5
2.50600	5
2.50967	5
2.51333	6
2.51700	6
2.52067	7
2.52433	8
2.52800	8
2.53167	9
2.53533	9
2.53900	10
2.54267	10
2.54633	10
2.55000	10
2.55367	10
2.55733	10
2.56100	11
2.56467	11
2.56833	11
2.57200	11
2.57567	11
2.57933	11
2.58300	11
2.58667	10
2.59033	10
2.59400	10
2.59767	10
2.60133	10
2.60500	10
2.60867	11
2.61233	11
2.61600	12
2.61967	13
2.62333	13
2.62700	14
2.63067	14
2.63433	15
2.63800	15
2.64167	15
2.64533	15
2.64900	15
2.65267	15
2.65633	15
2.66000	15
2.66367	16
2.66733	16
2.67100	16
2.67467	16
2.67833	16
2.68200	16
2.68567	17
2.68933	17
2.69300	17
2.69667	18
2.70033	18
2.70400	19
2.70767	20
2.71133	20
2.71500	21
2.71867	21
2.72233	22
2.72600	22
2.72967	22
2.73333	22
2.73700	22
2.74067	21
2.74433	20
2.74800	20
2.75167	19
2.75533	18
2.75900	18
2.76267	17
2.76633	17
2.77000	17
2.77367	17
2.77733	18
2.78100	18
2.78467	18
2.78833	18
2.79200	19
2.79567	19
2.79933	19
2.80300	19
2.80667	19
2.81033	20
2.81400	20
2.81767	20
2.82133	21
2.82500	21
2.82867	21
2.83233	22
2.83600	22
2.83967	22
2.84333	22
2.84700	21
2.85067	20
2.85433	18
2.85800	14
2.86167	8
2.86533	-1
2.86900	-13
2.87267	-29
2.87633	-49
2.88000	-73
2.88367	-102
2.88733	-134
2.89100	-169
2.89467	-208
2.89833	-250
2.90200	-295
2.90567	-341
2.90933	-389
2.91300	-438
2.91667	-487
2.92033	-537
2.92400	-587
2.92767	-637
2.93133	-685
2.93500	-734
2.93867	-782
2.94233	-832
2.94600	-887
2.94967	-948
2.95333	-1010
2.95700	-1060
2.96067	-1089
2.96433	-1092
2.96800	-1068
2.97167	-1022
2.97533	-960
2.97900	-887
2.98267	-808
2.98633	-728
2.99000	-649
2.99367	-574
2.99733	-504
3.00100	-440
3.00467	-382
3.00833	-330
3.01200	-284
3.01567	-244
3.01933	-208
3.02300	-177
3.02667	-150
3.03033	-127
3.03400	-107
3.03767	-90
3.04133	-75
3.04500	-63
3.04867	-52
3.05233	-43
3.05600	-35
3.05967	-28
3.06333	-22
3.06700	-17
3.07067	-13
3.07433	-9
3.07800	-6
3.08167	-3
3.08533	-1
3.08900	1
3.09267	2
3.09633	4
3.10000	5
3.10367	5
3.10733	6
3.11100	7
3.11467	8
3.11833	8
3.12200	9
3.12567	10
3.12933	11
3.13300	11
3.13667	11
3.14033	11
3.14400	12
3.14767	12
3.15133	12
3.15500	12
3.15867	12
3.16233	13
3.16600	13
3.16967	13
3.17333	13
3.17700	13
3.18067	14
3.18433	14
3.18800	14
3.19167	14
3.19533	15
3.19900	15
3.20267	15
3.20633	15
3.21000	16
3.21367	16
3.21733	16
3.22100	17
3.22467	17
3.22833	18
3.23200	18
3.23567	18
3.23933	19
3.24300	19
3.24667	19
3.25033	19
3.25400	20
3.25767	20
3.26133	20
3.26500	20
3.26867	20
3.27233	21
3.27600	21
3.27967	21
3.28333	21
3.28700	22
3.29067	22
3.29433	23
3.29800	23
3.30167	23
3.30533	24
3.30900	24
3.31267	24
3.31633	24
3.32000	24
3.32367	24
3.32733	24
3.33100	24
3.33467	24
3.33833	24
3.34200	24
3.34567	24
3.34933	24
3.35300	24
3.35667	24
3.36033	24
3.36400	24
3.36767	24
3.37133	23
3.37500	23
3.37867	23
3.38233	23
3.38600	22
3.38967	22
3.39333	22
3.39700	22
3.40067	22
3.40433	22
3.40800	22
3.41167	22
3.41533	23
3.41900	23
3.42267	23
3.42633	24
3.43000	24
3.43367	24
3.43733	24
3.44100	24
3.44467	24
3.44833	24
3.45200	24
3.45567	24
3.45933	24
3.46300	24
3.46667	24
3.47033	24
3.47400	24
3.47767	24
3.48133	24
3.48500	24
3.48867	24
3.49233	24
3.49600	24
3.49967	24
3.50333	24
3.50700	24
3.51067	24
3.51433	24
3.51800	24
3.52167	23
3.52533	23
3.52900	23
3.53267	22
3.53633	22
3.54000	22
3.54367	22
3.54733	22
3.55100	22
3.55467	22
3.55833	22
3.56200	22
3.56567	22
3.56933	23
3.57300	23
3.57667	23
3.58033	22
3.58400	22
3.58767	22
3.59133	22
3.59500	22
3.59867	22
3.60233	22
3.60600	22
3.60967	22
3.61333	22
3.61700	22
3.62067	22
3.62433	22
3.62800	21
3.63167	21
3.63533	21
3.63900	21
3.64267	21
3.64633	21
3.65000	20
3.65367	20
3.65733	20
3.66100	20
3.66467	20
3.66833	20
3.67200	20
3.67567	21
3.67933	21
3.68300	21
3.68667	21
3.69033	22
3.69400	22
3.69767	22
3.70133	22
3.70500	22
3.70867	22
3.71233	22
3.71600	22
3.71967	22
3.72333	22
3.72700	22
3.73067	23
3.73433	23
3.73800	23
3.74167	23
3.74533	23
3.74900	23
3.75267	23
3.75633	23
3.76000	22
3.76367	22
3.76733	22
3.77100	22
3.77467	22
3.77833	22
3.78200	22
3.78567	22
3.78933	22
3.79300	22
3.79667	22
3.80033	22
3.80400	22
3.80767	22
3.81133	22
3.81500	23
3.81867	23
3.82233	23
3.82600	23
3.82967	23
3.83333	23
3.83700	23
3.84067	23
3.84433	23
3.84800	23
3.85167	23
3.85533	23
3.85900	24
3.86267	24
3.86633	24
3.87000	24
3.87367	25
3.87733	25
3.88100	25
3.88467	25
3.88833	25
3.89200	25
3.89567	25
3.89933	25
3.90300	25
3.90667	25
3.91033	25
3.91400	25
3.91767	25
3.92133	25
3.92500	25
3.92867	25
3.93233	25
3.93600	25
3.93967	25
3.94333	25
3.94700	25
3.95067	25
3.95433	25
3.95800	25
3.96167	25
3.96533	25
3.96900	25
3.97267	25
3.97633	25
3.98000	25
3.98367	26
3.98733	26
3.99100	26
3.99467	26
3.99833	26

[Chromatogram (Ch3)]
Interval(msec)	220
# of Points	1091
Start Time(min)	0.002
End Time(min)	3.998
R.Time (min)	Intensity
0.00167	0
0.00533	1
0.00900	3
0.01267	4
0.01633	3
0.02000	2
0.02367	-0
0.02733	1
0.03100	4
0.03467	5
0.03833	5
0.04200	5
0.04567	7
0.04933	8
0.05300	7
0.05667	7
0.06033	8
0.06400	8
0.06767	7
0.07133	7
0.07500	7
0.07867	4
0.08233	2
0.08600	1
0.08967	3
0.09333	5
0.09700	7
0.10067	9
0.10433	11
0.10800	15
0.11167	17
0.11533	15
0.11900	13
0.12267	9
0.12633	6
0.13000	5
0.13367	6
0.13733	8
0.14100	9
0.14467	11
0.14833	12
0.15200	13
0.15567	14
0.15933	16
0.16300	17
0.16667	18
0.17033	17
0.17400	16
0.17767	14
0.18133	14
0.18500	14
0.18867	14
0.19233	13
0.19600	15
0.19967	14
0.20333	13
0.20700	14
0.21067	15
0.21433	18
0.21800	18
0.22167	16
0.22533	13
0.22900	13
0.23267	12
0.23633	11
0.24000	11
0.24367	12
0.24733	13
0.25100	14
0.25467	14
0.25833	14
0.26200	16
0.26567	17
0.26933	17
0.27300	17
0.27667	16
0.28033	17
0.28400	16
0.28767	18
0.29133	20
0.29500	21
0.29867	21
0.30233	22
0.30600	22
0.30967	20
0.31333	18
0.31700	16
0.32067	18
0.32433	20
0.32800	21
0.33167	21
0.33533	19
0.33900	18
0.34267	19
0.34633	22
0.35000	25
0.35367	24
0.35733	24
0.36100	23
0.36467	22
0.36833	21
0.37200	23
0.37567	24
0.37933	24
0.38300	22
0.38667	22
0.39033	22
0.39400	23
0.39767	25
0.40133	25
0.40500	24
0.40867	23
0.41233	25
0.41600	24
0.41967	25
0.42333	25
0.42700	25
0.43067	26
0.43433	26
0.43800	26
0.44167	26
0.44533	28
0.44900	30
0.45267	31
0.45633	32
0.46000	30
0.46367	29
0.46733	29
0.47100	28
0.47467	26
0.47833	26
0.48200	26
0.48567	25
0.48933	24
0.49300	22
0.49667	23
0.50033	25
0.50400	27
0.50767	28
0.51133	30
0.51500	32
0.51867	33
0.52233	34
0.52600	35
0.52967	34
0.53333	33
0.53700	33
0.54067	33
0.54433	33
0.54800	34
0.55167	34
0.55533	34
0.55900	32
0.56267	33
0.56633	34
0.57000	36
0.57367	39
0.57733	42
0.58100	45
0.58467	47
0.58833	45
0.59200	43
0.59567	43
0.59933	41
0.60300	43
0.60667	43
0.61033	44
0.61400	44
0.61767	42
0.62133	41
0.62500	41
0.62867	43
0.63233	43
0.63600	44
0.63967	42
0.64333	43
0.64700	46
0.65067	48
0.65433	49
0.65800	49
0.66167	50
0.66533	48
0.66900	48
0.67267	50
0.67633	50
0.68000	48
0.68367	47
0.68733	46
0.69100	46
0.69467	46
0.69833	44
0.70200	43
0.70567	43
0.70933	42
0.71300	43
0.71667	43
0.72033	44
0.72400	44
0.72767	43
0.73133	41
0.73500	41
0.73867	43
0.74233	48
0.74600	49
0.74967	49
0.75333	49
0.75700	49
0.76067	46
0.76433	43
0.76800	42
0.77167	42
0.77533	41
0.77900	40
0.78267	41
0.78633	43
0.79000	43
0.79367	45
0.79733	44
0.80100	43
0.80467	42
0.80833	42
0.81200	41
0.81567	41
0.81933	40
0.82300	40
0.82667	41
0.83033	43
0.83400	45
0.83767	47
0.84133	48
0.84500	48
0.84867	49
0.85233	50
0.85600	49
0.85967	47
0.86333	45
0.86700	45
0.87067	45
0.87433	46
0.87800	47
0.88167	47
0.88533	48
0.88900	48
0.89267	48
0.89633	49
0.90000	49
0.90367	49
0.90733	48
0.91100	49
0.91467	50
0.91833	48
0.92200	46
0.92567	45
0.92933	46
0.93300	46
0.93667	48
0.94033	50
0.94400	51
0.94767	52
0.95133	52
0.95500	51
0.95867	53
0.96233	56
0.96600	59
0.96967	61
0.97333	60
0.97700	59
0.98067	57
0.98433	52
0.98800	51
0.99167	54
0.99533	59
0.99900	62
1.00267	61
1.00633	61
1.01000	60
1.01367	60
1.01733	61
1.02100	60
1.02467	60
1.02833	58
1.03200	57
1.03567	57
1.03933	57
1.04300	57
1.04667	57
1.05033	57
1.05400	58
1.05767	58
1.06133	58
1.06500	57
1.06867	60
1.07233	62
1.07600	61
1.07967	62
1.08333	65
1.08700	64
1.09067	63
1.09433	63
1.09800	62
1.10167	61
1.10533	61
1.10900	62
1.11267	61
1.11633	61
1.12000	61
1.12367	60
1.12733	61
1.13100	61
1.13467	62
1.13833	61
1.14200	63
1.14567	65
1.14933	66
1.15300	66
1.15667	66
1.16033	65
1.16400	65
1.16767	64
1.17133	62
1.17500	63
1.17867	61
1.18233	61
1.18600	61
1.18967	61
1.19333	64
1.19700	66
1.20067	68
1.20433	68
1.20800	67
1.21167	68
1.21533	72
1.21900	73
1.22267	72
1.22633	72
1.23000	72
1.23367	73
1.23733	72
1.24100	70
1.24467	71
1.24833	74
1.25200	76
1.25567	77
1.25933	77
1.26300	76
1.26667	75
1.27033	75
1.27400	78
1.27767	80
1.28133	80
1.28500	82
1.28867	82
1.29233	80
1.29600	76
1.29967	74
1.30333	74
1.30700	74
1.31067	75
1.31433	75
1.31800	76
1.32167	77
1.32533	78
1.32900	78
1.33267	78
1.33633	77
1.34000	77
1.34367	75
1.34733	74
1.35100	76
1.35467	76
1.35833	77
1.36200	78
1.36567	78
1.36933	78
1.37300	78
1.37667	80
1.38033	81
1.38400	81
1.38767	81
1.39133	84
1.39500	86
1.39867	88
1.40233	90
1.40600	90
1.40967	89
1.41333	89
1.41700	89
1.42067	88
1.42433	89
1.42800	90
1.43167	91
1.43533	92
1.43900	92
1.44267	92
1.44633	92
1.45000	92
1.45367	91
1.45733	90
1.46100	90
1.46467	89
1.46833	88
1.47200	86
1.47567	87
1.47933	90
1.48300	92
1.48667	92
1.49033	90
1.49400	88
1.49767	86
1.50133	87
1.50500	89
1.50867	89
1.51233	86
1.51600	83
1.51967	82
1.52333	82
1.52700	85
1.53067	87
1.53433	89
1.53800	90
1.54167	90
1.54533	91
1.54900	93
1.55267	95
1.55633	95
1.56000	94
1.56367	94
1.56733	93
1.57100	89
1.57467	86
1.57833	86
1.58200	87
1.58567	89
1.58933	90
1.59300	89
1.59667	87
1.60033	87
1.60400	89
1.60767	91
1.61133	92
1.61500	91
1.61867	90
1.62233	90
1.62600	91
1.62967	94
1.63333	97
1.63700	99
1.64067	98
1.64433	97
1.64800	96
1.65167	97
1.65533	98
1.65900	99
1.66267	98
1.66633	97
1.67000	98
1.67367	100
1.67733	102
1.68100	104
1.68467	108
1.68833	110
1.69200	112
1.69567	113
1.69933	115
1.70300	117
1.70667	118
1.71033	117
1.71400	118
1.71767	118
1.72133	117
1.72500	119
1.72867	120
1.73233	118
1.73600	116
1.73967	116
1.74333	120
1.74700	123
1.75067	123
1.75433	124
1.75800	125
1.76167	129
1.76533	132
1.76900	135
1.77267	135
1.77633	135
1.78000	136
1.78367	134
1.78733	131
1.79100	130
1.79467	131
1.79833	135
1.80200	139
1.80567	140
1.80933	140
1.81300	142
1.81667	141
1.82033	141
1.82400	143
1.82767	145
1.83133	145
1.83500	145
1.83867	144
1.84233	144
1.84600	144
1.84967	143
1.85333	144
1.85700	146
1.86067	148
1.86433	149
1.86800	148
1.87167	148
1.87533	147
1.87900	146
1.88267	146
1.88633	147
1.89000	147
1.89367	147
1.89733	148
1.90100	149
1.90467	149
1.90833	150
1.91200	151
1.91567	151
1.91933	151
1.92300	153
1.92667	155
1.93033	157
1.93400	160
1.93767	163
1.94133	164
1.94500	164
1.94867	164
1.95233	164
1.95600	163
1.95967	164
1.96333	167
1.96700	168
1.97067	169
1.97433	167
1.97800	167
1.98167	168
1.98533	169
1.98900	171
1.99267	172
1.99633	171
2.00000	171
2.00367	171
2.00733	172
2.01100	175
2.01467	179
2.01833	181
2.02200	183
2.02567	183
2.02933	183
2.03300	185
2.03667	187
2.04033	191
2.04400	194
2.04767	194
2.05133	195
2.05500	198
2.05867	199
2.06233	201
2.06600	201
2.06967	203
2.07333	204
2.07700	202
2.08067	199
2.08433	199
2.08800	201
2.09167	203
2.09533	206
2.09900	208
2.10267	209
2.10633	212
2.11000	214
2.11367	217
2.11733	220
2.12100	223
2.12467	226
2.12833	228
2.13200	230
2.13567	232
2.13933	234
2.14300	235
2.14667	238
2.15033	241
2.15400	242
2.15767	242
2.16133	244
2.16500	246
2.16867	246
2.17233	248
2.17600	252
2.17967	256
2.18333	257
2.18700	257
2.19067	258
2.19433	260
2.19800	262
2.20167	262
2.20533	261
2.20900	264
2.21267	264
2.21633	263
2.22000	266
2.22367	269
2.22733	269
2.23100	271
2.23467	274
2.23833	277
2.24200	279
2.24567	279
2.24933	279
2.25300	281
2.25667	282
2.26033	284
2.26400	286
2.26767	284
2.27133	283
2.27500	281
2.27867	282
2.28233	283
2.28600	286
2.28967	287
2.29333	290
2.29700	289
2.30067	291
2.30433	293
2.30800	293
2.31167	293
2.31533	295
2.31900	298
2.32267	301
2.32633	304
2.33000	305
2.33367	304
2.33733	303
2.34100	302
2.34467	303
2.34833	307
2.35200	309
2.35567	308
2.35933	308
2.36300	307
2.36667	307
2.37033	308
2.37400	310
2.37767	310
2.38133	310
2.38500	309
2.38867	309
2.39233	310
2.39600	310
2.39967	307
2.40333	306
2.40700	308
2.41067	309
2.41433	310
2.41800	313
2.42167	317
2.42533	318
2.42900	319
2.43267	318
2.43633	319
2.44000	321
2.44367	322
2.44733	304
2.45100	272
2.45467	255
2.45833	263
2.46200	299
2.46567	351
2.46933	416
2.47300	486
2.47667	555
2.48033	619
2.48400	678
2.48767	730
2.49133	778
2.49500	821
2.49867	859
2.50233	892
2.50600	921
2.50967	951
2.51333	975
2.51700	993
2.52067	1010
2.52433	1028
2.52800	1043
2.53167	1057
2.53533	1068
2.53900	1076
2.54267	1082
2.54633	1085
2.55000	1090
2.55367	1094
2.55733	1097
2.56100	1098
2.56467	1096
2.56833	1096
2.57200	1094
2.57567	1089
2.57933	1084
2.58300	1079
2.58667	1074
2.59033	1069
2.59400	1063
2.59767	1056
2.60133	1048
2.60500	1035
2.60867	1018
2.61233	993
2.61600	959
2.61967	918
2.62333	872
2.62700	827
2.63067	784
2.63433	744
2.63800	706
2.64167	676
2.64533	652
2.64900	633
2.65267	621
2.65633	613
2.66000	609
2.66367	610
2.66733	615
2.67100	620
2.67467	627
2.67833	634
2.68200	643
2.68567	649
2.68933	656
2.69300	666
2.69667	679
2.70033	690
2.70400	697
2.70767	706
2.71133	715
2.71500	723
2.71867	732
2.72233	741
2.72600	752
2.72967	764
2.73333	775
2.73700	785
2.74067	791
2.74433	796
2.74800	802
2.75167	808
2.75533	814
2.75900	818
2.76267	821
2.76633	821
2.77000	820
2.77367	818
2.77733	817
2.78100	817
2.78467	817
2.78833	819
2.79200	819
2.79567	816
2.79933	812
2.80300	808
2.80667	803
2.81033	799
2.81400	795
2.81767	793
2.82133	789
2.82500	786
2.82867	782
2.83233	786
2.83600	803
2.83967	846
2.84333	931
2.84700	1083
2.85067	1322
2.85433	1659
2.85800	2097
2.86167	2620
2.86533	3194
2.86900	3784
2.87267	4342
2.87633	4815
2.88000	5171
2.88367	5389
2.88733	5462
2.89100	5405
2.89467	5238
2.89833	4984
2.90200	4676
2.90567	4338
2.90933	3985
2.91300	3637
2.91667	3305
2.92033	2999
2.92400	2715
2.92767	2457
2.93133	2227
2.93500	2022
2.93867	1841
2.94233	1681
2.94600	1540
2.94967	1419
2.95333	1314
2.95700	1221
2.96067	1139
2.96433	1066
2.96800	1005
2.97167	952
2.97533	906
2.97900	867
2.98267	833
2.98633	802
2.99000	773
2.99367	752
2.99733	730
3.00100	711
3.00467	695
3.00833	680
3.01200	664
3.01567	652
3.01933	641
3.02300	631
3.02667	625
3.03033	621
3.03400	617
3.03767	611
3.04133	606
3.04500	601
3.04867	596
3.05233	590
3.05600	585
3.05967	580
3.06333	575
3.06700	573
3.07067	573
3.07433	572
3.07800	570
3.08167	566
3.08533	559
3.08900	555
3.09267	554
3.09633	551
3.10000	545
3.10367	543
3.10733	539
3.11100	534
3.11467	532
3.11833	529
3.12200	526
3.12567	524
3.12933	522
3.13300	522
3.13667	521
3.14033	519
3.14400	513
3.14767	506
3.15133	502
3.15500	500
3.15867	496
3.16233	494
3.16600	492
3.16967	492
3.17333	491
3.17700	489
3.18067	484
3.18433	480
3.18800	479
3.19167	476
3.19533	471
3.19900	468
3.20267	467
3.20633	465
3.21000	462
3.21367	456
3.21733	449
3.22100	446
3.22467	445
3.22833	443
3.23200	442
3.23567	440
3.23933	436
3.24300	432
3.24667	430
3.25033	429
3.25400	429
3.25767	427
3.26133	426
3.26500	425
3.26867	423
3.27233	419
3.27600	417
3.27967	415
3.28333	413
3.28700	411
3.29067	407
3.29433	402
3.29800	399
3.30167	397
3.30533	395
3.30900	393
3.31267	390
3.31633	387
3.32000	382
3.32367	377
3.32733	376
3.33100	375
3.33467	370
3.33833	363
3.34200	358
3.34567	353
3.34933	349
3.35300	346
3.35667	342
3.36033	340
3.36400	340
3.36767	338
3.37133	334
3.37500	328
3.37867	322
3.38233	318
3.38600	319
3.38967	318
3.39333	314
3.39700	312
3.40067	309
3.40433	306
3.40800	305
3.41167	302
3.41533	299
3.41900	296
3.42267	294
3.42633	292
3.43000	289
3.43367	284
3.43733	280
3.44100	275
3.44467	274
3.44833	272
3.45200	271
3.45567	269
3.45933	266
3.46300	264
3.46667	261
3.47033	257
3.47400	254
3.47767	253
3.48133	251
3.48500	249
3.48867	246
3.49233	244
3.49600	242
3.49967	242
3.50333	241
3.50700	238
3.51067	238
3.51433	236
3.51800	233
3.52167	231
3.52533	229
3.52900	228
3.53267	227
3.53633	224
3.54000	220
3.54367	218
3.54733	219
3.55100	219
3.55467	219
3.55833	219
3.56200	218
3.56567	219
3.56933	217
3.57300	214
3.57667	209
3.58033	207
3.58400	206
3.58767	204
3.59133	202
3.59500	198
3.59867	197
3.60233	196
3.60600	198
3.60967	198
3.61333	197
3.61700	193
3.62067	188
3.62433	185
3.62800	182
3.63167	183
3.63533	184
3.63900	184
3.64267	183
3.64633	181
3.65000	178
3.65367	176
3.65733	174
3.66100	173
3.66467	174
3.66833	176
3.67200	176
3.67567	173
3.67933	169
3.68300	165
3.68667	164
3.69033	163
3.69400	162
3.69767	164
3.70133	163
3.70500	161
3.70867	157
3.71233	154
3.71600	152
3.71967	153
3.72333	153
3.72700	151
3.73067	149
3.73433	149
3.73800	148
3.74167	148
3.74533	148
3.74900	146
3.75267	145
3.75633	144
3.76000	144
3.76367	146
3.76733	148
3.77100	149
3.77467	147
3.77833	144
3.78200	141
3.78567	141
3.78933	141
3.79300	141
3.79667	139
3.80033	138
3.80400	137
3.80767	135
3.81133	134
3.81500	133
3.81867	130
3.82233	129
3.82600	128
3.82967	128
3.83333	130
3.83700	130
3.84067	129
3.84433	128
3.84800	126
3.85167	123
3.85533	120
3.85900	117
3.86267	117
3.86633	116
3.87000	117
3.87367	116
3.87733	116
3.88100	117
3.88467	116
3.88833	117
3.89200	117
3.89567	116
3.89933	114
3.90300	112
3.90667	111
3.91033	113
3.91400	114
3.91767	113
3.92133	111
3.92500	110
3.92867	109
3.93233	109
3.93600	107
3.93967	104
3.94333	103
3.94700	103
3.95067	103
3.95433	102
3.95800	98
3.96167	95
3.96533	96
3.96900	96
3.97267	95
3.97633	94
3.98000	93
3.98367	94
3.98733	97
3.99100	99
3.99467	98
3.99833	99

[Status Trace (Column Oven Temperature)]
Interval(msec)	1000
# of Points	240
Start Time(min)	0.006
End Time(min)	3.989
Intensity Units	
Intensity Multiplier	1
R.Time (min)	Intensity
0.00587	35.00
0.02253	34.99
0.03920	34.99
0.05587	34.98
0.07253	34.97
0.08920	34.97
0.10587	34.97
0.12253	34.98
0.13920	34.98
0.15587	35.00
0.17253	35.01
0.18920	35.02
0.20587	35.02
0.22253	35.02
0.23920	35.01
0.25587	35.01
0.27253	35.01
0.28920	34.99
0.30587	34.98
0.32253	34.97
0.33920	34.96
0.35587	34.97
0.37253	34.97
0.38920	34.99
0.40587	34.99
0.42253	34.98
0.43920	34.98
0.45587	34.99
0.47253	34.99
0.48920	35.00
0.50587	35.02
0.52253	35.04
0.53920	35.04
0.55587	35.04
0.57253	35.04
0.58920	35.04
0.60587	35.04
0.62253	35.04
0.63920	35.04
0.65587	35.04
0.67253	35.03
0.68920	35.03
0.70587	35.02
0.72253	35.02
0.73920	35.02
0.75587	35.00
0.77253	35.00
0.78920	35.00
0.80587	34.99
0.82253	35.00
0.83920	35.00
0.85587	35.01
0.87253	35.01
0.88920	35.01
0.90587	35.01
0.92253	35.00
0.93920	35.00
0.95587	34.99
0.97253	34.98
0.98920	34.97
1.00587	34.97
1.02253	34.97
1.03920	34.96
1.05587	34.96
1.07253	34.96
1.08920	34.97
1.10587	34.97
1.12253	34.98
1.13920	34.98
1.15587	35.00
1.17253	35.02
1.18920	35.02
1.20587	35.03
1.22253	35.05
1.23920	35.05
1.25587	35.06
1.27253	35.06
1.28920	35.07
1.30587	35.06
1.32253	35.06
1.33920	35.05
1.35587	35.04
1.37253	35.03
1.38920	35.02
1.40587	35.01
1.42253	35.01
1.43920	35.00
1.45587	35.01
1.47253	35.01
1.48920	35.00
1.50587	34.99
1.52253	34.97
1.53920	34.96
1.55587	34.96
1.57253	34.96
1.58920	34.98
1.60587	35.05
1.62253	35.17
1.63920	35.36
1.65587	35.60
1.67253	35.93
1.68920	36.30
1.70587	36.66
1.72253	36.98
1.73920	37.28
1.75587	37.61
1.77253	37.95
1.78920	38.29
1.80587	38.62
1.82253	38.95
1.83920	39.27
1.85587	39.58
1.87253	39.93
1.88920	40.26
1.90587	40.58
1.92253	40.91
1.93920	41.23
1.95587	41.57
1.97253	41.88
1.98920	42.21
2.00587	42.54
2.02253	42.86
2.03920	43.20
2.05587	43.53
2.07253	43.87
2.08920	44.18
2.10587	44.52
2.12253	44.83
2.13920	45.15
2.15587	45.49
2.17253	45.80
2.18920	46.14
2.20587	46.46
2.22253	46.79
2.23920	47.11
2.25587	47.45
2.27253	47.77
2.28920	48.10
2.30587	48.47
2.32253	48.81
2.33920	49.12
2.35587	49.41
2.37253	49.62
2.38920	49.71
2.40587	49.71
2.42253	49.71
2.43920	49.72
2.45587	49.72
2.47253	49.72
2.48920	49.72
2.50587	49.75
2.52253	49.75
2.53920	49.77
2.55587	49.78
2.57253	49.79
2.58920	49.82
2.60587	49.83
2.62253	49.83
2.63920	49.83
2.65587	49.85
2.67253	49.87
2.68920	49.88
2.70587	49.86
2.72253	49.84
2.73920	49.87
2.75587	49.89
2.77253	49.90
2.78920	49.91
2.80587	49.91
2.82253	49.91
2.83920	49.91
2.85587	49.92
2.87253	49.91
2.88920	49.92
2.90587	49.93
2.92253	49.94
2.93920	49.96
2.95587	49.99
2.97253	50.01
2.98920	50.03
3.00587	50.04
3.02253	50.04
3.03920	50.05
3.05587	50.04
3.07253	50.03
3.08920	50.04
3.10587	50.04
3.12253	50.04
3.13920	50.05
3.15587	50.07
3.17253	50.09
3.18920	50.10
3.20587	50.10
3.22253	50.11
3.23920	50.10
3.25587	50.09
3.27253	50.09
3.28920	50.07
3.30587	50.06
3.32253	50.04
3.33920	50.03
3.35587	50.02
3.37253	50.03
3.38920	50.04
3.40587	50.03
3.42253	50.02
3.43920	50.01
3.45587	50.02
3.47253	50.01
3.48920	50.01
3.50587	50.00
3.52253	50.01
3.53920	50.02
3.55587	50.02
3.57253	50.03
3.58920	50.03
3.60587	50.04
3.62253	50.04
3.63920	50.06
3.65587	50.07
3.67253	50.08
3.68920	50.09
3.70587	50.09
3.72253	50.08
3.73920	50.08
3.75587	50.09
3.77253	50.10
3.78920	50.10
3.80587	50.10
3.82253	50.09
3.83920	50.09
3.85587	50.08
3.87253	50.07
3.88920	50.07
3.90587	50.06
3.92253	50.05
3.93920	50.06
3.95587	50.05
3.97253	50.04
3.98920	50.02

[Status Trace (Injection Unit Temperature)]
Interval(msec)	1000
# of Points	240
Start Time(min)	0.006
End Time(min)	3.989
Intensity Units	
Intensity Multiplier	1
R.Time (min)	Intensity
0.00587	99.98
0.02253	99.98
0.03920	99.98
0.05587	99.99
0.07253	99.99
0.08920	99.98
0.10587	99.98
0.12253	99.98
0.13920	99.99
0.15587	99.98
0.17253	99.98
0.18920	99.98
0.20587	99.99
0.22253	99.98
0.23920	99.99
0.25587	99.98
0.27253	99.98
0.28920	99.98
0.30587	99.98
0.32253	99.98
0.33920	99.99
0.35587	99.98
0.37253	99.98
0.38920	99.98
0.40587	99.98
0.42253	99.99
0.43920	99.98
0.45587	99.99
0.47253	99.98
0.48920	99.99
0.50587	99.99
0.52253	99.99
0.53920	99.99
0.55587	99.99
0.57253	99.98
0.58920	99.99
0.60587	99.99
0.62253	99.98
0.63920	99.98
0.65587	99.98
0.67253	99.98
0.68920	99.99
0.70587	99.99
0.72253	99.99
0.73920	99.99
0.75587	99.99
0.77253	99.99
0.78920	99.99
0.80587	99.99
0.82253	99.99
0.83920	99.99
0.85587	99.99
0.87253	99.99
0.88920	99.98
0.90587	99.99
0.92253	99.99
0.93920	99.99
0.95587	99.98
0.97253	99.98
0.98920	99.99
1.00587	99.99
1.02253	99.99
1.03920	99.98
1.05587	99.99
1.07253	99.98
1.08920	99.99
1.10587	99.99
1.12253	99.99
1.13920	99.98
1.15587	99.98
1.17253	99.98
1.18920	99.99
1.20587	99.98
1.22253	99.98
1.23920	99.98
1.25587	99.98
1.27253	99.98
1.28920	99.98
1.30587	99.98
1.32253	99.98
1.33920	99.98
1.35587	99.98
1.37253	99.98
1.38920	99.98
1.40587	99.98
1.42253	99.99
1.43920	99.98
1.45587	99.99
1.47253	99.99
1.48920	99.98
1.50587	99.98
1.52253	99.98
1.53920	99.98
1.55587	99.98
1.57253	99.98
1.58920	99.98
1.60587	99.99
1.62253	99.98
1.63920	99.99
1.65587	99.99
1.67253	99.98
1.68920	99.98
1.70587	99.98
1.72253	99.98
1.73920	99.99
1.75587	99.99
1.77253	99.98
1.78920	99.98
1.80587	99.99
1.82253	99.98
1.83920	99.98
1.85587	99.98
1.87253	99.98
1.88920	99.98
1.90587	99.98
1.92253	99.98
1.93920	99.98
1.95587	99.98
1.97253	99.98
1.98920	99.98
2.00587	99.98
2.02253	99.98
2.03920	99.98
2.05587	99.98
2.07253	99.98
2.08920	99.98
2.10587	99.98
2.12253	99.97
2.13920	99.97
2.15587	99.97
2.17253	99.97
2.18920	99.97
2.20587	99.97
2.22253	99.97
2.23920	99.97
2.25587	99.97
2.27253	99.97
2.28920	99.97
2.30587	99.97
2.32253	99.97
2.33920	99.97
2.35587	99.97
2.37253	99.97
2.38920	99.97
2.40587	99.97
2.42253	99.97
2.43920	99.97
2.45587	99.97
2.47253	99.97
2.48920	99.97
2.50587	99.97
2.52253	99.98
2.53920	99.97
2.55587	99.97
2.57253	99.98
2.58920	99.98
2.60587	99.98
2.62253	99.98
2.63920	99.98
2.65587	99.98
2.67253	99.99
2.68920	99.99
2.70587	99.98
2.72253	99.99
2.73920	99.99
2.75587	99.99
2.77253	100.00
2.78920	100.00
2.80587	100.00
2.82253	100.00
2.83920	100.00
2.85587	100.00
2.87253	100.01
2.88920	100.01
2.90587	100.01
2.92253	100.01
2.93920	100.01
2.95587	100.02
2.97253	100.02
2.98920	100.02
3.00587	100.02
3.02253	100.02
3.03920	100.02
3.05587	100.02
3.07253	100.02
3.08920	100.02
3.10587	100.02
3.12253	100.02
3.13920	100.03
3.15587	100.02
3.17253	100.03
3.18920	100.02
3.20587	100.03
3.22253	100.04
3.23920	100.03
3.25587	100.03
3.27253	100.03
3.28920	100.03
3.30587	100.03
3.32253	100.03
3.33920	100.04
3.35587	100.04
3.37253	100.04
3.38920	100.04
3.40587	100.04
3.42253	100.03
3.43920	100.04
3.45587	100.04
3.47253	100.04
3.48920	100.04
3.50587	100.04
3.52253	100.04
3.53920	100.04
3.55587	100.04
3.57253	100.05
3.58920	100.05
3.60587	100.05
3.62253	100.04
3.63920	100.05
3.65587	100.05
3.67253	100.05
3.68920	100.05
3.70587	100.05
3.72253	100.05
3.73920	100.05
3.75587	100.05
3.77253	100.05
3.78920	100.05
3.80587	100.05
3.82253	100.05
3.83920	100.05
3.85587	100.05
3.87253	100.06
3.88920	100.05
3.90587	100.05
3.92253	100.05
3.93920	100.05
3.95587	100.05
3.97253	100.05
3.98920	100.06

[Status Trace (Carrier Gas Pressure)]
Interval(msec)	1000
# of Points	240
Start Time(min)	0.006
End Time(min)	3.989
Intensity Units	
Intensity Multiplier	1
R.Time (min)	Intensity
0.00587	58.00
0.02253	55.72
0.03920	56.80
0.05587	58.99
0.07253	59.72
0.08920	58.15
0.10587	57.97
0.12253	58.01
0.13920	58.01
0.15587	58.01
0.17253	58.01
0.18920	58.00
0.20587	58.00
0.22253	58.00
0.23920	58.00
0.25587	58.00
0.27253	58.00
0.28920	58.00
0.30587	58.00
0.32253	58.00
0.33920	58.00
0.35587	58.00
0.37253	58.00
0.38920	58.00
0.40587	58.00
0.42253	58.00
0.43920	58.00
0.45587	58.00
0.47253	58.00
0.48920	58.00
0.50587	58.00
0.52253	58.00
0.53920	58.00
0.55587	58.00
0.57253	58.00
0.58920	58.00
0.60587	58.00
0.62253	58.00
0.63920	58.00
0.65587	58.00
0.67253	58.00
0.68920	58.00
0.70587	58.00
0.72253	58.00
0.73920	58.00
0.75587	58.00
0.77253	58.00
0.78920	58.00
0.80587	58.00
0.82253	58.00
0.83920	58.00
0.85587	58.00
0.87253	58.00
0.88920	58.00
0.90587	58.00
0.92253	58.00
0.93920	58.00
0.95587	58.00
0.97253	58.00
0.98920	58.00
1.00587	58.00
1.02253	58.00
1.03920	58.00
1.05587	58.00
1.07253	58.00
1.08920	58.00
1.10587	58.00
1.12253	58.00
1.13920	58.00
1.15587	58.00
1.17253	58.00
1.18920	58.00
1.20587	58.00
1.22253	58.00
1.23920	58.00
1.25587	58.00
1.27253	58.00
1.28920	58.00
1.30587	58.00
1.32253	58.00
1.33920	58.00
1.35587	58.00
1.37253	58.00
1.38920	58.00
1.40587	58.00
1.42253	58.00
1.43920	58.00
1.45587	58.00
1.47253	58.00
1.48920	58.00
1.50587	58.00
1.52253	58.00
1.53920	58.00
1.55587	58.00
1.57253	58.00
1.58920	58.00
1.60587	58.00
1.62253	58.00
1.63920	58.00
1.65587	58.00
1.67253	58.01
1.68920	58.01
1.70587	58.00
1.72253	58.00
1.73920	58.00
1.75587	58.00
1.77253	58.00
1.78920	58.00
1.80587	58.00
1.82253	58.00
1.83920	58.00
1.85587	58.00
1.87253	58.00
1.88920	58.00
1.90587	58.00
1.92253	58.00
1.93920	58.00
1.95587	58.00
1.97253	58.00
1.98920	58.00
2.00587	58.00
2.02253	58.00
2.03920	58.00
2.05587	58.00
2.07253	58.00
2.08920	58.00
2.10587	58.00
2.12253	58.00
2.13920	58.00
2.15587	58.00
2.17253	58.00
2.18920	58.00
2.20587	58.00
2.22253	58.00
2.23920	58.00
2.25587	58.00
2.27253	58.00
2.28920	58.00
2.30587	58.00
2.32253	58.00
2.33920	58.00
2.35587	58.00
2.37253	58.00
2.38920	57.99
2.40587	57.99
2.42253	58.00
2.43920	58.00
2.45587	58.00
2.47253	58.00
2.48920	58.00
2.50587	58.00
2.52253	57.99
2.53920	58.00
2.55587	58.00
2.57253	58.00
2.58920	58.00
2.60587	58.00
2.62253	58.00
2.63920	58.00
2.65587	58.00
2.67253	58.00
2.68920	58.00
2.70587	58.00
2.72253	58.00
2.73920	58.00
2.75587	58.00
2.77253	58.00
2.78920	58.00
2.80587	58.00
2.82253	58.00
2.83920	58.00
2.85587	58.00
2.87253	58.00
2.88920	58.00
2.90587	58.00
2.92253	58.00
2.93920	58.00
2.95587	58.00
2.97253	58.00
2.98920	58.00
3.00587	58.00
3.02253	58.00
3.03920	58.00
3.05587	58.00
3.07253	58.00
3.08920	58.00
3.10587	58.00
3.12253	58.00
3.13920	58.00
3.15587	58.00
3.17253	58.00
3.18920	58.00
3.20587	58.00
3.22253	58.00
3.23920	58.00
3.25587	58.00
3.27253	58.00
3.28920	58.00
3.30587	58.00
3.32253	58.00
3.33920	58.00
3.35587	58.00
3.37253	58.00
3.38920	58.00
3.40587	58.00
3.42253	58.00
3.43920	58.00
3.45587	58.00
3.47253	58.00
3.48920	58.00
3.50587	58.00
3.52253	58.00
3.53920	58.00
3.55587	58.00
3.57253	58.00
3.58920	58.00
3.60587	58.00
3.62253	58.00
3.63920	58.00
3.65587	58.00
3.67253	58.00
3.68920	58.00
3.70587	58.00
3.72253	58.00
3.73920	58.00
3.75587	58.00
3.77253	58.00
3.78920	58.00
3.80587	58.00
3.82253	58.00
3.83920	58.00
3.85587	58.00
3.87253	58.00
3.88920	58.00
3.90587	58.00
3.92253	58.00
3.93920	58.00
3.95587	58.00
3.97253	58.00
3.98920	58.00

[Status Trace (Carrier Gas Flow)]
Interval(msec)	1000
# of Points	240
Start Time(min)	0.006
End Time(min)	3.989
Intensity Units	
Intensity Multiplier	1
R.Time (min)	Intensity
0.00587	34.52
0.02253	34.54
0.03920	34.54
0.05587	34.54
0.07253	34.49
0.08920	34.52
0.10587	34.52
0.12253	34.52
0.13920	34.52
0.15587	34.52
0.17253	34.52
0.18920	34.52
0.20587	34.52
0.22253	34.52
0.23920	34.52
0.25587	34.52
0.27253	34.52
0.28920	34.52
0.30587	34.52
0.32253	34.52
0.33920	34.52
0.35587	34.52
0.37253	34.52
0.38920	34.52
0.40587	34.52
0.42253	34.52
0.43920	34.52
0.45587	34.52
0.47253	34.52
0.48920	34.52
0.50587	34.52
0.52253	34.52
0.53920	34.52
0.55587	34.52
0.57253	34.52
0.58920	34.52
0.60587	34.52
0.62253	34.52
0.63920	34.52
0.65587	34.52
0.67253	34.52
0.68920	34.52
0.70587	34.52
0.72253	34.52
0.73920	34.52
0.75587	34.52
0.77253	34.52
0.78920	34.52
0.80587	34.52
0.82253	34.52
0.83920	34.52
0.85587	34.52
0.87253	34.52
0.88920	34.52
0.90587	34.52
0.92253	34.52
0.93920	34.52
0.95587	34.52
0.97253	34.52
0.98920	34.52
1.00587	34.52
1.02253	34.52
1.03920	34.52
1.05587	34.52
1.07253	34.52
1.08920	34.52
1.10587	34.52
1.12253	34.52
1.13920	34.52
1.15587	34.52
1.17253	34.52
1.18920	34.52
1.20587	34.52
1.22253	34.52
1.23920	34.52
1.25587	34.52
1.27253	34.52
1.28920	34.52
1.30587	34.52
1.32253	34.52
1.33920	34.52
1.35587	34.51
1.37253	34.51
1.38920	34.52
1.40587	34.53
1.42253	34.52
1.43920	34.52
1.45587	34.52
1.47253	34.52
1.48920	34.54
1.50587	34.51
1.52253	34.52
1.53920	34.52
1.55587	34.52
1.57253	34.52
1.58920	34.52
1.60587	34.52
1.62253	34.53
1.63920	34.52
1.65587	34.52
1.67253	34.52
1.68920	34.52
1.70587	34.52
1.72253	34.52
1.73920	34.52
1.75587	34.52
1.77253	34.52
1.78920	34.51
1.80587	34.52
1.82253	34.52
1.83920	34.52
1.85587	34.52
1.87253	34.52
1.88920	34.52
1.90587	34.52
1.92253	34.52
1.93920	34.52
1.95587	34.52
1.97253	34.52
1.98920	34.52
2.00587	34.52
2.02253	34.52
2.03920	34.52
2.05587	34.52
2.07253	34.52
2.08920	34.52
2.10587	34.52
2.12253	34.52
2.13920	34.52
2.15587	34.52
2.17253	34.52
2.18920	34.52
2.20587	34.52
2.22253	34.52
2.23920	34.52
2.25587	34.52
2.27253	34.52
2.28920	34.52
2.30587	34.52
2.32253	34.52
2.33920	34.52
2.35587	34.52
2.37253	34.52
2.38920	34.51
2.40587	34.52
2.42253	34.52
2.43920	34.52
2.45587	34.52
2.47253	34.52
2.48920	34.52
2.50587	34.48
2.52253	34.52
2.53920	34.52
2.55587	34.52
2.57253	34.52
2.58920	34.52
2.60587	34.52
2.62253	34.52
2.63920	34.52
2.65587	34.51
2.67253	34.52
2.68920	34.52
2.70587	34.52
2.72253	34.52
2.73920	34.52
2.75587	34.53
2.77253	34.52
2.78920	34.52
2.80587	34.52
2.82253	34.52
2.83920	34.52
2.85587	34.52
2.87253	34.52
2.88920	34.52
2.90587	34.52
2.92253	34.51
2.93920	34.51
2.95587	34.54
2.97253	34.51
2.98920	34.51
3.00587	34.51
3.02253	34.52
3.03920	34.53
3.05587	34.51
3.07253	34.52
3.08920	34.52
3.10587	34.51
3.12253	34.51
3.13920	34.53
3.15587	34.53
3.17253	34.53
3.18920	34.52
3.20587	34.51
3.22253	34.51
3.23920	34.52
3.25587	34.52
3.27253	34.53
3.28920	34.51
3.30587	34.52
3.32253	34.52
3.33920	34.52
3.35587	34.53
3.37253	34.52
3.38920	34.52
3.40587	34.52
3.42253	34.53
3.43920	34.50
3.45587	34.51
3.47253	34.52
3.48920	34.51
3.50587	34.52
3.52253	34.52
3.53920	34.51
3.55587	34.52
3.57253	34.52
3.58920	34.52
3.60587	34.52
3.62253	34.51
3.63920	34.52
3.65587	34.52
3.67253	34.52
3.68920	34.52
3.70587	34.52
3.72253	34.52
3.73920	34.52
3.75587	34.52
3.77253	34.51
3.78920	34.52
3.80587	34.52
3.82253	34.52
3.83920	34.52
3.85587	34.52
3.87253	34.52
3.88920	34.52
3.90587	34.52
3.92253	34.52
3.93920	34.52
3.95587	34.52
3.97253	34.52
3.98920	34.51

[Status Trace (Column Flow)]
Interval(msec)	1000
# of Points	240
Start Time(min)	0.006
End Time(min)	3.989
Intensity Units	
Intensity Multiplier	1
R.Time (min)	Intensity
0.00587	5.49
0.02253	5.23
0.03920	5.35
0.05587	5.61
0.07253	5.69
0.08920	5.51
0.10587	5.49
0.12253	5.49
0.13920	5.49
0.15587	5.49
0.17253	5.49
0.18920	5.49
0.20587	5.49
0.22253	5.49
0.23920	5.49
0.25587	5.49
0.27253	5.49
0.28920	5.49
0.30587	5.49
0.32253	5.49
0.33920	5.49
0.35587	5.49
0.37253	5.49
0.38920	5.49
0.40587	5.49
0.42253	5.49
0.43920	5.49
0.45587	5.49
0.47253	5.49
0.48920	5.49
0.50587	5.49
0.52253	5.49
0.53920	5.49
0.55587	5.49
0.57253	5.49
0.58920	5.49
0.60587	5.49
0.62253	5.49
0.63920	5.49
0.65587	5.49
0.67253	5.49
0.68920	5.49
0.70587	5.49
0.72253	5.49
0.73920	5.49
0.75587	5.49
0.77253	5.49
0.78920	5.49
0.80587	5.49
0.82253	5.49
0.83920	5.49
0.85587	5.49
0.87253	5.49
0.88920	5.49
0.90587	5.49
0.92253	5.49
0.93920	5.49
0.95587	5.49
0.97253	5.49
0.98920	5.49
1.00587	5.49
1.02253	5.49
1.03920	5.49
1.05587	5.49
1.07253	5.49
1.08920	5.49
1.10587	5.49
1.12253	5.49
1.13920	5.49
1.15587	5.49
1.17253	5.49
1.18920	5.49
1.20587	5.49
1.22253	5.49
1.23920	5.49
1.25587	5.49
1.27253	5.49
1.28920	5.49
1.30587	5.49
1.32253	5.49
1.33920	5.49
1.35587	5.49
1.37253	5.49
1.38920	5.49
1.40587	5.49
1.42253	5.49
1.43920	5.49
1.45587	5.49
1.47253	5.49
1.48920	5.49
1.50587	5.49
1.52253	5.49
1.53920	5.49
1.55587	5.49
1.57253	5.49
1.58920	5.49
1.60587	5.49
1.62253	5.48
1.63920	5.48
1.65587	5.47
1.67253	5.46
1.68920	5.45
1.70587	5.44
1.72253	5.43
1.73920	5.42
1.75587	5.41
1.77253	5.40
1.78920	5.39
1.80587	5.38
1.82253	5.37
1.83920	5.36
1.85587	5.35
1.87253	5.34
1.88920	5.33
1.90587	5.32
1.92253	5.31
1.93920	5.30
1.95587	5.29
1.97253	5.28
1.98920	5.27
2.00587	5.26
2.02253	5.25
2.03920	5.24
2.05587	5.23
2.07253	5.22
2.08920	5.21
2.10587	5.20
2.12253	5.19
2.13920	5.18
2.15587	5.18
2.17253	5.17
2.18920	5.16
2.20587	5.15
2.22253	5.14
2.23920	5.13
2.25587	5.12
2.27253	5.11
2.28920	5.10
2.30587	5.09
2.32253	5.08
2.33920	5.07
2.35587	5.06
2.37253	5.06
2.38920	5.06
2.40587	5.06
2.42253	5.06
2.43920	5.06
2.45587	5.06
2.47253	5.06
2.48920	5.06
2.50587	5.06
2.52253	5.05
2.53920	5.06
2.55587	5.06
2.57253	5.05
2.58920	5.05
2.60587	5.05
2.62253	5.05
2.63920	5.05
2.65587	5.05
2.67253	5.05
2.68920	5.05
2.70587	5.05
2.72253	5.05
2.73920	5.05
2.75587	5.05
2.77253	5.05
2.78920	5.05
2.80587	5.05
2.82253	5.05
2.83920	5.05
2.85587	5.05
2.87253	5.05
2.88920	5.05
2.90587	5.05
2.92253	5.05
2.93920	5.05
2.95587	5.05
2.97253	5.05
2.98920	5.05
3.00587	5.05
3.02253	5.05
3.03920	5.05
3.05587	5.05
3.07253	5.05
3.08920	5.05
3.10587	5.05
3.12253	5.05
3.13920	5.05
3.15587	5.05
3.17253	5.05
3.18920	5.05
3.20587	5.05
3.22253	5.05
3.23920	5.05
3.25587	5.05
3.27253	5.05
3.28920	5.05
3.30587	5.05
3.32253	5.05
3.33920	5.05
3.35587	5.05
3.37253	5.05
3.38920	5.05
3.40587	5.05
3.42253	5.05
3.43920	5.05
3.45587	5.05
3.47253	5.05
3.48920	5.05
3.50587	5.05
3.52253	5.05
3.53920	5.05
3.55587	5.05
3.57253	5.05
3.58920	5.05
3.60587	5.05
3.62253	5.05
3.63920	5.05
3.65587	5.05
3.67253	5.05
3.68920	5.05
3.70587	5.05
3.72253	5.05
3.73920	5.05
3.75587	5.05
3.77253	5.05
3.78920	5.05
3.80587	5.05
3.82253	5.05
3.83920	5.05
3.85587	5.05
3.87253	5.05
3.88920	5.05
3.90587	5.05
3.92253	5.05
3.93920	5.05
3.95587	5.05
3.97253	5.05
3.98920	5.05

[Status Trace (Linear Velocity)]
Interval(msec)	1000
# of Points	240
Start Time(min)	0.006
End Time(min)	3.989
Intensity Units	
Intensity Multiplier	1
R.Time (min)	Intensity
0.00587	39.01
0.02253	37.52
0.03920	38.22
0.05587	39.66
0.07253	40.14
0.08920	39.11
0.10587	38.99
0.12253	39.02
0.13920	39.02
0.15587	39.01
0.17253	39.01
0.18920	39.01
0.20587	39.01
0.22253	39.01
0.23920	39.01
0.25587	39.01
0.27253	39.01
0.28920	39.01
0.30587	39.01
0.32253	39.01
0.33920	39.01
0.35587	39.01
0.37253	39.01
0.38920	39.01
0.40587	39.01
0.42253	39.01
0.43920	39.01
0.45587	39.01
0.47253	39.01
0.48920	39.01
0.50587	39.01
0.52253	39.01
0.53920	39.01
0.55587	39.01
0.57253	39.01
0.58920	39.01
0.60587	39.01
0.62253	39.01
0.63920	39.01
0.65587	39.01
0.67253	39.01
0.68920	39.01
0.70587	39.01
0.72253	39.01
0.73920	39.01
0.75587	39.01
0.77253	39.01
0.78920	39.01
0.80587	39.01
0.82253	39.01
0.83920	39.01
0.85587	39.01
0.87253	39.01
0.88920	39.01
0.90587	39.01
0.92253	39.01
0.93920	39.01
0.95587	39.01
0.97253	39.01
0.98920	39.01
1.00587	39.01
1.02253	39.01
1.03920	39.01
1.05587	39.01
1.07253	39.01
1.08920	39.01
1.10587	39.01
1.12253	39.01
1.13920	39.01
1.15587	39.01
1.17253	39.01
1.18920	39.01
1.20587	39.01
1.22253	39.00
1.23920	39.00
1.25587	39.00
1.27253	39.00
1.28920	39.00
1.30587	39.00
1.32253	39.00
1.33920	39.00
1.35587	39.00
1.37253	39.01
1.38920	39.01
1.40587	39.01
1.42253	39.01
1.43920	39.01
1.45587	39.01
1.47253	39.01
1.48920	39.01
1.50587	39.01
1.52253	39.01
1.53920	39.01
1.55587	39.01
1.57253	39.01
1.58920	39.01
1.60587	39.01
1.62253	39.00
1.63920	38.98
1.65587	38.95
1.67253	38.92
1.68920	38.89
1.70587	38.85
1.72253	38.82
1.73920	38.79
1.75587	38.76
1.77253	38.73
1.78920	38.70
1.80587	38.66
1.82253	38.63
1.83920	38.60
1.85587	38.57
1.87253	38.54
1.88920	38.51
1.90587	38.48
1.92253	38.45
1.93920	38.42
1.95587	38.39
1.97253	38.36
1.98920	38.33
2.00587	38.30
2.02253	38.27
2.03920	38.24
2.05587	38.21
2.07253	38.18
2.08920	38.15
2.10587	38.12
2.12253	38.09
2.13920	38.06
2.15587	38.03
2.17253	38.00
2.18920	37.97
2.20587	37.94
2.22253	37.91
2.23920	37.88
2.25587	37.85
2.27253	37.82
2.28920	37.79
2.30587	37.76
2.32253	37.73
2.33920	37.70
2.35587	37.68
2.37253	37.66
2.38920	37.65
2.40587	37.65
2.42253	37.65
2.43920	37.65
2.45587	37.65
2.47253	37.65
2.48920	37.65
2.50587	37.64
2.52253	37.64
2.53920	37.64
2.55587	37.65
2.57253	37.64
2.58920	37.64
2.60587	37.64
2.62253	37.64
2.63920	37.64
2.65587	37.64
2.67253	37.64
2.68920	37.64
2.70587	37.64
2.72253	37.64
2.73920	37.64
2.75587	37.64
2.77253	37.63
2.78920	37.63
2.80587	37.63
2.82253	37.63
2.83920	37.63
2.85587	37.63
2.87253	37.63
2.88920	37.63
2.90587	37.63
2.92253	37.63
2.93920	37.63
2.95587	37.63
2.97253	37.62
2.98920	37.62
3.00587	37.62
3.02253	37.62
3.03920	37.62
3.05587	37.62
3.07253	37.62
3.08920	37.62
3.10587	37.62
3.12253	37.62
3.13920	37.62
3.15587	37.62
3.17253	37.62
3.18920	37.62
3.20587	37.62
3.22253	37.62
3.23920	37.62
3.25587	37.62
3.27253	37.62
3.28920	37.62
3.30587	37.62
3.32253	37.62
3.33920	37.62
3.35587	37.62
3.37253	37.62
3.38920	37.62
3.40587	37.62
3.42253	37.62
3.43920	37.62
3.45587	37.62
3.47253	37.62
3.48920	37.62
3.50587	37.63
3.52253	37.62
3.53920	37.62
3.55587	37.62
3.57253	37.62
3.58920	37.62
3.60587	37.62
3.62253	37.62
3.63920	37.62
3.65587	37.62
3.67253	37.62
3.68920	37.62
3.70587	37.62
3.72253	37.62
3.73920	37.62
3.75587	37.62
3.77253	37.62
3.78920	37.62
3.80587	37.62
3.82253	37.62
3.83920	37.62
3.85587	37.62
3.87253	37.62
3.88920	37.62
3.90587	37.62
3.92253	37.62
3.93920	37.62
3.95587	37.62
3.97253	37.62
3.98920	37.62

