[Header]
Application Name	LabSolutions
Version	5.110
Data File Name	C:\Users\User\Desktop\GC Analyses\Jack\UIC Prairie Sampling\7.22.22\220722_088.gcd
Output Date	10/5/2022
Output Time	2:13:43 PM

[File Information]
Type	Data File
Generated	10/5/2022 11:28:29 AM
Generated by	System Administrator
Modified	10/5/2022 11:32:37 AM
Modified by	System Administrator

[Sample Information]
Operator Name	System Administrator
Acquired	10/5/2022 11:28:35 AM
Sample Type	1:Standard
Level	1
Sample Name	220722_UICPrairie
Sample ID	220722_UICPrairie
ISTD Amount1	1
ISTD Amount2	1
ISTD Amount3	1
ISTD Amount4	1
ISTD Amount5	1
ISTD Amount6	1
ISTD Amount7	1
ISTD Amount8	1
ISTD Amount9	1
ISTD Amount10	1
ISTD Amount11	1
ISTD Amount12	1
ISTD Amount13	1
ISTD Amount14	1
ISTD Amount15	1
ISTD Amount16	1
ISTD Amount17	1
ISTD Amount18	1
ISTD Amount19	1
ISTD Amount20	1
ISTD Amount21	1
ISTD Amount22	1
ISTD Amount23	1
ISTD Amount24	1
ISTD Amount25	1
ISTD Amount26	1
ISTD Amount27	1
ISTD Amount28	1
ISTD Amount29	1
ISTD Amount30	1
ISTD Amount31	1
ISTD Amount32	1
Sample Amount	1
Dilution Factor	1
Vial#	1
Injection Volume	1
Injection Count	1
Bar Code	

[Original Files]
Data File	C:\Users\User\Desktop\GC Analyses\Jack\UIC Prairie Sampling\7.22.22\220722_088.gcd
Method File	C:\LabSolutions\Data\GHG_4min_2022\ghg3_togas_w_acet_4 min_new_int.gcm
Batch File	
Report Format File	c:\LabSolutions\System\DEFAULT.lsr

[File Description]


[Configuration]
Instrument Name	C0B7VH3-Instrument1
Instrument #	1
Line #	1
# of Detectors	3
Detector ID	DET#1	DET#2	DET#3
Detector Name	FID	PTCD	ECD
# of Channels	1	1	1

[Peak Table(Ch1)]
# of Peaks	3
Peak#	R.Time	I.Time	F.Time	Area	Height	A/H	Conc.	Mark	ID#	Name	k'	Plate #	Plate Ht.	Tailing	Resolution	Sep.Factor	Area Ratio	Height Ratio	Conc. %	Norm Conc.
1	1.479	1.432	1.542	17415	7826	2.225	100.000	   	1	CO	0.000	8504	17.638	1.194	0.000	0.000	0	0	16.667	16.667
2	1.575	1.542	1.648	4648	2290	2.030	100.000	 V 	2	CH4	0.064	11188	13.408	1.099	1.541	0.000	0	0	16.667	16.667
3	2.004	1.956	2.293	2170766	1056763	2.054	400.000	   	3	CO2	0.354	17883	8.388	1.168	7.181	5.500	0	0	66.667	66.667

[Peak Table(Ch2)]
# of Peaks	0

[Peak Table(Ch3)]
# of Peaks	2
Peak#	R.Time	I.Time	F.Time	Area	Height	A/H	Conc.	Mark	ID#	Name	k'	Plate #	Plate Ht.	Tailing	Resolution	Sep.Factor	Area Ratio	Height Ratio	Conc. %	Norm Conc.
1	2.451	0.860	2.649	27136	613	44.285	0.000	   			0.000	59	2536.114	0.565	0.000	0.000	0	0	0.000	0.000
2	2.887	2.664	3.481	22329	4864	4.590	1.000	   	1	N2O	0.178	12990	11.547	1.524	0.634	0.000	0	0	100.000	100.000

[Compound Results(Ch1)]
# of IDs	6
ID#	Name	R.Time	Area	Height	Conc.	Curve	3rd	2nd	1st	Constant	Area Ratio	Height Ratio	Conc. %	Norm Conc.
1	CO	1.479	17415	7826	100.000	Linear	0.000000e+00	0.000000e+00	1.741537e+002	0.000000e+00	0	0	16.667	16.667
2	CH4	1.575	4648	2290	100.000	Linear	0.000000e+00	0.000000e+00	4.648219e+001	0.000000e+00	0	0	16.667	16.667
3	CO2	2.004	2170766	1056763	400.000	Linear	0.000000e+00	0.000000e+00	5.426916e+003	0.000000e+00	0	0	66.667	66.667
4	Ethylene	0.000	0	0	0.000	Linear	0.000000e+00	0.000000e+00	0.000000e+00	0.000000e+00	0	0	0.000	0.000
5	Acetylene	0.000	0	0	0.000	Linear	0.000000e+00	0.000000e+00	0.000000e+00	0.000000e+00	0	0	0.000	0.000
6	Ethane	0.000	0	0	0.000	Linear	0.000000e+00	0.000000e+00	0.000000e+00	0.000000e+00	0	0	0.000	0.000

[Compound Results(Ch2)]
# of IDs	5
ID#	Name	R.Time	Area	Height	Conc.	Curve	3rd	2nd	1st	Constant	Area Ratio	Height Ratio	Conc. %	Norm Conc.
1	Hydrogen	0.000	0	0	0.000	Linear	0.000000e+00	0.000000e+00	0.000000e+00	0.000000e+00	0	0	0.000	0.000
2	Oxygen	0.000	0	0	0.000	Linear	0.000000e+00	0.000000e+00	0.000000e+00	0.000000e+00	0	0	0.000	0.000
3	Nitrogen	0.000	0	0	0.000	Linear	0.000000e+00	0.000000e+00	0.000000e+00	0.000000e+00	0	0	0.000	0.000
4	Methane	0.000	0	0	0.000	Linear	0.000000e+00	0.000000e+00	0.000000e+00	0.000000e+00	0	0	0.000	0.000
5	Carbon Monoxide	0.000	0	0	0.000	Linear	0.000000e+00	0.000000e+00	0.000000e+00	0.000000e+00	0	0	0.000	0.000

[Compound Results(Ch3)]
# of IDs	2
ID#	Name	R.Time	Area	Height	Conc.	Curve	3rd	2nd	1st	Constant	Area Ratio	Height Ratio	Conc. %	Norm Conc.
1	N2O	2.887	22329	4864	1.000	Linear	0.000000e+00	0.000000e+00	2.232854e+004	0.000000e+00	0	0	100.000	100.000
2	SF6	0.000	0	0	0.000	Linear	0.000000e+00	0.000000e+00	0.000000e+00	0.000000e+00	0	0	0.000	0.000

[Group Results(Ch1)]
# of Groups	0

[Group Results(Ch2)]
# of Groups	0

[Group Results(Ch3)]
# of Groups	0

[Chromatogram (Ch1)]
Interval(msec)	220
# of Points	1091
Start Time(min)	0.002
End Time(min)	3.998
R.Time (min)	Intensity
0.00167	1
0.00533	8
0.00900	16
0.01267	23
0.01633	30
0.02000	33
0.02367	29
0.02733	25
0.03100	20
0.03467	17
0.03833	14
0.04200	11
0.04567	7
0.04933	3
0.05300	0
0.05667	1
0.06033	4
0.06400	6
0.06767	6
0.07133	10
0.07500	12
0.07867	10
0.08233	8
0.08600	6
0.08967	5
0.09333	8
0.09700	13
0.10067	17
0.10433	18
0.10800	15
0.11167	10
0.11533	4
0.11900	1
0.12267	-2
0.12633	-4
0.13000	-7
0.13367	-9
0.13733	-12
0.14100	-15
0.14467	-16
0.14833	-16
0.15200	-13
0.15567	-7
0.15933	-3
0.16300	-0
0.16667	-1
0.17033	-3
0.17400	-4
0.17767	-4
0.18133	-5
0.18500	-9
0.18867	-11
0.19233	-8
0.19600	-5
0.19967	-2
0.20333	4
0.20700	5
0.21067	1
0.21433	-1
0.21800	-2
0.22167	2
0.22533	7
0.22900	11
0.23267	15
0.23633	15
0.24000	11
0.24367	8
0.24733	5
0.25100	-1
0.25467	-6
0.25833	-7
0.26200	-7
0.26567	-11
0.26933	-12
0.27300	-10
0.27667	-7
0.28033	-8
0.28400	-10
0.28767	-15
0.29133	-18
0.29500	-20
0.29867	-20
0.30233	-16
0.30600	-11
0.30967	-7
0.31333	-3
0.31700	0
0.32067	-0
0.32433	-6
0.32800	-18
0.33167	-30
0.33533	-37
0.33900	-38
0.34267	-33
0.34633	-27
0.35000	-23
0.35367	-24
0.35733	-26
0.36100	-28
0.36467	-30
0.36833	-33
0.37200	-33
0.37567	-34
0.37933	-34
0.38300	-34
0.38667	-30
0.39033	-25
0.39400	-23
0.39767	-17
0.40133	-7
0.40500	1
0.40867	4
0.41233	-1
0.41600	-11
0.41967	-18
0.42333	-25
0.42700	-29
0.43067	-29
0.43433	-26
0.43800	-23
0.44167	-23
0.44533	-25
0.44900	-26
0.45267	-26
0.45633	-23
0.46000	-17
0.46367	-10
0.46733	-7
0.47100	-5
0.47467	-6
0.47833	-10
0.48200	-15
0.48567	-19
0.48933	-22
0.49300	-25
0.49667	-30
0.50033	-34
0.50400	-33
0.50767	-26
0.51133	-18
0.51500	-12
0.51867	-8
0.52233	-3
0.52600	1
0.52967	5
0.53333	6
0.53700	4
0.54067	-5
0.54433	-19
0.54800	-31
0.55167	-41
0.55533	-46
0.55900	-44
0.56267	-42
0.56633	-43
0.57000	-46
0.57367	-47
0.57733	-47
0.58100	-43
0.58467	-40
0.58833	-38
0.59200	-38
0.59567	-37
0.59933	-35
0.60300	-33
0.60667	-28
0.61033	-16
0.61400	-12
0.61767	-9
0.62133	-6
0.62500	-1
0.62867	-0
0.63233	-5
0.63600	-16
0.63967	-30
0.64333	-47
0.64700	-51
0.65067	-48
0.65433	-45
0.65800	-40
0.66167	-34
0.66533	-26
0.66900	-19
0.67267	-24
0.67633	-33
0.68000	-43
0.68367	-51
0.68733	-52
0.69100	-48
0.69467	-39
0.69833	-30
0.70200	-28
0.70567	-30
0.70933	-36
0.71300	-41
0.71667	-45
0.72033	-49
0.72400	-49
0.72767	-41
0.73133	-32
0.73500	-30
0.73867	-34
0.74233	-38
0.74600	-40
0.74967	-45
0.75333	-52
0.75700	-55
0.76067	-54
0.76433	-53
0.76800	-55
0.77167	-59
0.77533	-61
0.77900	-57
0.78267	-51
0.78633	-52
0.79000	-47
0.79367	-35
0.79733	-36
0.80100	-41
0.80467	-44
0.80833	-46
0.81200	-47
0.81567	-48
0.81933	-54
0.82300	-58
0.82667	-59
0.83033	-56
0.83400	-54
0.83767	-52
0.84133	-54
0.84500	-57
0.84867	-58
0.85233	-58
0.85600	-57
0.85967	-52
0.86333	-45
0.86700	-40
0.87067	-39
0.87433	-40
0.87800	-37
0.88167	-37
0.88533	-40
0.88900	-43
0.89267	-47
0.89633	-50
0.90000	-51
0.90367	-50
0.90733	-48
0.91100	-47
0.91467	-49
0.91833	-54
0.92200	-57
0.92567	-57
0.92933	-55
0.93300	-53
0.93667	-53
0.94033	-57
0.94400	-60
0.94767	-60
0.95133	-60
0.95500	-58
0.95867	-56
0.96233	-55
0.96600	-54
0.96967	-53
0.97333	-54
0.97700	-53
0.98067	-52
0.98433	-53
0.98800	-56
0.99167	-58
0.99533	-61
0.99900	-60
1.00267	-52
1.00633	-45
1.01000	-45
1.01367	-51
1.01733	-56
1.02100	-59
1.02467	-63
1.02833	-62
1.03200	-61
1.03567	-61
1.03933	-59
1.04300	-56
1.04667	-51
1.05033	-50
1.05400	-48
1.05767	-44
1.06133	-44
1.06500	-47
1.06867	-52
1.07233	-51
1.07600	-55
1.07967	-62
1.08333	-67
1.08700	-69
1.09067	-67
1.09433	-64
1.09800	-61
1.10167	-61
1.10533	-63
1.10900	-66
1.11267	-68
1.11633	-71
1.12000	-71
1.12367	-67
1.12733	-63
1.13100	-63
1.13467	-63
1.13833	-60
1.14200	-55
1.14567	-49
1.14933	-47
1.15300	-49
1.15667	-53
1.16033	-57
1.16400	-59
1.16767	-59
1.17133	-59
1.17500	-59
1.17867	-59
1.18233	-60
1.18600	-63
1.18967	-67
1.19333	-70
1.19700	-71
1.20067	-72
1.20433	-71
1.20800	-71
1.21167	-74
1.21533	-77
1.21900	-76
1.22267	-71
1.22633	-67
1.23000	-60
1.23367	-52
1.23733	-46
1.24100	-42
1.24467	-44
1.24833	-50
1.25200	-54
1.25567	-60
1.25933	-64
1.26300	-66
1.26667	-68
1.27033	-75
1.27400	-80
1.27767	-80
1.28133	-78
1.28500	-74
1.28867	-72
1.29233	-71
1.29600	-71
1.29967	-70
1.30333	-69
1.30700	-70
1.31067	-72
1.31433	-73
1.31800	-71
1.32167	-70
1.32533	-72
1.32900	-73
1.33267	-74
1.33633	-76
1.34000	-80
1.34367	-84
1.34733	-87
1.35100	-86
1.35467	-86
1.35833	-86
1.36200	-86
1.36567	-84
1.36933	-79
1.37300	-76
1.37667	-75
1.38033	-74
1.38400	-75
1.38767	-75
1.39133	-73
1.39500	-72
1.39867	-72
1.40233	-71
1.40600	-72
1.40967	-75
1.41333	-78
1.41700	-84
1.42067	-90
1.42433	-92
1.42800	-90
1.43167	-86
1.43533	-83
1.43900	-79
1.44267	-50
1.44633	95
1.45000	480
1.45367	1143
1.45733	2132
1.46100	3433
1.46467	4835
1.46833	6083
1.47200	7019
1.47567	7581
1.47933	7733
1.48300	7444
1.48667	6737
1.49033	5721
1.49400	4579
1.49767	3488
1.50133	2558
1.50500	1825
1.50867	1277
1.51233	876
1.51600	591
1.51967	393
1.52333	256
1.52700	159
1.53067	92
1.53433	45
1.53800	11
1.54167	-6
1.54533	26
1.54900	166
1.55267	458
1.55633	870
1.56000	1311
1.56367	1691
1.56733	1978
1.57100	2152
1.57467	2182
1.57833	2041
1.58200	1750
1.58567	1383
1.58933	1016
1.59300	702
1.59667	458
1.60033	282
1.60400	158
1.60767	69
1.61133	6
1.61500	-35
1.61867	-58
1.62233	-69
1.62600	-76
1.62967	-83
1.63333	-91
1.63700	-99
1.64067	-102
1.64433	-109
1.64800	-119
1.65167	-127
1.65533	-126
1.65900	-123
1.66267	-119
1.66633	-117
1.67000	-126
1.67367	-129
1.67733	-129
1.68100	-130
1.68467	-132
1.68833	-131
1.69200	-126
1.69567	-117
1.69933	-111
1.70300	-110
1.70667	-109
1.71033	-109
1.71400	-110
1.71767	-110
1.72133	-114
1.72500	-116
1.72867	-119
1.73233	-123
1.73600	-125
1.73967	-120
1.74333	-116
1.74700	-117
1.75067	-117
1.75433	-118
1.75800	-122
1.76167	-125
1.76533	-126
1.76900	-123
1.77267	-114
1.77633	-106
1.78000	-103
1.78367	-104
1.78733	-104
1.79100	-100
1.79467	-98
1.79833	-96
1.80200	-95
1.80567	-93
1.80933	-94
1.81300	-94
1.81667	-94
1.82033	-93
1.82400	-95
1.82767	-98
1.83133	-101
1.83500	-101
1.83867	-103
1.84233	-102
1.84600	-99
1.84967	-93
1.85333	-88
1.85700	-87
1.86067	-90
1.86433	-95
1.86800	-102
1.87167	-112
1.87533	-119
1.87900	-112
1.88267	-105
1.88633	-98
1.89000	-94
1.89367	-91
1.89733	-90
1.90100	-89
1.90467	-93
1.90833	-93
1.91200	-90
1.91567	-88
1.91933	-81
1.92300	-78
1.92667	-73
1.93033	-66
1.93400	-59
1.93767	-59
1.94133	-65
1.94500	-73
1.94867	-81
1.95233	-85
1.95600	-75
1.95967	10
1.96333	536
1.96700	3188
1.97067	13531
1.97433	44450
1.97800	115624
1.98167	242766
1.98533	421785
1.98900	625613
1.99267	817845
1.99633	966512
2.00000	1049578
2.00367	1056729
2.00733	990693
2.01100	867714
2.01467	713162
2.01833	553736
2.02200	409936
2.02567	292431
2.02933	203138
2.03300	138743
2.03667	93979
2.04033	63616
2.04400	43335
2.04767	29893
2.05133	20997
2.05500	15081
2.05867	11109
2.06233	8406
2.06600	6533
2.06967	5207
2.07333	4245
2.07700	3532
2.08067	2997
2.08433	2586
2.08800	2263
2.09167	2005
2.09533	1793
2.09900	1614
2.10267	1461
2.10633	1332
2.11000	1221
2.11367	1126
2.11733	1046
2.12100	975
2.12467	910
2.12833	855
2.13200	810
2.13567	769
2.13933	728
2.14300	690
2.14667	654
2.15033	621
2.15400	593
2.15767	568
2.16133	546
2.16500	523
2.16867	498
2.17233	476
2.17600	460
2.17967	449
2.18333	439
2.18700	429
2.19067	416
2.19433	404
2.19800	396
2.20167	389
2.20533	379
2.20900	368
2.21267	356
2.21633	345
2.22000	332
2.22367	321
2.22733	309
2.23100	297
2.23467	289
2.23833	284
2.24200	280
2.24567	276
2.24933	270
2.25300	263
2.25667	255
2.26033	245
2.26400	241
2.26767	241
2.27133	245
2.27500	253
2.27867	254
2.28233	247
2.28600	237
2.28967	226
2.29333	216
2.29700	210
2.30067	210
2.30433	213
2.30800	219
2.31167	220
2.31533	221
2.31900	222
2.32267	228
2.32633	232
2.33000	231
2.33367	229
2.33733	223
2.34100	211
2.34467	198
2.34833	187
2.35200	178
2.35567	171
2.35933	166
2.36300	167
2.36667	174
2.37033	181
2.37400	188
2.37767	195
2.38133	197
2.38500	196
2.38867	194
2.39233	192
2.39600	189
2.39967	184
2.40333	179
2.40700	170
2.41067	162
2.41433	160
2.41800	162
2.42167	167
2.42533	172
2.42900	174
2.43267	175
2.43633	178
2.44000	182
2.44367	187
2.44733	191
2.45100	187
2.45467	180
2.45833	173
2.46200	166
2.46567	160
2.46933	156
2.47300	155
2.47667	154
2.48033	154
2.48400	154
2.48767	154
2.49133	154
2.49500	155
2.49867	157
2.50233	161
2.50600	162
2.50967	158
2.51333	153
2.51700	147
2.52067	144
2.52433	143
2.52800	146
2.53167	149
2.53533	154
2.53900	158
2.54267	163
2.54633	164
2.55000	164
2.55367	161
2.55733	147
2.56100	138
2.56467	141
2.56833	148
2.57200	146
2.57567	149
2.57933	150
2.58300	155
2.58667	150
2.59033	135
2.59400	128
2.59767	116
2.60133	103
2.60500	100
2.60867	98
2.61233	92
2.61600	90
2.61967	92
2.62333	101
2.62700	107
2.63067	112
2.63433	115
2.63800	118
2.64167	118
2.64533	118
2.64900	118
2.65267	117
2.65633	117
2.66000	119
2.66367	123
2.66733	128
2.67100	134
2.67467	140
2.67833	143
2.68200	138
2.68567	133
2.68933	132
2.69300	130
2.69667	127
2.70033	122
2.70400	116
2.70767	108
2.71133	100
2.71500	90
2.71867	80
2.72233	82
2.72600	88
2.72967	102
2.73333	111
2.73700	108
2.74067	105
2.74433	95
2.74800	92
2.75167	92
2.75533	94
2.75900	102
2.76267	113
2.76633	119
2.77000	121
2.77367	122
2.77733	122
2.78100	122
2.78467	121
2.78833	119
2.79200	117
2.79567	115
2.79933	114
2.80300	117
2.80667	121
2.81033	125
2.81400	129
2.81767	130
2.82133	130
2.82500	132
2.82867	132
2.83233	131
2.83600	133
2.83967	136
2.84333	139
2.84700	141
2.85067	139
2.85433	133
2.85800	125
2.86167	119
2.86533	116
2.86900	108
2.87267	100
2.87633	100
2.88000	102
2.88367	105
2.88733	106
2.89100	105
2.89467	102
2.89833	103
2.90200	104
2.90567	105
2.90933	107
2.91300	110
2.91667	116
2.92033	124
2.92400	133
2.92767	142
2.93133	146
2.93500	142
2.93867	129
2.94233	117
2.94600	108
2.94967	105
2.95333	106
2.95700	104
2.96067	102
2.96433	101
2.96800	101
2.97167	104
2.97533	108
2.97900	110
2.98267	112
2.98633	110
2.99000	105
2.99367	100
2.99733	98
3.00100	99
3.00467	108
3.00833	121
3.01200	130
3.01567	130
3.01933	127
3.02300	123
3.02667	119
3.03033	118
3.03400	122
3.03767	126
3.04133	127
3.04500	126
3.04867	125
3.05233	121
3.05600	113
3.05967	106
3.06333	102
3.06700	107
3.07067	105
3.07433	98
3.07800	94
3.08167	92
3.08533	92
3.08900	94
3.09267	99
3.09633	103
3.10000	102
3.10367	100
3.10733	98
3.11100	101
3.11467	105
3.11833	107
3.12200	106
3.12567	102
3.12933	98
3.13300	95
3.13667	93
3.14033	88
3.14400	81
3.14767	79
3.15133	82
3.15500	85
3.15867	87
3.16233	92
3.16600	94
3.16967	99
3.17333	99
3.17700	95
3.18067	91
3.18433	92
3.18800	97
3.19167	114
3.19533	120
3.19900	124
3.20267	124
3.20633	115
3.21000	110
3.21367	108
3.21733	110
3.22100	111
3.22467	115
3.22833	103
3.23200	92
3.23567	85
3.23933	81
3.24300	76
3.24667	86
3.25033	84
3.25400	76
3.25767	71
3.26133	73
3.26500	81
3.26867	91
3.27233	101
3.27600	110
3.27967	110
3.28333	110
3.28700	105
3.29067	99
3.29433	98
3.29800	93
3.30167	85
3.30533	83
3.30900	79
3.31267	72
3.31633	80
3.32000	87
3.32367	92
3.32733	95
3.33100	92
3.33467	90
3.33833	92
3.34200	94
3.34567	95
3.34933	94
3.35300	91
3.35667	86
3.36033	80
3.36400	79
3.36767	80
3.37133	80
3.37500	78
3.37867	74
3.38233	74
3.38600	75
3.38967	72
3.39333	71
3.39700	75
3.40067	84
3.40433	88
3.40800	91
3.41167	90
3.41533	84
3.41900	77
3.42267	70
3.42633	65
3.43000	60
3.43367	57
3.43733	58
3.44100	65
3.44467	78
3.44833	89
3.45200	95
3.45567	93
3.45933	85
3.46300	71
3.46667	57
3.47033	47
3.47400	43
3.47767	45
3.48133	50
3.48500	54
3.48867	55
3.49233	55
3.49600	52
3.49967	53
3.50333	57
3.50700	64
3.51067	70
3.51433	77
3.51800	82
3.52167	83
3.52533	82
3.52900	80
3.53267	78
3.53633	77
3.54000	74
3.54367	68
3.54733	63
3.55100	61
3.55467	62
3.55833	64
3.56200	68
3.56567	72
3.56933	73
3.57300	76
3.57667	78
3.58033	78
3.58400	79
3.58767	80
3.59133	80
3.59500	79
3.59867	80
3.60233	80
3.60600	76
3.60967	71
3.61333	65
3.61700	61
3.62067	57
3.62433	54
3.62800	58
3.63167	60
3.63533	59
3.63900	55
3.64267	53
3.64633	53
3.65000	55
3.65367	53
3.65733	55
3.66100	61
3.66467	67
3.66833	70
3.67200	71
3.67567	71
3.67933	72
3.68300	71
3.68667	70
3.69033	67
3.69400	65
3.69767	65
3.70133	64
3.70500	61
3.70867	58
3.71233	54
3.71600	51
3.71967	51
3.72333	53
3.72700	56
3.73067	59
3.73433	60
3.73800	61
3.74167	59
3.74533	55
3.74900	53
3.75267	53
3.75633	53
3.76000	49
3.76367	46
3.76733	43
3.77100	42
3.77467	44
3.77833	47
3.78200	50
3.78567	50
3.78933	46
3.79300	43
3.79667	41
3.80033	40
3.80400	42
3.80767	48
3.81133	54
3.81500	56
3.81867	57
3.82233	58
3.82600	58
3.82967	57
3.83333	55
3.83700	56
3.84067	57
3.84433	59
3.84800	63
3.85167	64
3.85533	62
3.85900	57
3.86267	54
3.86633	53
3.87000	55
3.87367	54
3.87733	51
3.88100	48
3.88467	45
3.88833	42
3.89200	40
3.89567	44
3.89933	49
3.90300	55
3.90667	61
3.91033	61
3.91400	57
3.91767	54
3.92133	52
3.92500	54
3.92867	54
3.93233	56
3.93600	62
3.93967	59
3.94333	52
3.94700	48
3.95067	48
3.95433	50
3.95800	52
3.96167	52
3.96533	53
3.96900	54
3.97267	52
3.97633	51
3.98000	52
3.98367	47
3.98733	42
3.99100	41
3.99467	42
3.99833	44

[Chromatogram (Ch2)]
Interval(msec)	220
# of Points	1091
Start Time(min)	0.002
End Time(min)	3.998
R.Time (min)	Intensity
0.00167	1
0.00533	1
0.00900	2
0.01267	2
0.01633	2
0.02000	2
0.02367	3
0.02733	3
0.03100	3
0.03467	3
0.03833	4
0.04200	4
0.04567	4
0.04933	4
0.05300	3
0.05667	3
0.06033	3
0.06400	2
0.06767	2
0.07133	2
0.07500	2
0.07867	2
0.08233	2
0.08600	2
0.08967	2
0.09333	3
0.09700	3
0.10067	3
0.10433	3
0.10800	3
0.11167	3
0.11533	3
0.11900	3
0.12267	3
0.12633	3
0.13000	3
0.13367	2
0.13733	2
0.14100	2
0.14467	1
0.14833	1
0.15200	1
0.15567	1
0.15933	1
0.16300	1
0.16667	1
0.17033	1
0.17400	1
0.17767	1
0.18133	0
0.18500	1
0.18867	1
0.19233	1
0.19600	1
0.19967	1
0.20333	1
0.20700	1
0.21067	1
0.21433	1
0.21800	2
0.22167	2
0.22533	2
0.22900	3
0.23267	3
0.23633	3
0.24000	3
0.24367	3
0.24733	3
0.25100	3
0.25467	3
0.25833	2
0.26200	2
0.26567	2
0.26933	2
0.27300	2
0.27667	2
0.28033	2
0.28400	2
0.28767	2
0.29133	1
0.29500	1
0.29867	0
0.30233	0
0.30600	-0
0.30967	-0
0.31333	-0
0.31700	-1
0.32067	-1
0.32433	-1
0.32800	-1
0.33167	-1
0.33533	-1
0.33900	-2
0.34267	-2
0.34633	-2
0.35000	-3
0.35367	-3
0.35733	-3
0.36100	-4
0.36467	-4
0.36833	-4
0.37200	-3
0.37567	-3
0.37933	-3
0.38300	-2
0.38667	-2
0.39033	-1
0.39400	-1
0.39767	-0
0.40133	-0
0.40500	0
0.40867	1
0.41233	1
0.41600	1
0.41967	2
0.42333	2
0.42700	2
0.43067	2
0.43433	2
0.43800	2
0.44167	2
0.44533	2
0.44900	2
0.45267	2
0.45633	1
0.46000	1
0.46367	1
0.46733	1
0.47100	1
0.47467	1
0.47833	1
0.48200	1
0.48567	2
0.48933	2
0.49300	2
0.49667	2
0.50033	2
0.50400	2
0.50767	2
0.51133	2
0.51500	2
0.51867	2
0.52233	2
0.52600	2
0.52967	2
0.53333	2
0.53700	2
0.54067	2
0.54433	2
0.54800	2
0.55167	1
0.55533	1
0.55900	1
0.56267	1
0.56633	1
0.57000	0
0.57367	0
0.57733	-0
0.58100	-0
0.58467	-1
0.58833	-1
0.59200	-1
0.59567	-0
0.59933	-0
0.60300	-0
0.60667	-0
0.61033	-0
0.61400	-0
0.61767	-1
0.62133	-1
0.62500	-1
0.62867	-1
0.63233	-1
0.63600	-1
0.63967	-1
0.64333	-1
0.64700	-1
0.65067	-1
0.65433	-1
0.65800	-0
0.66167	-0
0.66533	0
0.66900	1
0.67267	1
0.67633	1
0.68000	1
0.68367	1
0.68733	1
0.69100	1
0.69467	1
0.69833	1
0.70200	1
0.70567	1
0.70933	1
0.71300	0
0.71667	1
0.72033	1
0.72400	1
0.72767	1
0.73133	1
0.73500	0
0.73867	0
0.74233	0
0.74600	0
0.74967	0
0.75333	0
0.75700	0
0.76067	0
0.76433	1
0.76800	1
0.77167	1
0.77533	1
0.77900	1
0.78267	1
0.78633	1
0.79000	1
0.79367	1
0.79733	1
0.80100	1
0.80467	1
0.80833	1
0.81200	1
0.81567	1
0.81933	1
0.82300	1
0.82667	1
0.83033	1
0.83400	1
0.83767	1
0.84133	1
0.84500	1
0.84867	1
0.85233	0
0.85600	0
0.85967	-0
0.86333	-0
0.86700	-1
0.87067	-1
0.87433	-1
0.87800	-1
0.88167	-1
0.88533	-1
0.88900	-1
0.89267	-1
0.89633	-1
0.90000	-1
0.90367	-1
0.90733	-1
0.91100	-0
0.91467	-0
0.91833	0
0.92200	0
0.92567	0
0.92933	1
0.93300	1
0.93667	1
0.94033	1
0.94400	1
0.94767	0
0.95133	0
0.95500	0
0.95867	0
0.96233	0
0.96600	1
0.96967	1
0.97333	1
0.97700	1
0.98067	1
0.98433	1
0.98800	1
0.99167	1
0.99533	1
0.99900	1
1.00267	1
1.00633	1
1.01000	1
1.01367	1
1.01733	1
1.02100	1
1.02467	0
1.02833	0
1.03200	0
1.03567	-0
1.03933	-0
1.04300	0
1.04667	0
1.05033	0
1.05400	0
1.05767	0
1.06133	0
1.06500	0
1.06867	0
1.07233	0
1.07600	0
1.07967	0
1.08333	0
1.08700	0
1.09067	0
1.09433	0
1.09800	0
1.10167	1
1.10533	1
1.10900	1
1.11267	1
1.11633	0
1.12000	0
1.12367	0
1.12733	0
1.13100	0
1.13467	0
1.13833	0
1.14200	0
1.14567	0
1.14933	0
1.15300	0
1.15667	0
1.16033	0
1.16400	0
1.16767	0
1.17133	0
1.17500	0
1.17867	1
1.18233	1
1.18600	1
1.18967	0
1.19333	0
1.19700	0
1.20067	0
1.20433	-0
1.20800	-0
1.21167	-0
1.21533	-0
1.21900	-1
1.22267	-1
1.22633	-1
1.23000	-1
1.23367	-1
1.23733	-1
1.24100	-1
1.24467	-1
1.24833	-1
1.25200	-0
1.25567	-0
1.25933	-0
1.26300	-0
1.26667	-0
1.27033	-0
1.27400	-0
1.27767	-0
1.28133	-0
1.28500	-0
1.28867	-0
1.29233	-0
1.29600	-0
1.29967	-0
1.30333	-0
1.30700	0
1.31067	0
1.31433	0
1.31800	0
1.32167	1
1.32533	1
1.32900	1
1.33267	1
1.33633	0
1.34000	0
1.34367	0
1.34733	0
1.35100	0
1.35467	0
1.35833	0
1.36200	0
1.36567	1
1.36933	1
1.37300	1
1.37667	1
1.38033	0
1.38400	0
1.38767	-0
1.39133	-0
1.39500	-0
1.39867	-1
1.40233	-1
1.40600	-2
1.40967	-2
1.41333	-2
1.41700	-2
1.42067	-2
1.42433	-2
1.42800	-2
1.43167	-2
1.43533	-3
1.43900	-3
1.44267	-3
1.44633	-4
1.45000	-4
1.45367	-4
1.45733	-4
1.46100	-4
1.46467	-4
1.46833	-4
1.47200	-4
1.47567	-4
1.47933	-4
1.48300	-4
1.48667	-4
1.49033	-4
1.49400	-4
1.49767	-4
1.50133	-4
1.50500	-3
1.50867	-3
1.51233	-3
1.51600	-3
1.51967	-2
1.52333	-2
1.52700	-1
1.53067	-1
1.53433	-1
1.53800	-0
1.54167	-0
1.54533	0
1.54900	0
1.55267	1
1.55633	1
1.56000	1
1.56367	1
1.56733	1
1.57100	1
1.57467	2
1.57833	2
1.58200	2
1.58567	2
1.58933	1
1.59300	1
1.59667	0
1.60033	-1
1.60400	-2
1.60767	-3
1.61133	-4
1.61500	-6
1.61867	-8
1.62233	-11
1.62600	-13
1.62967	-16
1.63333	-19
1.63700	-22
1.64067	-26
1.64433	-29
1.64800	-33
1.65167	-37
1.65533	-40
1.65900	-44
1.66267	-49
1.66633	-53
1.67000	-58
1.67367	-64
1.67733	-70
1.68100	-75
1.68467	-81
1.68833	-86
1.69200	-90
1.69567	-94
1.69933	-98
1.70300	-101
1.70667	-103
1.71033	-105
1.71400	-107
1.71767	-108
1.72133	-110
1.72500	-111
1.72867	-112
1.73233	-112
1.73600	-113
1.73967	-114
1.74333	-115
1.74700	-116
1.75067	-116
1.75433	-117
1.75800	-118
1.76167	-118
1.76533	-118
1.76900	-119
1.77267	-119
1.77633	-118
1.78000	-118
1.78367	-118
1.78733	-118
1.79100	-119
1.79467	-120
1.79833	-120
1.80200	-121
1.80567	-122
1.80933	-122
1.81300	-122
1.81667	-122
1.82033	-122
1.82400	-121
1.82767	-121
1.83133	-120
1.83500	-120
1.83867	-120
1.84233	-120
1.84600	-120
1.84967	-120
1.85333	-120
1.85700	-121
1.86067	-121
1.86433	-121
1.86800	-121
1.87167	-121
1.87533	-121
1.87900	-120
1.88267	-120
1.88633	-120
1.89000	-120
1.89367	-120
1.89733	-119
1.90100	-119
1.90467	-119
1.90833	-119
1.91200	-118
1.91567	-118
1.91933	-117
1.92300	-117
1.92667	-116
1.93033	-116
1.93400	-116
1.93767	-116
1.94133	-116
1.94500	-117
1.94867	-117
1.95233	-117
1.95600	-117
1.95967	-116
1.96333	-116
1.96700	-115
1.97067	-115
1.97433	-114
1.97800	-114
1.98167	-114
1.98533	-114
1.98900	-115
1.99267	-114
1.99633	-114
2.00000	-114
2.00367	-114
2.00733	-114
2.01100	-113
2.01467	-113
2.01833	-113
2.02200	-112
2.02567	-112
2.02933	-111
2.03300	-111
2.03667	-111
2.04033	-110
2.04400	-110
2.04767	-110
2.05133	-110
2.05500	-110
2.05867	-109
2.06233	-109
2.06600	-108
2.06967	-108
2.07333	-108
2.07700	-108
2.08067	-108
2.08433	-109
2.08800	-109
2.09167	-109
2.09533	-108
2.09900	-108
2.10267	-108
2.10633	-107
2.11000	-106
2.11367	-106
2.11733	-105
2.12100	-105
2.12467	-104
2.12833	-104
2.13200	-103
2.13567	-103
2.13933	-103
2.14300	-102
2.14667	-102
2.15033	-102
2.15400	-102
2.15767	-101
2.16133	-101
2.16500	-101
2.16867	-100
2.17233	-100
2.17600	-100
2.17967	-100
2.18333	-99
2.18700	-99
2.19067	-99
2.19433	-98
2.19800	-97
2.20167	-97
2.20533	-95
2.20900	-94
2.21267	-94
2.21633	-93
2.22000	-93
2.22367	-94
2.22733	-94
2.23100	-93
2.23467	-93
2.23833	-93
2.24200	-93
2.24567	-92
2.24933	-92
2.25300	-91
2.25667	-91
2.26033	-91
2.26400	-91
2.26767	-90
2.27133	-90
2.27500	-90
2.27867	-90
2.28233	-90
2.28600	-91
2.28967	-90
2.29333	-90
2.29700	-89
2.30067	-89
2.30433	-89
2.30800	-89
2.31167	-89
2.31533	-88
2.31900	-89
2.32267	-89
2.32633	-89
2.33000	-89
2.33367	-89
2.33733	-89
2.34100	-89
2.34467	-88
2.34833	-87
2.35200	-86
2.35567	-85
2.35933	-83
2.36300	-82
2.36667	-81
2.37033	-79
2.37400	-76
2.37767	-73
2.38133	-70
2.38500	-67
2.38867	-63
2.39233	-59
2.39600	-55
2.39967	-50
2.40333	-46
2.40700	-42
2.41067	-38
2.41433	-34
2.41800	-30
2.42167	-26
2.42533	-23
2.42900	-20
2.43267	-18
2.43633	-16
2.44000	-14
2.44367	-12
2.44733	-10
2.45100	-8
2.45467	-6
2.45833	-5
2.46200	-4
2.46567	-3
2.46933	-2
2.47300	-1
2.47667	-0
2.48033	1
2.48400	2
2.48767	3
2.49133	4
2.49500	6
2.49867	6
2.50233	7
2.50600	7
2.50967	7
2.51333	7
2.51700	8
2.52067	8
2.52433	9
2.52800	10
2.53167	10
2.53533	11
2.53900	12
2.54267	12
2.54633	12
2.55000	12
2.55367	12
2.55733	12
2.56100	12
2.56467	13
2.56833	13
2.57200	13
2.57567	13
2.57933	13
2.58300	13
2.58667	13
2.59033	13
2.59400	13
2.59767	13
2.60133	13
2.60500	14
2.60867	14
2.61233	14
2.61600	14
2.61967	15
2.62333	15
2.62700	16
2.63067	16
2.63433	17
2.63800	17
2.64167	17
2.64533	18
2.64900	18
2.65267	18
2.65633	18
2.66000	17
2.66367	17
2.66733	17
2.67100	18
2.67467	18
2.67833	18
2.68200	18
2.68567	18
2.68933	18
2.69300	19
2.69667	19
2.70033	20
2.70400	20
2.70767	20
2.71133	21
2.71500	21
2.71867	21
2.72233	21
2.72600	22
2.72967	22
2.73333	22
2.73700	22
2.74067	22
2.74433	22
2.74800	22
2.75167	23
2.75533	23
2.75900	24
2.76267	24
2.76633	24
2.77000	24
2.77367	23
2.77733	23
2.78100	23
2.78467	23
2.78833	23
2.79200	23
2.79567	22
2.79933	22
2.80300	22
2.80667	22
2.81033	22
2.81400	22
2.81767	23
2.82133	23
2.82500	23
2.82867	24
2.83233	24
2.83600	24
2.83967	25
2.84333	25
2.84700	25
2.85067	24
2.85433	22
2.85800	18
2.86167	11
2.86533	2
2.86900	-10
2.87267	-26
2.87633	-47
2.88000	-71
2.88367	-99
2.88733	-131
2.89100	-167
2.89467	-206
2.89833	-248
2.90200	-292
2.90567	-338
2.90933	-386
2.91300	-436
2.91667	-486
2.92033	-536
2.92400	-586
2.92767	-636
2.93133	-685
2.93500	-734
2.93867	-783
2.94233	-833
2.94600	-888
2.94967	-949
2.95333	-1011
2.95700	-1063
2.96067	-1094
2.96433	-1099
2.96800	-1078
2.97167	-1034
2.97533	-973
2.97900	-900
2.98267	-822
2.98633	-741
2.99000	-662
2.99367	-586
2.99733	-515
3.00100	-450
3.00467	-391
3.00833	-338
3.01200	-291
3.01567	-250
3.01933	-214
3.02300	-182
3.02667	-154
3.03033	-131
3.03400	-110
3.03767	-93
3.04133	-77
3.04500	-64
3.04867	-53
3.05233	-44
3.05600	-36
3.05967	-29
3.06333	-23
3.06700	-17
3.07067	-13
3.07433	-9
3.07800	-6
3.08167	-3
3.08533	-0
3.08900	2
3.09267	4
3.09633	6
3.10000	7
3.10367	8
3.10733	9
3.11100	10
3.11467	11
3.11833	11
3.12200	12
3.12567	13
3.12933	13
3.13300	14
3.13667	14
3.14033	14
3.14400	14
3.14767	15
3.15133	15
3.15500	15
3.15867	16
3.16233	16
3.16600	16
3.16967	16
3.17333	17
3.17700	17
3.18067	17
3.18433	18
3.18800	18
3.19167	18
3.19533	18
3.19900	18
3.20267	18
3.20633	18
3.21000	18
3.21367	18
3.21733	18
3.22100	19
3.22467	19
3.22833	19
3.23200	19
3.23567	19
3.23933	20
3.24300	20
3.24667	20
3.25033	21
3.25400	21
3.25767	21
3.26133	21
3.26500	22
3.26867	22
3.27233	22
3.27600	22
3.27967	22
3.28333	22
3.28700	22
3.29067	22
3.29433	23
3.29800	23
3.30167	23
3.30533	23
3.30900	23
3.31267	23
3.31633	23
3.32000	23
3.32367	23
3.32733	23
3.33100	23
3.33467	23
3.33833	24
3.34200	24
3.34567	24
3.34933	24
3.35300	24
3.35667	24
3.36033	24
3.36400	24
3.36767	24
3.37133	24
3.37500	24
3.37867	24
3.38233	24
3.38600	24
3.38967	24
3.39333	24
3.39700	24
3.40067	24
3.40433	24
3.40800	24
3.41167	24
3.41533	24
3.41900	24
3.42267	24
3.42633	24
3.43000	24
3.43367	24
3.43733	24
3.44100	24
3.44467	24
3.44833	24
3.45200	24
3.45567	24
3.45933	24
3.46300	23
3.46667	23
3.47033	23
3.47400	23
3.47767	23
3.48133	24
3.48500	24
3.48867	24
3.49233	24
3.49600	24
3.49967	24
3.50333	24
3.50700	25
3.51067	25
3.51433	25
3.51800	25
3.52167	25
3.52533	25
3.52900	25
3.53267	25
3.53633	25
3.54000	25
3.54367	25
3.54733	25
3.55100	25
3.55467	25
3.55833	25
3.56200	24
3.56567	24
3.56933	24
3.57300	24
3.57667	24
3.58033	24
3.58400	24
3.58767	24
3.59133	24
3.59500	24
3.59867	24
3.60233	24
3.60600	24
3.60967	24
3.61333	24
3.61700	24
3.62067	24
3.62433	24
3.62800	23
3.63167	23
3.63533	23
3.63900	23
3.64267	23
3.64633	23
3.65000	23
3.65367	23
3.65733	23
3.66100	24
3.66467	23
3.66833	23
3.67200	23
3.67567	23
3.67933	23
3.68300	23
3.68667	24
3.69033	24
3.69400	24
3.69767	24
3.70133	24
3.70500	24
3.70867	24
3.71233	24
3.71600	24
3.71967	24
3.72333	24
3.72700	24
3.73067	24
3.73433	24
3.73800	24
3.74167	24
3.74533	24
3.74900	24
3.75267	24
3.75633	24
3.76000	24
3.76367	24
3.76733	25
3.77100	25
3.77467	25
3.77833	25
3.78200	25
3.78567	25
3.78933	25
3.79300	25
3.79667	25
3.80033	25
3.80400	25
3.80767	24
3.81133	24
3.81500	24
3.81867	24
3.82233	24
3.82600	24
3.82967	24
3.83333	24
3.83700	24
3.84067	24
3.84433	24
3.84800	25
3.85167	25
3.85533	25
3.85900	24
3.86267	24
3.86633	24
3.87000	24
3.87367	24
3.87733	24
3.88100	24
3.88467	24
3.88833	24
3.89200	24
3.89567	24
3.89933	24
3.90300	24
3.90667	24
3.91033	24
3.91400	24
3.91767	24
3.92133	24
3.92500	25
3.92867	25
3.93233	24
3.93600	24
3.93967	24
3.94333	24
3.94700	24
3.95067	24
3.95433	24
3.95800	24
3.96167	24
3.96533	24
3.96900	24
3.97267	24
3.97633	24
3.98000	24
3.98367	24
3.98733	24
3.99100	25
3.99467	25
3.99833	25

[Chromatogram (Ch3)]
Interval(msec)	220
# of Points	1091
Start Time(min)	0.002
End Time(min)	3.998
R.Time (min)	Intensity
0.00167	1
0.00533	2
0.00900	2
0.01267	0
0.01633	0
0.02000	1
0.02367	2
0.02733	4
0.03100	5
0.03467	6
0.03833	8
0.04200	7
0.04567	7
0.04933	6
0.05300	5
0.05667	5
0.06033	6
0.06400	7
0.06767	5
0.07133	4
0.07500	5
0.07867	5
0.08233	6
0.08600	6
0.08967	5
0.09333	6
0.09700	4
0.10067	4
0.10433	6
0.10800	7
0.11167	8
0.11533	10
0.11900	11
0.12267	9
0.12633	7
0.13000	4
0.13367	5
0.13733	8
0.14100	10
0.14467	11
0.14833	11
0.15200	12
0.15567	12
0.15933	12
0.16300	11
0.16667	11
0.17033	12
0.17400	13
0.17767	13
0.18133	14
0.18500	16
0.18867	16
0.19233	16
0.19600	15
0.19967	15
0.20333	14
0.20700	11
0.21067	9
0.21433	11
0.21800	13
0.22167	14
0.22533	14
0.22900	14
0.23267	13
0.23633	13
0.24000	12
0.24367	11
0.24733	12
0.25100	12
0.25467	12
0.25833	12
0.26200	9
0.26567	6
0.26933	7
0.27300	8
0.27667	8
0.28033	7
0.28400	7
0.28767	7
0.29133	8
0.29500	7
0.29867	6
0.30233	6
0.30600	8
0.30967	11
0.31333	13
0.31700	14
0.32067	14
0.32433	15
0.32800	16
0.33167	18
0.33533	17
0.33900	15
0.34267	11
0.34633	10
0.35000	9
0.35367	9
0.35733	10
0.36100	11
0.36467	12
0.36833	13
0.37200	15
0.37567	17
0.37933	17
0.38300	17
0.38667	15
0.39033	15
0.39400	16
0.39767	14
0.40133	16
0.40500	16
0.40867	17
0.41233	17
0.41600	16
0.41967	15
0.42333	15
0.42700	17
0.43067	20
0.43433	18
0.43800	17
0.44167	18
0.44533	20
0.44900	20
0.45267	19
0.45633	21
0.46000	23
0.46367	24
0.46733	25
0.47100	25
0.47467	23
0.47833	22
0.48200	19
0.48567	17
0.48933	16
0.49300	15
0.49667	17
0.50033	20
0.50400	22
0.50767	21
0.51133	20
0.51500	21
0.51867	20
0.52233	20
0.52600	22
0.52967	24
0.53333	26
0.53700	27
0.54067	28
0.54433	27
0.54800	25
0.55167	24
0.55533	23
0.55900	22
0.56267	22
0.56633	23
0.57000	22
0.57367	21
0.57733	23
0.58100	26
0.58467	26
0.58833	28
0.59200	30
0.59567	30
0.59933	29
0.60300	27
0.60667	26
0.61033	25
0.61400	24
0.61767	23
0.62133	26
0.62500	30
0.62867	31
0.63233	31
0.63600	32
0.63967	33
0.64333	31
0.64700	29
0.65067	29
0.65433	29
0.65800	29
0.66167	30
0.66533	31
0.66900	32
0.67267	33
0.67633	32
0.68000	31
0.68367	29
0.68733	29
0.69100	26
0.69467	23
0.69833	21
0.70200	22
0.70567	23
0.70933	23
0.71300	22
0.71667	21
0.72033	21
0.72400	24
0.72767	25
0.73133	26
0.73500	27
0.73867	29
0.74233	30
0.74600	30
0.74967	31
0.75333	32
0.75700	32
0.76067	31
0.76433	29
0.76800	29
0.77167	30
0.77533	32
0.77900	33
0.78267	34
0.78633	35
0.79000	35
0.79367	33
0.79733	33
0.80100	34
0.80467	34
0.80833	33
0.81200	33
0.81567	33
0.81933	32
0.82300	32
0.82667	33
0.83033	32
0.83400	28
0.83767	25
0.84133	25
0.84500	27
0.84867	29
0.85233	28
0.85600	27
0.85967	27
0.86333	28
0.86700	31
0.87067	32
0.87433	32
0.87800	30
0.88167	29
0.88533	29
0.88900	31
0.89267	32
0.89633	29
0.90000	28
0.90367	27
0.90733	27
0.91100	27
0.91467	28
0.91833	27
0.92200	29
0.92567	31
0.92933	33
0.93300	33
0.93667	31
0.94033	30
0.94400	29
0.94767	30
0.95133	32
0.95500	33
0.95867	33
0.96233	33
0.96600	33
0.96967	33
0.97333	32
0.97700	32
0.98067	32
0.98433	30
0.98800	29
0.99167	30
0.99533	30
0.99900	32
1.00267	34
1.00633	35
1.01000	34
1.01367	34
1.01733	33
1.02100	33
1.02467	31
1.02833	29
1.03200	28
1.03567	29
1.03933	33
1.04300	35
1.04667	35
1.05033	34
1.05400	32
1.05767	30
1.06133	28
1.06500	27
1.06867	27
1.07233	28
1.07600	28
1.07967	27
1.08333	28
1.08700	30
1.09067	33
1.09433	34
1.09800	35
1.10167	35
1.10533	35
1.10900	33
1.11267	32
1.11633	34
1.12000	35
1.12367	37
1.12733	38
1.13100	38
1.13467	36
1.13833	35
1.14200	34
1.14567	34
1.14933	35
1.15300	35
1.15667	36
1.16033	37
1.16400	38
1.16767	38
1.17133	36
1.17500	37
1.17867	37
1.18233	36
1.18600	33
1.18967	34
1.19333	34
1.19700	34
1.20067	36
1.20433	36
1.20800	35
1.21167	35
1.21533	37
1.21900	38
1.22267	41
1.22633	41
1.23000	40
1.23367	39
1.23733	39
1.24100	39
1.24467	38
1.24833	39
1.25200	40
1.25567	39
1.25933	38
1.26300	38
1.26667	38
1.27033	37
1.27400	38
1.27767	38
1.28133	38
1.28500	37
1.28867	37
1.29233	36
1.29600	35
1.29967	36
1.30333	37
1.30700	39
1.31067	40
1.31433	38
1.31800	38
1.32167	38
1.32533	39
1.32900	40
1.33267	42
1.33633	42
1.34000	41
1.34367	40
1.34733	40
1.35100	40
1.35467	45
1.35833	45
1.36200	44
1.36567	44
1.36933	45
1.37300	46
1.37667	46
1.38033	46
1.38400	43
1.38767	41
1.39133	41
1.39500	41
1.39867	42
1.40233	42
1.40600	43
1.40967	45
1.41333	45
1.41700	44
1.42067	43
1.42433	45
1.42800	44
1.43167	44
1.43533	44
1.43900	43
1.44267	42
1.44633	45
1.45000	48
1.45367	49
1.45733	48
1.46100	47
1.46467	48
1.46833	47
1.47200	47
1.47567	48
1.47933	48
1.48300	47
1.48667	45
1.49033	46
1.49400	48
1.49767	48
1.50133	48
1.50500	48
1.50867	48
1.51233	48
1.51600	49
1.51967	49
1.52333	49
1.52700	50
1.53067	50
1.53433	50
1.53800	47
1.54167	44
1.54533	43
1.54900	42
1.55267	42
1.55633	44
1.56000	43
1.56367	42
1.56733	42
1.57100	42
1.57467	42
1.57833	42
1.58200	42
1.58567	45
1.58933	47
1.59300	47
1.59667	48
1.60033	48
1.60400	47
1.60767	47
1.61133	46
1.61500	45
1.61867	45
1.62233	48
1.62600	51
1.62967	54
1.63333	54
1.63700	52
1.64067	52
1.64433	51
1.64800	49
1.65167	47
1.65533	46
1.65900	47
1.66267	49
1.66633	52
1.67000	53
1.67367	54
1.67733	58
1.68100	62
1.68467	65
1.68833	66
1.69200	65
1.69567	65
1.69933	63
1.70300	62
1.70667	62
1.71033	64
1.71400	63
1.71767	64
1.72133	63
1.72500	64
1.72867	66
1.73233	69
1.73600	72
1.73967	73
1.74333	71
1.74700	70
1.75067	71
1.75433	72
1.75800	72
1.76167	72
1.76533	73
1.76900	74
1.77267	78
1.77633	79
1.78000	78
1.78367	79
1.78733	80
1.79100	81
1.79467	84
1.79833	87
1.80200	89
1.80567	87
1.80933	85
1.81300	83
1.81667	81
1.82033	81
1.82400	83
1.82767	82
1.83133	82
1.83500	82
1.83867	82
1.84233	82
1.84600	83
1.84967	85
1.85333	87
1.85700	88
1.86067	88
1.86433	89
1.86800	89
1.87167	90
1.87533	90
1.87900	92
1.88267	93
1.88633	93
1.89000	94
1.89367	96
1.89733	99
1.90100	101
1.90467	103
1.90833	106
1.91200	106
1.91567	106
1.91933	105
1.92300	103
1.92667	102
1.93033	102
1.93400	103
1.93767	103
1.94133	104
1.94500	105
1.94867	108
1.95233	108
1.95600	108
1.95967	109
1.96333	112
1.96700	113
1.97067	112
1.97433	111
1.97800	113
1.98167	116
1.98533	119
1.98900	120
1.99267	120
1.99633	119
2.00000	119
2.00367	120
2.00733	122
2.01100	123
2.01467	123
2.01833	123
2.02200	126
2.02567	130
2.02933	132
2.03300	133
2.03667	136
2.04033	136
2.04400	137
2.04767	139
2.05133	141
2.05500	142
2.05867	147
2.06233	149
2.06600	150
2.06967	148
2.07333	148
2.07700	149
2.08067	151
2.08433	151
2.08800	151
2.09167	154
2.09533	158
2.09900	159
2.10267	160
2.10633	161
2.11000	163
2.11367	166
2.11733	166
2.12100	166
2.12467	165
2.12833	167
2.13200	168
2.13567	169
2.13933	172
2.14300	174
2.14667	176
2.15033	178
2.15400	180
2.15767	181
2.16133	182
2.16500	183
2.16867	183
2.17233	185
2.17600	187
2.17967	189
2.18333	191
2.18700	193
2.19067	192
2.19433	193
2.19800	194
2.20167	194
2.20533	197
2.20900	199
2.21267	200
2.21633	202
2.22000	204
2.22367	205
2.22733	205
2.23100	206
2.23467	208
2.23833	207
2.24200	209
2.24567	212
2.24933	215
2.25300	216
2.25667	217
2.26033	218
2.26400	221
2.26767	224
2.27133	228
2.27500	228
2.27867	227
2.28233	228
2.28600	229
2.28967	232
2.29333	236
2.29700	240
2.30067	243
2.30433	246
2.30800	249
2.31167	251
2.31533	252
2.31900	252
2.32267	253
2.32633	253
2.33000	257
2.33367	260
2.33733	262
2.34100	264
2.34467	265
2.34833	268
2.35200	269
2.35567	269
2.35933	270
2.36300	269
2.36667	269
2.37033	272
2.37400	276
2.37767	279
2.38133	280
2.38500	280
2.38867	279
2.39233	280
2.39600	282
2.39967	283
2.40333	282
2.40700	281
2.41067	281
2.41433	283
2.41800	285
2.42167	288
2.42533	291
2.42900	294
2.43267	296
2.43633	296
2.44000	298
2.44367	302
2.44733	306
2.45100	307
2.45467	301
2.45833	295
2.46200	284
2.46567	273
2.46933	263
2.47300	254
2.47667	248
2.48033	241
2.48400	232
2.48767	221
2.49133	210
2.49500	197
2.49867	183
2.50233	170
2.50600	157
2.50967	143
2.51333	131
2.51700	123
2.52067	116
2.52433	107
2.52800	100
2.53167	93
2.53533	87
2.53900	80
2.54267	76
2.54633	73
2.55000	69
2.55367	66
2.55733	61
2.56100	55
2.56467	47
2.56833	42
2.57200	36
2.57567	31
2.57933	26
2.58300	22
2.58667	18
2.59033	14
2.59400	11
2.59767	9
2.60133	4
2.60500	-7
2.60867	-25
2.61233	-52
2.61600	-83
2.61967	-120
2.62333	-160
2.62700	-200
2.63067	-238
2.63433	-271
2.63800	-299
2.64167	-322
2.64533	-338
2.64900	-347
2.65267	-352
2.65633	-354
2.66000	-353
2.66367	-349
2.66733	-343
2.67100	-332
2.67467	-321
2.67833	-312
2.68200	-305
2.68567	-298
2.68933	-289
2.69300	-279
2.69667	-270
2.70033	-258
2.70400	-247
2.70767	-237
2.71133	-229
2.71500	-224
2.71867	-218
2.72233	-212
2.72600	-205
2.72967	-198
2.73333	-190
2.73700	-182
2.74067	-175
2.74433	-168
2.74800	-163
2.75167	-158
2.75533	-154
2.75900	-149
2.76267	-146
2.76633	-141
2.77000	-137
2.77367	-131
2.77733	-127
2.78100	-123
2.78467	-121
2.78833	-119
2.79200	-117
2.79567	-115
2.79933	-114
2.80300	-114
2.80667	-113
2.81033	-114
2.81400	-112
2.81767	-110
2.82133	-110
2.82500	-110
2.82867	-109
2.83233	-99
2.83600	-73
2.83967	-16
2.84333	92
2.84700	275
2.85067	550
2.85433	925
2.85800	1394
2.86167	1937
2.86533	2522
2.86900	3103
2.87267	3630
2.87633	4062
2.88000	4370
2.88367	4540
2.88733	4568
2.89100	4469
2.89467	4268
2.89833	3992
2.90200	3672
2.90567	3329
2.90933	2982
2.91300	2643
2.91667	2324
2.92033	2027
2.92400	1755
2.92767	1510
2.93133	1293
2.93500	1101
2.93867	930
2.94233	781
2.94600	652
2.94967	540
2.95333	445
2.95700	363
2.96067	291
2.96433	229
2.96800	176
2.97167	126
2.97533	82
2.97900	49
2.98267	23
2.98633	-0
2.99000	-21
2.99367	-39
2.99733	-54
3.00100	-69
3.00467	-81
3.00833	-91
3.01200	-102
3.01567	-111
3.01933	-117
3.02300	-123
3.02667	-128
3.03033	-132
3.03400	-135
3.03767	-136
3.04133	-138
3.04500	-140
3.04867	-144
3.05233	-145
3.05600	-145
3.05967	-145
3.06333	-145
3.06700	-146
3.07067	-147
3.07433	-147
3.07800	-144
3.08167	-142
3.08533	-142
3.08900	-143
3.09267	-144
3.09633	-144
3.10000	-146
3.10367	-146
3.10733	-148
3.11100	-149
3.11467	-149
3.11833	-147
3.12200	-145
3.12567	-145
3.12933	-143
3.13300	-143
3.13667	-146
3.14033	-148
3.14400	-149
3.14767	-147
3.15133	-145
3.15500	-144
3.15867	-143
3.16233	-142
3.16600	-142
3.16967	-143
3.17333	-142
3.17700	-142
3.18067	-142
3.18433	-143
3.18800	-144
3.19167	-143
3.19533	-139
3.19900	-136
3.20267	-136
3.20633	-138
3.21000	-138
3.21367	-135
3.21733	-132
3.22100	-131
3.22467	-132
3.22833	-134
3.23200	-135
3.23567	-134
3.23933	-132
3.24300	-130
3.24667	-129
3.25033	-128
3.25400	-125
3.25767	-121
3.26133	-122
3.26500	-123
3.26867	-126
3.27233	-129
3.27600	-129
3.27967	-128
3.28333	-127
3.28700	-126
3.29067	-126
3.29433	-124
3.29800	-123
3.30167	-124
3.30533	-126
3.30900	-127
3.31267	-126
3.31633	-124
3.32000	-123
3.32367	-122
3.32733	-123
3.33100	-124
3.33467	-124
3.33833	-126
3.34200	-128
3.34567	-129
3.34933	-131
3.35300	-133
3.35667	-135
3.36033	-134
3.36400	-134
3.36767	-136
3.37133	-136
3.37500	-137
3.37867	-138
3.38233	-137
3.38600	-135
3.38967	-134
3.39333	-134
3.39700	-134
3.40067	-134
3.40433	-134
3.40800	-137
3.41167	-141
3.41533	-144
3.41900	-148
3.42267	-150
3.42633	-151
3.43000	-151
3.43367	-149
3.43733	-146
3.44100	-145
3.44467	-147
3.44833	-149
3.45200	-152
3.45567	-154
3.45933	-154
3.46300	-155
3.46667	-154
3.47033	-153
3.47400	-152
3.47767	-153
3.48133	-155
3.48500	-157
3.48867	-158
3.49233	-156
3.49600	-154
3.49967	-154
3.50333	-153
3.50700	-153
3.51067	-155
3.51433	-156
3.51800	-155
3.52167	-155
3.52533	-155
3.52900	-154
3.53267	-153
3.53633	-154
3.54000	-154
3.54367	-155
3.54733	-154
3.55100	-152
3.55467	-153
3.55833	-155
3.56200	-155
3.56567	-154
3.56933	-154
3.57300	-153
3.57667	-151
3.58033	-149
3.58400	-151
3.58767	-155
3.59133	-159
3.59500	-159
3.59867	-158
3.60233	-159
3.60600	-160
3.60967	-158
3.61333	-155
3.61700	-153
3.62067	-154
3.62433	-155
3.62800	-158
3.63167	-161
3.63533	-161
3.63900	-159
3.64267	-157
3.64633	-157
3.65000	-156
3.65367	-155
3.65733	-156
3.66100	-158
3.66467	-158
3.66833	-157
3.67200	-156
3.67567	-155
3.67933	-156
3.68300	-158
3.68667	-158
3.69033	-156
3.69400	-155
3.69767	-153
3.70133	-152
3.70500	-152
3.70867	-153
3.71233	-154
3.71600	-154
3.71967	-154
3.72333	-155
3.72700	-153
3.73067	-153
3.73433	-154
3.73800	-154
3.74167	-155
3.74533	-156
3.74900	-156
3.75267	-154
3.75633	-153
3.76000	-152
3.76367	-152
3.76733	-151
3.77100	-149
3.77467	-147
3.77833	-146
3.78200	-148
3.78567	-150
3.78933	-148
3.79300	-146
3.79667	-144
3.80033	-144
3.80400	-146
3.80767	-144
3.81133	-144
3.81500	-145
3.81867	-145
3.82233	-146
3.82600	-146
3.82967	-145
3.83333	-143
3.83700	-141
3.84067	-139
3.84433	-140
3.84800	-142
3.85167	-141
3.85533	-140
3.85900	-139
3.86267	-139
3.86633	-138
3.87000	-138
3.87367	-138
3.87733	-137
3.88100	-137
3.88467	-138
3.88833	-139
3.89200	-140
3.89567	-141
3.89933	-141
3.90300	-140
3.90667	-141
3.91033	-143
3.91400	-147
3.91767	-147
3.92133	-146
3.92500	-145
3.92867	-144
3.93233	-144
3.93600	-140
3.93967	-136
3.94333	-134
3.94700	-132
3.95067	-129
3.95433	-127
3.95800	-124
3.96167	-120
3.96533	-119
3.96900	-120
3.97267	-120
3.97633	-121
3.98000	-121
3.98367	-122
3.98733	-122
3.99100	-122
3.99467	-118
3.99833	-112

[Status Trace (Column Oven Temperature)]
Interval(msec)	1000
# of Points	240
Start Time(min)	0.009
End Time(min)	3.993
Intensity Units	
Intensity Multiplier	1
R.Time (min)	Intensity
0.00942	34.99
0.02608	34.97
0.04275	34.97
0.05942	34.97
0.07608	34.96
0.09275	34.96
0.10942	34.97
0.12608	34.98
0.14275	34.99
0.15942	34.98
0.17608	34.99
0.19275	34.98
0.20942	34.97
0.22608	34.97
0.24275	34.97
0.25942	34.97
0.27608	34.97
0.29275	34.97
0.30942	34.97
0.32608	34.98
0.34275	35.00
0.35942	35.02
0.37608	35.02
0.39275	35.01
0.40942	35.00
0.42608	34.99
0.44275	34.99
0.45942	34.99
0.47608	34.98
0.49275	34.98
0.50942	34.98
0.52608	34.96
0.54275	34.96
0.55942	34.97
0.57608	34.98
0.59275	34.98
0.60942	34.99
0.62608	34.99
0.64275	34.99
0.65942	35.00
0.67608	34.99
0.69275	34.99
0.70942	34.98
0.72608	34.98
0.74275	34.98
0.75942	34.98
0.77608	34.98
0.79275	34.97
0.80942	34.97
0.82608	34.98
0.84275	34.99
0.85942	34.99
0.87608	34.98
0.89275	34.98
0.90942	34.98
0.92608	34.98
0.94275	34.99
0.95942	34.98
0.97608	34.97
0.99275	34.98
1.00942	34.98
1.02608	34.99
1.04275	34.99
1.05942	34.99
1.07608	34.98
1.09275	34.97
1.10942	34.98
1.12608	34.97
1.14275	34.98
1.15942	34.98
1.17608	34.97
1.19275	34.98
1.20942	34.99
1.22608	35.00
1.24275	35.00
1.25942	35.00
1.27608	34.99
1.29275	34.99
1.30942	34.99
1.32608	34.99
1.34275	34.99
1.35942	34.98
1.37608	34.98
1.39275	34.98
1.40942	35.00
1.42608	35.00
1.44275	35.02
1.45942	35.03
1.47608	35.04
1.49275	35.05
1.50942	35.04
1.52608	35.04
1.54275	35.03
1.55942	35.02
1.57608	35.01
1.59275	35.02
1.60942	35.08
1.62608	35.20
1.64275	35.39
1.65942	35.64
1.67608	35.99
1.69275	36.36
1.70942	36.72
1.72608	37.06
1.74275	37.39
1.75942	37.73
1.77608	38.04
1.79275	38.39
1.80942	38.72
1.82608	39.03
1.84275	39.38
1.85942	39.71
1.87608	40.03
1.89275	40.36
1.90942	40.68
1.92608	41.00
1.94275	41.34
1.95942	41.66
1.97608	41.99
1.99275	42.31
2.00942	42.65
2.02608	42.97
2.04275	43.31
2.05942	43.61
2.07608	43.95
2.09275	44.26
2.10942	44.59
2.12608	44.92
2.14275	45.25
2.15942	45.56
2.17608	45.89
2.19275	46.22
2.20942	46.54
2.22608	46.89
2.24275	47.20
2.25942	47.53
2.27608	47.87
2.29275	48.19
2.30942	48.53
2.32608	48.91
2.34275	49.22
2.35942	49.46
2.37608	49.60
2.39275	49.63
2.40942	49.63
2.42608	49.63
2.44275	49.64
2.45942	49.66
2.47608	49.68
2.49275	49.68
2.50942	49.70
2.52608	49.72
2.54275	49.74
2.55942	49.75
2.57608	49.77
2.59275	49.77
2.60942	49.79
2.62608	49.80
2.64275	49.81
2.65942	49.84
2.67608	49.85
2.69275	49.85
2.70942	49.85
2.72608	49.86
2.74275	49.85
2.75942	49.85
2.77608	49.88
2.79275	49.90
2.80942	49.91
2.82608	49.91
2.84275	49.92
2.85942	49.91
2.87608	49.91
2.89275	49.92
2.90942	49.93
2.92608	49.94
2.94275	49.96
2.95942	49.98
2.97608	50.01
2.99275	50.02
3.00942	50.04
3.02608	50.04
3.04275	50.05
3.05942	50.06
3.07608	50.05
3.09275	50.06
3.10942	50.06
3.12608	50.07
3.14275	50.09
3.15942	50.09
3.17608	50.09
3.19275	50.09
3.20942	50.10
3.22608	50.10
3.24275	50.10
3.25942	50.09
3.27608	50.08
3.29275	50.08
3.30942	50.08
3.32608	50.08
3.34275	50.08
3.35942	50.08
3.37608	50.07
3.39275	50.07
3.40942	50.06
3.42608	50.07
3.44275	50.07
3.45942	50.08
3.47608	50.08
3.49275	50.08
3.50942	50.08
3.52608	50.07
3.54275	50.06
3.55942	50.07
3.57608	50.07
3.59275	50.07
3.60942	50.08
3.62608	50.09
3.64275	50.10
3.65942	50.10
3.67608	50.10
3.69275	50.09
3.70942	50.09
3.72608	50.09
3.74275	50.09
3.75942	50.09
3.77608	50.09
3.79275	50.09
3.80942	50.09
3.82608	50.08
3.84275	50.08
3.85942	50.09
3.87608	50.09
3.89275	50.09
3.90942	50.08
3.92608	50.09
3.94275	50.09
3.95942	50.08
3.97608	50.09
3.99275	50.08

[Status Trace (Injection Unit Temperature)]
Interval(msec)	1000
# of Points	240
Start Time(min)	0.009
End Time(min)	3.993
Intensity Units	
Intensity Multiplier	1
R.Time (min)	Intensity
0.00942	99.98
0.02608	99.98
0.04275	99.98
0.05942	99.98
0.07608	99.98
0.09275	99.98
0.10942	99.98
0.12608	99.98
0.14275	99.98
0.15942	99.98
0.17608	99.98
0.19275	99.98
0.20942	99.98
0.22608	99.98
0.24275	99.98
0.25942	99.98
0.27608	99.98
0.29275	99.98
0.30942	99.98
0.32608	99.98
0.34275	99.98
0.35942	99.98
0.37608	99.98
0.39275	99.98
0.40942	99.98
0.42608	99.98
0.44275	99.98
0.45942	99.98
0.47608	99.98
0.49275	99.98
0.50942	99.98
0.52608	99.97
0.54275	99.98
0.55942	99.98
0.57608	99.98
0.59275	99.98
0.60942	99.98
0.62608	99.98
0.64275	99.98
0.65942	99.98
0.67608	99.98
0.69275	99.98
0.70942	99.98
0.72608	99.97
0.74275	99.98
0.75942	99.98
0.77608	99.98
0.79275	99.98
0.80942	99.98
0.82608	99.98
0.84275	99.98
0.85942	99.98
0.87608	99.98
0.89275	99.98
0.90942	99.99
0.92608	99.98
0.94275	99.98
0.95942	99.99
0.97608	99.98
0.99275	99.98
1.00942	99.99
1.02608	99.98
1.04275	99.98
1.05942	99.99
1.07608	99.98
1.09275	99.98
1.10942	99.98
1.12608	99.99
1.14275	99.99
1.15942	99.99
1.17608	99.99
1.19275	99.99
1.20942	99.98
1.22608	99.99
1.24275	99.99
1.25942	99.98
1.27608	99.99
1.29275	99.99
1.30942	99.99
1.32608	99.98
1.34275	99.98
1.35942	99.98
1.37608	99.98
1.39275	99.98
1.40942	99.98
1.42608	99.98
1.44275	99.98
1.45942	99.98
1.47608	99.98
1.49275	99.98
1.50942	99.98
1.52608	99.98
1.54275	99.98
1.55942	99.99
1.57608	99.98
1.59275	99.98
1.60942	99.98
1.62608	99.99
1.64275	99.99
1.65942	99.99
1.67608	99.98
1.69275	99.98
1.70942	99.98
1.72608	99.99
1.74275	99.99
1.75942	99.99
1.77608	99.99
1.79275	99.98
1.80942	99.98
1.82608	99.98
1.84275	99.99
1.85942	99.98
1.87608	99.98
1.89275	99.98
1.90942	99.98
1.92608	99.98
1.94275	99.98
1.95942	99.98
1.97608	99.98
1.99275	99.98
2.00942	99.98
2.02608	99.98
2.04275	99.98
2.05942	99.98
2.07608	99.97
2.09275	99.98
2.10942	99.98
2.12608	99.98
2.14275	99.98
2.15942	99.98
2.17608	99.98
2.19275	99.98
2.20942	99.98
2.22608	99.97
2.24275	99.97
2.25942	99.98
2.27608	99.98
2.29275	99.97
2.30942	99.98
2.32608	99.97
2.34275	99.98
2.35942	99.97
2.37608	99.97
2.39275	99.97
2.40942	99.97
2.42608	99.97
2.44275	99.97
2.45942	99.97
2.47608	99.98
2.49275	99.97
2.50942	99.97
2.52608	99.97
2.54275	99.98
2.55942	99.97
2.57608	99.97
2.59275	99.98
2.60942	99.98
2.62608	99.98
2.64275	99.98
2.65942	99.98
2.67608	99.98
2.69275	99.98
2.70942	99.98
2.72608	99.99
2.74275	99.98
2.75942	99.99
2.77608	99.98
2.79275	99.99
2.80942	99.99
2.82608	99.99
2.84275	99.99
2.85942	99.99
2.87608	100.00
2.89275	100.00
2.90942	100.00
2.92608	100.00
2.94275	100.00
2.95942	100.01
2.97608	100.01
2.99275	100.00
3.00942	100.01
3.02608	100.01
3.04275	100.01
3.05942	100.01
3.07608	100.02
3.09275	100.02
3.10942	100.02
3.12608	100.02
3.14275	100.02
3.15942	100.02
3.17608	100.02
3.19275	100.02
3.20942	100.02
3.22608	100.03
3.24275	100.03
3.25942	100.03
3.27608	100.03
3.29275	100.03
3.30942	100.03
3.32608	100.03
3.34275	100.04
3.35942	100.03
3.37608	100.04
3.39275	100.04
3.40942	100.04
3.42608	100.04
3.44275	100.04
3.45942	100.04
3.47608	100.04
3.49275	100.04
3.50942	100.04
3.52608	100.04
3.54275	100.04
3.55942	100.04
3.57608	100.05
3.59275	100.04
3.60942	100.04
3.62608	100.04
3.64275	100.04
3.65942	100.04
3.67608	100.04
3.69275	100.05
3.70942	100.04
3.72608	100.05
3.74275	100.04
3.75942	100.04
3.77608	100.04
3.79275	100.05
3.80942	100.05
3.82608	100.04
3.84275	100.04
3.85942	100.05
3.87608	100.05
3.89275	100.05
3.90942	100.05
3.92608	100.05
3.94275	100.05
3.95942	100.05
3.97608	100.05
3.99275	100.05

[Status Trace (Carrier Gas Pressure)]
Interval(msec)	1000
# of Points	240
Start Time(min)	0.009
End Time(min)	3.993
Intensity Units	
Intensity Multiplier	1
R.Time (min)	Intensity
0.00942	58.00
0.02608	55.21
0.04275	57.29
0.05942	59.30
0.07608	59.36
0.09275	58.04
0.10942	57.98
0.12608	58.01
0.14275	58.01
0.15942	58.00
0.17608	58.00
0.19275	58.00
0.20942	58.00
0.22608	58.00
0.24275	58.00
0.25942	58.00
0.27608	58.00
0.29275	58.00
0.30942	58.00
0.32608	58.00
0.34275	58.00
0.35942	58.00
0.37608	58.00
0.39275	58.00
0.40942	58.00
0.42608	58.00
0.44275	58.00
0.45942	58.00
0.47608	58.00
0.49275	58.00
0.50942	58.00
0.52608	58.00
0.54275	58.00
0.55942	58.00
0.57608	58.00
0.59275	58.00
0.60942	58.00
0.62608	58.00
0.64275	58.00
0.65942	58.00
0.67608	58.00
0.69275	58.00
0.70942	58.00
0.72608	58.00
0.74275	58.00
0.75942	58.00
0.77608	58.00
0.79275	58.00
0.80942	58.00
0.82608	58.00
0.84275	58.00
0.85942	58.00
0.87608	58.00
0.89275	58.00
0.90942	58.00
0.92608	58.00
0.94275	58.00
0.95942	58.00
0.97608	58.00
0.99275	58.00
1.00942	58.00
1.02608	58.00
1.04275	58.00
1.05942	58.00
1.07608	58.00
1.09275	58.00
1.10942	58.00
1.12608	58.00
1.14275	58.00
1.15942	58.00
1.17608	58.00
1.19275	58.00
1.20942	58.00
1.22608	58.00
1.24275	58.00
1.25942	58.00
1.27608	58.00
1.29275	58.00
1.30942	58.00
1.32608	58.00
1.34275	58.00
1.35942	58.00
1.37608	58.00
1.39275	58.00
1.40942	58.00
1.42608	58.00
1.44275	58.00
1.45942	58.00
1.47608	58.00
1.49275	58.00
1.50942	58.00
1.52608	58.00
1.54275	58.00
1.55942	58.00
1.57608	58.00
1.59275	58.00
1.60942	58.00
1.62608	58.00
1.64275	58.00
1.65942	58.01
1.67608	58.01
1.69275	58.00
1.70942	58.00
1.72608	58.00
1.74275	58.00
1.75942	58.00
1.77608	58.00
1.79275	58.00
1.80942	58.00
1.82608	58.00
1.84275	58.00
1.85942	58.00
1.87608	58.00
1.89275	58.00
1.90942	58.00
1.92608	58.00
1.94275	58.00
1.95942	58.00
1.97608	58.00
1.99275	58.00
2.00942	58.00
2.02608	58.00
2.04275	58.00
2.05942	58.00
2.07608	58.00
2.09275	58.00
2.10942	58.00
2.12608	58.00
2.14275	58.00
2.15942	58.00
2.17608	58.00
2.19275	58.00
2.20942	58.00
2.22608	58.00
2.24275	58.00
2.25942	58.00
2.27608	58.00
2.29275	58.00
2.30942	58.00
2.32608	58.00
2.34275	58.00
2.35942	58.00
2.37608	57.99
2.39275	57.99
2.40942	58.00
2.42608	58.00
2.44275	58.00
2.45942	58.00
2.47608	58.00
2.49275	58.00
2.50942	58.00
2.52608	57.98
2.54275	58.00
2.55942	58.00
2.57608	58.00
2.59275	58.00
2.60942	58.00
2.62608	58.00
2.64275	58.00
2.65942	58.00
2.67608	58.00
2.69275	58.00
2.70942	58.00
2.72608	58.00
2.74275	58.00
2.75942	58.00
2.77608	58.00
2.79275	58.00
2.80942	58.00
2.82608	58.00
2.84275	58.00
2.85942	58.00
2.87608	58.00
2.89275	58.00
2.90942	58.00
2.92608	58.00
2.94275	58.00
2.95942	58.00
2.97608	58.00
2.99275	58.00
3.00942	58.00
3.02608	58.00
3.04275	58.00
3.05942	58.00
3.07608	58.00
3.09275	58.00
3.10942	58.00
3.12608	58.00
3.14275	58.00
3.15942	58.00
3.17608	58.00
3.19275	58.00
3.20942	58.00
3.22608	58.00
3.24275	58.00
3.25942	58.00
3.27608	58.00
3.29275	58.00
3.30942	58.00
3.32608	58.00
3.34275	58.00
3.35942	58.00
3.37608	58.00
3.39275	58.00
3.40942	58.00
3.42608	58.00
3.44275	58.00
3.45942	58.00
3.47608	58.00
3.49275	58.00
3.50942	58.00
3.52608	58.00
3.54275	58.00
3.55942	58.00
3.57608	58.00
3.59275	58.00
3.60942	58.00
3.62608	58.00
3.64275	58.00
3.65942	58.00
3.67608	58.00
3.69275	58.00
3.70942	58.00
3.72608	58.00
3.74275	58.00
3.75942	58.00
3.77608	58.00
3.79275	58.00
3.80942	58.00
3.82608	58.00
3.84275	58.00
3.85942	58.00
3.87608	58.00
3.89275	58.00
3.90942	58.00
3.92608	58.00
3.94275	58.00
3.95942	58.00
3.97608	58.00
3.99275	58.00

[Status Trace (Carrier Gas Flow)]
Interval(msec)	1000
# of Points	240
Start Time(min)	0.009
End Time(min)	3.993
Intensity Units	
Intensity Multiplier	1
R.Time (min)	Intensity
0.00942	34.52
0.02608	34.53
0.04275	34.54
0.05942	34.54
0.07608	34.51
0.09275	34.51
0.10942	34.51
0.12608	34.52
0.14275	34.52
0.15942	34.52
0.17608	34.52
0.19275	34.52
0.20942	34.52
0.22608	34.52
0.24275	34.52
0.25942	34.52
0.27608	34.52
0.29275	34.52
0.30942	34.52
0.32608	34.52
0.34275	34.52
0.35942	34.52
0.37608	34.52
0.39275	34.52
0.40942	34.52
0.42608	34.52
0.44275	34.52
0.45942	34.52
0.47608	34.52
0.49275	34.52
0.50942	34.52
0.52608	34.52
0.54275	34.52
0.55942	34.52
0.57608	34.52
0.59275	34.52
0.60942	34.52
0.62608	34.52
0.64275	34.52
0.65942	34.52
0.67608	34.52
0.69275	34.52
0.70942	34.52
0.72608	34.52
0.74275	34.52
0.75942	34.52
0.77608	34.52
0.79275	34.52
0.80942	34.52
0.82608	34.52
0.84275	34.52
0.85942	34.52
0.87608	34.52
0.89275	34.52
0.90942	34.52
0.92608	34.52
0.94275	34.51
0.95942	34.52
0.97608	34.52
0.99275	34.51
1.00942	34.52
1.02608	34.52
1.04275	34.52
1.05942	34.52
1.07608	34.52
1.09275	34.52
1.10942	34.52
1.12608	34.51
1.14275	34.52
1.15942	34.52
1.17608	34.52
1.19275	34.51
1.20942	34.52
1.22608	34.52
1.24275	34.52
1.25942	34.52
1.27608	34.52
1.29275	34.52
1.30942	34.52
1.32608	34.52
1.34275	34.52
1.35942	34.51
1.37608	34.52
1.39275	34.52
1.40942	34.52
1.42608	34.52
1.44275	34.52
1.45942	34.52
1.47608	34.52
1.49275	34.52
1.50942	34.52
1.52608	34.52
1.54275	34.52
1.55942	34.52
1.57608	34.53
1.59275	34.52
1.60942	34.52
1.62608	34.53
1.64275	34.52
1.65942	34.52
1.67608	34.52
1.69275	34.51
1.70942	34.52
1.72608	34.52
1.74275	34.52
1.75942	34.52
1.77608	34.51
1.79275	34.53
1.80942	34.52
1.82608	34.52
1.84275	34.52
1.85942	34.52
1.87608	34.52
1.89275	34.52
1.90942	34.52
1.92608	34.52
1.94275	34.52
1.95942	34.51
1.97608	34.52
1.99275	34.52
2.00942	34.51
2.02608	34.52
2.04275	34.51
2.05942	34.52
2.07608	34.52
2.09275	34.51
2.10942	34.51
2.12608	34.53
2.14275	34.51
2.15942	34.53
2.17608	34.52
2.19275	34.53
2.20942	34.52
2.22608	34.52
2.24275	34.52
2.25942	34.51
2.27608	34.51
2.29275	34.53
2.30942	34.52
2.32608	34.53
2.34275	34.51
2.35942	34.53
2.37608	34.52
2.39275	34.52
2.40942	34.51
2.42608	34.52
2.44275	34.52
2.45942	34.51
2.47608	34.52
2.49275	34.52
2.50942	34.48
2.52608	34.52
2.54275	34.51
2.55942	34.52
2.57608	34.52
2.59275	34.52
2.60942	34.52
2.62608	34.52
2.64275	34.53
2.65942	34.52
2.67608	34.52
2.69275	34.52
2.70942	34.52
2.72608	34.53
2.74275	34.51
2.75942	34.52
2.77608	34.52
2.79275	34.52
2.80942	34.52
2.82608	34.51
2.84275	34.51
2.85942	34.51
2.87608	34.51
2.89275	34.52
2.90942	34.52
2.92608	34.52
2.94275	34.52
2.95942	34.52
2.97608	34.52
2.99275	34.52
3.00942	34.52
3.02608	34.52
3.04275	34.52
3.05942	34.52
3.07608	34.52
3.09275	34.52
3.10942	34.52
3.12608	34.52
3.14275	34.52
3.15942	34.52
3.17608	34.52
3.19275	34.52
3.20942	34.52
3.22608	34.52
3.24275	34.52
3.25942	34.52
3.27608	34.52
3.29275	34.52
3.30942	34.52
3.32608	34.52
3.34275	34.52
3.35942	34.52
3.37608	34.52
3.39275	34.52
3.40942	34.52
3.42608	34.52
3.44275	34.52
3.45942	34.52
3.47608	34.52
3.49275	34.52
3.50942	34.52
3.52608	34.52
3.54275	34.52
3.55942	34.52
3.57608	34.52
3.59275	34.52
3.60942	34.52
3.62608	34.52
3.64275	34.52
3.65942	34.52
3.67608	34.52
3.69275	34.52
3.70942	34.52
3.72608	34.52
3.74275	34.52
3.75942	34.52
3.77608	34.52
3.79275	34.52
3.80942	34.52
3.82608	34.52
3.84275	34.52
3.85942	34.52
3.87608	34.52
3.89275	34.52
3.90942	34.52
3.92608	34.50
3.94275	34.52
3.95942	34.52
3.97608	34.52
3.99275	34.51

[Status Trace (Column Flow)]
Interval(msec)	1000
# of Points	240
Start Time(min)	0.009
End Time(min)	3.993
Intensity Units	
Intensity Multiplier	1
R.Time (min)	Intensity
0.00942	5.53
0.02608	5.20
0.04275	5.44
0.05942	5.68
0.07608	5.69
0.09275	5.53
0.10942	5.52
0.12608	5.53
0.14275	5.53
0.15942	5.53
0.17608	5.53
0.19275	5.53
0.20942	5.53
0.22608	5.53
0.24275	5.53
0.25942	5.53
0.27608	5.53
0.29275	5.53
0.30942	5.53
0.32608	5.53
0.34275	5.53
0.35942	5.53
0.37608	5.53
0.39275	5.53
0.40942	5.53
0.42608	5.53
0.44275	5.53
0.45942	5.53
0.47608	5.53
0.49275	5.53
0.50942	5.53
0.52608	5.53
0.54275	5.53
0.55942	5.53
0.57608	5.53
0.59275	5.53
0.60942	5.53
0.62608	5.53
0.64275	5.53
0.65942	5.53
0.67608	5.53
0.69275	5.53
0.70942	5.53
0.72608	5.53
0.74275	5.53
0.75942	5.53
0.77608	5.53
0.79275	5.53
0.80942	5.53
0.82608	5.53
0.84275	5.53
0.85942	5.53
0.87608	5.53
0.89275	5.53
0.90942	5.53
0.92608	5.53
0.94275	5.53
0.95942	5.53
0.97608	5.53
0.99275	5.53
1.00942	5.53
1.02608	5.53
1.04275	5.53
1.05942	5.53
1.07608	5.53
1.09275	5.53
1.10942	5.53
1.12608	5.53
1.14275	5.53
1.15942	5.53
1.17608	5.53
1.19275	5.53
1.20942	5.53
1.22608	5.53
1.24275	5.53
1.25942	5.53
1.27608	5.53
1.29275	5.53
1.30942	5.53
1.32608	5.53
1.34275	5.53
1.35942	5.53
1.37608	5.53
1.39275	5.53
1.40942	5.53
1.42608	5.53
1.44275	5.53
1.45942	5.53
1.47608	5.52
1.49275	5.52
1.50942	5.52
1.52608	5.52
1.54275	5.52
1.55942	5.53
1.57608	5.53
1.59275	5.53
1.60942	5.52
1.62608	5.52
1.64275	5.51
1.65942	5.51
1.67608	5.50
1.69275	5.48
1.70942	5.47
1.72608	5.46
1.74275	5.45
1.75942	5.44
1.77608	5.43
1.79275	5.42
1.80942	5.41
1.82608	5.40
1.84275	5.39
1.85942	5.38
1.87608	5.37
1.89275	5.36
1.90942	5.35
1.92608	5.34
1.94275	5.33
1.95942	5.32
1.97608	5.31
1.99275	5.30
2.00942	5.29
2.02608	5.28
2.04275	5.27
2.05942	5.27
2.07608	5.26
2.09275	5.25
2.10942	5.24
2.12608	5.23
2.14275	5.22
2.15942	5.21
2.17608	5.20
2.19275	5.19
2.20942	5.18
2.22608	5.17
2.24275	5.16
2.25942	5.15
2.27608	5.14
2.29275	5.13
2.30942	5.12
2.32608	5.11
2.34275	5.10
2.35942	5.10
2.37608	5.09
2.39275	5.09
2.40942	5.09
2.42608	5.09
2.44275	5.09
2.45942	5.09
2.47608	5.09
2.49275	5.09
2.50942	5.09
2.52608	5.09
2.54275	5.09
2.55942	5.09
2.57608	5.09
2.59275	5.09
2.60942	5.09
2.62608	5.09
2.64275	5.09
2.65942	5.09
2.67608	5.09
2.69275	5.09
2.70942	5.09
2.72608	5.09
2.74275	5.09
2.75942	5.09
2.77608	5.09
2.79275	5.09
2.80942	5.08
2.82608	5.08
2.84275	5.08
2.85942	5.08
2.87608	5.08
2.89275	5.08
2.90942	5.08
2.92608	5.08
2.94275	5.08
2.95942	5.08
2.97608	5.08
2.99275	5.08
3.00942	5.08
3.02608	5.08
3.04275	5.08
3.05942	5.08
3.07608	5.08
3.09275	5.08
3.10942	5.08
3.12608	5.08
3.14275	5.08
3.15942	5.08
3.17608	5.08
3.19275	5.08
3.20942	5.08
3.22608	5.08
3.24275	5.08
3.25942	5.08
3.27608	5.08
3.29275	5.08
3.30942	5.08
3.32608	5.08
3.34275	5.08
3.35942	5.08
3.37608	5.08
3.39275	5.08
3.40942	5.08
3.42608	5.08
3.44275	5.08
3.45942	5.08
3.47608	5.08
3.49275	5.08
3.50942	5.08
3.52608	5.08
3.54275	5.08
3.55942	5.08
3.57608	5.08
3.59275	5.08
3.60942	5.08
3.62608	5.08
3.64275	5.08
3.65942	5.08
3.67608	5.08
3.69275	5.08
3.70942	5.08
3.72608	5.08
3.74275	5.08
3.75942	5.08
3.77608	5.08
3.79275	5.08
3.80942	5.08
3.82608	5.08
3.84275	5.08
3.85942	5.08
3.87608	5.08
3.89275	5.08
3.90942	5.08
3.92608	5.08
3.94275	5.08
3.95942	5.08
3.97608	5.08
3.99275	5.08

[Status Trace (Linear Velocity)]
Interval(msec)	1000
# of Points	240
Start Time(min)	0.009
End Time(min)	3.993
Intensity Units	
Intensity Multiplier	1
R.Time (min)	Intensity
0.00942	39.02
0.02608	37.19
0.04275	38.56
0.05942	39.88
0.07608	39.91
0.09275	39.05
0.10942	39.01
0.12608	39.03
0.14275	39.03
0.15942	39.02
0.17608	39.02
0.19275	39.02
0.20942	39.02
0.22608	39.02
0.24275	39.02
0.25942	39.02
0.27608	39.02
0.29275	39.02
0.30942	39.02
0.32608	39.02
0.34275	39.02
0.35942	39.02
0.37608	39.02
0.39275	39.02
0.40942	39.02
0.42608	39.02
0.44275	39.02
0.45942	39.02
0.47608	39.02
0.49275	39.02
0.50942	39.02
0.52608	39.02
0.54275	39.02
0.55942	39.02
0.57608	39.02
0.59275	39.02
0.60942	39.02
0.62608	39.02
0.64275	39.02
0.65942	39.02
0.67608	39.02
0.69275	39.02
0.70942	39.02
0.72608	39.02
0.74275	39.02
0.75942	39.02
0.77608	39.02
0.79275	39.02
0.80942	39.02
0.82608	39.02
0.84275	39.02
0.85942	39.02
0.87608	39.02
0.89275	39.02
0.90942	39.02
0.92608	39.02
0.94275	39.02
0.95942	39.02
0.97608	39.02
0.99275	39.02
1.00942	39.02
1.02608	39.02
1.04275	39.02
1.05942	39.02
1.07608	39.02
1.09275	39.02
1.10942	39.02
1.12608	39.02
1.14275	39.02
1.15942	39.02
1.17608	39.02
1.19275	39.02
1.20942	39.02
1.22608	39.02
1.24275	39.02
1.25942	39.02
1.27608	39.02
1.29275	39.02
1.30942	39.02
1.32608	39.02
1.34275	39.02
1.35942	39.02
1.37608	39.02
1.39275	39.02
1.40942	39.02
1.42608	39.02
1.44275	39.02
1.45942	39.02
1.47608	39.01
1.49275	39.01
1.50942	39.01
1.52608	39.01
1.54275	39.01
1.55942	39.02
1.57608	39.02
1.59275	39.02
1.60942	39.01
1.62608	39.00
1.64275	38.99
1.65942	38.96
1.67608	38.93
1.69275	38.89
1.70942	38.86
1.72608	38.82
1.74275	38.79
1.75942	38.76
1.77608	38.73
1.79275	38.70
1.80942	38.67
1.82608	38.64
1.84275	38.61
1.85942	38.57
1.87608	38.54
1.89275	38.51
1.90942	38.48
1.92608	38.45
1.94275	38.42
1.95942	38.39
1.97608	38.36
1.99275	38.33
2.00942	38.30
2.02608	38.27
2.04275	38.24
2.05942	38.21
2.07608	38.18
2.09275	38.15
2.10942	38.12
2.12608	38.09
2.14275	38.06
2.15942	38.03
2.17608	38.00
2.19275	37.97
2.20942	37.94
2.22608	37.92
2.24275	37.89
2.25942	37.86
2.27608	37.83
2.29275	37.80
2.30942	37.77
2.32608	37.73
2.34275	37.70
2.35942	37.68
2.37608	37.67
2.39275	37.66
2.40942	37.66
2.42608	37.67
2.44275	37.67
2.45942	37.66
2.47608	37.66
2.49275	37.66
2.50942	37.66
2.52608	37.65
2.54275	37.66
2.55942	37.66
2.57608	37.65
2.59275	37.65
2.60942	37.65
2.62608	37.65
2.64275	37.65
2.65942	37.65
2.67608	37.65
2.69275	37.65
2.70942	37.65
2.72608	37.65
2.74275	37.65
2.75942	37.65
2.77608	37.65
2.79275	37.64
2.80942	37.64
2.82608	37.64
2.84275	37.64
2.85942	37.64
2.87608	37.64
2.89275	37.64
2.90942	37.64
2.92608	37.64
2.94275	37.64
2.95942	37.64
2.97608	37.63
2.99275	37.63
3.00942	37.63
3.02608	37.63
3.04275	37.63
3.05942	37.63
3.07608	37.63
3.09275	37.63
3.10942	37.63
3.12608	37.63
3.14275	37.63
3.15942	37.63
3.17608	37.63
3.19275	37.62
3.20942	37.63
3.22608	37.62
3.24275	37.62
3.25942	37.62
3.27608	37.63
3.29275	37.63
3.30942	37.63
3.32608	37.63
3.34275	37.63
3.35942	37.63
3.37608	37.63
3.39275	37.63
3.40942	37.63
3.42608	37.63
3.44275	37.63
3.45942	37.63
3.47608	37.63
3.49275	37.63
3.50942	37.63
3.52608	37.63
3.54275	37.63
3.55942	37.63
3.57608	37.63
3.59275	37.63
3.60942	37.63
3.62608	37.63
3.64275	37.63
3.65942	37.62
3.67608	37.63
3.69275	37.63
3.70942	37.63
3.72608	37.63
3.74275	37.63
3.75942	37.63
3.77608	37.63
3.79275	37.63
3.80942	37.63
3.82608	37.63
3.84275	37.63
3.85942	37.63
3.87608	37.63
3.89275	37.63
3.90942	37.63
3.92608	37.63
3.94275	37.63
3.95942	37.63
3.97608	37.63
3.99275	37.63

