[Header]
Application Name	LabSolutions
Version	5.110
Data File Name	C:\Users\User\Desktop\GC Analyses\Jack\UIC Prairie Sampling\7.22.22\220722_010.gcd
Output Date	10/5/2022
Output Time	2:13:38 PM

[File Information]
Type	Data File
Generated	9/26/2022 11:37:39 AM
Generated by	System Administrator
Modified	9/26/2022 11:42:02 AM
Modified by	System Administrator

[Sample Information]
Operator Name	System Administrator
Acquired	9/26/2022 11:38:01 AM
Sample Type	1:Standard
Level	1
Sample Name	220722_UICPrairie
Sample ID	220722_UICPrairie
ISTD Amount1	1
ISTD Amount2	1
ISTD Amount3	1
ISTD Amount4	1
ISTD Amount5	1
ISTD Amount6	1
ISTD Amount7	1
ISTD Amount8	1
ISTD Amount9	1
ISTD Amount10	1
ISTD Amount11	1
ISTD Amount12	1
ISTD Amount13	1
ISTD Amount14	1
ISTD Amount15	1
ISTD Amount16	1
ISTD Amount17	1
ISTD Amount18	1
ISTD Amount19	1
ISTD Amount20	1
ISTD Amount21	1
ISTD Amount22	1
ISTD Amount23	1
ISTD Amount24	1
ISTD Amount25	1
ISTD Amount26	1
ISTD Amount27	1
ISTD Amount28	1
ISTD Amount29	1
ISTD Amount30	1
ISTD Amount31	1
ISTD Amount32	1
Sample Amount	1
Dilution Factor	1
Vial#	1
Injection Volume	1
Injection Count	1
Bar Code	

[Original Files]
Data File	C:\Users\User\Desktop\GC Analyses\Jack\UIC Prairie Sampling\7.22.22\220722_010.gcd
Method File	C:\LabSolutions\Data\GHG_4min_2022\ghg3_togas_w_acet_4 min_new_int.gcm
Batch File	
Report Format File	c:\LabSolutions\System\DEFAULT.lsr

[File Description]


[Configuration]
Instrument Name	C0B7VH3-Instrument1
Instrument #	1
Line #	1
# of Detectors	3
Detector ID	DET#1	DET#2	DET#3
Detector Name	FID	PTCD	ECD
# of Channels	1	1	1

[Peak Table(Ch1)]
# of Peaks	1
Peak#	R.Time	I.Time	F.Time	Area	Height	A/H	Conc.	Mark	ID#	Name	k'	Plate #	Plate Ht.	Tailing	Resolution	Sep.Factor	Area Ratio	Height Ratio	Conc. %	Norm Conc.
1	2.004	1.952	2.059	3001	1416	2.119	400.000	   	3	CO2	0.000	16755	8.952	1.095	0.000	0.000	0	0	100.000	100.000

[Peak Table(Ch2)]
# of Peaks	0

[Peak Table(Ch3)]
# of Peaks	3
Peak#	R.Time	I.Time	F.Time	Area	Height	A/H	Conc.	Mark	ID#	Name	k'	Plate #	Plate Ht.	Tailing	Resolution	Sep.Factor	Area Ratio	Height Ratio	Conc. %	Norm Conc.
1	2.455	1.472	2.561	9870	344	28.701	0.000	   			0.000	168	894.249	0.000	0.000	0.000	0	0	0.000	0.000
2	2.561	2.561	2.583	129	147	0.877	0.000	 V 			0.043	181430	0.827	0.000	0.272	0.000	0	0	0.000	0.000
3	2.730	2.587	3.995	29399	867	33.914	1.000	   	1	N2O	0.112	100	1501.741	4.339	0.302	2.586	0	0	100.000	100.000

[Compound Results(Ch1)]
# of IDs	6
ID#	Name	R.Time	Area	Height	Conc.	Curve	3rd	2nd	1st	Constant	Area Ratio	Height Ratio	Conc. %	Norm Conc.
1	CO	0.000	0	0	0.000	Linear	0.000000e+00	0.000000e+00	0.000000e+00	0.000000e+00	0	0	0.000	0.000
2	CH4	0.000	0	0	0.000	Linear	0.000000e+00	0.000000e+00	0.000000e+00	0.000000e+00	0	0	0.000	0.000
3	CO2	2.004	3001	1416	400.000	Linear	0.000000e+00	0.000000e+00	7.502461e+000	0.000000e+00	0	0	100.000	100.000
4	Ethylene	0.000	0	0	0.000	Linear	0.000000e+00	0.000000e+00	0.000000e+00	0.000000e+00	0	0	0.000	0.000
5	Acetylene	0.000	0	0	0.000	Linear	0.000000e+00	0.000000e+00	0.000000e+00	0.000000e+00	0	0	0.000	0.000
6	Ethane	0.000	0	0	0.000	Linear	0.000000e+00	0.000000e+00	0.000000e+00	0.000000e+00	0	0	0.000	0.000

[Compound Results(Ch2)]
# of IDs	5
ID#	Name	R.Time	Area	Height	Conc.	Curve	3rd	2nd	1st	Constant	Area Ratio	Height Ratio	Conc. %	Norm Conc.
1	Hydrogen	0.000	0	0	0.000	Linear	0.000000e+00	0.000000e+00	0.000000e+00	0.000000e+00	0	0	0.000	0.000
2	Oxygen	0.000	0	0	0.000	Linear	0.000000e+00	0.000000e+00	0.000000e+00	0.000000e+00	0	0	0.000	0.000
3	Nitrogen	0.000	0	0	0.000	Linear	0.000000e+00	0.000000e+00	0.000000e+00	0.000000e+00	0	0	0.000	0.000
4	Methane	0.000	0	0	0.000	Linear	0.000000e+00	0.000000e+00	0.000000e+00	0.000000e+00	0	0	0.000	0.000
5	Carbon Monoxide	0.000	0	0	0.000	Linear	0.000000e+00	0.000000e+00	0.000000e+00	0.000000e+00	0	0	0.000	0.000

[Compound Results(Ch3)]
# of IDs	2
ID#	Name	R.Time	Area	Height	Conc.	Curve	3rd	2nd	1st	Constant	Area Ratio	Height Ratio	Conc. %	Norm Conc.
1	N2O	2.730	29399	867	1.000	Linear	0.000000e+00	0.000000e+00	2.939872e+004	0.000000e+00	0	0	100.000	100.000
2	SF6	0.000	0	0	0.000	Linear	0.000000e+00	0.000000e+00	0.000000e+00	0.000000e+00	0	0	0.000	0.000

[Group Results(Ch1)]
# of Groups	0

[Group Results(Ch2)]
# of Groups	0

[Group Results(Ch3)]
# of Groups	0

[Chromatogram (Ch1)]
Interval(msec)	220
# of Points	1091
Start Time(min)	0.002
End Time(min)	3.998
R.Time (min)	Intensity
0.00167	3
0.00533	3
0.00900	-2
0.01267	-5
0.01633	-5
0.02000	-5
0.02367	-8
0.02733	-15
0.03100	-24
0.03467	-31
0.03833	-32
0.04200	-30
0.04567	-28
0.04933	-25
0.05300	-21
0.05667	-16
0.06033	-11
0.06400	-10
0.06767	-12
0.07133	-18
0.07500	-24
0.07867	-27
0.08233	-26
0.08600	-25
0.08967	-26
0.09333	-27
0.09700	-25
0.10067	-23
0.10433	-21
0.10800	-18
0.11167	-18
0.11533	-20
0.11900	-21
0.12267	-17
0.12633	-10
0.13000	-4
0.13367	-2
0.13733	-6
0.14100	-11
0.14467	-13
0.14833	-12
0.15200	-12
0.15567	-17
0.15933	-24
0.16300	-33
0.16667	-39
0.17033	-42
0.17400	-43
0.17767	-44
0.18133	-46
0.18500	-43
0.18867	-37
0.19233	-28
0.19600	-23
0.19967	-20
0.20333	-22
0.20700	-27
0.21067	-31
0.21433	-32
0.21800	-30
0.22167	-26
0.22533	-24
0.22900	-23
0.23267	-23
0.23633	-23
0.24000	-24
0.24367	-25
0.24733	-28
0.25100	-31
0.25467	-35
0.25833	-38
0.26200	-36
0.26567	-29
0.26933	-22
0.27300	-21
0.27667	-24
0.28033	-28
0.28400	-34
0.28767	-39
0.29133	-43
0.29500	-44
0.29867	-45
0.30233	-44
0.30600	-42
0.30967	-42
0.31333	-43
0.31700	-42
0.32067	-41
0.32433	-40
0.32800	-39
0.33167	-38
0.33533	-35
0.33900	-29
0.34267	-19
0.34633	-17
0.35000	-18
0.35367	-22
0.35733	-28
0.36100	-34
0.36467	-41
0.36833	-50
0.37200	-55
0.37567	-56
0.37933	-56
0.38300	-56
0.38667	-59
0.39033	-59
0.39400	-57
0.39767	-51
0.40133	-43
0.40500	-36
0.40867	-34
0.41233	-35
0.41600	-39
0.41967	-44
0.42333	-49
0.42700	-51
0.43067	-50
0.43433	-49
0.43800	-50
0.44167	-50
0.44533	-50
0.44900	-50
0.45267	-50
0.45633	-51
0.46000	-50
0.46367	-47
0.46733	-44
0.47100	-42
0.47467	-41
0.47833	-40
0.48200	-38
0.48567	-38
0.48933	-40
0.49300	-47
0.49667	-54
0.50033	-58
0.50400	-59
0.50767	-57
0.51133	-52
0.51500	-46
0.51867	-40
0.52233	-36
0.52600	-36
0.52967	-42
0.53333	-50
0.53700	-57
0.54067	-61
0.54433	-62
0.54800	-61
0.55167	-58
0.55533	-54
0.55900	-49
0.56267	-47
0.56633	-48
0.57000	-48
0.57367	-46
0.57733	-49
0.58100	-53
0.58467	-54
0.58833	-53
0.59200	-51
0.59567	-51
0.59933	-53
0.60300	-56
0.60667	-61
0.61033	-65
0.61400	-72
0.61767	-79
0.62133	-84
0.62500	-85
0.62867	-83
0.63233	-83
0.63600	-82
0.63967	-78
0.64333	-69
0.64700	-59
0.65067	-53
0.65433	-50
0.65800	-51
0.66167	-54
0.66533	-56
0.66900	-61
0.67267	-67
0.67633	-72
0.68000	-75
0.68367	-75
0.68733	-76
0.69100	-78
0.69467	-76
0.69833	-74
0.70200	-76
0.70567	-75
0.70933	-74
0.71300	-75
0.71667	-75
0.72033	-79
0.72400	-81
0.72767	-80
0.73133	-76
0.73500	-72
0.73867	-71
0.74233	-72
0.74600	-72
0.74967	-66
0.75333	-57
0.75700	-53
0.76067	-56
0.76433	-63
0.76800	-72
0.77167	-82
0.77533	-91
0.77900	-97
0.78267	-97
0.78633	-95
0.79000	-90
0.79367	-87
0.79733	-84
0.80100	-81
0.80467	-80
0.80833	-82
0.81200	-85
0.81567	-85
0.81933	-82
0.82300	-78
0.82667	-76
0.83033	-74
0.83400	-69
0.83767	-64
0.84133	-59
0.84500	-56
0.84867	-54
0.85233	-51
0.85600	-49
0.85967	-54
0.86333	-68
0.86700	-84
0.87067	-98
0.87433	-108
0.87800	-111
0.88167	-108
0.88533	-104
0.88900	-99
0.89267	-93
0.89633	-86
0.90000	-80
0.90367	-80
0.90733	-82
0.91100	-84
0.91467	-85
0.91833	-87
0.92200	-87
0.92567	-87
0.92933	-87
0.93300	-87
0.93667	-87
0.94033	-85
0.94400	-82
0.94767	-80
0.95133	-80
0.95500	-83
0.95867	-86
0.96233	-92
0.96600	-97
0.96967	-100
0.97333	-100
0.97700	-99
0.98067	-96
0.98433	-92
0.98800	-89
0.99167	-86
0.99533	-86
0.99900	-87
1.00267	-88
1.00633	-86
1.01000	-82
1.01367	-80
1.01733	-80
1.02100	-80
1.02467	-81
1.02833	-81
1.03200	-82
1.03567	-85
1.03933	-86
1.04300	-88
1.04667	-93
1.05033	-102
1.05400	-111
1.05767	-117
1.06133	-119
1.06500	-118
1.06867	-117
1.07233	-115
1.07600	-113
1.07967	-108
1.08333	-101
1.08700	-95
1.09067	-92
1.09433	-91
1.09800	-92
1.10167	-91
1.10533	-88
1.10900	-87
1.11267	-91
1.11633	-95
1.12000	-96
1.12367	-92
1.12733	-91
1.13100	-94
1.13467	-99
1.13833	-102
1.14200	-102
1.14567	-100
1.14933	-96
1.15300	-90
1.15667	-84
1.16033	-82
1.16400	-84
1.16767	-90
1.17133	-97
1.17500	-102
1.17867	-105
1.18233	-106
1.18600	-106
1.18967	-101
1.19333	-94
1.19700	-87
1.20067	-84
1.20433	-84
1.20800	-84
1.21167	-83
1.21533	-83
1.21900	-88
1.22267	-93
1.22633	-95
1.23000	-95
1.23367	-97
1.23733	-102
1.24100	-106
1.24467	-106
1.24833	-101
1.25200	-92
1.25567	-83
1.25933	-77
1.26300	-79
1.26667	-88
1.27033	-103
1.27400	-120
1.27767	-134
1.28133	-139
1.28500	-135
1.28867	-128
1.29233	-121
1.29600	-117
1.29967	-115
1.30333	-111
1.30700	-107
1.31067	-105
1.31433	-105
1.31800	-110
1.32167	-120
1.32533	-127
1.32900	-132
1.33267	-132
1.33633	-130
1.34000	-128
1.34367	-128
1.34733	-127
1.35100	-123
1.35467	-115
1.35833	-106
1.36200	-100
1.36567	-97
1.36933	-96
1.37300	-97
1.37667	-103
1.38033	-111
1.38400	-119
1.38767	-120
1.39133	-119
1.39500	-119
1.39867	-121
1.40233	-127
1.40600	-133
1.40967	-137
1.41333	-140
1.41700	-143
1.42067	-144
1.42433	-141
1.42800	-134
1.43167	-129
1.43533	-128
1.43900	-129
1.44267	-132
1.44633	-135
1.45000	-133
1.45367	-130
1.45733	-127
1.46100	-126
1.46467	-127
1.46833	-128
1.47200	-130
1.47567	-130
1.47933	-121
1.48300	-112
1.48667	-106
1.49033	-104
1.49400	-105
1.49767	-109
1.50133	-113
1.50500	-118
1.50867	-124
1.51233	-131
1.51600	-138
1.51967	-141
1.52333	-141
1.52700	-142
1.53067	-141
1.53433	-139
1.53800	-138
1.54167	-141
1.54533	-147
1.54900	-151
1.55267	-152
1.55633	-147
1.56000	-139
1.56367	-132
1.56733	-128
1.57100	-129
1.57467	-132
1.57833	-135
1.58200	-137
1.58567	-136
1.58933	-134
1.59300	-135
1.59667	-136
1.60033	-142
1.60400	-147
1.60767	-151
1.61133	-154
1.61500	-155
1.61867	-155
1.62233	-156
1.62600	-156
1.62967	-155
1.63333	-153
1.63700	-151
1.64067	-150
1.64433	-152
1.64800	-156
1.65167	-158
1.65533	-158
1.65900	-157
1.66267	-156
1.66633	-158
1.67000	-164
1.67367	-168
1.67733	-163
1.68100	-154
1.68467	-148
1.68833	-141
1.69200	-135
1.69567	-131
1.69933	-128
1.70300	-128
1.70667	-128
1.71033	-127
1.71400	-127
1.71767	-129
1.72133	-134
1.72500	-143
1.72867	-153
1.73233	-162
1.73600	-166
1.73967	-171
1.74333	-175
1.74700	-179
1.75067	-180
1.75433	-176
1.75800	-167
1.76167	-160
1.76533	-155
1.76900	-150
1.77267	-143
1.77633	-137
1.78000	-135
1.78367	-139
1.78733	-143
1.79100	-144
1.79467	-144
1.79833	-145
1.80200	-145
1.80567	-146
1.80933	-149
1.81300	-152
1.81667	-152
1.82033	-151
1.82400	-147
1.82767	-143
1.83133	-140
1.83500	-141
1.83867	-144
1.84233	-144
1.84600	-143
1.84967	-141
1.85333	-141
1.85700	-143
1.86067	-147
1.86433	-151
1.86800	-153
1.87167	-153
1.87533	-156
1.87900	-155
1.88267	-148
1.88633	-143
1.89000	-139
1.89367	-144
1.89733	-149
1.90100	-150
1.90467	-148
1.90833	-145
1.91200	-144
1.91567	-141
1.91933	-138
1.92300	-138
1.92667	-143
1.93033	-148
1.93400	-149
1.93767	-151
1.94133	-154
1.94500	-155
1.94867	-152
1.95233	-147
1.95600	-141
1.95967	-133
1.96333	-121
1.96700	-101
1.97067	-71
1.97433	-19
1.97800	73
1.98167	223
1.98533	431
1.98900	673
1.99267	913
1.99633	1115
2.00000	1247
2.00367	1292
2.00733	1245
2.01100	1112
2.01467	915
2.01833	697
2.02200	493
2.02567	323
2.02933	195
2.03300	101
2.03667	33
2.04033	-16
2.04400	-47
2.04767	-68
2.05133	-83
2.05500	-92
2.05867	-99
2.06233	-102
2.06600	-99
2.06967	-95
2.07333	-97
2.07700	-103
2.08067	-111
2.08433	-118
2.08800	-119
2.09167	-115
2.09533	-112
2.09900	-110
2.10267	-108
2.10633	-108
2.11000	-106
2.11367	-104
2.11733	-107
2.12100	-111
2.12467	-113
2.12833	-113
2.13200	-109
2.13567	-104
2.13933	-100
2.14300	-99
2.14667	-99
2.15033	-100
2.15400	-102
2.15767	-105
2.16133	-105
2.16500	-100
2.16867	-96
2.17233	-97
2.17600	-97
2.17967	-92
2.18333	-89
2.18700	-90
2.19067	-95
2.19433	-99
2.19800	-104
2.20167	-105
2.20533	-102
2.20900	-103
2.21267	-105
2.21633	-109
2.22000	-113
2.22367	-115
2.22733	-116
2.23100	-117
2.23467	-117
2.23833	-114
2.24200	-108
2.24567	-104
2.24933	-103
2.25300	-102
2.25667	-100
2.26033	-100
2.26400	-99
2.26767	-99
2.27133	-98
2.27500	-100
2.27867	-99
2.28233	-91
2.28600	-80
2.28967	-72
2.29333	-71
2.29700	-76
2.30067	-84
2.30433	-87
2.30800	-87
2.31167	-93
2.31533	-104
2.31900	-113
2.32267	-118
2.32633	-120
2.33000	-118
2.33367	-116
2.33733	-111
2.34100	-102
2.34467	-92
2.34833	-86
2.35200	-85
2.35567	-88
2.35933	-92
2.36300	-93
2.36667	-90
2.37033	-85
2.37400	-81
2.37767	-79
2.38133	-78
2.38500	-74
2.38867	-66
2.39233	-60
2.39600	-59
2.39967	-62
2.40333	-67
2.40700	-72
2.41067	-75
2.41433	-75
2.41800	-77
2.42167	-79
2.42533	-80
2.42900	-82
2.43267	-86
2.43633	-91
2.44000	-95
2.44367	-99
2.44733	-100
2.45100	-97
2.45467	-92
2.45833	-86
2.46200	-80
2.46567	-72
2.46933	-66
2.47300	-62
2.47667	-64
2.48033	-70
2.48400	-73
2.48767	-74
2.49133	-73
2.49500	-72
2.49867	-70
2.50233	-69
2.50600	-69
2.50967	-70
2.51333	-72
2.51700	-75
2.52067	-80
2.52433	-83
2.52800	-83
2.53167	-80
2.53533	-78
2.53900	-78
2.54267	-78
2.54633	-78
2.55000	-75
2.55367	-68
2.55733	-62
2.56100	-61
2.56467	-67
2.56833	-76
2.57200	-87
2.57567	-95
2.57933	-96
2.58300	-89
2.58667	-77
2.59033	-66
2.59400	-64
2.59767	-67
2.60133	-73
2.60500	-79
2.60867	-81
2.61233	-82
2.61600	-82
2.61967	-84
2.62333	-86
2.62700	-87
2.63067	-89
2.63433	-89
2.63800	-86
2.64167	-79
2.64533	-76
2.64900	-78
2.65267	-82
2.65633	-85
2.66000	-87
2.66367	-89
2.66733	-89
2.67100	-87
2.67467	-88
2.67833	-88
2.68200	-88
2.68567	-85
2.68933	-80
2.69300	-74
2.69667	-67
2.70033	-60
2.70400	-56
2.70767	-59
2.71133	-68
2.71500	-77
2.71867	-87
2.72233	-94
2.72600	-97
2.72967	-97
2.73333	-94
2.73700	-91
2.74067	-90
2.74433	-91
2.74800	-94
2.75167	-96
2.75533	-96
2.75900	-94
2.76267	-91
2.76633	-86
2.77000	-80
2.77367	-79
2.77733	-81
2.78100	-87
2.78467	-94
2.78833	-98
2.79200	-99
2.79567	-97
2.79933	-94
2.80300	-91
2.80667	-88
2.81033	-84
2.81400	-83
2.81767	-81
2.82133	-79
2.82500	-77
2.82867	-74
2.83233	-69
2.83600	-67
2.83967	-65
2.84333	-62
2.84700	-59
2.85067	-60
2.85433	-66
2.85800	-76
2.86167	-90
2.86533	-104
2.86900	-113
2.87267	-119
2.87633	-124
2.88000	-127
2.88367	-128
2.88733	-129
2.89100	-130
2.89467	-126
2.89833	-118
2.90200	-110
2.90567	-100
2.90933	-90
2.91300	-79
2.91667	-70
2.92033	-66
2.92400	-65
2.92767	-68
2.93133	-76
2.93500	-87
2.93867	-96
2.94233	-102
2.94600	-105
2.94967	-108
2.95333	-112
2.95700	-114
2.96067	-113
2.96433	-109
2.96800	-106
2.97167	-102
2.97533	-100
2.97900	-95
2.98267	-91
2.98633	-87
2.99000	-84
2.99367	-81
2.99733	-76
3.00100	-68
3.00467	-62
3.00833	-58
3.01200	-56
3.01567	-60
3.01933	-63
3.02300	-64
3.02667	-65
3.03033	-64
3.03400	-63
3.03767	-66
3.04133	-71
3.04500	-76
3.04867	-80
3.05233	-82
3.05600	-84
3.05967	-81
3.06333	-76
3.06700	-75
3.07067	-75
3.07433	-73
3.07800	-70
3.08167	-68
3.08533	-66
3.08900	-68
3.09267	-71
3.09633	-73
3.10000	-75
3.10367	-77
3.10733	-79
3.11100	-80
3.11467	-80
3.11833	-81
3.12200	-81
3.12567	-80
3.12933	-82
3.13300	-82
3.13667	-84
3.14033	-86
3.14400	-88
3.14767	-93
3.15133	-96
3.15500	-99
3.15867	-98
3.16233	-93
3.16600	-86
3.16967	-79
3.17333	-72
3.17700	-68
3.18067	-67
3.18433	-67
3.18800	-65
3.19167	-65
3.19533	-72
3.19900	-80
3.20267	-86
3.20633	-88
3.21000	-87
3.21367	-83
3.21733	-79
3.22100	-75
3.22467	-70
3.22833	-66
3.23200	-61
3.23567	-55
3.23933	-49
3.24300	-45
3.24667	-45
3.25033	-50
3.25400	-55
3.25767	-66
3.26133	-79
3.26500	-87
3.26867	-89
3.27233	-89
3.27600	-85
3.27967	-79
3.28333	-73
3.28700	-72
3.29067	-77
3.29433	-86
3.29800	-90
3.30167	-92
3.30533	-95
3.30900	-102
3.31267	-107
3.31633	-106
3.32000	-100
3.32367	-95
3.32733	-92
3.33100	-90
3.33467	-90
3.33833	-90
3.34200	-88
3.34567	-83
3.34933	-77
3.35300	-71
3.35667	-69
3.36033	-71
3.36400	-76
3.36767	-81
3.37133	-90
3.37500	-98
3.37867	-104
3.38233	-105
3.38600	-104
3.38967	-101
3.39333	-100
3.39700	-100
3.40067	-102
3.40433	-99
3.40800	-93
3.41167	-87
3.41533	-82
3.41900	-79
3.42267	-76
3.42633	-75
3.43000	-77
3.43367	-81
3.43733	-87
3.44100	-91
3.44467	-89
3.44833	-84
3.45200	-81
3.45567	-82
3.45933	-88
3.46300	-93
3.46667	-96
3.47033	-95
3.47400	-90
3.47767	-83
3.48133	-80
3.48500	-79
3.48867	-80
3.49233	-79
3.49600	-75
3.49967	-69
3.50333	-61
3.50700	-59
3.51067	-64
3.51433	-71
3.51800	-78
3.52167	-84
3.52533	-88
3.52900	-94
3.53267	-99
3.53633	-104
3.54000	-103
3.54367	-100
3.54733	-100
3.55100	-98
3.55467	-93
3.55833	-89
3.56200	-88
3.56567	-88
3.56933	-85
3.57300	-82
3.57667	-81
3.58033	-82
3.58400	-86
3.58767	-88
3.59133	-88
3.59500	-86
3.59867	-84
3.60233	-81
3.60600	-80
3.60967	-84
3.61333	-88
3.61700	-89
3.62067	-89
3.62433	-83
3.62800	-76
3.63167	-71
3.63533	-71
3.63900	-70
3.64267	-67
3.64633	-63
3.65000	-53
3.65367	-44
3.65733	-47
3.66100	-60
3.66467	-74
3.66833	-85
3.67200	-92
3.67567	-96
3.67933	-97
3.68300	-98
3.68667	-100
3.69033	-99
3.69400	-96
3.69767	-92
3.70133	-87
3.70500	-83
3.70867	-80
3.71233	-80
3.71600	-83
3.71967	-86
3.72333	-88
3.72700	-89
3.73067	-90
3.73433	-93
3.73800	-94
3.74167	-91
3.74533	-87
3.74900	-86
3.75267	-87
3.75633	-88
3.76000	-87
3.76367	-85
3.76733	-83
3.77100	-80
3.77467	-78
3.77833	-76
3.78200	-74
3.78567	-71
3.78933	-68
3.79300	-71
3.79667	-75
3.80033	-79
3.80400	-77
3.80767	-75
3.81133	-76
3.81500	-77
3.81867	-76
3.82233	-71
3.82600	-67
3.82967	-67
3.83333	-70
3.83700	-74
3.84067	-73
3.84433	-68
3.84800	-60
3.85167	-55
3.85533	-55
3.85900	-61
3.86267	-67
3.86633	-74
3.87000	-78
3.87367	-80
3.87733	-78
3.88100	-75
3.88467	-73
3.88833	-72
3.89200	-73
3.89567	-76
3.89933	-78
3.90300	-80
3.90667	-79
3.91033	-77
3.91400	-75
3.91767	-73
3.92133	-70
3.92500	-70
3.92867	-72
3.93233	-75
3.93600	-75
3.93967	-72
3.94333	-66
3.94700	-62
3.95067	-61
3.95433	-66
3.95800	-73
3.96167	-80
3.96533	-80
3.96900	-76
3.97267	-73
3.97633	-72
3.98000	-70
3.98367	-69
3.98733	-69
3.99100	-71
3.99467	-77
3.99833	-82

[Chromatogram (Ch2)]
Interval(msec)	220
# of Points	1091
Start Time(min)	0.002
End Time(min)	3.998
R.Time (min)	Intensity
0.00167	1
0.00533	1
0.00900	1
0.01267	1
0.01633	2
0.02000	2
0.02367	2
0.02733	2
0.03100	2
0.03467	2
0.03833	3
0.04200	3
0.04567	3
0.04933	3
0.05300	3
0.05667	3
0.06033	4
0.06400	4
0.06767	4
0.07133	4
0.07500	4
0.07867	4
0.08233	4
0.08600	4
0.08967	4
0.09333	5
0.09700	5
0.10067	5
0.10433	5
0.10800	5
0.11167	4
0.11533	4
0.11900	4
0.12267	4
0.12633	4
0.13000	4
0.13367	3
0.13733	3
0.14100	3
0.14467	3
0.14833	3
0.15200	3
0.15567	2
0.15933	2
0.16300	2
0.16667	2
0.17033	2
0.17400	2
0.17767	2
0.18133	2
0.18500	1
0.18867	1
0.19233	1
0.19600	0
0.19967	-0
0.20333	-0
0.20700	-1
0.21067	-1
0.21433	-1
0.21800	-1
0.22167	-1
0.22533	-2
0.22900	-2
0.23267	-2
0.23633	-2
0.24000	-2
0.24367	-2
0.24733	-2
0.25100	-2
0.25467	-2
0.25833	-1
0.26200	-1
0.26567	-1
0.26933	-1
0.27300	-1
0.27667	-1
0.28033	-0
0.28400	-0
0.28767	-0
0.29133	-1
0.29500	-1
0.29867	-1
0.30233	-1
0.30600	-1
0.30967	-2
0.31333	-2
0.31700	-1
0.32067	-1
0.32433	-1
0.32800	-1
0.33167	-1
0.33533	-1
0.33900	-1
0.34267	-1
0.34633	-1
0.35000	-1
0.35367	-1
0.35733	-1
0.36100	-2
0.36467	-2
0.36833	-2
0.37200	-2
0.37567	-2
0.37933	-2
0.38300	-1
0.38667	-1
0.39033	-1
0.39400	-1
0.39767	-1
0.40133	-1
0.40500	-1
0.40867	-0
0.41233	-0
0.41600	0
0.41967	0
0.42333	0
0.42700	0
0.43067	0
0.43433	0
0.43800	-0
0.44167	-0
0.44533	-1
0.44900	-1
0.45267	-1
0.45633	-2
0.46000	-2
0.46367	-3
0.46733	-3
0.47100	-3
0.47467	-3
0.47833	-3
0.48200	-3
0.48567	-2
0.48933	-2
0.49300	-2
0.49667	-2
0.50033	-1
0.50400	-1
0.50767	-1
0.51133	-1
0.51500	-1
0.51867	-1
0.52233	-0
0.52600	-0
0.52967	0
0.53333	1
0.53700	1
0.54067	1
0.54433	2
0.54800	2
0.55167	2
0.55533	2
0.55900	2
0.56267	2
0.56633	2
0.57000	2
0.57367	2
0.57733	2
0.58100	2
0.58467	1
0.58833	1
0.59200	1
0.59567	1
0.59933	1
0.60300	1
0.60667	0
0.61033	0
0.61400	0
0.61767	-0
0.62133	-0
0.62500	-1
0.62867	-1
0.63233	-2
0.63600	-2
0.63967	-3
0.64333	-3
0.64700	-3
0.65067	-3
0.65433	-4
0.65800	-4
0.66167	-4
0.66533	-4
0.66900	-4
0.67267	-4
0.67633	-5
0.68000	-5
0.68367	-5
0.68733	-4
0.69100	-4
0.69467	-4
0.69833	-4
0.70200	-4
0.70567	-4
0.70933	-4
0.71300	-4
0.71667	-4
0.72033	-3
0.72400	-3
0.72767	-2
0.73133	-2
0.73500	-1
0.73867	-1
0.74233	-1
0.74600	-1
0.74967	-1
0.75333	-1
0.75700	-1
0.76067	-1
0.76433	-1
0.76800	-1
0.77167	-2
0.77533	-2
0.77900	-2
0.78267	-2
0.78633	-2
0.79000	-2
0.79367	-2
0.79733	-2
0.80100	-2
0.80467	-2
0.80833	-2
0.81200	-2
0.81567	-2
0.81933	-2
0.82300	-2
0.82667	-2
0.83033	-2
0.83400	-2
0.83767	-2
0.84133	-2
0.84500	-2
0.84867	-2
0.85233	-2
0.85600	-2
0.85967	-2
0.86333	-2
0.86700	-3
0.87067	-3
0.87433	-3
0.87800	-3
0.88167	-3
0.88533	-3
0.88900	-4
0.89267	-4
0.89633	-4
0.90000	-4
0.90367	-4
0.90733	-3
0.91100	-3
0.91467	-3
0.91833	-3
0.92200	-2
0.92567	-2
0.92933	-2
0.93300	-2
0.93667	-2
0.94033	-2
0.94400	-2
0.94767	-3
0.95133	-3
0.95500	-3
0.95867	-3
0.96233	-3
0.96600	-3
0.96967	-3
0.97333	-3
0.97700	-2
0.98067	-2
0.98433	-2
0.98800	-1
0.99167	-1
0.99533	-1
0.99900	-1
1.00267	-1
1.00633	-1
1.01000	-2
1.01367	-2
1.01733	-2
1.02100	-2
1.02467	-2
1.02833	-2
1.03200	-2
1.03567	-1
1.03933	-1
1.04300	-1
1.04667	-1
1.05033	-1
1.05400	-1
1.05767	-0
1.06133	-0
1.06500	-0
1.06867	-0
1.07233	-0
1.07600	-0
1.07967	-1
1.08333	-1
1.08700	-1
1.09067	-1
1.09433	-1
1.09800	-1
1.10167	-1
1.10533	-1
1.10900	-1
1.11267	-2
1.11633	-2
1.12000	-3
1.12367	-4
1.12733	-4
1.13100	-5
1.13467	-6
1.13833	-6
1.14200	-7
1.14567	-7
1.14933	-7
1.15300	-7
1.15667	-7
1.16033	-7
1.16400	-7
1.16767	-7
1.17133	-6
1.17500	-5
1.17867	-5
1.18233	-4
1.18600	-3
1.18967	-2
1.19333	-2
1.19700	-2
1.20067	-1
1.20433	-1
1.20800	-1
1.21167	-1
1.21533	-1
1.21900	-0
1.22267	-0
1.22633	-0
1.23000	-0
1.23367	-0
1.23733	-1
1.24100	-1
1.24467	-1
1.24833	-2
1.25200	-2
1.25567	-2
1.25933	-2
1.26300	-2
1.26667	-3
1.27033	-3
1.27400	-3
1.27767	-3
1.28133	-3
1.28500	-3
1.28867	-2
1.29233	-2
1.29600	-2
1.29967	-2
1.30333	-2
1.30700	-2
1.31067	-1
1.31433	-1
1.31800	-1
1.32167	-1
1.32533	-1
1.32900	-1
1.33267	-1
1.33633	-2
1.34000	-2
1.34367	-2
1.34733	-3
1.35100	-3
1.35467	-4
1.35833	-4
1.36200	-4
1.36567	-4
1.36933	-4
1.37300	-4
1.37667	-4
1.38033	-4
1.38400	-4
1.38767	-4
1.39133	-3
1.39500	-3
1.39867	-3
1.40233	-3
1.40600	-3
1.40967	-3
1.41333	-3
1.41700	-3
1.42067	-3
1.42433	-3
1.42800	-3
1.43167	-3
1.43533	-2
1.43900	-2
1.44267	-2
1.44633	-2
1.45000	-2
1.45367	-2
1.45733	-2
1.46100	-2
1.46467	-2
1.46833	-2
1.47200	-2
1.47567	-2
1.47933	-2
1.48300	-1
1.48667	-1
1.49033	-1
1.49400	-1
1.49767	-1
1.50133	-1
1.50500	-1
1.50867	-1
1.51233	-1
1.51600	-2
1.51967	-2
1.52333	-2
1.52700	-2
1.53067	-2
1.53433	-2
1.53800	-2
1.54167	-2
1.54533	-2
1.54900	-2
1.55267	-2
1.55633	-2
1.56000	-2
1.56367	-2
1.56733	-3
1.57100	-3
1.57467	-3
1.57833	-3
1.58200	-3
1.58567	-4
1.58933	-4
1.59300	-5
1.59667	-5
1.60033	-6
1.60400	-7
1.60767	-9
1.61133	-10
1.61500	-12
1.61867	-14
1.62233	-17
1.62600	-20
1.62967	-23
1.63333	-26
1.63700	-29
1.64067	-32
1.64433	-36
1.64800	-39
1.65167	-42
1.65533	-46
1.65900	-49
1.66267	-53
1.66633	-57
1.67000	-61
1.67367	-66
1.67733	-71
1.68100	-76
1.68467	-81
1.68833	-86
1.69200	-91
1.69567	-94
1.69933	-98
1.70300	-101
1.70667	-103
1.71033	-105
1.71400	-106
1.71767	-108
1.72133	-109
1.72500	-110
1.72867	-111
1.73233	-112
1.73600	-113
1.73967	-114
1.74333	-115
1.74700	-116
1.75067	-117
1.75433	-117
1.75800	-118
1.76167	-118
1.76533	-118
1.76900	-118
1.77267	-118
1.77633	-118
1.78000	-119
1.78367	-119
1.78733	-120
1.79100	-120
1.79467	-121
1.79833	-121
1.80200	-121
1.80567	-122
1.80933	-122
1.81300	-122
1.81667	-123
1.82033	-123
1.82400	-123
1.82767	-123
1.83133	-124
1.83500	-124
1.83867	-123
1.84233	-123
1.84600	-122
1.84967	-122
1.85333	-121
1.85700	-121
1.86067	-121
1.86433	-121
1.86800	-121
1.87167	-121
1.87533	-120
1.87900	-120
1.88267	-120
1.88633	-120
1.89000	-120
1.89367	-120
1.89733	-120
1.90100	-120
1.90467	-119
1.90833	-119
1.91200	-119
1.91567	-119
1.91933	-119
1.92300	-119
1.92667	-118
1.93033	-118
1.93400	-118
1.93767	-118
1.94133	-117
1.94500	-117
1.94867	-117
1.95233	-117
1.95600	-117
1.95967	-117
1.96333	-117
1.96700	-117
1.97067	-118
1.97433	-118
1.97800	-118
1.98167	-118
1.98533	-118
1.98900	-118
1.99267	-118
1.99633	-117
2.00000	-116
2.00367	-115
2.00733	-114
2.01100	-114
2.01467	-113
2.01833	-113
2.02200	-112
2.02567	-112
2.02933	-112
2.03300	-112
2.03667	-111
2.04033	-111
2.04400	-111
2.04767	-111
2.05133	-111
2.05500	-111
2.05867	-110
2.06233	-110
2.06600	-110
2.06967	-110
2.07333	-110
2.07700	-110
2.08067	-110
2.08433	-109
2.08800	-109
2.09167	-108
2.09533	-107
2.09900	-106
2.10267	-106
2.10633	-105
2.11000	-105
2.11367	-105
2.11733	-105
2.12100	-104
2.12467	-104
2.12833	-104
2.13200	-103
2.13567	-103
2.13933	-103
2.14300	-103
2.14667	-103
2.15033	-103
2.15400	-102
2.15767	-102
2.16133	-102
2.16500	-102
2.16867	-101
2.17233	-101
2.17600	-101
2.17967	-101
2.18333	-101
2.18700	-101
2.19067	-100
2.19433	-100
2.19800	-99
2.20167	-98
2.20533	-98
2.20900	-97
2.21267	-97
2.21633	-97
2.22000	-97
2.22367	-96
2.22733	-96
2.23100	-96
2.23467	-95
2.23833	-95
2.24200	-95
2.24567	-95
2.24933	-95
2.25300	-94
2.25667	-94
2.26033	-93
2.26400	-93
2.26767	-92
2.27133	-92
2.27500	-91
2.27867	-91
2.28233	-90
2.28600	-90
2.28967	-90
2.29333	-90
2.29700	-90
2.30067	-90
2.30433	-89
2.30800	-89
2.31167	-88
2.31533	-88
2.31900	-88
2.32267	-88
2.32633	-87
2.33000	-87
2.33367	-87
2.33733	-87
2.34100	-86
2.34467	-86
2.34833	-85
2.35200	-84
2.35567	-83
2.35933	-82
2.36300	-81
2.36667	-80
2.37033	-79
2.37400	-78
2.37767	-76
2.38133	-73
2.38500	-70
2.38867	-66
2.39233	-61
2.39600	-57
2.39967	-52
2.40333	-47
2.40700	-42
2.41067	-37
2.41433	-33
2.41800	-29
2.42167	-24
2.42533	-21
2.42900	-17
2.43267	-14
2.43633	-12
2.44000	-10
2.44367	-8
2.44733	-7
2.45100	-5
2.45467	-4
2.45833	-2
2.46200	-1
2.46567	-1
2.46933	0
2.47300	1
2.47667	1
2.48033	2
2.48400	3
2.48767	4
2.49133	6
2.49500	6
2.49867	7
2.50233	7
2.50600	8
2.50967	8
2.51333	8
2.51700	8
2.52067	9
2.52433	9
2.52800	10
2.53167	10
2.53533	11
2.53900	11
2.54267	12
2.54633	12
2.55000	12
2.55367	12
2.55733	12
2.56100	12
2.56467	13
2.56833	13
2.57200	13
2.57567	13
2.57933	14
2.58300	14
2.58667	15
2.59033	15
2.59400	15
2.59767	15
2.60133	15
2.60500	15
2.60867	15
2.61233	15
2.61600	15
2.61967	15
2.62333	15
2.62700	15
2.63067	15
2.63433	16
2.63800	16
2.64167	16
2.64533	16
2.64900	16
2.65267	16
2.65633	16
2.66000	16
2.66367	16
2.66733	16
2.67100	16
2.67467	16
2.67833	16
2.68200	16
2.68567	17
2.68933	17
2.69300	18
2.69667	19
2.70033	19
2.70400	20
2.70767	21
2.71133	22
2.71500	22
2.71867	22
2.72233	22
2.72600	22
2.72967	22
2.73333	21
2.73700	21
2.74067	20
2.74433	20
2.74800	20
2.75167	20
2.75533	20
2.75900	20
2.76267	20
2.76633	19
2.77000	19
2.77367	19
2.77733	20
2.78100	20
2.78467	21
2.78833	21
2.79200	21
2.79567	22
2.79933	22
2.80300	22
2.80667	22
2.81033	22
2.81400	22
2.81767	21
2.82133	21
2.82500	21
2.82867	21
2.83233	21
2.83600	21
2.83967	20
2.84333	20
2.84700	20
2.85067	20
2.85433	19
2.85800	19
2.86167	19
2.86533	19
2.86900	20
2.87267	20
2.87633	20
2.88000	20
2.88367	20
2.88733	20
2.89100	21
2.89467	21
2.89833	21
2.90200	22
2.90567	22
2.90933	22
2.91300	21
2.91667	21
2.92033	21
2.92400	21
2.92767	21
2.93133	21
2.93500	21
2.93867	21
2.94233	21
2.94600	21
2.94967	20
2.95333	20
2.95700	20
2.96067	21
2.96433	20
2.96800	20
2.97167	20
2.97533	20
2.97900	19
2.98267	19
2.98633	19
2.99000	19
2.99367	19
2.99733	19
3.00100	19
3.00467	18
3.00833	18
3.01200	18
3.01567	18
3.01933	18
3.02300	18
3.02667	18
3.03033	18
3.03400	18
3.03767	18
3.04133	18
3.04500	18
3.04867	18
3.05233	18
3.05600	18
3.05967	19
3.06333	19
3.06700	19
3.07067	19
3.07433	20
3.07800	20
3.08167	20
3.08533	20
3.08900	21
3.09267	21
3.09633	21
3.10000	21
3.10367	21
3.10733	21
3.11100	21
3.11467	21
3.11833	21
3.12200	21
3.12567	21
3.12933	21
3.13300	21
3.13667	21
3.14033	21
3.14400	20
3.14767	20
3.15133	20
3.15500	20
3.15867	20
3.16233	21
3.16600	20
3.16967	20
3.17333	21
3.17700	21
3.18067	21
3.18433	21
3.18800	21
3.19167	21
3.19533	21
3.19900	21
3.20267	21
3.20633	21
3.21000	21
3.21367	21
3.21733	21
3.22100	21
3.22467	21
3.22833	21
3.23200	21
3.23567	21
3.23933	21
3.24300	21
3.24667	21
3.25033	21
3.25400	21
3.25767	21
3.26133	21
3.26500	21
3.26867	22
3.27233	22
3.27600	22
3.27967	22
3.28333	22
3.28700	22
3.29067	23
3.29433	23
3.29800	23
3.30167	23
3.30533	24
3.30900	24
3.31267	24
3.31633	25
3.32000	25
3.32367	25
3.32733	25
3.33100	25
3.33467	25
3.33833	25
3.34200	25
3.34567	25
3.34933	25
3.35300	25
3.35667	25
3.36033	25
3.36400	24
3.36767	24
3.37133	24
3.37500	24
3.37867	24
3.38233	24
3.38600	24
3.38967	24
3.39333	24
3.39700	24
3.40067	24
3.40433	24
3.40800	23
3.41167	23
3.41533	23
3.41900	23
3.42267	23
3.42633	22
3.43000	22
3.43367	22
3.43733	22
3.44100	22
3.44467	22
3.44833	22
3.45200	21
3.45567	21
3.45933	21
3.46300	21
3.46667	20
3.47033	20
3.47400	20
3.47767	20
3.48133	20
3.48500	20
3.48867	20
3.49233	20
3.49600	20
3.49967	20
3.50333	20
3.50700	20
3.51067	20
3.51433	20
3.51800	20
3.52167	20
3.52533	20
3.52900	20
3.53267	20
3.53633	20
3.54000	20
3.54367	20
3.54733	20
3.55100	20
3.55467	20
3.55833	21
3.56200	21
3.56567	20
3.56933	20
3.57300	20
3.57667	20
3.58033	20
3.58400	20
3.58767	20
3.59133	20
3.59500	20
3.59867	20
3.60233	20
3.60600	20
3.60967	20
3.61333	20
3.61700	20
3.62067	20
3.62433	20
3.62800	20
3.63167	20
3.63533	20
3.63900	20
3.64267	20
3.64633	20
3.65000	21
3.65367	21
3.65733	21
3.66100	21
3.66467	21
3.66833	21
3.67200	21
3.67567	21
3.67933	21
3.68300	21
3.68667	21
3.69033	22
3.69400	22
3.69767	22
3.70133	22
3.70500	22
3.70867	22
3.71233	22
3.71600	23
3.71967	23
3.72333	22
3.72700	22
3.73067	22
3.73433	22
3.73800	22
3.74167	22
3.74533	22
3.74900	22
3.75267	22
3.75633	22
3.76000	22
3.76367	21
3.76733	21
3.77100	21
3.77467	21
3.77833	21
3.78200	21
3.78567	21
3.78933	21
3.79300	21
3.79667	21
3.80033	22
3.80400	22
3.80767	22
3.81133	22
3.81500	22
3.81867	22
3.82233	22
3.82600	22
3.82967	22
3.83333	22
3.83700	22
3.84067	22
3.84433	22
3.84800	22
3.85167	22
3.85533	22
3.85900	22
3.86267	22
3.86633	21
3.87000	21
3.87367	21
3.87733	21
3.88100	21
3.88467	21
3.88833	21
3.89200	20
3.89567	20
3.89933	20
3.90300	19
3.90667	19
3.91033	19
3.91400	19
3.91767	19
3.92133	19
3.92500	20
3.92867	20
3.93233	20
3.93600	20
3.93967	20
3.94333	21
3.94700	21
3.95067	21
3.95433	21
3.95800	22
3.96167	22
3.96533	22
3.96900	22
3.97267	22
3.97633	22
3.98000	22
3.98367	22
3.98733	22
3.99100	22
3.99467	22
3.99833	22

[Chromatogram (Ch3)]
Interval(msec)	220
# of Points	1091
Start Time(min)	0.002
End Time(min)	3.998
R.Time (min)	Intensity
0.00167	1
0.00533	3
0.00900	3
0.01267	1
0.01633	-2
0.02000	-2
0.02367	-2
0.02733	-1
0.03100	0
0.03467	2
0.03833	2
0.04200	5
0.04567	8
0.04933	7
0.05300	7
0.05667	6
0.06033	5
0.06400	7
0.06767	6
0.07133	6
0.07500	5
0.07867	1
0.08233	-1
0.08600	-0
0.08967	1
0.09333	3
0.09700	3
0.10067	2
0.10433	2
0.10800	-0
0.11167	-1
0.11533	-2
0.11900	-2
0.12267	1
0.12633	3
0.13000	3
0.13367	1
0.13733	1
0.14100	3
0.14467	4
0.14833	5
0.15200	7
0.15567	6
0.15933	5
0.16300	4
0.16667	4
0.17033	2
0.17400	5
0.17767	8
0.18133	11
0.18500	12
0.18867	13
0.19233	12
0.19600	11
0.19967	10
0.20333	11
0.20700	11
0.21067	11
0.21433	14
0.21800	16
0.22167	17
0.22533	17
0.22900	17
0.23267	18
0.23633	21
0.24000	22
0.24367	21
0.24733	20
0.25100	20
0.25467	19
0.25833	21
0.26200	24
0.26567	25
0.26933	22
0.27300	19
0.27667	19
0.28033	19
0.28400	18
0.28767	18
0.29133	18
0.29500	18
0.29867	20
0.30233	21
0.30600	23
0.30967	24
0.31333	24
0.31700	25
0.32067	25
0.32433	25
0.32800	26
0.33167	26
0.33533	26
0.33900	27
0.34267	27
0.34633	25
0.35000	23
0.35367	22
0.35733	22
0.36100	24
0.36467	25
0.36833	27
0.37200	28
0.37567	27
0.37933	26
0.38300	24
0.38667	23
0.39033	23
0.39400	23
0.39767	22
0.40133	22
0.40500	23
0.40867	26
0.41233	28
0.41600	28
0.41967	28
0.42333	29
0.42700	29
0.43067	29
0.43433	30
0.43800	30
0.44167	31
0.44533	31
0.44900	31
0.45267	30
0.45633	29
0.46000	28
0.46367	26
0.46733	24
0.47100	25
0.47467	26
0.47833	28
0.48200	30
0.48567	30
0.48933	29
0.49300	27
0.49667	26
0.50033	25
0.50400	26
0.50767	28
0.51133	27
0.51500	27
0.51867	30
0.52233	32
0.52600	33
0.52967	35
0.53333	36
0.53700	36
0.54067	37
0.54433	37
0.54800	34
0.55167	29
0.55533	28
0.55900	28
0.56267	28
0.56633	27
0.57000	27
0.57367	27
0.57733	28
0.58100	28
0.58467	26
0.58833	24
0.59200	24
0.59567	24
0.59933	26
0.60300	28
0.60667	29
0.61033	31
0.61400	31
0.61767	33
0.62133	33
0.62500	31
0.62867	30
0.63233	32
0.63600	32
0.63967	31
0.64333	29
0.64700	28
0.65067	29
0.65433	30
0.65800	31
0.66167	32
0.66533	33
0.66900	33
0.67267	34
0.67633	34
0.68000	35
0.68367	36
0.68733	38
0.69100	38
0.69467	40
0.69833	42
0.70200	41
0.70567	41
0.70933	40
0.71300	39
0.71667	36
0.72033	36
0.72400	35
0.72767	34
0.73133	33
0.73500	33
0.73867	34
0.74233	38
0.74600	42
0.74967	44
0.75333	47
0.75700	48
0.76067	46
0.76433	45
0.76800	44
0.77167	43
0.77533	45
0.77900	46
0.78267	45
0.78633	45
0.79000	44
0.79367	45
0.79733	44
0.80100	41
0.80467	41
0.80833	42
0.81200	44
0.81567	48
0.81933	49
0.82300	49
0.82667	50
0.83033	49
0.83400	48
0.83767	50
0.84133	52
0.84500	50
0.84867	49
0.85233	49
0.85600	51
0.85967	54
0.86333	53
0.86700	52
0.87067	50
0.87433	50
0.87800	52
0.88167	52
0.88533	51
0.88900	51
0.89267	54
0.89633	55
0.90000	54
0.90367	52
0.90733	52
0.91100	52
0.91467	52
0.91833	52
0.92200	55
0.92567	55
0.92933	54
0.93300	54
0.93667	53
0.94033	53
0.94400	55
0.94767	55
0.95133	56
0.95500	56
0.95867	56
0.96233	56
0.96600	54
0.96967	55
0.97333	56
0.97700	57
0.98067	56
0.98433	57
0.98800	56
0.99167	55
0.99533	56
0.99900	57
1.00267	57
1.00633	56
1.01000	57
1.01367	56
1.01733	58
1.02100	59
1.02467	59
1.02833	56
1.03200	56
1.03567	56
1.03933	57
1.04300	57
1.04667	60
1.05033	63
1.05400	63
1.05767	62
1.06133	61
1.06500	60
1.06867	62
1.07233	65
1.07600	68
1.07967	68
1.08333	67
1.08700	66
1.09067	67
1.09433	69
1.09800	69
1.10167	68
1.10533	66
1.10900	66
1.11267	67
1.11633	65
1.12000	64
1.12367	66
1.12733	68
1.13100	66
1.13467	63
1.13833	61
1.14200	61
1.14567	61
1.14933	62
1.15300	64
1.15667	66
1.16033	69
1.16400	70
1.16767	68
1.17133	69
1.17500	67
1.17867	64
1.18233	63
1.18600	62
1.18967	61
1.19333	61
1.19700	64
1.20067	66
1.20433	67
1.20800	68
1.21167	66
1.21533	66
1.21900	66
1.22267	69
1.22633	71
1.23000	71
1.23367	70
1.23733	67
1.24100	65
1.24467	63
1.24833	61
1.25200	61
1.25567	61
1.25933	64
1.26300	69
1.26667	72
1.27033	71
1.27400	72
1.27767	71
1.28133	69
1.28500	69
1.28867	71
1.29233	71
1.29600	72
1.29967	70
1.30333	70
1.30700	71
1.31067	71
1.31433	69
1.31800	70
1.32167	71
1.32533	69
1.32900	68
1.33267	68
1.33633	69
1.34000	71
1.34367	73
1.34733	73
1.35100	71
1.35467	69
1.35833	70
1.36200	71
1.36567	69
1.36933	71
1.37300	73
1.37667	72
1.38033	71
1.38400	69
1.38767	68
1.39133	67
1.39500	65
1.39867	65
1.40233	66
1.40600	69
1.40967	70
1.41333	71
1.41700	70
1.42067	69
1.42433	67
1.42800	67
1.43167	67
1.43533	67
1.43900	65
1.44267	63
1.44633	62
1.45000	63
1.45367	65
1.45733	65
1.46100	63
1.46467	64
1.46833	63
1.47200	62
1.47567	63
1.47933	63
1.48300	63
1.48667	64
1.49033	64
1.49400	65
1.49767	65
1.50133	65
1.50500	64
1.50867	65
1.51233	66
1.51600	68
1.51967	67
1.52333	67
1.52700	66
1.53067	67
1.53433	69
1.53800	68
1.54167	65
1.54533	63
1.54900	63
1.55267	64
1.55633	64
1.56000	64
1.56367	66
1.56733	68
1.57100	72
1.57467	71
1.57833	70
1.58200	70
1.58567	69
1.58933	67
1.59300	66
1.59667	67
1.60033	68
1.60400	67
1.60767	67
1.61133	69
1.61500	71
1.61867	74
1.62233	75
1.62600	75
1.62967	73
1.63333	72
1.63700	70
1.64067	70
1.64433	71
1.64800	71
1.65167	70
1.65533	71
1.65900	73
1.66267	74
1.66633	74
1.67000	76
1.67367	78
1.67733	79
1.68100	79
1.68467	80
1.68833	83
1.69200	87
1.69567	88
1.69933	87
1.70300	88
1.70667	90
1.71033	93
1.71400	92
1.71767	89
1.72133	89
1.72500	89
1.72867	89
1.73233	89
1.73600	90
1.73967	91
1.74333	94
1.74700	95
1.75067	95
1.75433	96
1.75800	97
1.76167	100
1.76533	102
1.76900	101
1.77267	99
1.77633	99
1.78000	102
1.78367	105
1.78733	105
1.79100	106
1.79467	106
1.79833	108
1.80200	108
1.80567	108
1.80933	110
1.81300	111
1.81667	110
1.82033	113
1.82400	114
1.82767	116
1.83133	116
1.83500	116
1.83867	118
1.84233	119
1.84600	120
1.84967	121
1.85333	122
1.85700	124
1.86067	127
1.86433	130
1.86800	129
1.87167	128
1.87533	127
1.87900	127
1.88267	125
1.88633	122
1.89000	119
1.89367	117
1.89733	117
1.90100	119
1.90467	120
1.90833	120
1.91200	120
1.91567	120
1.91933	119
1.92300	121
1.92667	124
1.93033	125
1.93400	127
1.93767	128
1.94133	128
1.94500	126
1.94867	127
1.95233	130
1.95600	133
1.95967	137
1.96333	136
1.96700	136
1.97067	138
1.97433	137
1.97800	139
1.98167	141
1.98533	145
1.98900	148
1.99267	146
1.99633	145
2.00000	148
2.00367	151
2.00733	154
2.01100	152
2.01467	149
2.01833	149
2.02200	152
2.02567	156
2.02933	159
2.03300	160
2.03667	160
2.04033	159
2.04400	158
2.04767	159
2.05133	161
2.05500	160
2.05867	161
2.06233	161
2.06600	163
2.06967	166
2.07333	168
2.07700	171
2.08067	174
2.08433	177
2.08800	180
2.09167	180
2.09533	179
2.09900	181
2.10267	184
2.10633	188
2.11000	191
2.11367	193
2.11733	199
2.12100	201
2.12467	202
2.12833	202
2.13200	203
2.13567	205
2.13933	204
2.14300	199
2.14667	197
2.15033	200
2.15400	203
2.15767	204
2.16133	205
2.16500	208
2.16867	210
2.17233	213
2.17600	214
2.17967	217
2.18333	218
2.18700	218
2.19067	219
2.19433	221
2.19800	223
2.20167	224
2.20533	226
2.20900	229
2.21267	230
2.21633	233
2.22000	235
2.22367	236
2.22733	235
2.23100	235
2.23467	237
2.23833	241
2.24200	245
2.24567	247
2.24933	247
2.25300	247
2.25667	247
2.26033	248
2.26400	250
2.26767	254
2.27133	258
2.27500	261
2.27867	262
2.28233	262
2.28600	264
2.28967	265
2.29333	266
2.29700	263
2.30067	263
2.30433	265
2.30800	265
2.31167	264
2.31533	263
2.31900	265
2.32267	268
2.32633	269
2.33000	270
2.33367	270
2.33733	268
2.34100	269
2.34467	270
2.34833	275
2.35200	278
2.35567	280
2.35933	282
2.36300	285
2.36667	288
2.37033	289
2.37400	289
2.37767	290
2.38133	293
2.38500	293
2.38867	292
2.39233	291
2.39600	293
2.39967	295
2.40333	294
2.40700	292
2.41067	292
2.41433	295
2.41800	297
2.42167	298
2.42533	301
2.42900	304
2.43267	307
2.43633	309
2.44000	308
2.44367	307
2.44733	310
2.45100	315
2.45467	315
2.45833	311
2.46200	303
2.46567	296
2.46933	290
2.47300	283
2.47667	276
2.48033	270
2.48400	262
2.48767	250
2.49133	237
2.49500	222
2.49867	209
2.50233	196
2.50600	183
2.50967	173
2.51333	165
2.51700	159
2.52067	152
2.52433	143
2.52800	135
2.53167	130
2.53533	128
2.53900	122
2.54267	115
2.54633	110
2.55000	108
2.55367	106
2.55733	107
2.56100	108
2.56467	107
2.56833	102
2.57200	87
2.57567	35
2.57933	-20
2.58300	-41
2.58667	-23
2.59033	21
2.59400	78
2.59767	142
2.60133	206
2.60500	267
2.60867	326
2.61233	379
2.61600	427
2.61967	471
2.62333	510
2.62700	543
2.63067	573
2.63433	600
2.63800	623
2.64167	643
2.64533	662
2.64900	682
2.65267	702
2.65633	720
2.66000	736
2.66367	750
2.66733	763
2.67100	775
2.67467	784
2.67833	793
2.68200	799
2.68567	807
2.68933	814
2.69300	821
2.69667	827
2.70033	832
2.70400	836
2.70767	840
2.71133	843
2.71500	845
2.71867	847
2.72233	849
2.72600	852
2.72967	855
2.73333	855
2.73700	854
2.74067	851
2.74433	849
2.74800	849
2.75167	846
2.75533	844
2.75900	840
2.76267	839
2.76633	837
2.77000	834
2.77367	831
2.77733	823
2.78100	816
2.78467	811
2.78833	804
2.79200	799
2.79567	794
2.79933	790
2.80300	782
2.80667	774
2.81033	767
2.81400	759
2.81767	751
2.82133	742
2.82500	733
2.82867	724
2.83233	716
2.83600	710
2.83967	705
2.84333	701
2.84700	695
2.85067	690
2.85433	688
2.85800	683
2.86167	676
2.86533	672
2.86900	669
2.87267	664
2.87633	658
2.88000	653
2.88367	651
2.88733	649
2.89100	646
2.89467	641
2.89833	637
2.90200	633
2.90567	630
2.90933	626
2.91300	625
2.91667	621
2.92033	619
2.92400	615
2.92767	611
2.93133	607
2.93500	605
2.93867	603
2.94233	601
2.94600	600
2.94967	597
2.95333	594
2.95700	590
2.96067	586
2.96433	584
2.96800	582
2.97167	580
2.97533	578
2.97900	577
2.98267	575
2.98633	573
2.99000	569
2.99367	563
2.99733	558
3.00100	554
3.00467	553
3.00833	554
3.01200	550
3.01567	544
3.01933	542
3.02300	539
3.02667	537
3.03033	536
3.03400	534
3.03767	531
3.04133	528
3.04500	525
3.04867	522
3.05233	520
3.05600	518
3.05967	518
3.06333	519
3.06700	517
3.07067	511
3.07433	508
3.07800	505
3.08167	500
3.08533	497
3.08900	493
3.09267	490
3.09633	488
3.10000	486
3.10367	484
3.10733	481
3.11100	479
3.11467	475
3.11833	473
3.12200	471
3.12567	466
3.12933	464
3.13300	461
3.13667	457
3.14033	454
3.14400	453
3.14767	450
3.15133	448
3.15500	448
3.15867	447
3.16233	446
3.16600	445
3.16967	441
3.17333	436
3.17700	431
3.18067	429
3.18433	427
3.18800	424
3.19167	423
3.19533	424
3.19900	421
3.20267	417
3.20633	412
3.21000	408
3.21367	406
3.21733	406
3.22100	405
3.22467	400
3.22833	397
3.23200	395
3.23567	393
3.23933	389
3.24300	385
3.24667	383
3.25033	380
3.25400	378
3.25767	374
3.26133	371
3.26500	367
3.26867	364
3.27233	360
3.27600	357
3.27967	353
3.28333	352
3.28700	350
3.29067	349
3.29433	348
3.29800	345
3.30167	342
3.30533	339
3.30900	336
3.31267	333
3.31633	330
3.32000	327
3.32367	322
3.32733	318
3.33100	315
3.33467	312
3.33833	308
3.34200	306
3.34567	304
3.34933	303
3.35300	302
3.35667	299
3.36033	297
3.36400	294
3.36767	294
3.37133	293
3.37500	292
3.37867	288
3.38233	282
3.38600	277
3.38967	272
3.39333	269
3.39700	267
3.40067	266
3.40433	265
3.40800	265
3.41167	265
3.41533	264
3.41900	262
3.42267	260
3.42633	257
3.43000	252
3.43367	248
3.43733	245
3.44100	242
3.44467	240
3.44833	239
3.45200	236
3.45567	234
3.45933	233
3.46300	232
3.46667	229
3.47033	228
3.47400	226
3.47767	225
3.48133	224
3.48500	221
3.48867	216
3.49233	210
3.49600	205
3.49967	201
3.50333	199
3.50700	200
3.51067	199
3.51433	198
3.51800	199
3.52167	200
3.52533	200
3.52900	198
3.53267	193
3.53633	189
3.54000	188
3.54367	185
3.54733	183
3.55100	181
3.55467	178
3.55833	176
3.56200	174
3.56567	174
3.56933	174
3.57300	175
3.57667	175
3.58033	173
3.58400	172
3.58767	169
3.59133	165
3.59500	162
3.59867	161
3.60233	160
3.60600	157
3.60967	156
3.61333	155
3.61700	155
3.62067	154
3.62433	151
3.62800	150
3.63167	149
3.63533	149
3.63900	148
3.64267	146
3.64633	144
3.65000	143
3.65367	142
3.65733	141
3.66100	141
3.66467	141
3.66833	141
3.67200	140
3.67567	140
3.67933	140
3.68300	140
3.68667	139
3.69033	137
3.69400	134
3.69767	132
3.70133	132
3.70500	131
3.70867	129
3.71233	127
3.71600	126
3.71967	124
3.72333	125
3.72700	127
3.73067	128
3.73433	126
3.73800	124
3.74167	123
3.74533	120
3.74900	118
3.75267	115
3.75633	114
3.76000	113
3.76367	111
3.76733	111
3.77100	113
3.77467	112
3.77833	110
3.78200	111
3.78567	114
3.78933	115
3.79300	114
3.79667	112
3.80033	109
3.80400	109
3.80767	108
3.81133	108
3.81500	109
3.81867	109
3.82233	108
3.82600	109
3.82967	109
3.83333	107
3.83700	107
3.84067	104
3.84433	102
3.84800	102
3.85167	100
3.85533	97
3.85900	95
3.86267	96
3.86633	97
3.87000	98
3.87367	98
3.87733	98
3.88100	99
3.88467	100
3.88833	98
3.89200	97
3.89567	96
3.89933	97
3.90300	97
3.90667	99
3.91033	100
3.91400	99
3.91767	97
3.92133	94
3.92500	93
3.92867	90
3.93233	90
3.93600	88
3.93967	87
3.94333	86
3.94700	87
3.95067	89
3.95433	90
3.95800	89
3.96167	88
3.96533	89
3.96900	89
3.97267	87
3.97633	85
3.98000	84
3.98367	84
3.98733	83
3.99100	81
3.99467	81
3.99833	81

[Status Trace (Column Oven Temperature)]
Interval(msec)	1000
# of Points	240
Start Time(min)	0.002
End Time(min)	3.985
Intensity Units	
Intensity Multiplier	1
R.Time (min)	Intensity
0.00177	35.04
0.01843	35.03
0.03510	35.02
0.05177	35.00
0.06843	34.99
0.08510	34.97
0.10177	34.97
0.11843	34.97
0.13510	34.96
0.15177	34.96
0.16843	34.95
0.18510	34.96
0.20177	34.97
0.21843	34.98
0.23510	34.98
0.25177	34.98
0.26843	34.97
0.28510	34.97
0.30177	34.98
0.31843	34.97
0.33510	34.98
0.35177	34.97
0.36843	34.98
0.38510	34.98
0.40177	34.97
0.41843	34.97
0.43510	34.99
0.45177	35.00
0.46843	35.00
0.48510	35.01
0.50177	35.00
0.51843	34.99
0.53510	34.98
0.55177	34.96
0.56843	34.96
0.58510	34.96
0.60177	34.96
0.61843	34.96
0.63510	34.97
0.65177	34.97
0.66843	35.00
0.68510	34.99
0.70177	35.00
0.71843	35.00
0.73510	34.99
0.75177	34.98
0.76843	34.98
0.78510	34.98
0.80177	34.98
0.81843	34.98
0.83510	34.97
0.85177	34.98
0.86843	34.98
0.88510	34.99
0.90177	34.99
0.91843	34.98
0.93510	34.99
0.95177	35.00
0.96843	35.00
0.98510	34.99
1.00177	34.98
1.01843	34.99
1.03510	34.97
1.05177	34.96
1.06843	34.97
1.08510	34.97
1.10177	34.97
1.11843	34.99
1.13510	35.01
1.15177	35.03
1.16843	35.03
1.18510	35.02
1.20177	35.00
1.21843	34.99
1.23510	34.99
1.25177	35.00
1.26843	35.00
1.28510	34.99
1.30177	34.99
1.31843	34.98
1.33510	34.99
1.35177	35.01
1.36843	35.01
1.38510	35.00
1.40177	35.00
1.41843	34.99
1.43510	34.99
1.45177	34.99
1.46843	34.98
1.48510	34.98
1.50177	34.98
1.51843	34.97
1.53510	34.97
1.55177	34.97
1.56843	34.97
1.58510	34.98
1.60177	35.03
1.61843	35.15
1.63510	35.31
1.65177	35.51
1.66843	35.81
1.68510	36.17
1.70177	36.52
1.71843	36.86
1.73510	37.21
1.75177	37.55
1.76843	37.87
1.78510	38.21
1.80177	38.55
1.81843	38.88
1.83510	39.21
1.85177	39.53
1.86843	39.86
1.88510	40.19
1.90177	40.50
1.91843	40.84
1.93510	41.17
1.95177	41.49
1.96843	41.83
1.98510	42.17
2.00177	42.48
2.01843	42.81
2.03510	43.13
2.05177	43.45
2.06843	43.77
2.08510	44.11
2.10177	44.43
2.11843	44.76
2.13510	45.10
2.15177	45.42
2.16843	45.74
2.18510	46.07
2.20177	46.39
2.21843	46.71
2.23510	47.05
2.25177	47.37
2.26843	47.71
2.28510	48.04
2.30177	48.37
2.31843	48.70
2.33510	49.03
2.35177	49.31
2.36843	49.56
2.38510	49.70
2.40177	49.71
2.41843	49.70
2.43510	49.69
2.45177	49.69
2.46843	49.71
2.48510	49.72
2.50177	49.74
2.51843	49.75
2.53510	49.76
2.55177	49.78
2.56843	49.79
2.58510	49.80
2.60177	49.83
2.61843	49.83
2.63510	49.83
2.65177	49.84
2.66843	49.87
2.68510	49.87
2.70177	49.84
2.71843	49.83
2.73510	49.86
2.75177	49.87
2.76843	49.87
2.78510	49.86
2.80177	49.86
2.81843	49.87
2.83510	49.88
2.85177	49.90
2.86843	49.91
2.88510	49.92
2.90177	49.91
2.91843	49.92
2.93510	49.94
2.95177	49.96
2.96843	49.97
2.98510	49.98
3.00177	50.00
3.01843	50.01
3.03510	50.03
3.05177	50.04
3.06843	50.04
3.08510	50.04
3.10177	50.04
3.11843	50.05
3.13510	50.06
3.15177	50.08
3.16843	50.09
3.18510	50.09
3.20177	50.10
3.21843	50.10
3.23510	50.10
3.25177	50.10
3.26843	50.10
3.28510	50.09
3.30177	50.07
3.31843	50.06
3.33510	50.04
3.35177	50.04
3.36843	50.03
3.38510	50.02
3.40177	50.02
3.41843	50.03
3.43510	50.04
3.45177	50.04
3.46843	50.05
3.48510	50.05
3.50177	50.07
3.51843	50.07
3.53510	50.07
3.55177	50.07
3.56843	50.07
3.58510	50.07
3.60177	50.07
3.61843	50.09
3.63510	50.09
3.65177	50.09
3.66843	50.09
3.68510	50.09
3.70177	50.07
3.71843	50.06
3.73510	50.06
3.75177	50.06
3.76843	50.07
3.78510	50.07
3.80177	50.06
3.81843	50.06
3.83510	50.06
3.85177	50.05
3.86843	50.06
3.88510	50.07
3.90177	50.09
3.91843	50.10
3.93510	50.09
3.95177	50.08
3.96843	50.07
3.98510	50.06

[Status Trace (Injection Unit Temperature)]
Interval(msec)	1000
# of Points	240
Start Time(min)	0.002
End Time(min)	3.985
Intensity Units	
Intensity Multiplier	1
R.Time (min)	Intensity
0.00177	99.98
0.01843	99.98
0.03510	99.98
0.05177	99.98
0.06843	99.99
0.08510	99.98
0.10177	99.99
0.11843	99.98
0.13510	99.98
0.15177	99.98
0.16843	99.98
0.18510	99.98
0.20177	99.99
0.21843	99.98
0.23510	99.99
0.25177	99.99
0.26843	99.98
0.28510	99.98
0.30177	99.99
0.31843	99.99
0.33510	99.98
0.35177	99.99
0.36843	99.99
0.38510	99.99
0.40177	99.98
0.41843	99.99
0.43510	99.99
0.45177	99.99
0.46843	99.99
0.48510	99.99
0.50177	99.99
0.51843	99.99
0.53510	99.99
0.55177	99.99
0.56843	99.99
0.58510	99.98
0.60177	99.99
0.61843	99.99
0.63510	99.99
0.65177	99.99
0.66843	99.98
0.68510	99.99
0.70177	99.98
0.71843	99.98
0.73510	99.99
0.75177	99.99
0.76843	99.99
0.78510	99.99
0.80177	99.99
0.81843	99.99
0.83510	99.99
0.85177	99.99
0.86843	99.99
0.88510	99.99
0.90177	99.99
0.91843	99.99
0.93510	99.99
0.95177	99.98
0.96843	99.99
0.98510	99.98
1.00177	99.99
1.01843	99.99
1.03510	99.98
1.05177	99.98
1.06843	99.99
1.08510	99.99
1.10177	99.99
1.11843	99.99
1.13510	99.98
1.15177	99.99
1.16843	99.99
1.18510	99.99
1.20177	99.99
1.21843	99.99
1.23510	99.99
1.25177	99.98
1.26843	99.98
1.28510	99.99
1.30177	99.99
1.31843	99.98
1.33510	99.98
1.35177	99.98
1.36843	99.99
1.38510	99.99
1.40177	99.99
1.41843	99.99
1.43510	99.99
1.45177	99.99
1.46843	99.99
1.48510	99.99
1.50177	99.99
1.51843	99.99
1.53510	99.99
1.55177	99.99
1.56843	99.99
1.58510	99.99
1.60177	99.99
1.61843	99.99
1.63510	99.99
1.65177	99.99
1.66843	99.98
1.68510	99.99
1.70177	99.99
1.71843	99.99
1.73510	99.99
1.75177	99.99
1.76843	99.99
1.78510	99.98
1.80177	99.99
1.81843	99.99
1.83510	99.98
1.85177	99.98
1.86843	99.98
1.88510	99.99
1.90177	99.98
1.91843	99.98
1.93510	99.98
1.95177	99.98
1.96843	99.98
1.98510	99.98
2.00177	99.98
2.01843	99.97
2.03510	99.98
2.05177	99.98
2.06843	99.98
2.08510	99.97
2.10177	99.97
2.11843	99.97
2.13510	99.97
2.15177	99.97
2.16843	99.97
2.18510	99.97
2.20177	99.97
2.21843	99.97
2.23510	99.97
2.25177	99.97
2.26843	99.97
2.28510	99.97
2.30177	99.97
2.31843	99.97
2.33510	99.97
2.35177	99.97
2.36843	99.97
2.38510	99.97
2.40177	99.97
2.41843	99.97
2.43510	99.97
2.45177	99.97
2.46843	99.97
2.48510	99.97
2.50177	99.97
2.51843	99.98
2.53510	99.98
2.55177	99.97
2.56843	99.98
2.58510	99.97
2.60177	99.98
2.61843	99.98
2.63510	99.98
2.65177	99.98
2.66843	99.98
2.68510	99.99
2.70177	99.99
2.71843	99.99
2.73510	99.98
2.75177	99.99
2.76843	99.99
2.78510	99.99
2.80177	100.00
2.81843	100.00
2.83510	100.00
2.85177	99.99
2.86843	100.00
2.88510	100.00
2.90177	100.00
2.91843	100.00
2.93510	100.00
2.95177	100.00
2.96843	100.01
2.98510	100.01
3.00177	100.01
3.01843	100.01
3.03510	100.01
3.05177	100.01
3.06843	100.01
3.08510	100.02
3.10177	100.01
3.11843	100.02
3.13510	100.02
3.15177	100.02
3.16843	100.02
3.18510	100.02
3.20177	100.02
3.21843	100.03
3.23510	100.03
3.25177	100.02
3.26843	100.03
3.28510	100.03
3.30177	100.03
3.31843	100.03
3.33510	100.03
3.35177	100.03
3.36843	100.03
3.38510	100.03
3.40177	100.03
3.41843	100.03
3.43510	100.03
3.45177	100.03
3.46843	100.03
3.48510	100.04
3.50177	100.04
3.51843	100.04
3.53510	100.04
3.55177	100.04
3.56843	100.04
3.58510	100.04
3.60177	100.04
3.61843	100.05
3.63510	100.04
3.65177	100.04
3.66843	100.05
3.68510	100.05
3.70177	100.05
3.71843	100.04
3.73510	100.05
3.75177	100.05
3.76843	100.05
3.78510	100.05
3.80177	100.05
3.81843	100.05
3.83510	100.05
3.85177	100.05
3.86843	100.05
3.88510	100.05
3.90177	100.05
3.91843	100.05
3.93510	100.05
3.95177	100.05
3.96843	100.05
3.98510	100.06

[Status Trace (Carrier Gas Pressure)]
Interval(msec)	1000
# of Points	240
Start Time(min)	0.002
End Time(min)	3.985
Intensity Units	
Intensity Multiplier	1
R.Time (min)	Intensity
0.00177	58.00
0.01843	56.47
0.03510	56.19
0.05177	58.50
0.06843	59.91
0.08510	58.37
0.10177	57.97
0.11843	58.00
0.13510	58.01
0.15177	58.01
0.16843	58.00
0.18510	58.00
0.20177	58.00
0.21843	58.00
0.23510	58.00
0.25177	58.00
0.26843	58.00
0.28510	58.00
0.30177	58.00
0.31843	58.00
0.33510	58.00
0.35177	58.00
0.36843	58.00
0.38510	58.00
0.40177	58.00
0.41843	58.00
0.43510	58.00
0.45177	58.00
0.46843	58.00
0.48510	58.00
0.50177	58.00
0.51843	58.00
0.53510	58.00
0.55177	58.00
0.56843	58.00
0.58510	58.00
0.60177	58.00
0.61843	58.00
0.63510	58.00
0.65177	58.00
0.66843	58.00
0.68510	58.00
0.70177	58.00
0.71843	58.00
0.73510	58.00
0.75177	58.00
0.76843	58.00
0.78510	58.00
0.80177	58.00
0.81843	58.00
0.83510	58.00
0.85177	58.00
0.86843	58.00
0.88510	58.00
0.90177	58.00
0.91843	58.00
0.93510	58.00
0.95177	58.00
0.96843	58.00
0.98510	58.00
1.00177	58.00
1.01843	58.00
1.03510	58.00
1.05177	58.00
1.06843	58.00
1.08510	58.00
1.10177	58.00
1.11843	58.00
1.13510	58.00
1.15177	58.00
1.16843	58.00
1.18510	58.00
1.20177	58.00
1.21843	58.00
1.23510	58.00
1.25177	58.00
1.26843	58.00
1.28510	58.00
1.30177	58.00
1.31843	58.00
1.33510	58.00
1.35177	58.00
1.36843	58.00
1.38510	58.00
1.40177	58.00
1.41843	58.00
1.43510	58.00
1.45177	58.00
1.46843	58.00
1.48510	58.00
1.50177	58.00
1.51843	58.00
1.53510	58.00
1.55177	58.00
1.56843	58.00
1.58510	58.00
1.60177	58.00
1.61843	58.00
1.63510	58.00
1.65177	58.00
1.66843	58.01
1.68510	58.01
1.70177	58.00
1.71843	58.00
1.73510	58.00
1.75177	58.00
1.76843	58.00
1.78510	58.00
1.80177	58.00
1.81843	58.00
1.83510	58.00
1.85177	58.00
1.86843	58.00
1.88510	58.00
1.90177	58.00
1.91843	58.00
1.93510	58.00
1.95177	58.00
1.96843	58.00
1.98510	58.00
2.00177	58.00
2.01843	58.00
2.03510	58.00
2.05177	58.00
2.06843	58.00
2.08510	58.00
2.10177	58.00
2.11843	58.00
2.13510	58.00
2.15177	58.00
2.16843	58.00
2.18510	58.00
2.20177	58.00
2.21843	58.00
2.23510	58.00
2.25177	58.00
2.26843	58.00
2.28510	58.00
2.30177	58.00
2.31843	58.00
2.33510	58.00
2.35177	58.00
2.36843	58.00
2.38510	57.99
2.40177	57.99
2.41843	58.00
2.43510	58.00
2.45177	58.00
2.46843	58.00
2.48510	58.00
2.50177	57.99
2.51843	57.99
2.53510	57.99
2.55177	58.00
2.56843	58.00
2.58510	58.00
2.60177	58.00
2.61843	58.00
2.63510	58.00
2.65177	58.00
2.66843	58.00
2.68510	58.00
2.70177	58.00
2.71843	58.00
2.73510	58.00
2.75177	58.00
2.76843	58.00
2.78510	58.00
2.80177	58.00
2.81843	58.00
2.83510	58.00
2.85177	58.00
2.86843	58.00
2.88510	58.00
2.90177	58.00
2.91843	58.00
2.93510	58.00
2.95177	58.00
2.96843	58.00
2.98510	58.00
3.00177	58.00
3.01843	58.00
3.03510	58.00
3.05177	58.00
3.06843	58.00
3.08510	58.00
3.10177	58.00
3.11843	58.00
3.13510	58.00
3.15177	58.00
3.16843	58.00
3.18510	58.00
3.20177	58.00
3.21843	58.00
3.23510	58.00
3.25177	58.00
3.26843	58.00
3.28510	58.00
3.30177	58.00
3.31843	58.00
3.33510	58.00
3.35177	58.00
3.36843	58.00
3.38510	58.00
3.40177	58.00
3.41843	58.00
3.43510	58.00
3.45177	58.00
3.46843	58.00
3.48510	58.00
3.50177	58.00
3.51843	58.00
3.53510	58.00
3.55177	58.00
3.56843	58.00
3.58510	58.00
3.60177	58.00
3.61843	58.00
3.63510	58.00
3.65177	58.00
3.66843	58.00
3.68510	58.00
3.70177	58.00
3.71843	58.00
3.73510	58.00
3.75177	58.00
3.76843	58.00
3.78510	58.00
3.80177	58.00
3.81843	58.00
3.83510	58.00
3.85177	58.00
3.86843	58.00
3.88510	58.00
3.90177	58.00
3.91843	58.00
3.93510	58.00
3.95177	58.00
3.96843	58.00
3.98510	58.00

[Status Trace (Carrier Gas Flow)]
Interval(msec)	1000
# of Points	240
Start Time(min)	0.002
End Time(min)	3.985
Intensity Units	
Intensity Multiplier	1
R.Time (min)	Intensity
0.00177	34.52
0.01843	34.31
0.03510	34.54
0.05177	34.55
0.06843	34.49
0.08510	34.50
0.10177	34.52
0.11843	34.52
0.13510	34.52
0.15177	34.52
0.16843	34.52
0.18510	34.52
0.20177	34.52
0.21843	34.52
0.23510	34.52
0.25177	34.52
0.26843	34.52
0.28510	34.52
0.30177	34.52
0.31843	34.52
0.33510	34.52
0.35177	34.52
0.36843	34.52
0.38510	34.52
0.40177	34.52
0.41843	34.52
0.43510	34.52
0.45177	34.51
0.46843	34.52
0.48510	34.52
0.50177	34.52
0.51843	34.52
0.53510	34.53
0.55177	34.50
0.56843	34.52
0.58510	34.51
0.60177	34.52
0.61843	34.50
0.63510	34.52
0.65177	34.52
0.66843	34.52
0.68510	34.52
0.70177	34.52
0.71843	34.52
0.73510	34.52
0.75177	34.51
0.76843	34.52
0.78510	34.51
0.80177	34.51
0.81843	34.52
0.83510	34.53
0.85177	34.52
0.86843	34.53
0.88510	34.52
0.90177	34.52
0.91843	34.52
0.93510	34.52
0.95177	34.51
0.96843	34.53
0.98510	34.52
1.00177	34.52
1.01843	34.52
1.03510	34.51
1.05177	34.52
1.06843	34.52
1.08510	34.52
1.10177	34.52
1.11843	34.52
1.13510	34.52
1.15177	34.52
1.16843	34.53
1.18510	34.52
1.20177	34.52
1.21843	34.52
1.23510	34.52
1.25177	34.52
1.26843	34.52
1.28510	34.52
1.30177	34.52
1.31843	34.52
1.33510	34.51
1.35177	34.52
1.36843	34.52
1.38510	34.52
1.40177	34.52
1.41843	34.52
1.43510	34.52
1.45177	34.52
1.46843	34.52
1.48510	34.52
1.50177	34.52
1.51843	34.52
1.53510	34.52
1.55177	34.51
1.56843	34.52
1.58510	34.52
1.60177	34.52
1.61843	34.51
1.63510	34.52
1.65177	34.52
1.66843	34.52
1.68510	34.51
1.70177	34.51
1.71843	34.51
1.73510	34.51
1.75177	34.51
1.76843	34.52
1.78510	34.50
1.80177	34.52
1.81843	34.52
1.83510	34.53
1.85177	34.52
1.86843	34.53
1.88510	34.52
1.90177	34.51
1.91843	34.53
1.93510	34.52
1.95177	34.53
1.96843	34.52
1.98510	34.53
2.00177	34.52
2.01843	34.52
2.03510	34.53
2.05177	34.54
2.06843	34.50
2.08510	34.52
2.10177	34.51
2.11843	34.53
2.13510	34.52
2.15177	34.54
2.16843	34.52
2.18510	34.52
2.20177	34.52
2.21843	34.52
2.23510	34.52
2.25177	34.52
2.26843	34.51
2.28510	34.52
2.30177	34.52
2.31843	34.52
2.33510	34.52
2.35177	34.53
2.36843	34.52
2.38510	34.54
2.40177	34.52
2.41843	34.52
2.43510	34.52
2.45177	34.52
2.46843	34.52
2.48510	34.52
2.50177	34.54
2.51843	34.52
2.53510	34.52
2.55177	34.52
2.56843	34.52
2.58510	34.52
2.60177	34.52
2.61843	34.52
2.63510	34.52
2.65177	34.52
2.66843	34.52
2.68510	34.52
2.70177	34.52
2.71843	34.52
2.73510	34.52
2.75177	34.52
2.76843	34.52
2.78510	34.52
2.80177	34.52
2.81843	34.52
2.83510	34.52
2.85177	34.52
2.86843	34.52
2.88510	34.52
2.90177	34.52
2.91843	34.52
2.93510	34.52
2.95177	34.52
2.96843	34.52
2.98510	34.52
3.00177	34.52
3.01843	34.52
3.03510	34.52
3.05177	34.52
3.06843	34.52
3.08510	34.52
3.10177	34.52
3.11843	34.52
3.13510	34.52
3.15177	34.52
3.16843	34.52
3.18510	34.52
3.20177	34.52
3.21843	34.52
3.23510	34.52
3.25177	34.52
3.26843	34.52
3.28510	34.52
3.30177	34.52
3.31843	34.52
3.33510	34.52
3.35177	34.52
3.36843	34.52
3.38510	34.52
3.40177	34.52
3.41843	34.52
3.43510	34.52
3.45177	34.52
3.46843	34.52
3.48510	34.52
3.50177	34.52
3.51843	34.52
3.53510	34.52
3.55177	34.52
3.56843	34.52
3.58510	34.52
3.60177	34.51
3.61843	34.52
3.63510	34.52
3.65177	34.52
3.66843	34.52
3.68510	34.52
3.70177	34.53
3.71843	34.52
3.73510	34.52
3.75177	34.52
3.76843	34.54
3.78510	34.52
3.80177	34.52
3.81843	34.52
3.83510	34.52
3.85177	34.52
3.86843	34.51
3.88510	34.52
3.90177	34.53
3.91843	34.51
3.93510	34.52
3.95177	34.52
3.96843	34.52
3.98510	34.52

[Status Trace (Column Flow)]
Interval(msec)	1000
# of Points	240
Start Time(min)	0.002
End Time(min)	3.985
Intensity Units	
Intensity Multiplier	1
R.Time (min)	Intensity
0.00177	5.49
0.01843	5.31
0.03510	5.28
0.05177	5.55
0.06843	5.71
0.08510	5.53
0.10177	5.49
0.11843	5.49
0.13510	5.49
0.15177	5.49
0.16843	5.49
0.18510	5.49
0.20177	5.49
0.21843	5.49
0.23510	5.49
0.25177	5.49
0.26843	5.49
0.28510	5.49
0.30177	5.49
0.31843	5.49
0.33510	5.49
0.35177	5.49
0.36843	5.49
0.38510	5.49
0.40177	5.49
0.41843	5.49
0.43510	5.49
0.45177	5.49
0.46843	5.49
0.48510	5.49
0.50177	5.49
0.51843	5.49
0.53510	5.49
0.55177	5.49
0.56843	5.49
0.58510	5.49
0.60177	5.49
0.61843	5.49
0.63510	5.49
0.65177	5.49
0.66843	5.49
0.68510	5.49
0.70177	5.49
0.71843	5.49
0.73510	5.49
0.75177	5.49
0.76843	5.49
0.78510	5.49
0.80177	5.49
0.81843	5.49
0.83510	5.49
0.85177	5.49
0.86843	5.49
0.88510	5.49
0.90177	5.49
0.91843	5.49
0.93510	5.49
0.95177	5.49
0.96843	5.49
0.98510	5.49
1.00177	5.49
1.01843	5.49
1.03510	5.49
1.05177	5.49
1.06843	5.49
1.08510	5.49
1.10177	5.49
1.11843	5.49
1.13510	5.49
1.15177	5.49
1.16843	5.49
1.18510	5.49
1.20177	5.49
1.21843	5.49
1.23510	5.49
1.25177	5.49
1.26843	5.49
1.28510	5.49
1.30177	5.49
1.31843	5.49
1.33510	5.49
1.35177	5.49
1.36843	5.49
1.38510	5.49
1.40177	5.49
1.41843	5.49
1.43510	5.49
1.45177	5.49
1.46843	5.49
1.48510	5.49
1.50177	5.49
1.51843	5.49
1.53510	5.49
1.55177	5.49
1.56843	5.49
1.58510	5.49
1.60177	5.49
1.61843	5.48
1.63510	5.48
1.65177	5.47
1.66843	5.46
1.68510	5.45
1.70177	5.44
1.71843	5.43
1.73510	5.42
1.75177	5.41
1.76843	5.40
1.78510	5.39
1.80177	5.38
1.81843	5.37
1.83510	5.36
1.85177	5.35
1.86843	5.34
1.88510	5.33
1.90177	5.32
1.91843	5.31
1.93510	5.30
1.95177	5.29
1.96843	5.28
1.98510	5.27
2.00177	5.26
2.01843	5.25
2.03510	5.24
2.05177	5.23
2.06843	5.22
2.08510	5.21
2.10177	5.20
2.11843	5.20
2.13510	5.19
2.15177	5.18
2.16843	5.17
2.18510	5.16
2.20177	5.15
2.21843	5.14
2.23510	5.13
2.25177	5.12
2.26843	5.11
2.28510	5.10
2.30177	5.09
2.31843	5.08
2.33510	5.08
2.35177	5.07
2.36843	5.06
2.38510	5.06
2.40177	5.06
2.41843	5.06
2.43510	5.06
2.45177	5.06
2.46843	5.06
2.48510	5.06
2.50177	5.05
2.51843	5.05
2.53510	5.05
2.55177	5.05
2.56843	5.05
2.58510	5.05
2.60177	5.05
2.61843	5.05
2.63510	5.05
2.65177	5.05
2.66843	5.05
2.68510	5.05
2.70177	5.05
2.71843	5.05
2.73510	5.05
2.75177	5.05
2.76843	5.05
2.78510	5.05
2.80177	5.05
2.81843	5.05
2.83510	5.05
2.85177	5.05
2.86843	5.05
2.88510	5.05
2.90177	5.05
2.91843	5.05
2.93510	5.05
2.95177	5.05
2.96843	5.05
2.98510	5.05
3.00177	5.05
3.01843	5.05
3.03510	5.05
3.05177	5.05
3.06843	5.05
3.08510	5.05
3.10177	5.05
3.11843	5.05
3.13510	5.05
3.15177	5.05
3.16843	5.05
3.18510	5.05
3.20177	5.05
3.21843	5.05
3.23510	5.05
3.25177	5.05
3.26843	5.05
3.28510	5.05
3.30177	5.05
3.31843	5.05
3.33510	5.05
3.35177	5.05
3.36843	5.05
3.38510	5.05
3.40177	5.05
3.41843	5.05
3.43510	5.05
3.45177	5.05
3.46843	5.05
3.48510	5.05
3.50177	5.05
3.51843	5.05
3.53510	5.05
3.55177	5.05
3.56843	5.05
3.58510	5.05
3.60177	5.05
3.61843	5.05
3.63510	5.05
3.65177	5.05
3.66843	5.05
3.68510	5.05
3.70177	5.05
3.71843	5.05
3.73510	5.05
3.75177	5.05
3.76843	5.05
3.78510	5.05
3.80177	5.05
3.81843	5.05
3.83510	5.05
3.85177	5.05
3.86843	5.05
3.88510	5.05
3.90177	5.05
3.91843	5.05
3.93510	5.05
3.95177	5.05
3.96843	5.05
3.98510	5.05

[Status Trace (Linear Velocity)]
Interval(msec)	1000
# of Points	240
Start Time(min)	0.002
End Time(min)	3.985
Intensity Units	
Intensity Multiplier	1
R.Time (min)	Intensity
0.00177	39.01
0.01843	38.01
0.03510	37.82
0.05177	39.33
0.06843	40.26
0.08510	39.25
0.10177	38.99
0.11843	39.01
0.13510	39.02
0.15177	39.02
0.16843	39.02
0.18510	39.02
0.20177	39.01
0.21843	39.01
0.23510	39.01
0.25177	39.01
0.26843	39.01
0.28510	39.01
0.30177	39.01
0.31843	39.01
0.33510	39.01
0.35177	39.01
0.36843	39.01
0.38510	39.01
0.40177	39.01
0.41843	39.01
0.43510	39.01
0.45177	39.01
0.46843	39.01
0.48510	39.01
0.50177	39.01
0.51843	39.01
0.53510	39.01
0.55177	39.01
0.56843	39.01
0.58510	39.01
0.60177	39.01
0.61843	39.01
0.63510	39.01
0.65177	39.01
0.66843	39.01
0.68510	39.01
0.70177	39.01
0.71843	39.01
0.73510	39.01
0.75177	39.01
0.76843	39.01
0.78510	39.01
0.80177	39.01
0.81843	39.01
0.83510	39.01
0.85177	39.01
0.86843	39.01
0.88510	39.01
0.90177	39.01
0.91843	39.01
0.93510	39.01
0.95177	39.01
0.96843	39.01
0.98510	39.01
1.00177	39.01
1.01843	39.01
1.03510	39.01
1.05177	39.01
1.06843	39.01
1.08510	39.01
1.10177	39.01
1.11843	39.01
1.13510	39.01
1.15177	39.01
1.16843	39.01
1.18510	39.01
1.20177	39.01
1.21843	39.01
1.23510	39.01
1.25177	39.01
1.26843	39.01
1.28510	39.01
1.30177	39.01
1.31843	39.01
1.33510	39.01
1.35177	39.01
1.36843	39.01
1.38510	39.01
1.40177	39.01
1.41843	39.01
1.43510	39.01
1.45177	39.01
1.46843	39.01
1.48510	39.01
1.50177	39.01
1.51843	39.01
1.53510	39.01
1.55177	39.01
1.56843	39.01
1.58510	39.01
1.60177	39.01
1.61843	39.00
1.63510	38.98
1.65177	38.96
1.66843	38.93
1.68510	38.90
1.70177	38.86
1.71843	38.83
1.73510	38.80
1.75177	38.77
1.76843	38.73
1.78510	38.70
1.80177	38.67
1.81843	38.64
1.83510	38.61
1.85177	38.58
1.86843	38.55
1.88510	38.52
1.90177	38.49
1.91843	38.46
1.93510	38.43
1.95177	38.40
1.96843	38.36
1.98510	38.33
2.00177	38.30
2.01843	38.27
2.03510	38.24
2.05177	38.21
2.06843	38.19
2.08510	38.15
2.10177	38.12
2.11843	38.09
2.13510	38.06
2.15177	38.04
2.16843	38.01
2.18510	37.98
2.20177	37.95
2.21843	37.92
2.23510	37.89
2.25177	37.86
2.26843	37.83
2.28510	37.80
2.30177	37.77
2.31843	37.74
2.33510	37.71
2.35177	37.69
2.36843	37.66
2.38510	37.65
2.40177	37.64
2.41843	37.65
2.43510	37.65
2.45177	37.65
2.46843	37.65
2.48510	37.65
2.50177	37.64
2.51843	37.64
2.53510	37.64
2.55177	37.65
2.56843	37.64
2.58510	37.64
2.60177	37.64
2.61843	37.64
2.63510	37.64
2.65177	37.64
2.66843	37.64
2.68510	37.64
2.70177	37.64
2.71843	37.64
2.73510	37.64
2.75177	37.64
2.76843	37.64
2.78510	37.64
2.80177	37.64
2.81843	37.64
2.83510	37.64
2.85177	37.63
2.86843	37.63
2.88510	37.63
2.90177	37.63
2.91843	37.63
2.93510	37.63
2.95177	37.63
2.96843	37.63
2.98510	37.63
3.00177	37.63
3.01843	37.62
3.03510	37.62
3.05177	37.62
3.06843	37.62
3.08510	37.62
3.10177	37.62
3.11843	37.62
3.13510	37.62
3.15177	37.62
3.16843	37.62
3.18510	37.62
3.20177	37.62
3.21843	37.62
3.23510	37.62
3.25177	37.62
3.26843	37.62
3.28510	37.62
3.30177	37.62
3.31843	37.62
3.33510	37.62
3.35177	37.62
3.36843	37.62
3.38510	37.62
3.40177	37.62
3.41843	37.62
3.43510	37.62
3.45177	37.62
3.46843	37.62
3.48510	37.62
3.50177	37.62
3.51843	37.62
3.53510	37.62
3.55177	37.62
3.56843	37.62
3.58510	37.62
3.60177	37.62
3.61843	37.62
3.63510	37.62
3.65177	37.62
3.66843	37.62
3.68510	37.62
3.70177	37.62
3.71843	37.62
3.73510	37.62
3.75177	37.62
3.76843	37.62
3.78510	37.62
3.80177	37.62
3.81843	37.62
3.83510	37.62
3.85177	37.62
3.86843	37.62
3.88510	37.62
3.90177	37.62
3.91843	37.62
3.93510	37.62
3.95177	37.62
3.96843	37.62
3.98510	37.62

