[Header]
Application Name	LabSolutions
Version	5.110
Data File Name	C:\Users\User\Desktop\GC Analyses\Jack\UIC Prairie Sampling\7.22.22\220722_042.gcd
Output Date	10/5/2022
Output Time	2:13:40 PM

[File Information]
Type	Data File
Generated	9/28/2022 12:22:07 PM
Generated by	System Administrator
Modified	9/28/2022 12:26:39 PM
Modified by	System Administrator

[Sample Information]
Operator Name	System Administrator
Acquired	9/28/2022 12:22:38 PM
Sample Type	1:Standard
Level	1
Sample Name	220722_UICPrairie
Sample ID	220722_UICPrairie
ISTD Amount1	1
ISTD Amount2	1
ISTD Amount3	1
ISTD Amount4	1
ISTD Amount5	1
ISTD Amount6	1
ISTD Amount7	1
ISTD Amount8	1
ISTD Amount9	1
ISTD Amount10	1
ISTD Amount11	1
ISTD Amount12	1
ISTD Amount13	1
ISTD Amount14	1
ISTD Amount15	1
ISTD Amount16	1
ISTD Amount17	1
ISTD Amount18	1
ISTD Amount19	1
ISTD Amount20	1
ISTD Amount21	1
ISTD Amount22	1
ISTD Amount23	1
ISTD Amount24	1
ISTD Amount25	1
ISTD Amount26	1
ISTD Amount27	1
ISTD Amount28	1
ISTD Amount29	1
ISTD Amount30	1
ISTD Amount31	1
ISTD Amount32	1
Sample Amount	1
Dilution Factor	1
Vial#	1
Injection Volume	1
Injection Count	1
Bar Code	

[Original Files]
Data File	C:\Users\User\Desktop\GC Analyses\Jack\UIC Prairie Sampling\7.22.22\220722_042.gcd
Method File	C:\LabSolutions\Data\GHG_4min_2022\ghg3_togas_w_acet_4 min_new_int.gcm
Batch File	
Report Format File	c:\LabSolutions\System\DEFAULT.lsr

[File Description]


[Configuration]
Instrument Name	C0B7VH3-Instrument1
Instrument #	1
Line #	1
# of Detectors	3
Detector ID	DET#1	DET#2	DET#3
Detector Name	FID	PTCD	ECD
# of Channels	1	1	1

[Peak Table(Ch1)]
# of Peaks	3
Peak#	R.Time	I.Time	F.Time	Area	Height	A/H	Conc.	Mark	ID#	Name	k'	Plate #	Plate Ht.	Tailing	Resolution	Sep.Factor	Area Ratio	Height Ratio	Conc. %	Norm Conc.
1	1.483	1.446	1.545	7577	4139	1.830	100.000	   	1	CO	0.000	11397	13.162	1.268	0.000	0.000	0	0	16.667	16.667
2	1.575	1.553	1.608	1824	1250	1.460	100.000	   	2	CH4	0.062	19234	7.799	1.295	1.815	0.000	0	0	16.667	16.667
3	2.004	1.960	2.253	1391411	802679	1.733	400.000	   	3	CO2	0.351	24989	6.003	1.412	8.927	5.680	0	0	66.667	66.667

[Peak Table(Ch2)]
# of Peaks	0

[Peak Table(Ch3)]
# of Peaks	4
Peak#	R.Time	I.Time	F.Time	Area	Height	A/H	Conc.	Mark	ID#	Name	k'	Plate #	Plate Ht.	Tailing	Resolution	Sep.Factor	Area Ratio	Height Ratio	Conc. %	Norm Conc.
1	1.787	1.677	1.916	159	19	8.373	0.000	   			0.000	92	1622.630	1.084	0.000	0.000	0	0	0.000	0.000
2	2.154	2.048	2.378	272	25	10.686	0.000	   			0.205	1029	145.724	1.596	0.725	0.000	0	0	0.000	0.000
3	2.554	2.458	2.664	7383	803	9.199	0.000	   			0.429	1987	75.500	0.000	1.606	2.090	0	0	0.000	0.000
4	2.887	2.664	3.489	23420	2937	7.973	1.000	 V 	1	N2O	0.615	10911	13.748	0.000	1.964	1.435	0	0	100.000	100.000

[Compound Results(Ch1)]
# of IDs	6
ID#	Name	R.Time	Area	Height	Conc.	Curve	3rd	2nd	1st	Constant	Area Ratio	Height Ratio	Conc. %	Norm Conc.
1	CO	1.483	7577	4139	100.000	Linear	0.000000e+00	0.000000e+00	7.576809e+001	0.000000e+00	0	0	16.667	16.667
2	CH4	1.575	1824	1250	100.000	Linear	0.000000e+00	0.000000e+00	1.824076e+001	0.000000e+00	0	0	16.667	16.667
3	CO2	2.004	1391411	802679	400.000	Linear	0.000000e+00	0.000000e+00	3.478527e+003	0.000000e+00	0	0	66.667	66.667
4	Ethylene	0.000	0	0	0.000	Linear	0.000000e+00	0.000000e+00	0.000000e+00	0.000000e+00	0	0	0.000	0.000
5	Acetylene	0.000	0	0	0.000	Linear	0.000000e+00	0.000000e+00	0.000000e+00	0.000000e+00	0	0	0.000	0.000
6	Ethane	0.000	0	0	0.000	Linear	0.000000e+00	0.000000e+00	0.000000e+00	0.000000e+00	0	0	0.000	0.000

[Compound Results(Ch2)]
# of IDs	5
ID#	Name	R.Time	Area	Height	Conc.	Curve	3rd	2nd	1st	Constant	Area Ratio	Height Ratio	Conc. %	Norm Conc.
1	Hydrogen	0.000	0	0	0.000	Linear	0.000000e+00	0.000000e+00	0.000000e+00	0.000000e+00	0	0	0.000	0.000
2	Oxygen	0.000	0	0	0.000	Linear	0.000000e+00	0.000000e+00	0.000000e+00	0.000000e+00	0	0	0.000	0.000
3	Nitrogen	0.000	0	0	0.000	Linear	0.000000e+00	0.000000e+00	0.000000e+00	0.000000e+00	0	0	0.000	0.000
4	Methane	0.000	0	0	0.000	Linear	0.000000e+00	0.000000e+00	0.000000e+00	0.000000e+00	0	0	0.000	0.000
5	Carbon Monoxide	0.000	0	0	0.000	Linear	0.000000e+00	0.000000e+00	0.000000e+00	0.000000e+00	0	0	0.000	0.000

[Compound Results(Ch3)]
# of IDs	2
ID#	Name	R.Time	Area	Height	Conc.	Curve	3rd	2nd	1st	Constant	Area Ratio	Height Ratio	Conc. %	Norm Conc.
1	N2O	2.887	23420	2937	1.000	Linear	0.000000e+00	0.000000e+00	2.342021e+004	0.000000e+00	0	0	100.000	100.000
2	SF6	0.000	0	0	0.000	Linear	0.000000e+00	0.000000e+00	0.000000e+00	0.000000e+00	0	0	0.000	0.000

[Group Results(Ch1)]
# of Groups	0

[Group Results(Ch2)]
# of Groups	0

[Group Results(Ch3)]
# of Groups	0

[Chromatogram (Ch1)]
Interval(msec)	220
# of Points	1091
Start Time(min)	0.002
End Time(min)	3.998
R.Time (min)	Intensity
0.00167	8
0.00533	13
0.00900	16
0.01267	19
0.01633	21
0.02000	26
0.02367	29
0.02733	25
0.03100	15
0.03467	12
0.03833	16
0.04200	22
0.04567	27
0.04933	30
0.05300	34
0.05667	37
0.06033	36
0.06400	31
0.06767	23
0.07133	12
0.07500	-0
0.07867	-8
0.08233	-13
0.08600	-15
0.08967	-9
0.09333	-1
0.09700	6
0.10067	5
0.10433	4
0.10800	5
0.11167	8
0.11533	12
0.11900	14
0.12267	12
0.12633	16
0.13000	17
0.13367	13
0.13733	5
0.14100	-2
0.14467	-9
0.14833	-13
0.15200	-9
0.15567	-4
0.15933	-2
0.16300	-3
0.16667	-3
0.17033	-3
0.17400	-7
0.17767	-11
0.18133	-14
0.18500	-18
0.18867	-18
0.19233	-13
0.19600	-8
0.19967	-4
0.20333	1
0.20700	7
0.21067	11
0.21433	10
0.21800	10
0.22167	12
0.22533	17
0.22900	25
0.23267	29
0.23633	23
0.24000	16
0.24367	4
0.24733	-6
0.25100	-12
0.25467	-12
0.25833	-6
0.26200	-2
0.26567	-1
0.26933	-3
0.27300	-9
0.27667	-19
0.28033	-26
0.28400	-28
0.28767	-28
0.29133	-25
0.29500	-20
0.29867	-18
0.30233	-18
0.30600	-21
0.30967	-23
0.31333	-22
0.31700	-21
0.32067	-18
0.32433	-17
0.32800	-18
0.33167	-17
0.33533	-11
0.33900	-9
0.34267	-10
0.34633	-13
0.35000	-15
0.35367	-17
0.35733	-21
0.36100	-25
0.36467	-27
0.36833	-24
0.37200	-19
0.37567	-13
0.37933	-4
0.38300	4
0.38667	9
0.39033	9
0.39400	8
0.39767	6
0.40133	0
0.40500	-9
0.40867	-20
0.41233	-25
0.41600	-23
0.41967	-20
0.42333	-16
0.42700	-15
0.43067	-16
0.43433	-19
0.43800	-24
0.44167	-27
0.44533	-25
0.44900	-23
0.45267	-24
0.45633	-30
0.46000	-35
0.46367	-39
0.46733	-36
0.47100	-29
0.47467	-20
0.47833	-13
0.48200	-9
0.48567	-9
0.48933	-13
0.49300	-18
0.49667	-24
0.50033	-27
0.50400	-25
0.50767	-19
0.51133	-16
0.51500	-18
0.51867	-26
0.52233	-36
0.52600	-41
0.52967	-38
0.53333	-33
0.53700	-29
0.54067	-21
0.54433	-11
0.54800	-6
0.55167	-3
0.55533	-4
0.55900	-11
0.56267	-20
0.56633	-28
0.57000	-33
0.57367	-33
0.57733	-32
0.58100	-31
0.58467	-31
0.58833	-32
0.59200	-32
0.59567	-32
0.59933	-36
0.60300	-38
0.60667	-33
0.61033	-25
0.61400	-19
0.61767	-21
0.62133	-30
0.62500	-39
0.62867	-40
0.63233	-41
0.63600	-40
0.63967	-37
0.64333	-31
0.64700	-27
0.65067	-27
0.65433	-24
0.65800	-17
0.66167	-10
0.66533	-6
0.66900	-10
0.67267	-21
0.67633	-35
0.68000	-43
0.68367	-50
0.68733	-53
0.69100	-52
0.69467	-49
0.69833	-42
0.70200	-35
0.70567	-32
0.70933	-33
0.71300	-40
0.71667	-43
0.72033	-38
0.72400	-32
0.72767	-30
0.73133	-36
0.73500	-43
0.73867	-48
0.74233	-52
0.74600	-54
0.74967	-53
0.75333	-53
0.75700	-51
0.76067	-45
0.76433	-36
0.76800	-28
0.77167	-23
0.77533	-22
0.77900	-26
0.78267	-32
0.78633	-35
0.79000	-45
0.79367	-56
0.79733	-62
0.80100	-62
0.80467	-60
0.80833	-57
0.81200	-54
0.81567	-52
0.81933	-45
0.82300	-39
0.82667	-33
0.83033	-26
0.83400	-21
0.83767	-16
0.84133	-16
0.84500	-21
0.84867	-30
0.85233	-43
0.85600	-53
0.85967	-58
0.86333	-62
0.86700	-68
0.87067	-74
0.87433	-77
0.87800	-74
0.88167	-70
0.88533	-70
0.88900	-72
0.89267	-72
0.89633	-65
0.90000	-54
0.90367	-48
0.90733	-47
0.91100	-49
0.91467	-51
0.91833	-52
0.92200	-54
0.92567	-58
0.92933	-57
0.93300	-50
0.93667	-43
0.94033	-39
0.94400	-40
0.94767	-45
0.95133	-52
0.95500	-53
0.95867	-55
0.96233	-61
0.96600	-66
0.96967	-70
0.97333	-73
0.97700	-71
0.98067	-71
0.98433	-77
0.98800	-85
0.99167	-89
0.99533	-90
0.99900	-88
1.00267	-83
1.00633	-75
1.01000	-70
1.01367	-66
1.01733	-65
1.02100	-65
1.02467	-67
1.02833	-67
1.03200	-63
1.03567	-58
1.03933	-51
1.04300	-42
1.04667	-39
1.05033	-45
1.05400	-58
1.05767	-73
1.06133	-84
1.06500	-90
1.06867	-93
1.07233	-93
1.07600	-92
1.07967	-90
1.08333	-85
1.08700	-79
1.09067	-72
1.09433	-65
1.09800	-62
1.10167	-66
1.10533	-71
1.10900	-74
1.11267	-75
1.11633	-72
1.12000	-71
1.12367	-71
1.12733	-72
1.13100	-74
1.13467	-76
1.13833	-76
1.14200	-72
1.14567	-67
1.14933	-66
1.15300	-68
1.15667	-75
1.16033	-82
1.16400	-83
1.16767	-79
1.17133	-74
1.17500	-69
1.17867	-63
1.18233	-58
1.18600	-61
1.18967	-69
1.19333	-79
1.19700	-86
1.20067	-89
1.20433	-94
1.20800	-98
1.21167	-96
1.21533	-90
1.21900	-84
1.22267	-79
1.22633	-73
1.23000	-71
1.23367	-73
1.23733	-77
1.24100	-79
1.24467	-81
1.24833	-82
1.25200	-83
1.25567	-86
1.25933	-89
1.26300	-91
1.26667	-94
1.27033	-94
1.27400	-92
1.27767	-84
1.28133	-75
1.28500	-71
1.28867	-72
1.29233	-76
1.29600	-83
1.29967	-91
1.30333	-95
1.30700	-95
1.31067	-94
1.31433	-95
1.31800	-96
1.32167	-97
1.32533	-100
1.32900	-102
1.33267	-105
1.33633	-106
1.34000	-101
1.34367	-94
1.34733	-93
1.35100	-95
1.35467	-99
1.35833	-99
1.36200	-96
1.36567	-93
1.36933	-93
1.37300	-93
1.37667	-91
1.38033	-88
1.38400	-87
1.38767	-89
1.39133	-93
1.39500	-95
1.39867	-95
1.40233	-92
1.40600	-89
1.40967	-88
1.41333	-92
1.41700	-95
1.42067	-96
1.42433	-97
1.42800	-101
1.43167	-106
1.43533	-112
1.43900	-113
1.44267	-108
1.44633	-100
1.45000	-89
1.45367	-59
1.45733	64
1.46100	364
1.46467	825
1.46833	1435
1.47200	2206
1.47567	3044
1.47933	3726
1.48300	4035
1.48667	3902
1.49033	3417
1.49400	2763
1.49767	2101
1.50133	1527
1.50500	1069
1.50867	719
1.51233	464
1.51600	281
1.51967	149
1.52333	55
1.52700	-7
1.53067	-45
1.53433	-67
1.53800	-84
1.54167	-99
1.54533	-111
1.54900	-121
1.55267	-113
1.55633	-59
1.56000	89
1.56367	356
1.56733	698
1.57100	1002
1.57467	1164
1.57833	1145
1.58200	980
1.58567	746
1.58933	512
1.59300	318
1.59667	170
1.60033	66
1.60400	-0
1.60767	-45
1.61133	-75
1.61500	-98
1.61867	-118
1.62233	-131
1.62600	-136
1.62967	-134
1.63333	-129
1.63700	-126
1.64067	-129
1.64433	-133
1.64800	-131
1.65167	-124
1.65533	-119
1.65900	-119
1.66267	-124
1.66633	-131
1.67000	-137
1.67367	-141
1.67733	-143
1.68100	-143
1.68467	-140
1.68833	-134
1.69200	-131
1.69567	-130
1.69933	-129
1.70300	-130
1.70667	-131
1.71033	-130
1.71400	-125
1.71767	-124
1.72133	-128
1.72500	-131
1.72867	-135
1.73233	-136
1.73600	-136
1.73967	-135
1.74333	-135
1.74700	-135
1.75067	-134
1.75433	-133
1.75800	-134
1.76167	-136
1.76533	-135
1.76900	-128
1.77267	-116
1.77633	-101
1.78000	-91
1.78367	-89
1.78733	-92
1.79100	-101
1.79467	-112
1.79833	-120
1.80200	-127
1.80567	-133
1.80933	-135
1.81300	-137
1.81667	-135
1.82033	-134
1.82400	-135
1.82767	-131
1.83133	-130
1.83500	-132
1.83867	-129
1.84233	-125
1.84600	-124
1.84967	-121
1.85333	-118
1.85700	-120
1.86067	-121
1.86433	-116
1.86800	-116
1.87167	-115
1.87533	-114
1.87900	-112
1.88267	-112
1.88633	-120
1.89000	-127
1.89367	-131
1.89733	-138
1.90100	-141
1.90467	-138
1.90833	-131
1.91200	-126
1.91567	-118
1.91933	-117
1.92300	-121
1.92667	-125
1.93033	-125
1.93400	-122
1.93767	-115
1.94133	-111
1.94500	-112
1.94867	-111
1.95233	-113
1.95600	-109
1.95967	-100
1.96333	-85
1.96700	-42
1.97067	187
1.97433	1413
1.97800	6814
1.98167	25511
1.98533	75840
1.98900	179988
1.99267	344246
1.99633	539377
2.00000	708933
2.00367	802612
2.00733	801442
2.01100	720265
2.01467	593257
2.01833	455517
2.02200	331283
2.02567	231532
2.02933	157461
2.03300	105318
2.03667	69911
2.04033	46431
2.04400	31084
2.04767	21119
2.05133	14648
2.05500	10423
2.05867	7628
2.06233	5745
2.06600	4454
2.06967	3550
2.07333	2896
2.07700	2411
2.08067	2045
2.08433	1764
2.08800	1545
2.09167	1370
2.09533	1228
2.09900	1107
2.10267	1005
2.10633	915
2.11000	836
2.11367	772
2.11733	717
2.12100	668
2.12467	624
2.12833	583
2.13200	546
2.13567	518
2.13933	490
2.14300	464
2.14667	432
2.15033	406
2.15400	378
2.15767	350
2.16133	331
2.16500	311
2.16867	300
2.17233	290
2.17600	279
2.17967	274
2.18333	267
2.18700	253
2.19067	239
2.19433	227
2.19800	221
2.20167	216
2.20533	205
2.20900	194
2.21267	191
2.21633	185
2.22000	183
2.22367	181
2.22733	173
2.23100	167
2.23467	161
2.23833	157
2.24200	149
2.24567	138
2.24933	127
2.25300	119
2.25667	121
2.26033	125
2.26400	129
2.26767	133
2.27133	130
2.27500	126
2.27867	122
2.28233	112
2.28600	102
2.28967	96
2.29333	96
2.29700	92
2.30067	83
2.30433	72
2.30800	65
2.31167	62
2.31533	69
2.31900	73
2.32267	74
2.32633	76
2.33000	76
2.33367	69
2.33733	67
2.34100	67
2.34467	65
2.34833	62
2.35200	62
2.35567	64
2.35933	63
2.36300	65
2.36667	64
2.37033	57
2.37400	54
2.37767	54
2.38133	58
2.38500	58
2.38867	54
2.39233	50
2.39600	48
2.39967	42
2.40333	37
2.40700	35
2.41067	32
2.41433	31
2.41800	35
2.42167	42
2.42533	45
2.42900	48
2.43267	53
2.43633	62
2.44000	71
2.44367	68
2.44733	54
2.45100	36
2.45467	19
2.45833	9
2.46200	6
2.46567	9
2.46933	14
2.47300	13
2.47667	6
2.48033	-0
2.48400	-6
2.48767	-12
2.49133	-12
2.49500	-15
2.49867	-23
2.50233	-28
2.50600	-28
2.50967	-25
2.51333	-21
2.51700	-16
2.52067	-12
2.52433	-8
2.52800	-4
2.53167	3
2.53533	12
2.53900	23
2.54267	30
2.54633	33
2.55000	29
2.55367	20
2.55733	12
2.56100	2
2.56467	-5
2.56833	-8
2.57200	-16
2.57567	-23
2.57933	-26
2.58300	-28
2.58667	-31
2.59033	-30
2.59400	-33
2.59767	-37
2.60133	-40
2.60500	-36
2.60867	-30
2.61233	-23
2.61600	-16
2.61967	-11
2.62333	-10
2.62700	-15
2.63067	-26
2.63433	-35
2.63800	-38
2.64167	-37
2.64533	-36
2.64900	-35
2.65267	-34
2.65633	-27
2.66000	-21
2.66367	-20
2.66733	-21
2.67100	-27
2.67467	-31
2.67833	-27
2.68200	-26
2.68567	-28
2.68933	-27
2.69300	-26
2.69667	-27
2.70033	-24
2.70400	-23
2.70767	-22
2.71133	-22
2.71500	-21
2.71867	-22
2.72233	-28
2.72600	-32
2.72967	-39
2.73333	-45
2.73700	-49
2.74067	-51
2.74433	-49
2.74800	-47
2.75167	-48
2.75533	-53
2.75900	-57
2.76267	-61
2.76633	-61
2.77000	-52
2.77367	-48
2.77733	-46
2.78100	-47
2.78467	-51
2.78833	-56
2.79200	-59
2.79567	-61
2.79933	-57
2.80300	-50
2.80667	-45
2.81033	-43
2.81400	-46
2.81767	-52
2.82133	-55
2.82500	-56
2.82867	-53
2.83233	-49
2.83600	-48
2.83967	-48
2.84333	-51
2.84700	-58
2.85067	-67
2.85433	-73
2.85800	-76
2.86167	-75
2.86533	-75
2.86900	-74
2.87267	-73
2.87633	-70
2.88000	-63
2.88367	-58
2.88733	-56
2.89100	-56
2.89467	-54
2.89833	-57
2.90200	-58
2.90567	-60
2.90933	-65
2.91300	-67
2.91667	-64
2.92033	-62
2.92400	-62
2.92767	-63
2.93133	-60
2.93500	-63
2.93867	-70
2.94233	-78
2.94600	-80
2.94967	-76
2.95333	-70
2.95700	-62
2.96067	-61
2.96433	-62
2.96800	-55
2.97167	-52
2.97533	-53
2.97900	-60
2.98267	-66
2.98633	-70
2.99000	-70
2.99367	-58
2.99733	-40
3.00100	-31
3.00467	-27
3.00833	-27
3.01200	-35
3.01567	-45
3.01933	-55
3.02300	-61
3.02667	-70
3.03033	-79
3.03400	-82
3.03767	-88
3.04133	-91
3.04500	-92
3.04867	-94
3.05233	-90
3.05600	-94
3.05967	-96
3.06333	-96
3.06700	-94
3.07067	-86
3.07433	-74
3.07800	-63
3.08167	-53
3.08533	-45
3.08900	-39
3.09267	-41
3.09633	-46
3.10000	-51
3.10367	-53
3.10733	-52
3.11100	-54
3.11467	-64
3.11833	-76
3.12200	-84
3.12567	-86
3.12933	-86
3.13300	-84
3.13667	-80
3.14033	-81
3.14400	-84
3.14767	-83
3.15133	-80
3.15500	-78
3.15867	-78
3.16233	-80
3.16600	-79
3.16967	-76
3.17333	-76
3.17700	-74
3.18067	-65
3.18433	-60
3.18800	-60
3.19167	-60
3.19533	-58
3.19900	-55
3.20267	-58
3.20633	-63
3.21000	-69
3.21367	-72
3.21733	-72
3.22100	-70
3.22467	-69
3.22833	-69
3.23200	-75
3.23567	-79
3.23933	-81
3.24300	-83
3.24667	-77
3.25033	-68
3.25400	-57
3.25767	-52
3.26133	-53
3.26500	-53
3.26867	-53
3.27233	-54
3.27600	-56
3.27967	-62
3.28333	-67
3.28700	-69
3.29067	-71
3.29433	-69
3.29800	-64
3.30167	-58
3.30533	-53
3.30900	-51
3.31267	-51
3.31633	-54
3.32000	-56
3.32367	-61
3.32733	-66
3.33100	-67
3.33467	-65
3.33833	-64
3.34200	-65
3.34567	-63
3.34933	-57
3.35300	-56
3.35667	-62
3.36033	-65
3.36400	-68
3.36767	-70
3.37133	-70
3.37500	-64
3.37867	-60
3.38233	-64
3.38600	-70
3.38967	-73
3.39333	-75
3.39700	-74
3.40067	-72
3.40433	-72
3.40800	-71
3.41167	-70
3.41533	-64
3.41900	-58
3.42267	-54
3.42633	-47
3.43000	-44
3.43367	-45
3.43733	-47
3.44100	-56
3.44467	-64
3.44833	-68
3.45200	-69
3.45567	-67
3.45933	-60
3.46300	-55
3.46667	-52
3.47033	-53
3.47400	-56
3.47767	-59
3.48133	-62
3.48500	-66
3.48867	-66
3.49233	-66
3.49600	-65
3.49967	-62
3.50333	-58
3.50700	-55
3.51067	-55
3.51433	-54
3.51800	-51
3.52167	-51
3.52533	-51
3.52900	-54
3.53267	-59
3.53633	-64
3.54000	-65
3.54367	-63
3.54733	-59
3.55100	-57
3.55467	-54
3.55833	-49
3.56200	-45
3.56567	-44
3.56933	-50
3.57300	-59
3.57667	-69
3.58033	-76
3.58400	-86
3.58767	-87
3.59133	-85
3.59500	-82
3.59867	-78
3.60233	-78
3.60600	-79
3.60967	-75
3.61333	-69
3.61700	-72
3.62067	-77
3.62433	-79
3.62800	-76
3.63167	-74
3.63533	-72
3.63900	-70
3.64267	-70
3.64633	-70
3.65000	-71
3.65367	-73
3.65733	-74
3.66100	-72
3.66467	-74
3.66833	-76
3.67200	-73
3.67567	-70
3.67933	-67
3.68300	-66
3.68667	-71
3.69033	-80
3.69400	-85
3.69767	-87
3.70133	-87
3.70500	-90
3.70867	-90
3.71233	-87
3.71600	-84
3.71967	-82
3.72333	-82
3.72700	-85
3.73067	-88
3.73433	-94
3.73800	-98
3.74167	-97
3.74533	-95
3.74900	-92
3.75267	-90
3.75633	-86
3.76000	-82
3.76367	-80
3.76733	-83
3.77100	-90
3.77467	-98
3.77833	-100
3.78200	-99
3.78567	-101
3.78933	-103
3.79300	-95
3.79667	-92
3.80033	-99
3.80400	-104
3.80767	-108
3.81133	-108
3.81500	-105
3.81867	-101
3.82233	-101
3.82600	-105
3.82967	-111
3.83333	-116
3.83700	-122
3.84067	-125
3.84433	-125
3.84800	-119
3.85167	-112
3.85533	-110
3.85900	-111
3.86267	-109
3.86633	-103
3.87000	-104
3.87367	-109
3.87733	-111
3.88100	-109
3.88467	-108
3.88833	-104
3.89200	-99
3.89567	-97
3.89933	-93
3.90300	-90
3.90667	-90
3.91033	-93
3.91400	-98
3.91767	-101
3.92133	-98
3.92500	-95
3.92867	-99
3.93233	-104
3.93600	-107
3.93967	-112
3.94333	-116
3.94700	-117
3.95067	-112
3.95433	-104
3.95800	-99
3.96167	-98
3.96533	-99
3.96900	-100
3.97267	-99
3.97633	-98
3.98000	-94
3.98367	-87
3.98733	-83
3.99100	-78
3.99467	-70
3.99833	-65

[Chromatogram (Ch2)]
Interval(msec)	220
# of Points	1091
Start Time(min)	0.002
End Time(min)	3.998
R.Time (min)	Intensity
0.00167	1
0.00533	1
0.00900	1
0.01267	2
0.01633	2
0.02000	1
0.02367	1
0.02733	1
0.03100	0
0.03467	0
0.03833	0
0.04200	0
0.04567	0
0.04933	0
0.05300	0
0.05667	1
0.06033	1
0.06400	1
0.06767	1
0.07133	2
0.07500	2
0.07867	2
0.08233	3
0.08600	3
0.08967	3
0.09333	4
0.09700	4
0.10067	4
0.10433	5
0.10800	5
0.11167	5
0.11533	5
0.11900	5
0.12267	5
0.12633	5
0.13000	5
0.13367	5
0.13733	5
0.14100	5
0.14467	5
0.14833	5
0.15200	5
0.15567	5
0.15933	5
0.16300	5
0.16667	5
0.17033	5
0.17400	5
0.17767	5
0.18133	4
0.18500	4
0.18867	4
0.19233	4
0.19600	3
0.19967	3
0.20333	3
0.20700	2
0.21067	2
0.21433	2
0.21800	1
0.22167	1
0.22533	1
0.22900	0
0.23267	-0
0.23633	-0
0.24000	-0
0.24367	-0
0.24733	-1
0.25100	-1
0.25467	-1
0.25833	-2
0.26200	-2
0.26567	-2
0.26933	-2
0.27300	-2
0.27667	-2
0.28033	-1
0.28400	-1
0.28767	-1
0.29133	-1
0.29500	-1
0.29867	-1
0.30233	-0
0.30600	-0
0.30967	-0
0.31333	0
0.31700	0
0.32067	1
0.32433	1
0.32800	1
0.33167	1
0.33533	1
0.33900	2
0.34267	2
0.34633	2
0.35000	2
0.35367	2
0.35733	2
0.36100	3
0.36467	3
0.36833	3
0.37200	3
0.37567	3
0.37933	3
0.38300	3
0.38667	3
0.39033	3
0.39400	3
0.39767	3
0.40133	3
0.40500	3
0.40867	3
0.41233	3
0.41600	3
0.41967	3
0.42333	3
0.42700	3
0.43067	3
0.43433	3
0.43800	3
0.44167	3
0.44533	3
0.44900	3
0.45267	2
0.45633	2
0.46000	2
0.46367	1
0.46733	1
0.47100	1
0.47467	1
0.47833	0
0.48200	-0
0.48567	-1
0.48933	-1
0.49300	-1
0.49667	-1
0.50033	-1
0.50400	-1
0.50767	-1
0.51133	-1
0.51500	-1
0.51867	-1
0.52233	-1
0.52600	-1
0.52967	-1
0.53333	-1
0.53700	-1
0.54067	-1
0.54433	-1
0.54800	-1
0.55167	-1
0.55533	-1
0.55900	-1
0.56267	-1
0.56633	-1
0.57000	-1
0.57367	-1
0.57733	-1
0.58100	-1
0.58467	-1
0.58833	-1
0.59200	-1
0.59567	-1
0.59933	-1
0.60300	-1
0.60667	-1
0.61033	-1
0.61400	-1
0.61767	-1
0.62133	-1
0.62500	-1
0.62867	-2
0.63233	-1
0.63600	-1
0.63967	-1
0.64333	-1
0.64700	-0
0.65067	-0
0.65433	0
0.65800	0
0.66167	0
0.66533	0
0.66900	0
0.67267	0
0.67633	0
0.68000	-0
0.68367	-0
0.68733	-1
0.69100	-1
0.69467	-1
0.69833	-1
0.70200	-1
0.70567	-1
0.70933	-1
0.71300	-1
0.71667	-0
0.72033	-0
0.72400	0
0.72767	1
0.73133	1
0.73500	0
0.73867	0
0.74233	0
0.74600	0
0.74967	0
0.75333	0
0.75700	0
0.76067	0
0.76433	0
0.76800	0
0.77167	0
0.77533	0
0.77900	0
0.78267	-0
0.78633	-0
0.79000	-0
0.79367	-0
0.79733	-0
0.80100	-0
0.80467	-1
0.80833	-1
0.81200	-1
0.81567	-1
0.81933	-1
0.82300	-1
0.82667	-1
0.83033	-1
0.83400	-1
0.83767	-1
0.84133	-1
0.84500	-1
0.84867	-1
0.85233	-1
0.85600	-1
0.85967	-1
0.86333	-1
0.86700	-2
0.87067	-2
0.87433	-2
0.87800	-3
0.88167	-3
0.88533	-3
0.88900	-3
0.89267	-3
0.89633	-3
0.90000	-4
0.90367	-4
0.90733	-4
0.91100	-4
0.91467	-4
0.91833	-4
0.92200	-4
0.92567	-4
0.92933	-4
0.93300	-4
0.93667	-4
0.94033	-4
0.94400	-5
0.94767	-6
0.95133	-6
0.95500	-6
0.95867	-7
0.96233	-7
0.96600	-7
0.96967	-6
0.97333	-6
0.97700	-6
0.98067	-6
0.98433	-5
0.98800	-4
0.99167	-3
0.99533	-3
0.99900	-2
1.00267	-2
1.00633	-1
1.01000	-0
1.01367	0
1.01733	0
1.02100	1
1.02467	1
1.02833	1
1.03200	2
1.03567	2
1.03933	1
1.04300	1
1.04667	1
1.05033	1
1.05400	1
1.05767	1
1.06133	1
1.06500	1
1.06867	1
1.07233	1
1.07600	1
1.07967	1
1.08333	1
1.08700	0
1.09067	-0
1.09433	-0
1.09800	-1
1.10167	-1
1.10533	-1
1.10900	-1
1.11267	-0
1.11633	-0
1.12000	-0
1.12367	-1
1.12733	-1
1.13100	-1
1.13467	-1
1.13833	-1
1.14200	-1
1.14567	-1
1.14933	-1
1.15300	-1
1.15667	-1
1.16033	-2
1.16400	-2
1.16767	-2
1.17133	-2
1.17500	-2
1.17867	-3
1.18233	-3
1.18600	-3
1.18967	-3
1.19333	-3
1.19700	-4
1.20067	-4
1.20433	-4
1.20800	-4
1.21167	-4
1.21533	-4
1.21900	-4
1.22267	-3
1.22633	-3
1.23000	-2
1.23367	-2
1.23733	-1
1.24100	-1
1.24467	-1
1.24833	-1
1.25200	-0
1.25567	-1
1.25933	-1
1.26300	-1
1.26667	-1
1.27033	-2
1.27400	-2
1.27767	-3
1.28133	-4
1.28500	-4
1.28867	-4
1.29233	-5
1.29600	-5
1.29967	-5
1.30333	-5
1.30700	-6
1.31067	-6
1.31433	-6
1.31800	-6
1.32167	-5
1.32533	-5
1.32900	-5
1.33267	-4
1.33633	-4
1.34000	-4
1.34367	-4
1.34733	-3
1.35100	-3
1.35467	-3
1.35833	-3
1.36200	-2
1.36567	-2
1.36933	-2
1.37300	-2
1.37667	-2
1.38033	-2
1.38400	-2
1.38767	-2
1.39133	-1
1.39500	-1
1.39867	-1
1.40233	-1
1.40600	-1
1.40967	-1
1.41333	-1
1.41700	-1
1.42067	-1
1.42433	-1
1.42800	-1
1.43167	-0
1.43533	0
1.43900	1
1.44267	1
1.44633	1
1.45000	2
1.45367	2
1.45733	2
1.46100	2
1.46467	2
1.46833	1
1.47200	1
1.47567	1
1.47933	1
1.48300	0
1.48667	0
1.49033	-0
1.49400	-1
1.49767	-1
1.50133	-1
1.50500	-1
1.50867	-1
1.51233	-2
1.51600	-2
1.51967	-2
1.52333	-2
1.52700	-2
1.53067	-2
1.53433	-2
1.53800	-1
1.54167	-1
1.54533	-1
1.54900	-2
1.55267	-2
1.55633	-2
1.56000	-2
1.56367	-2
1.56733	-2
1.57100	-2
1.57467	-2
1.57833	-2
1.58200	-2
1.58567	-3
1.58933	-3
1.59300	-3
1.59667	-4
1.60033	-4
1.60400	-6
1.60767	-7
1.61133	-8
1.61500	-10
1.61867	-12
1.62233	-15
1.62600	-18
1.62967	-21
1.63333	-24
1.63700	-28
1.64067	-31
1.64433	-35
1.64800	-39
1.65167	-43
1.65533	-47
1.65900	-51
1.66267	-55
1.66633	-59
1.67000	-64
1.67367	-68
1.67733	-73
1.68100	-78
1.68467	-83
1.68833	-88
1.69200	-92
1.69567	-95
1.69933	-99
1.70300	-102
1.70667	-104
1.71033	-106
1.71400	-108
1.71767	-110
1.72133	-111
1.72500	-112
1.72867	-113
1.73233	-114
1.73600	-115
1.73967	-116
1.74333	-117
1.74700	-118
1.75067	-119
1.75433	-119
1.75800	-120
1.76167	-120
1.76533	-120
1.76900	-120
1.77267	-120
1.77633	-120
1.78000	-120
1.78367	-120
1.78733	-120
1.79100	-121
1.79467	-121
1.79833	-121
1.80200	-121
1.80567	-122
1.80933	-122
1.81300	-123
1.81667	-123
1.82033	-123
1.82400	-124
1.82767	-124
1.83133	-124
1.83500	-124
1.83867	-125
1.84233	-125
1.84600	-125
1.84967	-125
1.85333	-125
1.85700	-125
1.86067	-124
1.86433	-124
1.86800	-123
1.87167	-123
1.87533	-123
1.87900	-123
1.88267	-124
1.88633	-124
1.89000	-124
1.89367	-123
1.89733	-123
1.90100	-122
1.90467	-121
1.90833	-121
1.91200	-121
1.91567	-121
1.91933	-120
1.92300	-120
1.92667	-120
1.93033	-120
1.93400	-120
1.93767	-120
1.94133	-120
1.94500	-120
1.94867	-120
1.95233	-120
1.95600	-119
1.95967	-119
1.96333	-119
1.96700	-118
1.97067	-118
1.97433	-118
1.97800	-118
1.98167	-118
1.98533	-118
1.98900	-118
1.99267	-118
1.99633	-118
2.00000	-118
2.00367	-117
2.00733	-117
2.01100	-116
2.01467	-116
2.01833	-115
2.02200	-115
2.02567	-114
2.02933	-113
2.03300	-113
2.03667	-112
2.04033	-111
2.04400	-110
2.04767	-110
2.05133	-109
2.05500	-109
2.05867	-109
2.06233	-109
2.06600	-110
2.06967	-110
2.07333	-110
2.07700	-110
2.08067	-110
2.08433	-110
2.08800	-110
2.09167	-109
2.09533	-109
2.09900	-108
2.10267	-107
2.10633	-107
2.11000	-107
2.11367	-107
2.11733	-107
2.12100	-107
2.12467	-107
2.12833	-107
2.13200	-107
2.13567	-107
2.13933	-106
2.14300	-105
2.14667	-104
2.15033	-103
2.15400	-103
2.15767	-102
2.16133	-102
2.16500	-102
2.16867	-101
2.17233	-101
2.17600	-101
2.17967	-101
2.18333	-101
2.18700	-100
2.19067	-100
2.19433	-100
2.19800	-100
2.20167	-99
2.20533	-99
2.20900	-98
2.21267	-98
2.21633	-98
2.22000	-97
2.22367	-97
2.22733	-97
2.23100	-97
2.23467	-98
2.23833	-98
2.24200	-98
2.24567	-98
2.24933	-98
2.25300	-98
2.25667	-97
2.26033	-97
2.26400	-96
2.26767	-95
2.27133	-94
2.27500	-94
2.27867	-93
2.28233	-93
2.28600	-93
2.28967	-93
2.29333	-93
2.29700	-93
2.30067	-93
2.30433	-92
2.30800	-92
2.31167	-92
2.31533	-91
2.31900	-91
2.32267	-90
2.32633	-89
2.33000	-89
2.33367	-89
2.33733	-89
2.34100	-90
2.34467	-90
2.34833	-89
2.35200	-89
2.35567	-88
2.35933	-86
2.36300	-84
2.36667	-82
2.37033	-79
2.37400	-76
2.37767	-72
2.38133	-69
2.38500	-64
2.38867	-60
2.39233	-56
2.39600	-51
2.39967	-46
2.40333	-42
2.40700	-37
2.41067	-33
2.41433	-29
2.41800	-26
2.42167	-23
2.42533	-20
2.42900	-17
2.43267	-15
2.43633	-13
2.44000	-11
2.44367	-10
2.44733	-8
2.45100	-6
2.45467	-4
2.45833	-3
2.46200	-1
2.46567	-0
2.46933	0
2.47300	1
2.47667	1
2.48033	1
2.48400	2
2.48767	2
2.49133	3
2.49500	5
2.49867	6
2.50233	7
2.50600	8
2.50967	9
2.51333	10
2.51700	10
2.52067	11
2.52433	11
2.52800	11
2.53167	11
2.53533	12
2.53900	12
2.54267	13
2.54633	13
2.55000	13
2.55367	13
2.55733	13
2.56100	14
2.56467	14
2.56833	15
2.57200	15
2.57567	15
2.57933	15
2.58300	15
2.58667	16
2.59033	16
2.59400	16
2.59767	16
2.60133	16
2.60500	16
2.60867	16
2.61233	16
2.61600	17
2.61967	17
2.62333	17
2.62700	17
2.63067	18
2.63433	18
2.63800	18
2.64167	18
2.64533	19
2.64900	19
2.65267	19
2.65633	19
2.66000	19
2.66367	19
2.66733	19
2.67100	19
2.67467	19
2.67833	19
2.68200	18
2.68567	18
2.68933	18
2.69300	18
2.69667	18
2.70033	19
2.70400	19
2.70767	19
2.71133	20
2.71500	20
2.71867	20
2.72233	20
2.72600	20
2.72967	20
2.73333	20
2.73700	20
2.74067	20
2.74433	21
2.74800	21
2.75167	22
2.75533	23
2.75900	23
2.76267	24
2.76633	24
2.77000	25
2.77367	26
2.77733	26
2.78100	27
2.78467	27
2.78833	27
2.79200	27
2.79567	27
2.79933	26
2.80300	26
2.80667	25
2.81033	25
2.81400	24
2.81767	24
2.82133	23
2.82500	23
2.82867	23
2.83233	23
2.83600	23
2.83967	23
2.84333	23
2.84700	23
2.85067	23
2.85433	23
2.85800	23
2.86167	23
2.86533	23
2.86900	21
2.87267	18
2.87633	12
2.88000	4
2.88367	-7
2.88733	-21
2.89100	-39
2.89467	-61
2.89833	-87
2.90200	-115
2.90567	-147
2.90933	-181
2.91300	-218
2.91667	-256
2.92033	-296
2.92400	-339
2.92767	-385
2.93133	-434
2.93500	-481
2.93867	-520
2.94233	-546
2.94600	-556
2.94967	-550
2.95333	-531
2.95700	-502
2.96067	-465
2.96433	-425
2.96800	-384
2.97167	-343
2.97533	-303
2.97900	-265
2.98267	-231
2.98633	-199
2.99000	-171
2.99367	-146
2.99733	-124
3.00100	-104
3.00467	-87
3.00833	-73
3.01200	-60
3.01567	-48
3.01933	-39
3.02300	-30
3.02667	-23
3.03033	-17
3.03400	-12
3.03767	-8
3.04133	-4
3.04500	-0
3.04867	2
3.05233	5
3.05600	7
3.05967	8
3.06333	10
3.06700	11
3.07067	12
3.07433	13
3.07800	13
3.08167	14
3.08533	14
3.08900	15
3.09267	15
3.09633	16
3.10000	16
3.10367	17
3.10733	17
3.11100	17
3.11467	18
3.11833	18
3.12200	18
3.12567	19
3.12933	19
3.13300	19
3.13667	19
3.14033	19
3.14400	19
3.14767	20
3.15133	20
3.15500	20
3.15867	20
3.16233	20
3.16600	20
3.16967	20
3.17333	20
3.17700	20
3.18067	20
3.18433	21
3.18800	21
3.19167	21
3.19533	21
3.19900	21
3.20267	21
3.20633	22
3.21000	22
3.21367	22
3.21733	22
3.22100	23
3.22467	23
3.22833	23
3.23200	23
3.23567	23
3.23933	23
3.24300	23
3.24667	22
3.25033	22
3.25400	22
3.25767	22
3.26133	22
3.26500	23
3.26867	23
3.27233	23
3.27600	23
3.27967	23
3.28333	23
3.28700	23
3.29067	23
3.29433	23
3.29800	23
3.30167	23
3.30533	23
3.30900	23
3.31267	23
3.31633	23
3.32000	23
3.32367	23
3.32733	23
3.33100	23
3.33467	23
3.33833	23
3.34200	23
3.34567	23
3.34933	23
3.35300	23
3.35667	24
3.36033	24
3.36400	24
3.36767	25
3.37133	25
3.37500	25
3.37867	26
3.38233	26
3.38600	26
3.38967	26
3.39333	27
3.39700	27
3.40067	27
3.40433	27
3.40800	27
3.41167	27
3.41533	27
3.41900	27
3.42267	27
3.42633	27
3.43000	27
3.43367	27
3.43733	27
3.44100	27
3.44467	27
3.44833	27
3.45200	27
3.45567	27
3.45933	28
3.46300	28
3.46667	28
3.47033	28
3.47400	28
3.47767	28
3.48133	28
3.48500	28
3.48867	28
3.49233	27
3.49600	27
3.49967	27
3.50333	27
3.50700	27
3.51067	27
3.51433	27
3.51800	26
3.52167	26
3.52533	26
3.52900	26
3.53267	26
3.53633	26
3.54000	26
3.54367	26
3.54733	26
3.55100	26
3.55467	26
3.55833	26
3.56200	26
3.56567	26
3.56933	26
3.57300	26
3.57667	26
3.58033	26
3.58400	25
3.58767	25
3.59133	25
3.59500	25
3.59867	25
3.60233	25
3.60600	25
3.60967	25
3.61333	25
3.61700	25
3.62067	25
3.62433	25
3.62800	24
3.63167	24
3.63533	24
3.63900	24
3.64267	24
3.64633	23
3.65000	23
3.65367	23
3.65733	23
3.66100	23
3.66467	24
3.66833	24
3.67200	24
3.67567	24
3.67933	24
3.68300	24
3.68667	24
3.69033	24
3.69400	24
3.69767	24
3.70133	24
3.70500	23
3.70867	23
3.71233	23
3.71600	23
3.71967	23
3.72333	23
3.72700	23
3.73067	23
3.73433	24
3.73800	24
3.74167	24
3.74533	24
3.74900	24
3.75267	25
3.75633	25
3.76000	24
3.76367	24
3.76733	24
3.77100	24
3.77467	23
3.77833	23
3.78200	23
3.78567	23
3.78933	23
3.79300	23
3.79667	23
3.80033	23
3.80400	23
3.80767	23
3.81133	23
3.81500	23
3.81867	23
3.82233	23
3.82600	24
3.82967	24
3.83333	24
3.83700	24
3.84067	24
3.84433	24
3.84800	25
3.85167	25
3.85533	25
3.85900	25
3.86267	25
3.86633	25
3.87000	25
3.87367	24
3.87733	25
3.88100	25
3.88467	24
3.88833	24
3.89200	24
3.89567	24
3.89933	24
3.90300	24
3.90667	24
3.91033	25
3.91400	25
3.91767	25
3.92133	25
3.92500	25
3.92867	25
3.93233	25
3.93600	25
3.93967	25
3.94333	25
3.94700	25
3.95067	25
3.95433	25
3.95800	24
3.96167	24
3.96533	24
3.96900	24
3.97267	24
3.97633	24
3.98000	24
3.98367	24
3.98733	23
3.99100	23
3.99467	23
3.99833	23

[Chromatogram (Ch3)]
Interval(msec)	220
# of Points	1091
Start Time(min)	0.002
End Time(min)	3.998
R.Time (min)	Intensity
0.00167	1
0.00533	3
0.00900	5
0.01267	7
0.01633	7
0.02000	6
0.02367	6
0.02733	6
0.03100	7
0.03467	7
0.03833	7
0.04200	5
0.04567	4
0.04933	5
0.05300	6
0.05667	7
0.06033	8
0.06400	8
0.06767	10
0.07133	10
0.07500	9
0.07867	9
0.08233	10
0.08600	12
0.08967	13
0.09333	13
0.09700	9
0.10067	7
0.10433	7
0.10800	9
0.11167	12
0.11533	13
0.11900	10
0.12267	8
0.12633	9
0.13000	10
0.13367	9
0.13733	7
0.14100	6
0.14467	6
0.14833	7
0.15200	6
0.15567	5
0.15933	5
0.16300	6
0.16667	7
0.17033	7
0.17400	7
0.17767	6
0.18133	7
0.18500	8
0.18867	8
0.19233	8
0.19600	8
0.19967	10
0.20333	12
0.20700	14
0.21067	12
0.21433	9
0.21800	9
0.22167	7
0.22533	7
0.22900	9
0.23267	11
0.23633	12
0.24000	12
0.24367	12
0.24733	12
0.25100	12
0.25467	12
0.25833	11
0.26200	10
0.26567	10
0.26933	11
0.27300	11
0.27667	12
0.28033	12
0.28400	14
0.28767	15
0.29133	13
0.29500	13
0.29867	13
0.30233	13
0.30600	13
0.30967	15
0.31333	17
0.31700	19
0.32067	20
0.32433	19
0.32800	19
0.33167	19
0.33533	18
0.33900	19
0.34267	19
0.34633	18
0.35000	18
0.35367	19
0.35733	19
0.36100	21
0.36467	22
0.36833	23
0.37200	23
0.37567	23
0.37933	23
0.38300	22
0.38667	21
0.39033	21
0.39400	20
0.39767	20
0.40133	21
0.40500	20
0.40867	18
0.41233	18
0.41600	21
0.41967	23
0.42333	23
0.42700	22
0.43067	21
0.43433	20
0.43800	20
0.44167	21
0.44533	22
0.44900	24
0.45267	25
0.45633	25
0.46000	26
0.46367	26
0.46733	25
0.47100	26
0.47467	27
0.47833	26
0.48200	26
0.48567	24
0.48933	21
0.49300	24
0.49667	25
0.50033	27
0.50400	26
0.50767	27
0.51133	28
0.51500	29
0.51867	27
0.52233	25
0.52600	23
0.52967	23
0.53333	23
0.53700	24
0.54067	26
0.54433	29
0.54800	30
0.55167	31
0.55533	31
0.55900	31
0.56267	32
0.56633	34
0.57000	35
0.57367	34
0.57733	31
0.58100	29
0.58467	30
0.58833	32
0.59200	32
0.59567	30
0.59933	28
0.60300	27
0.60667	26
0.61033	26
0.61400	28
0.61767	31
0.62133	34
0.62500	34
0.62867	35
0.63233	34
0.63600	33
0.63967	34
0.64333	36
0.64700	35
0.65067	34
0.65433	31
0.65800	30
0.66167	30
0.66533	32
0.66900	32
0.67267	34
0.67633	36
0.68000	35
0.68367	32
0.68733	32
0.69100	32
0.69467	34
0.69833	37
0.70200	39
0.70567	39
0.70933	37
0.71300	36
0.71667	36
0.72033	37
0.72400	37
0.72767	38
0.73133	39
0.73500	38
0.73867	37
0.74233	38
0.74600	40
0.74967	42
0.75333	40
0.75700	40
0.76067	41
0.76433	41
0.76800	40
0.77167	40
0.77533	39
0.77900	39
0.78267	41
0.78633	43
0.79000	43
0.79367	39
0.79733	40
0.80100	42
0.80467	43
0.80833	41
0.81200	41
0.81567	42
0.81933	45
0.82300	48
0.82667	50
0.83033	49
0.83400	48
0.83767	48
0.84133	49
0.84500	50
0.84867	50
0.85233	48
0.85600	46
0.85967	46
0.86333	45
0.86700	45
0.87067	45
0.87433	45
0.87800	48
0.88167	52
0.88533	55
0.88900	56
0.89267	55
0.89633	52
0.90000	51
0.90367	48
0.90733	47
0.91100	47
0.91467	49
0.91833	52
0.92200	54
0.92567	54
0.92933	52
0.93300	50
0.93667	50
0.94033	51
0.94400	51
0.94767	50
0.95133	48
0.95500	48
0.95867	50
0.96233	52
0.96600	53
0.96967	55
0.97333	56
0.97700	57
0.98067	59
0.98433	57
0.98800	54
0.99167	51
0.99533	50
0.99900	51
1.00267	53
1.00633	57
1.01000	59
1.01367	60
1.01733	59
1.02100	56
1.02467	53
1.02833	51
1.03200	50
1.03567	49
1.03933	50
1.04300	52
1.04667	54
1.05033	56
1.05400	56
1.05767	57
1.06133	56
1.06500	58
1.06867	57
1.07233	55
1.07600	54
1.07967	55
1.08333	55
1.08700	57
1.09067	60
1.09433	61
1.09800	60
1.10167	59
1.10533	59
1.10900	59
1.11267	59
1.11633	58
1.12000	61
1.12367	60
1.12733	61
1.13100	63
1.13467	64
1.13833	65
1.14200	64
1.14567	65
1.14933	63
1.15300	61
1.15667	61
1.16033	61
1.16400	62
1.16767	66
1.17133	68
1.17500	68
1.17867	69
1.18233	68
1.18600	65
1.18967	63
1.19333	62
1.19700	62
1.20067	63
1.20433	65
1.20800	65
1.21167	65
1.21533	65
1.21900	65
1.22267	65
1.22633	66
1.23000	67
1.23367	68
1.23733	68
1.24100	67
1.24467	64
1.24833	61
1.25200	59
1.25567	60
1.25933	60
1.26300	61
1.26667	65
1.27033	67
1.27400	67
1.27767	67
1.28133	66
1.28500	65
1.28867	63
1.29233	64
1.29600	63
1.29967	64
1.30333	67
1.30700	68
1.31067	69
1.31433	71
1.31800	72
1.32167	73
1.32533	71
1.32900	70
1.33267	68
1.33633	68
1.34000	68
1.34367	68
1.34733	70
1.35100	70
1.35467	70
1.35833	69
1.36200	68
1.36567	68
1.36933	70
1.37300	70
1.37667	70
1.38033	70
1.38400	71
1.38767	72
1.39133	71
1.39500	70
1.39867	70
1.40233	70
1.40600	71
1.40967	72
1.41333	72
1.41700	70
1.42067	71
1.42433	74
1.42800	74
1.43167	73
1.43533	73
1.43900	72
1.44267	73
1.44633	74
1.45000	75
1.45367	75
1.45733	76
1.46100	77
1.46467	76
1.46833	74
1.47200	75
1.47567	75
1.47933	76
1.48300	75
1.48667	75
1.49033	75
1.49400	76
1.49767	74
1.50133	74
1.50500	75
1.50867	75
1.51233	75
1.51600	72
1.51967	72
1.52333	73
1.52700	74
1.53067	75
1.53433	76
1.53800	76
1.54167	75
1.54533	73
1.54900	74
1.55267	73
1.55633	72
1.56000	73
1.56367	76
1.56733	77
1.57100	76
1.57467	75
1.57833	76
1.58200	76
1.58567	75
1.58933	75
1.59300	74
1.59667	74
1.60033	73
1.60400	73
1.60767	76
1.61133	80
1.61500	84
1.61867	84
1.62233	82
1.62600	81
1.62967	82
1.63333	85
1.63700	85
1.64067	86
1.64433	88
1.64800	91
1.65167	93
1.65533	92
1.65900	92
1.66267	92
1.66633	92
1.67000	92
1.67367	92
1.67733	92
1.68100	95
1.68467	99
1.68833	101
1.69200	102
1.69567	104
1.69933	106
1.70300	107
1.70667	107
1.71033	109
1.71400	110
1.71767	112
1.72133	112
1.72500	115
1.72867	116
1.73233	116
1.73600	117
1.73967	118
1.74333	117
1.74700	116
1.75067	119
1.75433	120
1.75800	121
1.76167	121
1.76533	122
1.76900	123
1.77267	123
1.77633	124
1.78000	127
1.78367	132
1.78733	132
1.79100	132
1.79467	133
1.79833	132
1.80200	131
1.80567	130
1.80933	129
1.81300	128
1.81667	128
1.82033	130
1.82400	132
1.82767	134
1.83133	133
1.83500	134
1.83867	134
1.84233	135
1.84600	137
1.84967	139
1.85333	141
1.85700	141
1.86067	142
1.86433	143
1.86800	143
1.87167	142
1.87533	139
1.87900	137
1.88267	139
1.88633	142
1.89000	144
1.89367	143
1.89733	144
1.90100	142
1.90467	140
1.90833	140
1.91200	140
1.91567	138
1.91933	138
1.92300	139
1.92667	142
1.93033	143
1.93400	142
1.93767	140
1.94133	141
1.94500	142
1.94867	143
1.95233	144
1.95600	144
1.95967	144
1.96333	146
1.96700	149
1.97067	151
1.97433	153
1.97800	152
1.98167	153
1.98533	153
1.98900	153
1.99267	155
1.99633	157
2.00000	159
2.00367	161
2.00733	163
2.01100	165
2.01467	165
2.01833	164
2.02200	164
2.02567	165
2.02933	165
2.03300	166
2.03667	168
2.04033	170
2.04400	171
2.04767	172
2.05133	174
2.05500	176
2.05867	178
2.06233	179
2.06600	181
2.06967	184
2.07333	184
2.07700	185
2.08067	187
2.08433	189
2.08800	191
2.09167	193
2.09533	195
2.09900	198
2.10267	198
2.10633	198
2.11000	200
2.11367	203
2.11733	207
2.12100	208
2.12467	207
2.12833	208
2.13200	210
2.13567	211
2.13933	212
2.14300	215
2.14667	220
2.15033	227
2.15400	229
2.15767	229
2.16133	228
2.16500	227
2.16867	227
2.17233	227
2.17600	229
2.17967	231
2.18333	233
2.18700	236
2.19067	238
2.19433	238
2.19800	237
2.20167	236
2.20533	238
2.20900	239
2.21267	242
2.21633	245
2.22000	247
2.22367	247
2.22733	246
2.23100	245
2.23467	245
2.23833	247
2.24200	248
2.24567	248
2.24933	248
2.25300	248
2.25667	248
2.26033	250
2.26400	253
2.26767	255
2.27133	256
2.27500	257
2.27867	258
2.28233	259
2.28600	260
2.28967	262
2.29333	263
2.29700	262
2.30067	262
2.30433	261
2.30800	261
2.31167	262
2.31533	264
2.31900	264
2.32267	263
2.32633	261
2.33000	262
2.33367	264
2.33733	264
2.34100	267
2.34467	272
2.34833	276
2.35200	279
2.35567	279
2.35933	279
2.36300	277
2.36667	276
2.37033	273
2.37400	271
2.37767	270
2.38133	271
2.38500	273
2.38867	274
2.39233	274
2.39600	274
2.39967	276
2.40333	277
2.40700	279
2.41067	282
2.41433	284
2.41800	285
2.42167	284
2.42533	284
2.42900	284
2.43267	284
2.43633	287
2.44000	290
2.44367	294
2.44733	293
2.45100	281
2.45467	270
2.45833	275
2.46200	302
2.46567	347
2.46933	402
2.47300	462
2.47667	524
2.48033	588
2.48400	646
2.48767	700
2.49133	751
2.49500	796
2.49867	837
2.50233	873
2.50600	906
2.50967	936
2.51333	961
2.51700	984
2.52067	1002
2.52433	1017
2.52800	1029
2.53167	1038
2.53533	1045
2.53900	1048
2.54267	1052
2.54633	1054
2.55000	1057
2.55367	1058
2.55733	1057
2.56100	1056
2.56467	1052
2.56833	1046
2.57200	1038
2.57567	1028
2.57933	1021
2.58300	1014
2.58667	1008
2.59033	1001
2.59400	995
2.59767	989
2.60133	983
2.60500	974
2.60867	963
2.61233	951
2.61600	933
2.61967	910
2.62333	879
2.62700	841
2.63067	798
2.63433	758
2.63800	722
2.64167	691
2.64533	668
2.64900	651
2.65267	639
2.65633	632
2.66000	627
2.66367	626
2.66733	628
2.67100	634
2.67467	641
2.67833	647
2.68200	653
2.68567	660
2.68933	666
2.69300	673
2.69667	678
2.70033	679
2.70400	680
2.70767	684
2.71133	689
2.71500	694
2.71867	700
2.72233	704
2.72600	706
2.72967	709
2.73333	713
2.73700	715
2.74067	714
2.74433	714
2.74800	714
2.75167	714
2.75533	715
2.75900	715
2.76267	718
2.76633	722
2.77000	725
2.77367	725
2.77733	725
2.78100	727
2.78467	730
2.78833	732
2.79200	732
2.79567	731
2.79933	730
2.80300	730
2.80667	733
2.81033	738
2.81400	743
2.81767	744
2.82133	744
2.82500	746
2.82867	747
2.83233	747
2.83600	748
2.83967	755
2.84333	774
2.84700	816
2.85067	896
2.85433	1031
2.85800	1233
2.86167	1500
2.86533	1823
2.86900	2167
2.87267	2496
2.87633	2775
2.88000	2978
2.88367	3094
2.88733	3124
2.89100	3078
2.89467	2974
2.89833	2830
2.90200	2660
2.90567	2476
2.90933	2288
2.91300	2106
2.91667	1935
2.92033	1781
2.92400	1641
2.92767	1515
2.93133	1401
2.93500	1299
2.93867	1209
2.94233	1134
2.94600	1070
2.94967	1013
2.95333	963
2.95700	915
2.96067	869
2.96433	830
2.96800	798
2.97167	769
2.97533	745
2.97900	723
2.98267	701
2.98633	680
2.99000	662
2.99367	645
2.99733	632
3.00100	621
3.00467	611
3.00833	602
3.01200	595
3.01567	586
3.01933	574
3.02300	563
3.02667	555
3.03033	548
3.03400	541
3.03767	535
3.04133	531
3.04500	527
3.04867	522
3.05233	517
3.05600	513
3.05967	507
3.06333	501
3.06700	496
3.07067	492
3.07433	486
3.07800	481
3.08167	474
3.08533	466
3.08900	459
3.09267	453
3.09633	448
3.10000	446
3.10367	443
3.10733	442
3.11100	441
3.11467	438
3.11833	433
3.12200	427
3.12567	420
3.12933	411
3.13300	405
3.13667	402
3.14033	399
3.14400	395
3.14767	389
3.15133	383
3.15500	379
3.15867	376
3.16233	372
3.16600	367
3.16967	364
3.17333	359
3.17700	354
3.18067	349
3.18433	345
3.18800	337
3.19167	331
3.19533	328
3.19900	325
3.20267	320
3.20633	315
3.21000	309
3.21367	303
3.21733	300
3.22100	297
3.22467	291
3.22833	284
3.23200	279
3.23567	273
3.23933	268
3.24300	266
3.24667	262
3.25033	260
3.25400	256
3.25767	253
3.26133	247
3.26500	242
3.26867	239
3.27233	235
3.27600	231
3.27967	226
3.28333	219
3.28700	213
3.29067	209
3.29433	206
3.29800	201
3.30167	198
3.30533	194
3.30900	188
3.31267	182
3.31633	175
3.32000	171
3.32367	169
3.32733	165
3.33100	161
3.33467	159
3.33833	161
3.34200	158
3.34567	154
3.34933	152
3.35300	151
3.35667	149
3.36033	145
3.36400	140
3.36767	135
3.37133	131
3.37500	129
3.37867	127
3.38233	126
3.38600	124
3.38967	121
3.39333	118
3.39700	114
3.40067	107
3.40433	104
3.40800	101
3.41167	99
3.41533	99
3.41900	99
3.42267	98
3.42633	94
3.43000	89
3.43367	84
3.43733	81
3.44100	79
3.44467	78
3.44833	79
3.45200	79
3.45567	78
3.45933	80
3.46300	79
3.46667	77
3.47033	74
3.47400	71
3.47767	70
3.48133	68
3.48500	66
3.48867	62
3.49233	61
3.49600	59
3.49967	57
3.50333	57
3.50700	58
3.51067	58
3.51433	57
3.51800	55
3.52167	55
3.52533	54
3.52900	53
3.53267	53
3.53633	54
3.54000	54
3.54367	54
3.54733	54
3.55100	53
3.55467	51
3.55833	50
3.56200	48
3.56567	48
3.56933	49
3.57300	49
3.57667	49
3.58033	49
3.58400	49
3.58767	46
3.59133	43
3.59500	41
3.59867	42
3.60233	43
3.60600	42
3.60967	44
3.61333	44
3.61700	43
3.62067	43
3.62433	44
3.62800	46
3.63167	48
3.63533	48
3.63900	46
3.64267	46
3.64633	47
3.65000	49
3.65367	48
3.65733	47
3.66100	49
3.66467	53
3.66833	54
3.67200	52
3.67567	51
3.67933	53
3.68300	54
3.68667	55
3.69033	53
3.69400	51
3.69767	50
3.70133	51
3.70500	52
3.70867	53
3.71233	52
3.71600	52
3.71967	50
3.72333	50
3.72700	50
3.73067	49
3.73433	49
3.73800	48
3.74167	48
3.74533	49
3.74900	49
3.75267	50
3.75633	50
3.76000	52
3.76367	53
3.76733	53
3.77100	55
3.77467	56
3.77833	55
3.78200	55
3.78567	54
3.78933	53
3.79300	53
3.79667	53
3.80033	53
3.80400	53
3.80767	55
3.81133	57
3.81500	59
3.81867	60
3.82233	58
3.82600	56
3.82967	56
3.83333	55
3.83700	54
3.84067	54
3.84433	54
3.84800	54
3.85167	56
3.85533	55
3.85900	55
3.86267	56
3.86633	55
3.87000	54
3.87367	56
3.87733	60
3.88100	64
3.88467	66
3.88833	66
3.89200	66
3.89567	66
3.89933	67
3.90300	66
3.90667	66
3.91033	67
3.91400	67
3.91767	65
3.92133	64
3.92500	65
3.92867	67
3.93233	67
3.93600	67
3.93967	67
3.94333	67
3.94700	64
3.95067	63
3.95433	62
3.95800	63
3.96167	63
3.96533	63
3.96900	64
3.97267	64
3.97633	65
3.98000	66
3.98367	66
3.98733	66
3.99100	66
3.99467	69
3.99833	72

[Status Trace (Column Oven Temperature)]
Interval(msec)	1000
# of Points	240
Start Time(min)	0.012
End Time(min)	3.995
Intensity Units	
Intensity Multiplier	1
R.Time (min)	Intensity
0.01168	35.06
0.02835	35.06
0.04502	35.06
0.06168	35.05
0.07835	35.05
0.09502	35.03
0.11168	35.02
0.12835	35.01
0.14502	35.00
0.16168	34.99
0.17835	34.98
0.19502	34.98
0.21168	34.98
0.22835	34.99
0.24502	35.01
0.26168	35.01
0.27835	35.01
0.29502	35.01
0.31168	35.01
0.32835	34.99
0.34502	34.98
0.36168	34.98
0.37835	34.98
0.39502	34.97
0.41168	34.96
0.42835	34.95
0.44502	34.95
0.46168	34.95
0.47835	34.95
0.49502	34.96
0.51168	34.96
0.52835	34.97
0.54502	34.97
0.56168	34.97
0.57835	34.97
0.59502	34.97
0.61168	34.97
0.62835	34.97
0.64502	34.98
0.66168	34.98
0.67835	34.98
0.69502	34.98
0.71168	34.97
0.72835	34.97
0.74502	34.96
0.76168	34.96
0.77835	34.95
0.79502	34.95
0.81168	34.96
0.82835	34.96
0.84502	34.96
0.86168	34.96
0.87835	34.96
0.89502	34.97
0.91168	34.99
0.92835	35.00
0.94502	35.02
0.96168	35.03
0.97835	35.03
0.99502	35.03
1.01168	35.01
1.02835	34.99
1.04502	34.99
1.06168	34.98
1.07835	34.98
1.09502	34.98
1.11168	34.98
1.12835	34.98
1.14502	34.99
1.16168	34.99
1.17835	35.00
1.19502	35.01
1.21168	35.01
1.22835	35.00
1.24502	34.99
1.26168	35.00
1.27835	35.01
1.29502	35.02
1.31168	35.02
1.32835	35.02
1.34502	35.02
1.36168	35.02
1.37835	35.01
1.39502	35.01
1.41168	35.00
1.42835	34.99
1.44502	34.98
1.46168	34.97
1.47835	34.97
1.49502	34.98
1.51168	34.98
1.52835	34.98
1.54502	34.99
1.56168	34.99
1.57835	35.00
1.59502	35.02
1.61168	35.08
1.62835	35.22
1.64502	35.42
1.66168	35.68
1.67835	36.04
1.69502	36.41
1.71168	36.75
1.72835	37.09
1.74502	37.43
1.76168	37.76
1.77835	38.09
1.79502	38.41
1.81168	38.75
1.82835	39.08
1.84502	39.42
1.86168	39.74
1.87835	40.09
1.89502	40.40
1.91168	40.72
1.92835	41.06
1.94502	41.39
1.96168	41.70
1.97835	42.02
1.99502	42.36
2.01168	42.68
2.02835	43.01
2.04502	43.31
2.06168	43.64
2.07835	43.97
2.09502	44.29
2.11168	44.61
2.12835	44.95
2.14502	45.26
2.16168	45.59
2.17835	45.92
2.19502	46.25
2.21168	46.56
2.22835	46.89
2.24502	47.24
2.26168	47.57
2.27835	47.90
2.29502	48.24
2.31168	48.56
2.32835	48.90
2.34502	49.25
2.36168	49.48
2.37835	49.59
2.39502	49.60
2.41168	49.60
2.42835	49.61
2.44502	49.61
2.46168	49.61
2.47835	49.65
2.49502	49.64
2.51168	49.66
2.52835	49.68
2.54502	49.70
2.56168	49.71
2.57835	49.73
2.59502	49.74
2.61168	49.76
2.62835	49.78
2.64502	49.78
2.66168	49.80
2.67835	49.82
2.69502	49.82
2.71168	49.84
2.72835	49.87
2.74502	49.87
2.76168	49.86
2.77835	49.84
2.79502	49.86
2.81168	49.87
2.82835	49.88
2.84502	49.88
2.86168	49.89
2.87835	49.90
2.89502	49.91
2.91168	49.91
2.92835	49.92
2.94502	49.92
2.96168	49.94
2.97835	49.95
2.99502	49.96
3.01168	49.97
3.02835	49.98
3.04502	49.98
3.06168	49.99
3.07835	50.00
3.09502	50.01
3.11168	50.02
3.12835	50.03
3.14502	50.03
3.16168	50.04
3.17835	50.05
3.19502	50.06
3.21168	50.06
3.22835	50.06
3.24502	50.07
3.26168	50.08
3.27835	50.09
3.29502	50.09
3.31168	50.10
3.32835	50.10
3.34502	50.11
3.36168	50.11
3.37835	50.09
3.39502	50.08
3.41168	50.07
3.42835	50.05
3.44502	50.04
3.46168	50.03
3.47835	50.02
3.49502	50.02
3.51168	50.02
3.52835	50.02
3.54502	50.02
3.56168	50.02
3.57835	50.02
3.59502	50.02
3.61168	50.02
3.62835	50.03
3.64502	50.04
3.66168	50.04
3.67835	50.04
3.69502	50.04
3.71168	50.05
3.72835	50.05
3.74502	50.05
3.76168	50.06
3.77835	50.07
3.79502	50.07
3.81168	50.07
3.82835	50.07
3.84502	50.07
3.86168	50.07
3.87835	50.07
3.89502	50.07
3.91168	50.06
3.92835	50.06
3.94502	50.06
3.96168	50.06
3.97835	50.07
3.99502	50.08

[Status Trace (Injection Unit Temperature)]
Interval(msec)	1000
# of Points	240
Start Time(min)	0.012
End Time(min)	3.995
Intensity Units	
Intensity Multiplier	1
R.Time (min)	Intensity
0.01168	99.98
0.02835	99.98
0.04502	99.98
0.06168	99.98
0.07835	99.98
0.09502	99.98
0.11168	99.98
0.12835	99.98
0.14502	99.98
0.16168	99.98
0.17835	99.97
0.19502	99.98
0.21168	99.98
0.22835	99.98
0.24502	99.98
0.26168	99.98
0.27835	99.98
0.29502	99.98
0.31168	99.98
0.32835	99.98
0.34502	99.98
0.36168	99.98
0.37835	99.99
0.39502	99.97
0.41168	99.99
0.42835	99.98
0.44502	99.98
0.46168	99.99
0.47835	99.98
0.49502	99.98
0.51168	99.98
0.52835	99.98
0.54502	99.98
0.56168	99.99
0.57835	99.99
0.59502	99.98
0.61168	99.98
0.62835	99.98
0.64502	99.98
0.66168	99.98
0.67835	99.98
0.69502	99.98
0.71168	99.98
0.72835	99.99
0.74502	99.98
0.76168	99.99
0.77835	99.99
0.79502	99.98
0.81168	99.98
0.82835	99.99
0.84502	99.98
0.86168	99.99
0.87835	99.99
0.89502	99.98
0.91168	99.98
0.92835	99.98
0.94502	99.99
0.96168	99.98
0.97835	99.99
0.99502	99.98
1.01168	99.99
1.02835	99.98
1.04502	99.99
1.06168	99.99
1.07835	99.99
1.09502	99.98
1.11168	99.99
1.12835	99.98
1.14502	99.99
1.16168	99.98
1.17835	99.99
1.19502	99.98
1.21168	99.99
1.22835	99.99
1.24502	99.98
1.26168	99.99
1.27835	99.99
1.29502	99.99
1.31168	99.99
1.32835	99.99
1.34502	99.98
1.36168	99.99
1.37835	99.98
1.39502	99.99
1.41168	99.98
1.42835	99.98
1.44502	99.99
1.46168	99.99
1.47835	99.99
1.49502	99.99
1.51168	99.98
1.52835	99.98
1.54502	99.99
1.56168	99.98
1.57835	99.98
1.59502	99.98
1.61168	99.99
1.62835	99.99
1.64502	99.99
1.66168	99.99
1.67835	99.99
1.69502	99.98
1.71168	99.99
1.72835	99.99
1.74502	99.99
1.76168	99.98
1.77835	99.99
1.79502	99.98
1.81168	99.99
1.82835	99.98
1.84502	99.98
1.86168	99.98
1.87835	99.98
1.89502	99.98
1.91168	99.98
1.92835	99.98
1.94502	99.98
1.96168	99.98
1.97835	99.97
1.99502	99.97
2.01168	99.98
2.02835	99.97
2.04502	99.98
2.06168	99.98
2.07835	99.98
2.09502	99.98
2.11168	99.97
2.12835	99.98
2.14502	99.97
2.16168	99.97
2.17835	99.97
2.19502	99.97
2.21168	99.97
2.22835	99.97
2.24502	99.97
2.26168	99.97
2.27835	99.97
2.29502	99.97
2.31168	99.97
2.32835	99.98
2.34502	99.97
2.36168	99.97
2.37835	99.97
2.39502	99.97
2.41168	99.97
2.42835	99.97
2.44502	99.97
2.46168	99.97
2.47835	99.97
2.49502	99.98
2.51168	99.97
2.52835	99.97
2.54502	99.98
2.56168	99.98
2.57835	99.97
2.59502	99.97
2.61168	99.98
2.62835	99.98
2.64502	99.98
2.66168	99.98
2.67835	99.98
2.69502	99.98
2.71168	99.98
2.72835	99.99
2.74502	99.99
2.76168	99.99
2.77835	99.99
2.79502	99.99
2.81168	99.99
2.82835	100.00
2.84502	99.99
2.86168	100.00
2.87835	100.00
2.89502	100.00
2.91168	100.00
2.92835	100.00
2.94502	100.00
2.96168	100.00
2.97835	100.00
2.99502	100.01
3.01168	100.01
3.02835	100.01
3.04502	100.01
3.06168	100.01
3.07835	100.01
3.09502	100.02
3.11168	100.01
3.12835	100.02
3.14502	100.02
3.16168	100.02
3.17835	100.02
3.19502	100.02
3.21168	100.02
3.22835	100.03
3.24502	100.03
3.26168	100.03
3.27835	100.02
3.29502	100.03
3.31168	100.03
3.32835	100.02
3.34502	100.03
3.36168	100.03
3.37835	100.03
3.39502	100.03
3.41168	100.03
3.42835	100.04
3.44502	100.04
3.46168	100.03
3.47835	100.03
3.49502	100.04
3.51168	100.03
3.52835	100.04
3.54502	100.04
3.56168	100.04
3.57835	100.04
3.59502	100.04
3.61168	100.04
3.62835	100.04
3.64502	100.04
3.66168	100.04
3.67835	100.04
3.69502	100.04
3.71168	100.04
3.72835	100.04
3.74502	100.04
3.76168	100.04
3.77835	100.05
3.79502	100.05
3.81168	100.05
3.82835	100.04
3.84502	100.04
3.86168	100.04
3.87835	100.04
3.89502	100.05
3.91168	100.04
3.92835	100.04
3.94502	100.05
3.96168	100.04
3.97835	100.04
3.99502	100.04

[Status Trace (Carrier Gas Pressure)]
Interval(msec)	1000
# of Points	240
Start Time(min)	0.012
End Time(min)	3.995
Intensity Units	
Intensity Multiplier	1
R.Time (min)	Intensity
0.01168	58.00
0.02835	54.93
0.04502	57.49
0.06168	59.57
0.07835	59.09
0.09502	58.02
0.11168	57.99
0.12835	58.01
0.14502	58.01
0.16168	58.01
0.17835	58.00
0.19502	58.00
0.21168	58.00
0.22835	58.00
0.24502	58.00
0.26168	58.00
0.27835	58.00
0.29502	58.00
0.31168	58.00
0.32835	58.00
0.34502	58.00
0.36168	58.00
0.37835	58.00
0.39502	58.00
0.41168	58.00
0.42835	58.00
0.44502	58.00
0.46168	58.00
0.47835	58.00
0.49502	58.00
0.51168	58.00
0.52835	58.00
0.54502	58.00
0.56168	58.00
0.57835	58.00
0.59502	58.00
0.61168	58.00
0.62835	58.00
0.64502	58.00
0.66168	58.00
0.67835	58.00
0.69502	58.00
0.71168	58.00
0.72835	58.00
0.74502	58.00
0.76168	58.00
0.77835	58.00
0.79502	58.00
0.81168	58.00
0.82835	58.00
0.84502	58.00
0.86168	58.00
0.87835	58.00
0.89502	58.00
0.91168	58.00
0.92835	58.00
0.94502	58.00
0.96168	58.00
0.97835	58.00
0.99502	58.00
1.01168	58.00
1.02835	58.00
1.04502	58.00
1.06168	58.00
1.07835	58.00
1.09502	58.00
1.11168	58.00
1.12835	58.00
1.14502	58.00
1.16168	58.00
1.17835	58.00
1.19502	58.00
1.21168	58.00
1.22835	58.00
1.24502	58.00
1.26168	58.00
1.27835	58.00
1.29502	58.00
1.31168	58.00
1.32835	58.00
1.34502	58.00
1.36168	58.00
1.37835	58.00
1.39502	58.00
1.41168	58.00
1.42835	58.00
1.44502	58.00
1.46168	58.00
1.47835	58.00
1.49502	58.00
1.51168	58.00
1.52835	58.00
1.54502	58.00
1.56168	58.00
1.57835	58.00
1.59502	58.00
1.61168	58.00
1.62835	58.00
1.64502	58.00
1.66168	58.00
1.67835	58.01
1.69502	58.00
1.71168	58.00
1.72835	58.00
1.74502	58.00
1.76168	58.00
1.77835	58.00
1.79502	58.00
1.81168	58.00
1.82835	58.00
1.84502	58.00
1.86168	58.00
1.87835	58.00
1.89502	58.00
1.91168	58.00
1.92835	58.00
1.94502	58.00
1.96168	58.00
1.97835	58.00
1.99502	58.00
2.01168	58.00
2.02835	58.00
2.04502	58.00
2.06168	58.00
2.07835	58.00
2.09502	58.00
2.11168	58.00
2.12835	58.00
2.14502	58.00
2.16168	58.00
2.17835	58.00
2.19502	58.00
2.21168	58.00
2.22835	58.00
2.24502	58.00
2.26168	58.00
2.27835	58.00
2.29502	58.00
2.31168	58.00
2.32835	58.00
2.34502	58.00
2.36168	58.00
2.37835	57.99
2.39502	57.99
2.41168	57.99
2.42835	58.00
2.44502	58.00
2.46168	58.00
2.47835	58.00
2.49502	58.00
2.51168	57.99
2.52835	57.99
2.54502	58.00
2.56168	58.00
2.57835	58.00
2.59502	58.00
2.61168	58.00
2.62835	58.00
2.64502	58.00
2.66168	58.00
2.67835	58.00
2.69502	58.00
2.71168	58.00
2.72835	58.00
2.74502	58.00
2.76168	58.00
2.77835	58.00
2.79502	58.00
2.81168	58.00
2.82835	58.00
2.84502	58.00
2.86168	58.00
2.87835	58.00
2.89502	58.00
2.91168	58.00
2.92835	58.00
2.94502	58.00
2.96168	58.00
2.97835	58.00
2.99502	58.00
3.01168	58.00
3.02835	58.00
3.04502	58.00
3.06168	58.00
3.07835	58.00
3.09502	58.00
3.11168	58.00
3.12835	58.00
3.14502	58.00
3.16168	58.00
3.17835	58.00
3.19502	58.00
3.21168	58.00
3.22835	58.00
3.24502	58.00
3.26168	58.00
3.27835	58.00
3.29502	58.00
3.31168	58.00
3.32835	58.00
3.34502	58.00
3.36168	58.00
3.37835	58.00
3.39502	58.00
3.41168	58.00
3.42835	58.00
3.44502	58.00
3.46168	58.00
3.47835	58.00
3.49502	58.00
3.51168	58.00
3.52835	58.00
3.54502	58.00
3.56168	58.00
3.57835	58.00
3.59502	58.00
3.61168	58.00
3.62835	58.00
3.64502	58.00
3.66168	58.00
3.67835	58.00
3.69502	58.00
3.71168	58.00
3.72835	58.00
3.74502	58.00
3.76168	58.00
3.77835	58.00
3.79502	58.00
3.81168	58.00
3.82835	58.00
3.84502	58.00
3.86168	58.00
3.87835	58.00
3.89502	58.00
3.91168	58.00
3.92835	58.00
3.94502	58.00
3.96168	58.00
3.97835	58.00
3.99502	58.00

[Status Trace (Carrier Gas Flow)]
Interval(msec)	1000
# of Points	240
Start Time(min)	0.012
End Time(min)	3.995
Intensity Units	
Intensity Multiplier	1
R.Time (min)	Intensity
0.01168	34.52
0.02835	34.54
0.04502	34.55
0.06168	34.55
0.07835	34.50
0.09502	34.52
0.11168	34.52
0.12835	34.52
0.14502	34.52
0.16168	34.52
0.17835	34.52
0.19502	34.52
0.21168	34.52
0.22835	34.52
0.24502	34.52
0.26168	34.52
0.27835	34.52
0.29502	34.52
0.31168	34.52
0.32835	34.52
0.34502	34.52
0.36168	34.51
0.37835	34.52
0.39502	34.52
0.41168	34.52
0.42835	34.52
0.44502	34.51
0.46168	34.52
0.47835	34.53
0.49502	34.52
0.51168	34.52
0.52835	34.52
0.54502	34.52
0.56168	34.52
0.57835	34.52
0.59502	34.51
0.61168	34.52
0.62835	34.52
0.64502	34.52
0.66168	34.52
0.67835	34.51
0.69502	34.52
0.71168	34.52
0.72835	34.53
0.74502	34.52
0.76168	34.52
0.77835	34.52
0.79502	34.53
0.81168	34.52
0.82835	34.53
0.84502	34.51
0.86168	34.52
0.87835	34.52
0.89502	34.52
0.91168	34.52
0.92835	34.52
0.94502	34.52
0.96168	34.51
0.97835	34.52
0.99502	34.52
1.01168	34.53
1.02835	34.52
1.04502	34.52
1.06168	34.53
1.07835	34.52
1.09502	34.52
1.11168	34.52
1.12835	34.52
1.14502	34.52
1.16168	34.52
1.17835	34.52
1.19502	34.52
1.21168	34.52
1.22835	34.52
1.24502	34.52
1.26168	34.52
1.27835	34.52
1.29502	34.52
1.31168	34.52
1.32835	34.51
1.34502	34.52
1.36168	34.52
1.37835	34.52
1.39502	34.52
1.41168	34.52
1.42835	34.52
1.44502	34.52
1.46168	34.52
1.47835	34.52
1.49502	34.52
1.51168	34.52
1.52835	34.52
1.54502	34.53
1.56168	34.52
1.57835	34.52
1.59502	34.52
1.61168	34.52
1.62835	34.52
1.64502	34.52
1.66168	34.52
1.67835	34.52
1.69502	34.53
1.71168	34.52
1.72835	34.51
1.74502	34.51
1.76168	34.53
1.77835	34.52
1.79502	34.51
1.81168	34.52
1.82835	34.51
1.84502	34.50
1.86168	34.52
1.87835	34.52
1.89502	34.52
1.91168	34.51
1.92835	34.52
1.94502	34.51
1.96168	34.52
1.97835	34.52
1.99502	34.51
2.01168	34.52
2.02835	34.51
2.04502	34.51
2.06168	34.52
2.07835	34.53
2.09502	34.53
2.11168	34.52
2.12835	34.51
2.14502	34.52
2.16168	34.52
2.17835	34.52
2.19502	34.53
2.21168	34.53
2.22835	34.52
2.24502	34.52
2.26168	34.54
2.27835	34.53
2.29502	34.54
2.31168	34.51
2.32835	34.52
2.34502	34.52
2.36168	34.51
2.37835	34.51
2.39502	34.52
2.41168	34.52
2.42835	34.52
2.44502	34.51
2.46168	34.52
2.47835	34.52
2.49502	34.52
2.51168	34.52
2.52835	34.52
2.54502	34.52
2.56168	34.52
2.57835	34.52
2.59502	34.52
2.61168	34.52
2.62835	34.52
2.64502	34.52
2.66168	34.52
2.67835	34.52
2.69502	34.52
2.71168	34.52
2.72835	34.52
2.74502	34.52
2.76168	34.52
2.77835	34.52
2.79502	34.52
2.81168	34.52
2.82835	34.52
2.84502	34.52
2.86168	34.52
2.87835	34.52
2.89502	34.52
2.91168	34.52
2.92835	34.52
2.94502	34.52
2.96168	34.52
2.97835	34.52
2.99502	34.52
3.01168	34.52
3.02835	34.52
3.04502	34.52
3.06168	34.52
3.07835	34.52
3.09502	34.52
3.11168	34.52
3.12835	34.52
3.14502	34.52
3.16168	34.52
3.17835	34.52
3.19502	34.52
3.21168	34.52
3.22835	34.52
3.24502	34.53
3.26168	34.54
3.27835	34.51
3.29502	34.52
3.31168	34.52
3.32835	34.50
3.34502	34.53
3.36168	34.52
3.37835	34.52
3.39502	34.51
3.41168	34.52
3.42835	34.52
3.44502	34.52
3.46168	34.52
3.47835	34.52
3.49502	34.52
3.51168	34.52
3.52835	34.52
3.54502	34.52
3.56168	34.52
3.57835	34.52
3.59502	34.52
3.61168	34.52
3.62835	34.52
3.64502	34.52
3.66168	34.52
3.67835	34.52
3.69502	34.52
3.71168	34.52
3.72835	34.52
3.74502	34.52
3.76168	34.52
3.77835	34.52
3.79502	34.52
3.81168	34.52
3.82835	34.52
3.84502	34.52
3.86168	34.52
3.87835	34.52
3.89502	34.52
3.91168	34.52
3.92835	34.52
3.94502	34.52
3.96168	34.52
3.97835	34.52
3.99502	34.53

[Status Trace (Column Flow)]
Interval(msec)	1000
# of Points	240
Start Time(min)	0.012
End Time(min)	3.995
Intensity Units	
Intensity Multiplier	1
R.Time (min)	Intensity
0.01168	5.57
0.02835	5.21
0.04502	5.51
0.06168	5.76
0.07835	5.70
0.09502	5.57
0.11168	5.57
0.12835	5.57
0.14502	5.57
0.16168	5.57
0.17835	5.57
0.19502	5.57
0.21168	5.57
0.22835	5.57
0.24502	5.57
0.26168	5.57
0.27835	5.57
0.29502	5.57
0.31168	5.57
0.32835	5.57
0.34502	5.57
0.36168	5.57
0.37835	5.57
0.39502	5.57
0.41168	5.57
0.42835	5.57
0.44502	5.57
0.46168	5.57
0.47835	5.57
0.49502	5.57
0.51168	5.57
0.52835	5.57
0.54502	5.57
0.56168	5.57
0.57835	5.57
0.59502	5.57
0.61168	5.57
0.62835	5.57
0.64502	5.57
0.66168	5.57
0.67835	5.57
0.69502	5.57
0.71168	5.57
0.72835	5.57
0.74502	5.57
0.76168	5.57
0.77835	5.57
0.79502	5.57
0.81168	5.57
0.82835	5.57
0.84502	5.57
0.86168	5.57
0.87835	5.57
0.89502	5.57
0.91168	5.57
0.92835	5.57
0.94502	5.57
0.96168	5.57
0.97835	5.57
0.99502	5.57
1.01168	5.57
1.02835	5.57
1.04502	5.57
1.06168	5.57
1.07835	5.57
1.09502	5.57
1.11168	5.57
1.12835	5.57
1.14502	5.57
1.16168	5.57
1.17835	5.57
1.19502	5.57
1.21168	5.57
1.22835	5.57
1.24502	5.57
1.26168	5.57
1.27835	5.57
1.29502	5.57
1.31168	5.57
1.32835	5.57
1.34502	5.57
1.36168	5.57
1.37835	5.57
1.39502	5.57
1.41168	5.57
1.42835	5.57
1.44502	5.57
1.46168	5.57
1.47835	5.57
1.49502	5.57
1.51168	5.57
1.52835	5.57
1.54502	5.57
1.56168	5.57
1.57835	5.57
1.59502	5.57
1.61168	5.57
1.62835	5.57
1.64502	5.56
1.66168	5.55
1.67835	5.54
1.69502	5.53
1.71168	5.52
1.72835	5.51
1.74502	5.50
1.76168	5.49
1.77835	5.48
1.79502	5.47
1.81168	5.46
1.82835	5.45
1.84502	5.44
1.86168	5.43
1.87835	5.41
1.89502	5.41
1.91168	5.40
1.92835	5.39
1.94502	5.38
1.96168	5.37
1.97835	5.36
1.99502	5.35
2.01168	5.34
2.02835	5.33
2.04502	5.32
2.06168	5.31
2.07835	5.30
2.09502	5.29
2.11168	5.28
2.12835	5.27
2.14502	5.26
2.16168	5.25
2.17835	5.24
2.19502	5.23
2.21168	5.22
2.22835	5.21
2.24502	5.20
2.26168	5.19
2.27835	5.19
2.29502	5.18
2.31168	5.17
2.32835	5.16
2.34502	5.15
2.36168	5.14
2.37835	5.14
2.39502	5.14
2.41168	5.14
2.42835	5.14
2.44502	5.14
2.46168	5.14
2.47835	5.14
2.49502	5.14
2.51168	5.13
2.52835	5.13
2.54502	5.13
2.56168	5.13
2.57835	5.13
2.59502	5.13
2.61168	5.13
2.62835	5.13
2.64502	5.13
2.66168	5.13
2.67835	5.13
2.69502	5.13
2.71168	5.13
2.72835	5.13
2.74502	5.13
2.76168	5.13
2.77835	5.13
2.79502	5.13
2.81168	5.13
2.82835	5.13
2.84502	5.13
2.86168	5.13
2.87835	5.13
2.89502	5.13
2.91168	5.13
2.92835	5.13
2.94502	5.13
2.96168	5.13
2.97835	5.13
2.99502	5.13
3.01168	5.13
3.02835	5.13
3.04502	5.13
3.06168	5.13
3.07835	5.13
3.09502	5.13
3.11168	5.13
3.12835	5.12
3.14502	5.12
3.16168	5.12
3.17835	5.12
3.19502	5.12
3.21168	5.12
3.22835	5.12
3.24502	5.12
3.26168	5.12
3.27835	5.12
3.29502	5.12
3.31168	5.12
3.32835	5.12
3.34502	5.12
3.36168	5.12
3.37835	5.12
3.39502	5.12
3.41168	5.12
3.42835	5.12
3.44502	5.12
3.46168	5.12
3.47835	5.13
3.49502	5.13
3.51168	5.13
3.52835	5.13
3.54502	5.13
3.56168	5.13
3.57835	5.13
3.59502	5.13
3.61168	5.13
3.62835	5.13
3.64502	5.12
3.66168	5.12
3.67835	5.12
3.69502	5.12
3.71168	5.12
3.72835	5.12
3.74502	5.12
3.76168	5.12
3.77835	5.12
3.79502	5.12
3.81168	5.12
3.82835	5.12
3.84502	5.12
3.86168	5.12
3.87835	5.12
3.89502	5.12
3.91168	5.12
3.92835	5.12
3.94502	5.12
3.96168	5.12
3.97835	5.12
3.99502	5.12

[Status Trace (Linear Velocity)]
Interval(msec)	1000
# of Points	240
Start Time(min)	0.012
End Time(min)	3.995
Intensity Units	
Intensity Multiplier	1
R.Time (min)	Intensity
0.01168	39.02
0.02835	37.01
0.04502	38.69
0.06168	40.05
0.07835	39.74
0.09502	39.04
0.11168	39.02
0.12835	39.04
0.14502	39.03
0.16168	39.03
0.17835	39.03
0.19502	39.03
0.21168	39.03
0.22835	39.03
0.24502	39.03
0.26168	39.03
0.27835	39.03
0.29502	39.03
0.31168	39.03
0.32835	39.03
0.34502	39.03
0.36168	39.03
0.37835	39.03
0.39502	39.03
0.41168	39.03
0.42835	39.03
0.44502	39.03
0.46168	39.03
0.47835	39.03
0.49502	39.03
0.51168	39.03
0.52835	39.03
0.54502	39.03
0.56168	39.03
0.57835	39.03
0.59502	39.03
0.61168	39.03
0.62835	39.03
0.64502	39.03
0.66168	39.03
0.67835	39.03
0.69502	39.03
0.71168	39.03
0.72835	39.03
0.74502	39.03
0.76168	39.03
0.77835	39.03
0.79502	39.03
0.81168	39.03
0.82835	39.03
0.84502	39.03
0.86168	39.03
0.87835	39.03
0.89502	39.03
0.91168	39.03
0.92835	39.03
0.94502	39.03
0.96168	39.03
0.97835	39.03
0.99502	39.02
1.01168	39.03
1.02835	39.03
1.04502	39.03
1.06168	39.03
1.07835	39.03
1.09502	39.03
1.11168	39.03
1.12835	39.03
1.14502	39.03
1.16168	39.03
1.17835	39.03
1.19502	39.03
1.21168	39.03
1.22835	39.03
1.24502	39.03
1.26168	39.03
1.27835	39.03
1.29502	39.03
1.31168	39.03
1.32835	39.03
1.34502	39.03
1.36168	39.03
1.37835	39.03
1.39502	39.03
1.41168	39.03
1.42835	39.03
1.44502	39.03
1.46168	39.03
1.47835	39.03
1.49502	39.03
1.51168	39.03
1.52835	39.03
1.54502	39.03
1.56168	39.03
1.57835	39.03
1.59502	39.03
1.61168	39.02
1.62835	39.01
1.64502	38.99
1.66168	38.97
1.67835	38.93
1.69502	38.90
1.71168	38.86
1.72835	38.83
1.74502	38.80
1.76168	38.77
1.77835	38.73
1.79502	38.71
1.81168	38.67
1.82835	38.64
1.84502	38.61
1.86168	38.58
1.87835	38.55
1.89502	38.52
1.91168	38.49
1.92835	38.46
1.94502	38.43
1.96168	38.40
1.97835	38.37
1.99502	38.34
2.01168	38.30
2.02835	38.27
2.04502	38.25
2.06168	38.22
2.07835	38.19
2.09502	38.16
2.11168	38.13
2.12835	38.10
2.14502	38.07
2.16168	38.04
2.17835	38.01
2.19502	37.98
2.21168	37.95
2.22835	37.92
2.24502	37.89
2.26168	37.86
2.27835	37.83
2.29502	37.80
2.31168	37.77
2.32835	37.74
2.34502	37.71
2.36168	37.69
2.37835	37.68
2.39502	37.67
2.41168	37.68
2.42835	37.68
2.44502	37.68
2.46168	37.68
2.47835	37.68
2.49502	37.67
2.51168	37.67
2.52835	37.66
2.54502	37.67
2.56168	37.67
2.57835	37.67
2.59502	37.67
2.61168	37.67
2.62835	37.66
2.64502	37.66
2.66168	37.66
2.67835	37.66
2.69502	37.66
2.71168	37.66
2.72835	37.66
2.74502	37.66
2.76168	37.66
2.77835	37.66
2.79502	37.66
2.81168	37.66
2.82835	37.65
2.84502	37.65
2.86168	37.65
2.87835	37.65
2.89502	37.65
2.91168	37.65
2.92835	37.65
2.94502	37.65
2.96168	37.65
2.97835	37.65
2.99502	37.65
3.01168	37.65
3.02835	37.65
3.04502	37.65
3.06168	37.65
3.07835	37.64
3.09502	37.64
3.11168	37.64
3.12835	37.64
3.14502	37.64
3.16168	37.64
3.17835	37.64
3.19502	37.64
3.21168	37.64
3.22835	37.64
3.24502	37.64
3.26168	37.64
3.27835	37.64
3.29502	37.64
3.31168	37.64
3.32835	37.63
3.34502	37.63
3.36168	37.63
3.37835	37.64
3.39502	37.64
3.41168	37.64
3.42835	37.64
3.44502	37.64
3.46168	37.64
3.47835	37.64
3.49502	37.64
3.51168	37.64
3.52835	37.64
3.54502	37.64
3.56168	37.64
3.57835	37.64
3.59502	37.64
3.61168	37.64
3.62835	37.64
3.64502	37.64
3.66168	37.64
3.67835	37.64
3.69502	37.64
3.71168	37.64
3.72835	37.64
3.74502	37.64
3.76168	37.64
3.77835	37.64
3.79502	37.64
3.81168	37.64
3.82835	37.64
3.84502	37.64
3.86168	37.64
3.87835	37.64
3.89502	37.64
3.91168	37.64
3.92835	37.64
3.94502	37.64
3.96168	37.64
3.97835	37.64
3.99502	37.64

