[Header]
Application Name	LabSolutions
Version	5.110
Data File Name	C:\Users\User\Desktop\GC Analyses\Jack\UIC Prairie Sampling\7.22.22\220722_029.gcd
Output Date	10/5/2022
Output Time	2:13:39 PM

[File Information]
Type	Data File
Generated	9/28/2022 10:17:55 AM
Generated by	System Administrator
Modified	9/28/2022 10:24:45 AM
Modified by	System Administrator

[Sample Information]
Operator Name	System Administrator
Acquired	9/28/2022 10:20:44 AM
Sample Type	1:Standard
Level	1
Sample Name	220722_UICPrairie
Sample ID	220722_UICPrairie
ISTD Amount1	1
ISTD Amount2	1
ISTD Amount3	1
ISTD Amount4	1
ISTD Amount5	1
ISTD Amount6	1
ISTD Amount7	1
ISTD Amount8	1
ISTD Amount9	1
ISTD Amount10	1
ISTD Amount11	1
ISTD Amount12	1
ISTD Amount13	1
ISTD Amount14	1
ISTD Amount15	1
ISTD Amount16	1
ISTD Amount17	1
ISTD Amount18	1
ISTD Amount19	1
ISTD Amount20	1
ISTD Amount21	1
ISTD Amount22	1
ISTD Amount23	1
ISTD Amount24	1
ISTD Amount25	1
ISTD Amount26	1
ISTD Amount27	1
ISTD Amount28	1
ISTD Amount29	1
ISTD Amount30	1
ISTD Amount31	1
ISTD Amount32	1
Sample Amount	1
Dilution Factor	1
Vial#	1
Injection Volume	1
Injection Count	1
Bar Code	

[Original Files]
Data File	C:\Users\User\Desktop\GC Analyses\Jack\UIC Prairie Sampling\7.22.22\220722_029.gcd
Method File	C:\LabSolutions\Data\GHG_4min_2022\ghg3_togas_w_acet_4 min_new_int.gcm
Batch File	
Report Format File	c:\LabSolutions\System\DEFAULT.lsr

[File Description]


[Configuration]
Instrument Name	C0B7VH3-Instrument1
Instrument #	1
Line #	1
# of Detectors	3
Detector ID	DET#1	DET#2	DET#3
Detector Name	FID	PTCD	ECD
# of Channels	1	1	1

[Peak Table(Ch1)]
# of Peaks	3
Peak#	R.Time	I.Time	F.Time	Area	Height	A/H	Conc.	Mark	ID#	Name	k'	Plate #	Plate Ht.	Tailing	Resolution	Sep.Factor	Area Ratio	Height Ratio	Conc. %	Norm Conc.
1	1.472	1.439	1.538	6468	2488	2.600	100.000	   	1	CO	0.000	6488	23.120	1.557	0.000	0.000	0	0	16.667	16.667
2	1.571	1.538	1.648	21104	10510	2.008	100.000	 V 	2	CH4	0.067	11086	13.531	1.230	1.491	0.000	0	0	16.667	16.667
3	2.000	1.949	2.356	2184861	1057551	2.066	400.000	   	3	CO2	0.359	17640	8.503	1.220	7.155	5.333	0	0	66.667	66.667

[Peak Table(Ch2)]
# of Peaks	0

[Peak Table(Ch3)]
# of Peaks	4
Peak#	R.Time	I.Time	F.Time	Area	Height	A/H	Conc.	Mark	ID#	Name	k'	Plate #	Plate Ht.	Tailing	Resolution	Sep.Factor	Area Ratio	Height Ratio	Conc. %	Norm Conc.
1	2.451	1.285	2.576	21222	609	34.858	0.000	   			0.000	19	7720.151	0.000	0.000	0.000	0	0	0.000	0.000
2	2.583	2.576	2.634	986	381	2.588	0.000	 V 			0.054	85	1764.036	0.000	0.079	0.000	0	0	0.000	0.000
3	2.774	2.638	2.818	7269	907	8.012	0.085	   	1	N2O	0.132	184	816.561	0.000	0.197	2.444	0	0	8.458	8.458
4	2.884	2.818	3.958	78674	15571	5.053	0.915	 V 	1	N2O	0.177	11719	12.799	0.000	0.238	1.341	0	0	91.542	91.542

[Compound Results(Ch1)]
# of IDs	6
ID#	Name	R.Time	Area	Height	Conc.	Curve	3rd	2nd	1st	Constant	Area Ratio	Height Ratio	Conc. %	Norm Conc.
1	CO	1.472	6468	2488	100.000	Linear	0.000000e+00	0.000000e+00	6.467706e+001	0.000000e+00	0	0	16.667	16.667
2	CH4	1.571	21104	10510	100.000	Linear	0.000000e+00	0.000000e+00	2.110414e+002	0.000000e+00	0	0	16.667	16.667
3	CO2	2.000	2184861	1057551	400.000	Linear	0.000000e+00	0.000000e+00	5.462152e+003	0.000000e+00	0	0	66.667	66.667
4	Ethylene	0.000	0	0	0.000	Linear	0.000000e+00	0.000000e+00	0.000000e+00	0.000000e+00	0	0	0.000	0.000
5	Acetylene	0.000	0	0	0.000	Linear	0.000000e+00	0.000000e+00	0.000000e+00	0.000000e+00	0	0	0.000	0.000
6	Ethane	0.000	0	0	0.000	Linear	0.000000e+00	0.000000e+00	0.000000e+00	0.000000e+00	0	0	0.000	0.000

[Compound Results(Ch2)]
# of IDs	5
ID#	Name	R.Time	Area	Height	Conc.	Curve	3rd	2nd	1st	Constant	Area Ratio	Height Ratio	Conc. %	Norm Conc.
1	Hydrogen	0.000	0	0	0.000	Linear	0.000000e+00	0.000000e+00	0.000000e+00	0.000000e+00	0	0	0.000	0.000
2	Oxygen	0.000	0	0	0.000	Linear	0.000000e+00	0.000000e+00	0.000000e+00	0.000000e+00	0	0	0.000	0.000
3	Nitrogen	0.000	0	0	0.000	Linear	0.000000e+00	0.000000e+00	0.000000e+00	0.000000e+00	0	0	0.000	0.000
4	Methane	0.000	0	0	0.000	Linear	0.000000e+00	0.000000e+00	0.000000e+00	0.000000e+00	0	0	0.000	0.000
5	Carbon Monoxide	0.000	0	0	0.000	Linear	0.000000e+00	0.000000e+00	0.000000e+00	0.000000e+00	0	0	0.000	0.000

[Compound Results(Ch3)]
# of IDs	2
ID#	Name	R.Time	Area	Height	Conc.	Curve	3rd	2nd	1st	Constant	Area Ratio	Height Ratio	Conc. %	Norm Conc.
1	N2O	2.884	85943	16478	1.000	Linear	0.000000e+00	0.000000e+00	8.594275e+004	0.000000e+00	0	0	100.000	100.000
2	SF6	0.000	0	0	0.000	Linear	0.000000e+00	0.000000e+00	0.000000e+00	0.000000e+00	0	0	0.000	0.000

[Group Results(Ch1)]
# of Groups	0

[Group Results(Ch2)]
# of Groups	0

[Group Results(Ch3)]
# of Groups	0

[Chromatogram (Ch1)]
Interval(msec)	220
# of Points	1091
Start Time(min)	0.002
End Time(min)	3.998
R.Time (min)	Intensity
0.00167	15
0.00533	17
0.00900	20
0.01267	23
0.01633	27
0.02000	30
0.02367	32
0.02733	31
0.03100	30
0.03467	28
0.03833	27
0.04200	28
0.04567	28
0.04933	30
0.05300	30
0.05667	29
0.06033	27
0.06400	26
0.06767	26
0.07133	25
0.07500	27
0.07867	26
0.08233	27
0.08600	31
0.08967	31
0.09333	28
0.09700	27
0.10067	25
0.10433	19
0.10800	14
0.11167	14
0.11533	12
0.11900	11
0.12267	7
0.12633	1
0.13000	-5
0.13367	-8
0.13733	-11
0.14100	-11
0.14467	-10
0.14833	-10
0.15200	-6
0.15567	1
0.15933	8
0.16300	11
0.16667	10
0.17033	7
0.17400	11
0.17767	15
0.18133	15
0.18500	13
0.18867	14
0.19233	17
0.19600	18
0.19967	18
0.20333	17
0.20700	14
0.21067	7
0.21433	3
0.21800	1
0.22167	1
0.22533	3
0.22900	4
0.23267	6
0.23633	10
0.24000	15
0.24367	19
0.24733	20
0.25100	22
0.25467	27
0.25833	30
0.26200	28
0.26567	27
0.26933	26
0.27300	26
0.27667	24
0.28033	22
0.28400	22
0.28767	20
0.29133	16
0.29500	14
0.29867	14
0.30233	13
0.30600	14
0.30967	15
0.31333	16
0.31700	16
0.32067	17
0.32433	21
0.32800	18
0.33167	16
0.33533	15
0.33900	9
0.34267	9
0.34633	8
0.35000	6
0.35367	7
0.35733	7
0.36100	5
0.36467	3
0.36833	3
0.37200	7
0.37567	6
0.37933	7
0.38300	14
0.38667	21
0.39033	28
0.39400	29
0.39767	22
0.40133	12
0.40500	-1
0.40867	-9
0.41233	-11
0.41600	-10
0.41967	-5
0.42333	-1
0.42700	0
0.43067	4
0.43433	10
0.43800	19
0.44167	28
0.44533	32
0.44900	32
0.45267	27
0.45633	17
0.46000	7
0.46367	1
0.46733	-1
0.47100	-1
0.47467	2
0.47833	7
0.48200	11
0.48567	12
0.48933	12
0.49300	10
0.49667	5
0.50033	-2
0.50400	-6
0.50767	-6
0.51133	-3
0.51500	-0
0.51867	-0
0.52233	-2
0.52600	-6
0.52967	-8
0.53333	-5
0.53700	0
0.54067	5
0.54433	10
0.54800	16
0.55167	22
0.55533	28
0.55900	32
0.56267	29
0.56633	24
0.57000	17
0.57367	11
0.57733	9
0.58100	9
0.58467	7
0.58833	4
0.59200	6
0.59567	15
0.59933	21
0.60300	22
0.60667	18
0.61033	12
0.61400	4
0.61767	-0
0.62133	2
0.62500	5
0.62867	8
0.63233	9
0.63600	5
0.63967	-0
0.64333	-4
0.64700	-8
0.65067	-10
0.65433	-9
0.65800	-9
0.66167	-8
0.66533	-7
0.66900	-7
0.67267	-8
0.67633	-8
0.68000	-4
0.68367	6
0.68733	14
0.69100	20
0.69467	20
0.69833	18
0.70200	14
0.70567	15
0.70933	15
0.71300	9
0.71667	-6
0.72033	-24
0.72400	-36
0.72767	-42
0.73133	-41
0.73500	-37
0.73867	-30
0.74233	-21
0.74600	-12
0.74967	-4
0.75333	1
0.75700	6
0.76067	10
0.76433	13
0.76800	15
0.77167	15
0.77533	13
0.77900	5
0.78267	-4
0.78633	-11
0.79000	-14
0.79367	-15
0.79733	-17
0.80100	-16
0.80467	-12
0.80833	-6
0.81200	-2
0.81567	2
0.81933	8
0.82300	16
0.82667	25
0.83033	26
0.83400	20
0.83767	9
0.84133	-4
0.84500	-13
0.84867	-16
0.85233	-10
0.85600	1
0.85967	6
0.86333	3
0.86700	-2
0.87067	-5
0.87433	-12
0.87800	-22
0.88167	-31
0.88533	-36
0.88900	-37
0.89267	-37
0.89633	-31
0.90000	-24
0.90367	-17
0.90733	-14
0.91100	-12
0.91467	-11
0.91833	-8
0.92200	-4
0.92567	2
0.92933	5
0.93300	7
0.93667	8
0.94033	10
0.94400	11
0.94767	7
0.95133	1
0.95500	-5
0.95867	-11
0.96233	-16
0.96600	-16
0.96967	-13
0.97333	-8
0.97700	-6
0.98067	-3
0.98433	1
0.98800	6
0.99167	12
0.99533	15
0.99900	14
1.00267	11
1.00633	9
1.01000	9
1.01367	8
1.01733	5
1.02100	3
1.02467	5
1.02833	6
1.03200	5
1.03567	3
1.03933	-1
1.04300	-6
1.04667	-11
1.05033	-14
1.05400	-11
1.05767	-6
1.06133	-4
1.06500	-5
1.06867	-9
1.07233	-12
1.07600	-7
1.07967	2
1.08333	10
1.08700	13
1.09067	10
1.09433	8
1.09800	8
1.10167	6
1.10533	2
1.10900	-2
1.11267	-9
1.11633	-22
1.12000	-34
1.12367	-43
1.12733	-45
1.13100	-45
1.13467	-41
1.13833	-35
1.14200	-29
1.14567	-22
1.14933	-15
1.15300	-10
1.15667	-8
1.16033	-11
1.16400	-16
1.16767	-20
1.17133	-26
1.17500	-28
1.17867	-24
1.18233	-19
1.18600	-20
1.18967	-25
1.19333	-29
1.19700	-28
1.20067	-24
1.20433	-20
1.20800	-16
1.21167	-14
1.21533	-13
1.21900	-14
1.22267	-18
1.22633	-23
1.23000	-26
1.23367	-24
1.23733	-21
1.24100	-21
1.24467	-22
1.24833	-23
1.25200	-23
1.25567	-21
1.25933	-18
1.26300	-17
1.26667	-18
1.27033	-24
1.27400	-29
1.27767	-31
1.28133	-30
1.28500	-29
1.28867	-27
1.29233	-25
1.29600	-23
1.29967	-22
1.30333	-21
1.30700	-21
1.31067	-23
1.31433	-27
1.31800	-30
1.32167	-31
1.32533	-30
1.32900	-29
1.33267	-27
1.33633	-28
1.34000	-28
1.34367	-27
1.34733	-22
1.35100	-16
1.35467	-15
1.35833	-16
1.36200	-18
1.36567	-24
1.36933	-31
1.37300	-34
1.37667	-36
1.38033	-37
1.38400	-37
1.38767	-36
1.39133	-35
1.39500	-33
1.39867	-25
1.40233	-17
1.40600	-13
1.40967	-14
1.41333	-17
1.41700	-19
1.42067	-17
1.42433	-14
1.42800	-15
1.43167	-21
1.43533	-31
1.43900	-32
1.44267	17
1.44633	215
1.45000	615
1.45367	1117
1.45733	1595
1.46100	1978
1.46467	2244
1.46833	2400
1.47200	2456
1.47567	2418
1.47933	2295
1.48300	2104
1.48667	1861
1.49033	1590
1.49400	1314
1.49767	1053
1.50133	820
1.50500	628
1.50867	480
1.51233	367
1.51600	281
1.51967	216
1.52333	169
1.52700	131
1.53067	97
1.53433	68
1.53800	64
1.54167	164
1.54533	583
1.54900	1607
1.55267	3282
1.55633	5299
1.56000	7240
1.56367	8829
1.56733	9943
1.57100	10480
1.57467	10302
1.57833	9369
1.58200	7871
1.58567	6156
1.58933	4539
1.59300	3199
1.59667	2183
1.60033	1455
1.60400	952
1.60767	614
1.61133	390
1.61500	243
1.61867	152
1.62233	95
1.62600	59
1.62967	32
1.63333	11
1.63700	-7
1.64067	-20
1.64433	-27
1.64800	-30
1.65167	-33
1.65533	-35
1.65900	-38
1.66267	-43
1.66633	-47
1.67000	-52
1.67367	-54
1.67733	-55
1.68100	-54
1.68467	-51
1.68833	-48
1.69200	-47
1.69567	-44
1.69933	-46
1.70300	-52
1.70667	-58
1.71033	-65
1.71400	-71
1.71767	-75
1.72133	-78
1.72500	-76
1.72867	-71
1.73233	-66
1.73600	-63
1.73967	-65
1.74333	-68
1.74700	-69
1.75067	-66
1.75433	-63
1.75800	-57
1.76167	-49
1.76533	-40
1.76900	-33
1.77267	-28
1.77633	-26
1.78000	-24
1.78367	-25
1.78733	-24
1.79100	-25
1.79467	-27
1.79833	-30
1.80200	-33
1.80567	-33
1.80933	-34
1.81300	-36
1.81667	-41
1.82033	-43
1.82400	-42
1.82767	-41
1.83133	-42
1.83500	-43
1.83867	-42
1.84233	-37
1.84600	-31
1.84967	-28
1.85333	-29
1.85700	-28
1.86067	-24
1.86433	-18
1.86800	-15
1.87167	-13
1.87533	-13
1.87900	-14
1.88267	-18
1.88633	-21
1.89000	-23
1.89367	-24
1.89733	-26
1.90100	-27
1.90467	-28
1.90833	-24
1.91200	-20
1.91567	-18
1.91933	-15
1.92300	-12
1.92667	-9
1.93033	-10
1.93400	-13
1.93767	-15
1.94133	-17
1.94500	-18
1.94867	-13
1.95233	-0
1.95600	49
1.95967	349
1.96333	1965
1.96700	8771
1.97067	30785
1.97433	85672
1.97800	191692
1.98167	352751
1.98533	549387
1.98900	746738
1.99267	911391
1.99633	1019390
2.00000	1057574
2.00367	1022937
2.00733	924627
2.01100	783230
2.01467	624843
2.01833	473113
2.02200	343303
2.02567	241225
2.02933	165790
2.03300	112470
2.03667	75923
2.04033	51370
2.04400	35072
2.04767	24306
2.05133	17188
2.05500	12453
2.05867	9265
2.06233	7085
2.06600	5567
2.06967	4491
2.07333	3709
2.07700	3124
2.08067	2682
2.08433	2343
2.08800	2079
2.09167	1869
2.09533	1695
2.09900	1550
2.10267	1428
2.10633	1320
2.11000	1225
2.11367	1140
2.11733	1065
2.12100	1000
2.12467	942
2.12833	891
2.13200	849
2.13567	813
2.13933	781
2.14300	749
2.14667	721
2.15033	694
2.15400	669
2.15767	647
2.16133	626
2.16500	605
2.16867	584
2.17233	563
2.17600	545
2.17967	529
2.18333	515
2.18700	501
2.19067	487
2.19433	475
2.19800	463
2.20167	450
2.20533	437
2.20900	428
2.21267	418
2.21633	409
2.22000	408
2.22367	413
2.22733	412
2.23100	406
2.23467	398
2.23833	393
2.24200	390
2.24567	390
2.24933	389
2.25300	386
2.25667	384
2.26033	374
2.26400	361
2.26767	353
2.27133	348
2.27500	346
2.27867	340
2.28233	331
2.28600	324
2.28967	319
2.29333	316
2.29700	317
2.30067	317
2.30433	318
2.30800	317
2.31167	316
2.31533	312
2.31900	302
2.32267	294
2.32633	296
2.33000	303
2.33367	310
2.33733	308
2.34100	299
2.34467	291
2.34833	282
2.35200	276
2.35567	272
2.35933	268
2.36300	263
2.36667	261
2.37033	266
2.37400	277
2.37767	282
2.38133	281
2.38500	279
2.38867	276
2.39233	273
2.39600	273
2.39967	274
2.40333	270
2.40700	266
2.41067	263
2.41433	262
2.41800	263
2.42167	267
2.42533	272
2.42900	276
2.43267	280
2.43633	281
2.44000	277
2.44367	270
2.44733	262
2.45100	255
2.45467	251
2.45833	248
2.46200	246
2.46567	242
2.46933	242
2.47300	247
2.47667	252
2.48033	253
2.48400	250
2.48767	246
2.49133	241
2.49500	238
2.49867	238
2.50233	239
2.50600	238
2.50967	237
2.51333	237
2.51700	235
2.52067	231
2.52433	224
2.52800	219
2.53167	216
2.53533	217
2.53900	221
2.54267	226
2.54633	230
2.55000	229
2.55367	222
2.55733	212
2.56100	202
2.56467	197
2.56833	195
2.57200	197
2.57567	199
2.57933	200
2.58300	200
2.58667	202
2.59033	205
2.59400	205
2.59767	202
2.60133	197
2.60500	195
2.60867	198
2.61233	203
2.61600	205
2.61967	202
2.62333	199
2.62700	195
2.63067	192
2.63433	189
2.63800	187
2.64167	186
2.64533	187
2.64900	192
2.65267	197
2.65633	198
2.66000	194
2.66367	189
2.66733	185
2.67100	180
2.67467	177
2.67833	176
2.68200	175
2.68567	175
2.68933	176
2.69300	178
2.69667	185
2.70033	194
2.70400	201
2.70767	206
2.71133	206
2.71500	201
2.71867	193
2.72233	185
2.72600	178
2.72967	175
2.73333	175
2.73700	177
2.74067	182
2.74433	187
2.74800	191
2.75167	195
2.75533	198
2.75900	197
2.76267	191
2.76633	184
2.77000	178
2.77367	170
2.77733	164
2.78100	163
2.78467	166
2.78833	170
2.79200	170
2.79567	173
2.79933	180
2.80300	186
2.80667	188
2.81033	187
2.81400	183
2.81767	180
2.82133	178
2.82500	176
2.82867	172
2.83233	170
2.83600	171
2.83967	174
2.84333	177
2.84700	181
2.85067	183
2.85433	179
2.85800	171
2.86167	164
2.86533	159
2.86900	159
2.87267	161
2.87633	162
2.88000	158
2.88367	155
2.88733	154
2.89100	160
2.89467	163
2.89833	166
2.90200	169
2.90567	171
2.90933	177
2.91300	182
2.91667	179
2.92033	170
2.92400	162
2.92767	158
2.93133	158
2.93500	161
2.93867	165
2.94233	166
2.94600	163
2.94967	161
2.95333	161
2.95700	163
2.96067	165
2.96433	165
2.96800	161
2.97167	156
2.97533	153
2.97900	154
2.98267	156
2.98633	157
2.99000	159
2.99367	161
2.99733	164
3.00100	162
3.00467	161
3.00833	163
3.01200	167
3.01567	174
3.01933	180
3.02300	184
3.02667	189
3.03033	191
3.03400	188
3.03767	181
3.04133	176
3.04500	167
3.04867	160
3.05233	157
3.05600	153
3.05967	149
3.06333	147
3.06700	145
3.07067	146
3.07433	144
3.07800	145
3.08167	149
3.08533	150
3.08900	151
3.09267	151
3.09633	151
3.10000	154
3.10367	157
3.10733	164
3.11100	171
3.11467	174
3.11833	172
3.12200	168
3.12567	169
3.12933	175
3.13300	176
3.13667	172
3.14033	163
3.14400	156
3.14767	150
3.15133	148
3.15500	151
3.15867	158
3.16233	162
3.16600	163
3.16967	162
3.17333	158
3.17700	151
3.18067	147
3.18433	146
3.18800	151
3.19167	157
3.19533	161
3.19900	163
3.20267	164
3.20633	166
3.21000	166
3.21367	165
3.21733	164
3.22100	162
3.22467	160
3.22833	159
3.23200	160
3.23567	160
3.23933	158
3.24300	155
3.24667	149
3.25033	145
3.25400	145
3.25767	147
3.26133	149
3.26500	150
3.26867	151
3.27233	152
3.27600	152
3.27967	152
3.28333	153
3.28700	154
3.29067	154
3.29433	155
3.29800	154
3.30167	155
3.30533	157
3.30900	158
3.31267	157
3.31633	158
3.32000	160
3.32367	162
3.32733	161
3.33100	158
3.33467	154
3.33833	150
3.34200	145
3.34567	142
3.34933	140
3.35300	144
3.35667	150
3.36033	155
3.36400	159
3.36767	161
3.37133	165
3.37500	171
3.37867	175
3.38233	176
3.38600	172
3.38967	170
3.39333	169
3.39700	167
3.40067	161
3.40433	154
3.40800	149
3.41167	149
3.41533	151
3.41900	152
3.42267	152
3.42633	149
3.43000	145
3.43367	140
3.43733	139
3.44100	144
3.44467	156
3.44833	167
3.45200	171
3.45567	170
3.45933	166
3.46300	162
3.46667	156
3.47033	148
3.47400	142
3.47767	137
3.48133	137
3.48500	138
3.48867	138
3.49233	140
3.49600	139
3.49967	136
3.50333	134
3.50700	137
3.51067	143
3.51433	147
3.51800	144
3.52167	142
3.52533	142
3.52900	141
3.53267	144
3.53633	146
3.54000	147
3.54367	148
3.54733	150
3.55100	154
3.55467	158
3.55833	158
3.56200	158
3.56567	161
3.56933	165
3.57300	163
3.57667	159
3.58033	155
3.58400	150
3.58767	145
3.59133	143
3.59500	143
3.59867	142
3.60233	140
3.60600	140
3.60967	142
3.61333	143
3.61700	143
3.62067	141
3.62433	136
3.62800	135
3.63167	146
3.63533	163
3.63900	171
3.64267	171
3.64633	164
3.65000	153
3.65367	143
3.65733	136
3.66100	131
3.66467	127
3.66833	125
3.67200	123
3.67567	126
3.67933	135
3.68300	146
3.68667	159
3.69033	172
3.69400	181
3.69767	184
3.70133	181
3.70500	172
3.70867	161
3.71233	154
3.71600	150
3.71967	151
3.72333	154
3.72700	159
3.73067	164
3.73433	168
3.73800	168
3.74167	166
3.74533	164
3.74900	167
3.75267	176
3.75633	183
3.76000	186
3.76367	185
3.76733	180
3.77100	178
3.77467	179
3.77833	182
3.78200	183
3.78567	184
3.78933	182
3.79300	181
3.79667	178
3.80033	174
3.80400	171
3.80767	171
3.81133	173
3.81500	174
3.81867	178
3.82233	180
3.82600	180
3.82967	178
3.83333	173
3.83700	165
3.84067	158
3.84433	155
3.84800	157
3.85167	164
3.85533	174
3.85900	180
3.86267	179
3.86633	176
3.87000	171
3.87367	166
3.87733	163
3.88100	165
3.88467	172
3.88833	174
3.89200	167
3.89567	157
3.89933	148
3.90300	143
3.90667	143
3.91033	144
3.91400	148
3.91767	150
3.92133	150
3.92500	151
3.92867	154
3.93233	157
3.93600	159
3.93967	160
3.94333	161
3.94700	162
3.95067	161
3.95433	158
3.95800	155
3.96167	151
3.96533	148
3.96900	147
3.97267	149
3.97633	153
3.98000	156
3.98367	155
3.98733	152
3.99100	146
3.99467	140
3.99833	134

[Chromatogram (Ch2)]
Interval(msec)	220
# of Points	1091
Start Time(min)	0.002
End Time(min)	3.998
R.Time (min)	Intensity
0.00167	-0
0.00533	-0
0.00900	-0
0.01267	-0
0.01633	-0
0.02000	-0
0.02367	-0
0.02733	-0
0.03100	-0
0.03467	-0
0.03833	-0
0.04200	0
0.04567	0
0.04933	1
0.05300	1
0.05667	1
0.06033	2
0.06400	2
0.06767	2
0.07133	3
0.07500	3
0.07867	4
0.08233	4
0.08600	4
0.08967	4
0.09333	5
0.09700	5
0.10067	6
0.10433	6
0.10800	6
0.11167	6
0.11533	6
0.11900	5
0.12267	5
0.12633	5
0.13000	5
0.13367	5
0.13733	4
0.14100	4
0.14467	4
0.14833	4
0.15200	4
0.15567	4
0.15933	4
0.16300	3
0.16667	3
0.17033	3
0.17400	2
0.17767	2
0.18133	2
0.18500	2
0.18867	1
0.19233	1
0.19600	1
0.19967	1
0.20333	1
0.20700	0
0.21067	0
0.21433	0
0.21800	0
0.22167	0
0.22533	0
0.22900	0
0.23267	-0
0.23633	-0
0.24000	-0
0.24367	-0
0.24733	-0
0.25100	-0
0.25467	-1
0.25833	-1
0.26200	-1
0.26567	-1
0.26933	-1
0.27300	-1
0.27667	-1
0.28033	-2
0.28400	-2
0.28767	-2
0.29133	-2
0.29500	-2
0.29867	-2
0.30233	-2
0.30600	-2
0.30967	-2
0.31333	-2
0.31700	-2
0.32067	-2
0.32433	-2
0.32800	-3
0.33167	-3
0.33533	-3
0.33900	-3
0.34267	-3
0.34633	-3
0.35000	-3
0.35367	-3
0.35733	-3
0.36100	-3
0.36467	-3
0.36833	-3
0.37200	-3
0.37567	-3
0.37933	-3
0.38300	-3
0.38667	-3
0.39033	-4
0.39400	-4
0.39767	-4
0.40133	-5
0.40500	-5
0.40867	-4
0.41233	-4
0.41600	-5
0.41967	-5
0.42333	-5
0.42700	-5
0.43067	-5
0.43433	-5
0.43800	-5
0.44167	-5
0.44533	-5
0.44900	-5
0.45267	-5
0.45633	-5
0.46000	-5
0.46367	-5
0.46733	-5
0.47100	-5
0.47467	-5
0.47833	-4
0.48200	-4
0.48567	-4
0.48933	-4
0.49300	-5
0.49667	-5
0.50033	-5
0.50400	-5
0.50767	-5
0.51133	-5
0.51500	-5
0.51867	-5
0.52233	-5
0.52600	-5
0.52967	-6
0.53333	-6
0.53700	-6
0.54067	-6
0.54433	-6
0.54800	-7
0.55167	-7
0.55533	-7
0.55900	-7
0.56267	-7
0.56633	-7
0.57000	-8
0.57367	-8
0.57733	-8
0.58100	-9
0.58467	-9
0.58833	-9
0.59200	-9
0.59567	-9
0.59933	-9
0.60300	-9
0.60667	-9
0.61033	-9
0.61400	-9
0.61767	-9
0.62133	-8
0.62500	-8
0.62867	-8
0.63233	-7
0.63600	-7
0.63967	-7
0.64333	-7
0.64700	-6
0.65067	-6
0.65433	-5
0.65800	-5
0.66167	-5
0.66533	-5
0.66900	-5
0.67267	-5
0.67633	-5
0.68000	-6
0.68367	-6
0.68733	-6
0.69100	-6
0.69467	-6
0.69833	-6
0.70200	-7
0.70567	-7
0.70933	-7
0.71300	-7
0.71667	-8
0.72033	-8
0.72400	-9
0.72767	-9
0.73133	-10
0.73500	-10
0.73867	-10
0.74233	-11
0.74600	-11
0.74967	-11
0.75333	-11
0.75700	-11
0.76067	-11
0.76433	-11
0.76800	-11
0.77167	-11
0.77533	-11
0.77900	-11
0.78267	-10
0.78633	-10
0.79000	-10
0.79367	-9
0.79733	-9
0.80100	-9
0.80467	-9
0.80833	-9
0.81200	-8
0.81567	-8
0.81933	-8
0.82300	-8
0.82667	-8
0.83033	-8
0.83400	-8
0.83767	-8
0.84133	-8
0.84500	-8
0.84867	-8
0.85233	-8
0.85600	-8
0.85967	-8
0.86333	-8
0.86700	-7
0.87067	-7
0.87433	-7
0.87800	-8
0.88167	-8
0.88533	-8
0.88900	-9
0.89267	-9
0.89633	-9
0.90000	-10
0.90367	-10
0.90733	-10
0.91100	-11
0.91467	-11
0.91833	-11
0.92200	-11
0.92567	-12
0.92933	-12
0.93300	-12
0.93667	-12
0.94033	-12
0.94400	-12
0.94767	-12
0.95133	-12
0.95500	-12
0.95867	-12
0.96233	-12
0.96600	-12
0.96967	-12
0.97333	-12
0.97700	-12
0.98067	-12
0.98433	-11
0.98800	-11
0.99167	-11
0.99533	-11
0.99900	-11
1.00267	-11
1.00633	-11
1.01000	-12
1.01367	-12
1.01733	-12
1.02100	-13
1.02467	-13
1.02833	-13
1.03200	-13
1.03567	-13
1.03933	-14
1.04300	-14
1.04667	-13
1.05033	-13
1.05400	-13
1.05767	-13
1.06133	-13
1.06500	-12
1.06867	-12
1.07233	-12
1.07600	-12
1.07967	-12
1.08333	-11
1.08700	-11
1.09067	-11
1.09433	-11
1.09800	-11
1.10167	-11
1.10533	-11
1.10900	-11
1.11267	-12
1.11633	-12
1.12000	-12
1.12367	-12
1.12733	-13
1.13100	-13
1.13467	-14
1.13833	-14
1.14200	-14
1.14567	-14
1.14933	-14
1.15300	-15
1.15667	-15
1.16033	-15
1.16400	-15
1.16767	-15
1.17133	-15
1.17500	-15
1.17867	-14
1.18233	-14
1.18600	-14
1.18967	-14
1.19333	-14
1.19700	-13
1.20067	-13
1.20433	-13
1.20800	-13
1.21167	-12
1.21533	-12
1.21900	-12
1.22267	-12
1.22633	-12
1.23000	-12
1.23367	-13
1.23733	-13
1.24100	-13
1.24467	-14
1.24833	-14
1.25200	-14
1.25567	-15
1.25933	-15
1.26300	-15
1.26667	-15
1.27033	-15
1.27400	-16
1.27767	-16
1.28133	-16
1.28500	-16
1.28867	-16
1.29233	-16
1.29600	-15
1.29967	-15
1.30333	-15
1.30700	-15
1.31067	-15
1.31433	-15
1.31800	-15
1.32167	-15
1.32533	-14
1.32900	-14
1.33267	-14
1.33633	-14
1.34000	-14
1.34367	-14
1.34733	-14
1.35100	-14
1.35467	-14
1.35833	-14
1.36200	-13
1.36567	-13
1.36933	-14
1.37300	-14
1.37667	-14
1.38033	-14
1.38400	-14
1.38767	-14
1.39133	-15
1.39500	-15
1.39867	-15
1.40233	-15
1.40600	-15
1.40967	-15
1.41333	-15
1.41700	-15
1.42067	-16
1.42433	-16
1.42800	-16
1.43167	-16
1.43533	-16
1.43900	-15
1.44267	-15
1.44633	-15
1.45000	-15
1.45367	-15
1.45733	-15
1.46100	-15
1.46467	-15
1.46833	-15
1.47200	-15
1.47567	-15
1.47933	-15
1.48300	-16
1.48667	-16
1.49033	-16
1.49400	-16
1.49767	-17
1.50133	-17
1.50500	-17
1.50867	-17
1.51233	-17
1.51600	-17
1.51967	-17
1.52333	-17
1.52700	-17
1.53067	-17
1.53433	-17
1.53800	-17
1.54167	-18
1.54533	-18
1.54900	-18
1.55267	-18
1.55633	-18
1.56000	-19
1.56367	-19
1.56733	-18
1.57100	-18
1.57467	-18
1.57833	-18
1.58200	-18
1.58567	-19
1.58933	-19
1.59300	-20
1.59667	-20
1.60033	-21
1.60400	-21
1.60767	-23
1.61133	-24
1.61500	-26
1.61867	-28
1.62233	-31
1.62600	-34
1.62967	-37
1.63333	-40
1.63700	-43
1.64067	-47
1.64433	-51
1.64800	-55
1.65167	-58
1.65533	-62
1.65900	-66
1.66267	-70
1.66633	-75
1.67000	-80
1.67367	-85
1.67733	-90
1.68100	-95
1.68467	-100
1.68833	-105
1.69200	-109
1.69567	-113
1.69933	-116
1.70300	-119
1.70667	-122
1.71033	-124
1.71400	-127
1.71767	-129
1.72133	-131
1.72500	-132
1.72867	-133
1.73233	-134
1.73600	-134
1.73967	-134
1.74333	-134
1.74700	-135
1.75067	-135
1.75433	-135
1.75800	-136
1.76167	-136
1.76533	-137
1.76900	-137
1.77267	-138
1.77633	-139
1.78000	-139
1.78367	-139
1.78733	-140
1.79100	-140
1.79467	-141
1.79833	-142
1.80200	-143
1.80567	-143
1.80933	-143
1.81300	-143
1.81667	-142
1.82033	-141
1.82400	-140
1.82767	-139
1.83133	-139
1.83500	-138
1.83867	-138
1.84233	-139
1.84600	-139
1.84967	-139
1.85333	-140
1.85700	-140
1.86067	-140
1.86433	-140
1.86800	-140
1.87167	-141
1.87533	-141
1.87900	-141
1.88267	-142
1.88633	-141
1.89000	-141
1.89367	-141
1.89733	-140
1.90100	-140
1.90467	-140
1.90833	-141
1.91200	-141
1.91567	-142
1.91933	-142
1.92300	-142
1.92667	-142
1.93033	-142
1.93400	-141
1.93767	-141
1.94133	-140
1.94500	-140
1.94867	-139
1.95233	-139
1.95600	-139
1.95967	-139
1.96333	-139
1.96700	-138
1.97067	-138
1.97433	-137
1.97800	-137
1.98167	-137
1.98533	-136
1.98900	-136
1.99267	-136
1.99633	-136
2.00000	-136
2.00367	-135
2.00733	-135
2.01100	-135
2.01467	-135
2.01833	-135
2.02200	-135
2.02567	-135
2.02933	-135
2.03300	-135
2.03667	-135
2.04033	-135
2.04400	-135
2.04767	-134
2.05133	-134
2.05500	-134
2.05867	-134
2.06233	-133
2.06600	-133
2.06967	-132
2.07333	-132
2.07700	-131
2.08067	-130
2.08433	-129
2.08800	-129
2.09167	-128
2.09533	-128
2.09900	-128
2.10267	-128
2.10633	-128
2.11000	-128
2.11367	-128
2.11733	-128
2.12100	-128
2.12467	-128
2.12833	-127
2.13200	-126
2.13567	-125
2.13933	-125
2.14300	-125
2.14667	-124
2.15033	-124
2.15400	-124
2.15767	-124
2.16133	-124
2.16500	-124
2.16867	-124
2.17233	-123
2.17600	-122
2.17967	-121
2.18333	-120
2.18700	-120
2.19067	-119
2.19433	-119
2.19800	-119
2.20167	-119
2.20533	-119
2.20900	-119
2.21267	-120
2.21633	-120
2.22000	-120
2.22367	-120
2.22733	-119
2.23100	-118
2.23467	-117
2.23833	-116
2.24200	-116
2.24567	-115
2.24933	-115
2.25300	-114
2.25667	-114
2.26033	-114
2.26400	-114
2.26767	-114
2.27133	-115
2.27500	-116
2.27867	-116
2.28233	-117
2.28600	-117
2.28967	-117
2.29333	-117
2.29700	-117
2.30067	-116
2.30433	-116
2.30800	-115
2.31167	-115
2.31533	-114
2.31900	-113
2.32267	-112
2.32633	-112
2.33000	-111
2.33367	-111
2.33733	-111
2.34100	-110
2.34467	-110
2.34833	-110
2.35200	-109
2.35567	-108
2.35933	-107
2.36300	-106
2.36667	-104
2.37033	-102
2.37400	-100
2.37767	-97
2.38133	-94
2.38500	-90
2.38867	-86
2.39233	-82
2.39600	-77
2.39967	-72
2.40333	-68
2.40700	-63
2.41067	-59
2.41433	-54
2.41800	-51
2.42167	-48
2.42533	-46
2.42900	-44
2.43267	-42
2.43633	-40
2.44000	-38
2.44367	-36
2.44733	-34
2.45100	-32
2.45467	-30
2.45833	-29
2.46200	-28
2.46567	-26
2.46933	-26
2.47300	-25
2.47667	-23
2.48033	-22
2.48400	-21
2.48767	-20
2.49133	-19
2.49500	-19
2.49867	-18
2.50233	-18
2.50600	-17
2.50967	-16
2.51333	-16
2.51700	-15
2.52067	-14
2.52433	-14
2.52800	-13
2.53167	-13
2.53533	-13
2.53900	-13
2.54267	-12
2.54633	-12
2.55000	-12
2.55367	-12
2.55733	-11
2.56100	-11
2.56467	-11
2.56833	-10
2.57200	-10
2.57567	-10
2.57933	-10
2.58300	-9
2.58667	-9
2.59033	-9
2.59400	-9
2.59767	-9
2.60133	-9
2.60500	-9
2.60867	-9
2.61233	-9
2.61600	-8
2.61967	-8
2.62333	-8
2.62700	-9
2.63067	-9
2.63433	-9
2.63800	-9
2.64167	-9
2.64533	-9
2.64900	-8
2.65267	-8
2.65633	-7
2.66000	-7
2.66367	-6
2.66733	-6
2.67100	-5
2.67467	-6
2.67833	-6
2.68200	-6
2.68567	-6
2.68933	-6
2.69300	-6
2.69667	-6
2.70033	-6
2.70400	-5
2.70767	-5
2.71133	-5
2.71500	-4
2.71867	-4
2.72233	-3
2.72600	-2
2.72967	-2
2.73333	-1
2.73700	-1
2.74067	-1
2.74433	-2
2.74800	-2
2.75167	-2
2.75533	-3
2.75900	-3
2.76267	-3
2.76633	-2
2.77000	-2
2.77367	-2
2.77733	-2
2.78100	-1
2.78467	-1
2.78833	-1
2.79200	-1
2.79567	-1
2.79933	-1
2.80300	-1
2.80667	-1
2.81033	-0
2.81400	-0
2.81767	-0
2.82133	-1
2.82500	-1
2.82867	-1
2.83233	-1
2.83600	-1
2.83967	-1
2.84333	-2
2.84700	-4
2.85067	-7
2.85433	-12
2.85800	-20
2.86167	-31
2.86533	-46
2.86900	-66
2.87267	-90
2.87633	-120
2.88000	-155
2.88367	-196
2.88733	-241
2.89100	-291
2.89467	-346
2.89833	-405
2.90200	-468
2.90567	-534
2.90933	-604
2.91300	-676
2.91667	-751
2.92033	-828
2.92400	-908
2.92767	-989
2.93133	-1073
2.93500	-1158
2.93867	-1245
2.94233	-1333
2.94600	-1421
2.94967	-1500
2.95333	-1557
2.95700	-1582
2.96067	-1572
2.96433	-1528
2.96800	-1456
2.97167	-1363
2.97533	-1258
2.97900	-1147
2.98267	-1035
2.98633	-926
2.99000	-822
2.99367	-726
2.99733	-639
3.00100	-559
3.00467	-489
3.00833	-426
3.01200	-371
3.01567	-322
3.01933	-280
3.02300	-244
3.02667	-212
3.03033	-185
3.03400	-162
3.03767	-141
3.04133	-124
3.04500	-109
3.04867	-96
3.05233	-85
3.05600	-76
3.05967	-68
3.06333	-61
3.06700	-55
3.07067	-50
3.07433	-46
3.07800	-42
3.08167	-39
3.08533	-36
3.08900	-33
3.09267	-31
3.09633	-29
3.10000	-28
3.10367	-26
3.10733	-25
3.11100	-24
3.11467	-23
3.11833	-22
3.12200	-21
3.12567	-21
3.12933	-21
3.13300	-20
3.13667	-20
3.14033	-20
3.14400	-20
3.14767	-20
3.15133	-19
3.15500	-19
3.15867	-19
3.16233	-19
3.16600	-18
3.16967	-18
3.17333	-18
3.17700	-17
3.18067	-17
3.18433	-17
3.18800	-17
3.19167	-17
3.19533	-16
3.19900	-16
3.20267	-15
3.20633	-15
3.21000	-14
3.21367	-14
3.21733	-14
3.22100	-13
3.22467	-13
3.22833	-12
3.23200	-12
3.23567	-11
3.23933	-11
3.24300	-11
3.24667	-10
3.25033	-10
3.25400	-10
3.25767	-9
3.26133	-9
3.26500	-8
3.26867	-8
3.27233	-8
3.27600	-8
3.27967	-8
3.28333	-8
3.28700	-8
3.29067	-7
3.29433	-7
3.29800	-7
3.30167	-6
3.30533	-6
3.30900	-6
3.31267	-6
3.31633	-5
3.32000	-5
3.32367	-5
3.32733	-5
3.33100	-5
3.33467	-4
3.33833	-4
3.34200	-4
3.34567	-4
3.34933	-4
3.35300	-4
3.35667	-5
3.36033	-5
3.36400	-5
3.36767	-5
3.37133	-5
3.37500	-6
3.37867	-6
3.38233	-6
3.38600	-6
3.38967	-6
3.39333	-6
3.39700	-6
3.40067	-5
3.40433	-5
3.40800	-5
3.41167	-5
3.41533	-5
3.41900	-5
3.42267	-5
3.42633	-5
3.43000	-5
3.43367	-5
3.43733	-5
3.44100	-5
3.44467	-5
3.44833	-5
3.45200	-5
3.45567	-5
3.45933	-5
3.46300	-5
3.46667	-5
3.47033	-5
3.47400	-5
3.47767	-5
3.48133	-5
3.48500	-5
3.48867	-5
3.49233	-5
3.49600	-5
3.49967	-5
3.50333	-5
3.50700	-5
3.51067	-5
3.51433	-5
3.51800	-5
3.52167	-5
3.52533	-5
3.52900	-5
3.53267	-5
3.53633	-5
3.54000	-5
3.54367	-5
3.54733	-6
3.55100	-6
3.55467	-6
3.55833	-6
3.56200	-5
3.56567	-5
3.56933	-5
3.57300	-5
3.57667	-5
3.58033	-6
3.58400	-6
3.58767	-6
3.59133	-5
3.59500	-5
3.59867	-5
3.60233	-5
3.60600	-5
3.60967	-6
3.61333	-6
3.61700	-6
3.62067	-6
3.62433	-6
3.62800	-6
3.63167	-6
3.63533	-6
3.63900	-6
3.64267	-6
3.64633	-6
3.65000	-6
3.65367	-6
3.65733	-6
3.66100	-6
3.66467	-6
3.66833	-6
3.67200	-7
3.67567	-7
3.67933	-7
3.68300	-7
3.68667	-8
3.69033	-8
3.69400	-8
3.69767	-8
3.70133	-9
3.70500	-9
3.70867	-9
3.71233	-9
3.71600	-10
3.71967	-9
3.72333	-9
3.72700	-9
3.73067	-9
3.73433	-9
3.73800	-9
3.74167	-9
3.74533	-9
3.74900	-8
3.75267	-8
3.75633	-8
3.76000	-8
3.76367	-8
3.76733	-7
3.77100	-7
3.77467	-6
3.77833	-6
3.78200	-6
3.78567	-6
3.78933	-6
3.79300	-6
3.79667	-6
3.80033	-5
3.80400	-5
3.80767	-5
3.81133	-5
3.81500	-5
3.81867	-5
3.82233	-5
3.82600	-5
3.82967	-6
3.83333	-6
3.83700	-6
3.84067	-6
3.84433	-7
3.84800	-7
3.85167	-8
3.85533	-8
3.85900	-8
3.86267	-8
3.86633	-8
3.87000	-9
3.87367	-9
3.87733	-9
3.88100	-9
3.88467	-9
3.88833	-8
3.89200	-8
3.89567	-8
3.89933	-8
3.90300	-8
3.90667	-8
3.91033	-8
3.91400	-8
3.91767	-8
3.92133	-8
3.92500	-8
3.92867	-8
3.93233	-8
3.93600	-8
3.93967	-8
3.94333	-8
3.94700	-7
3.95067	-7
3.95433	-8
3.95800	-8
3.96167	-8
3.96533	-8
3.96900	-8
3.97267	-8
3.97633	-8
3.98000	-8
3.98367	-9
3.98733	-9
3.99100	-8
3.99467	-8
3.99833	-8

[Chromatogram (Ch3)]
Interval(msec)	220
# of Points	1091
Start Time(min)	0.002
End Time(min)	3.998
R.Time (min)	Intensity
0.00167	-0
0.00533	-2
0.00900	-7
0.01267	-10
0.01633	-12
0.02000	-10
0.02367	-8
0.02733	-5
0.03100	-2
0.03467	0
0.03833	1
0.04200	1
0.04567	0
0.04933	-1
0.05300	-1
0.05667	-2
0.06033	-1
0.06400	2
0.06767	1
0.07133	0
0.07500	-1
0.07867	-3
0.08233	-4
0.08600	-4
0.08967	-6
0.09333	-9
0.09700	-10
0.10067	-9
0.10433	-7
0.10800	-8
0.11167	-10
0.11533	-10
0.11900	-10
0.12267	-9
0.12633	-10
0.13000	-10
0.13367	-8
0.13733	-6
0.14100	-5
0.14467	-4
0.14833	-6
0.15200	-6
0.15567	-5
0.15933	-4
0.16300	-4
0.16667	-4
0.17033	-2
0.17400	-1
0.17767	-1
0.18133	-2
0.18500	-2
0.18867	-3
0.19233	-6
0.19600	-8
0.19967	-7
0.20333	-7
0.20700	-8
0.21067	-8
0.21433	-7
0.21800	-6
0.22167	-7
0.22533	-7
0.22900	-7
0.23267	-5
0.23633	-4
0.24000	-3
0.24367	-1
0.24733	0
0.25100	-0
0.25467	-2
0.25833	-3
0.26200	-2
0.26567	-2
0.26933	-4
0.27300	-5
0.27667	-6
0.28033	-8
0.28400	-7
0.28767	-5
0.29133	-2
0.29500	-2
0.29867	-3
0.30233	-3
0.30600	-4
0.30967	-4
0.31333	-4
0.31700	-4
0.32067	-3
0.32433	-1
0.32800	-3
0.33167	-5
0.33533	-8
0.33900	-10
0.34267	-10
0.34633	-10
0.35000	-8
0.35367	-8
0.35733	-8
0.36100	-7
0.36467	-8
0.36833	-9
0.37200	-8
0.37567	-6
0.37933	-6
0.38300	-7
0.38667	-10
0.39033	-11
0.39400	-10
0.39767	-11
0.40133	-12
0.40500	-11
0.40867	-10
0.41233	-8
0.41600	-8
0.41967	-8
0.42333	-8
0.42700	-7
0.43067	-6
0.43433	-4
0.43800	-5
0.44167	-6
0.44533	-6
0.44900	-6
0.45267	-5
0.45633	-3
0.46000	-4
0.46367	-7
0.46733	-8
0.47100	-9
0.47467	-8
0.47833	-7
0.48200	-6
0.48567	-4
0.48933	-3
0.49300	-4
0.49667	-4
0.50033	-4
0.50400	-8
0.50767	-10
0.51133	-9
0.51500	-8
0.51867	-9
0.52233	-8
0.52600	-8
0.52967	-10
0.53333	-12
0.53700	-12
0.54067	-9
0.54433	-7
0.54800	-8
0.55167	-10
0.55533	-10
0.55900	-11
0.56267	-12
0.56633	-13
0.57000	-15
0.57367	-15
0.57733	-14
0.58100	-13
0.58467	-11
0.58833	-8
0.59200	-6
0.59567	-7
0.59933	-7
0.60300	-7
0.60667	-8
0.61033	-9
0.61400	-9
0.61767	-9
0.62133	-8
0.62500	-8
0.62867	-7
0.63233	-7
0.63600	-7
0.63967	-7
0.64333	-6
0.64700	-7
0.65067	-7
0.65433	-7
0.65800	-6
0.66167	-7
0.66533	-6
0.66900	-5
0.67267	-7
0.67633	-10
0.68000	-12
0.68367	-10
0.68733	-8
0.69100	-7
0.69467	-7
0.69833	-5
0.70200	-6
0.70567	-6
0.70933	-7
0.71300	-7
0.71667	-8
0.72033	-8
0.72400	-9
0.72767	-9
0.73133	-9
0.73500	-8
0.73867	-9
0.74233	-10
0.74600	-9
0.74967	-9
0.75333	-10
0.75700	-10
0.76067	-9
0.76433	-9
0.76800	-8
0.77167	-8
0.77533	-11
0.77900	-13
0.78267	-14
0.78633	-13
0.79000	-12
0.79367	-10
0.79733	-7
0.80100	-7
0.80467	-9
0.80833	-10
0.81200	-11
0.81567	-12
0.81933	-14
0.82300	-17
0.82667	-17
0.83033	-15
0.83400	-13
0.83767	-10
0.84133	-6
0.84500	-5
0.84867	-5
0.85233	-5
0.85600	-8
0.85967	-11
0.86333	-12
0.86700	-10
0.87067	-8
0.87433	-8
0.87800	-10
0.88167	-12
0.88533	-13
0.88900	-13
0.89267	-12
0.89633	-11
0.90000	-11
0.90367	-11
0.90733	-10
0.91100	-9
0.91467	-11
0.91833	-12
0.92200	-11
0.92567	-10
0.92933	-9
0.93300	-9
0.93667	-11
0.94033	-13
0.94400	-15
0.94767	-15
0.95133	-14
0.95500	-10
0.95867	-8
0.96233	-9
0.96600	-11
0.96967	-11
0.97333	-12
0.97700	-13
0.98067	-14
0.98433	-12
0.98800	-10
0.99167	-11
0.99533	-15
0.99900	-17
1.00267	-16
1.00633	-15
1.01000	-16
1.01367	-17
1.01733	-18
1.02100	-18
1.02467	-17
1.02833	-17
1.03200	-18
1.03567	-19
1.03933	-19
1.04300	-19
1.04667	-19
1.05033	-19
1.05400	-18
1.05767	-19
1.06133	-21
1.06500	-19
1.06867	-16
1.07233	-16
1.07600	-18
1.07967	-19
1.08333	-18
1.08700	-15
1.09067	-13
1.09433	-11
1.09800	-12
1.10167	-12
1.10533	-13
1.10900	-13
1.11267	-14
1.11633	-15
1.12000	-12
1.12367	-10
1.12733	-10
1.13100	-12
1.13467	-11
1.13833	-12
1.14200	-11
1.14567	-10
1.14933	-12
1.15300	-12
1.15667	-13
1.16033	-11
1.16400	-9
1.16767	-9
1.17133	-12
1.17500	-16
1.17867	-16
1.18233	-17
1.18600	-17
1.18967	-15
1.19333	-13
1.19700	-12
1.20067	-12
1.20433	-12
1.20800	-12
1.21167	-12
1.21533	-11
1.21900	-12
1.22267	-17
1.22633	-19
1.23000	-18
1.23367	-18
1.23733	-16
1.24100	-16
1.24467	-15
1.24833	-16
1.25200	-15
1.25567	-13
1.25933	-12
1.26300	-11
1.26667	-9
1.27033	-7
1.27400	-6
1.27767	-7
1.28133	-7
1.28500	-10
1.28867	-11
1.29233	-9
1.29600	-8
1.29967	-8
1.30333	-9
1.30700	-12
1.31067	-15
1.31433	-16
1.31800	-15
1.32167	-14
1.32533	-13
1.32900	-12
1.33267	-11
1.33633	-12
1.34000	-15
1.34367	-15
1.34733	-14
1.35100	-13
1.35467	-14
1.35833	-17
1.36200	-19
1.36567	-18
1.36933	-18
1.37300	-17
1.37667	-15
1.38033	-15
1.38400	-15
1.38767	-16
1.39133	-16
1.39500	-15
1.39867	-16
1.40233	-17
1.40600	-19
1.40967	-20
1.41333	-20
1.41700	-18
1.42067	-15
1.42433	-15
1.42800	-17
1.43167	-17
1.43533	-18
1.43900	-19
1.44267	-18
1.44633	-18
1.45000	-18
1.45367	-17
1.45733	-18
1.46100	-20
1.46467	-20
1.46833	-18
1.47200	-17
1.47567	-18
1.47933	-17
1.48300	-17
1.48667	-18
1.49033	-20
1.49400	-19
1.49767	-18
1.50133	-18
1.50500	-18
1.50867	-17
1.51233	-17
1.51600	-18
1.51967	-16
1.52333	-14
1.52700	-12
1.53067	-12
1.53433	-13
1.53800	-14
1.54167	-16
1.54533	-17
1.54900	-18
1.55267	-21
1.55633	-22
1.56000	-22
1.56367	-21
1.56733	-19
1.57100	-20
1.57467	-23
1.57833	-23
1.58200	-22
1.58567	-22
1.58933	-22
1.59300	-23
1.59667	-23
1.60033	-20
1.60400	-15
1.60767	-14
1.61133	-15
1.61500	-17
1.61867	-17
1.62233	-16
1.62600	-15
1.62967	-16
1.63333	-17
1.63700	-16
1.64067	-14
1.64433	-13
1.64800	-11
1.65167	-9
1.65533	-8
1.65900	-7
1.66267	-6
1.66633	-5
1.67000	-5
1.67367	-6
1.67733	-5
1.68100	-4
1.68467	-3
1.68833	-2
1.69200	-2
1.69567	-4
1.69933	-6
1.70300	-5
1.70667	-2
1.71033	-0
1.71400	1
1.71767	1
1.72133	1
1.72500	2
1.72867	6
1.73233	10
1.73600	12
1.73967	12
1.74333	11
1.74700	13
1.75067	13
1.75433	14
1.75800	13
1.76167	12
1.76533	12
1.76900	13
1.77267	13
1.77633	15
1.78000	15
1.78367	17
1.78733	19
1.79100	23
1.79467	25
1.79833	25
1.80200	26
1.80567	26
1.80933	26
1.81300	27
1.81667	29
1.82033	29
1.82400	27
1.82767	26
1.83133	24
1.83500	26
1.83867	29
1.84233	31
1.84600	33
1.84967	34
1.85333	33
1.85700	31
1.86067	28
1.86433	28
1.86800	29
1.87167	31
1.87533	35
1.87900	36
1.88267	35
1.88633	37
1.89000	39
1.89367	39
1.89733	41
1.90100	44
1.90467	48
1.90833	52
1.91200	52
1.91567	52
1.91933	53
1.92300	53
1.92667	55
1.93033	58
1.93400	59
1.93767	61
1.94133	59
1.94500	61
1.94867	63
1.95233	63
1.95600	63
1.95967	63
1.96333	62
1.96700	62
1.97067	63
1.97433	65
1.97800	67
1.98167	70
1.98533	72
1.98900	74
1.99267	75
1.99633	74
2.00000	73
2.00367	73
2.00733	76
2.01100	77
2.01467	80
2.01833	84
2.02200	86
2.02567	90
2.02933	91
2.03300	94
2.03667	98
2.04033	101
2.04400	102
2.04767	103
2.05133	105
2.05500	107
2.05867	107
2.06233	106
2.06600	105
2.06967	106
2.07333	108
2.07700	108
2.08067	107
2.08433	107
2.08800	109
2.09167	111
2.09533	114
2.09900	117
2.10267	119
2.10633	121
2.11000	124
2.11367	128
2.11733	129
2.12100	131
2.12467	133
2.12833	135
2.13200	133
2.13567	133
2.13933	132
2.14300	133
2.14667	136
2.15033	138
2.15400	141
2.15767	142
2.16133	143
2.16500	142
2.16867	141
2.17233	144
2.17600	145
2.17967	147
2.18333	145
2.18700	146
2.19067	149
2.19433	152
2.19800	154
2.20167	156
2.20533	158
2.20900	160
2.21267	165
2.21633	168
2.22000	166
2.22367	166
2.22733	166
2.23100	166
2.23467	167
2.23833	167
2.24200	167
2.24567	167
2.24933	170
2.25300	172
2.25667	172
2.26033	170
2.26400	172
2.26767	173
2.27133	176
2.27500	177
2.27867	177
2.28233	179
2.28600	181
2.28967	184
2.29333	188
2.29700	193
2.30067	197
2.30433	197
2.30800	199
2.31167	199
2.31533	200
2.31900	200
2.32267	200
2.32633	200
2.33000	199
2.33367	201
2.33733	205
2.34100	209
2.34467	212
2.34833	214
2.35200	214
2.35567	216
2.35933	216
2.36300	217
2.36667	219
2.37033	222
2.37400	223
2.37767	222
2.38133	223
2.38500	226
2.38867	228
2.39233	228
2.39600	228
2.39967	228
2.40333	225
2.40700	223
2.41067	224
2.41433	226
2.41800	228
2.42167	232
2.42533	235
2.42900	235
2.43267	234
2.43633	237
2.44000	237
2.44367	239
2.44733	243
2.45100	244
2.45467	239
2.45833	231
2.46200	224
2.46567	215
2.46933	204
2.47300	192
2.47667	183
2.48033	172
2.48400	158
2.48767	145
2.49133	130
2.49500	116
2.49867	100
2.50233	84
2.50600	72
2.50967	59
2.51333	48
2.51700	37
2.52067	25
2.52433	16
2.52800	7
2.53167	3
2.53533	1
2.53900	-3
2.54267	-6
2.54633	-8
2.55000	-10
2.55367	-13
2.55733	-16
2.56100	-16
2.56467	-18
2.56833	-22
2.57200	-24
2.57567	-24
2.57933	-24
2.58300	-24
2.58667	-27
2.59033	-29
2.59400	-32
2.59767	-39
2.60133	-50
2.60500	-68
2.60867	-95
2.61233	-127
2.61600	-163
2.61967	-206
2.62333	-266
2.62700	-341
2.63067	-396
2.63433	-421
2.63800	-414
2.64167	-387
2.64533	-348
2.64900	-304
2.65267	-256
2.65633	-208
2.66000	-160
2.66367	-110
2.66733	-61
2.67100	-15
2.67467	29
2.67833	68
2.68200	105
2.68567	138
2.68933	170
2.69300	201
2.69667	227
2.70033	253
2.70400	277
2.70767	298
2.71133	322
2.71500	345
2.71867	366
2.72233	385
2.72600	404
2.72967	423
2.73333	439
2.73700	455
2.74067	467
2.74433	477
2.74800	486
2.75167	495
2.75533	502
2.75900	508
2.76267	510
2.76633	511
2.77000	515
2.77367	517
2.77733	516
2.78100	512
2.78467	508
2.78833	506
2.79200	501
2.79567	496
2.79933	492
2.80300	489
2.80667	484
2.81033	478
2.81400	475
2.81767	473
2.82133	474
2.82500	489
2.82867	539
2.83233	653
2.83600	883
2.83967	1292
2.84333	1943
2.84700	2879
2.85067	4114
2.85433	5618
2.85800	7318
2.86167	9109
2.86533	10857
2.86900	12432
2.87267	13715
2.87633	14625
2.88000	15120
2.88367	15201
2.88733	14910
2.89100	14320
2.89467	13512
2.89833	12560
2.90200	11530
2.90567	10479
2.90933	9448
2.91300	8462
2.91667	7540
2.92033	6691
2.92400	5921
2.92767	5227
2.93133	4606
2.93500	4055
2.93867	3570
2.94233	3140
2.94600	2759
2.94967	2425
2.95333	2137
2.95700	1887
2.96067	1669
2.96433	1479
2.96800	1314
2.97167	1174
2.97533	1049
2.97900	938
2.98267	844
2.98633	766
2.99000	699
2.99367	639
2.99733	586
3.00100	541
3.00467	500
3.00833	464
3.01200	433
3.01567	408
3.01933	388
3.02300	370
3.02667	352
3.03033	335
3.03400	320
3.03767	306
3.04133	293
3.04500	283
3.04867	275
3.05233	269
3.05600	262
3.05967	255
3.06333	251
3.06700	244
3.07067	239
3.07433	234
3.07800	228
3.08167	225
3.08533	220
3.08900	215
3.09267	211
3.09633	207
3.10000	204
3.10367	202
3.10733	199
3.11100	195
3.11467	190
3.11833	185
3.12200	182
3.12567	178
3.12933	172
3.13300	168
3.13667	165
3.14033	164
3.14400	161
3.14767	160
3.15133	158
3.15500	157
3.15867	151
3.16233	148
3.16600	146
3.16967	143
3.17333	139
3.17700	133
3.18067	126
3.18433	125
3.18800	126
3.19167	125
3.19533	123
3.19900	120
3.20267	117
3.20633	112
3.21000	108
3.21367	106
3.21733	104
3.22100	103
3.22467	101
3.22833	100
3.23200	98
3.23567	95
3.23933	91
3.24300	89
3.24667	87
3.25033	82
3.25400	77
3.25767	74
3.26133	71
3.26500	69
3.26867	67
3.27233	69
3.27600	68
3.27967	68
3.28333	66
3.28700	63
3.29067	58
3.29433	55
3.29800	51
3.30167	47
3.30533	43
3.30900	39
3.31267	36
3.31633	35
3.32000	34
3.32367	32
3.32733	29
3.33100	26
3.33467	23
3.33833	18
3.34200	13
3.34567	11
3.34933	9
3.35300	7
3.35667	4
3.36033	1
3.36400	-1
3.36767	-3
3.37133	-7
3.37500	-11
3.37867	-12
3.38233	-14
3.38600	-17
3.38967	-20
3.39333	-22
3.39700	-25
3.40067	-28
3.40433	-32
3.40800	-35
3.41167	-36
3.41533	-38
3.41900	-41
3.42267	-43
3.42633	-44
3.43000	-45
3.43367	-46
3.43733	-49
3.44100	-53
3.44467	-56
3.44833	-57
3.45200	-58
3.45567	-58
3.45933	-59
3.46300	-62
3.46667	-65
3.47033	-66
3.47400	-67
3.47767	-68
3.48133	-70
3.48500	-69
3.48867	-70
3.49233	-72
3.49600	-77
3.49967	-78
3.50333	-80
3.50700	-82
3.51067	-83
3.51433	-85
3.51800	-87
3.52167	-89
3.52533	-91
3.52900	-93
3.53267	-94
3.53633	-93
3.54000	-94
3.54367	-94
3.54733	-94
3.55100	-95
3.55467	-95
3.55833	-96
3.56200	-101
3.56567	-106
3.56933	-109
3.57300	-110
3.57667	-109
3.58033	-109
3.58400	-111
3.58767	-114
3.59133	-117
3.59500	-121
3.59867	-123
3.60233	-125
3.60600	-125
3.60967	-124
3.61333	-123
3.61700	-123
3.62067	-121
3.62433	-123
3.62800	-126
3.63167	-129
3.63533	-132
3.63900	-130
3.64267	-128
3.64633	-128
3.65000	-130
3.65367	-132
3.65733	-133
3.66100	-135
3.66467	-134
3.66833	-133
3.67200	-133
3.67567	-132
3.67933	-132
3.68300	-133
3.68667	-133
3.69033	-136
3.69400	-138
3.69767	-137
3.70133	-136
3.70500	-135
3.70867	-137
3.71233	-139
3.71600	-137
3.71967	-136
3.72333	-136
3.72700	-137
3.73067	-137
3.73433	-137
3.73800	-139
3.74167	-141
3.74533	-141
3.74900	-141
3.75267	-140
3.75633	-140
3.76000	-139
3.76367	-140
3.76733	-142
3.77100	-144
3.77467	-144
3.77833	-146
3.78200	-148
3.78567	-150
3.78933	-152
3.79300	-152
3.79667	-151
3.80033	-150
3.80400	-152
3.80767	-152
3.81133	-152
3.81500	-155
3.81867	-159
3.82233	-162
3.82600	-164
3.82967	-163
3.83333	-160
3.83700	-158
3.84067	-156
3.84433	-156
3.84800	-156
3.85167	-156
3.85533	-159
3.85900	-162
3.86267	-162
3.86633	-159
3.87000	-157
3.87367	-157
3.87733	-158
3.88100	-160
3.88467	-165
3.88833	-167
3.89200	-167
3.89567	-168
3.89933	-169
3.90300	-168
3.90667	-168
3.91033	-170
3.91400	-171
3.91767	-171
3.92133	-171
3.92500	-168
3.92867	-168
3.93233	-169
3.93600	-169
3.93967	-170
3.94333	-171
3.94700	-176
3.95067	-177
3.95433	-176
3.95800	-178
3.96167	-178
3.96533	-176
3.96900	-173
3.97267	-174
3.97633	-176
3.98000	-178
3.98367	-179
3.98733	-181
3.99100	-182
3.99467	-182
3.99833	-179

[Status Trace (Column Oven Temperature)]
Interval(msec)	1000
# of Points	240
Start Time(min)	0.002
End Time(min)	3.986
Intensity Units	
Intensity Multiplier	1
R.Time (min)	Intensity
0.00247	35.04
0.01913	35.05
0.03580	35.04
0.05247	35.04
0.06913	35.02
0.08580	35.00
0.10247	34.99
0.11913	34.99
0.13580	34.99
0.15247	34.99
0.16913	34.99
0.18580	34.99
0.20247	34.98
0.21913	34.98
0.23580	34.98
0.25247	34.97
0.26913	34.97
0.28580	34.97
0.30247	34.97
0.31913	34.96
0.33580	34.96
0.35247	34.96
0.36913	34.96
0.38580	34.97
0.40247	34.97
0.41913	34.97
0.43580	34.97
0.45247	34.97
0.46913	34.96
0.48580	34.96
0.50247	34.97
0.51913	34.96
0.53580	34.98
0.55247	34.98
0.56913	34.99
0.58580	35.00
0.60247	35.00
0.61913	35.00
0.63580	34.99
0.65247	34.97
0.66913	34.97
0.68580	34.96
0.70247	34.96
0.71913	34.97
0.73580	34.98
0.75247	35.00
0.76913	35.01
0.78580	35.01
0.80247	35.00
0.81913	34.98
0.83580	34.97
0.85247	34.96
0.86913	34.96
0.88580	34.96
0.90247	34.96
0.91913	34.97
0.93580	34.97
0.95247	34.98
0.96913	34.98
0.98580	34.97
1.00247	34.98
1.01913	34.99
1.03580	35.00
1.05247	35.00
1.06913	34.99
1.08580	34.98
1.10247	34.97
1.11913	34.98
1.13580	35.00
1.15247	35.00
1.16913	35.00
1.18580	35.00
1.20247	35.00
1.21913	35.00
1.23580	35.00
1.25247	35.00
1.26913	35.00
1.28580	35.00
1.30247	35.00
1.31913	35.00
1.33580	34.99
1.35247	34.98
1.36913	34.98
1.38580	34.98
1.40247	34.98
1.41913	34.99
1.43580	34.99
1.45247	34.99
1.46913	34.99
1.48580	34.99
1.50247	34.98
1.51913	34.99
1.53580	34.99
1.55247	34.99
1.56913	34.98
1.58580	34.99
1.60247	35.03
1.61913	35.13
1.63580	35.30
1.65247	35.52
1.66913	35.83
1.68580	36.20
1.70247	36.55
1.71913	36.91
1.73580	37.24
1.75247	37.57
1.76913	37.91
1.78580	38.24
1.80247	38.59
1.81913	38.89
1.83580	39.23
1.85247	39.56
1.86913	39.89
1.88580	40.21
1.90247	40.54
1.91913	40.88
1.93580	41.21
1.95247	41.53
1.96913	41.85
1.98580	42.18
2.00247	42.52
2.01913	42.84
2.03580	43.18
2.05247	43.52
2.06913	43.83
2.08580	44.15
2.10247	44.50
2.11913	44.82
2.13580	45.13
2.15247	45.45
2.16913	45.78
2.18580	46.09
2.20247	46.43
2.21913	46.77
2.23580	47.08
2.25247	47.40
2.26913	47.73
2.28580	48.06
2.30247	48.40
2.31913	48.72
2.33580	49.08
2.35247	49.36
2.36913	49.56
2.38580	49.63
2.40247	49.61
2.41913	49.62
2.43580	49.64
2.45247	49.64
2.46913	49.66
2.48580	49.67
2.50247	49.69
2.51913	49.69
2.53580	49.72
2.55247	49.73
2.56913	49.75
2.58580	49.77
2.60247	49.78
2.61913	49.80
2.63580	49.83
2.65247	49.84
2.66913	49.84
2.68580	49.86
2.70247	49.87
2.71913	49.85
2.73580	49.85
2.75247	49.86
2.76913	49.86
2.78580	49.86
2.80247	49.85
2.81913	49.87
2.83580	49.87
2.85247	49.88
2.86913	49.89
2.88580	49.90
2.90247	49.91
2.91913	49.93
2.93580	49.94
2.95247	49.96
2.96913	49.97
2.98580	49.98
3.00247	49.99
3.01913	49.99
3.03580	49.99
3.05247	49.99
3.06913	50.00
3.08580	50.01
3.10247	50.02
3.11913	50.03
3.13580	50.06
3.15247	50.08
3.16913	50.10
3.18580	50.11
3.20247	50.11
3.21913	50.11
3.23580	50.10
3.25247	50.09
3.26913	50.08
3.28580	50.08
3.30247	50.08
3.31913	50.07
3.33580	50.06
3.35247	50.06
3.36913	50.07
3.38580	50.06
3.40247	50.05
3.41913	50.05
3.43580	50.04
3.45247	50.04
3.46913	50.05
3.48580	50.05
3.50247	50.04
3.51913	50.05
3.53580	50.04
3.55247	50.03
3.56913	50.04
3.58580	50.04
3.60247	50.04
3.61913	50.04
3.63580	50.04
3.65247	50.04
3.66913	50.05
3.68580	50.07
3.70247	50.08
3.71913	50.09
3.73580	50.09
3.75247	50.09
3.76913	50.08
3.78580	50.07
3.80247	50.06
3.81913	50.06
3.83580	50.06
3.85247	50.07
3.86913	50.08
3.88580	50.09
3.90247	50.08
3.91913	50.08
3.93580	50.07
3.95247	50.07
3.96913	50.07
3.98580	50.07

[Status Trace (Injection Unit Temperature)]
Interval(msec)	1000
# of Points	240
Start Time(min)	0.002
End Time(min)	3.986
Intensity Units	
Intensity Multiplier	1
R.Time (min)	Intensity
0.00247	99.99
0.01913	99.99
0.03580	99.99
0.05247	99.99
0.06913	99.99
0.08580	99.99
0.10247	99.99
0.11913	99.99
0.13580	99.99
0.15247	99.99
0.16913	99.99
0.18580	99.99
0.20247	99.99
0.21913	99.99
0.23580	99.99
0.25247	99.99
0.26913	99.99
0.28580	99.99
0.30247	99.99
0.31913	99.99
0.33580	99.99
0.35247	99.99
0.36913	99.99
0.38580	99.99
0.40247	99.99
0.41913	99.99
0.43580	99.99
0.45247	99.99
0.46913	99.99
0.48580	99.99
0.50247	99.99
0.51913	99.99
0.53580	99.98
0.55247	99.99
0.56913	99.99
0.58580	99.99
0.60247	99.99
0.61913	99.99
0.63580	99.99
0.65247	99.98
0.66913	99.99
0.68580	99.99
0.70247	99.99
0.71913	99.98
0.73580	99.99
0.75247	99.99
0.76913	99.99
0.78580	99.98
0.80247	99.99
0.81913	99.99
0.83580	99.98
0.85247	99.99
0.86913	99.99
0.88580	99.99
0.90247	99.98
0.91913	99.99
0.93580	99.99
0.95247	99.99
0.96913	99.98
0.98580	99.99
1.00247	99.98
1.01913	99.99
1.03580	99.99
1.05247	99.98
1.06913	99.99
1.08580	99.99
1.10247	99.99
1.11913	99.99
1.13580	99.98
1.15247	99.99
1.16913	99.99
1.18580	99.99
1.20247	99.99
1.21913	99.99
1.23580	99.99
1.25247	99.99
1.26913	99.99
1.28580	99.99
1.30247	99.99
1.31913	99.99
1.33580	100.00
1.35247	99.99
1.36913	99.99
1.38580	99.99
1.40247	99.99
1.41913	99.99
1.43580	99.99
1.45247	99.99
1.46913	99.99
1.48580	99.99
1.50247	99.99
1.51913	99.99
1.53580	99.99
1.55247	100.00
1.56913	99.99
1.58580	99.99
1.60247	100.00
1.61913	99.99
1.63580	99.99
1.65247	99.99
1.66913	100.00
1.68580	99.99
1.70247	99.99
1.71913	100.00
1.73580	99.99
1.75247	100.00
1.76913	99.99
1.78580	99.99
1.80247	99.99
1.81913	99.99
1.83580	99.99
1.85247	99.99
1.86913	99.99
1.88580	99.99
1.90247	99.99
1.91913	99.99
1.93580	99.99
1.95247	99.98
1.96913	99.99
1.98580	99.98
2.00247	99.99
2.01913	99.98
2.03580	99.98
2.05247	99.98
2.06913	99.98
2.08580	99.98
2.10247	99.98
2.11913	99.98
2.13580	99.98
2.15247	99.98
2.16913	99.98
2.18580	99.98
2.20247	99.97
2.21913	99.98
2.23580	99.98
2.25247	99.97
2.26913	99.97
2.28580	99.97
2.30247	99.97
2.31913	99.97
2.33580	99.98
2.35247	99.97
2.36913	99.97
2.38580	99.97
2.40247	99.97
2.41913	99.97
2.43580	99.98
2.45247	99.97
2.46913	99.98
2.48580	99.97
2.50247	99.97
2.51913	99.98
2.53580	99.97
2.55247	99.98
2.56913	99.97
2.58580	99.98
2.60247	99.98
2.61913	99.98
2.63580	99.98
2.65247	99.98
2.66913	99.99
2.68580	99.98
2.70247	99.99
2.71913	99.99
2.73580	99.99
2.75247	99.99
2.76913	99.99
2.78580	99.99
2.80247	100.00
2.81913	100.00
2.83580	100.00
2.85247	100.00
2.86913	100.00
2.88580	100.00
2.90247	100.01
2.91913	100.00
2.93580	100.01
2.95247	100.01
2.96913	100.01
2.98580	100.01
3.00247	100.01
3.01913	100.01
3.03580	100.01
3.05247	100.02
3.06913	100.01
3.08580	100.01
3.10247	100.02
3.11913	100.02
3.13580	100.02
3.15247	100.02
3.16913	100.02
3.18580	100.02
3.20247	100.02
3.21913	100.03
3.23580	100.03
3.25247	100.03
3.26913	100.03
3.28580	100.03
3.30247	100.03
3.31913	100.03
3.33580	100.03
3.35247	100.04
3.36913	100.03
3.38580	100.04
3.40247	100.03
3.41913	100.04
3.43580	100.04
3.45247	100.04
3.46913	100.04
3.48580	100.04
3.50247	100.04
3.51913	100.04
3.53580	100.04
3.55247	100.04
3.56913	100.04
3.58580	100.04
3.60247	100.04
3.61913	100.04
3.63580	100.05
3.65247	100.05
3.66913	100.04
3.68580	100.05
3.70247	100.05
3.71913	100.05
3.73580	100.05
3.75247	100.05
3.76913	100.05
3.78580	100.05
3.80247	100.05
3.81913	100.05
3.83580	100.05
3.85247	100.05
3.86913	100.05
3.88580	100.06
3.90247	100.05
3.91913	100.06
3.93580	100.06
3.95247	100.06
3.96913	100.06
3.98580	100.05

[Status Trace (Carrier Gas Pressure)]
Interval(msec)	1000
# of Points	240
Start Time(min)	0.002
End Time(min)	3.986
Intensity Units	
Intensity Multiplier	1
R.Time (min)	Intensity
0.00247	58.00
0.01913	56.23
0.03580	56.23
0.05247	58.52
0.06913	59.88
0.08580	58.35
0.10247	57.97
0.11913	58.01
0.13580	58.01
0.15247	58.01
0.16913	58.00
0.18580	58.00
0.20247	58.00
0.21913	58.00
0.23580	58.00
0.25247	58.00
0.26913	58.00
0.28580	58.00
0.30247	58.00
0.31913	58.00
0.33580	58.00
0.35247	58.00
0.36913	58.00
0.38580	58.00
0.40247	58.00
0.41913	58.00
0.43580	58.00
0.45247	58.00
0.46913	58.00
0.48580	58.00
0.50247	58.00
0.51913	58.00
0.53580	58.00
0.55247	58.00
0.56913	58.00
0.58580	58.00
0.60247	58.00
0.61913	58.00
0.63580	58.00
0.65247	58.00
0.66913	58.00
0.68580	58.00
0.70247	58.00
0.71913	58.00
0.73580	58.00
0.75247	58.00
0.76913	58.00
0.78580	58.00
0.80247	58.00
0.81913	58.00
0.83580	58.00
0.85247	58.00
0.86913	58.00
0.88580	58.00
0.90247	58.00
0.91913	58.00
0.93580	58.00
0.95247	58.00
0.96913	58.00
0.98580	58.00
1.00247	58.00
1.01913	58.00
1.03580	58.00
1.05247	58.00
1.06913	58.00
1.08580	58.00
1.10247	58.00
1.11913	58.00
1.13580	58.00
1.15247	58.00
1.16913	58.00
1.18580	58.00
1.20247	58.00
1.21913	58.00
1.23580	58.00
1.25247	58.00
1.26913	58.00
1.28580	58.00
1.30247	58.00
1.31913	58.00
1.33580	58.00
1.35247	58.00
1.36913	58.00
1.38580	58.00
1.40247	58.00
1.41913	58.00
1.43580	58.00
1.45247	58.00
1.46913	58.00
1.48580	58.00
1.50247	58.00
1.51913	58.00
1.53580	58.00
1.55247	58.00
1.56913	58.00
1.58580	58.00
1.60247	58.00
1.61913	58.00
1.63580	58.00
1.65247	58.00
1.66913	58.01
1.68580	58.01
1.70247	58.00
1.71913	58.00
1.73580	58.00
1.75247	58.00
1.76913	58.00
1.78580	58.00
1.80247	58.00
1.81913	58.00
1.83580	58.00
1.85247	58.00
1.86913	58.00
1.88580	58.00
1.90247	58.00
1.91913	58.00
1.93580	58.00
1.95247	58.00
1.96913	58.00
1.98580	58.00
2.00247	58.00
2.01913	58.00
2.03580	58.00
2.05247	58.00
2.06913	58.00
2.08580	58.00
2.10247	58.00
2.11913	58.00
2.13580	58.00
2.15247	58.00
2.16913	58.00
2.18580	58.00
2.20247	58.00
2.21913	58.00
2.23580	58.00
2.25247	58.00
2.26913	58.00
2.28580	58.00
2.30247	58.00
2.31913	58.00
2.33580	58.00
2.35247	58.00
2.36913	58.00
2.38580	57.99
2.40247	57.99
2.41913	58.00
2.43580	58.00
2.45247	58.00
2.46913	58.00
2.48580	58.00
2.50247	57.98
2.51913	58.01
2.53580	57.99
2.55247	58.00
2.56913	58.00
2.58580	58.00
2.60247	58.00
2.61913	58.00
2.63580	58.00
2.65247	58.00
2.66913	58.00
2.68580	58.00
2.70247	58.00
2.71913	58.00
2.73580	58.00
2.75247	58.00
2.76913	58.00
2.78580	58.00
2.80247	58.00
2.81913	58.00
2.83580	58.00
2.85247	58.00
2.86913	58.00
2.88580	58.00
2.90247	58.00
2.91913	58.00
2.93580	58.00
2.95247	58.00
2.96913	58.00
2.98580	58.00
3.00247	58.00
3.01913	58.00
3.03580	58.00
3.05247	58.00
3.06913	58.00
3.08580	58.00
3.10247	58.00
3.11913	58.00
3.13580	58.00
3.15247	58.00
3.16913	58.00
3.18580	58.00
3.20247	58.00
3.21913	58.00
3.23580	58.00
3.25247	58.00
3.26913	58.00
3.28580	58.00
3.30247	58.00
3.31913	58.00
3.33580	58.00
3.35247	58.00
3.36913	58.00
3.38580	58.00
3.40247	58.00
3.41913	58.00
3.43580	58.00
3.45247	58.00
3.46913	58.00
3.48580	58.00
3.50247	58.00
3.51913	58.00
3.53580	58.00
3.55247	58.00
3.56913	58.00
3.58580	58.00
3.60247	58.00
3.61913	58.00
3.63580	58.00
3.65247	58.00
3.66913	58.00
3.68580	58.00
3.70247	58.00
3.71913	58.00
3.73580	58.00
3.75247	58.00
3.76913	58.00
3.78580	58.00
3.80247	58.00
3.81913	58.00
3.83580	58.00
3.85247	58.00
3.86913	58.00
3.88580	58.00
3.90247	58.00
3.91913	58.00
3.93580	58.00
3.95247	58.00
3.96913	58.00
3.98580	58.00

[Status Trace (Carrier Gas Flow)]
Interval(msec)	1000
# of Points	240
Start Time(min)	0.002
End Time(min)	3.986
Intensity Units	
Intensity Multiplier	1
R.Time (min)	Intensity
0.00247	34.52
0.01913	34.62
0.03580	34.53
0.05247	34.54
0.06913	34.49
0.08580	34.51
0.10247	34.52
0.11913	34.52
0.13580	34.52
0.15247	34.52
0.16913	34.52
0.18580	34.52
0.20247	34.52
0.21913	34.52
0.23580	34.52
0.25247	34.52
0.26913	34.52
0.28580	34.52
0.30247	34.52
0.31913	34.52
0.33580	34.52
0.35247	34.52
0.36913	34.52
0.38580	34.52
0.40247	34.52
0.41913	34.52
0.43580	34.52
0.45247	34.52
0.46913	34.51
0.48580	34.52
0.50247	34.52
0.51913	34.52
0.53580	34.52
0.55247	34.52
0.56913	34.52
0.58580	34.52
0.60247	34.52
0.61913	34.52
0.63580	34.52
0.65247	34.52
0.66913	34.52
0.68580	34.52
0.70247	34.52
0.71913	34.52
0.73580	34.52
0.75247	34.52
0.76913	34.52
0.78580	34.52
0.80247	34.52
0.81913	34.52
0.83580	34.52
0.85247	34.52
0.86913	34.52
0.88580	34.52
0.90247	34.52
0.91913	34.52
0.93580	34.52
0.95247	34.52
0.96913	34.52
0.98580	34.52
1.00247	34.52
1.01913	34.52
1.03580	34.52
1.05247	34.52
1.06913	34.52
1.08580	34.52
1.10247	34.52
1.11913	34.52
1.13580	34.52
1.15247	34.52
1.16913	34.52
1.18580	34.52
1.20247	34.52
1.21913	34.52
1.23580	34.52
1.25247	34.52
1.26913	34.52
1.28580	34.52
1.30247	34.52
1.31913	34.52
1.33580	34.52
1.35247	34.52
1.36913	34.52
1.38580	34.52
1.40247	34.52
1.41913	34.52
1.43580	34.52
1.45247	34.52
1.46913	34.52
1.48580	34.52
1.50247	34.52
1.51913	34.52
1.53580	34.52
1.55247	34.51
1.56913	34.52
1.58580	34.52
1.60247	34.52
1.61913	34.52
1.63580	34.50
1.65247	34.51
1.66913	34.52
1.68580	34.52
1.70247	34.52
1.71913	34.52
1.73580	34.52
1.75247	34.52
1.76913	34.52
1.78580	34.52
1.80247	34.52
1.81913	34.51
1.83580	34.52
1.85247	34.52
1.86913	34.52
1.88580	34.52
1.90247	34.52
1.91913	34.52
1.93580	34.52
1.95247	34.52
1.96913	34.52
1.98580	34.52
2.00247	34.52
2.01913	34.52
2.03580	34.52
2.05247	34.52
2.06913	34.52
2.08580	34.52
2.10247	34.52
2.11913	34.52
2.13580	34.52
2.15247	34.52
2.16913	34.52
2.18580	34.51
2.20247	34.52
2.21913	34.52
2.23580	34.51
2.25247	34.51
2.26913	34.51
2.28580	34.51
2.30247	34.51
2.31913	34.52
2.33580	34.52
2.35247	34.52
2.36913	34.52
2.38580	34.53
2.40247	34.52
2.41913	34.52
2.43580	34.52
2.45247	34.52
2.46913	34.52
2.48580	34.52
2.50247	34.57
2.51913	34.51
2.53580	34.53
2.55247	34.51
2.56913	34.52
2.58580	34.52
2.60247	34.52
2.61913	34.52
2.63580	34.52
2.65247	34.52
2.66913	34.52
2.68580	34.52
2.70247	34.51
2.71913	34.52
2.73580	34.52
2.75247	34.52
2.76913	34.52
2.78580	34.52
2.80247	34.52
2.81913	34.52
2.83580	34.52
2.85247	34.52
2.86913	34.52
2.88580	34.52
2.90247	34.52
2.91913	34.52
2.93580	34.52
2.95247	34.52
2.96913	34.52
2.98580	34.52
3.00247	34.51
3.01913	34.51
3.03580	34.52
3.05247	34.52
3.06913	34.52
3.08580	34.53
3.10247	34.52
3.11913	34.52
3.13580	34.52
3.15247	34.52
3.16913	34.52
3.18580	34.52
3.20247	34.52
3.21913	34.52
3.23580	34.52
3.25247	34.52
3.26913	34.52
3.28580	34.52
3.30247	34.52
3.31913	34.52
3.33580	34.52
3.35247	34.52
3.36913	34.52
3.38580	34.52
3.40247	34.52
3.41913	34.52
3.43580	34.52
3.45247	34.52
3.46913	34.52
3.48580	34.52
3.50247	34.52
3.51913	34.52
3.53580	34.52
3.55247	34.52
3.56913	34.53
3.58580	34.52
3.60247	34.52
3.61913	34.52
3.63580	34.52
3.65247	34.52
3.66913	34.52
3.68580	34.52
3.70247	34.52
3.71913	34.52
3.73580	34.52
3.75247	34.52
3.76913	34.52
3.78580	34.52
3.80247	34.52
3.81913	34.52
3.83580	34.52
3.85247	34.52
3.86913	34.52
3.88580	34.52
3.90247	34.52
3.91913	34.52
3.93580	34.52
3.95247	34.52
3.96913	34.52
3.98580	34.52

[Status Trace (Column Flow)]
Interval(msec)	1000
# of Points	240
Start Time(min)	0.002
End Time(min)	3.986
Intensity Units	
Intensity Multiplier	1
R.Time (min)	Intensity
0.00247	5.57
0.01913	5.36
0.03580	5.36
0.05247	5.63
0.06913	5.79
0.08580	5.61
0.10247	5.57
0.11913	5.57
0.13580	5.57
0.15247	5.57
0.16913	5.57
0.18580	5.57
0.20247	5.57
0.21913	5.57
0.23580	5.57
0.25247	5.57
0.26913	5.57
0.28580	5.57
0.30247	5.57
0.31913	5.57
0.33580	5.57
0.35247	5.57
0.36913	5.57
0.38580	5.57
0.40247	5.57
0.41913	5.57
0.43580	5.57
0.45247	5.57
0.46913	5.57
0.48580	5.57
0.50247	5.57
0.51913	5.57
0.53580	5.57
0.55247	5.57
0.56913	5.57
0.58580	5.57
0.60247	5.57
0.61913	5.57
0.63580	5.57
0.65247	5.57
0.66913	5.57
0.68580	5.57
0.70247	5.57
0.71913	5.57
0.73580	5.57
0.75247	5.57
0.76913	5.57
0.78580	5.57
0.80247	5.57
0.81913	5.57
0.83580	5.57
0.85247	5.57
0.86913	5.57
0.88580	5.57
0.90247	5.57
0.91913	5.57
0.93580	5.57
0.95247	5.57
0.96913	5.57
0.98580	5.57
1.00247	5.57
1.01913	5.57
1.03580	5.57
1.05247	5.57
1.06913	5.57
1.08580	5.57
1.10247	5.57
1.11913	5.57
1.13580	5.57
1.15247	5.57
1.16913	5.57
1.18580	5.57
1.20247	5.57
1.21913	5.57
1.23580	5.57
1.25247	5.57
1.26913	5.57
1.28580	5.57
1.30247	5.57
1.31913	5.57
1.33580	5.57
1.35247	5.57
1.36913	5.57
1.38580	5.57
1.40247	5.57
1.41913	5.57
1.43580	5.57
1.45247	5.57
1.46913	5.57
1.48580	5.57
1.50247	5.57
1.51913	5.57
1.53580	5.57
1.55247	5.57
1.56913	5.57
1.58580	5.57
1.60247	5.57
1.61913	5.57
1.63580	5.56
1.65247	5.56
1.66913	5.55
1.68580	5.54
1.70247	5.52
1.71913	5.51
1.73580	5.50
1.75247	5.49
1.76913	5.48
1.78580	5.47
1.80247	5.46
1.81913	5.45
1.83580	5.44
1.85247	5.43
1.86913	5.42
1.88580	5.41
1.90247	5.40
1.91913	5.39
1.93580	5.38
1.95247	5.37
1.96913	5.36
1.98580	5.35
2.00247	5.34
2.01913	5.33
2.03580	5.32
2.05247	5.31
2.06913	5.30
2.08580	5.29
2.10247	5.28
2.11913	5.27
2.13580	5.26
2.15247	5.25
2.16913	5.25
2.18580	5.24
2.20247	5.23
2.21913	5.22
2.23580	5.21
2.25247	5.20
2.26913	5.19
2.28580	5.18
2.30247	5.17
2.31913	5.16
2.33580	5.15
2.35247	5.14
2.36913	5.14
2.38580	5.14
2.40247	5.14
2.41913	5.14
2.43580	5.14
2.45247	5.13
2.46913	5.13
2.48580	5.13
2.50247	5.13
2.51913	5.13
2.53580	5.13
2.55247	5.13
2.56913	5.13
2.58580	5.13
2.60247	5.13
2.61913	5.13
2.63580	5.13
2.65247	5.13
2.66913	5.13
2.68580	5.13
2.70247	5.13
2.71913	5.13
2.73580	5.13
2.75247	5.13
2.76913	5.13
2.78580	5.13
2.80247	5.13
2.81913	5.13
2.83580	5.13
2.85247	5.13
2.86913	5.13
2.88580	5.13
2.90247	5.13
2.91913	5.13
2.93580	5.13
2.95247	5.13
2.96913	5.13
2.98580	5.13
3.00247	5.13
3.01913	5.13
3.03580	5.13
3.05247	5.13
3.06913	5.13
3.08580	5.13
3.10247	5.12
3.11913	5.12
3.13580	5.12
3.15247	5.12
3.16913	5.12
3.18580	5.12
3.20247	5.12
3.21913	5.12
3.23580	5.12
3.25247	5.12
3.26913	5.12
3.28580	5.12
3.30247	5.12
3.31913	5.12
3.33580	5.12
3.35247	5.12
3.36913	5.12
3.38580	5.12
3.40247	5.12
3.41913	5.12
3.43580	5.12
3.45247	5.12
3.46913	5.12
3.48580	5.12
3.50247	5.12
3.51913	5.12
3.53580	5.12
3.55247	5.12
3.56913	5.12
3.58580	5.12
3.60247	5.12
3.61913	5.12
3.63580	5.12
3.65247	5.12
3.66913	5.12
3.68580	5.12
3.70247	5.12
3.71913	5.12
3.73580	5.12
3.75247	5.12
3.76913	5.12
3.78580	5.12
3.80247	5.12
3.81913	5.12
3.83580	5.12
3.85247	5.12
3.86913	5.12
3.88580	5.12
3.90247	5.12
3.91913	5.12
3.93580	5.12
3.95247	5.12
3.96913	5.12
3.98580	5.12

[Status Trace (Linear Velocity)]
Interval(msec)	1000
# of Points	240
Start Time(min)	0.002
End Time(min)	3.986
Intensity Units	
Intensity Multiplier	1
R.Time (min)	Intensity
0.00247	39.02
0.01913	37.86
0.03580	37.86
0.05247	39.36
0.06913	40.25
0.08580	39.26
0.10247	39.01
0.11913	39.03
0.13580	39.04
0.15247	39.03
0.16913	39.03
0.18580	39.03
0.20247	39.03
0.21913	39.03
0.23580	39.03
0.25247	39.03
0.26913	39.03
0.28580	39.03
0.30247	39.03
0.31913	39.03
0.33580	39.03
0.35247	39.03
0.36913	39.03
0.38580	39.03
0.40247	39.03
0.41913	39.03
0.43580	39.03
0.45247	39.03
0.46913	39.03
0.48580	39.03
0.50247	39.03
0.51913	39.03
0.53580	39.03
0.55247	39.03
0.56913	39.03
0.58580	39.03
0.60247	39.03
0.61913	39.03
0.63580	39.03
0.65247	39.03
0.66913	39.03
0.68580	39.03
0.70247	39.03
0.71913	39.03
0.73580	39.03
0.75247	39.03
0.76913	39.03
0.78580	39.03
0.80247	39.03
0.81913	39.03
0.83580	39.03
0.85247	39.03
0.86913	39.03
0.88580	39.03
0.90247	39.03
0.91913	39.03
0.93580	39.03
0.95247	39.03
0.96913	39.03
0.98580	39.03
1.00247	39.03
1.01913	39.03
1.03580	39.03
1.05247	39.03
1.06913	39.03
1.08580	39.03
1.10247	39.03
1.11913	39.03
1.13580	39.03
1.15247	39.03
1.16913	39.03
1.18580	39.03
1.20247	39.03
1.21913	39.03
1.23580	39.03
1.25247	39.03
1.26913	39.03
1.28580	39.03
1.30247	39.03
1.31913	39.03
1.33580	39.03
1.35247	39.03
1.36913	39.03
1.38580	39.03
1.40247	39.03
1.41913	39.03
1.43580	39.03
1.45247	39.03
1.46913	39.03
1.48580	39.03
1.50247	39.03
1.51913	39.03
1.53580	39.03
1.55247	39.03
1.56913	39.03
1.58580	39.03
1.60247	39.03
1.61913	39.02
1.63580	39.00
1.65247	38.98
1.66913	38.95
1.68580	38.92
1.70247	38.88
1.71913	38.85
1.73580	38.82
1.75247	38.78
1.76913	38.75
1.78580	38.72
1.80247	38.69
1.81913	38.66
1.83580	38.63
1.85247	38.60
1.86913	38.56
1.88580	38.54
1.90247	38.50
1.91913	38.47
1.93580	38.44
1.95247	38.41
1.96913	38.38
1.98580	38.35
2.00247	38.32
2.01913	38.29
2.03580	38.26
2.05247	38.23
2.06913	38.20
2.08580	38.17
2.10247	38.14
2.11913	38.11
2.13580	38.08
2.15247	38.05
2.16913	38.02
2.18580	38.00
2.20247	37.96
2.21913	37.93
2.23580	37.91
2.25247	37.87
2.26913	37.85
2.28580	37.82
2.30247	37.79
2.31913	37.76
2.33580	37.73
2.35247	37.70
2.36913	37.68
2.38580	37.67
2.40247	37.67
2.41913	37.68
2.43580	37.68
2.45247	37.67
2.46913	37.67
2.48580	37.67
2.50247	37.66
2.51913	37.67
2.53580	37.66
2.55247	37.67
2.56913	37.67
2.58580	37.66
2.60247	37.66
2.61913	37.66
2.63580	37.66
2.65247	37.66
2.66913	37.66
2.68580	37.66
2.70247	37.66
2.71913	37.66
2.73580	37.66
2.75247	37.66
2.76913	37.66
2.78580	37.66
2.80247	37.66
2.81913	37.66
2.83580	37.66
2.85247	37.66
2.86913	37.65
2.88580	37.65
2.90247	37.65
2.91913	37.65
2.93580	37.65
2.95247	37.65
2.96913	37.65
2.98580	37.65
3.00247	37.65
3.01913	37.64
3.03580	37.65
3.05247	37.64
3.06913	37.64
3.08580	37.64
3.10247	37.64
3.11913	37.64
3.13580	37.64
3.15247	37.64
3.16913	37.64
3.18580	37.64
3.20247	37.63
3.21913	37.63
3.23580	37.63
3.25247	37.64
3.26913	37.64
3.28580	37.64
3.30247	37.64
3.31913	37.64
3.33580	37.64
3.35247	37.64
3.36913	37.64
3.38580	37.64
3.40247	37.64
3.41913	37.64
3.43580	37.64
3.45247	37.64
3.46913	37.64
3.48580	37.64
3.50247	37.64
3.51913	37.64
3.53580	37.64
3.55247	37.64
3.56913	37.64
3.58580	37.64
3.60247	37.64
3.61913	37.64
3.63580	37.64
3.65247	37.64
3.66913	37.64
3.68580	37.64
3.70247	37.64
3.71913	37.64
3.73580	37.64
3.75247	37.64
3.76913	37.64
3.78580	37.64
3.80247	37.64
3.81913	37.64
3.83580	37.64
3.85247	37.64
3.86913	37.64
3.88580	37.64
3.90247	37.64
3.91913	37.64
3.93580	37.64
3.95247	37.64
3.96913	37.64
3.98580	37.64

