[Header]
Application Name	LabSolutions
Version	5.110
Data File Name	C:\Users\User\Desktop\GC Analyses\Jack\UIC Prairie Sampling\7.22.22\220722_102.gcd
Output Date	10/5/2022
Output Time	2:13:44 PM

[File Information]
Type	Data File
Generated	10/5/2022 1:26:54 PM
Generated by	System Administrator
Modified	10/5/2022 1:31:06 PM
Modified by	System Administrator

[Sample Information]
Operator Name	System Administrator
Acquired	10/5/2022 1:27:05 PM
Sample Type	1:Standard
Level	1
Sample Name	220722_UICPrairie
Sample ID	220722_UICPrairie
ISTD Amount1	1
ISTD Amount2	1
ISTD Amount3	1
ISTD Amount4	1
ISTD Amount5	1
ISTD Amount6	1
ISTD Amount7	1
ISTD Amount8	1
ISTD Amount9	1
ISTD Amount10	1
ISTD Amount11	1
ISTD Amount12	1
ISTD Amount13	1
ISTD Amount14	1
ISTD Amount15	1
ISTD Amount16	1
ISTD Amount17	1
ISTD Amount18	1
ISTD Amount19	1
ISTD Amount20	1
ISTD Amount21	1
ISTD Amount22	1
ISTD Amount23	1
ISTD Amount24	1
ISTD Amount25	1
ISTD Amount26	1
ISTD Amount27	1
ISTD Amount28	1
ISTD Amount29	1
ISTD Amount30	1
ISTD Amount31	1
ISTD Amount32	1
Sample Amount	1
Dilution Factor	1
Vial#	1
Injection Volume	1
Injection Count	1
Bar Code	

[Original Files]
Data File	C:\Users\User\Desktop\GC Analyses\Jack\UIC Prairie Sampling\7.22.22\220722_102.gcd
Method File	C:\LabSolutions\Data\GHG_4min_2022\ghg3_togas_w_acet_4 min_new_int.gcm
Batch File	
Report Format File	c:\LabSolutions\System\DEFAULT.lsr

[File Description]


[Configuration]
Instrument Name	C0B7VH3-Instrument1
Instrument #	1
Line #	1
# of Detectors	3
Detector ID	DET#1	DET#2	DET#3
Detector Name	FID	PTCD	ECD
# of Channels	1	1	1

[Peak Table(Ch1)]
# of Peaks	3
Peak#	R.Time	I.Time	F.Time	Area	Height	A/H	Conc.	Mark	ID#	Name	k'	Plate #	Plate Ht.	Tailing	Resolution	Sep.Factor	Area Ratio	Height Ratio	Conc. %	Norm Conc.
1	1.479	1.439	1.542	15476	6997	2.212	100.000	   	1	CO	0.000	8625	17.392	1.231	0.000	0.000	0	0	16.667	16.667
2	1.575	1.542	1.637	4604	2290	2.011	100.000	 V 	2	CH4	0.064	11301	13.273	1.072	1.551	0.000	0	0	16.667	16.667
3	2.004	1.952	2.319	1529230	744887	2.053	400.000	   	3	CO2	0.354	18003	8.332	1.153	7.211	5.500	0	0	66.667	66.667

[Peak Table(Ch2)]
# of Peaks	0

[Peak Table(Ch3)]
# of Peaks	5
Peak#	R.Time	I.Time	F.Time	Area	Height	A/H	Conc.	Mark	ID#	Name	k'	Plate #	Plate Ht.	Tailing	Resolution	Sep.Factor	Area Ratio	Height Ratio	Conc. %	Norm Conc.
1	0.885	0.390	1.285	507	19	26.911	0.000	   			0.000	732	204.840	0.844	0.000	0.000	0	0	0.000	0.000
2	2.440	1.908	2.550	1954	100	19.484	0.000	   			1.756	458	327.576	0.595	5.297	0.000	0	0	0.000	0.000
3	2.627	2.576	2.634	1053	455	2.316	0.000	   			1.967	144	1041.231	0.000	0.281	1.120	0	0	0.000	0.000
4	2.726	2.634	2.825	6660	646	10.306	0.206	 V 	1	N2O	2.079	131	1144.909	0.000	0.108	1.057	0	0	20.577	20.577
5	2.887	2.825	3.269	25706	5327	4.826	0.794	 V 	1	N2O	2.261	11500	13.044	0.000	0.304	1.088	0	0	79.423	79.423

[Compound Results(Ch1)]
# of IDs	6
ID#	Name	R.Time	Area	Height	Conc.	Curve	3rd	2nd	1st	Constant	Area Ratio	Height Ratio	Conc. %	Norm Conc.
1	CO	1.479	15476	6997	100.000	Linear	0.000000e+00	0.000000e+00	1.547574e+002	0.000000e+00	0	0	16.667	16.667
2	CH4	1.575	4604	2290	100.000	Linear	0.000000e+00	0.000000e+00	4.603758e+001	0.000000e+00	0	0	16.667	16.667
3	CO2	2.004	1529230	744887	400.000	Linear	0.000000e+00	0.000000e+00	3.823076e+003	0.000000e+00	0	0	66.667	66.667
4	Ethylene	0.000	0	0	0.000	Linear	0.000000e+00	0.000000e+00	0.000000e+00	0.000000e+00	0	0	0.000	0.000
5	Acetylene	0.000	0	0	0.000	Linear	0.000000e+00	0.000000e+00	0.000000e+00	0.000000e+00	0	0	0.000	0.000
6	Ethane	0.000	0	0	0.000	Linear	0.000000e+00	0.000000e+00	0.000000e+00	0.000000e+00	0	0	0.000	0.000

[Compound Results(Ch2)]
# of IDs	5
ID#	Name	R.Time	Area	Height	Conc.	Curve	3rd	2nd	1st	Constant	Area Ratio	Height Ratio	Conc. %	Norm Conc.
1	Hydrogen	0.000	0	0	0.000	Linear	0.000000e+00	0.000000e+00	0.000000e+00	0.000000e+00	0	0	0.000	0.000
2	Oxygen	0.000	0	0	0.000	Linear	0.000000e+00	0.000000e+00	0.000000e+00	0.000000e+00	0	0	0.000	0.000
3	Nitrogen	0.000	0	0	0.000	Linear	0.000000e+00	0.000000e+00	0.000000e+00	0.000000e+00	0	0	0.000	0.000
4	Methane	0.000	0	0	0.000	Linear	0.000000e+00	0.000000e+00	0.000000e+00	0.000000e+00	0	0	0.000	0.000
5	Carbon Monoxide	0.000	0	0	0.000	Linear	0.000000e+00	0.000000e+00	0.000000e+00	0.000000e+00	0	0	0.000	0.000

[Compound Results(Ch3)]
# of IDs	2
ID#	Name	R.Time	Area	Height	Conc.	Curve	3rd	2nd	1st	Constant	Area Ratio	Height Ratio	Conc. %	Norm Conc.
1	N2O	2.887	32366	5973	1.000	Linear	0.000000e+00	0.000000e+00	3.236623e+004	0.000000e+00	0	0	100.000	100.000
2	SF6	0.000	0	0	0.000	Linear	0.000000e+00	0.000000e+00	0.000000e+00	0.000000e+00	0	0	0.000	0.000

[Group Results(Ch1)]
# of Groups	0

[Group Results(Ch2)]
# of Groups	0

[Group Results(Ch3)]
# of Groups	0

[Chromatogram (Ch1)]
Interval(msec)	220
# of Points	1091
Start Time(min)	0.002
End Time(min)	3.998
R.Time (min)	Intensity
0.00167	-6
0.00533	-7
0.00900	-4
0.01267	1
0.01633	4
0.02000	4
0.02367	3
0.02733	4
0.03100	9
0.03467	14
0.03833	15
0.04200	10
0.04567	2
0.04933	-5
0.05300	-11
0.05667	-16
0.06033	-18
0.06400	-16
0.06767	-9
0.07133	-3
0.07500	-0
0.07867	1
0.08233	1
0.08600	1
0.08967	2
0.09333	2
0.09700	-1
0.10067	-7
0.10433	-14
0.10800	-20
0.11167	-25
0.11533	-25
0.11900	-23
0.12267	-17
0.12633	-12
0.13000	-11
0.13367	-13
0.13733	-18
0.14100	-22
0.14467	-23
0.14833	-22
0.15200	-18
0.15567	-12
0.15933	-8
0.16300	-6
0.16667	-7
0.17033	-5
0.17400	-4
0.17767	-3
0.18133	-5
0.18500	-8
0.18867	-13
0.19233	-19
0.19600	-24
0.19967	-25
0.20333	-23
0.20700	-21
0.21067	-24
0.21433	-30
0.21800	-33
0.22167	-31
0.22533	-29
0.22900	-30
0.23267	-32
0.23633	-32
0.24000	-30
0.24367	-23
0.24733	-12
0.25100	-3
0.25467	0
0.25833	-1
0.26200	-3
0.26567	-10
0.26933	-18
0.27300	-24
0.27667	-22
0.28033	-16
0.28400	-9
0.28767	-2
0.29133	-1
0.29500	-5
0.29867	-14
0.30233	-23
0.30600	-27
0.30967	-26
0.31333	-24
0.31700	-20
0.32067	-17
0.32433	-12
0.32800	-5
0.33167	3
0.33533	8
0.33900	7
0.34267	-1
0.34633	-10
0.35000	-15
0.35367	-21
0.35733	-26
0.36100	-30
0.36467	-31
0.36833	-32
0.37200	-31
0.37567	-27
0.37933	-20
0.38300	-15
0.38667	-14
0.39033	-17
0.39400	-18
0.39767	-15
0.40133	-11
0.40500	-13
0.40867	-20
0.41233	-28
0.41600	-33
0.41967	-29
0.42333	-18
0.42700	-8
0.43067	-7
0.43433	-14
0.43800	-22
0.44167	-29
0.44533	-36
0.44900	-40
0.45267	-39
0.45633	-38
0.46000	-37
0.46367	-36
0.46733	-33
0.47100	-30
0.47467	-33
0.47833	-39
0.48200	-42
0.48567	-42
0.48933	-41
0.49300	-40
0.49667	-38
0.50033	-35
0.50400	-31
0.50767	-29
0.51133	-33
0.51500	-40
0.51867	-45
0.52233	-46
0.52600	-42
0.52967	-37
0.53333	-36
0.53700	-37
0.54067	-38
0.54433	-36
0.54800	-35
0.55167	-34
0.55533	-33
0.55900	-30
0.56267	-27
0.56633	-27
0.57000	-31
0.57367	-34
0.57733	-33
0.58100	-30
0.58467	-28
0.58833	-28
0.59200	-30
0.59567	-35
0.59933	-38
0.60300	-41
0.60667	-44
0.61033	-49
0.61400	-53
0.61767	-53
0.62133	-50
0.62500	-46
0.62867	-40
0.63233	-31
0.63600	-22
0.63967	-16
0.64333	-15
0.64700	-20
0.65067	-24
0.65433	-27
0.65800	-29
0.66167	-31
0.66533	-35
0.66900	-40
0.67267	-44
0.67633	-42
0.68000	-38
0.68367	-34
0.68733	-31
0.69100	-31
0.69467	-34
0.69833	-37
0.70200	-41
0.70567	-45
0.70933	-46
0.71300	-45
0.71667	-46
0.72033	-47
0.72400	-49
0.72767	-52
0.73133	-54
0.73500	-54
0.73867	-51
0.74233	-48
0.74600	-43
0.74967	-36
0.75333	-34
0.75700	-35
0.76067	-36
0.76433	-35
0.76800	-35
0.77167	-38
0.77533	-44
0.77900	-52
0.78267	-57
0.78633	-57
0.79000	-55
0.79367	-52
0.79733	-47
0.80100	-44
0.80467	-43
0.80833	-39
0.81200	-29
0.81567	-20
0.81933	-16
0.82300	-16
0.82667	-20
0.83033	-26
0.83400	-35
0.83767	-42
0.84133	-53
0.84500	-64
0.84867	-71
0.85233	-73
0.85600	-74
0.85967	-76
0.86333	-74
0.86700	-68
0.87067	-63
0.87433	-61
0.87800	-61
0.88167	-64
0.88533	-66
0.88900	-68
0.89267	-67
0.89633	-62
0.90000	-55
0.90367	-50
0.90733	-50
0.91100	-54
0.91467	-59
0.91833	-63
0.92200	-67
0.92567	-70
0.92933	-71
0.93300	-68
0.93667	-63
0.94033	-57
0.94400	-51
0.94767	-45
0.95133	-37
0.95500	-35
0.95867	-40
0.96233	-49
0.96600	-56
0.96967	-63
0.97333	-71
0.97700	-79
0.98067	-82
0.98433	-81
0.98800	-79
0.99167	-79
0.99533	-79
0.99900	-78
1.00267	-71
1.00633	-59
1.01000	-50
1.01367	-49
1.01733	-54
1.02100	-61
1.02467	-65
1.02833	-69
1.03200	-68
1.03567	-66
1.03933	-64
1.04300	-63
1.04667	-61
1.05033	-61
1.05400	-58
1.05767	-55
1.06133	-56
1.06500	-65
1.06867	-78
1.07233	-87
1.07600	-91
1.07967	-91
1.08333	-92
1.08700	-93
1.09067	-92
1.09433	-90
1.09800	-86
1.10167	-82
1.10533	-79
1.10900	-73
1.11267	-66
1.11633	-62
1.12000	-62
1.12367	-68
1.12733	-74
1.13100	-79
1.13467	-81
1.13833	-79
1.14200	-79
1.14567	-80
1.14933	-81
1.15300	-79
1.15667	-77
1.16033	-77
1.16400	-81
1.16767	-89
1.17133	-97
1.17500	-103
1.17867	-103
1.18233	-98
1.18600	-90
1.18967	-81
1.19333	-75
1.19700	-73
1.20067	-78
1.20433	-83
1.20800	-87
1.21167	-88
1.21533	-86
1.21900	-83
1.22267	-80
1.22633	-77
1.23000	-71
1.23367	-63
1.23733	-60
1.24100	-62
1.24467	-67
1.24833	-71
1.25200	-74
1.25567	-76
1.25933	-75
1.26300	-73
1.26667	-72
1.27033	-72
1.27400	-73
1.27767	-75
1.28133	-74
1.28500	-75
1.28867	-82
1.29233	-91
1.29600	-97
1.29967	-101
1.30333	-101
1.30700	-97
1.31067	-91
1.31433	-86
1.31800	-82
1.32167	-79
1.32533	-76
1.32900	-73
1.33267	-74
1.33633	-80
1.34000	-88
1.34367	-93
1.34733	-94
1.35100	-95
1.35467	-96
1.35833	-99
1.36200	-101
1.36567	-100
1.36933	-98
1.37300	-98
1.37667	-93
1.38033	-86
1.38400	-75
1.38767	-62
1.39133	-52
1.39500	-49
1.39867	-54
1.40233	-67
1.40600	-85
1.40967	-101
1.41333	-107
1.41700	-107
1.42067	-106
1.42433	-108
1.42800	-107
1.43167	-105
1.43533	-104
1.43900	-104
1.44267	-83
1.44633	30
1.45000	322
1.45367	847
1.45733	1690
1.46100	2847
1.46467	4118
1.46833	5266
1.47200	6148
1.47567	6702
1.47933	6888
1.48300	6671
1.48667	6062
1.49033	5162
1.49400	4141
1.49767	3158
1.50133	2318
1.50500	1658
1.50867	1169
1.51233	816
1.51600	565
1.51967	381
1.52333	244
1.52700	143
1.53067	68
1.53433	13
1.53800	-23
1.54167	-32
1.54533	19
1.54900	183
1.55267	493
1.55633	912
1.56000	1349
1.56367	1726
1.56733	2007
1.57100	2164
1.57467	2169
1.57833	2004
1.58200	1699
1.58567	1327
1.58933	961
1.59300	647
1.59667	403
1.60033	225
1.60400	101
1.60767	21
1.61133	-28
1.61500	-58
1.61867	-76
1.62233	-89
1.62600	-102
1.62967	-113
1.63333	-121
1.63700	-128
1.64067	-133
1.64433	-134
1.64800	-133
1.65167	-133
1.65533	-134
1.65900	-135
1.66267	-136
1.66633	-136
1.67000	-135
1.67367	-135
1.67733	-135
1.68100	-136
1.68467	-136
1.68833	-136
1.69200	-135
1.69567	-133
1.69933	-128
1.70300	-124
1.70667	-122
1.71033	-121
1.71400	-121
1.71767	-120
1.72133	-120
1.72500	-121
1.72867	-123
1.73233	-125
1.73600	-129
1.73967	-133
1.74333	-135
1.74700	-134
1.75067	-132
1.75433	-130
1.75800	-131
1.76167	-129
1.76533	-123
1.76900	-115
1.77267	-110
1.77633	-111
1.78000	-114
1.78367	-116
1.78733	-116
1.79100	-117
1.79467	-118
1.79833	-121
1.80200	-127
1.80567	-135
1.80933	-140
1.81300	-142
1.81667	-141
1.82033	-138
1.82400	-132
1.82767	-125
1.83133	-118
1.83500	-114
1.83867	-109
1.84233	-102
1.84600	-95
1.84967	-90
1.85333	-88
1.85700	-89
1.86067	-94
1.86433	-101
1.86800	-108
1.87167	-114
1.87533	-120
1.87900	-124
1.88267	-122
1.88633	-115
1.89000	-109
1.89367	-106
1.89733	-104
1.90100	-103
1.90467	-102
1.90833	-102
1.91200	-104
1.91567	-106
1.91933	-108
1.92300	-113
1.92667	-115
1.93033	-114
1.93400	-113
1.93767	-111
1.94133	-108
1.94500	-103
1.94867	-98
1.95233	-94
1.95600	-79
1.95967	3
1.96333	472
1.96700	2731
1.97067	11186
1.97433	35379
1.97800	88790
1.98167	181054
1.98533	308381
1.98900	451831
1.99267	585877
1.99633	688142
2.00000	743519
2.00367	744822
2.00733	694103
2.01100	603350
2.01467	491693
2.01833	378646
2.02200	278336
2.02567	197473
2.02933	136672
2.03300	93172
2.03667	63104
2.04033	42786
2.04400	29244
2.04767	20271
2.05133	14322
2.05500	10358
2.05867	7691
2.06233	5868
2.06600	4598
2.06967	3693
2.07333	3030
2.07700	2538
2.08067	2164
2.08433	1872
2.08800	1637
2.09167	1445
2.09533	1289
2.09900	1161
2.10267	1054
2.10633	966
2.11000	889
2.11367	819
2.11733	757
2.12100	704
2.12467	660
2.12833	620
2.13200	584
2.13567	549
2.13933	515
2.14300	484
2.14667	461
2.15033	442
2.15400	423
2.15767	401
2.16133	376
2.16500	355
2.16867	337
2.17233	324
2.17600	315
2.17967	310
2.18333	304
2.18700	295
2.19067	284
2.19433	273
2.19800	260
2.20167	249
2.20533	243
2.20900	242
2.21267	242
2.21633	237
2.22000	230
2.22367	222
2.22733	212
2.23100	202
2.23467	197
2.23833	193
2.24200	191
2.24567	189
2.24933	187
2.25300	183
2.25667	181
2.26033	180
2.26400	173
2.26767	162
2.27133	148
2.27500	138
2.27867	138
2.28233	138
2.28600	137
2.28967	135
2.29333	133
2.29700	129
2.30067	124
2.30433	120
2.30800	117
2.31167	115
2.31533	114
2.31900	113
2.32267	110
2.32633	108
2.33000	105
2.33367	100
2.33733	97
2.34100	95
2.34467	97
2.34833	102
2.35200	106
2.35567	107
2.35933	103
2.36300	96
2.36667	90
2.37033	89
2.37400	91
2.37767	93
2.38133	93
2.38500	91
2.38867	87
2.39233	81
2.39600	77
2.39967	77
2.40333	81
2.40700	86
2.41067	89
2.41433	89
2.41800	90
2.42167	88
2.42533	82
2.42900	81
2.43267	83
2.43633	88
2.44000	91
2.44367	89
2.44733	83
2.45100	72
2.45467	62
2.45833	55
2.46200	50
2.46567	49
2.46933	49
2.47300	50
2.47667	51
2.48033	52
2.48400	52
2.48767	54
2.49133	58
2.49500	62
2.49867	63
2.50233	61
2.50600	58
2.50967	59
2.51333	65
2.51700	67
2.52067	64
2.52433	58
2.52800	52
2.53167	50
2.53533	54
2.53900	61
2.54267	67
2.54633	65
2.55000	60
2.55367	53
2.55733	48
2.56100	42
2.56467	39
2.56833	42
2.57200	42
2.57567	39
2.57933	33
2.58300	26
2.58667	21
2.59033	19
2.59400	21
2.59767	23
2.60133	22
2.60500	19
2.60867	18
2.61233	18
2.61600	20
2.61967	22
2.62333	26
2.62700	31
2.63067	33
2.63433	33
2.63800	32
2.64167	27
2.64533	25
2.64900	26
2.65267	30
2.65633	33
2.66000	34
2.66367	35
2.66733	36
2.67100	33
2.67467	29
2.67833	23
2.68200	15
2.68567	11
2.68933	11
2.69300	14
2.69667	20
2.70033	25
2.70400	26
2.70767	24
2.71133	20
2.71500	14
2.71867	6
2.72233	-2
2.72600	-6
2.72967	-7
2.73333	-5
2.73700	-1
2.74067	1
2.74433	1
2.74800	0
2.75167	2
2.75533	6
2.75900	7
2.76267	4
2.76633	3
2.77000	4
2.77367	9
2.77733	14
2.78100	20
2.78467	21
2.78833	19
2.79200	16
2.79567	14
2.79933	16
2.80300	17
2.80667	14
2.81033	11
2.81400	12
2.81767	11
2.82133	10
2.82500	8
2.82867	4
2.83233	0
2.83600	-1
2.83967	2
2.84333	9
2.84700	13
2.85067	11
2.85433	2
2.85800	-8
2.86167	-15
2.86533	-17
2.86900	-16
2.87267	-14
2.87633	-10
2.88000	-3
2.88367	1
2.88733	-0
2.89100	-5
2.89467	-12
2.89833	-15
2.90200	-16
2.90567	-15
2.90933	-14
2.91300	-13
2.91667	-11
2.92033	-6
2.92400	-3
2.92767	-1
2.93133	-2
2.93500	-7
2.93867	-8
2.94233	-5
2.94600	-2
2.94967	-1
2.95333	-4
2.95700	-6
2.96067	-10
2.96433	-14
2.96800	-15
2.97167	-11
2.97533	-3
2.97900	3
2.98267	4
2.98633	2
2.99000	0
2.99367	0
2.99733	0
3.00100	0
3.00467	1
3.00833	3
3.01200	9
3.01567	13
3.01933	13
3.02300	13
3.02667	12
3.03033	12
3.03400	10
3.03767	4
3.04133	-2
3.04500	-6
3.04867	-8
3.05233	-11
3.05600	-13
3.05967	-12
3.06333	-9
3.06700	-6
3.07067	-4
3.07433	-3
3.07800	-1
3.08167	3
3.08533	6
3.08900	9
3.09267	6
3.09633	-0
3.10000	-4
3.10367	-3
3.10733	1
3.11100	5
3.11467	5
3.11833	2
3.12200	-3
3.12567	-6
3.12933	-7
3.13300	-4
3.13667	-0
3.14033	1
3.14400	1
3.14767	-2
3.15133	-4
3.15500	-9
3.15867	-15
3.16233	-21
3.16600	-24
3.16967	-22
3.17333	-18
3.17700	-12
3.18067	-8
3.18433	-6
3.18800	-4
3.19167	-3
3.19533	-3
3.19900	-2
3.20267	-1
3.20633	0
3.21000	1
3.21367	0
3.21733	1
3.22100	1
3.22467	-2
3.22833	-2
3.23200	-1
3.23567	-1
3.23933	-2
3.24300	-3
3.24667	-3
3.25033	-5
3.25400	-6
3.25767	-4
3.26133	-3
3.26500	-2
3.26867	1
3.27233	5
3.27600	6
3.27967	4
3.28333	-1
3.28700	-5
3.29067	-9
3.29433	-11
3.29800	-12
3.30167	-13
3.30533	-15
3.30900	-19
3.31267	-20
3.31633	-14
3.32000	-4
3.32367	7
3.32733	13
3.33100	17
3.33467	19
3.33833	17
3.34200	12
3.34567	6
3.34933	2
3.35300	-1
3.35667	-6
3.36033	-8
3.36400	-9
3.36767	-7
3.37133	-3
3.37500	1
3.37867	3
3.38233	2
3.38600	0
3.38967	-1
3.39333	-3
3.39700	-6
3.40067	-7
3.40433	-7
3.40800	-7
3.41167	-7
3.41533	-4
3.41900	-1
3.42267	2
3.42633	5
3.43000	8
3.43367	8
3.43733	4
3.44100	-1
3.44467	-6
3.44833	-8
3.45200	-7
3.45567	-5
3.45933	-7
3.46300	-9
3.46667	-7
3.47033	1
3.47400	13
3.47767	19
3.48133	16
3.48500	7
3.48867	-1
3.49233	-7
3.49600	-8
3.49967	-4
3.50333	-1
3.50700	-2
3.51067	-7
3.51433	-11
3.51800	-11
3.52167	-10
3.52533	-13
3.52900	-22
3.53267	-34
3.53633	-43
3.54000	-44
3.54367	-43
3.54733	-41
3.55100	-38
3.55467	-33
3.55833	-30
3.56200	-27
3.56567	-26
3.56933	-26
3.57300	-28
3.57667	-29
3.58033	-28
3.58400	-22
3.58767	-14
3.59133	-8
3.59500	-6
3.59867	-6
3.60233	-8
3.60600	-10
3.60967	-10
3.61333	-8
3.61700	-6
3.62067	-3
3.62433	-2
3.62800	-5
3.63167	-10
3.63533	-16
3.63900	-24
3.64267	-29
3.64633	-28
3.65000	-23
3.65367	-19
3.65733	-18
3.66100	-17
3.66467	-13
3.66833	-7
3.67200	-3
3.67567	-2
3.67933	-3
3.68300	-5
3.68667	-5
3.69033	1
3.69400	9
3.69767	14
3.70133	12
3.70500	9
3.70867	8
3.71233	6
3.71600	2
3.71967	-4
3.72333	-12
3.72700	-21
3.73067	-25
3.73433	-25
3.73800	-20
3.74167	-16
3.74533	-12
3.74900	-10
3.75267	-14
3.75633	-22
3.76000	-31
3.76367	-38
3.76733	-39
3.77100	-35
3.77467	-26
3.77833	-20
3.78200	-19
3.78567	-19
3.78933	-22
3.79300	-25
3.79667	-29
3.80033	-34
3.80400	-39
3.80767	-41
3.81133	-38
3.81500	-36
3.81867	-35
3.82233	-32
3.82600	-29
3.82967	-27
3.83333	-25
3.83700	-25
3.84067	-25
3.84433	-25
3.84800	-26
3.85167	-29
3.85533	-33
3.85900	-37
3.86267	-37
3.86633	-35
3.87000	-29
3.87367	-23
3.87733	-18
3.88100	-10
3.88467	-4
3.88833	-4
3.89200	-8
3.89567	-13
3.89933	-17
3.90300	-19
3.90667	-20
3.91033	-20
3.91400	-20
3.91767	-21
3.92133	-23
3.92500	-22
3.92867	-18
3.93233	-16
3.93600	-15
3.93967	-15
3.94333	-15
3.94700	-13
3.95067	-13
3.95433	-13
3.95800	-14
3.96167	-15
3.96533	-17
3.96900	-19
3.97267	-19
3.97633	-15
3.98000	-13
3.98367	-13
3.98733	-13
3.99100	-11
3.99467	-8
3.99833	-5

[Chromatogram (Ch2)]
Interval(msec)	220
# of Points	1091
Start Time(min)	0.002
End Time(min)	3.998
R.Time (min)	Intensity
0.00167	0
0.00533	0
0.00900	0
0.01267	-0
0.01633	-0
0.02000	-0
0.02367	-1
0.02733	-0
0.03100	-0
0.03467	-0
0.03833	-0
0.04200	-0
0.04567	-0
0.04933	-0
0.05300	0
0.05667	0
0.06033	1
0.06400	1
0.06767	1
0.07133	1
0.07500	1
0.07867	1
0.08233	1
0.08600	1
0.08967	1
0.09333	1
0.09700	1
0.10067	1
0.10433	1
0.10800	2
0.11167	2
0.11533	2
0.11900	2
0.12267	3
0.12633	3
0.13000	3
0.13367	3
0.13733	3
0.14100	3
0.14467	2
0.14833	2
0.15200	2
0.15567	2
0.15933	1
0.16300	1
0.16667	1
0.17033	0
0.17400	0
0.17767	-0
0.18133	-0
0.18500	-1
0.18867	-1
0.19233	-1
0.19600	-1
0.19967	-1
0.20333	-1
0.20700	-1
0.21067	-1
0.21433	-1
0.21800	-1
0.22167	-1
0.22533	-1
0.22900	-1
0.23267	-1
0.23633	-1
0.24000	-1
0.24367	-0
0.24733	0
0.25100	1
0.25467	1
0.25833	1
0.26200	1
0.26567	1
0.26933	2
0.27300	2
0.27667	1
0.28033	1
0.28400	1
0.28767	1
0.29133	1
0.29500	0
0.29867	1
0.30233	0
0.30600	0
0.30967	-0
0.31333	-0
0.31700	-0
0.32067	-0
0.32433	-0
0.32800	-1
0.33167	-1
0.33533	-1
0.33900	-1
0.34267	-0
0.34633	-0
0.35000	-0
0.35367	-0
0.35733	-0
0.36100	-0
0.36467	-0
0.36833	-0
0.37200	-1
0.37567	-1
0.37933	-1
0.38300	-1
0.38667	-1
0.39033	-1
0.39400	-1
0.39767	-1
0.40133	-0
0.40500	-0
0.40867	-0
0.41233	-0
0.41600	-0
0.41967	-0
0.42333	-0
0.42700	-0
0.43067	-0
0.43433	-0
0.43800	0
0.44167	0
0.44533	0
0.44900	0
0.45267	-0
0.45633	-0
0.46000	-0
0.46367	-0
0.46733	-0
0.47100	-1
0.47467	-1
0.47833	-1
0.48200	-1
0.48567	-1
0.48933	-1
0.49300	-1
0.49667	-1
0.50033	-1
0.50400	-1
0.50767	-2
0.51133	-2
0.51500	-2
0.51867	-2
0.52233	-3
0.52600	-3
0.52967	-3
0.53333	-3
0.53700	-3
0.54067	-3
0.54433	-3
0.54800	-3
0.55167	-3
0.55533	-3
0.55900	-3
0.56267	-3
0.56633	-3
0.57000	-3
0.57367	-3
0.57733	-2
0.58100	-2
0.58467	-2
0.58833	-2
0.59200	-1
0.59567	-1
0.59933	-1
0.60300	-1
0.60667	-1
0.61033	-1
0.61400	-2
0.61767	-2
0.62133	-2
0.62500	-2
0.62867	-2
0.63233	-2
0.63600	-2
0.63967	-2
0.64333	-1
0.64700	-1
0.65067	-1
0.65433	-1
0.65800	-1
0.66167	-1
0.66533	-1
0.66900	-1
0.67267	-1
0.67633	-1
0.68000	-1
0.68367	-1
0.68733	-1
0.69100	-0
0.69467	-0
0.69833	-0
0.70200	-0
0.70567	0
0.70933	0
0.71300	0
0.71667	0
0.72033	0
0.72400	0
0.72767	-0
0.73133	-0
0.73500	-0
0.73867	-1
0.74233	-1
0.74600	-1
0.74967	-1
0.75333	-1
0.75700	-1
0.76067	-1
0.76433	-1
0.76800	-1
0.77167	-1
0.77533	-1
0.77900	-1
0.78267	-1
0.78633	-1
0.79000	-1
0.79367	-1
0.79733	-2
0.80100	-2
0.80467	-2
0.80833	-1
0.81200	-2
0.81567	-2
0.81933	-2
0.82300	-2
0.82667	-2
0.83033	-2
0.83400	-2
0.83767	-2
0.84133	-2
0.84500	-2
0.84867	-2
0.85233	-3
0.85600	-3
0.85967	-3
0.86333	-3
0.86700	-3
0.87067	-3
0.87433	-4
0.87800	-4
0.88167	-4
0.88533	-4
0.88900	-4
0.89267	-4
0.89633	-4
0.90000	-4
0.90367	-4
0.90733	-4
0.91100	-4
0.91467	-4
0.91833	-4
0.92200	-4
0.92567	-3
0.92933	-3
0.93300	-3
0.93667	-2
0.94033	-2
0.94400	-2
0.94767	-1
0.95133	-1
0.95500	-1
0.95867	-1
0.96233	-1
0.96600	-1
0.96967	-1
0.97333	-0
0.97700	-0
0.98067	-0
0.98433	-0
0.98800	-0
0.99167	-0
0.99533	-0
0.99900	-0
1.00267	0
1.00633	0
1.01000	0
1.01367	0
1.01733	0
1.02100	0
1.02467	0
1.02833	-0
1.03200	-0
1.03567	-1
1.03933	-1
1.04300	-2
1.04667	-2
1.05033	-3
1.05400	-3
1.05767	-3
1.06133	-3
1.06500	-3
1.06867	-3
1.07233	-3
1.07600	-3
1.07967	-3
1.08333	-3
1.08700	-3
1.09067	-3
1.09433	-3
1.09800	-2
1.10167	-2
1.10533	-2
1.10900	-2
1.11267	-2
1.11633	-2
1.12000	-2
1.12367	-2
1.12733	-2
1.13100	-2
1.13467	-2
1.13833	-2
1.14200	-2
1.14567	-2
1.14933	-2
1.15300	-3
1.15667	-3
1.16033	-3
1.16400	-3
1.16767	-3
1.17133	-2
1.17500	-2
1.17867	-2
1.18233	-2
1.18600	-2
1.18967	-2
1.19333	-2
1.19700	-2
1.20067	-2
1.20433	-2
1.20800	-2
1.21167	-1
1.21533	-1
1.21900	-1
1.22267	-1
1.22633	-1
1.23000	-1
1.23367	-2
1.23733	-2
1.24100	-2
1.24467	-1
1.24833	-1
1.25200	-1
1.25567	-1
1.25933	-1
1.26300	-1
1.26667	-2
1.27033	-2
1.27400	-1
1.27767	-1
1.28133	-1
1.28500	-1
1.28867	-1
1.29233	-1
1.29600	-0
1.29967	-0
1.30333	-0
1.30700	-0
1.31067	-0
1.31433	-0
1.31800	-0
1.32167	-1
1.32533	-1
1.32900	-1
1.33267	-2
1.33633	-2
1.34000	-2
1.34367	-2
1.34733	-3
1.35100	-3
1.35467	-3
1.35833	-3
1.36200	-3
1.36567	-3
1.36933	-3
1.37300	-3
1.37667	-3
1.38033	-3
1.38400	-3
1.38767	-2
1.39133	-2
1.39500	-2
1.39867	-2
1.40233	-2
1.40600	-1
1.40967	-1
1.41333	-1
1.41700	-1
1.42067	-1
1.42433	-1
1.42800	-1
1.43167	-1
1.43533	-1
1.43900	-1
1.44267	-1
1.44633	-2
1.45000	-2
1.45367	-2
1.45733	-2
1.46100	-2
1.46467	-2
1.46833	-3
1.47200	-3
1.47567	-3
1.47933	-3
1.48300	-3
1.48667	-3
1.49033	-3
1.49400	-3
1.49767	-3
1.50133	-3
1.50500	-3
1.50867	-2
1.51233	-2
1.51600	-2
1.51967	-2
1.52333	-2
1.52700	-2
1.53067	-2
1.53433	-2
1.53800	-2
1.54167	-2
1.54533	-3
1.54900	-3
1.55267	-3
1.55633	-3
1.56000	-4
1.56367	-4
1.56733	-4
1.57100	-4
1.57467	-4
1.57833	-3
1.58200	-3
1.58567	-3
1.58933	-3
1.59300	-3
1.59667	-3
1.60033	-4
1.60400	-4
1.60767	-5
1.61133	-7
1.61500	-8
1.61867	-11
1.62233	-13
1.62600	-15
1.62967	-18
1.63333	-21
1.63700	-24
1.64067	-28
1.64433	-31
1.64800	-35
1.65167	-38
1.65533	-42
1.65900	-46
1.66267	-50
1.66633	-55
1.67000	-60
1.67367	-65
1.67733	-71
1.68100	-76
1.68467	-82
1.68833	-87
1.69200	-92
1.69567	-96
1.69933	-99
1.70300	-102
1.70667	-105
1.71033	-107
1.71400	-109
1.71767	-111
1.72133	-112
1.72500	-113
1.72867	-114
1.73233	-115
1.73600	-115
1.73967	-116
1.74333	-117
1.74700	-118
1.75067	-118
1.75433	-119
1.75800	-120
1.76167	-120
1.76533	-120
1.76900	-121
1.77267	-121
1.77633	-122
1.78000	-122
1.78367	-122
1.78733	-122
1.79100	-122
1.79467	-122
1.79833	-122
1.80200	-121
1.80567	-121
1.80933	-120
1.81300	-120
1.81667	-120
1.82033	-120
1.82400	-120
1.82767	-120
1.83133	-120
1.83500	-121
1.83867	-121
1.84233	-121
1.84600	-121
1.84967	-120
1.85333	-120
1.85700	-120
1.86067	-120
1.86433	-120
1.86800	-121
1.87167	-121
1.87533	-121
1.87900	-121
1.88267	-121
1.88633	-121
1.89000	-121
1.89367	-121
1.89733	-121
1.90100	-122
1.90467	-122
1.90833	-122
1.91200	-123
1.91567	-122
1.91933	-122
1.92300	-122
1.92667	-122
1.93033	-121
1.93400	-121
1.93767	-121
1.94133	-120
1.94500	-120
1.94867	-119
1.95233	-119
1.95600	-119
1.95967	-119
1.96333	-119
1.96700	-119
1.97067	-119
1.97433	-119
1.97800	-119
1.98167	-118
1.98533	-118
1.98900	-118
1.99267	-117
1.99633	-117
2.00000	-117
2.00367	-117
2.00733	-117
2.01100	-116
2.01467	-116
2.01833	-115
2.02200	-115
2.02567	-114
2.02933	-114
2.03300	-113
2.03667	-113
2.04033	-113
2.04400	-113
2.04767	-113
2.05133	-113
2.05500	-113
2.05867	-112
2.06233	-111
2.06600	-111
2.06967	-111
2.07333	-110
2.07700	-110
2.08067	-110
2.08433	-110
2.08800	-110
2.09167	-110
2.09533	-110
2.09900	-110
2.10267	-109
2.10633	-108
2.11000	-108
2.11367	-107
2.11733	-107
2.12100	-107
2.12467	-107
2.12833	-107
2.13200	-107
2.13567	-107
2.13933	-106
2.14300	-105
2.14667	-104
2.15033	-103
2.15400	-102
2.15767	-102
2.16133	-102
2.16500	-102
2.16867	-102
2.17233	-101
2.17600	-101
2.17967	-101
2.18333	-100
2.18700	-99
2.19067	-99
2.19433	-99
2.19800	-98
2.20167	-98
2.20533	-99
2.20900	-99
2.21267	-99
2.21633	-99
2.22000	-100
2.22367	-100
2.22733	-99
2.23100	-99
2.23467	-98
2.23833	-97
2.24200	-96
2.24567	-95
2.24933	-95
2.25300	-95
2.25667	-95
2.26033	-95
2.26400	-94
2.26767	-93
2.27133	-93
2.27500	-92
2.27867	-92
2.28233	-92
2.28600	-92
2.28967	-91
2.29333	-91
2.29700	-91
2.30067	-91
2.30433	-90
2.30800	-90
2.31167	-89
2.31533	-88
2.31900	-88
2.32267	-87
2.32633	-86
2.33000	-85
2.33367	-85
2.33733	-86
2.34100	-87
2.34467	-88
2.34833	-88
2.35200	-88
2.35567	-88
2.35933	-88
2.36300	-87
2.36667	-86
2.37033	-84
2.37400	-81
2.37767	-78
2.38133	-75
2.38500	-71
2.38867	-67
2.39233	-62
2.39600	-58
2.39967	-53
2.40333	-48
2.40700	-44
2.41067	-39
2.41433	-35
2.41800	-32
2.42167	-28
2.42533	-25
2.42900	-23
2.43267	-20
2.43633	-18
2.44000	-17
2.44367	-15
2.44733	-14
2.45100	-12
2.45467	-11
2.45833	-9
2.46200	-7
2.46567	-5
2.46933	-4
2.47300	-3
2.47667	-1
2.48033	-0
2.48400	1
2.48767	2
2.49133	3
2.49500	4
2.49867	5
2.50233	6
2.50600	6
2.50967	7
2.51333	7
2.51700	8
2.52067	8
2.52433	9
2.52800	9
2.53167	9
2.53533	10
2.53900	10
2.54267	11
2.54633	11
2.55000	11
2.55367	12
2.55733	12
2.56100	12
2.56467	12
2.56833	12
2.57200	12
2.57567	13
2.57933	13
2.58300	13
2.58667	13
2.59033	13
2.59400	14
2.59767	14
2.60133	14
2.60500	14
2.60867	14
2.61233	14
2.61600	15
2.61967	15
2.62333	15
2.62700	15
2.63067	15
2.63433	15
2.63800	15
2.64167	15
2.64533	15
2.64900	15
2.65267	15
2.65633	16
2.66000	16
2.66367	17
2.66733	17
2.67100	17
2.67467	18
2.67833	18
2.68200	18
2.68567	19
2.68933	19
2.69300	19
2.69667	20
2.70033	20
2.70400	20
2.70767	21
2.71133	21
2.71500	21
2.71867	21
2.72233	21
2.72600	21
2.72967	21
2.73333	21
2.73700	21
2.74067	21
2.74433	22
2.74800	22
2.75167	23
2.75533	23
2.75900	24
2.76267	24
2.76633	24
2.77000	24
2.77367	24
2.77733	24
2.78100	25
2.78467	25
2.78833	25
2.79200	24
2.79567	24
2.79933	23
2.80300	22
2.80667	22
2.81033	21
2.81400	21
2.81767	21
2.82133	21
2.82500	21
2.82867	21
2.83233	21
2.83600	21
2.83967	21
2.84333	21
2.84700	21
2.85067	20
2.85433	17
2.85800	13
2.86167	7
2.86533	-3
2.86900	-16
2.87267	-33
2.87633	-53
2.88000	-78
2.88367	-107
2.88733	-140
2.89100	-176
2.89467	-216
2.89833	-258
2.90200	-302
2.90567	-349
2.90933	-397
2.91300	-446
2.91667	-496
2.92033	-546
2.92400	-596
2.92767	-646
2.93133	-695
2.93500	-743
2.93867	-792
2.94233	-842
2.94600	-898
2.94967	-959
2.95333	-1019
2.95700	-1067
2.96067	-1093
2.96433	-1092
2.96800	-1066
2.97167	-1019
2.97533	-955
2.97900	-881
2.98267	-802
2.98633	-721
2.99000	-643
2.99367	-568
2.99733	-498
3.00100	-434
3.00467	-377
3.00833	-325
3.01200	-280
3.01567	-240
3.01933	-205
3.02300	-175
3.02667	-148
3.03033	-126
3.03400	-106
3.03767	-89
3.04133	-75
3.04500	-63
3.04867	-52
3.05233	-42
3.05600	-35
3.05967	-28
3.06333	-22
3.06700	-17
3.07067	-13
3.07433	-10
3.07800	-7
3.08167	-4
3.08533	-2
3.08900	-0
3.09267	2
3.09633	3
3.10000	5
3.10367	6
3.10733	8
3.11100	9
3.11467	10
3.11833	10
3.12200	11
3.12567	12
3.12933	12
3.13300	13
3.13667	13
3.14033	14
3.14400	14
3.14767	15
3.15133	15
3.15500	15
3.15867	15
3.16233	16
3.16600	16
3.16967	17
3.17333	17
3.17700	17
3.18067	17
3.18433	18
3.18800	18
3.19167	18
3.19533	18
3.19900	18
3.20267	18
3.20633	18
3.21000	18
3.21367	18
3.21733	18
3.22100	18
3.22467	18
3.22833	18
3.23200	18
3.23567	18
3.23933	18
3.24300	18
3.24667	18
3.25033	18
3.25400	18
3.25767	18
3.26133	19
3.26500	19
3.26867	19
3.27233	19
3.27600	20
3.27967	20
3.28333	21
3.28700	21
3.29067	22
3.29433	22
3.29800	22
3.30167	23
3.30533	23
3.30900	24
3.31267	24
3.31633	25
3.32000	25
3.32367	25
3.32733	25
3.33100	25
3.33467	25
3.33833	25
3.34200	25
3.34567	25
3.34933	26
3.35300	26
3.35667	26
3.36033	26
3.36400	25
3.36767	25
3.37133	25
3.37500	25
3.37867	25
3.38233	25
3.38600	25
3.38967	25
3.39333	25
3.39700	25
3.40067	25
3.40433	25
3.40800	25
3.41167	25
3.41533	25
3.41900	25
3.42267	25
3.42633	25
3.43000	25
3.43367	25
3.43733	25
3.44100	25
3.44467	25
3.44833	25
3.45200	25
3.45567	25
3.45933	25
3.46300	25
3.46667	25
3.47033	25
3.47400	25
3.47767	25
3.48133	25
3.48500	25
3.48867	24
3.49233	24
3.49600	24
3.49967	24
3.50333	24
3.50700	25
3.51067	25
3.51433	25
3.51800	25
3.52167	25
3.52533	25
3.52900	24
3.53267	24
3.53633	24
3.54000	24
3.54367	24
3.54733	24
3.55100	23
3.55467	23
3.55833	23
3.56200	22
3.56567	22
3.56933	22
3.57300	22
3.57667	22
3.58033	22
3.58400	22
3.58767	23
3.59133	23
3.59500	23
3.59867	23
3.60233	23
3.60600	24
3.60967	24
3.61333	24
3.61700	24
3.62067	25
3.62433	25
3.62800	25
3.63167	25
3.63533	25
3.63900	25
3.64267	24
3.64633	24
3.65000	24
3.65367	24
3.65733	24
3.66100	24
3.66467	24
3.66833	24
3.67200	24
3.67567	24
3.67933	24
3.68300	24
3.68667	25
3.69033	25
3.69400	25
3.69767	25
3.70133	25
3.70500	25
3.70867	25
3.71233	25
3.71600	25
3.71967	25
3.72333	25
3.72700	25
3.73067	24
3.73433	24
3.73800	24
3.74167	24
3.74533	24
3.74900	24
3.75267	23
3.75633	23
3.76000	23
3.76367	23
3.76733	23
3.77100	23
3.77467	23
3.77833	23
3.78200	23
3.78567	23
3.78933	23
3.79300	23
3.79667	23
3.80033	23
3.80400	23
3.80767	23
3.81133	23
3.81500	24
3.81867	24
3.82233	24
3.82600	24
3.82967	24
3.83333	24
3.83700	24
3.84067	24
3.84433	24
3.84800	24
3.85167	24
3.85533	24
3.85900	24
3.86267	24
3.86633	24
3.87000	24
3.87367	24
3.87733	24
3.88100	23
3.88467	23
3.88833	23
3.89200	23
3.89567	23
3.89933	23
3.90300	23
3.90667	24
3.91033	24
3.91400	24
3.91767	24
3.92133	25
3.92500	25
3.92867	25
3.93233	25
3.93600	25
3.93967	25
3.94333	25
3.94700	25
3.95067	25
3.95433	25
3.95800	25
3.96167	25
3.96533	25
3.96900	25
3.97267	25
3.97633	25
3.98000	25
3.98367	25
3.98733	25
3.99100	25
3.99467	25
3.99833	25

[Chromatogram (Ch3)]
Interval(msec)	220
# of Points	1091
Start Time(min)	0.002
End Time(min)	3.998
R.Time (min)	Intensity
0.00167	0
0.00533	0
0.00900	3
0.01267	6
0.01633	7
0.02000	7
0.02367	8
0.02733	9
0.03100	9
0.03467	9
0.03833	10
0.04200	9
0.04567	8
0.04933	7
0.05300	6
0.05667	5
0.06033	4
0.06400	5
0.06767	7
0.07133	8
0.07500	7
0.07867	8
0.08233	10
0.08600	13
0.08967	13
0.09333	9
0.09700	6
0.10067	6
0.10433	6
0.10800	7
0.11167	8
0.11533	8
0.11900	8
0.12267	8
0.12633	10
0.13000	12
0.13367	14
0.13733	14
0.14100	15
0.14467	16
0.14833	19
0.15200	19
0.15567	17
0.15933	15
0.16300	14
0.16667	15
0.17033	14
0.17400	14
0.17767	16
0.18133	18
0.18500	17
0.18867	15
0.19233	16
0.19600	17
0.19967	17
0.20333	18
0.20700	19
0.21067	19
0.21433	18
0.21800	18
0.22167	17
0.22533	16
0.22900	16
0.23267	17
0.23633	19
0.24000	20
0.24367	20
0.24733	20
0.25100	20
0.25467	20
0.25833	19
0.26200	17
0.26567	15
0.26933	15
0.27300	17
0.27667	18
0.28033	19
0.28400	21
0.28767	22
0.29133	24
0.29500	26
0.29867	26
0.30233	26
0.30600	27
0.30967	28
0.31333	29
0.31700	30
0.32067	30
0.32433	29
0.32800	28
0.33167	30
0.33533	31
0.33900	28
0.34267	26
0.34633	25
0.35000	25
0.35367	24
0.35733	23
0.36100	21
0.36467	21
0.36833	21
0.37200	22
0.37567	24
0.37933	28
0.38300	29
0.38667	28
0.39033	27
0.39400	28
0.39767	30
0.40133	33
0.40500	34
0.40867	35
0.41233	35
0.41600	35
0.41967	36
0.42333	36
0.42700	34
0.43067	35
0.43433	37
0.43800	38
0.44167	38
0.44533	39
0.44900	39
0.45267	38
0.45633	36
0.46000	34
0.46367	34
0.46733	35
0.47100	37
0.47467	37
0.47833	38
0.48200	40
0.48567	40
0.48933	37
0.49300	36
0.49667	37
0.50033	39
0.50400	42
0.50767	41
0.51133	40
0.51500	40
0.51867	41
0.52233	40
0.52600	39
0.52967	38
0.53333	39
0.53700	41
0.54067	43
0.54433	43
0.54800	41
0.55167	41
0.55533	41
0.55900	41
0.56267	43
0.56633	43
0.57000	44
0.57367	44
0.57733	45
0.58100	46
0.58467	45
0.58833	45
0.59200	44
0.59567	44
0.59933	44
0.60300	44
0.60667	46
0.61033	47
0.61400	46
0.61767	44
0.62133	46
0.62500	48
0.62867	47
0.63233	45
0.63600	45
0.63967	48
0.64333	48
0.64700	49
0.65067	49
0.65433	48
0.65800	48
0.66167	46
0.66533	44
0.66900	43
0.67267	41
0.67633	40
0.68000	40
0.68367	42
0.68733	44
0.69100	46
0.69467	48
0.69833	48
0.70200	49
0.70567	49
0.70933	49
0.71300	48
0.71667	47
0.72033	45
0.72400	44
0.72767	45
0.73133	46
0.73500	50
0.73867	53
0.74233	51
0.74600	49
0.74967	49
0.75333	50
0.75700	52
0.76067	54
0.76433	54
0.76800	55
0.77167	55
0.77533	54
0.77900	52
0.78267	50
0.78633	49
0.79000	51
0.79367	51
0.79733	51
0.80100	53
0.80467	53
0.80833	54
0.81200	55
0.81567	56
0.81933	56
0.82300	56
0.82667	57
0.83033	58
0.83400	56
0.83767	54
0.84133	51
0.84500	50
0.84867	52
0.85233	54
0.85600	56
0.85967	58
0.86333	59
0.86700	60
0.87067	59
0.87433	59
0.87800	60
0.88167	62
0.88533	65
0.88900	64
0.89267	63
0.89633	64
0.90000	64
0.90367	64
0.90733	62
0.91100	59
0.91467	56
0.91833	56
0.92200	57
0.92567	58
0.92933	59
0.93300	59
0.93667	61
0.94033	62
0.94400	60
0.94767	58
0.95133	60
0.95500	62
0.95867	62
0.96233	62
0.96600	64
0.96967	65
0.97333	63
0.97700	62
0.98067	60
0.98433	58
0.98800	58
0.99167	60
0.99533	59
0.99900	61
1.00267	62
1.00633	61
1.01000	60
1.01367	56
1.01733	56
1.02100	55
1.02467	57
1.02833	61
1.03200	63
1.03567	64
1.03933	62
1.04300	60
1.04667	60
1.05033	62
1.05400	63
1.05767	62
1.06133	63
1.06500	66
1.06867	67
1.07233	66
1.07600	64
1.07967	64
1.08333	66
1.08700	69
1.09067	70
1.09433	70
1.09800	70
1.10167	69
1.10533	68
1.10900	68
1.11267	68
1.11633	70
1.12000	70
1.12367	68
1.12733	68
1.13100	68
1.13467	69
1.13833	67
1.14200	66
1.14567	67
1.14933	70
1.15300	74
1.15667	74
1.16033	72
1.16400	70
1.16767	69
1.17133	68
1.17500	64
1.17867	62
1.18233	61
1.18600	61
1.18967	62
1.19333	61
1.19700	60
1.20067	60
1.20433	61
1.20800	63
1.21167	63
1.21533	61
1.21900	60
1.22267	59
1.22633	59
1.23000	61
1.23367	63
1.23733	64
1.24100	64
1.24467	65
1.24833	64
1.25200	63
1.25567	63
1.25933	64
1.26300	65
1.26667	64
1.27033	64
1.27400	64
1.27767	63
1.28133	62
1.28500	61
1.28867	58
1.29233	56
1.29600	57
1.29967	61
1.30333	62
1.30700	63
1.31067	61
1.31433	62
1.31800	64
1.32167	63
1.32533	62
1.32900	63
1.33267	64
1.33633	66
1.34000	70
1.34367	71
1.34733	70
1.35100	68
1.35467	66
1.35833	65
1.36200	64
1.36567	63
1.36933	62
1.37300	63
1.37667	61
1.38033	61
1.38400	62
1.38767	64
1.39133	65
1.39500	64
1.39867	64
1.40233	65
1.40600	66
1.40967	68
1.41333	69
1.41700	70
1.42067	68
1.42433	68
1.42800	70
1.43167	70
1.43533	70
1.43900	70
1.44267	70
1.44633	68
1.45000	67
1.45367	67
1.45733	70
1.46100	71
1.46467	70
1.46833	70
1.47200	69
1.47567	69
1.47933	70
1.48300	70
1.48667	70
1.49033	70
1.49400	71
1.49767	72
1.50133	72
1.50500	71
1.50867	69
1.51233	66
1.51600	65
1.51967	65
1.52333	65
1.52700	67
1.53067	68
1.53433	69
1.53800	69
1.54167	71
1.54533	71
1.54900	71
1.55267	71
1.55633	72
1.56000	71
1.56367	69
1.56733	68
1.57100	68
1.57467	70
1.57833	72
1.58200	73
1.58567	73
1.58933	72
1.59300	71
1.59667	70
1.60033	70
1.60400	68
1.60767	67
1.61133	66
1.61500	64
1.61867	63
1.62233	65
1.62600	66
1.62967	68
1.63333	68
1.63700	70
1.64067	74
1.64433	75
1.64800	73
1.65167	72
1.65533	72
1.65900	71
1.66267	70
1.66633	71
1.67000	73
1.67367	77
1.67733	79
1.68100	81
1.68467	79
1.68833	79
1.69200	81
1.69567	84
1.69933	84
1.70300	83
1.70667	82
1.71033	82
1.71400	83
1.71767	87
1.72133	89
1.72500	90
1.72867	90
1.73233	90
1.73600	92
1.73967	93
1.74333	92
1.74700	89
1.75067	87
1.75433	89
1.75800	93
1.76167	96
1.76533	98
1.76900	98
1.77267	101
1.77633	104
1.78000	103
1.78367	101
1.78733	100
1.79100	101
1.79467	102
1.79833	104
1.80200	103
1.80567	102
1.80933	101
1.81300	102
1.81667	105
1.82033	108
1.82400	109
1.82767	110
1.83133	111
1.83500	114
1.83867	114
1.84233	114
1.84600	114
1.84967	116
1.85333	116
1.85700	112
1.86067	111
1.86433	111
1.86800	114
1.87167	115
1.87533	114
1.87900	112
1.88267	111
1.88633	111
1.89000	112
1.89367	112
1.89733	111
1.90100	111
1.90467	113
1.90833	116
1.91200	118
1.91567	118
1.91933	119
1.92300	120
1.92667	119
1.93033	118
1.93400	119
1.93767	119
1.94133	120
1.94500	122
1.94867	123
1.95233	125
1.95600	127
1.95967	128
1.96333	129
1.96700	129
1.97067	130
1.97433	130
1.97800	129
1.98167	129
1.98533	131
1.98900	133
1.99267	134
1.99633	136
2.00000	137
2.00367	136
2.00733	135
2.01100	135
2.01467	137
2.01833	140
2.02200	142
2.02567	143
2.02933	143
2.03300	144
2.03667	144
2.04033	146
2.04400	147
2.04767	149
2.05133	150
2.05500	152
2.05867	155
2.06233	159
2.06600	164
2.06967	166
2.07333	166
2.07700	165
2.08067	163
2.08433	164
2.08800	166
2.09167	167
2.09533	168
2.09900	168
2.10267	169
2.10633	170
2.11000	170
2.11367	171
2.11733	173
2.12100	175
2.12467	179
2.12833	182
2.13200	184
2.13567	185
2.13933	187
2.14300	190
2.14667	191
2.15033	193
2.15400	193
2.15767	193
2.16133	195
2.16500	196
2.16867	196
2.17233	197
2.17600	197
2.17967	196
2.18333	196
2.18700	198
2.19067	199
2.19433	202
2.19800	205
2.20167	208
2.20533	209
2.20900	208
2.21267	208
2.21633	208
2.22000	210
2.22367	213
2.22733	218
2.23100	220
2.23467	219
2.23833	218
2.24200	218
2.24567	219
2.24933	219
2.25300	219
2.25667	219
2.26033	220
2.26400	224
2.26767	223
2.27133	223
2.27500	222
2.27867	222
2.28233	224
2.28600	228
2.28967	229
2.29333	230
2.29700	229
2.30067	229
2.30433	231
2.30800	230
2.31167	229
2.31533	229
2.31900	229
2.32267	230
2.32633	230
2.33000	234
2.33367	236
2.33733	236
2.34100	237
2.34467	239
2.34833	240
2.35200	239
2.35567	239
2.35933	239
2.36300	238
2.36667	239
2.37033	240
2.37400	242
2.37767	243
2.38133	243
2.38500	241
2.38867	240
2.39233	240
2.39600	241
2.39967	241
2.40333	243
2.40700	244
2.41067	245
2.41433	246
2.41800	246
2.42167	247
2.42533	250
2.42900	253
2.43267	254
2.43633	256
2.44000	258
2.44367	257
2.44733	257
2.45100	253
2.45467	247
2.45833	242
2.46200	236
2.46567	229
2.46933	220
2.47300	215
2.47667	212
2.48033	208
2.48400	207
2.48767	206
2.49133	205
2.49500	199
2.49867	193
2.50233	189
2.50600	185
2.50967	181
2.51333	180
2.51700	180
2.52067	178
2.52433	177
2.52800	175
2.53167	171
2.53533	168
2.53900	168
2.54267	168
2.54633	168
2.55000	166
2.55367	164
2.55733	164
2.56100	162
2.56467	157
2.56833	147
2.57200	137
2.57567	141
2.57933	163
2.58300	203
2.58667	253
2.59033	307
2.59400	365
2.59767	421
2.60133	474
2.60500	520
2.60867	558
2.61233	586
2.61600	605
2.61967	618
2.62333	625
2.62700	628
2.63067	630
2.63433	630
2.63800	630
2.64167	631
2.64533	635
2.64900	644
2.65267	655
2.65633	668
2.66000	681
2.66367	696
2.66733	714
2.67100	730
2.67467	743
2.67833	758
2.68200	774
2.68567	790
2.68933	804
2.69300	814
2.69667	824
2.70033	833
2.70400	842
2.70767	850
2.71133	857
2.71500	864
2.71867	871
2.72233	877
2.72600	882
2.72967	883
2.73333	882
2.73700	882
2.74067	884
2.74433	886
2.74800	888
2.75167	891
2.75533	891
2.75900	890
2.76267	887
2.76633	884
2.77000	881
2.77367	880
2.77733	880
2.78100	880
2.78467	878
2.78833	875
2.79200	875
2.79567	874
2.79933	874
2.80300	873
2.80667	872
2.81033	870
2.81400	868
2.81767	866
2.82133	868
2.82500	869
2.82867	872
2.83233	887
2.83600	914
2.83967	973
2.84333	1085
2.84700	1274
2.85067	1559
2.85433	1944
2.85800	2429
2.86167	2991
2.86533	3592
2.86900	4187
2.87267	4728
2.87633	5168
2.88000	5479
2.88367	5645
2.88733	5665
2.89100	5557
2.89467	5350
2.89833	5070
2.90200	4742
2.90567	4390
2.90933	4037
2.91300	3694
2.91667	3369
2.92033	3065
2.92400	2786
2.92767	2534
2.93133	2309
2.93500	2113
2.93867	1940
2.94233	1784
2.94600	1650
2.94967	1533
2.95333	1433
2.95700	1342
2.96067	1265
2.96433	1199
2.96800	1144
2.97167	1095
2.97533	1051
2.97900	1011
2.98267	979
2.98633	949
2.99000	924
2.99367	904
2.99733	886
3.00100	869
3.00467	856
3.00833	843
3.01200	830
3.01567	819
3.01933	805
3.02300	792
3.02667	783
3.03033	775
3.03400	767
3.03767	763
3.04133	759
3.04500	756
3.04867	753
3.05233	748
3.05600	742
3.05967	735
3.06333	729
3.06700	727
3.07067	723
3.07433	721
3.07800	720
3.08167	718
3.08533	713
3.08900	709
3.09267	706
3.09633	704
3.10000	700
3.10367	697
3.10733	696
3.11100	695
3.11467	692
3.11833	687
3.12200	682
3.12567	677
3.12933	674
3.13300	672
3.13667	668
3.14033	664
3.14400	663
3.14767	660
3.15133	657
3.15500	655
3.15867	653
3.16233	649
3.16600	647
3.16967	645
3.17333	642
3.17700	636
3.18067	630
3.18433	626
3.18800	625
3.19167	624
3.19533	623
3.19900	620
3.20267	617
3.20633	615
3.21000	615
3.21367	613
3.21733	612
3.22100	608
3.22467	604
3.22833	601
3.23200	598
3.23567	595
3.23933	592
3.24300	588
3.24667	585
3.25033	582
3.25400	581
3.25767	581
3.26133	580
3.26500	581
3.26867	580
3.27233	577
3.27600	574
3.27967	570
3.28333	567
3.28700	563
3.29067	559
3.29433	556
3.29800	553
3.30167	550
3.30533	547
3.30900	541
3.31267	535
3.31633	531
3.32000	529
3.32367	525
3.32733	523
3.33100	519
3.33467	515
3.33833	511
3.34200	508
3.34567	509
3.34933	508
3.35300	505
3.35667	501
3.36033	497
3.36400	492
3.36767	491
3.37133	490
3.37500	489
3.37867	487
3.38233	484
3.38600	481
3.38967	477
3.39333	473
3.39700	468
3.40067	464
3.40433	461
3.40800	460
3.41167	457
3.41533	455
3.41900	453
3.42267	449
3.42633	444
3.43000	441
3.43367	437
3.43733	434
3.44100	430
3.44467	428
3.44833	427
3.45200	425
3.45567	422
3.45933	419
3.46300	417
3.46667	414
3.47033	411
3.47400	408
3.47767	407
3.48133	406
3.48500	405
3.48867	404
3.49233	403
3.49600	400
3.49967	396
3.50333	392
3.50700	390
3.51067	387
3.51433	386
3.51800	385
3.52167	382
3.52533	379
3.52900	377
3.53267	376
3.53633	377
3.54000	375
3.54367	373
3.54733	370
3.55100	369
3.55467	369
3.55833	367
3.56200	362
3.56567	358
3.56933	356
3.57300	356
3.57667	358
3.58033	360
3.58400	360
3.58767	358
3.59133	355
3.59500	355
3.59867	353
3.60233	352
3.60600	350
3.60967	347
3.61333	341
3.61700	339
3.62067	339
3.62433	340
3.62800	340
3.63167	337
3.63533	335
3.63900	336
3.64267	336
3.64633	335
3.65000	333
3.65367	332
3.65733	331
3.66100	328
3.66467	325
3.66833	321
3.67200	321
3.67567	322
3.67933	322
3.68300	319
3.68667	318
3.69033	317
3.69400	315
3.69767	314
3.70133	314
3.70500	312
3.70867	311
3.71233	311
3.71600	308
3.71967	306
3.72333	305
3.72700	303
3.73067	302
3.73433	300
3.73800	297
3.74167	295
3.74533	294
3.74900	294
3.75267	293
3.75633	291
3.76000	292
3.76367	295
3.76733	294
3.77100	292
3.77467	290
3.77833	288
3.78200	287
3.78567	288
3.78933	290
3.79300	290
3.79667	292
3.80033	292
3.80400	289
3.80767	289
3.81133	288
3.81500	285
3.81867	283
3.82233	284
3.82600	286
3.82967	288
3.83333	289
3.83700	286
3.84067	281
3.84433	281
3.84800	280
3.85167	280
3.85533	282
3.85900	282
3.86267	283
3.86633	282
3.87000	281
3.87367	281
3.87733	278
3.88100	275
3.88467	272
3.88833	269
3.89200	266
3.89567	264
3.89933	261
3.90300	260
3.90667	257
3.91033	253
3.91400	250
3.91767	250
3.92133	252
3.92500	253
3.92867	253
3.93233	254
3.93600	253
3.93967	253
3.94333	252
3.94700	252
3.95067	252
3.95433	249
3.95800	248
3.96167	247
3.96533	247
3.96900	245
3.97267	242
3.97633	240
3.98000	240
3.98367	240
3.98733	239
3.99100	240
3.99467	241
3.99833	240

[Status Trace (Column Oven Temperature)]
Interval(msec)	1000
# of Points	240
Start Time(min)	0.007
End Time(min)	3.990
Intensity Units	
Intensity Multiplier	1
R.Time (min)	Intensity
0.00658	34.99
0.02325	34.99
0.03992	34.99
0.05658	34.98
0.07325	34.98
0.08992	34.98
0.10658	34.98
0.12325	34.98
0.13992	34.97
0.15658	34.97
0.17325	34.98
0.18992	34.99
0.20658	34.99
0.22325	34.99
0.23992	34.98
0.25658	34.97
0.27325	34.96
0.28992	34.97
0.30658	34.97
0.32325	34.98
0.33992	34.97
0.35658	34.97
0.37325	34.97
0.38992	34.97
0.40658	34.97
0.42325	34.97
0.43992	34.96
0.45658	34.97
0.47325	34.98
0.48992	34.97
0.50658	34.98
0.52325	34.99
0.53992	35.00
0.55658	35.00
0.57325	35.00
0.58992	35.00
0.60658	35.01
0.62325	35.01
0.63992	35.02
0.65658	35.01
0.67325	35.00
0.68992	35.00
0.70658	34.98
0.72325	34.98
0.73992	34.98
0.75658	34.99
0.77325	34.99
0.78992	34.99
0.80658	34.99
0.82325	35.00
0.83992	35.00
0.85658	35.01
0.87325	35.02
0.88992	35.02
0.90658	35.02
0.92325	35.02
0.93992	35.01
0.95658	35.01
0.97325	35.00
0.98992	35.00
1.00658	35.00
1.02325	35.00
1.03992	35.00
1.05658	35.01
1.07325	35.00
1.08992	35.00
1.10658	35.00
1.12325	35.00
1.13992	35.01
1.15658	35.01
1.17325	35.01
1.18992	35.01
1.20658	35.00
1.22325	35.00
1.23992	34.99
1.25658	34.99
1.27325	35.00
1.28992	35.00
1.30658	34.99
1.32325	35.00
1.33992	35.01
1.35658	35.00
1.37325	35.00
1.38992	34.99
1.40658	34.99
1.42325	34.98
1.43992	35.00
1.45658	35.01
1.47325	35.00
1.48992	35.01
1.50658	35.00
1.52325	35.00
1.53992	35.01
1.55658	35.01
1.57325	35.02
1.58992	35.02
1.60658	35.05
1.62325	35.17
1.63992	35.34
1.65658	35.58
1.67325	35.92
1.68992	36.28
1.70658	36.64
1.72325	36.99
1.73992	37.33
1.75658	37.66
1.77325	38.00
1.78992	38.33
1.80658	38.64
1.82325	38.98
1.83992	39.31
1.85658	39.63
1.87325	39.97
1.88992	40.29
1.90658	40.63
1.92325	40.95
1.93992	41.28
1.95658	41.60
1.97325	41.94
1.98992	42.26
2.00658	42.59
2.02325	42.91
2.03992	43.23
2.05658	43.56
2.07325	43.89
2.08992	44.23
2.10658	44.55
2.12325	44.89
2.13992	45.21
2.15658	45.53
2.17325	45.87
2.18992	46.19
2.20658	46.54
2.22325	46.86
2.23992	47.18
2.25658	47.50
2.27325	47.81
2.28992	48.15
2.30658	48.49
2.32325	48.78
2.33992	49.15
2.35658	49.44
2.37325	49.61
2.38992	49.66
2.40658	49.67
2.42325	49.67
2.43992	49.68
2.45658	49.69
2.47325	49.71
2.48992	49.70
2.50658	49.72
2.52325	49.74
2.53992	49.74
2.55658	49.76
2.57325	49.76
2.58992	49.78
2.60658	49.79
2.62325	49.81
2.63992	49.83
2.65658	49.84
2.67325	49.86
2.68992	49.85
2.70658	49.85
2.72325	49.87
2.73992	49.87
2.75658	49.86
2.77325	49.85
2.78992	49.86
2.80658	49.89
2.82325	49.91
2.83992	49.92
2.85658	49.93
2.87325	49.94
2.88992	49.94
2.90658	49.95
2.92325	49.95
2.93992	49.96
2.95658	49.97
2.97325	49.97
2.98992	49.98
3.00658	50.00
3.02325	50.01
3.03992	50.02
3.05658	50.04
3.07325	50.04
3.08992	50.04
3.10658	50.04
3.12325	50.04
3.13992	50.05
3.15658	50.05
3.17325	50.06
3.18992	50.07
3.20658	50.07
3.22325	50.08
3.23992	50.10
3.25658	50.12
3.27325	50.12
3.28992	50.11
3.30658	50.10
3.32325	50.07
3.33992	50.06
3.35658	50.05
3.37325	50.04
3.38992	50.03
3.40658	50.02
3.42325	50.02
3.43992	50.02
3.45658	50.01
3.47325	50.02
3.48992	50.03
3.50658	50.02
3.52325	50.02
3.53992	50.03
3.55658	50.05
3.57325	50.05
3.58992	50.05
3.60658	50.05
3.62325	50.05
3.63992	50.06
3.65658	50.06
3.67325	50.05
3.68992	50.04
3.70658	50.04
3.72325	50.04
3.73992	50.05
3.75658	50.06
3.77325	50.06
3.78992	50.06
3.80658	50.06
3.82325	50.06
3.83992	50.06
3.85658	50.06
3.87325	50.06
3.88992	50.06
3.90658	50.06
3.92325	50.06
3.93992	50.05
3.95658	50.06
3.97325	50.05
3.98992	50.05

[Status Trace (Injection Unit Temperature)]
Interval(msec)	1000
# of Points	240
Start Time(min)	0.007
End Time(min)	3.990
Intensity Units	
Intensity Multiplier	1
R.Time (min)	Intensity
0.00658	99.99
0.02325	99.98
0.03992	99.99
0.05658	99.98
0.07325	99.98
0.08992	99.98
0.10658	99.98
0.12325	99.98
0.13992	99.98
0.15658	99.98
0.17325	99.98
0.18992	99.98
0.20658	99.98
0.22325	99.98
0.23992	99.97
0.25658	99.98
0.27325	99.98
0.28992	99.98
0.30658	99.98
0.32325	99.98
0.33992	99.98
0.35658	99.98
0.37325	99.98
0.38992	99.98
0.40658	99.98
0.42325	99.98
0.43992	99.98
0.45658	99.98
0.47325	99.98
0.48992	99.98
0.50658	99.98
0.52325	99.98
0.53992	99.98
0.55658	99.98
0.57325	99.98
0.58992	99.98
0.60658	99.99
0.62325	99.98
0.63992	99.99
0.65658	99.98
0.67325	99.99
0.68992	99.99
0.70658	99.98
0.72325	99.99
0.73992	99.99
0.75658	99.98
0.77325	99.99
0.78992	99.99
0.80658	99.99
0.82325	99.99
0.83992	99.99
0.85658	99.99
0.87325	99.98
0.88992	99.99
0.90658	99.99
0.92325	99.99
0.93992	99.99
0.95658	99.99
0.97325	99.98
0.98992	99.99
1.00658	99.99
1.02325	99.99
1.03992	99.99
1.05658	99.99
1.07325	99.99
1.08992	99.99
1.10658	99.99
1.12325	99.99
1.13992	99.99
1.15658	99.99
1.17325	99.99
1.18992	99.99
1.20658	99.98
1.22325	99.99
1.23992	99.98
1.25658	99.98
1.27325	99.98
1.28992	99.99
1.30658	99.99
1.32325	99.99
1.33992	99.98
1.35658	99.98
1.37325	99.99
1.38992	99.99
1.40658	99.99
1.42325	99.99
1.43992	99.99
1.45658	99.99
1.47325	99.98
1.48992	99.98
1.50658	99.99
1.52325	99.98
1.53992	99.98
1.55658	99.98
1.57325	99.99
1.58992	99.98
1.60658	99.98
1.62325	99.98
1.63992	99.99
1.65658	99.99
1.67325	99.99
1.68992	99.98
1.70658	99.98
1.72325	99.99
1.73992	99.99
1.75658	99.98
1.77325	99.99
1.78992	99.99
1.80658	99.99
1.82325	99.98
1.83992	99.98
1.85658	99.98
1.87325	99.98
1.88992	99.98
1.90658	99.98
1.92325	99.98
1.93992	99.98
1.95658	99.98
1.97325	99.98
1.98992	99.98
2.00658	99.98
2.02325	99.98
2.03992	99.98
2.05658	99.98
2.07325	99.97
2.08992	99.97
2.10658	99.97
2.12325	99.98
2.13992	99.97
2.15658	99.97
2.17325	99.97
2.18992	99.97
2.20658	99.97
2.22325	99.97
2.23992	99.97
2.25658	99.97
2.27325	99.98
2.28992	99.97
2.30658	99.97
2.32325	99.97
2.33992	99.97
2.35658	99.97
2.37325	99.97
2.38992	99.97
2.40658	99.97
2.42325	99.97
2.43992	99.97
2.45658	99.98
2.47325	99.97
2.48992	99.97
2.50658	99.98
2.52325	99.97
2.53992	99.98
2.55658	99.98
2.57325	99.98
2.58992	99.98
2.60658	99.98
2.62325	99.98
2.63992	99.98
2.65658	99.98
2.67325	99.98
2.68992	99.99
2.70658	99.99
2.72325	99.99
2.73992	99.99
2.75658	99.99
2.77325	99.99
2.78992	100.00
2.80658	99.99
2.82325	100.00
2.83992	99.99
2.85658	100.00
2.87325	100.00
2.88992	100.01
2.90658	100.00
2.92325	100.00
2.93992	100.01
2.95658	100.01
2.97325	100.01
2.98992	100.01
3.00658	100.01
3.02325	100.01
3.03992	100.02
3.05658	100.02
3.07325	100.02
3.08992	100.02
3.10658	100.02
3.12325	100.02
3.13992	100.03
3.15658	100.03
3.17325	100.03
3.18992	100.03
3.20658	100.03
3.22325	100.03
3.23992	100.03
3.25658	100.03
3.27325	100.04
3.28992	100.04
3.30658	100.04
3.32325	100.04
3.33992	100.04
3.35658	100.04
3.37325	100.04
3.38992	100.04
3.40658	100.04
3.42325	100.04
3.43992	100.04
3.45658	100.04
3.47325	100.04
3.48992	100.04
3.50658	100.04
3.52325	100.04
3.53992	100.04
3.55658	100.05
3.57325	100.05
3.58992	100.04
3.60658	100.04
3.62325	100.05
3.63992	100.04
3.65658	100.05
3.67325	100.05
3.68992	100.05
3.70658	100.04
3.72325	100.04
3.73992	100.04
3.75658	100.04
3.77325	100.05
3.78992	100.05
3.80658	100.05
3.82325	100.05
3.83992	100.05
3.85658	100.05
3.87325	100.05
3.88992	100.05
3.90658	100.04
3.92325	100.05
3.93992	100.04
3.95658	100.04
3.97325	100.05
3.98992	100.05

[Status Trace (Carrier Gas Pressure)]
Interval(msec)	1000
# of Points	240
Start Time(min)	0.007
End Time(min)	3.990
Intensity Units	
Intensity Multiplier	1
R.Time (min)	Intensity
0.00658	58.00
0.02325	55.64
0.03992	56.87
0.05658	59.05
0.07325	59.69
0.08992	58.13
0.10658	57.97
0.12325	58.01
0.13992	58.01
0.15658	58.01
0.17325	58.00
0.18992	58.00
0.20658	58.00
0.22325	58.00
0.23992	58.00
0.25658	58.00
0.27325	58.00
0.28992	58.00
0.30658	58.00
0.32325	58.00
0.33992	58.00
0.35658	58.00
0.37325	58.00
0.38992	58.00
0.40658	58.00
0.42325	58.00
0.43992	58.00
0.45658	58.00
0.47325	58.00
0.48992	58.00
0.50658	58.00
0.52325	58.00
0.53992	58.00
0.55658	58.00
0.57325	58.00
0.58992	58.00
0.60658	58.00
0.62325	58.00
0.63992	58.00
0.65658	58.00
0.67325	58.00
0.68992	58.00
0.70658	58.00
0.72325	58.00
0.73992	58.00
0.75658	58.00
0.77325	58.00
0.78992	58.00
0.80658	58.00
0.82325	58.00
0.83992	58.00
0.85658	58.00
0.87325	58.00
0.88992	58.00
0.90658	58.00
0.92325	58.00
0.93992	58.00
0.95658	58.00
0.97325	58.00
0.98992	58.00
1.00658	58.00
1.02325	58.00
1.03992	58.00
1.05658	58.00
1.07325	58.00
1.08992	58.00
1.10658	58.00
1.12325	58.00
1.13992	58.00
1.15658	58.00
1.17325	58.00
1.18992	58.00
1.20658	58.00
1.22325	58.00
1.23992	58.00
1.25658	58.00
1.27325	58.00
1.28992	58.00
1.30658	58.00
1.32325	58.00
1.33992	58.00
1.35658	58.00
1.37325	58.00
1.38992	58.00
1.40658	58.00
1.42325	58.00
1.43992	58.00
1.45658	58.00
1.47325	58.00
1.48992	58.00
1.50658	58.00
1.52325	58.00
1.53992	58.00
1.55658	58.00
1.57325	58.00
1.58992	58.00
1.60658	58.00
1.62325	58.00
1.63992	58.00
1.65658	58.00
1.67325	58.01
1.68992	58.01
1.70658	58.00
1.72325	58.00
1.73992	58.00
1.75658	58.00
1.77325	58.00
1.78992	58.00
1.80658	58.00
1.82325	58.00
1.83992	58.00
1.85658	58.00
1.87325	58.00
1.88992	58.00
1.90658	58.00
1.92325	58.00
1.93992	58.00
1.95658	58.00
1.97325	58.00
1.98992	58.00
2.00658	58.00
2.02325	58.00
2.03992	58.00
2.05658	58.00
2.07325	58.00
2.08992	58.00
2.10658	58.00
2.12325	58.00
2.13992	58.00
2.15658	58.00
2.17325	58.00
2.18992	58.00
2.20658	58.00
2.22325	58.00
2.23992	58.00
2.25658	58.00
2.27325	58.00
2.28992	58.00
2.30658	58.00
2.32325	58.00
2.33992	58.00
2.35658	58.00
2.37325	57.99
2.38992	57.99
2.40658	57.99
2.42325	58.00
2.43992	58.00
2.45658	58.00
2.47325	58.00
2.48992	58.00
2.50658	58.00
2.52325	57.99
2.53992	58.00
2.55658	58.00
2.57325	58.00
2.58992	58.00
2.60658	58.00
2.62325	58.00
2.63992	58.00
2.65658	58.00
2.67325	58.00
2.68992	58.00
2.70658	58.00
2.72325	58.00
2.73992	58.00
2.75658	58.00
2.77325	58.00
2.78992	58.00
2.80658	58.00
2.82325	58.00
2.83992	58.00
2.85658	58.00
2.87325	58.00
2.88992	58.00
2.90658	58.00
2.92325	58.00
2.93992	58.00
2.95658	58.00
2.97325	58.00
2.98992	58.00
3.00658	58.00
3.02325	58.00
3.03992	58.00
3.05658	58.00
3.07325	58.00
3.08992	58.00
3.10658	58.00
3.12325	58.00
3.13992	58.00
3.15658	58.00
3.17325	58.00
3.18992	58.00
3.20658	58.00
3.22325	58.00
3.23992	58.00
3.25658	58.00
3.27325	58.00
3.28992	58.00
3.30658	58.00
3.32325	58.00
3.33992	58.00
3.35658	58.00
3.37325	58.00
3.38992	58.00
3.40658	58.00
3.42325	58.00
3.43992	58.00
3.45658	58.00
3.47325	58.00
3.48992	58.00
3.50658	58.00
3.52325	58.00
3.53992	58.00
3.55658	58.00
3.57325	58.00
3.58992	58.00
3.60658	58.00
3.62325	58.00
3.63992	58.00
3.65658	58.00
3.67325	58.00
3.68992	58.00
3.70658	58.00
3.72325	58.00
3.73992	58.00
3.75658	58.00
3.77325	58.00
3.78992	58.00
3.80658	58.00
3.82325	58.00
3.83992	58.00
3.85658	58.00
3.87325	58.00
3.88992	58.00
3.90658	58.00
3.92325	58.00
3.93992	58.00
3.95658	58.00
3.97325	58.00
3.98992	58.00

[Status Trace (Carrier Gas Flow)]
Interval(msec)	1000
# of Points	240
Start Time(min)	0.007
End Time(min)	3.990
Intensity Units	
Intensity Multiplier	1
R.Time (min)	Intensity
0.00658	34.52
0.02325	34.54
0.03992	34.54
0.05658	34.55
0.07325	34.49
0.08992	34.52
0.10658	34.52
0.12325	34.52
0.13992	34.52
0.15658	34.52
0.17325	34.52
0.18992	34.52
0.20658	34.52
0.22325	34.52
0.23992	34.52
0.25658	34.52
0.27325	34.52
0.28992	34.52
0.30658	34.52
0.32325	34.52
0.33992	34.52
0.35658	34.52
0.37325	34.52
0.38992	34.52
0.40658	34.52
0.42325	34.52
0.43992	34.52
0.45658	34.52
0.47325	34.52
0.48992	34.52
0.50658	34.52
0.52325	34.52
0.53992	34.52
0.55658	34.52
0.57325	34.52
0.58992	34.52
0.60658	34.52
0.62325	34.52
0.63992	34.52
0.65658	34.52
0.67325	34.52
0.68992	34.52
0.70658	34.52
0.72325	34.52
0.73992	34.52
0.75658	34.52
0.77325	34.52
0.78992	34.52
0.80658	34.52
0.82325	34.52
0.83992	34.52
0.85658	34.52
0.87325	34.52
0.88992	34.52
0.90658	34.52
0.92325	34.52
0.93992	34.52
0.95658	34.52
0.97325	34.52
0.98992	34.52
1.00658	34.52
1.02325	34.52
1.03992	34.52
1.05658	34.52
1.07325	34.52
1.08992	34.52
1.10658	34.52
1.12325	34.52
1.13992	34.52
1.15658	34.52
1.17325	34.52
1.18992	34.52
1.20658	34.52
1.22325	34.52
1.23992	34.52
1.25658	34.52
1.27325	34.52
1.28992	34.52
1.30658	34.52
1.32325	34.52
1.33992	34.52
1.35658	34.52
1.37325	34.52
1.38992	34.52
1.40658	34.52
1.42325	34.52
1.43992	34.52
1.45658	34.52
1.47325	34.52
1.48992	34.52
1.50658	34.52
1.52325	34.52
1.53992	34.52
1.55658	34.52
1.57325	34.52
1.58992	34.52
1.60658	34.52
1.62325	34.52
1.63992	34.52
1.65658	34.52
1.67325	34.52
1.68992	34.52
1.70658	34.52
1.72325	34.52
1.73992	34.52
1.75658	34.52
1.77325	34.52
1.78992	34.52
1.80658	34.52
1.82325	34.52
1.83992	34.52
1.85658	34.52
1.87325	34.52
1.88992	34.52
1.90658	34.52
1.92325	34.52
1.93992	34.52
1.95658	34.52
1.97325	34.52
1.98992	34.52
2.00658	34.52
2.02325	34.52
2.03992	34.52
2.05658	34.52
2.07325	34.52
2.08992	34.52
2.10658	34.52
2.12325	34.52
2.13992	34.52
2.15658	34.52
2.17325	34.52
2.18992	34.52
2.20658	34.52
2.22325	34.52
2.23992	34.52
2.25658	34.52
2.27325	34.52
2.28992	34.52
2.30658	34.52
2.32325	34.52
2.33992	34.52
2.35658	34.52
2.37325	34.52
2.38992	34.52
2.40658	34.52
2.42325	34.52
2.43992	34.52
2.45658	34.52
2.47325	34.52
2.48992	34.52
2.50658	34.41
2.52325	34.52
2.53992	34.52
2.55658	34.52
2.57325	34.52
2.58992	34.52
2.60658	34.52
2.62325	34.52
2.63992	34.52
2.65658	34.52
2.67325	34.52
2.68992	34.52
2.70658	34.52
2.72325	34.52
2.73992	34.52
2.75658	34.52
2.77325	34.52
2.78992	34.52
2.80658	34.52
2.82325	34.52
2.83992	34.52
2.85658	34.52
2.87325	34.52
2.88992	34.52
2.90658	34.52
2.92325	34.52
2.93992	34.52
2.95658	34.52
2.97325	34.52
2.98992	34.52
3.00658	34.52
3.02325	34.52
3.03992	34.52
3.05658	34.52
3.07325	34.52
3.08992	34.52
3.10658	34.52
3.12325	34.52
3.13992	34.52
3.15658	34.52
3.17325	34.52
3.18992	34.52
3.20658	34.52
3.22325	34.52
3.23992	34.52
3.25658	34.52
3.27325	34.54
3.28992	34.53
3.30658	34.51
3.32325	34.52
3.33992	34.52
3.35658	34.51
3.37325	34.52
3.38992	34.52
3.40658	34.51
3.42325	34.52
3.43992	34.52
3.45658	34.53
3.47325	34.53
3.48992	34.54
3.50658	34.52
3.52325	34.52
3.53992	34.52
3.55658	34.52
3.57325	34.52
3.58992	34.52
3.60658	34.52
3.62325	34.52
3.63992	34.52
3.65658	34.52
3.67325	34.52
3.68992	34.52
3.70658	34.52
3.72325	34.52
3.73992	34.52
3.75658	34.52
3.77325	34.52
3.78992	34.52
3.80658	34.52
3.82325	34.52
3.83992	34.52
3.85658	34.52
3.87325	34.52
3.88992	34.52
3.90658	34.52
3.92325	34.52
3.93992	34.52
3.95658	34.52
3.97325	34.52
3.98992	34.52

[Status Trace (Column Flow)]
Interval(msec)	1000
# of Points	240
Start Time(min)	0.007
End Time(min)	3.990
Intensity Units	
Intensity Multiplier	1
R.Time (min)	Intensity
0.00658	5.52
0.02325	5.25
0.03992	5.39
0.05658	5.64
0.07325	5.72
0.08992	5.54
0.10658	5.52
0.12325	5.52
0.13992	5.52
0.15658	5.52
0.17325	5.52
0.18992	5.52
0.20658	5.52
0.22325	5.52
0.23992	5.52
0.25658	5.52
0.27325	5.52
0.28992	5.52
0.30658	5.52
0.32325	5.52
0.33992	5.52
0.35658	5.52
0.37325	5.52
0.38992	5.52
0.40658	5.52
0.42325	5.52
0.43992	5.52
0.45658	5.52
0.47325	5.52
0.48992	5.52
0.50658	5.52
0.52325	5.52
0.53992	5.52
0.55658	5.52
0.57325	5.52
0.58992	5.52
0.60658	5.52
0.62325	5.52
0.63992	5.52
0.65658	5.52
0.67325	5.52
0.68992	5.52
0.70658	5.52
0.72325	5.52
0.73992	5.52
0.75658	5.52
0.77325	5.52
0.78992	5.52
0.80658	5.52
0.82325	5.52
0.83992	5.52
0.85658	5.52
0.87325	5.52
0.88992	5.52
0.90658	5.52
0.92325	5.52
0.93992	5.52
0.95658	5.52
0.97325	5.52
0.98992	5.52
1.00658	5.52
1.02325	5.52
1.03992	5.52
1.05658	5.52
1.07325	5.52
1.08992	5.52
1.10658	5.52
1.12325	5.52
1.13992	5.52
1.15658	5.52
1.17325	5.52
1.18992	5.52
1.20658	5.52
1.22325	5.52
1.23992	5.52
1.25658	5.52
1.27325	5.52
1.28992	5.52
1.30658	5.52
1.32325	5.52
1.33992	5.52
1.35658	5.52
1.37325	5.52
1.38992	5.52
1.40658	5.52
1.42325	5.52
1.43992	5.52
1.45658	5.52
1.47325	5.52
1.48992	5.52
1.50658	5.52
1.52325	5.52
1.53992	5.52
1.55658	5.52
1.57325	5.52
1.58992	5.52
1.60658	5.52
1.62325	5.52
1.63992	5.51
1.65658	5.50
1.67325	5.49
1.68992	5.48
1.70658	5.47
1.72325	5.46
1.73992	5.45
1.75658	5.44
1.77325	5.43
1.78992	5.42
1.80658	5.41
1.82325	5.40
1.83992	5.39
1.85658	5.38
1.87325	5.37
1.88992	5.36
1.90658	5.35
1.92325	5.34
1.93992	5.33
1.95658	5.32
1.97325	5.31
1.98992	5.30
2.00658	5.29
2.02325	5.28
2.03992	5.27
2.05658	5.26
2.07325	5.25
2.08992	5.24
2.10658	5.23
2.12325	5.22
2.13992	5.21
2.15658	5.20
2.17325	5.19
2.18992	5.19
2.20658	5.18
2.22325	5.17
2.23992	5.16
2.25658	5.15
2.27325	5.14
2.28992	5.13
2.30658	5.12
2.32325	5.11
2.33992	5.10
2.35658	5.09
2.37325	5.09
2.38992	5.09
2.40658	5.09
2.42325	5.09
2.43992	5.09
2.45658	5.09
2.47325	5.09
2.48992	5.09
2.50658	5.09
2.52325	5.08
2.53992	5.08
2.55658	5.08
2.57325	5.08
2.58992	5.08
2.60658	5.08
2.62325	5.08
2.63992	5.08
2.65658	5.08
2.67325	5.08
2.68992	5.08
2.70658	5.08
2.72325	5.08
2.73992	5.08
2.75658	5.08
2.77325	5.08
2.78992	5.08
2.80658	5.08
2.82325	5.08
2.83992	5.08
2.85658	5.08
2.87325	5.08
2.88992	5.08
2.90658	5.08
2.92325	5.08
2.93992	5.08
2.95658	5.08
2.97325	5.08
2.98992	5.08
3.00658	5.08
3.02325	5.08
3.03992	5.08
3.05658	5.08
3.07325	5.08
3.08992	5.08
3.10658	5.08
3.12325	5.08
3.13992	5.08
3.15658	5.08
3.17325	5.08
3.18992	5.08
3.20658	5.08
3.22325	5.08
3.23992	5.08
3.25658	5.07
3.27325	5.07
3.28992	5.07
3.30658	5.08
3.32325	5.08
3.33992	5.08
3.35658	5.08
3.37325	5.08
3.38992	5.08
3.40658	5.08
3.42325	5.08
3.43992	5.08
3.45658	5.08
3.47325	5.08
3.48992	5.08
3.50658	5.08
3.52325	5.08
3.53992	5.08
3.55658	5.08
3.57325	5.08
3.58992	5.08
3.60658	5.08
3.62325	5.08
3.63992	5.08
3.65658	5.08
3.67325	5.08
3.68992	5.08
3.70658	5.08
3.72325	5.08
3.73992	5.08
3.75658	5.08
3.77325	5.08
3.78992	5.08
3.80658	5.08
3.82325	5.08
3.83992	5.08
3.85658	5.08
3.87325	5.08
3.88992	5.08
3.90658	5.08
3.92325	5.08
3.93992	5.08
3.95658	5.08
3.97325	5.08
3.98992	5.08

[Status Trace (Linear Velocity)]
Interval(msec)	1000
# of Points	240
Start Time(min)	0.007
End Time(min)	3.990
Intensity Units	
Intensity Multiplier	1
R.Time (min)	Intensity
0.00658	39.02
0.02325	37.47
0.03992	38.27
0.05658	39.70
0.07325	40.13
0.08992	39.11
0.10658	39.00
0.12325	39.02
0.13992	39.03
0.15658	39.02
0.17325	39.02
0.18992	39.02
0.20658	39.02
0.22325	39.02
0.23992	39.02
0.25658	39.02
0.27325	39.02
0.28992	39.02
0.30658	39.02
0.32325	39.02
0.33992	39.02
0.35658	39.02
0.37325	39.02
0.38992	39.02
0.40658	39.02
0.42325	39.02
0.43992	39.02
0.45658	39.02
0.47325	39.02
0.48992	39.02
0.50658	39.02
0.52325	39.02
0.53992	39.02
0.55658	39.02
0.57325	39.02
0.58992	39.02
0.60658	39.02
0.62325	39.01
0.63992	39.02
0.65658	39.02
0.67325	39.02
0.68992	39.02
0.70658	39.02
0.72325	39.02
0.73992	39.02
0.75658	39.02
0.77325	39.02
0.78992	39.02
0.80658	39.02
0.82325	39.02
0.83992	39.02
0.85658	39.02
0.87325	39.01
0.88992	39.01
0.90658	39.01
0.92325	39.01
0.93992	39.01
0.95658	39.02
0.97325	39.02
0.98992	39.02
1.00658	39.02
1.02325	39.02
1.03992	39.02
1.05658	39.02
1.07325	39.02
1.08992	39.02
1.10658	39.02
1.12325	39.02
1.13992	39.02
1.15658	39.02
1.17325	39.02
1.18992	39.02
1.20658	39.02
1.22325	39.02
1.23992	39.02
1.25658	39.02
1.27325	39.02
1.28992	39.02
1.30658	39.02
1.32325	39.02
1.33992	39.02
1.35658	39.02
1.37325	39.02
1.38992	39.02
1.40658	39.02
1.42325	39.02
1.43992	39.02
1.45658	39.02
1.47325	39.02
1.48992	39.02
1.50658	39.02
1.52325	39.02
1.53992	39.02
1.55658	39.02
1.57325	39.01
1.58992	39.01
1.60658	39.01
1.62325	39.00
1.63992	38.99
1.65658	38.97
1.67325	38.94
1.68992	38.90
1.70658	38.86
1.72325	38.83
1.73992	38.80
1.75658	38.77
1.77325	38.73
1.78992	38.70
1.80658	38.67
1.82325	38.64
1.83992	38.61
1.85658	38.58
1.87325	38.55
1.88992	38.52
1.90658	38.49
1.92325	38.46
1.93992	38.43
1.95658	38.40
1.97325	38.36
1.98992	38.33
2.00658	38.30
2.02325	38.27
2.03992	38.25
2.05658	38.21
2.07325	38.18
2.08992	38.15
2.10658	38.12
2.12325	38.09
2.13992	38.06
2.15658	38.04
2.17325	38.00
2.18992	37.98
2.20658	37.95
2.22325	37.91
2.23992	37.89
2.25658	37.86
2.27325	37.83
2.28992	37.80
2.30658	37.77
2.32325	37.74
2.33992	37.71
2.35658	37.68
2.37325	37.67
2.38992	37.66
2.40658	37.66
2.42325	37.66
2.43992	37.66
2.45658	37.66
2.47325	37.66
2.48992	37.66
2.50658	37.65
2.52325	37.65
2.53992	37.65
2.55658	37.65
2.57325	37.65
2.58992	37.65
2.60658	37.65
2.62325	37.65
2.63992	37.65
2.65658	37.65
2.67325	37.65
2.68992	37.65
2.70658	37.65
2.72325	37.64
2.73992	37.64
2.75658	37.64
2.77325	37.65
2.78992	37.65
2.80658	37.64
2.82325	37.64
2.83992	37.64
2.85658	37.64
2.87325	37.64
2.88992	37.64
2.90658	37.64
2.92325	37.64
2.93992	37.64
2.95658	37.64
2.97325	37.64
2.98992	37.63
3.00658	37.63
3.02325	37.63
3.03992	37.63
3.05658	37.63
3.07325	37.63
3.08992	37.63
3.10658	37.63
3.12325	37.63
3.13992	37.63
3.15658	37.63
3.17325	37.63
3.18992	37.63
3.20658	37.63
3.22325	37.63
3.23992	37.62
3.25658	37.62
3.27325	37.62
3.28992	37.62
3.30658	37.62
3.32325	37.63
3.33992	37.63
3.35658	37.63
3.37325	37.63
3.38992	37.63
3.40658	37.63
3.42325	37.63
3.43992	37.63
3.45658	37.63
3.47325	37.63
3.48992	37.63
3.50658	37.63
3.52325	37.63
3.53992	37.63
3.55658	37.63
3.57325	37.63
3.58992	37.63
3.60658	37.63
3.62325	37.63
3.63992	37.63
3.65658	37.63
3.67325	37.63
3.68992	37.63
3.70658	37.63
3.72325	37.63
3.73992	37.63
3.75658	37.63
3.77325	37.63
3.78992	37.63
3.80658	37.63
3.82325	37.63
3.83992	37.63
3.85658	37.63
3.87325	37.63
3.88992	37.63
3.90658	37.63
3.92325	37.63
3.93992	37.63
3.95658	37.63
3.97325	37.63
3.98992	37.63

