[Header]
Application Name	LabSolutions
Version	5.110
Data File Name	C:\Users\User\Desktop\GC Analyses\Jack\UIC Prairie Sampling\7.22.22\220722_074.gcd
Output Date	10/5/2022
Output Time	2:13:42 PM

[File Information]
Type	Data File
Generated	9/29/2022 2:36:49 PM
Generated by	System Administrator
Modified	9/29/2022 2:41:57 PM
Modified by	System Administrator

[Sample Information]
Operator Name	System Administrator
Acquired	9/29/2022 2:37:57 PM
Sample Type	1:Standard
Level	1
Sample Name	220722_UICPrairie
Sample ID	220722_UICPrairie
ISTD Amount1	1
ISTD Amount2	1
ISTD Amount3	1
ISTD Amount4	1
ISTD Amount5	1
ISTD Amount6	1
ISTD Amount7	1
ISTD Amount8	1
ISTD Amount9	1
ISTD Amount10	1
ISTD Amount11	1
ISTD Amount12	1
ISTD Amount13	1
ISTD Amount14	1
ISTD Amount15	1
ISTD Amount16	1
ISTD Amount17	1
ISTD Amount18	1
ISTD Amount19	1
ISTD Amount20	1
ISTD Amount21	1
ISTD Amount22	1
ISTD Amount23	1
ISTD Amount24	1
ISTD Amount25	1
ISTD Amount26	1
ISTD Amount27	1
ISTD Amount28	1
ISTD Amount29	1
ISTD Amount30	1
ISTD Amount31	1
ISTD Amount32	1
Sample Amount	1
Dilution Factor	1
Vial#	1
Injection Volume	1
Injection Count	1
Bar Code	

[Original Files]
Data File	C:\Users\User\Desktop\GC Analyses\Jack\UIC Prairie Sampling\7.22.22\220722_074.gcd
Method File	C:\LabSolutions\Data\GHG_4min_2022\ghg3_togas_w_acet_4 min_new_int.gcm
Batch File	
Report Format File	c:\LabSolutions\System\DEFAULT.lsr

[File Description]


[Configuration]
Instrument Name	C0B7VH3-Instrument1
Instrument #	1
Line #	1
# of Detectors	3
Detector ID	DET#1	DET#2	DET#3
Detector Name	FID	PTCD	ECD
# of Channels	1	1	1

[Peak Table(Ch1)]
# of Peaks	3
Peak#	R.Time	I.Time	F.Time	Area	Height	A/H	Conc.	Mark	ID#	Name	k'	Plate #	Plate Ht.	Tailing	Resolution	Sep.Factor	Area Ratio	Height Ratio	Conc. %	Norm Conc.
1	1.476	1.439	1.538	15006	6721	2.233	100.000	   	1	CO	0.000	8405	17.846	1.233	0.000	0.000	0	0	16.667	16.667
2	1.571	1.538	1.622	5426	2782	1.950	100.000	 V 	2	CH4	0.065	11692	12.830	1.138	1.556	0.000	0	0	16.667	16.667
3	2.000	1.952	2.275	1137456	550764	2.065	400.000	   	3	CO2	0.355	17679	8.484	1.158	7.254	5.500	0	0	66.667	66.667

[Peak Table(Ch2)]
# of Peaks	0

[Peak Table(Ch3)]
# of Peaks	3
Peak#	R.Time	I.Time	F.Time	Area	Height	A/H	Conc.	Mark	ID#	Name	k'	Plate #	Plate Ht.	Tailing	Resolution	Sep.Factor	Area Ratio	Height Ratio	Conc. %	Norm Conc.
1	2.444	1.534	2.480	6678	270	24.701	0.000	   			0.000	263	571.260	0.000	0.000	0.000	0	0	0.000	0.000
2	2.590	2.480	2.645	1743	252	6.904	0.000	 V 			0.060	1894	79.210	0.000	0.349	0.000	0	0	0.000	0.000
3	2.880	2.656	3.921	32320	5983	5.402	1.000	   	1	N2O	0.179	12192	12.304	1.833	1.692	2.975	0	0	100.000	100.000

[Compound Results(Ch1)]
# of IDs	6
ID#	Name	R.Time	Area	Height	Conc.	Curve	3rd	2nd	1st	Constant	Area Ratio	Height Ratio	Conc. %	Norm Conc.
1	CO	1.476	15006	6721	100.000	Linear	0.000000e+00	0.000000e+00	1.500578e+002	0.000000e+00	0	0	16.667	16.667
2	CH4	1.571	5426	2782	100.000	Linear	0.000000e+00	0.000000e+00	5.426398e+001	0.000000e+00	0	0	16.667	16.667
3	CO2	2.000	1137456	550764	400.000	Linear	0.000000e+00	0.000000e+00	2.843641e+003	0.000000e+00	0	0	66.667	66.667
4	Ethylene	0.000	0	0	0.000	Linear	0.000000e+00	0.000000e+00	0.000000e+00	0.000000e+00	0	0	0.000	0.000
5	Acetylene	0.000	0	0	0.000	Linear	0.000000e+00	0.000000e+00	0.000000e+00	0.000000e+00	0	0	0.000	0.000
6	Ethane	0.000	0	0	0.000	Linear	0.000000e+00	0.000000e+00	0.000000e+00	0.000000e+00	0	0	0.000	0.000

[Compound Results(Ch2)]
# of IDs	5
ID#	Name	R.Time	Area	Height	Conc.	Curve	3rd	2nd	1st	Constant	Area Ratio	Height Ratio	Conc. %	Norm Conc.
1	Hydrogen	0.000	0	0	0.000	Linear	0.000000e+00	0.000000e+00	0.000000e+00	0.000000e+00	0	0	0.000	0.000
2	Oxygen	0.000	0	0	0.000	Linear	0.000000e+00	0.000000e+00	0.000000e+00	0.000000e+00	0	0	0.000	0.000
3	Nitrogen	0.000	0	0	0.000	Linear	0.000000e+00	0.000000e+00	0.000000e+00	0.000000e+00	0	0	0.000	0.000
4	Methane	0.000	0	0	0.000	Linear	0.000000e+00	0.000000e+00	0.000000e+00	0.000000e+00	0	0	0.000	0.000
5	Carbon Monoxide	0.000	0	0	0.000	Linear	0.000000e+00	0.000000e+00	0.000000e+00	0.000000e+00	0	0	0.000	0.000

[Compound Results(Ch3)]
# of IDs	2
ID#	Name	R.Time	Area	Height	Conc.	Curve	3rd	2nd	1st	Constant	Area Ratio	Height Ratio	Conc. %	Norm Conc.
1	N2O	2.880	32320	5983	1.000	Linear	0.000000e+00	0.000000e+00	3.231953e+004	0.000000e+00	0	0	100.000	100.000
2	SF6	0.000	0	0	0.000	Linear	0.000000e+00	0.000000e+00	0.000000e+00	0.000000e+00	0	0	0.000	0.000

[Group Results(Ch1)]
# of Groups	0

[Group Results(Ch2)]
# of Groups	0

[Group Results(Ch3)]
# of Groups	0

[Chromatogram (Ch1)]
Interval(msec)	220
# of Points	1091
Start Time(min)	0.002
End Time(min)	3.998
R.Time (min)	Intensity
0.00167	-15
0.00533	-15
0.00900	-16
0.01267	-13
0.01633	-9
0.02000	-6
0.02367	2
0.02733	11
0.03100	17
0.03467	19
0.03833	18
0.04200	13
0.04567	7
0.04933	1
0.05300	-2
0.05667	-3
0.06033	-2
0.06400	-3
0.06767	-5
0.07133	-6
0.07500	-6
0.07867	-3
0.08233	0
0.08600	4
0.08967	6
0.09333	5
0.09700	1
0.10067	-2
0.10433	-3
0.10800	-2
0.11167	-0
0.11533	1
0.11900	-1
0.12267	-5
0.12633	-7
0.13000	-9
0.13367	-12
0.13733	-14
0.14100	-12
0.14467	-8
0.14833	-2
0.15200	4
0.15567	9
0.15933	10
0.16300	5
0.16667	-2
0.17033	-8
0.17400	-12
0.17767	-14
0.18133	-14
0.18500	-13
0.18867	-10
0.19233	-7
0.19600	-3
0.19967	-1
0.20333	-6
0.20700	-15
0.21067	-20
0.21433	-22
0.21800	-18
0.22167	-17
0.22533	-18
0.22900	-21
0.23267	-21
0.23633	-20
0.24000	-16
0.24367	-11
0.24733	-5
0.25100	0
0.25467	8
0.25833	11
0.26200	8
0.26567	1
0.26933	-8
0.27300	-17
0.27667	-20
0.28033	-13
0.28400	-8
0.28767	-6
0.29133	-9
0.29500	-14
0.29867	-23
0.30233	-27
0.30600	-24
0.30967	-18
0.31333	-14
0.31700	-11
0.32067	-12
0.32433	-12
0.32800	-13
0.33167	-15
0.33533	-16
0.33900	-19
0.34267	-22
0.34633	-23
0.35000	-20
0.35367	-14
0.35733	-9
0.36100	-5
0.36467	-6
0.36833	-12
0.37200	-23
0.37567	-34
0.37933	-42
0.38300	-48
0.38667	-51
0.39033	-47
0.39400	-36
0.39767	-27
0.40133	-26
0.40500	-29
0.40867	-28
0.41233	-29
0.41600	-29
0.41967	-27
0.42333	-22
0.42700	-18
0.43067	-18
0.43433	-19
0.43800	-17
0.44167	-20
0.44533	-25
0.44900	-28
0.45267	-27
0.45633	-21
0.46000	-14
0.46367	-11
0.46733	-20
0.47100	-34
0.47467	-44
0.47833	-47
0.48200	-49
0.48567	-51
0.48933	-51
0.49300	-46
0.49667	-38
0.50033	-35
0.50400	-34
0.50767	-32
0.51133	-30
0.51500	-28
0.51867	-26
0.52233	-24
0.52600	-25
0.52967	-27
0.53333	-28
0.53700	-31
0.54067	-35
0.54433	-35
0.54800	-34
0.55167	-29
0.55533	-24
0.55900	-22
0.56267	-25
0.56633	-29
0.57000	-32
0.57367	-34
0.57733	-33
0.58100	-35
0.58467	-35
0.58833	-32
0.59200	-28
0.59567	-24
0.59933	-21
0.60300	-23
0.60667	-30
0.61033	-34
0.61400	-34
0.61767	-34
0.62133	-36
0.62500	-35
0.62867	-33
0.63233	-34
0.63600	-38
0.63967	-40
0.64333	-40
0.64700	-42
0.65067	-44
0.65433	-42
0.65800	-37
0.66167	-38
0.66533	-39
0.66900	-37
0.67267	-34
0.67633	-34
0.68000	-34
0.68367	-31
0.68733	-28
0.69100	-26
0.69467	-24
0.69833	-22
0.70200	-24
0.70567	-29
0.70933	-37
0.71300	-46
0.71667	-54
0.72033	-62
0.72400	-67
0.72767	-69
0.73133	-65
0.73500	-60
0.73867	-54
0.74233	-50
0.74600	-45
0.74967	-42
0.75333	-36
0.75700	-29
0.76067	-26
0.76433	-29
0.76800	-34
0.77167	-41
0.77533	-49
0.77900	-53
0.78267	-53
0.78633	-52
0.79000	-53
0.79367	-53
0.79733	-56
0.80100	-59
0.80467	-60
0.80833	-61
0.81200	-61
0.81567	-63
0.81933	-66
0.82300	-70
0.82667	-73
0.83033	-73
0.83400	-72
0.83767	-69
0.84133	-65
0.84500	-58
0.84867	-49
0.85233	-40
0.85600	-32
0.85967	-28
0.86333	-28
0.86700	-32
0.87067	-37
0.87433	-41
0.87800	-43
0.88167	-45
0.88533	-49
0.88900	-50
0.89267	-50
0.89633	-53
0.90000	-56
0.90367	-58
0.90733	-57
0.91100	-59
0.91467	-64
0.91833	-66
0.92200	-62
0.92567	-55
0.92933	-48
0.93300	-43
0.93667	-41
0.94033	-46
0.94400	-55
0.94767	-64
0.95133	-72
0.95500	-75
0.95867	-73
0.96233	-71
0.96600	-68
0.96967	-66
0.97333	-66
0.97700	-66
0.98067	-64
0.98433	-62
0.98800	-57
0.99167	-49
0.99533	-45
0.99900	-42
1.00267	-41
1.00633	-43
1.01000	-42
1.01367	-40
1.01733	-41
1.02100	-46
1.02467	-54
1.02833	-62
1.03200	-67
1.03567	-68
1.03933	-66
1.04300	-63
1.04667	-60
1.05033	-62
1.05400	-69
1.05767	-73
1.06133	-72
1.06500	-70
1.06867	-67
1.07233	-62
1.07600	-58
1.07967	-57
1.08333	-59
1.08700	-61
1.09067	-62
1.09433	-64
1.09800	-67
1.10167	-69
1.10533	-71
1.10900	-74
1.11267	-74
1.11633	-70
1.12000	-63
1.12367	-57
1.12733	-54
1.13100	-55
1.13467	-60
1.13833	-66
1.14200	-71
1.14567	-75
1.14933	-75
1.15300	-72
1.15667	-71
1.16033	-72
1.16400	-72
1.16767	-66
1.17133	-59
1.17500	-55
1.17867	-53
1.18233	-56
1.18600	-60
1.18967	-65
1.19333	-68
1.19700	-71
1.20067	-72
1.20433	-71
1.20800	-71
1.21167	-76
1.21533	-81
1.21900	-83
1.22267	-83
1.22633	-81
1.23000	-80
1.23367	-79
1.23733	-79
1.24100	-78
1.24467	-76
1.24833	-76
1.25200	-78
1.25567	-84
1.25933	-89
1.26300	-90
1.26667	-91
1.27033	-93
1.27400	-96
1.27767	-97
1.28133	-92
1.28500	-81
1.28867	-69
1.29233	-64
1.29600	-64
1.29967	-68
1.30333	-71
1.30700	-73
1.31067	-76
1.31433	-81
1.31800	-84
1.32167	-85
1.32533	-84
1.32900	-77
1.33267	-71
1.33633	-66
1.34000	-64
1.34367	-63
1.34733	-67
1.35100	-75
1.35467	-85
1.35833	-92
1.36200	-98
1.36567	-102
1.36933	-103
1.37300	-97
1.37667	-88
1.38033	-80
1.38400	-73
1.38767	-68
1.39133	-64
1.39500	-67
1.39867	-75
1.40233	-82
1.40600	-86
1.40967	-87
1.41333	-88
1.41700	-85
1.42067	-75
1.42433	-64
1.42800	-58
1.43167	-57
1.43533	-61
1.43900	-45
1.44267	55
1.44633	330
1.45000	823
1.45367	1596
1.45733	2666
1.46100	3872
1.46467	4984
1.46833	5857
1.47200	6429
1.47567	6668
1.47933	6542
1.48300	6047
1.48667	5250
1.49033	4294
1.49400	3335
1.49767	2490
1.50133	1804
1.50500	1278
1.50867	893
1.51233	616
1.51600	413
1.51967	264
1.52333	154
1.52700	74
1.53067	21
1.53433	-15
1.53800	-33
1.54167	0
1.54533	160
1.54900	505
1.55267	1005
1.55633	1554
1.56000	2046
1.56367	2423
1.56733	2655
1.57100	2708
1.57467	2552
1.57833	2207
1.58200	1757
1.58567	1300
1.58933	907
1.59300	602
1.59667	377
1.60033	217
1.60400	106
1.60767	30
1.61133	-19
1.61500	-48
1.61867	-69
1.62233	-85
1.62600	-93
1.62967	-93
1.63333	-94
1.63700	-99
1.64067	-103
1.64433	-104
1.64800	-104
1.65167	-103
1.65533	-104
1.65900	-106
1.66267	-109
1.66633	-112
1.67000	-115
1.67367	-118
1.67733	-117
1.68100	-115
1.68467	-113
1.68833	-113
1.69200	-113
1.69567	-113
1.69933	-112
1.70300	-112
1.70667	-114
1.71033	-116
1.71400	-116
1.71767	-115
1.72133	-112
1.72500	-109
1.72867	-108
1.73233	-109
1.73600	-111
1.73967	-113
1.74333	-117
1.74700	-121
1.75067	-121
1.75433	-120
1.75800	-117
1.76167	-115
1.76533	-115
1.76900	-115
1.77267	-113
1.77633	-111
1.78000	-112
1.78367	-113
1.78733	-115
1.79100	-119
1.79467	-122
1.79833	-120
1.80200	-115
1.80567	-112
1.80933	-113
1.81300	-115
1.81667	-114
1.82033	-112
1.82400	-109
1.82767	-106
1.83133	-104
1.83500	-107
1.83867	-111
1.84233	-113
1.84600	-114
1.84967	-117
1.85333	-119
1.85700	-120
1.86067	-116
1.86433	-111
1.86800	-109
1.87167	-111
1.87533	-116
1.87900	-120
1.88267	-120
1.88633	-118
1.89000	-116
1.89367	-114
1.89733	-113
1.90100	-112
1.90467	-110
1.90833	-105
1.91200	-97
1.91567	-89
1.91933	-83
1.92300	-79
1.92667	-79
1.93033	-85
1.93400	-92
1.93767	-98
1.94133	-101
1.94500	-102
1.94867	-100
1.95233	-91
1.95600	-28
1.95967	352
1.96333	2161
1.96700	8753
1.97067	27146
1.97433	67008
1.97800	134998
1.98167	228013
1.98533	332297
1.98900	429999
1.99267	505473
1.99633	547677
2.00000	550699
2.00367	515554
2.00733	450427
2.01100	368856
2.01467	285278
2.01833	210493
2.02200	149824
2.02567	103989
2.02933	71076
2.03300	48256
2.03667	32800
2.04033	22476
2.04400	15620
2.04767	11064
2.05133	8019
2.05500	5961
2.05867	4551
2.06233	3564
2.06600	2858
2.06967	2343
2.07333	1958
2.07700	1665
2.08067	1434
2.08433	1251
2.08800	1101
2.09167	980
2.09533	883
2.09900	804
2.10267	736
2.10633	677
2.11000	624
2.11367	579
2.11733	542
2.12100	508
2.12467	477
2.12833	448
2.13200	422
2.13567	399
2.13933	378
2.14300	357
2.14667	336
2.15033	312
2.15400	292
2.15767	279
2.16133	275
2.16500	274
2.16867	264
2.17233	246
2.17600	228
2.17967	215
2.18333	206
2.18700	200
2.19067	193
2.19433	183
2.19800	171
2.20167	161
2.20533	152
2.20900	144
2.21267	138
2.21633	137
2.22000	136
2.22367	138
2.22733	139
2.23100	137
2.23467	132
2.23833	126
2.24200	119
2.24567	111
2.24933	105
2.25300	103
2.25667	103
2.26033	101
2.26400	96
2.26767	90
2.27133	85
2.27500	83
2.27867	83
2.28233	80
2.28600	76
2.28967	75
2.29333	73
2.29700	69
2.30067	66
2.30433	68
2.30800	73
2.31167	76
2.31533	75
2.31900	69
2.32267	60
2.32633	50
2.33000	41
2.33367	37
2.33733	40
2.34100	45
2.34467	47
2.34833	45
2.35200	39
2.35567	37
2.35933	39
2.36300	46
2.36667	53
2.37033	57
2.37400	59
2.37767	56
2.38133	52
2.38500	48
2.38867	42
2.39233	39
2.39600	42
2.39967	49
2.40333	55
2.40700	58
2.41067	57
2.41433	55
2.41800	54
2.42167	53
2.42533	49
2.42900	44
2.43267	40
2.43633	38
2.44000	38
2.44367	39
2.44733	39
2.45100	39
2.45467	41
2.45833	43
2.46200	44
2.46567	42
2.46933	43
2.47300	44
2.47667	40
2.48033	32
2.48400	22
2.48767	13
2.49133	10
2.49500	12
2.49867	17
2.50233	19
2.50600	20
2.50967	21
2.51333	22
2.51700	22
2.52067	23
2.52433	25
2.52800	26
2.53167	29
2.53533	37
2.53900	47
2.54267	51
2.54633	49
2.55000	46
2.55367	42
2.55733	39
2.56100	35
2.56467	31
2.56833	24
2.57200	17
2.57567	11
2.57933	6
2.58300	5
2.58667	8
2.59033	14
2.59400	18
2.59767	18
2.60133	18
2.60500	25
2.60867	34
2.61233	42
2.61600	47
2.61967	52
2.62333	57
2.62700	58
2.63067	52
2.63433	41
2.63800	23
2.64167	7
2.64533	-5
2.64900	-11
2.65267	-10
2.65633	-1
2.66000	8
2.66367	15
2.66733	21
2.67100	27
2.67467	31
2.67833	34
2.68200	31
2.68567	25
2.68933	18
2.69300	11
2.69667	7
2.70033	9
2.70400	13
2.70767	18
2.71133	24
2.71500	29
2.71867	33
2.72233	35
2.72600	35
2.72967	33
2.73333	31
2.73700	30
2.74067	29
2.74433	31
2.74800	33
2.75167	38
2.75533	41
2.75900	42
2.76267	40
2.76633	36
2.77000	34
2.77367	32
2.77733	29
2.78100	26
2.78467	27
2.78833	28
2.79200	30
2.79567	34
2.79933	41
2.80300	43
2.80667	40
2.81033	36
2.81400	33
2.81767	32
2.82133	30
2.82500	25
2.82867	18
2.83233	11
2.83600	10
2.83967	13
2.84333	20
2.84700	26
2.85067	30
2.85433	32
2.85800	33
2.86167	37
2.86533	38
2.86900	38
2.87267	38
2.87633	36
2.88000	32
2.88367	28
2.88733	21
2.89100	12
2.89467	4
2.89833	2
2.90200	5
2.90567	11
2.90933	18
2.91300	22
2.91667	23
2.92033	26
2.92400	25
2.92767	20
2.93133	15
2.93500	12
2.93867	12
2.94233	11
2.94600	7
2.94967	1
2.95333	-2
2.95700	-0
2.96067	3
2.96433	5
2.96800	11
2.97167	20
2.97533	26
2.97900	30
2.98267	32
2.98633	33
2.99000	34
2.99367	26
2.99733	18
3.00100	14
3.00467	14
3.00833	18
3.01200	22
3.01567	26
3.01933	27
3.02300	25
3.02667	21
3.03033	17
3.03400	13
3.03767	8
3.04133	2
3.04500	-2
3.04867	-3
3.05233	-3
3.05600	-4
3.05967	-6
3.06333	-10
3.06700	-12
3.07067	-10
3.07433	-8
3.07800	-8
3.08167	-9
3.08533	-8
3.08900	-3
3.09267	2
3.09633	4
3.10000	2
3.10367	2
3.10733	5
3.11100	10
3.11467	13
3.11833	15
3.12200	14
3.12567	11
3.12933	1
3.13300	-9
3.13667	-20
3.14033	-28
3.14400	-22
3.14767	-20
3.15133	-19
3.15500	-17
3.15867	-16
3.16233	-17
3.16600	-23
3.16967	-25
3.17333	-22
3.17700	-14
3.18067	-4
3.18433	-1
3.18800	-4
3.19167	-11
3.19533	-19
3.19900	-24
3.20267	-24
3.20633	-20
3.21000	-17
3.21367	-16
3.21733	-17
3.22100	-19
3.22467	-19
3.22833	-15
3.23200	-13
3.23567	-12
3.23933	-11
3.24300	-15
3.24667	-21
3.25033	-24
3.25400	-22
3.25767	-19
3.26133	-17
3.26500	-15
3.26867	-15
3.27233	-19
3.27600	-23
3.27967	-25
3.28333	-27
3.28700	-28
3.29067	-28
3.29433	-28
3.29800	-29
3.30167	-27
3.30533	-26
3.30900	-30
3.31267	-36
3.31633	-39
3.32000	-39
3.32367	-34
3.32733	-31
3.33100	-32
3.33467	-36
3.33833	-38
3.34200	-33
3.34567	-27
3.34933	-22
3.35300	-18
3.35667	-14
3.36033	-16
3.36400	-25
3.36767	-38
3.37133	-48
3.37500	-53
3.37867	-52
3.38233	-50
3.38600	-44
3.38967	-38
3.39333	-35
3.39700	-33
3.40067	-36
3.40433	-39
3.40800	-41
3.41167	-39
3.41533	-33
3.41900	-30
3.42267	-33
3.42633	-37
3.43000	-38
3.43367	-38
3.43733	-42
3.44100	-46
3.44467	-40
3.44833	-31
3.45200	-26
3.45567	-23
3.45933	-23
3.46300	-26
3.46667	-24
3.47033	-16
3.47400	-12
3.47767	-15
3.48133	-21
3.48500	-26
3.48867	-33
3.49233	-38
3.49600	-40
3.49967	-41
3.50333	-42
3.50700	-46
3.51067	-48
3.51433	-48
3.51800	-46
3.52167	-43
3.52533	-38
3.52900	-31
3.53267	-27
3.53633	-24
3.54000	-26
3.54367	-30
3.54733	-36
3.55100	-43
3.55467	-50
3.55833	-54
3.56200	-52
3.56567	-46
3.56933	-37
3.57300	-30
3.57667	-25
3.58033	-23
3.58400	-23
3.58767	-28
3.59133	-35
3.59500	-43
3.59867	-50
3.60233	-53
3.60600	-50
3.60967	-43
3.61333	-37
3.61700	-36
3.62067	-41
3.62433	-48
3.62800	-48
3.63167	-45
3.63533	-39
3.63900	-34
3.64267	-31
3.64633	-31
3.65000	-36
3.65367	-43
3.65733	-48
3.66100	-50
3.66467	-50
3.66833	-46
3.67200	-43
3.67567	-41
3.67933	-42
3.68300	-47
3.68667	-53
3.69033	-55
3.69400	-53
3.69767	-48
3.70133	-43
3.70500	-46
3.70867	-53
3.71233	-58
3.71600	-59
3.71967	-55
3.72333	-50
3.72700	-45
3.73067	-40
3.73433	-34
3.73800	-28
3.74167	-25
3.74533	-23
3.74900	-22
3.75267	-26
3.75633	-32
3.76000	-35
3.76367	-39
3.76733	-39
3.77100	-39
3.77467	-39
3.77833	-39
3.78200	-41
3.78567	-38
3.78933	-29
3.79300	-26
3.79667	-30
3.80033	-35
3.80400	-37
3.80767	-38
3.81133	-37
3.81500	-36
3.81867	-36
3.82233	-36
3.82600	-35
3.82967	-32
3.83333	-30
3.83700	-30
3.84067	-31
3.84433	-32
3.84800	-37
3.85167	-56
3.85533	-71
3.85900	-55
3.86267	-43
3.86633	-35
3.87000	-29
3.87367	-26
3.87733	-26
3.88100	-29
3.88467	-35
3.88833	-42
3.89200	-49
3.89567	-55
3.89933	-57
3.90300	-57
3.90667	-57
3.91033	-55
3.91400	-49
3.91767	-42
3.92133	-38
3.92500	-41
3.92867	-48
3.93233	-52
3.93600	-54
3.93967	-55
3.94333	-58
3.94700	-61
3.95067	-58
3.95433	-49
3.95800	-39
3.96167	-33
3.96533	-28
3.96900	-26
3.97267	-27
3.97633	-28
3.98000	-28
3.98367	-30
3.98733	-35
3.99100	-39
3.99467	-39
3.99833	-35

[Chromatogram (Ch2)]
Interval(msec)	220
# of Points	1091
Start Time(min)	0.002
End Time(min)	3.998
R.Time (min)	Intensity
0.00167	1
0.00533	1
0.00900	1
0.01267	1
0.01633	1
0.02000	1
0.02367	1
0.02733	1
0.03100	1
0.03467	1
0.03833	1
0.04200	1
0.04567	1
0.04933	1
0.05300	0
0.05667	0
0.06033	-0
0.06400	0
0.06767	0
0.07133	0
0.07500	0
0.07867	0
0.08233	-0
0.08600	-0
0.08967	-0
0.09333	-0
0.09700	-0
0.10067	-0
0.10433	-0
0.10800	-0
0.11167	-0
0.11533	0
0.11900	-0
0.12267	-0
0.12633	-0
0.13000	-1
0.13367	-1
0.13733	-1
0.14100	-1
0.14467	-2
0.14833	-2
0.15200	-2
0.15567	-2
0.15933	-2
0.16300	-2
0.16667	-2
0.17033	-2
0.17400	-2
0.17767	-2
0.18133	-2
0.18500	-2
0.18867	-2
0.19233	-2
0.19600	-2
0.19967	-2
0.20333	-2
0.20700	-2
0.21067	-2
0.21433	-2
0.21800	-2
0.22167	-2
0.22533	-1
0.22900	-1
0.23267	-1
0.23633	-1
0.24000	-0
0.24367	-1
0.24733	-1
0.25100	-1
0.25467	-1
0.25833	-1
0.26200	-1
0.26567	-1
0.26933	-1
0.27300	-1
0.27667	-1
0.28033	-1
0.28400	-1
0.28767	-1
0.29133	-1
0.29500	-1
0.29867	-1
0.30233	-1
0.30600	-1
0.30967	-1
0.31333	-1
0.31700	-1
0.32067	-1
0.32433	-1
0.32800	-1
0.33167	-1
0.33533	-2
0.33900	-2
0.34267	-2
0.34633	-2
0.35000	-2
0.35367	-2
0.35733	-2
0.36100	-3
0.36467	-3
0.36833	-3
0.37200	-3
0.37567	-3
0.37933	-3
0.38300	-3
0.38667	-3
0.39033	-3
0.39400	-3
0.39767	-3
0.40133	-3
0.40500	-3
0.40867	-3
0.41233	-2
0.41600	-3
0.41967	-3
0.42333	-3
0.42700	-3
0.43067	-3
0.43433	-4
0.43800	-4
0.44167	-5
0.44533	-5
0.44900	-5
0.45267	-5
0.45633	-5
0.46000	-5
0.46367	-5
0.46733	-5
0.47100	-5
0.47467	-5
0.47833	-5
0.48200	-4
0.48567	-4
0.48933	-4
0.49300	-4
0.49667	-4
0.50033	-4
0.50400	-4
0.50767	-4
0.51133	-4
0.51500	-4
0.51867	-5
0.52233	-5
0.52600	-5
0.52967	-5
0.53333	-5
0.53700	-5
0.54067	-5
0.54433	-5
0.54800	-5
0.55167	-4
0.55533	-4
0.55900	-4
0.56267	-4
0.56633	-3
0.57000	-3
0.57367	-3
0.57733	-3
0.58100	-3
0.58467	-3
0.58833	-3
0.59200	-3
0.59567	-3
0.59933	-3
0.60300	-3
0.60667	-3
0.61033	-3
0.61400	-3
0.61767	-3
0.62133	-3
0.62500	-3
0.62867	-3
0.63233	-3
0.63600	-2
0.63967	-2
0.64333	-2
0.64700	-2
0.65067	-1
0.65433	-1
0.65800	-1
0.66167	-1
0.66533	-1
0.66900	-1
0.67267	-1
0.67633	-2
0.68000	-2
0.68367	-2
0.68733	-3
0.69100	-3
0.69467	-3
0.69833	-3
0.70200	-4
0.70567	-4
0.70933	-4
0.71300	-4
0.71667	-4
0.72033	-3
0.72400	-3
0.72767	-3
0.73133	-3
0.73500	-3
0.73867	-3
0.74233	-3
0.74600	-3
0.74967	-3
0.75333	-3
0.75700	-3
0.76067	-3
0.76433	-3
0.76800	-3
0.77167	-3
0.77533	-3
0.77900	-3
0.78267	-3
0.78633	-3
0.79000	-3
0.79367	-3
0.79733	-3
0.80100	-3
0.80467	-3
0.80833	-3
0.81200	-4
0.81567	-4
0.81933	-4
0.82300	-4
0.82667	-4
0.83033	-4
0.83400	-4
0.83767	-4
0.84133	-4
0.84500	-5
0.84867	-5
0.85233	-5
0.85600	-6
0.85967	-6
0.86333	-6
0.86700	-6
0.87067	-6
0.87433	-6
0.87800	-6
0.88167	-6
0.88533	-6
0.88900	-6
0.89267	-6
0.89633	-6
0.90000	-6
0.90367	-6
0.90733	-5
0.91100	-5
0.91467	-5
0.91833	-5
0.92200	-5
0.92567	-5
0.92933	-5
0.93300	-5
0.93667	-5
0.94033	-5
0.94400	-4
0.94767	-4
0.95133	-4
0.95500	-4
0.95867	-4
0.96233	-4
0.96600	-4
0.96967	-4
0.97333	-4
0.97700	-4
0.98067	-4
0.98433	-4
0.98800	-4
0.99167	-4
0.99533	-4
0.99900	-4
1.00267	-4
1.00633	-4
1.01000	-4
1.01367	-4
1.01733	-4
1.02100	-4
1.02467	-4
1.02833	-4
1.03200	-4
1.03567	-5
1.03933	-5
1.04300	-5
1.04667	-5
1.05033	-5
1.05400	-5
1.05767	-5
1.06133	-5
1.06500	-5
1.06867	-5
1.07233	-5
1.07600	-5
1.07967	-5
1.08333	-5
1.08700	-5
1.09067	-4
1.09433	-4
1.09800	-4
1.10167	-4
1.10533	-4
1.10900	-4
1.11267	-4
1.11633	-4
1.12000	-4
1.12367	-4
1.12733	-4
1.13100	-4
1.13467	-4
1.13833	-4
1.14200	-4
1.14567	-4
1.14933	-4
1.15300	-4
1.15667	-4
1.16033	-4
1.16400	-4
1.16767	-4
1.17133	-4
1.17500	-3
1.17867	-3
1.18233	-3
1.18600	-3
1.18967	-3
1.19333	-3
1.19700	-3
1.20067	-3
1.20433	-4
1.20800	-4
1.21167	-4
1.21533	-5
1.21900	-5
1.22267	-5
1.22633	-6
1.23000	-6
1.23367	-6
1.23733	-7
1.24100	-7
1.24467	-7
1.24833	-7
1.25200	-7
1.25567	-7
1.25933	-8
1.26300	-8
1.26667	-8
1.27033	-7
1.27400	-7
1.27767	-7
1.28133	-6
1.28500	-6
1.28867	-5
1.29233	-5
1.29600	-5
1.29967	-4
1.30333	-4
1.30700	-4
1.31067	-4
1.31433	-4
1.31800	-4
1.32167	-4
1.32533	-4
1.32900	-4
1.33267	-4
1.33633	-4
1.34000	-3
1.34367	-3
1.34733	-3
1.35100	-4
1.35467	-4
1.35833	-4
1.36200	-4
1.36567	-4
1.36933	-3
1.37300	-3
1.37667	-3
1.38033	-3
1.38400	-3
1.38767	-4
1.39133	-4
1.39500	-4
1.39867	-4
1.40233	-4
1.40600	-4
1.40967	-4
1.41333	-5
1.41700	-5
1.42067	-5
1.42433	-6
1.42800	-6
1.43167	-7
1.43533	-7
1.43900	-7
1.44267	-8
1.44633	-8
1.45000	-8
1.45367	-7
1.45733	-8
1.46100	-8
1.46467	-8
1.46833	-8
1.47200	-8
1.47567	-9
1.47933	-9
1.48300	-9
1.48667	-8
1.49033	-8
1.49400	-8
1.49767	-7
1.50133	-7
1.50500	-6
1.50867	-6
1.51233	-6
1.51600	-5
1.51967	-5
1.52333	-5
1.52700	-5
1.53067	-5
1.53433	-5
1.53800	-5
1.54167	-5
1.54533	-5
1.54900	-5
1.55267	-5
1.55633	-4
1.56000	-4
1.56367	-4
1.56733	-4
1.57100	-4
1.57467	-4
1.57833	-4
1.58200	-4
1.58567	-5
1.58933	-5
1.59300	-6
1.59667	-6
1.60033	-7
1.60400	-8
1.60767	-9
1.61133	-11
1.61500	-13
1.61867	-15
1.62233	-18
1.62600	-21
1.62967	-24
1.63333	-27
1.63700	-31
1.64067	-34
1.64433	-38
1.64800	-42
1.65167	-46
1.65533	-50
1.65900	-54
1.66267	-58
1.66633	-62
1.67000	-66
1.67367	-71
1.67733	-76
1.68100	-81
1.68467	-86
1.68833	-90
1.69200	-95
1.69567	-99
1.69933	-102
1.70300	-105
1.70667	-107
1.71033	-109
1.71400	-111
1.71767	-112
1.72133	-114
1.72500	-115
1.72867	-116
1.73233	-118
1.73600	-118
1.73967	-119
1.74333	-119
1.74700	-120
1.75067	-119
1.75433	-119
1.75800	-119
1.76167	-118
1.76533	-119
1.76900	-119
1.77267	-120
1.77633	-121
1.78000	-122
1.78367	-124
1.78733	-124
1.79100	-125
1.79467	-125
1.79833	-125
1.80200	-125
1.80567	-125
1.80933	-125
1.81300	-125
1.81667	-125
1.82033	-126
1.82400	-126
1.82767	-127
1.83133	-127
1.83500	-127
1.83867	-128
1.84233	-128
1.84600	-128
1.84967	-128
1.85333	-129
1.85700	-129
1.86067	-129
1.86433	-129
1.86800	-129
1.87167	-129
1.87533	-128
1.87900	-128
1.88267	-128
1.88633	-128
1.89000	-127
1.89367	-127
1.89733	-127
1.90100	-126
1.90467	-125
1.90833	-124
1.91200	-123
1.91567	-123
1.91933	-123
1.92300	-123
1.92667	-123
1.93033	-123
1.93400	-123
1.93767	-123
1.94133	-123
1.94500	-123
1.94867	-123
1.95233	-123
1.95600	-122
1.95967	-122
1.96333	-122
1.96700	-121
1.97067	-120
1.97433	-120
1.97800	-120
1.98167	-120
1.98533	-120
1.98900	-119
1.99267	-119
1.99633	-119
2.00000	-120
2.00367	-120
2.00733	-120
2.01100	-120
2.01467	-119
2.01833	-119
2.02200	-118
2.02567	-118
2.02933	-118
2.03300	-117
2.03667	-117
2.04033	-117
2.04400	-117
2.04767	-117
2.05133	-117
2.05500	-117
2.05867	-116
2.06233	-116
2.06600	-115
2.06967	-114
2.07333	-113
2.07700	-112
2.08067	-111
2.08433	-111
2.08800	-110
2.09167	-110
2.09533	-110
2.09900	-110
2.10267	-109
2.10633	-109
2.11000	-109
2.11367	-109
2.11733	-109
2.12100	-108
2.12467	-108
2.12833	-108
2.13200	-108
2.13567	-107
2.13933	-107
2.14300	-108
2.14667	-108
2.15033	-107
2.15400	-107
2.15767	-107
2.16133	-106
2.16500	-105
2.16867	-104
2.17233	-103
2.17600	-103
2.17967	-102
2.18333	-102
2.18700	-102
2.19067	-102
2.19433	-102
2.19800	-102
2.20167	-102
2.20533	-102
2.20900	-101
2.21267	-100
2.21633	-99
2.22000	-99
2.22367	-99
2.22733	-99
2.23100	-99
2.23467	-99
2.23833	-99
2.24200	-99
2.24567	-99
2.24933	-99
2.25300	-98
2.25667	-98
2.26033	-97
2.26400	-97
2.26767	-97
2.27133	-97
2.27500	-97
2.27867	-98
2.28233	-99
2.28600	-99
2.28967	-99
2.29333	-99
2.29700	-98
2.30067	-97
2.30433	-96
2.30800	-95
2.31167	-94
2.31533	-93
2.31900	-92
2.32267	-91
2.32633	-90
2.33000	-90
2.33367	-90
2.33733	-89
2.34100	-89
2.34467	-89
2.34833	-88
2.35200	-88
2.35567	-88
2.35933	-88
2.36300	-88
2.36667	-88
2.37033	-87
2.37400	-86
2.37767	-84
2.38133	-82
2.38500	-79
2.38867	-75
2.39233	-71
2.39600	-66
2.39967	-61
2.40333	-56
2.40700	-51
2.41067	-46
2.41433	-41
2.41800	-37
2.42167	-34
2.42533	-31
2.42900	-28
2.43267	-25
2.43633	-22
2.44000	-19
2.44367	-17
2.44733	-15
2.45100	-13
2.45467	-11
2.45833	-10
2.46200	-9
2.46567	-8
2.46933	-6
2.47300	-5
2.47667	-3
2.48033	-2
2.48400	0
2.48767	1
2.49133	3
2.49500	3
2.49867	4
2.50233	4
2.50600	4
2.50967	5
2.51333	5
2.51700	6
2.52067	7
2.52433	8
2.52800	9
2.53167	10
2.53533	10
2.53900	11
2.54267	11
2.54633	11
2.55000	11
2.55367	11
2.55733	12
2.56100	12
2.56467	12
2.56833	13
2.57200	13
2.57567	13
2.57933	14
2.58300	14
2.58667	14
2.59033	14
2.59400	14
2.59767	14
2.60133	14
2.60500	14
2.60867	14
2.61233	14
2.61600	14
2.61967	14
2.62333	15
2.62700	15
2.63067	15
2.63433	15
2.63800	16
2.64167	16
2.64533	17
2.64900	17
2.65267	18
2.65633	18
2.66000	18
2.66367	19
2.66733	19
2.67100	20
2.67467	20
2.67833	21
2.68200	21
2.68567	21
2.68933	21
2.69300	21
2.69667	21
2.70033	21
2.70400	21
2.70767	21
2.71133	21
2.71500	21
2.71867	21
2.72233	21
2.72600	21
2.72967	21
2.73333	21
2.73700	21
2.74067	21
2.74433	21
2.74800	21
2.75167	22
2.75533	22
2.75900	22
2.76267	22
2.76633	22
2.77000	23
2.77367	23
2.77733	23
2.78100	23
2.78467	23
2.78833	23
2.79200	23
2.79567	23
2.79933	22
2.80300	22
2.80667	22
2.81033	22
2.81400	22
2.81767	22
2.82133	22
2.82500	22
2.82867	22
2.83233	22
2.83600	22
2.83967	22
2.84333	22
2.84700	20
2.85067	17
2.85433	12
2.85800	4
2.86167	-7
2.86533	-21
2.86900	-39
2.87267	-62
2.87633	-88
2.88000	-118
2.88367	-152
2.88733	-190
2.89100	-231
2.89467	-275
2.89833	-321
2.90200	-369
2.90567	-419
2.90933	-470
2.91300	-521
2.91667	-573
2.92033	-624
2.92400	-676
2.92767	-727
2.93133	-777
2.93500	-827
2.93867	-879
2.94233	-936
2.94600	-998
2.94967	-1060
2.95333	-1109
2.95700	-1136
2.96067	-1135
2.96433	-1108
2.96800	-1059
2.97167	-993
2.97533	-917
2.97900	-836
2.98267	-753
2.98633	-671
2.99000	-594
2.99367	-522
2.99733	-456
3.00100	-396
3.00467	-342
3.00833	-295
3.01200	-253
3.01567	-216
3.01933	-185
3.02300	-157
3.02667	-133
3.03033	-112
3.03400	-94
3.03767	-79
3.04133	-66
3.04500	-55
3.04867	-45
3.05233	-37
3.05600	-30
3.05967	-24
3.06333	-18
3.06700	-14
3.07067	-10
3.07433	-7
3.07800	-4
3.08167	-2
3.08533	0
3.08900	2
3.09267	4
3.09633	5
3.10000	6
3.10367	7
3.10733	8
3.11100	9
3.11467	9
3.11833	10
3.12200	10
3.12567	11
3.12933	11
3.13300	11
3.13667	11
3.14033	12
3.14400	12
3.14767	12
3.15133	13
3.15500	13
3.15867	13
3.16233	14
3.16600	14
3.16967	15
3.17333	16
3.17700	16
3.18067	17
3.18433	18
3.18800	18
3.19167	18
3.19533	19
3.19900	19
3.20267	20
3.20633	21
3.21000	21
3.21367	22
3.21733	22
3.22100	23
3.22467	23
3.22833	23
3.23200	24
3.23567	24
3.23933	24
3.24300	24
3.24667	25
3.25033	25
3.25400	25
3.25767	25
3.26133	25
3.26500	25
3.26867	24
3.27233	24
3.27600	24
3.27967	24
3.28333	24
3.28700	25
3.29067	25
3.29433	25
3.29800	25
3.30167	25
3.30533	25
3.30900	25
3.31267	26
3.31633	26
3.32000	26
3.32367	26
3.32733	27
3.33100	27
3.33467	27
3.33833	27
3.34200	27
3.34567	27
3.34933	27
3.35300	28
3.35667	28
3.36033	28
3.36400	28
3.36767	28
3.37133	28
3.37500	28
3.37867	27
3.38233	27
3.38600	27
3.38967	27
3.39333	27
3.39700	27
3.40067	27
3.40433	26
3.40800	26
3.41167	26
3.41533	26
3.41900	26
3.42267	26
3.42633	26
3.43000	26
3.43367	26
3.43733	26
3.44100	26
3.44467	26
3.44833	26
3.45200	26
3.45567	26
3.45933	26
3.46300	26
3.46667	26
3.47033	26
3.47400	26
3.47767	26
3.48133	26
3.48500	26
3.48867	26
3.49233	26
3.49600	26
3.49967	26
3.50333	26
3.50700	26
3.51067	26
3.51433	26
3.51800	26
3.52167	26
3.52533	26
3.52900	25
3.53267	25
3.53633	25
3.54000	25
3.54367	24
3.54733	24
3.55100	24
3.55467	24
3.55833	24
3.56200	24
3.56567	24
3.56933	24
3.57300	24
3.57667	24
3.58033	24
3.58400	24
3.58767	24
3.59133	24
3.59500	25
3.59867	25
3.60233	25
3.60600	25
3.60967	25
3.61333	25
3.61700	25
3.62067	25
3.62433	25
3.62800	25
3.63167	25
3.63533	25
3.63900	25
3.64267	25
3.64633	25
3.65000	25
3.65367	25
3.65733	25
3.66100	25
3.66467	25
3.66833	25
3.67200	25
3.67567	25
3.67933	25
3.68300	25
3.68667	25
3.69033	25
3.69400	25
3.69767	25
3.70133	25
3.70500	25
3.70867	25
3.71233	25
3.71600	25
3.71967	25
3.72333	25
3.72700	24
3.73067	24
3.73433	24
3.73800	24
3.74167	25
3.74533	25
3.74900	25
3.75267	25
3.75633	26
3.76000	26
3.76367	26
3.76733	26
3.77100	26
3.77467	27
3.77833	26
3.78200	26
3.78567	26
3.78933	26
3.79300	26
3.79667	26
3.80033	26
3.80400	26
3.80767	26
3.81133	26
3.81500	27
3.81867	27
3.82233	27
3.82600	27
3.82967	27
3.83333	27
3.83700	27
3.84067	27
3.84433	27
3.84800	27
3.85167	27
3.85533	27
3.85900	26
3.86267	26
3.86633	26
3.87000	26
3.87367	26
3.87733	26
3.88100	26
3.88467	26
3.88833	26
3.89200	26
3.89567	26
3.89933	26
3.90300	26
3.90667	26
3.91033	26
3.91400	26
3.91767	26
3.92133	27
3.92500	27
3.92867	27
3.93233	27
3.93600	27
3.93967	27
3.94333	27
3.94700	27
3.95067	27
3.95433	27
3.95800	27
3.96167	27
3.96533	27
3.96900	27
3.97267	27
3.97633	27
3.98000	26
3.98367	26
3.98733	26
3.99100	26
3.99467	25
3.99833	25

[Chromatogram (Ch3)]
Interval(msec)	220
# of Points	1091
Start Time(min)	0.002
End Time(min)	3.998
R.Time (min)	Intensity
0.00167	0
0.00533	-1
0.00900	1
0.01267	3
0.01633	2
0.02000	-0
0.02367	-0
0.02733	1
0.03100	4
0.03467	4
0.03833	3
0.04200	3
0.04567	3
0.04933	2
0.05300	2
0.05667	0
0.06033	-2
0.06400	-2
0.06767	-1
0.07133	-2
0.07500	-3
0.07867	-3
0.08233	-3
0.08600	-1
0.08967	0
0.09333	1
0.09700	2
0.10067	3
0.10433	3
0.10800	2
0.11167	1
0.11533	2
0.11900	3
0.12267	2
0.12633	2
0.13000	4
0.13367	6
0.13733	4
0.14100	2
0.14467	2
0.14833	2
0.15200	2
0.15567	3
0.15933	3
0.16300	4
0.16667	4
0.17033	2
0.17400	2
0.17767	2
0.18133	2
0.18500	2
0.18867	3
0.19233	5
0.19600	6
0.19967	5
0.20333	3
0.20700	0
0.21067	0
0.21433	1
0.21800	4
0.22167	6
0.22533	7
0.22900	8
0.23267	7
0.23633	4
0.24000	0
0.24367	-0
0.24733	1
0.25100	3
0.25467	4
0.25833	3
0.26200	2
0.26567	3
0.26933	6
0.27300	7
0.27667	7
0.28033	6
0.28400	3
0.28767	-0
0.29133	-0
0.29500	2
0.29867	4
0.30233	7
0.30600	8
0.30967	6
0.31333	4
0.31700	2
0.32067	2
0.32433	1
0.32800	1
0.33167	3
0.33533	4
0.33900	3
0.34267	4
0.34633	3
0.35000	3
0.35367	5
0.35733	6
0.36100	6
0.36467	7
0.36833	8
0.37200	6
0.37567	6
0.37933	9
0.38300	10
0.38667	8
0.39033	6
0.39400	6
0.39767	6
0.40133	6
0.40500	3
0.40867	2
0.41233	2
0.41600	2
0.41967	2
0.42333	1
0.42700	1
0.43067	2
0.43433	1
0.43800	1
0.44167	-0
0.44533	-1
0.44900	1
0.45267	2
0.45633	-1
0.46000	-2
0.46367	-1
0.46733	-0
0.47100	-0
0.47467	-1
0.47833	2
0.48200	2
0.48567	2
0.48933	4
0.49300	5
0.49667	4
0.50033	4
0.50400	5
0.50767	5
0.51133	4
0.51500	3
0.51867	3
0.52233	3
0.52600	4
0.52967	4
0.53333	3
0.53700	1
0.54067	-1
0.54433	-2
0.54800	-1
0.55167	-1
0.55533	-2
0.55900	-3
0.56267	-3
0.56633	-2
0.57000	-1
0.57367	-1
0.57733	-2
0.58100	-1
0.58467	1
0.58833	1
0.59200	1
0.59567	2
0.59933	5
0.60300	8
0.60667	7
0.61033	7
0.61400	6
0.61767	5
0.62133	2
0.62500	-0
0.62867	0
0.63233	4
0.63600	5
0.63967	4
0.64333	2
0.64700	4
0.65067	4
0.65433	3
0.65800	4
0.66167	5
0.66533	4
0.66900	1
0.67267	-0
0.67633	-0
0.68000	1
0.68367	1
0.68733	2
0.69100	2
0.69467	2
0.69833	1
0.70200	-1
0.70567	-1
0.70933	-1
0.71300	0
0.71667	0
0.72033	0
0.72400	1
0.72767	2
0.73133	3
0.73500	3
0.73867	2
0.74233	4
0.74600	5
0.74967	3
0.75333	1
0.75700	-2
0.76067	-4
0.76433	-5
0.76800	-6
0.77167	-8
0.77533	-7
0.77900	-4
0.78267	-2
0.78633	-1
0.79000	-0
0.79367	-1
0.79733	-1
0.80100	-2
0.80467	-3
0.80833	-1
0.81200	1
0.81567	2
0.81933	1
0.82300	1
0.82667	3
0.83033	3
0.83400	2
0.83767	-1
0.84133	-2
0.84500	0
0.84867	3
0.85233	4
0.85600	4
0.85967	4
0.86333	5
0.86700	4
0.87067	1
0.87433	-1
0.87800	-4
0.88167	-6
0.88533	-6
0.88900	-4
0.89267	-5
0.89633	-4
0.90000	-6
0.90367	-7
0.90733	-7
0.91100	-6
0.91467	-5
0.91833	-3
0.92200	-1
0.92567	0
0.92933	-0
0.93300	-2
0.93667	-3
0.94033	-4
0.94400	-4
0.94767	-4
0.95133	-4
0.95500	-3
0.95867	-3
0.96233	-3
0.96600	-2
0.96967	-2
0.97333	-3
0.97700	-5
0.98067	-5
0.98433	-5
0.98800	-5
0.99167	-7
0.99533	-8
0.99900	-7
1.00267	-4
1.00633	-3
1.01000	-4
1.01367	-5
1.01733	-6
1.02100	-7
1.02467	-6
1.02833	-4
1.03200	-1
1.03567	-2
1.03933	-3
1.04300	-4
1.04667	-5
1.05033	-6
1.05400	-8
1.05767	-7
1.06133	-4
1.06500	-4
1.06867	-4
1.07233	-4
1.07600	-5
1.07967	-6
1.08333	-6
1.08700	-6
1.09067	-4
1.09433	-5
1.09800	-6
1.10167	-6
1.10533	-5
1.10900	-3
1.11267	-3
1.11633	-6
1.12000	-7
1.12367	-7
1.12733	-7
1.13100	-10
1.13467	-9
1.13833	-6
1.14200	-4
1.14567	-3
1.14933	-4
1.15300	-5
1.15667	-6
1.16033	-7
1.16400	-9
1.16767	-10
1.17133	-9
1.17500	-8
1.17867	-8
1.18233	-7
1.18600	-7
1.18967	-6
1.19333	-6
1.19700	-7
1.20067	-6
1.20433	-6
1.20800	-5
1.21167	-4
1.21533	-7
1.21900	-9
1.22267	-9
1.22633	-10
1.23000	-11
1.23367	-12
1.23733	-12
1.24100	-11
1.24467	-11
1.24833	-11
1.25200	-9
1.25567	-8
1.25933	-7
1.26300	-7
1.26667	-9
1.27033	-9
1.27400	-6
1.27767	-4
1.28133	-3
1.28500	-5
1.28867	-7
1.29233	-10
1.29600	-12
1.29967	-12
1.30333	-11
1.30700	-9
1.31067	-8
1.31433	-8
1.31800	-10
1.32167	-11
1.32533	-12
1.32900	-10
1.33267	-7
1.33633	-6
1.34000	-7
1.34367	-8
1.34733	-8
1.35100	-10
1.35467	-11
1.35833	-12
1.36200	-15
1.36567	-18
1.36933	-16
1.37300	-13
1.37667	-12
1.38033	-13
1.38400	-13
1.38767	-13
1.39133	-13
1.39500	-11
1.39867	-10
1.40233	-13
1.40600	-14
1.40967	-17
1.41333	-17
1.41700	-14
1.42067	-10
1.42433	-8
1.42800	-9
1.43167	-10
1.43533	-10
1.43900	-11
1.44267	-10
1.44633	-9
1.45000	-10
1.45367	-11
1.45733	-12
1.46100	-14
1.46467	-15
1.46833	-15
1.47200	-13
1.47567	-12
1.47933	-11
1.48300	-10
1.48667	-10
1.49033	-11
1.49400	-9
1.49767	-8
1.50133	-8
1.50500	-11
1.50867	-13
1.51233	-14
1.51600	-18
1.51967	-22
1.52333	-26
1.52700	-25
1.53067	-22
1.53433	-19
1.53800	-16
1.54167	-15
1.54533	-14
1.54900	-16
1.55267	-17
1.55633	-17
1.56000	-16
1.56367	-15
1.56733	-16
1.57100	-16
1.57467	-15
1.57833	-15
1.58200	-12
1.58567	-8
1.58933	-9
1.59300	-12
1.59667	-13
1.60033	-12
1.60400	-11
1.60767	-11
1.61133	-11
1.61500	-11
1.61867	-13
1.62233	-13
1.62600	-12
1.62967	-10
1.63333	-11
1.63700	-11
1.64067	-8
1.64433	-8
1.64800	-9
1.65167	-8
1.65533	-9
1.65900	-9
1.66267	-9
1.66633	-9
1.67000	-9
1.67367	-5
1.67733	-1
1.68100	-0
1.68467	0
1.68833	2
1.69200	2
1.69567	-0
1.69933	-2
1.70300	-3
1.70667	-2
1.71033	-1
1.71400	3
1.71767	7
1.72133	7
1.72500	8
1.72867	7
1.73233	5
1.73600	3
1.73967	2
1.74333	2
1.74700	3
1.75067	6
1.75433	7
1.75800	8
1.76167	9
1.76533	10
1.76900	11
1.77267	10
1.77633	10
1.78000	10
1.78367	12
1.78733	12
1.79100	10
1.79467	9
1.79833	11
1.80200	15
1.80567	17
1.80933	18
1.81300	18
1.81667	18
1.82033	18
1.82400	19
1.82767	21
1.83133	20
1.83500	18
1.83867	18
1.84233	19
1.84600	19
1.84967	18
1.85333	18
1.85700	17
1.86067	16
1.86433	15
1.86800	16
1.87167	19
1.87533	20
1.87900	21
1.88267	22
1.88633	24
1.89000	23
1.89367	21
1.89733	20
1.90100	19
1.90467	18
1.90833	18
1.91200	18
1.91567	18
1.91933	19
1.92300	18
1.92667	21
1.93033	23
1.93400	24
1.93767	25
1.94133	27
1.94500	28
1.94867	28
1.95233	28
1.95600	27
1.95967	25
1.96333	25
1.96700	24
1.97067	24
1.97433	26
1.97800	27
1.98167	29
1.98533	31
1.98900	32
1.99267	36
1.99633	39
2.00000	39
2.00367	38
2.00733	37
2.01100	37
2.01467	37
2.01833	38
2.02200	40
2.02567	42
2.02933	42
2.03300	43
2.03667	46
2.04033	47
2.04400	48
2.04767	49
2.05133	49
2.05500	49
2.05867	50
2.06233	50
2.06600	51
2.06967	51
2.07333	53
2.07700	54
2.08067	56
2.08433	60
2.08800	62
2.09167	63
2.09533	64
2.09900	64
2.10267	64
2.10633	66
2.11000	68
2.11367	69
2.11733	68
2.12100	69
2.12467	71
2.12833	73
2.13200	77
2.13567	80
2.13933	80
2.14300	80
2.14667	79
2.15033	79
2.15400	79
2.15767	81
2.16133	83
2.16500	83
2.16867	86
2.17233	88
2.17600	91
2.17967	92
2.18333	93
2.18700	94
2.19067	96
2.19433	97
2.19800	98
2.20167	99
2.20533	98
2.20900	98
2.21267	96
2.21633	97
2.22000	99
2.22367	102
2.22733	104
2.23100	106
2.23467	108
2.23833	109
2.24200	109
2.24567	110
2.24933	108
2.25300	106
2.25667	105
2.26033	107
2.26400	109
2.26767	112
2.27133	113
2.27500	114
2.27867	114
2.28233	116
2.28600	118
2.28967	119
2.29333	119
2.29700	119
2.30067	119
2.30433	118
2.30800	119
2.31167	121
2.31533	120
2.31900	121
2.32267	121
2.32633	122
2.33000	126
2.33367	128
2.33733	130
2.34100	132
2.34467	132
2.34833	134
2.35200	134
2.35567	135
2.35933	136
2.36300	138
2.36667	140
2.37033	142
2.37400	142
2.37767	143
2.38133	142
2.38500	142
2.38867	145
2.39233	145
2.39600	145
2.39967	149
2.40333	152
2.40700	154
2.41067	155
2.41433	157
2.41800	159
2.42167	160
2.42533	159
2.42900	159
2.43267	159
2.43633	159
2.44000	161
2.44367	163
2.44733	160
2.45100	141
2.45467	111
2.45833	79
2.46200	53
2.46567	32
2.46933	19
2.47300	12
2.47667	10
2.48033	10
2.48400	14
2.48767	20
2.49133	24
2.49500	30
2.49867	37
2.50233	40
2.50600	45
2.50967	51
2.51333	56
2.51700	61
2.52067	65
2.52433	68
2.52800	72
2.53167	76
2.53533	81
2.53900	86
2.54267	92
2.54633	94
2.55000	96
2.55367	100
2.55733	104
2.56100	110
2.56467	114
2.56833	117
2.57200	120
2.57567	124
2.57933	126
2.58300	128
2.58667	131
2.59033	131
2.59400	131
2.59767	129
2.60133	122
2.60500	110
2.60867	91
2.61233	67
2.61600	39
2.61967	9
2.62333	-21
2.62700	-49
2.63067	-73
2.63433	-92
2.63800	-106
2.64167	-118
2.64533	-126
2.64900	-131
2.65267	-132
2.65633	-128
2.66000	-123
2.66367	-117
2.66733	-111
2.67100	-104
2.67467	-96
2.67833	-85
2.68200	-75
2.68567	-66
2.68933	-56
2.69300	-48
2.69667	-39
2.70033	-30
2.70400	-23
2.70767	-16
2.71133	-8
2.71500	1
2.71867	8
2.72233	16
2.72600	24
2.72967	31
2.73333	39
2.73700	45
2.74067	51
2.74433	57
2.74800	63
2.75167	70
2.75533	76
2.75900	82
2.76267	85
2.76633	89
2.77000	95
2.77367	100
2.77733	104
2.78100	106
2.78467	109
2.78833	109
2.79200	109
2.79567	112
2.79933	114
2.80300	119
2.80667	124
2.81033	127
2.81400	130
2.81767	133
2.82133	140
2.82500	156
2.82867	196
2.83233	272
2.83600	410
2.83967	639
2.84333	974
2.84700	1429
2.85067	1996
2.85433	2653
2.85800	3357
2.86167	4057
2.86533	4696
2.86900	5225
2.87267	5607
2.87633	5824
2.88000	5875
2.88367	5776
2.88733	5554
2.89100	5242
2.89467	4871
2.89833	4466
2.90200	4052
2.90567	3650
2.90933	3266
2.91300	2906
2.91667	2576
2.92033	2277
2.92400	2006
2.92767	1763
2.93133	1549
2.93500	1364
2.93867	1203
2.94233	1064
2.94600	942
2.94967	834
2.95333	742
2.95700	663
2.96067	593
2.96433	534
2.96800	481
2.97167	436
2.97533	399
2.97900	367
2.98267	339
2.98633	315
2.99000	294
2.99367	278
2.99733	266
3.00100	253
3.00467	242
3.00833	231
3.01200	221
3.01567	212
3.01933	204
3.02300	198
3.02667	194
3.03033	189
3.03400	183
3.03767	178
3.04133	174
3.04500	172
3.04867	171
3.05233	170
3.05600	170
3.05967	169
3.06333	168
3.06700	166
3.07067	163
3.07433	160
3.07800	158
3.08167	157
3.08533	155
3.08900	153
3.09267	151
3.09633	150
3.10000	152
3.10367	153
3.10733	151
3.11100	149
3.11467	147
3.11833	147
3.12200	146
3.12567	143
3.12933	139
3.13300	138
3.13667	138
3.14033	138
3.14400	136
3.14767	135
3.15133	136
3.15500	136
3.15867	133
3.16233	132
3.16600	132
3.16967	132
3.17333	133
3.17700	133
3.18067	133
3.18433	131
3.18800	128
3.19167	129
3.19533	130
3.19900	129
3.20267	128
3.20633	126
3.21000	126
3.21367	126
3.21733	128
3.22100	130
3.22467	129
3.22833	129
3.23200	129
3.23567	127
3.23933	126
3.24300	126
3.24667	124
3.25033	122
3.25400	124
3.25767	125
3.26133	124
3.26500	123
3.26867	123
3.27233	121
3.27600	118
3.27967	117
3.28333	116
3.28700	113
3.29067	113
3.29433	115
3.29800	116
3.30167	115
3.30533	112
3.30900	110
3.31267	108
3.31633	107
3.32000	105
3.32367	104
3.32733	102
3.33100	100
3.33467	99
3.33833	98
3.34200	96
3.34567	94
3.34933	93
3.35300	93
3.35667	92
3.36033	92
3.36400	90
3.36767	86
3.37133	82
3.37500	79
3.37867	79
3.38233	77
3.38600	74
3.38967	74
3.39333	75
3.39700	75
3.40067	75
3.40433	73
3.40800	69
3.41167	68
3.41533	65
3.41900	64
3.42267	62
3.42633	61
3.43000	61
3.43367	61
3.43733	61
3.44100	60
3.44467	59
3.44833	57
3.45200	53
3.45567	51
3.45933	50
3.46300	50
3.46667	51
3.47033	52
3.47400	53
3.47767	53
3.48133	51
3.48500	48
3.48867	44
3.49233	40
3.49600	38
3.49967	39
3.50333	39
3.50700	39
3.51067	39
3.51433	38
3.51800	34
3.52167	31
3.52533	30
3.52900	30
3.53267	32
3.53633	32
3.54000	31
3.54367	28
3.54733	25
3.55100	24
3.55467	25
3.55833	24
3.56200	22
3.56567	21
3.56933	21
3.57300	22
3.57667	22
3.58033	22
3.58400	21
3.58767	15
3.59133	12
3.59500	14
3.59867	16
3.60233	17
3.60600	16
3.60967	15
3.61333	13
3.61700	13
3.62067	14
3.62433	14
3.62800	13
3.63167	14
3.63533	14
3.63900	13
3.64267	14
3.64633	13
3.65000	13
3.65367	14
3.65733	14
3.66100	13
3.66467	12
3.66833	12
3.67200	12
3.67567	9
3.67933	5
3.68300	5
3.68667	6
3.69033	5
3.69400	4
3.69767	3
3.70133	2
3.70500	1
3.70867	2
3.71233	3
3.71600	2
3.71967	0
3.72333	-1
3.72700	-2
3.73067	-3
3.73433	-2
3.73800	-1
3.74167	-1
3.74533	-2
3.74900	-2
3.75267	-2
3.75633	-2
3.76000	-5
3.76367	-6
3.76733	-5
3.77100	-3
3.77467	-3
3.77833	-2
3.78200	-4
3.78567	-7
3.78933	-6
3.79300	-6
3.79667	-4
3.80033	-4
3.80400	-4
3.80767	-3
3.81133	-2
3.81500	-3
3.81867	-5
3.82233	-8
3.82600	-11
3.82967	-10
3.83333	-10
3.83700	-11
3.84067	-13
3.84433	-10
3.84800	-9
3.85167	-12
3.85533	-13
3.85900	-12
3.86267	-12
3.86633	-10
3.87000	-9
3.87367	-10
3.87733	-11
3.88100	-10
3.88467	-10
3.88833	-9
3.89200	-7
3.89567	-6
3.89933	-6
3.90300	-8
3.90667	-10
3.91033	-11
3.91400	-11
3.91767	-11
3.92133	-12
3.92500	-15
3.92867	-15
3.93233	-13
3.93600	-10
3.93967	-9
3.94333	-10
3.94700	-10
3.95067	-11
3.95433	-10
3.95800	-10
3.96167	-9
3.96533	-10
3.96900	-10
3.97267	-10
3.97633	-8
3.98000	-6
3.98367	-6
3.98733	-7
3.99100	-7
3.99467	-9
3.99833	-10

[Status Trace (Column Oven Temperature)]
Interval(msec)	1000
# of Points	240
Start Time(min)	0.009
End Time(min)	3.993
Intensity Units	
Intensity Multiplier	1
R.Time (min)	Intensity
0.00927	35.02
0.02593	35.01
0.04260	35.00
0.05927	34.99
0.07593	34.99
0.09260	34.98
0.10927	34.98
0.12593	34.98
0.14260	34.99
0.15927	34.99
0.17593	34.99
0.19260	34.99
0.20927	35.00
0.22593	34.99
0.24260	34.98
0.25927	34.97
0.27593	34.97
0.29260	34.97
0.30927	34.96
0.32593	34.97
0.34260	34.98
0.35927	34.97
0.37593	34.97
0.39260	34.96
0.40927	34.97
0.42593	34.98
0.44260	34.98
0.45927	35.00
0.47593	34.99
0.49260	34.99
0.50927	34.99
0.52593	35.00
0.54260	35.01
0.55927	35.00
0.57593	35.00
0.59260	35.00
0.60927	35.01
0.62593	35.00
0.64260	34.98
0.65927	34.97
0.67593	34.97
0.69260	34.98
0.70927	34.98
0.72593	34.98
0.74260	34.98
0.75927	34.98
0.77593	34.98
0.79260	34.97
0.80927	34.97
0.82593	34.98
0.84260	34.98
0.85927	34.99
0.87593	35.00
0.89260	35.00
0.90927	35.00
0.92593	35.00
0.94260	35.00
0.95927	34.99
0.97593	34.99
0.99260	34.99
1.00927	34.99
1.02593	34.99
1.04260	34.99
1.05927	35.00
1.07593	35.00
1.09260	34.99
1.10927	35.00
1.12593	35.00
1.14260	35.00
1.15927	35.00
1.17593	34.99
1.19260	34.99
1.20927	35.00
1.22593	35.00
1.24260	35.02
1.25927	35.02
1.27593	35.02
1.29260	35.01
1.30927	35.00
1.32593	35.00
1.34260	34.99
1.35927	34.99
1.37593	34.98
1.39260	34.98
1.40927	34.99
1.42593	34.99
1.44260	34.99
1.45927	35.00
1.47593	35.01
1.49260	35.01
1.50927	35.00
1.52593	35.00
1.54260	34.99
1.55927	34.99
1.57593	34.99
1.59260	35.01
1.60927	35.08
1.62593	35.21
1.64260	35.40
1.65927	35.65
1.67593	36.00
1.69260	36.36
1.70927	36.71
1.72593	37.05
1.74260	37.38
1.75927	37.69
1.77593	38.03
1.79260	38.37
1.80927	38.70
1.82593	39.04
1.84260	39.37
1.85927	39.71
1.87593	40.04
1.89260	40.37
1.90927	40.69
1.92593	41.02
1.94260	41.36
1.95927	41.68
1.97593	42.00
1.99260	42.34
2.00927	42.67
2.02593	42.98
2.04260	43.31
2.05927	43.64
2.07593	43.94
2.09260	44.26
2.10927	44.59
2.12593	44.90
2.14260	45.24
2.15927	45.55
2.17593	45.86
2.19260	46.21
2.20927	46.52
2.22593	46.85
2.24260	47.20
2.25927	47.50
2.27593	47.88
2.29260	48.22
2.30927	48.52
2.32593	48.86
2.34260	49.15
2.35927	49.45
2.37593	49.65
2.39260	49.73
2.40927	49.72
2.42593	49.73
2.44260	49.73
2.45927	49.76
2.47593	49.75
2.49260	49.76
2.50927	49.79
2.52593	49.79
2.54260	49.81
2.55927	49.82
2.57593	49.82
2.59260	49.82
2.60927	49.84
2.62593	49.86
2.64260	49.85
2.65927	49.85
2.67593	49.85
2.69260	49.85
2.70927	49.86
2.72593	49.88
2.74260	49.87
2.75927	49.87
2.77593	49.88
2.79260	49.89
2.80927	49.90
2.82593	49.91
2.84260	49.92
2.85927	49.93
2.87593	49.95
2.89260	49.96
2.90927	49.97
2.92593	49.98
2.94260	49.98
2.95927	49.99
2.97593	49.99
2.99260	50.00
3.00927	50.02
3.02593	50.03
3.04260	50.04
3.05927	50.04
3.07593	50.05
3.09260	50.06
3.10927	50.07
3.12593	50.09
3.14260	50.12
3.15927	50.12
3.17593	50.12
3.19260	50.11
3.20927	50.10
3.22593	50.09
3.24260	50.08
3.25927	50.08
3.27593	50.07
3.29260	50.06
3.30927	50.05
3.32593	50.04
3.34260	50.03
3.35927	50.01
3.37593	50.00
3.39260	50.00
3.40927	49.99
3.42593	49.99
3.44260	49.98
3.45927	49.99
3.47593	50.00
3.49260	50.00
3.50927	49.99
3.52593	50.00
3.54260	50.01
3.55927	50.03
3.57593	50.03
3.59260	50.03
3.60927	50.03
3.62593	50.03
3.64260	50.04
3.65927	50.04
3.67593	50.04
3.69260	50.05
3.70927	50.06
3.72593	50.07
3.74260	50.06
3.75927	50.06
3.77593	50.06
3.79260	50.06
3.80927	50.05
3.82593	50.06
3.84260	50.06
3.85927	50.06
3.87593	50.07
3.89260	50.06
3.90927	50.06
3.92593	50.05
3.94260	50.04
3.95927	50.03
3.97593	50.04
3.99260	50.05

[Status Trace (Injection Unit Temperature)]
Interval(msec)	1000
# of Points	240
Start Time(min)	0.009
End Time(min)	3.993
Intensity Units	
Intensity Multiplier	1
R.Time (min)	Intensity
0.00927	99.99
0.02593	99.99
0.04260	99.99
0.05927	99.99
0.07593	99.99
0.09260	99.99
0.10927	99.99
0.12593	99.99
0.14260	99.99
0.15927	99.99
0.17593	99.99
0.19260	99.99
0.20927	99.99
0.22593	99.99
0.24260	99.99
0.25927	99.99
0.27593	99.99
0.29260	99.99
0.30927	99.99
0.32593	99.99
0.34260	99.99
0.35927	99.99
0.37593	99.99
0.39260	99.99
0.40927	99.99
0.42593	99.99
0.44260	99.99
0.45927	99.99
0.47593	99.99
0.49260	99.99
0.50927	99.99
0.52593	99.99
0.54260	100.00
0.55927	99.99
0.57593	99.99
0.59260	99.99
0.60927	99.99
0.62593	100.00
0.64260	99.99
0.65927	99.99
0.67593	99.99
0.69260	100.00
0.70927	99.99
0.72593	99.99
0.74260	99.99
0.75927	99.99
0.77593	99.99
0.79260	99.99
0.80927	99.99
0.82593	99.99
0.84260	99.99
0.85927	99.99
0.87593	99.99
0.89260	99.99
0.90927	99.99
0.92593	99.99
0.94260	100.00
0.95927	100.00
0.97593	99.99
0.99260	99.99
1.00927	100.00
1.02593	100.00
1.04260	99.99
1.05927	99.99
1.07593	99.99
1.09260	99.99
1.10927	100.00
1.12593	99.99
1.14260	100.00
1.15927	99.99
1.17593	99.99
1.19260	99.99
1.20927	100.00
1.22593	100.00
1.24260	100.00
1.25927	99.99
1.27593	99.99
1.29260	99.99
1.30927	99.99
1.32593	100.00
1.34260	99.99
1.35927	100.00
1.37593	100.00
1.39260	99.99
1.40927	100.00
1.42593	99.99
1.44260	100.00
1.45927	100.00
1.47593	100.00
1.49260	99.99
1.50927	100.00
1.52593	100.00
1.54260	100.00
1.55927	99.99
1.57593	99.99
1.59260	100.00
1.60927	99.99
1.62593	99.99
1.64260	99.99
1.65927	100.00
1.67593	100.00
1.69260	100.00
1.70927	100.00
1.72593	100.00
1.74260	99.99
1.75927	100.00
1.77593	99.99
1.79260	99.99
1.80927	99.99
1.82593	99.99
1.84260	99.99
1.85927	99.99
1.87593	99.99
1.89260	99.98
1.90927	99.99
1.92593	99.99
1.94260	99.98
1.95927	99.98
1.97593	99.98
1.99260	99.98
2.00927	99.98
2.02593	99.98
2.04260	99.98
2.05927	99.98
2.07593	99.98
2.09260	99.98
2.10927	99.97
2.12593	99.98
2.14260	99.98
2.15927	99.98
2.17593	99.98
2.19260	99.97
2.20927	99.98
2.22593	99.98
2.24260	99.97
2.25927	99.98
2.27593	99.98
2.29260	99.98
2.30927	99.98
2.32593	99.98
2.34260	99.98
2.35927	99.98
2.37593	99.98
2.39260	99.98
2.40927	99.98
2.42593	99.98
2.44260	99.98
2.45927	99.98
2.47593	99.98
2.49260	99.98
2.50927	99.98
2.52593	99.99
2.54260	99.98
2.55927	99.98
2.57593	99.99
2.59260	99.98
2.60927	99.99
2.62593	99.99
2.64260	99.98
2.65927	99.99
2.67593	99.99
2.69260	99.99
2.70927	99.99
2.72593	100.00
2.74260	99.99
2.75927	100.00
2.77593	99.99
2.79260	100.00
2.80927	100.00
2.82593	100.00
2.84260	100.01
2.85927	100.00
2.87593	100.00
2.89260	100.01
2.90927	100.01
2.92593	100.01
2.94260	100.01
2.95927	100.01
2.97593	100.01
2.99260	100.01
3.00927	100.01
3.02593	100.02
3.04260	100.02
3.05927	100.02
3.07593	100.02
3.09260	100.02
3.10927	100.02
3.12593	100.02
3.14260	100.03
3.15927	100.03
3.17593	100.03
3.19260	100.03
3.20927	100.03
3.22593	100.03
3.24260	100.04
3.25927	100.03
3.27593	100.04
3.29260	100.04
3.30927	100.04
3.32593	100.04
3.34260	100.04
3.35927	100.04
3.37593	100.05
3.39260	100.05
3.40927	100.04
3.42593	100.04
3.44260	100.05
3.45927	100.05
3.47593	100.05
3.49260	100.05
3.50927	100.05
3.52593	100.05
3.54260	100.05
3.55927	100.05
3.57593	100.05
3.59260	100.05
3.60927	100.05
3.62593	100.06
3.64260	100.06
3.65927	100.06
3.67593	100.06
3.69260	100.06
3.70927	100.06
3.72593	100.06
3.74260	100.06
3.75927	100.06
3.77593	100.05
3.79260	100.06
3.80927	100.06
3.82593	100.06
3.84260	100.06
3.85927	100.06
3.87593	100.06
3.89260	100.06
3.90927	100.06
3.92593	100.06
3.94260	100.06
3.95927	100.05
3.97593	100.05
3.99260	100.06

[Status Trace (Carrier Gas Pressure)]
Interval(msec)	1000
# of Points	240
Start Time(min)	0.009
End Time(min)	3.993
Intensity Units	
Intensity Multiplier	1
R.Time (min)	Intensity
0.00927	58.00
0.02593	55.26
0.04260	57.08
0.05927	59.32
0.07593	59.48
0.09260	58.06
0.10927	57.98
0.12593	58.01
0.14260	58.01
0.15927	58.01
0.17593	58.00
0.19260	58.00
0.20927	58.00
0.22593	58.00
0.24260	58.00
0.25927	58.00
0.27593	58.00
0.29260	58.00
0.30927	58.00
0.32593	58.00
0.34260	58.00
0.35927	58.00
0.37593	58.00
0.39260	58.00
0.40927	58.00
0.42593	58.00
0.44260	58.00
0.45927	58.00
0.47593	58.00
0.49260	58.00
0.50927	58.00
0.52593	58.00
0.54260	58.00
0.55927	58.00
0.57593	58.00
0.59260	58.00
0.60927	58.00
0.62593	58.00
0.64260	58.00
0.65927	58.00
0.67593	58.00
0.69260	58.00
0.70927	58.00
0.72593	58.00
0.74260	58.00
0.75927	58.00
0.77593	58.00
0.79260	58.00
0.80927	58.00
0.82593	58.00
0.84260	58.00
0.85927	58.00
0.87593	58.00
0.89260	58.00
0.90927	58.00
0.92593	58.00
0.94260	58.00
0.95927	58.00
0.97593	58.00
0.99260	58.00
1.00927	58.00
1.02593	58.00
1.04260	58.00
1.05927	58.00
1.07593	58.00
1.09260	58.00
1.10927	58.00
1.12593	58.00
1.14260	58.00
1.15927	58.00
1.17593	58.00
1.19260	58.00
1.20927	58.00
1.22593	58.00
1.24260	58.00
1.25927	58.00
1.27593	58.00
1.29260	58.00
1.30927	58.00
1.32593	58.00
1.34260	58.00
1.35927	58.00
1.37593	58.00
1.39260	58.00
1.40927	58.00
1.42593	58.00
1.44260	58.00
1.45927	58.00
1.47593	58.00
1.49260	58.00
1.50927	58.00
1.52593	58.00
1.54260	58.00
1.55927	58.00
1.57593	58.00
1.59260	58.00
1.60927	58.00
1.62593	58.00
1.64260	58.00
1.65927	58.00
1.67593	58.01
1.69260	58.00
1.70927	58.00
1.72593	58.00
1.74260	58.00
1.75927	58.00
1.77593	58.00
1.79260	58.00
1.80927	58.00
1.82593	58.00
1.84260	58.00
1.85927	58.00
1.87593	58.00
1.89260	58.00
1.90927	58.00
1.92593	58.00
1.94260	58.00
1.95927	58.00
1.97593	58.00
1.99260	58.00
2.00927	58.00
2.02593	58.00
2.04260	58.00
2.05927	58.00
2.07593	58.00
2.09260	58.00
2.10927	58.00
2.12593	58.00
2.14260	58.00
2.15927	58.00
2.17593	58.00
2.19260	58.00
2.20927	58.00
2.22593	58.00
2.24260	58.00
2.25927	58.00
2.27593	58.00
2.29260	58.00
2.30927	58.00
2.32593	58.00
2.34260	58.00
2.35927	58.00
2.37593	58.00
2.39260	57.99
2.40927	57.99
2.42593	58.00
2.44260	58.00
2.45927	58.00
2.47593	58.00
2.49260	58.00
2.50927	58.00
2.52593	57.98
2.54260	58.00
2.55927	58.00
2.57593	58.00
2.59260	58.00
2.60927	58.00
2.62593	58.00
2.64260	58.00
2.65927	58.00
2.67593	58.00
2.69260	58.00
2.70927	58.00
2.72593	58.00
2.74260	58.00
2.75927	58.00
2.77593	58.00
2.79260	58.00
2.80927	58.00
2.82593	58.00
2.84260	58.00
2.85927	58.00
2.87593	58.00
2.89260	58.00
2.90927	58.00
2.92593	58.00
2.94260	58.00
2.95927	58.00
2.97593	58.00
2.99260	58.00
3.00927	58.00
3.02593	58.00
3.04260	58.00
3.05927	58.00
3.07593	58.00
3.09260	58.00
3.10927	58.00
3.12593	58.00
3.14260	58.00
3.15927	58.00
3.17593	58.00
3.19260	58.00
3.20927	58.00
3.22593	58.00
3.24260	58.00
3.25927	58.00
3.27593	58.00
3.29260	58.00
3.30927	58.00
3.32593	58.00
3.34260	58.00
3.35927	58.00
3.37593	58.00
3.39260	58.00
3.40927	58.00
3.42593	58.00
3.44260	58.00
3.45927	58.00
3.47593	58.00
3.49260	58.00
3.50927	58.00
3.52593	58.00
3.54260	58.00
3.55927	58.00
3.57593	58.00
3.59260	58.00
3.60927	58.00
3.62593	58.00
3.64260	58.00
3.65927	58.00
3.67593	58.00
3.69260	58.00
3.70927	58.00
3.72593	58.00
3.74260	58.00
3.75927	58.00
3.77593	58.00
3.79260	58.00
3.80927	58.00
3.82593	58.00
3.84260	58.00
3.85927	58.00
3.87593	58.00
3.89260	58.00
3.90927	58.00
3.92593	58.00
3.94260	58.00
3.95927	58.00
3.97593	58.00
3.99260	58.00

[Status Trace (Carrier Gas Flow)]
Interval(msec)	1000
# of Points	240
Start Time(min)	0.009
End Time(min)	3.993
Intensity Units	
Intensity Multiplier	1
R.Time (min)	Intensity
0.00927	34.52
0.02593	34.54
0.04260	34.53
0.05927	34.54
0.07593	34.50
0.09260	34.52
0.10927	34.52
0.12593	34.52
0.14260	34.52
0.15927	34.52
0.17593	34.52
0.19260	34.52
0.20927	34.52
0.22593	34.52
0.24260	34.52
0.25927	34.51
0.27593	34.52
0.29260	34.52
0.30927	34.52
0.32593	34.52
0.34260	34.52
0.35927	34.52
0.37593	34.52
0.39260	34.52
0.40927	34.52
0.42593	34.52
0.44260	34.52
0.45927	34.52
0.47593	34.52
0.49260	34.52
0.50927	34.52
0.52593	34.52
0.54260	34.52
0.55927	34.52
0.57593	34.52
0.59260	34.52
0.60927	34.52
0.62593	34.52
0.64260	34.52
0.65927	34.52
0.67593	34.52
0.69260	34.52
0.70927	34.52
0.72593	34.52
0.74260	34.52
0.75927	34.52
0.77593	34.52
0.79260	34.52
0.80927	34.52
0.82593	34.52
0.84260	34.52
0.85927	34.52
0.87593	34.52
0.89260	34.52
0.90927	34.52
0.92593	34.52
0.94260	34.52
0.95927	34.52
0.97593	34.52
0.99260	34.52
1.00927	34.52
1.02593	34.52
1.04260	34.52
1.05927	34.52
1.07593	34.52
1.09260	34.52
1.10927	34.52
1.12593	34.52
1.14260	34.52
1.15927	34.52
1.17593	34.52
1.19260	34.52
1.20927	34.52
1.22593	34.52
1.24260	34.52
1.25927	34.52
1.27593	34.52
1.29260	34.52
1.30927	34.52
1.32593	34.52
1.34260	34.52
1.35927	34.52
1.37593	34.52
1.39260	34.52
1.40927	34.52
1.42593	34.52
1.44260	34.52
1.45927	34.52
1.47593	34.52
1.49260	34.52
1.50927	34.52
1.52593	34.52
1.54260	34.52
1.55927	34.52
1.57593	34.52
1.59260	34.52
1.60927	34.52
1.62593	34.52
1.64260	34.52
1.65927	34.52
1.67593	34.52
1.69260	34.52
1.70927	34.52
1.72593	34.52
1.74260	34.52
1.75927	34.52
1.77593	34.52
1.79260	34.52
1.80927	34.52
1.82593	34.52
1.84260	34.52
1.85927	34.52
1.87593	34.52
1.89260	34.52
1.90927	34.52
1.92593	34.52
1.94260	34.52
1.95927	34.52
1.97593	34.52
1.99260	34.52
2.00927	34.52
2.02593	34.52
2.04260	34.52
2.05927	34.52
2.07593	34.52
2.09260	34.52
2.10927	34.52
2.12593	34.52
2.14260	34.52
2.15927	34.52
2.17593	34.52
2.19260	34.52
2.20927	34.52
2.22593	34.52
2.24260	34.52
2.25927	34.52
2.27593	34.52
2.29260	34.52
2.30927	34.52
2.32593	34.52
2.34260	34.52
2.35927	34.52
2.37593	34.52
2.39260	34.52
2.40927	34.52
2.42593	34.52
2.44260	34.52
2.45927	34.52
2.47593	34.52
2.49260	34.52
2.50927	34.49
2.52593	34.52
2.54260	34.52
2.55927	34.51
2.57593	34.52
2.59260	34.52
2.60927	34.52
2.62593	34.52
2.64260	34.52
2.65927	34.52
2.67593	34.52
2.69260	34.52
2.70927	34.52
2.72593	34.52
2.74260	34.52
2.75927	34.52
2.77593	34.52
2.79260	34.52
2.80927	34.52
2.82593	34.52
2.84260	34.52
2.85927	34.52
2.87593	34.52
2.89260	34.52
2.90927	34.52
2.92593	34.52
2.94260	34.52
2.95927	34.52
2.97593	34.52
2.99260	34.52
3.00927	34.52
3.02593	34.52
3.04260	34.52
3.05927	34.52
3.07593	34.52
3.09260	34.52
3.10927	34.52
3.12593	34.52
3.14260	34.52
3.15927	34.52
3.17593	34.52
3.19260	34.52
3.20927	34.52
3.22593	34.52
3.24260	34.52
3.25927	34.52
3.27593	34.52
3.29260	34.52
3.30927	34.52
3.32593	34.52
3.34260	34.52
3.35927	34.52
3.37593	34.52
3.39260	34.52
3.40927	34.52
3.42593	34.52
3.44260	34.52
3.45927	34.52
3.47593	34.52
3.49260	34.52
3.50927	34.52
3.52593	34.52
3.54260	34.52
3.55927	34.52
3.57593	34.52
3.59260	34.52
3.60927	34.52
3.62593	34.52
3.64260	34.52
3.65927	34.52
3.67593	34.52
3.69260	34.52
3.70927	34.52
3.72593	34.52
3.74260	34.52
3.75927	34.52
3.77593	34.52
3.79260	34.52
3.80927	34.52
3.82593	34.52
3.84260	34.52
3.85927	34.52
3.87593	34.52
3.89260	34.52
3.90927	34.52
3.92593	34.52
3.94260	34.52
3.95927	34.52
3.97593	34.52
3.99260	34.52

[Status Trace (Column Flow)]
Interval(msec)	1000
# of Points	240
Start Time(min)	0.009
End Time(min)	3.993
Intensity Units	
Intensity Multiplier	1
R.Time (min)	Intensity
0.00927	5.57
0.02593	5.25
0.04260	5.46
0.05927	5.72
0.07593	5.74
0.09260	5.58
0.10927	5.57
0.12593	5.57
0.14260	5.57
0.15927	5.57
0.17593	5.57
0.19260	5.57
0.20927	5.57
0.22593	5.57
0.24260	5.57
0.25927	5.57
0.27593	5.57
0.29260	5.57
0.30927	5.57
0.32593	5.57
0.34260	5.57
0.35927	5.57
0.37593	5.57
0.39260	5.57
0.40927	5.57
0.42593	5.57
0.44260	5.57
0.45927	5.57
0.47593	5.57
0.49260	5.57
0.50927	5.57
0.52593	5.57
0.54260	5.57
0.55927	5.57
0.57593	5.57
0.59260	5.57
0.60927	5.57
0.62593	5.57
0.64260	5.57
0.65927	5.57
0.67593	5.57
0.69260	5.57
0.70927	5.57
0.72593	5.57
0.74260	5.57
0.75927	5.57
0.77593	5.57
0.79260	5.57
0.80927	5.57
0.82593	5.57
0.84260	5.57
0.85927	5.57
0.87593	5.57
0.89260	5.57
0.90927	5.57
0.92593	5.57
0.94260	5.57
0.95927	5.57
0.97593	5.57
0.99260	5.57
1.00927	5.57
1.02593	5.57
1.04260	5.57
1.05927	5.57
1.07593	5.57
1.09260	5.57
1.10927	5.57
1.12593	5.57
1.14260	5.57
1.15927	5.57
1.17593	5.57
1.19260	5.57
1.20927	5.57
1.22593	5.57
1.24260	5.57
1.25927	5.57
1.27593	5.57
1.29260	5.57
1.30927	5.57
1.32593	5.57
1.34260	5.57
1.35927	5.57
1.37593	5.57
1.39260	5.57
1.40927	5.57
1.42593	5.57
1.44260	5.57
1.45927	5.57
1.47593	5.57
1.49260	5.57
1.50927	5.57
1.52593	5.57
1.54260	5.57
1.55927	5.57
1.57593	5.57
1.59260	5.57
1.60927	5.57
1.62593	5.56
1.64260	5.56
1.65927	5.55
1.67593	5.54
1.69260	5.53
1.70927	5.51
1.72593	5.50
1.74260	5.49
1.75927	5.48
1.77593	5.47
1.79260	5.46
1.80927	5.45
1.82593	5.44
1.84260	5.43
1.85927	5.42
1.87593	5.41
1.89260	5.40
1.90927	5.39
1.92593	5.38
1.94260	5.37
1.95927	5.36
1.97593	5.35
1.99260	5.34
2.00927	5.33
2.02593	5.32
2.04260	5.31
2.05927	5.30
2.07593	5.30
2.09260	5.29
2.10927	5.28
2.12593	5.27
2.14260	5.26
2.15927	5.25
2.17593	5.24
2.19260	5.23
2.20927	5.22
2.22593	5.21
2.24260	5.20
2.25927	5.19
2.27593	5.18
2.29260	5.17
2.30927	5.16
2.32593	5.15
2.34260	5.15
2.35927	5.14
2.37593	5.13
2.39260	5.13
2.40927	5.13
2.42593	5.13
2.44260	5.13
2.45927	5.13
2.47593	5.13
2.49260	5.13
2.50927	5.13
2.52593	5.13
2.54260	5.13
2.55927	5.13
2.57593	5.13
2.59260	5.13
2.60927	5.13
2.62593	5.13
2.64260	5.13
2.65927	5.13
2.67593	5.13
2.69260	5.13
2.70927	5.13
2.72593	5.12
2.74260	5.12
2.75927	5.12
2.77593	5.12
2.79260	5.12
2.80927	5.12
2.82593	5.12
2.84260	5.12
2.85927	5.12
2.87593	5.12
2.89260	5.12
2.90927	5.12
2.92593	5.12
2.94260	5.12
2.95927	5.12
2.97593	5.12
2.99260	5.12
3.00927	5.12
3.02593	5.12
3.04260	5.12
3.05927	5.12
3.07593	5.12
3.09260	5.12
3.10927	5.12
3.12593	5.12
3.14260	5.12
3.15927	5.12
3.17593	5.12
3.19260	5.12
3.20927	5.12
3.22593	5.12
3.24260	5.12
3.25927	5.12
3.27593	5.12
3.29260	5.12
3.30927	5.12
3.32593	5.12
3.34260	5.12
3.35927	5.12
3.37593	5.12
3.39260	5.12
3.40927	5.12
3.42593	5.12
3.44260	5.12
3.45927	5.12
3.47593	5.12
3.49260	5.12
3.50927	5.12
3.52593	5.12
3.54260	5.12
3.55927	5.12
3.57593	5.12
3.59260	5.12
3.60927	5.12
3.62593	5.12
3.64260	5.12
3.65927	5.12
3.67593	5.12
3.69260	5.12
3.70927	5.12
3.72593	5.12
3.74260	5.12
3.75927	5.12
3.77593	5.12
3.79260	5.12
3.80927	5.12
3.82593	5.12
3.84260	5.12
3.85927	5.12
3.87593	5.12
3.89260	5.12
3.90927	5.12
3.92593	5.12
3.94260	5.12
3.95927	5.12
3.97593	5.12
3.99260	5.12

[Status Trace (Linear Velocity)]
Interval(msec)	1000
# of Points	240
Start Time(min)	0.009
End Time(min)	3.993
Intensity Units	
Intensity Multiplier	1
R.Time (min)	Intensity
0.00927	39.03
0.02593	37.22
0.04260	38.42
0.05927	39.90
0.07593	40.00
0.09260	39.07
0.10927	39.02
0.12593	39.04
0.14260	39.04
0.15927	39.03
0.17593	39.03
0.19260	39.03
0.20927	39.03
0.22593	39.03
0.24260	39.03
0.25927	39.03
0.27593	39.03
0.29260	39.03
0.30927	39.03
0.32593	39.03
0.34260	39.03
0.35927	39.03
0.37593	39.03
0.39260	39.03
0.40927	39.03
0.42593	39.03
0.44260	39.03
0.45927	39.03
0.47593	39.03
0.49260	39.03
0.50927	39.03
0.52593	39.03
0.54260	39.03
0.55927	39.03
0.57593	39.03
0.59260	39.03
0.60927	39.03
0.62593	39.03
0.64260	39.03
0.65927	39.03
0.67593	39.03
0.69260	39.03
0.70927	39.03
0.72593	39.03
0.74260	39.03
0.75927	39.03
0.77593	39.03
0.79260	39.03
0.80927	39.03
0.82593	39.03
0.84260	39.03
0.85927	39.03
0.87593	39.03
0.89260	39.03
0.90927	39.03
0.92593	39.03
0.94260	39.03
0.95927	39.03
0.97593	39.03
0.99260	39.03
1.00927	39.03
1.02593	39.03
1.04260	39.03
1.05927	39.03
1.07593	39.03
1.09260	39.03
1.10927	39.03
1.12593	39.03
1.14260	39.03
1.15927	39.03
1.17593	39.03
1.19260	39.03
1.20927	39.03
1.22593	39.03
1.24260	39.03
1.25927	39.03
1.27593	39.02
1.29260	39.03
1.30927	39.03
1.32593	39.03
1.34260	39.03
1.35927	39.03
1.37593	39.03
1.39260	39.03
1.40927	39.03
1.42593	39.03
1.44260	39.03
1.45927	39.03
1.47593	39.03
1.49260	39.03
1.50927	39.03
1.52593	39.03
1.54260	39.03
1.55927	39.03
1.57593	39.03
1.59260	39.03
1.60927	39.02
1.62593	39.01
1.64260	38.99
1.65927	38.97
1.67593	38.94
1.69260	38.90
1.70927	38.86
1.72593	38.83
1.74260	38.80
1.75927	38.77
1.77593	38.74
1.79260	38.71
1.80927	38.67
1.82593	38.65
1.84260	38.61
1.85927	38.58
1.87593	38.55
1.89260	38.52
1.90927	38.49
1.92593	38.46
1.94260	38.43
1.95927	38.40
1.97593	38.37
1.99260	38.34
2.00927	38.30
2.02593	38.28
2.04260	38.25
2.05927	38.22
2.07593	38.19
2.09260	38.16
2.10927	38.13
2.12593	38.10
2.14260	38.07
2.15927	38.04
2.17593	38.02
2.19260	37.98
2.20927	37.95
2.22593	37.93
2.24260	37.89
2.25927	37.86
2.27593	37.84
2.29260	37.80
2.30927	37.77
2.32593	37.75
2.34260	37.72
2.35927	37.69
2.37593	37.67
2.39260	37.66
2.40927	37.66
2.42593	37.67
2.44260	37.67
2.45927	37.66
2.47593	37.66
2.49260	37.66
2.50927	37.66
2.52593	37.65
2.54260	37.66
2.55927	37.66
2.57593	37.66
2.59260	37.66
2.60927	37.66
2.62593	37.66
2.64260	37.66
2.65927	37.66
2.67593	37.66
2.69260	37.66
2.70927	37.66
2.72593	37.65
2.74260	37.65
2.75927	37.65
2.77593	37.65
2.79260	37.65
2.80927	37.65
2.82593	37.65
2.84260	37.65
2.85927	37.65
2.87593	37.65
2.89260	37.65
2.90927	37.65
2.92593	37.65
2.94260	37.64
2.95927	37.64
2.97593	37.64
2.99260	37.64
3.00927	37.64
3.02593	37.64
3.04260	37.64
3.05927	37.64
3.07593	37.64
3.09260	37.64
3.10927	37.64
3.12593	37.64
3.14260	37.63
3.15927	37.63
3.17593	37.63
3.19260	37.63
3.20927	37.63
3.22593	37.63
3.24260	37.64
3.25927	37.64
3.27593	37.64
3.29260	37.64
3.30927	37.64
3.32593	37.64
3.34260	37.64
3.35927	37.64
3.37593	37.64
3.39260	37.64
3.40927	37.64
3.42593	37.64
3.44260	37.64
3.45927	37.64
3.47593	37.64
3.49260	37.64
3.50927	37.64
3.52593	37.64
3.54260	37.64
3.55927	37.64
3.57593	37.64
3.59260	37.64
3.60927	37.64
3.62593	37.64
3.64260	37.64
3.65927	37.64
3.67593	37.64
3.69260	37.64
3.70927	37.64
3.72593	37.64
3.74260	37.64
3.75927	37.64
3.77593	37.64
3.79260	37.64
3.80927	37.64
3.82593	37.64
3.84260	37.64
3.85927	37.64
3.87593	37.64
3.89260	37.64
3.90927	37.64
3.92593	37.64
3.94260	37.64
3.95927	37.64
3.97593	37.64
3.99260	37.64

