[Header]
Application Name	LabSolutions
Version	5.110
Data File Name	C:\Users\User\Desktop\GC Analyses\Jack\UIC Prairie Sampling\7.22.22\220722_037.gcd
Output Date	10/5/2022
Output Time	2:13:40 PM

[File Information]
Type	Data File
Generated	9/28/2022 11:43:33 AM
Generated by	System Administrator
Modified	9/28/2022 11:48:08 AM
Modified by	System Administrator

[Sample Information]
Operator Name	System Administrator
Acquired	9/28/2022 11:44:06 AM
Sample Type	1:Standard
Level	1
Sample Name	220722_UICPrairie
Sample ID	220722_UICPrairie
ISTD Amount1	1
ISTD Amount2	1
ISTD Amount3	1
ISTD Amount4	1
ISTD Amount5	1
ISTD Amount6	1
ISTD Amount7	1
ISTD Amount8	1
ISTD Amount9	1
ISTD Amount10	1
ISTD Amount11	1
ISTD Amount12	1
ISTD Amount13	1
ISTD Amount14	1
ISTD Amount15	1
ISTD Amount16	1
ISTD Amount17	1
ISTD Amount18	1
ISTD Amount19	1
ISTD Amount20	1
ISTD Amount21	1
ISTD Amount22	1
ISTD Amount23	1
ISTD Amount24	1
ISTD Amount25	1
ISTD Amount26	1
ISTD Amount27	1
ISTD Amount28	1
ISTD Amount29	1
ISTD Amount30	1
ISTD Amount31	1
ISTD Amount32	1
Sample Amount	1
Dilution Factor	1
Vial#	1
Injection Volume	1
Injection Count	1
Bar Code	

[Original Files]
Data File	C:\Users\User\Desktop\GC Analyses\Jack\UIC Prairie Sampling\7.22.22\220722_037.gcd
Method File	C:\LabSolutions\Data\GHG_4min_2022\ghg3_togas_w_acet_4 min_new_int.gcm
Batch File	
Report Format File	c:\LabSolutions\System\DEFAULT.lsr

[File Description]


[Configuration]
Instrument Name	C0B7VH3-Instrument1
Instrument #	1
Line #	1
# of Detectors	3
Detector ID	DET#1	DET#2	DET#3
Detector Name	FID	PTCD	ECD
# of Channels	1	1	1

[Peak Table(Ch1)]
# of Peaks	3
Peak#	R.Time	I.Time	F.Time	Area	Height	A/H	Conc.	Mark	ID#	Name	k'	Plate #	Plate Ht.	Tailing	Resolution	Sep.Factor	Area Ratio	Height Ratio	Conc. %	Norm Conc.
1	1.476	1.432	1.538	15865	7011	2.263	100.000	   	1	CO	0.000	8332	18.003	1.309	0.000	0.000	0	0	16.667	16.667
2	1.571	1.538	1.644	4538	2258	2.009	100.000	 V 	2	CH4	0.065	11186	13.410	1.187	1.537	0.000	0	0	16.667	16.667
3	2.000	1.952	2.341	2586249	1258892	2.054	400.000	   	3	CO2	0.355	17592	8.527	1.200	7.166	5.500	0	0	66.667	66.667

[Peak Table(Ch2)]
# of Peaks	0

[Peak Table(Ch3)]
# of Peaks	3
Peak#	R.Time	I.Time	F.Time	Area	Height	A/H	Conc.	Mark	ID#	Name	k'	Plate #	Plate Ht.	Tailing	Resolution	Sep.Factor	Area Ratio	Height Ratio	Conc. %	Norm Conc.
1	2.594	2.495	2.664	6417	909	7.064	0.000	   			0.000	3118	48.106	0.000	0.000	0.000	0	0	0.000	0.000
2	2.741	2.664	2.781	3590	522	6.880	0.119	 V 	1	N2O	0.057	102	1477.735	0.000	0.230	0.000	0	0	11.859	11.859
3	2.884	2.781	3.280	26680	5375	4.964	0.881	 V 	1	N2O	0.112	11347	13.219	0.000	0.239	1.975	0	0	88.141	88.141

[Compound Results(Ch1)]
# of IDs	6
ID#	Name	R.Time	Area	Height	Conc.	Curve	3rd	2nd	1st	Constant	Area Ratio	Height Ratio	Conc. %	Norm Conc.
1	CO	1.476	15865	7011	100.000	Linear	0.000000e+00	0.000000e+00	1.586519e+002	0.000000e+00	0	0	16.667	16.667
2	CH4	1.571	4538	2258	100.000	Linear	0.000000e+00	0.000000e+00	4.537725e+001	0.000000e+00	0	0	16.667	16.667
3	CO2	2.000	2586249	1258892	400.000	Linear	0.000000e+00	0.000000e+00	6.465623e+003	0.000000e+00	0	0	66.667	66.667
4	Ethylene	0.000	0	0	0.000	Linear	0.000000e+00	0.000000e+00	0.000000e+00	0.000000e+00	0	0	0.000	0.000
5	Acetylene	0.000	0	0	0.000	Linear	0.000000e+00	0.000000e+00	0.000000e+00	0.000000e+00	0	0	0.000	0.000
6	Ethane	0.000	0	0	0.000	Linear	0.000000e+00	0.000000e+00	0.000000e+00	0.000000e+00	0	0	0.000	0.000

[Compound Results(Ch2)]
# of IDs	5
ID#	Name	R.Time	Area	Height	Conc.	Curve	3rd	2nd	1st	Constant	Area Ratio	Height Ratio	Conc. %	Norm Conc.
1	Hydrogen	0.000	0	0	0.000	Linear	0.000000e+00	0.000000e+00	0.000000e+00	0.000000e+00	0	0	0.000	0.000
2	Oxygen	0.000	0	0	0.000	Linear	0.000000e+00	0.000000e+00	0.000000e+00	0.000000e+00	0	0	0.000	0.000
3	Nitrogen	0.000	0	0	0.000	Linear	0.000000e+00	0.000000e+00	0.000000e+00	0.000000e+00	0	0	0.000	0.000
4	Methane	0.000	0	0	0.000	Linear	0.000000e+00	0.000000e+00	0.000000e+00	0.000000e+00	0	0	0.000	0.000
5	Carbon Monoxide	0.000	0	0	0.000	Linear	0.000000e+00	0.000000e+00	0.000000e+00	0.000000e+00	0	0	0.000	0.000

[Compound Results(Ch3)]
# of IDs	2
ID#	Name	R.Time	Area	Height	Conc.	Curve	3rd	2nd	1st	Constant	Area Ratio	Height Ratio	Conc. %	Norm Conc.
1	N2O	2.884	30270	5897	1.000	Linear	0.000000e+00	0.000000e+00	3.026989e+004	0.000000e+00	0	0	100.000	100.000
2	SF6	0.000	0	0	0.000	Linear	0.000000e+00	0.000000e+00	0.000000e+00	0.000000e+00	0	0	0.000	0.000

[Group Results(Ch1)]
# of Groups	0

[Group Results(Ch2)]
# of Groups	0

[Group Results(Ch3)]
# of Groups	0

[Chromatogram (Ch1)]
Interval(msec)	220
# of Points	1091
Start Time(min)	0.002
End Time(min)	3.998
R.Time (min)	Intensity
0.00167	-9
0.00533	-5
0.00900	0
0.01267	4
0.01633	7
0.02000	13
0.02367	22
0.02733	26
0.03100	21
0.03467	10
0.03833	2
0.04200	-6
0.04567	-11
0.04933	-12
0.05300	-13
0.05667	-15
0.06033	-17
0.06400	-17
0.06767	-12
0.07133	-7
0.07500	-4
0.07867	-7
0.08233	-7
0.08600	-7
0.08967	-3
0.09333	-2
0.09700	-3
0.10067	-4
0.10433	-4
0.10800	-3
0.11167	2
0.11533	7
0.11900	6
0.12267	2
0.12633	-3
0.13000	-8
0.13367	-11
0.13733	-10
0.14100	-6
0.14467	-7
0.14833	-13
0.15200	-19
0.15567	-22
0.15933	-22
0.16300	-20
0.16667	-17
0.17033	-11
0.17400	-6
0.17767	-1
0.18133	2
0.18500	3
0.18867	0
0.19233	-4
0.19600	-8
0.19967	-13
0.20333	-19
0.20700	-21
0.21067	-20
0.21433	-21
0.21800	-22
0.22167	-20
0.22533	-14
0.22900	-7
0.23267	-3
0.23633	-4
0.24000	-10
0.24367	-13
0.24733	-16
0.25100	-19
0.25467	-21
0.25833	-19
0.26200	-14
0.26567	-9
0.26933	-7
0.27300	-10
0.27667	-15
0.28033	-18
0.28400	-19
0.28767	-21
0.29133	-25
0.29500	-27
0.29867	-28
0.30233	-30
0.30600	-32
0.30967	-35
0.31333	-36
0.31700	-37
0.32067	-37
0.32433	-36
0.32800	-35
0.33167	-36
0.33533	-37
0.33900	-34
0.34267	-28
0.34633	-21
0.35000	-16
0.35367	-14
0.35733	-13
0.36100	-12
0.36467	-11
0.36833	-10
0.37200	-10
0.37567	-13
0.37933	-17
0.38300	-21
0.38667	-25
0.39033	-30
0.39400	-37
0.39767	-40
0.40133	-37
0.40500	-31
0.40867	-28
0.41233	-26
0.41600	-27
0.41967	-29
0.42333	-32
0.42700	-38
0.43067	-40
0.43433	-36
0.43800	-30
0.44167	-25
0.44533	-23
0.44900	-26
0.45267	-32
0.45633	-37
0.46000	-39
0.46367	-39
0.46733	-39
0.47100	-38
0.47467	-37
0.47833	-34
0.48200	-29
0.48567	-25
0.48933	-23
0.49300	-24
0.49667	-30
0.50033	-36
0.50400	-41
0.50767	-42
0.51133	-37
0.51500	-28
0.51867	-20
0.52233	-19
0.52600	-24
0.52967	-30
0.53333	-35
0.53700	-38
0.54067	-40
0.54433	-37
0.54800	-30
0.55167	-22
0.55533	-16
0.55900	-17
0.56267	-17
0.56633	-16
0.57000	-15
0.57367	-15
0.57733	-18
0.58100	-20
0.58467	-23
0.58833	-28
0.59200	-33
0.59567	-36
0.59933	-39
0.60300	-41
0.60667	-39
0.61033	-38
0.61400	-39
0.61767	-41
0.62133	-42
0.62500	-41
0.62867	-38
0.63233	-37
0.63600	-39
0.63967	-39
0.64333	-36
0.64700	-33
0.65067	-33
0.65433	-39
0.65800	-45
0.66167	-47
0.66533	-45
0.66900	-44
0.67267	-43
0.67633	-43
0.68000	-44
0.68367	-43
0.68733	-42
0.69100	-42
0.69467	-41
0.69833	-39
0.70200	-38
0.70567	-37
0.70933	-34
0.71300	-27
0.71667	-23
0.72033	-27
0.72400	-34
0.72767	-40
0.73133	-44
0.73500	-46
0.73867	-47
0.74233	-49
0.74600	-53
0.74967	-60
0.75333	-66
0.75700	-67
0.76067	-64
0.76433	-60
0.76800	-58
0.77167	-59
0.77533	-60
0.77900	-63
0.78267	-62
0.78633	-59
0.79000	-54
0.79367	-48
0.79733	-43
0.80100	-38
0.80467	-35
0.80833	-34
0.81200	-35
0.81567	-35
0.81933	-37
0.82300	-39
0.82667	-39
0.83033	-38
0.83400	-40
0.83767	-43
0.84133	-48
0.84500	-52
0.84867	-53
0.85233	-50
0.85600	-45
0.85967	-43
0.86333	-43
0.86700	-45
0.87067	-49
0.87433	-51
0.87800	-50
0.88167	-49
0.88533	-47
0.88900	-42
0.89267	-42
0.89633	-46
0.90000	-54
0.90367	-61
0.90733	-62
0.91100	-61
0.91467	-63
0.91833	-65
0.92200	-63
0.92567	-59
0.92933	-55
0.93300	-54
0.93667	-53
0.94033	-53
0.94400	-53
0.94767	-53
0.95133	-56
0.95500	-58
0.95867	-58
0.96233	-56
0.96600	-53
0.96967	-52
0.97333	-50
0.97700	-49
0.98067	-47
0.98433	-46
0.98800	-47
0.99167	-49
0.99533	-55
0.99900	-59
1.00267	-60
1.00633	-60
1.01000	-60
1.01367	-60
1.01733	-57
1.02100	-53
1.02467	-50
1.02833	-52
1.03200	-59
1.03567	-69
1.03933	-79
1.04300	-87
1.04667	-90
1.05033	-90
1.05400	-85
1.05767	-80
1.06133	-74
1.06500	-70
1.06867	-66
1.07233	-60
1.07600	-55
1.07967	-52
1.08333	-51
1.08700	-52
1.09067	-55
1.09433	-57
1.09800	-59
1.10167	-61
1.10533	-63
1.10900	-64
1.11267	-67
1.11633	-67
1.12000	-63
1.12367	-61
1.12733	-63
1.13100	-66
1.13467	-67
1.13833	-66
1.14200	-65
1.14567	-65
1.14933	-69
1.15300	-75
1.15667	-77
1.16033	-76
1.16400	-75
1.16767	-71
1.17133	-69
1.17500	-70
1.17867	-72
1.18233	-74
1.18600	-77
1.18967	-78
1.19333	-79
1.19700	-81
1.20067	-82
1.20433	-83
1.20800	-82
1.21167	-81
1.21533	-80
1.21900	-76
1.22267	-75
1.22633	-73
1.23000	-68
1.23367	-60
1.23733	-54
1.24100	-51
1.24467	-55
1.24833	-61
1.25200	-62
1.25567	-59
1.25933	-58
1.26300	-60
1.26667	-64
1.27033	-68
1.27400	-70
1.27767	-71
1.28133	-71
1.28500	-66
1.28867	-56
1.29233	-47
1.29600	-43
1.29967	-44
1.30333	-51
1.30700	-60
1.31067	-67
1.31433	-71
1.31800	-68
1.32167	-62
1.32533	-58
1.32900	-61
1.33267	-68
1.33633	-75
1.34000	-78
1.34367	-78
1.34733	-74
1.35100	-70
1.35467	-67
1.35833	-67
1.36200	-69
1.36567	-68
1.36933	-66
1.37300	-62
1.37667	-58
1.38033	-55
1.38400	-53
1.38767	-56
1.39133	-62
1.39500	-67
1.39867	-71
1.40233	-75
1.40600	-79
1.40967	-83
1.41333	-84
1.41700	-81
1.42067	-80
1.42433	-81
1.42800	-80
1.43167	-75
1.43533	-71
1.43900	-61
1.44267	-4
1.44633	202
1.45000	641
1.45367	1346
1.45733	2364
1.46100	3599
1.46467	4819
1.46833	5836
1.47200	6555
1.47567	6928
1.47933	6927
1.48300	6536
1.48667	5799
1.49033	4838
1.49400	3821
1.49767	2888
1.50133	2115
1.50500	1517
1.50867	1073
1.51233	747
1.51600	510
1.51967	341
1.52333	220
1.52700	132
1.53067	65
1.53433	20
1.53800	-4
1.54167	-1
1.54533	74
1.54900	281
1.55267	632
1.55633	1061
1.56000	1477
1.56367	1816
1.56733	2052
1.57100	2159
1.57467	2105
1.57833	1886
1.58200	1551
1.58567	1175
1.58933	828
1.59300	543
1.59667	330
1.60033	184
1.60400	92
1.60767	33
1.61133	-8
1.61500	-36
1.61867	-53
1.62233	-61
1.62600	-68
1.62967	-76
1.63333	-86
1.63700	-96
1.64067	-105
1.64433	-113
1.64800	-118
1.65167	-118
1.65533	-117
1.65900	-114
1.66267	-109
1.66633	-105
1.67000	-102
1.67367	-99
1.67733	-98
1.68100	-97
1.68467	-95
1.68833	-95
1.69200	-95
1.69567	-95
1.69933	-96
1.70300	-96
1.70667	-92
1.71033	-85
1.71400	-80
1.71767	-80
1.72133	-80
1.72500	-81
1.72867	-84
1.73233	-85
1.73600	-85
1.73967	-85
1.74333	-83
1.74700	-77
1.75067	-75
1.75433	-77
1.75800	-84
1.76167	-87
1.76533	-84
1.76900	-83
1.77267	-84
1.77633	-85
1.78000	-88
1.78367	-91
1.78733	-92
1.79100	-89
1.79467	-84
1.79833	-80
1.80200	-81
1.80567	-83
1.80933	-83
1.81300	-81
1.81667	-76
1.82033	-72
1.82400	-68
1.82767	-65
1.83133	-62
1.83500	-60
1.83867	-59
1.84233	-60
1.84600	-63
1.84967	-65
1.85333	-64
1.85700	-63
1.86067	-61
1.86433	-58
1.86800	-57
1.87167	-58
1.87533	-61
1.87900	-66
1.88267	-70
1.88633	-74
1.89000	-76
1.89367	-77
1.89733	-73
1.90100	-69
1.90467	-67
1.90833	-68
1.91200	-71
1.91567	-72
1.91933	-70
1.92300	-66
1.92667	-61
1.93033	-56
1.93400	-53
1.93767	-48
1.94133	-41
1.94500	-34
1.94867	-33
1.95233	-34
1.95600	15
1.95967	404
1.96333	2572
1.96700	11657
1.97067	40712
1.97433	112227
1.97800	247961
1.98167	449291
1.98533	689061
1.98900	923805
1.99267	1113138
1.99633	1229564
2.00000	1258885
2.00367	1201117
2.00733	1071060
2.01100	895866
2.01467	706894
2.01833	530495
2.02200	382360
2.02567	267418
2.02933	183280
2.03300	124191
2.03667	83851
2.04033	56814
2.04400	38881
2.04767	27028
2.05133	19176
2.05500	13937
2.05867	10395
2.06233	7964
2.06600	6261
2.06967	5044
2.07333	4154
2.07700	3489
2.08067	2983
2.08433	2591
2.08800	2281
2.09167	2031
2.09533	1825
2.09900	1654
2.10267	1506
2.10633	1379
2.11000	1267
2.11367	1172
2.11733	1090
2.12100	1021
2.12467	962
2.12833	913
2.13200	871
2.13567	833
2.13933	796
2.14300	756
2.14667	713
2.15033	675
2.15400	643
2.15767	615
2.16133	589
2.16500	566
2.16867	545
2.17233	527
2.17600	509
2.17967	492
2.18333	478
2.18700	465
2.19067	451
2.19433	435
2.19800	420
2.20167	405
2.20533	390
2.20900	377
2.21267	371
2.21633	370
2.22000	368
2.22367	364
2.22733	356
2.23100	347
2.23467	339
2.23833	331
2.24200	323
2.24567	315
2.24933	303
2.25300	293
2.25667	288
2.26033	283
2.26400	277
2.26767	267
2.27133	255
2.27500	244
2.27867	238
2.28233	239
2.28600	243
2.28967	245
2.29333	237
2.29700	223
2.30067	211
2.30433	205
2.30800	205
2.31167	207
2.31533	214
2.31900	222
2.32267	225
2.32633	222
2.33000	213
2.33367	202
2.33733	193
2.34100	185
2.34467	179
2.34833	180
2.35200	188
2.35567	196
2.35933	196
2.36300	190
2.36667	182
2.37033	178
2.37400	178
2.37767	181
2.38133	187
2.38500	190
2.38867	186
2.39233	177
2.39600	170
2.39967	168
2.40333	171
2.40700	174
2.41067	174
2.41433	169
2.41800	163
2.42167	159
2.42533	156
2.42900	154
2.43267	153
2.43633	154
2.44000	155
2.44367	157
2.44733	156
2.45100	156
2.45467	157
2.45833	157
2.46200	155
2.46567	154
2.46933	155
2.47300	157
2.47667	159
2.48033	161
2.48400	159
2.48767	154
2.49133	147
2.49500	142
2.49867	141
2.50233	140
2.50600	135
2.50967	129
2.51333	122
2.51700	114
2.52067	110
2.52433	112
2.52800	115
2.53167	118
2.53533	122
2.53900	127
2.54267	129
2.54633	126
2.55000	121
2.55367	114
2.55733	108
2.56100	108
2.56467	112
2.56833	114
2.57200	111
2.57567	107
2.57933	104
2.58300	102
2.58667	100
2.59033	100
2.59400	101
2.59767	102
2.60133	101
2.60500	98
2.60867	96
2.61233	95
2.61600	99
2.61967	103
2.62333	105
2.62700	106
2.63067	105
2.63433	104
2.63800	100
2.64167	96
2.64533	95
2.64900	96
2.65267	98
2.65633	100
2.66000	99
2.66367	95
2.66733	90
2.67100	88
2.67467	90
2.67833	93
2.68200	94
2.68567	92
2.68933	89
2.69300	87
2.69667	85
2.70033	79
2.70400	72
2.70767	68
2.71133	68
2.71500	70
2.71867	74
2.72233	77
2.72600	80
2.72967	81
2.73333	79
2.73700	73
2.74067	68
2.74433	65
2.74800	65
2.75167	67
2.75533	71
2.75900	73
2.76267	71
2.76633	67
2.77000	60
2.77367	55
2.77733	53
2.78100	52
2.78467	53
2.78833	54
2.79200	56
2.79567	56
2.79933	54
2.80300	50
2.80667	43
2.81033	39
2.81400	40
2.81767	45
2.82133	49
2.82500	50
2.82867	48
2.83233	46
2.83600	46
2.83967	48
2.84333	50
2.84700	53
2.85067	54
2.85433	55
2.85800	59
2.86167	62
2.86533	63
2.86900	60
2.87267	55
2.87633	52
2.88000	54
2.88367	58
2.88733	62
2.89100	68
2.89467	70
2.89833	68
2.90200	68
2.90567	69
2.90933	72
2.91300	69
2.91667	59
2.92033	47
2.92400	38
2.92767	35
2.93133	36
2.93500	38
2.93867	37
2.94233	35
2.94600	33
2.94967	26
2.95333	18
2.95700	16
2.96067	20
2.96433	27
2.96800	37
2.97167	47
2.97533	57
2.97900	64
2.98267	65
2.98633	58
2.99000	44
2.99367	30
2.99733	19
3.00100	14
3.00467	13
3.00833	16
3.01200	22
3.01567	27
3.01933	30
3.02300	31
3.02667	30
3.03033	28
3.03400	28
3.03767	28
3.04133	28
3.04500	28
3.04867	31
3.05233	33
3.05600	34
3.05967	36
3.06333	36
3.06700	35
3.07067	34
3.07433	33
3.07800	35
3.08167	38
3.08533	40
3.08900	43
3.09267	44
3.09633	43
3.10000	39
3.10367	36
3.10733	37
3.11100	40
3.11467	45
3.11833	46
3.12200	44
3.12567	40
3.12933	35
3.13300	29
3.13667	24
3.14033	21
3.14400	23
3.14767	27
3.15133	32
3.15500	38
3.15867	42
3.16233	43
3.16600	44
3.16967	46
3.17333	50
3.17700	52
3.18067	52
3.18433	48
3.18800	41
3.19167	31
3.19533	24
3.19900	21
3.20267	24
3.20633	28
3.21000	34
3.21367	40
3.21733	46
3.22100	51
3.22467	51
3.22833	49
3.23200	45
3.23567	42
3.23933	40
3.24300	43
3.24667	45
3.25033	46
3.25400	41
3.25767	34
3.26133	28
3.26500	28
3.26867	30
3.27233	32
3.27600	34
3.27967	35
3.28333	33
3.28700	31
3.29067	32
3.29433	34
3.29800	37
3.30167	37
3.30533	34
3.30900	28
3.31267	23
3.31633	20
3.32000	23
3.32367	32
3.32733	43
3.33100	48
3.33467	47
3.33833	41
3.34200	31
3.34567	22
3.34933	15
3.35300	11
3.35667	8
3.36033	6
3.36400	8
3.36767	17
3.37133	26
3.37500	32
3.37867	37
3.38233	37
3.38600	37
3.38967	40
3.39333	42
3.39700	39
3.40067	36
3.40433	34
3.40800	32
3.41167	27
3.41533	23
3.41900	22
3.42267	22
3.42633	22
3.43000	20
3.43367	16
3.43733	12
3.44100	7
3.44467	5
3.44833	4
3.45200	3
3.45567	-0
3.45933	-7
3.46300	-10
3.46667	-5
3.47033	1
3.47400	9
3.47767	17
3.48133	21
3.48500	20
3.48867	19
3.49233	20
3.49600	21
3.49967	18
3.50333	12
3.50700	7
3.51067	7
3.51433	12
3.51800	18
3.52167	25
3.52533	29
3.52900	34
3.53267	42
3.53633	47
3.54000	46
3.54367	36
3.54733	24
3.55100	13
3.55467	3
3.55833	-4
3.56200	-7
3.56567	-9
3.56933	-8
3.57300	-4
3.57667	4
3.58033	11
3.58400	13
3.58767	13
3.59133	12
3.59500	12
3.59867	10
3.60233	7
3.60600	6
3.60967	9
3.61333	11
3.61700	14
3.62067	18
3.62433	21
3.62800	19
3.63167	15
3.63533	11
3.63900	7
3.64267	6
3.64633	6
3.65000	7
3.65367	5
3.65733	0
3.66100	-2
3.66467	-3
3.66833	-3
3.67200	2
3.67567	5
3.67933	5
3.68300	5
3.68667	5
3.69033	3
3.69400	1
3.69767	0
3.70133	0
3.70500	3
3.70867	4
3.71233	2
3.71600	0
3.71967	2
3.72333	7
3.72700	13
3.73067	16
3.73433	15
3.73800	10
3.74167	8
3.74533	9
3.74900	11
3.75267	14
3.75633	15
3.76000	12
3.76367	8
3.76733	7
3.77100	10
3.77467	14
3.77833	20
3.78200	27
3.78567	30
3.78933	27
3.79300	24
3.79667	21
3.80033	15
3.80400	8
3.80767	5
3.81133	4
3.81500	5
3.81867	7
3.82233	12
3.82600	20
3.82967	27
3.83333	29
3.83700	26
3.84067	22
3.84433	21
3.84800	21
3.85167	21
3.85533	19
3.85900	18
3.86267	17
3.86633	14
3.87000	11
3.87367	11
3.87733	15
3.88100	19
3.88467	19
3.88833	13
3.89200	6
3.89567	4
3.89933	6
3.90300	7
3.90667	5
3.91033	3
3.91400	4
3.91767	6
3.92133	8
3.92500	7
3.92867	7
3.93233	9
3.93600	13
3.93967	19
3.94333	24
3.94700	23
3.95067	21
3.95433	20
3.95800	24
3.96167	29
3.96533	35
3.96900	38
3.97267	39
3.97633	39
3.98000	41
3.98367	44
3.98733	46
3.99100	46
3.99467	44
3.99833	41

[Chromatogram (Ch2)]
Interval(msec)	220
# of Points	1091
Start Time(min)	0.002
End Time(min)	3.998
R.Time (min)	Intensity
0.00167	1
0.00533	1
0.00900	1
0.01267	1
0.01633	1
0.02000	1
0.02367	1
0.02733	1
0.03100	1
0.03467	0
0.03833	0
0.04200	0
0.04567	1
0.04933	1
0.05300	1
0.05667	1
0.06033	1
0.06400	1
0.06767	1
0.07133	1
0.07500	1
0.07867	1
0.08233	1
0.08600	0
0.08967	0
0.09333	1
0.09700	1
0.10067	1
0.10433	1
0.10800	1
0.11167	1
0.11533	1
0.11900	1
0.12267	1
0.12633	1
0.13000	1
0.13367	1
0.13733	1
0.14100	1
0.14467	2
0.14833	2
0.15200	2
0.15567	2
0.15933	2
0.16300	2
0.16667	2
0.17033	1
0.17400	1
0.17767	1
0.18133	0
0.18500	-0
0.18867	-1
0.19233	-1
0.19600	-2
0.19967	-2
0.20333	-2
0.20700	-2
0.21067	-3
0.21433	-3
0.21800	-3
0.22167	-4
0.22533	-4
0.22900	-4
0.23267	-4
0.23633	-4
0.24000	-3
0.24367	-3
0.24733	-3
0.25100	-2
0.25467	-2
0.25833	-1
0.26200	-1
0.26567	-1
0.26933	-0
0.27300	-0
0.27667	0
0.28033	0
0.28400	1
0.28767	1
0.29133	1
0.29500	1
0.29867	1
0.30233	1
0.30600	1
0.30967	1
0.31333	1
0.31700	1
0.32067	0
0.32433	0
0.32800	-0
0.33167	-0
0.33533	-0
0.33900	-1
0.34267	-1
0.34633	-1
0.35000	-1
0.35367	-1
0.35733	-0
0.36100	-0
0.36467	-0
0.36833	-0
0.37200	-0
0.37567	-0
0.37933	0
0.38300	0
0.38667	0
0.39033	0
0.39400	0
0.39767	0
0.40133	0
0.40500	0
0.40867	0
0.41233	0
0.41600	0
0.41967	1
0.42333	1
0.42700	1
0.43067	1
0.43433	1
0.43800	1
0.44167	1
0.44533	1
0.44900	1
0.45267	1
0.45633	1
0.46000	0
0.46367	0
0.46733	0
0.47100	0
0.47467	0
0.47833	0
0.48200	0
0.48567	0
0.48933	1
0.49300	1
0.49667	1
0.50033	1
0.50400	1
0.50767	1
0.51133	1
0.51500	1
0.51867	1
0.52233	1
0.52600	1
0.52967	0
0.53333	0
0.53700	-0
0.54067	-0
0.54433	-0
0.54800	-0
0.55167	-1
0.55533	-1
0.55900	-1
0.56267	-1
0.56633	-1
0.57000	-1
0.57367	-1
0.57733	-1
0.58100	-1
0.58467	-1
0.58833	-1
0.59200	-1
0.59567	-1
0.59933	-1
0.60300	-1
0.60667	-1
0.61033	-1
0.61400	-1
0.61767	-1
0.62133	-1
0.62500	-1
0.62867	-1
0.63233	-1
0.63600	-1
0.63967	-1
0.64333	-1
0.64700	-1
0.65067	-2
0.65433	-2
0.65800	-2
0.66167	-3
0.66533	-3
0.66900	-3
0.67267	-3
0.67633	-3
0.68000	-3
0.68367	-3
0.68733	-3
0.69100	-3
0.69467	-3
0.69833	-3
0.70200	-3
0.70567	-2
0.70933	-2
0.71300	-2
0.71667	-2
0.72033	-2
0.72400	-1
0.72767	-1
0.73133	-1
0.73500	-1
0.73867	-0
0.74233	-0
0.74600	-0
0.74967	-1
0.75333	-1
0.75700	-1
0.76067	-1
0.76433	-1
0.76800	-1
0.77167	-1
0.77533	-2
0.77900	-2
0.78267	-2
0.78633	-2
0.79000	-2
0.79367	-3
0.79733	-3
0.80100	-3
0.80467	-3
0.80833	-3
0.81200	-4
0.81567	-3
0.81933	-4
0.82300	-4
0.82667	-4
0.83033	-4
0.83400	-4
0.83767	-4
0.84133	-4
0.84500	-4
0.84867	-4
0.85233	-4
0.85600	-4
0.85967	-4
0.86333	-3
0.86700	-3
0.87067	-3
0.87433	-2
0.87800	-2
0.88167	-2
0.88533	-1
0.88900	-1
0.89267	-1
0.89633	-1
0.90000	-1
0.90367	-1
0.90733	-2
0.91100	-2
0.91467	-1
0.91833	-1
0.92200	-1
0.92567	-1
0.92933	-1
0.93300	-1
0.93667	-0
0.94033	-0
0.94400	-0
0.94767	0
0.95133	0
0.95500	0
0.95867	0
0.96233	0
0.96600	0
0.96967	1
0.97333	0
0.97700	0
0.98067	0
0.98433	0
0.98800	0
0.99167	1
0.99533	1
0.99900	1
1.00267	1
1.00633	0
1.01000	-0
1.01367	-1
1.01733	-1
1.02100	-1
1.02467	-1
1.02833	-1
1.03200	-1
1.03567	-2
1.03933	-2
1.04300	-2
1.04667	-1
1.05033	-1
1.05400	-1
1.05767	-1
1.06133	-1
1.06500	-1
1.06867	-0
1.07233	-0
1.07600	-0
1.07967	-0
1.08333	-0
1.08700	-1
1.09067	-1
1.09433	-1
1.09800	-1
1.10167	-1
1.10533	-2
1.10900	-1
1.11267	-2
1.11633	-2
1.12000	-2
1.12367	-2
1.12733	-2
1.13100	-2
1.13467	-2
1.13833	-2
1.14200	-2
1.14567	-2
1.14933	-2
1.15300	-3
1.15667	-3
1.16033	-3
1.16400	-3
1.16767	-3
1.17133	-3
1.17500	-3
1.17867	-3
1.18233	-3
1.18600	-3
1.18967	-3
1.19333	-3
1.19700	-2
1.20067	-2
1.20433	-3
1.20800	-3
1.21167	-3
1.21533	-3
1.21900	-3
1.22267	-3
1.22633	-3
1.23000	-3
1.23367	-3
1.23733	-3
1.24100	-3
1.24467	-3
1.24833	-3
1.25200	-3
1.25567	-3
1.25933	-3
1.26300	-3
1.26667	-3
1.27033	-3
1.27400	-3
1.27767	-3
1.28133	-3
1.28500	-3
1.28867	-3
1.29233	-2
1.29600	-2
1.29967	-3
1.30333	-3
1.30700	-3
1.31067	-3
1.31433	-3
1.31800	-3
1.32167	-3
1.32533	-3
1.32900	-2
1.33267	-2
1.33633	-2
1.34000	-2
1.34367	-2
1.34733	-2
1.35100	-2
1.35467	-2
1.35833	-2
1.36200	-2
1.36567	-2
1.36933	-2
1.37300	-2
1.37667	-2
1.38033	-3
1.38400	-3
1.38767	-3
1.39133	-3
1.39500	-4
1.39867	-4
1.40233	-5
1.40600	-5
1.40967	-5
1.41333	-5
1.41700	-5
1.42067	-6
1.42433	-6
1.42800	-6
1.43167	-6
1.43533	-5
1.43900	-5
1.44267	-5
1.44633	-5
1.45000	-5
1.45367	-5
1.45733	-5
1.46100	-5
1.46467	-4
1.46833	-4
1.47200	-4
1.47567	-4
1.47933	-3
1.48300	-3
1.48667	-3
1.49033	-3
1.49400	-2
1.49767	-2
1.50133	-2
1.50500	-2
1.50867	-1
1.51233	-1
1.51600	-2
1.51967	-2
1.52333	-2
1.52700	-2
1.53067	-2
1.53433	-2
1.53800	-2
1.54167	-1
1.54533	-1
1.54900	-1
1.55267	-1
1.55633	-1
1.56000	-1
1.56367	-0
1.56733	-1
1.57100	-1
1.57467	-1
1.57833	-1
1.58200	-2
1.58567	-2
1.58933	-2
1.59300	-3
1.59667	-3
1.60033	-4
1.60400	-5
1.60767	-6
1.61133	-8
1.61500	-10
1.61867	-13
1.62233	-16
1.62600	-19
1.62967	-22
1.63333	-26
1.63700	-30
1.64067	-34
1.64433	-38
1.64800	-42
1.65167	-46
1.65533	-50
1.65900	-54
1.66267	-58
1.66633	-62
1.67000	-67
1.67367	-71
1.67733	-76
1.68100	-81
1.68467	-86
1.68833	-90
1.69200	-94
1.69567	-97
1.69933	-100
1.70300	-102
1.70667	-105
1.71033	-107
1.71400	-109
1.71767	-110
1.72133	-112
1.72500	-113
1.72867	-114
1.73233	-115
1.73600	-116
1.73967	-117
1.74333	-117
1.74700	-118
1.75067	-118
1.75433	-119
1.75800	-119
1.76167	-119
1.76533	-120
1.76900	-120
1.77267	-121
1.77633	-121
1.78000	-121
1.78367	-121
1.78733	-121
1.79100	-122
1.79467	-122
1.79833	-123
1.80200	-124
1.80567	-124
1.80933	-124
1.81300	-124
1.81667	-124
1.82033	-123
1.82400	-122
1.82767	-122
1.83133	-122
1.83500	-122
1.83867	-122
1.84233	-122
1.84600	-123
1.84967	-124
1.85333	-125
1.85700	-125
1.86067	-125
1.86433	-125
1.86800	-125
1.87167	-125
1.87533	-124
1.87900	-124
1.88267	-124
1.88633	-124
1.89000	-124
1.89367	-124
1.89733	-124
1.90100	-124
1.90467	-123
1.90833	-123
1.91200	-122
1.91567	-122
1.91933	-121
1.92300	-121
1.92667	-121
1.93033	-121
1.93400	-121
1.93767	-121
1.94133	-121
1.94500	-121
1.94867	-121
1.95233	-121
1.95600	-120
1.95967	-120
1.96333	-119
1.96700	-119
1.97067	-119
1.97433	-119
1.97800	-119
1.98167	-119
1.98533	-119
1.98900	-118
1.99267	-118
1.99633	-117
2.00000	-117
2.00367	-116
2.00733	-116
2.01100	-116
2.01467	-116
2.01833	-116
2.02200	-116
2.02567	-116
2.02933	-116
2.03300	-116
2.03667	-116
2.04033	-115
2.04400	-115
2.04767	-114
2.05133	-114
2.05500	-113
2.05867	-113
2.06233	-113
2.06600	-113
2.06967	-112
2.07333	-112
2.07700	-112
2.08067	-112
2.08433	-112
2.08800	-112
2.09167	-112
2.09533	-111
2.09900	-110
2.10267	-110
2.10633	-109
2.11000	-109
2.11367	-108
2.11733	-108
2.12100	-107
2.12467	-107
2.12833	-107
2.13200	-106
2.13567	-106
2.13933	-106
2.14300	-106
2.14667	-105
2.15033	-105
2.15400	-105
2.15767	-105
2.16133	-106
2.16500	-106
2.16867	-106
2.17233	-105
2.17600	-105
2.17967	-104
2.18333	-103
2.18700	-103
2.19067	-102
2.19433	-101
2.19800	-101
2.20167	-100
2.20533	-100
2.20900	-100
2.21267	-99
2.21633	-99
2.22000	-99
2.22367	-99
2.22733	-99
2.23100	-99
2.23467	-99
2.23833	-99
2.24200	-98
2.24567	-97
2.24933	-96
2.25300	-96
2.25667	-95
2.26033	-95
2.26400	-95
2.26767	-95
2.27133	-95
2.27500	-95
2.27867	-95
2.28233	-95
2.28600	-95
2.28967	-95
2.29333	-94
2.29700	-94
2.30067	-94
2.30433	-94
2.30800	-94
2.31167	-93
2.31533	-93
2.31900	-92
2.32267	-91
2.32633	-90
2.33000	-90
2.33367	-90
2.33733	-90
2.34100	-90
2.34467	-90
2.34833	-90
2.35200	-90
2.35567	-90
2.35933	-89
2.36300	-88
2.36667	-87
2.37033	-85
2.37400	-82
2.37767	-79
2.38133	-76
2.38500	-72
2.38867	-68
2.39233	-64
2.39600	-59
2.39967	-55
2.40333	-50
2.40700	-46
2.41067	-42
2.41433	-38
2.41800	-34
2.42167	-31
2.42533	-28
2.42900	-24
2.43267	-21
2.43633	-19
2.44000	-16
2.44367	-14
2.44733	-12
2.45100	-10
2.45467	-8
2.45833	-7
2.46200	-5
2.46567	-4
2.46933	-3
2.47300	-1
2.47667	0
2.48033	2
2.48400	3
2.48767	3
2.49133	4
2.49500	4
2.49867	4
2.50233	4
2.50600	5
2.50967	5
2.51333	6
2.51700	6
2.52067	7
2.52433	8
2.52800	9
2.53167	10
2.53533	10
2.53900	10
2.54267	10
2.54633	10
2.55000	9
2.55367	9
2.55733	9
2.56100	10
2.56467	10
2.56833	10
2.57200	11
2.57567	11
2.57933	11
2.58300	10
2.58667	10
2.59033	11
2.59400	11
2.59767	12
2.60133	13
2.60500	14
2.60867	14
2.61233	15
2.61600	15
2.61967	16
2.62333	16
2.62700	16
2.63067	15
2.63433	15
2.63800	15
2.64167	15
2.64533	15
2.64900	16
2.65267	16
2.65633	16
2.66000	16
2.66367	17
2.66733	17
2.67100	18
2.67467	18
2.67833	19
2.68200	19
2.68567	18
2.68933	18
2.69300	18
2.69667	18
2.70033	17
2.70400	17
2.70767	17
2.71133	17
2.71500	18
2.71867	18
2.72233	19
2.72600	19
2.72967	20
2.73333	21
2.73700	21
2.74067	22
2.74433	22
2.74800	22
2.75167	23
2.75533	23
2.75900	23
2.76267	23
2.76633	23
2.77000	23
2.77367	24
2.77733	24
2.78100	25
2.78467	25
2.78833	25
2.79200	25
2.79567	24
2.79933	24
2.80300	23
2.80667	22
2.81033	22
2.81400	22
2.81767	22
2.82133	22
2.82500	22
2.82867	22
2.83233	22
2.83600	22
2.83967	22
2.84333	21
2.84700	20
2.85067	18
2.85433	15
2.85800	10
2.86167	1
2.86533	-10
2.86900	-26
2.87267	-45
2.87633	-68
2.88000	-96
2.88367	-127
2.88733	-163
2.89100	-201
2.89467	-243
2.89833	-287
2.90200	-333
2.90567	-381
2.90933	-431
2.91300	-481
2.91667	-531
2.92033	-581
2.92400	-631
2.92767	-681
2.93133	-729
2.93500	-777
2.93867	-826
2.94233	-879
2.94600	-938
2.94967	-1000
2.95333	-1056
2.95700	-1095
2.96067	-1108
2.96433	-1095
2.96800	-1058
2.97167	-1002
2.97533	-932
2.97900	-855
2.98267	-774
2.98633	-694
2.99000	-617
2.99367	-544
2.99733	-476
3.00100	-415
3.00467	-360
3.00833	-311
3.01200	-268
3.01567	-229
3.01933	-196
3.02300	-167
3.02667	-142
3.03033	-120
3.03400	-101
3.03767	-85
3.04133	-71
3.04500	-59
3.04867	-49
3.05233	-40
3.05600	-32
3.05967	-26
3.06333	-21
3.06700	-17
3.07067	-13
3.07433	-10
3.07800	-7
3.08167	-5
3.08533	-3
3.08900	-1
3.09267	1
3.09633	3
3.10000	5
3.10367	6
3.10733	7
3.11100	8
3.11467	8
3.11833	9
3.12200	10
3.12567	10
3.12933	11
3.13300	11
3.13667	12
3.14033	12
3.14400	13
3.14767	13
3.15133	13
3.15500	14
3.15867	14
3.16233	14
3.16600	14
3.16967	14
3.17333	15
3.17700	15
3.18067	15
3.18433	15
3.18800	16
3.19167	16
3.19533	16
3.19900	17
3.20267	17
3.20633	18
3.21000	18
3.21367	18
3.21733	18
3.22100	18
3.22467	19
3.22833	19
3.23200	19
3.23567	19
3.23933	19
3.24300	19
3.24667	19
3.25033	19
3.25400	19
3.25767	19
3.26133	19
3.26500	19
3.26867	19
3.27233	19
3.27600	19
3.27967	19
3.28333	19
3.28700	19
3.29067	19
3.29433	19
3.29800	19
3.30167	19
3.30533	20
3.30900	20
3.31267	20
3.31633	20
3.32000	20
3.32367	21
3.32733	21
3.33100	21
3.33467	22
3.33833	22
3.34200	22
3.34567	23
3.34933	23
3.35300	24
3.35667	24
3.36033	24
3.36400	24
3.36767	25
3.37133	25
3.37500	25
3.37867	25
3.38233	26
3.38600	26
3.38967	26
3.39333	26
3.39700	26
3.40067	26
3.40433	26
3.40800	26
3.41167	26
3.41533	26
3.41900	26
3.42267	26
3.42633	26
3.43000	26
3.43367	26
3.43733	26
3.44100	26
3.44467	26
3.44833	26
3.45200	26
3.45567	26
3.45933	26
3.46300	26
3.46667	26
3.47033	26
3.47400	26
3.47767	25
3.48133	25
3.48500	25
3.48867	25
3.49233	25
3.49600	24
3.49967	24
3.50333	24
3.50700	24
3.51067	24
3.51433	24
3.51800	24
3.52167	24
3.52533	24
3.52900	24
3.53267	24
3.53633	24
3.54000	24
3.54367	25
3.54733	25
3.55100	25
3.55467	25
3.55833	25
3.56200	25
3.56567	25
3.56933	25
3.57300	25
3.57667	25
3.58033	25
3.58400	25
3.58767	25
3.59133	25
3.59500	25
3.59867	25
3.60233	25
3.60600	25
3.60967	25
3.61333	25
3.61700	25
3.62067	25
3.62433	24
3.62800	24
3.63167	24
3.63533	24
3.63900	24
3.64267	24
3.64633	24
3.65000	24
3.65367	24
3.65733	24
3.66100	24
3.66467	24
3.66833	24
3.67200	24
3.67567	24
3.67933	24
3.68300	24
3.68667	24
3.69033	24
3.69400	24
3.69767	24
3.70133	24
3.70500	24
3.70867	24
3.71233	24
3.71600	24
3.71967	24
3.72333	24
3.72700	24
3.73067	24
3.73433	24
3.73800	24
3.74167	24
3.74533	24
3.74900	24
3.75267	25
3.75633	25
3.76000	25
3.76367	25
3.76733	25
3.77100	25
3.77467	25
3.77833	25
3.78200	25
3.78567	25
3.78933	25
3.79300	25
3.79667	25
3.80033	25
3.80400	24
3.80767	24
3.81133	24
3.81500	24
3.81867	24
3.82233	24
3.82600	24
3.82967	24
3.83333	24
3.83700	24
3.84067	24
3.84433	24
3.84800	24
3.85167	23
3.85533	23
3.85900	23
3.86267	23
3.86633	23
3.87000	23
3.87367	23
3.87733	22
3.88100	22
3.88467	22
3.88833	22
3.89200	22
3.89567	22
3.89933	22
3.90300	22
3.90667	22
3.91033	22
3.91400	22
3.91767	22
3.92133	22
3.92500	22
3.92867	22
3.93233	22
3.93600	22
3.93967	23
3.94333	23
3.94700	23
3.95067	23
3.95433	23
3.95800	23
3.96167	23
3.96533	23
3.96900	24
3.97267	24
3.97633	23
3.98000	23
3.98367	23
3.98733	23
3.99100	23
3.99467	23
3.99833	23

[Chromatogram (Ch3)]
Interval(msec)	220
# of Points	1091
Start Time(min)	0.002
End Time(min)	3.998
R.Time (min)	Intensity
0.00167	1
0.00533	1
0.00900	-0
0.01267	-2
0.01633	-1
0.02000	0
0.02367	0
0.02733	-1
0.03100	-3
0.03467	-4
0.03833	-7
0.04200	-6
0.04567	-6
0.04933	-3
0.05300	-2
0.05667	-1
0.06033	1
0.06400	1
0.06767	1
0.07133	0
0.07500	-1
0.07867	-2
0.08233	-1
0.08600	-1
0.08967	-1
0.09333	-2
0.09700	-3
0.10067	-1
0.10433	1
0.10800	1
0.11167	2
0.11533	2
0.11900	0
0.12267	-2
0.12633	-3
0.13000	-2
0.13367	-1
0.13733	0
0.14100	1
0.14467	2
0.14833	3
0.15200	4
0.15567	4
0.15933	2
0.16300	2
0.16667	1
0.17033	1
0.17400	0
0.17767	-1
0.18133	1
0.18500	1
0.18867	0
0.19233	-0
0.19600	-0
0.19967	1
0.20333	2
0.20700	2
0.21067	-1
0.21433	-2
0.21800	1
0.22167	4
0.22533	4
0.22900	3
0.23267	3
0.23633	4
0.24000	4
0.24367	4
0.24733	5
0.25100	4
0.25467	5
0.25833	4
0.26200	2
0.26567	3
0.26933	5
0.27300	6
0.27667	5
0.28033	2
0.28400	-0
0.28767	1
0.29133	4
0.29500	7
0.29867	8
0.30233	9
0.30600	8
0.30967	5
0.31333	4
0.31700	5
0.32067	8
0.32433	11
0.32800	10
0.33167	8
0.33533	7
0.33900	7
0.34267	9
0.34633	10
0.35000	11
0.35367	11
0.35733	10
0.36100	8
0.36467	7
0.36833	7
0.37200	10
0.37567	13
0.37933	12
0.38300	11
0.38667	9
0.39033	8
0.39400	7
0.39767	7
0.40133	10
0.40500	12
0.40867	12
0.41233	11
0.41600	12
0.41967	11
0.42333	10
0.42700	7
0.43067	6
0.43433	7
0.43800	10
0.44167	9
0.44533	10
0.44900	11
0.45267	9
0.45633	8
0.46000	7
0.46367	10
0.46733	13
0.47100	13
0.47467	10
0.47833	9
0.48200	9
0.48567	8
0.48933	9
0.49300	10
0.49667	10
0.50033	11
0.50400	12
0.50767	13
0.51133	15
0.51500	14
0.51867	13
0.52233	13
0.52600	12
0.52967	11
0.53333	10
0.53700	9
0.54067	6
0.54433	6
0.54800	8
0.55167	9
0.55533	10
0.55900	10
0.56267	12
0.56633	14
0.57000	15
0.57367	15
0.57733	14
0.58100	14
0.58467	16
0.58833	15
0.59200	16
0.59567	17
0.59933	19
0.60300	19
0.60667	18
0.61033	17
0.61400	16
0.61767	13
0.62133	10
0.62500	10
0.62867	13
0.63233	15
0.63600	16
0.63967	18
0.64333	20
0.64700	20
0.65067	20
0.65433	21
0.65800	22
0.66167	21
0.66533	19
0.66900	19
0.67267	20
0.67633	20
0.68000	19
0.68367	19
0.68733	17
0.69100	17
0.69467	21
0.69833	24
0.70200	24
0.70567	22
0.70933	22
0.71300	21
0.71667	19
0.72033	18
0.72400	19
0.72767	20
0.73133	22
0.73500	23
0.73867	22
0.74233	21
0.74600	21
0.74967	21
0.75333	19
0.75700	19
0.76067	18
0.76433	20
0.76800	21
0.77167	23
0.77533	24
0.77900	22
0.78267	22
0.78633	21
0.79000	21
0.79367	21
0.79733	22
0.80100	22
0.80467	23
0.80833	23
0.81200	22
0.81567	22
0.81933	24
0.82300	26
0.82667	27
0.83033	27
0.83400	28
0.83767	29
0.84133	30
0.84500	28
0.84867	27
0.85233	27
0.85600	26
0.85967	27
0.86333	28
0.86700	27
0.87067	27
0.87433	26
0.87800	26
0.88167	26
0.88533	26
0.88900	25
0.89267	26
0.89633	27
0.90000	27
0.90367	27
0.90733	27
0.91100	27
0.91467	28
0.91833	28
0.92200	29
0.92567	28
0.92933	27
0.93300	28
0.93667	25
0.94033	23
0.94400	24
0.94767	25
0.95133	27
0.95500	29
0.95867	31
0.96233	32
0.96600	34
0.96967	31
0.97333	28
0.97700	27
0.98067	27
0.98433	29
0.98800	31
0.99167	33
0.99533	34
0.99900	34
1.00267	33
1.00633	32
1.01000	31
1.01367	31
1.01733	31
1.02100	31
1.02467	30
1.02833	30
1.03200	29
1.03567	31
1.03933	32
1.04300	33
1.04667	35
1.05033	36
1.05400	34
1.05767	32
1.06133	31
1.06500	32
1.06867	32
1.07233	33
1.07600	34
1.07967	33
1.08333	29
1.08700	28
1.09067	28
1.09433	27
1.09800	29
1.10167	33
1.10533	34
1.10900	31
1.11267	30
1.11633	28
1.12000	26
1.12367	26
1.12733	28
1.13100	30
1.13467	32
1.13833	34
1.14200	36
1.14567	36
1.14933	36
1.15300	33
1.15667	32
1.16033	31
1.16400	30
1.16767	31
1.17133	30
1.17500	30
1.17867	33
1.18233	37
1.18600	36
1.18967	35
1.19333	33
1.19700	34
1.20067	34
1.20433	35
1.20800	35
1.21167	32
1.21533	30
1.21900	31
1.22267	33
1.22633	34
1.23000	37
1.23367	40
1.23733	41
1.24100	40
1.24467	39
1.24833	39
1.25200	38
1.25567	38
1.25933	42
1.26300	44
1.26667	44
1.27033	42
1.27400	41
1.27767	40
1.28133	41
1.28500	41
1.28867	41
1.29233	39
1.29600	39
1.29967	39
1.30333	38
1.30700	37
1.31067	36
1.31433	36
1.31800	36
1.32167	36
1.32533	36
1.32900	37
1.33267	38
1.33633	39
1.34000	40
1.34367	39
1.34733	38
1.35100	37
1.35467	38
1.35833	40
1.36200	41
1.36567	41
1.36933	41
1.37300	41
1.37667	42
1.38033	42
1.38400	41
1.38767	38
1.39133	36
1.39500	35
1.39867	34
1.40233	33
1.40600	34
1.40967	35
1.41333	37
1.41700	38
1.42067	38
1.42433	40
1.42800	41
1.43167	40
1.43533	40
1.43900	40
1.44267	39
1.44633	40
1.45000	41
1.45367	41
1.45733	42
1.46100	42
1.46467	41
1.46833	42
1.47200	44
1.47567	46
1.47933	47
1.48300	46
1.48667	47
1.49033	46
1.49400	44
1.49767	44
1.50133	44
1.50500	44
1.50867	45
1.51233	45
1.51600	44
1.51967	43
1.52333	41
1.52700	42
1.53067	44
1.53433	45
1.53800	44
1.54167	43
1.54533	43
1.54900	44
1.55267	44
1.55633	44
1.56000	44
1.56367	44
1.56733	42
1.57100	41
1.57467	39
1.57833	39
1.58200	40
1.58567	41
1.58933	42
1.59300	41
1.59667	41
1.60033	41
1.60400	39
1.60767	41
1.61133	42
1.61500	43
1.61867	44
1.62233	47
1.62600	49
1.62967	49
1.63333	48
1.63700	50
1.64067	54
1.64433	55
1.64800	55
1.65167	55
1.65533	54
1.65900	53
1.66267	52
1.66633	50
1.67000	49
1.67367	50
1.67733	52
1.68100	51
1.68467	52
1.68833	55
1.69200	59
1.69567	60
1.69933	59
1.70300	58
1.70667	57
1.71033	59
1.71400	60
1.71767	61
1.72133	61
1.72500	61
1.72867	62
1.73233	62
1.73600	63
1.73967	65
1.74333	67
1.74700	69
1.75067	71
1.75433	71
1.75800	70
1.76167	69
1.76533	67
1.76900	68
1.77267	67
1.77633	69
1.78000	71
1.78367	72
1.78733	72
1.79100	77
1.79467	77
1.79833	77
1.80200	77
1.80567	81
1.80933	85
1.81300	84
1.81667	81
1.82033	80
1.82400	80
1.82767	81
1.83133	81
1.83500	81
1.83867	82
1.84233	82
1.84600	81
1.84967	80
1.85333	78
1.85700	78
1.86067	81
1.86433	82
1.86800	81
1.87167	82
1.87533	82
1.87900	82
1.88267	82
1.88633	82
1.89000	82
1.89367	80
1.89733	80
1.90100	80
1.90467	81
1.90833	81
1.91200	81
1.91567	82
1.91933	84
1.92300	88
1.92667	88
1.93033	87
1.93400	87
1.93767	88
1.94133	89
1.94500	89
1.94867	90
1.95233	90
1.95600	89
1.95967	89
1.96333	91
1.96700	94
1.97067	97
1.97433	96
1.97800	96
1.98167	98
1.98533	99
1.98900	100
1.99267	99
1.99633	100
2.00000	102
2.00367	102
2.00733	102
2.01100	103
2.01467	105
2.01833	108
2.02200	108
2.02567	108
2.02933	108
2.03300	109
2.03667	110
2.04033	111
2.04400	111
2.04767	114
2.05133	116
2.05500	116
2.05867	116
2.06233	117
2.06600	118
2.06967	119
2.07333	121
2.07700	125
2.08067	127
2.08433	131
2.08800	132
2.09167	133
2.09533	132
2.09900	133
2.10267	136
2.10633	139
2.11000	140
2.11367	142
2.11733	143
2.12100	143
2.12467	143
2.12833	143
2.13200	143
2.13567	143
2.13933	144
2.14300	146
2.14667	148
2.15033	153
2.15400	157
2.15767	160
2.16133	161
2.16500	162
2.16867	161
2.17233	159
2.17600	158
2.17967	156
2.18333	155
2.18700	153
2.19067	152
2.19433	154
2.19800	156
2.20167	156
2.20533	158
2.20900	161
2.21267	167
2.21633	171
2.22000	173
2.22367	174
2.22733	174
2.23100	175
2.23467	175
2.23833	175
2.24200	175
2.24567	176
2.24933	178
2.25300	179
2.25667	180
2.26033	182
2.26400	182
2.26767	183
2.27133	185
2.27500	188
2.27867	191
2.28233	192
2.28600	192
2.28967	191
2.29333	190
2.29700	191
2.30067	194
2.30433	196
2.30800	199
2.31167	200
2.31533	201
2.31900	202
2.32267	203
2.32633	204
2.33000	205
2.33367	203
2.33733	202
2.34100	203
2.34467	205
2.34833	207
2.35200	209
2.35567	212
2.35933	213
2.36300	212
2.36667	212
2.37033	215
2.37400	217
2.37767	218
2.38133	217
2.38500	216
2.38867	217
2.39233	219
2.39600	218
2.39967	214
2.40333	210
2.40700	210
2.41067	210
2.41433	212
2.41800	216
2.42167	220
2.42533	222
2.42900	225
2.43267	229
2.43633	231
2.44000	231
2.44367	231
2.44733	231
2.45100	236
2.45467	242
2.45833	246
2.46200	247
2.46567	245
2.46933	247
2.47300	248
2.47667	247
2.48033	243
2.48400	236
2.48767	205
2.49133	169
2.49500	165
2.49867	195
2.50233	248
2.50600	315
2.50967	387
2.51333	462
2.51700	533
2.52067	600
2.52433	664
2.52800	722
2.53167	774
2.53533	819
2.53900	857
2.54267	893
2.54633	927
2.55000	957
2.55367	983
2.55733	1006
2.56100	1027
2.56467	1044
2.56833	1060
2.57200	1073
2.57567	1083
2.57933	1094
2.58300	1103
2.58667	1108
2.59033	1111
2.59400	1112
2.59767	1112
2.60133	1106
2.60500	1090
2.60867	1062
2.61233	1028
2.61600	990
2.61967	947
2.62333	900
2.62700	854
2.63067	813
2.63433	780
2.63800	751
2.64167	730
2.64533	717
2.64900	708
2.65267	704
2.65633	701
2.66000	699
2.66367	701
2.66733	705
2.67100	709
2.67467	715
2.67833	724
2.68200	734
2.68567	743
2.68933	749
2.69300	753
2.69667	756
2.70033	759
2.70400	763
2.70767	767
2.71133	768
2.71500	769
2.71867	770
2.72233	774
2.72600	777
2.72967	777
2.73333	778
2.73700	780
2.74067	782
2.74433	783
2.74800	785
2.75167	786
2.75533	786
2.75900	786
2.76267	786
2.76633	784
2.77000	783
2.77367	780
2.77733	778
2.78100	780
2.78467	783
2.78833	787
2.79200	792
2.79567	794
2.79933	797
2.80300	799
2.80667	801
2.81033	804
2.81400	808
2.81767	812
2.82133	818
2.82500	827
2.82867	847
2.83233	886
2.83600	964
2.83967	1094
2.84333	1301
2.84700	1604
2.85067	2007
2.85433	2505
2.85800	3073
2.86167	3674
2.86533	4260
2.86900	4788
2.87267	5217
2.87633	5518
2.88000	5676
2.88367	5691
2.88733	5577
2.89100	5361
2.89467	5076
2.89833	4745
2.90200	4392
2.90567	4035
2.90933	3686
2.91300	3357
2.91667	3052
2.92033	2775
2.92400	2522
2.92767	2295
2.93133	2094
2.93500	1916
2.93867	1758
2.94233	1618
2.94600	1493
2.94967	1384
2.95333	1290
2.95700	1209
2.96067	1139
2.96433	1076
2.96800	1021
2.97167	973
2.97533	932
2.97900	897
2.98267	863
2.98633	833
2.99000	808
2.99367	786
2.99733	768
3.00100	751
3.00467	735
3.00833	722
3.01200	709
3.01567	696
3.01933	685
3.02300	678
3.02667	671
3.03033	664
3.03400	657
3.03767	650
3.04133	643
3.04500	638
3.04867	634
3.05233	632
3.05600	629
3.05967	627
3.06333	623
3.06700	621
3.07067	617
3.07433	611
3.07800	605
3.08167	601
3.08533	598
3.08900	593
3.09267	590
3.09633	588
3.10000	585
3.10367	582
3.10733	578
3.11100	573
3.11467	569
3.11833	565
3.12200	561
3.12567	559
3.12933	558
3.13300	555
3.13667	551
3.14033	546
3.14400	543
3.14767	541
3.15133	540
3.15500	537
3.15867	534
3.16233	532
3.16600	530
3.16967	529
3.17333	525
3.17700	522
3.18067	518
3.18433	515
3.18800	514
3.19167	512
3.19533	509
3.19900	507
3.20267	505
3.20633	504
3.21000	502
3.21367	499
3.21733	497
3.22100	495
3.22467	494
3.22833	493
3.23200	491
3.23567	488
3.23933	486
3.24300	485
3.24667	483
3.25033	483
3.25400	481
3.25767	482
3.26133	482
3.26500	479
3.26867	475
3.27233	471
3.27600	470
3.27967	470
3.28333	467
3.28700	466
3.29067	461
3.29433	456
3.29800	450
3.30167	445
3.30533	442
3.30900	441
3.31267	439
3.31633	436
3.32000	434
3.32367	430
3.32733	425
3.33100	421
3.33467	419
3.33833	418
3.34200	418
3.34567	417
3.34933	413
3.35300	410
3.35667	407
3.36033	404
3.36400	402
3.36767	402
3.37133	399
3.37500	396
3.37867	394
3.38233	392
3.38600	390
3.38967	388
3.39333	384
3.39700	380
3.40067	378
3.40433	378
3.40800	376
3.41167	374
3.41533	373
3.41900	370
3.42267	367
3.42633	364
3.43000	361
3.43367	357
3.43733	354
3.44100	352
3.44467	348
3.44833	343
3.45200	339
3.45567	337
3.45933	337
3.46300	338
3.46667	336
3.47033	335
3.47400	332
3.47767	330
3.48133	330
3.48500	328
3.48867	326
3.49233	323
3.49600	320
3.49967	319
3.50333	318
3.50700	315
3.51067	313
3.51433	309
3.51800	305
3.52167	303
3.52533	303
3.52900	302
3.53267	301
3.53633	302
3.54000	301
3.54367	298
3.54733	294
3.55100	293
3.55467	293
3.55833	292
3.56200	289
3.56567	287
3.56933	285
3.57300	282
3.57667	278
3.58033	279
3.58400	280
3.58767	281
3.59133	280
3.59500	278
3.59867	276
3.60233	273
3.60600	271
3.60967	270
3.61333	268
3.61700	265
3.62067	262
3.62433	259
3.62800	256
3.63167	254
3.63533	252
3.63900	250
3.64267	249
3.64633	251
3.65000	253
3.65367	252
3.65733	251
3.66100	252
3.66467	252
3.66833	251
3.67200	250
3.67567	250
3.67933	248
3.68300	245
3.68667	244
3.69033	244
3.69400	242
3.69767	240
3.70133	237
3.70500	234
3.70867	232
3.71233	231
3.71600	231
3.71967	230
3.72333	229
3.72700	229
3.73067	228
3.73433	226
3.73800	228
3.74167	230
3.74533	229
3.74900	225
3.75267	222
3.75633	220
3.76000	220
3.76367	221
3.76733	222
3.77100	220
3.77467	218
3.77833	216
3.78200	216
3.78567	215
3.78933	213
3.79300	211
3.79667	208
3.80033	208
3.80400	208
3.80767	207
3.81133	206
3.81500	205
3.81867	204
3.82233	201
3.82600	198
3.82967	196
3.83333	194
3.83700	193
3.84067	193
3.84433	193
3.84800	191
3.85167	190
3.85533	191
3.85900	192
3.86267	192
3.86633	192
3.87000	191
3.87367	191
3.87733	191
3.88100	193
3.88467	194
3.88833	194
3.89200	194
3.89567	191
3.89933	187
3.90300	182
3.90667	179
3.91033	179
3.91400	179
3.91767	177
3.92133	175
3.92500	174
3.92867	177
3.93233	178
3.93600	176
3.93967	175
3.94333	174
3.94700	171
3.95067	171
3.95433	171
3.95800	171
3.96167	171
3.96533	170
3.96900	168
3.97267	165
3.97633	162
3.98000	163
3.98367	164
3.98733	164
3.99100	162
3.99467	160
3.99833	157

[Status Trace (Column Oven Temperature)]
Interval(msec)	1000
# of Points	240
Start Time(min)	0.014
End Time(min)	3.997
Intensity Units	
Intensity Multiplier	1
R.Time (min)	Intensity
0.01413	35.01
0.03080	35.00
0.04747	35.00
0.06413	35.00
0.08080	34.99
0.09747	34.99
0.11413	34.99
0.13080	34.98
0.14747	34.97
0.16413	34.97
0.18080	34.98
0.19747	35.00
0.21413	35.01
0.23080	35.02
0.24747	35.02
0.26413	35.01
0.28080	35.01
0.29747	35.00
0.31413	35.00
0.33080	35.00
0.34747	34.99
0.36413	34.98
0.38080	34.98
0.39747	34.98
0.41413	34.97
0.43080	34.97
0.44747	34.97
0.46413	34.98
0.48080	34.96
0.49747	34.95
0.51413	34.95
0.53080	34.96
0.54747	34.96
0.56413	34.96
0.58080	34.97
0.59747	34.97
0.61413	34.96
0.63080	34.95
0.64747	34.97
0.66413	34.98
0.68080	34.99
0.69747	34.99
0.71413	34.99
0.73080	34.98
0.74747	34.98
0.76413	34.98
0.78080	34.99
0.79747	35.01
0.81413	35.01
0.83080	35.02
0.84747	35.02
0.86413	35.02
0.88080	35.01
0.89747	35.00
0.91413	34.99
0.93080	34.99
0.94747	34.98
0.96413	34.97
0.98080	34.97
0.99747	34.97
1.01413	34.97
1.03080	34.98
1.04747	34.97
1.06413	34.96
1.08080	34.96
1.09747	34.96
1.11413	34.96
1.13080	34.98
1.14747	34.98
1.16413	34.97
1.18080	34.97
1.19747	34.97
1.21413	34.96
1.23080	34.96
1.24747	34.97
1.26413	34.98
1.28080	34.99
1.29747	34.98
1.31413	34.98
1.33080	34.98
1.34747	34.97
1.36413	34.98
1.38080	34.98
1.39747	35.00
1.41413	35.01
1.43080	35.01
1.44747	35.01
1.46413	35.01
1.48080	35.00
1.49747	35.00
1.51413	35.00
1.53080	34.99
1.54747	34.98
1.56413	34.97
1.58080	34.98
1.59747	35.01
1.61413	35.09
1.63080	35.25
1.64747	35.46
1.66413	35.75
1.68080	36.11
1.69747	36.46
1.71413	36.81
1.73080	37.14
1.74747	37.47
1.76413	37.81
1.78080	38.13
1.79747	38.48
1.81413	38.79
1.83080	39.10
1.84747	39.45
1.86413	39.78
1.88080	40.11
1.89747	40.44
1.91413	40.76
1.93080	41.09
1.94747	41.41
1.96413	41.73
1.98080	42.07
1.99747	42.39
2.01413	42.71
2.03080	43.05
2.04747	43.37
2.06413	43.69
2.08080	44.03
2.09747	44.34
2.11413	44.66
2.13080	45.00
2.14747	45.32
2.16413	45.68
2.18080	45.99
2.19747	46.32
2.21413	46.64
2.23080	46.99
2.24747	47.30
2.26413	47.64
2.28080	47.96
2.29747	48.29
2.31413	48.62
2.33080	48.94
2.34747	49.28
2.36413	49.52
2.38080	49.63
2.39747	49.64
2.41413	49.67
2.43080	49.67
2.44747	49.67
2.46413	49.68
2.48080	49.67
2.49747	49.71
2.51413	49.72
2.53080	49.73
2.54747	49.79
2.56413	49.79
2.58080	49.83
2.59747	49.81
2.61413	49.82
2.63080	49.83
2.64747	49.85
2.66413	49.84
2.68080	49.86
2.69747	49.89
2.71413	49.89
2.73080	49.87
2.74747	49.87
2.76413	49.85
2.78080	49.85
2.79747	49.87
2.81413	49.88
2.83080	49.89
2.84747	49.89
2.86413	49.91
2.88080	49.93
2.89747	49.95
2.91413	49.96
2.93080	49.97
2.94747	49.97
2.96413	49.97
2.98080	49.97
2.99747	49.98
3.01413	50.00
3.03080	50.01
3.04747	50.02
3.06413	50.03
3.08080	50.03
3.09747	50.04
3.11413	50.05
3.13080	50.05
3.14747	50.05
3.16413	50.06
3.18080	50.07
3.19747	50.08
3.21413	50.08
3.23080	50.09
3.24747	50.09
3.26413	50.10
3.28080	50.10
3.29747	50.11
3.31413	50.12
3.33080	50.11
3.34747	50.10
3.36413	50.08
3.38080	50.06
3.39747	50.04
3.41413	50.03
3.43080	50.02
3.44747	50.01
3.46413	50.01
3.48080	50.01
3.49747	50.01
3.51413	50.01
3.53080	50.01
3.54747	50.01
3.56413	50.00
3.58080	50.00
3.59747	50.00
3.61413	50.00
3.63080	50.00
3.64747	50.00
3.66413	50.00
3.68080	50.00
3.69747	50.01
3.71413	50.01
3.73080	50.00
3.74747	50.00
3.76413	50.00
3.78080	49.99
3.79747	50.00
3.81413	50.00
3.83080	50.00
3.84747	50.00
3.86413	50.01
3.88080	50.02
3.89747	50.03
3.91413	50.03
3.93080	50.03
3.94747	50.03
3.96413	50.04
3.98080	50.04
3.99747	50.05

[Status Trace (Injection Unit Temperature)]
Interval(msec)	1000
# of Points	240
Start Time(min)	0.014
End Time(min)	3.997
Intensity Units	
Intensity Multiplier	1
R.Time (min)	Intensity
0.01413	99.98
0.03080	99.99
0.04747	99.98
0.06413	99.98
0.08080	99.98
0.09747	99.98
0.11413	99.99
0.13080	99.98
0.14747	99.98
0.16413	99.99
0.18080	99.98
0.19747	99.98
0.21413	99.99
0.23080	99.99
0.24747	99.98
0.26413	99.98
0.28080	99.98
0.29747	99.98
0.31413	99.98
0.33080	99.98
0.34747	99.98
0.36413	99.98
0.38080	99.98
0.39747	99.98
0.41413	99.98
0.43080	99.98
0.44747	99.98
0.46413	99.98
0.48080	99.98
0.49747	99.98
0.51413	99.98
0.53080	99.98
0.54747	99.98
0.56413	99.98
0.58080	99.98
0.59747	99.98
0.61413	99.98
0.63080	99.98
0.64747	99.99
0.66413	99.98
0.68080	99.98
0.69747	99.98
0.71413	99.98
0.73080	99.98
0.74747	99.98
0.76413	99.98
0.78080	99.98
0.79747	99.98
0.81413	99.98
0.83080	99.98
0.84747	99.99
0.86413	99.98
0.88080	99.98
0.89747	99.98
0.91413	99.98
0.93080	99.98
0.94747	99.99
0.96413	99.98
0.98080	99.98
0.99747	99.99
1.01413	99.99
1.03080	99.99
1.04747	99.98
1.06413	99.98
1.08080	99.98
1.09747	99.99
1.11413	99.99
1.13080	99.98
1.14747	99.99
1.16413	99.99
1.18080	99.99
1.19747	99.99
1.21413	99.99
1.23080	99.99
1.24747	99.99
1.26413	99.99
1.28080	99.99
1.29747	99.99
1.31413	99.99
1.33080	99.99
1.34747	99.99
1.36413	99.99
1.38080	99.99
1.39747	99.99
1.41413	99.99
1.43080	99.99
1.44747	99.99
1.46413	99.99
1.48080	99.99
1.49747	99.99
1.51413	99.99
1.53080	100.00
1.54747	99.99
1.56413	100.00
1.58080	99.99
1.59747	99.99
1.61413	99.99
1.63080	99.99
1.64747	99.99
1.66413	99.99
1.68080	99.99
1.69747	99.99
1.71413	99.99
1.73080	99.99
1.74747	99.99
1.76413	99.99
1.78080	99.99
1.79747	99.99
1.81413	99.99
1.83080	99.98
1.84747	99.99
1.86413	99.99
1.88080	99.98
1.89747	99.99
1.91413	99.99
1.93080	99.98
1.94747	99.98
1.96413	99.98
1.98080	99.98
1.99747	99.98
2.01413	99.98
2.03080	99.98
2.04747	99.98
2.06413	99.98
2.08080	99.98
2.09747	99.97
2.11413	99.98
2.13080	99.97
2.14747	99.97
2.16413	99.97
2.18080	99.97
2.19747	99.97
2.21413	99.98
2.23080	99.97
2.24747	99.98
2.26413	99.97
2.28080	99.97
2.29747	99.97
2.31413	99.97
2.33080	99.97
2.34747	99.97
2.36413	99.97
2.38080	99.97
2.39747	99.97
2.41413	99.97
2.43080	99.97
2.44747	99.97
2.46413	99.97
2.48080	99.97
2.49747	99.97
2.51413	99.97
2.53080	99.97
2.54747	99.97
2.56413	99.97
2.58080	99.97
2.59747	99.98
2.61413	99.98
2.63080	99.98
2.64747	99.98
2.66413	99.98
2.68080	99.98
2.69747	99.99
2.71413	99.98
2.73080	99.99
2.74747	99.99
2.76413	99.99
2.78080	99.99
2.79747	99.99
2.81413	99.99
2.83080	99.99
2.84747	100.00
2.86413	100.00
2.88080	100.00
2.89747	100.00
2.91413	100.00
2.93080	100.01
2.94747	100.01
2.96413	100.00
2.98080	100.01
2.99747	100.01
3.01413	100.01
3.03080	100.01
3.04747	100.02
3.06413	100.02
3.08080	100.01
3.09747	100.02
3.11413	100.01
3.13080	100.01
3.14747	100.02
3.16413	100.02
3.18080	100.02
3.19747	100.02
3.21413	100.02
3.23080	100.03
3.24747	100.02
3.26413	100.03
3.28080	100.03
3.29747	100.03
3.31413	100.03
3.33080	100.03
3.34747	100.03
3.36413	100.03
3.38080	100.03
3.39747	100.04
3.41413	100.04
3.43080	100.04
3.44747	100.03
3.46413	100.04
3.48080	100.03
3.49747	100.04
3.51413	100.05
3.53080	100.04
3.54747	100.04
3.56413	100.05
3.58080	100.05
3.59747	100.05
3.61413	100.05
3.63080	100.04
3.64747	100.05
3.66413	100.05
3.68080	100.05
3.69747	100.05
3.71413	100.05
3.73080	100.05
3.74747	100.05
3.76413	100.05
3.78080	100.05
3.79747	100.05
3.81413	100.05
3.83080	100.05
3.84747	100.05
3.86413	100.05
3.88080	100.06
3.89747	100.06
3.91413	100.06
3.93080	100.05
3.94747	100.05
3.96413	100.06
3.98080	100.05
3.99747	100.05

[Status Trace (Carrier Gas Pressure)]
Interval(msec)	1000
# of Points	240
Start Time(min)	0.014
End Time(min)	3.997
Intensity Units	
Intensity Multiplier	1
R.Time (min)	Intensity
0.01413	57.70
0.03080	55.42
0.04747	57.91
0.06413	59.76
0.08080	58.82
0.09747	57.98
0.11413	57.99
0.13080	58.01
0.14747	58.01
0.16413	58.01
0.18080	58.00
0.19747	58.00
0.21413	58.00
0.23080	58.00
0.24747	58.00
0.26413	58.00
0.28080	58.00
0.29747	58.00
0.31413	58.00
0.33080	58.00
0.34747	58.00
0.36413	58.00
0.38080	58.00
0.39747	58.00
0.41413	58.00
0.43080	58.00
0.44747	58.00
0.46413	58.00
0.48080	58.00
0.49747	58.00
0.51413	58.00
0.53080	58.00
0.54747	58.00
0.56413	58.00
0.58080	58.00
0.59747	58.00
0.61413	58.00
0.63080	58.00
0.64747	58.00
0.66413	58.00
0.68080	58.00
0.69747	58.00
0.71413	58.00
0.73080	58.00
0.74747	58.00
0.76413	58.00
0.78080	58.00
0.79747	58.00
0.81413	58.00
0.83080	58.00
0.84747	58.00
0.86413	58.00
0.88080	58.00
0.89747	58.00
0.91413	58.00
0.93080	58.00
0.94747	58.00
0.96413	58.00
0.98080	58.00
0.99747	58.00
1.01413	58.00
1.03080	58.00
1.04747	58.00
1.06413	58.00
1.08080	58.00
1.09747	58.00
1.11413	58.00
1.13080	58.00
1.14747	58.00
1.16413	58.00
1.18080	58.00
1.19747	58.00
1.21413	58.00
1.23080	58.00
1.24747	58.00
1.26413	58.00
1.28080	58.00
1.29747	58.00
1.31413	58.00
1.33080	58.00
1.34747	58.00
1.36413	58.00
1.38080	58.00
1.39747	58.00
1.41413	58.00
1.43080	58.00
1.44747	58.00
1.46413	58.00
1.48080	58.00
1.49747	58.00
1.51413	58.00
1.53080	58.00
1.54747	58.00
1.56413	58.00
1.58080	58.00
1.59747	58.00
1.61413	58.00
1.63080	58.01
1.64747	58.00
1.66413	58.00
1.68080	58.01
1.69747	58.00
1.71413	58.00
1.73080	58.00
1.74747	58.00
1.76413	58.00
1.78080	58.00
1.79747	58.00
1.81413	58.00
1.83080	58.00
1.84747	58.00
1.86413	58.00
1.88080	58.00
1.89747	58.00
1.91413	58.00
1.93080	58.00
1.94747	58.00
1.96413	58.00
1.98080	58.00
1.99747	58.00
2.01413	58.00
2.03080	58.00
2.04747	58.00
2.06413	58.00
2.08080	58.00
2.09747	58.00
2.11413	58.00
2.13080	58.00
2.14747	58.00
2.16413	58.00
2.18080	58.00
2.19747	58.00
2.21413	58.00
2.23080	58.00
2.24747	58.00
2.26413	58.00
2.28080	58.00
2.29747	58.00
2.31413	58.00
2.33080	58.00
2.34747	58.00
2.36413	58.00
2.38080	57.99
2.39747	57.99
2.41413	58.00
2.43080	58.00
2.44747	58.00
2.46413	58.00
2.48080	58.00
2.49747	58.00
2.51413	57.99
2.53080	57.99
2.54747	58.00
2.56413	58.00
2.58080	58.00
2.59747	58.00
2.61413	58.00
2.63080	58.00
2.64747	58.00
2.66413	58.00
2.68080	58.00
2.69747	58.00
2.71413	58.00
2.73080	58.00
2.74747	58.00
2.76413	58.00
2.78080	58.00
2.79747	58.00
2.81413	58.00
2.83080	58.00
2.84747	58.00
2.86413	58.00
2.88080	58.00
2.89747	58.00
2.91413	58.00
2.93080	58.00
2.94747	58.00
2.96413	58.00
2.98080	58.00
2.99747	58.00
3.01413	58.00
3.03080	58.00
3.04747	58.00
3.06413	58.00
3.08080	58.00
3.09747	58.00
3.11413	58.00
3.13080	58.00
3.14747	58.00
3.16413	58.00
3.18080	58.00
3.19747	58.00
3.21413	58.00
3.23080	58.00
3.24747	58.00
3.26413	58.00
3.28080	58.00
3.29747	58.00
3.31413	58.00
3.33080	58.00
3.34747	58.00
3.36413	58.00
3.38080	58.00
3.39747	58.00
3.41413	58.00
3.43080	58.00
3.44747	58.00
3.46413	58.00
3.48080	58.00
3.49747	58.00
3.51413	58.00
3.53080	58.00
3.54747	58.00
3.56413	58.00
3.58080	58.00
3.59747	58.00
3.61413	58.00
3.63080	58.00
3.64747	58.00
3.66413	58.00
3.68080	58.00
3.69747	58.00
3.71413	58.00
3.73080	58.00
3.74747	58.00
3.76413	58.00
3.78080	58.00
3.79747	58.00
3.81413	58.00
3.83080	58.00
3.84747	58.00
3.86413	58.00
3.88080	58.00
3.89747	58.00
3.91413	58.00
3.93080	58.00
3.94747	58.00
3.96413	58.00
3.98080	58.00
3.99747	58.00

[Status Trace (Carrier Gas Flow)]
Interval(msec)	1000
# of Points	240
Start Time(min)	0.014
End Time(min)	3.997
Intensity Units	
Intensity Multiplier	1
R.Time (min)	Intensity
0.01413	34.37
0.03080	34.55
0.04747	34.54
0.06413	34.53
0.08080	34.51
0.09747	34.52
0.11413	34.52
0.13080	34.52
0.14747	34.52
0.16413	34.52
0.18080	34.52
0.19747	34.52
0.21413	34.50
0.23080	34.52
0.24747	34.52
0.26413	34.52
0.28080	34.52
0.29747	34.52
0.31413	34.53
0.33080	34.52
0.34747	34.51
0.36413	34.52
0.38080	34.52
0.39747	34.52
0.41413	34.52
0.43080	34.52
0.44747	34.51
0.46413	34.52
0.48080	34.52
0.49747	34.52
0.51413	34.52
0.53080	34.52
0.54747	34.51
0.56413	34.50
0.58080	34.52
0.59747	34.53
0.61413	34.52
0.63080	34.52
0.64747	34.52
0.66413	34.54
0.68080	34.52
0.69747	34.52
0.71413	34.52
0.73080	34.52
0.74747	34.52
0.76413	34.52
0.78080	34.52
0.79747	34.52
0.81413	34.52
0.83080	34.52
0.84747	34.52
0.86413	34.52
0.88080	34.52
0.89747	34.52
0.91413	34.52
0.93080	34.52
0.94747	34.52
0.96413	34.52
0.98080	34.52
0.99747	34.51
1.01413	34.52
1.03080	34.51
1.04747	34.52
1.06413	34.52
1.08080	34.52
1.09747	34.52
1.11413	34.52
1.13080	34.52
1.14747	34.52
1.16413	34.52
1.18080	34.52
1.19747	34.52
1.21413	34.52
1.23080	34.52
1.24747	34.52
1.26413	34.54
1.28080	34.51
1.29747	34.52
1.31413	34.53
1.33080	34.52
1.34747	34.52
1.36413	34.51
1.38080	34.53
1.39747	34.52
1.41413	34.52
1.43080	34.52
1.44747	34.51
1.46413	34.52
1.48080	34.51
1.49747	34.51
1.51413	34.54
1.53080	34.51
1.54747	34.51
1.56413	34.52
1.58080	34.50
1.59747	34.51
1.61413	34.52
1.63080	34.52
1.64747	34.52
1.66413	34.53
1.68080	34.52
1.69747	34.51
1.71413	34.51
1.73080	34.52
1.74747	34.51
1.76413	34.52
1.78080	34.53
1.79747	34.52
1.81413	34.51
1.83080	34.50
1.84747	34.50
1.86413	34.53
1.88080	34.50
1.89747	34.51
1.91413	34.52
1.93080	34.52
1.94747	34.52
1.96413	34.53
1.98080	34.51
1.99747	34.53
2.01413	34.51
2.03080	34.50
2.04747	34.52
2.06413	34.51
2.08080	34.52
2.09747	34.50
2.11413	34.52
2.13080	34.53
2.14747	34.54
2.16413	34.52
2.18080	34.52
2.19747	34.52
2.21413	34.52
2.23080	34.52
2.24747	34.51
2.26413	34.52
2.28080	34.52
2.29747	34.52
2.31413	34.52
2.33080	34.51
2.34747	34.52
2.36413	34.53
2.38080	34.52
2.39747	34.52
2.41413	34.52
2.43080	34.52
2.44747	34.52
2.46413	34.52
2.48080	34.52
2.49747	34.52
2.51413	34.50
2.53080	34.52
2.54747	34.52
2.56413	34.52
2.58080	34.52
2.59747	34.52
2.61413	34.52
2.63080	34.52
2.64747	34.52
2.66413	34.52
2.68080	34.52
2.69747	34.52
2.71413	34.52
2.73080	34.52
2.74747	34.52
2.76413	34.52
2.78080	34.52
2.79747	34.52
2.81413	34.52
2.83080	34.52
2.84747	34.52
2.86413	34.52
2.88080	34.52
2.89747	34.52
2.91413	34.52
2.93080	34.52
2.94747	34.52
2.96413	34.52
2.98080	34.52
2.99747	34.52
3.01413	34.52
3.03080	34.52
3.04747	34.52
3.06413	34.52
3.08080	34.52
3.09747	34.52
3.11413	34.52
3.13080	34.52
3.14747	34.52
3.16413	34.52
3.18080	34.52
3.19747	34.52
3.21413	34.52
3.23080	34.52
3.24747	34.52
3.26413	34.52
3.28080	34.51
3.29747	34.52
3.31413	34.51
3.33080	34.52
3.34747	34.52
3.36413	34.52
3.38080	34.54
3.39747	34.53
3.41413	34.53
3.43080	34.51
3.44747	34.52
3.46413	34.52
3.48080	34.53
3.49747	34.53
3.51413	34.52
3.53080	34.50
3.54747	34.52
3.56413	34.52
3.58080	34.52
3.59747	34.52
3.61413	34.52
3.63080	34.52
3.64747	34.52
3.66413	34.52
3.68080	34.52
3.69747	34.52
3.71413	34.52
3.73080	34.52
3.74747	34.52
3.76413	34.52
3.78080	34.52
3.79747	34.52
3.81413	34.52
3.83080	34.52
3.84747	34.52
3.86413	34.52
3.88080	34.52
3.89747	34.52
3.91413	34.52
3.93080	34.52
3.94747	34.52
3.96413	34.52
3.98080	34.52
3.99747	34.52

[Status Trace (Column Flow)]
Interval(msec)	1000
# of Points	240
Start Time(min)	0.014
End Time(min)	3.997
Intensity Units	
Intensity Multiplier	1
R.Time (min)	Intensity
0.01413	5.54
0.03080	5.27
0.04747	5.56
0.06413	5.78
0.08080	5.67
0.09747	5.57
0.11413	5.57
0.13080	5.57
0.14747	5.57
0.16413	5.57
0.18080	5.57
0.19747	5.57
0.21413	5.57
0.23080	5.57
0.24747	5.57
0.26413	5.57
0.28080	5.57
0.29747	5.57
0.31413	5.57
0.33080	5.57
0.34747	5.57
0.36413	5.57
0.38080	5.57
0.39747	5.57
0.41413	5.57
0.43080	5.57
0.44747	5.57
0.46413	5.57
0.48080	5.57
0.49747	5.57
0.51413	5.57
0.53080	5.57
0.54747	5.57
0.56413	5.57
0.58080	5.57
0.59747	5.57
0.61413	5.57
0.63080	5.57
0.64747	5.57
0.66413	5.57
0.68080	5.57
0.69747	5.57
0.71413	5.57
0.73080	5.57
0.74747	5.57
0.76413	5.57
0.78080	5.57
0.79747	5.57
0.81413	5.57
0.83080	5.57
0.84747	5.57
0.86413	5.57
0.88080	5.57
0.89747	5.57
0.91413	5.57
0.93080	5.57
0.94747	5.57
0.96413	5.57
0.98080	5.57
0.99747	5.57
1.01413	5.57
1.03080	5.57
1.04747	5.57
1.06413	5.57
1.08080	5.57
1.09747	5.57
1.11413	5.57
1.13080	5.57
1.14747	5.57
1.16413	5.57
1.18080	5.57
1.19747	5.57
1.21413	5.57
1.23080	5.57
1.24747	5.57
1.26413	5.57
1.28080	5.57
1.29747	5.57
1.31413	5.57
1.33080	5.57
1.34747	5.57
1.36413	5.57
1.38080	5.57
1.39747	5.57
1.41413	5.57
1.43080	5.57
1.44747	5.57
1.46413	5.57
1.48080	5.57
1.49747	5.57
1.51413	5.57
1.53080	5.57
1.54747	5.57
1.56413	5.57
1.58080	5.57
1.59747	5.57
1.61413	5.57
1.63080	5.57
1.64747	5.56
1.66413	5.55
1.68080	5.54
1.69747	5.53
1.71413	5.52
1.73080	5.51
1.74747	5.49
1.76413	5.49
1.78080	5.47
1.79747	5.46
1.81413	5.46
1.83080	5.44
1.84747	5.43
1.86413	5.43
1.88080	5.41
1.89747	5.40
1.91413	5.40
1.93080	5.38
1.94747	5.37
1.96413	5.37
1.98080	5.36
1.99747	5.35
2.01413	5.34
2.03080	5.33
2.04747	5.32
2.06413	5.31
2.08080	5.30
2.09747	5.29
2.11413	5.28
2.13080	5.27
2.14747	5.26
2.16413	5.25
2.18080	5.24
2.19747	5.23
2.21413	5.22
2.23080	5.21
2.24747	5.20
2.26413	5.19
2.28080	5.18
2.29747	5.17
2.31413	5.17
2.33080	5.16
2.34747	5.15
2.36413	5.14
2.38080	5.14
2.39747	5.13
2.41413	5.13
2.43080	5.13
2.44747	5.13
2.46413	5.13
2.48080	5.13
2.49747	5.13
2.51413	5.13
2.53080	5.13
2.54747	5.13
2.56413	5.13
2.58080	5.13
2.59747	5.13
2.61413	5.13
2.63080	5.13
2.64747	5.13
2.66413	5.13
2.68080	5.13
2.69747	5.13
2.71413	5.13
2.73080	5.13
2.74747	5.13
2.76413	5.13
2.78080	5.13
2.79747	5.13
2.81413	5.13
2.83080	5.13
2.84747	5.13
2.86413	5.13
2.88080	5.13
2.89747	5.13
2.91413	5.13
2.93080	5.13
2.94747	5.13
2.96413	5.13
2.98080	5.13
2.99747	5.13
3.01413	5.13
3.03080	5.13
3.04747	5.13
3.06413	5.12
3.08080	5.12
3.09747	5.12
3.11413	5.12
3.13080	5.12
3.14747	5.12
3.16413	5.12
3.18080	5.12
3.19747	5.12
3.21413	5.12
3.23080	5.12
3.24747	5.12
3.26413	5.12
3.28080	5.12
3.29747	5.12
3.31413	5.12
3.33080	5.12
3.34747	5.12
3.36413	5.12
3.38080	5.12
3.39747	5.12
3.41413	5.12
3.43080	5.13
3.44747	5.13
3.46413	5.13
3.48080	5.13
3.49747	5.13
3.51413	5.13
3.53080	5.13
3.54747	5.13
3.56413	5.13
3.58080	5.13
3.59747	5.13
3.61413	5.13
3.63080	5.13
3.64747	5.13
3.66413	5.13
3.68080	5.13
3.69747	5.13
3.71413	5.13
3.73080	5.13
3.74747	5.13
3.76413	5.13
3.78080	5.13
3.79747	5.13
3.81413	5.13
3.83080	5.13
3.84747	5.13
3.86413	5.13
3.88080	5.13
3.89747	5.12
3.91413	5.12
3.93080	5.12
3.94747	5.12
3.96413	5.12
3.98080	5.12
3.99747	5.12

[Status Trace (Linear Velocity)]
Interval(msec)	1000
# of Points	240
Start Time(min)	0.014
End Time(min)	3.997
Intensity Units	
Intensity Multiplier	1
R.Time (min)	Intensity
0.01413	38.83
0.03080	37.33
0.04747	38.97
0.06413	40.18
0.08080	39.57
0.09747	39.02
0.11413	39.02
0.13080	39.04
0.14747	39.04
0.16413	39.03
0.18080	39.03
0.19747	39.03
0.21413	39.03
0.23080	39.03
0.24747	39.03
0.26413	39.03
0.28080	39.03
0.29747	39.03
0.31413	39.03
0.33080	39.03
0.34747	39.03
0.36413	39.03
0.38080	39.03
0.39747	39.03
0.41413	39.03
0.43080	39.03
0.44747	39.03
0.46413	39.03
0.48080	39.03
0.49747	39.03
0.51413	39.03
0.53080	39.03
0.54747	39.03
0.56413	39.03
0.58080	39.03
0.59747	39.03
0.61413	39.03
0.63080	39.03
0.64747	39.03
0.66413	39.03
0.68080	39.03
0.69747	39.03
0.71413	39.03
0.73080	39.03
0.74747	39.03
0.76413	39.03
0.78080	39.03
0.79747	39.03
0.81413	39.03
0.83080	39.03
0.84747	39.03
0.86413	39.03
0.88080	39.03
0.89747	39.03
0.91413	39.03
0.93080	39.03
0.94747	39.03
0.96413	39.03
0.98080	39.03
0.99747	39.03
1.01413	39.03
1.03080	39.03
1.04747	39.03
1.06413	39.03
1.08080	39.03
1.09747	39.03
1.11413	39.03
1.13080	39.03
1.14747	39.03
1.16413	39.03
1.18080	39.03
1.19747	39.03
1.21413	39.03
1.23080	39.03
1.24747	39.03
1.26413	39.03
1.28080	39.03
1.29747	39.03
1.31413	39.03
1.33080	39.03
1.34747	39.03
1.36413	39.03
1.38080	39.03
1.39747	39.03
1.41413	39.03
1.43080	39.03
1.44747	39.03
1.46413	39.03
1.48080	39.03
1.49747	39.03
1.51413	39.03
1.53080	39.03
1.54747	39.03
1.56413	39.03
1.58080	39.03
1.59747	39.03
1.61413	39.02
1.63080	39.01
1.64747	38.99
1.66413	38.96
1.68080	38.93
1.69747	38.89
1.71413	38.86
1.73080	38.82
1.74747	38.79
1.76413	38.76
1.78080	38.73
1.79747	38.70
1.81413	38.67
1.83080	38.64
1.84747	38.61
1.86413	38.58
1.88080	38.54
1.89747	38.51
1.91413	38.49
1.93080	38.45
1.94747	38.42
1.96413	38.39
1.98080	38.36
1.99747	38.33
2.01413	38.30
2.03080	38.27
2.04747	38.24
2.06413	38.22
2.08080	38.18
2.09747	38.15
2.11413	38.13
2.13080	38.09
2.14747	38.06
2.16413	38.03
2.18080	38.00
2.19747	37.97
2.21413	37.95
2.23080	37.91
2.24747	37.88
2.26413	37.86
2.28080	37.83
2.29747	37.80
2.31413	37.77
2.33080	37.74
2.34747	37.71
2.36413	37.69
2.38080	37.67
2.39747	37.67
2.41413	37.67
2.43080	37.67
2.44747	37.67
2.46413	37.67
2.48080	37.67
2.49747	37.67
2.51413	37.66
2.53080	37.66
2.54747	37.66
2.56413	37.66
2.58080	37.66
2.59747	37.66
2.61413	37.66
2.63080	37.66
2.64747	37.66
2.66413	37.66
2.68080	37.66
2.69747	37.65
2.71413	37.65
2.73080	37.65
2.74747	37.66
2.76413	37.66
2.78080	37.66
2.79747	37.66
2.81413	37.65
2.83080	37.65
2.84747	37.65
2.86413	37.65
2.88080	37.65
2.89747	37.65
2.91413	37.65
2.93080	37.65
2.94747	37.65
2.96413	37.65
2.98080	37.65
2.99747	37.65
3.01413	37.64
3.03080	37.64
3.04747	37.64
3.06413	37.64
3.08080	37.64
3.09747	37.64
3.11413	37.64
3.13080	37.64
3.14747	37.64
3.16413	37.64
3.18080	37.64
3.19747	37.64
3.21413	37.64
3.23080	37.64
3.24747	37.64
3.26413	37.64
3.28080	37.63
3.29747	37.63
3.31413	37.63
3.33080	37.63
3.34747	37.63
3.36413	37.64
3.38080	37.64
3.39747	37.64
3.41413	37.64
3.43080	37.64
3.44747	37.64
3.46413	37.64
3.48080	37.64
3.49747	37.64
3.51413	37.64
3.53080	37.64
3.54747	37.64
3.56413	37.64
3.58080	37.64
3.59747	37.64
3.61413	37.64
3.63080	37.64
3.64747	37.64
3.66413	37.64
3.68080	37.64
3.69747	37.64
3.71413	37.64
3.73080	37.64
3.74747	37.64
3.76413	37.65
3.78080	37.64
3.79747	37.64
3.81413	37.64
3.83080	37.64
3.84747	37.64
3.86413	37.64
3.88080	37.64
3.89747	37.64
3.91413	37.64
3.93080	37.64
3.94747	37.64
3.96413	37.64
3.98080	37.64
3.99747	37.64

