[Header]
Application Name	LabSolutions
Version	5.110
Data File Name	C:\Users\User\Desktop\GC Analyses\Jack\UIC Prairie Sampling\7.22.22\220722_100.gcd
Output Date	10/5/2022
Output Time	2:13:44 PM

[File Information]
Type	Data File
Generated	10/5/2022 1:10:55 PM
Generated by	System Administrator
Modified	10/5/2022 1:15:08 PM
Modified by	System Administrator

[Sample Information]
Operator Name	System Administrator
Acquired	10/5/2022 1:11:08 PM
Sample Type	1:Standard
Level	1
Sample Name	220722_UICPrairie
Sample ID	220722_UICPrairie
ISTD Amount1	1
ISTD Amount2	1
ISTD Amount3	1
ISTD Amount4	1
ISTD Amount5	1
ISTD Amount6	1
ISTD Amount7	1
ISTD Amount8	1
ISTD Amount9	1
ISTD Amount10	1
ISTD Amount11	1
ISTD Amount12	1
ISTD Amount13	1
ISTD Amount14	1
ISTD Amount15	1
ISTD Amount16	1
ISTD Amount17	1
ISTD Amount18	1
ISTD Amount19	1
ISTD Amount20	1
ISTD Amount21	1
ISTD Amount22	1
ISTD Amount23	1
ISTD Amount24	1
ISTD Amount25	1
ISTD Amount26	1
ISTD Amount27	1
ISTD Amount28	1
ISTD Amount29	1
ISTD Amount30	1
ISTD Amount31	1
ISTD Amount32	1
Sample Amount	1
Dilution Factor	1
Vial#	1
Injection Volume	1
Injection Count	1
Bar Code	

[Original Files]
Data File	C:\Users\User\Desktop\GC Analyses\Jack\UIC Prairie Sampling\7.22.22\220722_100.gcd
Method File	C:\LabSolutions\Data\GHG_4min_2022\ghg3_togas_w_acet_4 min_new_int.gcm
Batch File	
Report Format File	c:\LabSolutions\System\DEFAULT.lsr

[File Description]


[Configuration]
Instrument Name	C0B7VH3-Instrument1
Instrument #	1
Line #	1
# of Detectors	3
Detector ID	DET#1	DET#2	DET#3
Detector Name	FID	PTCD	ECD
# of Channels	1	1	1

[Peak Table(Ch1)]
# of Peaks	3
Peak#	R.Time	I.Time	F.Time	Area	Height	A/H	Conc.	Mark	ID#	Name	k'	Plate #	Plate Ht.	Tailing	Resolution	Sep.Factor	Area Ratio	Height Ratio	Conc. %	Norm Conc.
1	1.479	1.443	1.542	13909	6232	2.232	100.000	   	1	CO	0.000	8447	17.758	1.214	0.000	0.000	0	0	16.667	16.667
2	1.575	1.542	1.641	4439	2224	1.996	100.000	 V 	2	CH4	0.064	11488	13.057	1.108	1.548	0.000	0	0	16.667	16.667
3	2.000	1.952	2.293	2360013	1151872	2.049	400.000	   	3	CO2	0.352	17788	8.433	1.296	7.164	5.462	0	0	66.667	66.667

[Peak Table(Ch2)]
# of Peaks	0

[Peak Table(Ch3)]
# of Peaks	3
Peak#	R.Time	I.Time	F.Time	Area	Height	A/H	Conc.	Mark	ID#	Name	k'	Plate #	Plate Ht.	Tailing	Resolution	Sep.Factor	Area Ratio	Height Ratio	Conc. %	Norm Conc.
1	2.594	2.422	2.660	5291	609	8.689	0.000	   			0.000	2500	60.008	0.000	0.000	0.000	0	0	0.000	0.000
2	2.759	2.660	2.777	1965	321	6.131	0.078	 V 	1	N2O	0.064	75	2005.463	0.000	0.222	0.000	0	0	7.793	7.793
3	2.887	2.777	3.258	23254	5126	4.536	0.922	 V 	1	N2O	0.113	12384	12.112	0.000	0.186	1.778	0	0	92.207	92.207

[Compound Results(Ch1)]
# of IDs	6
ID#	Name	R.Time	Area	Height	Conc.	Curve	3rd	2nd	1st	Constant	Area Ratio	Height Ratio	Conc. %	Norm Conc.
1	CO	1.479	13909	6232	100.000	Linear	0.000000e+00	0.000000e+00	1.390919e+002	0.000000e+00	0	0	16.667	16.667
2	CH4	1.575	4439	2224	100.000	Linear	0.000000e+00	0.000000e+00	4.438808e+001	0.000000e+00	0	0	16.667	16.667
3	CO2	2.000	2360013	1151872	400.000	Linear	0.000000e+00	0.000000e+00	5.900031e+003	0.000000e+00	0	0	66.667	66.667
4	Ethylene	0.000	0	0	0.000	Linear	0.000000e+00	0.000000e+00	0.000000e+00	0.000000e+00	0	0	0.000	0.000
5	Acetylene	0.000	0	0	0.000	Linear	0.000000e+00	0.000000e+00	0.000000e+00	0.000000e+00	0	0	0.000	0.000
6	Ethane	0.000	0	0	0.000	Linear	0.000000e+00	0.000000e+00	0.000000e+00	0.000000e+00	0	0	0.000	0.000

[Compound Results(Ch2)]
# of IDs	5
ID#	Name	R.Time	Area	Height	Conc.	Curve	3rd	2nd	1st	Constant	Area Ratio	Height Ratio	Conc. %	Norm Conc.
1	Hydrogen	0.000	0	0	0.000	Linear	0.000000e+00	0.000000e+00	0.000000e+00	0.000000e+00	0	0	0.000	0.000
2	Oxygen	0.000	0	0	0.000	Linear	0.000000e+00	0.000000e+00	0.000000e+00	0.000000e+00	0	0	0.000	0.000
3	Nitrogen	0.000	0	0	0.000	Linear	0.000000e+00	0.000000e+00	0.000000e+00	0.000000e+00	0	0	0.000	0.000
4	Methane	0.000	0	0	0.000	Linear	0.000000e+00	0.000000e+00	0.000000e+00	0.000000e+00	0	0	0.000	0.000
5	Carbon Monoxide	0.000	0	0	0.000	Linear	0.000000e+00	0.000000e+00	0.000000e+00	0.000000e+00	0	0	0.000	0.000

[Compound Results(Ch3)]
# of IDs	2
ID#	Name	R.Time	Area	Height	Conc.	Curve	3rd	2nd	1st	Constant	Area Ratio	Height Ratio	Conc. %	Norm Conc.
1	N2O	2.887	25220	5447	1.000	Linear	0.000000e+00	0.000000e+00	2.521967e+004	0.000000e+00	0	0	100.000	100.000
2	SF6	0.000	0	0	0.000	Linear	0.000000e+00	0.000000e+00	0.000000e+00	0.000000e+00	0	0	0.000	0.000

[Group Results(Ch1)]
# of Groups	0

[Group Results(Ch2)]
# of Groups	0

[Group Results(Ch3)]
# of Groups	0

[Chromatogram (Ch1)]
Interval(msec)	220
# of Points	1091
Start Time(min)	0.002
End Time(min)	3.998
R.Time (min)	Intensity
0.00167	-9
0.00533	-12
0.00900	-14
0.01267	-16
0.01633	-17
0.02000	-19
0.02367	-23
0.02733	-24
0.03100	-27
0.03467	-29
0.03833	-31
0.04200	-28
0.04567	-25
0.04933	-23
0.05300	-21
0.05667	-19
0.06033	-16
0.06400	-17
0.06767	-21
0.07133	-22
0.07500	-16
0.07867	-15
0.08233	-14
0.08600	-13
0.08967	-13
0.09333	-17
0.09700	-19
0.10067	-21
0.10433	-24
0.10800	-27
0.11167	-26
0.11533	-23
0.11900	-21
0.12267	-19
0.12633	-16
0.13000	-15
0.13367	-15
0.13733	-19
0.14100	-25
0.14467	-31
0.14833	-34
0.15200	-33
0.15567	-30
0.15933	-27
0.16300	-23
0.16667	-19
0.17033	-19
0.17400	-22
0.17767	-23
0.18133	-20
0.18500	-16
0.18867	-14
0.19233	-12
0.19600	-5
0.19967	1
0.20333	-1
0.20700	-7
0.21067	-16
0.21433	-25
0.21800	-31
0.22167	-30
0.22533	-25
0.22900	-23
0.23267	-25
0.23633	-32
0.24000	-38
0.24367	-39
0.24733	-38
0.25100	-38
0.25467	-39
0.25833	-41
0.26200	-48
0.26567	-58
0.26933	-62
0.27300	-61
0.27667	-57
0.28033	-50
0.28400	-39
0.28767	-30
0.29133	-26
0.29500	-24
0.29867	-23
0.30233	-24
0.30600	-27
0.30967	-27
0.31333	-28
0.31700	-29
0.32067	-32
0.32433	-34
0.32800	-35
0.33167	-35
0.33533	-39
0.33900	-44
0.34267	-45
0.34633	-39
0.35000	-31
0.35367	-28
0.35733	-29
0.36100	-32
0.36467	-36
0.36833	-40
0.37200	-41
0.37567	-44
0.37933	-45
0.38300	-45
0.38667	-43
0.39033	-39
0.39400	-36
0.39767	-35
0.40133	-36
0.40500	-39
0.40867	-36
0.41233	-28
0.41600	-22
0.41967	-23
0.42333	-30
0.42700	-38
0.43067	-43
0.43433	-47
0.43800	-48
0.44167	-47
0.44533	-47
0.44900	-50
0.45267	-52
0.45633	-55
0.46000	-53
0.46367	-51
0.46733	-48
0.47100	-45
0.47467	-44
0.47833	-45
0.48200	-43
0.48567	-36
0.48933	-31
0.49300	-31
0.49667	-34
0.50033	-37
0.50400	-38
0.50767	-38
0.51133	-39
0.51500	-40
0.51867	-45
0.52233	-50
0.52600	-53
0.52967	-54
0.53333	-52
0.53700	-46
0.54067	-42
0.54433	-41
0.54800	-44
0.55167	-47
0.55533	-48
0.55900	-44
0.56267	-37
0.56633	-28
0.57000	-23
0.57367	-20
0.57733	-23
0.58100	-31
0.58467	-40
0.58833	-46
0.59200	-49
0.59567	-49
0.59933	-48
0.60300	-45
0.60667	-40
0.61033	-36
0.61400	-37
0.61767	-39
0.62133	-40
0.62500	-43
0.62867	-48
0.63233	-56
0.63600	-62
0.63967	-60
0.64333	-52
0.64700	-44
0.65067	-40
0.65433	-40
0.65800	-41
0.66167	-41
0.66533	-40
0.66900	-40
0.67267	-41
0.67633	-43
0.68000	-45
0.68367	-44
0.68733	-41
0.69100	-39
0.69467	-39
0.69833	-40
0.70200	-43
0.70567	-46
0.70933	-48
0.71300	-48
0.71667	-48
0.72033	-49
0.72400	-51
0.72767	-52
0.73133	-52
0.73500	-52
0.73867	-50
0.74233	-47
0.74600	-43
0.74967	-40
0.75333	-39
0.75700	-38
0.76067	-35
0.76433	-32
0.76800	-32
0.77167	-37
0.77533	-43
0.77900	-46
0.78267	-49
0.78633	-52
0.79000	-54
0.79367	-56
0.79733	-61
0.80100	-66
0.80467	-70
0.80833	-68
0.81200	-62
0.81567	-57
0.81933	-50
0.82300	-45
0.82667	-39
0.83033	-34
0.83400	-33
0.83767	-30
0.84133	-27
0.84500	-29
0.84867	-34
0.85233	-40
0.85600	-43
0.85967	-43
0.86333	-42
0.86700	-42
0.87067	-44
0.87433	-48
0.87800	-52
0.88167	-53
0.88533	-55
0.88900	-56
0.89267	-57
0.89633	-58
0.90000	-56
0.90367	-52
0.90733	-47
0.91100	-42
0.91467	-45
0.91833	-52
0.92200	-57
0.92567	-61
0.92933	-62
0.93300	-61
0.93667	-64
0.94033	-75
0.94400	-75
0.94767	-68
0.95133	-59
0.95500	-53
0.95867	-51
0.96233	-47
0.96600	-38
0.96967	-36
0.97333	-36
0.97700	-36
0.98067	-38
0.98433	-45
0.98800	-47
0.99167	-48
0.99533	-51
0.99900	-61
1.00267	-61
1.00633	-52
1.01000	-49
1.01367	-58
1.01733	-64
1.02100	-64
1.02467	-66
1.02833	-69
1.03200	-69
1.03567	-70
1.03933	-69
1.04300	-63
1.04667	-52
1.05033	-47
1.05400	-43
1.05767	-42
1.06133	-42
1.06500	-44
1.06867	-48
1.07233	-52
1.07600	-52
1.07967	-52
1.08333	-55
1.08700	-61
1.09067	-65
1.09433	-64
1.09800	-66
1.10167	-63
1.10533	-59
1.10900	-55
1.11267	-54
1.11633	-54
1.12000	-55
1.12367	-56
1.12733	-57
1.13100	-59
1.13467	-61
1.13833	-63
1.14200	-67
1.14567	-67
1.14933	-65
1.15300	-62
1.15667	-63
1.16033	-67
1.16400	-70
1.16767	-68
1.17133	-58
1.17500	-48
1.17867	-45
1.18233	-49
1.18600	-54
1.18967	-56
1.19333	-56
1.19700	-54
1.20067	-55
1.20433	-56
1.20800	-55
1.21167	-55
1.21533	-55
1.21900	-52
1.22267	-47
1.22633	-41
1.23000	-39
1.23367	-42
1.23733	-53
1.24100	-63
1.24467	-68
1.24833	-66
1.25200	-57
1.25567	-46
1.25933	-39
1.26300	-38
1.26667	-43
1.27033	-54
1.27400	-68
1.27767	-78
1.28133	-82
1.28500	-79
1.28867	-74
1.29233	-63
1.29600	-55
1.29967	-55
1.30333	-59
1.30700	-63
1.31067	-65
1.31433	-67
1.31800	-66
1.32167	-64
1.32533	-64
1.32900	-62
1.33267	-59
1.33633	-59
1.34000	-61
1.34367	-63
1.34733	-61
1.35100	-59
1.35467	-57
1.35833	-56
1.36200	-54
1.36567	-53
1.36933	-51
1.37300	-48
1.37667	-44
1.38033	-40
1.38400	-35
1.38767	-31
1.39133	-35
1.39500	-44
1.39867	-51
1.40233	-57
1.40600	-59
1.40967	-63
1.41333	-61
1.41700	-59
1.42067	-59
1.42433	-58
1.42800	-59
1.43167	-63
1.43533	-71
1.43900	-73
1.44267	-50
1.44633	66
1.45000	365
1.45367	882
1.45733	1669
1.46100	2710
1.46467	3831
1.46833	4832
1.47200	5588
1.47567	6044
1.47933	6176
1.48300	5961
1.48667	5412
1.49033	4619
1.49400	3721
1.49767	2862
1.50133	2124
1.50500	1537
1.50867	1089
1.51233	760
1.51600	525
1.51967	360
1.52333	240
1.52700	153
1.53067	89
1.53433	43
1.53800	12
1.54167	3
1.54533	45
1.54900	194
1.55267	489
1.55633	895
1.56000	1324
1.56367	1698
1.56733	1978
1.57100	2140
1.57467	2152
1.57833	1994
1.58200	1695
1.58567	1330
1.58933	973
1.59300	671
1.59667	438
1.60033	270
1.60400	154
1.60767	75
1.61133	21
1.61500	-16
1.61867	-35
1.62233	-44
1.62600	-48
1.62967	-53
1.63333	-62
1.63700	-73
1.64067	-83
1.64433	-88
1.64800	-90
1.65167	-90
1.65533	-93
1.65900	-98
1.66267	-96
1.66633	-87
1.67000	-79
1.67367	-76
1.67733	-80
1.68100	-86
1.68467	-92
1.68833	-91
1.69200	-82
1.69567	-77
1.69933	-78
1.70300	-79
1.70667	-80
1.71033	-82
1.71400	-84
1.71767	-87
1.72133	-94
1.72500	-100
1.72867	-105
1.73233	-107
1.73600	-109
1.73967	-112
1.74333	-113
1.74700	-113
1.75067	-112
1.75433	-110
1.75800	-106
1.76167	-98
1.76533	-89
1.76900	-87
1.77267	-90
1.77633	-92
1.78000	-92
1.78367	-91
1.78733	-90
1.79100	-88
1.79467	-86
1.79833	-85
1.80200	-81
1.80567	-79
1.80933	-81
1.81300	-86
1.81667	-90
1.82033	-94
1.82400	-97
1.82767	-99
1.83133	-100
1.83500	-103
1.83867	-106
1.84233	-106
1.84600	-103
1.84967	-100
1.85333	-95
1.85700	-89
1.86067	-82
1.86433	-77
1.86800	-71
1.87167	-69
1.87533	-70
1.87900	-73
1.88267	-74
1.88633	-77
1.89000	-82
1.89367	-87
1.89733	-90
1.90100	-89
1.90467	-84
1.90833	-81
1.91200	-81
1.91567	-81
1.91933	-80
1.92300	-77
1.92667	-77
1.93033	-76
1.93400	-75
1.93767	-77
1.94133	-81
1.94500	-81
1.94867	-78
1.95233	-73
1.95600	-54
1.95967	75
1.96333	876
1.96700	4811
1.97067	19446
1.97433	60983
1.97800	151638
1.98167	305174
1.98533	511075
1.98900	734866
1.99267	936151
1.99633	1082057
2.00000	1151836
2.00367	1138389
2.00733	1048831
2.01100	903876
2.01467	732175
2.01833	561593
2.02200	411771
2.02567	291671
2.02933	201659
2.03300	137377
2.03667	92984
2.04033	63003
2.04400	43022
2.04767	29786
2.05133	21020
2.05500	15186
2.05867	11260
2.06233	8573
2.06600	6699
2.06967	5367
2.07333	4400
2.07700	3684
2.08067	3145
2.08433	2732
2.08800	2403
2.09167	2132
2.09533	1902
2.09900	1706
2.10267	1542
2.10633	1406
2.11000	1294
2.11367	1199
2.11733	1116
2.12100	1042
2.12467	975
2.12833	913
2.13200	859
2.13567	812
2.13933	769
2.14300	730
2.14667	697
2.15033	671
2.15400	644
2.15767	611
2.16133	577
2.16500	544
2.16867	515
2.17233	492
2.17600	475
2.17967	461
2.18333	448
2.18700	432
2.19067	417
2.19433	404
2.19800	392
2.20167	381
2.20533	371
2.20900	361
2.21267	351
2.21633	342
2.22000	336
2.22367	332
2.22733	326
2.23100	315
2.23467	303
2.23833	289
2.24200	277
2.24567	270
2.24933	262
2.25300	252
2.25667	244
2.26033	238
2.26400	235
2.26767	234
2.27133	234
2.27500	232
2.27867	227
2.28233	218
2.28600	208
2.28967	199
2.29333	191
2.29700	189
2.30067	192
2.30433	197
2.30800	202
2.31167	206
2.31533	207
2.31900	207
2.32267	206
2.32633	203
2.33000	197
2.33367	185
2.33733	169
2.34100	157
2.34467	152
2.34833	153
2.35200	153
2.35567	151
2.35933	147
2.36300	142
2.36667	135
2.37033	130
2.37400	129
2.37767	127
2.38133	126
2.38500	129
2.38867	135
2.39233	140
2.39600	142
2.39967	139
2.40333	134
2.40700	130
2.41067	130
2.41433	130
2.41800	128
2.42167	125
2.42533	122
2.42900	121
2.43267	120
2.43633	123
2.44000	126
2.44367	127
2.44733	124
2.45100	116
2.45467	109
2.45833	106
2.46200	105
2.46567	107
2.46933	108
2.47300	108
2.47667	109
2.48033	112
2.48400	113
2.48767	116
2.49133	118
2.49500	118
2.49867	114
2.50233	106
2.50600	98
2.50967	92
2.51333	88
2.51700	84
2.52067	80
2.52433	78
2.52800	77
2.53167	80
2.53533	82
2.53900	82
2.54267	80
2.54633	77
2.55000	77
2.55367	77
2.55733	77
2.56100	74
2.56467	71
2.56833	70
2.57200	72
2.57567	75
2.57933	80
2.58300	85
2.58667	87
2.59033	87
2.59400	83
2.59767	76
2.60133	72
2.60500	70
2.60867	67
2.61233	62
2.61600	59
2.61967	58
2.62333	58
2.62700	57
2.63067	52
2.63433	48
2.63800	44
2.64167	41
2.64533	39
2.64900	38
2.65267	36
2.65633	37
2.66000	39
2.66367	42
2.66733	46
2.67100	54
2.67467	66
2.67833	76
2.68200	83
2.68567	83
2.68933	76
2.69300	67
2.69667	57
2.70033	48
2.70400	37
2.70767	26
2.71133	22
2.71500	23
2.71867	24
2.72233	26
2.72600	28
2.72967	33
2.73333	38
2.73700	44
2.74067	48
2.74433	48
2.74800	44
2.75167	39
2.75533	33
2.75900	30
2.76267	29
2.76633	29
2.77000	26
2.77367	25
2.77733	24
2.78100	24
2.78467	24
2.78833	25
2.79200	29
2.79567	38
2.79933	43
2.80300	39
2.80667	28
2.81033	17
2.81400	10
2.81767	8
2.82133	9
2.82500	11
2.82867	14
2.83233	19
2.83600	26
2.83967	35
2.84333	43
2.84700	46
2.85067	44
2.85433	39
2.85800	31
2.86167	26
2.86533	25
2.86900	26
2.87267	32
2.87633	35
2.88000	33
2.88367	29
2.88733	25
2.89100	21
2.89467	15
2.89833	12
2.90200	10
2.90567	9
2.90933	11
2.91300	14
2.91667	19
2.92033	24
2.92400	28
2.92767	32
2.93133	33
2.93500	31
2.93867	27
2.94233	26
2.94600	27
2.94967	27
2.95333	26
2.95700	24
2.96067	22
2.96433	21
2.96800	24
2.97167	27
2.97533	28
2.97900	27
2.98267	26
2.98633	25
2.99000	28
2.99367	32
2.99733	34
3.00100	33
3.00467	32
3.00833	29
3.01200	27
3.01567	26
3.01933	28
3.02300	30
3.02667	31
3.03033	27
3.03400	18
3.03767	9
3.04133	2
3.04500	-3
3.04867	-5
3.05233	-4
3.05600	1
3.05967	12
3.06333	20
3.06700	24
3.07067	24
3.07433	20
3.07800	13
3.08167	7
3.08533	5
3.08900	4
3.09267	7
3.09633	9
3.10000	8
3.10367	3
3.10733	-3
3.11100	-7
3.11467	-11
3.11833	-11
3.12200	-9
3.12567	-5
3.12933	-3
3.13300	-4
3.13667	-4
3.14033	-0
3.14400	5
3.14767	11
3.15133	16
3.15500	19
3.15867	20
3.16233	17
3.16600	8
3.16967	-4
3.17333	-13
3.17700	-21
3.18067	-25
3.18433	-27
3.18800	-24
3.19167	-16
3.19533	-8
3.19900	-4
3.20267	-5
3.20633	-7
3.21000	-9
3.21367	-9
3.21733	-7
3.22100	-4
3.22467	-4
3.22833	-7
3.23200	-7
3.23567	-6
3.23933	-6
3.24300	-5
3.24667	-3
3.25033	-1
3.25400	-1
3.25767	-2
3.26133	-4
3.26500	-7
3.26867	-10
3.27233	-13
3.27600	-13
3.27967	-8
3.28333	-0
3.28700	6
3.29067	10
3.29433	11
3.29800	11
3.30167	9
3.30533	6
3.30900	3
3.31267	-1
3.31633	-7
3.32000	-13
3.32367	-16
3.32733	-17
3.33100	-15
3.33467	-12
3.33833	-8
3.34200	-3
3.34567	2
3.34933	10
3.35300	12
3.35667	8
3.36033	1
3.36400	-4
3.36767	-4
3.37133	1
3.37500	6
3.37867	9
3.38233	10
3.38600	5
3.38967	-6
3.39333	-21
3.39700	-36
3.40067	-50
3.40433	-60
3.40800	-64
3.41167	-62
3.41533	-57
3.41900	-49
3.42267	-42
3.42633	-34
3.43000	-27
3.43367	-19
3.43733	-14
3.44100	-13
3.44467	-12
3.44833	-10
3.45200	-6
3.45567	-4
3.45933	-4
3.46300	-7
3.46667	-8
3.47033	-6
3.47400	-3
3.47767	-0
3.48133	0
3.48500	2
3.48867	5
3.49233	8
3.49600	9
3.49967	8
3.50333	5
3.50700	-2
3.51067	-12
3.51433	-20
3.51800	-24
3.52167	-22
3.52533	-17
3.52900	-10
3.53267	-5
3.53633	-3
3.54000	-4
3.54367	-7
3.54733	-11
3.55100	-16
3.55467	-19
3.55833	-21
3.56200	-23
3.56567	-25
3.56933	-26
3.57300	-25
3.57667	-26
3.58033	-27
3.58400	-26
3.58767	-23
3.59133	-20
3.59500	-15
3.59867	-10
3.60233	-6
3.60600	-4
3.60967	-5
3.61333	-9
3.61700	-13
3.62067	-17
3.62433	-19
3.62800	-18
3.63167	-16
3.63533	-14
3.63900	-12
3.64267	-13
3.64633	-15
3.65000	-18
3.65367	-19
3.65733	-20
3.66100	-23
3.66467	-27
3.66833	-30
3.67200	-31
3.67567	-29
3.67933	-31
3.68300	-31
3.68667	-30
3.69033	-34
3.69400	-38
3.69767	-40
3.70133	-39
3.70500	-39
3.70867	-37
3.71233	-34
3.71600	-31
3.71967	-29
3.72333	-26
3.72700	-26
3.73067	-28
3.73433	-29
3.73800	-27
3.74167	-25
3.74533	-26
3.74900	-26
3.75267	-24
3.75633	-23
3.76000	-24
3.76367	-24
3.76733	-25
3.77100	-25
3.77467	-25
3.77833	-23
3.78200	-21
3.78567	-20
3.78933	-24
3.79300	-28
3.79667	-30
3.80033	-30
3.80400	-31
3.80767	-37
3.81133	-40
3.81500	-33
3.81867	-27
3.82233	-18
3.82600	-8
3.82967	-3
3.83333	-5
3.83700	-10
3.84067	-19
3.84433	-31
3.84800	-38
3.85167	-38
3.85533	-34
3.85900	-29
3.86267	-25
3.86633	-25
3.87000	-27
3.87367	-28
3.87733	-28
3.88100	-29
3.88467	-30
3.88833	-31
3.89200	-30
3.89567	-29
3.89933	-31
3.90300	-33
3.90667	-30
3.91033	-24
3.91400	-20
3.91767	-21
3.92133	-23
3.92500	-25
3.92867	-28
3.93233	-30
3.93600	-33
3.93967	-38
3.94333	-44
3.94700	-47
3.95067	-46
3.95433	-40
3.95800	-33
3.96167	-27
3.96533	-23
3.96900	-23
3.97267	-24
3.97633	-26
3.98000	-28
3.98367	-32
3.98733	-32
3.99100	-32
3.99467	-34
3.99833	-38

[Chromatogram (Ch2)]
Interval(msec)	220
# of Points	1091
Start Time(min)	0.002
End Time(min)	3.998
R.Time (min)	Intensity
0.00167	0
0.00533	1
0.00900	1
0.01267	1
0.01633	1
0.02000	1
0.02367	1
0.02733	1
0.03100	1
0.03467	0
0.03833	0
0.04200	0
0.04567	0
0.04933	-0
0.05300	-0
0.05667	-0
0.06033	-0
0.06400	-0
0.06767	0
0.07133	1
0.07500	1
0.07867	1
0.08233	1
0.08600	1
0.08967	1
0.09333	1
0.09700	1
0.10067	1
0.10433	1
0.10800	1
0.11167	1
0.11533	1
0.11900	1
0.12267	1
0.12633	1
0.13000	1
0.13367	1
0.13733	1
0.14100	1
0.14467	2
0.14833	2
0.15200	2
0.15567	2
0.15933	2
0.16300	2
0.16667	2
0.17033	2
0.17400	2
0.17767	2
0.18133	2
0.18500	2
0.18867	2
0.19233	1
0.19600	1
0.19967	1
0.20333	0
0.20700	0
0.21067	-0
0.21433	-0
0.21800	-0
0.22167	-0
0.22533	0
0.22900	0
0.23267	0
0.23633	0
0.24000	0
0.24367	0
0.24733	0
0.25100	1
0.25467	1
0.25833	1
0.26200	1
0.26567	1
0.26933	1
0.27300	1
0.27667	1
0.28033	1
0.28400	1
0.28767	1
0.29133	1
0.29500	1
0.29867	1
0.30233	1
0.30600	0
0.30967	-0
0.31333	-0
0.31700	-0
0.32067	0
0.32433	0
0.32800	0
0.33167	0
0.33533	-0
0.33900	-0
0.34267	-1
0.34633	-1
0.35000	-2
0.35367	-2
0.35733	-2
0.36100	-3
0.36467	-3
0.36833	-3
0.37200	-3
0.37567	-4
0.37933	-4
0.38300	-4
0.38667	-4
0.39033	-4
0.39400	-4
0.39767	-4
0.40133	-4
0.40500	-4
0.40867	-4
0.41233	-4
0.41600	-3
0.41967	-3
0.42333	-3
0.42700	-2
0.43067	-1
0.43433	-1
0.43800	-0
0.44167	0
0.44533	1
0.44900	1
0.45267	1
0.45633	1
0.46000	2
0.46367	2
0.46733	2
0.47100	2
0.47467	2
0.47833	2
0.48200	2
0.48567	2
0.48933	2
0.49300	2
0.49667	2
0.50033	2
0.50400	2
0.50767	2
0.51133	2
0.51500	2
0.51867	2
0.52233	1
0.52600	1
0.52967	1
0.53333	1
0.53700	1
0.54067	1
0.54433	1
0.54800	0
0.55167	-0
0.55533	-0
0.55900	-0
0.56267	-1
0.56633	-1
0.57000	-2
0.57367	-2
0.57733	-2
0.58100	-2
0.58467	-2
0.58833	-2
0.59200	-1
0.59567	-1
0.59933	-1
0.60300	-0
0.60667	0
0.61033	0
0.61400	0
0.61767	0
0.62133	1
0.62500	1
0.62867	1
0.63233	1
0.63600	1
0.63967	1
0.64333	1
0.64700	1
0.65067	1
0.65433	1
0.65800	1
0.66167	1
0.66533	1
0.66900	0
0.67267	-0
0.67633	-0
0.68000	-0
0.68367	-0
0.68733	-0
0.69100	-0
0.69467	0
0.69833	0
0.70200	0
0.70567	1
0.70933	1
0.71300	1
0.71667	1
0.72033	1
0.72400	1
0.72767	1
0.73133	1
0.73500	1
0.73867	1
0.74233	1
0.74600	1
0.74967	1
0.75333	0
0.75700	-1
0.76067	-1
0.76433	-1
0.76800	-2
0.77167	-2
0.77533	-2
0.77900	-2
0.78267	-2
0.78633	-2
0.79000	-2
0.79367	-2
0.79733	-2
0.80100	-2
0.80467	-1
0.80833	-1
0.81200	-0
0.81567	-0
0.81933	0
0.82300	1
0.82667	1
0.83033	1
0.83400	1
0.83767	1
0.84133	1
0.84500	1
0.84867	1
0.85233	1
0.85600	1
0.85967	1
0.86333	1
0.86700	1
0.87067	1
0.87433	1
0.87800	1
0.88167	0
0.88533	0
0.88900	-0
0.89267	-0
0.89633	-0
0.90000	-1
0.90367	-1
0.90733	-2
0.91100	-2
0.91467	-3
0.91833	-3
0.92200	-4
0.92567	-4
0.92933	-4
0.93300	-4
0.93667	-4
0.94033	-4
0.94400	-4
0.94767	-4
0.95133	-3
0.95500	-3
0.95867	-3
0.96233	-2
0.96600	-2
0.96967	-2
0.97333	-2
0.97700	-2
0.98067	-2
0.98433	-2
0.98800	-2
0.99167	-1
0.99533	-1
0.99900	-1
1.00267	-1
1.00633	-1
1.01000	-1
1.01367	-1
1.01733	-1
1.02100	-1
1.02467	-1
1.02833	-1
1.03200	-1
1.03567	-0
1.03933	-0
1.04300	-0
1.04667	-0
1.05033	-0
1.05400	-0
1.05767	-0
1.06133	-0
1.06500	-1
1.06867	-1
1.07233	-1
1.07600	-1
1.07967	-1
1.08333	-1
1.08700	-1
1.09067	-1
1.09433	-1
1.09800	-1
1.10167	-2
1.10533	-2
1.10900	-2
1.11267	-2
1.11633	-2
1.12000	-2
1.12367	-3
1.12733	-3
1.13100	-3
1.13467	-3
1.13833	-3
1.14200	-3
1.14567	-4
1.14933	-4
1.15300	-4
1.15667	-4
1.16033	-5
1.16400	-5
1.16767	-5
1.17133	-6
1.17500	-6
1.17867	-6
1.18233	-6
1.18600	-6
1.18967	-6
1.19333	-6
1.19700	-6
1.20067	-6
1.20433	-6
1.20800	-6
1.21167	-5
1.21533	-5
1.21900	-5
1.22267	-5
1.22633	-5
1.23000	-4
1.23367	-4
1.23733	-4
1.24100	-4
1.24467	-3
1.24833	-3
1.25200	-3
1.25567	-3
1.25933	-3
1.26300	-3
1.26667	-3
1.27033	-3
1.27400	-3
1.27767	-3
1.28133	-3
1.28500	-3
1.28867	-2
1.29233	-2
1.29600	-2
1.29967	-1
1.30333	-1
1.30700	-0
1.31067	0
1.31433	1
1.31800	1
1.32167	2
1.32533	2
1.32900	2
1.33267	2
1.33633	3
1.34000	3
1.34367	3
1.34733	3
1.35100	3
1.35467	2
1.35833	2
1.36200	2
1.36567	2
1.36933	2
1.37300	1
1.37667	1
1.38033	1
1.38400	0
1.38767	-0
1.39133	-0
1.39500	-0
1.39867	-0
1.40233	-0
1.40600	-0
1.40967	-1
1.41333	-0
1.41700	-0
1.42067	-0
1.42433	0
1.42800	0
1.43167	0
1.43533	-0
1.43900	-0
1.44267	-0
1.44633	-1
1.45000	-1
1.45367	-1
1.45733	-2
1.46100	-2
1.46467	-2
1.46833	-2
1.47200	-2
1.47567	-3
1.47933	-3
1.48300	-3
1.48667	-3
1.49033	-2
1.49400	-2
1.49767	-2
1.50133	-2
1.50500	-2
1.50867	-2
1.51233	-2
1.51600	-2
1.51967	-3
1.52333	-3
1.52700	-3
1.53067	-3
1.53433	-4
1.53800	-4
1.54167	-4
1.54533	-4
1.54900	-4
1.55267	-4
1.55633	-4
1.56000	-4
1.56367	-4
1.56733	-4
1.57100	-4
1.57467	-4
1.57833	-4
1.58200	-4
1.58567	-4
1.58933	-4
1.59300	-4
1.59667	-4
1.60033	-5
1.60400	-6
1.60767	-7
1.61133	-9
1.61500	-11
1.61867	-13
1.62233	-15
1.62600	-18
1.62967	-21
1.63333	-24
1.63700	-28
1.64067	-31
1.64433	-35
1.64800	-38
1.65167	-42
1.65533	-46
1.65900	-49
1.66267	-53
1.66633	-57
1.67000	-62
1.67367	-66
1.67733	-71
1.68100	-76
1.68467	-81
1.68833	-86
1.69200	-90
1.69567	-94
1.69933	-97
1.70300	-100
1.70667	-103
1.71033	-105
1.71400	-107
1.71767	-109
1.72133	-110
1.72500	-111
1.72867	-111
1.73233	-112
1.73600	-113
1.73967	-114
1.74333	-115
1.74700	-116
1.75067	-117
1.75433	-117
1.75800	-118
1.76167	-118
1.76533	-118
1.76900	-118
1.77267	-118
1.77633	-118
1.78000	-117
1.78367	-117
1.78733	-117
1.79100	-117
1.79467	-118
1.79833	-118
1.80200	-119
1.80567	-119
1.80933	-120
1.81300	-120
1.81667	-121
1.82033	-122
1.82400	-123
1.82767	-123
1.83133	-123
1.83500	-123
1.83867	-123
1.84233	-123
1.84600	-123
1.84967	-122
1.85333	-122
1.85700	-122
1.86067	-123
1.86433	-123
1.86800	-123
1.87167	-124
1.87533	-124
1.87900	-124
1.88267	-123
1.88633	-122
1.89000	-121
1.89367	-120
1.89733	-120
1.90100	-119
1.90467	-119
1.90833	-119
1.91200	-119
1.91567	-119
1.91933	-119
1.92300	-119
1.92667	-119
1.93033	-119
1.93400	-118
1.93767	-117
1.94133	-117
1.94500	-117
1.94867	-117
1.95233	-117
1.95600	-117
1.95967	-117
1.96333	-117
1.96700	-117
1.97067	-117
1.97433	-117
1.97800	-116
1.98167	-116
1.98533	-116
1.98900	-116
1.99267	-115
1.99633	-115
2.00000	-115
2.00367	-114
2.00733	-114
2.01100	-113
2.01467	-112
2.01833	-111
2.02200	-111
2.02567	-110
2.02933	-110
2.03300	-110
2.03667	-111
2.04033	-111
2.04400	-111
2.04767	-111
2.05133	-111
2.05500	-110
2.05867	-109
2.06233	-109
2.06600	-108
2.06967	-107
2.07333	-107
2.07700	-107
2.08067	-107
2.08433	-107
2.08800	-107
2.09167	-107
2.09533	-107
2.09900	-107
2.10267	-107
2.10633	-107
2.11000	-107
2.11367	-107
2.11733	-106
2.12100	-106
2.12467	-105
2.12833	-105
2.13200	-104
2.13567	-104
2.13933	-104
2.14300	-104
2.14667	-104
2.15033	-104
2.15400	-103
2.15767	-103
2.16133	-102
2.16500	-101
2.16867	-101
2.17233	-100
2.17600	-99
2.17967	-98
2.18333	-98
2.18700	-98
2.19067	-98
2.19433	-97
2.19800	-97
2.20167	-96
2.20533	-96
2.20900	-96
2.21267	-96
2.21633	-95
2.22000	-95
2.22367	-95
2.22733	-95
2.23100	-94
2.23467	-94
2.23833	-94
2.24200	-94
2.24567	-93
2.24933	-93
2.25300	-94
2.25667	-94
2.26033	-94
2.26400	-94
2.26767	-93
2.27133	-93
2.27500	-93
2.27867	-92
2.28233	-91
2.28600	-90
2.28967	-89
2.29333	-88
2.29700	-87
2.30067	-87
2.30433	-87
2.30800	-87
2.31167	-87
2.31533	-88
2.31900	-89
2.32267	-90
2.32633	-90
2.33000	-91
2.33367	-91
2.33733	-91
2.34100	-91
2.34467	-90
2.34833	-89
2.35200	-89
2.35567	-88
2.35933	-87
2.36300	-87
2.36667	-85
2.37033	-84
2.37400	-82
2.37767	-80
2.38133	-77
2.38500	-74
2.38867	-70
2.39233	-66
2.39600	-62
2.39967	-57
2.40333	-52
2.40700	-47
2.41067	-42
2.41433	-38
2.41800	-34
2.42167	-30
2.42533	-27
2.42900	-23
2.43267	-20
2.43633	-18
2.44000	-16
2.44367	-15
2.44733	-13
2.45100	-12
2.45467	-10
2.45833	-8
2.46200	-6
2.46567	-4
2.46933	-3
2.47300	-2
2.47667	-2
2.48033	-1
2.48400	-0
2.48767	0
2.49133	1
2.49500	2
2.49867	4
2.50233	5
2.50600	6
2.50967	7
2.51333	7
2.51700	8
2.52067	8
2.52433	9
2.52800	9
2.53167	9
2.53533	10
2.53900	11
2.54267	11
2.54633	12
2.55000	13
2.55367	13
2.55733	13
2.56100	13
2.56467	13
2.56833	13
2.57200	13
2.57567	12
2.57933	12
2.58300	12
2.58667	12
2.59033	13
2.59400	13
2.59767	13
2.60133	14
2.60500	14
2.60867	15
2.61233	15
2.61600	15
2.61967	16
2.62333	16
2.62700	17
2.63067	17
2.63433	18
2.63800	18
2.64167	18
2.64533	18
2.64900	18
2.65267	18
2.65633	18
2.66000	18
2.66367	18
2.66733	18
2.67100	18
2.67467	17
2.67833	17
2.68200	17
2.68567	17
2.68933	17
2.69300	17
2.69667	17
2.70033	18
2.70400	18
2.70767	19
2.71133	19
2.71500	20
2.71867	20
2.72233	21
2.72600	21
2.72967	21
2.73333	22
2.73700	22
2.74067	23
2.74433	24
2.74800	24
2.75167	25
2.75533	25
2.75900	25
2.76267	25
2.76633	25
2.77000	24
2.77367	24
2.77733	24
2.78100	24
2.78467	24
2.78833	24
2.79200	24
2.79567	24
2.79933	23
2.80300	23
2.80667	23
2.81033	23
2.81400	23
2.81767	23
2.82133	22
2.82500	22
2.82867	22
2.83233	22
2.83600	22
2.83967	22
2.84333	22
2.84700	21
2.85067	20
2.85433	17
2.85800	13
2.86167	7
2.86533	-3
2.86900	-16
2.87267	-33
2.87633	-54
2.88000	-79
2.88367	-108
2.88733	-141
2.89100	-177
2.89467	-217
2.89833	-259
2.90200	-305
2.90567	-352
2.90933	-400
2.91300	-450
2.91667	-500
2.92033	-551
2.92400	-601
2.92767	-651
2.93133	-700
2.93500	-749
2.93867	-797
2.94233	-848
2.94600	-904
2.94967	-965
2.95333	-1025
2.95700	-1071
2.96067	-1094
2.96433	-1091
2.96800	-1062
2.97167	-1012
2.97533	-947
2.97900	-873
2.98267	-793
2.98633	-713
2.99000	-634
2.99367	-560
2.99733	-491
3.00100	-428
3.00467	-371
3.00833	-320
3.01200	-274
3.01567	-235
3.01933	-200
3.02300	-170
3.02667	-144
3.03033	-121
3.03400	-102
3.03767	-85
3.04133	-71
3.04500	-59
3.04867	-48
3.05233	-39
3.05600	-32
3.05967	-25
3.06333	-20
3.06700	-15
3.07067	-11
3.07433	-7
3.07800	-4
3.08167	-2
3.08533	1
3.08900	3
3.09267	4
3.09633	6
3.10000	7
3.10367	8
3.10733	9
3.11100	10
3.11467	11
3.11833	12
3.12200	13
3.12567	14
3.12933	15
3.13300	16
3.13667	16
3.14033	17
3.14400	17
3.14767	18
3.15133	18
3.15500	18
3.15867	19
3.16233	19
3.16600	20
3.16967	20
3.17333	20
3.17700	21
3.18067	21
3.18433	21
3.18800	21
3.19167	22
3.19533	22
3.19900	22
3.20267	22
3.20633	23
3.21000	23
3.21367	23
3.21733	24
3.22100	24
3.22467	25
3.22833	25
3.23200	25
3.23567	25
3.23933	25
3.24300	25
3.24667	25
3.25033	25
3.25400	25
3.25767	25
3.26133	25
3.26500	25
3.26867	25
3.27233	26
3.27600	26
3.27967	26
3.28333	26
3.28700	26
3.29067	27
3.29433	27
3.29800	27
3.30167	27
3.30533	27
3.30900	27
3.31267	27
3.31633	27
3.32000	27
3.32367	27
3.32733	27
3.33100	27
3.33467	27
3.33833	26
3.34200	26
3.34567	26
3.34933	26
3.35300	26
3.35667	26
3.36033	25
3.36400	25
3.36767	25
3.37133	25
3.37500	25
3.37867	25
3.38233	25
3.38600	25
3.38967	25
3.39333	25
3.39700	25
3.40067	25
3.40433	25
3.40800	25
3.41167	25
3.41533	25
3.41900	25
3.42267	25
3.42633	26
3.43000	26
3.43367	26
3.43733	26
3.44100	26
3.44467	26
3.44833	26
3.45200	26
3.45567	26
3.45933	26
3.46300	25
3.46667	25
3.47033	25
3.47400	25
3.47767	25
3.48133	25
3.48500	25
3.48867	26
3.49233	26
3.49600	25
3.49967	25
3.50333	25
3.50700	25
3.51067	25
3.51433	25
3.51800	25
3.52167	25
3.52533	25
3.52900	26
3.53267	26
3.53633	26
3.54000	26
3.54367	27
3.54733	27
3.55100	27
3.55467	26
3.55833	26
3.56200	26
3.56567	25
3.56933	25
3.57300	25
3.57667	25
3.58033	25
3.58400	25
3.58767	25
3.59133	25
3.59500	25
3.59867	25
3.60233	25
3.60600	26
3.60967	26
3.61333	26
3.61700	26
3.62067	26
3.62433	26
3.62800	26
3.63167	26
3.63533	26
3.63900	26
3.64267	26
3.64633	26
3.65000	26
3.65367	26
3.65733	26
3.66100	26
3.66467	26
3.66833	26
3.67200	26
3.67567	26
3.67933	26
3.68300	27
3.68667	27
3.69033	28
3.69400	28
3.69767	28
3.70133	29
3.70500	29
3.70867	29
3.71233	29
3.71600	30
3.71967	30
3.72333	30
3.72700	30
3.73067	30
3.73433	30
3.73800	30
3.74167	30
3.74533	30
3.74900	30
3.75267	30
3.75633	30
3.76000	30
3.76367	31
3.76733	30
3.77100	30
3.77467	30
3.77833	30
3.78200	30
3.78567	30
3.78933	30
3.79300	30
3.79667	30
3.80033	30
3.80400	30
3.80767	29
3.81133	29
3.81500	29
3.81867	29
3.82233	29
3.82600	29
3.82967	28
3.83333	28
3.83700	28
3.84067	28
3.84433	29
3.84800	29
3.85167	29
3.85533	29
3.85900	29
3.86267	29
3.86633	28
3.87000	28
3.87367	28
3.87733	28
3.88100	28
3.88467	28
3.88833	27
3.89200	27
3.89567	27
3.89933	27
3.90300	27
3.90667	27
3.91033	27
3.91400	27
3.91767	27
3.92133	27
3.92500	26
3.92867	26
3.93233	26
3.93600	25
3.93967	25
3.94333	25
3.94700	25
3.95067	25
3.95433	26
3.95800	26
3.96167	26
3.96533	26
3.96900	27
3.97267	27
3.97633	27
3.98000	27
3.98367	27
3.98733	27
3.99100	27
3.99467	27
3.99833	27

[Chromatogram (Ch3)]
Interval(msec)	220
# of Points	1091
Start Time(min)	0.002
End Time(min)	3.998
R.Time (min)	Intensity
0.00167	-1
0.00533	-2
0.00900	0
0.01267	2
0.01633	2
0.02000	2
0.02367	4
0.02733	3
0.03100	4
0.03467	5
0.03833	5
0.04200	4
0.04567	5
0.04933	5
0.05300	5
0.05667	4
0.06033	3
0.06400	3
0.06767	3
0.07133	3
0.07500	3
0.07867	4
0.08233	5
0.08600	5
0.08967	7
0.09333	10
0.09700	9
0.10067	7
0.10433	6
0.10800	5
0.11167	4
0.11533	5
0.11900	4
0.12267	2
0.12633	2
0.13000	1
0.13367	0
0.13733	-0
0.14100	1
0.14467	1
0.14833	3
0.15200	4
0.15567	4
0.15933	5
0.16300	5
0.16667	4
0.17033	4
0.17400	3
0.17767	2
0.18133	2
0.18500	2
0.18867	2
0.19233	3
0.19600	4
0.19967	4
0.20333	3
0.20700	3
0.21067	5
0.21433	7
0.21800	10
0.22167	11
0.22533	9
0.22900	8
0.23267	7
0.23633	4
0.24000	3
0.24367	4
0.24733	5
0.25100	5
0.25467	6
0.25833	9
0.26200	10
0.26567	11
0.26933	12
0.27300	15
0.27667	16
0.28033	15
0.28400	13
0.28767	14
0.29133	14
0.29500	12
0.29867	11
0.30233	11
0.30600	12
0.30967	13
0.31333	13
0.31700	13
0.32067	13
0.32433	12
0.32800	13
0.33167	15
0.33533	15
0.33900	16
0.34267	20
0.34633	22
0.35000	22
0.35367	21
0.35733	19
0.36100	18
0.36467	19
0.36833	17
0.37200	17
0.37567	18
0.37933	16
0.38300	14
0.38667	13
0.39033	14
0.39400	16
0.39767	17
0.40133	19
0.40500	20
0.40867	21
0.41233	22
0.41600	23
0.41967	24
0.42333	25
0.42700	24
0.43067	22
0.43433	22
0.43800	25
0.44167	28
0.44533	28
0.44900	27
0.45267	28
0.45633	29
0.46000	29
0.46367	29
0.46733	30
0.47100	28
0.47467	24
0.47833	23
0.48200	22
0.48567	22
0.48933	22
0.49300	23
0.49667	27
0.50033	28
0.50400	28
0.50767	28
0.51133	29
0.51500	29
0.51867	29
0.52233	29
0.52600	30
0.52967	28
0.53333	27
0.53700	28
0.54067	29
0.54433	27
0.54800	25
0.55167	25
0.55533	25
0.55900	27
0.56267	29
0.56633	29
0.57000	30
0.57367	31
0.57733	29
0.58100	27
0.58467	29
0.58833	31
0.59200	31
0.59567	31
0.59933	32
0.60300	32
0.60667	31
0.61033	31
0.61400	31
0.61767	31
0.62133	29
0.62500	26
0.62867	25
0.63233	25
0.63600	26
0.63967	26
0.64333	27
0.64700	27
0.65067	29
0.65433	30
0.65800	30
0.66167	29
0.66533	27
0.66900	24
0.67267	23
0.67633	25
0.68000	26
0.68367	26
0.68733	27
0.69100	28
0.69467	26
0.69833	25
0.70200	26
0.70567	26
0.70933	27
0.71300	29
0.71667	32
0.72033	34
0.72400	36
0.72767	37
0.73133	36
0.73500	36
0.73867	36
0.74233	36
0.74600	36
0.74967	36
0.75333	34
0.75700	34
0.76067	34
0.76433	34
0.76800	33
0.77167	33
0.77533	33
0.77900	34
0.78267	33
0.78633	32
0.79000	31
0.79367	31
0.79733	33
0.80100	33
0.80467	34
0.80833	36
0.81200	36
0.81567	35
0.81933	35
0.82300	34
0.82667	34
0.83033	35
0.83400	37
0.83767	39
0.84133	40
0.84500	41
0.84867	42
0.85233	40
0.85600	39
0.85967	38
0.86333	36
0.86700	36
0.87067	35
0.87433	35
0.87800	35
0.88167	38
0.88533	42
0.88900	46
0.89267	46
0.89633	46
0.90000	46
0.90367	44
0.90733	41
0.91100	42
0.91467	42
0.91833	41
0.92200	41
0.92567	41
0.92933	42
0.93300	42
0.93667	43
0.94033	44
0.94400	45
0.94767	46
0.95133	45
0.95500	47
0.95867	48
0.96233	48
0.96600	47
0.96967	46
0.97333	45
0.97700	44
0.98067	45
0.98433	46
0.98800	44
0.99167	44
0.99533	42
0.99900	41
1.00267	39
1.00633	38
1.01000	40
1.01367	41
1.01733	42
1.02100	41
1.02467	42
1.02833	41
1.03200	41
1.03567	42
1.03933	43
1.04300	44
1.04667	44
1.05033	44
1.05400	43
1.05767	44
1.06133	44
1.06500	42
1.06867	40
1.07233	38
1.07600	37
1.07967	36
1.08333	36
1.08700	37
1.09067	39
1.09433	40
1.09800	41
1.10167	42
1.10533	42
1.10900	41
1.11267	42
1.11633	42
1.12000	43
1.12367	45
1.12733	44
1.13100	41
1.13467	41
1.13833	42
1.14200	41
1.14567	43
1.14933	43
1.15300	42
1.15667	42
1.16033	43
1.16400	45
1.16767	47
1.17133	48
1.17500	49
1.17867	50
1.18233	51
1.18600	49
1.18967	46
1.19333	45
1.19700	42
1.20067	40
1.20433	40
1.20800	43
1.21167	45
1.21533	47
1.21900	48
1.22267	47
1.22633	47
1.23000	47
1.23367	46
1.23733	45
1.24100	44
1.24467	45
1.24833	47
1.25200	47
1.25567	46
1.25933	46
1.26300	47
1.26667	48
1.27033	48
1.27400	49
1.27767	48
1.28133	47
1.28500	46
1.28867	45
1.29233	42
1.29600	43
1.29967	43
1.30333	45
1.30700	46
1.31067	45
1.31433	46
1.31800	46
1.32167	45
1.32533	46
1.32900	48
1.33267	50
1.33633	49
1.34000	49
1.34367	49
1.34733	49
1.35100	48
1.35467	45
1.35833	43
1.36200	44
1.36567	46
1.36933	46
1.37300	45
1.37667	43
1.38033	41
1.38400	44
1.38767	47
1.39133	50
1.39500	51
1.39867	51
1.40233	51
1.40600	51
1.40967	51
1.41333	52
1.41700	54
1.42067	54
1.42433	54
1.42800	51
1.43167	47
1.43533	45
1.43900	45
1.44267	47
1.44633	50
1.45000	49
1.45367	46
1.45733	45
1.46100	45
1.46467	47
1.46833	46
1.47200	46
1.47567	46
1.47933	49
1.48300	55
1.48667	57
1.49033	55
1.49400	53
1.49767	51
1.50133	50
1.50500	49
1.50867	49
1.51233	47
1.51600	49
1.51967	51
1.52333	51
1.52700	49
1.53067	47
1.53433	45
1.53800	46
1.54167	48
1.54533	50
1.54900	49
1.55267	47
1.55633	47
1.56000	47
1.56367	47
1.56733	46
1.57100	45
1.57467	45
1.57833	44
1.58200	45
1.58567	46
1.58933	47
1.59300	44
1.59667	44
1.60033	46
1.60400	46
1.60767	46
1.61133	46
1.61500	45
1.61867	45
1.62233	48
1.62600	51
1.62967	54
1.63333	55
1.63700	55
1.64067	55
1.64433	56
1.64800	58
1.65167	57
1.65533	56
1.65900	56
1.66267	57
1.66633	56
1.67000	55
1.67367	57
1.67733	59
1.68100	61
1.68467	62
1.68833	63
1.69200	63
1.69567	64
1.69933	66
1.70300	66
1.70667	65
1.71033	65
1.71400	64
1.71767	61
1.72133	61
1.72500	63
1.72867	67
1.73233	70
1.73600	72
1.73967	75
1.74333	76
1.74700	75
1.75067	77
1.75433	78
1.75800	80
1.76167	82
1.76533	81
1.76900	80
1.77267	80
1.77633	81
1.78000	82
1.78367	82
1.78733	81
1.79100	80
1.79467	81
1.79833	81
1.80200	81
1.80567	82
1.80933	83
1.81300	83
1.81667	82
1.82033	82
1.82400	85
1.82767	88
1.83133	90
1.83500	89
1.83867	88
1.84233	88
1.84600	85
1.84967	84
1.85333	85
1.85700	88
1.86067	89
1.86433	88
1.86800	85
1.87167	85
1.87533	86
1.87900	89
1.88267	92
1.88633	93
1.89000	92
1.89367	93
1.89733	93
1.90100	93
1.90467	92
1.90833	91
1.91200	89
1.91567	89
1.91933	90
1.92300	91
1.92667	91
1.93033	92
1.93400	93
1.93767	91
1.94133	90
1.94500	91
1.94867	91
1.95233	94
1.95600	95
1.95967	97
1.96333	97
1.96700	99
1.97067	101
1.97433	102
1.97800	103
1.98167	103
1.98533	104
1.98900	105
1.99267	107
1.99633	110
2.00000	111
2.00367	109
2.00733	107
2.01100	109
2.01467	112
2.01833	114
2.02200	115
2.02567	115
2.02933	117
2.03300	119
2.03667	119
2.04033	120
2.04400	121
2.04767	121
2.05133	121
2.05500	122
2.05867	125
2.06233	128
2.06600	131
2.06967	132
2.07333	134
2.07700	136
2.08067	137
2.08433	138
2.08800	138
2.09167	135
2.09533	133
2.09900	135
2.10267	136
2.10633	139
2.11000	144
2.11367	147
2.11733	149
2.12100	150
2.12467	150
2.12833	149
2.13200	148
2.13567	149
2.13933	151
2.14300	151
2.14667	150
2.15033	151
2.15400	153
2.15767	152
2.16133	151
2.16500	153
2.16867	156
2.17233	160
2.17600	163
2.17967	163
2.18333	166
2.18700	167
2.19067	171
2.19433	173
2.19800	173
2.20167	170
2.20533	167
2.20900	167
2.21267	167
2.21633	167
2.22000	169
2.22367	171
2.22733	174
2.23100	177
2.23467	176
2.23833	176
2.24200	177
2.24567	179
2.24933	180
2.25300	182
2.25667	184
2.26033	185
2.26400	185
2.26767	186
2.27133	188
2.27500	189
2.27867	188
2.28233	188
2.28600	190
2.28967	190
2.29333	189
2.29700	188
2.30067	189
2.30433	190
2.30800	193
2.31167	196
2.31533	199
2.31900	200
2.32267	202
2.32633	203
2.33000	205
2.33367	208
2.33733	208
2.34100	208
2.34467	208
2.34833	206
2.35200	205
2.35567	206
2.35933	208
2.36300	212
2.36667	217
2.37033	219
2.37400	219
2.37767	217
2.38133	218
2.38500	219
2.38867	222
2.39233	224
2.39600	223
2.39967	220
2.40333	218
2.40700	216
2.41067	213
2.41433	212
2.41800	214
2.42167	217
2.42533	220
2.42900	223
2.43267	224
2.43633	227
2.44000	233
2.44367	238
2.44733	246
2.45100	252
2.45467	262
2.45833	276
2.46200	296
2.46567	324
2.46933	361
2.47300	402
2.47667	442
2.48033	479
2.48400	514
2.48767	547
2.49133	578
2.49500	605
2.49867	632
2.50233	659
2.50600	683
2.50967	705
2.51333	724
2.51700	741
2.52067	755
2.52433	767
2.52800	778
2.53167	788
2.53533	798
2.53900	806
2.54267	815
2.54633	821
2.55000	826
2.55367	835
2.55733	843
2.56100	847
2.56467	849
2.56833	854
2.57200	857
2.57567	861
2.57933	863
2.58300	864
2.58667	865
2.59033	866
2.59400	868
2.59767	867
2.60133	860
2.60500	849
2.60867	832
2.61233	806
2.61600	774
2.61967	735
2.62333	693
2.62700	649
2.63067	607
2.63433	569
2.63800	535
2.64167	508
2.64533	488
2.64900	476
2.65267	469
2.65633	464
2.66000	463
2.66367	465
2.66733	470
2.67100	478
2.67467	487
2.67833	498
2.68200	509
2.68567	519
2.68933	528
2.69300	536
2.69667	542
2.70033	550
2.70400	559
2.70767	569
2.71133	577
2.71500	583
2.71867	590
2.72233	597
2.72600	603
2.72967	607
2.73333	609
2.73700	611
2.74067	613
2.74433	613
2.74800	616
2.75167	617
2.75533	618
2.75900	620
2.76267	621
2.76633	620
2.77000	620
2.77367	619
2.77733	621
2.78100	622
2.78467	623
2.78833	625
2.79200	627
2.79567	629
2.79933	631
2.80300	634
2.80667	636
2.81033	637
2.81400	640
2.81767	640
2.82133	638
2.82500	636
2.82867	639
2.83233	648
2.83600	675
2.83967	736
2.84333	851
2.84700	1039
2.85067	1321
2.85433	1707
2.85800	2189
2.86167	2749
2.86533	3350
2.86900	3947
2.87267	4494
2.87633	4943
2.88000	5261
2.88367	5430
2.88733	5457
2.89100	5359
2.89467	5158
2.89833	4882
2.90200	4555
2.90567	4203
2.90933	3843
2.91300	3495
2.91667	3165
2.92033	2862
2.92400	2582
2.92767	2329
2.93133	2104
2.93500	1906
2.93867	1731
2.94233	1579
2.94600	1446
2.94967	1330
2.95333	1230
2.95700	1141
2.96067	1063
2.96433	994
2.96800	934
2.97167	882
2.97533	840
2.97900	802
2.98267	769
2.98633	741
2.99000	716
2.99367	696
2.99733	680
3.00100	664
3.00467	651
3.00833	639
3.01200	628
3.01567	614
3.01933	601
3.02300	591
3.02667	581
3.03033	573
3.03400	566
3.03767	562
3.04133	558
3.04500	556
3.04867	552
3.05233	548
3.05600	545
3.05967	544
3.06333	543
3.06700	540
3.07067	536
3.07433	533
3.07800	529
3.08167	526
3.08533	523
3.08900	519
3.09267	518
3.09633	517
3.10000	513
3.10367	507
3.10733	502
3.11100	499
3.11467	493
3.11833	489
3.12200	488
3.12567	486
3.12933	484
3.13300	482
3.13667	481
3.14033	480
3.14400	476
3.14767	474
3.15133	470
3.15500	469
3.15867	467
3.16233	465
3.16600	465
3.16967	466
3.17333	465
3.17700	463
3.18067	459
3.18433	454
3.18800	451
3.19167	449
3.19533	447
3.19900	445
3.20267	443
3.20633	443
3.21000	445
3.21367	446
3.21733	445
3.22100	444
3.22467	440
3.22833	437
3.23200	433
3.23567	431
3.23933	431
3.24300	429
3.24667	427
3.25033	426
3.25400	424
3.25767	422
3.26133	422
3.26500	420
3.26867	416
3.27233	413
3.27600	412
3.27967	411
3.28333	409
3.28700	405
3.29067	401
3.29433	399
3.29800	396
3.30167	393
3.30533	390
3.30900	385
3.31267	382
3.31633	380
3.32000	376
3.32367	372
3.32733	370
3.33100	370
3.33467	371
3.33833	370
3.34200	367
3.34567	363
3.34933	358
3.35300	356
3.35667	355
3.36033	355
3.36400	354
3.36767	352
3.37133	347
3.37500	342
3.37867	338
3.38233	336
3.38600	332
3.38967	331
3.39333	330
3.39700	330
3.40067	329
3.40433	325
3.40800	320
3.41167	315
3.41533	313
3.41900	315
3.42267	315
3.42633	313
3.43000	310
3.43367	307
3.43733	304
3.44100	300
3.44467	295
3.44833	292
3.45200	291
3.45567	292
3.45933	295
3.46300	298
3.46667	298
3.47033	298
3.47400	295
3.47767	290
3.48133	286
3.48500	283
3.48867	278
3.49233	276
3.49600	275
3.49967	276
3.50333	276
3.50700	277
3.51067	275
3.51433	274
3.51800	272
3.52167	272
3.52533	271
3.52900	268
3.53267	267
3.53633	267
3.54000	266
3.54367	263
3.54733	259
3.55100	257
3.55467	254
3.55833	252
3.56200	250
3.56567	248
3.56933	250
3.57300	252
3.57667	253
3.58033	252
3.58400	250
3.58767	248
3.59133	247
3.59500	246
3.59867	246
3.60233	246
3.60600	245
3.60967	245
3.61333	244
3.61700	244
3.62067	243
3.62433	241
3.62800	239
3.63167	237
3.63533	234
3.63900	232
3.64267	233
3.64633	234
3.65000	233
3.65367	230
3.65733	228
3.66100	228
3.66467	230
3.66833	229
3.67200	228
3.67567	228
3.67933	229
3.68300	228
3.68667	226
3.69033	226
3.69400	226
3.69767	226
3.70133	225
3.70500	221
3.70867	218
3.71233	217
3.71600	219
3.71967	220
3.72333	217
3.72700	214
3.73067	214
3.73433	213
3.73800	214
3.74167	215
3.74533	217
3.74900	217
3.75267	217
3.75633	218
3.76000	218
3.76367	218
3.76733	217
3.77100	214
3.77467	212
3.77833	211
3.78200	210
3.78567	208
3.78933	206
3.79300	205
3.79667	206
3.80033	207
3.80400	205
3.80767	206
3.81133	206
3.81500	204
3.81867	201
3.82233	201
3.82600	200
3.82967	199
3.83333	196
3.83700	196
3.84067	198
3.84433	199
3.84800	199
3.85167	197
3.85533	197
3.85900	199
3.86267	198
3.86633	197
3.87000	196
3.87367	197
3.87733	199
3.88100	198
3.88467	198
3.88833	197
3.89200	194
3.89567	193
3.89933	192
3.90300	191
3.90667	190
3.91033	190
3.91400	188
3.91767	188
3.92133	188
3.92500	186
3.92867	185
3.93233	185
3.93600	185
3.93967	186
3.94333	188
3.94700	189
3.95067	189
3.95433	186
3.95800	183
3.96167	181
3.96533	179
3.96900	179
3.97267	178
3.97633	179
3.98000	181
3.98367	181
3.98733	178
3.99100	176
3.99467	175
3.99833	176

[Status Trace (Column Oven Temperature)]
Interval(msec)	1000
# of Points	240
Start Time(min)	0.014
End Time(min)	3.998
Intensity Units	
Intensity Multiplier	1
R.Time (min)	Intensity
0.01442	34.95
0.03108	34.96
0.04775	34.97
0.06442	34.96
0.08108	34.97
0.09775	34.97
0.11442	34.98
0.13108	34.97
0.14775	34.97
0.16442	34.96
0.18108	34.96
0.19775	34.97
0.21442	34.97
0.23108	34.97
0.24775	34.97
0.26442	34.97
0.28108	34.97
0.29775	34.97
0.31442	34.97
0.33108	34.98
0.34775	35.00
0.36442	35.02
0.38108	35.03
0.39775	35.04
0.41442	35.03
0.43108	35.02
0.44775	35.01
0.46442	35.01
0.48108	35.00
0.49775	34.99
0.51442	34.98
0.53108	34.99
0.54775	34.99
0.56442	35.00
0.58108	35.00
0.59775	34.99
0.61442	34.99
0.63108	34.99
0.64775	34.99
0.66442	34.99
0.68108	34.99
0.69775	34.99
0.71442	34.99
0.73108	34.98
0.74775	34.99
0.76442	34.99
0.78108	34.99
0.79775	34.98
0.81442	34.97
0.83108	34.96
0.84775	34.96
0.86442	34.95
0.88108	34.95
0.89775	34.96
0.91442	34.96
0.93108	34.98
0.94775	34.98
0.96442	34.98
0.98108	34.98
0.99775	34.98
1.01442	34.98
1.03108	34.98
1.04775	34.98
1.06442	34.98
1.08108	34.97
1.09775	34.98
1.11442	34.99
1.13108	35.00
1.14775	35.02
1.16442	35.03
1.18108	35.05
1.19775	35.06
1.21442	35.06
1.23108	35.05
1.24775	35.06
1.26442	35.06
1.28108	35.06
1.29775	35.05
1.31442	35.03
1.33108	35.01
1.34775	34.99
1.36442	34.99
1.38108	34.98
1.39775	34.98
1.41442	34.97
1.43108	34.97
1.44775	34.98
1.46442	34.98
1.48108	34.98
1.49775	34.97
1.51442	34.97
1.53108	34.99
1.54775	34.99
1.56442	35.00
1.58108	35.01
1.59775	35.04
1.61442	35.12
1.63108	35.27
1.64775	35.47
1.66442	35.74
1.68108	36.11
1.69775	36.47
1.71442	36.82
1.73108	37.15
1.74775	37.51
1.76442	37.83
1.78108	38.13
1.79775	38.46
1.81442	38.82
1.83108	39.16
1.84775	39.49
1.86442	39.83
1.88108	40.15
1.89775	40.46
1.91442	40.80
1.93108	41.11
1.94775	41.44
1.96442	41.76
1.98108	42.09
1.99775	42.43
2.01442	42.73
2.03108	43.08
2.04775	43.41
2.06442	43.73
2.08108	44.06
2.09775	44.40
2.11442	44.73
2.13108	45.04
2.14775	45.39
2.16442	45.71
2.18108	46.03
2.19775	46.35
2.21442	46.68
2.23108	47.00
2.24775	47.33
2.26442	47.66
2.28108	47.97
2.29775	48.29
2.31442	48.64
2.33108	48.98
2.34775	49.28
2.36442	49.56
2.38108	49.70
2.39775	49.71
2.41442	49.71
2.43108	49.71
2.44775	49.72
2.46442	49.72
2.48108	49.76
2.49775	49.76
2.51442	49.78
2.53108	49.79
2.54775	49.80
2.56442	49.84
2.58108	49.85
2.59775	49.84
2.61442	49.85
2.63108	49.85
2.64775	49.84
2.66442	49.86
2.68108	49.88
2.69775	49.90
2.71442	49.90
2.73108	49.89
2.74775	49.87
2.76442	49.87
2.78108	49.88
2.79775	49.89
2.81442	49.91
2.83108	49.94
2.84775	49.96
2.86442	49.99
2.88108	50.01
2.89775	50.02
2.91442	50.03
2.93108	50.04
2.94775	50.05
2.96442	50.05
2.98108	50.05
2.99775	50.06
3.01442	50.06
3.03108	50.07
3.04775	50.09
3.06442	50.10
3.08108	50.10
3.09775	50.11
3.11442	50.11
3.13108	50.10
3.14775	50.09
3.16442	50.08
3.18108	50.07
3.19775	50.06
3.21442	50.04
3.23108	50.04
3.24775	50.04
3.26442	50.03
3.28108	50.03
3.29775	50.02
3.31442	50.02
3.33108	50.01
3.34775	50.01
3.36442	50.01
3.38108	50.02
3.39775	50.01
3.41442	50.02
3.43108	50.02
3.44775	50.03
3.46442	50.04
3.48108	50.03
3.49775	50.05
3.51442	50.06
3.53108	50.06
3.54775	50.06
3.56442	50.07
3.58108	50.08
3.59775	50.09
3.61442	50.09
3.63108	50.10
3.64775	50.10
3.66442	50.11
3.68108	50.11
3.69775	50.09
3.71442	50.07
3.73108	50.05
3.74775	50.03
3.76442	50.02
3.78108	50.01
3.79775	50.00
3.81442	49.99
3.83108	49.99
3.84775	49.99
3.86442	50.00
3.88108	50.00
3.89775	50.00
3.91442	50.02
3.93108	50.03
3.94775	50.03
3.96442	50.02
3.98108	50.02
3.99775	50.01

[Status Trace (Injection Unit Temperature)]
Interval(msec)	1000
# of Points	240
Start Time(min)	0.014
End Time(min)	3.998
Intensity Units	
Intensity Multiplier	1
R.Time (min)	Intensity
0.01442	99.99
0.03108	99.99
0.04775	99.98
0.06442	99.99
0.08108	99.99
0.09775	99.98
0.11442	99.99
0.13108	99.99
0.14775	99.99
0.16442	99.99
0.18108	99.99
0.19775	99.99
0.21442	99.99
0.23108	99.99
0.24775	99.99
0.26442	99.99
0.28108	99.99
0.29775	99.99
0.31442	99.99
0.33108	99.99
0.34775	99.99
0.36442	99.99
0.38108	99.99
0.39775	99.99
0.41442	99.99
0.43108	99.99
0.44775	99.99
0.46442	99.99
0.48108	99.99
0.49775	99.99
0.51442	99.99
0.53108	99.98
0.54775	99.98
0.56442	99.98
0.58108	99.99
0.59775	99.99
0.61442	99.99
0.63108	99.99
0.64775	99.99
0.66442	99.99
0.68108	99.98
0.69775	99.98
0.71442	99.98
0.73108	99.98
0.74775	99.99
0.76442	99.98
0.78108	99.98
0.79775	99.98
0.81442	99.98
0.83108	99.98
0.84775	99.99
0.86442	99.98
0.88108	99.98
0.89775	99.99
0.91442	99.98
0.93108	99.99
0.94775	99.98
0.96442	99.99
0.98108	99.99
0.99775	99.98
1.01442	99.98
1.03108	99.99
1.04775	99.99
1.06442	99.99
1.08108	99.99
1.09775	99.99
1.11442	99.98
1.13108	99.99
1.14775	99.99
1.16442	99.98
1.18108	99.98
1.19775	99.98
1.21442	99.98
1.23108	99.99
1.24775	99.98
1.26442	99.99
1.28108	99.99
1.29775	99.98
1.31442	99.99
1.33108	99.99
1.34775	99.99
1.36442	99.99
1.38108	99.99
1.39775	99.99
1.41442	99.99
1.43108	99.99
1.44775	99.99
1.46442	99.99
1.48108	99.99
1.49775	99.99
1.51442	99.99
1.53108	99.99
1.54775	99.99
1.56442	99.99
1.58108	99.99
1.59775	99.99
1.61442	99.99
1.63108	99.99
1.64775	99.99
1.66442	99.99
1.68108	99.99
1.69775	99.99
1.71442	99.99
1.73108	99.99
1.74775	99.99
1.76442	99.99
1.78108	99.99
1.79775	99.99
1.81442	99.99
1.83108	99.99
1.84775	99.98
1.86442	99.99
1.88108	99.98
1.89775	99.98
1.91442	99.98
1.93108	99.98
1.94775	99.99
1.96442	99.98
1.98108	99.98
1.99775	99.98
2.01442	99.98
2.03108	99.98
2.04775	99.98
2.06442	99.98
2.08108	99.98
2.09775	99.98
2.11442	99.98
2.13108	99.98
2.14775	99.98
2.16442	99.98
2.18108	99.98
2.19775	99.98
2.21442	99.98
2.23108	99.98
2.24775	99.97
2.26442	99.97
2.28108	99.98
2.29775	99.97
2.31442	99.97
2.33108	99.97
2.34775	99.98
2.36442	99.97
2.38108	99.97
2.39775	99.97
2.41442	99.97
2.43108	99.97
2.44775	99.97
2.46442	99.97
2.48108	99.97
2.49775	99.97
2.51442	99.97
2.53108	99.97
2.54775	99.98
2.56442	99.98
2.58108	99.97
2.59775	99.98
2.61442	99.97
2.63108	99.98
2.64775	99.97
2.66442	99.98
2.68108	99.98
2.69775	99.98
2.71442	99.98
2.73108	99.98
2.74775	99.98
2.76442	99.99
2.78108	99.99
2.79775	99.99
2.81442	99.99
2.83108	99.99
2.84775	99.99
2.86442	100.00
2.88108	100.00
2.89775	100.00
2.91442	99.99
2.93108	100.00
2.94775	100.00
2.96442	100.01
2.98108	100.01
2.99775	100.00
3.01442	100.01
3.03108	100.01
3.04775	100.01
3.06442	100.01
3.08108	100.01
3.09775	100.01
3.11442	100.02
3.13108	100.02
3.14775	100.02
3.16442	100.02
3.18108	100.02
3.19775	100.03
3.21442	100.03
3.23108	100.03
3.24775	100.03
3.26442	100.03
3.28108	100.03
3.29775	100.03
3.31442	100.03
3.33108	100.04
3.34775	100.04
3.36442	100.04
3.38108	100.04
3.39775	100.04
3.41442	100.04
3.43108	100.04
3.44775	100.05
3.46442	100.05
3.48108	100.04
3.49775	100.05
3.51442	100.05
3.53108	100.05
3.54775	100.05
3.56442	100.05
3.58108	100.05
3.59775	100.05
3.61442	100.05
3.63108	100.06
3.64775	100.05
3.66442	100.05
3.68108	100.05
3.69775	100.05
3.71442	100.06
3.73108	100.05
3.74775	100.06
3.76442	100.06
3.78108	100.06
3.79775	100.06
3.81442	100.06
3.83108	100.06
3.84775	100.06
3.86442	100.06
3.88108	100.06
3.89775	100.05
3.91442	100.06
3.93108	100.06
3.94775	100.06
3.96442	100.06
3.98108	100.06
3.99775	100.06

[Status Trace (Carrier Gas Pressure)]
Interval(msec)	1000
# of Points	240
Start Time(min)	0.014
End Time(min)	3.998
Intensity Units	
Intensity Multiplier	1
R.Time (min)	Intensity
0.01442	57.34
0.03108	55.39
0.04775	57.91
0.06442	59.84
0.08108	58.79
0.09775	57.98
0.11442	57.99
0.13108	58.01
0.14775	58.01
0.16442	58.00
0.18108	58.00
0.19775	58.00
0.21442	58.00
0.23108	58.00
0.24775	58.00
0.26442	58.00
0.28108	58.00
0.29775	58.00
0.31442	58.00
0.33108	58.00
0.34775	58.00
0.36442	58.00
0.38108	58.00
0.39775	58.00
0.41442	58.00
0.43108	58.00
0.44775	58.00
0.46442	58.00
0.48108	58.00
0.49775	58.00
0.51442	58.00
0.53108	58.00
0.54775	58.00
0.56442	58.00
0.58108	58.00
0.59775	58.00
0.61442	58.00
0.63108	58.00
0.64775	58.00
0.66442	58.00
0.68108	58.00
0.69775	58.00
0.71442	58.00
0.73108	58.00
0.74775	58.00
0.76442	58.00
0.78108	58.00
0.79775	58.00
0.81442	58.00
0.83108	58.00
0.84775	58.00
0.86442	58.00
0.88108	58.00
0.89775	58.00
0.91442	58.00
0.93108	58.00
0.94775	58.00
0.96442	58.00
0.98108	58.00
0.99775	58.00
1.01442	58.00
1.03108	58.00
1.04775	58.00
1.06442	58.00
1.08108	58.00
1.09775	58.00
1.11442	58.00
1.13108	58.00
1.14775	58.00
1.16442	58.00
1.18108	58.00
1.19775	58.00
1.21442	58.00
1.23108	58.00
1.24775	58.00
1.26442	58.00
1.28108	58.00
1.29775	58.00
1.31442	58.00
1.33108	58.00
1.34775	58.00
1.36442	58.00
1.38108	58.00
1.39775	58.00
1.41442	58.00
1.43108	58.00
1.44775	58.00
1.46442	58.00
1.48108	58.00
1.49775	58.00
1.51442	58.00
1.53108	58.00
1.54775	58.00
1.56442	58.00
1.58108	58.00
1.59775	58.00
1.61442	58.00
1.63108	58.00
1.64775	58.00
1.66442	58.00
1.68108	58.01
1.69775	58.00
1.71442	58.00
1.73108	58.00
1.74775	58.00
1.76442	58.00
1.78108	58.00
1.79775	58.00
1.81442	58.00
1.83108	58.00
1.84775	58.00
1.86442	58.00
1.88108	58.00
1.89775	58.00
1.91442	58.00
1.93108	58.00
1.94775	58.00
1.96442	58.00
1.98108	58.00
1.99775	58.00
2.01442	58.00
2.03108	58.00
2.04775	58.00
2.06442	58.00
2.08108	58.00
2.09775	58.00
2.11442	58.00
2.13108	58.00
2.14775	58.00
2.16442	58.00
2.18108	58.00
2.19775	58.00
2.21442	58.00
2.23108	58.00
2.24775	58.00
2.26442	58.00
2.28108	58.00
2.29775	58.00
2.31442	58.00
2.33108	58.00
2.34775	58.00
2.36442	58.00
2.38108	58.00
2.39775	57.99
2.41442	58.00
2.43108	58.00
2.44775	58.00
2.46442	58.00
2.48108	58.00
2.49775	58.00
2.51442	57.99
2.53108	57.99
2.54775	58.00
2.56442	58.00
2.58108	58.00
2.59775	58.00
2.61442	58.00
2.63108	58.00
2.64775	58.00
2.66442	58.00
2.68108	58.00
2.69775	58.00
2.71442	58.00
2.73108	58.00
2.74775	58.00
2.76442	58.00
2.78108	58.00
2.79775	58.00
2.81442	58.00
2.83108	58.00
2.84775	58.00
2.86442	58.00
2.88108	58.00
2.89775	58.00
2.91442	58.00
2.93108	58.00
2.94775	58.00
2.96442	58.00
2.98108	58.00
2.99775	58.00
3.01442	58.00
3.03108	58.00
3.04775	58.00
3.06442	58.00
3.08108	58.00
3.09775	58.00
3.11442	58.00
3.13108	58.00
3.14775	58.00
3.16442	58.00
3.18108	58.00
3.19775	58.00
3.21442	58.00
3.23108	58.00
3.24775	58.00
3.26442	58.00
3.28108	58.00
3.29775	58.00
3.31442	58.00
3.33108	58.00
3.34775	58.00
3.36442	58.00
3.38108	58.00
3.39775	58.00
3.41442	58.00
3.43108	58.00
3.44775	58.00
3.46442	58.00
3.48108	58.00
3.49775	58.00
3.51442	58.00
3.53108	58.00
3.54775	58.00
3.56442	58.00
3.58108	58.00
3.59775	58.00
3.61442	58.00
3.63108	58.00
3.64775	58.00
3.66442	58.00
3.68108	58.00
3.69775	58.00
3.71442	58.00
3.73108	58.00
3.74775	58.00
3.76442	58.00
3.78108	58.00
3.79775	58.00
3.81442	58.00
3.83108	58.00
3.84775	58.00
3.86442	58.00
3.88108	58.00
3.89775	58.00
3.91442	58.00
3.93108	58.00
3.94775	58.00
3.96442	58.00
3.98108	58.00
3.99775	58.00

[Status Trace (Carrier Gas Flow)]
Interval(msec)	1000
# of Points	240
Start Time(min)	0.014
End Time(min)	3.998
Intensity Units	
Intensity Multiplier	1
R.Time (min)	Intensity
0.01442	34.01
0.03108	34.53
0.04775	34.54
0.06442	34.54
0.08108	34.50
0.09775	34.52
0.11442	34.52
0.13108	34.52
0.14775	34.52
0.16442	34.52
0.18108	34.52
0.19775	34.52
0.21442	34.52
0.23108	34.52
0.24775	34.52
0.26442	34.52
0.28108	34.52
0.29775	34.52
0.31442	34.52
0.33108	34.52
0.34775	34.52
0.36442	34.52
0.38108	34.52
0.39775	34.52
0.41442	34.52
0.43108	34.52
0.44775	34.52
0.46442	34.52
0.48108	34.52
0.49775	34.52
0.51442	34.52
0.53108	34.52
0.54775	34.52
0.56442	34.52
0.58108	34.52
0.59775	34.52
0.61442	34.52
0.63108	34.52
0.64775	34.52
0.66442	34.52
0.68108	34.52
0.69775	34.52
0.71442	34.52
0.73108	34.52
0.74775	34.52
0.76442	34.52
0.78108	34.52
0.79775	34.52
0.81442	34.52
0.83108	34.52
0.84775	34.52
0.86442	34.52
0.88108	34.52
0.89775	34.52
0.91442	34.52
0.93108	34.52
0.94775	34.52
0.96442	34.52
0.98108	34.52
0.99775	34.52
1.01442	34.52
1.03108	34.52
1.04775	34.52
1.06442	34.52
1.08108	34.52
1.09775	34.52
1.11442	34.52
1.13108	34.52
1.14775	34.52
1.16442	34.52
1.18108	34.52
1.19775	34.52
1.21442	34.52
1.23108	34.52
1.24775	34.52
1.26442	34.52
1.28108	34.52
1.29775	34.52
1.31442	34.52
1.33108	34.52
1.34775	34.52
1.36442	34.52
1.38108	34.52
1.39775	34.52
1.41442	34.52
1.43108	34.52
1.44775	34.52
1.46442	34.52
1.48108	34.52
1.49775	34.52
1.51442	34.52
1.53108	34.52
1.54775	34.52
1.56442	34.52
1.58108	34.52
1.59775	34.52
1.61442	34.52
1.63108	34.52
1.64775	34.52
1.66442	34.52
1.68108	34.52
1.69775	34.52
1.71442	34.52
1.73108	34.52
1.74775	34.52
1.76442	34.52
1.78108	34.52
1.79775	34.52
1.81442	34.52
1.83108	34.52
1.84775	34.52
1.86442	34.52
1.88108	34.52
1.89775	34.52
1.91442	34.52
1.93108	34.52
1.94775	34.52
1.96442	34.52
1.98108	34.52
1.99775	34.52
2.01442	34.52
2.03108	34.52
2.04775	34.52
2.06442	34.52
2.08108	34.52
2.09775	34.52
2.11442	34.52
2.13108	34.52
2.14775	34.52
2.16442	34.52
2.18108	34.52
2.19775	34.52
2.21442	34.52
2.23108	34.52
2.24775	34.52
2.26442	34.52
2.28108	34.52
2.29775	34.52
2.31442	34.52
2.33108	34.52
2.34775	34.52
2.36442	34.52
2.38108	34.52
2.39775	34.52
2.41442	34.51
2.43108	34.53
2.44775	34.51
2.46442	34.51
2.48108	34.52
2.49775	34.52
2.51442	34.52
2.53108	34.52
2.54775	34.52
2.56442	34.52
2.58108	34.52
2.59775	34.52
2.61442	34.52
2.63108	34.52
2.64775	34.52
2.66442	34.52
2.68108	34.52
2.69775	34.52
2.71442	34.52
2.73108	34.52
2.74775	34.52
2.76442	34.52
2.78108	34.52
2.79775	34.52
2.81442	34.52
2.83108	34.52
2.84775	34.52
2.86442	34.52
2.88108	34.52
2.89775	34.52
2.91442	34.52
2.93108	34.52
2.94775	34.52
2.96442	34.52
2.98108	34.52
2.99775	34.52
3.01442	34.52
3.03108	34.52
3.04775	34.52
3.06442	34.52
3.08108	34.52
3.09775	34.52
3.11442	34.52
3.13108	34.52
3.14775	34.52
3.16442	34.52
3.18108	34.52
3.19775	34.52
3.21442	34.52
3.23108	34.52
3.24775	34.52
3.26442	34.52
3.28108	34.52
3.29775	34.52
3.31442	34.52
3.33108	34.52
3.34775	34.52
3.36442	34.52
3.38108	34.52
3.39775	34.52
3.41442	34.51
3.43108	34.52
3.44775	34.51
3.46442	34.51
3.48108	34.52
3.49775	34.52
3.51442	34.52
3.53108	34.52
3.54775	34.52
3.56442	34.52
3.58108	34.52
3.59775	34.52
3.61442	34.52
3.63108	34.52
3.64775	34.52
3.66442	34.52
3.68108	34.52
3.69775	34.52
3.71442	34.52
3.73108	34.52
3.74775	34.52
3.76442	34.52
3.78108	34.52
3.79775	34.52
3.81442	34.52
3.83108	34.52
3.84775	34.52
3.86442	34.52
3.88108	34.52
3.89775	34.52
3.91442	34.52
3.93108	34.52
3.94775	34.52
3.96442	34.52
3.98108	34.52
3.99775	34.52

[Status Trace (Column Flow)]
Interval(msec)	1000
# of Points	240
Start Time(min)	0.014
End Time(min)	3.998
Intensity Units	
Intensity Multiplier	1
R.Time (min)	Intensity
0.01442	5.45
0.03108	5.22
0.04775	5.51
0.06442	5.74
0.08108	5.62
0.09775	5.52
0.11442	5.52
0.13108	5.52
0.14775	5.52
0.16442	5.52
0.18108	5.52
0.19775	5.52
0.21442	5.52
0.23108	5.52
0.24775	5.52
0.26442	5.52
0.28108	5.52
0.29775	5.52
0.31442	5.52
0.33108	5.52
0.34775	5.52
0.36442	5.52
0.38108	5.52
0.39775	5.52
0.41442	5.52
0.43108	5.52
0.44775	5.52
0.46442	5.52
0.48108	5.52
0.49775	5.52
0.51442	5.52
0.53108	5.52
0.54775	5.52
0.56442	5.52
0.58108	5.52
0.59775	5.52
0.61442	5.52
0.63108	5.52
0.64775	5.52
0.66442	5.52
0.68108	5.52
0.69775	5.52
0.71442	5.52
0.73108	5.52
0.74775	5.52
0.76442	5.52
0.78108	5.52
0.79775	5.52
0.81442	5.52
0.83108	5.52
0.84775	5.52
0.86442	5.52
0.88108	5.52
0.89775	5.52
0.91442	5.52
0.93108	5.52
0.94775	5.52
0.96442	5.52
0.98108	5.52
0.99775	5.52
1.01442	5.52
1.03108	5.52
1.04775	5.52
1.06442	5.52
1.08108	5.52
1.09775	5.52
1.11442	5.52
1.13108	5.52
1.14775	5.52
1.16442	5.52
1.18108	5.52
1.19775	5.52
1.21442	5.52
1.23108	5.52
1.24775	5.52
1.26442	5.52
1.28108	5.52
1.29775	5.52
1.31442	5.52
1.33108	5.52
1.34775	5.52
1.36442	5.52
1.38108	5.52
1.39775	5.52
1.41442	5.52
1.43108	5.52
1.44775	5.52
1.46442	5.52
1.48108	5.52
1.49775	5.52
1.51442	5.52
1.53108	5.52
1.54775	5.52
1.56442	5.52
1.58108	5.52
1.59775	5.52
1.61442	5.52
1.63108	5.51
1.64775	5.51
1.66442	5.50
1.68108	5.49
1.69775	5.48
1.71442	5.47
1.73108	5.46
1.74775	5.44
1.76442	5.43
1.78108	5.43
1.79775	5.42
1.81442	5.40
1.83108	5.39
1.84775	5.38
1.86442	5.37
1.88108	5.36
1.89775	5.35
1.91442	5.34
1.93108	5.34
1.94775	5.33
1.96442	5.32
1.98108	5.31
1.99775	5.30
2.01442	5.29
2.03108	5.28
2.04775	5.27
2.06442	5.26
2.08108	5.25
2.09775	5.24
2.11442	5.23
2.13108	5.22
2.14775	5.21
2.16442	5.20
2.18108	5.19
2.19775	5.18
2.21442	5.17
2.23108	5.16
2.24775	5.15
2.26442	5.14
2.28108	5.14
2.29775	5.13
2.31442	5.12
2.33108	5.11
2.34775	5.10
2.36442	5.09
2.38108	5.09
2.39775	5.09
2.41442	5.09
2.43108	5.09
2.44775	5.09
2.46442	5.09
2.48108	5.09
2.49775	5.08
2.51442	5.08
2.53108	5.08
2.54775	5.08
2.56442	5.08
2.58108	5.08
2.59775	5.08
2.61442	5.08
2.63108	5.08
2.64775	5.08
2.66442	5.08
2.68108	5.08
2.69775	5.08
2.71442	5.08
2.73108	5.08
2.74775	5.08
2.76442	5.08
2.78108	5.08
2.79775	5.08
2.81442	5.08
2.83108	5.08
2.84775	5.08
2.86442	5.08
2.88108	5.08
2.89775	5.08
2.91442	5.08
2.93108	5.08
2.94775	5.08
2.96442	5.08
2.98108	5.08
2.99775	5.08
3.01442	5.08
3.03108	5.08
3.04775	5.08
3.06442	5.08
3.08108	5.08
3.09775	5.08
3.11442	5.08
3.13108	5.08
3.14775	5.08
3.16442	5.08
3.18108	5.08
3.19775	5.08
3.21442	5.08
3.23108	5.08
3.24775	5.08
3.26442	5.08
3.28108	5.08
3.29775	5.08
3.31442	5.08
3.33108	5.08
3.34775	5.08
3.36442	5.08
3.38108	5.08
3.39775	5.08
3.41442	5.08
3.43108	5.08
3.44775	5.08
3.46442	5.08
3.48108	5.08
3.49775	5.08
3.51442	5.08
3.53108	5.08
3.54775	5.08
3.56442	5.08
3.58108	5.08
3.59775	5.08
3.61442	5.08
3.63108	5.08
3.64775	5.08
3.66442	5.08
3.68108	5.08
3.69775	5.08
3.71442	5.08
3.73108	5.08
3.74775	5.08
3.76442	5.08
3.78108	5.08
3.79775	5.08
3.81442	5.08
3.83108	5.08
3.84775	5.08
3.86442	5.08
3.88108	5.08
3.89775	5.08
3.91442	5.08
3.93108	5.08
3.94775	5.08
3.96442	5.08
3.98108	5.08
3.99775	5.08

[Status Trace (Linear Velocity)]
Interval(msec)	1000
# of Points	240
Start Time(min)	0.014
End Time(min)	3.998
Intensity Units	
Intensity Multiplier	1
R.Time (min)	Intensity
0.01442	38.59
0.03108	37.31
0.04775	38.96
0.06442	40.22
0.08108	39.54
0.09775	39.00
0.11442	39.02
0.13108	39.03
0.14775	39.03
0.16442	39.02
0.18108	39.02
0.19775	39.02
0.21442	39.02
0.23108	39.02
0.24775	39.02
0.26442	39.02
0.28108	39.02
0.29775	39.02
0.31442	39.02
0.33108	39.02
0.34775	39.02
0.36442	39.01
0.38108	39.01
0.39775	39.01
0.41442	39.01
0.43108	39.01
0.44775	39.02
0.46442	39.02
0.48108	39.02
0.49775	39.02
0.51442	39.02
0.53108	39.02
0.54775	39.02
0.56442	39.02
0.58108	39.02
0.59775	39.02
0.61442	39.02
0.63108	39.02
0.64775	39.02
0.66442	39.02
0.68108	39.02
0.69775	39.02
0.71442	39.02
0.73108	39.02
0.74775	39.02
0.76442	39.02
0.78108	39.02
0.79775	39.02
0.81442	39.02
0.83108	39.02
0.84775	39.02
0.86442	39.02
0.88108	39.02
0.89775	39.02
0.91442	39.02
0.93108	39.02
0.94775	39.02
0.96442	39.02
0.98108	39.02
0.99775	39.02
1.01442	39.02
1.03108	39.02
1.04775	39.02
1.06442	39.02
1.08108	39.02
1.09775	39.02
1.11442	39.02
1.13108	39.02
1.14775	39.02
1.16442	39.01
1.18108	39.01
1.19775	39.01
1.21442	39.01
1.23108	39.01
1.24775	39.01
1.26442	39.01
1.28108	39.01
1.29775	39.01
1.31442	39.01
1.33108	39.02
1.34775	39.02
1.36442	39.02
1.38108	39.02
1.39775	39.02
1.41442	39.02
1.43108	39.02
1.44775	39.02
1.46442	39.02
1.48108	39.02
1.49775	39.02
1.51442	39.02
1.53108	39.02
1.54775	39.02
1.56442	39.02
1.58108	39.02
1.59775	39.01
1.61442	39.01
1.63108	39.00
1.64775	38.98
1.66442	38.95
1.68108	38.92
1.69775	38.88
1.71442	38.85
1.73108	38.81
1.74775	38.78
1.76442	38.75
1.78108	38.72
1.79775	38.69
1.81442	38.66
1.83108	38.62
1.84775	38.59
1.86442	38.56
1.88108	38.53
1.89775	38.50
1.91442	38.47
1.93108	38.44
1.94775	38.41
1.96442	38.38
1.98108	38.35
1.99775	38.32
2.01442	38.29
2.03108	38.26
2.04775	38.23
2.06442	38.20
2.08108	38.17
2.09775	38.14
2.11442	38.11
2.13108	38.08
2.14775	38.05
2.16442	38.02
2.18108	37.99
2.19775	37.96
2.21442	37.93
2.23108	37.90
2.24775	37.87
2.26442	37.84
2.28108	37.82
2.29775	37.79
2.31442	37.76
2.33108	37.73
2.34775	37.70
2.36442	37.67
2.38108	37.66
2.39775	37.65
2.41442	37.66
2.43108	37.66
2.44775	37.66
2.46442	37.66
2.48108	37.65
2.49775	37.65
2.51442	37.65
2.53108	37.64
2.54775	37.65
2.56442	37.65
2.58108	37.65
2.59775	37.65
2.61442	37.65
2.63108	37.65
2.64775	37.65
2.66442	37.65
2.68108	37.64
2.69775	37.64
2.71442	37.64
2.73108	37.64
2.74775	37.64
2.76442	37.64
2.78108	37.64
2.79775	37.64
2.81442	37.64
2.83108	37.64
2.84775	37.64
2.86442	37.63
2.88108	37.63
2.89775	37.63
2.91442	37.63
2.93108	37.63
2.94775	37.63
2.96442	37.63
2.98108	37.63
2.99775	37.63
3.01442	37.63
3.03108	37.63
3.04775	37.63
3.06442	37.62
3.08108	37.62
3.09775	37.62
3.11442	37.62
3.13108	37.62
3.14775	37.62
3.16442	37.63
3.18108	37.63
3.19775	37.63
3.21442	37.63
3.23108	37.63
3.24775	37.63
3.26442	37.63
3.28108	37.63
3.29775	37.63
3.31442	37.63
3.33108	37.63
3.34775	37.63
3.36442	37.63
3.38108	37.63
3.39775	37.63
3.41442	37.63
3.43108	37.63
3.44775	37.63
3.46442	37.63
3.48108	37.63
3.49775	37.63
3.51442	37.63
3.53108	37.63
3.54775	37.63
3.56442	37.63
3.58108	37.63
3.59775	37.63
3.61442	37.62
3.63108	37.62
3.64775	37.62
3.66442	37.62
3.68108	37.62
3.69775	37.62
3.71442	37.63
3.73108	37.63
3.74775	37.63
3.76442	37.63
3.78108	37.63
3.79775	37.63
3.81442	37.63
3.83108	37.63
3.84775	37.63
3.86442	37.63
3.88108	37.63
3.89775	37.63
3.91442	37.63
3.93108	37.63
3.94775	37.63
3.96442	37.63
3.98108	37.63
3.99775	37.63

