[Header]
Application Name	LabSolutions
Version	5.110
Data File Name	C:\Users\User\Desktop\GC Analyses\Jack\UIC Prairie Sampling\7.22.22\220722_103.gcd
Output Date	10/5/2022
Output Time	2:13:44 PM

[File Information]
Type	Data File
Generated	10/5/2022 1:33:35 PM
Generated by	System Administrator
Modified	10/5/2022 1:38:09 PM
Modified by	System Administrator

[Sample Information]
Operator Name	System Administrator
Acquired	10/5/2022 1:34:09 PM
Sample Type	1:Standard
Level	1
Sample Name	220722_UICPrairie
Sample ID	220722_UICPrairie
ISTD Amount1	1
ISTD Amount2	1
ISTD Amount3	1
ISTD Amount4	1
ISTD Amount5	1
ISTD Amount6	1
ISTD Amount7	1
ISTD Amount8	1
ISTD Amount9	1
ISTD Amount10	1
ISTD Amount11	1
ISTD Amount12	1
ISTD Amount13	1
ISTD Amount14	1
ISTD Amount15	1
ISTD Amount16	1
ISTD Amount17	1
ISTD Amount18	1
ISTD Amount19	1
ISTD Amount20	1
ISTD Amount21	1
ISTD Amount22	1
ISTD Amount23	1
ISTD Amount24	1
ISTD Amount25	1
ISTD Amount26	1
ISTD Amount27	1
ISTD Amount28	1
ISTD Amount29	1
ISTD Amount30	1
ISTD Amount31	1
ISTD Amount32	1
Sample Amount	1
Dilution Factor	1
Vial#	1
Injection Volume	1
Injection Count	1
Bar Code	

[Original Files]
Data File	C:\Users\User\Desktop\GC Analyses\Jack\UIC Prairie Sampling\7.22.22\220722_103.gcd
Method File	C:\LabSolutions\Data\GHG_4min_2022\ghg3_togas_w_acet_4 min_new_int.gcm
Batch File	
Report Format File	c:\LabSolutions\System\DEFAULT.lsr

[File Description]


[Configuration]
Instrument Name	C0B7VH3-Instrument1
Instrument #	1
Line #	1
# of Detectors	3
Detector ID	DET#1	DET#2	DET#3
Detector Name	FID	PTCD	ECD
# of Channels	1	1	1

[Peak Table(Ch1)]
# of Peaks	3
Peak#	R.Time	I.Time	F.Time	Area	Height	A/H	Conc.	Mark	ID#	Name	k'	Plate #	Plate Ht.	Tailing	Resolution	Sep.Factor	Area Ratio	Height Ratio	Conc. %	Norm Conc.
1	1.479	1.439	1.542	15294	7018	2.179	100.000	   	1	CO	0.000	8789	17.066	1.215	0.000	0.000	0	0	16.667	16.667
2	1.575	1.542	1.630	4431	2233	1.984	100.000	 V 	2	CH4	0.064	11494	13.050	1.101	1.565	0.000	0	0	16.667	16.667
3	2.004	1.952	2.293	1767240	864744	2.044	400.000	   	3	CO2	0.354	18134	8.272	1.153	7.255	5.500	0	0	66.667	66.667

[Peak Table(Ch2)]
# of Peaks	0

[Peak Table(Ch3)]
# of Peaks	2
Peak#	R.Time	I.Time	F.Time	Area	Height	A/H	Conc.	Mark	ID#	Name	k'	Plate #	Plate Ht.	Tailing	Resolution	Sep.Factor	Area Ratio	Height Ratio	Conc. %	Norm Conc.
1	2.444	0.431	2.649	28315	526	53.861	0.000	   			0.000	45	3368.941	0.554	0.000	0.000	0	0	0.000	0.000
2	2.887	2.770	3.936	56928	5884	9.676	1.000	   	1	N2O	0.182	9451	15.871	4.029	0.560	0.000	0	0	100.000	100.000

[Compound Results(Ch1)]
# of IDs	6
ID#	Name	R.Time	Area	Height	Conc.	Curve	3rd	2nd	1st	Constant	Area Ratio	Height Ratio	Conc. %	Norm Conc.
1	CO	1.479	15294	7018	100.000	Linear	0.000000e+00	0.000000e+00	1.529413e+002	0.000000e+00	0	0	16.667	16.667
2	CH4	1.575	4431	2233	100.000	Linear	0.000000e+00	0.000000e+00	4.430917e+001	0.000000e+00	0	0	16.667	16.667
3	CO2	2.004	1767240	864744	400.000	Linear	0.000000e+00	0.000000e+00	4.418101e+003	0.000000e+00	0	0	66.667	66.667
4	Ethylene	0.000	0	0	0.000	Linear	0.000000e+00	0.000000e+00	0.000000e+00	0.000000e+00	0	0	0.000	0.000
5	Acetylene	0.000	0	0	0.000	Linear	0.000000e+00	0.000000e+00	0.000000e+00	0.000000e+00	0	0	0.000	0.000
6	Ethane	0.000	0	0	0.000	Linear	0.000000e+00	0.000000e+00	0.000000e+00	0.000000e+00	0	0	0.000	0.000

[Compound Results(Ch2)]
# of IDs	5
ID#	Name	R.Time	Area	Height	Conc.	Curve	3rd	2nd	1st	Constant	Area Ratio	Height Ratio	Conc. %	Norm Conc.
1	Hydrogen	0.000	0	0	0.000	Linear	0.000000e+00	0.000000e+00	0.000000e+00	0.000000e+00	0	0	0.000	0.000
2	Oxygen	0.000	0	0	0.000	Linear	0.000000e+00	0.000000e+00	0.000000e+00	0.000000e+00	0	0	0.000	0.000
3	Nitrogen	0.000	0	0	0.000	Linear	0.000000e+00	0.000000e+00	0.000000e+00	0.000000e+00	0	0	0.000	0.000
4	Methane	0.000	0	0	0.000	Linear	0.000000e+00	0.000000e+00	0.000000e+00	0.000000e+00	0	0	0.000	0.000
5	Carbon Monoxide	0.000	0	0	0.000	Linear	0.000000e+00	0.000000e+00	0.000000e+00	0.000000e+00	0	0	0.000	0.000

[Compound Results(Ch3)]
# of IDs	2
ID#	Name	R.Time	Area	Height	Conc.	Curve	3rd	2nd	1st	Constant	Area Ratio	Height Ratio	Conc. %	Norm Conc.
1	N2O	2.887	56928	5884	1.000	Linear	0.000000e+00	0.000000e+00	5.692769e+004	0.000000e+00	0	0	100.000	100.000
2	SF6	0.000	0	0	0.000	Linear	0.000000e+00	0.000000e+00	0.000000e+00	0.000000e+00	0	0	0.000	0.000

[Group Results(Ch1)]
# of Groups	0

[Group Results(Ch2)]
# of Groups	0

[Group Results(Ch3)]
# of Groups	0

[Chromatogram (Ch1)]
Interval(msec)	220
# of Points	1091
Start Time(min)	0.002
End Time(min)	3.998
R.Time (min)	Intensity
0.00167	-14
0.00533	-9
0.00900	-3
0.01267	4
0.01633	9
0.02000	13
0.02367	16
0.02733	18
0.03100	17
0.03467	9
0.03833	-4
0.04200	-18
0.04567	-30
0.04933	-34
0.05300	-31
0.05667	-25
0.06033	-20
0.06400	-14
0.06767	-9
0.07133	-6
0.07500	-7
0.07867	-10
0.08233	-12
0.08600	-12
0.08967	-14
0.09333	-19
0.09700	-25
0.10067	-30
0.10433	-31
0.10800	-28
0.11167	-28
0.11533	-30
0.11900	-35
0.12267	-44
0.12633	-54
0.13000	-62
0.13367	-66
0.13733	-69
0.14100	-67
0.14467	-60
0.14833	-53
0.15200	-47
0.15567	-43
0.15933	-44
0.16300	-45
0.16667	-41
0.17033	-38
0.17400	-39
0.17767	-43
0.18133	-50
0.18500	-58
0.18867	-67
0.19233	-74
0.19600	-78
0.19967	-76
0.20333	-71
0.20700	-65
0.21067	-57
0.21433	-49
0.21800	-46
0.22167	-49
0.22533	-54
0.22900	-59
0.23267	-62
0.23633	-67
0.24000	-75
0.24367	-84
0.24733	-90
0.25100	-89
0.25467	-87
0.25833	-85
0.26200	-85
0.26567	-83
0.26933	-75
0.27300	-66
0.27667	-60
0.28033	-56
0.28400	-53
0.28767	-56
0.29133	-64
0.29500	-69
0.29867	-72
0.30233	-71
0.30600	-68
0.30967	-64
0.31333	-63
0.31700	-65
0.32067	-67
0.32433	-67
0.32800	-68
0.33167	-69
0.33533	-69
0.33900	-69
0.34267	-70
0.34633	-74
0.35000	-75
0.35367	-71
0.35733	-64
0.36100	-62
0.36467	-62
0.36833	-64
0.37200	-67
0.37567	-71
0.37933	-71
0.38300	-71
0.38667	-70
0.39033	-71
0.39400	-72
0.39767	-74
0.40133	-81
0.40500	-88
0.40867	-92
0.41233	-92
0.41600	-90
0.41967	-88
0.42333	-85
0.42700	-83
0.43067	-80
0.43433	-77
0.43800	-74
0.44167	-76
0.44533	-84
0.44900	-93
0.45267	-98
0.45633	-101
0.46000	-103
0.46367	-101
0.46733	-94
0.47100	-85
0.47467	-81
0.47833	-84
0.48200	-90
0.48567	-95
0.48933	-96
0.49300	-95
0.49667	-92
0.50033	-91
0.50400	-93
0.50767	-99
0.51133	-98
0.51500	-92
0.51867	-86
0.52233	-84
0.52600	-86
0.52967	-90
0.53333	-92
0.53700	-94
0.54067	-94
0.54433	-91
0.54800	-83
0.55167	-75
0.55533	-76
0.55900	-83
0.56267	-93
0.56633	-104
0.57000	-111
0.57367	-115
0.57733	-115
0.58100	-113
0.58467	-111
0.58833	-108
0.59200	-108
0.59567	-107
0.59933	-104
0.60300	-104
0.60667	-107
0.61033	-109
0.61400	-109
0.61767	-108
0.62133	-109
0.62500	-109
0.62867	-107
0.63233	-104
0.63600	-100
0.63967	-93
0.64333	-87
0.64700	-84
0.65067	-84
0.65433	-82
0.65800	-78
0.66167	-73
0.66533	-71
0.66900	-75
0.67267	-85
0.67633	-96
0.68000	-102
0.68367	-104
0.68733	-102
0.69100	-100
0.69467	-104
0.69833	-107
0.70200	-108
0.70567	-107
0.70933	-105
0.71300	-103
0.71667	-105
0.72033	-107
0.72400	-110
0.72767	-111
0.73133	-111
0.73500	-110
0.73867	-108
0.74233	-107
0.74600	-108
0.74967	-108
0.75333	-110
0.75700	-111
0.76067	-109
0.76433	-107
0.76800	-105
0.77167	-103
0.77533	-102
0.77900	-103
0.78267	-109
0.78633	-117
0.79000	-121
0.79367	-122
0.79733	-122
0.80100	-122
0.80467	-121
0.80833	-116
0.81200	-107
0.81567	-98
0.81933	-96
0.82300	-99
0.82667	-105
0.83033	-114
0.83400	-124
0.83767	-130
0.84133	-127
0.84500	-123
0.84867	-123
0.85233	-123
0.85600	-122
0.85967	-117
0.86333	-107
0.86700	-99
0.87067	-90
0.87433	-83
0.87800	-81
0.88167	-86
0.88533	-99
0.88900	-117
0.89267	-130
0.89633	-136
0.90000	-142
0.90367	-149
0.90733	-154
0.91100	-158
0.91467	-161
0.91833	-162
0.92200	-161
0.92567	-163
0.92933	-163
0.93300	-161
0.93667	-154
0.94033	-145
0.94400	-137
0.94767	-132
0.95133	-132
0.95500	-135
0.95867	-138
0.96233	-138
0.96600	-136
0.96967	-135
0.97333	-134
0.97700	-133
0.98067	-131
0.98433	-128
0.98800	-124
0.99167	-120
0.99533	-119
0.99900	-123
1.00267	-130
1.00633	-137
1.01000	-140
1.01367	-134
1.01733	-126
1.02100	-119
1.02467	-118
1.02833	-120
1.03200	-125
1.03567	-134
1.03933	-146
1.04300	-155
1.04667	-155
1.05033	-149
1.05400	-143
1.05767	-139
1.06133	-137
1.06500	-133
1.06867	-127
1.07233	-122
1.07600	-121
1.07967	-125
1.08333	-129
1.08700	-130
1.09067	-129
1.09433	-126
1.09800	-126
1.10167	-128
1.10533	-133
1.10900	-137
1.11267	-139
1.11633	-139
1.12000	-136
1.12367	-132
1.12733	-135
1.13100	-143
1.13467	-150
1.13833	-153
1.14200	-152
1.14567	-151
1.14933	-147
1.15300	-140
1.15667	-132
1.16033	-126
1.16400	-121
1.16767	-121
1.17133	-121
1.17500	-117
1.17867	-113
1.18233	-114
1.18600	-122
1.18967	-132
1.19333	-141
1.19700	-147
1.20067	-151
1.20433	-151
1.20800	-152
1.21167	-153
1.21533	-155
1.21900	-158
1.22267	-162
1.22633	-161
1.23000	-157
1.23367	-153
1.23733	-151
1.24100	-148
1.24467	-144
1.24833	-140
1.25200	-137
1.25567	-135
1.25933	-135
1.26300	-137
1.26667	-140
1.27033	-143
1.27400	-145
1.27767	-146
1.28133	-144
1.28500	-142
1.28867	-139
1.29233	-136
1.29600	-132
1.29967	-129
1.30333	-130
1.30700	-133
1.31067	-136
1.31433	-139
1.31800	-142
1.32167	-145
1.32533	-149
1.32900	-155
1.33267	-159
1.33633	-157
1.34000	-151
1.34367	-146
1.34733	-144
1.35100	-149
1.35467	-156
1.35833	-160
1.36200	-159
1.36567	-154
1.36933	-149
1.37300	-149
1.37667	-150
1.38033	-151
1.38400	-153
1.38767	-154
1.39133	-152
1.39500	-148
1.39867	-145
1.40233	-143
1.40600	-143
1.40967	-143
1.41333	-142
1.41700	-142
1.42067	-143
1.42433	-145
1.42800	-146
1.43167	-145
1.43533	-146
1.43900	-146
1.44267	-123
1.44633	-9
1.45000	275
1.45367	764
1.45733	1530
1.46100	2600
1.46467	3831
1.46833	5008
1.47200	5968
1.47567	6611
1.47933	6871
1.48300	6699
1.48667	6107
1.49033	5204
1.49400	4169
1.49767	3174
1.50133	2321
1.50500	1643
1.50867	1130
1.51233	755
1.51600	491
1.51967	306
1.52333	175
1.52700	80
1.53067	12
1.53433	-34
1.53800	-65
1.54167	-77
1.54533	-42
1.54900	106
1.55267	406
1.55633	823
1.56000	1262
1.56367	1640
1.56733	1919
1.57100	2077
1.57467	2083
1.57833	1923
1.58200	1625
1.58567	1259
1.58933	901
1.59300	600
1.59667	368
1.60033	197
1.60400	77
1.60767	-7
1.61133	-63
1.61500	-100
1.61867	-124
1.62233	-138
1.62600	-146
1.62967	-152
1.63333	-155
1.63700	-156
1.64067	-153
1.64433	-154
1.64800	-159
1.65167	-169
1.65533	-179
1.65900	-186
1.66267	-191
1.66633	-196
1.67000	-201
1.67367	-204
1.67733	-206
1.68100	-207
1.68467	-205
1.68833	-201
1.69200	-200
1.69567	-199
1.69933	-196
1.70300	-192
1.70667	-188
1.71033	-186
1.71400	-184
1.71767	-183
1.72133	-183
1.72500	-184
1.72867	-183
1.73233	-184
1.73600	-187
1.73967	-189
1.74333	-188
1.74700	-186
1.75067	-183
1.75433	-182
1.75800	-180
1.76167	-179
1.76533	-181
1.76900	-182
1.77267	-185
1.77633	-188
1.78000	-191
1.78367	-190
1.78733	-187
1.79100	-187
1.79467	-190
1.79833	-190
1.80200	-186
1.80567	-181
1.80933	-177
1.81300	-177
1.81667	-177
1.82033	-176
1.82400	-175
1.82767	-177
1.83133	-179
1.83500	-176
1.83867	-171
1.84233	-165
1.84600	-165
1.84967	-170
1.85333	-175
1.85700	-180
1.86067	-183
1.86433	-185
1.86800	-187
1.87167	-187
1.87533	-187
1.87900	-185
1.88267	-185
1.88633	-187
1.89000	-189
1.89367	-187
1.89733	-183
1.90100	-178
1.90467	-173
1.90833	-171
1.91200	-171
1.91567	-174
1.91933	-180
1.92300	-185
1.92667	-185
1.93033	-184
1.93400	-184
1.93767	-182
1.94133	-182
1.94500	-184
1.94867	-184
1.95233	-179
1.95600	-161
1.95967	-69
1.96333	456
1.96700	3008
1.97067	12534
1.97433	39847
1.97800	100542
1.98167	206158
1.98533	353086
1.98900	519908
1.99267	677183
1.99633	798064
2.00000	863399
2.00367	864596
2.00733	804713
2.01100	698632
2.01467	568720
2.01833	437558
2.02200	321373
2.02567	227801
2.02933	157501
2.03300	107248
2.03667	72533
2.04033	49091
2.04400	33478
2.04767	23147
2.05133	16312
2.05500	11768
2.05867	8716
2.06233	6632
2.06600	5177
2.06967	4137
2.07333	3381
2.07700	2818
2.08067	2391
2.08433	2059
2.08800	1794
2.09167	1576
2.09533	1394
2.09900	1244
2.10267	1119
2.10633	1014
2.11000	923
2.11367	848
2.11733	783
2.12100	729
2.12467	683
2.12833	640
2.13200	599
2.13567	565
2.13933	534
2.14300	499
2.14667	465
2.15033	432
2.15400	402
2.15767	378
2.16133	359
2.16500	340
2.16867	315
2.17233	292
2.17600	272
2.17967	257
2.18333	245
2.18700	236
2.19067	230
2.19433	225
2.19800	221
2.20167	215
2.20533	205
2.20900	192
2.21267	176
2.21633	159
2.22000	147
2.22367	139
2.22733	130
2.23100	120
2.23467	112
2.23833	111
2.24200	110
2.24567	106
2.24933	103
2.25300	103
2.25667	101
2.26033	97
2.26400	88
2.26767	78
2.27133	68
2.27500	56
2.27867	45
2.28233	40
2.28600	37
2.28967	35
2.29333	32
2.29700	28
2.30067	26
2.30433	27
2.30800	32
2.31167	35
2.31533	32
2.31900	25
2.32267	19
2.32633	18
2.33000	19
2.33367	24
2.33733	30
2.34100	35
2.34467	36
2.34833	32
2.35200	28
2.35567	20
2.35933	9
2.36300	-0
2.36667	-2
2.37033	-0
2.37400	-0
2.37767	-4
2.38133	-8
2.38500	-12
2.38867	-13
2.39233	-14
2.39600	-14
2.39967	-13
2.40333	-8
2.40700	-3
2.41067	2
2.41433	5
2.41800	8
2.42167	9
2.42533	5
2.42900	0
2.43267	-1
2.43633	3
2.44000	11
2.44367	18
2.44733	17
2.45100	10
2.45467	1
2.45833	-9
2.46200	-17
2.46567	-23
2.46933	-29
2.47300	-37
2.47667	-45
2.48033	-52
2.48400	-56
2.48767	-55
2.49133	-51
2.49500	-46
2.49867	-44
2.50233	-42
2.50600	-40
2.50967	-37
2.51333	-34
2.51700	-34
2.52067	-35
2.52433	-37
2.52800	-39
2.53167	-41
2.53533	-45
2.53900	-49
2.54267	-54
2.54633	-61
2.55000	-65
2.55367	-68
2.55733	-67
2.56100	-63
2.56467	-57
2.56833	-50
2.57200	-42
2.57567	-40
2.57933	-41
2.58300	-45
2.58667	-52
2.59033	-56
2.59400	-55
2.59767	-50
2.60133	-49
2.60500	-50
2.60867	-53
2.61233	-55
2.61600	-56
2.61967	-57
2.62333	-60
2.62700	-62
2.63067	-64
2.63433	-61
2.63800	-56
2.64167	-52
2.64533	-51
2.64900	-53
2.65267	-58
2.65633	-63
2.66000	-69
2.66367	-76
2.66733	-82
2.67100	-82
2.67467	-76
2.67833	-69
2.68200	-65
2.68567	-62
2.68933	-60
2.69300	-59
2.69667	-61
2.70033	-63
2.70400	-64
2.70767	-66
2.71133	-66
2.71500	-62
2.71867	-57
2.72233	-53
2.72600	-51
2.72967	-52
2.73333	-54
2.73700	-56
2.74067	-58
2.74433	-57
2.74800	-54
2.75167	-51
2.75533	-52
2.75900	-53
2.76267	-53
2.76633	-51
2.77000	-49
2.77367	-51
2.77733	-56
2.78100	-61
2.78467	-66
2.78833	-71
2.79200	-75
2.79567	-78
2.79933	-79
2.80300	-79
2.80667	-74
2.81033	-67
2.81400	-60
2.81767	-55
2.82133	-52
2.82500	-51
2.82867	-49
2.83233	-47
2.83600	-48
2.83967	-51
2.84333	-54
2.84700	-55
2.85067	-54
2.85433	-54
2.85800	-53
2.86167	-53
2.86533	-57
2.86900	-64
2.87267	-71
2.87633	-75
2.88000	-78
2.88367	-78
2.88733	-79
2.89100	-78
2.89467	-76
2.89833	-76
2.90200	-76
2.90567	-74
2.90933	-69
2.91300	-66
2.91667	-65
2.92033	-66
2.92400	-66
2.92767	-67
2.93133	-63
2.93500	-61
2.93867	-61
2.94233	-63
2.94600	-66
2.94967	-72
2.95333	-75
2.95700	-76
2.96067	-75
2.96433	-73
2.96800	-69
2.97167	-65
2.97533	-62
2.97900	-58
2.98267	-55
2.98633	-54
2.99000	-54
2.99367	-57
2.99733	-60
3.00100	-58
3.00467	-53
3.00833	-49
3.01200	-48
3.01567	-50
3.01933	-53
3.02300	-58
3.02667	-66
3.03033	-75
3.03400	-83
3.03767	-85
3.04133	-82
3.04500	-76
3.04867	-65
3.05233	-53
3.05600	-42
3.05967	-38
3.06333	-45
3.06700	-59
3.07067	-75
3.07433	-92
3.07800	-105
3.08167	-112
3.08533	-112
3.08900	-106
3.09267	-98
3.09633	-88
3.10000	-78
3.10367	-69
3.10733	-66
3.11100	-71
3.11467	-81
3.11833	-91
3.12200	-96
3.12567	-97
3.12933	-94
3.13300	-92
3.13667	-91
3.14033	-91
3.14400	-93
3.14767	-92
3.15133	-89
3.15500	-86
3.15867	-84
3.16233	-83
3.16600	-79
3.16967	-76
3.17333	-76
3.17700	-76
3.18067	-75
3.18433	-73
3.18800	-72
3.19167	-71
3.19533	-69
3.19900	-68
3.20267	-66
3.20633	-67
3.21000	-68
3.21367	-71
3.21733	-72
3.22100	-73
3.22467	-78
3.22833	-80
3.23200	-77
3.23567	-73
3.23933	-70
3.24300	-68
3.24667	-71
3.25033	-76
3.25400	-82
3.25767	-86
3.26133	-87
3.26500	-86
3.26867	-87
3.27233	-91
3.27600	-95
3.27967	-96
3.28333	-95
3.28700	-93
3.29067	-90
3.29433	-89
3.29800	-91
3.30167	-94
3.30533	-94
3.30900	-91
3.31267	-89
3.31633	-86
3.32000	-83
3.32367	-83
3.32733	-83
3.33100	-81
3.33467	-77
3.33833	-73
3.34200	-71
3.34567	-72
3.34933	-75
3.35300	-79
3.35667	-81
3.36033	-83
3.36400	-84
3.36767	-83
3.37133	-83
3.37500	-82
3.37867	-80
3.38233	-79
3.38600	-79
3.38967	-83
3.39333	-86
3.39700	-87
3.40067	-86
3.40433	-87
3.40800	-88
3.41167	-87
3.41533	-86
3.41900	-85
3.42267	-83
3.42633	-79
3.43000	-80
3.43367	-85
3.43733	-87
3.44100	-84
3.44467	-79
3.44833	-73
3.45200	-66
3.45567	-63
3.45933	-66
3.46300	-72
3.46667	-79
3.47033	-85
3.47400	-89
3.47767	-92
3.48133	-92
3.48500	-90
3.48867	-89
3.49233	-91
3.49600	-89
3.49967	-84
3.50333	-79
3.50700	-72
3.51067	-65
3.51433	-63
3.51800	-66
3.52167	-72
3.52533	-76
3.52900	-78
3.53267	-81
3.53633	-82
3.54000	-80
3.54367	-80
3.54733	-79
3.55100	-73
3.55467	-64
3.55833	-57
3.56200	-55
3.56567	-57
3.56933	-59
3.57300	-62
3.57667	-70
3.58033	-82
3.58400	-91
3.58767	-96
3.59133	-95
3.59500	-90
3.59867	-82
3.60233	-74
3.60600	-72
3.60967	-72
3.61333	-69
3.61700	-67
3.62067	-66
3.62433	-66
3.62800	-65
3.63167	-67
3.63533	-72
3.63900	-77
3.64267	-79
3.64633	-82
3.65000	-85
3.65367	-89
3.65733	-92
3.66100	-92
3.66467	-87
3.66833	-83
3.67200	-79
3.67567	-74
3.67933	-71
3.68300	-68
3.68667	-65
3.69033	-62
3.69400	-61
3.69767	-66
3.70133	-75
3.70500	-81
3.70867	-81
3.71233	-79
3.71600	-73
3.71967	-68
3.72333	-67
3.72700	-68
3.73067	-69
3.73433	-70
3.73800	-73
3.74167	-75
3.74533	-75
3.74900	-76
3.75267	-77
3.75633	-78
3.76000	-81
3.76367	-85
3.76733	-89
3.77100	-88
3.77467	-82
3.77833	-74
3.78200	-66
3.78567	-62
3.78933	-62
3.79300	-61
3.79667	-63
3.80033	-68
3.80400	-74
3.80767	-79
3.81133	-80
3.81500	-78
3.81867	-75
3.82233	-73
3.82600	-76
3.82967	-81
3.83333	-85
3.83700	-86
3.84067	-85
3.84433	-82
3.84800	-79
3.85167	-75
3.85533	-75
3.85900	-78
3.86267	-83
3.86633	-88
3.87000	-89
3.87367	-85
3.87733	-81
3.88100	-80
3.88467	-81
3.88833	-83
3.89200	-87
3.89567	-92
3.89933	-96
3.90300	-97
3.90667	-94
3.91033	-92
3.91400	-89
3.91767	-83
3.92133	-78
3.92500	-76
3.92867	-77
3.93233	-79
3.93600	-79
3.93967	-78
3.94333	-76
3.94700	-78
3.95067	-80
3.95433	-86
3.95800	-93
3.96167	-99
3.96533	-99
3.96900	-95
3.97267	-87
3.97633	-83
3.98000	-82
3.98367	-81
3.98733	-82
3.99100	-83
3.99467	-85
3.99833	-89

[Chromatogram (Ch2)]
Interval(msec)	220
# of Points	1091
Start Time(min)	0.002
End Time(min)	3.998
R.Time (min)	Intensity
0.00167	-1
0.00533	-1
0.00900	-1
0.01267	-0
0.01633	-1
0.02000	-1
0.02367	-0
0.02733	-0
0.03100	0
0.03467	0
0.03833	0
0.04200	1
0.04567	1
0.04933	1
0.05300	0
0.05667	0
0.06033	-0
0.06400	-0
0.06767	-0
0.07133	-0
0.07500	-0
0.07867	0
0.08233	0
0.08600	1
0.08967	1
0.09333	1
0.09700	1
0.10067	2
0.10433	2
0.10800	2
0.11167	2
0.11533	2
0.11900	2
0.12267	2
0.12633	2
0.13000	2
0.13367	2
0.13733	1
0.14100	1
0.14467	1
0.14833	1
0.15200	1
0.15567	1
0.15933	1
0.16300	2
0.16667	2
0.17033	2
0.17400	2
0.17767	3
0.18133	3
0.18500	3
0.18867	4
0.19233	4
0.19600	4
0.19967	5
0.20333	5
0.20700	5
0.21067	5
0.21433	5
0.21800	5
0.22167	5
0.22533	5
0.22900	5
0.23267	5
0.23633	5
0.24000	5
0.24367	5
0.24733	5
0.25100	5
0.25467	5
0.25833	4
0.26200	4
0.26567	4
0.26933	3
0.27300	3
0.27667	3
0.28033	3
0.28400	3
0.28767	3
0.29133	3
0.29500	2
0.29867	2
0.30233	1
0.30600	1
0.30967	1
0.31333	1
0.31700	1
0.32067	1
0.32433	1
0.32800	1
0.33167	1
0.33533	1
0.33900	0
0.34267	0
0.34633	-0
0.35000	-1
0.35367	-1
0.35733	-2
0.36100	-2
0.36467	-2
0.36833	-2
0.37200	-2
0.37567	-2
0.37933	-1
0.38300	-1
0.38667	-0
0.39033	0
0.39400	0
0.39767	1
0.40133	1
0.40500	1
0.40867	2
0.41233	2
0.41600	2
0.41967	3
0.42333	3
0.42700	3
0.43067	4
0.43433	4
0.43800	4
0.44167	4
0.44533	4
0.44900	5
0.45267	5
0.45633	5
0.46000	5
0.46367	4
0.46733	4
0.47100	4
0.47467	4
0.47833	4
0.48200	4
0.48567	4
0.48933	4
0.49300	4
0.49667	4
0.50033	4
0.50400	3
0.50767	3
0.51133	3
0.51500	3
0.51867	3
0.52233	3
0.52600	3
0.52967	3
0.53333	3
0.53700	3
0.54067	3
0.54433	2
0.54800	3
0.55167	3
0.55533	2
0.55900	2
0.56267	2
0.56633	2
0.57000	2
0.57367	1
0.57733	1
0.58100	1
0.58467	1
0.58833	1
0.59200	1
0.59567	1
0.59933	1
0.60300	1
0.60667	1
0.61033	1
0.61400	1
0.61767	1
0.62133	2
0.62500	2
0.62867	2
0.63233	2
0.63600	2
0.63967	1
0.64333	1
0.64700	0
0.65067	-0
0.65433	-0
0.65800	-1
0.66167	-0
0.66533	-0
0.66900	0
0.67267	0
0.67633	0
0.68000	0
0.68367	1
0.68733	1
0.69100	1
0.69467	1
0.69833	1
0.70200	1
0.70567	1
0.70933	1
0.71300	1
0.71667	1
0.72033	1
0.72400	1
0.72767	1
0.73133	1
0.73500	1
0.73867	1
0.74233	2
0.74600	2
0.74967	2
0.75333	2
0.75700	2
0.76067	2
0.76433	2
0.76800	2
0.77167	2
0.77533	2
0.77900	2
0.78267	2
0.78633	2
0.79000	2
0.79367	2
0.79733	2
0.80100	1
0.80467	1
0.80833	1
0.81200	1
0.81567	1
0.81933	1
0.82300	1
0.82667	1
0.83033	1
0.83400	1
0.83767	1
0.84133	1
0.84500	1
0.84867	1
0.85233	1
0.85600	2
0.85967	2
0.86333	2
0.86700	2
0.87067	2
0.87433	1
0.87800	1
0.88167	1
0.88533	-0
0.88900	-1
0.89267	-1
0.89633	-1
0.90000	-2
0.90367	-2
0.90733	-2
0.91100	-2
0.91467	-2
0.91833	-2
0.92200	-2
0.92567	-2
0.92933	-2
0.93300	-2
0.93667	-1
0.94033	-1
0.94400	-1
0.94767	-0
0.95133	-0
0.95500	-0
0.95867	-0
0.96233	-0
0.96600	-1
0.96967	-1
0.97333	-1
0.97700	-1
0.98067	-1
0.98433	-1
0.98800	-1
0.99167	-1
0.99533	-1
0.99900	-1
1.00267	-2
1.00633	-2
1.01000	-2
1.01367	-2
1.01733	-2
1.02100	-2
1.02467	-2
1.02833	-3
1.03200	-3
1.03567	-2
1.03933	-2
1.04300	-2
1.04667	-1
1.05033	-0
1.05400	0
1.05767	1
1.06133	1
1.06500	2
1.06867	3
1.07233	3
1.07600	4
1.07967	4
1.08333	4
1.08700	4
1.09067	4
1.09433	4
1.09800	4
1.10167	4
1.10533	4
1.10900	4
1.11267	4
1.11633	4
1.12000	4
1.12367	5
1.12733	5
1.13100	5
1.13467	5
1.13833	6
1.14200	6
1.14567	6
1.14933	6
1.15300	6
1.15667	6
1.16033	5
1.16400	5
1.16767	5
1.17133	4
1.17500	4
1.17867	3
1.18233	3
1.18600	3
1.18967	2
1.19333	2
1.19700	2
1.20067	2
1.20433	2
1.20800	2
1.21167	1
1.21533	1
1.21900	1
1.22267	0
1.22633	0
1.23000	0
1.23367	0
1.23733	-0
1.24100	0
1.24467	0
1.24833	0
1.25200	-0
1.25567	-0
1.25933	-1
1.26300	-1
1.26667	-1
1.27033	-1
1.27400	-1
1.27767	-1
1.28133	-1
1.28500	-1
1.28867	-1
1.29233	-1
1.29600	-1
1.29967	-1
1.30333	-1
1.30700	-1
1.31067	-1
1.31433	-1
1.31800	-1
1.32167	-1
1.32533	-1
1.32900	-1
1.33267	-1
1.33633	-1
1.34000	-1
1.34367	-1
1.34733	-1
1.35100	-1
1.35467	-1
1.35833	-1
1.36200	-1
1.36567	-0
1.36933	-0
1.37300	-0
1.37667	0
1.38033	0
1.38400	0
1.38767	-0
1.39133	-0
1.39500	-0
1.39867	-0
1.40233	-0
1.40600	0
1.40967	0
1.41333	0
1.41700	1
1.42067	1
1.42433	1
1.42800	1
1.43167	1
1.43533	1
1.43900	1
1.44267	1
1.44633	1
1.45000	1
1.45367	1
1.45733	1
1.46100	0
1.46467	0
1.46833	0
1.47200	0
1.47567	0
1.47933	0
1.48300	0
1.48667	0
1.49033	0
1.49400	0
1.49767	-0
1.50133	-0
1.50500	-0
1.50867	-0
1.51233	-0
1.51600	-1
1.51967	-1
1.52333	-1
1.52700	-1
1.53067	-1
1.53433	-1
1.53800	-1
1.54167	-1
1.54533	-1
1.54900	-1
1.55267	-1
1.55633	-1
1.56000	-1
1.56367	-1
1.56733	-1
1.57100	-1
1.57467	-1
1.57833	-2
1.58200	-2
1.58567	-2
1.58933	-2
1.59300	-2
1.59667	-3
1.60033	-3
1.60400	-4
1.60767	-5
1.61133	-6
1.61500	-8
1.61867	-10
1.62233	-13
1.62600	-15
1.62967	-18
1.63333	-21
1.63700	-24
1.64067	-28
1.64433	-31
1.64800	-35
1.65167	-39
1.65533	-44
1.65900	-48
1.66267	-53
1.66633	-57
1.67000	-62
1.67367	-68
1.67733	-73
1.68100	-78
1.68467	-82
1.68833	-86
1.69200	-90
1.69567	-93
1.69933	-96
1.70300	-99
1.70667	-102
1.71033	-104
1.71400	-106
1.71767	-107
1.72133	-109
1.72500	-110
1.72867	-111
1.73233	-112
1.73600	-113
1.73967	-113
1.74333	-114
1.74700	-114
1.75067	-115
1.75433	-114
1.75800	-114
1.76167	-114
1.76533	-115
1.76900	-115
1.77267	-115
1.77633	-116
1.78000	-116
1.78367	-116
1.78733	-117
1.79100	-118
1.79467	-119
1.79833	-120
1.80200	-121
1.80567	-122
1.80933	-122
1.81300	-121
1.81667	-121
1.82033	-121
1.82400	-121
1.82767	-122
1.83133	-122
1.83500	-123
1.83867	-123
1.84233	-123
1.84600	-122
1.84967	-122
1.85333	-121
1.85700	-121
1.86067	-121
1.86433	-120
1.86800	-120
1.87167	-119
1.87533	-119
1.87900	-118
1.88267	-118
1.88633	-118
1.89000	-118
1.89367	-119
1.89733	-119
1.90100	-120
1.90467	-120
1.90833	-120
1.91200	-120
1.91567	-120
1.91933	-120
1.92300	-119
1.92667	-119
1.93033	-119
1.93400	-118
1.93767	-118
1.94133	-117
1.94500	-116
1.94867	-115
1.95233	-115
1.95600	-115
1.95967	-115
1.96333	-115
1.96700	-115
1.97067	-115
1.97433	-115
1.97800	-115
1.98167	-114
1.98533	-114
1.98900	-114
1.99267	-113
1.99633	-113
2.00000	-112
2.00367	-112
2.00733	-112
2.01100	-112
2.01467	-112
2.01833	-112
2.02200	-112
2.02567	-112
2.02933	-112
2.03300	-112
2.03667	-111
2.04033	-111
2.04400	-111
2.04767	-110
2.05133	-110
2.05500	-110
2.05867	-109
2.06233	-109
2.06600	-108
2.06967	-108
2.07333	-107
2.07700	-107
2.08067	-106
2.08433	-106
2.08800	-106
2.09167	-105
2.09533	-105
2.09900	-106
2.10267	-106
2.10633	-106
2.11000	-106
2.11367	-105
2.11733	-105
2.12100	-105
2.12467	-105
2.12833	-104
2.13200	-103
2.13567	-103
2.13933	-102
2.14300	-102
2.14667	-101
2.15033	-101
2.15400	-100
2.15767	-100
2.16133	-100
2.16500	-100
2.16867	-99
2.17233	-99
2.17600	-98
2.17967	-98
2.18333	-98
2.18700	-97
2.19067	-98
2.19433	-98
2.19800	-98
2.20167	-97
2.20533	-97
2.20900	-96
2.21267	-96
2.21633	-96
2.22000	-96
2.22367	-95
2.22733	-95
2.23100	-94
2.23467	-93
2.23833	-93
2.24200	-92
2.24567	-92
2.24933	-92
2.25300	-93
2.25667	-93
2.26033	-94
2.26400	-94
2.26767	-94
2.27133	-93
2.27500	-93
2.27867	-92
2.28233	-92
2.28600	-91
2.28967	-91
2.29333	-90
2.29700	-90
2.30067	-89
2.30433	-89
2.30800	-88
2.31167	-88
2.31533	-88
2.31900	-89
2.32267	-89
2.32633	-89
2.33000	-90
2.33367	-90
2.33733	-90
2.34100	-89
2.34467	-88
2.34833	-88
2.35200	-86
2.35567	-85
2.35933	-84
2.36300	-82
2.36667	-81
2.37033	-79
2.37400	-76
2.37767	-73
2.38133	-70
2.38500	-66
2.38867	-62
2.39233	-57
2.39600	-53
2.39967	-48
2.40333	-44
2.40700	-40
2.41067	-36
2.41433	-33
2.41800	-30
2.42167	-27
2.42533	-24
2.42900	-22
2.43267	-19
2.43633	-17
2.44000	-15
2.44367	-13
2.44733	-11
2.45100	-10
2.45467	-8
2.45833	-6
2.46200	-4
2.46567	-3
2.46933	-1
2.47300	-0
2.47667	1
2.48033	2
2.48400	2
2.48767	3
2.49133	4
2.49500	4
2.49867	5
2.50233	6
2.50600	7
2.50967	8
2.51333	9
2.51700	9
2.52067	10
2.52433	10
2.52800	11
2.53167	11
2.53533	11
2.53900	12
2.54267	12
2.54633	12
2.55000	13
2.55367	13
2.55733	14
2.56100	14
2.56467	15
2.56833	15
2.57200	15
2.57567	15
2.57933	14
2.58300	14
2.58667	15
2.59033	15
2.59400	15
2.59767	15
2.60133	15
2.60500	15
2.60867	16
2.61233	16
2.61600	16
2.61967	16
2.62333	16
2.62700	17
2.63067	17
2.63433	17
2.63800	17
2.64167	17
2.64533	17
2.64900	17
2.65267	18
2.65633	18
2.66000	18
2.66367	18
2.66733	19
2.67100	19
2.67467	19
2.67833	19
2.68200	19
2.68567	20
2.68933	19
2.69300	19
2.69667	19
2.70033	19
2.70400	19
2.70767	20
2.71133	20
2.71500	20
2.71867	21
2.72233	21
2.72600	22
2.72967	22
2.73333	22
2.73700	23
2.74067	23
2.74433	23
2.74800	23
2.75167	23
2.75533	23
2.75900	23
2.76267	23
2.76633	23
2.77000	24
2.77367	24
2.77733	24
2.78100	24
2.78467	24
2.78833	24
2.79200	24
2.79567	25
2.79933	25
2.80300	25
2.80667	25
2.81033	25
2.81400	25
2.81767	25
2.82133	25
2.82500	24
2.82867	24
2.83233	24
2.83600	24
2.83967	24
2.84333	24
2.84700	23
2.85067	22
2.85433	20
2.85800	16
2.86167	10
2.86533	0
2.86900	-12
2.87267	-29
2.87633	-50
2.88000	-75
2.88367	-103
2.88733	-136
2.89100	-172
2.89467	-212
2.89833	-254
2.90200	-299
2.90567	-346
2.90933	-395
2.91300	-445
2.91667	-495
2.92033	-546
2.92400	-597
2.92767	-647
2.93133	-697
2.93500	-746
2.93867	-795
2.94233	-847
2.94600	-904
2.94967	-967
2.95333	-1026
2.95700	-1071
2.96067	-1092
2.96433	-1086
2.96800	-1056
2.97167	-1004
2.97533	-938
2.97900	-863
2.98267	-783
2.98633	-703
2.99000	-625
2.99367	-552
2.99733	-483
3.00100	-421
3.00467	-364
3.00833	-314
3.01200	-270
3.01567	-231
3.01933	-197
3.02300	-167
3.02667	-142
3.03033	-119
3.03400	-100
3.03767	-84
3.04133	-70
3.04500	-58
3.04867	-48
3.05233	-39
3.05600	-32
3.05967	-25
3.06333	-20
3.06700	-15
3.07067	-11
3.07433	-8
3.07800	-5
3.08167	-2
3.08533	-0
3.08900	2
3.09267	3
3.09633	5
3.10000	6
3.10367	7
3.10733	9
3.11100	10
3.11467	10
3.11833	11
3.12200	12
3.12567	13
3.12933	14
3.13300	14
3.13667	14
3.14033	15
3.14400	15
3.14767	15
3.15133	16
3.15500	16
3.15867	16
3.16233	17
3.16600	17
3.16967	18
3.17333	18
3.17700	19
3.18067	19
3.18433	20
3.18800	20
3.19167	20
3.19533	20
3.19900	21
3.20267	21
3.20633	21
3.21000	21
3.21367	22
3.21733	22
3.22100	23
3.22467	23
3.22833	23
3.23200	23
3.23567	23
3.23933	23
3.24300	23
3.24667	23
3.25033	23
3.25400	23
3.25767	24
3.26133	24
3.26500	24
3.26867	24
3.27233	24
3.27600	25
3.27967	25
3.28333	25
3.28700	25
3.29067	25
3.29433	25
3.29800	25
3.30167	25
3.30533	25
3.30900	25
3.31267	25
3.31633	25
3.32000	25
3.32367	26
3.32733	26
3.33100	26
3.33467	26
3.33833	26
3.34200	26
3.34567	26
3.34933	26
3.35300	26
3.35667	26
3.36033	26
3.36400	26
3.36767	26
3.37133	26
3.37500	26
3.37867	26
3.38233	26
3.38600	26
3.38967	26
3.39333	26
3.39700	26
3.40067	26
3.40433	26
3.40800	26
3.41167	26
3.41533	26
3.41900	26
3.42267	26
3.42633	26
3.43000	26
3.43367	26
3.43733	26
3.44100	26
3.44467	26
3.44833	26
3.45200	26
3.45567	25
3.45933	25
3.46300	26
3.46667	26
3.47033	26
3.47400	26
3.47767	25
3.48133	25
3.48500	25
3.48867	25
3.49233	25
3.49600	25
3.49967	25
3.50333	25
3.50700	25
3.51067	25
3.51433	25
3.51800	26
3.52167	26
3.52533	26
3.52900	26
3.53267	26
3.53633	26
3.54000	26
3.54367	27
3.54733	27
3.55100	27
3.55467	27
3.55833	27
3.56200	27
3.56567	26
3.56933	26
3.57300	26
3.57667	26
3.58033	26
3.58400	26
3.58767	26
3.59133	26
3.59500	26
3.59867	26
3.60233	26
3.60600	26
3.60967	26
3.61333	26
3.61700	26
3.62067	26
3.62433	26
3.62800	26
3.63167	26
3.63533	25
3.63900	25
3.64267	25
3.64633	25
3.65000	25
3.65367	25
3.65733	25
3.66100	25
3.66467	26
3.66833	26
3.67200	26
3.67567	26
3.67933	26
3.68300	27
3.68667	27
3.69033	27
3.69400	28
3.69767	28
3.70133	28
3.70500	28
3.70867	28
3.71233	28
3.71600	28
3.71967	27
3.72333	27
3.72700	27
3.73067	27
3.73433	26
3.73800	26
3.74167	26
3.74533	26
3.74900	26
3.75267	26
3.75633	26
3.76000	26
3.76367	26
3.76733	26
3.77100	27
3.77467	27
3.77833	27
3.78200	27
3.78567	27
3.78933	27
3.79300	27
3.79667	27
3.80033	27
3.80400	27
3.80767	27
3.81133	27
3.81500	27
3.81867	27
3.82233	27
3.82600	27
3.82967	27
3.83333	27
3.83700	26
3.84067	26
3.84433	26
3.84800	26
3.85167	26
3.85533	26
3.85900	27
3.86267	27
3.86633	27
3.87000	27
3.87367	27
3.87733	27
3.88100	27
3.88467	27
3.88833	27
3.89200	27
3.89567	26
3.89933	26
3.90300	26
3.90667	26
3.91033	25
3.91400	25
3.91767	26
3.92133	26
3.92500	26
3.92867	26
3.93233	25
3.93600	25
3.93967	25
3.94333	25
3.94700	25
3.95067	25
3.95433	26
3.95800	26
3.96167	26
3.96533	26
3.96900	25
3.97267	25
3.97633	25
3.98000	25
3.98367	25
3.98733	25
3.99100	26
3.99467	26
3.99833	26

[Chromatogram (Ch3)]
Interval(msec)	220
# of Points	1091
Start Time(min)	0.002
End Time(min)	3.998
R.Time (min)	Intensity
0.00167	-1
0.00533	-1
0.00900	1
0.01267	1
0.01633	-1
0.02000	-0
0.02367	-0
0.02733	-0
0.03100	-1
0.03467	-0
0.03833	2
0.04200	3
0.04567	1
0.04933	0
0.05300	-0
0.05667	-0
0.06033	0
0.06400	2
0.06767	3
0.07133	3
0.07500	3
0.07867	4
0.08233	4
0.08600	3
0.08967	3
0.09333	2
0.09700	1
0.10067	-1
0.10433	0
0.10800	2
0.11167	3
0.11533	4
0.11900	6
0.12267	7
0.12633	7
0.13000	7
0.13367	6
0.13733	6
0.14100	9
0.14467	12
0.14833	14
0.15200	14
0.15567	13
0.15933	15
0.16300	16
0.16667	14
0.17033	12
0.17400	10
0.17767	7
0.18133	5
0.18500	5
0.18867	5
0.19233	6
0.19600	7
0.19967	9
0.20333	9
0.20700	10
0.21067	9
0.21433	8
0.21800	7
0.22167	7
0.22533	6
0.22900	8
0.23267	8
0.23633	8
0.24000	10
0.24367	10
0.24733	8
0.25100	8
0.25467	8
0.25833	10
0.26200	12
0.26567	14
0.26933	13
0.27300	13
0.27667	12
0.28033	11
0.28400	11
0.28767	11
0.29133	12
0.29500	11
0.29867	12
0.30233	14
0.30600	14
0.30967	12
0.31333	9
0.31700	10
0.32067	12
0.32433	13
0.32800	15
0.33167	18
0.33533	20
0.33900	22
0.34267	21
0.34633	18
0.35000	17
0.35367	17
0.35733	18
0.36100	19
0.36467	23
0.36833	28
0.37200	29
0.37567	29
0.37933	29
0.38300	29
0.38667	28
0.39033	28
0.39400	26
0.39767	23
0.40133	21
0.40500	19
0.40867	19
0.41233	20
0.41600	20
0.41967	20
0.42333	22
0.42700	24
0.43067	24
0.43433	25
0.43800	27
0.44167	28
0.44533	29
0.44900	29
0.45267	27
0.45633	26
0.46000	26
0.46367	24
0.46733	23
0.47100	24
0.47467	25
0.47833	27
0.48200	27
0.48567	25
0.48933	24
0.49300	24
0.49667	24
0.50033	24
0.50400	25
0.50767	27
0.51133	28
0.51500	29
0.51867	31
0.52233	31
0.52600	31
0.52967	31
0.53333	32
0.53700	31
0.54067	33
0.54433	34
0.54800	34
0.55167	33
0.55533	32
0.55900	34
0.56267	34
0.56633	34
0.57000	34
0.57367	32
0.57733	32
0.58100	34
0.58467	34
0.58833	32
0.59200	31
0.59567	32
0.59933	33
0.60300	33
0.60667	34
0.61033	36
0.61400	38
0.61767	38
0.62133	39
0.62500	40
0.62867	39
0.63233	37
0.63600	36
0.63967	36
0.64333	37
0.64700	36
0.65067	36
0.65433	39
0.65800	44
0.66167	46
0.66533	47
0.66900	48
0.67267	48
0.67633	46
0.68000	42
0.68367	39
0.68733	40
0.69100	43
0.69467	43
0.69833	43
0.70200	42
0.70567	41
0.70933	41
0.71300	43
0.71667	45
0.72033	46
0.72400	50
0.72767	52
0.73133	53
0.73500	52
0.73867	50
0.74233	49
0.74600	50
0.74967	53
0.75333	54
0.75700	52
0.76067	50
0.76433	46
0.76800	46
0.77167	48
0.77533	48
0.77900	47
0.78267	46
0.78633	46
0.79000	46
0.79367	46
0.79733	49
0.80100	52
0.80467	53
0.80833	53
0.81200	53
0.81567	52
0.81933	52
0.82300	54
0.82667	55
0.83033	55
0.83400	54
0.83767	53
0.84133	52
0.84500	53
0.84867	53
0.85233	53
0.85600	53
0.85967	53
0.86333	54
0.86700	54
0.87067	55
0.87433	52
0.87800	51
0.88167	50
0.88533	50
0.88900	49
0.89267	49
0.89633	51
0.90000	53
0.90367	55
0.90733	56
0.91100	54
0.91467	53
0.91833	54
0.92200	52
0.92567	50
0.92933	49
0.93300	52
0.93667	54
0.94033	54
0.94400	56
0.94767	55
0.95133	53
0.95500	51
0.95867	50
0.96233	50
0.96600	52
0.96967	54
0.97333	55
0.97700	57
0.98067	57
0.98433	57
0.98800	55
0.99167	57
0.99533	61
0.99900	63
1.00267	63
1.00633	63
1.01000	63
1.01367	63
1.01733	64
1.02100	65
1.02467	66
1.02833	67
1.03200	67
1.03567	66
1.03933	64
1.04300	64
1.04667	63
1.05033	64
1.05400	65
1.05767	64
1.06133	63
1.06500	64
1.06867	66
1.07233	67
1.07600	66
1.07967	66
1.08333	66
1.08700	66
1.09067	67
1.09433	68
1.09800	68
1.10167	67
1.10533	65
1.10900	64
1.11267	65
1.11633	65
1.12000	65
1.12367	64
1.12733	63
1.13100	62
1.13467	61
1.13833	60
1.14200	62
1.14567	63
1.14933	66
1.15300	67
1.15667	67
1.16033	67
1.16400	70
1.16767	70
1.17133	68
1.17500	66
1.17867	65
1.18233	65
1.18600	67
1.18967	68
1.19333	66
1.19700	65
1.20067	65
1.20433	65
1.20800	65
1.21167	67
1.21533	66
1.21900	64
1.22267	63
1.22633	64
1.23000	64
1.23367	64
1.23733	63
1.24100	62
1.24467	61
1.24833	61
1.25200	64
1.25567	66
1.25933	66
1.26300	67
1.26667	65
1.27033	64
1.27400	65
1.27767	64
1.28133	67
1.28500	69
1.28867	69
1.29233	66
1.29600	65
1.29967	68
1.30333	68
1.30700	69
1.31067	68
1.31433	65
1.31800	65
1.32167	64
1.32533	63
1.32900	63
1.33267	62
1.33633	62
1.34000	62
1.34367	64
1.34733	64
1.35100	66
1.35467	68
1.35833	70
1.36200	70
1.36567	69
1.36933	68
1.37300	68
1.37667	69
1.38033	71
1.38400	70
1.38767	70
1.39133	70
1.39500	67
1.39867	67
1.40233	67
1.40600	66
1.40967	65
1.41333	65
1.41700	66
1.42067	66
1.42433	67
1.42800	68
1.43167	68
1.43533	67
1.43900	68
1.44267	68
1.44633	68
1.45000	69
1.45367	69
1.45733	69
1.46100	71
1.46467	71
1.46833	69
1.47200	69
1.47567	70
1.47933	71
1.48300	72
1.48667	71
1.49033	70
1.49400	68
1.49767	67
1.50133	67
1.50500	68
1.50867	71
1.51233	73
1.51600	74
1.51967	75
1.52333	77
1.52700	80
1.53067	79
1.53433	75
1.53800	73
1.54167	74
1.54533	74
1.54900	74
1.55267	75
1.55633	77
1.56000	80
1.56367	81
1.56733	81
1.57100	80
1.57467	78
1.57833	79
1.58200	82
1.58567	80
1.58933	79
1.59300	79
1.59667	79
1.60033	81
1.60400	83
1.60767	84
1.61133	83
1.61500	83
1.61867	84
1.62233	85
1.62600	84
1.62967	84
1.63333	85
1.63700	86
1.64067	87
1.64433	88
1.64800	88
1.65167	89
1.65533	91
1.65900	93
1.66267	96
1.66633	98
1.67000	98
1.67367	98
1.67733	98
1.68100	99
1.68467	101
1.68833	103
1.69200	103
1.69567	101
1.69933	99
1.70300	99
1.70667	101
1.71033	102
1.71400	103
1.71767	103
1.72133	104
1.72500	106
1.72867	106
1.73233	107
1.73600	109
1.73967	109
1.74333	109
1.74700	109
1.75067	109
1.75433	112
1.75800	116
1.76167	119
1.76533	120
1.76900	120
1.77267	120
1.77633	119
1.78000	120
1.78367	121
1.78733	121
1.79100	121
1.79467	125
1.79833	126
1.80200	129
1.80567	130
1.80933	130
1.81300	129
1.81667	129
1.82033	129
1.82400	131
1.82767	136
1.83133	136
1.83500	135
1.83867	134
1.84233	133
1.84600	136
1.84967	138
1.85333	138
1.85700	138
1.86067	136
1.86433	134
1.86800	135
1.87167	136
1.87533	136
1.87900	136
1.88267	135
1.88633	137
1.89000	137
1.89367	137
1.89733	137
1.90100	137
1.90467	136
1.90833	137
1.91200	140
1.91567	140
1.91933	142
1.92300	143
1.92667	145
1.93033	145
1.93400	148
1.93767	150
1.94133	150
1.94500	149
1.94867	150
1.95233	153
1.95600	156
1.95967	158
1.96333	160
1.96700	162
1.97067	164
1.97433	165
1.97800	165
1.98167	163
1.98533	163
1.98900	164
1.99267	164
1.99633	162
2.00000	163
2.00367	163
2.00733	164
2.01100	166
2.01467	168
2.01833	170
2.02200	174
2.02567	176
2.02933	177
2.03300	180
2.03667	182
2.04033	183
2.04400	184
2.04767	189
2.05133	190
2.05500	189
2.05867	191
2.06233	193
2.06600	196
2.06967	197
2.07333	196
2.07700	195
2.08067	196
2.08433	196
2.08800	197
2.09167	199
2.09533	203
2.09900	207
2.10267	211
2.10633	214
2.11000	215
2.11367	215
2.11733	217
2.12100	220
2.12467	224
2.12833	226
2.13200	227
2.13567	227
2.13933	228
2.14300	229
2.14667	233
2.15033	236
2.15400	236
2.15767	236
2.16133	239
2.16500	242
2.16867	242
2.17233	244
2.17600	244
2.17967	246
2.18333	248
2.18700	250
2.19067	253
2.19433	255
2.19800	255
2.20167	256
2.20533	257
2.20900	257
2.21267	256
2.21633	255
2.22000	255
2.22367	255
2.22733	258
2.23100	260
2.23467	263
2.23833	266
2.24200	270
2.24567	272
2.24933	272
2.25300	271
2.25667	272
2.26033	274
2.26400	276
2.26767	277
2.27133	278
2.27500	279
2.27867	279
2.28233	281
2.28600	284
2.28967	286
2.29333	286
2.29700	286
2.30067	289
2.30433	293
2.30800	292
2.31167	293
2.31533	293
2.31900	294
2.32267	296
2.32633	298
2.33000	300
2.33367	302
2.33733	303
2.34100	302
2.34467	302
2.34833	302
2.35200	302
2.35567	302
2.35933	303
2.36300	306
2.36667	306
2.37033	304
2.37400	304
2.37767	307
2.38133	310
2.38500	309
2.38867	308
2.39233	309
2.39600	310
2.39967	313
2.40333	312
2.40700	310
2.41067	310
2.41433	311
2.41800	311
2.42167	312
2.42533	314
2.42900	316
2.43267	319
2.43633	320
2.44000	322
2.44367	324
2.44733	323
2.45100	312
2.45467	293
2.45833	270
2.46200	246
2.46567	228
2.46933	214
2.47300	204
2.47667	197
2.48033	191
2.48400	185
2.48767	181
2.49133	175
2.49500	171
2.49867	166
2.50233	161
2.50600	159
2.50967	156
2.51333	152
2.51700	147
2.52067	145
2.52433	144
2.52800	142
2.53167	138
2.53533	135
2.53900	131
2.54267	129
2.54633	128
2.55000	129
2.55367	129
2.55733	126
2.56100	123
2.56467	120
2.56833	116
2.57200	113
2.57567	110
2.57933	108
2.58300	105
2.58667	104
2.59033	102
2.59400	100
2.59767	97
2.60133	95
2.60500	89
2.60867	77
2.61233	58
2.61600	31
2.61967	-2
2.62333	-42
2.62700	-82
2.63067	-119
2.63433	-150
2.63800	-177
2.64167	-198
2.64533	-215
2.64900	-225
2.65267	-229
2.65633	-229
2.66000	-227
2.66367	-220
2.66733	-212
2.67100	-204
2.67467	-196
2.67833	-186
2.68200	-178
2.68567	-169
2.68933	-158
2.69300	-147
2.69667	-135
2.70033	-121
2.70400	-110
2.70767	-101
2.71133	-92
2.71500	-85
2.71867	-80
2.72233	-74
2.72600	-67
2.72967	-59
2.73333	-51
2.73700	-44
2.74067	-37
2.74433	-29
2.74800	-22
2.75167	-16
2.75533	-11
2.75900	-6
2.76267	-11
2.76633	-28
2.77000	-31
2.77367	-8
2.77733	45
2.78100	121
2.78467	210
2.78833	303
2.79200	396
2.79567	482
2.79933	561
2.80300	633
2.80667	698
2.81033	761
2.81400	819
2.81767	868
2.82133	911
2.82500	951
2.82867	990
2.83233	1033
2.83600	1090
2.83967	1175
2.84333	1309
2.84700	1517
2.85067	1813
2.85433	2210
2.85800	2698
2.86167	3259
2.86533	3856
2.86900	4443
2.87267	4976
2.87633	5411
2.88000	5715
2.88367	5876
2.88733	5895
2.89100	5790
2.89467	5584
2.89833	5304
2.90200	4981
2.90567	4635
2.90933	4284
2.91300	3940
2.91667	3613
2.92033	3313
2.92400	3042
2.92767	2797
2.93133	2576
2.93500	2379
2.93867	2207
2.94233	2054
2.94600	1919
2.94967	1802
2.95333	1700
2.95700	1611
2.96067	1534
2.96433	1468
2.96800	1410
2.97167	1361
2.97533	1318
2.97900	1279
2.98267	1245
2.98633	1217
2.99000	1195
2.99367	1173
2.99733	1153
3.00100	1136
3.00467	1122
3.00833	1110
3.01200	1103
3.01567	1097
3.01933	1090
3.02300	1082
3.02667	1076
3.03033	1071
3.03400	1066
3.03767	1059
3.04133	1052
3.04500	1048
3.04867	1044
3.05233	1041
3.05600	1037
3.05967	1033
3.06333	1027
3.06700	1023
3.07067	1022
3.07433	1023
3.07800	1024
3.08167	1023
3.08533	1020
3.08900	1015
3.09267	1013
3.09633	1011
3.10000	1006
3.10367	1002
3.10733	998
3.11100	996
3.11467	996
3.11833	996
3.12200	995
3.12567	992
3.12933	989
3.13300	987
3.13667	986
3.14033	985
3.14400	983
3.14767	982
3.15133	982
3.15500	981
3.15867	979
3.16233	975
3.16600	972
3.16967	970
3.17333	967
3.17700	962
3.18067	960
3.18433	959
3.18800	957
3.19167	954
3.19533	951
3.19900	948
3.20267	943
3.20633	939
3.21000	935
3.21367	931
3.21733	928
3.22100	926
3.22467	919
3.22833	913
3.23200	908
3.23567	904
3.23933	900
3.24300	893
3.24667	887
3.25033	880
3.25400	874
3.25767	870
3.26133	869
3.26500	869
3.26867	866
3.27233	861
3.27600	853
3.27967	846
3.28333	842
3.28700	838
3.29067	834
3.29433	828
3.29800	819
3.30167	810
3.30533	802
3.30900	797
3.31267	795
3.31633	794
3.32000	791
3.32367	789
3.32733	788
3.33100	785
3.33467	782
3.33833	780
3.34200	775
3.34567	768
3.34933	765
3.35300	761
3.35667	756
3.36033	751
3.36400	748
3.36767	743
3.37133	739
3.37500	735
3.37867	731
3.38233	726
3.38600	723
3.38967	720
3.39333	717
3.39700	711
3.40067	707
3.40433	703
3.40800	700
3.41167	698
3.41533	695
3.41900	692
3.42267	689
3.42633	687
3.43000	685
3.43367	682
3.43733	677
3.44100	669
3.44467	662
3.44833	661
3.45200	660
3.45567	659
3.45933	656
3.46300	655
3.46667	654
3.47033	654
3.47400	651
3.47767	645
3.48133	638
3.48500	632
3.48867	628
3.49233	624
3.49600	620
3.49967	618
3.50333	616
3.50700	613
3.51067	610
3.51433	607
3.51800	604
3.52167	601
3.52533	600
3.52900	598
3.53267	596
3.53633	595
3.54000	593
3.54367	592
3.54733	590
3.55100	585
3.55467	581
3.55833	579
3.56200	577
3.56567	577
3.56933	578
3.57300	577
3.57667	576
3.58033	575
3.58400	572
3.58767	572
3.59133	571
3.59500	567
3.59867	564
3.60233	561
3.60600	558
3.60967	556
3.61333	554
3.61700	553
3.62067	551
3.62433	549
3.62800	547
3.63167	544
3.63533	542
3.63900	541
3.64267	540
3.64633	539
3.65000	536
3.65367	534
3.65733	532
3.66100	532
3.66467	531
3.66833	527
3.67200	523
3.67567	520
3.67933	520
3.68300	520
3.68667	517
3.69033	516
3.69400	516
3.69767	516
3.70133	515
3.70500	511
3.70867	505
3.71233	503
3.71600	499
3.71967	497
3.72333	496
3.72700	492
3.73067	488
3.73433	485
3.73800	484
3.74167	482
3.74533	479
3.74900	478
3.75267	476
3.75633	471
3.76000	469
3.76367	468
3.76733	467
3.77100	465
3.77467	462
3.77833	459
3.78200	459
3.78567	458
3.78933	458
3.79300	458
3.79667	457
3.80033	455
3.80400	452
3.80767	451
3.81133	450
3.81500	448
3.81867	443
3.82233	440
3.82600	437
3.82967	433
3.83333	432
3.83700	432
3.84067	430
3.84433	431
3.84800	429
3.85167	427
3.85533	425
3.85900	423
3.86267	422
3.86633	424
3.87000	425
3.87367	425
3.87733	424
3.88100	421
3.88467	419
3.88833	418
3.89200	417
3.89567	416
3.89933	415
3.90300	414
3.90667	412
3.91033	411
3.91400	409
3.91767	408
3.92133	406
3.92500	403
3.92867	401
3.93233	399
3.93600	398
3.93967	395
3.94333	393
3.94700	393
3.95067	394
3.95433	394
3.95800	392
3.96167	387
3.96533	384
3.96900	382
3.97267	382
3.97633	381
3.98000	379
3.98367	376
3.98733	374
3.99100	373
3.99467	372
3.99833	371

[Status Trace (Column Oven Temperature)]
Interval(msec)	1000
# of Points	240
Start Time(min)	0.009
End Time(min)	3.992
Intensity Units	
Intensity Multiplier	1
R.Time (min)	Intensity
0.00895	35.03
0.02562	35.03
0.04228	35.04
0.05895	35.05
0.07562	35.04
0.09228	35.05
0.10895	35.05
0.12562	35.05
0.14228	35.05
0.15895	35.05
0.17562	35.04
0.19228	35.02
0.20895	35.00
0.22562	34.99
0.24228	34.98
0.25895	34.99
0.27562	34.97
0.29228	34.97
0.30895	34.99
0.32562	35.00
0.34228	35.02
0.35895	35.03
0.37562	35.03
0.39228	35.03
0.40895	35.01
0.42562	35.00
0.44228	35.00
0.45895	34.99
0.47562	34.99
0.49228	34.98
0.50895	34.99
0.52562	34.98
0.54228	34.98
0.55895	34.98
0.57562	34.99
0.59228	34.99
0.60895	34.99
0.62562	34.99
0.64228	35.00
0.65895	35.01
0.67562	35.00
0.69228	35.00
0.70895	35.00
0.72562	35.00
0.74228	35.00
0.75895	34.99
0.77562	34.99
0.79228	35.00
0.80895	35.00
0.82562	35.00
0.84228	35.00
0.85895	34.99
0.87562	35.00
0.89228	35.02
0.90895	35.02
0.92562	35.02
0.94228	35.02
0.95895	35.03
0.97562	35.04
0.99228	35.04
1.00895	35.05
1.02562	35.05
1.04228	35.05
1.05895	35.02
1.07562	35.00
1.09228	35.01
1.10895	34.99
1.12562	34.97
1.14228	34.96
1.15895	34.95
1.17562	34.95
1.19228	34.94
1.20895	34.95
1.22562	34.96
1.24228	34.97
1.25895	34.96
1.27562	34.97
1.29228	34.97
1.30895	34.97
1.32562	34.97
1.34228	34.97
1.35895	34.97
1.37562	34.97
1.39228	34.97
1.40895	34.96
1.42562	34.95
1.44228	34.96
1.45895	34.96
1.47562	34.97
1.49228	34.97
1.50895	34.98
1.52562	34.98
1.54228	34.99
1.55895	34.99
1.57562	34.99
1.59228	35.00
1.60895	35.05
1.62562	35.17
1.64228	35.36
1.65895	35.64
1.67562	35.99
1.69228	36.35
1.70895	36.71
1.72562	37.05
1.74228	37.39
1.75895	37.70
1.77562	38.02
1.79228	38.37
1.80895	38.71
1.82562	39.04
1.84228	39.37
1.85895	39.70
1.87562	40.02
1.89228	40.36
1.90895	40.69
1.92562	41.02
1.94228	41.32
1.95895	41.65
1.97562	41.98
1.99228	42.30
2.00895	42.63
2.02562	42.96
2.04228	43.29
2.05895	43.60
2.07562	43.91
2.09228	44.25
2.10895	44.58
2.12562	44.91
2.14228	45.23
2.15895	45.56
2.17562	45.88
2.19228	46.22
2.20895	46.55
2.22562	46.88
2.24228	47.20
2.25895	47.55
2.27562	47.87
2.29228	48.19
2.30895	48.52
2.32562	48.89
2.34228	49.21
2.35895	49.46
2.37562	49.60
2.39228	49.63
2.40895	49.63
2.42562	49.64
2.44228	49.66
2.45895	49.66
2.47562	49.68
2.49228	49.69
2.50895	49.70
2.52562	49.71
2.54228	49.73
2.55895	49.73
2.57562	49.75
2.59228	49.76
2.60895	49.77
2.62562	49.79
2.64228	49.81
2.65895	49.82
2.67562	49.83
2.69228	49.85
2.70895	49.86
2.72562	49.85
2.74228	49.85
2.75895	49.86
2.77562	49.87
2.79228	49.86
2.80895	49.86
2.82562	49.88
2.84228	49.88
2.85895	49.89
2.87562	49.89
2.89228	49.92
2.90895	49.94
2.92562	49.98
2.94228	49.99
2.95895	50.01
2.97562	50.01
2.99228	50.02
3.00895	50.04
3.02562	50.04
3.04228	50.04
3.05895	50.06
3.07562	50.08
3.09228	50.09
3.10895	50.10
3.12562	50.10
3.14228	50.11
3.15895	50.10
3.17562	50.10
3.19228	50.09
3.20895	50.08
3.22562	50.08
3.24228	50.07
3.25895	50.07
3.27562	50.07
3.29228	50.05
3.30895	50.05
3.32562	50.04
3.34228	50.05
3.35895	50.06
3.37562	50.05
3.39228	50.05
3.40895	50.05
3.42562	50.06
3.44228	50.07
3.45895	50.06
3.47562	50.06
3.49228	50.06
3.50895	50.06
3.52562	50.06
3.54228	50.06
3.55895	50.06
3.57562	50.06
3.59228	50.06
3.60895	50.08
3.62562	50.09
3.64228	50.09
3.65895	50.09
3.67562	50.09
3.69228	50.08
3.70895	50.09
3.72562	50.10
3.74228	50.10
3.75895	50.10
3.77562	50.09
3.79228	50.08
3.80895	50.08
3.82562	50.08
3.84228	50.08
3.85895	50.07
3.87562	50.07
3.89228	50.08
3.90895	50.08
3.92562	50.08
3.94228	50.09
3.95895	50.09
3.97562	50.08
3.99228	50.08

[Status Trace (Injection Unit Temperature)]
Interval(msec)	1000
# of Points	240
Start Time(min)	0.009
End Time(min)	3.992
Intensity Units	
Intensity Multiplier	1
R.Time (min)	Intensity
0.00895	99.98
0.02562	99.98
0.04228	99.98
0.05895	99.98
0.07562	99.98
0.09228	99.98
0.10895	99.98
0.12562	99.98
0.14228	99.98
0.15895	99.98
0.17562	99.98
0.19228	99.98
0.20895	99.98
0.22562	99.98
0.24228	99.99
0.25895	99.98
0.27562	99.98
0.29228	99.98
0.30895	99.98
0.32562	99.98
0.34228	99.98
0.35895	99.98
0.37562	99.98
0.39228	99.98
0.40895	99.98
0.42562	99.98
0.44228	99.98
0.45895	99.98
0.47562	99.98
0.49228	99.98
0.50895	99.98
0.52562	99.98
0.54228	99.98
0.55895	99.98
0.57562	99.98
0.59228	99.98
0.60895	99.98
0.62562	99.98
0.64228	99.98
0.65895	99.98
0.67562	99.97
0.69228	99.98
0.70895	99.98
0.72562	99.98
0.74228	99.98
0.75895	99.98
0.77562	99.98
0.79228	99.98
0.80895	99.98
0.82562	99.97
0.84228	99.98
0.85895	99.98
0.87562	99.98
0.89228	99.98
0.90895	99.98
0.92562	99.98
0.94228	99.98
0.95895	99.97
0.97562	99.98
0.99228	99.98
1.00895	99.97
1.02562	99.98
1.04228	99.98
1.05895	99.98
1.07562	99.98
1.09228	99.98
1.10895	99.98
1.12562	99.98
1.14228	99.98
1.15895	99.98
1.17562	99.98
1.19228	99.98
1.20895	99.98
1.22562	99.98
1.24228	99.99
1.25895	99.98
1.27562	99.98
1.29228	99.98
1.30895	99.98
1.32562	99.98
1.34228	99.99
1.35895	99.98
1.37562	99.99
1.39228	99.99
1.40895	99.99
1.42562	99.99
1.44228	99.99
1.45895	99.99
1.47562	99.99
1.49228	99.99
1.50895	99.98
1.52562	99.98
1.54228	99.99
1.55895	99.99
1.57562	99.98
1.59228	99.99
1.60895	99.99
1.62562	99.98
1.64228	99.98
1.65895	99.98
1.67562	99.99
1.69228	99.99
1.70895	99.98
1.72562	99.98
1.74228	99.98
1.75895	99.98
1.77562	99.98
1.79228	99.98
1.80895	99.98
1.82562	99.98
1.84228	99.98
1.85895	99.98
1.87562	99.98
1.89228	99.98
1.90895	99.98
1.92562	99.98
1.94228	99.97
1.95895	99.97
1.97562	99.97
1.99228	99.97
2.00895	99.97
2.02562	99.98
2.04228	99.97
2.05895	99.97
2.07562	99.97
2.09228	99.97
2.10895	99.97
2.12562	99.97
2.14228	99.96
2.15895	99.97
2.17562	99.97
2.19228	99.97
2.20895	99.97
2.22562	99.96
2.24228	99.97
2.25895	99.97
2.27562	99.97
2.29228	99.97
2.30895	99.96
2.32562	99.97
2.34228	99.96
2.35895	99.97
2.37562	99.97
2.39228	99.97
2.40895	99.97
2.42562	99.97
2.44228	99.97
2.45895	99.97
2.47562	99.97
2.49228	99.97
2.50895	99.97
2.52562	99.97
2.54228	99.98
2.55895	99.97
2.57562	99.98
2.59228	99.98
2.60895	99.98
2.62562	99.98
2.64228	99.98
2.65895	99.98
2.67562	99.98
2.69228	99.99
2.70895	99.99
2.72562	99.99
2.74228	99.99
2.75895	100.00
2.77562	100.00
2.79228	100.00
2.80895	100.00
2.82562	100.00
2.84228	100.00
2.85895	100.00
2.87562	100.01
2.89228	100.01
2.90895	100.01
2.92562	100.01
2.94228	100.01
2.95895	100.01
2.97562	100.01
2.99228	100.02
3.00895	100.02
3.02562	100.02
3.04228	100.02
3.05895	100.01
3.07562	100.02
3.09228	100.02
3.10895	100.02
3.12562	100.02
3.14228	100.02
3.15895	100.02
3.17562	100.02
3.19228	100.02
3.20895	100.03
3.22562	100.03
3.24228	100.03
3.25895	100.03
3.27562	100.03
3.29228	100.03
3.30895	100.04
3.32562	100.03
3.34228	100.03
3.35895	100.04
3.37562	100.03
3.39228	100.04
3.40895	100.04
3.42562	100.04
3.44228	100.04
3.45895	100.04
3.47562	100.04
3.49228	100.05
3.50895	100.04
3.52562	100.04
3.54228	100.05
3.55895	100.05
3.57562	100.05
3.59228	100.04
3.60895	100.05
3.62562	100.05
3.64228	100.05
3.65895	100.04
3.67562	100.05
3.69228	100.05
3.70895	100.04
3.72562	100.04
3.74228	100.05
3.75895	100.05
3.77562	100.05
3.79228	100.05
3.80895	100.05
3.82562	100.04
3.84228	100.05
3.85895	100.05
3.87562	100.05
3.89228	100.05
3.90895	100.05
3.92562	100.05
3.94228	100.05
3.95895	100.05
3.97562	100.05
3.99228	100.05

[Status Trace (Carrier Gas Pressure)]
Interval(msec)	1000
# of Points	240
Start Time(min)	0.009
End Time(min)	3.992
Intensity Units	
Intensity Multiplier	1
R.Time (min)	Intensity
0.00895	58.00
0.02562	55.28
0.04228	57.23
0.05895	59.25
0.07562	59.41
0.09228	58.05
0.10895	57.98
0.12562	58.01
0.14228	58.01
0.15895	58.01
0.17562	58.00
0.19228	58.00
0.20895	58.00
0.22562	58.00
0.24228	58.00
0.25895	58.00
0.27562	58.00
0.29228	58.00
0.30895	58.00
0.32562	58.00
0.34228	58.00
0.35895	58.00
0.37562	58.00
0.39228	58.00
0.40895	58.00
0.42562	58.00
0.44228	58.00
0.45895	58.00
0.47562	58.00
0.49228	58.00
0.50895	58.00
0.52562	58.00
0.54228	58.00
0.55895	58.00
0.57562	58.00
0.59228	58.00
0.60895	58.00
0.62562	58.00
0.64228	58.00
0.65895	58.00
0.67562	58.00
0.69228	58.00
0.70895	58.00
0.72562	58.00
0.74228	58.00
0.75895	58.00
0.77562	58.00
0.79228	58.00
0.80895	58.00
0.82562	58.00
0.84228	58.00
0.85895	58.00
0.87562	58.00
0.89228	58.00
0.90895	58.00
0.92562	58.00
0.94228	58.00
0.95895	58.00
0.97562	58.00
0.99228	58.00
1.00895	58.00
1.02562	58.00
1.04228	58.00
1.05895	58.00
1.07562	58.00
1.09228	58.00
1.10895	58.00
1.12562	58.00
1.14228	58.00
1.15895	58.00
1.17562	58.00
1.19228	58.00
1.20895	58.00
1.22562	58.00
1.24228	58.00
1.25895	58.00
1.27562	58.00
1.29228	58.00
1.30895	58.00
1.32562	58.00
1.34228	58.00
1.35895	58.00
1.37562	58.00
1.39228	58.00
1.40895	58.00
1.42562	58.00
1.44228	58.00
1.45895	58.00
1.47562	58.00
1.49228	58.00
1.50895	58.00
1.52562	58.00
1.54228	58.00
1.55895	58.00
1.57562	58.00
1.59228	58.00
1.60895	58.00
1.62562	58.00
1.64228	58.00
1.65895	58.01
1.67562	58.01
1.69228	58.00
1.70895	58.00
1.72562	58.00
1.74228	58.00
1.75895	58.00
1.77562	58.00
1.79228	58.00
1.80895	58.00
1.82562	58.00
1.84228	58.00
1.85895	58.00
1.87562	58.00
1.89228	58.00
1.90895	58.00
1.92562	58.00
1.94228	58.00
1.95895	58.00
1.97562	58.00
1.99228	58.00
2.00895	58.00
2.02562	58.00
2.04228	58.00
2.05895	58.00
2.07562	58.00
2.09228	58.00
2.10895	58.00
2.12562	58.00
2.14228	58.00
2.15895	58.00
2.17562	58.00
2.19228	58.00
2.20895	58.00
2.22562	58.00
2.24228	58.00
2.25895	58.00
2.27562	58.00
2.29228	58.00
2.30895	58.00
2.32562	58.00
2.34228	58.00
2.35895	58.00
2.37562	58.00
2.39228	57.99
2.40895	57.99
2.42562	58.00
2.44228	58.00
2.45895	58.00
2.47562	58.00
2.49228	58.00
2.50895	58.00
2.52562	57.99
2.54228	58.00
2.55895	58.00
2.57562	58.00
2.59228	58.00
2.60895	58.00
2.62562	58.00
2.64228	58.00
2.65895	58.00
2.67562	58.00
2.69228	58.00
2.70895	58.00
2.72562	58.00
2.74228	58.00
2.75895	58.00
2.77562	58.00
2.79228	58.00
2.80895	58.00
2.82562	58.00
2.84228	58.00
2.85895	58.00
2.87562	58.00
2.89228	58.00
2.90895	58.00
2.92562	58.00
2.94228	58.00
2.95895	58.00
2.97562	58.00
2.99228	58.00
3.00895	58.00
3.02562	58.00
3.04228	58.00
3.05895	58.00
3.07562	58.00
3.09228	58.00
3.10895	58.00
3.12562	58.00
3.14228	58.00
3.15895	58.00
3.17562	58.00
3.19228	58.00
3.20895	58.00
3.22562	58.00
3.24228	58.00
3.25895	58.00
3.27562	58.00
3.29228	58.00
3.30895	58.00
3.32562	58.00
3.34228	58.00
3.35895	58.00
3.37562	58.00
3.39228	58.00
3.40895	58.00
3.42562	58.00
3.44228	58.00
3.45895	58.00
3.47562	58.00
3.49228	58.00
3.50895	58.00
3.52562	58.00
3.54228	58.00
3.55895	58.00
3.57562	58.00
3.59228	58.00
3.60895	58.00
3.62562	58.00
3.64228	58.00
3.65895	58.00
3.67562	58.00
3.69228	58.00
3.70895	58.00
3.72562	58.00
3.74228	58.00
3.75895	58.00
3.77562	58.00
3.79228	58.00
3.80895	58.00
3.82562	58.00
3.84228	58.00
3.85895	58.00
3.87562	58.00
3.89228	58.00
3.90895	58.00
3.92562	58.00
3.94228	58.00
3.95895	58.00
3.97562	58.00
3.99228	58.00

[Status Trace (Carrier Gas Flow)]
Interval(msec)	1000
# of Points	240
Start Time(min)	0.009
End Time(min)	3.992
Intensity Units	
Intensity Multiplier	1
R.Time (min)	Intensity
0.00895	34.52
0.02562	34.52
0.04228	34.54
0.05895	34.54
0.07562	34.49
0.09228	34.52
0.10895	34.52
0.12562	34.51
0.14228	34.51
0.15895	34.54
0.17562	34.52
0.19228	34.52
0.20895	34.52
0.22562	34.52
0.24228	34.52
0.25895	34.52
0.27562	34.52
0.29228	34.52
0.30895	34.52
0.32562	34.52
0.34228	34.52
0.35895	34.52
0.37562	34.52
0.39228	34.52
0.40895	34.52
0.42562	34.52
0.44228	34.52
0.45895	34.52
0.47562	34.52
0.49228	34.52
0.50895	34.52
0.52562	34.52
0.54228	34.52
0.55895	34.52
0.57562	34.52
0.59228	34.52
0.60895	34.52
0.62562	34.52
0.64228	34.52
0.65895	34.52
0.67562	34.52
0.69228	34.52
0.70895	34.52
0.72562	34.52
0.74228	34.52
0.75895	34.52
0.77562	34.52
0.79228	34.52
0.80895	34.52
0.82562	34.52
0.84228	34.52
0.85895	34.52
0.87562	34.52
0.89228	34.52
0.90895	34.52
0.92562	34.52
0.94228	34.52
0.95895	34.52
0.97562	34.52
0.99228	34.52
1.00895	34.52
1.02562	34.52
1.04228	34.52
1.05895	34.52
1.07562	34.52
1.09228	34.52
1.10895	34.52
1.12562	34.52
1.14228	34.52
1.15895	34.52
1.17562	34.52
1.19228	34.52
1.20895	34.52
1.22562	34.52
1.24228	34.51
1.25895	34.52
1.27562	34.52
1.29228	34.52
1.30895	34.52
1.32562	34.52
1.34228	34.52
1.35895	34.52
1.37562	34.52
1.39228	34.52
1.40895	34.52
1.42562	34.52
1.44228	34.52
1.45895	34.52
1.47562	34.52
1.49228	34.52
1.50895	34.52
1.52562	34.52
1.54228	34.52
1.55895	34.52
1.57562	34.53
1.59228	34.51
1.60895	34.52
1.62562	34.52
1.64228	34.52
1.65895	34.52
1.67562	34.52
1.69228	34.52
1.70895	34.52
1.72562	34.52
1.74228	34.52
1.75895	34.52
1.77562	34.52
1.79228	34.52
1.80895	34.52
1.82562	34.52
1.84228	34.52
1.85895	34.52
1.87562	34.52
1.89228	34.52
1.90895	34.52
1.92562	34.52
1.94228	34.52
1.95895	34.52
1.97562	34.52
1.99228	34.52
2.00895	34.52
2.02562	34.52
2.04228	34.52
2.05895	34.52
2.07562	34.52
2.09228	34.52
2.10895	34.52
2.12562	34.52
2.14228	34.52
2.15895	34.52
2.17562	34.52
2.19228	34.52
2.20895	34.52
2.22562	34.52
2.24228	34.52
2.25895	34.52
2.27562	34.52
2.29228	34.52
2.30895	34.52
2.32562	34.52
2.34228	34.52
2.35895	34.52
2.37562	34.52
2.39228	34.52
2.40895	34.52
2.42562	34.52
2.44228	34.52
2.45895	34.52
2.47562	34.52
2.49228	34.52
2.50895	34.44
2.52562	34.52
2.54228	34.52
2.55895	34.52
2.57562	34.51
2.59228	34.51
2.60895	34.52
2.62562	34.53
2.64228	34.52
2.65895	34.52
2.67562	34.52
2.69228	34.52
2.70895	34.52
2.72562	34.52
2.74228	34.52
2.75895	34.52
2.77562	34.52
2.79228	34.51
2.80895	34.52
2.82562	34.52
2.84228	34.52
2.85895	34.52
2.87562	34.52
2.89228	34.52
2.90895	34.52
2.92562	34.52
2.94228	34.52
2.95895	34.52
2.97562	34.52
2.99228	34.52
3.00895	34.52
3.02562	34.52
3.04228	34.52
3.05895	34.52
3.07562	34.52
3.09228	34.52
3.10895	34.52
3.12562	34.52
3.14228	34.52
3.15895	34.52
3.17562	34.52
3.19228	34.52
3.20895	34.52
3.22562	34.52
3.24228	34.52
3.25895	34.52
3.27562	34.52
3.29228	34.52
3.30895	34.52
3.32562	34.52
3.34228	34.52
3.35895	34.52
3.37562	34.52
3.39228	34.52
3.40895	34.52
3.42562	34.52
3.44228	34.52
3.45895	34.52
3.47562	34.52
3.49228	34.52
3.50895	34.52
3.52562	34.52
3.54228	34.52
3.55895	34.52
3.57562	34.52
3.59228	34.52
3.60895	34.52
3.62562	34.52
3.64228	34.52
3.65895	34.52
3.67562	34.52
3.69228	34.52
3.70895	34.52
3.72562	34.52
3.74228	34.52
3.75895	34.52
3.77562	34.52
3.79228	34.52
3.80895	34.52
3.82562	34.52
3.84228	34.52
3.85895	34.52
3.87562	34.52
3.89228	34.52
3.90895	34.52
3.92562	34.52
3.94228	34.52
3.95895	34.52
3.97562	34.52
3.99228	34.52

[Status Trace (Column Flow)]
Interval(msec)	1000
# of Points	240
Start Time(min)	0.009
End Time(min)	3.992
Intensity Units	
Intensity Multiplier	1
R.Time (min)	Intensity
0.00895	5.52
0.02562	5.20
0.04228	5.43
0.05895	5.67
0.07562	5.68
0.09228	5.52
0.10895	5.52
0.12562	5.52
0.14228	5.52
0.15895	5.52
0.17562	5.52
0.19228	5.52
0.20895	5.52
0.22562	5.52
0.24228	5.52
0.25895	5.52
0.27562	5.52
0.29228	5.52
0.30895	5.52
0.32562	5.52
0.34228	5.52
0.35895	5.52
0.37562	5.52
0.39228	5.52
0.40895	5.52
0.42562	5.52
0.44228	5.52
0.45895	5.52
0.47562	5.52
0.49228	5.52
0.50895	5.52
0.52562	5.52
0.54228	5.52
0.55895	5.52
0.57562	5.52
0.59228	5.52
0.60895	5.52
0.62562	5.52
0.64228	5.52
0.65895	5.52
0.67562	5.52
0.69228	5.52
0.70895	5.52
0.72562	5.52
0.74228	5.52
0.75895	5.52
0.77562	5.52
0.79228	5.52
0.80895	5.52
0.82562	5.52
0.84228	5.52
0.85895	5.52
0.87562	5.52
0.89228	5.52
0.90895	5.52
0.92562	5.52
0.94228	5.52
0.95895	5.52
0.97562	5.52
0.99228	5.52
1.00895	5.52
1.02562	5.52
1.04228	5.52
1.05895	5.52
1.07562	5.52
1.09228	5.52
1.10895	5.52
1.12562	5.52
1.14228	5.52
1.15895	5.52
1.17562	5.52
1.19228	5.52
1.20895	5.52
1.22562	5.52
1.24228	5.52
1.25895	5.52
1.27562	5.52
1.29228	5.52
1.30895	5.52
1.32562	5.52
1.34228	5.52
1.35895	5.52
1.37562	5.52
1.39228	5.52
1.40895	5.52
1.42562	5.52
1.44228	5.52
1.45895	5.52
1.47562	5.52
1.49228	5.52
1.50895	5.52
1.52562	5.52
1.54228	5.52
1.55895	5.52
1.57562	5.52
1.59228	5.52
1.60895	5.52
1.62562	5.52
1.64228	5.51
1.65895	5.50
1.67562	5.49
1.69228	5.48
1.70895	5.47
1.72562	5.46
1.74228	5.45
1.75895	5.44
1.77562	5.43
1.79228	5.42
1.80895	5.41
1.82562	5.40
1.84228	5.39
1.85895	5.38
1.87562	5.37
1.89228	5.36
1.90895	5.35
1.92562	5.34
1.94228	5.33
1.95895	5.32
1.97562	5.31
1.99228	5.30
2.00895	5.29
2.02562	5.28
2.04228	5.27
2.05895	5.26
2.07562	5.25
2.09228	5.24
2.10895	5.23
2.12562	5.22
2.14228	5.21
2.15895	5.20
2.17562	5.19
2.19228	5.18
2.20895	5.17
2.22562	5.17
2.24228	5.16
2.25895	5.15
2.27562	5.14
2.29228	5.13
2.30895	5.12
2.32562	5.11
2.34228	5.10
2.35895	5.09
2.37562	5.09
2.39228	5.09
2.40895	5.09
2.42562	5.09
2.44228	5.09
2.45895	5.09
2.47562	5.09
2.49228	5.09
2.50895	5.08
2.52562	5.08
2.54228	5.08
2.55895	5.08
2.57562	5.08
2.59228	5.08
2.60895	5.08
2.62562	5.08
2.64228	5.08
2.65895	5.08
2.67562	5.08
2.69228	5.08
2.70895	5.08
2.72562	5.08
2.74228	5.08
2.75895	5.08
2.77562	5.08
2.79228	5.08
2.80895	5.08
2.82562	5.08
2.84228	5.08
2.85895	5.08
2.87562	5.08
2.89228	5.08
2.90895	5.08
2.92562	5.08
2.94228	5.08
2.95895	5.08
2.97562	5.08
2.99228	5.08
3.00895	5.08
3.02562	5.08
3.04228	5.08
3.05895	5.08
3.07562	5.07
3.09228	5.07
3.10895	5.07
3.12562	5.07
3.14228	5.07
3.15895	5.07
3.17562	5.07
3.19228	5.07
3.20895	5.07
3.22562	5.07
3.24228	5.07
3.25895	5.07
3.27562	5.08
3.29228	5.08
3.30895	5.08
3.32562	5.08
3.34228	5.08
3.35895	5.08
3.37562	5.08
3.39228	5.08
3.40895	5.08
3.42562	5.08
3.44228	5.07
3.45895	5.07
3.47562	5.08
3.49228	5.08
3.50895	5.08
3.52562	5.08
3.54228	5.08
3.55895	5.08
3.57562	5.08
3.59228	5.08
3.60895	5.07
3.62562	5.07
3.64228	5.07
3.65895	5.07
3.67562	5.07
3.69228	5.07
3.70895	5.07
3.72562	5.07
3.74228	5.07
3.75895	5.07
3.77562	5.07
3.79228	5.07
3.80895	5.07
3.82562	5.07
3.84228	5.07
3.85895	5.07
3.87562	5.07
3.89228	5.07
3.90895	5.07
3.92562	5.07
3.94228	5.07
3.95895	5.07
3.97562	5.07
3.99228	5.07

[Status Trace (Linear Velocity)]
Interval(msec)	1000
# of Points	240
Start Time(min)	0.009
End Time(min)	3.992
Intensity Units	
Intensity Multiplier	1
R.Time (min)	Intensity
0.00895	39.01
0.02562	37.23
0.04228	38.51
0.05895	39.83
0.07562	39.94
0.09228	39.04
0.10895	39.00
0.12562	39.02
0.14228	39.02
0.15895	39.01
0.17562	39.01
0.19228	39.02
0.20895	39.02
0.22562	39.02
0.24228	39.02
0.25895	39.02
0.27562	39.02
0.29228	39.02
0.30895	39.02
0.32562	39.02
0.34228	39.02
0.35895	39.01
0.37562	39.01
0.39228	39.01
0.40895	39.02
0.42562	39.02
0.44228	39.02
0.45895	39.02
0.47562	39.02
0.49228	39.02
0.50895	39.02
0.52562	39.02
0.54228	39.02
0.55895	39.02
0.57562	39.02
0.59228	39.02
0.60895	39.02
0.62562	39.02
0.64228	39.02
0.65895	39.02
0.67562	39.02
0.69228	39.02
0.70895	39.02
0.72562	39.02
0.74228	39.02
0.75895	39.02
0.77562	39.02
0.79228	39.02
0.80895	39.02
0.82562	39.02
0.84228	39.02
0.85895	39.02
0.87562	39.02
0.89228	39.02
0.90895	39.01
0.92562	39.01
0.94228	39.01
0.95895	39.01
0.97562	39.01
0.99228	39.01
1.00895	39.01
1.02562	39.01
1.04228	39.01
1.05895	39.01
1.07562	39.02
1.09228	39.02
1.10895	39.02
1.12562	39.02
1.14228	39.02
1.15895	39.02
1.17562	39.02
1.19228	39.02
1.20895	39.02
1.22562	39.02
1.24228	39.02
1.25895	39.02
1.27562	39.02
1.29228	39.02
1.30895	39.02
1.32562	39.02
1.34228	39.02
1.35895	39.02
1.37562	39.02
1.39228	39.02
1.40895	39.02
1.42562	39.02
1.44228	39.02
1.45895	39.02
1.47562	39.02
1.49228	39.02
1.50895	39.02
1.52562	39.02
1.54228	39.02
1.55895	39.02
1.57562	39.02
1.59228	39.02
1.60895	39.01
1.62562	39.00
1.64228	38.99
1.65895	38.96
1.67562	38.93
1.69228	38.89
1.70895	38.86
1.72562	38.82
1.74228	38.79
1.75895	38.76
1.77562	38.73
1.79228	38.70
1.80895	38.67
1.82562	38.63
1.84228	38.60
1.85895	38.57
1.87562	38.54
1.89228	38.51
1.90895	38.48
1.92562	38.45
1.94228	38.42
1.95895	38.39
1.97562	38.36
1.99228	38.33
2.00895	38.30
2.02562	38.27
2.04228	38.24
2.05895	38.21
2.07562	38.18
2.09228	38.15
2.10895	38.12
2.12562	38.09
2.14228	38.06
2.15895	38.03
2.17562	38.00
2.19228	37.97
2.20895	37.94
2.22562	37.91
2.24228	37.89
2.25895	37.85
2.27562	37.82
2.29228	37.80
2.30895	37.77
2.32562	37.73
2.34228	37.70
2.35895	37.68
2.37562	37.67
2.39228	37.66
2.40895	37.66
2.42562	37.66
2.44228	37.66
2.45895	37.66
2.47562	37.66
2.49228	37.66
2.50895	37.66
2.52562	37.65
2.54228	37.66
2.55895	37.66
2.57562	37.65
2.59228	37.65
2.60895	37.65
2.62562	37.65
2.64228	37.65
2.65895	37.65
2.67562	37.65
2.69228	37.65
2.70895	37.64
2.72562	37.64
2.74228	37.64
2.75895	37.64
2.77562	37.64
2.79228	37.64
2.80895	37.64
2.82562	37.64
2.84228	37.64
2.85895	37.64
2.87562	37.64
2.89228	37.64
2.90895	37.64
2.92562	37.63
2.94228	37.63
2.95895	37.63
2.97562	37.63
2.99228	37.63
3.00895	37.63
3.02562	37.63
3.04228	37.63
3.05895	37.63
3.07562	37.63
3.09228	37.62
3.10895	37.62
3.12562	37.62
3.14228	37.62
3.15895	37.62
3.17562	37.62
3.19228	37.62
3.20895	37.62
3.22562	37.63
3.24228	37.63
3.25895	37.63
3.27562	37.63
3.29228	37.63
3.30895	37.63
3.32562	37.63
3.34228	37.63
3.35895	37.63
3.37562	37.63
3.39228	37.63
3.40895	37.63
3.42562	37.63
3.44228	37.63
3.45895	37.63
3.47562	37.63
3.49228	37.63
3.50895	37.63
3.52562	37.63
3.54228	37.63
3.55895	37.63
3.57562	37.63
3.59228	37.63
3.60895	37.63
3.62562	37.62
3.64228	37.62
3.65895	37.62
3.67562	37.62
3.69228	37.62
3.70895	37.62
3.72562	37.62
3.74228	37.62
3.75895	37.62
3.77562	37.62
3.79228	37.62
3.80895	37.63
3.82562	37.63
3.84228	37.63
3.85895	37.63
3.87562	37.63
3.89228	37.63
3.90895	37.62
3.92562	37.62
3.94228	37.62
3.95895	37.62
3.97562	37.62
3.99228	37.63

