[Header]
Application Name	LabSolutions
Version	5.110
Data File Name	C:\Users\User\Desktop\GC Analyses\Jack\UIC Prairie Sampling\7.22.22\220722_026.gcd
Output Date	10/5/2022
Output Time	2:13:39 PM

[File Information]
Type	Data File
Generated	9/26/2022 2:05:14 PM
Generated by	System Administrator
Modified	9/26/2022 2:09:43 PM
Modified by	System Administrator

[Sample Information]
Operator Name	System Administrator
Acquired	9/26/2022 2:05:42 PM
Sample Type	1:Standard
Level	1
Sample Name	220722_UICPrairie
Sample ID	220722_UICPrairie
ISTD Amount1	1
ISTD Amount2	1
ISTD Amount3	1
ISTD Amount4	1
ISTD Amount5	1
ISTD Amount6	1
ISTD Amount7	1
ISTD Amount8	1
ISTD Amount9	1
ISTD Amount10	1
ISTD Amount11	1
ISTD Amount12	1
ISTD Amount13	1
ISTD Amount14	1
ISTD Amount15	1
ISTD Amount16	1
ISTD Amount17	1
ISTD Amount18	1
ISTD Amount19	1
ISTD Amount20	1
ISTD Amount21	1
ISTD Amount22	1
ISTD Amount23	1
ISTD Amount24	1
ISTD Amount25	1
ISTD Amount26	1
ISTD Amount27	1
ISTD Amount28	1
ISTD Amount29	1
ISTD Amount30	1
ISTD Amount31	1
ISTD Amount32	1
Sample Amount	1
Dilution Factor	1
Vial#	1
Injection Volume	1
Injection Count	1
Bar Code	

[Original Files]
Data File	C:\Users\User\Desktop\GC Analyses\Jack\UIC Prairie Sampling\7.22.22\220722_026.gcd
Method File	C:\LabSolutions\Data\GHG_4min_2022\ghg3_togas_w_acet_4 min_new_int.gcm
Batch File	
Report Format File	c:\LabSolutions\System\DEFAULT.lsr

[File Description]


[Configuration]
Instrument Name	C0B7VH3-Instrument1
Instrument #	1
Line #	1
# of Detectors	3
Detector ID	DET#1	DET#2	DET#3
Detector Name	FID	PTCD	ECD
# of Channels	1	1	1

[Peak Table(Ch1)]
# of Peaks	3
Peak#	R.Time	I.Time	F.Time	Area	Height	A/H	Conc.	Mark	ID#	Name	k'	Plate #	Plate Ht.	Tailing	Resolution	Sep.Factor	Area Ratio	Height Ratio	Conc. %	Norm Conc.
1	1.479	1.443	1.542	15225	6889	2.210	100.000	   	1	CO	0.000	8451	17.748	1.200	0.000	0.000	0	0	16.667	16.667
2	1.571	1.542	1.626	4056	2080	1.950	100.000	 V 	2	CH4	0.062	11745	12.771	1.242	1.498	0.000	0	0	16.667	16.667
3	2.000	1.952	2.275	2718165	1335639	2.035	400.000	   	3	CO2	0.352	17887	8.386	1.289	7.284	5.680	0	0	66.667	66.667

[Peak Table(Ch2)]
# of Peaks	0

[Peak Table(Ch3)]
# of Peaks	3
Peak#	R.Time	I.Time	F.Time	Area	Height	A/H	Conc.	Mark	ID#	Name	k'	Plate #	Plate Ht.	Tailing	Resolution	Sep.Factor	Area Ratio	Height Ratio	Conc. %	Norm Conc.
1	2.447	1.179	2.612	18184	489	37.221	0.000	   			0.000	71	2119.179	0.572	0.000	0.000	0	0	0.000	0.000
2	2.733	2.616	2.829	11665	1133	10.297	0.191	   	1	N2O	0.117	146	1024.411	0.000	0.277	0.000	0	0	19.103	19.103
3	2.887	2.829	3.932	49400	5727	8.626	0.809	 V 	1	N2O	0.180	9683	15.491	0.000	0.302	1.538	0	0	80.897	80.897

[Compound Results(Ch1)]
# of IDs	6
ID#	Name	R.Time	Area	Height	Conc.	Curve	3rd	2nd	1st	Constant	Area Ratio	Height Ratio	Conc. %	Norm Conc.
1	CO	1.479	15225	6889	100.000	Linear	0.000000e+00	0.000000e+00	1.522527e+002	0.000000e+00	0	0	16.667	16.667
2	CH4	1.571	4056	2080	100.000	Linear	0.000000e+00	0.000000e+00	4.056014e+001	0.000000e+00	0	0	16.667	16.667
3	CO2	2.000	2718165	1335639	400.000	Linear	0.000000e+00	0.000000e+00	6.795411e+003	0.000000e+00	0	0	66.667	66.667
4	Ethylene	0.000	0	0	0.000	Linear	0.000000e+00	0.000000e+00	0.000000e+00	0.000000e+00	0	0	0.000	0.000
5	Acetylene	0.000	0	0	0.000	Linear	0.000000e+00	0.000000e+00	0.000000e+00	0.000000e+00	0	0	0.000	0.000
6	Ethane	0.000	0	0	0.000	Linear	0.000000e+00	0.000000e+00	0.000000e+00	0.000000e+00	0	0	0.000	0.000

[Compound Results(Ch2)]
# of IDs	5
ID#	Name	R.Time	Area	Height	Conc.	Curve	3rd	2nd	1st	Constant	Area Ratio	Height Ratio	Conc. %	Norm Conc.
1	Hydrogen	0.000	0	0	0.000	Linear	0.000000e+00	0.000000e+00	0.000000e+00	0.000000e+00	0	0	0.000	0.000
2	Oxygen	0.000	0	0	0.000	Linear	0.000000e+00	0.000000e+00	0.000000e+00	0.000000e+00	0	0	0.000	0.000
3	Nitrogen	0.000	0	0	0.000	Linear	0.000000e+00	0.000000e+00	0.000000e+00	0.000000e+00	0	0	0.000	0.000
4	Methane	0.000	0	0	0.000	Linear	0.000000e+00	0.000000e+00	0.000000e+00	0.000000e+00	0	0	0.000	0.000
5	Carbon Monoxide	0.000	0	0	0.000	Linear	0.000000e+00	0.000000e+00	0.000000e+00	0.000000e+00	0	0	0.000	0.000

[Compound Results(Ch3)]
# of IDs	2
ID#	Name	R.Time	Area	Height	Conc.	Curve	3rd	2nd	1st	Constant	Area Ratio	Height Ratio	Conc. %	Norm Conc.
1	N2O	2.887	61066	6860	1.000	Linear	0.000000e+00	0.000000e+00	6.106552e+004	0.000000e+00	0	0	100.000	100.000
2	SF6	0.000	0	0	0.000	Linear	0.000000e+00	0.000000e+00	0.000000e+00	0.000000e+00	0	0	0.000	0.000

[Group Results(Ch1)]
# of Groups	0

[Group Results(Ch2)]
# of Groups	0

[Group Results(Ch3)]
# of Groups	0

[Chromatogram (Ch1)]
Interval(msec)	220
# of Points	1091
Start Time(min)	0.002
End Time(min)	3.998
R.Time (min)	Intensity
0.00167	-18
0.00533	-18
0.00900	-15
0.01267	-11
0.01633	-9
0.02000	-11
0.02367	-14
0.02733	-17
0.03100	-18
0.03467	-18
0.03833	-18
0.04200	-18
0.04567	-19
0.04933	-22
0.05300	-24
0.05667	-22
0.06033	-19
0.06400	-12
0.06767	-7
0.07133	-4
0.07500	-3
0.07867	-6
0.08233	-10
0.08600	-12
0.08967	-10
0.09333	-5
0.09700	-3
0.10067	-4
0.10433	-5
0.10800	-5
0.11167	-8
0.11533	-11
0.11900	-10
0.12267	-6
0.12633	-8
0.13000	-12
0.13367	-18
0.13733	-22
0.14100	-26
0.14467	-31
0.14833	-36
0.15200	-37
0.15567	-35
0.15933	-32
0.16300	-28
0.16667	-24
0.17033	-21
0.17400	-21
0.17767	-23
0.18133	-25
0.18500	-24
0.18867	-24
0.19233	-20
0.19600	-16
0.19967	-14
0.20333	-14
0.20700	-16
0.21067	-18
0.21433	-20
0.21800	-20
0.22167	-18
0.22533	-17
0.22900	-15
0.23267	-15
0.23633	-18
0.24000	-25
0.24367	-28
0.24733	-26
0.25100	-24
0.25467	-24
0.25833	-27
0.26200	-32
0.26567	-34
0.26933	-34
0.27300	-32
0.27667	-30
0.28033	-28
0.28400	-26
0.28767	-24
0.29133	-34
0.29500	-35
0.29867	-20
0.30233	-17
0.30600	-15
0.30967	-14
0.31333	-12
0.31700	-12
0.32067	-16
0.32433	-23
0.32800	-32
0.33167	-40
0.33533	-46
0.33900	-48
0.34267	-46
0.34633	-41
0.35000	-37
0.35367	-35
0.35733	-34
0.36100	-33
0.36467	-33
0.36833	-33
0.37200	-37
0.37567	-44
0.37933	-43
0.38300	-36
0.38667	-30
0.39033	-25
0.39400	-21
0.39767	-21
0.40133	-26
0.40500	-28
0.40867	-27
0.41233	-26
0.41600	-24
0.41967	-24
0.42333	-27
0.42700	-32
0.43067	-38
0.43433	-46
0.43800	-53
0.44167	-57
0.44533	-59
0.44900	-58
0.45267	-56
0.45633	-54
0.46000	-54
0.46367	-57
0.46733	-63
0.47100	-68
0.47467	-67
0.47833	-61
0.48200	-55
0.48567	-51
0.48933	-50
0.49300	-51
0.49667	-52
0.50033	-53
0.50400	-52
0.50767	-47
0.51133	-43
0.51500	-42
0.51867	-44
0.52233	-45
0.52600	-49
0.52967	-54
0.53333	-58
0.53700	-61
0.54067	-63
0.54433	-58
0.54800	-49
0.55167	-41
0.55533	-32
0.55900	-23
0.56267	-21
0.56633	-25
0.57000	-33
0.57367	-41
0.57733	-45
0.58100	-49
0.58467	-53
0.58833	-56
0.59200	-59
0.59567	-64
0.59933	-69
0.60300	-72
0.60667	-73
0.61033	-69
0.61400	-61
0.61767	-50
0.62133	-41
0.62500	-37
0.62867	-35
0.63233	-37
0.63600	-43
0.63967	-54
0.64333	-64
0.64700	-70
0.65067	-69
0.65433	-64
0.65800	-59
0.66167	-53
0.66533	-50
0.66900	-48
0.67267	-47
0.67633	-44
0.68000	-45
0.68367	-52
0.68733	-59
0.69100	-64
0.69467	-69
0.69833	-73
0.70200	-73
0.70567	-68
0.70933	-61
0.71300	-54
0.71667	-49
0.72033	-49
0.72400	-51
0.72767	-54
0.73133	-59
0.73500	-62
0.73867	-59
0.74233	-56
0.74600	-54
0.74967	-52
0.75333	-53
0.75700	-56
0.76067	-58
0.76433	-59
0.76800	-60
0.77167	-61
0.77533	-60
0.77900	-60
0.78267	-60
0.78633	-62
0.79000	-65
0.79367	-65
0.79733	-65
0.80100	-62
0.80467	-59
0.80833	-57
0.81200	-56
0.81567	-57
0.81933	-58
0.82300	-59
0.82667	-58
0.83033	-59
0.83400	-60
0.83767	-61
0.84133	-65
0.84500	-67
0.84867	-65
0.85233	-64
0.85600	-61
0.85967	-58
0.86333	-56
0.86700	-56
0.87067	-56
0.87433	-56
0.87800	-56
0.88167	-56
0.88533	-55
0.88900	-53
0.89267	-55
0.89633	-58
0.90000	-63
0.90367	-66
0.90733	-72
0.91100	-77
0.91467	-81
0.91833	-83
0.92200	-86
0.92567	-87
0.92933	-82
0.93300	-74
0.93667	-67
0.94033	-61
0.94400	-55
0.94767	-54
0.95133	-55
0.95500	-59
0.95867	-66
0.96233	-71
0.96600	-70
0.96967	-66
0.97333	-63
0.97700	-63
0.98067	-61
0.98433	-59
0.98800	-58
0.99167	-59
0.99533	-65
0.99900	-71
1.00267	-76
1.00633	-77
1.01000	-72
1.01367	-68
1.01733	-68
1.02100	-72
1.02467	-78
1.02833	-84
1.03200	-87
1.03567	-84
1.03933	-76
1.04300	-70
1.04667	-65
1.05033	-61
1.05400	-61
1.05767	-66
1.06133	-73
1.06500	-77
1.06867	-77
1.07233	-76
1.07600	-76
1.07967	-77
1.08333	-78
1.08700	-76
1.09067	-75
1.09433	-76
1.09800	-77
1.10167	-75
1.10533	-70
1.10900	-64
1.11267	-59
1.11633	-57
1.12000	-58
1.12367	-59
1.12733	-60
1.13100	-59
1.13467	-59
1.13833	-62
1.14200	-68
1.14567	-72
1.14933	-75
1.15300	-79
1.15667	-82
1.16033	-85
1.16400	-89
1.16767	-91
1.17133	-92
1.17500	-91
1.17867	-92
1.18233	-93
1.18600	-91
1.18967	-87
1.19333	-79
1.19700	-71
1.20067	-68
1.20433	-71
1.20800	-81
1.21167	-91
1.21533	-94
1.21900	-92
1.22267	-87
1.22633	-82
1.23000	-80
1.23367	-81
1.23733	-86
1.24100	-90
1.24467	-93
1.24833	-96
1.25200	-100
1.25567	-103
1.25933	-101
1.26300	-96
1.26667	-88
1.27033	-79
1.27400	-69
1.27767	-61
1.28133	-59
1.28500	-61
1.28867	-64
1.29233	-69
1.29600	-73
1.29967	-76
1.30333	-77
1.30700	-78
1.31067	-79
1.31433	-80
1.31800	-81
1.32167	-81
1.32533	-81
1.32900	-78
1.33267	-72
1.33633	-66
1.34000	-65
1.34367	-67
1.34733	-72
1.35100	-79
1.35467	-90
1.35833	-102
1.36200	-110
1.36567	-113
1.36933	-113
1.37300	-109
1.37667	-104
1.38033	-97
1.38400	-92
1.38767	-85
1.39133	-75
1.39500	-66
1.39867	-61
1.40233	-63
1.40600	-70
1.40967	-77
1.41333	-86
1.41700	-94
1.42067	-99
1.42433	-100
1.42800	-99
1.43167	-99
1.43533	-100
1.43900	-99
1.44267	-76
1.44633	47
1.45000	377
1.45367	961
1.45733	1855
1.46100	3032
1.46467	4290
1.46833	5401
1.47200	6228
1.47567	6707
1.47933	6806
1.48300	6513
1.48667	5858
1.49033	4949
1.49400	3950
1.49767	3013
1.50133	2223
1.50500	1602
1.50867	1131
1.51233	779
1.51600	523
1.51967	340
1.52333	212
1.52700	124
1.53067	60
1.53433	11
1.53800	-22
1.54167	-32
1.54533	9
1.54900	152
1.55267	431
1.55633	812
1.56000	1217
1.56367	1575
1.56733	1840
1.57100	1982
1.57467	1971
1.57833	1799
1.58200	1503
1.58567	1155
1.58933	824
1.59300	550
1.59667	343
1.60033	197
1.60400	92
1.60767	17
1.61133	-32
1.61500	-65
1.61867	-85
1.62233	-98
1.62600	-108
1.62967	-113
1.63333	-112
1.63700	-112
1.64067	-114
1.64433	-118
1.64800	-119
1.65167	-116
1.65533	-112
1.65900	-110
1.66267	-109
1.66633	-108
1.67000	-106
1.67367	-102
1.67733	-101
1.68100	-103
1.68467	-110
1.68833	-116
1.69200	-116
1.69567	-113
1.69933	-109
1.70300	-105
1.70667	-100
1.71033	-96
1.71400	-94
1.71767	-94
1.72133	-94
1.72500	-96
1.72867	-100
1.73233	-108
1.73600	-118
1.73967	-122
1.74333	-119
1.74700	-115
1.75067	-115
1.75433	-116
1.75800	-118
1.76167	-118
1.76533	-115
1.76900	-106
1.77267	-93
1.77633	-85
1.78000	-84
1.78367	-86
1.78733	-93
1.79100	-97
1.79467	-99
1.79833	-98
1.80200	-96
1.80567	-92
1.80933	-88
1.81300	-89
1.81667	-95
1.82033	-100
1.82400	-103
1.82767	-102
1.83133	-95
1.83500	-83
1.83867	-69
1.84233	-61
1.84600	-59
1.84967	-66
1.85333	-79
1.85700	-92
1.86067	-103
1.86433	-109
1.86800	-110
1.87167	-109
1.87533	-112
1.87900	-115
1.88267	-117
1.88633	-113
1.89000	-106
1.89367	-99
1.89733	-96
1.90100	-92
1.90467	-88
1.90833	-85
1.91200	-83
1.91567	-84
1.91933	-85
1.92300	-87
1.92667	-89
1.93033	-90
1.93400	-84
1.93767	-74
1.94133	-67
1.94500	-63
1.94867	-57
1.95233	-51
1.95600	-33
1.95967	106
1.96333	992
1.96700	5407
1.97067	22074
1.97433	70162
1.97800	176398
1.98167	357613
1.98533	600321
1.98900	862660
1.99267	1095924
1.99633	1261221
2.00000	1335626
2.00367	1312814
2.00733	1203151
2.01100	1031862
2.01467	832365
2.01833	636271
2.02200	465274
2.02567	328864
2.02933	226968
2.03300	154370
2.03667	104309
2.04033	70532
2.04400	48042
2.04767	33158
2.05133	23307
2.05500	16755
2.05867	12351
2.06233	9349
2.06600	7266
2.06967	5793
2.07333	4725
2.07700	3934
2.08067	3335
2.08433	2871
2.08800	2505
2.09167	2212
2.09533	1972
2.09900	1771
2.10267	1604
2.10633	1467
2.11000	1346
2.11367	1241
2.11733	1152
2.12100	1077
2.12467	1013
2.12833	956
2.13200	897
2.13567	842
2.13933	794
2.14300	755
2.14667	722
2.15033	688
2.15400	652
2.15767	619
2.16133	592
2.16500	555
2.16867	532
2.17233	523
2.17600	505
2.17967	484
2.18333	466
2.18700	448
2.19067	432
2.19433	416
2.19800	405
2.20167	401
2.20533	401
2.20900	395
2.21267	384
2.21633	373
2.22000	361
2.22367	349
2.22733	337
2.23100	321
2.23467	308
2.23833	300
2.24200	296
2.24567	296
2.24933	296
2.25300	293
2.25667	284
2.26033	269
2.26400	253
2.26767	237
2.27133	221
2.27500	209
2.27867	204
2.28233	206
2.28600	211
2.28967	218
2.29333	225
2.29700	234
2.30067	237
2.30433	231
2.30800	219
2.31167	204
2.31533	191
2.31900	184
2.32267	183
2.32633	181
2.33000	175
2.33367	166
2.33733	154
2.34100	146
2.34467	141
2.34833	139
2.35200	141
2.35567	147
2.35933	152
2.36300	154
2.36667	154
2.37033	151
2.37400	146
2.37767	143
2.38133	144
2.38500	148
2.38867	152
2.39233	159
2.39600	166
2.39967	167
2.40333	162
2.40700	156
2.41067	150
2.41433	146
2.41800	148
2.42167	154
2.42533	161
2.42900	164
2.43267	162
2.43633	160
2.44000	159
2.44367	158
2.44733	156
2.45100	156
2.45467	152
2.45833	144
2.46200	135
2.46567	129
2.46933	124
2.47300	121
2.47667	120
2.48033	120
2.48400	124
2.48767	131
2.49133	136
2.49500	138
2.49867	137
2.50233	135
2.50600	130
2.50967	127
2.51333	127
2.51700	130
2.52067	131
2.52433	126
2.52800	117
2.53167	111
2.53533	114
2.53900	121
2.54267	129
2.54633	132
2.55000	132
2.55367	128
2.55733	121
2.56100	110
2.56467	97
2.56833	86
2.57200	80
2.57567	77
2.57933	79
2.58300	90
2.58667	101
2.59033	104
2.59400	102
2.59767	97
2.60133	92
2.60500	90
2.60867	86
2.61233	84
2.61600	85
2.61967	89
2.62333	90
2.62700	88
2.63067	79
2.63433	70
2.63800	64
2.64167	66
2.64533	75
2.64900	85
2.65267	89
2.65633	84
2.66000	73
2.66367	61
2.66733	52
2.67100	49
2.67467	49
2.67833	48
2.68200	47
2.68567	47
2.68933	52
2.69300	59
2.69667	67
2.70033	72
2.70400	75
2.70767	76
2.71133	72
2.71500	65
2.71867	60
2.72233	59
2.72600	59
2.72967	60
2.73333	59
2.73700	59
2.74067	59
2.74433	59
2.74800	56
2.75167	52
2.75533	51
2.75900	55
2.76267	57
2.76633	58
2.77000	58
2.77367	59
2.77733	63
2.78100	67
2.78467	70
2.78833	72
2.79200	73
2.79567	73
2.79933	72
2.80300	68
2.80667	64
2.81033	62
2.81400	61
2.81767	60
2.82133	60
2.82500	57
2.82867	51
2.83233	47
2.83600	50
2.83967	53
2.84333	53
2.84700	48
2.85067	42
2.85433	39
2.85800	41
2.86167	37
2.86533	33
2.86900	41
2.87267	43
2.87633	42
2.88000	41
2.88367	38
2.88733	33
2.89100	24
2.89467	16
2.89833	13
2.90200	12
2.90567	15
2.90933	21
2.91300	27
2.91667	30
2.92033	35
2.92400	43
2.92767	51
2.93133	53
2.93500	49
2.93867	41
2.94233	33
2.94600	27
2.94967	26
2.95333	30
2.95700	31
2.96067	30
2.96433	29
2.96800	24
2.97167	19
2.97533	17
2.97900	21
2.98267	28
2.98633	35
2.99000	39
2.99367	41
2.99733	42
3.00100	44
3.00467	49
3.00833	52
3.01200	53
3.01567	50
3.01933	45
3.02300	38
3.02667	34
3.03033	33
3.03400	32
3.03767	30
3.04133	28
3.04500	25
3.04867	22
3.05233	23
3.05600	24
3.05967	25
3.06333	27
3.06700	32
3.07067	38
3.07433	45
3.07800	46
3.08167	42
3.08533	35
3.08900	27
3.09267	24
3.09633	23
3.10000	23
3.10367	25
3.10733	23
3.11100	19
3.11467	16
3.11833	17
3.12200	16
3.12567	11
3.12933	2
3.13300	-7
3.13667	-11
3.14033	-11
3.14400	-8
3.14767	-3
3.15133	3
3.15500	10
3.15867	15
3.16233	17
3.16600	19
3.16967	19
3.17333	19
3.17700	20
3.18067	21
3.18433	23
3.18800	24
3.19167	22
3.19533	18
3.19900	15
3.20267	14
3.20633	13
3.21000	12
3.21367	10
3.21733	10
3.22100	12
3.22467	10
3.22833	6
3.23200	1
3.23567	2
3.23933	4
3.24300	7
3.24667	9
3.25033	9
3.25400	10
3.25767	13
3.26133	18
3.26500	21
3.26867	24
3.27233	25
3.27600	24
3.27967	21
3.28333	20
3.28700	21
3.29067	20
3.29433	15
3.29800	11
3.30167	11
3.30533	14
3.30900	18
3.31267	17
3.31633	14
3.32000	10
3.32367	8
3.32733	4
3.33100	-1
3.33467	-3
3.33833	-4
3.34200	-2
3.34567	-4
3.34933	-8
3.35300	-9
3.35667	-7
3.36033	-5
3.36400	1
3.36767	10
3.37133	18
3.37500	20
3.37867	15
3.38233	6
3.38600	-3
3.38967	-10
3.39333	-13
3.39700	-11
3.40067	-7
3.40433	-3
3.40800	1
3.41167	5
3.41533	10
3.41900	17
3.42267	25
3.42633	32
3.43000	35
3.43367	32
3.43733	23
3.44100	12
3.44467	6
3.44833	6
3.45200	6
3.45567	6
3.45933	8
3.46300	11
3.46667	16
3.47033	16
3.47400	14
3.47767	7
3.48133	0
3.48500	-4
3.48867	-5
3.49233	-4
3.49600	-4
3.49967	-7
3.50333	-11
3.50700	-12
3.51067	-8
3.51433	1
3.51800	12
3.52167	22
3.52533	29
3.52900	32
3.53267	28
3.53633	19
3.54000	8
3.54367	1
3.54733	-4
3.55100	-8
3.55467	-11
3.55833	-13
3.56200	-12
3.56567	-12
3.56933	-14
3.57300	-14
3.57667	-13
3.58033	-11
3.58400	-9
3.58767	-6
3.59133	-2
3.59500	-0
3.59867	2
3.60233	3
3.60600	3
3.60967	5
3.61333	8
3.61700	11
3.62067	14
3.62433	18
3.62800	22
3.63167	22
3.63533	19
3.63900	12
3.64267	5
3.64633	-2
3.65000	-5
3.65367	-4
3.65733	-2
3.66100	0
3.66467	7
3.66833	11
3.67200	13
3.67567	9
3.67933	4
3.68300	0
3.68667	-3
3.69033	-9
3.69400	-15
3.69767	-18
3.70133	-21
3.70500	-21
3.70867	-18
3.71233	-14
3.71600	-10
3.71967	-2
3.72333	9
3.72700	17
3.73067	22
3.73433	18
3.73800	9
3.74167	2
3.74533	-0
3.74900	1
3.75267	2
3.75633	6
3.76000	12
3.76367	5
3.76733	-9
3.77100	-16
3.77467	-17
3.77833	-11
3.78200	-18
3.78567	-25
3.78933	-27
3.79300	-25
3.79667	-22
3.80033	-17
3.80400	-15
3.80767	-9
3.81133	-2
3.81500	7
3.81867	16
3.82233	20
3.82600	20
3.82967	15
3.83333	11
3.83700	6
3.84067	-1
3.84433	-11
3.84800	-19
3.85167	-26
3.85533	-32
3.85900	-36
3.86267	-36
3.86633	-34
3.87000	-30
3.87367	-23
3.87733	-14
3.88100	-4
3.88467	1
3.88833	1
3.89200	-1
3.89567	-3
3.89933	-6
3.90300	-8
3.90667	-7
3.91033	-7
3.91400	-10
3.91767	-12
3.92133	-15
3.92500	-17
3.92867	-18
3.93233	-21
3.93600	-23
3.93967	-21
3.94333	-16
3.94700	-13
3.95067	-13
3.95433	-14
3.95800	-15
3.96167	-15
3.96533	-12
3.96900	-13
3.97267	-17
3.97633	-21
3.98000	-23
3.98367	-21
3.98733	-16
3.99100	-9
3.99467	-3
3.99833	-1

[Chromatogram (Ch2)]
Interval(msec)	220
# of Points	1091
Start Time(min)	0.002
End Time(min)	3.998
R.Time (min)	Intensity
0.00167	-0
0.00533	-0
0.00900	-0
0.01267	-0
0.01633	-0
0.02000	-0
0.02367	-0
0.02733	0
0.03100	1
0.03467	1
0.03833	1
0.04200	1
0.04567	2
0.04933	2
0.05300	3
0.05667	3
0.06033	3
0.06400	3
0.06767	3
0.07133	3
0.07500	3
0.07867	3
0.08233	3
0.08600	4
0.08967	4
0.09333	4
0.09700	4
0.10067	4
0.10433	4
0.10800	4
0.11167	5
0.11533	5
0.11900	5
0.12267	5
0.12633	5
0.13000	5
0.13367	4
0.13733	4
0.14100	4
0.14467	3
0.14833	3
0.15200	3
0.15567	3
0.15933	3
0.16300	2
0.16667	2
0.17033	1
0.17400	1
0.17767	1
0.18133	1
0.18500	0
0.18867	0
0.19233	0
0.19600	1
0.19967	1
0.20333	2
0.20700	2
0.21067	2
0.21433	2
0.21800	2
0.22167	2
0.22533	2
0.22900	2
0.23267	2
0.23633	2
0.24000	1
0.24367	1
0.24733	0
0.25100	-1
0.25467	-1
0.25833	-1
0.26200	-1
0.26567	-1
0.26933	-2
0.27300	-2
0.27667	-2
0.28033	-2
0.28400	-2
0.28767	-1
0.29133	-1
0.29500	-1
0.29867	-0
0.30233	0
0.30600	1
0.30967	1
0.31333	1
0.31700	2
0.32067	2
0.32433	2
0.32800	2
0.33167	2
0.33533	2
0.33900	2
0.34267	3
0.34633	3
0.35000	3
0.35367	3
0.35733	3
0.36100	3
0.36467	3
0.36833	2
0.37200	2
0.37567	2
0.37933	2
0.38300	2
0.38667	2
0.39033	1
0.39400	1
0.39767	1
0.40133	1
0.40500	1
0.40867	0
0.41233	0
0.41600	1
0.41967	1
0.42333	1
0.42700	1
0.43067	1
0.43433	1
0.43800	1
0.44167	1
0.44533	1
0.44900	1
0.45267	1
0.45633	1
0.46000	1
0.46367	1
0.46733	1
0.47100	1
0.47467	1
0.47833	1
0.48200	0
0.48567	0
0.48933	0
0.49300	0
0.49667	0
0.50033	0
0.50400	0
0.50767	-0
0.51133	-0
0.51500	-0
0.51867	-0
0.52233	-0
0.52600	-0
0.52967	-0
0.53333	-0
0.53700	-0
0.54067	-0
0.54433	-0
0.54800	0
0.55167	0
0.55533	0
0.55900	0
0.56267	0
0.56633	1
0.57000	1
0.57367	1
0.57733	1
0.58100	0
0.58467	0
0.58833	0
0.59200	0
0.59567	0
0.59933	0
0.60300	1
0.60667	1
0.61033	1
0.61400	1
0.61767	0
0.62133	0
0.62500	0
0.62867	-0
0.63233	-0
0.63600	-0
0.63967	-0
0.64333	-1
0.64700	-1
0.65067	-1
0.65433	-1
0.65800	-0
0.66167	-0
0.66533	-1
0.66900	-1
0.67267	-1
0.67633	-1
0.68000	-1
0.68367	-2
0.68733	-2
0.69100	-2
0.69467	-2
0.69833	-2
0.70200	-2
0.70567	-2
0.70933	-2
0.71300	-2
0.71667	-2
0.72033	-2
0.72400	-2
0.72767	-2
0.73133	-2
0.73500	-2
0.73867	-2
0.74233	-2
0.74600	-2
0.74967	-2
0.75333	-2
0.75700	-2
0.76067	-1
0.76433	-1
0.76800	-1
0.77167	-0
0.77533	0
0.77900	0
0.78267	1
0.78633	1
0.79000	1
0.79367	1
0.79733	1
0.80100	1
0.80467	1
0.80833	0
0.81200	-0
0.81567	-1
0.81933	-1
0.82300	-1
0.82667	-1
0.83033	-1
0.83400	-2
0.83767	-2
0.84133	-2
0.84500	-2
0.84867	-2
0.85233	-2
0.85600	-2
0.85967	-2
0.86333	-2
0.86700	-1
0.87067	-1
0.87433	-1
0.87800	-0
0.88167	0
0.88533	0
0.88900	1
0.89267	1
0.89633	1
0.90000	1
0.90367	1
0.90733	1
0.91100	0
0.91467	0
0.91833	-0
0.92200	-0
0.92567	-0
0.92933	-0
0.93300	-0
0.93667	-0
0.94033	0
0.94400	1
0.94767	1
0.95133	1
0.95500	1
0.95867	1
0.96233	1
0.96600	1
0.96967	1
0.97333	1
0.97700	1
0.98067	1
0.98433	1
0.98800	1
0.99167	0
0.99533	0
0.99900	-0
1.00267	-0
1.00633	-1
1.01000	-1
1.01367	-1
1.01733	-2
1.02100	-2
1.02467	-2
1.02833	-2
1.03200	-3
1.03567	-3
1.03933	-3
1.04300	-3
1.04667	-3
1.05033	-3
1.05400	-3
1.05767	-3
1.06133	-3
1.06500	-3
1.06867	-3
1.07233	-3
1.07600	-2
1.07967	-2
1.08333	-2
1.08700	-1
1.09067	-1
1.09433	-1
1.09800	-1
1.10167	-1
1.10533	-1
1.10900	-1
1.11267	-1
1.11633	-1
1.12000	-2
1.12367	-2
1.12733	-2
1.13100	-2
1.13467	-2
1.13833	-2
1.14200	-2
1.14567	-2
1.14933	-2
1.15300	-2
1.15667	-2
1.16033	-2
1.16400	-2
1.16767	-2
1.17133	-2
1.17500	-2
1.17867	-2
1.18233	-2
1.18600	-2
1.18967	-2
1.19333	-2
1.19700	-2
1.20067	-2
1.20433	-2
1.20800	-2
1.21167	-2
1.21533	-2
1.21900	-2
1.22267	-2
1.22633	-2
1.23000	-2
1.23367	-2
1.23733	-2
1.24100	-2
1.24467	-2
1.24833	-2
1.25200	-2
1.25567	-2
1.25933	-2
1.26300	-2
1.26667	-2
1.27033	-2
1.27400	-2
1.27767	-2
1.28133	-2
1.28500	-2
1.28867	-2
1.29233	-2
1.29600	-2
1.29967	-2
1.30333	-2
1.30700	-2
1.31067	-2
1.31433	-2
1.31800	-3
1.32167	-3
1.32533	-3
1.32900	-3
1.33267	-3
1.33633	-3
1.34000	-4
1.34367	-4
1.34733	-4
1.35100	-4
1.35467	-4
1.35833	-5
1.36200	-5
1.36567	-5
1.36933	-5
1.37300	-5
1.37667	-5
1.38033	-5
1.38400	-6
1.38767	-6
1.39133	-6
1.39500	-6
1.39867	-6
1.40233	-6
1.40600	-6
1.40967	-6
1.41333	-6
1.41700	-5
1.42067	-5
1.42433	-5
1.42800	-5
1.43167	-5
1.43533	-5
1.43900	-5
1.44267	-5
1.44633	-5
1.45000	-4
1.45367	-4
1.45733	-4
1.46100	-3
1.46467	-3
1.46833	-3
1.47200	-3
1.47567	-3
1.47933	-3
1.48300	-3
1.48667	-3
1.49033	-3
1.49400	-3
1.49767	-2
1.50133	-2
1.50500	-2
1.50867	-2
1.51233	-2
1.51600	-2
1.51967	-2
1.52333	-2
1.52700	-2
1.53067	-2
1.53433	-2
1.53800	-2
1.54167	-2
1.54533	-2
1.54900	-2
1.55267	-2
1.55633	-2
1.56000	-2
1.56367	-2
1.56733	-1
1.57100	-1
1.57467	-1
1.57833	-0
1.58200	-0
1.58567	0
1.58933	-0
1.59300	-0
1.59667	-1
1.60033	-1
1.60400	-2
1.60767	-3
1.61133	-4
1.61500	-6
1.61867	-8
1.62233	-11
1.62600	-14
1.62967	-17
1.63333	-20
1.63700	-24
1.64067	-28
1.64433	-32
1.64800	-36
1.65167	-40
1.65533	-44
1.65900	-48
1.66267	-51
1.66633	-55
1.67000	-60
1.67367	-64
1.67733	-69
1.68100	-74
1.68467	-79
1.68833	-84
1.69200	-89
1.69567	-93
1.69933	-97
1.70300	-100
1.70667	-102
1.71033	-105
1.71400	-107
1.71767	-109
1.72133	-110
1.72500	-111
1.72867	-111
1.73233	-111
1.73600	-111
1.73967	-111
1.74333	-111
1.74700	-110
1.75067	-110
1.75433	-109
1.75800	-109
1.76167	-110
1.76533	-111
1.76900	-113
1.77267	-114
1.77633	-116
1.78000	-117
1.78367	-118
1.78733	-119
1.79100	-120
1.79467	-120
1.79833	-120
1.80200	-121
1.80567	-121
1.80933	-122
1.81300	-122
1.81667	-123
1.82033	-123
1.82400	-123
1.82767	-123
1.83133	-123
1.83500	-122
1.83867	-122
1.84233	-121
1.84600	-121
1.84967	-120
1.85333	-120
1.85700	-120
1.86067	-120
1.86433	-120
1.86800	-120
1.87167	-120
1.87533	-120
1.87900	-120
1.88267	-120
1.88633	-121
1.89000	-121
1.89367	-121
1.89733	-121
1.90100	-121
1.90467	-122
1.90833	-122
1.91200	-122
1.91567	-121
1.91933	-121
1.92300	-121
1.92667	-120
1.93033	-119
1.93400	-119
1.93767	-119
1.94133	-118
1.94500	-118
1.94867	-118
1.95233	-118
1.95600	-118
1.95967	-118
1.96333	-118
1.96700	-117
1.97067	-117
1.97433	-117
1.97800	-116
1.98167	-116
1.98533	-116
1.98900	-116
1.99267	-116
1.99633	-115
2.00000	-115
2.00367	-115
2.00733	-114
2.01100	-113
2.01467	-113
2.01833	-112
2.02200	-111
2.02567	-111
2.02933	-111
2.03300	-111
2.03667	-111
2.04033	-111
2.04400	-112
2.04767	-112
2.05133	-112
2.05500	-111
2.05867	-111
2.06233	-110
2.06600	-109
2.06967	-108
2.07333	-108
2.07700	-107
2.08067	-107
2.08433	-107
2.08800	-107
2.09167	-106
2.09533	-106
2.09900	-106
2.10267	-106
2.10633	-105
2.11000	-105
2.11367	-105
2.11733	-105
2.12100	-105
2.12467	-105
2.12833	-104
2.13200	-104
2.13567	-103
2.13933	-103
2.14300	-102
2.14667	-102
2.15033	-102
2.15400	-101
2.15767	-101
2.16133	-101
2.16500	-101
2.16867	-100
2.17233	-100
2.17600	-100
2.17967	-99
2.18333	-99
2.18700	-98
2.19067	-97
2.19433	-97
2.19800	-97
2.20167	-97
2.20533	-97
2.20900	-96
2.21267	-96
2.21633	-96
2.22000	-95
2.22367	-95
2.22733	-95
2.23100	-94
2.23467	-94
2.23833	-94
2.24200	-94
2.24567	-94
2.24933	-94
2.25300	-93
2.25667	-93
2.26033	-92
2.26400	-92
2.26767	-92
2.27133	-93
2.27500	-93
2.27867	-92
2.28233	-92
2.28600	-92
2.28967	-92
2.29333	-92
2.29700	-92
2.30067	-91
2.30433	-90
2.30800	-89
2.31167	-88
2.31533	-87
2.31900	-87
2.32267	-87
2.32633	-88
2.33000	-88
2.33367	-88
2.33733	-88
2.34100	-88
2.34467	-87
2.34833	-87
2.35200	-87
2.35567	-87
2.35933	-87
2.36300	-86
2.36667	-86
2.37033	-86
2.37400	-85
2.37767	-84
2.38133	-81
2.38500	-79
2.38867	-75
2.39233	-71
2.39600	-66
2.39967	-61
2.40333	-56
2.40700	-51
2.41067	-46
2.41433	-41
2.41800	-36
2.42167	-32
2.42533	-28
2.42900	-25
2.43267	-22
2.43633	-19
2.44000	-17
2.44367	-15
2.44733	-13
2.45100	-11
2.45467	-9
2.45833	-7
2.46200	-6
2.46567	-5
2.46933	-4
2.47300	-3
2.47667	-1
2.48033	-0
2.48400	1
2.48767	3
2.49133	4
2.49500	5
2.49867	6
2.50233	7
2.50600	8
2.50967	8
2.51333	9
2.51700	10
2.52067	10
2.52433	10
2.52800	10
2.53167	10
2.53533	10
2.53900	10
2.54267	11
2.54633	12
2.55000	12
2.55367	13
2.55733	14
2.56100	14
2.56467	14
2.56833	14
2.57200	14
2.57567	14
2.57933	13
2.58300	13
2.58667	13
2.59033	14
2.59400	14
2.59767	14
2.60133	14
2.60500	13
2.60867	13
2.61233	13
2.61600	14
2.61967	14
2.62333	15
2.62700	15
2.63067	16
2.63433	17
2.63800	18
2.64167	19
2.64533	19
2.64900	20
2.65267	19
2.65633	19
2.66000	19
2.66367	19
2.66733	19
2.67100	19
2.67467	19
2.67833	19
2.68200	20
2.68567	20
2.68933	20
2.69300	21
2.69667	21
2.70033	21
2.70400	21
2.70767	22
2.71133	22
2.71500	22
2.71867	22
2.72233	22
2.72600	22
2.72967	21
2.73333	21
2.73700	22
2.74067	22
2.74433	22
2.74800	22
2.75167	22
2.75533	22
2.75900	22
2.76267	22
2.76633	22
2.77000	22
2.77367	22
2.77733	22
2.78100	22
2.78467	22
2.78833	22
2.79200	21
2.79567	21
2.79933	21
2.80300	21
2.80667	21
2.81033	21
2.81400	21
2.81767	21
2.82133	21
2.82500	21
2.82867	22
2.83233	22
2.83600	22
2.83967	23
2.84333	23
2.84700	22
2.85067	21
2.85433	18
2.85800	14
2.86167	8
2.86533	-2
2.86900	-15
2.87267	-31
2.87633	-52
2.88000	-76
2.88367	-105
2.88733	-138
2.89100	-174
2.89467	-213
2.89833	-255
2.90200	-300
2.90567	-346
2.90933	-394
2.91300	-443
2.91667	-492
2.92033	-542
2.92400	-591
2.92767	-640
2.93133	-688
2.93500	-736
2.93867	-783
2.94233	-833
2.94600	-888
2.94967	-949
2.95333	-1008
2.95700	-1055
2.96067	-1081
2.96433	-1079
2.96800	-1053
2.97167	-1005
2.97533	-941
2.97900	-867
2.98267	-789
2.98633	-709
2.99000	-631
2.99367	-557
2.99733	-489
3.00100	-426
3.00467	-369
3.00833	-319
3.01200	-274
3.01567	-235
3.01933	-200
3.02300	-170
3.02667	-145
3.03033	-122
3.03400	-103
3.03767	-87
3.04133	-72
3.04500	-60
3.04867	-50
3.05233	-41
3.05600	-34
3.05967	-27
3.06333	-22
3.06700	-18
3.07067	-14
3.07433	-10
3.07800	-7
3.08167	-5
3.08533	-2
3.08900	-1
3.09267	1
3.09633	2
3.10000	4
3.10367	5
3.10733	6
3.11100	7
3.11467	8
3.11833	9
3.12200	9
3.12567	10
3.12933	11
3.13300	11
3.13667	12
3.14033	13
3.14400	14
3.14767	14
3.15133	15
3.15500	16
3.15867	17
3.16233	17
3.16600	18
3.16967	18
3.17333	19
3.17700	20
3.18067	20
3.18433	21
3.18800	21
3.19167	22
3.19533	22
3.19900	22
3.20267	22
3.20633	23
3.21000	23
3.21367	23
3.21733	24
3.22100	24
3.22467	25
3.22833	25
3.23200	25
3.23567	26
3.23933	26
3.24300	26
3.24667	26
3.25033	26
3.25400	26
3.25767	26
3.26133	26
3.26500	26
3.26867	26
3.27233	26
3.27600	26
3.27967	26
3.28333	26
3.28700	26
3.29067	26
3.29433	26
3.29800	26
3.30167	26
3.30533	26
3.30900	25
3.31267	25
3.31633	24
3.32000	24
3.32367	23
3.32733	23
3.33100	23
3.33467	22
3.33833	22
3.34200	22
3.34567	22
3.34933	22
3.35300	22
3.35667	22
3.36033	22
3.36400	22
3.36767	22
3.37133	22
3.37500	23
3.37867	23
3.38233	23
3.38600	23
3.38967	23
3.39333	23
3.39700	23
3.40067	23
3.40433	23
3.40800	23
3.41167	23
3.41533	24
3.41900	24
3.42267	24
3.42633	24
3.43000	24
3.43367	24
3.43733	24
3.44100	24
3.44467	24
3.44833	24
3.45200	24
3.45567	24
3.45933	25
3.46300	25
3.46667	25
3.47033	25
3.47400	25
3.47767	26
3.48133	26
3.48500	26
3.48867	26
3.49233	26
3.49600	26
3.49967	27
3.50333	27
3.50700	26
3.51067	27
3.51433	27
3.51800	26
3.52167	26
3.52533	26
3.52900	26
3.53267	26
3.53633	26
3.54000	26
3.54367	25
3.54733	25
3.55100	25
3.55467	25
3.55833	25
3.56200	25
3.56567	25
3.56933	25
3.57300	25
3.57667	25
3.58033	25
3.58400	25
3.58767	25
3.59133	26
3.59500	26
3.59867	26
3.60233	25
3.60600	25
3.60967	25
3.61333	25
3.61700	25
3.62067	25
3.62433	25
3.62800	25
3.63167	25
3.63533	26
3.63900	26
3.64267	25
3.64633	25
3.65000	25
3.65367	25
3.65733	25
3.66100	25
3.66467	25
3.66833	25
3.67200	25
3.67567	25
3.67933	25
3.68300	25
3.68667	25
3.69033	25
3.69400	25
3.69767	25
3.70133	25
3.70500	25
3.70867	25
3.71233	25
3.71600	25
3.71967	25
3.72333	25
3.72700	25
3.73067	25
3.73433	25
3.73800	25
3.74167	24
3.74533	24
3.74900	24
3.75267	24
3.75633	24
3.76000	24
3.76367	24
3.76733	24
3.77100	24
3.77467	24
3.77833	24
3.78200	24
3.78567	24
3.78933	24
3.79300	24
3.79667	24
3.80033	24
3.80400	25
3.80767	25
3.81133	25
3.81500	25
3.81867	25
3.82233	25
3.82600	25
3.82967	25
3.83333	25
3.83700	25
3.84067	25
3.84433	25
3.84800	25
3.85167	25
3.85533	25
3.85900	25
3.86267	25
3.86633	25
3.87000	25
3.87367	25
3.87733	25
3.88100	26
3.88467	26
3.88833	26
3.89200	26
3.89567	26
3.89933	26
3.90300	26
3.90667	26
3.91033	26
3.91400	26
3.91767	26
3.92133	26
3.92500	26
3.92867	26
3.93233	26
3.93600	25
3.93967	25
3.94333	25
3.94700	25
3.95067	25
3.95433	24
3.95800	24
3.96167	24
3.96533	24
3.96900	24
3.97267	24
3.97633	23
3.98000	23
3.98367	23
3.98733	23
3.99100	23
3.99467	24
3.99833	24

[Chromatogram (Ch3)]
Interval(msec)	220
# of Points	1091
Start Time(min)	0.002
End Time(min)	3.998
R.Time (min)	Intensity
0.00167	1
0.00533	4
0.00900	4
0.01267	2
0.01633	2
0.02000	1
0.02367	1
0.02733	1
0.03100	3
0.03467	4
0.03833	6
0.04200	6
0.04567	5
0.04933	5
0.05300	6
0.05667	8
0.06033	9
0.06400	9
0.06767	8
0.07133	8
0.07500	6
0.07867	5
0.08233	4
0.08600	4
0.08967	3
0.09333	4
0.09700	5
0.10067	5
0.10433	5
0.10800	5
0.11167	6
0.11533	7
0.11900	8
0.12267	9
0.12633	9
0.13000	8
0.13367	8
0.13733	8
0.14100	9
0.14467	9
0.14833	10
0.15200	11
0.15567	10
0.15933	10
0.16300	9
0.16667	9
0.17033	7
0.17400	5
0.17767	5
0.18133	6
0.18500	7
0.18867	9
0.19233	12
0.19600	12
0.19967	15
0.20333	16
0.20700	15
0.21067	15
0.21433	13
0.21800	14
0.22167	17
0.22533	19
0.22900	19
0.23267	19
0.23633	19
0.24000	18
0.24367	16
0.24733	14
0.25100	14
0.25467	14
0.25833	14
0.26200	16
0.26567	18
0.26933	21
0.27300	22
0.27667	22
0.28033	24
0.28400	26
0.28767	26
0.29133	24
0.29500	23
0.29867	22
0.30233	20
0.30600	20
0.30967	21
0.31333	22
0.31700	22
0.32067	22
0.32433	23
0.32800	23
0.33167	22
0.33533	22
0.33900	21
0.34267	22
0.34633	23
0.35000	23
0.35367	24
0.35733	25
0.36100	23
0.36467	23
0.36833	23
0.37200	22
0.37567	22
0.37933	22
0.38300	22
0.38667	20
0.39033	18
0.39400	20
0.39767	24
0.40133	26
0.40500	29
0.40867	31
0.41233	30
0.41600	31
0.41967	30
0.42333	28
0.42700	27
0.43067	27
0.43433	27
0.43800	26
0.44167	27
0.44533	26
0.44900	26
0.45267	28
0.45633	30
0.46000	30
0.46367	29
0.46733	29
0.47100	32
0.47467	34
0.47833	33
0.48200	32
0.48567	33
0.48933	32
0.49300	28
0.49667	27
0.50033	26
0.50400	27
0.50767	30
0.51133	31
0.51500	32
0.51867	36
0.52233	37
0.52600	35
0.52967	34
0.53333	34
0.53700	35
0.54067	34
0.54433	33
0.54800	33
0.55167	31
0.55533	31
0.55900	32
0.56267	32
0.56633	33
0.57000	32
0.57367	33
0.57733	35
0.58100	35
0.58467	33
0.58833	33
0.59200	32
0.59567	30
0.59933	29
0.60300	30
0.60667	29
0.61033	29
0.61400	31
0.61767	32
0.62133	31
0.62500	31
0.62867	31
0.63233	30
0.63600	32
0.63967	33
0.64333	35
0.64700	36
0.65067	36
0.65433	34
0.65800	34
0.66167	34
0.66533	36
0.66900	36
0.67267	34
0.67633	34
0.68000	36
0.68367	36
0.68733	36
0.69100	37
0.69467	37
0.69833	35
0.70200	35
0.70567	36
0.70933	37
0.71300	37
0.71667	37
0.72033	36
0.72400	35
0.72767	37
0.73133	39
0.73500	40
0.73867	42
0.74233	42
0.74600	43
0.74967	43
0.75333	41
0.75700	38
0.76067	39
0.76433	40
0.76800	42
0.77167	44
0.77533	46
0.77900	45
0.78267	44
0.78633	44
0.79000	45
0.79367	46
0.79733	46
0.80100	45
0.80467	48
0.80833	49
0.81200	46
0.81567	45
0.81933	46
0.82300	46
0.82667	47
0.83033	50
0.83400	49
0.83767	48
0.84133	48
0.84500	47
0.84867	49
0.85233	53
0.85600	53
0.85967	51
0.86333	48
0.86700	48
0.87067	50
0.87433	52
0.87800	52
0.88167	52
0.88533	52
0.88900	51
0.89267	49
0.89633	49
0.90000	50
0.90367	49
0.90733	49
0.91100	49
0.91467	52
0.91833	54
0.92200	55
0.92567	56
0.92933	59
0.93300	59
0.93667	58
0.94033	57
0.94400	56
0.94767	56
0.95133	56
0.95500	56
0.95867	55
0.96233	55
0.96600	55
0.96967	55
0.97333	57
0.97700	58
0.98067	60
0.98433	62
0.98800	62
0.99167	61
0.99533	61
0.99900	61
1.00267	59
1.00633	59
1.01000	60
1.01367	61
1.01733	61
1.02100	62
1.02467	64
1.02833	65
1.03200	66
1.03567	65
1.03933	64
1.04300	65
1.04667	64
1.05033	66
1.05400	67
1.05767	64
1.06133	63
1.06500	63
1.06867	63
1.07233	61
1.07600	60
1.07967	59
1.08333	60
1.08700	62
1.09067	63
1.09433	64
1.09800	64
1.10167	63
1.10533	63
1.10900	65
1.11267	66
1.11633	66
1.12000	65
1.12367	65
1.12733	65
1.13100	64
1.13467	66
1.13833	66
1.14200	68
1.14567	69
1.14933	69
1.15300	68
1.15667	68
1.16033	69
1.16400	68
1.16767	67
1.17133	65
1.17500	65
1.17867	66
1.18233	66
1.18600	65
1.18967	66
1.19333	66
1.19700	65
1.20067	68
1.20433	69
1.20800	68
1.21167	66
1.21533	66
1.21900	65
1.22267	67
1.22633	68
1.23000	68
1.23367	67
1.23733	68
1.24100	70
1.24467	70
1.24833	67
1.25200	66
1.25567	67
1.25933	68
1.26300	69
1.26667	68
1.27033	65
1.27400	66
1.27767	65
1.28133	64
1.28500	65
1.28867	67
1.29233	66
1.29600	66
1.29967	66
1.30333	64
1.30700	65
1.31067	65
1.31433	66
1.31800	66
1.32167	67
1.32533	69
1.32900	71
1.33267	73
1.33633	73
1.34000	72
1.34367	72
1.34733	72
1.35100	71
1.35467	72
1.35833	72
1.36200	71
1.36567	72
1.36933	73
1.37300	74
1.37667	73
1.38033	74
1.38400	76
1.38767	77
1.39133	77
1.39500	76
1.39867	77
1.40233	77
1.40600	78
1.40967	81
1.41333	82
1.41700	84
1.42067	85
1.42433	85
1.42800	84
1.43167	83
1.43533	81
1.43900	80
1.44267	80
1.44633	80
1.45000	80
1.45367	82
1.45733	85
1.46100	84
1.46467	82
1.46833	81
1.47200	82
1.47567	82
1.47933	80
1.48300	79
1.48667	79
1.49033	80
1.49400	81
1.49767	82
1.50133	83
1.50500	84
1.50867	84
1.51233	84
1.51600	84
1.51967	83
1.52333	83
1.52700	81
1.53067	80
1.53433	79
1.53800	80
1.54167	79
1.54533	78
1.54900	80
1.55267	83
1.55633	85
1.56000	86
1.56367	87
1.56733	87
1.57100	87
1.57467	87
1.57833	86
1.58200	85
1.58567	86
1.58933	84
1.59300	84
1.59667	84
1.60033	83
1.60400	81
1.60767	80
1.61133	81
1.61500	83
1.61867	85
1.62233	88
1.62600	89
1.62967	89
1.63333	90
1.63700	91
1.64067	90
1.64433	90
1.64800	90
1.65167	89
1.65533	89
1.65900	90
1.66267	93
1.66633	95
1.67000	95
1.67367	96
1.67733	98
1.68100	97
1.68467	97
1.68833	99
1.69200	98
1.69567	98
1.69933	98
1.70300	98
1.70667	98
1.71033	98
1.71400	98
1.71767	97
1.72133	96
1.72500	96
1.72867	96
1.73233	97
1.73600	101
1.73967	103
1.74333	105
1.74700	106
1.75067	107
1.75433	110
1.75800	113
1.76167	114
1.76533	115
1.76900	116
1.77267	119
1.77633	121
1.78000	123
1.78367	122
1.78733	124
1.79100	128
1.79467	131
1.79833	133
1.80200	131
1.80567	130
1.80933	129
1.81300	128
1.81667	128
1.82033	130
1.82400	133
1.82767	136
1.83133	134
1.83500	131
1.83867	129
1.84233	128
1.84600	126
1.84967	127
1.85333	130
1.85700	131
1.86067	131
1.86433	134
1.86800	137
1.87167	137
1.87533	136
1.87900	134
1.88267	133
1.88633	133
1.89000	135
1.89367	136
1.89733	136
1.90100	135
1.90467	136
1.90833	138
1.91200	139
1.91567	140
1.91933	143
1.92300	144
1.92667	142
1.93033	145
1.93400	145
1.93767	146
1.94133	148
1.94500	151
1.94867	152
1.95233	153
1.95600	154
1.95967	155
1.96333	155
1.96700	156
1.97067	160
1.97433	162
1.97800	162
1.98167	162
1.98533	162
1.98900	161
1.99267	162
1.99633	165
2.00000	168
2.00367	170
2.00733	171
2.01100	172
2.01467	173
2.01833	176
2.02200	178
2.02567	180
2.02933	181
2.03300	182
2.03667	183
2.04033	185
2.04400	189
2.04767	193
2.05133	196
2.05500	199
2.05867	202
2.06233	203
2.06600	203
2.06967	203
2.07333	203
2.07700	201
2.08067	202
2.08433	204
2.08800	207
2.09167	208
2.09533	210
2.09900	210
2.10267	211
2.10633	212
2.11000	215
2.11367	218
2.11733	221
2.12100	223
2.12467	225
2.12833	227
2.13200	232
2.13567	236
2.13933	237
2.14300	238
2.14667	240
2.15033	244
2.15400	246
2.15767	246
2.16133	246
2.16500	247
2.16867	247
2.17233	247
2.17600	248
2.17967	251
2.18333	253
2.18700	255
2.19067	256
2.19433	259
2.19800	261
2.20167	264
2.20533	263
2.20900	262
2.21267	262
2.21633	264
2.22000	266
2.22367	268
2.22733	268
2.23100	266
2.23467	266
2.23833	268
2.24200	270
2.24567	273
2.24933	275
2.25300	276
2.25667	278
2.26033	277
2.26400	276
2.26767	278
2.27133	283
2.27500	285
2.27867	287
2.28233	289
2.28600	291
2.28967	292
2.29333	293
2.29700	291
2.30067	292
2.30433	291
2.30800	291
2.31167	293
2.31533	297
2.31900	298
2.32267	298
2.32633	300
2.33000	303
2.33367	305
2.33733	307
2.34100	308
2.34467	308
2.34833	309
2.35200	311
2.35567	313
2.35933	314
2.36300	314
2.36667	315
2.37033	316
2.37400	317
2.37767	316
2.38133	317
2.38500	318
2.38867	316
2.39233	316
2.39600	317
2.39967	319
2.40333	320
2.40700	318
2.41067	317
2.41433	317
2.41800	318
2.42167	318
2.42533	318
2.42900	319
2.43267	321
2.43633	323
2.44000	326
2.44367	330
2.44733	332
2.45100	324
2.45467	308
2.45833	289
2.46200	272
2.46567	255
2.46933	241
2.47300	229
2.47667	218
2.48033	212
2.48400	206
2.48767	200
2.49133	194
2.49500	187
2.49867	178
2.50233	169
2.50600	161
2.50967	155
2.51333	148
2.51700	141
2.52067	132
2.52433	125
2.52800	118
2.53167	111
2.53533	104
2.53900	97
2.54267	93
2.54633	88
2.55000	83
2.55367	80
2.55733	76
2.56100	73
2.56467	70
2.56833	65
2.57200	61
2.57567	56
2.57933	53
2.58300	48
2.58667	42
2.59033	38
2.59400	35
2.59767	29
2.60133	16
2.60500	-35
2.60867	-126
2.61233	-186
2.61600	-190
2.61967	-151
2.62333	-87
2.62700	-15
2.63067	57
2.63433	130
2.63800	199
2.64167	263
2.64533	322
2.64900	378
2.65267	431
2.65633	484
2.66000	536
2.66367	586
2.66733	633
2.67100	678
2.67467	716
2.67833	751
2.68200	786
2.68567	818
2.68933	845
2.69300	868
2.69667	888
2.70033	906
2.70400	923
2.70767	938
2.71133	949
2.71500	960
2.71867	966
2.72233	972
2.72600	977
2.72967	979
2.73333	980
2.73700	982
2.74067	981
2.74433	980
2.74800	980
2.75167	981
2.75533	979
2.75900	976
2.76267	974
2.76633	971
2.77000	970
2.77367	973
2.77733	970
2.78100	966
2.78467	962
2.78833	957
2.79200	954
2.79567	949
2.79933	944
2.80300	939
2.80667	936
2.81033	932
2.81400	929
2.81767	926
2.82133	922
2.82500	918
2.82867	917
2.83233	925
2.83600	947
2.83967	998
2.84333	1096
2.84700	1259
2.85067	1507
2.85433	1858
2.85800	2310
2.86167	2843
2.86533	3428
2.86900	4020
2.87267	4570
2.87633	5033
2.88000	5372
2.88367	5568
2.88733	5623
2.89100	5547
2.89467	5367
2.89833	5109
2.90200	4796
2.90567	4456
2.90933	4110
2.91300	3770
2.91667	3447
2.92033	3147
2.92400	2875
2.92767	2626
2.93133	2400
2.93500	2202
2.93867	2030
2.94233	1878
2.94600	1743
2.94967	1627
2.95333	1525
2.95700	1439
2.96067	1365
2.96433	1300
2.96800	1245
2.97167	1197
2.97533	1156
2.97900	1120
2.98267	1089
2.98633	1063
2.99000	1042
2.99367	1024
2.99733	1008
3.00100	993
3.00467	983
3.00833	975
3.01200	964
3.01567	954
3.01933	947
3.02300	940
3.02667	932
3.03033	924
3.03400	916
3.03767	911
3.04133	906
3.04500	900
3.04867	894
3.05233	886
3.05600	878
3.05967	871
3.06333	862
3.06700	855
3.07067	850
3.07433	844
3.07800	837
3.08167	828
3.08533	819
3.08900	811
3.09267	803
3.09633	796
3.10000	787
3.10367	778
3.10733	772
3.11100	765
3.11467	759
3.11833	750
3.12200	742
3.12567	734
3.12933	726
3.13300	720
3.13667	715
3.14033	709
3.14400	705
3.14767	702
3.15133	700
3.15500	698
3.15867	695
3.16233	690
3.16600	683
3.16967	677
3.17333	672
3.17700	665
3.18067	660
3.18433	659
3.18800	659
3.19167	658
3.19533	655
3.19900	652
3.20267	647
3.20633	641
3.21000	635
3.21367	627
3.21733	625
3.22100	623
3.22467	621
3.22833	620
3.23200	617
3.23567	612
3.23933	610
3.24300	607
3.24667	605
3.25033	601
3.25400	598
3.25767	593
3.26133	590
3.26500	587
3.26867	582
3.27233	578
3.27600	573
3.27967	566
3.28333	561
3.28700	557
3.29067	554
3.29433	552
3.29800	549
3.30167	546
3.30533	544
3.30900	541
3.31267	539
3.31633	537
3.32000	531
3.32367	527
3.32733	523
3.33100	518
3.33467	516
3.33833	514
3.34200	510
3.34567	507
3.34933	505
3.35300	501
3.35667	496
3.36033	491
3.36400	487
3.36767	485
3.37133	483
3.37500	480
3.37867	476
3.38233	472
3.38600	470
3.38967	465
3.39333	459
3.39700	457
3.40067	456
3.40433	455
3.40800	453
3.41167	450
3.41533	445
3.41900	438
3.42267	435
3.42633	432
3.43000	428
3.43367	425
3.43733	422
3.44100	419
3.44467	416
3.44833	414
3.45200	411
3.45567	410
3.45933	408
3.46300	407
3.46667	407
3.47033	407
3.47400	405
3.47767	401
3.48133	397
3.48500	395
3.48867	393
3.49233	390
3.49600	386
3.49967	383
3.50333	381
3.50700	380
3.51067	378
3.51433	376
3.51800	374
3.52167	370
3.52533	367
3.52900	367
3.53267	367
3.53633	365
3.54000	362
3.54367	360
3.54733	358
3.55100	355
3.55467	351
3.55833	350
3.56200	350
3.56567	349
3.56933	350
3.57300	351
3.57667	351
3.58033	351
3.58400	348
3.58767	345
3.59133	341
3.59500	336
3.59867	333
3.60233	330
3.60600	329
3.60967	328
3.61333	326
3.61700	324
3.62067	322
3.62433	317
3.62800	315
3.63167	314
3.63533	312
3.63900	312
3.64267	314
3.64633	314
3.65000	316
3.65367	316
3.65733	314
3.66100	311
3.66467	306
3.66833	304
3.67200	300
3.67567	297
3.67933	297
3.68300	299
3.68667	302
3.69033	301
3.69400	297
3.69767	294
3.70133	291
3.70500	289
3.70867	286
3.71233	284
3.71600	283
3.71967	283
3.72333	284
3.72700	285
3.73067	285
3.73433	283
3.73800	281
3.74167	280
3.74533	279
3.74900	281
3.75267	280
3.75633	279
3.76000	278
3.76367	276
3.76733	273
3.77100	270
3.77467	268
3.77833	267
3.78200	265
3.78567	264
3.78933	262
3.79300	261
3.79667	259
3.80033	259
3.80400	260
3.80767	259
3.81133	257
3.81500	256
3.81867	255
3.82233	257
3.82600	257
3.82967	258
3.83333	258
3.83700	258
3.84067	258
3.84433	257
3.84800	256
3.85167	253
3.85533	251
3.85900	249
3.86267	250
3.86633	250
3.87000	248
3.87367	244
3.87733	242
3.88100	240
3.88467	239
3.88833	238
3.89200	239
3.89567	238
3.89933	237
3.90300	236
3.90667	235
3.91033	234
3.91400	233
3.91767	231
3.92133	232
3.92500	230
3.92867	229
3.93233	227
3.93600	224
3.93967	223
3.94333	224
3.94700	224
3.95067	224
3.95433	226
3.95800	226
3.96167	225
3.96533	223
3.96900	223
3.97267	222
3.97633	223
3.98000	224
3.98367	225
3.98733	224
3.99100	222
3.99467	219
3.99833	219

[Status Trace (Column Oven Temperature)]
Interval(msec)	1000
# of Points	240
Start Time(min)	0.003
End Time(min)	3.986
Intensity Units	
Intensity Multiplier	1
R.Time (min)	Intensity
0.00288	35.04
0.01955	35.04
0.03622	35.04
0.05288	35.01
0.06955	35.00
0.08622	35.00
0.10288	34.99
0.11955	34.99
0.13622	34.99
0.15288	34.99
0.16955	35.00
0.18622	34.99
0.20288	34.98
0.21955	34.98
0.23622	34.98
0.25288	35.00
0.26955	35.01
0.28622	35.00
0.30288	34.99
0.31955	34.99
0.33622	34.97
0.35288	34.96
0.36955	34.96
0.38622	34.95
0.40288	34.97
0.41955	34.97
0.43622	34.98
0.45288	34.97
0.46955	34.97
0.48622	34.97
0.50288	34.97
0.51955	34.97
0.53622	34.98
0.55288	34.98
0.56955	34.99
0.58622	34.99
0.60288	34.98
0.61955	34.98
0.63622	34.98
0.65288	34.98
0.66955	34.99
0.68622	35.00
0.70288	35.01
0.71955	35.01
0.73622	35.02
0.75288	35.01
0.76955	35.00
0.78622	34.98
0.80288	34.98
0.81955	35.00
0.83622	35.00
0.85288	35.00
0.86955	35.00
0.88622	34.98
0.90288	34.98
0.91955	34.99
0.93622	34.98
0.95288	34.97
0.96955	34.98
0.98622	34.98
1.00288	34.98
1.01955	35.00
1.03622	35.00
1.05288	35.02
1.06955	35.02
1.08622	35.01
1.10288	35.02
1.11955	35.01
1.13622	35.01
1.15288	35.00
1.16955	35.00
1.18622	35.00
1.20288	35.00
1.21955	35.00
1.23622	35.00
1.25288	35.00
1.26955	34.99
1.28622	34.99
1.30288	34.99
1.31955	35.00
1.33622	35.01
1.35288	35.03
1.36955	35.04
1.38622	35.05
1.40288	35.07
1.41955	35.06
1.43622	35.05
1.45288	35.06
1.46955	35.06
1.48622	35.06
1.50288	35.05
1.51955	35.05
1.53622	35.05
1.55288	35.05
1.56955	35.03
1.58622	35.01
1.60288	35.05
1.61955	35.14
1.63622	35.31
1.65288	35.53
1.66955	35.83
1.68622	36.21
1.70288	36.59
1.71955	36.93
1.73622	37.24
1.75288	37.54
1.76955	37.88
1.78622	38.22
1.80288	38.56
1.81955	38.90
1.83622	39.22
1.85288	39.55
1.86955	39.88
1.88622	40.22
1.90288	40.54
1.91955	40.86
1.93622	41.19
1.95288	41.52
1.96955	41.84
1.98622	42.17
2.00288	42.49
2.01955	42.80
2.03622	43.15
2.05288	43.47
2.06955	43.77
2.08622	44.11
2.10288	44.43
2.11955	44.77
2.13622	45.09
2.15288	45.41
2.16955	45.73
2.18622	46.07
2.20288	46.38
2.21955	46.71
2.23622	47.05
2.25288	47.39
2.26955	47.71
2.28622	48.05
2.30288	48.37
2.31955	48.70
2.33622	49.03
2.35288	49.34
2.36955	49.62
2.38622	49.74
2.40288	49.75
2.41955	49.73
2.43622	49.75
2.45288	49.75
2.46955	49.77
2.48622	49.77
2.50288	49.78
2.51955	49.80
2.53622	49.82
2.55288	49.82
2.56955	49.83
2.58622	49.83
2.60288	49.85
2.61955	49.85
2.63622	49.83
2.65288	49.85
2.66955	49.86
2.68622	49.86
2.70288	49.85
2.71955	49.86
2.73622	49.87
2.75288	49.88
2.76955	49.90
2.78622	49.91
2.80288	49.93
2.81955	49.94
2.83622	49.95
2.85288	49.96
2.86955	49.97
2.88622	49.97
2.90288	49.97
2.91955	49.97
2.93622	49.98
2.95288	49.98
2.96955	49.97
2.98622	49.98
3.00288	49.99
3.01955	50.01
3.03622	50.03
3.05288	50.05
3.06955	50.07
3.08622	50.09
3.10288	50.11
3.11955	50.12
3.13622	50.11
3.15288	50.11
3.16955	50.10
3.18622	50.08
3.20288	50.06
3.21955	50.04
3.23622	50.02
3.25288	50.00
3.26955	49.99
3.28622	49.98
3.30288	49.98
3.31955	50.00
3.33622	50.01
3.35288	50.02
3.36955	50.02
3.38622	50.03
3.40288	50.04
3.41955	50.04
3.43622	50.04
3.45288	50.04
3.46955	50.03
3.48622	50.02
3.50288	50.01
3.51955	50.02
3.53622	50.01
3.55288	50.02
3.56955	50.03
3.58622	50.03
3.60288	50.03
3.61955	50.03
3.63622	50.04
3.65288	50.04
3.66955	50.05
3.68622	50.06
3.70288	50.06
3.71955	50.07
3.73622	50.07
3.75288	50.08
3.76955	50.08
3.78622	50.09
3.80288	50.09
3.81955	50.09
3.83622	50.09
3.85288	50.09
3.86955	50.09
3.88622	50.07
3.90288	50.07
3.91955	50.07
3.93622	50.08
3.95288	50.09
3.96955	50.09
3.98622	50.10

[Status Trace (Injection Unit Temperature)]
Interval(msec)	1000
# of Points	240
Start Time(min)	0.003
End Time(min)	3.986
Intensity Units	
Intensity Multiplier	1
R.Time (min)	Intensity
0.00288	99.98
0.01955	99.99
0.03622	99.98
0.05288	99.99
0.06955	99.98
0.08622	99.99
0.10288	99.99
0.11955	99.98
0.13622	99.98
0.15288	99.99
0.16955	99.99
0.18622	99.99
0.20288	99.99
0.21955	99.99
0.23622	99.99
0.25288	99.99
0.26955	99.98
0.28622	99.98
0.30288	99.98
0.31955	99.99
0.33622	99.99
0.35288	99.98
0.36955	99.98
0.38622	99.99
0.40288	99.98
0.41955	99.99
0.43622	99.99
0.45288	99.98
0.46955	99.98
0.48622	99.98
0.50288	99.99
0.51955	99.99
0.53622	99.99
0.55288	99.98
0.56955	99.98
0.58622	99.98
0.60288	99.98
0.61955	99.98
0.63622	99.98
0.65288	99.98
0.66955	99.99
0.68622	99.98
0.70288	99.98
0.71955	99.98
0.73622	99.98
0.75288	99.98
0.76955	99.98
0.78622	99.98
0.80288	99.98
0.81955	99.98
0.83622	99.98
0.85288	99.98
0.86955	99.98
0.88622	99.98
0.90288	99.98
0.91955	99.98
0.93622	99.98
0.95288	99.98
0.96955	99.98
0.98622	99.98
1.00288	99.98
1.01955	99.98
1.03622	99.98
1.05288	99.98
1.06955	99.98
1.08622	99.98
1.10288	99.98
1.11955	99.98
1.13622	99.98
1.15288	99.98
1.16955	99.98
1.18622	99.98
1.20288	99.98
1.21955	99.98
1.23622	99.98
1.25288	99.99
1.26955	99.98
1.28622	99.98
1.30288	99.99
1.31955	99.98
1.33622	99.98
1.35288	99.98
1.36955	99.99
1.38622	99.99
1.40288	99.99
1.41955	99.99
1.43622	99.99
1.45288	99.98
1.46955	99.99
1.48622	99.99
1.50288	99.99
1.51955	99.98
1.53622	99.99
1.55288	99.99
1.56955	99.99
1.58622	99.99
1.60288	99.99
1.61955	99.99
1.63622	99.99
1.65288	99.99
1.66955	99.98
1.68622	99.99
1.70288	99.99
1.71955	99.99
1.73622	99.99
1.75288	99.99
1.76955	99.99
1.78622	99.99
1.80288	99.98
1.81955	99.99
1.83622	99.99
1.85288	99.98
1.86955	99.98
1.88622	99.98
1.90288	99.98
1.91955	99.98
1.93622	99.98
1.95288	99.98
1.96955	99.98
1.98622	99.98
2.00288	99.98
2.01955	99.98
2.03622	99.98
2.05288	99.98
2.06955	99.98
2.08622	99.98
2.10288	99.97
2.11955	99.97
2.13622	99.97
2.15288	99.97
2.16955	99.97
2.18622	99.97
2.20288	99.97
2.21955	99.97
2.23622	99.97
2.25288	99.97
2.26955	99.97
2.28622	99.96
2.30288	99.97
2.31955	99.97
2.33622	99.97
2.35288	99.97
2.36955	99.97
2.38622	99.96
2.40288	99.97
2.41955	99.97
2.43622	99.96
2.45288	99.97
2.46955	99.97
2.48622	99.97
2.50288	99.96
2.51955	99.96
2.53622	99.97
2.55288	99.97
2.56955	99.97
2.58622	99.98
2.60288	99.97
2.61955	99.97
2.63622	99.98
2.65288	99.98
2.66955	99.98
2.68622	99.98
2.70288	99.98
2.71955	99.98
2.73622	99.98
2.75288	99.99
2.76955	99.98
2.78622	99.99
2.80288	99.99
2.81955	99.99
2.83622	99.99
2.85288	99.99
2.86955	99.99
2.88622	99.99
2.90288	100.00
2.91955	100.00
2.93622	100.00
2.95288	100.00
2.96955	100.00
2.98622	100.00
3.00288	100.01
3.01955	100.01
3.03622	100.01
3.05288	100.01
3.06955	100.01
3.08622	100.01
3.10288	100.01
3.11955	100.02
3.13622	100.02
3.15288	100.02
3.16955	100.02
3.18622	100.02
3.20288	100.02
3.21955	100.02
3.23622	100.02
3.25288	100.03
3.26955	100.02
3.28622	100.03
3.30288	100.03
3.31955	100.03
3.33622	100.02
3.35288	100.03
3.36955	100.03
3.38622	100.03
3.40288	100.03
3.41955	100.03
3.43622	100.03
3.45288	100.03
3.46955	100.03
3.48622	100.04
3.50288	100.04
3.51955	100.04
3.53622	100.04
3.55288	100.04
3.56955	100.04
3.58622	100.04
3.60288	100.05
3.61955	100.04
3.63622	100.04
3.65288	100.04
3.66955	100.04
3.68622	100.05
3.70288	100.04
3.71955	100.05
3.73622	100.04
3.75288	100.05
3.76955	100.05
3.78622	100.05
3.80288	100.05
3.81955	100.05
3.83622	100.05
3.85288	100.04
3.86955	100.05
3.88622	100.05
3.90288	100.05
3.91955	100.04
3.93622	100.05
3.95288	100.05
3.96955	100.05
3.98622	100.05

[Status Trace (Carrier Gas Pressure)]
Interval(msec)	1000
# of Points	240
Start Time(min)	0.003
End Time(min)	3.986
Intensity Units	
Intensity Multiplier	1
R.Time (min)	Intensity
0.00288	58.00
0.01955	56.24
0.03622	56.37
0.05288	58.63
0.06955	59.89
0.08622	58.44
0.10288	57.97
0.11955	58.00
0.13622	58.01
0.15288	58.01
0.16955	58.01
0.18622	58.00
0.20288	58.00
0.21955	58.00
0.23622	58.00
0.25288	58.00
0.26955	58.00
0.28622	58.00
0.30288	58.00
0.31955	58.00
0.33622	58.00
0.35288	58.00
0.36955	58.00
0.38622	58.00
0.40288	58.00
0.41955	58.00
0.43622	58.00
0.45288	58.00
0.46955	58.00
0.48622	58.00
0.50288	58.00
0.51955	58.00
0.53622	58.00
0.55288	58.00
0.56955	58.00
0.58622	58.00
0.60288	58.00
0.61955	58.00
0.63622	58.00
0.65288	58.00
0.66955	58.00
0.68622	58.00
0.70288	58.00
0.71955	58.00
0.73622	58.00
0.75288	58.00
0.76955	58.00
0.78622	58.00
0.80288	58.00
0.81955	58.00
0.83622	58.00
0.85288	58.00
0.86955	58.00
0.88622	58.00
0.90288	58.00
0.91955	58.00
0.93622	58.00
0.95288	58.00
0.96955	58.00
0.98622	58.00
1.00288	58.00
1.01955	58.00
1.03622	58.00
1.05288	58.00
1.06955	58.00
1.08622	58.00
1.10288	58.00
1.11955	58.00
1.13622	58.00
1.15288	58.00
1.16955	58.00
1.18622	58.00
1.20288	58.00
1.21955	58.00
1.23622	58.00
1.25288	58.00
1.26955	58.00
1.28622	58.00
1.30288	58.00
1.31955	58.00
1.33622	58.00
1.35288	58.00
1.36955	58.00
1.38622	58.00
1.40288	58.00
1.41955	58.00
1.43622	58.00
1.45288	58.00
1.46955	58.00
1.48622	58.00
1.50288	58.00
1.51955	58.00
1.53622	58.00
1.55288	58.00
1.56955	58.00
1.58622	58.00
1.60288	58.00
1.61955	58.00
1.63622	58.01
1.65288	58.00
1.66955	58.00
1.68622	58.01
1.70288	58.00
1.71955	58.00
1.73622	58.00
1.75288	58.00
1.76955	58.00
1.78622	58.00
1.80288	58.00
1.81955	58.00
1.83622	58.00
1.85288	58.00
1.86955	58.00
1.88622	58.00
1.90288	58.00
1.91955	58.00
1.93622	58.00
1.95288	58.00
1.96955	58.00
1.98622	58.00
2.00288	58.00
2.01955	58.00
2.03622	58.00
2.05288	58.00
2.06955	58.00
2.08622	58.00
2.10288	58.00
2.11955	58.00
2.13622	58.00
2.15288	58.00
2.16955	58.00
2.18622	58.00
2.20288	58.00
2.21955	58.00
2.23622	58.00
2.25288	58.00
2.26955	58.00
2.28622	58.00
2.30288	58.00
2.31955	58.00
2.33622	58.00
2.35288	58.00
2.36955	58.00
2.38622	57.99
2.40288	57.99
2.41955	58.00
2.43622	58.00
2.45288	58.00
2.46955	58.00
2.48622	58.00
2.50288	57.96
2.51955	58.03
2.53622	57.99
2.55288	58.00
2.56955	58.00
2.58622	58.00
2.60288	58.00
2.61955	58.00
2.63622	58.00
2.65288	58.00
2.66955	58.00
2.68622	58.00
2.70288	58.00
2.71955	58.00
2.73622	58.00
2.75288	58.00
2.76955	58.00
2.78622	58.00
2.80288	58.00
2.81955	58.00
2.83622	58.00
2.85288	58.00
2.86955	58.00
2.88622	58.00
2.90288	58.00
2.91955	58.00
2.93622	58.00
2.95288	58.00
2.96955	58.00
2.98622	58.00
3.00288	58.00
3.01955	58.00
3.03622	58.00
3.05288	58.00
3.06955	58.00
3.08622	58.00
3.10288	58.00
3.11955	58.00
3.13622	58.00
3.15288	58.00
3.16955	58.00
3.18622	58.00
3.20288	58.00
3.21955	58.00
3.23622	58.00
3.25288	58.00
3.26955	58.00
3.28622	58.00
3.30288	58.00
3.31955	58.00
3.33622	58.00
3.35288	58.00
3.36955	58.00
3.38622	58.00
3.40288	58.00
3.41955	58.00
3.43622	58.00
3.45288	58.00
3.46955	58.00
3.48622	58.00
3.50288	58.00
3.51955	58.00
3.53622	58.00
3.55288	58.00
3.56955	58.00
3.58622	58.00
3.60288	58.00
3.61955	58.00
3.63622	58.00
3.65288	58.00
3.66955	58.00
3.68622	58.00
3.70288	58.00
3.71955	58.00
3.73622	58.00
3.75288	58.00
3.76955	58.00
3.78622	58.00
3.80288	58.00
3.81955	58.00
3.83622	58.00
3.85288	58.00
3.86955	58.00
3.88622	58.00
3.90288	58.00
3.91955	58.00
3.93622	58.00
3.95288	58.00
3.96955	58.00
3.98622	58.00

[Status Trace (Carrier Gas Flow)]
Interval(msec)	1000
# of Points	240
Start Time(min)	0.003
End Time(min)	3.986
Intensity Units	
Intensity Multiplier	1
R.Time (min)	Intensity
0.00288	34.52
0.01955	34.60
0.03622	34.53
0.05288	34.55
0.06955	34.50
0.08622	34.50
0.10288	34.52
0.11955	34.52
0.13622	34.52
0.15288	34.52
0.16955	34.52
0.18622	34.52
0.20288	34.52
0.21955	34.52
0.23622	34.52
0.25288	34.52
0.26955	34.52
0.28622	34.52
0.30288	34.52
0.31955	34.52
0.33622	34.52
0.35288	34.52
0.36955	34.52
0.38622	34.52
0.40288	34.52
0.41955	34.52
0.43622	34.52
0.45288	34.52
0.46955	34.52
0.48622	34.52
0.50288	34.52
0.51955	34.52
0.53622	34.52
0.55288	34.52
0.56955	34.52
0.58622	34.52
0.60288	34.52
0.61955	34.52
0.63622	34.52
0.65288	34.52
0.66955	34.52
0.68622	34.52
0.70288	34.52
0.71955	34.52
0.73622	34.52
0.75288	34.52
0.76955	34.52
0.78622	34.52
0.80288	34.52
0.81955	34.52
0.83622	34.52
0.85288	34.52
0.86955	34.52
0.88622	34.52
0.90288	34.53
0.91955	34.52
0.93622	34.52
0.95288	34.52
0.96955	34.52
0.98622	34.52
1.00288	34.52
1.01955	34.52
1.03622	34.52
1.05288	34.52
1.06955	34.52
1.08622	34.52
1.10288	34.52
1.11955	34.52
1.13622	34.52
1.15288	34.52
1.16955	34.52
1.18622	34.52
1.20288	34.52
1.21955	34.52
1.23622	34.52
1.25288	34.52
1.26955	34.52
1.28622	34.52
1.30288	34.52
1.31955	34.52
1.33622	34.52
1.35288	34.52
1.36955	34.52
1.38622	34.52
1.40288	34.52
1.41955	34.52
1.43622	34.52
1.45288	34.52
1.46955	34.52
1.48622	34.52
1.50288	34.52
1.51955	34.52
1.53622	34.52
1.55288	34.52
1.56955	34.52
1.58622	34.52
1.60288	34.52
1.61955	34.52
1.63622	34.52
1.65288	34.52
1.66955	34.52
1.68622	34.52
1.70288	34.52
1.71955	34.52
1.73622	34.52
1.75288	34.52
1.76955	34.52
1.78622	34.52
1.80288	34.52
1.81955	34.52
1.83622	34.52
1.85288	34.52
1.86955	34.52
1.88622	34.52
1.90288	34.52
1.91955	34.52
1.93622	34.52
1.95288	34.52
1.96955	34.52
1.98622	34.52
2.00288	34.52
2.01955	34.52
2.03622	34.52
2.05288	34.52
2.06955	34.52
2.08622	34.52
2.10288	34.52
2.11955	34.52
2.13622	34.52
2.15288	34.52
2.16955	34.52
2.18622	34.52
2.20288	34.52
2.21955	34.52
2.23622	34.52
2.25288	34.52
2.26955	34.52
2.28622	34.52
2.30288	34.52
2.31955	34.52
2.33622	34.52
2.35288	34.52
2.36955	34.52
2.38622	34.52
2.40288	34.52
2.41955	34.52
2.43622	34.52
2.45288	34.52
2.46955	34.52
2.48622	34.52
2.50288	34.69
2.51955	34.53
2.53622	34.52
2.55288	34.52
2.56955	34.52
2.58622	34.52
2.60288	34.52
2.61955	34.52
2.63622	34.52
2.65288	34.51
2.66955	34.52
2.68622	34.52
2.70288	34.52
2.71955	34.52
2.73622	34.52
2.75288	34.52
2.76955	34.51
2.78622	34.52
2.80288	34.52
2.81955	34.51
2.83622	34.52
2.85288	34.51
2.86955	34.52
2.88622	34.52
2.90288	34.53
2.91955	34.52
2.93622	34.53
2.95288	34.53
2.96955	34.52
2.98622	34.52
3.00288	34.51
3.01955	34.52
3.03622	34.50
3.05288	34.52
3.06955	34.52
3.08622	34.51
3.10288	34.51
3.11955	34.51
3.13622	34.51
3.15288	34.52
3.16955	34.52
3.18622	34.52
3.20288	34.52
3.21955	34.52
3.23622	34.52
3.25288	34.52
3.26955	34.52
3.28622	34.52
3.30288	34.52
3.31955	34.52
3.33622	34.52
3.35288	34.52
3.36955	34.52
3.38622	34.52
3.40288	34.52
3.41955	34.52
3.43622	34.52
3.45288	34.52
3.46955	34.52
3.48622	34.52
3.50288	34.52
3.51955	34.52
3.53622	34.52
3.55288	34.52
3.56955	34.52
3.58622	34.52
3.60288	34.52
3.61955	34.52
3.63622	34.52
3.65288	34.52
3.66955	34.52
3.68622	34.52
3.70288	34.52
3.71955	34.52
3.73622	34.52
3.75288	34.52
3.76955	34.52
3.78622	34.52
3.80288	34.52
3.81955	34.52
3.83622	34.52
3.85288	34.52
3.86955	34.52
3.88622	34.52
3.90288	34.52
3.91955	34.52
3.93622	34.52
3.95288	34.52
3.96955	34.52
3.98622	34.52

[Status Trace (Column Flow)]
Interval(msec)	1000
# of Points	240
Start Time(min)	0.003
End Time(min)	3.986
Intensity Units	
Intensity Multiplier	1
R.Time (min)	Intensity
0.00288	5.49
0.01955	5.29
0.03622	5.30
0.05288	5.56
0.06955	5.71
0.08622	5.54
0.10288	5.49
0.11955	5.49
0.13622	5.49
0.15288	5.49
0.16955	5.49
0.18622	5.49
0.20288	5.49
0.21955	5.49
0.23622	5.49
0.25288	5.49
0.26955	5.49
0.28622	5.49
0.30288	5.49
0.31955	5.49
0.33622	5.49
0.35288	5.49
0.36955	5.49
0.38622	5.49
0.40288	5.49
0.41955	5.49
0.43622	5.49
0.45288	5.49
0.46955	5.49
0.48622	5.49
0.50288	5.49
0.51955	5.49
0.53622	5.49
0.55288	5.49
0.56955	5.49
0.58622	5.49
0.60288	5.49
0.61955	5.49
0.63622	5.49
0.65288	5.49
0.66955	5.49
0.68622	5.49
0.70288	5.49
0.71955	5.49
0.73622	5.49
0.75288	5.49
0.76955	5.49
0.78622	5.49
0.80288	5.49
0.81955	5.49
0.83622	5.49
0.85288	5.49
0.86955	5.49
0.88622	5.49
0.90288	5.49
0.91955	5.49
0.93622	5.49
0.95288	5.49
0.96955	5.49
0.98622	5.49
1.00288	5.49
1.01955	5.49
1.03622	5.49
1.05288	5.49
1.06955	5.49
1.08622	5.49
1.10288	5.49
1.11955	5.49
1.13622	5.49
1.15288	5.49
1.16955	5.49
1.18622	5.49
1.20288	5.49
1.21955	5.49
1.23622	5.49
1.25288	5.49
1.26955	5.49
1.28622	5.49
1.30288	5.49
1.31955	5.49
1.33622	5.49
1.35288	5.49
1.36955	5.49
1.38622	5.49
1.40288	5.49
1.41955	5.49
1.43622	5.49
1.45288	5.49
1.46955	5.49
1.48622	5.49
1.50288	5.49
1.51955	5.49
1.53622	5.49
1.55288	5.49
1.56955	5.49
1.58622	5.49
1.60288	5.49
1.61955	5.49
1.63622	5.48
1.65288	5.47
1.66955	5.46
1.68622	5.45
1.70288	5.44
1.71955	5.43
1.73622	5.42
1.75288	5.41
1.76955	5.40
1.78622	5.39
1.80288	5.38
1.81955	5.37
1.83622	5.36
1.85288	5.35
1.86955	5.34
1.88622	5.33
1.90288	5.32
1.91955	5.31
1.93622	5.30
1.95288	5.29
1.96955	5.28
1.98622	5.27
2.00288	5.26
2.01955	5.25
2.03622	5.24
2.05288	5.23
2.06955	5.22
2.08622	5.22
2.10288	5.21
2.11955	5.20
2.13622	5.19
2.15288	5.18
2.16955	5.17
2.18622	5.16
2.20288	5.15
2.21955	5.14
2.23622	5.13
2.25288	5.12
2.26955	5.11
2.28622	5.10
2.30288	5.09
2.31955	5.09
2.33622	5.08
2.35288	5.07
2.36955	5.06
2.38622	5.06
2.40288	5.06
2.41955	5.06
2.43622	5.06
2.45288	5.06
2.46955	5.06
2.48622	5.06
2.50288	5.05
2.51955	5.06
2.53622	5.05
2.55288	5.05
2.56955	5.05
2.58622	5.05
2.60288	5.05
2.61955	5.05
2.63622	5.05
2.65288	5.05
2.66955	5.05
2.68622	5.05
2.70288	5.05
2.71955	5.05
2.73622	5.05
2.75288	5.05
2.76955	5.05
2.78622	5.05
2.80288	5.05
2.81955	5.05
2.83622	5.05
2.85288	5.05
2.86955	5.05
2.88622	5.05
2.90288	5.05
2.91955	5.05
2.93622	5.05
2.95288	5.05
2.96955	5.05
2.98622	5.05
3.00288	5.05
3.01955	5.05
3.03622	5.05
3.05288	5.05
3.06955	5.05
3.08622	5.05
3.10288	5.05
3.11955	5.05
3.13622	5.05
3.15288	5.05
3.16955	5.05
3.18622	5.05
3.20288	5.05
3.21955	5.05
3.23622	5.05
3.25288	5.05
3.26955	5.05
3.28622	5.05
3.30288	5.05
3.31955	5.05
3.33622	5.05
3.35288	5.05
3.36955	5.05
3.38622	5.05
3.40288	5.05
3.41955	5.05
3.43622	5.05
3.45288	5.05
3.46955	5.05
3.48622	5.05
3.50288	5.05
3.51955	5.05
3.53622	5.05
3.55288	5.05
3.56955	5.05
3.58622	5.05
3.60288	5.05
3.61955	5.05
3.63622	5.05
3.65288	5.05
3.66955	5.05
3.68622	5.05
3.70288	5.05
3.71955	5.05
3.73622	5.05
3.75288	5.05
3.76955	5.05
3.78622	5.05
3.80288	5.05
3.81955	5.05
3.83622	5.05
3.85288	5.05
3.86955	5.05
3.88622	5.05
3.90288	5.05
3.91955	5.05
3.93622	5.05
3.95288	5.05
3.96955	5.05
3.98622	5.05

[Status Trace (Linear Velocity)]
Interval(msec)	1000
# of Points	240
Start Time(min)	0.003
End Time(min)	3.986
Intensity Units	
Intensity Multiplier	1
R.Time (min)	Intensity
0.00288	39.01
0.01955	37.85
0.03622	37.94
0.05288	39.42
0.06955	40.25
0.08622	39.30
0.10288	38.99
0.11955	39.01
0.13622	39.02
0.15288	39.02
0.16955	39.01
0.18622	39.01
0.20288	39.01
0.21955	39.01
0.23622	39.01
0.25288	39.01
0.26955	39.01
0.28622	39.01
0.30288	39.01
0.31955	39.01
0.33622	39.01
0.35288	39.01
0.36955	39.01
0.38622	39.01
0.40288	39.01
0.41955	39.01
0.43622	39.01
0.45288	39.01
0.46955	39.01
0.48622	39.01
0.50288	39.01
0.51955	39.01
0.53622	39.01
0.55288	39.01
0.56955	39.01
0.58622	39.01
0.60288	39.01
0.61955	39.01
0.63622	39.01
0.65288	39.01
0.66955	39.01
0.68622	39.01
0.70288	39.01
0.71955	39.01
0.73622	39.01
0.75288	39.01
0.76955	39.01
0.78622	39.01
0.80288	39.01
0.81955	39.01
0.83622	39.01
0.85288	39.01
0.86955	39.01
0.88622	39.01
0.90288	39.01
0.91955	39.01
0.93622	39.01
0.95288	39.01
0.96955	39.01
0.98622	39.01
1.00288	39.01
1.01955	39.01
1.03622	39.01
1.05288	39.01
1.06955	39.01
1.08622	39.01
1.10288	39.01
1.11955	39.01
1.13622	39.01
1.15288	39.01
1.16955	39.01
1.18622	39.01
1.20288	39.01
1.21955	39.01
1.23622	39.01
1.25288	39.01
1.26955	39.01
1.28622	39.01
1.30288	39.01
1.31955	39.01
1.33622	39.01
1.35288	39.01
1.36955	39.00
1.38622	39.00
1.40288	39.00
1.41955	39.00
1.43622	39.00
1.45288	39.00
1.46955	39.00
1.48622	39.00
1.50288	39.00
1.51955	39.00
1.53622	39.00
1.55288	39.00
1.56955	39.01
1.58622	39.01
1.60288	39.01
1.61955	39.00
1.63622	38.98
1.65288	38.96
1.66955	38.93
1.68622	38.90
1.70288	38.86
1.71955	38.82
1.73622	38.79
1.75288	38.77
1.76955	38.74
1.78622	38.70
1.80288	38.67
1.81955	38.64
1.83622	38.61
1.85288	38.58
1.86955	38.55
1.88622	38.51
1.90288	38.48
1.91955	38.45
1.93622	38.42
1.95288	38.39
1.96955	38.36
1.98622	38.33
2.00288	38.30
2.01955	38.27
2.03622	38.24
2.05288	38.22
2.06955	38.18
2.08622	38.15
2.10288	38.12
2.11955	38.09
2.13622	38.07
2.15288	38.04
2.16955	38.01
2.18622	37.98
2.20288	37.95
2.21955	37.92
2.23622	37.89
2.25288	37.86
2.26955	37.83
2.28622	37.80
2.30288	37.77
2.31955	37.74
2.33622	37.71
2.35288	37.68
2.36955	37.66
2.38622	37.64
2.40288	37.64
2.41955	37.65
2.43622	37.65
2.45288	37.65
2.46955	37.64
2.48622	37.64
2.50288	37.62
2.51955	37.66
2.53622	37.64
2.55288	37.64
2.56955	37.64
2.58622	37.64
2.60288	37.64
2.61955	37.64
2.63622	37.64
2.65288	37.64
2.66955	37.64
2.68622	37.64
2.70288	37.64
2.71955	37.64
2.73622	37.64
2.75288	37.64
2.76955	37.63
2.78622	37.63
2.80288	37.63
2.81955	37.63
2.83622	37.63
2.85288	37.63
2.86955	37.63
2.88622	37.63
2.90288	37.63
2.91955	37.63
2.93622	37.63
2.95288	37.63
2.96955	37.63
2.98622	37.63
3.00288	37.63
3.01955	37.62
3.03622	37.62
3.05288	37.62
3.06955	37.62
3.08622	37.62
3.10288	37.62
3.11955	37.62
3.13622	37.61
3.15288	37.62
3.16955	37.62
3.18622	37.62
3.20288	37.62
3.21955	37.62
3.23622	37.62
3.25288	37.63
3.26955	37.63
3.28622	37.63
3.30288	37.63
3.31955	37.63
3.33622	37.62
3.35288	37.62
3.36955	37.62
3.38622	37.62
3.40288	37.62
3.41955	37.62
3.43622	37.62
3.45288	37.62
3.46955	37.62
3.48622	37.62
3.50288	37.62
3.51955	37.62
3.53622	37.62
3.55288	37.62
3.56955	37.62
3.58622	37.62
3.60288	37.62
3.61955	37.62
3.63622	37.62
3.65288	37.62
3.66955	37.62
3.68622	37.62
3.70288	37.62
3.71955	37.62
3.73622	37.62
3.75288	37.62
3.76955	37.62
3.78622	37.62
3.80288	37.62
3.81955	37.62
3.83622	37.62
3.85288	37.62
3.86955	37.62
3.88622	37.62
3.90288	37.62
3.91955	37.62
3.93622	37.62
3.95288	37.62
3.96955	37.62
3.98622	37.62

