[Header]
Application Name	LabSolutions
Version	5.110
Data File Name	C:\Users\User\Desktop\GC Analyses\Jack\UIC Prairie Sampling\7.22.22\220722_001.gcd
Output Date	10/5/2022
Output Time	2:13:37 PM

[File Information]
Type	Data File
Generated	9/26/2022 10:28:28 AM
Generated by	System Administrator
Modified	9/26/2022 10:32:49 AM
Modified by	System Administrator

[Sample Information]
Operator Name	System Administrator
Acquired	9/26/2022 10:28:46 AM
Sample Type	1:Standard
Level	1
Sample Name	220722_UICPrairie
Sample ID	220722_UICPrairie
ISTD Amount1	1
ISTD Amount2	1
ISTD Amount3	1
ISTD Amount4	1
ISTD Amount5	1
ISTD Amount6	1
ISTD Amount7	1
ISTD Amount8	1
ISTD Amount9	1
ISTD Amount10	1
ISTD Amount11	1
ISTD Amount12	1
ISTD Amount13	1
ISTD Amount14	1
ISTD Amount15	1
ISTD Amount16	1
ISTD Amount17	1
ISTD Amount18	1
ISTD Amount19	1
ISTD Amount20	1
ISTD Amount21	1
ISTD Amount22	1
ISTD Amount23	1
ISTD Amount24	1
ISTD Amount25	1
ISTD Amount26	1
ISTD Amount27	1
ISTD Amount28	1
ISTD Amount29	1
ISTD Amount30	1
ISTD Amount31	1
ISTD Amount32	1
Sample Amount	1
Dilution Factor	1
Vial#	1
Injection Volume	1
Injection Count	1
Bar Code	

[Original Files]
Data File	C:\Users\User\Desktop\GC Analyses\Jack\UIC Prairie Sampling\7.22.22\220722_001.gcd
Method File	C:\LabSolutions\Data\GHG_4min_2022\ghg3_togas_w_acet_4 min_new_int.gcm
Batch File	
Report Format File	c:\LabSolutions\System\DEFAULT.lsr

[File Description]


[Configuration]
Instrument Name	C0B7VH3-Instrument1
Instrument #	1
Line #	1
# of Detectors	3
Detector ID	DET#1	DET#2	DET#3
Detector Name	FID	PTCD	ECD
# of Channels	1	1	1

[Peak Table(Ch1)]
# of Peaks	3
Peak#	R.Time	I.Time	F.Time	Area	Height	A/H	Conc.	Mark	ID#	Name	k'	Plate #	Plate Ht.	Tailing	Resolution	Sep.Factor	Area Ratio	Height Ratio	Conc. %	Norm Conc.
1	1.472	1.443	1.542	8705	3538	2.460	100.000	   	1	CO	0.000	7349	20.411	1.497	0.000	0.000	0	0	16.667	16.667
2	1.578	1.542	1.630	5215	2629	1.984	100.000	 V 	2	CH4	0.072	11084	13.533	1.052	1.653	0.000	0	0	16.667	16.667
3	2.004	1.956	2.290	1020772	496752	2.055	400.000	   	3	CO2	0.361	17784	8.435	1.193	7.085	5.000	0	0	66.667	66.667

[Peak Table(Ch2)]
# of Peaks	0

[Peak Table(Ch3)]
# of Peaks	3
Peak#	R.Time	I.Time	F.Time	Area	Height	A/H	Conc.	Mark	ID#	Name	k'	Plate #	Plate Ht.	Tailing	Resolution	Sep.Factor	Area Ratio	Height Ratio	Conc. %	Norm Conc.
1	2.455	1.611	2.653	10696	373	28.664	0.000	   			0.000	140	1073.679	0.627	0.000	0.000	0	0	0.000	0.000
2	2.891	2.667	3.646	24305	5352	4.542	1.000	S  	1	N2O	0.178	12921	11.609	1.507	0.936	0.000	0	0	100.000	100.000
3	3.324	3.217	3.522	177	20	8.907	0.000	T  			0.354	9252	16.213	1.002	3.606	1.992	0	0	0.000	0.000

[Compound Results(Ch1)]
# of IDs	6
ID#	Name	R.Time	Area	Height	Conc.	Curve	3rd	2nd	1st	Constant	Area Ratio	Height Ratio	Conc. %	Norm Conc.
1	CO	1.472	8705	3538	100.000	Linear	0.000000e+00	0.000000e+00	8.704663e+001	0.000000e+00	0	0	16.667	16.667
2	CH4	1.578	5215	2629	100.000	Linear	0.000000e+00	0.000000e+00	5.215073e+001	0.000000e+00	0	0	16.667	16.667
3	CO2	2.004	1020772	496752	400.000	Linear	0.000000e+00	0.000000e+00	2.551931e+003	0.000000e+00	0	0	66.667	66.667
4	Ethylene	0.000	0	0	0.000	Linear	0.000000e+00	0.000000e+00	0.000000e+00	0.000000e+00	0	0	0.000	0.000
5	Acetylene	0.000	0	0	0.000	Linear	0.000000e+00	0.000000e+00	0.000000e+00	0.000000e+00	0	0	0.000	0.000
6	Ethane	0.000	0	0	0.000	Linear	0.000000e+00	0.000000e+00	0.000000e+00	0.000000e+00	0	0	0.000	0.000

[Compound Results(Ch2)]
# of IDs	5
ID#	Name	R.Time	Area	Height	Conc.	Curve	3rd	2nd	1st	Constant	Area Ratio	Height Ratio	Conc. %	Norm Conc.
1	Hydrogen	0.000	0	0	0.000	Linear	0.000000e+00	0.000000e+00	0.000000e+00	0.000000e+00	0	0	0.000	0.000
2	Oxygen	0.000	0	0	0.000	Linear	0.000000e+00	0.000000e+00	0.000000e+00	0.000000e+00	0	0	0.000	0.000
3	Nitrogen	0.000	0	0	0.000	Linear	0.000000e+00	0.000000e+00	0.000000e+00	0.000000e+00	0	0	0.000	0.000
4	Methane	0.000	0	0	0.000	Linear	0.000000e+00	0.000000e+00	0.000000e+00	0.000000e+00	0	0	0.000	0.000
5	Carbon Monoxide	0.000	0	0	0.000	Linear	0.000000e+00	0.000000e+00	0.000000e+00	0.000000e+00	0	0	0.000	0.000

[Compound Results(Ch3)]
# of IDs	2
ID#	Name	R.Time	Area	Height	Conc.	Curve	3rd	2nd	1st	Constant	Area Ratio	Height Ratio	Conc. %	Norm Conc.
1	N2O	2.891	24305	5352	1.000	Linear	0.000000e+00	0.000000e+00	2.430507e+004	0.000000e+00	0	0	100.000	100.000
2	SF6	0.000	0	0	0.000	Linear	0.000000e+00	0.000000e+00	0.000000e+00	0.000000e+00	0	0	0.000	0.000

[Group Results(Ch1)]
# of Groups	0

[Group Results(Ch2)]
# of Groups	0

[Group Results(Ch3)]
# of Groups	0

[Chromatogram (Ch1)]
Interval(msec)	220
# of Points	1091
Start Time(min)	0.002
End Time(min)	3.998
R.Time (min)	Intensity
0.00167	10
0.00533	10
0.00900	13
0.01267	19
0.01633	25
0.02000	28
0.02367	28
0.02733	26
0.03100	23
0.03467	19
0.03833	16
0.04200	13
0.04567	10
0.04933	10
0.05300	12
0.05667	11
0.06033	8
0.06400	4
0.06767	2
0.07133	-0
0.07500	-0
0.07867	4
0.08233	10
0.08600	18
0.08967	23
0.09333	24
0.09700	21
0.10067	13
0.10433	7
0.10800	3
0.11167	-2
0.11533	-5
0.11900	-6
0.12267	-3
0.12633	-1
0.13000	2
0.13367	5
0.13733	8
0.14100	10
0.14467	10
0.14833	8
0.15200	5
0.15567	4
0.15933	6
0.16300	12
0.16667	19
0.17033	25
0.17400	26
0.17767	23
0.18133	18
0.18500	11
0.18867	3
0.19233	-2
0.19600	-7
0.19967	-15
0.20333	-25
0.20700	-35
0.21067	-40
0.21433	-40
0.21800	-35
0.22167	-28
0.22533	-20
0.22900	-13
0.23267	-8
0.23633	-2
0.24000	9
0.24367	23
0.24733	35
0.25100	38
0.25467	34
0.25833	27
0.26200	18
0.26567	10
0.26933	3
0.27300	-2
0.27667	-5
0.28033	-6
0.28400	-5
0.28767	-3
0.29133	-0
0.29500	3
0.29867	8
0.30233	16
0.30600	27
0.30967	36
0.31333	40
0.31700	38
0.32067	36
0.32433	35
0.32800	34
0.33167	35
0.33533	36
0.33900	35
0.34267	29
0.34633	20
0.35000	15
0.35367	14
0.35733	16
0.36100	20
0.36467	25
0.36833	26
0.37200	21
0.37567	15
0.37933	13
0.38300	10
0.38667	8
0.39033	5
0.39400	1
0.39767	-1
0.40133	1
0.40500	1
0.40867	-2
0.41233	-4
0.41600	-3
0.41967	-3
0.42333	-4
0.42700	-5
0.43067	-3
0.43433	3
0.43800	10
0.44167	14
0.44533	18
0.44900	18
0.45267	16
0.45633	13
0.46000	13
0.46367	14
0.46733	14
0.47100	10
0.47467	7
0.47833	8
0.48200	12
0.48567	15
0.48933	13
0.49300	10
0.49667	5
0.50033	1
0.50400	-0
0.50767	2
0.51133	7
0.51500	13
0.51867	20
0.52233	24
0.52600	27
0.52967	30
0.53333	31
0.53700	28
0.54067	23
0.54433	18
0.54800	12
0.55167	7
0.55533	3
0.55900	-4
0.56267	-12
0.56633	-15
0.57000	-13
0.57367	-8
0.57733	-6
0.58100	-5
0.58467	-1
0.58833	2
0.59200	5
0.59567	7
0.59933	8
0.60300	7
0.60667	5
0.61033	3
0.61400	2
0.61767	3
0.62133	2
0.62500	-1
0.62867	-2
0.63233	-0
0.63600	2
0.63967	6
0.64333	11
0.64700	14
0.65067	15
0.65433	12
0.65800	4
0.66167	-4
0.66533	-9
0.66900	-13
0.67267	-14
0.67633	-11
0.68000	-6
0.68367	2
0.68733	10
0.69100	15
0.69467	19
0.69833	26
0.70200	33
0.70567	36
0.70933	28
0.71300	17
0.71667	11
0.72033	8
0.72400	1
0.72767	-6
0.73133	-10
0.73500	-14
0.73867	-16
0.74233	-16
0.74600	-12
0.74967	-9
0.75333	-8
0.75700	-8
0.76067	-5
0.76433	1
0.76800	7
0.77167	10
0.77533	8
0.77900	3
0.78267	-4
0.78633	-6
0.79000	-6
0.79367	-8
0.79733	-11
0.80100	-16
0.80467	-19
0.80833	-20
0.81200	-19
0.81567	-15
0.81933	-11
0.82300	-8
0.82667	-8
0.83033	-11
0.83400	-13
0.83767	-13
0.84133	-10
0.84500	-7
0.84867	-3
0.85233	-2
0.85600	0
0.85967	3
0.86333	6
0.86700	11
0.87067	16
0.87433	16
0.87800	13
0.88167	13
0.88533	15
0.88900	14
0.89267	12
0.89633	11
0.90000	10
0.90367	9
0.90733	7
0.91100	3
0.91467	-0
0.91833	-1
0.92200	-2
0.92567	-3
0.92933	-5
0.93300	-9
0.93667	-11
0.94033	-12
0.94400	-12
0.94767	-11
0.95133	-10
0.95500	-7
0.95867	-4
0.96233	-5
0.96600	-7
0.96967	-8
0.97333	-11
0.97700	-15
0.98067	-19
0.98433	-20
0.98800	-17
0.99167	-12
0.99533	-5
0.99900	2
1.00267	8
1.00633	11
1.01000	14
1.01367	16
1.01733	13
1.02100	9
1.02467	4
1.02833	4
1.03200	5
1.03567	11
1.03933	18
1.04300	22
1.04667	23
1.05033	26
1.05400	29
1.05767	30
1.06133	27
1.06500	22
1.06867	15
1.07233	7
1.07600	0
1.07967	-6
1.08333	-10
1.08700	-10
1.09067	-7
1.09433	-4
1.09800	-2
1.10167	1
1.10533	1
1.10900	-0
1.11267	2
1.11633	12
1.12000	24
1.12367	34
1.12733	38
1.13100	42
1.13467	43
1.13833	39
1.14200	26
1.14567	12
1.14933	-2
1.15300	-17
1.15667	-26
1.16033	-29
1.16400	-23
1.16767	-12
1.17133	1
1.17500	10
1.17867	12
1.18233	7
1.18600	1
1.18967	-4
1.19333	-7
1.19700	-8
1.20067	-6
1.20433	-3
1.20800	-8
1.21167	-0
1.21533	2
1.21900	3
1.22267	5
1.22633	13
1.23000	19
1.23367	18
1.23733	9
1.24100	3
1.24467	4
1.24833	9
1.25200	11
1.25567	11
1.25933	10
1.26300	9
1.26667	11
1.27033	14
1.27400	18
1.27767	20
1.28133	19
1.28500	8
1.28867	2
1.29233	5
1.29600	8
1.29967	12
1.30333	14
1.30700	17
1.31067	19
1.31433	15
1.31800	3
1.32167	-11
1.32533	-19
1.32900	-22
1.33267	-23
1.33633	-22
1.34000	-20
1.34367	-16
1.34733	-10
1.35100	-7
1.35467	-7
1.35833	-10
1.36200	-11
1.36567	-9
1.36933	-7
1.37300	-3
1.37667	3
1.38033	8
1.38400	9
1.38767	8
1.39133	6
1.39500	5
1.39867	7
1.40233	8
1.40600	8
1.40967	13
1.41333	19
1.41700	25
1.42067	26
1.42433	22
1.42800	15
1.43167	8
1.43533	5
1.43900	6
1.44267	32
1.44633	194
1.45000	684
1.45367	1453
1.45733	2234
1.46100	2856
1.46467	3271
1.46833	3496
1.47200	3563
1.47567	3490
1.47933	3297
1.48300	3011
1.48667	2657
1.49033	2260
1.49400	1853
1.49767	1477
1.50133	1153
1.50500	884
1.50867	667
1.51233	493
1.51600	358
1.51967	256
1.52333	182
1.52700	129
1.53067	85
1.53433	48
1.53800	22
1.54167	17
1.54533	53
1.54900	184
1.55267	462
1.55633	860
1.56000	1297
1.56367	1698
1.56733	2042
1.57100	2339
1.57467	2564
1.57833	2626
1.58200	2451
1.58567	2074
1.58933	1612
1.59300	1171
1.59667	810
1.60033	540
1.60400	350
1.60767	221
1.61133	134
1.61500	78
1.61867	37
1.62233	9
1.62600	-7
1.62967	-15
1.63333	-20
1.63700	-22
1.64067	-22
1.64433	-20
1.64800	-17
1.65167	-16
1.65533	-19
1.65900	-29
1.66267	-41
1.66633	-53
1.67000	-62
1.67367	-65
1.67733	-65
1.68100	-62
1.68467	-57
1.68833	-53
1.69200	-51
1.69567	-49
1.69933	-47
1.70300	-44
1.70667	-42
1.71033	-39
1.71400	-39
1.71767	-42
1.72133	-42
1.72500	-39
1.72867	-33
1.73233	-26
1.73600	-19
1.73967	-14
1.74333	-13
1.74700	-12
1.75067	-11
1.75433	-11
1.75800	-12
1.76167	-13
1.76533	-15
1.76900	-17
1.77267	-18
1.77633	-16
1.78000	-11
1.78367	-9
1.78733	-7
1.79100	-8
1.79467	-14
1.79833	-17
1.80200	-19
1.80567	-14
1.80933	-7
1.81300	0
1.81667	8
1.82033	13
1.82400	15
1.82767	17
1.83133	17
1.83500	14
1.83867	12
1.84233	13
1.84600	14
1.84967	15
1.85333	13
1.85700	10
1.86067	8
1.86433	8
1.86800	8
1.87167	7
1.87533	5
1.87900	6
1.88267	9
1.88633	13
1.89000	15
1.89367	17
1.89733	17
1.90100	15
1.90467	11
1.90833	8
1.91200	6
1.91567	8
1.91933	12
1.92300	14
1.92667	12
1.93033	7
1.93400	6
1.93767	6
1.94133	9
1.94500	15
1.94867	21
1.95233	25
1.95600	29
1.95967	58
1.96333	261
1.96700	1306
1.97067	5416
1.97433	17731
1.97800	46200
1.98167	97825
1.98533	172595
1.98900	261461
1.99267	350372
1.99633	425889
2.00000	477294
2.00367	496816
2.00733	481133
2.01100	433541
2.01467	364368
2.01833	287468
2.02200	214980
2.02567	154128
2.02933	107137
2.03300	72953
2.03667	49107
2.04033	32942
2.04400	22186
2.04767	15103
2.05133	10461
2.05500	7418
2.05867	5409
2.06233	4067
2.06600	3157
2.06967	2524
2.07333	2074
2.07700	1748
2.08067	1506
2.08433	1319
2.08800	1174
2.09167	1061
2.09533	971
2.09900	898
2.10267	837
2.10633	783
2.11000	733
2.11367	691
2.11733	656
2.12100	626
2.12467	597
2.12833	569
2.13200	545
2.13567	525
2.13933	507
2.14300	491
2.14667	476
2.15033	462
2.15400	453
2.15767	451
2.16133	451
2.16500	453
2.16867	451
2.17233	441
2.17600	424
2.17967	402
2.18333	386
2.18700	377
2.19067	372
2.19433	370
2.19800	366
2.20167	362
2.20533	356
2.20900	347
2.21267	343
2.21633	340
2.22000	336
2.22367	334
2.22733	332
2.23100	327
2.23467	320
2.23833	315
2.24200	311
2.24567	308
2.24933	306
2.25300	308
2.25667	310
2.26033	309
2.26400	308
2.26767	303
2.27133	297
2.27500	292
2.27867	287
2.28233	281
2.28600	278
2.28967	275
2.29333	272
2.29700	270
2.30067	269
2.30433	268
2.30800	271
2.31167	277
2.31533	280
2.31900	277
2.32267	273
2.32633	267
2.33000	263
2.33367	264
2.33733	269
2.34100	271
2.34467	274
2.34833	276
2.35200	276
2.35567	275
2.35933	275
2.36300	277
2.36667	280
2.37033	279
2.37400	277
2.37767	274
2.38133	270
2.38500	267
2.38867	265
2.39233	266
2.39600	267
2.39967	269
2.40333	267
2.40700	266
2.41067	264
2.41433	260
2.41800	260
2.42167	267
2.42533	274
2.42900	278
2.43267	277
2.43633	271
2.44000	262
2.44367	255
2.44733	250
2.45100	247
2.45467	246
2.45833	246
2.46200	245
2.46567	244
2.46933	243
2.47300	244
2.47667	245
2.48033	245
2.48400	243
2.48767	240
2.49133	238
2.49500	239
2.49867	241
2.50233	247
2.50600	253
2.50967	256
2.51333	255
2.51700	253
2.52067	248
2.52433	243
2.52800	238
2.53167	238
2.53533	239
2.53900	239
2.54267	234
2.54633	233
2.55000	235
2.55367	238
2.55733	240
2.56100	241
2.56467	241
2.56833	238
2.57200	233
2.57567	229
2.57933	227
2.58300	226
2.58667	228
2.59033	229
2.59400	226
2.59767	217
2.60133	208
2.60500	202
2.60867	203
2.61233	207
2.61600	209
2.61967	210
2.62333	211
2.62700	211
2.63067	213
2.63433	216
2.63800	220
2.64167	222
2.64533	220
2.64900	213
2.65267	207
2.65633	208
2.66000	211
2.66367	215
2.66733	217
2.67100	218
2.67467	217
2.67833	215
2.68200	215
2.68567	218
2.68933	222
2.69300	221
2.69667	215
2.70033	208
2.70400	203
2.70767	202
2.71133	204
2.71500	206
2.71867	208
2.72233	210
2.72600	213
2.72967	216
2.73333	218
2.73700	217
2.74067	220
2.74433	225
2.74800	230
2.75167	230
2.75533	226
2.75900	223
2.76267	221
2.76633	220
2.77000	220
2.77367	218
2.77733	214
2.78100	210
2.78467	207
2.78833	206
2.79200	203
2.79567	204
2.79933	211
2.80300	221
2.80667	228
2.81033	232
2.81400	234
2.81767	234
2.82133	232
2.82500	226
2.82867	219
2.83233	214
2.83600	212
2.83967	208
2.84333	202
2.84700	198
2.85067	197
2.85433	198
2.85800	200
2.86167	204
2.86533	213
2.86900	222
2.87267	229
2.87633	232
2.88000	229
2.88367	223
2.88733	219
2.89100	217
2.89467	220
2.89833	221
2.90200	220
2.90567	220
2.90933	222
2.91300	221
2.91667	217
2.92033	213
2.92400	209
2.92767	205
2.93133	202
2.93500	203
2.93867	207
2.94233	212
2.94600	214
2.94967	212
2.95333	209
2.95700	208
2.96067	209
2.96433	208
2.96800	206
2.97167	206
2.97533	208
2.97900	214
2.98267	222
2.98633	226
2.99000	222
2.99367	216
2.99733	213
3.00100	213
3.00467	217
3.00833	223
3.01200	228
3.01567	230
3.01933	234
3.02300	237
3.02667	236
3.03033	230
3.03400	225
3.03767	221
3.04133	220
3.04500	222
3.04867	222
3.05233	219
3.05600	212
3.05967	205
3.06333	199
3.06700	196
3.07067	190
3.07433	183
3.07800	180
3.08167	183
3.08533	189
3.08900	196
3.09267	204
3.09633	211
3.10000	215
3.10367	216
3.10733	219
3.11100	218
3.11467	215
3.11833	210
3.12200	206
3.12567	204
3.12933	203
3.13300	201
3.13667	201
3.14033	203
3.14400	204
3.14767	203
3.15133	198
3.15500	197
3.15867	197
3.16233	201
3.16600	209
3.16967	218
3.17333	220
3.17700	217
3.18067	215
3.18433	213
3.18800	213
3.19167	215
3.19533	216
3.19900	218
3.20267	216
3.20633	212
3.21000	209
3.21367	206
3.21733	206
3.22100	206
3.22467	205
3.22833	202
3.23200	198
3.23567	198
3.23933	197
3.24300	195
3.24667	195
3.25033	196
3.25400	198
3.25767	202
3.26133	209
3.26500	216
3.26867	218
3.27233	219
3.27600	222
3.27967	226
3.28333	228
3.28700	228
3.29067	231
3.29433	234
3.29800	234
3.30167	230
3.30533	225
3.30900	219
3.31267	213
3.31633	207
3.32000	199
3.32367	192
3.32733	189
3.33100	190
3.33467	191
3.33833	194
3.34200	199
3.34567	203
3.34933	203
3.35300	204
3.35667	208
3.36033	216
3.36400	223
3.36767	224
3.37133	221
3.37500	217
3.37867	213
3.38233	212
3.38600	212
3.38967	215
3.39333	218
3.39700	218
3.40067	219
3.40433	218
3.40800	215
3.41167	210
3.41533	205
3.41900	205
3.42267	207
3.42633	212
3.43000	214
3.43367	211
3.43733	205
3.44100	201
3.44467	202
3.44833	204
3.45200	204
3.45567	207
3.45933	210
3.46300	211
3.46667	209
3.47033	209
3.47400	214
3.47767	218
3.48133	223
3.48500	224
3.48867	222
3.49233	222
3.49600	223
3.49967	222
3.50333	222
3.50700	224
3.51067	225
3.51433	225
3.51800	223
3.52167	219
3.52533	215
3.52900	211
3.53267	210
3.53633	210
3.54000	210
3.54367	213
3.54733	216
3.55100	220
3.55467	225
3.55833	225
3.56200	220
3.56567	214
3.56933	209
3.57300	206
3.57667	204
3.58033	202
3.58400	200
3.58767	201
3.59133	203
3.59500	203
3.59867	204
3.60233	208
3.60600	215
3.60967	222
3.61333	228
3.61700	229
3.62067	226
3.62433	219
3.62800	213
3.63167	209
3.63533	208
3.63900	209
3.64267	208
3.64633	207
3.65000	208
3.65367	210
3.65733	212
3.66100	213
3.66467	220
3.66833	228
3.67200	234
3.67567	233
3.67933	231
3.68300	235
3.68667	242
3.69033	246
3.69400	242
3.69767	232
3.70133	218
3.70500	205
3.70867	202
3.71233	202
3.71600	205
3.71967	208
3.72333	210
3.72700	213
3.73067	217
3.73433	219
3.73800	219
3.74167	218
3.74533	217
3.74900	219
3.75267	221
3.75633	227
3.76000	235
3.76367	240
3.76733	243
3.77100	242
3.77467	238
3.77833	229
3.78200	221
3.78567	216
3.78933	213
3.79300	213
3.79667	216
3.80033	226
3.80400	236
3.80767	241
3.81133	241
3.81500	241
3.81867	242
3.82233	243
3.82600	245
3.82967	243
3.83333	239
3.83700	236
3.84067	234
3.84433	235
3.84800	235
3.85167	234
3.85533	233
3.85900	234
3.86267	236
3.86633	238
3.87000	239
3.87367	238
3.87733	234
3.88100	231
3.88467	231
3.88833	234
3.89200	238
3.89567	240
3.89933	239
3.90300	237
3.90667	234
3.91033	230
3.91400	228
3.91767	229
3.92133	233
3.92500	237
3.92867	239
3.93233	239
3.93600	239
3.93967	239
3.94333	238
3.94700	232
3.95067	224
3.95433	215
3.95800	212
3.96167	217
3.96533	227
3.96900	234
3.97267	238
3.97633	242
3.98000	247
3.98367	251
3.98733	252
3.99100	248
3.99467	241
3.99833	236

[Chromatogram (Ch2)]
Interval(msec)	220
# of Points	1091
Start Time(min)	0.002
End Time(min)	3.998
R.Time (min)	Intensity
0.00167	0
0.00533	0
0.00900	0
0.01267	0
0.01633	-0
0.02000	-0
0.02367	-0
0.02733	0
0.03100	0
0.03467	0
0.03833	0
0.04200	0
0.04567	0
0.04933	0
0.05300	0
0.05667	-0
0.06033	-0
0.06400	-1
0.06767	-1
0.07133	-1
0.07500	-2
0.07867	-2
0.08233	-2
0.08600	-2
0.08967	-2
0.09333	-2
0.09700	-2
0.10067	-2
0.10433	-2
0.10800	-2
0.11167	-2
0.11533	-2
0.11900	-2
0.12267	-2
0.12633	-2
0.13000	-1
0.13367	-1
0.13733	-1
0.14100	-1
0.14467	-1
0.14833	-1
0.15200	-1
0.15567	-1
0.15933	-1
0.16300	-1
0.16667	-1
0.17033	-1
0.17400	-0
0.17767	-0
0.18133	0
0.18500	1
0.18867	1
0.19233	1
0.19600	2
0.19967	2
0.20333	3
0.20700	3
0.21067	3
0.21433	3
0.21800	4
0.22167	4
0.22533	4
0.22900	4
0.23267	4
0.23633	4
0.24000	4
0.24367	4
0.24733	4
0.25100	4
0.25467	4
0.25833	4
0.26200	4
0.26567	4
0.26933	3
0.27300	3
0.27667	3
0.28033	2
0.28400	2
0.28767	2
0.29133	2
0.29500	2
0.29867	1
0.30233	2
0.30600	2
0.30967	2
0.31333	2
0.31700	2
0.32067	2
0.32433	2
0.32800	2
0.33167	2
0.33533	2
0.33900	2
0.34267	2
0.34633	3
0.35000	3
0.35367	3
0.35733	3
0.36100	3
0.36467	4
0.36833	4
0.37200	4
0.37567	5
0.37933	5
0.38300	5
0.38667	5
0.39033	5
0.39400	5
0.39767	5
0.40133	5
0.40500	5
0.40867	5
0.41233	5
0.41600	5
0.41967	5
0.42333	5
0.42700	5
0.43067	5
0.43433	4
0.43800	4
0.44167	4
0.44533	4
0.44900	4
0.45267	3
0.45633	3
0.46000	3
0.46367	2
0.46733	2
0.47100	2
0.47467	1
0.47833	1
0.48200	1
0.48567	2
0.48933	1
0.49300	1
0.49667	1
0.50033	1
0.50400	1
0.50767	1
0.51133	1
0.51500	1
0.51867	1
0.52233	1
0.52600	1
0.52967	1
0.53333	0
0.53700	0
0.54067	0
0.54433	0
0.54800	0
0.55167	0
0.55533	-0
0.55900	-0
0.56267	-1
0.56633	-0
0.57000	-0
0.57367	0
0.57733	0
0.58100	0
0.58467	1
0.58833	1
0.59200	1
0.59567	1
0.59933	1
0.60300	1
0.60667	1
0.61033	2
0.61400	2
0.61767	2
0.62133	2
0.62500	2
0.62867	2
0.63233	2
0.63600	2
0.63967	3
0.64333	2
0.64700	2
0.65067	2
0.65433	2
0.65800	1
0.66167	1
0.66533	0
0.66900	-0
0.67267	-0
0.67633	-1
0.68000	-1
0.68367	-1
0.68733	-2
0.69100	-2
0.69467	-2
0.69833	-1
0.70200	-1
0.70567	-1
0.70933	-1
0.71300	-0
0.71667	0
0.72033	0
0.72400	1
0.72767	1
0.73133	2
0.73500	2
0.73867	3
0.74233	3
0.74600	4
0.74967	4
0.75333	5
0.75700	5
0.76067	6
0.76433	6
0.76800	6
0.77167	6
0.77533	6
0.77900	6
0.78267	6
0.78633	6
0.79000	6
0.79367	6
0.79733	6
0.80100	6
0.80467	6
0.80833	5
0.81200	5
0.81567	5
0.81933	5
0.82300	5
0.82667	5
0.83033	5
0.83400	5
0.83767	5
0.84133	5
0.84500	5
0.84867	4
0.85233	4
0.85600	4
0.85967	4
0.86333	3
0.86700	3
0.87067	3
0.87433	3
0.87800	2
0.88167	2
0.88533	1
0.88900	0
0.89267	-0
0.89633	-1
0.90000	-1
0.90367	-2
0.90733	-2
0.91100	-2
0.91467	-2
0.91833	-1
0.92200	-1
0.92567	-1
0.92933	-1
0.93300	-0
0.93667	-0
0.94033	-0
0.94400	0
0.94767	0
0.95133	0
0.95500	0
0.95867	0
0.96233	0
0.96600	0
0.96967	0
0.97333	0
0.97700	0
0.98067	1
0.98433	1
0.98800	2
0.99167	2
0.99533	3
0.99900	3
1.00267	3
1.00633	3
1.01000	3
1.01367	2
1.01733	2
1.02100	2
1.02467	2
1.02833	2
1.03200	2
1.03567	2
1.03933	3
1.04300	3
1.04667	3
1.05033	3
1.05400	3
1.05767	3
1.06133	2
1.06500	2
1.06867	2
1.07233	2
1.07600	2
1.07967	1
1.08333	1
1.08700	1
1.09067	1
1.09433	1
1.09800	1
1.10167	1
1.10533	1
1.10900	1
1.11267	1
1.11633	0
1.12000	0
1.12367	0
1.12733	0
1.13100	0
1.13467	0
1.13833	1
1.14200	1
1.14567	1
1.14933	0
1.15300	0
1.15667	0
1.16033	0
1.16400	1
1.16767	1
1.17133	1
1.17500	1
1.17867	1
1.18233	2
1.18600	2
1.18967	3
1.19333	3
1.19700	4
1.20067	4
1.20433	4
1.20800	4
1.21167	4
1.21533	4
1.21900	4
1.22267	3
1.22633	3
1.23000	3
1.23367	3
1.23733	3
1.24100	3
1.24467	2
1.24833	2
1.25200	2
1.25567	2
1.25933	2
1.26300	2
1.26667	2
1.27033	2
1.27400	2
1.27767	2
1.28133	2
1.28500	2
1.28867	3
1.29233	3
1.29600	3
1.29967	3
1.30333	4
1.30700	4
1.31067	4
1.31433	4
1.31800	4
1.32167	5
1.32533	5
1.32900	5
1.33267	5
1.33633	5
1.34000	5
1.34367	5
1.34733	5
1.35100	5
1.35467	5
1.35833	5
1.36200	5
1.36567	4
1.36933	4
1.37300	4
1.37667	4
1.38033	4
1.38400	3
1.38767	3
1.39133	3
1.39500	4
1.39867	4
1.40233	4
1.40600	4
1.40967	5
1.41333	5
1.41700	5
1.42067	5
1.42433	5
1.42800	5
1.43167	5
1.43533	5
1.43900	5
1.44267	4
1.44633	4
1.45000	4
1.45367	4
1.45733	4
1.46100	4
1.46467	3
1.46833	3
1.47200	4
1.47567	4
1.47933	4
1.48300	4
1.48667	4
1.49033	4
1.49400	3
1.49767	3
1.50133	3
1.50500	3
1.50867	2
1.51233	2
1.51600	2
1.51967	2
1.52333	1
1.52700	1
1.53067	1
1.53433	1
1.53800	0
1.54167	0
1.54533	0
1.54900	-0
1.55267	-0
1.55633	-1
1.56000	-1
1.56367	-1
1.56733	-1
1.57100	-0
1.57467	-0
1.57833	0
1.58200	1
1.58567	1
1.58933	1
1.59300	1
1.59667	1
1.60033	1
1.60400	1
1.60767	0
1.61133	-1
1.61500	-2
1.61867	-4
1.62233	-6
1.62600	-8
1.62967	-11
1.63333	-14
1.63700	-17
1.64067	-21
1.64433	-24
1.64800	-27
1.65167	-31
1.65533	-35
1.65900	-39
1.66267	-43
1.66633	-48
1.67000	-53
1.67367	-58
1.67733	-63
1.68100	-69
1.68467	-74
1.68833	-79
1.69200	-84
1.69567	-88
1.69933	-91
1.70300	-94
1.70667	-97
1.71033	-99
1.71400	-101
1.71767	-102
1.72133	-103
1.72500	-104
1.72867	-105
1.73233	-106
1.73600	-107
1.73967	-108
1.74333	-109
1.74700	-110
1.75067	-111
1.75433	-111
1.75800	-112
1.76167	-113
1.76533	-113
1.76900	-114
1.77267	-113
1.77633	-113
1.78000	-113
1.78367	-112
1.78733	-112
1.79100	-111
1.79467	-111
1.79833	-112
1.80200	-112
1.80567	-113
1.80933	-114
1.81300	-114
1.81667	-114
1.82033	-115
1.82400	-115
1.82767	-116
1.83133	-116
1.83500	-116
1.83867	-117
1.84233	-117
1.84600	-117
1.84967	-117
1.85333	-117
1.85700	-117
1.86067	-117
1.86433	-116
1.86800	-116
1.87167	-116
1.87533	-116
1.87900	-116
1.88267	-116
1.88633	-115
1.89000	-115
1.89367	-115
1.89733	-114
1.90100	-114
1.90467	-113
1.90833	-113
1.91200	-113
1.91567	-113
1.91933	-113
1.92300	-113
1.92667	-113
1.93033	-113
1.93400	-113
1.93767	-113
1.94133	-113
1.94500	-114
1.94867	-114
1.95233	-114
1.95600	-114
1.95967	-113
1.96333	-113
1.96700	-113
1.97067	-112
1.97433	-112
1.97800	-112
1.98167	-112
1.98533	-111
1.98900	-111
1.99267	-110
1.99633	-110
2.00000	-110
2.00367	-110
2.00733	-110
2.01100	-110
2.01467	-110
2.01833	-110
2.02200	-110
2.02567	-109
2.02933	-108
2.03300	-108
2.03667	-107
2.04033	-106
2.04400	-106
2.04767	-106
2.05133	-106
2.05500	-106
2.05867	-105
2.06233	-105
2.06600	-104
2.06967	-103
2.07333	-103
2.07700	-102
2.08067	-102
2.08433	-101
2.08800	-101
2.09167	-100
2.09533	-100
2.09900	-100
2.10267	-100
2.10633	-100
2.11000	-100
2.11367	-99
2.11733	-99
2.12100	-100
2.12467	-100
2.12833	-100
2.13200	-99
2.13567	-99
2.13933	-98
2.14300	-98
2.14667	-97
2.15033	-96
2.15400	-95
2.15767	-94
2.16133	-94
2.16500	-94
2.16867	-94
2.17233	-94
2.17600	-94
2.17967	-94
2.18333	-93
2.18700	-93
2.19067	-93
2.19433	-92
2.19800	-92
2.20167	-91
2.20533	-91
2.20900	-91
2.21267	-91
2.21633	-90
2.22000	-90
2.22367	-89
2.22733	-89
2.23100	-88
2.23467	-87
2.23833	-86
2.24200	-86
2.24567	-86
2.24933	-86
2.25300	-86
2.25667	-87
2.26033	-87
2.26400	-87
2.26767	-87
2.27133	-87
2.27500	-87
2.27867	-87
2.28233	-87
2.28600	-86
2.28967	-85
2.29333	-85
2.29700	-84
2.30067	-84
2.30433	-84
2.30800	-85
2.31167	-85
2.31533	-85
2.31900	-85
2.32267	-84
2.32633	-83
2.33000	-82
2.33367	-81
2.33733	-80
2.34100	-80
2.34467	-79
2.34833	-79
2.35200	-78
2.35567	-77
2.35933	-76
2.36300	-75
2.36667	-74
2.37033	-73
2.37400	-71
2.37767	-70
2.38133	-67
2.38500	-64
2.38867	-61
2.39233	-57
2.39600	-53
2.39967	-48
2.40333	-43
2.40700	-39
2.41067	-34
2.41433	-30
2.41800	-27
2.42167	-24
2.42533	-21
2.42900	-19
2.43267	-16
2.43633	-13
2.44000	-11
2.44367	-9
2.44733	-6
2.45100	-4
2.45467	-3
2.45833	-1
2.46200	0
2.46567	1
2.46933	3
2.47300	4
2.47667	5
2.48033	6
2.48400	8
2.48767	9
2.49133	10
2.49500	12
2.49867	13
2.50233	14
2.50600	14
2.50967	14
2.51333	14
2.51700	14
2.52067	14
2.52433	15
2.52800	15
2.53167	16
2.53533	17
2.53900	17
2.54267	18
2.54633	18
2.55000	19
2.55367	19
2.55733	19
2.56100	20
2.56467	20
2.56833	20
2.57200	20
2.57567	20
2.57933	20
2.58300	20
2.58667	20
2.59033	20
2.59400	20
2.59767	20
2.60133	20
2.60500	21
2.60867	21
2.61233	21
2.61600	21
2.61967	21
2.62333	21
2.62700	21
2.63067	21
2.63433	21
2.63800	21
2.64167	21
2.64533	21
2.64900	22
2.65267	22
2.65633	22
2.66000	22
2.66367	23
2.66733	24
2.67100	25
2.67467	25
2.67833	25
2.68200	26
2.68567	25
2.68933	25
2.69300	25
2.69667	25
2.70033	25
2.70400	25
2.70767	25
2.71133	25
2.71500	25
2.71867	26
2.72233	26
2.72600	26
2.72967	27
2.73333	27
2.73700	28
2.74067	28
2.74433	29
2.74800	30
2.75167	30
2.75533	30
2.75900	30
2.76267	30
2.76633	30
2.77000	29
2.77367	29
2.77733	29
2.78100	28
2.78467	28
2.78833	28
2.79200	28
2.79567	28
2.79933	28
2.80300	28
2.80667	28
2.81033	28
2.81400	29
2.81767	29
2.82133	29
2.82500	29
2.82867	30
2.83233	30
2.83600	30
2.83967	30
2.84333	30
2.84700	30
2.85067	29
2.85433	28
2.85800	24
2.86167	19
2.86533	11
2.86900	-1
2.87267	-16
2.87633	-35
2.88000	-58
2.88367	-85
2.88733	-116
2.89100	-151
2.89467	-189
2.89833	-231
2.90200	-274
2.90567	-320
2.90933	-368
2.91300	-417
2.91667	-467
2.92033	-518
2.92400	-569
2.92767	-620
2.93133	-670
2.93500	-721
2.93867	-772
2.94233	-825
2.94600	-883
2.94967	-947
2.95333	-1013
2.95700	-1069
2.96067	-1105
2.96433	-1114
2.96800	-1096
2.97167	-1053
2.97533	-993
2.97900	-920
2.98267	-840
2.98633	-758
2.99000	-676
2.99367	-598
2.99733	-525
3.00100	-458
3.00467	-397
3.00833	-343
3.01200	-294
3.01567	-251
3.01933	-214
3.02300	-181
3.02667	-153
3.03033	-128
3.03400	-107
3.03767	-89
3.04133	-73
3.04500	-60
3.04867	-48
3.05233	-39
3.05600	-30
3.05967	-23
3.06333	-17
3.06700	-12
3.07067	-7
3.07433	-4
3.07800	-0
3.08167	2
3.08533	5
3.08900	7
3.09267	8
3.09633	10
3.10000	11
3.10367	13
3.10733	14
3.11100	15
3.11467	16
3.11833	17
3.12200	17
3.12567	18
3.12933	18
3.13300	19
3.13667	19
3.14033	20
3.14400	20
3.14767	20
3.15133	21
3.15500	21
3.15867	22
3.16233	22
3.16600	23
3.16967	23
3.17333	23
3.17700	23
3.18067	23
3.18433	24
3.18800	24
3.19167	24
3.19533	24
3.19900	24
3.20267	24
3.20633	25
3.21000	25
3.21367	25
3.21733	25
3.22100	25
3.22467	25
3.22833	25
3.23200	26
3.23567	26
3.23933	26
3.24300	26
3.24667	27
3.25033	27
3.25400	27
3.25767	27
3.26133	28
3.26500	28
3.26867	28
3.27233	28
3.27600	28
3.27967	28
3.28333	28
3.28700	28
3.29067	28
3.29433	28
3.29800	28
3.30167	28
3.30533	28
3.30900	28
3.31267	27
3.31633	28
3.32000	28
3.32367	28
3.32733	28
3.33100	28
3.33467	28
3.33833	29
3.34200	29
3.34567	29
3.34933	29
3.35300	29
3.35667	29
3.36033	29
3.36400	29
3.36767	30
3.37133	30
3.37500	31
3.37867	31
3.38233	32
3.38600	32
3.38967	33
3.39333	33
3.39700	33
3.40067	34
3.40433	34
3.40800	34
3.41167	34
3.41533	34
3.41900	34
3.42267	34
3.42633	34
3.43000	34
3.43367	34
3.43733	35
3.44100	34
3.44467	34
3.44833	34
3.45200	34
3.45567	34
3.45933	34
3.46300	34
3.46667	34
3.47033	34
3.47400	34
3.47767	34
3.48133	34
3.48500	34
3.48867	33
3.49233	33
3.49600	33
3.49967	33
3.50333	33
3.50700	32
3.51067	32
3.51433	32
3.51800	32
3.52167	32
3.52533	32
3.52900	32
3.53267	32
3.53633	32
3.54000	32
3.54367	32
3.54733	32
3.55100	33
3.55467	32
3.55833	32
3.56200	32
3.56567	32
3.56933	32
3.57300	32
3.57667	32
3.58033	32
3.58400	32
3.58767	32
3.59133	32
3.59500	32
3.59867	32
3.60233	32
3.60600	32
3.60967	32
3.61333	32
3.61700	31
3.62067	31
3.62433	31
3.62800	31
3.63167	30
3.63533	30
3.63900	30
3.64267	30
3.64633	30
3.65000	30
3.65367	30
3.65733	30
3.66100	30
3.66467	30
3.66833	30
3.67200	30
3.67567	30
3.67933	30
3.68300	30
3.68667	30
3.69033	30
3.69400	30
3.69767	30
3.70133	30
3.70500	30
3.70867	31
3.71233	31
3.71600	31
3.71967	31
3.72333	31
3.72700	31
3.73067	30
3.73433	30
3.73800	30
3.74167	30
3.74533	30
3.74900	30
3.75267	30
3.75633	30
3.76000	30
3.76367	30
3.76733	30
3.77100	30
3.77467	31
3.77833	31
3.78200	31
3.78567	31
3.78933	31
3.79300	31
3.79667	31
3.80033	31
3.80400	31
3.80767	31
3.81133	31
3.81500	31
3.81867	32
3.82233	32
3.82600	32
3.82967	32
3.83333	32
3.83700	32
3.84067	32
3.84433	32
3.84800	32
3.85167	32
3.85533	32
3.85900	32
3.86267	32
3.86633	32
3.87000	32
3.87367	32
3.87733	32
3.88100	31
3.88467	32
3.88833	32
3.89200	32
3.89567	32
3.89933	32
3.90300	32
3.90667	32
3.91033	32
3.91400	32
3.91767	33
3.92133	33
3.92500	33
3.92867	33
3.93233	33
3.93600	33
3.93967	33
3.94333	33
3.94700	33
3.95067	32
3.95433	32
3.95800	32
3.96167	32
3.96533	32
3.96900	32
3.97267	32
3.97633	32
3.98000	32
3.98367	32
3.98733	32
3.99100	32
3.99467	32
3.99833	32

[Chromatogram (Ch3)]
Interval(msec)	220
# of Points	1091
Start Time(min)	0.002
End Time(min)	3.998
R.Time (min)	Intensity
0.00167	1
0.00533	2
0.00900	2
0.01267	3
0.01633	1
0.02000	-1
0.02367	-1
0.02733	-1
0.03100	-1
0.03467	-2
0.03833	-4
0.04200	-4
0.04567	-1
0.04933	1
0.05300	3
0.05667	3
0.06033	2
0.06400	-0
0.06767	-3
0.07133	-4
0.07500	-5
0.07867	-5
0.08233	-3
0.08600	-1
0.08967	-2
0.09333	-1
0.09700	-1
0.10067	-1
0.10433	1
0.10800	2
0.11167	1
0.11533	-1
0.11900	-4
0.12267	-4
0.12633	-4
0.13000	-5
0.13367	-5
0.13733	-5
0.14100	-4
0.14467	-4
0.14833	-4
0.15200	-4
0.15567	-3
0.15933	-1
0.16300	-1
0.16667	-5
0.17033	-9
0.17400	-13
0.17767	-13
0.18133	-11
0.18500	-8
0.18867	-5
0.19233	-4
0.19600	-4
0.19967	-5
0.20333	-7
0.20700	-6
0.21067	-5
0.21433	-4
0.21800	-5
0.22167	-8
0.22533	-12
0.22900	-15
0.23267	-17
0.23633	-16
0.24000	-17
0.24367	-19
0.24733	-19
0.25100	-17
0.25467	-15
0.25833	-12
0.26200	-10
0.26567	-9
0.26933	-8
0.27300	-8
0.27667	-8
0.28033	-8
0.28400	-10
0.28767	-12
0.29133	-12
0.29500	-10
0.29867	-8
0.30233	-9
0.30600	-11
0.30967	-12
0.31333	-11
0.31700	-10
0.32067	-9
0.32433	-9
0.32800	-7
0.33167	-7
0.33533	-6
0.33900	-5
0.34267	-3
0.34633	-4
0.35000	-5
0.35367	-10
0.35733	-13
0.36100	-14
0.36467	-15
0.36833	-14
0.37200	-16
0.37567	-15
0.37933	-12
0.38300	-12
0.38667	-14
0.39033	-15
0.39400	-15
0.39767	-15
0.40133	-14
0.40500	-11
0.40867	-8
0.41233	-8
0.41600	-8
0.41967	-7
0.42333	-9
0.42700	-12
0.43067	-15
0.43433	-17
0.43800	-15
0.44167	-14
0.44533	-12
0.44900	-11
0.45267	-11
0.45633	-11
0.46000	-13
0.46367	-15
0.46733	-15
0.47100	-17
0.47467	-19
0.47833	-20
0.48200	-20
0.48567	-20
0.48933	-20
0.49300	-21
0.49667	-21
0.50033	-22
0.50400	-23
0.50767	-21
0.51133	-19
0.51500	-17
0.51867	-13
0.52233	-11
0.52600	-10
0.52967	-10
0.53333	-13
0.53700	-13
0.54067	-14
0.54433	-18
0.54800	-20
0.55167	-23
0.55533	-24
0.55900	-22
0.56267	-20
0.56633	-18
0.57000	-18
0.57367	-21
0.57733	-24
0.58100	-24
0.58467	-20
0.58833	-19
0.59200	-19
0.59567	-18
0.59933	-18
0.60300	-17
0.60667	-18
0.61033	-19
0.61400	-19
0.61767	-21
0.62133	-21
0.62500	-20
0.62867	-22
0.63233	-22
0.63600	-23
0.63967	-23
0.64333	-21
0.64700	-20
0.65067	-19
0.65433	-19
0.65800	-22
0.66167	-24
0.66533	-25
0.66900	-23
0.67267	-22
0.67633	-22
0.68000	-21
0.68367	-19
0.68733	-18
0.69100	-18
0.69467	-16
0.69833	-14
0.70200	-11
0.70567	-11
0.70933	-12
0.71300	-12
0.71667	-11
0.72033	-10
0.72400	-9
0.72767	-7
0.73133	-7
0.73500	-8
0.73867	-11
0.74233	-11
0.74600	-11
0.74967	-14
0.75333	-16
0.75700	-16
0.76067	-15
0.76433	-15
0.76800	-14
0.77167	-12
0.77533	-10
0.77900	-10
0.78267	-9
0.78633	-9
0.79000	-8
0.79367	-8
0.79733	-7
0.80100	-6
0.80467	-6
0.80833	-9
0.81200	-12
0.81567	-13
0.81933	-13
0.82300	-12
0.82667	-12
0.83033	-13
0.83400	-12
0.83767	-12
0.84133	-11
0.84500	-10
0.84867	-8
0.85233	-7
0.85600	-6
0.85967	-8
0.86333	-7
0.86700	-6
0.87067	-2
0.87433	-3
0.87800	-3
0.88167	-4
0.88533	-5
0.88900	-5
0.89267	-2
0.89633	1
0.90000	2
0.90367	1
0.90733	-1
0.91100	-5
0.91467	-7
0.91833	-8
0.92200	-8
0.92567	-8
0.92933	-8
0.93300	-8
0.93667	-9
0.94033	-9
0.94400	-9
0.94767	-10
0.95133	-10
0.95500	-8
0.95867	-7
0.96233	-7
0.96600	-6
0.96967	-5
0.97333	-4
0.97700	-4
0.98067	-0
0.98433	-0
0.98800	-4
0.99167	-5
0.99533	-6
0.99900	-8
1.00267	-9
1.00633	-10
1.01000	-8
1.01367	-6
1.01733	-6
1.02100	-5
1.02467	-5
1.02833	-9
1.03200	-14
1.03567	-15
1.03933	-14
1.04300	-13
1.04667	-13
1.05033	-14
1.05400	-14
1.05767	-13
1.06133	-12
1.06500	-11
1.06867	-10
1.07233	-11
1.07600	-9
1.07967	-6
1.08333	-5
1.08700	-6
1.09067	-8
1.09433	-11
1.09800	-13
1.10167	-13
1.10533	-11
1.10900	-10
1.11267	-12
1.11633	-13
1.12000	-12
1.12367	-11
1.12733	-9
1.13100	-10
1.13467	-11
1.13833	-11
1.14200	-10
1.14567	-12
1.14933	-13
1.15300	-13
1.15667	-12
1.16033	-12
1.16400	-11
1.16767	-13
1.17133	-15
1.17500	-17
1.17867	-16
1.18233	-17
1.18600	-18
1.18967	-18
1.19333	-20
1.19700	-21
1.20067	-21
1.20433	-19
1.20800	-18
1.21167	-19
1.21533	-17
1.21900	-14
1.22267	-14
1.22633	-15
1.23000	-13
1.23367	-13
1.23733	-16
1.24100	-20
1.24467	-21
1.24833	-22
1.25200	-20
1.25567	-18
1.25933	-18
1.26300	-17
1.26667	-16
1.27033	-16
1.27400	-14
1.27767	-12
1.28133	-12
1.28500	-10
1.28867	-10
1.29233	-9
1.29600	-11
1.29967	-11
1.30333	-9
1.30700	-10
1.31067	-14
1.31433	-17
1.31800	-16
1.32167	-16
1.32533	-16
1.32900	-14
1.33267	-14
1.33633	-16
1.34000	-18
1.34367	-20
1.34733	-19
1.35100	-16
1.35467	-15
1.35833	-15
1.36200	-14
1.36567	-12
1.36933	-12
1.37300	-11
1.37667	-13
1.38033	-15
1.38400	-17
1.38767	-18
1.39133	-18
1.39500	-18
1.39867	-17
1.40233	-15
1.40600	-14
1.40967	-15
1.41333	-18
1.41700	-17
1.42067	-16
1.42433	-16
1.42800	-17
1.43167	-18
1.43533	-19
1.43900	-22
1.44267	-21
1.44633	-20
1.45000	-19
1.45367	-18
1.45733	-18
1.46100	-17
1.46467	-18
1.46833	-17
1.47200	-16
1.47567	-18
1.47933	-15
1.48300	-14
1.48667	-13
1.49033	-13
1.49400	-13
1.49767	-14
1.50133	-15
1.50500	-18
1.50867	-19
1.51233	-19
1.51600	-18
1.51967	-19
1.52333	-19
1.52700	-20
1.53067	-19
1.53433	-18
1.53800	-16
1.54167	-13
1.54533	-12
1.54900	-13
1.55267	-16
1.55633	-15
1.56000	-12
1.56367	-9
1.56733	-7
1.57100	-10
1.57467	-13
1.57833	-18
1.58200	-20
1.58567	-19
1.58933	-17
1.59300	-17
1.59667	-17
1.60033	-17
1.60400	-17
1.60767	-16
1.61133	-16
1.61500	-14
1.61867	-10
1.62233	-9
1.62600	-9
1.62967	-11
1.63333	-13
1.63700	-15
1.64067	-15
1.64433	-15
1.64800	-14
1.65167	-13
1.65533	-10
1.65900	-8
1.66267	-7
1.66633	-8
1.67000	-6
1.67367	-4
1.67733	-2
1.68100	-1
1.68467	-0
1.68833	-1
1.69200	-1
1.69567	1
1.69933	2
1.70300	4
1.70667	8
1.71033	12
1.71400	13
1.71767	14
1.72133	17
1.72500	17
1.72867	16
1.73233	14
1.73600	13
1.73967	14
1.74333	15
1.74700	15
1.75067	16
1.75433	17
1.75800	18
1.76167	21
1.76533	21
1.76900	22
1.77267	22
1.77633	20
1.78000	19
1.78367	18
1.78733	18
1.79100	21
1.79467	21
1.79833	23
1.80200	26
1.80567	28
1.80933	28
1.81300	29
1.81667	31
1.82033	34
1.82400	35
1.82767	36
1.83133	37
1.83500	36
1.83867	38
1.84233	42
1.84600	44
1.84967	42
1.85333	41
1.85700	41
1.86067	44
1.86433	48
1.86800	49
1.87167	48
1.87533	48
1.87900	49
1.88267	47
1.88633	46
1.89000	47
1.89367	47
1.89733	48
1.90100	49
1.90467	50
1.90833	53
1.91200	56
1.91567	57
1.91933	56
1.92300	56
1.92667	59
1.93033	63
1.93400	66
1.93767	69
1.94133	71
1.94500	72
1.94867	73
1.95233	72
1.95600	70
1.95967	71
1.96333	71
1.96700	72
1.97067	74
1.97433	74
1.97800	77
1.98167	79
1.98533	80
1.98900	82
1.99267	84
1.99633	87
2.00000	90
2.00367	91
2.00733	95
2.01100	100
2.01467	101
2.01833	101
2.02200	102
2.02567	104
2.02933	105
2.03300	108
2.03667	109
2.04033	110
2.04400	110
2.04767	110
2.05133	111
2.05500	111
2.05867	113
2.06233	116
2.06600	119
2.06967	120
2.07333	121
2.07700	123
2.08067	123
2.08433	124
2.08800	126
2.09167	131
2.09533	135
2.09900	138
2.10267	140
2.10633	140
2.11000	141
2.11367	143
2.11733	145
2.12100	147
2.12467	149
2.12833	151
2.13200	153
2.13567	152
2.13933	150
2.14300	154
2.14667	158
2.15033	162
2.15400	163
2.15767	165
2.16133	166
2.16500	168
2.16867	170
2.17233	171
2.17600	173
2.17967	175
2.18333	177
2.18700	181
2.19067	183
2.19433	183
2.19800	185
2.20167	188
2.20533	191
2.20900	194
2.21267	195
2.21633	195
2.22000	194
2.22367	194
2.22733	198
2.23100	202
2.23467	204
2.23833	205
2.24200	206
2.24567	208
2.24933	212
2.25300	214
2.25667	217
2.26033	221
2.26400	226
2.26767	230
2.27133	233
2.27500	233
2.27867	231
2.28233	230
2.28600	231
2.28967	233
2.29333	235
2.29700	238
2.30067	244
2.30433	251
2.30800	255
2.31167	258
2.31533	259
2.31900	260
2.32267	261
2.32633	263
2.33000	265
2.33367	269
2.33733	274
2.34100	279
2.34467	281
2.34833	282
2.35200	283
2.35567	284
2.35933	288
2.36300	291
2.36667	293
2.37033	294
2.37400	296
2.37767	299
2.38133	301
2.38500	302
2.38867	304
2.39233	305
2.39600	304
2.39967	302
2.40333	302
2.40700	305
2.41067	310
2.41433	314
2.41800	317
2.42167	320
2.42533	323
2.42900	326
2.43267	328
2.43633	327
2.44000	327
2.44367	329
2.44733	332
2.45100	336
2.45467	336
2.45833	332
2.46200	329
2.46567	326
2.46933	324
2.47300	322
2.47667	320
2.48033	316
2.48400	312
2.48767	305
2.49133	295
2.49500	285
2.49867	279
2.50233	274
2.50600	269
2.50967	261
2.51333	254
2.51700	247
2.52067	245
2.52433	244
2.52800	241
2.53167	236
2.53533	231
2.53900	229
2.54267	227
2.54633	225
2.55000	223
2.55367	220
2.55733	218
2.56100	217
2.56467	217
2.56833	215
2.57200	212
2.57567	209
2.57933	206
2.58300	203
2.58667	202
2.59033	200
2.59400	198
2.59767	196
2.60133	195
2.60500	195
2.60867	190
2.61233	179
2.61600	162
2.61967	141
2.62333	116
2.62700	89
2.63067	61
2.63433	37
2.63800	17
2.64167	-0
2.64533	-16
2.64900	-31
2.65267	-42
2.65633	-46
2.66000	-45
2.66367	-43
2.66733	-39
2.67100	-32
2.67467	-24
2.67833	-16
2.68200	-8
2.68567	3
2.68933	14
2.69300	22
2.69667	30
2.70033	40
2.70400	47
2.70767	53
2.71133	58
2.71500	61
2.71867	65
2.72233	71
2.72600	77
2.72967	81
2.73333	85
2.73700	89
2.74067	94
2.74433	100
2.74800	105
2.75167	112
2.75533	116
2.75900	119
2.76267	124
2.76633	129
2.77000	131
2.77367	132
2.77733	135
2.78100	136
2.78467	138
2.78833	140
2.79200	141
2.79567	142
2.79933	145
2.80300	146
2.80667	144
2.81033	141
2.81400	140
2.81767	139
2.82133	139
2.82500	137
2.82867	137
2.83233	142
2.83600	160
2.83967	198
2.84333	275
2.84700	408
2.85067	622
2.85433	932
2.85800	1345
2.86167	1857
2.86533	2445
2.86900	3075
2.87267	3700
2.87633	4271
2.88000	4741
2.88367	5078
2.88733	5267
2.89100	5305
2.89467	5204
2.89833	4988
2.90200	4686
2.90567	4331
2.90933	3950
2.91300	3566
2.91667	3192
2.92033	2837
2.92400	2509
2.92767	2208
2.93133	1935
2.93500	1689
2.93867	1472
2.94233	1282
2.94600	1117
2.94967	972
2.95333	845
2.95700	736
2.96067	643
2.96433	564
2.96800	496
2.97167	435
2.97533	381
2.97900	336
2.98267	298
2.98633	264
2.99000	233
2.99367	205
2.99733	180
3.00100	160
3.00467	144
3.00833	134
3.01200	125
3.01567	114
3.01933	106
3.02300	98
3.02667	90
3.03033	83
3.03400	78
3.03767	73
3.04133	69
3.04500	64
3.04867	61
3.05233	58
3.05600	58
3.05967	58
3.06333	58
3.06700	57
3.07067	56
3.07433	52
3.07800	47
3.08167	44
3.08533	42
3.08900	42
3.09267	42
3.09633	42
3.10000	40
3.10367	40
3.10733	39
3.11100	39
3.11467	38
3.11833	35
3.12200	35
3.12567	37
3.12933	38
3.13300	35
3.13667	33
3.14033	33
3.14400	31
3.14767	31
3.15133	32
3.15500	32
3.15867	31
3.16233	32
3.16600	33
3.16967	31
3.17333	29
3.17700	28
3.18067	27
3.18433	25
3.18800	25
3.19167	26
3.19533	26
3.19900	24
3.20267	22
3.20633	21
3.21000	20
3.21367	20
3.21733	23
3.22100	27
3.22467	29
3.22833	31
3.23200	30
3.23567	29
3.23933	29
3.24300	29
3.24667	28
3.25033	28
3.25400	29
3.25767	26
3.26133	24
3.26500	26
3.26867	27
3.27233	25
3.27600	23
3.27967	21
3.28333	20
3.28700	15
3.29067	13
3.29433	16
3.29800	19
3.30167	20
3.30533	19
3.30900	20
3.31267	21
3.31633	20
3.32000	19
3.32367	18
3.32733	17
3.33100	13
3.33467	12
3.33833	11
3.34200	9
3.34567	9
3.34933	9
3.35300	9
3.35667	8
3.36033	5
3.36400	2
3.36767	-3
3.37133	-5
3.37500	-5
3.37867	-5
3.38233	-7
3.38600	-8
3.38967	-9
3.39333	-11
3.39700	-12
3.40067	-14
3.40433	-14
3.40800	-14
3.41167	-13
3.41533	-15
3.41900	-18
3.42267	-21
3.42633	-23
3.43000	-25
3.43367	-25
3.43733	-23
3.44100	-21
3.44467	-20
3.44833	-21
3.45200	-23
3.45567	-24
3.45933	-25
3.46300	-27
3.46667	-26
3.47033	-26
3.47400	-28
3.47767	-31
3.48133	-36
3.48500	-38
3.48867	-37
3.49233	-36
3.49600	-35
3.49967	-35
3.50333	-35
3.50700	-38
3.51067	-41
3.51433	-43
3.51800	-45
3.52167	-47
3.52533	-48
3.52900	-49
3.53267	-48
3.53633	-46
3.54000	-45
3.54367	-48
3.54733	-50
3.55100	-51
3.55467	-52
3.55833	-53
3.56200	-53
3.56567	-52
3.56933	-53
3.57300	-54
3.57667	-55
3.58033	-56
3.58400	-58
3.58767	-60
3.59133	-61
3.59500	-62
3.59867	-64
3.60233	-67
3.60600	-70
3.60967	-71
3.61333	-71
3.61700	-71
3.62067	-69
3.62433	-67
3.62800	-67
3.63167	-68
3.63533	-70
3.63900	-71
3.64267	-72
3.64633	-74
3.65000	-78
3.65367	-78
3.65733	-79
3.66100	-80
3.66467	-80
3.66833	-80
3.67200	-81
3.67567	-82
3.67933	-80
3.68300	-79
3.68667	-78
3.69033	-78
3.69400	-78
3.69767	-79
3.70133	-80
3.70500	-82
3.70867	-83
3.71233	-85
3.71600	-88
3.71967	-89
3.72333	-88
3.72700	-89
3.73067	-89
3.73433	-87
3.73800	-87
3.74167	-90
3.74533	-92
3.74900	-93
3.75267	-93
3.75633	-94
3.76000	-94
3.76367	-95
3.76733	-96
3.77100	-95
3.77467	-94
3.77833	-93
3.78200	-95
3.78567	-99
3.78933	-101
3.79300	-101
3.79667	-102
3.80033	-105
3.80400	-108
3.80767	-109
3.81133	-109
3.81500	-108
3.81867	-106
3.82233	-104
3.82600	-101
3.82967	-101
3.83333	-104
3.83700	-106
3.84067	-107
3.84433	-107
3.84800	-107
3.85167	-106
3.85533	-107
3.85900	-105
3.86267	-106
3.86633	-107
3.87000	-108
3.87367	-110
3.87733	-110
3.88100	-111
3.88467	-110
3.88833	-110
3.89200	-110
3.89567	-109
3.89933	-107
3.90300	-107
3.90667	-108
3.91033	-108
3.91400	-108
3.91767	-109
3.92133	-110
3.92500	-113
3.92867	-114
3.93233	-113
3.93600	-113
3.93967	-113
3.94333	-113
3.94700	-113
3.95067	-114
3.95433	-115
3.95800	-115
3.96167	-116
3.96533	-117
3.96900	-118
3.97267	-117
3.97633	-118
3.98000	-117
3.98367	-115
3.98733	-113
3.99100	-113
3.99467	-112
3.99833	-113

[Status Trace (Column Oven Temperature)]
Interval(msec)	1000
# of Points	240
Start Time(min)	0.015
End Time(min)	3.998
Intensity Units	
Intensity Multiplier	1
R.Time (min)	Intensity
0.01482	35.00
0.03148	35.00
0.04815	35.01
0.06482	35.02
0.08148	35.04
0.09815	35.05
0.11482	35.06
0.13148	35.06
0.14815	35.07
0.16482	35.08
0.18148	35.07
0.19815	35.06
0.21482	35.05
0.23148	35.04
0.24815	35.02
0.26482	35.02
0.28148	35.02
0.29815	35.02
0.31482	35.02
0.33148	35.02
0.34815	35.01
0.36482	35.01
0.38148	34.99
0.39815	34.97
0.41482	34.96
0.43148	34.96
0.44815	34.96
0.46482	34.97
0.48148	34.97
0.49815	34.97
0.51482	34.98
0.53148	34.99
0.54815	35.00
0.56482	35.01
0.58148	35.01
0.59815	35.01
0.61482	35.00
0.63148	35.00
0.64815	35.00
0.66482	35.03
0.68148	35.04
0.69815	35.05
0.71482	35.04
0.73148	35.03
0.74815	35.01
0.76482	35.00
0.78148	34.98
0.79815	34.98
0.81482	34.97
0.83148	34.96
0.84815	34.97
0.86482	34.97
0.88148	35.00
0.89815	35.02
0.91482	35.02
0.93148	35.03
0.94815	35.03
0.96482	35.03
0.98148	35.03
0.99815	35.02
1.01482	35.02
1.03148	35.01
1.04815	35.01
1.06482	35.02
1.08148	35.02
1.09815	35.02
1.11482	35.03
1.13148	35.03
1.14815	35.04
1.16482	35.04
1.18148	35.03
1.19815	35.01
1.21482	35.00
1.23148	35.00
1.24815	35.02
1.26482	35.02
1.28148	35.02
1.29815	35.02
1.31482	35.01
1.33148	34.99
1.34815	34.98
1.36482	34.98
1.38148	34.99
1.39815	35.00
1.41482	34.99
1.43148	34.99
1.44815	34.98
1.46482	34.98
1.48148	34.98
1.49815	34.99
1.51482	35.01
1.53148	35.02
1.54815	35.04
1.56482	35.05
1.58148	35.05
1.59815	35.05
1.61482	35.12
1.63148	35.24
1.64815	35.44
1.66482	35.72
1.68148	36.08
1.69815	36.45
1.71482	36.80
1.73148	37.13
1.74815	37.48
1.76482	37.81
1.78148	38.12
1.79815	38.45
1.81482	38.78
1.83148	39.11
1.84815	39.45
1.86482	39.77
1.88148	40.11
1.89815	40.42
1.91482	40.74
1.93148	41.06
1.94815	41.41
1.96482	41.74
1.98148	42.06
1.99815	42.39
2.01482	42.72
2.03148	43.04
2.04815	43.37
2.06482	43.68
2.08148	44.01
2.09815	44.34
2.11482	44.66
2.13148	45.01
2.14815	45.32
2.16482	45.65
2.18148	45.98
2.19815	46.31
2.21482	46.65
2.23148	46.96
2.24815	47.28
2.26482	47.62
2.28148	47.95
2.29815	48.28
2.31482	48.63
2.33148	48.95
2.34815	49.27
2.36482	49.52
2.38148	49.65
2.39815	49.67
2.41482	49.67
2.43148	49.68
2.44815	49.68
2.46482	49.69
2.48148	49.70
2.49815	49.70
2.51482	49.74
2.53148	49.74
2.54815	49.76
2.56482	49.77
2.58148	49.78
2.59815	49.80
2.61482	49.81
2.63148	49.84
2.64815	49.85
2.66482	49.84
2.68148	49.85
2.69815	49.88
2.71482	49.88
2.73148	49.86
2.74815	49.84
2.76482	49.86
2.78148	49.87
2.79815	49.87
2.81482	49.88
2.83148	49.88
2.84815	49.88
2.86482	49.91
2.88148	49.91
2.89815	49.91
2.91482	49.92
2.93148	49.93
2.94815	49.95
2.96482	49.97
2.98148	49.98
2.99815	49.99
3.01482	49.99
3.03148	49.99
3.04815	50.00
3.06482	50.01
3.08148	50.03
3.09815	50.04
3.11482	50.04
3.13148	50.05
3.14815	50.05
3.16482	50.06
3.18148	50.07
3.19815	50.07
3.21482	50.08
3.23148	50.08
3.24815	50.08
3.26482	50.08
3.28148	50.09
3.29815	50.10
3.31482	50.11
3.33148	50.11
3.34815	50.11
3.36482	50.11
3.38148	50.08
3.39815	50.06
3.41482	50.04
3.43148	50.03
3.44815	50.02
3.46482	50.02
3.48148	50.01
3.49815	50.01
3.51482	50.01
3.53148	49.99
3.54815	49.99
3.56482	49.99
3.58148	49.99
3.59815	49.99
3.61482	50.00
3.63148	50.01
3.64815	50.02
3.66482	50.03
3.68148	50.03
3.69815	50.04
3.71482	50.04
3.73148	50.05
3.74815	50.05
3.76482	50.06
3.78148	50.06
3.79815	50.07
3.81482	50.06
3.83148	50.07
3.84815	50.07
3.86482	50.07
3.88148	50.07
3.89815	50.06
3.91482	50.05
3.93148	50.05
3.94815	50.04
3.96482	50.04
3.98148	50.04
3.99815	50.04

[Status Trace (Injection Unit Temperature)]
Interval(msec)	1000
# of Points	240
Start Time(min)	0.015
End Time(min)	3.998
Intensity Units	
Intensity Multiplier	1
R.Time (min)	Intensity
0.01482	100.00
0.03148	100.00
0.04815	100.00
0.06482	100.00
0.08148	100.00
0.09815	100.00
0.11482	100.00
0.13148	100.00
0.14815	100.00
0.16482	100.00
0.18148	100.00
0.19815	100.00
0.21482	100.00
0.23148	100.00
0.24815	100.00
0.26482	100.00
0.28148	100.00
0.29815	100.00
0.31482	100.00
0.33148	100.00
0.34815	100.00
0.36482	100.00
0.38148	100.00
0.39815	100.00
0.41482	100.00
0.43148	100.00
0.44815	100.00
0.46482	100.00
0.48148	100.00
0.49815	100.00
0.51482	100.00
0.53148	100.00
0.54815	99.99
0.56482	100.00
0.58148	100.00
0.59815	100.00
0.61482	100.00
0.63148	100.00
0.64815	100.00
0.66482	100.00
0.68148	100.00
0.69815	100.00
0.71482	100.00
0.73148	100.00
0.74815	100.00
0.76482	100.00
0.78148	100.00
0.79815	100.00
0.81482	100.00
0.83148	100.00
0.84815	100.00
0.86482	100.00
0.88148	100.00
0.89815	100.00
0.91482	100.00
0.93148	100.00
0.94815	100.00
0.96482	100.00
0.98148	100.00
0.99815	100.00
1.01482	100.00
1.03148	100.00
1.04815	100.00
1.06482	100.00
1.08148	100.00
1.09815	100.00
1.11482	100.00
1.13148	100.00
1.14815	100.00
1.16482	100.00
1.18148	100.00
1.19815	100.00
1.21482	100.00
1.23148	100.00
1.24815	100.00
1.26482	100.00
1.28148	100.00
1.29815	100.00
1.31482	100.00
1.33148	100.00
1.34815	100.00
1.36482	100.00
1.38148	100.00
1.39815	100.00
1.41482	100.00
1.43148	100.01
1.44815	100.00
1.46482	100.00
1.48148	100.00
1.49815	100.01
1.51482	100.00
1.53148	100.00
1.54815	100.00
1.56482	100.00
1.58148	100.00
1.59815	100.00
1.61482	100.00
1.63148	100.00
1.64815	100.00
1.66482	100.00
1.68148	100.00
1.69815	100.00
1.71482	100.00
1.73148	100.00
1.74815	100.00
1.76482	100.00
1.78148	100.00
1.79815	100.00
1.81482	100.00
1.83148	100.00
1.84815	99.99
1.86482	100.00
1.88148	100.00
1.89815	99.99
1.91482	99.99
1.93148	99.99
1.94815	99.98
1.96482	99.99
1.98148	99.99
1.99815	99.99
2.01482	99.99
2.03148	99.98
2.04815	99.98
2.06482	99.99
2.08148	99.99
2.09815	99.98
2.11482	99.98
2.13148	99.99
2.14815	99.98
2.16482	99.98
2.18148	99.98
2.19815	99.98
2.21482	99.98
2.23148	99.98
2.24815	99.98
2.26482	99.98
2.28148	99.98
2.29815	99.98
2.31482	99.98
2.33148	99.97
2.34815	99.97
2.36482	99.97
2.38148	99.98
2.39815	99.98
2.41482	99.98
2.43148	99.98
2.44815	99.97
2.46482	99.98
2.48148	99.98
2.49815	99.97
2.51482	99.98
2.53148	99.98
2.54815	99.98
2.56482	99.98
2.58148	99.98
2.59815	99.98
2.61482	99.98
2.63148	99.98
2.64815	99.99
2.66482	99.98
2.68148	99.99
2.69815	99.99
2.71482	99.99
2.73148	99.99
2.74815	99.99
2.76482	99.99
2.78148	99.99
2.79815	100.00
2.81482	100.00
2.83148	100.00
2.84815	100.00
2.86482	100.00
2.88148	100.01
2.89815	100.01
2.91482	100.01
2.93148	100.00
2.94815	100.01
2.96482	100.01
2.98148	100.01
2.99815	100.02
3.01482	100.02
3.03148	100.02
3.04815	100.02
3.06482	100.02
3.08148	100.02
3.09815	100.03
3.11482	100.03
3.13148	100.03
3.14815	100.03
3.16482	100.03
3.18148	100.03
3.19815	100.03
3.21482	100.03
3.23148	100.03
3.24815	100.04
3.26482	100.04
3.28148	100.04
3.29815	100.04
3.31482	100.04
3.33148	100.04
3.34815	100.05
3.36482	100.04
3.38148	100.04
3.39815	100.05
3.41482	100.04
3.43148	100.04
3.44815	100.05
3.46482	100.05
3.48148	100.05
3.49815	100.06
3.51482	100.05
3.53148	100.05
3.54815	100.05
3.56482	100.05
3.58148	100.06
3.59815	100.06
3.61482	100.06
3.63148	100.06
3.64815	100.06
3.66482	100.06
3.68148	100.06
3.69815	100.06
3.71482	100.06
3.73148	100.06
3.74815	100.06
3.76482	100.06
3.78148	100.06
3.79815	100.06
3.81482	100.06
3.83148	100.06
3.84815	100.06
3.86482	100.06
3.88148	100.06
3.89815	100.06
3.91482	100.06
3.93148	100.06
3.94815	100.05
3.96482	100.06
3.98148	100.06
3.99815	100.05

[Status Trace (Carrier Gas Pressure)]
Interval(msec)	1000
# of Points	240
Start Time(min)	0.015
End Time(min)	3.998
Intensity Units	
Intensity Multiplier	1
R.Time (min)	Intensity
0.01482	57.23
0.03148	55.67
0.04815	57.95
0.06482	59.83
0.08148	58.58
0.09815	57.98
0.11482	58.00
0.13148	58.01
0.14815	58.01
0.16482	58.00
0.18148	58.00
0.19815	58.00
0.21482	58.00
0.23148	58.00
0.24815	58.00
0.26482	58.00
0.28148	58.00
0.29815	58.00
0.31482	58.00
0.33148	58.00
0.34815	58.00
0.36482	58.00
0.38148	58.00
0.39815	58.00
0.41482	58.00
0.43148	58.00
0.44815	58.00
0.46482	58.00
0.48148	58.00
0.49815	58.00
0.51482	58.00
0.53148	58.00
0.54815	58.00
0.56482	58.00
0.58148	58.00
0.59815	58.00
0.61482	58.00
0.63148	58.00
0.64815	58.00
0.66482	58.00
0.68148	58.00
0.69815	58.00
0.71482	58.00
0.73148	58.00
0.74815	58.00
0.76482	58.00
0.78148	58.00
0.79815	58.00
0.81482	58.00
0.83148	58.00
0.84815	58.00
0.86482	58.00
0.88148	58.00
0.89815	58.00
0.91482	58.00
0.93148	58.00
0.94815	58.00
0.96482	58.00
0.98148	58.00
0.99815	58.00
1.01482	58.00
1.03148	58.00
1.04815	58.00
1.06482	58.00
1.08148	58.00
1.09815	58.00
1.11482	58.00
1.13148	58.00
1.14815	58.00
1.16482	58.00
1.18148	58.00
1.19815	58.00
1.21482	58.00
1.23148	58.00
1.24815	58.00
1.26482	58.00
1.28148	58.00
1.29815	58.00
1.31482	58.00
1.33148	58.00
1.34815	58.00
1.36482	58.00
1.38148	58.00
1.39815	58.00
1.41482	58.00
1.43148	58.00
1.44815	58.00
1.46482	58.00
1.48148	58.00
1.49815	58.00
1.51482	58.00
1.53148	58.00
1.54815	58.00
1.56482	58.00
1.58148	58.00
1.59815	58.00
1.61482	58.00
1.63148	58.00
1.64815	58.00
1.66482	58.01
1.68148	58.01
1.69815	58.00
1.71482	58.00
1.73148	58.00
1.74815	58.00
1.76482	58.00
1.78148	58.00
1.79815	58.00
1.81482	58.00
1.83148	58.00
1.84815	58.00
1.86482	58.00
1.88148	58.00
1.89815	58.00
1.91482	58.00
1.93148	58.00
1.94815	58.00
1.96482	58.00
1.98148	58.00
1.99815	58.00
2.01482	58.00
2.03148	58.00
2.04815	58.00
2.06482	58.00
2.08148	58.00
2.09815	58.00
2.11482	58.00
2.13148	58.00
2.14815	58.00
2.16482	58.00
2.18148	58.00
2.19815	58.00
2.21482	58.00
2.23148	58.00
2.24815	58.00
2.26482	58.00
2.28148	58.00
2.29815	58.00
2.31482	58.00
2.33148	58.00
2.34815	58.00
2.36482	58.00
2.38148	57.99
2.39815	57.99
2.41482	58.00
2.43148	58.00
2.44815	58.00
2.46482	58.00
2.48148	58.00
2.49815	58.00
2.51482	57.98
2.53148	57.99
2.54815	58.00
2.56482	58.00
2.58148	58.00
2.59815	58.00
2.61482	58.00
2.63148	58.00
2.64815	58.00
2.66482	58.00
2.68148	58.00
2.69815	58.00
2.71482	58.00
2.73148	58.00
2.74815	58.00
2.76482	58.00
2.78148	58.00
2.79815	58.00
2.81482	58.00
2.83148	58.00
2.84815	58.00
2.86482	58.00
2.88148	58.00
2.89815	58.00
2.91482	58.00
2.93148	58.00
2.94815	58.00
2.96482	58.00
2.98148	58.00
2.99815	58.00
3.01482	58.00
3.03148	58.00
3.04815	58.00
3.06482	58.00
3.08148	58.00
3.09815	58.00
3.11482	58.00
3.13148	58.00
3.14815	58.00
3.16482	58.00
3.18148	58.00
3.19815	58.00
3.21482	58.00
3.23148	58.00
3.24815	58.00
3.26482	58.00
3.28148	58.00
3.29815	58.00
3.31482	58.00
3.33148	58.00
3.34815	58.00
3.36482	58.00
3.38148	58.00
3.39815	58.00
3.41482	58.00
3.43148	58.00
3.44815	58.00
3.46482	58.00
3.48148	58.00
3.49815	58.00
3.51482	58.00
3.53148	58.00
3.54815	58.00
3.56482	58.00
3.58148	58.00
3.59815	58.00
3.61482	58.00
3.63148	58.00
3.64815	58.00
3.66482	58.00
3.68148	58.00
3.69815	58.00
3.71482	58.00
3.73148	58.00
3.74815	58.00
3.76482	58.00
3.78148	58.00
3.79815	58.00
3.81482	58.00
3.83148	58.00
3.84815	58.00
3.86482	58.00
3.88148	58.00
3.89815	58.00
3.91482	58.00
3.93148	58.00
3.94815	58.00
3.96482	58.00
3.98148	58.00
3.99815	58.00

[Status Trace (Carrier Gas Flow)]
Interval(msec)	1000
# of Points	240
Start Time(min)	0.015
End Time(min)	3.998
Intensity Units	
Intensity Multiplier	1
R.Time (min)	Intensity
0.01482	33.96
0.03148	34.54
0.04815	34.55
0.06482	34.53
0.08148	34.52
0.09815	34.52
0.11482	34.52
0.13148	34.52
0.14815	34.52
0.16482	34.52
0.18148	34.52
0.19815	34.52
0.21482	34.52
0.23148	34.52
0.24815	34.52
0.26482	34.52
0.28148	34.52
0.29815	34.52
0.31482	34.52
0.33148	34.52
0.34815	34.51
0.36482	34.52
0.38148	34.52
0.39815	34.52
0.41482	34.52
0.43148	34.54
0.44815	34.52
0.46482	34.52
0.48148	34.52
0.49815	34.52
0.51482	34.53
0.53148	34.51
0.54815	34.51
0.56482	34.51
0.58148	34.54
0.59815	34.51
0.61482	34.52
0.63148	34.51
0.64815	34.50
0.66482	34.52
0.68148	34.52
0.69815	34.52
0.71482	34.52
0.73148	34.52
0.74815	34.52
0.76482	34.51
0.78148	34.52
0.79815	34.53
0.81482	34.51
0.83148	34.52
0.84815	34.52
0.86482	34.52
0.88148	34.52
0.89815	34.52
0.91482	34.52
0.93148	34.52
0.94815	34.52
0.96482	34.52
0.98148	34.52
0.99815	34.52
1.01482	34.52
1.03148	34.52
1.04815	34.52
1.06482	34.52
1.08148	34.52
1.09815	34.52
1.11482	34.52
1.13148	34.52
1.14815	34.52
1.16482	34.52
1.18148	34.52
1.19815	34.52
1.21482	34.52
1.23148	34.52
1.24815	34.52
1.26482	34.52
1.28148	34.52
1.29815	34.52
1.31482	34.52
1.33148	34.52
1.34815	34.52
1.36482	34.52
1.38148	34.52
1.39815	34.52
1.41482	34.52
1.43148	34.52
1.44815	34.52
1.46482	34.52
1.48148	34.52
1.49815	34.52
1.51482	34.52
1.53148	34.52
1.54815	34.52
1.56482	34.52
1.58148	34.52
1.59815	34.52
1.61482	34.52
1.63148	34.52
1.64815	34.52
1.66482	34.52
1.68148	34.52
1.69815	34.52
1.71482	34.52
1.73148	34.52
1.74815	34.52
1.76482	34.52
1.78148	34.52
1.79815	34.52
1.81482	34.52
1.83148	34.52
1.84815	34.51
1.86482	34.52
1.88148	34.52
1.89815	34.52
1.91482	34.53
1.93148	34.52
1.94815	34.51
1.96482	34.52
1.98148	34.52
1.99815	34.52
2.01482	34.52
2.03148	34.52
2.04815	34.52
2.06482	34.52
2.08148	34.52
2.09815	34.53
2.11482	34.51
2.13148	34.52
2.14815	34.53
2.16482	34.51
2.18148	34.54
2.19815	34.52
2.21482	34.52
2.23148	34.52
2.24815	34.52
2.26482	34.52
2.28148	34.52
2.29815	34.51
2.31482	34.52
2.33148	34.53
2.34815	34.50
2.36482	34.52
2.38148	34.52
2.39815	34.51
2.41482	34.52
2.43148	34.52
2.44815	34.52
2.46482	34.52
2.48148	34.51
2.49815	34.53
2.51482	34.52
2.53148	34.52
2.54815	34.52
2.56482	34.52
2.58148	34.52
2.59815	34.52
2.61482	34.52
2.63148	34.52
2.64815	34.52
2.66482	34.52
2.68148	34.52
2.69815	34.52
2.71482	34.52
2.73148	34.53
2.74815	34.51
2.76482	34.52
2.78148	34.52
2.79815	34.52
2.81482	34.52
2.83148	34.52
2.84815	34.52
2.86482	34.52
2.88148	34.52
2.89815	34.53
2.91482	34.51
2.93148	34.52
2.94815	34.53
2.96482	34.52
2.98148	34.52
2.99815	34.51
3.01482	34.51
3.03148	34.52
3.04815	34.53
3.06482	34.52
3.08148	34.52
3.09815	34.52
3.11482	34.52
3.13148	34.52
3.14815	34.52
3.16482	34.52
3.18148	34.52
3.19815	34.52
3.21482	34.52
3.23148	34.52
3.24815	34.52
3.26482	34.52
3.28148	34.52
3.29815	34.52
3.31482	34.52
3.33148	34.52
3.34815	34.52
3.36482	34.52
3.38148	34.52
3.39815	34.52
3.41482	34.52
3.43148	34.52
3.44815	34.52
3.46482	34.52
3.48148	34.52
3.49815	34.52
3.51482	34.52
3.53148	34.52
3.54815	34.52
3.56482	34.52
3.58148	34.52
3.59815	34.52
3.61482	34.52
3.63148	34.52
3.64815	34.52
3.66482	34.52
3.68148	34.52
3.69815	34.52
3.71482	34.52
3.73148	34.52
3.74815	34.52
3.76482	34.52
3.78148	34.52
3.79815	34.52
3.81482	34.52
3.83148	34.52
3.84815	34.50
3.86482	34.52
3.88148	34.52
3.89815	34.52
3.91482	34.53
3.93148	34.52
3.94815	34.53
3.96482	34.52
3.98148	34.52
3.99815	34.54

[Status Trace (Column Flow)]
Interval(msec)	1000
# of Points	240
Start Time(min)	0.015
End Time(min)	3.998
Intensity Units	
Intensity Multiplier	1
R.Time (min)	Intensity
0.01482	5.40
0.03148	5.22
0.04815	5.48
0.06482	5.70
0.08148	5.55
0.09815	5.48
0.11482	5.49
0.13148	5.49
0.14815	5.49
0.16482	5.49
0.18148	5.49
0.19815	5.49
0.21482	5.49
0.23148	5.49
0.24815	5.49
0.26482	5.49
0.28148	5.49
0.29815	5.49
0.31482	5.49
0.33148	5.49
0.34815	5.49
0.36482	5.49
0.38148	5.49
0.39815	5.49
0.41482	5.49
0.43148	5.49
0.44815	5.49
0.46482	5.49
0.48148	5.49
0.49815	5.49
0.51482	5.49
0.53148	5.49
0.54815	5.49
0.56482	5.49
0.58148	5.49
0.59815	5.49
0.61482	5.49
0.63148	5.49
0.64815	5.49
0.66482	5.49
0.68148	5.49
0.69815	5.49
0.71482	5.49
0.73148	5.49
0.74815	5.49
0.76482	5.49
0.78148	5.49
0.79815	5.49
0.81482	5.49
0.83148	5.49
0.84815	5.49
0.86482	5.49
0.88148	5.49
0.89815	5.49
0.91482	5.49
0.93148	5.49
0.94815	5.49
0.96482	5.49
0.98148	5.49
0.99815	5.49
1.01482	5.49
1.03148	5.49
1.04815	5.49
1.06482	5.49
1.08148	5.49
1.09815	5.49
1.11482	5.49
1.13148	5.49
1.14815	5.49
1.16482	5.49
1.18148	5.49
1.19815	5.49
1.21482	5.49
1.23148	5.49
1.24815	5.49
1.26482	5.49
1.28148	5.49
1.29815	5.49
1.31482	5.49
1.33148	5.49
1.34815	5.49
1.36482	5.49
1.38148	5.49
1.39815	5.49
1.41482	5.49
1.43148	5.49
1.44815	5.49
1.46482	5.49
1.48148	5.49
1.49815	5.49
1.51482	5.49
1.53148	5.49
1.54815	5.49
1.56482	5.49
1.58148	5.49
1.59815	5.49
1.61482	5.48
1.63148	5.48
1.64815	5.47
1.66482	5.47
1.68148	5.45
1.69815	5.44
1.71482	5.43
1.73148	5.42
1.74815	5.41
1.76482	5.40
1.78148	5.39
1.79815	5.38
1.81482	5.37
1.83148	5.36
1.84815	5.35
1.86482	5.34
1.88148	5.33
1.89815	5.32
1.91482	5.31
1.93148	5.30
1.94815	5.29
1.96482	5.28
1.98148	5.27
1.99815	5.26
2.01482	5.25
2.03148	5.24
2.04815	5.23
2.06482	5.23
2.08148	5.22
2.09815	5.21
2.11482	5.20
2.13148	5.19
2.14815	5.18
2.16482	5.17
2.18148	5.16
2.19815	5.15
2.21482	5.14
2.23148	5.13
2.24815	5.12
2.26482	5.11
2.28148	5.10
2.29815	5.09
2.31482	5.08
2.33148	5.08
2.34815	5.07
2.36482	5.06
2.38148	5.06
2.39815	5.05
2.41482	5.06
2.43148	5.06
2.44815	5.06
2.46482	5.06
2.48148	5.05
2.49815	5.05
2.51482	5.05
2.53148	5.05
2.54815	5.05
2.56482	5.05
2.58148	5.05
2.59815	5.05
2.61482	5.05
2.63148	5.05
2.64815	5.05
2.66482	5.05
2.68148	5.05
2.69815	5.05
2.71482	5.05
2.73148	5.05
2.74815	5.05
2.76482	5.05
2.78148	5.05
2.79815	5.05
2.81482	5.05
2.83148	5.05
2.84815	5.05
2.86482	5.05
2.88148	5.05
2.89815	5.05
2.91482	5.05
2.93148	5.05
2.94815	5.05
2.96482	5.05
2.98148	5.05
2.99815	5.05
3.01482	5.05
3.03148	5.05
3.04815	5.05
3.06482	5.05
3.08148	5.05
3.09815	5.05
3.11482	5.05
3.13148	5.05
3.14815	5.05
3.16482	5.05
3.18148	5.04
3.19815	5.04
3.21482	5.04
3.23148	5.04
3.24815	5.04
3.26482	5.04
3.28148	5.04
3.29815	5.04
3.31482	5.04
3.33148	5.04
3.34815	5.04
3.36482	5.04
3.38148	5.04
3.39815	5.05
3.41482	5.05
3.43148	5.05
3.44815	5.05
3.46482	5.05
3.48148	5.05
3.49815	5.05
3.51482	5.05
3.53148	5.05
3.54815	5.05
3.56482	5.05
3.58148	5.05
3.59815	5.05
3.61482	5.05
3.63148	5.05
3.64815	5.05
3.66482	5.05
3.68148	5.05
3.69815	5.05
3.71482	5.05
3.73148	5.05
3.74815	5.05
3.76482	5.05
3.78148	5.05
3.79815	5.05
3.81482	5.05
3.83148	5.05
3.84815	5.05
3.86482	5.05
3.88148	5.05
3.89815	5.05
3.91482	5.05
3.93148	5.05
3.94815	5.05
3.96482	5.05
3.98148	5.05
3.99815	5.05

[Status Trace (Linear Velocity)]
Interval(msec)	1000
# of Points	240
Start Time(min)	0.015
End Time(min)	3.998
Intensity Units	
Intensity Multiplier	1
R.Time (min)	Intensity
0.01482	38.51
0.03148	37.48
0.04815	38.98
0.06482	40.20
0.08148	39.38
0.09815	38.99
0.11482	39.00
0.13148	39.01
0.14815	39.01
0.16482	39.00
0.18148	39.00
0.19815	39.00
0.21482	39.00
0.23148	39.01
0.24815	39.01
0.26482	39.01
0.28148	39.01
0.29815	39.01
0.31482	39.01
0.33148	39.01
0.34815	39.01
0.36482	39.01
0.38148	39.01
0.39815	39.01
0.41482	39.01
0.43148	39.01
0.44815	39.01
0.46482	39.01
0.48148	39.01
0.49815	39.01
0.51482	39.01
0.53148	39.01
0.54815	39.01
0.56482	39.01
0.58148	39.01
0.59815	39.01
0.61482	39.01
0.63148	39.01
0.64815	39.01
0.66482	39.01
0.68148	39.00
0.69815	39.00
0.71482	39.00
0.73148	39.01
0.74815	39.01
0.76482	39.01
0.78148	39.01
0.79815	39.01
0.81482	39.01
0.83148	39.01
0.84815	39.01
0.86482	39.01
0.88148	39.01
0.89815	39.01
0.91482	39.01
0.93148	39.01
0.94815	39.01
0.96482	39.01
0.98148	39.01
0.99815	39.01
1.01482	39.01
1.03148	39.01
1.04815	39.01
1.06482	39.01
1.08148	39.01
1.09815	39.01
1.11482	39.01
1.13148	39.01
1.14815	39.01
1.16482	39.00
1.18148	39.01
1.19815	39.01
1.21482	39.01
1.23148	39.01
1.24815	39.01
1.26482	39.01
1.28148	39.01
1.29815	39.01
1.31482	39.01
1.33148	39.01
1.34815	39.01
1.36482	39.01
1.38148	39.01
1.39815	39.01
1.41482	39.01
1.43148	39.01
1.44815	39.01
1.46482	39.01
1.48148	39.01
1.49815	39.01
1.51482	39.01
1.53148	39.01
1.54815	39.00
1.56482	39.00
1.58148	39.00
1.59815	39.00
1.61482	39.00
1.63148	38.99
1.64815	38.97
1.66482	38.94
1.68148	38.91
1.69815	38.87
1.71482	38.84
1.73148	38.80
1.74815	38.77
1.76482	38.74
1.78148	38.71
1.79815	38.68
1.81482	38.65
1.83148	38.62
1.84815	38.59
1.86482	38.56
1.88148	38.52
1.89815	38.49
1.91482	38.46
1.93148	38.44
1.94815	38.40
1.96482	38.37
1.98148	38.34
1.99815	38.31
2.01482	38.28
2.03148	38.25
2.04815	38.22
2.06482	38.19
2.08148	38.16
2.09815	38.13
2.11482	38.10
2.13148	38.07
2.14815	38.04
2.16482	38.01
2.18148	37.98
2.19815	37.95
2.21482	37.92
2.23148	37.89
2.24815	37.87
2.26482	37.84
2.28148	37.81
2.29815	37.78
2.31482	37.75
2.33148	37.72
2.34815	37.69
2.36482	37.67
2.38148	37.65
2.39815	37.65
2.41482	37.65
2.43148	37.65
2.44815	37.65
2.46482	37.65
2.48148	37.65
2.49815	37.65
2.51482	37.64
2.53148	37.64
2.54815	37.65
2.56482	37.65
2.58148	37.64
2.59815	37.64
2.61482	37.64
2.63148	37.64
2.64815	37.64
2.66482	37.64
2.68148	37.64
2.69815	37.64
2.71482	37.63
2.73148	37.64
2.74815	37.64
2.76482	37.64
2.78148	37.64
2.79815	37.64
2.81482	37.64
2.83148	37.64
2.84815	37.64
2.86482	37.63
2.88148	37.63
2.89815	37.63
2.91482	37.63
2.93148	37.63
2.94815	37.63
2.96482	37.63
2.98148	37.63
2.99815	37.63
3.01482	37.63
3.03148	37.63
3.04815	37.62
3.06482	37.62
3.08148	37.62
3.09815	37.62
3.11482	37.62
3.13148	37.62
3.14815	37.62
3.16482	37.62
3.18148	37.62
3.19815	37.62
3.21482	37.62
3.23148	37.62
3.24815	37.62
3.26482	37.62
3.28148	37.62
3.29815	37.62
3.31482	37.61
3.33148	37.62
3.34815	37.62
3.36482	37.62
3.38148	37.62
3.39815	37.62
3.41482	37.62
3.43148	37.62
3.44815	37.62
3.46482	37.62
3.48148	37.62
3.49815	37.62
3.51482	37.62
3.53148	37.62
3.54815	37.63
3.56482	37.63
3.58148	37.63
3.59815	37.63
3.61482	37.62
3.63148	37.62
3.64815	37.62
3.66482	37.62
3.68148	37.62
3.69815	37.62
3.71482	37.62
3.73148	37.62
3.74815	37.62
3.76482	37.62
3.78148	37.62
3.79815	37.62
3.81482	37.62
3.83148	37.62
3.84815	37.62
3.86482	37.62
3.88148	37.62
3.89815	37.62
3.91482	37.62
3.93148	37.62
3.94815	37.62
3.96482	37.62
3.98148	37.62
3.99815	37.62

