[Header]
Application Name	LabSolutions
Version	5.110
Data File Name	C:\Users\User\Desktop\GC Analyses\Jack\UIC Prairie Sampling\7.22.22\220722_051.gcd
Output Date	10/5/2022
Output Time	2:13:41 PM

[File Information]
Type	Data File
Generated	9/28/2022 1:40:45 PM
Generated by	System Administrator
Modified	9/28/2022 1:45:14 PM
Modified by	System Administrator

[Sample Information]
Operator Name	System Administrator
Acquired	9/28/2022 1:41:13 PM
Sample Type	1:Standard
Level	1
Sample Name	220722_UICPrairie
Sample ID	220722_UICPrairie
ISTD Amount1	1
ISTD Amount2	1
ISTD Amount3	1
ISTD Amount4	1
ISTD Amount5	1
ISTD Amount6	1
ISTD Amount7	1
ISTD Amount8	1
ISTD Amount9	1
ISTD Amount10	1
ISTD Amount11	1
ISTD Amount12	1
ISTD Amount13	1
ISTD Amount14	1
ISTD Amount15	1
ISTD Amount16	1
ISTD Amount17	1
ISTD Amount18	1
ISTD Amount19	1
ISTD Amount20	1
ISTD Amount21	1
ISTD Amount22	1
ISTD Amount23	1
ISTD Amount24	1
ISTD Amount25	1
ISTD Amount26	1
ISTD Amount27	1
ISTD Amount28	1
ISTD Amount29	1
ISTD Amount30	1
ISTD Amount31	1
ISTD Amount32	1
Sample Amount	1
Dilution Factor	1
Vial#	1
Injection Volume	1
Injection Count	1
Bar Code	

[Original Files]
Data File	C:\Users\User\Desktop\GC Analyses\Jack\UIC Prairie Sampling\7.22.22\220722_051.gcd
Method File	C:\LabSolutions\Data\GHG_4min_2022\ghg3_togas_w_acet_4 min_new_int.gcm
Batch File	
Report Format File	c:\LabSolutions\System\DEFAULT.lsr

[File Description]


[Configuration]
Instrument Name	C0B7VH3-Instrument1
Instrument #	1
Line #	1
# of Detectors	3
Detector ID	DET#1	DET#2	DET#3
Detector Name	FID	PTCD	ECD
# of Channels	1	1	1

[Peak Table(Ch1)]
# of Peaks	3
Peak#	R.Time	I.Time	F.Time	Area	Height	A/H	Conc.	Mark	ID#	Name	k'	Plate #	Plate Ht.	Tailing	Resolution	Sep.Factor	Area Ratio	Height Ratio	Conc. %	Norm Conc.
1	1.479	1.443	1.542	13992	6790	2.061	100.000	   	1	CO	0.000	9493	15.801	1.186	0.000	0.000	0	0	16.667	16.667
2	1.571	1.542	1.630	4113	2179	1.888	100.000	 V 	2	CH4	0.062	12247	12.248	1.237	1.560	0.000	0	0	16.667	16.667
3	2.000	1.949	2.293	1336437	686193	1.948	400.000	   	3	CO2	0.352	19425	7.722	1.282	7.514	5.680	0	0	66.667	66.667

[Peak Table(Ch2)]
# of Peaks	0

[Peak Table(Ch3)]
# of Peaks	2
Peak#	R.Time	I.Time	F.Time	Area	Height	A/H	Conc.	Mark	ID#	Name	k'	Plate #	Plate Ht.	Tailing	Resolution	Sep.Factor	Area Ratio	Height Ratio	Conc. %	Norm Conc.
1	2.601	2.473	2.645	1277	222	5.760	0.000	   			0.000	3490	42.980	0.664	0.000	0.000	0	0	0.000	0.000
2	2.884	2.660	3.228	19359	4513	4.289	1.000	   	1	N2O	0.109	13217	11.349	1.578	2.042	0.000	0	0	100.000	100.000

[Compound Results(Ch1)]
# of IDs	6
ID#	Name	R.Time	Area	Height	Conc.	Curve	3rd	2nd	1st	Constant	Area Ratio	Height Ratio	Conc. %	Norm Conc.
1	CO	1.479	13992	6790	100.000	Linear	0.000000e+00	0.000000e+00	1.399198e+002	0.000000e+00	0	0	16.667	16.667
2	CH4	1.571	4113	2179	100.000	Linear	0.000000e+00	0.000000e+00	4.113120e+001	0.000000e+00	0	0	16.667	16.667
3	CO2	2.000	1336437	686193	400.000	Linear	0.000000e+00	0.000000e+00	3.341092e+003	0.000000e+00	0	0	66.667	66.667
4	Ethylene	0.000	0	0	0.000	Linear	0.000000e+00	0.000000e+00	0.000000e+00	0.000000e+00	0	0	0.000	0.000
5	Acetylene	0.000	0	0	0.000	Linear	0.000000e+00	0.000000e+00	0.000000e+00	0.000000e+00	0	0	0.000	0.000
6	Ethane	0.000	0	0	0.000	Linear	0.000000e+00	0.000000e+00	0.000000e+00	0.000000e+00	0	0	0.000	0.000

[Compound Results(Ch2)]
# of IDs	5
ID#	Name	R.Time	Area	Height	Conc.	Curve	3rd	2nd	1st	Constant	Area Ratio	Height Ratio	Conc. %	Norm Conc.
1	Hydrogen	0.000	0	0	0.000	Linear	0.000000e+00	0.000000e+00	0.000000e+00	0.000000e+00	0	0	0.000	0.000
2	Oxygen	0.000	0	0	0.000	Linear	0.000000e+00	0.000000e+00	0.000000e+00	0.000000e+00	0	0	0.000	0.000
3	Nitrogen	0.000	0	0	0.000	Linear	0.000000e+00	0.000000e+00	0.000000e+00	0.000000e+00	0	0	0.000	0.000
4	Methane	0.000	0	0	0.000	Linear	0.000000e+00	0.000000e+00	0.000000e+00	0.000000e+00	0	0	0.000	0.000
5	Carbon Monoxide	0.000	0	0	0.000	Linear	0.000000e+00	0.000000e+00	0.000000e+00	0.000000e+00	0	0	0.000	0.000

[Compound Results(Ch3)]
# of IDs	2
ID#	Name	R.Time	Area	Height	Conc.	Curve	3rd	2nd	1st	Constant	Area Ratio	Height Ratio	Conc. %	Norm Conc.
1	N2O	2.884	19359	4513	1.000	Linear	0.000000e+00	0.000000e+00	1.935852e+004	0.000000e+00	0	0	100.000	100.000
2	SF6	0.000	0	0	0.000	Linear	0.000000e+00	0.000000e+00	0.000000e+00	0.000000e+00	0	0	0.000	0.000

[Group Results(Ch1)]
# of Groups	0

[Group Results(Ch2)]
# of Groups	0

[Group Results(Ch3)]
# of Groups	0

[Chromatogram (Ch1)]
Interval(msec)	220
# of Points	1091
Start Time(min)	0.002
End Time(min)	3.998
R.Time (min)	Intensity
0.00167	7
0.00533	4
0.00900	2
0.01267	3
0.01633	6
0.02000	10
0.02367	13
0.02733	15
0.03100	16
0.03467	13
0.03833	1
0.04200	-10
0.04567	-16
0.04933	-18
0.05300	-15
0.05667	-10
0.06033	-5
0.06400	-1
0.06767	3
0.07133	8
0.07500	12
0.07867	12
0.08233	8
0.08600	3
0.08967	-1
0.09333	-0
0.09700	1
0.10067	-1
0.10433	-4
0.10800	-8
0.11167	-12
0.11533	-16
0.11900	-15
0.12267	-16
0.12633	-20
0.13000	-23
0.13367	-26
0.13733	-29
0.14100	-30
0.14467	-30
0.14833	-30
0.15200	-31
0.15567	-35
0.15933	-37
0.16300	-36
0.16667	-32
0.17033	-29
0.17400	-28
0.17767	-28
0.18133	-28
0.18500	-26
0.18867	-24
0.19233	-18
0.19600	-14
0.19967	-13
0.20333	-15
0.20700	-17
0.21067	-18
0.21433	-19
0.21800	-17
0.22167	-15
0.22533	-14
0.22900	-14
0.23267	-11
0.23633	-12
0.24000	-15
0.24367	-17
0.24733	-17
0.25100	-17
0.25467	-18
0.25833	-15
0.26200	-7
0.26567	2
0.26933	7
0.27300	6
0.27667	1
0.28033	-5
0.28400	-13
0.28767	-21
0.29133	-22
0.29500	-18
0.29867	-15
0.30233	-16
0.30600	-20
0.30967	-29
0.31333	-39
0.31700	-46
0.32067	-49
0.32433	-46
0.32800	-38
0.33167	-26
0.33533	-15
0.33900	-10
0.34267	-10
0.34633	-14
0.35000	-20
0.35367	-26
0.35733	-29
0.36100	-29
0.36467	-28
0.36833	-28
0.37200	-30
0.37567	-33
0.37933	-34
0.38300	-34
0.38667	-35
0.39033	-35
0.39400	-37
0.39767	-36
0.40133	-36
0.40500	-35
0.40867	-34
0.41233	-33
0.41600	-32
0.41967	-31
0.42333	-33
0.42700	-39
0.43067	-47
0.43433	-50
0.43800	-49
0.44167	-44
0.44533	-39
0.44900	-34
0.45267	-29
0.45633	-23
0.46000	-16
0.46367	-9
0.46733	-7
0.47100	-10
0.47467	-14
0.47833	-20
0.48200	-26
0.48567	-32
0.48933	-33
0.49300	-28
0.49667	-25
0.50033	-26
0.50400	-30
0.50767	-30
0.51133	-27
0.51500	-22
0.51867	-19
0.52233	-21
0.52600	-24
0.52967	-26
0.53333	-27
0.53700	-26
0.54067	-24
0.54433	-21
0.54800	-24
0.55167	-28
0.55533	-32
0.55900	-31
0.56267	-26
0.56633	-20
0.57000	-13
0.57367	-13
0.57733	-16
0.58100	-20
0.58467	-21
0.58833	-24
0.59200	-27
0.59567	-28
0.59933	-28
0.60300	-27
0.60667	-24
0.61033	-26
0.61400	-32
0.61767	-40
0.62133	-49
0.62500	-55
0.62867	-58
0.63233	-61
0.63600	-63
0.63967	-62
0.64333	-61
0.64700	-59
0.65067	-54
0.65433	-51
0.65800	-49
0.66167	-47
0.66533	-44
0.66900	-40
0.67267	-34
0.67633	-26
0.68000	-20
0.68367	-20
0.68733	-23
0.69100	-26
0.69467	-30
0.69833	-32
0.70200	-35
0.70567	-37
0.70933	-41
0.71300	-45
0.71667	-48
0.72033	-46
0.72400	-41
0.72767	-39
0.73133	-36
0.73500	-33
0.73867	-28
0.74233	-22
0.74600	-18
0.74967	-15
0.75333	-13
0.75700	-16
0.76067	-22
0.76433	-34
0.76800	-45
0.77167	-51
0.77533	-51
0.77900	-48
0.78267	-45
0.78633	-40
0.79000	-35
0.79367	-31
0.79733	-30
0.80100	-28
0.80467	-25
0.80833	-24
0.81200	-22
0.81567	-21
0.81933	-20
0.82300	-17
0.82667	-13
0.83033	-16
0.83400	-20
0.83767	-22
0.84133	-22
0.84500	-23
0.84867	-19
0.85233	-20
0.85600	-23
0.85967	-28
0.86333	-32
0.86700	-36
0.87067	-38
0.87433	-43
0.87800	-47
0.88167	-49
0.88533	-45
0.88900	-42
0.89267	-41
0.89633	-39
0.90000	-38
0.90367	-37
0.90733	-37
0.91100	-37
0.91467	-39
0.91833	-42
0.92200	-44
0.92567	-45
0.92933	-45
0.93300	-47
0.93667	-49
0.94033	-46
0.94400	-41
0.94767	-37
0.95133	-36
0.95500	-39
0.95867	-41
0.96233	-40
0.96600	-39
0.96967	-39
0.97333	-38
0.97700	-37
0.98067	-33
0.98433	-30
0.98800	-28
0.99167	-30
0.99533	-33
0.99900	-34
1.00267	-38
1.00633	-44
1.01000	-48
1.01367	-49
1.01733	-48
1.02100	-43
1.02467	-36
1.02833	-29
1.03200	-26
1.03567	-24
1.03933	-24
1.04300	-25
1.04667	-29
1.05033	-34
1.05400	-36
1.05767	-39
1.06133	-41
1.06500	-41
1.06867	-41
1.07233	-42
1.07600	-41
1.07967	-39
1.08333	-36
1.08700	-31
1.09067	-25
1.09433	-26
1.09800	-34
1.10167	-43
1.10533	-49
1.10900	-53
1.11267	-54
1.11633	-56
1.12000	-59
1.12367	-58
1.12733	-56
1.13100	-54
1.13467	-49
1.13833	-42
1.14200	-35
1.14567	-33
1.14933	-33
1.15300	-37
1.15667	-45
1.16033	-54
1.16400	-60
1.16767	-61
1.17133	-59
1.17500	-56
1.17867	-54
1.18233	-52
1.18600	-52
1.18967	-51
1.19333	-47
1.19700	-45
1.20067	-46
1.20433	-48
1.20800	-46
1.21167	-44
1.21533	-41
1.21900	-40
1.22267	-38
1.22633	-35
1.23000	-34
1.23367	-37
1.23733	-43
1.24100	-46
1.24467	-49
1.24833	-51
1.25200	-54
1.25567	-60
1.25933	-62
1.26300	-61
1.26667	-58
1.27033	-55
1.27400	-53
1.27767	-52
1.28133	-51
1.28500	-53
1.28867	-55
1.29233	-54
1.29600	-47
1.29967	-40
1.30333	-35
1.30700	-37
1.31067	-43
1.31433	-50
1.31800	-54
1.32167	-55
1.32533	-51
1.32900	-46
1.33267	-45
1.33633	-47
1.34000	-48
1.34367	-49
1.34733	-52
1.35100	-54
1.35467	-52
1.35833	-48
1.36200	-45
1.36567	-43
1.36933	-40
1.37300	-39
1.37667	-41
1.38033	-48
1.38400	-58
1.38767	-61
1.39133	-61
1.39500	-59
1.39867	-55
1.40233	-49
1.40600	-44
1.40967	-42
1.41333	-39
1.41700	-34
1.42067	-32
1.42433	-32
1.42800	-32
1.43167	-33
1.43533	-35
1.43900	-39
1.44267	-22
1.44633	88
1.45000	383
1.45367	844
1.45733	1429
1.46100	2186
1.46467	3164
1.46833	4300
1.47200	5421
1.47567	6305
1.47933	6759
1.48300	6670
1.48667	6068
1.49033	5117
1.49400	4045
1.49767	3043
1.50133	2203
1.50500	1555
1.50867	1079
1.51233	737
1.51600	497
1.51967	331
1.52333	215
1.52700	134
1.53067	76
1.53433	31
1.53800	-1
1.54167	-11
1.54533	32
1.54900	181
1.55267	476
1.55633	886
1.56000	1326
1.56367	1712
1.56733	1991
1.57100	2124
1.57467	2080
1.57833	1865
1.58200	1537
1.58567	1173
1.58933	838
1.59300	567
1.59667	363
1.60033	216
1.60400	115
1.60767	47
1.61133	4
1.61500	-26
1.61867	-47
1.62233	-57
1.62600	-65
1.62967	-69
1.63333	-73
1.63700	-77
1.64067	-79
1.64433	-77
1.64800	-76
1.65167	-77
1.65533	-75
1.65900	-70
1.66267	-66
1.66633	-62
1.67000	-60
1.67367	-62
1.67733	-65
1.68100	-67
1.68467	-67
1.68833	-65
1.69200	-65
1.69567	-68
1.69933	-70
1.70300	-71
1.70667	-69
1.71033	-67
1.71400	-71
1.71767	-77
1.72133	-81
1.72500	-83
1.72867	-85
1.73233	-86
1.73600	-85
1.73967	-81
1.74333	-74
1.74700	-68
1.75067	-67
1.75433	-69
1.75800	-72
1.76167	-72
1.76533	-71
1.76900	-69
1.77267	-67
1.77633	-67
1.78000	-67
1.78367	-64
1.78733	-58
1.79100	-53
1.79467	-47
1.79833	-42
1.80200	-39
1.80567	-38
1.80933	-39
1.81300	-39
1.81667	-40
1.82033	-45
1.82400	-52
1.82767	-59
1.83133	-67
1.83500	-74
1.83867	-78
1.84233	-80
1.84600	-80
1.84967	-76
1.85333	-70
1.85700	-65
1.86067	-61
1.86433	-56
1.86800	-51
1.87167	-48
1.87533	-47
1.87900	-49
1.88267	-53
1.88633	-56
1.89000	-58
1.89367	-62
1.89733	-62
1.90100	-59
1.90467	-58
1.90833	-60
1.91200	-61
1.91567	-62
1.91933	-61
1.92300	-59
1.92667	-58
1.93033	-57
1.93400	-54
1.93767	-50
1.94133	-44
1.94500	-37
1.94867	-33
1.95233	-28
1.95600	-15
1.95967	62
1.96333	515
1.96700	2639
1.97067	10279
1.97433	31484
1.97800	77830
1.98167	158835
1.98533	273979
1.98900	408673
1.99267	538593
1.99633	637783
2.00000	686186
2.00367	676106
2.00733	613948
2.01100	517507
2.01467	408712
2.01833	305837
2.02200	219451
2.02567	152757
2.02933	104246
2.03300	70401
2.03667	47440
2.04033	32133
2.04400	22027
2.04767	15370
2.05133	10969
2.05500	8030
2.05867	6042
2.06233	4672
2.06600	3713
2.06967	3022
2.07333	2511
2.07700	2124
2.08067	1827
2.08433	1597
2.08800	1416
2.09167	1272
2.09533	1153
2.09900	1052
2.10267	963
2.10633	888
2.11000	820
2.11367	754
2.11733	698
2.12100	653
2.12467	615
2.12833	581
2.13200	549
2.13567	520
2.13933	490
2.14300	462
2.14667	436
2.15033	413
2.15400	392
2.15767	373
2.16133	357
2.16500	344
2.16867	336
2.17233	329
2.17600	322
2.17967	314
2.18333	302
2.18700	287
2.19067	270
2.19433	252
2.19800	240
2.20167	232
2.20533	225
2.20900	221
2.21267	218
2.21633	215
2.22000	212
2.22367	210
2.22733	210
2.23100	209
2.23467	206
2.23833	206
2.24200	208
2.24567	207
2.24933	198
2.25300	185
2.25667	175
2.26033	167
2.26400	164
2.26767	164
2.27133	168
2.27500	168
2.27867	162
2.28233	154
2.28600	150
2.28967	147
2.29333	144
2.29700	142
2.30067	139
2.30433	138
2.30800	135
2.31167	131
2.31533	131
2.31900	132
2.32267	135
2.32633	138
2.33000	139
2.33367	139
2.33733	141
2.34100	142
2.34467	140
2.34833	137
2.35200	135
2.35567	136
2.35933	140
2.36300	141
2.36667	140
2.37033	136
2.37400	131
2.37767	124
2.38133	118
2.38500	110
2.38867	101
2.39233	92
2.39600	88
2.39967	89
2.40333	93
2.40700	97
2.41067	101
2.41433	103
2.41800	106
2.42167	112
2.42533	117
2.42900	119
2.43267	120
2.43633	121
2.44000	120
2.44367	114
2.44733	113
2.45100	113
2.45467	111
2.45833	110
2.46200	109
2.46567	111
2.46933	116
2.47300	115
2.47667	112
2.48033	109
2.48400	109
2.48767	111
2.49133	113
2.49500	115
2.49867	116
2.50233	114
2.50600	109
2.50967	102
2.51333	97
2.51700	91
2.52067	88
2.52433	91
2.52800	95
2.53167	100
2.53533	104
2.53900	106
2.54267	107
2.54633	112
2.55000	116
2.55367	116
2.55733	109
2.56100	100
2.56467	91
2.56833	83
2.57200	80
2.57567	80
2.57933	84
2.58300	89
2.58667	93
2.59033	97
2.59400	100
2.59767	100
2.60133	99
2.60500	98
2.60867	98
2.61233	97
2.61600	97
2.61967	96
2.62333	93
2.62700	90
2.63067	90
2.63433	94
2.63800	98
2.64167	99
2.64533	97
2.64900	92
2.65267	88
2.65633	84
2.66000	82
2.66367	79
2.66733	78
2.67100	78
2.67467	82
2.67833	85
2.68200	84
2.68567	82
2.68933	80
2.69300	77
2.69667	76
2.70033	76
2.70400	78
2.70767	81
2.71133	85
2.71500	83
2.71867	77
2.72233	72
2.72600	69
2.72967	69
2.73333	71
2.73700	73
2.74067	75
2.74433	75
2.74800	76
2.75167	78
2.75533	81
2.75900	84
2.76267	85
2.76633	80
2.77000	76
2.77367	77
2.77733	81
2.78100	85
2.78467	88
2.78833	89
2.79200	94
2.79567	93
2.79933	87
2.80300	79
2.80667	68
2.81033	58
2.81400	53
2.81767	54
2.82133	58
2.82500	64
2.82867	73
2.83233	82
2.83600	84
2.83967	82
2.84333	77
2.84700	72
2.85067	69
2.85433	67
2.85800	69
2.86167	69
2.86533	71
2.86900	76
2.87267	79
2.87633	81
2.88000	81
2.88367	78
2.88733	71
2.89100	68
2.89467	65
2.89833	61
2.90200	54
2.90567	46
2.90933	43
2.91300	48
2.91667	55
2.92033	63
2.92400	70
2.92767	73
2.93133	73
2.93500	71
2.93867	65
2.94233	61
2.94600	59
2.94967	62
2.95333	69
2.95700	76
2.96067	78
2.96433	77
2.96800	72
2.97167	64
2.97533	60
2.97900	59
2.98267	60
2.98633	59
2.99000	64
2.99367	70
2.99733	75
3.00100	79
3.00467	87
3.00833	94
3.01200	99
3.01567	100
3.01933	97
3.02300	90
3.02667	80
3.03033	71
3.03400	66
3.03767	65
3.04133	70
3.04500	74
3.04867	75
3.05233	74
3.05600	74
3.05967	74
3.06333	76
3.06700	76
3.07067	77
3.07433	77
3.07800	77
3.08167	77
3.08533	76
3.08900	75
3.09267	76
3.09633	78
3.10000	78
3.10367	77
3.10733	77
3.11100	76
3.11467	76
3.11833	74
3.12200	71
3.12567	71
3.12933	73
3.13300	78
3.13667	79
3.14033	76
3.14400	69
3.14767	63
3.15133	61
3.15500	58
3.15867	57
3.16233	57
3.16600	59
3.16967	62
3.17333	63
3.17700	65
3.18067	67
3.18433	69
3.18800	70
3.19167	71
3.19533	74
3.19900	78
3.20267	81
3.20633	81
3.21000	80
3.21367	80
3.21733	82
3.22100	84
3.22467	85
3.22833	86
3.23200	87
3.23567	86
3.23933	81
3.24300	75
3.24667	70
3.25033	68
3.25400	68
3.25767	63
3.26133	54
3.26500	50
3.26867	49
3.27233	49
3.27600	52
3.27967	56
3.28333	60
3.28700	65
3.29067	70
3.29433	73
3.29800	73
3.30167	72
3.30533	72
3.30900	74
3.31267	75
3.31633	76
3.32000	74
3.32367	73
3.32733	73
3.33100	74
3.33467	76
3.33833	81
3.34200	88
3.34567	89
3.34933	87
3.35300	81
3.35667	73
3.36033	64
3.36400	58
3.36767	58
3.37133	61
3.37500	62
3.37867	66
3.38233	72
3.38600	78
3.38967	84
3.39333	87
3.39700	86
3.40067	81
3.40433	72
3.40800	66
3.41167	60
3.41533	56
3.41900	52
3.42267	49
3.42633	47
3.43000	45
3.43367	40
3.43733	43
3.44100	45
3.44467	48
3.44833	50
3.45200	49
3.45567	46
3.45933	42
3.46300	42
3.46667	45
3.47033	55
3.47400	61
3.47767	62
3.48133	63
3.48500	62
3.48867	56
3.49233	50
3.49600	46
3.49967	47
3.50333	53
3.50700	62
3.51067	71
3.51433	77
3.51800	76
3.52167	71
3.52533	64
3.52900	58
3.53267	52
3.53633	43
3.54000	35
3.54367	28
3.54733	28
3.55100	35
3.55467	45
3.55833	50
3.56200	53
3.56567	58
3.56933	58
3.57300	53
3.57667	51
3.58033	53
3.58400	57
3.58767	61
3.59133	61
3.59500	57
3.59867	51
3.60233	42
3.60600	34
3.60967	28
3.61333	25
3.61700	26
3.62067	29
3.62433	36
3.62800	46
3.63167	57
3.63533	68
3.63900	77
3.64267	82
3.64633	83
3.65000	81
3.65367	75
3.65733	67
3.66100	58
3.66467	53
3.66833	48
3.67200	44
3.67567	43
3.67933	46
3.68300	50
3.68667	56
3.69033	60
3.69400	62
3.69767	65
3.70133	65
3.70500	60
3.70867	56
3.71233	57
3.71600	63
3.71967	71
3.72333	75
3.72700	74
3.73067	69
3.73433	65
3.73800	57
3.74167	47
3.74533	44
3.74900	47
3.75267	52
3.75633	53
3.76000	51
3.76367	49
3.76733	49
3.77100	51
3.77467	54
3.77833	59
3.78200	65
3.78567	66
3.78933	64
3.79300	66
3.79667	65
3.80033	61
3.80400	56
3.80767	54
3.81133	56
3.81500	60
3.81867	67
3.82233	70
3.82600	70
3.82967	68
3.83333	66
3.83700	65
3.84067	63
3.84433	58
3.84800	52
3.85167	48
3.85533	47
3.85900	45
3.86267	43
3.86633	44
3.87000	45
3.87367	45
3.87733	45
3.88100	49
3.88467	55
3.88833	60
3.89200	59
3.89567	55
3.89933	51
3.90300	48
3.90667	43
3.91033	41
3.91400	43
3.91767	47
3.92133	47
3.92500	45
3.92867	42
3.93233	43
3.93600	48
3.93967	56
3.94333	63
3.94700	70
3.95067	75
3.95433	77
3.95800	75
3.96167	73
3.96533	70
3.96900	67
3.97267	66
3.97633	67
3.98000	71
3.98367	71
3.98733	68
3.99100	66
3.99467	67
3.99833	69

[Chromatogram (Ch2)]
Interval(msec)	220
# of Points	1091
Start Time(min)	0.002
End Time(min)	3.998
R.Time (min)	Intensity
0.00167	-1
0.00533	-1
0.00900	-1
0.01267	-1
0.01633	-1
0.02000	-2
0.02367	-2
0.02733	-2
0.03100	-2
0.03467	-2
0.03833	-2
0.04200	-2
0.04567	-2
0.04933	-1
0.05300	-1
0.05667	-1
0.06033	-1
0.06400	-0
0.06767	0
0.07133	0
0.07500	0
0.07867	1
0.08233	1
0.08600	1
0.08967	1
0.09333	2
0.09700	2
0.10067	2
0.10433	2
0.10800	2
0.11167	2
0.11533	1
0.11900	1
0.12267	1
0.12633	0
0.13000	0
0.13367	-0
0.13733	-0
0.14100	-0
0.14467	-0
0.14833	-0
0.15200	0
0.15567	0
0.15933	0
0.16300	0
0.16667	0
0.17033	0
0.17400	0
0.17767	-0
0.18133	-0
0.18500	-0
0.18867	-0
0.19233	-0
0.19600	-0
0.19967	-0
0.20333	-1
0.20700	-1
0.21067	-1
0.21433	-2
0.21800	-2
0.22167	-2
0.22533	-2
0.22900	-2
0.23267	-2
0.23633	-1
0.24000	-1
0.24367	-1
0.24733	-1
0.25100	-0
0.25467	-0
0.25833	-0
0.26200	0
0.26567	0
0.26933	0
0.27300	0
0.27667	0
0.28033	0
0.28400	0
0.28767	-0
0.29133	-0
0.29500	-1
0.29867	-1
0.30233	-1
0.30600	-1
0.30967	-1
0.31333	-1
0.31700	-0
0.32067	-0
0.32433	-0
0.32800	-0
0.33167	-0
0.33533	-1
0.33900	-1
0.34267	-1
0.34633	-0
0.35000	-0
0.35367	-0
0.35733	-0
0.36100	-0
0.36467	-0
0.36833	-0
0.37200	-1
0.37567	-1
0.37933	-1
0.38300	-1
0.38667	-1
0.39033	-1
0.39400	-1
0.39767	-1
0.40133	-1
0.40500	-1
0.40867	-1
0.41233	-1
0.41600	-1
0.41967	-1
0.42333	-1
0.42700	-1
0.43067	-1
0.43433	-1
0.43800	-1
0.44167	-1
0.44533	-1
0.44900	-1
0.45267	-1
0.45633	-1
0.46000	-1
0.46367	-1
0.46733	-2
0.47100	-2
0.47467	-2
0.47833	-2
0.48200	-2
0.48567	-2
0.48933	-3
0.49300	-3
0.49667	-3
0.50033	-3
0.50400	-3
0.50767	-3
0.51133	-3
0.51500	-3
0.51867	-4
0.52233	-4
0.52600	-4
0.52967	-4
0.53333	-4
0.53700	-4
0.54067	-4
0.54433	-4
0.54800	-3
0.55167	-3
0.55533	-3
0.55900	-3
0.56267	-2
0.56633	-2
0.57000	-2
0.57367	-2
0.57733	-2
0.58100	-2
0.58467	-2
0.58833	-2
0.59200	-2
0.59567	-1
0.59933	-1
0.60300	-1
0.60667	-1
0.61033	-0
0.61400	-0
0.61767	-0
0.62133	-0
0.62500	-0
0.62867	-0
0.63233	-0
0.63600	-0
0.63967	-1
0.64333	-1
0.64700	-1
0.65067	-1
0.65433	-2
0.65800	-2
0.66167	-2
0.66533	-2
0.66900	-3
0.67267	-3
0.67633	-3
0.68000	-3
0.68367	-3
0.68733	-3
0.69100	-3
0.69467	-3
0.69833	-3
0.70200	-3
0.70567	-3
0.70933	-2
0.71300	-2
0.71667	-2
0.72033	-2
0.72400	-2
0.72767	-2
0.73133	-2
0.73500	-3
0.73867	-3
0.74233	-3
0.74600	-3
0.74967	-3
0.75333	-3
0.75700	-3
0.76067	-3
0.76433	-4
0.76800	-4
0.77167	-4
0.77533	-4
0.77900	-5
0.78267	-5
0.78633	-5
0.79000	-5
0.79367	-5
0.79733	-4
0.80100	-4
0.80467	-4
0.80833	-4
0.81200	-3
0.81567	-3
0.81933	-3
0.82300	-3
0.82667	-3
0.83033	-3
0.83400	-3
0.83767	-3
0.84133	-3
0.84500	-3
0.84867	-3
0.85233	-4
0.85600	-4
0.85967	-4
0.86333	-4
0.86700	-4
0.87067	-4
0.87433	-5
0.87800	-4
0.88167	-4
0.88533	-4
0.88900	-4
0.89267	-4
0.89633	-3
0.90000	-3
0.90367	-3
0.90733	-3
0.91100	-3
0.91467	-3
0.91833	-3
0.92200	-3
0.92567	-3
0.92933	-3
0.93300	-3
0.93667	-3
0.94033	-3
0.94400	-4
0.94767	-4
0.95133	-4
0.95500	-5
0.95867	-5
0.96233	-5
0.96600	-5
0.96967	-5
0.97333	-5
0.97700	-5
0.98067	-4
0.98433	-4
0.98800	-4
0.99167	-3
0.99533	-3
0.99900	-3
1.00267	-3
1.00633	-3
1.01000	-2
1.01367	-2
1.01733	-2
1.02100	-2
1.02467	-2
1.02833	-2
1.03200	-1
1.03567	-1
1.03933	-1
1.04300	-1
1.04667	-0
1.05033	0
1.05400	1
1.05767	1
1.06133	1
1.06500	2
1.06867	2
1.07233	2
1.07600	3
1.07967	3
1.08333	3
1.08700	3
1.09067	3
1.09433	3
1.09800	3
1.10167	3
1.10533	3
1.10900	2
1.11267	2
1.11633	2
1.12000	2
1.12367	2
1.12733	1
1.13100	1
1.13467	1
1.13833	1
1.14200	2
1.14567	1
1.14933	1
1.15300	1
1.15667	1
1.16033	1
1.16400	1
1.16767	1
1.17133	1
1.17500	1
1.17867	1
1.18233	1
1.18600	1
1.18967	1
1.19333	1
1.19700	1
1.20067	1
1.20433	0
1.20800	0
1.21167	0
1.21533	-0
1.21900	-0
1.22267	-0
1.22633	-0
1.23000	-0
1.23367	-0
1.23733	-0
1.24100	-0
1.24467	-0
1.24833	-1
1.25200	-1
1.25567	-1
1.25933	-1
1.26300	-1
1.26667	-1
1.27033	-1
1.27400	-1
1.27767	-1
1.28133	-1
1.28500	-1
1.28867	-1
1.29233	-1
1.29600	-1
1.29967	-1
1.30333	-1
1.30700	-2
1.31067	-2
1.31433	-2
1.31800	-2
1.32167	-3
1.32533	-3
1.32900	-3
1.33267	-4
1.33633	-4
1.34000	-4
1.34367	-4
1.34733	-5
1.35100	-5
1.35467	-5
1.35833	-6
1.36200	-6
1.36567	-6
1.36933	-6
1.37300	-6
1.37667	-6
1.38033	-6
1.38400	-5
1.38767	-5
1.39133	-4
1.39500	-4
1.39867	-3
1.40233	-3
1.40600	-3
1.40967	-3
1.41333	-3
1.41700	-2
1.42067	-2
1.42433	-2
1.42800	-1
1.43167	-1
1.43533	-1
1.43900	-1
1.44267	-1
1.44633	-1
1.45000	-1
1.45367	-1
1.45733	-1
1.46100	-2
1.46467	-2
1.46833	-2
1.47200	-2
1.47567	-3
1.47933	-3
1.48300	-3
1.48667	-4
1.49033	-4
1.49400	-4
1.49767	-5
1.50133	-5
1.50500	-5
1.50867	-5
1.51233	-5
1.51600	-5
1.51967	-5
1.52333	-5
1.52700	-5
1.53067	-5
1.53433	-6
1.53800	-6
1.54167	-6
1.54533	-6
1.54900	-6
1.55267	-6
1.55633	-6
1.56000	-6
1.56367	-5
1.56733	-5
1.57100	-4
1.57467	-3
1.57833	-3
1.58200	-2
1.58567	-2
1.58933	-2
1.59300	-2
1.59667	-3
1.60033	-4
1.60400	-5
1.60767	-7
1.61133	-9
1.61500	-10
1.61867	-13
1.62233	-15
1.62600	-18
1.62967	-20
1.63333	-23
1.63700	-27
1.64067	-30
1.64433	-33
1.64800	-37
1.65167	-40
1.65533	-44
1.65900	-47
1.66267	-51
1.66633	-55
1.67000	-60
1.67367	-64
1.67733	-69
1.68100	-75
1.68467	-80
1.68833	-85
1.69200	-89
1.69567	-93
1.69933	-97
1.70300	-100
1.70667	-103
1.71033	-105
1.71400	-108
1.71767	-109
1.72133	-110
1.72500	-111
1.72867	-112
1.73233	-113
1.73600	-114
1.73967	-115
1.74333	-116
1.74700	-117
1.75067	-117
1.75433	-118
1.75800	-119
1.76167	-120
1.76533	-120
1.76900	-121
1.77267	-121
1.77633	-122
1.78000	-122
1.78367	-122
1.78733	-123
1.79100	-123
1.79467	-124
1.79833	-125
1.80200	-125
1.80567	-125
1.80933	-126
1.81300	-126
1.81667	-126
1.82033	-126
1.82400	-127
1.82767	-127
1.83133	-127
1.83500	-127
1.83867	-126
1.84233	-126
1.84600	-125
1.84967	-125
1.85333	-125
1.85700	-125
1.86067	-125
1.86433	-125
1.86800	-125
1.87167	-125
1.87533	-125
1.87900	-125
1.88267	-124
1.88633	-124
1.89000	-124
1.89367	-124
1.89733	-124
1.90100	-124
1.90467	-124
1.90833	-124
1.91200	-123
1.91567	-123
1.91933	-122
1.92300	-121
1.92667	-121
1.93033	-121
1.93400	-121
1.93767	-120
1.94133	-120
1.94500	-120
1.94867	-120
1.95233	-119
1.95600	-119
1.95967	-119
1.96333	-119
1.96700	-119
1.97067	-118
1.97433	-118
1.97800	-118
1.98167	-118
1.98533	-118
1.98900	-118
1.99267	-118
1.99633	-119
2.00000	-119
2.00367	-119
2.00733	-120
2.01100	-120
2.01467	-119
2.01833	-118
2.02200	-117
2.02567	-116
2.02933	-116
2.03300	-116
2.03667	-116
2.04033	-116
2.04400	-116
2.04767	-116
2.05133	-116
2.05500	-116
2.05867	-116
2.06233	-115
2.06600	-114
2.06967	-114
2.07333	-113
2.07700	-112
2.08067	-112
2.08433	-111
2.08800	-110
2.09167	-109
2.09533	-109
2.09900	-108
2.10267	-108
2.10633	-108
2.11000	-108
2.11367	-108
2.11733	-109
2.12100	-109
2.12467	-109
2.12833	-108
2.13200	-108
2.13567	-108
2.13933	-108
2.14300	-107
2.14667	-107
2.15033	-107
2.15400	-106
2.15767	-106
2.16133	-105
2.16500	-104
2.16867	-103
2.17233	-103
2.17600	-102
2.17967	-102
2.18333	-102
2.18700	-102
2.19067	-101
2.19433	-100
2.19800	-100
2.20167	-99
2.20533	-99
2.20900	-98
2.21267	-98
2.21633	-98
2.22000	-98
2.22367	-98
2.22733	-98
2.23100	-97
2.23467	-97
2.23833	-97
2.24200	-96
2.24567	-96
2.24933	-95
2.25300	-95
2.25667	-95
2.26033	-94
2.26400	-94
2.26767	-94
2.27133	-94
2.27500	-94
2.27867	-93
2.28233	-93
2.28600	-93
2.28967	-93
2.29333	-93
2.29700	-93
2.30067	-93
2.30433	-93
2.30800	-93
2.31167	-92
2.31533	-91
2.31900	-91
2.32267	-90
2.32633	-90
2.33000	-90
2.33367	-90
2.33733	-90
2.34100	-90
2.34467	-91
2.34833	-91
2.35200	-91
2.35567	-90
2.35933	-89
2.36300	-88
2.36667	-86
2.37033	-84
2.37400	-81
2.37767	-77
2.38133	-74
2.38500	-70
2.38867	-65
2.39233	-60
2.39600	-55
2.39967	-51
2.40333	-46
2.40700	-41
2.41067	-36
2.41433	-32
2.41800	-28
2.42167	-25
2.42533	-22
2.42900	-19
2.43267	-17
2.43633	-15
2.44000	-13
2.44367	-12
2.44733	-10
2.45100	-8
2.45467	-6
2.45833	-4
2.46200	-3
2.46567	-2
2.46933	-1
2.47300	1
2.47667	2
2.48033	3
2.48400	4
2.48767	4
2.49133	5
2.49500	5
2.49867	6
2.50233	6
2.50600	7
2.50967	8
2.51333	8
2.51700	9
2.52067	10
2.52433	10
2.52800	11
2.53167	12
2.53533	12
2.53900	13
2.54267	13
2.54633	14
2.55000	14
2.55367	14
2.55733	14
2.56100	14
2.56467	14
2.56833	15
2.57200	15
2.57567	14
2.57933	14
2.58300	14
2.58667	14
2.59033	14
2.59400	14
2.59767	14
2.60133	14
2.60500	14
2.60867	14
2.61233	14
2.61600	15
2.61967	15
2.62333	15
2.62700	16
2.63067	16
2.63433	16
2.63800	16
2.64167	17
2.64533	17
2.64900	18
2.65267	18
2.65633	18
2.66000	19
2.66367	19
2.66733	19
2.67100	20
2.67467	20
2.67833	20
2.68200	21
2.68567	21
2.68933	20
2.69300	20
2.69667	20
2.70033	20
2.70400	20
2.70767	20
2.71133	20
2.71500	20
2.71867	20
2.72233	21
2.72600	21
2.72967	22
2.73333	22
2.73700	22
2.74067	23
2.74433	23
2.74800	24
2.75167	24
2.75533	24
2.75900	25
2.76267	25
2.76633	26
2.77000	26
2.77367	26
2.77733	26
2.78100	26
2.78467	26
2.78833	26
2.79200	25
2.79567	25
2.79933	25
2.80300	24
2.80667	24
2.81033	24
2.81400	24
2.81767	24
2.82133	24
2.82500	24
2.82867	24
2.83233	24
2.83600	24
2.83967	24
2.84333	24
2.84700	24
2.85067	23
2.85433	22
2.85800	19
2.86167	14
2.86533	7
2.86900	-3
2.87267	-18
2.87633	-36
2.88000	-58
2.88367	-84
2.88733	-114
2.89100	-148
2.89467	-186
2.89833	-226
2.90200	-269
2.90567	-313
2.90933	-360
2.91300	-407
2.91667	-456
2.92033	-504
2.92400	-552
2.92767	-601
2.93133	-648
2.93500	-697
2.93867	-749
2.94233	-806
2.94600	-867
2.94967	-922
2.95333	-961
2.95700	-977
2.96067	-969
2.96433	-939
2.96800	-891
2.97167	-830
2.97533	-762
2.97900	-690
2.98267	-619
2.98633	-549
2.99000	-484
2.99367	-424
2.99733	-369
3.00100	-319
3.00467	-275
3.00833	-236
3.01200	-201
3.01567	-171
3.01933	-145
3.02300	-122
3.02667	-102
3.03033	-86
3.03400	-71
3.03767	-58
3.04133	-48
3.04500	-38
3.04867	-30
3.05233	-24
3.05600	-18
3.05967	-13
3.06333	-9
3.06700	-5
3.07067	-2
3.07433	0
3.07800	3
3.08167	4
3.08533	6
3.08900	8
3.09267	9
3.09633	10
3.10000	11
3.10367	11
3.10733	12
3.11100	12
3.11467	13
3.11833	13
3.12200	14
3.12567	14
3.12933	14
3.13300	15
3.13667	15
3.14033	15
3.14400	15
3.14767	15
3.15133	16
3.15500	16
3.15867	16
3.16233	16
3.16600	17
3.16967	17
3.17333	17
3.17700	18
3.18067	18
3.18433	18
3.18800	19
3.19167	19
3.19533	19
3.19900	19
3.20267	19
3.20633	19
3.21000	19
3.21367	19
3.21733	20
3.22100	20
3.22467	21
3.22833	21
3.23200	22
3.23567	22
3.23933	22
3.24300	23
3.24667	23
3.25033	23
3.25400	23
3.25767	24
3.26133	24
3.26500	24
3.26867	24
3.27233	25
3.27600	25
3.27967	25
3.28333	26
3.28700	26
3.29067	26
3.29433	26
3.29800	27
3.30167	27
3.30533	27
3.30900	27
3.31267	27
3.31633	27
3.32000	27
3.32367	27
3.32733	27
3.33100	27
3.33467	27
3.33833	27
3.34200	27
3.34567	27
3.34933	27
3.35300	27
3.35667	26
3.36033	26
3.36400	26
3.36767	26
3.37133	26
3.37500	26
3.37867	26
3.38233	26
3.38600	26
3.38967	26
3.39333	26
3.39700	26
3.40067	26
3.40433	26
3.40800	26
3.41167	26
3.41533	26
3.41900	26
3.42267	26
3.42633	25
3.43000	25
3.43367	25
3.43733	25
3.44100	25
3.44467	25
3.44833	25
3.45200	25
3.45567	25
3.45933	25
3.46300	25
3.46667	25
3.47033	25
3.47400	25
3.47767	25
3.48133	25
3.48500	25
3.48867	25
3.49233	26
3.49600	26
3.49967	26
3.50333	26
3.50700	26
3.51067	26
3.51433	26
3.51800	26
3.52167	26
3.52533	26
3.52900	26
3.53267	26
3.53633	26
3.54000	26
3.54367	26
3.54733	26
3.55100	26
3.55467	25
3.55833	25
3.56200	25
3.56567	25
3.56933	26
3.57300	26
3.57667	26
3.58033	26
3.58400	27
3.58767	27
3.59133	27
3.59500	27
3.59867	27
3.60233	27
3.60600	27
3.60967	27
3.61333	27
3.61700	27
3.62067	27
3.62433	27
3.62800	27
3.63167	27
3.63533	27
3.63900	27
3.64267	27
3.64633	27
3.65000	27
3.65367	26
3.65733	26
3.66100	26
3.66467	26
3.66833	26
3.67200	26
3.67567	26
3.67933	27
3.68300	27
3.68667	26
3.69033	26
3.69400	26
3.69767	26
3.70133	26
3.70500	26
3.70867	26
3.71233	26
3.71600	26
3.71967	26
3.72333	25
3.72700	25
3.73067	25
3.73433	25
3.73800	25
3.74167	25
3.74533	25
3.74900	25
3.75267	25
3.75633	25
3.76000	25
3.76367	25
3.76733	26
3.77100	26
3.77467	26
3.77833	26
3.78200	26
3.78567	26
3.78933	27
3.79300	27
3.79667	27
3.80033	27
3.80400	27
3.80767	27
3.81133	27
3.81500	27
3.81867	27
3.82233	27
3.82600	27
3.82967	27
3.83333	27
3.83700	27
3.84067	27
3.84433	27
3.84800	26
3.85167	26
3.85533	26
3.85900	26
3.86267	26
3.86633	26
3.87000	26
3.87367	25
3.87733	25
3.88100	25
3.88467	25
3.88833	25
3.89200	25
3.89567	25
3.89933	25
3.90300	25
3.90667	26
3.91033	26
3.91400	26
3.91767	26
3.92133	27
3.92500	27
3.92867	27
3.93233	27
3.93600	27
3.93967	27
3.94333	27
3.94700	27
3.95067	27
3.95433	27
3.95800	27
3.96167	27
3.96533	27
3.96900	27
3.97267	27
3.97633	27
3.98000	27
3.98367	27
3.98733	27
3.99100	27
3.99467	27
3.99833	27

[Chromatogram (Ch3)]
Interval(msec)	220
# of Points	1091
Start Time(min)	0.002
End Time(min)	3.998
R.Time (min)	Intensity
0.00167	-1
0.00533	-3
0.00900	-4
0.01267	-4
0.01633	-2
0.02000	-1
0.02367	-2
0.02733	-3
0.03100	-4
0.03467	-5
0.03833	-5
0.04200	-6
0.04567	-6
0.04933	-7
0.05300	-6
0.05667	-7
0.06033	-7
0.06400	-3
0.06767	-3
0.07133	-5
0.07500	-5
0.07867	-5
0.08233	-4
0.08600	-4
0.08967	-4
0.09333	-5
0.09700	-6
0.10067	-7
0.10433	-7
0.10800	-7
0.11167	-4
0.11533	-3
0.11900	-4
0.12267	-5
0.12633	-5
0.13000	-5
0.13367	-4
0.13733	-5
0.14100	-6
0.14467	-6
0.14833	-6
0.15200	-6
0.15567	-7
0.15933	-6
0.16300	-4
0.16667	-2
0.17033	1
0.17400	1
0.17767	-0
0.18133	-2
0.18500	-5
0.18867	-6
0.19233	-8
0.19600	-9
0.19967	-7
0.20333	-5
0.20700	-4
0.21067	-3
0.21433	-3
0.21800	-3
0.22167	-2
0.22533	-2
0.22900	-2
0.23267	-4
0.23633	-6
0.24000	-9
0.24367	-9
0.24733	-6
0.25100	-6
0.25467	-6
0.25833	-5
0.26200	-6
0.26567	-8
0.26933	-7
0.27300	-5
0.27667	-5
0.28033	-6
0.28400	-8
0.28767	-7
0.29133	-6
0.29500	-6
0.29867	-6
0.30233	-6
0.30600	-5
0.30967	-5
0.31333	-7
0.31700	-5
0.32067	-4
0.32433	-4
0.32800	-6
0.33167	-8
0.33533	-8
0.33900	-9
0.34267	-9
0.34633	-9
0.35000	-7
0.35367	-7
0.35733	-6
0.36100	-6
0.36467	-5
0.36833	-5
0.37200	-6
0.37567	-6
0.37933	-5
0.38300	-3
0.38667	-2
0.39033	-2
0.39400	-2
0.39767	-1
0.40133	-0
0.40500	1
0.40867	4
0.41233	3
0.41600	2
0.41967	-0
0.42333	-3
0.42700	-4
0.43067	-2
0.43433	-1
0.43800	-2
0.44167	-3
0.44533	-4
0.44900	-4
0.45267	-6
0.45633	-7
0.46000	-9
0.46367	-12
0.46733	-14
0.47100	-13
0.47467	-12
0.47833	-13
0.48200	-13
0.48567	-13
0.48933	-12
0.49300	-12
0.49667	-12
0.50033	-11
0.50400	-12
0.50767	-16
0.51133	-15
0.51500	-15
0.51867	-14
0.52233	-15
0.52600	-16
0.52967	-14
0.53333	-12
0.53700	-13
0.54067	-13
0.54433	-12
0.54800	-12
0.55167	-11
0.55533	-11
0.55900	-11
0.56267	-11
0.56633	-11
0.57000	-13
0.57367	-14
0.57733	-12
0.58100	-12
0.58467	-13
0.58833	-14
0.59200	-16
0.59567	-15
0.59933	-13
0.60300	-11
0.60667	-11
0.61033	-10
0.61400	-9
0.61767	-8
0.62133	-9
0.62500	-8
0.62867	-6
0.63233	-7
0.63600	-8
0.63967	-9
0.64333	-11
0.64700	-11
0.65067	-10
0.65433	-11
0.65800	-11
0.66167	-11
0.66533	-11
0.66900	-12
0.67267	-10
0.67633	-10
0.68000	-11
0.68367	-13
0.68733	-14
0.69100	-13
0.69467	-14
0.69833	-13
0.70200	-12
0.70567	-13
0.70933	-14
0.71300	-15
0.71667	-15
0.72033	-14
0.72400	-14
0.72767	-13
0.73133	-14
0.73500	-15
0.73867	-15
0.74233	-12
0.74600	-10
0.74967	-10
0.75333	-12
0.75700	-14
0.76067	-12
0.76433	-11
0.76800	-11
0.77167	-12
0.77533	-13
0.77900	-14
0.78267	-12
0.78633	-13
0.79000	-15
0.79367	-16
0.79733	-17
0.80100	-19
0.80467	-19
0.80833	-19
0.81200	-21
0.81567	-22
0.81933	-22
0.82300	-22
0.82667	-21
0.83033	-19
0.83400	-15
0.83767	-10
0.84133	-9
0.84500	-11
0.84867	-13
0.85233	-15
0.85600	-16
0.85967	-18
0.86333	-19
0.86700	-19
0.87067	-19
0.87433	-20
0.87800	-21
0.88167	-21
0.88533	-20
0.88900	-20
0.89267	-21
0.89633	-21
0.90000	-23
0.90367	-24
0.90733	-24
0.91100	-23
0.91467	-22
0.91833	-22
0.92200	-22
0.92567	-21
0.92933	-20
0.93300	-21
0.93667	-20
0.94033	-21
0.94400	-23
0.94767	-24
0.95133	-24
0.95500	-25
0.95867	-27
0.96233	-26
0.96600	-27
0.96967	-28
0.97333	-27
0.97700	-26
0.98067	-24
0.98433	-22
0.98800	-24
0.99167	-25
0.99533	-25
0.99900	-26
1.00267	-26
1.00633	-25
1.01000	-25
1.01367	-26
1.01733	-26
1.02100	-27
1.02467	-27
1.02833	-27
1.03200	-28
1.03567	-27
1.03933	-28
1.04300	-29
1.04667	-31
1.05033	-33
1.05400	-34
1.05767	-32
1.06133	-30
1.06500	-29
1.06867	-30
1.07233	-31
1.07600	-28
1.07967	-27
1.08333	-28
1.08700	-28
1.09067	-28
1.09433	-28
1.09800	-28
1.10167	-27
1.10533	-27
1.10900	-27
1.11267	-27
1.11633	-28
1.12000	-31
1.12367	-32
1.12733	-33
1.13100	-33
1.13467	-32
1.13833	-31
1.14200	-31
1.14567	-31
1.14933	-31
1.15300	-31
1.15667	-32
1.16033	-33
1.16400	-32
1.16767	-29
1.17133	-28
1.17500	-28
1.17867	-29
1.18233	-32
1.18600	-33
1.18967	-33
1.19333	-32
1.19700	-32
1.20067	-34
1.20433	-37
1.20800	-38
1.21167	-41
1.21533	-41
1.21900	-39
1.22267	-37
1.22633	-37
1.23000	-36
1.23367	-35
1.23733	-34
1.24100	-33
1.24467	-33
1.24833	-34
1.25200	-32
1.25567	-31
1.25933	-32
1.26300	-34
1.26667	-35
1.27033	-35
1.27400	-34
1.27767	-36
1.28133	-37
1.28500	-37
1.28867	-35
1.29233	-34
1.29600	-33
1.29967	-33
1.30333	-34
1.30700	-35
1.31067	-36
1.31433	-36
1.31800	-37
1.32167	-37
1.32533	-35
1.32900	-34
1.33267	-34
1.33633	-34
1.34000	-32
1.34367	-31
1.34733	-33
1.35100	-32
1.35467	-32
1.35833	-31
1.36200	-31
1.36567	-31
1.36933	-32
1.37300	-34
1.37667	-38
1.38033	-39
1.38400	-39
1.38767	-38
1.39133	-39
1.39500	-38
1.39867	-38
1.40233	-38
1.40600	-37
1.40967	-35
1.41333	-35
1.41700	-36
1.42067	-38
1.42433	-39
1.42800	-40
1.43167	-40
1.43533	-40
1.43900	-40
1.44267	-42
1.44633	-41
1.45000	-39
1.45367	-38
1.45733	-37
1.46100	-37
1.46467	-37
1.46833	-35
1.47200	-33
1.47567	-33
1.47933	-34
1.48300	-36
1.48667	-37
1.49033	-39
1.49400	-41
1.49767	-41
1.50133	-41
1.50500	-41
1.50867	-40
1.51233	-38
1.51600	-38
1.51967	-37
1.52333	-37
1.52700	-38
1.53067	-40
1.53433	-39
1.53800	-38
1.54167	-37
1.54533	-36
1.54900	-35
1.55267	-34
1.55633	-36
1.56000	-37
1.56367	-37
1.56733	-37
1.57100	-35
1.57467	-34
1.57833	-36
1.58200	-36
1.58567	-36
1.58933	-35
1.59300	-35
1.59667	-35
1.60033	-37
1.60400	-37
1.60767	-36
1.61133	-37
1.61500	-38
1.61867	-38
1.62233	-39
1.62600	-42
1.62967	-40
1.63333	-36
1.63700	-35
1.64067	-35
1.64433	-36
1.64800	-37
1.65167	-36
1.65533	-36
1.65900	-35
1.66267	-33
1.66633	-29
1.67000	-29
1.67367	-29
1.67733	-29
1.68100	-28
1.68467	-27
1.68833	-25
1.69200	-26
1.69567	-27
1.69933	-29
1.70300	-28
1.70667	-26
1.71033	-26
1.71400	-25
1.71767	-25
1.72133	-25
1.72500	-25
1.72867	-24
1.73233	-21
1.73600	-19
1.73967	-20
1.74333	-20
1.74700	-20
1.75067	-20
1.75433	-18
1.75800	-16
1.76167	-16
1.76533	-18
1.76900	-17
1.77267	-17
1.77633	-18
1.78000	-17
1.78367	-16
1.78733	-15
1.79100	-12
1.79467	-11
1.79833	-11
1.80200	-12
1.80567	-12
1.80933	-12
1.81300	-14
1.81667	-14
1.82033	-14
1.82400	-15
1.82767	-15
1.83133	-13
1.83500	-11
1.83867	-12
1.84233	-12
1.84600	-12
1.84967	-12
1.85333	-9
1.85700	-8
1.86067	-9
1.86433	-9
1.86800	-9
1.87167	-8
1.87533	-7
1.87900	-6
1.88267	-3
1.88633	-3
1.89000	-2
1.89367	-2
1.89733	-2
1.90100	-2
1.90467	-1
1.90833	-1
1.91200	-1
1.91567	-1
1.91933	-3
1.92300	-5
1.92667	-3
1.93033	-2
1.93400	-2
1.93767	-3
1.94133	-3
1.94500	-2
1.94867	-0
1.95233	2
1.95600	3
1.95967	5
1.96333	6
1.96700	8
1.97067	8
1.97433	8
1.97800	8
1.98167	9
1.98533	10
1.98900	13
1.99267	16
1.99633	16
2.00000	15
2.00367	16
2.00733	16
2.01100	17
2.01467	17
2.01833	16
2.02200	15
2.02567	14
2.02933	15
2.03300	18
2.03667	19
2.04033	20
2.04400	23
2.04767	25
2.05133	26
2.05500	26
2.05867	24
2.06233	24
2.06600	25
2.06967	27
2.07333	29
2.07700	30
2.08067	31
2.08433	35
2.08800	38
2.09167	39
2.09533	39
2.09900	40
2.10267	40
2.10633	39
2.11000	38
2.11367	38
2.11733	39
2.12100	40
2.12467	42
2.12833	47
2.13200	49
2.13567	50
2.13933	52
2.14300	54
2.14667	54
2.15033	54
2.15400	54
2.15767	54
2.16133	54
2.16500	56
2.16867	60
2.17233	62
2.17600	62
2.17967	61
2.18333	62
2.18700	64
2.19067	68
2.19433	70
2.19800	72
2.20167	72
2.20533	72
2.20900	71
2.21267	72
2.21633	72
2.22000	71
2.22367	76
2.22733	82
2.23100	82
2.23467	79
2.23833	80
2.24200	82
2.24567	81
2.24933	82
2.25300	85
2.25667	88
2.26033	89
2.26400	89
2.26767	91
2.27133	92
2.27500	94
2.27867	95
2.28233	94
2.28600	96
2.28967	96
2.29333	97
2.29700	97
2.30067	96
2.30433	98
2.30800	101
2.31167	102
2.31533	102
2.31900	103
2.32267	106
2.32633	108
2.33000	111
2.33367	113
2.33733	116
2.34100	117
2.34467	119
2.34833	121
2.35200	121
2.35567	120
2.35933	121
2.36300	123
2.36667	123
2.37033	124
2.37400	123
2.37767	123
2.38133	126
2.38500	128
2.38867	128
2.39233	127
2.39600	126
2.39967	126
2.40333	127
2.40700	126
2.41067	127
2.41433	129
2.41800	130
2.42167	129
2.42533	130
2.42900	132
2.43267	137
2.43633	141
2.44000	142
2.44367	142
2.44733	144
2.45100	141
2.45467	136
2.45833	132
2.46200	127
2.46567	123
2.46933	122
2.47300	121
2.47667	121
2.48033	126
2.48400	131
2.48767	137
2.49133	146
2.49500	155
2.49867	164
2.50233	167
2.50600	168
2.50967	171
2.51333	177
2.51700	183
2.52067	189
2.52433	193
2.52800	195
2.53167	197
2.53533	200
2.53900	202
2.54267	205
2.54633	210
2.55000	215
2.55367	220
2.55733	223
2.56100	225
2.56467	226
2.56833	228
2.57200	230
2.57567	235
2.57933	238
2.58300	238
2.58667	239
2.59033	239
2.59400	241
2.59767	244
2.60133	244
2.60500	240
2.60867	229
2.61233	213
2.61600	192
2.61967	166
2.62333	134
2.62700	101
2.63067	71
2.63433	44
2.63800	19
2.64167	-0
2.64533	-11
2.64900	-16
2.65267	-19
2.65633	-19
2.66000	-16
2.66367	-11
2.66733	-5
2.67100	1
2.67467	8
2.67833	18
2.68200	30
2.68567	41
2.68933	51
2.69300	59
2.69667	65
2.70033	71
2.70400	76
2.70767	81
2.71133	89
2.71500	100
2.71867	108
2.72233	115
2.72600	120
2.72967	125
2.73333	131
2.73700	136
2.74067	142
2.74433	147
2.74800	150
2.75167	152
2.75533	155
2.75900	157
2.76267	160
2.76633	164
2.77000	167
2.77367	169
2.77733	172
2.78100	174
2.78467	175
2.78833	176
2.79200	178
2.79567	183
2.79933	186
2.80300	188
2.80667	191
2.81033	196
2.81400	199
2.81767	201
2.82133	204
2.82500	208
2.82867	216
2.83233	236
2.83600	278
2.83967	358
2.84333	502
2.84700	735
2.85067	1067
2.85433	1500
2.85800	2013
2.86167	2575
2.86533	3140
2.86900	3654
2.87267	4077
2.87633	4378
2.88000	4538
2.88367	4560
2.88733	4467
2.89100	4282
2.89467	4027
2.89833	3728
2.90200	3410
2.90567	3089
2.90933	2775
2.91300	2481
2.91667	2210
2.92033	1963
2.92400	1739
2.92767	1539
2.93133	1363
2.93500	1207
2.93867	1070
2.94233	951
2.94600	848
2.94967	760
2.95333	683
2.95700	616
2.96067	557
2.96433	507
2.96800	463
2.97167	422
2.97533	390
2.97900	363
2.98267	339
2.98633	320
2.99000	303
2.99367	287
2.99733	271
3.00100	258
3.00467	248
3.00833	239
3.01200	231
3.01567	224
3.01933	217
3.02300	211
3.02667	207
3.03033	203
3.03400	200
3.03767	201
3.04133	199
3.04500	196
3.04867	194
3.05233	192
3.05600	190
3.05967	187
3.06333	185
3.06700	183
3.07067	181
3.07433	179
3.07800	178
3.08167	178
3.08533	178
3.08900	178
3.09267	175
3.09633	172
3.10000	170
3.10367	169
3.10733	168
3.11100	168
3.11467	166
3.11833	165
3.12200	165
3.12567	167
3.12933	167
3.13300	164
3.13667	160
3.14033	156
3.14400	156
3.14767	157
3.15133	157
3.15500	158
3.15867	158
3.16233	157
3.16600	155
3.16967	154
3.17333	155
3.17700	155
3.18067	152
3.18433	149
3.18800	147
3.19167	148
3.19533	149
3.19900	150
3.20267	152
3.20633	152
3.21000	152
3.21367	152
3.21733	150
3.22100	146
3.22467	144
3.22833	143
3.23200	143
3.23567	142
3.23933	142
3.24300	142
3.24667	142
3.25033	142
3.25400	143
3.25767	144
3.26133	144
3.26500	141
3.26867	139
3.27233	139
3.27600	139
3.27967	138
3.28333	138
3.28700	136
3.29067	135
3.29433	135
3.29800	134
3.30167	134
3.30533	134
3.30900	133
3.31267	131
3.31633	130
3.32000	130
3.32367	128
3.32733	127
3.33100	125
3.33467	124
3.33833	122
3.34200	120
3.34567	119
3.34933	117
3.35300	117
3.35667	116
3.36033	115
3.36400	112
3.36767	111
3.37133	112
3.37500	112
3.37867	113
3.38233	113
3.38600	110
3.38967	108
3.39333	108
3.39700	109
3.40067	108
3.40433	107
3.40800	104
3.41167	103
3.41533	101
3.41900	98
3.42267	98
3.42633	98
3.43000	99
3.43367	99
3.43733	98
3.44100	97
3.44467	97
3.44833	96
3.45200	94
3.45567	92
3.45933	93
3.46300	91
3.46667	88
3.47033	86
3.47400	85
3.47767	82
3.48133	80
3.48500	80
3.48867	79
3.49233	78
3.49600	79
3.49967	79
3.50333	78
3.50700	76
3.51067	74
3.51433	73
3.51800	73
3.52167	73
3.52533	72
3.52900	72
3.53267	73
3.53633	72
3.54000	72
3.54367	71
3.54733	70
3.55100	68
3.55467	66
3.55833	66
3.56200	65
3.56567	65
3.56933	64
3.57300	63
3.57667	63
3.58033	63
3.58400	62
3.58767	60
3.59133	59
3.59500	59
3.59867	59
3.60233	59
3.60600	59
3.60967	58
3.61333	57
3.61700	54
3.62067	53
3.62433	52
3.62800	53
3.63167	53
3.63533	52
3.63900	52
3.64267	52
3.64633	52
3.65000	52
3.65367	51
3.65733	51
3.66100	50
3.66467	50
3.66833	49
3.67200	49
3.67567	49
3.67933	48
3.68300	47
3.68667	46
3.69033	46
3.69400	46
3.69767	46
3.70133	47
3.70500	47
3.70867	47
3.71233	45
3.71600	45
3.71967	45
3.72333	42
3.72700	41
3.73067	40
3.73433	40
3.73800	41
3.74167	42
3.74533	42
3.74900	42
3.75267	45
3.75633	47
3.76000	47
3.76367	46
3.76733	44
3.77100	42
3.77467	41
3.77833	40
3.78200	41
3.78567	40
3.78933	39
3.79300	39
3.79667	41
3.80033	43
3.80400	45
3.80767	44
3.81133	41
3.81500	40
3.81867	39
3.82233	38
3.82600	37
3.82967	38
3.83333	40
3.83700	41
3.84067	41
3.84433	39
3.84800	40
3.85167	42
3.85533	42
3.85900	39
3.86267	38
3.86633	39
3.87000	39
3.87367	40
3.87733	39
3.88100	39
3.88467	40
3.88833	42
3.89200	43
3.89567	43
3.89933	40
3.90300	36
3.90667	34
3.91033	36
3.91400	37
3.91767	36
3.92133	33
3.92500	30
3.92867	31
3.93233	33
3.93600	35
3.93967	36
3.94333	33
3.94700	30
3.95067	29
3.95433	26
3.95800	24
3.96167	25
3.96533	25
3.96900	23
3.97267	24
3.97633	26
3.98000	25
3.98367	25
3.98733	24
3.99100	24
3.99467	25
3.99833	29

[Status Trace (Column Oven Temperature)]
Interval(msec)	1000
# of Points	240
Start Time(min)	0.008
End Time(min)	3.991
Intensity Units	
Intensity Multiplier	1
R.Time (min)	Intensity
0.00813	35.01
0.02480	35.01
0.04147	35.02
0.05813	35.01
0.07480	35.01
0.09147	35.01
0.10813	35.01
0.12480	35.01
0.14147	35.01
0.15813	35.01
0.17480	35.00
0.19147	35.01
0.20813	35.01
0.22480	35.01
0.24147	35.00
0.25813	34.98
0.27480	34.98
0.29147	34.98
0.30813	34.98
0.32480	34.98
0.34147	34.99
0.35813	34.99
0.37480	34.99
0.39147	34.99
0.40813	34.98
0.42480	34.98
0.44147	34.98
0.45813	34.98
0.47480	34.98
0.49147	34.99
0.50813	34.99
0.52480	35.00
0.54147	35.01
0.55813	35.01
0.57480	35.00
0.59147	34.99
0.60813	34.98
0.62480	34.98
0.64147	34.98
0.65813	34.99
0.67480	34.99
0.69147	35.00
0.70813	35.00
0.72480	35.00
0.74147	35.01
0.75813	35.02
0.77480	35.03
0.79147	35.04
0.80813	35.05
0.82480	35.05
0.84147	35.05
0.85813	35.06
0.87480	35.06
0.89147	35.05
0.90813	35.06
0.92480	35.06
0.94147	35.07
0.95813	35.08
0.97480	35.08
0.99147	35.07
1.00813	35.07
1.02480	35.07
1.04147	35.05
1.05813	35.04
1.07480	35.03
1.09147	35.02
1.10813	35.00
1.12480	34.99
1.14147	34.99
1.15813	34.98
1.17480	34.98
1.19147	34.97
1.20813	34.97
1.22480	34.96
1.24147	34.96
1.25813	34.96
1.27480	34.96
1.29147	34.96
1.30813	34.96
1.32480	34.98
1.34147	34.98
1.35813	34.99
1.37480	35.00
1.39147	34.99
1.40813	34.98
1.42480	34.98
1.44147	34.98
1.45813	34.98
1.47480	34.98
1.49147	34.99
1.50813	35.01
1.52480	35.02
1.54147	35.04
1.55813	35.05
1.57480	35.04
1.59147	35.04
1.60813	35.09
1.62480	35.20
1.64147	35.38
1.65813	35.61
1.67480	35.94
1.69147	36.29
1.70813	36.66
1.72480	36.99
1.74147	37.32
1.75813	37.67
1.77480	38.00
1.79147	38.34
1.80813	38.67
1.82480	39.02
1.84147	39.33
1.85813	39.66
1.87480	39.98
1.89147	40.32
1.90813	40.64
1.92480	40.97
1.94147	41.30
1.95813	41.61
1.97480	41.94
1.99147	42.29
2.00813	42.62
2.02480	42.93
2.04147	43.26
2.05813	43.59
2.07480	43.92
2.09147	44.23
2.10813	44.57
2.12480	44.88
2.14147	45.22
2.15813	45.55
2.17480	45.87
2.19147	46.19
2.20813	46.51
2.22480	46.86
2.24147	47.19
2.25813	47.49
2.27480	47.83
2.29147	48.17
2.30813	48.49
2.32480	48.81
2.34147	49.17
2.35813	49.45
2.37480	49.61
2.39147	49.63
2.40813	49.62
2.42480	49.63
2.44147	49.64
2.45813	49.67
2.47480	49.67
2.49147	49.68
2.50813	49.69
2.52480	49.70
2.54147	49.71
2.55813	49.73
2.57480	49.75
2.59147	49.76
2.60813	49.79
2.62480	49.80
2.64147	49.81
2.65813	49.83
2.67480	49.83
2.69147	49.84
2.70813	49.85
2.72480	49.86
2.74147	49.86
2.75813	49.85
2.77480	49.85
2.79147	49.87
2.80813	49.89
2.82480	49.91
2.84147	49.91
2.85813	49.91
2.87480	49.92
2.89147	49.93
2.90813	49.93
2.92480	49.94
2.94147	49.94
2.95813	49.95
2.97480	49.95
2.99147	49.97
3.00813	49.97
3.02480	49.98
3.04147	49.98
3.05813	49.99
3.07480	50.00
3.09147	50.01
3.10813	50.02
3.12480	50.05
3.14147	50.08
3.15813	50.08
3.17480	50.09
3.19147	50.11
3.20813	50.12
3.22480	50.11
3.24147	50.10
3.25813	50.08
3.27480	50.07
3.29147	50.06
3.30813	50.04
3.32480	50.03
3.34147	50.02
3.35813	50.02
3.37480	50.01
3.39147	50.01
3.40813	50.02
3.42480	50.03
3.44147	50.04
3.45813	50.04
3.47480	50.05
3.49147	50.05
3.50813	50.05
3.52480	50.05
3.54147	50.06
3.55813	50.06
3.57480	50.05
3.59147	50.05
3.60813	50.05
3.62480	50.04
3.64147	50.04
3.65813	50.04
3.67480	50.05
3.69147	50.05
3.70813	50.06
3.72480	50.07
3.74147	50.08
3.75813	50.08
3.77480	50.08
3.79147	50.07
3.80813	50.08
3.82480	50.07
3.84147	50.08
3.85813	50.08
3.87480	50.09
3.89147	50.08
3.90813	50.08
3.92480	50.07
3.94147	50.07
3.95813	50.07
3.97480	50.07
3.99147	50.07

[Status Trace (Injection Unit Temperature)]
Interval(msec)	1000
# of Points	240
Start Time(min)	0.008
End Time(min)	3.991
Intensity Units	
Intensity Multiplier	1
R.Time (min)	Intensity
0.00813	99.99
0.02480	99.99
0.04147	99.99
0.05813	99.99
0.07480	99.99
0.09147	99.99
0.10813	99.99
0.12480	99.99
0.14147	100.00
0.15813	99.99
0.17480	99.99
0.19147	99.99
0.20813	99.99
0.22480	99.99
0.24147	99.99
0.25813	99.99
0.27480	99.99
0.29147	99.99
0.30813	99.99
0.32480	99.99
0.34147	99.99
0.35813	99.99
0.37480	99.99
0.39147	99.99
0.40813	99.99
0.42480	99.99
0.44147	99.99
0.45813	99.99
0.47480	99.99
0.49147	99.99
0.50813	99.99
0.52480	100.00
0.54147	99.99
0.55813	99.99
0.57480	99.99
0.59147	99.99
0.60813	99.99
0.62480	99.99
0.64147	99.99
0.65813	99.99
0.67480	99.99
0.69147	99.99
0.70813	99.99
0.72480	99.99
0.74147	99.99
0.75813	99.99
0.77480	99.99
0.79147	99.99
0.80813	99.99
0.82480	99.99
0.84147	99.99
0.85813	100.00
0.87480	99.99
0.89147	99.99
0.90813	99.99
0.92480	99.99
0.94147	100.00
0.95813	99.99
0.97480	99.99
0.99147	99.99
1.00813	99.99
1.02480	100.00
1.04147	99.99
1.05813	99.99
1.07480	99.99
1.09147	99.99
1.10813	99.99
1.12480	99.99
1.14147	99.99
1.15813	99.99
1.17480	99.99
1.19147	99.99
1.20813	100.00
1.22480	99.99
1.24147	99.99
1.25813	99.99
1.27480	99.99
1.29147	99.99
1.30813	99.99
1.32480	99.99
1.34147	99.99
1.35813	99.99
1.37480	100.00
1.39147	100.00
1.40813	99.99
1.42480	99.99
1.44147	99.99
1.45813	100.00
1.47480	99.99
1.49147	99.99
1.50813	99.99
1.52480	99.99
1.54147	99.99
1.55813	99.99
1.57480	100.00
1.59147	99.99
1.60813	99.99
1.62480	99.99
1.64147	99.99
1.65813	99.99
1.67480	99.99
1.69147	99.99
1.70813	99.99
1.72480	99.99
1.74147	99.99
1.75813	99.99
1.77480	99.99
1.79147	99.99
1.80813	99.99
1.82480	99.99
1.84147	99.99
1.85813	99.99
1.87480	99.99
1.89147	99.99
1.90813	99.99
1.92480	99.99
1.94147	99.98
1.95813	99.99
1.97480	99.98
1.99147	99.98
2.00813	99.98
2.02480	99.98
2.04147	99.98
2.05813	99.98
2.07480	99.98
2.09147	99.98
2.10813	99.98
2.12480	99.98
2.14147	99.98
2.15813	99.98
2.17480	99.98
2.19147	99.98
2.20813	99.98
2.22480	99.98
2.24147	99.98
2.25813	99.98
2.27480	99.98
2.29147	99.98
2.30813	99.98
2.32480	99.98
2.34147	99.98
2.35813	99.97
2.37480	99.97
2.39147	99.97
2.40813	99.97
2.42480	99.98
2.44147	99.98
2.45813	99.98
2.47480	99.97
2.49147	99.98
2.50813	99.98
2.52480	99.98
2.54147	99.98
2.55813	99.98
2.57480	99.98
2.59147	99.98
2.60813	99.98
2.62480	99.98
2.64147	99.98
2.65813	99.99
2.67480	99.99
2.69147	99.99
2.70813	99.99
2.72480	99.99
2.74147	99.99
2.75813	100.00
2.77480	99.99
2.79147	100.00
2.80813	100.00
2.82480	100.00
2.84147	100.00
2.85813	100.00
2.87480	100.00
2.89147	100.00
2.90813	100.00
2.92480	100.00
2.94147	100.01
2.95813	100.00
2.97480	100.00
2.99147	100.01
3.00813	100.01
3.02480	100.01
3.04147	100.01
3.05813	100.01
3.07480	100.02
3.09147	100.01
3.10813	100.02
3.12480	100.02
3.14147	100.02
3.15813	100.02
3.17480	100.02
3.19147	100.02
3.20813	100.02
3.22480	100.02
3.24147	100.02
3.25813	100.02
3.27480	100.02
3.29147	100.03
3.30813	100.03
3.32480	100.03
3.34147	100.03
3.35813	100.03
3.37480	100.03
3.39147	100.03
3.40813	100.03
3.42480	100.04
3.44147	100.04
3.45813	100.04
3.47480	100.04
3.49147	100.05
3.50813	100.05
3.52480	100.05
3.54147	100.04
3.55813	100.05
3.57480	100.05
3.59147	100.05
3.60813	100.05
3.62480	100.05
3.64147	100.05
3.65813	100.05
3.67480	100.05
3.69147	100.05
3.70813	100.05
3.72480	100.05
3.74147	100.06
3.75813	100.05
3.77480	100.05
3.79147	100.05
3.80813	100.06
3.82480	100.05
3.84147	100.06
3.85813	100.05
3.87480	100.06
3.89147	100.06
3.90813	100.06
3.92480	100.05
3.94147	100.06
3.95813	100.06
3.97480	100.06
3.99147	100.06

[Status Trace (Carrier Gas Pressure)]
Interval(msec)	1000
# of Points	240
Start Time(min)	0.008
End Time(min)	3.991
Intensity Units	
Intensity Multiplier	1
R.Time (min)	Intensity
0.00813	58.00
0.02480	55.35
0.04147	57.12
0.05813	59.14
0.07480	59.54
0.09147	58.08
0.10813	57.97
0.12480	58.01
0.14147	58.01
0.15813	58.01
0.17480	58.00
0.19147	58.00
0.20813	58.00
0.22480	58.00
0.24147	58.00
0.25813	58.00
0.27480	58.00
0.29147	58.00
0.30813	58.00
0.32480	58.00
0.34147	58.00
0.35813	58.00
0.37480	58.00
0.39147	58.00
0.40813	58.00
0.42480	58.00
0.44147	58.00
0.45813	58.00
0.47480	58.00
0.49147	58.00
0.50813	58.00
0.52480	58.00
0.54147	58.00
0.55813	58.00
0.57480	58.00
0.59147	58.00
0.60813	58.00
0.62480	58.00
0.64147	58.00
0.65813	58.00
0.67480	58.00
0.69147	58.00
0.70813	58.00
0.72480	58.00
0.74147	58.00
0.75813	58.00
0.77480	58.00
0.79147	58.00
0.80813	58.00
0.82480	58.00
0.84147	58.00
0.85813	58.00
0.87480	58.00
0.89147	58.00
0.90813	58.00
0.92480	58.00
0.94147	58.00
0.95813	58.00
0.97480	58.00
0.99147	58.00
1.00813	58.00
1.02480	58.00
1.04147	58.00
1.05813	58.00
1.07480	58.00
1.09147	58.00
1.10813	58.00
1.12480	58.00
1.14147	58.00
1.15813	58.00
1.17480	58.00
1.19147	58.00
1.20813	58.00
1.22480	58.00
1.24147	58.00
1.25813	58.00
1.27480	58.00
1.29147	58.00
1.30813	58.00
1.32480	58.00
1.34147	58.00
1.35813	58.00
1.37480	58.00
1.39147	58.00
1.40813	58.00
1.42480	58.00
1.44147	58.00
1.45813	58.00
1.47480	58.00
1.49147	58.00
1.50813	58.00
1.52480	58.00
1.54147	58.00
1.55813	58.00
1.57480	58.00
1.59147	58.00
1.60813	58.00
1.62480	58.00
1.64147	58.00
1.65813	58.00
1.67480	58.01
1.69147	58.00
1.70813	58.00
1.72480	58.00
1.74147	58.00
1.75813	58.00
1.77480	58.00
1.79147	58.00
1.80813	58.00
1.82480	58.00
1.84147	58.00
1.85813	58.00
1.87480	58.00
1.89147	58.00
1.90813	58.00
1.92480	58.00
1.94147	58.00
1.95813	58.00
1.97480	58.00
1.99147	58.00
2.00813	58.00
2.02480	58.00
2.04147	58.00
2.05813	58.00
2.07480	58.00
2.09147	58.00
2.10813	58.00
2.12480	58.00
2.14147	58.00
2.15813	58.00
2.17480	58.00
2.19147	58.00
2.20813	58.00
2.22480	58.00
2.24147	58.00
2.25813	58.00
2.27480	58.00
2.29147	58.00
2.30813	58.00
2.32480	58.00
2.34147	58.00
2.35813	58.00
2.37480	57.99
2.39147	57.99
2.40813	57.99
2.42480	58.00
2.44147	58.00
2.45813	58.00
2.47480	58.00
2.49147	58.00
2.50813	57.99
2.52480	57.98
2.54147	58.00
2.55813	58.00
2.57480	58.00
2.59147	58.00
2.60813	58.00
2.62480	58.00
2.64147	58.00
2.65813	58.00
2.67480	58.00
2.69147	58.00
2.70813	58.00
2.72480	58.00
2.74147	58.00
2.75813	58.00
2.77480	58.00
2.79147	58.00
2.80813	58.00
2.82480	58.00
2.84147	58.00
2.85813	58.00
2.87480	58.00
2.89147	58.00
2.90813	58.00
2.92480	58.00
2.94147	58.00
2.95813	58.00
2.97480	58.00
2.99147	58.00
3.00813	58.00
3.02480	58.00
3.04147	58.00
3.05813	58.00
3.07480	58.00
3.09147	58.00
3.10813	58.00
3.12480	58.00
3.14147	58.00
3.15813	58.00
3.17480	58.00
3.19147	58.00
3.20813	58.00
3.22480	58.00
3.24147	58.00
3.25813	58.00
3.27480	58.00
3.29147	58.00
3.30813	58.00
3.32480	58.00
3.34147	58.00
3.35813	58.00
3.37480	58.00
3.39147	58.00
3.40813	58.00
3.42480	58.00
3.44147	58.00
3.45813	58.00
3.47480	58.00
3.49147	58.00
3.50813	58.00
3.52480	58.00
3.54147	58.00
3.55813	58.00
3.57480	58.00
3.59147	58.00
3.60813	58.00
3.62480	58.00
3.64147	58.00
3.65813	58.00
3.67480	58.00
3.69147	58.00
3.70813	58.00
3.72480	58.00
3.74147	58.00
3.75813	58.00
3.77480	58.00
3.79147	58.00
3.80813	58.00
3.82480	58.00
3.84147	58.00
3.85813	58.00
3.87480	58.00
3.89147	58.00
3.90813	58.00
3.92480	58.00
3.94147	58.00
3.95813	58.00
3.97480	58.00
3.99147	58.00

[Status Trace (Carrier Gas Flow)]
Interval(msec)	1000
# of Points	240
Start Time(min)	0.008
End Time(min)	3.991
Intensity Units	
Intensity Multiplier	1
R.Time (min)	Intensity
0.00813	34.52
0.02480	34.54
0.04147	34.54
0.05813	34.54
0.07480	34.49
0.09147	34.52
0.10813	34.52
0.12480	34.52
0.14147	34.52
0.15813	34.52
0.17480	34.52
0.19147	34.52
0.20813	34.52
0.22480	34.52
0.24147	34.52
0.25813	34.52
0.27480	34.52
0.29147	34.52
0.30813	34.52
0.32480	34.52
0.34147	34.52
0.35813	34.52
0.37480	34.52
0.39147	34.52
0.40813	34.52
0.42480	34.52
0.44147	34.52
0.45813	34.52
0.47480	34.52
0.49147	34.52
0.50813	34.52
0.52480	34.52
0.54147	34.52
0.55813	34.52
0.57480	34.52
0.59147	34.52
0.60813	34.52
0.62480	34.52
0.64147	34.52
0.65813	34.52
0.67480	34.52
0.69147	34.52
0.70813	34.52
0.72480	34.52
0.74147	34.52
0.75813	34.52
0.77480	34.52
0.79147	34.52
0.80813	34.52
0.82480	34.52
0.84147	34.52
0.85813	34.52
0.87480	34.52
0.89147	34.52
0.90813	34.52
0.92480	34.52
0.94147	34.52
0.95813	34.52
0.97480	34.52
0.99147	34.52
1.00813	34.52
1.02480	34.52
1.04147	34.52
1.05813	34.52
1.07480	34.52
1.09147	34.52
1.10813	34.52
1.12480	34.52
1.14147	34.52
1.15813	34.52
1.17480	34.52
1.19147	34.52
1.20813	34.52
1.22480	34.52
1.24147	34.52
1.25813	34.52
1.27480	34.52
1.29147	34.52
1.30813	34.52
1.32480	34.52
1.34147	34.52
1.35813	34.52
1.37480	34.52
1.39147	34.52
1.40813	34.52
1.42480	34.52
1.44147	34.52
1.45813	34.52
1.47480	34.52
1.49147	34.52
1.50813	34.52
1.52480	34.52
1.54147	34.52
1.55813	34.52
1.57480	34.52
1.59147	34.52
1.60813	34.52
1.62480	34.52
1.64147	34.52
1.65813	34.53
1.67480	34.51
1.69147	34.52
1.70813	34.52
1.72480	34.52
1.74147	34.52
1.75813	34.52
1.77480	34.52
1.79147	34.52
1.80813	34.52
1.82480	34.52
1.84147	34.52
1.85813	34.52
1.87480	34.52
1.89147	34.52
1.90813	34.52
1.92480	34.52
1.94147	34.52
1.95813	34.52
1.97480	34.52
1.99147	34.52
2.00813	34.52
2.02480	34.52
2.04147	34.52
2.05813	34.52
2.07480	34.52
2.09147	34.52
2.10813	34.52
2.12480	34.52
2.14147	34.51
2.15813	34.53
2.17480	34.53
2.19147	34.51
2.20813	34.51
2.22480	34.51
2.24147	34.53
2.25813	34.53
2.27480	34.52
2.29147	34.52
2.30813	34.51
2.32480	34.52
2.34147	34.53
2.35813	34.52
2.37480	34.52
2.39147	34.52
2.40813	34.52
2.42480	34.52
2.44147	34.52
2.45813	34.52
2.47480	34.52
2.49147	34.52
2.50813	34.41
2.52480	34.52
2.54147	34.52
2.55813	34.52
2.57480	34.52
2.59147	34.52
2.60813	34.52
2.62480	34.52
2.64147	34.52
2.65813	34.52
2.67480	34.52
2.69147	34.52
2.70813	34.52
2.72480	34.52
2.74147	34.52
2.75813	34.52
2.77480	34.52
2.79147	34.52
2.80813	34.52
2.82480	34.52
2.84147	34.52
2.85813	34.52
2.87480	34.52
2.89147	34.52
2.90813	34.52
2.92480	34.52
2.94147	34.52
2.95813	34.52
2.97480	34.52
2.99147	34.52
3.00813	34.52
3.02480	34.52
3.04147	34.52
3.05813	34.52
3.07480	34.52
3.09147	34.52
3.10813	34.52
3.12480	34.52
3.14147	34.52
3.15813	34.52
3.17480	34.52
3.19147	34.52
3.20813	34.52
3.22480	34.52
3.24147	34.52
3.25813	34.52
3.27480	34.52
3.29147	34.52
3.30813	34.52
3.32480	34.52
3.34147	34.52
3.35813	34.52
3.37480	34.52
3.39147	34.52
3.40813	34.52
3.42480	34.52
3.44147	34.52
3.45813	34.52
3.47480	34.52
3.49147	34.52
3.50813	34.52
3.52480	34.52
3.54147	34.52
3.55813	34.52
3.57480	34.52
3.59147	34.52
3.60813	34.52
3.62480	34.52
3.64147	34.52
3.65813	34.52
3.67480	34.52
3.69147	34.52
3.70813	34.52
3.72480	34.52
3.74147	34.52
3.75813	34.52
3.77480	34.52
3.79147	34.52
3.80813	34.52
3.82480	34.52
3.84147	34.52
3.85813	34.52
3.87480	34.52
3.89147	34.52
3.90813	34.52
3.92480	34.52
3.94147	34.52
3.95813	34.51
3.97480	34.52
3.99147	34.52

[Status Trace (Column Flow)]
Interval(msec)	1000
# of Points	240
Start Time(min)	0.008
End Time(min)	3.991
Intensity Units	
Intensity Multiplier	1
R.Time (min)	Intensity
0.00813	5.57
0.02480	5.26
0.04147	5.47
0.05813	5.71
0.07480	5.75
0.09147	5.58
0.10813	5.57
0.12480	5.57
0.14147	5.57
0.15813	5.57
0.17480	5.57
0.19147	5.57
0.20813	5.57
0.22480	5.57
0.24147	5.57
0.25813	5.57
0.27480	5.57
0.29147	5.57
0.30813	5.57
0.32480	5.57
0.34147	5.57
0.35813	5.57
0.37480	5.57
0.39147	5.57
0.40813	5.57
0.42480	5.57
0.44147	5.57
0.45813	5.57
0.47480	5.57
0.49147	5.57
0.50813	5.57
0.52480	5.57
0.54147	5.57
0.55813	5.57
0.57480	5.57
0.59147	5.57
0.60813	5.57
0.62480	5.57
0.64147	5.57
0.65813	5.57
0.67480	5.57
0.69147	5.57
0.70813	5.57
0.72480	5.57
0.74147	5.57
0.75813	5.57
0.77480	5.57
0.79147	5.57
0.80813	5.57
0.82480	5.57
0.84147	5.57
0.85813	5.57
0.87480	5.57
0.89147	5.57
0.90813	5.57
0.92480	5.57
0.94147	5.57
0.95813	5.57
0.97480	5.57
0.99147	5.57
1.00813	5.57
1.02480	5.57
1.04147	5.57
1.05813	5.57
1.07480	5.57
1.09147	5.57
1.10813	5.57
1.12480	5.57
1.14147	5.57
1.15813	5.57
1.17480	5.57
1.19147	5.57
1.20813	5.57
1.22480	5.57
1.24147	5.57
1.25813	5.57
1.27480	5.57
1.29147	5.57
1.30813	5.57
1.32480	5.57
1.34147	5.57
1.35813	5.57
1.37480	5.57
1.39147	5.57
1.40813	5.57
1.42480	5.57
1.44147	5.57
1.45813	5.57
1.47480	5.57
1.49147	5.57
1.50813	5.57
1.52480	5.57
1.54147	5.57
1.55813	5.57
1.57480	5.57
1.59147	5.57
1.60813	5.57
1.62480	5.57
1.64147	5.56
1.65813	5.56
1.67480	5.54
1.69147	5.53
1.70813	5.52
1.72480	5.51
1.74147	5.50
1.75813	5.49
1.77480	5.48
1.79147	5.47
1.80813	5.46
1.82480	5.45
1.84147	5.44
1.85813	5.43
1.87480	5.42
1.89147	5.41
1.90813	5.40
1.92480	5.39
1.94147	5.38
1.95813	5.37
1.97480	5.36
1.99147	5.35
2.00813	5.34
2.02480	5.33
2.04147	5.32
2.05813	5.31
2.07480	5.30
2.09147	5.29
2.10813	5.28
2.12480	5.27
2.14147	5.26
2.15813	5.25
2.17480	5.24
2.19147	5.23
2.20813	5.23
2.22480	5.21
2.24147	5.21
2.25813	5.20
2.27480	5.19
2.29147	5.18
2.30813	5.17
2.32480	5.16
2.34147	5.15
2.35813	5.14
2.37480	5.14
2.39147	5.14
2.40813	5.14
2.42480	5.14
2.44147	5.14
2.45813	5.14
2.47480	5.13
2.49147	5.13
2.50813	5.13
2.52480	5.13
2.54147	5.13
2.55813	5.13
2.57480	5.13
2.59147	5.13
2.60813	5.13
2.62480	5.13
2.64147	5.13
2.65813	5.13
2.67480	5.13
2.69147	5.13
2.70813	5.13
2.72480	5.13
2.74147	5.13
2.75813	5.13
2.77480	5.13
2.79147	5.13
2.80813	5.13
2.82480	5.13
2.84147	5.13
2.85813	5.13
2.87480	5.13
2.89147	5.13
2.90813	5.13
2.92480	5.13
2.94147	5.13
2.95813	5.13
2.97480	5.13
2.99147	5.13
3.00813	5.13
3.02480	5.13
3.04147	5.13
3.05813	5.13
3.07480	5.13
3.09147	5.13
3.10813	5.13
3.12480	5.12
3.14147	5.12
3.15813	5.12
3.17480	5.12
3.19147	5.12
3.20813	5.12
3.22480	5.12
3.24147	5.12
3.25813	5.12
3.27480	5.12
3.29147	5.12
3.30813	5.12
3.32480	5.13
3.34147	5.13
3.35813	5.13
3.37480	5.13
3.39147	5.13
3.40813	5.13
3.42480	5.13
3.44147	5.12
3.45813	5.12
3.47480	5.12
3.49147	5.12
3.50813	5.12
3.52480	5.12
3.54147	5.12
3.55813	5.12
3.57480	5.12
3.59147	5.12
3.60813	5.12
3.62480	5.12
3.64147	5.12
3.65813	5.12
3.67480	5.12
3.69147	5.12
3.70813	5.12
3.72480	5.12
3.74147	5.12
3.75813	5.12
3.77480	5.12
3.79147	5.12
3.80813	5.12
3.82480	5.12
3.84147	5.12
3.85813	5.12
3.87480	5.12
3.89147	5.12
3.90813	5.12
3.92480	5.12
3.94147	5.12
3.95813	5.12
3.97480	5.12
3.99147	5.12

[Status Trace (Linear Velocity)]
Interval(msec)	1000
# of Points	240
Start Time(min)	0.008
End Time(min)	3.991
Intensity Units	
Intensity Multiplier	1
R.Time (min)	Intensity
0.00813	39.03
0.02480	37.29
0.04147	38.45
0.05813	39.77
0.07480	40.04
0.09147	39.08
0.10813	39.01
0.12480	39.03
0.14147	39.03
0.15813	39.03
0.17480	39.03
0.19147	39.03
0.20813	39.03
0.22480	39.03
0.24147	39.03
0.25813	39.03
0.27480	39.03
0.29147	39.03
0.30813	39.03
0.32480	39.03
0.34147	39.03
0.35813	39.03
0.37480	39.03
0.39147	39.03
0.40813	39.03
0.42480	39.03
0.44147	39.03
0.45813	39.03
0.47480	39.03
0.49147	39.03
0.50813	39.03
0.52480	39.03
0.54147	39.03
0.55813	39.03
0.57480	39.03
0.59147	39.03
0.60813	39.03
0.62480	39.03
0.64147	39.03
0.65813	39.03
0.67480	39.03
0.69147	39.03
0.70813	39.03
0.72480	39.03
0.74147	39.03
0.75813	39.03
0.77480	39.03
0.79147	39.02
0.80813	39.02
0.82480	39.02
0.84147	39.02
0.85813	39.02
0.87480	39.02
0.89147	39.02
0.90813	39.02
0.92480	39.02
0.94147	39.02
0.95813	39.02
0.97480	39.02
0.99147	39.02
1.00813	39.02
1.02480	39.02
1.04147	39.02
1.05813	39.02
1.07480	39.03
1.09147	39.03
1.10813	39.03
1.12480	39.03
1.14147	39.03
1.15813	39.03
1.17480	39.03
1.19147	39.03
1.20813	39.03
1.22480	39.03
1.24147	39.03
1.25813	39.03
1.27480	39.03
1.29147	39.03
1.30813	39.03
1.32480	39.03
1.34147	39.03
1.35813	39.03
1.37480	39.03
1.39147	39.03
1.40813	39.03
1.42480	39.03
1.44147	39.03
1.45813	39.03
1.47480	39.03
1.49147	39.03
1.50813	39.03
1.52480	39.03
1.54147	39.03
1.55813	39.02
1.57480	39.02
1.59147	39.03
1.60813	39.02
1.62480	39.01
1.64147	38.99
1.65813	38.97
1.67480	38.94
1.69147	38.91
1.70813	38.87
1.72480	38.84
1.74147	38.81
1.75813	38.78
1.77480	38.75
1.79147	38.71
1.80813	38.68
1.82480	38.65
1.84147	38.62
1.85813	38.59
1.87480	38.56
1.89147	38.52
1.90813	38.50
1.92480	38.46
1.94147	38.43
1.95813	38.41
1.97480	38.37
1.99147	38.34
2.00813	38.31
2.02480	38.28
2.04147	38.25
2.05813	38.22
2.07480	38.19
2.09147	38.16
2.10813	38.14
2.12480	38.10
2.14147	38.07
2.15813	38.05
2.17480	38.01
2.19147	37.98
2.20813	37.96
2.22480	37.92
2.24147	37.89
2.25813	37.87
2.27480	37.84
2.29147	37.81
2.30813	37.78
2.32480	37.75
2.34147	37.72
2.35813	37.69
2.37480	37.68
2.39147	37.67
2.40813	37.67
2.42480	37.68
2.44147	37.68
2.45813	37.67
2.47480	37.67
2.49147	37.67
2.50813	37.67
2.52480	37.66
2.54147	37.67
2.55813	37.67
2.57480	37.67
2.59147	37.66
2.60813	37.66
2.62480	37.66
2.64147	37.66
2.65813	37.66
2.67480	37.66
2.69147	37.66
2.70813	37.66
2.72480	37.66
2.74147	37.66
2.75813	37.66
2.77480	37.66
2.79147	37.66
2.80813	37.65
2.82480	37.65
2.84147	37.65
2.85813	37.65
2.87480	37.65
2.89147	37.65
2.90813	37.65
2.92480	37.65
2.94147	37.65
2.95813	37.65
2.97480	37.65
2.99147	37.65
3.00813	37.65
3.02480	37.65
3.04147	37.65
3.05813	37.65
3.07480	37.64
3.09147	37.64
3.10813	37.64
3.12480	37.64
3.14147	37.64
3.15813	37.64
3.17480	37.64
3.19147	37.64
3.20813	37.63
3.22480	37.63
3.24147	37.64
3.25813	37.64
3.27480	37.64
3.29147	37.64
3.30813	37.64
3.32480	37.64
3.34147	37.64
3.35813	37.64
3.37480	37.64
3.39147	37.64
3.40813	37.64
3.42480	37.64
3.44147	37.64
3.45813	37.64
3.47480	37.64
3.49147	37.64
3.50813	37.64
3.52480	37.64
3.54147	37.64
3.55813	37.64
3.57480	37.64
3.59147	37.64
3.60813	37.64
3.62480	37.64
3.64147	37.64
3.65813	37.64
3.67480	37.64
3.69147	37.64
3.70813	37.64
3.72480	37.64
3.74147	37.64
3.75813	37.64
3.77480	37.64
3.79147	37.64
3.80813	37.64
3.82480	37.64
3.84147	37.64
3.85813	37.64
3.87480	37.64
3.89147	37.64
3.90813	37.64
3.92480	37.64
3.94147	37.64
3.95813	37.64
3.97480	37.64
3.99147	37.64

