[Header]
Application Name	LabSolutions
Version	5.110
Data File Name	C:\Users\User\Desktop\GC Analyses\Jack\UIC Prairie Sampling\7.22.22\220722_099.gcd
Output Date	10/5/2022
Output Time	2:13:44 PM

[File Information]
Type	Data File
Generated	10/5/2022 1:02:43 PM
Generated by	System Administrator
Modified	10/5/2022 1:06:55 PM
Modified by	System Administrator

[Sample Information]
Operator Name	System Administrator
Acquired	10/5/2022 1:02:54 PM
Sample Type	1:Standard
Level	1
Sample Name	220722_UICPrairie
Sample ID	220722_UICPrairie
ISTD Amount1	1
ISTD Amount2	1
ISTD Amount3	1
ISTD Amount4	1
ISTD Amount5	1
ISTD Amount6	1
ISTD Amount7	1
ISTD Amount8	1
ISTD Amount9	1
ISTD Amount10	1
ISTD Amount11	1
ISTD Amount12	1
ISTD Amount13	1
ISTD Amount14	1
ISTD Amount15	1
ISTD Amount16	1
ISTD Amount17	1
ISTD Amount18	1
ISTD Amount19	1
ISTD Amount20	1
ISTD Amount21	1
ISTD Amount22	1
ISTD Amount23	1
ISTD Amount24	1
ISTD Amount25	1
ISTD Amount26	1
ISTD Amount27	1
ISTD Amount28	1
ISTD Amount29	1
ISTD Amount30	1
ISTD Amount31	1
ISTD Amount32	1
Sample Amount	1
Dilution Factor	1
Vial#	1
Injection Volume	1
Injection Count	1
Bar Code	

[Original Files]
Data File	C:\Users\User\Desktop\GC Analyses\Jack\UIC Prairie Sampling\7.22.22\220722_099.gcd
Method File	C:\LabSolutions\Data\GHG_4min_2022\ghg3_togas_w_acet_4 min_new_int.gcm
Batch File	
Report Format File	c:\LabSolutions\System\DEFAULT.lsr

[File Description]


[Configuration]
Instrument Name	C0B7VH3-Instrument1
Instrument #	1
Line #	1
# of Detectors	3
Detector ID	DET#1	DET#2	DET#3
Detector Name	FID	PTCD	ECD
# of Channels	1	1	1

[Peak Table(Ch1)]
# of Peaks	3
Peak#	R.Time	I.Time	F.Time	Area	Height	A/H	Conc.	Mark	ID#	Name	k'	Plate #	Plate Ht.	Tailing	Resolution	Sep.Factor	Area Ratio	Height Ratio	Conc. %	Norm Conc.
1	1.479	1.439	1.542	15491	6991	2.216	100.000	   	1	CO	0.000	8598	17.446	1.224	0.000	0.000	0	0	16.667	16.667
2	1.575	1.542	1.641	4549	2271	2.003	100.000	 V 	2	CH4	0.064	11378	13.184	1.124	1.552	0.000	0	0	16.667	16.667
3	2.000	1.952	2.315	2103693	1023922	2.055	400.000	   	3	CO2	0.352	17817	8.419	1.311	7.149	5.462	0	0	66.667	66.667

[Peak Table(Ch2)]
# of Peaks	0

[Peak Table(Ch3)]
# of Peaks	3
Peak#	R.Time	I.Time	F.Time	Area	Height	A/H	Conc.	Mark	ID#	Name	k'	Plate #	Plate Ht.	Tailing	Resolution	Sep.Factor	Area Ratio	Height Ratio	Conc. %	Norm Conc.
1	2.598	2.411	2.660	3127	409	7.652	0.000	   			0.000	3099	48.410	0.000	0.000	0.000	0	0	0.000	0.000
2	2.755	2.660	2.821	1718	220	7.824	0.076	 V 	1	N2O	0.061	156	961.147	0.000	0.295	0.000	0	0	7.593	7.593
3	2.887	2.821	3.258	20912	5038	4.151	0.924	 V 	1	N2O	0.112	12750	11.765	1.533	0.268	1.837	0	0	92.407	92.407

[Compound Results(Ch1)]
# of IDs	6
ID#	Name	R.Time	Area	Height	Conc.	Curve	3rd	2nd	1st	Constant	Area Ratio	Height Ratio	Conc. %	Norm Conc.
1	CO	1.479	15491	6991	100.000	Linear	0.000000e+00	0.000000e+00	1.549076e+002	0.000000e+00	0	0	16.667	16.667
2	CH4	1.575	4549	2271	100.000	Linear	0.000000e+00	0.000000e+00	4.548622e+001	0.000000e+00	0	0	16.667	16.667
3	CO2	2.000	2103693	1023922	400.000	Linear	0.000000e+00	0.000000e+00	5.259232e+003	0.000000e+00	0	0	66.667	66.667
4	Ethylene	0.000	0	0	0.000	Linear	0.000000e+00	0.000000e+00	0.000000e+00	0.000000e+00	0	0	0.000	0.000
5	Acetylene	0.000	0	0	0.000	Linear	0.000000e+00	0.000000e+00	0.000000e+00	0.000000e+00	0	0	0.000	0.000
6	Ethane	0.000	0	0	0.000	Linear	0.000000e+00	0.000000e+00	0.000000e+00	0.000000e+00	0	0	0.000	0.000

[Compound Results(Ch2)]
# of IDs	5
ID#	Name	R.Time	Area	Height	Conc.	Curve	3rd	2nd	1st	Constant	Area Ratio	Height Ratio	Conc. %	Norm Conc.
1	Hydrogen	0.000	0	0	0.000	Linear	0.000000e+00	0.000000e+00	0.000000e+00	0.000000e+00	0	0	0.000	0.000
2	Oxygen	0.000	0	0	0.000	Linear	0.000000e+00	0.000000e+00	0.000000e+00	0.000000e+00	0	0	0.000	0.000
3	Nitrogen	0.000	0	0	0.000	Linear	0.000000e+00	0.000000e+00	0.000000e+00	0.000000e+00	0	0	0.000	0.000
4	Methane	0.000	0	0	0.000	Linear	0.000000e+00	0.000000e+00	0.000000e+00	0.000000e+00	0	0	0.000	0.000
5	Carbon Monoxide	0.000	0	0	0.000	Linear	0.000000e+00	0.000000e+00	0.000000e+00	0.000000e+00	0	0	0.000	0.000

[Compound Results(Ch3)]
# of IDs	2
ID#	Name	R.Time	Area	Height	Conc.	Curve	3rd	2nd	1st	Constant	Area Ratio	Height Ratio	Conc. %	Norm Conc.
1	N2O	2.887	22630	5257	1.000	Linear	0.000000e+00	0.000000e+00	2.263024e+004	0.000000e+00	0	0	100.000	100.000
2	SF6	0.000	0	0	0.000	Linear	0.000000e+00	0.000000e+00	0.000000e+00	0.000000e+00	0	0	0.000	0.000

[Group Results(Ch1)]
# of Groups	0

[Group Results(Ch2)]
# of Groups	0

[Group Results(Ch3)]
# of Groups	0

[Chromatogram (Ch1)]
Interval(msec)	220
# of Points	1091
Start Time(min)	0.002
End Time(min)	3.998
R.Time (min)	Intensity
0.00167	7
0.00533	8
0.00900	7
0.01267	4
0.01633	-1
0.02000	-6
0.02367	-6
0.02733	-5
0.03100	-6
0.03467	-8
0.03833	-5
0.04200	-0
0.04567	2
0.04933	1
0.05300	-3
0.05667	-9
0.06033	-13
0.06400	-11
0.06767	-1
0.07133	9
0.07500	12
0.07867	8
0.08233	1
0.08600	-8
0.08967	-16
0.09333	-22
0.09700	-24
0.10067	-23
0.10433	-21
0.10800	-17
0.11167	-13
0.11533	-9
0.11900	-4
0.12267	2
0.12633	7
0.13000	7
0.13367	-1
0.13733	-13
0.14100	-25
0.14467	-35
0.14833	-43
0.15200	-45
0.15567	-43
0.15933	-36
0.16300	-29
0.16667	-28
0.17033	-32
0.17400	-38
0.17767	-41
0.18133	-37
0.18500	-29
0.18867	-22
0.19233	-19
0.19600	-19
0.19967	-20
0.20333	-20
0.20700	-20
0.21067	-19
0.21433	-18
0.21800	-21
0.22167	-29
0.22533	-33
0.22900	-32
0.23267	-32
0.23633	-34
0.24000	-38
0.24367	-42
0.24733	-44
0.25100	-44
0.25467	-40
0.25833	-35
0.26200	-33
0.26567	-31
0.26933	-25
0.27300	-16
0.27667	-12
0.28033	-13
0.28400	-17
0.28767	-22
0.29133	-27
0.29500	-31
0.29867	-30
0.30233	-32
0.30600	-35
0.30967	-38
0.31333	-39
0.31700	-42
0.32067	-42
0.32433	-40
0.32800	-37
0.33167	-36
0.33533	-37
0.33900	-38
0.34267	-39
0.34633	-39
0.35000	-39
0.35367	-37
0.35733	-33
0.36100	-29
0.36467	-27
0.36833	-27
0.37200	-29
0.37567	-31
0.37933	-32
0.38300	-30
0.38667	-27
0.39033	-28
0.39400	-33
0.39767	-43
0.40133	-52
0.40500	-60
0.40867	-62
0.41233	-62
0.41600	-56
0.41967	-46
0.42333	-39
0.42700	-37
0.43067	-37
0.43433	-42
0.43800	-51
0.44167	-61
0.44533	-65
0.44900	-60
0.45267	-50
0.45633	-42
0.46000	-42
0.46367	-46
0.46733	-51
0.47100	-53
0.47467	-52
0.47833	-46
0.48200	-41
0.48567	-38
0.48933	-42
0.49300	-45
0.49667	-42
0.50033	-38
0.50400	-34
0.50767	-33
0.51133	-37
0.51500	-39
0.51867	-42
0.52233	-44
0.52600	-47
0.52967	-53
0.53333	-58
0.53700	-61
0.54067	-61
0.54433	-62
0.54800	-62
0.55167	-62
0.55533	-59
0.55900	-55
0.56267	-51
0.56633	-46
0.57000	-40
0.57367	-33
0.57733	-30
0.58100	-33
0.58467	-38
0.58833	-44
0.59200	-48
0.59567	-53
0.59933	-60
0.60300	-64
0.60667	-64
0.61033	-60
0.61400	-55
0.61767	-52
0.62133	-47
0.62500	-42
0.62867	-38
0.63233	-38
0.63600	-41
0.63967	-45
0.64333	-49
0.64700	-52
0.65067	-54
0.65433	-56
0.65800	-56
0.66167	-56
0.66533	-53
0.66900	-49
0.67267	-45
0.67633	-41
0.68000	-40
0.68367	-37
0.68733	-34
0.69100	-33
0.69467	-36
0.69833	-42
0.70200	-49
0.70567	-53
0.70933	-57
0.71300	-62
0.71667	-65
0.72033	-65
0.72400	-63
0.72767	-56
0.73133	-50
0.73500	-50
0.73867	-57
0.74233	-63
0.74600	-67
0.74967	-73
0.75333	-78
0.75700	-82
0.76067	-81
0.76433	-77
0.76800	-72
0.77167	-67
0.77533	-60
0.77900	-53
0.78267	-50
0.78633	-53
0.79000	-58
0.79367	-64
0.79733	-68
0.80100	-70
0.80467	-68
0.80833	-68
0.81200	-68
0.81567	-66
0.81933	-63
0.82300	-63
0.82667	-64
0.83033	-67
0.83400	-69
0.83767	-68
0.84133	-66
0.84500	-63
0.84867	-62
0.85233	-63
0.85600	-66
0.85967	-67
0.86333	-65
0.86700	-62
0.87067	-57
0.87433	-52
0.87800	-48
0.88167	-50
0.88533	-52
0.88900	-52
0.89267	-54
0.89633	-60
0.90000	-66
0.90367	-72
0.90733	-77
0.91100	-76
0.91467	-76
0.91833	-78
0.92200	-78
0.92567	-76
0.92933	-73
0.93300	-71
0.93667	-69
0.94033	-68
0.94400	-69
0.94767	-70
0.95133	-73
0.95500	-73
0.95867	-70
0.96233	-72
0.96600	-78
0.96967	-81
0.97333	-83
0.97700	-83
0.98067	-82
0.98433	-81
0.98800	-78
0.99167	-77
0.99533	-75
0.99900	-74
1.00267	-75
1.00633	-75
1.01000	-77
1.01367	-79
1.01733	-79
1.02100	-81
1.02467	-83
1.02833	-83
1.03200	-80
1.03567	-78
1.03933	-77
1.04300	-73
1.04667	-66
1.05033	-64
1.05400	-66
1.05767	-70
1.06133	-75
1.06500	-80
1.06867	-84
1.07233	-87
1.07600	-87
1.07967	-85
1.08333	-80
1.08700	-77
1.09067	-73
1.09433	-70
1.09800	-67
1.10167	-62
1.10533	-61
1.10900	-64
1.11267	-69
1.11633	-72
1.12000	-73
1.12367	-77
1.12733	-81
1.13100	-83
1.13467	-84
1.13833	-84
1.14200	-81
1.14567	-76
1.14933	-72
1.15300	-68
1.15667	-66
1.16033	-67
1.16400	-68
1.16767	-69
1.17133	-69
1.17500	-72
1.17867	-76
1.18233	-79
1.18600	-80
1.18967	-79
1.19333	-76
1.19700	-75
1.20067	-75
1.20433	-75
1.20800	-77
1.21167	-79
1.21533	-81
1.21900	-83
1.22267	-82
1.22633	-80
1.23000	-78
1.23367	-78
1.23733	-82
1.24100	-83
1.24467	-83
1.24833	-83
1.25200	-83
1.25567	-83
1.25933	-82
1.26300	-81
1.26667	-80
1.27033	-77
1.27400	-73
1.27767	-69
1.28133	-67
1.28500	-68
1.28867	-70
1.29233	-72
1.29600	-72
1.29967	-71
1.30333	-73
1.30700	-76
1.31067	-76
1.31433	-73
1.31800	-69
1.32167	-67
1.32533	-67
1.32900	-70
1.33267	-75
1.33633	-81
1.34000	-86
1.34367	-89
1.34733	-91
1.35100	-93
1.35467	-93
1.35833	-94
1.36200	-93
1.36567	-90
1.36933	-88
1.37300	-87
1.37667	-86
1.38033	-88
1.38400	-90
1.38767	-90
1.39133	-88
1.39500	-87
1.39867	-87
1.40233	-89
1.40600	-91
1.40967	-89
1.41333	-84
1.41700	-77
1.42067	-78
1.42433	-87
1.42800	-86
1.43167	-83
1.43533	-83
1.43900	-82
1.44267	-59
1.44633	57
1.45000	358
1.45367	894
1.45733	1742
1.46100	2902
1.46467	4176
1.46833	5322
1.47200	6194
1.47567	6732
1.47933	6902
1.48300	6675
1.48667	6064
1.49033	5167
1.49400	4148
1.49767	3172
1.50133	2339
1.50500	1676
1.50867	1175
1.51233	805
1.51600	548
1.51967	379
1.52333	255
1.52700	162
1.53067	95
1.53433	38
1.53800	-7
1.54167	-28
1.54533	7
1.54900	156
1.55267	453
1.55633	865
1.56000	1300
1.56367	1682
1.56733	1967
1.57100	2138
1.57467	2164
1.57833	2019
1.58200	1727
1.58567	1357
1.58933	989
1.59300	673
1.59667	425
1.60033	257
1.60400	137
1.60767	53
1.61133	-3
1.61500	-39
1.61867	-64
1.62233	-81
1.62600	-91
1.62967	-98
1.63333	-104
1.63700	-111
1.64067	-119
1.64433	-124
1.64800	-125
1.65167	-124
1.65533	-122
1.65900	-122
1.66267	-118
1.66633	-111
1.67000	-108
1.67367	-106
1.67733	-101
1.68100	-101
1.68467	-104
1.68833	-108
1.69200	-109
1.69567	-107
1.69933	-105
1.70300	-107
1.70667	-110
1.71033	-111
1.71400	-109
1.71767	-107
1.72133	-108
1.72500	-111
1.72867	-114
1.73233	-117
1.73600	-118
1.73967	-116
1.74333	-114
1.74700	-113
1.75067	-114
1.75433	-114
1.75800	-112
1.76167	-112
1.76533	-112
1.76900	-111
1.77267	-106
1.77633	-101
1.78000	-97
1.78367	-97
1.78733	-97
1.79100	-101
1.79467	-108
1.79833	-117
1.80200	-125
1.80567	-128
1.80933	-129
1.81300	-128
1.81667	-127
1.82033	-122
1.82400	-118
1.82767	-115
1.83133	-111
1.83500	-106
1.83867	-104
1.84233	-105
1.84600	-107
1.84967	-109
1.85333	-108
1.85700	-104
1.86067	-102
1.86433	-101
1.86800	-98
1.87167	-98
1.87533	-98
1.87900	-98
1.88267	-100
1.88633	-104
1.89000	-106
1.89367	-107
1.89733	-106
1.90100	-106
1.90467	-106
1.90833	-104
1.91200	-103
1.91567	-105
1.91933	-103
1.92300	-97
1.92667	-90
1.93033	-86
1.93400	-85
1.93767	-85
1.94133	-85
1.94500	-85
1.94867	-84
1.95233	-81
1.95600	-66
1.95967	41
1.96333	700
1.96700	3946
1.97067	16129
1.97433	51008
1.97800	128027
1.98167	260190
1.98533	440036
1.98900	638902
1.99267	820566
1.99633	955251
2.00000	1023872
2.00367	1018486
2.00733	943923
2.01100	817584
2.01467	664937
2.01833	511556
2.02200	375924
2.02567	266708
2.02933	184599
2.03300	125835
2.03667	85197
2.04033	57728
2.04400	39415
2.04767	27286
2.05133	19249
2.05500	13896
2.05867	10296
2.06233	7843
2.06600	6140
2.06967	4929
2.07333	4044
2.07700	3380
2.08067	2874
2.08433	2485
2.08800	2177
2.09167	1925
2.09533	1717
2.09900	1545
2.10267	1402
2.10633	1280
2.11000	1175
2.11367	1084
2.11733	1008
2.12100	940
2.12467	877
2.12833	820
2.13200	767
2.13567	720
2.13933	681
2.14300	650
2.14667	621
2.15033	595
2.15400	571
2.15767	546
2.16133	526
2.16500	508
2.16867	490
2.17233	471
2.17600	450
2.17967	430
2.18333	410
2.18700	387
2.19067	365
2.19433	349
2.19800	342
2.20167	338
2.20533	329
2.20900	316
2.21267	303
2.21633	294
2.22000	286
2.22367	280
2.22733	278
2.23100	275
2.23467	272
2.23833	270
2.24200	263
2.24567	254
2.24933	246
2.25300	236
2.25667	226
2.26033	217
2.26400	211
2.26767	205
2.27133	201
2.27500	198
2.27867	188
2.28233	178
2.28600	170
2.28967	163
2.29333	160
2.29700	159
2.30067	158
2.30433	157
2.30800	157
2.31167	154
2.31533	156
2.31900	159
2.32267	158
2.32633	148
2.33000	138
2.33367	132
2.33733	131
2.34100	136
2.34467	145
2.34833	151
2.35200	153
2.35567	152
2.35933	151
2.36300	149
2.36667	146
2.37033	141
2.37400	136
2.37767	134
2.38133	135
2.38500	138
2.38867	139
2.39233	135
2.39600	128
2.39967	122
2.40333	120
2.40700	121
2.41067	125
2.41433	127
2.41800	125
2.42167	123
2.42533	120
2.42900	119
2.43267	116
2.43633	111
2.44000	109
2.44367	110
2.44733	111
2.45100	110
2.45467	107
2.45833	106
2.46200	108
2.46567	108
2.46933	109
2.47300	111
2.47667	113
2.48033	117
2.48400	118
2.48767	114
2.49133	109
2.49500	104
2.49867	100
2.50233	96
2.50600	94
2.50967	94
2.51333	96
2.51700	101
2.52067	107
2.52433	114
2.52800	119
2.53167	118
2.53533	114
2.53900	110
2.54267	104
2.54633	97
2.55000	91
2.55367	86
2.55733	82
2.56100	82
2.56467	84
2.56833	85
2.57200	83
2.57567	78
2.57933	72
2.58300	68
2.58667	67
2.59033	66
2.59400	66
2.59767	68
2.60133	67
2.60500	64
2.60867	63
2.61233	63
2.61600	64
2.61967	69
2.62333	75
2.62700	73
2.63067	66
2.63433	56
2.63800	50
2.64167	46
2.64533	46
2.64900	51
2.65267	59
2.65633	65
2.66000	65
2.66367	62
2.66733	63
2.67100	58
2.67467	54
2.67833	61
2.68200	64
2.68567	65
2.68933	65
2.69300	67
2.69667	70
2.70033	66
2.70400	58
2.70767	62
2.71133	65
2.71500	67
2.71867	64
2.72233	60
2.72600	54
2.72967	50
2.73333	52
2.73700	58
2.74067	64
2.74433	70
2.74800	72
2.75167	74
2.75533	75
2.75900	75
2.76267	74
2.76633	73
2.77000	72
2.77367	70
2.77733	67
2.78100	64
2.78467	59
2.78833	53
2.79200	48
2.79567	45
2.79933	45
2.80300	47
2.80667	48
2.81033	50
2.81400	52
2.81767	53
2.82133	53
2.82500	54
2.82867	56
2.83233	54
2.83600	51
2.83967	52
2.84333	52
2.84700	50
2.85067	50
2.85433	54
2.85800	58
2.86167	60
2.86533	60
2.86900	58
2.87267	57
2.87633	54
2.88000	51
2.88367	49
2.88733	46
2.89100	46
2.89467	46
2.89833	47
2.90200	48
2.90567	49
2.90933	50
2.91300	52
2.91667	51
2.92033	51
2.92400	49
2.92767	50
2.93133	52
2.93500	54
2.93867	56
2.94233	58
2.94600	57
2.94967	60
2.95333	66
2.95700	72
2.96067	74
2.96433	70
2.96800	64
2.97167	61
2.97533	58
2.97900	55
2.98267	51
2.98633	48
2.99000	47
2.99367	48
2.99733	52
3.00100	57
3.00467	59
3.00833	57
3.01200	55
3.01567	55
3.01933	54
3.02300	53
3.02667	51
3.03033	50
3.03400	49
3.03767	49
3.04133	54
3.04500	57
3.04867	58
3.05233	58
3.05600	57
3.05967	55
3.06333	54
3.06700	50
3.07067	48
3.07433	50
3.07800	54
3.08167	47
3.08533	30
3.08900	29
3.09267	38
3.09633	49
3.10000	55
3.10367	59
3.10733	61
3.11100	57
3.11467	49
3.11833	37
3.12200	24
3.12567	15
3.12933	8
3.13300	2
3.13667	-1
3.14033	-2
3.14400	0
3.14767	7
3.15133	12
3.15500	16
3.15867	20
3.16233	28
3.16600	35
3.16967	36
3.17333	36
3.17700	31
3.18067	23
3.18433	18
3.18800	19
3.19167	24
3.19533	30
3.19900	34
3.20267	37
3.20633	38
3.21000	39
3.21367	38
3.21733	33
3.22100	24
3.22467	14
3.22833	9
3.23200	11
3.23567	15
3.23933	18
3.24300	21
3.24667	25
3.25033	29
3.25400	32
3.25767	33
3.26133	34
3.26500	36
3.26867	34
3.27233	31
3.27600	29
3.27967	30
3.28333	32
3.28700	33
3.29067	28
3.29433	22
3.29800	27
3.30167	36
3.30533	43
3.30900	49
3.31267	52
3.31633	53
3.32000	52
3.32367	47
3.32733	38
3.33100	29
3.33467	21
3.33833	14
3.34200	12
3.34567	13
3.34933	15
3.35300	19
3.35667	22
3.36033	23
3.36400	24
3.36767	27
3.37133	32
3.37500	38
3.37867	42
3.38233	40
3.38600	39
3.38967	38
3.39333	39
3.39700	42
3.40067	46
3.40433	48
3.40800	43
3.41167	36
3.41533	31
3.41900	32
3.42267	31
3.42633	25
3.43000	18
3.43367	14
3.43733	14
3.44100	15
3.44467	17
3.44833	17
3.45200	17
3.45567	17
3.45933	17
3.46300	18
3.46667	20
3.47033	20
3.47400	19
3.47767	17
3.48133	14
3.48500	10
3.48867	7
3.49233	7
3.49600	10
3.49967	17
3.50333	27
3.50700	36
3.51067	44
3.51433	46
3.51800	44
3.52167	42
3.52533	40
3.52900	40
3.53267	43
3.53633	47
3.54000	45
3.54367	36
3.54733	24
3.55100	15
3.55467	7
3.55833	3
3.56200	3
3.56567	1
3.56933	-3
3.57300	-5
3.57667	-5
3.58033	-3
3.58400	-2
3.58767	-4
3.59133	-8
3.59500	-10
3.59867	-9
3.60233	-10
3.60600	-8
3.60967	-1
3.61333	6
3.61700	12
3.62067	13
3.62433	12
3.62800	9
3.63167	5
3.63533	3
3.63900	6
3.64267	10
3.64633	14
3.65000	17
3.65367	19
3.65733	21
3.66100	18
3.66467	11
3.66833	4
3.67200	-1
3.67567	-3
3.67933	-3
3.68300	-0
3.68667	3
3.69033	7
3.69400	10
3.69767	12
3.70133	12
3.70500	11
3.70867	7
3.71233	4
3.71600	3
3.71967	2
3.72333	2
3.72700	3
3.73067	4
3.73433	7
3.73800	11
3.74167	15
3.74533	16
3.74900	16
3.75267	13
3.75633	8
3.76000	2
3.76367	-5
3.76733	-10
3.77100	-10
3.77467	-9
3.77833	-8
3.78200	-6
3.78567	-3
3.78933	-3
3.79300	-3
3.79667	-2
3.80033	-1
3.80400	1
3.80767	2
3.81133	3
3.81500	2
3.81867	1
3.82233	3
3.82600	6
3.82967	5
3.83333	4
3.83700	7
3.84067	12
3.84433	17
3.84800	18
3.85167	15
3.85533	11
3.85900	5
3.86267	-3
3.86633	-14
3.87000	-19
3.87367	-22
3.87733	-25
3.88100	-28
3.88467	-27
3.88833	-20
3.89200	-12
3.89567	-6
3.89933	-6
3.90300	-10
3.90667	-17
3.91033	-21
3.91400	-20
3.91767	-16
3.92133	-10
3.92500	-7
3.92867	-3
3.93233	-1
3.93600	-2
3.93967	-1
3.94333	-2
3.94700	-2
3.95067	-3
3.95433	-3
3.95800	-2
3.96167	-5
3.96533	-10
3.96900	-13
3.97267	-12
3.97633	-10
3.98000	-9
3.98367	-10
3.98733	-16
3.99100	-23
3.99467	-27
3.99833	-33

[Chromatogram (Ch2)]
Interval(msec)	220
# of Points	1091
Start Time(min)	0.002
End Time(min)	3.998
R.Time (min)	Intensity
0.00167	0
0.00533	0
0.00900	0
0.01267	1
0.01633	1
0.02000	1
0.02367	2
0.02733	2
0.03100	3
0.03467	3
0.03833	3
0.04200	4
0.04567	4
0.04933	4
0.05300	5
0.05667	5
0.06033	4
0.06400	4
0.06767	4
0.07133	4
0.07500	4
0.07867	4
0.08233	3
0.08600	3
0.08967	3
0.09333	3
0.09700	3
0.10067	3
0.10433	3
0.10800	3
0.11167	3
0.11533	3
0.11900	4
0.12267	4
0.12633	4
0.13000	4
0.13367	3
0.13733	3
0.14100	2
0.14467	2
0.14833	1
0.15200	1
0.15567	0
0.15933	-0
0.16300	-1
0.16667	-1
0.17033	-2
0.17400	-2
0.17767	-2
0.18133	-2
0.18500	-2
0.18867	-2
0.19233	-2
0.19600	-1
0.19967	-1
0.20333	-0
0.20700	0
0.21067	0
0.21433	1
0.21800	1
0.22167	1
0.22533	1
0.22900	1
0.23267	0
0.23633	0
0.24000	0
0.24367	1
0.24733	1
0.25100	2
0.25467	2
0.25833	3
0.26200	3
0.26567	3
0.26933	4
0.27300	4
0.27667	4
0.28033	4
0.28400	4
0.28767	4
0.29133	4
0.29500	4
0.29867	4
0.30233	4
0.30600	4
0.30967	4
0.31333	4
0.31700	4
0.32067	4
0.32433	4
0.32800	4
0.33167	4
0.33533	4
0.33900	4
0.34267	3
0.34633	3
0.35000	3
0.35367	3
0.35733	2
0.36100	2
0.36467	1
0.36833	1
0.37200	0
0.37567	-0
0.37933	-0
0.38300	-1
0.38667	-1
0.39033	-1
0.39400	-1
0.39767	-1
0.40133	-1
0.40500	-1
0.40867	-1
0.41233	-1
0.41600	-0
0.41967	-0
0.42333	-0
0.42700	-0
0.43067	-0
0.43433	0
0.43800	1
0.44167	1
0.44533	1
0.44900	1
0.45267	1
0.45633	2
0.46000	2
0.46367	2
0.46733	2
0.47100	2
0.47467	2
0.47833	2
0.48200	2
0.48567	1
0.48933	1
0.49300	1
0.49667	1
0.50033	1
0.50400	1
0.50767	1
0.51133	1
0.51500	1
0.51867	1
0.52233	0
0.52600	0
0.52967	0
0.53333	0
0.53700	0
0.54067	-0
0.54433	-0
0.54800	-0
0.55167	-0
0.55533	-0
0.55900	-0
0.56267	-1
0.56633	-1
0.57000	-1
0.57367	-1
0.57733	-2
0.58100	-2
0.58467	-3
0.58833	-3
0.59200	-4
0.59567	-4
0.59933	-4
0.60300	-5
0.60667	-5
0.61033	-5
0.61400	-6
0.61767	-6
0.62133	-6
0.62500	-6
0.62867	-6
0.63233	-6
0.63600	-6
0.63967	-6
0.64333	-5
0.64700	-5
0.65067	-4
0.65433	-4
0.65800	-3
0.66167	-3
0.66533	-2
0.66900	-2
0.67267	-1
0.67633	-1
0.68000	-1
0.68367	-1
0.68733	-1
0.69100	-1
0.69467	-1
0.69833	-1
0.70200	-0
0.70567	1
0.70933	1
0.71300	2
0.71667	3
0.72033	3
0.72400	4
0.72767	4
0.73133	4
0.73500	5
0.73867	5
0.74233	5
0.74600	5
0.74967	5
0.75333	5
0.75700	5
0.76067	4
0.76433	3
0.76800	3
0.77167	2
0.77533	1
0.77900	1
0.78267	0
0.78633	-0
0.79000	-1
0.79367	-1
0.79733	-1
0.80100	-1
0.80467	-0
0.80833	-0
0.81200	-0
0.81567	-0
0.81933	-0
0.82300	-0
0.82667	-0
0.83033	0
0.83400	0
0.83767	0
0.84133	1
0.84500	1
0.84867	1
0.85233	2
0.85600	2
0.85967	2
0.86333	2
0.86700	2
0.87067	2
0.87433	2
0.87800	2
0.88167	2
0.88533	3
0.88900	2
0.89267	2
0.89633	2
0.90000	2
0.90367	2
0.90733	2
0.91100	2
0.91467	2
0.91833	2
0.92200	3
0.92567	3
0.92933	3
0.93300	3
0.93667	3
0.94033	3
0.94400	2
0.94767	2
0.95133	2
0.95500	2
0.95867	2
0.96233	2
0.96600	1
0.96967	2
0.97333	2
0.97700	2
0.98067	1
0.98433	1
0.98800	1
0.99167	1
0.99533	0
0.99900	-0
1.00267	-0
1.00633	-0
1.01000	-1
1.01367	-1
1.01733	-1
1.02100	-1
1.02467	-1
1.02833	-1
1.03200	-1
1.03567	-1
1.03933	-1
1.04300	-1
1.04667	-1
1.05033	-1
1.05400	-2
1.05767	-2
1.06133	-2
1.06500	-2
1.06867	-2
1.07233	-2
1.07600	-2
1.07967	-2
1.08333	-2
1.08700	-2
1.09067	-2
1.09433	-2
1.09800	-2
1.10167	-2
1.10533	-2
1.10900	-2
1.11267	-2
1.11633	-2
1.12000	-2
1.12367	-3
1.12733	-3
1.13100	-3
1.13467	-3
1.13833	-3
1.14200	-3
1.14567	-3
1.14933	-3
1.15300	-2
1.15667	-2
1.16033	-2
1.16400	-2
1.16767	-2
1.17133	-2
1.17500	-1
1.17867	-1
1.18233	-1
1.18600	-1
1.18967	-0
1.19333	-0
1.19700	0
1.20067	0
1.20433	1
1.20800	1
1.21167	1
1.21533	1
1.21900	0
1.22267	0
1.22633	-0
1.23000	-1
1.23367	-1
1.23733	-2
1.24100	-2
1.24467	-2
1.24833	-3
1.25200	-3
1.25567	-3
1.25933	-4
1.26300	-4
1.26667	-4
1.27033	-5
1.27400	-5
1.27767	-5
1.28133	-5
1.28500	-5
1.28867	-5
1.29233	-5
1.29600	-4
1.29967	-4
1.30333	-3
1.30700	-3
1.31067	-3
1.31433	-2
1.31800	-2
1.32167	-2
1.32533	-1
1.32900	-1
1.33267	-1
1.33633	-1
1.34000	-0
1.34367	-0
1.34733	0
1.35100	1
1.35467	1
1.35833	1
1.36200	2
1.36567	2
1.36933	2
1.37300	2
1.37667	2
1.38033	2
1.38400	1
1.38767	1
1.39133	1
1.39500	1
1.39867	1
1.40233	1
1.40600	1
1.40967	1
1.41333	1
1.41700	1
1.42067	1
1.42433	1
1.42800	1
1.43167	1
1.43533	1
1.43900	1
1.44267	1
1.44633	1
1.45000	0
1.45367	0
1.45733	-0
1.46100	-0
1.46467	-1
1.46833	-1
1.47200	-1
1.47567	-0
1.47933	-0
1.48300	-0
1.48667	0
1.49033	0
1.49400	0
1.49767	0
1.50133	1
1.50500	0
1.50867	0
1.51233	-0
1.51600	-0
1.51967	-1
1.52333	-1
1.52700	-1
1.53067	-2
1.53433	-2
1.53800	-2
1.54167	-3
1.54533	-3
1.54900	-3
1.55267	-3
1.55633	-3
1.56000	-3
1.56367	-3
1.56733	-3
1.57100	-2
1.57467	-2
1.57833	-2
1.58200	-2
1.58567	-2
1.58933	-2
1.59300	-2
1.59667	-3
1.60033	-4
1.60400	-5
1.60767	-7
1.61133	-9
1.61500	-11
1.61867	-13
1.62233	-15
1.62600	-18
1.62967	-21
1.63333	-25
1.63700	-28
1.64067	-31
1.64433	-35
1.64800	-38
1.65167	-41
1.65533	-45
1.65900	-49
1.66267	-53
1.66633	-57
1.67000	-62
1.67367	-67
1.67733	-73
1.68100	-78
1.68467	-83
1.68833	-88
1.69200	-93
1.69567	-97
1.69933	-100
1.70300	-103
1.70667	-106
1.71033	-108
1.71400	-110
1.71767	-111
1.72133	-111
1.72500	-112
1.72867	-112
1.73233	-112
1.73600	-112
1.73967	-112
1.74333	-111
1.74700	-111
1.75067	-111
1.75433	-111
1.75800	-112
1.76167	-112
1.76533	-113
1.76900	-115
1.77267	-116
1.77633	-118
1.78000	-119
1.78367	-120
1.78733	-121
1.79100	-121
1.79467	-122
1.79833	-122
1.80200	-122
1.80567	-122
1.80933	-122
1.81300	-121
1.81667	-121
1.82033	-120
1.82400	-119
1.82767	-118
1.83133	-118
1.83500	-118
1.83867	-118
1.84233	-118
1.84600	-118
1.84967	-118
1.85333	-119
1.85700	-120
1.86067	-120
1.86433	-121
1.86800	-121
1.87167	-121
1.87533	-121
1.87900	-122
1.88267	-122
1.88633	-122
1.89000	-123
1.89367	-123
1.89733	-123
1.90100	-123
1.90467	-122
1.90833	-122
1.91200	-121
1.91567	-120
1.91933	-120
1.92300	-119
1.92667	-118
1.93033	-117
1.93400	-117
1.93767	-116
1.94133	-116
1.94500	-116
1.94867	-116
1.95233	-116
1.95600	-116
1.95967	-116
1.96333	-116
1.96700	-116
1.97067	-115
1.97433	-116
1.97800	-116
1.98167	-115
1.98533	-115
1.98900	-115
1.99267	-114
1.99633	-114
2.00000	-114
2.00367	-113
2.00733	-113
2.01100	-113
2.01467	-114
2.01833	-114
2.02200	-115
2.02567	-115
2.02933	-115
2.03300	-114
2.03667	-113
2.04033	-112
2.04400	-111
2.04767	-109
2.05133	-108
2.05500	-108
2.05867	-107
2.06233	-107
2.06600	-107
2.06967	-107
2.07333	-107
2.07700	-107
2.08067	-107
2.08433	-107
2.08800	-107
2.09167	-106
2.09533	-106
2.09900	-105
2.10267	-104
2.10633	-103
2.11000	-102
2.11367	-102
2.11733	-102
2.12100	-102
2.12467	-102
2.12833	-101
2.13200	-102
2.13567	-102
2.13933	-102
2.14300	-102
2.14667	-101
2.15033	-101
2.15400	-101
2.15767	-101
2.16133	-100
2.16500	-100
2.16867	-100
2.17233	-100
2.17600	-100
2.17967	-99
2.18333	-99
2.18700	-99
2.19067	-99
2.19433	-100
2.19800	-100
2.20167	-99
2.20533	-99
2.20900	-98
2.21267	-98
2.21633	-97
2.22000	-97
2.22367	-97
2.22733	-97
2.23100	-97
2.23467	-97
2.23833	-97
2.24200	-96
2.24567	-95
2.24933	-95
2.25300	-94
2.25667	-94
2.26033	-93
2.26400	-93
2.26767	-93
2.27133	-93
2.27500	-93
2.27867	-93
2.28233	-94
2.28600	-94
2.28967	-94
2.29333	-94
2.29700	-94
2.30067	-94
2.30433	-93
2.30800	-93
2.31167	-92
2.31533	-91
2.31900	-90
2.32267	-89
2.32633	-88
2.33000	-87
2.33367	-87
2.33733	-86
2.34100	-86
2.34467	-87
2.34833	-87
2.35200	-88
2.35567	-88
2.35933	-88
2.36300	-87
2.36667	-86
2.37033	-84
2.37400	-82
2.37767	-79
2.38133	-76
2.38500	-72
2.38867	-68
2.39233	-63
2.39600	-58
2.39967	-52
2.40333	-47
2.40700	-43
2.41067	-39
2.41433	-35
2.41800	-31
2.42167	-28
2.42533	-25
2.42900	-22
2.43267	-19
2.43633	-17
2.44000	-15
2.44367	-13
2.44733	-11
2.45100	-9
2.45467	-8
2.45833	-6
2.46200	-4
2.46567	-3
2.46933	-2
2.47300	-1
2.47667	-1
2.48033	-0
2.48400	1
2.48767	2
2.49133	3
2.49500	4
2.49867	5
2.50233	5
2.50600	6
2.50967	6
2.51333	7
2.51700	8
2.52067	9
2.52433	10
2.52800	10
2.53167	11
2.53533	11
2.53900	12
2.54267	12
2.54633	12
2.55000	13
2.55367	13
2.55733	13
2.56100	13
2.56467	13
2.56833	13
2.57200	14
2.57567	14
2.57933	14
2.58300	14
2.58667	14
2.59033	14
2.59400	14
2.59767	14
2.60133	14
2.60500	14
2.60867	14
2.61233	14
2.61600	15
2.61967	16
2.62333	17
2.62700	17
2.63067	17
2.63433	17
2.63800	17
2.64167	17
2.64533	16
2.64900	16
2.65267	16
2.65633	16
2.66000	16
2.66367	17
2.66733	17
2.67100	18
2.67467	19
2.67833	20
2.68200	20
2.68567	21
2.68933	21
2.69300	22
2.69667	22
2.70033	22
2.70400	23
2.70767	23
2.71133	22
2.71500	22
2.71867	22
2.72233	22
2.72600	22
2.72967	22
2.73333	22
2.73700	22
2.74067	22
2.74433	22
2.74800	23
2.75167	23
2.75533	23
2.75900	23
2.76267	23
2.76633	23
2.77000	23
2.77367	23
2.77733	24
2.78100	24
2.78467	24
2.78833	24
2.79200	24
2.79567	23
2.79933	23
2.80300	23
2.80667	23
2.81033	23
2.81400	23
2.81767	23
2.82133	23
2.82500	23
2.82867	23
2.83233	23
2.83600	23
2.83967	23
2.84333	23
2.84700	22
2.85067	21
2.85433	19
2.85800	14
2.86167	8
2.86533	-2
2.86900	-15
2.87267	-31
2.87633	-52
2.88000	-77
2.88367	-106
2.88733	-138
2.89100	-175
2.89467	-214
2.89833	-257
2.90200	-301
2.90567	-348
2.90933	-396
2.91300	-446
2.91667	-496
2.92033	-545
2.92400	-595
2.92767	-645
2.93133	-693
2.93500	-741
2.93867	-789
2.94233	-839
2.94600	-894
2.94967	-955
2.95333	-1016
2.95700	-1065
2.96067	-1092
2.96433	-1093
2.96800	-1068
2.97167	-1021
2.97533	-958
2.97900	-885
2.98267	-805
2.98633	-725
2.99000	-646
2.99367	-571
2.99733	-501
3.00100	-437
3.00467	-379
3.00833	-327
3.01200	-281
3.01567	-241
3.01933	-205
3.02300	-174
3.02667	-148
3.03033	-125
3.03400	-105
3.03767	-88
3.04133	-74
3.04500	-62
3.04867	-51
3.05233	-42
3.05600	-34
3.05967	-27
3.06333	-21
3.06700	-17
3.07067	-12
3.07433	-9
3.07800	-6
3.08167	-3
3.08533	-1
3.08900	1
3.09267	2
3.09633	4
3.10000	6
3.10367	7
3.10733	8
3.11100	9
3.11467	10
3.11833	11
3.12200	12
3.12567	12
3.12933	13
3.13300	13
3.13667	14
3.14033	14
3.14400	15
3.14767	15
3.15133	15
3.15500	16
3.15867	16
3.16233	17
3.16600	17
3.16967	17
3.17333	17
3.17700	18
3.18067	18
3.18433	18
3.18800	18
3.19167	19
3.19533	19
3.19900	19
3.20267	19
3.20633	19
3.21000	19
3.21367	19
3.21733	19
3.22100	20
3.22467	20
3.22833	20
3.23200	20
3.23567	20
3.23933	21
3.24300	21
3.24667	22
3.25033	22
3.25400	22
3.25767	23
3.26133	23
3.26500	23
3.26867	24
3.27233	25
3.27600	25
3.27967	25
3.28333	25
3.28700	26
3.29067	26
3.29433	26
3.29800	26
3.30167	26
3.30533	26
3.30900	26
3.31267	26
3.31633	26
3.32000	26
3.32367	26
3.32733	26
3.33100	26
3.33467	26
3.33833	26
3.34200	26
3.34567	26
3.34933	26
3.35300	25
3.35667	25
3.36033	26
3.36400	26
3.36767	26
3.37133	26
3.37500	26
3.37867	26
3.38233	26
3.38600	26
3.38967	26
3.39333	26
3.39700	26
3.40067	26
3.40433	25
3.40800	25
3.41167	25
3.41533	25
3.41900	25
3.42267	25
3.42633	25
3.43000	25
3.43367	25
3.43733	25
3.44100	25
3.44467	25
3.44833	26
3.45200	26
3.45567	26
3.45933	26
3.46300	26
3.46667	26
3.47033	26
3.47400	26
3.47767	26
3.48133	26
3.48500	26
3.48867	26
3.49233	26
3.49600	25
3.49967	25
3.50333	25
3.50700	25
3.51067	25
3.51433	25
3.51800	25
3.52167	25
3.52533	25
3.52900	25
3.53267	25
3.53633	25
3.54000	25
3.54367	25
3.54733	25
3.55100	25
3.55467	25
3.55833	25
3.56200	24
3.56567	24
3.56933	24
3.57300	24
3.57667	24
3.58033	24
3.58400	24
3.58767	24
3.59133	24
3.59500	24
3.59867	24
3.60233	24
3.60600	24
3.60967	24
3.61333	24
3.61700	24
3.62067	24
3.62433	24
3.62800	24
3.63167	24
3.63533	24
3.63900	25
3.64267	25
3.64633	25
3.65000	25
3.65367	25
3.65733	26
3.66100	26
3.66467	26
3.66833	27
3.67200	27
3.67567	27
3.67933	27
3.68300	27
3.68667	28
3.69033	28
3.69400	28
3.69767	28
3.70133	28
3.70500	28
3.70867	28
3.71233	28
3.71600	28
3.71967	28
3.72333	29
3.72700	29
3.73067	29
3.73433	29
3.73800	28
3.74167	28
3.74533	28
3.74900	28
3.75267	28
3.75633	28
3.76000	28
3.76367	28
3.76733	28
3.77100	28
3.77467	28
3.77833	28
3.78200	27
3.78567	27
3.78933	27
3.79300	27
3.79667	27
3.80033	27
3.80400	27
3.80767	28
3.81133	28
3.81500	27
3.81867	27
3.82233	27
3.82600	27
3.82967	27
3.83333	27
3.83700	27
3.84067	27
3.84433	27
3.84800	27
3.85167	27
3.85533	27
3.85900	27
3.86267	27
3.86633	27
3.87000	27
3.87367	27
3.87733	27
3.88100	27
3.88467	27
3.88833	26
3.89200	26
3.89567	25
3.89933	25
3.90300	25
3.90667	25
3.91033	26
3.91400	26
3.91767	26
3.92133	26
3.92500	26
3.92867	26
3.93233	25
3.93600	25
3.93967	25
3.94333	25
3.94700	25
3.95067	25
3.95433	25
3.95800	25
3.96167	25
3.96533	25
3.96900	25
3.97267	25
3.97633	25
3.98000	25
3.98367	25
3.98733	25
3.99100	25
3.99467	25
3.99833	25

[Chromatogram (Ch3)]
Interval(msec)	220
# of Points	1091
Start Time(min)	0.002
End Time(min)	3.998
R.Time (min)	Intensity
0.00167	3
0.00533	6
0.00900	8
0.01267	8
0.01633	7
0.02000	6
0.02367	6
0.02733	5
0.03100	3
0.03467	2
0.03833	1
0.04200	2
0.04567	2
0.04933	4
0.05300	5
0.05667	5
0.06033	6
0.06400	8
0.06767	7
0.07133	6
0.07500	5
0.07867	6
0.08233	7
0.08600	7
0.08967	6
0.09333	7
0.09700	6
0.10067	5
0.10433	2
0.10800	2
0.11167	5
0.11533	8
0.11900	9
0.12267	8
0.12633	6
0.13000	6
0.13367	7
0.13733	5
0.14100	5
0.14467	6
0.14833	7
0.15200	9
0.15567	11
0.15933	11
0.16300	12
0.16667	10
0.17033	7
0.17400	7
0.17767	11
0.18133	14
0.18500	15
0.18867	15
0.19233	13
0.19600	13
0.19967	14
0.20333	11
0.20700	10
0.21067	9
0.21433	9
0.21800	8
0.22167	11
0.22533	14
0.22900	16
0.23267	17
0.23633	17
0.24000	16
0.24367	14
0.24733	12
0.25100	10
0.25467	11
0.25833	13
0.26200	15
0.26567	14
0.26933	15
0.27300	16
0.27667	16
0.28033	15
0.28400	15
0.28767	17
0.29133	19
0.29500	20
0.29867	20
0.30233	19
0.30600	17
0.30967	16
0.31333	17
0.31700	18
0.32067	18
0.32433	17
0.32800	15
0.33167	15
0.33533	17
0.33900	17
0.34267	17
0.34633	17
0.35000	15
0.35367	15
0.35733	13
0.36100	12
0.36467	11
0.36833	12
0.37200	13
0.37567	18
0.37933	21
0.38300	21
0.38667	19
0.39033	19
0.39400	20
0.39767	22
0.40133	22
0.40500	22
0.40867	22
0.41233	22
0.41600	20
0.41967	19
0.42333	19
0.42700	18
0.43067	18
0.43433	17
0.43800	17
0.44167	16
0.44533	16
0.44900	17
0.45267	19
0.45633	19
0.46000	18
0.46367	17
0.46733	18
0.47100	21
0.47467	22
0.47833	22
0.48200	21
0.48567	21
0.48933	21
0.49300	22
0.49667	22
0.50033	20
0.50400	20
0.50767	21
0.51133	23
0.51500	22
0.51867	22
0.52233	22
0.52600	21
0.52967	22
0.53333	21
0.53700	22
0.54067	23
0.54433	22
0.54800	21
0.55167	25
0.55533	26
0.55900	27
0.56267	29
0.56633	31
0.57000	32
0.57367	32
0.57733	30
0.58100	29
0.58467	28
0.58833	27
0.59200	27
0.59567	31
0.59933	34
0.60300	34
0.60667	32
0.61033	31
0.61400	31
0.61767	33
0.62133	32
0.62500	30
0.62867	28
0.63233	27
0.63600	26
0.63967	25
0.64333	26
0.64700	26
0.65067	28
0.65433	30
0.65800	32
0.66167	29
0.66533	26
0.66900	25
0.67267	25
0.67633	27
0.68000	30
0.68367	32
0.68733	32
0.69100	31
0.69467	30
0.69833	30
0.70200	30
0.70567	29
0.70933	29
0.71300	27
0.71667	27
0.72033	27
0.72400	30
0.72767	31
0.73133	30
0.73500	31
0.73867	33
0.74233	35
0.74600	37
0.74967	38
0.75333	37
0.75700	37
0.76067	36
0.76433	34
0.76800	32
0.77167	32
0.77533	31
0.77900	32
0.78267	33
0.78633	33
0.79000	30
0.79367	26
0.79733	25
0.80100	26
0.80467	28
0.80833	31
0.81200	33
0.81567	34
0.81933	36
0.82300	35
0.82667	34
0.83033	34
0.83400	34
0.83767	34
0.84133	33
0.84500	34
0.84867	33
0.85233	31
0.85600	28
0.85967	26
0.86333	24
0.86700	23
0.87067	24
0.87433	26
0.87800	28
0.88167	28
0.88533	31
0.88900	31
0.89267	33
0.89633	33
0.90000	32
0.90367	33
0.90733	34
0.91100	33
0.91467	33
0.91833	34
0.92200	32
0.92567	28
0.92933	26
0.93300	26
0.93667	27
0.94033	28
0.94400	30
0.94767	32
0.95133	34
0.95500	35
0.95867	33
0.96233	33
0.96600	33
0.96967	33
0.97333	31
0.97700	31
0.98067	32
0.98433	32
0.98800	30
0.99167	30
0.99533	31
0.99900	32
1.00267	34
1.00633	37
1.01000	37
1.01367	34
1.01733	31
1.02100	30
1.02467	31
1.02833	31
1.03200	31
1.03567	33
1.03933	33
1.04300	34
1.04667	35
1.05033	36
1.05400	37
1.05767	36
1.06133	35
1.06500	30
1.06867	27
1.07233	28
1.07600	28
1.07967	30
1.08333	32
1.08700	36
1.09067	39
1.09433	40
1.09800	40
1.10167	39
1.10533	37
1.10900	37
1.11267	37
1.11633	35
1.12000	32
1.12367	31
1.12733	32
1.13100	32
1.13467	34
1.13833	34
1.14200	32
1.14567	32
1.14933	33
1.15300	32
1.15667	30
1.16033	31
1.16400	31
1.16767	29
1.17133	30
1.17500	29
1.17867	27
1.18233	27
1.18600	28
1.18967	29
1.19333	29
1.19700	30
1.20067	31
1.20433	31
1.20800	29
1.21167	30
1.21533	32
1.21900	34
1.22267	34
1.22633	33
1.23000	31
1.23367	31
1.23733	30
1.24100	30
1.24467	31
1.24833	34
1.25200	35
1.25567	34
1.25933	32
1.26300	32
1.26667	33
1.27033	33
1.27400	33
1.27767	33
1.28133	35
1.28500	35
1.28867	34
1.29233	34
1.29600	32
1.29967	30
1.30333	30
1.30700	29
1.31067	30
1.31433	31
1.31800	31
1.32167	34
1.32533	34
1.32900	35
1.33267	36
1.33633	34
1.34000	31
1.34367	32
1.34733	33
1.35100	34
1.35467	34
1.35833	34
1.36200	33
1.36567	32
1.36933	32
1.37300	31
1.37667	30
1.38033	31
1.38400	32
1.38767	33
1.39133	32
1.39500	30
1.39867	31
1.40233	33
1.40600	31
1.40967	29
1.41333	29
1.41700	29
1.42067	28
1.42433	28
1.42800	27
1.43167	27
1.43533	27
1.43900	28
1.44267	28
1.44633	26
1.45000	28
1.45367	29
1.45733	28
1.46100	28
1.46467	27
1.46833	27
1.47200	28
1.47567	26
1.47933	22
1.48300	22
1.48667	25
1.49033	28
1.49400	29
1.49767	28
1.50133	29
1.50500	30
1.50867	30
1.51233	29
1.51600	30
1.51967	32
1.52333	33
1.52700	31
1.53067	31
1.53433	31
1.53800	29
1.54167	30
1.54533	31
1.54900	32
1.55267	32
1.55633	30
1.56000	29
1.56367	27
1.56733	26
1.57100	26
1.57467	28
1.57833	31
1.58200	33
1.58567	33
1.58933	35
1.59300	34
1.59667	34
1.60033	33
1.60400	30
1.60767	27
1.61133	29
1.61500	31
1.61867	31
1.62233	30
1.62600	29
1.62967	28
1.63333	27
1.63700	29
1.64067	32
1.64433	32
1.64800	33
1.65167	36
1.65533	38
1.65900	37
1.66267	35
1.66633	36
1.67000	36
1.67367	37
1.67733	40
1.68100	42
1.68467	43
1.68833	45
1.69200	46
1.69567	48
1.69933	49
1.70300	48
1.70667	48
1.71033	48
1.71400	44
1.71767	43
1.72133	45
1.72500	47
1.72867	48
1.73233	47
1.73600	47
1.73967	44
1.74333	42
1.74700	43
1.75067	47
1.75433	50
1.75800	51
1.76167	52
1.76533	52
1.76900	52
1.77267	52
1.77633	52
1.78000	53
1.78367	55
1.78733	58
1.79100	60
1.79467	60
1.79833	59
1.80200	57
1.80567	58
1.80933	57
1.81300	57
1.81667	57
1.82033	59
1.82400	61
1.82767	60
1.83133	61
1.83500	63
1.83867	61
1.84233	60
1.84600	58
1.84967	58
1.85333	57
1.85700	58
1.86067	58
1.86433	58
1.86800	58
1.87167	59
1.87533	58
1.87900	58
1.88267	56
1.88633	57
1.89000	59
1.89367	58
1.89733	57
1.90100	61
1.90467	63
1.90833	65
1.91200	65
1.91567	66
1.91933	69
1.92300	70
1.92667	71
1.93033	71
1.93400	70
1.93767	70
1.94133	72
1.94500	73
1.94867	71
1.95233	70
1.95600	69
1.95967	68
1.96333	68
1.96700	71
1.97067	70
1.97433	71
1.97800	73
1.98167	74
1.98533	74
1.98900	74
1.99267	75
1.99633	77
2.00000	80
2.00367	82
2.00733	82
2.01100	81
2.01467	78
2.01833	78
2.02200	80
2.02567	83
2.02933	85
2.03300	88
2.03667	92
2.04033	95
2.04400	97
2.04767	97
2.05133	98
2.05500	98
2.05867	99
2.06233	100
2.06600	100
2.06967	102
2.07333	102
2.07700	101
2.08067	99
2.08433	99
2.08800	102
2.09167	104
2.09533	104
2.09900	102
2.10267	101
2.10633	102
2.11000	105
2.11367	107
2.11733	108
2.12100	109
2.12467	110
2.12833	112
2.13200	114
2.13567	116
2.13933	118
2.14300	120
2.14667	121
2.15033	121
2.15400	121
2.15767	120
2.16133	122
2.16500	123
2.16867	123
2.17233	124
2.17600	126
2.17967	128
2.18333	130
2.18700	133
2.19067	134
2.19433	132
2.19800	131
2.20167	133
2.20533	136
2.20900	137
2.21267	137
2.21633	138
2.22000	141
2.22367	141
2.22733	142
2.23100	143
2.23467	143
2.23833	143
2.24200	143
2.24567	144
2.24933	147
2.25300	146
2.25667	146
2.26033	147
2.26400	148
2.26767	148
2.27133	148
2.27500	149
2.27867	151
2.28233	154
2.28600	157
2.28967	158
2.29333	158
2.29700	157
2.30067	159
2.30433	160
2.30800	158
2.31167	158
2.31533	158
2.31900	160
2.32267	163
2.32633	163
2.33000	163
2.33367	162
2.33733	164
2.34100	169
2.34467	173
2.34833	178
2.35200	181
2.35567	181
2.35933	182
2.36300	185
2.36667	186
2.37033	185
2.37400	185
2.37767	185
2.38133	187
2.38500	187
2.38867	187
2.39233	187
2.39600	186
2.39967	185
2.40333	185
2.40700	185
2.41067	188
2.41433	191
2.41800	193
2.42167	194
2.42533	195
2.42900	197
2.43267	198
2.43633	198
2.44000	199
2.44367	202
2.44733	205
2.45100	205
2.45467	204
2.45833	202
2.46200	204
2.46567	215
2.46933	232
2.47300	253
2.47667	275
2.48033	298
2.48400	323
2.48767	345
2.49133	367
2.49500	390
2.49867	413
2.50233	431
2.50600	450
2.50967	468
2.51333	482
2.51700	494
2.52067	506
2.52433	516
2.52800	526
2.53167	536
2.53533	545
2.53900	554
2.54267	561
2.54633	568
2.55000	574
2.55367	579
2.55733	586
2.56100	592
2.56467	596
2.56833	601
2.57200	607
2.57567	610
2.57933	612
2.58300	612
2.58667	615
2.59033	617
2.59400	618
2.59767	619
2.60133	615
2.60500	608
2.60867	592
2.61233	569
2.61600	539
2.61967	506
2.62333	471
2.62700	433
2.63067	394
2.63433	360
2.63800	329
2.64167	304
2.64533	287
2.64900	276
2.65267	271
2.65633	268
2.66000	267
2.66367	268
2.66733	275
2.67100	285
2.67467	299
2.67833	312
2.68200	323
2.68567	332
2.68933	341
2.69300	351
2.69667	361
2.70033	369
2.70400	379
2.70767	389
2.71133	398
2.71500	404
2.71867	412
2.72233	420
2.72600	424
2.72967	428
2.73333	432
2.73700	436
2.74067	438
2.74433	440
2.74800	443
2.75167	446
2.75533	449
2.75900	449
2.76267	447
2.76633	447
2.77000	446
2.77367	447
2.77733	448
2.78100	449
2.78467	448
2.78833	448
2.79200	448
2.79567	448
2.79933	448
2.80300	448
2.80667	448
2.81033	448
2.81400	447
2.81767	446
2.82133	446
2.82500	447
2.82867	453
2.83233	467
2.83600	500
2.83967	565
2.84333	680
2.84700	868
2.85067	1148
2.85433	1532
2.85800	2018
2.86167	2583
2.86533	3186
2.86900	3778
2.87267	4320
2.87633	4767
2.88000	5082
2.88367	5254
2.88733	5282
2.89100	5183
2.89467	4982
2.89833	4704
2.90200	4374
2.90567	4020
2.90933	3662
2.91300	3315
2.91667	2990
2.92033	2688
2.92400	2411
2.92767	2161
2.93133	1937
2.93500	1736
2.93867	1557
2.94233	1402
2.94600	1266
2.94967	1150
2.95333	1048
2.95700	958
2.96067	878
2.96433	811
2.96800	754
2.97167	705
2.97533	662
2.97900	626
2.98267	593
2.98633	566
2.99000	541
2.99367	519
2.99733	501
3.00100	484
3.00467	471
3.00833	461
3.01200	451
3.01567	444
3.01933	437
3.02300	428
3.02667	419
3.03033	412
3.03400	409
3.03767	407
3.04133	403
3.04500	395
3.04867	390
3.05233	386
3.05600	383
3.05967	378
3.06333	374
3.06700	370
3.07067	367
3.07433	365
3.07800	363
3.08167	361
3.08533	359
3.08900	357
3.09267	355
3.09633	352
3.10000	349
3.10367	346
3.10733	341
3.11100	339
3.11467	337
3.11833	336
3.12200	334
3.12567	332
3.12933	333
3.13300	331
3.13667	331
3.14033	332
3.14400	332
3.14767	330
3.15133	330
3.15500	328
3.15867	324
3.16233	319
3.16600	314
3.16967	311
3.17333	310
3.17700	310
3.18067	311
3.18433	310
3.18800	310
3.19167	311
3.19533	310
3.19900	309
3.20267	307
3.20633	305
3.21000	303
3.21367	301
3.21733	299
3.22100	299
3.22467	300
3.22833	300
3.23200	300
3.23567	298
3.23933	295
3.24300	292
3.24667	292
3.25033	292
3.25400	291
3.25767	289
3.26133	286
3.26500	284
3.26867	283
3.27233	281
3.27600	279
3.27967	278
3.28333	276
3.28700	274
3.29067	272
3.29433	270
3.29800	269
3.30167	267
3.30533	264
3.30900	264
3.31267	263
3.31633	260
3.32000	259
3.32367	256
3.32733	253
3.33100	252
3.33467	249
3.33833	242
3.34200	239
3.34567	240
3.34933	242
3.35300	242
3.35667	241
3.36033	239
3.36400	236
3.36767	232
3.37133	229
3.37500	226
3.37867	224
3.38233	222
3.38600	222
3.38967	221
3.39333	221
3.39700	219
3.40067	214
3.40433	212
3.40800	210
3.41167	208
3.41533	205
3.41900	204
3.42267	204
3.42633	203
3.43000	202
3.43367	200
3.43733	199
3.44100	197
3.44467	194
3.44833	191
3.45200	189
3.45567	188
3.45933	188
3.46300	187
3.46667	186
3.47033	185
3.47400	185
3.47767	182
3.48133	179
3.48500	178
3.48867	176
3.49233	175
3.49600	174
3.49967	174
3.50333	174
3.50700	175
3.51067	174
3.51433	173
3.51800	173
3.52167	171
3.52533	169
3.52900	168
3.53267	166
3.53633	165
3.54000	163
3.54367	160
3.54733	157
3.55100	157
3.55467	156
3.55833	156
3.56200	155
3.56567	157
3.56933	158
3.57300	157
3.57667	157
3.58033	158
3.58400	160
3.58767	157
3.59133	156
3.59500	154
3.59867	153
3.60233	152
3.60600	151
3.60967	149
3.61333	148
3.61700	147
3.62067	147
3.62433	149
3.62800	149
3.63167	147
3.63533	145
3.63900	143
3.64267	143
3.64633	143
3.65000	143
3.65367	144
3.65733	143
3.66100	140
3.66467	138
3.66833	140
3.67200	142
3.67567	142
3.67933	141
3.68300	141
3.68667	139
3.69033	138
3.69400	136
3.69767	136
3.70133	137
3.70500	137
3.70867	138
3.71233	138
3.71600	139
3.71967	140
3.72333	138
3.72700	135
3.73067	133
3.73433	133
3.73800	134
3.74167	132
3.74533	131
3.74900	131
3.75267	130
3.75633	131
3.76000	133
3.76367	133
3.76733	132
3.77100	133
3.77467	133
3.77833	131
3.78200	128
3.78567	126
3.78933	125
3.79300	126
3.79667	126
3.80033	125
3.80400	126
3.80767	128
3.81133	126
3.81500	127
3.81867	126
3.82233	125
3.82600	125
3.82967	125
3.83333	126
3.83700	127
3.84067	126
3.84433	126
3.84800	126
3.85167	125
3.85533	124
3.85900	124
3.86267	123
3.86633	125
3.87000	127
3.87367	127
3.87733	130
3.88100	132
3.88467	132
3.88833	131
3.89200	128
3.89567	126
3.89933	125
3.90300	124
3.90667	122
3.91033	121
3.91400	123
3.91767	124
3.92133	123
3.92500	122
3.92867	122
3.93233	124
3.93600	124
3.93967	125
3.94333	126
3.94700	127
3.95067	128
3.95433	128
3.95800	126
3.96167	125
3.96533	123
3.96900	122
3.97267	122
3.97633	122
3.98000	121
3.98367	120
3.98733	118
3.99100	117
3.99467	116
3.99833	118

[Status Trace (Column Oven Temperature)]
Interval(msec)	1000
# of Points	239
Start Time(min)	0.016
End Time(min)	3.982
Intensity Units	
Intensity Multiplier	1
R.Time (min)	Intensity
0.01558	34.98
0.03225	34.97
0.04892	34.96
0.06558	34.96
0.08225	34.96
0.09892	34.96
0.11558	34.96
0.13225	34.97
0.14892	34.98
0.16558	34.99
0.18225	35.01
0.19892	35.00
0.21558	35.00
0.23225	35.01
0.24892	35.00
0.26558	35.00
0.28225	34.98
0.29892	34.97
0.31558	34.96
0.33225	34.94
0.34892	34.95
0.36558	34.96
0.38225	34.97
0.39892	34.97
0.41558	34.97
0.43225	34.97
0.44892	34.97
0.46558	34.97
0.48225	34.96
0.49892	34.96
0.51558	34.96
0.53225	34.96
0.54892	34.96
0.56558	34.99
0.58225	35.00
0.59892	35.03
0.61558	35.05
0.63225	35.07
0.64892	35.08
0.66558	35.08
0.68225	35.07
0.69892	35.04
0.71558	35.01
0.73225	34.99
0.74892	34.99
0.76558	34.99
0.78225	35.00
0.79892	35.00
0.81558	35.00
0.83225	35.00
0.84892	34.98
0.86558	34.97
0.88225	34.97
0.89892	34.96
0.91558	34.96
0.93225	34.96
0.94892	34.95
0.96558	34.95
0.98225	34.94
0.99892	34.95
1.01558	34.96
1.03225	34.96
1.04892	34.97
1.06558	34.97
1.08225	34.97
1.09892	34.97
1.11558	34.98
1.13225	34.99
1.14892	34.99
1.16558	35.00
1.18225	35.00
1.19892	34.99
1.21558	34.98
1.23225	34.98
1.24892	34.99
1.26558	35.01
1.28225	35.03
1.29892	35.02
1.31558	35.02
1.33225	35.01
1.34892	34.99
1.36558	34.98
1.38225	34.98
1.39892	34.98
1.41558	34.97
1.43225	34.97
1.44892	34.96
1.46558	34.97
1.48225	34.96
1.49892	34.96
1.51558	34.96
1.53225	34.97
1.54892	34.98
1.56558	34.98
1.58225	34.98
1.59892	35.02
1.61558	35.11
1.63225	35.27
1.64892	35.48
1.66558	35.77
1.68225	36.15
1.69892	36.52
1.71558	36.86
1.73225	37.18
1.74892	37.50
1.76558	37.85
1.78225	38.18
1.79892	38.52
1.81558	38.84
1.83225	39.16
1.84892	39.49
1.86558	39.83
1.88225	40.16
1.89892	40.49
1.91558	40.81
1.93225	41.12
1.94892	41.45
1.96558	41.78
1.98225	42.12
1.99892	42.44
2.01558	42.78
2.03225	43.09
2.04892	43.39
2.06558	43.73
2.08225	44.07
2.09892	44.37
2.11558	44.70
2.13225	45.03
2.14892	45.35
2.16558	45.69
2.18225	46.02
2.19892	46.35
2.21558	46.68
2.23225	47.01
2.24892	47.33
2.26558	47.65
2.28225	48.01
2.29892	48.34
2.31558	48.66
2.33225	48.98
2.34892	49.33
2.36558	49.56
2.38225	49.68
2.39892	49.68
2.41558	49.69
2.43225	49.70
2.44892	49.70
2.46558	49.72
2.48225	49.73
2.49892	49.74
2.51558	49.75
2.53225	49.77
2.54892	49.77
2.56558	49.79
2.58225	49.81
2.59892	49.82
2.61558	49.81
2.63225	49.83
2.64892	49.86
2.66558	49.86
2.68225	49.85
2.69892	49.85
2.71558	49.87
2.73225	49.88
2.74892	49.88
2.76558	49.88
2.78225	49.88
2.79892	49.89
2.81558	49.91
2.83225	49.91
2.84892	49.92
2.86558	49.93
2.88225	49.94
2.89892	49.95
2.91558	49.96
2.93225	49.96
2.94892	49.97
2.96558	49.97
2.98225	49.98
2.99892	49.98
3.01558	49.99
3.03225	50.01
3.04892	50.02
3.06558	50.04
3.08225	50.06
3.09892	50.06
3.11558	50.07
3.13225	50.07
3.14892	50.08
3.16558	50.08
3.18225	50.09
3.19892	50.10
3.21558	50.10
3.23225	50.11
3.24892	50.10
3.26558	50.08
3.28225	50.07
3.29892	50.06
3.31558	50.05
3.33225	50.04
3.34892	50.05
3.36558	50.04
3.38225	50.04
3.39892	50.04
3.41558	50.05
3.43225	50.05
3.44892	50.04
3.46558	50.05
3.48225	50.05
3.49892	50.06
3.51558	50.06
3.53225	50.06
3.54892	50.07
3.56558	50.08
3.58225	50.09
3.59892	50.09
3.61558	50.10
3.63225	50.10
3.64892	50.09
3.66558	50.08
3.68225	50.07
3.69892	50.05
3.71558	50.05
3.73225	50.04
3.74892	50.04
3.76558	50.04
3.78225	50.04
3.79892	50.03
3.81558	50.02
3.83225	50.02
3.84892	50.01
3.86558	50.01
3.88225	50.02
3.89892	50.02
3.91558	50.03
3.93225	50.03
3.94892	50.04
3.96558	50.04
3.98225	50.04

[Status Trace (Injection Unit Temperature)]
Interval(msec)	1000
# of Points	239
Start Time(min)	0.016
End Time(min)	3.982
Intensity Units	
Intensity Multiplier	1
R.Time (min)	Intensity
0.01558	99.99
0.03225	99.98
0.04892	99.99
0.06558	99.99
0.08225	99.99
0.09892	99.99
0.11558	99.99
0.13225	99.98
0.14892	99.99
0.16558	99.99
0.18225	99.99
0.19892	99.99
0.21558	100.00
0.23225	99.99
0.24892	99.99
0.26558	99.99
0.28225	99.99
0.29892	99.99
0.31558	99.99
0.33225	99.99
0.34892	99.99
0.36558	99.99
0.38225	100.00
0.39892	100.00
0.41558	100.00
0.43225	99.99
0.44892	99.99
0.46558	100.00
0.48225	99.99
0.49892	99.99
0.51558	99.99
0.53225	99.99
0.54892	99.99
0.56558	99.99
0.58225	99.99
0.59892	99.99
0.61558	99.99
0.63225	99.99
0.64892	99.99
0.66558	99.99
0.68225	99.99
0.69892	99.99
0.71558	99.99
0.73225	99.99
0.74892	99.99
0.76558	99.99
0.78225	99.99
0.79892	99.99
0.81558	99.99
0.83225	99.99
0.84892	99.99
0.86558	99.99
0.88225	99.99
0.89892	99.99
0.91558	99.98
0.93225	99.99
0.94892	99.99
0.96558	99.99
0.98225	99.99
0.99892	99.98
1.01558	99.98
1.03225	99.99
1.04892	99.98
1.06558	99.98
1.08225	99.98
1.09892	99.98
1.11558	99.98
1.13225	99.98
1.14892	99.98
1.16558	99.98
1.18225	99.98
1.19892	99.98
1.21558	99.98
1.23225	99.99
1.24892	99.98
1.26558	99.98
1.28225	99.98
1.29892	99.98
1.31558	99.98
1.33225	99.98
1.34892	99.98
1.36558	99.99
1.38225	99.99
1.39892	99.98
1.41558	99.98
1.43225	99.98
1.44892	99.99
1.46558	99.99
1.48225	99.99
1.49892	99.98
1.51558	99.98
1.53225	99.99
1.54892	99.98
1.56558	99.98
1.58225	99.99
1.59892	99.99
1.61558	99.99
1.63225	99.99
1.64892	99.99
1.66558	99.99
1.68225	99.99
1.69892	99.99
1.71558	99.99
1.73225	99.99
1.74892	99.99
1.76558	99.99
1.78225	99.99
1.79892	99.99
1.81558	99.99
1.83225	99.99
1.84892	99.99
1.86558	99.99
1.88225	99.99
1.89892	99.99
1.91558	99.98
1.93225	99.99
1.94892	99.98
1.96558	99.98
1.98225	99.98
1.99892	99.99
2.01558	99.99
2.03225	99.98
2.04892	99.98
2.06558	99.98
2.08225	99.98
2.09892	99.98
2.11558	99.98
2.13225	99.98
2.14892	99.98
2.16558	99.98
2.18225	99.98
2.19892	99.98
2.21558	99.98
2.23225	99.98
2.24892	99.98
2.26558	99.98
2.28225	99.98
2.29892	99.97
2.31558	99.97
2.33225	99.98
2.34892	99.98
2.36558	99.98
2.38225	99.98
2.39892	99.98
2.41558	99.97
2.43225	99.98
2.44892	99.97
2.46558	99.98
2.48225	99.97
2.49892	99.98
2.51558	99.98
2.53225	99.98
2.54892	99.98
2.56558	99.98
2.58225	99.98
2.59892	99.98
2.61558	99.99
2.63225	99.98
2.64892	99.98
2.66558	99.98
2.68225	99.99
2.69892	99.99
2.71558	99.98
2.73225	99.99
2.74892	99.99
2.76558	99.99
2.78225	99.99
2.79892	99.99
2.81558	100.00
2.83225	100.00
2.84892	100.00
2.86558	100.00
2.88225	100.00
2.89892	100.00
2.91558	100.00
2.93225	100.01
2.94892	100.00
2.96558	100.01
2.98225	100.01
2.99892	100.01
3.01558	100.01
3.03225	100.02
3.04892	100.02
3.06558	100.02
3.08225	100.02
3.09892	100.02
3.11558	100.02
3.13225	100.02
3.14892	100.02
3.16558	100.02
3.18225	100.02
3.19892	100.02
3.21558	100.03
3.23225	100.03
3.24892	100.03
3.26558	100.03
3.28225	100.03
3.29892	100.03
3.31558	100.03
3.33225	100.04
3.34892	100.04
3.36558	100.04
3.38225	100.04
3.39892	100.04
3.41558	100.04
3.43225	100.04
3.44892	100.04
3.46558	100.04
3.48225	100.04
3.49892	100.04
3.51558	100.04
3.53225	100.05
3.54892	100.04
3.56558	100.05
3.58225	100.05
3.59892	100.05
3.61558	100.05
3.63225	100.05
3.64892	100.04
3.66558	100.05
3.68225	100.05
3.69892	100.04
3.71558	100.05
3.73225	100.05
3.74892	100.05
3.76558	100.05
3.78225	100.05
3.79892	100.05
3.81558	100.05
3.83225	100.05
3.84892	100.05
3.86558	100.04
3.88225	100.05
3.89892	100.05
3.91558	100.05
3.93225	100.05
3.94892	100.05
3.96558	100.05
3.98225	100.05

[Status Trace (Carrier Gas Pressure)]
Interval(msec)	1000
# of Points	239
Start Time(min)	0.016
End Time(min)	3.982
Intensity Units	
Intensity Multiplier	1
R.Time (min)	Intensity
0.01558	57.11
0.03225	55.75
0.04892	58.01
0.06558	59.87
0.08225	58.62
0.09892	57.97
0.11558	58.00
0.13225	58.01
0.14892	58.01
0.16558	58.00
0.18225	58.00
0.19892	58.00
0.21558	58.00
0.23225	58.00
0.24892	58.00
0.26558	58.00
0.28225	58.00
0.29892	58.00
0.31558	58.00
0.33225	58.00
0.34892	58.00
0.36558	58.00
0.38225	58.00
0.39892	58.00
0.41558	58.00
0.43225	58.00
0.44892	58.00
0.46558	58.00
0.48225	58.00
0.49892	58.00
0.51558	58.00
0.53225	58.00
0.54892	58.00
0.56558	58.00
0.58225	58.00
0.59892	58.00
0.61558	58.00
0.63225	58.00
0.64892	58.00
0.66558	58.00
0.68225	58.00
0.69892	58.00
0.71558	58.00
0.73225	58.00
0.74892	58.00
0.76558	58.00
0.78225	58.00
0.79892	58.00
0.81558	58.00
0.83225	58.00
0.84892	58.00
0.86558	58.00
0.88225	58.00
0.89892	58.00
0.91558	58.00
0.93225	58.00
0.94892	58.00
0.96558	58.00
0.98225	58.00
0.99892	58.00
1.01558	58.00
1.03225	58.00
1.04892	58.00
1.06558	58.00
1.08225	58.00
1.09892	58.00
1.11558	58.00
1.13225	58.00
1.14892	58.00
1.16558	58.00
1.18225	58.00
1.19892	58.00
1.21558	58.00
1.23225	58.00
1.24892	58.00
1.26558	58.00
1.28225	58.00
1.29892	58.00
1.31558	58.00
1.33225	58.00
1.34892	58.00
1.36558	58.00
1.38225	58.00
1.39892	58.00
1.41558	58.00
1.43225	58.00
1.44892	58.00
1.46558	58.00
1.48225	58.00
1.49892	58.00
1.51558	58.00
1.53225	58.00
1.54892	58.00
1.56558	58.00
1.58225	58.00
1.59892	58.00
1.61558	58.00
1.63225	58.00
1.64892	58.00
1.66558	58.01
1.68225	58.01
1.69892	58.00
1.71558	58.00
1.73225	58.00
1.74892	58.00
1.76558	58.00
1.78225	58.00
1.79892	58.00
1.81558	58.00
1.83225	58.00
1.84892	58.00
1.86558	58.00
1.88225	58.00
1.89892	58.00
1.91558	58.00
1.93225	58.00
1.94892	58.00
1.96558	58.00
1.98225	58.00
1.99892	58.00
2.01558	58.00
2.03225	58.00
2.04892	58.00
2.06558	58.00
2.08225	58.00
2.09892	58.00
2.11558	58.00
2.13225	58.00
2.14892	58.00
2.16558	58.00
2.18225	58.00
2.19892	58.00
2.21558	58.00
2.23225	58.00
2.24892	58.00
2.26558	58.00
2.28225	58.00
2.29892	58.00
2.31558	58.00
2.33225	58.00
2.34892	58.00
2.36558	58.00
2.38225	57.99
2.39892	57.99
2.41558	58.00
2.43225	58.00
2.44892	58.00
2.46558	58.00
2.48225	58.00
2.49892	58.00
2.51558	57.99
2.53225	57.99
2.54892	58.00
2.56558	58.00
2.58225	58.00
2.59892	58.00
2.61558	58.00
2.63225	58.00
2.64892	58.00
2.66558	58.00
2.68225	58.00
2.69892	58.00
2.71558	58.00
2.73225	58.00
2.74892	58.00
2.76558	58.00
2.78225	58.00
2.79892	58.00
2.81558	58.00
2.83225	58.00
2.84892	58.00
2.86558	58.00
2.88225	58.00
2.89892	58.00
2.91558	58.00
2.93225	58.00
2.94892	58.00
2.96558	58.00
2.98225	58.00
2.99892	58.00
3.01558	58.00
3.03225	58.00
3.04892	58.00
3.06558	58.00
3.08225	58.00
3.09892	58.00
3.11558	58.00
3.13225	58.00
3.14892	58.00
3.16558	58.00
3.18225	58.00
3.19892	58.00
3.21558	58.00
3.23225	58.00
3.24892	58.00
3.26558	58.00
3.28225	58.00
3.29892	58.00
3.31558	58.00
3.33225	58.00
3.34892	58.00
3.36558	58.00
3.38225	58.00
3.39892	58.00
3.41558	58.00
3.43225	58.00
3.44892	58.00
3.46558	58.00
3.48225	58.00
3.49892	58.00
3.51558	58.00
3.53225	58.00
3.54892	58.00
3.56558	58.00
3.58225	58.00
3.59892	58.00
3.61558	58.00
3.63225	58.00
3.64892	58.00
3.66558	58.00
3.68225	58.00
3.69892	58.00
3.71558	58.00
3.73225	58.00
3.74892	58.00
3.76558	58.00
3.78225	58.00
3.79892	58.00
3.81558	58.00
3.83225	58.00
3.84892	58.00
3.86558	58.00
3.88225	58.00
3.89892	58.00
3.91558	58.00
3.93225	58.00
3.94892	58.00
3.96558	58.00
3.98225	58.00

[Status Trace (Carrier Gas Flow)]
Interval(msec)	1000
# of Points	239
Start Time(min)	0.016
End Time(min)	3.982
Intensity Units	
Intensity Multiplier	1
R.Time (min)	Intensity
0.01558	33.87
0.03225	34.52
0.04892	34.55
0.06558	34.54
0.08225	34.49
0.09892	34.52
0.11558	34.52
0.13225	34.52
0.14892	34.52
0.16558	34.52
0.18225	34.52
0.19892	34.52
0.21558	34.52
0.23225	34.52
0.24892	34.52
0.26558	34.52
0.28225	34.52
0.29892	34.52
0.31558	34.52
0.33225	34.52
0.34892	34.52
0.36558	34.52
0.38225	34.52
0.39892	34.52
0.41558	34.52
0.43225	34.52
0.44892	34.52
0.46558	34.52
0.48225	34.52
0.49892	34.52
0.51558	34.52
0.53225	34.52
0.54892	34.52
0.56558	34.52
0.58225	34.52
0.59892	34.52
0.61558	34.52
0.63225	34.52
0.64892	34.52
0.66558	34.52
0.68225	34.52
0.69892	34.52
0.71558	34.52
0.73225	34.53
0.74892	34.52
0.76558	34.52
0.78225	34.52
0.79892	34.51
0.81558	34.52
0.83225	34.51
0.84892	34.51
0.86558	34.52
0.88225	34.52
0.89892	34.52
0.91558	34.53
0.93225	34.52
0.94892	34.52
0.96558	34.50
0.98225	34.51
0.99892	34.51
1.01558	34.52
1.03225	34.52
1.04892	34.52
1.06558	34.52
1.08225	34.51
1.09892	34.52
1.11558	34.51
1.13225	34.52
1.14892	34.51
1.16558	34.52
1.18225	34.52
1.19892	34.51
1.21558	34.53
1.23225	34.50
1.24892	34.53
1.26558	34.51
1.28225	34.52
1.29892	34.52
1.31558	34.52
1.33225	34.52
1.34892	34.53
1.36558	34.52
1.38225	34.53
1.39892	34.51
1.41558	34.52
1.43225	34.53
1.44892	34.52
1.46558	34.52
1.48225	34.52
1.49892	34.51
1.51558	34.51
1.53225	34.53
1.54892	34.53
1.56558	34.53
1.58225	34.51
1.59892	34.52
1.61558	34.51
1.63225	34.52
1.64892	34.52
1.66558	34.52
1.68225	34.52
1.69892	34.51
1.71558	34.52
1.73225	34.52
1.74892	34.52
1.76558	34.52
1.78225	34.52
1.79892	34.52
1.81558	34.52
1.83225	34.52
1.84892	34.52
1.86558	34.52
1.88225	34.52
1.89892	34.52
1.91558	34.52
1.93225	34.52
1.94892	34.52
1.96558	34.52
1.98225	34.52
1.99892	34.52
2.01558	34.52
2.03225	34.52
2.04892	34.51
2.06558	34.52
2.08225	34.52
2.09892	34.53
2.11558	34.51
2.13225	34.51
2.14892	34.51
2.16558	34.51
2.18225	34.53
2.19892	34.52
2.21558	34.52
2.23225	34.52
2.24892	34.52
2.26558	34.51
2.28225	34.52
2.29892	34.52
2.31558	34.52
2.33225	34.52
2.34892	34.51
2.36558	34.52
2.38225	34.51
2.39892	34.52
2.41558	34.52
2.43225	34.52
2.44892	34.52
2.46558	34.52
2.48225	34.52
2.49892	34.52
2.51558	34.52
2.53225	34.52
2.54892	34.52
2.56558	34.52
2.58225	34.52
2.59892	34.52
2.61558	34.52
2.63225	34.52
2.64892	34.52
2.66558	34.52
2.68225	34.52
2.69892	34.52
2.71558	34.52
2.73225	34.52
2.74892	34.52
2.76558	34.52
2.78225	34.52
2.79892	34.52
2.81558	34.52
2.83225	34.52
2.84892	34.52
2.86558	34.52
2.88225	34.52
2.89892	34.52
2.91558	34.52
2.93225	34.52
2.94892	34.52
2.96558	34.52
2.98225	34.52
2.99892	34.52
3.01558	34.52
3.03225	34.52
3.04892	34.52
3.06558	34.52
3.08225	34.52
3.09892	34.52
3.11558	34.52
3.13225	34.52
3.14892	34.52
3.16558	34.52
3.18225	34.52
3.19892	34.52
3.21558	34.52
3.23225	34.52
3.24892	34.52
3.26558	34.52
3.28225	34.52
3.29892	34.52
3.31558	34.52
3.33225	34.52
3.34892	34.52
3.36558	34.52
3.38225	34.52
3.39892	34.52
3.41558	34.52
3.43225	34.52
3.44892	34.52
3.46558	34.52
3.48225	34.52
3.49892	34.52
3.51558	34.51
3.53225	34.53
3.54892	34.52
3.56558	34.52
3.58225	34.52
3.59892	34.51
3.61558	34.51
3.63225	34.52
3.64892	34.52
3.66558	34.52
3.68225	34.51
3.69892	34.52
3.71558	34.52
3.73225	34.52
3.74892	34.53
3.76558	34.51
3.78225	34.52
3.79892	34.53
3.81558	34.53
3.83225	34.51
3.84892	34.52
3.86558	34.52
3.88225	34.52
3.89892	34.52
3.91558	34.52
3.93225	34.52
3.94892	34.52
3.96558	34.52
3.98225	34.52

[Status Trace (Column Flow)]
Interval(msec)	1000
# of Points	239
Start Time(min)	0.016
End Time(min)	3.982
Intensity Units	
Intensity Multiplier	1
R.Time (min)	Intensity
0.01558	5.42
0.03225	5.26
0.04892	5.52
0.06558	5.74
0.08225	5.60
0.09892	5.52
0.11558	5.52
0.13225	5.53
0.14892	5.52
0.16558	5.52
0.18225	5.52
0.19892	5.52
0.21558	5.52
0.23225	5.52
0.24892	5.52
0.26558	5.52
0.28225	5.52
0.29892	5.52
0.31558	5.52
0.33225	5.52
0.34892	5.52
0.36558	5.52
0.38225	5.52
0.39892	5.52
0.41558	5.52
0.43225	5.52
0.44892	5.52
0.46558	5.52
0.48225	5.52
0.49892	5.52
0.51558	5.52
0.53225	5.52
0.54892	5.52
0.56558	5.52
0.58225	5.52
0.59892	5.52
0.61558	5.52
0.63225	5.52
0.64892	5.52
0.66558	5.52
0.68225	5.52
0.69892	5.52
0.71558	5.52
0.73225	5.52
0.74892	5.52
0.76558	5.52
0.78225	5.52
0.79892	5.52
0.81558	5.52
0.83225	5.52
0.84892	5.52
0.86558	5.52
0.88225	5.52
0.89892	5.52
0.91558	5.52
0.93225	5.52
0.94892	5.52
0.96558	5.52
0.98225	5.52
0.99892	5.52
1.01558	5.52
1.03225	5.52
1.04892	5.52
1.06558	5.52
1.08225	5.52
1.09892	5.52
1.11558	5.52
1.13225	5.52
1.14892	5.52
1.16558	5.52
1.18225	5.52
1.19892	5.52
1.21558	5.52
1.23225	5.52
1.24892	5.52
1.26558	5.52
1.28225	5.52
1.29892	5.52
1.31558	5.52
1.33225	5.52
1.34892	5.52
1.36558	5.52
1.38225	5.52
1.39892	5.52
1.41558	5.52
1.43225	5.52
1.44892	5.52
1.46558	5.52
1.48225	5.52
1.49892	5.52
1.51558	5.52
1.53225	5.52
1.54892	5.52
1.56558	5.52
1.58225	5.52
1.59892	5.52
1.61558	5.52
1.63225	5.51
1.64892	5.51
1.66558	5.50
1.68225	5.49
1.69892	5.48
1.71558	5.46
1.73225	5.45
1.74892	5.44
1.76558	5.43
1.78225	5.42
1.79892	5.41
1.81558	5.40
1.83225	5.39
1.84892	5.38
1.86558	5.37
1.88225	5.36
1.89892	5.35
1.91558	5.34
1.93225	5.34
1.94892	5.33
1.96558	5.32
1.98225	5.31
1.99892	5.30
2.01558	5.29
2.03225	5.28
2.04892	5.27
2.06558	5.26
2.08225	5.25
2.09892	5.24
2.11558	5.23
2.13225	5.22
2.14892	5.21
2.16558	5.20
2.18225	5.19
2.19892	5.18
2.21558	5.17
2.23225	5.16
2.24892	5.15
2.26558	5.15
2.28225	5.14
2.29892	5.13
2.31558	5.12
2.33225	5.11
2.34892	5.10
2.36558	5.09
2.38225	5.09
2.39892	5.09
2.41558	5.09
2.43225	5.09
2.44892	5.09
2.46558	5.09
2.48225	5.09
2.49892	5.09
2.51558	5.08
2.53225	5.08
2.54892	5.09
2.56558	5.08
2.58225	5.08
2.59892	5.08
2.61558	5.08
2.63225	5.08
2.64892	5.08
2.66558	5.08
2.68225	5.08
2.69892	5.08
2.71558	5.08
2.73225	5.08
2.74892	5.08
2.76558	5.08
2.78225	5.08
2.79892	5.08
2.81558	5.08
2.83225	5.08
2.84892	5.08
2.86558	5.08
2.88225	5.08
2.89892	5.08
2.91558	5.08
2.93225	5.08
2.94892	5.08
2.96558	5.08
2.98225	5.08
2.99892	5.08
3.01558	5.08
3.03225	5.08
3.04892	5.08
3.06558	5.08
3.08225	5.08
3.09892	5.08
3.11558	5.08
3.13225	5.08
3.14892	5.08
3.16558	5.08
3.18225	5.08
3.19892	5.08
3.21558	5.08
3.23225	5.08
3.24892	5.08
3.26558	5.08
3.28225	5.08
3.29892	5.08
3.31558	5.08
3.33225	5.08
3.34892	5.08
3.36558	5.08
3.38225	5.08
3.39892	5.08
3.41558	5.08
3.43225	5.08
3.44892	5.08
3.46558	5.08
3.48225	5.08
3.49892	5.08
3.51558	5.08
3.53225	5.08
3.54892	5.08
3.56558	5.08
3.58225	5.08
3.59892	5.08
3.61558	5.08
3.63225	5.08
3.64892	5.08
3.66558	5.08
3.68225	5.08
3.69892	5.08
3.71558	5.08
3.73225	5.08
3.74892	5.08
3.76558	5.08
3.78225	5.08
3.79892	5.08
3.81558	5.08
3.83225	5.08
3.84892	5.08
3.86558	5.08
3.88225	5.08
3.89892	5.08
3.91558	5.08
3.93225	5.08
3.94892	5.08
3.96558	5.08
3.98225	5.08

[Status Trace (Linear Velocity)]
Interval(msec)	1000
# of Points	239
Start Time(min)	0.016
End Time(min)	3.982
Intensity Units	
Intensity Multiplier	1
R.Time (min)	Intensity
0.01558	38.43
0.03225	37.54
0.04892	39.03
0.06558	40.25
0.08225	39.42
0.09892	39.00
0.11558	39.02
0.13225	39.03
0.14892	39.02
0.16558	39.02
0.18225	39.02
0.19892	39.02
0.21558	39.02
0.23225	39.02
0.24892	39.02
0.26558	39.02
0.28225	39.02
0.29892	39.02
0.31558	39.02
0.33225	39.02
0.34892	39.02
0.36558	39.02
0.38225	39.02
0.39892	39.02
0.41558	39.02
0.43225	39.02
0.44892	39.02
0.46558	39.02
0.48225	39.02
0.49892	39.02
0.51558	39.02
0.53225	39.02
0.54892	39.02
0.56558	39.02
0.58225	39.02
0.59892	39.01
0.61558	39.01
0.63225	39.01
0.64892	39.01
0.66558	39.01
0.68225	39.01
0.69892	39.01
0.71558	39.01
0.73225	39.02
0.74892	39.02
0.76558	39.02
0.78225	39.02
0.79892	39.02
0.81558	39.02
0.83225	39.02
0.84892	39.02
0.86558	39.02
0.88225	39.02
0.89892	39.02
0.91558	39.02
0.93225	39.02
0.94892	39.02
0.96558	39.02
0.98225	39.02
0.99892	39.02
1.01558	39.02
1.03225	39.02
1.04892	39.02
1.06558	39.02
1.08225	39.02
1.09892	39.02
1.11558	39.02
1.13225	39.02
1.14892	39.02
1.16558	39.02
1.18225	39.02
1.19892	39.02
1.21558	39.02
1.23225	39.02
1.24892	39.02
1.26558	39.02
1.28225	39.01
1.29892	39.01
1.31558	39.01
1.33225	39.02
1.34892	39.02
1.36558	39.02
1.38225	39.02
1.39892	39.02
1.41558	39.02
1.43225	39.02
1.44892	39.02
1.46558	39.02
1.48225	39.02
1.49892	39.02
1.51558	39.02
1.53225	39.02
1.54892	39.02
1.56558	39.02
1.58225	39.02
1.59892	39.02
1.61558	39.01
1.63225	39.00
1.64892	38.98
1.66558	38.95
1.68225	38.91
1.69892	38.88
1.71558	38.84
1.73225	38.81
1.74892	38.78
1.76558	38.75
1.78225	38.72
1.79892	38.68
1.81558	38.65
1.83225	38.62
1.84892	38.59
1.86558	38.56
1.88225	38.53
1.89892	38.50
1.91558	38.47
1.93225	38.44
1.94892	38.41
1.96558	38.38
1.98225	38.35
1.99892	38.32
2.01558	38.29
2.03225	38.26
2.04892	38.23
2.06558	38.20
2.08225	38.17
2.09892	38.14
2.11558	38.11
2.13225	38.08
2.14892	38.05
2.16558	38.02
2.18225	37.99
2.19892	37.96
2.21558	37.93
2.23225	37.90
2.24892	37.87
2.26558	37.85
2.28225	37.81
2.29892	37.78
2.31558	37.75
2.33225	37.73
2.34892	37.70
2.36558	37.67
2.38225	37.66
2.39892	37.66
2.41558	37.66
2.43225	37.66
2.44892	37.66
2.46558	37.66
2.48225	37.66
2.49892	37.65
2.51558	37.65
2.53225	37.65
2.54892	37.65
2.56558	37.65
2.58225	37.65
2.59892	37.65
2.61558	37.65
2.63225	37.65
2.64892	37.65
2.66558	37.64
2.68225	37.65
2.69892	37.65
2.71558	37.64
2.73225	37.64
2.74892	37.64
2.76558	37.64
2.78225	37.64
2.79892	37.64
2.81558	37.64
2.83225	37.64
2.84892	37.64
2.86558	37.64
2.88225	37.64
2.89892	37.64
2.91558	37.64
2.93225	37.64
2.94892	37.64
2.96558	37.64
2.98225	37.63
2.99892	37.64
3.01558	37.63
3.03225	37.63
3.04892	37.63
3.06558	37.63
3.08225	37.63
3.09892	37.63
3.11558	37.63
3.13225	37.63
3.14892	37.63
3.16558	37.63
3.18225	37.62
3.19892	37.62
3.21558	37.62
3.23225	37.62
3.24892	37.62
3.26558	37.62
3.28225	37.63
3.29892	37.63
3.31558	37.63
3.33225	37.63
3.34892	37.63
3.36558	37.63
3.38225	37.63
3.39892	37.63
3.41558	37.63
3.43225	37.63
3.44892	37.63
3.46558	37.63
3.48225	37.63
3.49892	37.63
3.51558	37.63
3.53225	37.63
3.54892	37.63
3.56558	37.63
3.58225	37.62
3.59892	37.62
3.61558	37.62
3.63225	37.62
3.64892	37.62
3.66558	37.63
3.68225	37.63
3.69892	37.63
3.71558	37.63
3.73225	37.63
3.74892	37.63
3.76558	37.63
3.78225	37.63
3.79892	37.63
3.81558	37.63
3.83225	37.63
3.84892	37.63
3.86558	37.63
3.88225	37.63
3.89892	37.63
3.91558	37.63
3.93225	37.63
3.94892	37.63
3.96558	37.63
3.98225	37.63

