[Header]
Application Name	LabSolutions
Version	5.110
Data File Name	C:\Users\User\Desktop\GC Analyses\Jack\UIC Prairie Sampling\7.22.22\220722_098.gcd
Output Date	10/5/2022
Output Time	2:13:44 PM

[File Information]
Type	Data File
Generated	10/5/2022 12:54:09 PM
Generated by	System Administrator
Modified	10/5/2022 12:58:18 PM
Modified by	System Administrator

[Sample Information]
Operator Name	System Administrator
Acquired	10/5/2022 12:54:17 PM
Sample Type	1:Standard
Level	1
Sample Name	220722_UICPrairie
Sample ID	220722_UICPrairie
ISTD Amount1	1
ISTD Amount2	1
ISTD Amount3	1
ISTD Amount4	1
ISTD Amount5	1
ISTD Amount6	1
ISTD Amount7	1
ISTD Amount8	1
ISTD Amount9	1
ISTD Amount10	1
ISTD Amount11	1
ISTD Amount12	1
ISTD Amount13	1
ISTD Amount14	1
ISTD Amount15	1
ISTD Amount16	1
ISTD Amount17	1
ISTD Amount18	1
ISTD Amount19	1
ISTD Amount20	1
ISTD Amount21	1
ISTD Amount22	1
ISTD Amount23	1
ISTD Amount24	1
ISTD Amount25	1
ISTD Amount26	1
ISTD Amount27	1
ISTD Amount28	1
ISTD Amount29	1
ISTD Amount30	1
ISTD Amount31	1
ISTD Amount32	1
Sample Amount	1
Dilution Factor	1
Vial#	1
Injection Volume	1
Injection Count	1
Bar Code	

[Original Files]
Data File	C:\Users\User\Desktop\GC Analyses\Jack\UIC Prairie Sampling\7.22.22\220722_098.gcd
Method File	C:\LabSolutions\Data\GHG_4min_2022\ghg3_togas_w_acet_4 min_new_int.gcm
Batch File	
Report Format File	c:\LabSolutions\System\DEFAULT.lsr

[File Description]


[Configuration]
Instrument Name	C0B7VH3-Instrument1
Instrument #	1
Line #	1
# of Detectors	3
Detector ID	DET#1	DET#2	DET#3
Detector Name	FID	PTCD	ECD
# of Channels	1	1	1

[Peak Table(Ch1)]
# of Peaks	3
Peak#	R.Time	I.Time	F.Time	Area	Height	A/H	Conc.	Mark	ID#	Name	k'	Plate #	Plate Ht.	Tailing	Resolution	Sep.Factor	Area Ratio	Height Ratio	Conc. %	Norm Conc.
1	1.479	1.435	1.542	14744	6638	2.221	100.000	   	1	CO	0.000	8535	17.574	1.197	0.000	0.000	0	0	16.667	16.667
2	1.575	1.542	1.641	4582	2274	2.015	100.000	 V 	2	CH4	0.064	11359	13.206	1.123	1.548	0.000	0	0	16.667	16.667
3	2.004	1.956	2.286	1673423	813826	2.056	400.000	   	3	CO2	0.354	17943	8.360	1.156	7.214	5.500	0	0	66.667	66.667

[Peak Table(Ch2)]
# of Peaks	0

[Peak Table(Ch3)]
# of Peaks	3
Peak#	R.Time	I.Time	F.Time	Area	Height	A/H	Conc.	Mark	ID#	Name	k'	Plate #	Plate Ht.	Tailing	Resolution	Sep.Factor	Area Ratio	Height Ratio	Conc. %	Norm Conc.
1	2.594	2.414	2.656	4186	507	8.252	0.000	   			0.000	2480	60.491	0.000	0.000	0.000	0	0	0.000	0.000
2	2.748	2.656	2.821	2520	284	8.885	0.104	 V 	1	N2O	0.059	199	754.023	0.000	0.312	0.000	0	0	10.424	10.424
3	2.887	2.821	3.261	21658	5080	4.264	0.896	 V 	1	N2O	0.113	12569	11.934	0.000	0.316	1.905	0	0	89.576	89.576

[Compound Results(Ch1)]
# of IDs	6
ID#	Name	R.Time	Area	Height	Conc.	Curve	3rd	2nd	1st	Constant	Area Ratio	Height Ratio	Conc. %	Norm Conc.
1	CO	1.479	14744	6638	100.000	Linear	0.000000e+00	0.000000e+00	1.474355e+002	0.000000e+00	0	0	16.667	16.667
2	CH4	1.575	4582	2274	100.000	Linear	0.000000e+00	0.000000e+00	4.582220e+001	0.000000e+00	0	0	16.667	16.667
3	CO2	2.004	1673423	813826	400.000	Linear	0.000000e+00	0.000000e+00	4.183558e+003	0.000000e+00	0	0	66.667	66.667
4	Ethylene	0.000	0	0	0.000	Linear	0.000000e+00	0.000000e+00	0.000000e+00	0.000000e+00	0	0	0.000	0.000
5	Acetylene	0.000	0	0	0.000	Linear	0.000000e+00	0.000000e+00	0.000000e+00	0.000000e+00	0	0	0.000	0.000
6	Ethane	0.000	0	0	0.000	Linear	0.000000e+00	0.000000e+00	0.000000e+00	0.000000e+00	0	0	0.000	0.000

[Compound Results(Ch2)]
# of IDs	5
ID#	Name	R.Time	Area	Height	Conc.	Curve	3rd	2nd	1st	Constant	Area Ratio	Height Ratio	Conc. %	Norm Conc.
1	Hydrogen	0.000	0	0	0.000	Linear	0.000000e+00	0.000000e+00	0.000000e+00	0.000000e+00	0	0	0.000	0.000
2	Oxygen	0.000	0	0	0.000	Linear	0.000000e+00	0.000000e+00	0.000000e+00	0.000000e+00	0	0	0.000	0.000
3	Nitrogen	0.000	0	0	0.000	Linear	0.000000e+00	0.000000e+00	0.000000e+00	0.000000e+00	0	0	0.000	0.000
4	Methane	0.000	0	0	0.000	Linear	0.000000e+00	0.000000e+00	0.000000e+00	0.000000e+00	0	0	0.000	0.000
5	Carbon Monoxide	0.000	0	0	0.000	Linear	0.000000e+00	0.000000e+00	0.000000e+00	0.000000e+00	0	0	0.000	0.000

[Compound Results(Ch3)]
# of IDs	2
ID#	Name	R.Time	Area	Height	Conc.	Curve	3rd	2nd	1st	Constant	Area Ratio	Height Ratio	Conc. %	Norm Conc.
1	N2O	2.887	24179	5363	1.000	Linear	0.000000e+00	0.000000e+00	2.417867e+004	0.000000e+00	0	0	100.000	100.000
2	SF6	0.000	0	0	0.000	Linear	0.000000e+00	0.000000e+00	0.000000e+00	0.000000e+00	0	0	0.000	0.000

[Group Results(Ch1)]
# of Groups	0

[Group Results(Ch2)]
# of Groups	0

[Group Results(Ch3)]
# of Groups	0

[Chromatogram (Ch1)]
Interval(msec)	220
# of Points	1091
Start Time(min)	0.002
End Time(min)	3.998
R.Time (min)	Intensity
0.00167	-1
0.00533	-4
0.00900	-2
0.01267	1
0.01633	4
0.02000	6
0.02367	6
0.02733	6
0.03100	3
0.03467	2
0.03833	3
0.04200	5
0.04567	8
0.04933	12
0.05300	10
0.05667	7
0.06033	6
0.06400	5
0.06767	5
0.07133	8
0.07500	13
0.07867	14
0.08233	12
0.08600	10
0.08967	8
0.09333	5
0.09700	0
0.10067	-1
0.10433	1
0.10800	2
0.11167	2
0.11533	2
0.11900	-4
0.12267	-15
0.12633	-27
0.13000	-38
0.13367	-44
0.13733	-44
0.14100	-36
0.14467	-28
0.14833	-23
0.15200	-19
0.15567	-15
0.15933	-11
0.16300	-5
0.16667	2
0.17033	7
0.17400	7
0.17767	2
0.18133	-5
0.18500	-13
0.18867	-23
0.19233	-34
0.19600	-45
0.19967	-51
0.20333	-53
0.20700	-51
0.21067	-47
0.21433	-39
0.21800	-30
0.22167	-24
0.22533	-22
0.22900	-22
0.23267	-23
0.23633	-23
0.24000	-20
0.24367	-16
0.24733	-13
0.25100	-12
0.25467	-14
0.25833	-20
0.26200	-30
0.26567	-39
0.26933	-44
0.27300	-46
0.27667	-47
0.28033	-47
0.28400	-37
0.28767	-29
0.29133	-26
0.29500	-25
0.29867	-24
0.30233	-21
0.30600	-16
0.30967	-12
0.31333	-10
0.31700	-12
0.32067	-15
0.32433	-18
0.32800	-21
0.33167	-18
0.33533	-17
0.33900	-20
0.34267	-21
0.34633	-27
0.35000	-31
0.35367	-34
0.35733	-36
0.36100	-35
0.36467	-33
0.36833	-32
0.37200	-29
0.37567	-28
0.37933	-30
0.38300	-31
0.38667	-29
0.39033	-26
0.39400	-24
0.39767	-20
0.40133	-14
0.40500	-9
0.40867	-10
0.41233	-18
0.41600	-31
0.41967	-43
0.42333	-45
0.42700	-41
0.43067	-39
0.43433	-35
0.43800	-30
0.44167	-23
0.44533	-14
0.44900	-6
0.45267	-7
0.45633	-17
0.46000	-29
0.46367	-40
0.46733	-48
0.47100	-54
0.47467	-57
0.47833	-58
0.48200	-54
0.48567	-51
0.48933	-51
0.49300	-51
0.49667	-48
0.50033	-43
0.50400	-39
0.50767	-41
0.51133	-42
0.51500	-42
0.51867	-43
0.52233	-45
0.52600	-47
0.52967	-47
0.53333	-46
0.53700	-43
0.54067	-38
0.54433	-34
0.54800	-33
0.55167	-36
0.55533	-44
0.55900	-49
0.56267	-54
0.56633	-56
0.57000	-54
0.57367	-53
0.57733	-53
0.58100	-54
0.58467	-57
0.58833	-62
0.59200	-65
0.59567	-62
0.59933	-59
0.60300	-56
0.60667	-56
0.61033	-56
0.61400	-54
0.61767	-53
0.62133	-53
0.62500	-52
0.62867	-50
0.63233	-50
0.63600	-51
0.63967	-50
0.64333	-48
0.64700	-45
0.65067	-42
0.65433	-41
0.65800	-44
0.66167	-50
0.66533	-56
0.66900	-61
0.67267	-65
0.67633	-67
0.68000	-69
0.68367	-69
0.68733	-65
0.69100	-56
0.69467	-47
0.69833	-41
0.70200	-36
0.70567	-34
0.70933	-35
0.71300	-37
0.71667	-41
0.72033	-44
0.72400	-47
0.72767	-52
0.73133	-56
0.73500	-58
0.73867	-58
0.74233	-60
0.74600	-64
0.74967	-70
0.75333	-73
0.75700	-69
0.76067	-65
0.76433	-63
0.76800	-67
0.77167	-67
0.77533	-66
0.77900	-66
0.78267	-69
0.78633	-77
0.79000	-86
0.79367	-92
0.79733	-93
0.80100	-90
0.80467	-87
0.80833	-85
0.81200	-83
0.81567	-77
0.81933	-69
0.82300	-60
0.82667	-50
0.83033	-50
0.83400	-55
0.83767	-60
0.84133	-64
0.84500	-70
0.84867	-78
0.85233	-83
0.85600	-86
0.85967	-85
0.86333	-84
0.86700	-84
0.87067	-81
0.87433	-76
0.87800	-71
0.88167	-67
0.88533	-65
0.88900	-63
0.89267	-64
0.89633	-65
0.90000	-67
0.90367	-68
0.90733	-70
0.91100	-74
0.91467	-78
0.91833	-81
0.92200	-84
0.92567	-86
0.92933	-88
0.93300	-87
0.93667	-81
0.94033	-72
0.94400	-66
0.94767	-62
0.95133	-60
0.95500	-60
0.95867	-61
0.96233	-65
0.96600	-72
0.96967	-79
0.97333	-84
0.97700	-82
0.98067	-79
0.98433	-77
0.98800	-77
0.99167	-82
0.99533	-85
0.99900	-86
1.00267	-88
1.00633	-89
1.01000	-86
1.01367	-82
1.01733	-77
1.02100	-72
1.02467	-68
1.02833	-67
1.03200	-68
1.03567	-72
1.03933	-76
1.04300	-78
1.04667	-78
1.05033	-75
1.05400	-70
1.05767	-64
1.06133	-60
1.06500	-57
1.06867	-58
1.07233	-64
1.07600	-71
1.07967	-79
1.08333	-85
1.08700	-87
1.09067	-87
1.09433	-89
1.09800	-95
1.10167	-99
1.10533	-101
1.10900	-100
1.11267	-100
1.11633	-101
1.12000	-104
1.12367	-106
1.12733	-105
1.13100	-102
1.13467	-100
1.13833	-98
1.14200	-98
1.14567	-99
1.14933	-100
1.15300	-100
1.15667	-100
1.16033	-101
1.16400	-99
1.16767	-96
1.17133	-90
1.17500	-84
1.17867	-80
1.18233	-82
1.18600	-86
1.18967	-92
1.19333	-98
1.19700	-103
1.20067	-106
1.20433	-105
1.20800	-102
1.21167	-99
1.21533	-100
1.21900	-103
1.22267	-102
1.22633	-99
1.23000	-95
1.23367	-91
1.23733	-89
1.24100	-91
1.24467	-91
1.24833	-93
1.25200	-95
1.25567	-98
1.25933	-100
1.26300	-98
1.26667	-94
1.27033	-90
1.27400	-89
1.27767	-89
1.28133	-90
1.28500	-92
1.28867	-93
1.29233	-95
1.29600	-96
1.29967	-96
1.30333	-96
1.30700	-100
1.31067	-105
1.31433	-108
1.31800	-108
1.32167	-105
1.32533	-97
1.32900	-87
1.33267	-81
1.33633	-83
1.34000	-90
1.34367	-97
1.34733	-102
1.35100	-103
1.35467	-99
1.35833	-97
1.36200	-99
1.36567	-103
1.36933	-107
1.37300	-111
1.37667	-114
1.38033	-116
1.38400	-116
1.38767	-114
1.39133	-113
1.39500	-114
1.39867	-114
1.40233	-111
1.40600	-106
1.40967	-101
1.41333	-98
1.41700	-94
1.42067	-93
1.42433	-97
1.42800	-100
1.43167	-100
1.43533	-91
1.43900	-75
1.44267	-40
1.44633	78
1.45000	368
1.45367	880
1.45733	1687
1.46100	2788
1.46467	3989
1.46833	5063
1.47200	5879
1.47567	6383
1.47933	6538
1.48300	6321
1.48667	5745
1.49033	4898
1.49400	3932
1.49767	3001
1.50133	2201
1.50500	1565
1.50867	1085
1.51233	735
1.51600	490
1.51967	318
1.52333	196
1.52700	106
1.53067	39
1.53433	-7
1.53800	-35
1.54167	-41
1.54533	3
1.54900	154
1.55267	453
1.55633	864
1.56000	1301
1.56367	1685
1.56733	1973
1.57100	2140
1.57467	2155
1.57833	2001
1.58200	1705
1.58567	1337
1.58933	971
1.59300	660
1.59667	419
1.60033	244
1.60400	124
1.60767	42
1.61133	-12
1.61500	-46
1.61867	-66
1.62233	-78
1.62600	-90
1.62967	-104
1.63333	-116
1.63700	-125
1.64067	-133
1.64433	-138
1.64800	-140
1.65167	-143
1.65533	-146
1.65900	-147
1.66267	-144
1.66633	-141
1.67000	-141
1.67367	-142
1.67733	-142
1.68100	-143
1.68467	-144
1.68833	-147
1.69200	-148
1.69567	-145
1.69933	-143
1.70300	-142
1.70667	-140
1.71033	-135
1.71400	-130
1.71767	-126
1.72133	-124
1.72500	-124
1.72867	-125
1.73233	-127
1.73600	-130
1.73967	-132
1.74333	-132
1.74700	-134
1.75067	-138
1.75433	-140
1.75800	-138
1.76167	-135
1.76533	-132
1.76900	-126
1.77267	-120
1.77633	-119
1.78000	-121
1.78367	-121
1.78733	-118
1.79100	-116
1.79467	-117
1.79833	-119
1.80200	-119
1.80567	-123
1.80933	-130
1.81300	-139
1.81667	-149
1.82033	-156
1.82400	-158
1.82767	-154
1.83133	-150
1.83500	-147
1.83867	-145
1.84233	-145
1.84600	-148
1.84967	-153
1.85333	-156
1.85700	-158
1.86067	-156
1.86433	-152
1.86800	-146
1.87167	-138
1.87533	-130
1.87900	-125
1.88267	-121
1.88633	-119
1.89000	-118
1.89367	-117
1.89733	-119
1.90100	-126
1.90467	-134
1.90833	-140
1.91200	-142
1.91567	-139
1.91933	-131
1.92300	-124
1.92667	-120
1.93033	-119
1.93400	-120
1.93767	-118
1.94133	-115
1.94500	-112
1.94867	-115
1.95233	-120
1.95600	-115
1.95967	-38
1.96333	454
1.96700	2883
1.97067	11983
1.97433	38115
1.97800	96263
1.98167	197321
1.98533	336874
1.98900	494004
1.99267	640659
1.99633	752255
2.00000	812458
2.00367	813744
2.00733	758744
2.01100	660476
2.01467	539232
2.01833	416049
2.02200	306364
2.02567	217654
2.02933	150781
2.03300	102842
2.03667	69656
2.04033	47209
2.04400	32240
2.04767	22323
2.05133	15752
2.05500	11374
2.05867	8423
2.06233	6402
2.06600	4994
2.06967	3994
2.07333	3269
2.07700	2732
2.08067	2324
2.08433	2007
2.08800	1753
2.09167	1548
2.09533	1382
2.09900	1245
2.10267	1128
2.10633	1028
2.11000	943
2.11367	870
2.11733	804
2.12100	742
2.12467	688
2.12833	643
2.13200	603
2.13567	568
2.13933	538
2.14300	509
2.14667	483
2.15033	461
2.15400	439
2.15767	415
2.16133	389
2.16500	366
2.16867	349
2.17233	335
2.17600	325
2.17967	314
2.18333	300
2.18700	287
2.19067	276
2.19433	268
2.19800	263
2.20167	260
2.20533	255
2.20900	248
2.21267	239
2.21633	229
2.22000	220
2.22367	211
2.22733	205
2.23100	199
2.23467	193
2.23833	186
2.24200	180
2.24567	177
2.24933	174
2.25300	169
2.25667	164
2.26033	160
2.26400	158
2.26767	158
2.27133	160
2.27500	153
2.27867	142
2.28233	129
2.28600	115
2.28967	106
2.29333	102
2.29700	100
2.30067	101
2.30433	105
2.30800	108
2.31167	110
2.31533	115
2.31900	124
2.32267	131
2.32633	131
2.33000	129
2.33367	126
2.33733	117
2.34100	105
2.34467	94
2.34833	84
2.35200	76
2.35567	73
2.35933	70
2.36300	70
2.36667	73
2.37033	76
2.37400	77
2.37767	78
2.38133	77
2.38500	76
2.38867	77
2.39233	79
2.39600	80
2.39967	82
2.40333	87
2.40700	94
2.41067	97
2.41433	96
2.41800	90
2.42167	83
2.42533	78
2.42900	71
2.43267	68
2.43633	69
2.44000	74
2.44367	78
2.44733	81
2.45100	80
2.45467	78
2.45833	78
2.46200	77
2.46567	74
2.46933	73
2.47300	76
2.47667	79
2.48033	78
2.48400	75
2.48767	73
2.49133	72
2.49500	70
2.49867	66
2.50233	62
2.50600	61
2.50967	65
2.51333	73
2.51700	78
2.52067	80
2.52433	79
2.52800	73
2.53167	66
2.53533	62
2.53900	63
2.54267	62
2.54633	59
2.55000	59
2.55367	64
2.55733	67
2.56100	62
2.56467	52
2.56833	44
2.57200	38
2.57567	36
2.57933	38
2.58300	45
2.58667	54
2.59033	61
2.59400	63
2.59767	62
2.60133	58
2.60500	55
2.60867	54
2.61233	52
2.61600	52
2.61967	51
2.62333	52
2.62700	49
2.63067	44
2.63433	43
2.63800	46
2.64167	50
2.64533	53
2.64900	53
2.65267	51
2.65633	49
2.66000	50
2.66367	46
2.66733	40
2.67100	37
2.67467	37
2.67833	36
2.68200	36
2.68567	37
2.68933	38
2.69300	38
2.69667	38
2.70033	37
2.70400	34
2.70767	32
2.71133	29
2.71500	30
2.71867	34
2.72233	38
2.72600	42
2.72967	46
2.73333	48
2.73700	50
2.74067	47
2.74433	42
2.74800	36
2.75167	32
2.75533	29
2.75900	29
2.76267	27
2.76633	24
2.77000	20
2.77367	18
2.77733	17
2.78100	15
2.78467	17
2.78833	21
2.79200	28
2.79567	36
2.79933	43
2.80300	44
2.80667	40
2.81033	36
2.81400	35
2.81767	35
2.82133	37
2.82500	39
2.82867	39
2.83233	35
2.83600	28
2.83967	22
2.84333	20
2.84700	22
2.85067	23
2.85433	24
2.85800	25
2.86167	26
2.86533	28
2.86900	33
2.87267	36
2.87633	34
2.88000	30
2.88367	26
2.88733	24
2.89100	22
2.89467	22
2.89833	20
2.90200	19
2.90567	22
2.90933	26
2.91300	31
2.91667	35
2.92033	36
2.92400	36
2.92767	37
2.93133	41
2.93500	46
2.93867	51
2.94233	53
2.94600	50
2.94967	46
2.95333	44
2.95700	45
2.96067	45
2.96433	44
2.96800	42
2.97167	41
2.97533	41
2.97900	44
2.98267	50
2.98633	60
2.99000	72
2.99367	78
2.99733	74
3.00100	63
3.00467	49
3.00833	39
3.01200	34
3.01567	29
3.01933	26
3.02300	28
3.02667	34
3.03033	38
3.03400	39
3.03767	37
3.04133	35
3.04500	35
3.04867	39
3.05233	45
3.05600	54
3.05967	59
3.06333	61
3.06700	61
3.07067	56
3.07433	48
3.07800	41
3.08167	36
3.08533	30
3.08900	25
3.09267	25
3.09633	27
3.10000	30
3.10367	33
3.10733	37
3.11100	42
3.11467	48
3.11833	52
3.12200	48
3.12567	41
3.12933	35
3.13300	32
3.13667	33
3.14033	35
3.14400	37
3.14767	38
3.15133	39
3.15500	42
3.15867	45
3.16233	46
3.16600	46
3.16967	44
3.17333	40
3.17700	39
3.18067	42
3.18433	45
3.18800	50
3.19167	55
3.19533	60
3.19900	59
3.20267	56
3.20633	53
3.21000	51
3.21367	50
3.21733	51
3.22100	50
3.22467	45
3.22833	41
3.23200	40
3.23567	38
3.23933	37
3.24300	39
3.24667	40
3.25033	41
3.25400	42
3.25767	39
3.26133	35
3.26500	34
3.26867	30
3.27233	27
3.27600	26
3.27967	30
3.28333	39
3.28700	47
3.29067	51
3.29433	52
3.29800	57
3.30167	64
3.30533	67
3.30900	66
3.31267	59
3.31633	51
3.32000	43
3.32367	38
3.32733	38
3.33100	39
3.33467	41
3.33833	44
3.34200	50
3.34567	58
3.34933	63
3.35300	64
3.35667	62
3.36033	54
3.36400	47
3.36767	42
3.37133	40
3.37500	38
3.37867	35
3.38233	30
3.38600	28
3.38967	29
3.39333	32
3.39700	38
3.40067	43
3.40433	42
3.40800	39
3.41167	34
3.41533	33
3.41900	35
3.42267	40
3.42633	48
3.43000	54
3.43367	56
3.43733	55
3.44100	55
3.44467	53
3.44833	53
3.45200	56
3.45567	63
3.45933	69
3.46300	72
3.46667	73
3.47033	72
3.47400	70
3.47767	65
3.48133	60
3.48500	54
3.48867	50
3.49233	46
3.49600	45
3.49967	44
3.50333	44
3.50700	45
3.51067	48
3.51433	50
3.51800	51
3.52167	47
3.52533	40
3.52900	37
3.53267	38
3.53633	43
3.54000	51
3.54367	59
3.54733	64
3.55100	67
3.55467	67
3.55833	65
3.56200	61
3.56567	63
3.56933	69
3.57300	74
3.57667	73
3.58033	66
3.58400	57
3.58767	54
3.59133	52
3.59500	51
3.59867	51
3.60233	53
3.60600	54
3.60967	54
3.61333	52
3.61700	48
3.62067	43
3.62433	40
3.62800	41
3.63167	46
3.63533	50
3.63900	52
3.64267	56
3.64633	62
3.65000	65
3.65367	66
3.65733	61
3.66100	55
3.66467	50
3.66833	48
3.67200	48
3.67567	49
3.67933	51
3.68300	54
3.68667	54
3.69033	52
3.69400	48
3.69767	42
3.70133	32
3.70500	18
3.70867	20
3.71233	30
3.71600	40
3.71967	47
3.72333	46
3.72700	43
3.73067	42
3.73433	44
3.73800	46
3.74167	48
3.74533	47
3.74900	46
3.75267	45
3.75633	39
3.76000	35
3.76367	36
3.76733	40
3.77100	43
3.77467	46
3.77833	47
3.78200	45
3.78567	43
3.78933	43
3.79300	41
3.79667	40
3.80033	41
3.80400	41
3.80767	41
3.81133	44
3.81500	47
3.81867	48
3.82233	47
3.82600	43
3.82967	38
3.83333	32
3.83700	30
3.84067	28
3.84433	26
3.84800	25
3.85167	28
3.85533	31
3.85900	34
3.86267	37
3.86633	42
3.87000	47
3.87367	55
3.87733	61
3.88100	60
3.88467	50
3.88833	37
3.89200	26
3.89567	21
3.89933	20
3.90300	24
3.90667	30
3.91033	32
3.91400	30
3.91767	27
3.92133	26
3.92500	27
3.92867	29
3.93233	28
3.93600	29
3.93967	32
3.94333	33
3.94700	33
3.95067	31
3.95433	31
3.95800	32
3.96167	31
3.96533	29
3.96900	28
3.97267	31
3.97633	34
3.98000	35
3.98367	37
3.98733	39
3.99100	39
3.99467	39
3.99833	36

[Chromatogram (Ch2)]
Interval(msec)	220
# of Points	1091
Start Time(min)	0.002
End Time(min)	3.998
R.Time (min)	Intensity
0.00167	-1
0.00533	-2
0.00900	-2
0.01267	-2
0.01633	-3
0.02000	-3
0.02367	-3
0.02733	-3
0.03100	-3
0.03467	-4
0.03833	-4
0.04200	-4
0.04567	-4
0.04933	-4
0.05300	-4
0.05667	-5
0.06033	-5
0.06400	-5
0.06767	-5
0.07133	-5
0.07500	-5
0.07867	-5
0.08233	-5
0.08600	-4
0.08967	-4
0.09333	-4
0.09700	-4
0.10067	-4
0.10433	-4
0.10800	-4
0.11167	-4
0.11533	-3
0.11900	-3
0.12267	-3
0.12633	-3
0.13000	-3
0.13367	-3
0.13733	-3
0.14100	-3
0.14467	-4
0.14833	-4
0.15200	-4
0.15567	-5
0.15933	-5
0.16300	-5
0.16667	-5
0.17033	-6
0.17400	-6
0.17767	-6
0.18133	-7
0.18500	-7
0.18867	-8
0.19233	-8
0.19600	-8
0.19967	-8
0.20333	-8
0.20700	-8
0.21067	-8
0.21433	-8
0.21800	-8
0.22167	-8
0.22533	-8
0.22900	-8
0.23267	-8
0.23633	-8
0.24000	-8
0.24367	-8
0.24733	-8
0.25100	-7
0.25467	-7
0.25833	-6
0.26200	-6
0.26567	-5
0.26933	-5
0.27300	-5
0.27667	-4
0.28033	-4
0.28400	-4
0.28767	-4
0.29133	-3
0.29500	-3
0.29867	-3
0.30233	-3
0.30600	-3
0.30967	-2
0.31333	-2
0.31700	-2
0.32067	-2
0.32433	-1
0.32800	-1
0.33167	-1
0.33533	-1
0.33900	-1
0.34267	-1
0.34633	-1
0.35000	-1
0.35367	-1
0.35733	-2
0.36100	-2
0.36467	-2
0.36833	-2
0.37200	-2
0.37567	-3
0.37933	-3
0.38300	-3
0.38667	-3
0.39033	-3
0.39400	-3
0.39767	-3
0.40133	-4
0.40500	-4
0.40867	-4
0.41233	-4
0.41600	-4
0.41967	-5
0.42333	-5
0.42700	-5
0.43067	-5
0.43433	-5
0.43800	-5
0.44167	-5
0.44533	-5
0.44900	-5
0.45267	-6
0.45633	-6
0.46000	-6
0.46367	-6
0.46733	-6
0.47100	-6
0.47467	-6
0.47833	-6
0.48200	-6
0.48567	-6
0.48933	-6
0.49300	-6
0.49667	-6
0.50033	-6
0.50400	-6
0.50767	-6
0.51133	-6
0.51500	-6
0.51867	-5
0.52233	-5
0.52600	-5
0.52967	-5
0.53333	-5
0.53700	-5
0.54067	-5
0.54433	-5
0.54800	-5
0.55167	-6
0.55533	-6
0.55900	-6
0.56267	-6
0.56633	-6
0.57000	-6
0.57367	-6
0.57733	-6
0.58100	-6
0.58467	-6
0.58833	-6
0.59200	-6
0.59567	-6
0.59933	-6
0.60300	-6
0.60667	-7
0.61033	-7
0.61400	-7
0.61767	-7
0.62133	-6
0.62500	-6
0.62867	-6
0.63233	-7
0.63600	-7
0.63967	-7
0.64333	-6
0.64700	-6
0.65067	-6
0.65433	-6
0.65800	-6
0.66167	-6
0.66533	-6
0.66900	-6
0.67267	-6
0.67633	-7
0.68000	-7
0.68367	-7
0.68733	-6
0.69100	-6
0.69467	-6
0.69833	-7
0.70200	-7
0.70567	-7
0.70933	-8
0.71300	-8
0.71667	-8
0.72033	-8
0.72400	-8
0.72767	-8
0.73133	-8
0.73500	-8
0.73867	-8
0.74233	-8
0.74600	-7
0.74967	-7
0.75333	-6
0.75700	-6
0.76067	-6
0.76433	-6
0.76800	-6
0.77167	-5
0.77533	-5
0.77900	-5
0.78267	-5
0.78633	-5
0.79000	-5
0.79367	-5
0.79733	-5
0.80100	-5
0.80467	-5
0.80833	-5
0.81200	-5
0.81567	-6
0.81933	-6
0.82300	-6
0.82667	-6
0.83033	-6
0.83400	-6
0.83767	-6
0.84133	-6
0.84500	-7
0.84867	-7
0.85233	-7
0.85600	-7
0.85967	-7
0.86333	-7
0.86700	-7
0.87067	-7
0.87433	-7
0.87800	-7
0.88167	-7
0.88533	-8
0.88900	-8
0.89267	-8
0.89633	-8
0.90000	-8
0.90367	-8
0.90733	-8
0.91100	-8
0.91467	-8
0.91833	-9
0.92200	-9
0.92567	-9
0.92933	-9
0.93300	-9
0.93667	-9
0.94033	-9
0.94400	-9
0.94767	-9
0.95133	-9
0.95500	-9
0.95867	-9
0.96233	-9
0.96600	-9
0.96967	-8
0.97333	-8
0.97700	-9
0.98067	-8
0.98433	-8
0.98800	-8
0.99167	-9
0.99533	-9
0.99900	-9
1.00267	-9
1.00633	-9
1.01000	-10
1.01367	-10
1.01733	-10
1.02100	-10
1.02467	-10
1.02833	-10
1.03200	-9
1.03567	-9
1.03933	-9
1.04300	-8
1.04667	-8
1.05033	-7
1.05400	-7
1.05767	-6
1.06133	-6
1.06500	-6
1.06867	-5
1.07233	-5
1.07600	-5
1.07967	-5
1.08333	-5
1.08700	-5
1.09067	-5
1.09433	-5
1.09800	-5
1.10167	-5
1.10533	-5
1.10900	-5
1.11267	-5
1.11633	-4
1.12000	-4
1.12367	-4
1.12733	-4
1.13100	-4
1.13467	-4
1.13833	-4
1.14200	-4
1.14567	-4
1.14933	-4
1.15300	-4
1.15667	-4
1.16033	-4
1.16400	-4
1.16767	-4
1.17133	-4
1.17500	-4
1.17867	-4
1.18233	-5
1.18600	-5
1.18967	-6
1.19333	-6
1.19700	-6
1.20067	-6
1.20433	-6
1.20800	-6
1.21167	-5
1.21533	-5
1.21900	-5
1.22267	-6
1.22633	-6
1.23000	-6
1.23367	-7
1.23733	-7
1.24100	-8
1.24467	-8
1.24833	-9
1.25200	-9
1.25567	-9
1.25933	-9
1.26300	-9
1.26667	-9
1.27033	-9
1.27400	-9
1.27767	-8
1.28133	-8
1.28500	-7
1.28867	-7
1.29233	-6
1.29600	-6
1.29967	-5
1.30333	-5
1.30700	-5
1.31067	-5
1.31433	-6
1.31800	-6
1.32167	-6
1.32533	-6
1.32900	-6
1.33267	-6
1.33633	-6
1.34000	-6
1.34367	-6
1.34733	-6
1.35100	-6
1.35467	-6
1.35833	-6
1.36200	-6
1.36567	-6
1.36933	-6
1.37300	-6
1.37667	-6
1.38033	-6
1.38400	-6
1.38767	-6
1.39133	-6
1.39500	-6
1.39867	-6
1.40233	-6
1.40600	-6
1.40967	-6
1.41333	-6
1.41700	-6
1.42067	-7
1.42433	-7
1.42800	-7
1.43167	-7
1.43533	-8
1.43900	-8
1.44267	-8
1.44633	-8
1.45000	-8
1.45367	-8
1.45733	-9
1.46100	-9
1.46467	-9
1.46833	-9
1.47200	-9
1.47567	-9
1.47933	-9
1.48300	-8
1.48667	-7
1.49033	-7
1.49400	-6
1.49767	-6
1.50133	-5
1.50500	-5
1.50867	-5
1.51233	-5
1.51600	-5
1.51967	-5
1.52333	-5
1.52700	-5
1.53067	-5
1.53433	-5
1.53800	-5
1.54167	-5
1.54533	-5
1.54900	-4
1.55267	-4
1.55633	-5
1.56000	-5
1.56367	-5
1.56733	-5
1.57100	-5
1.57467	-6
1.57833	-6
1.58200	-7
1.58567	-7
1.58933	-8
1.59300	-8
1.59667	-9
1.60033	-10
1.60400	-11
1.60767	-13
1.61133	-15
1.61500	-17
1.61867	-19
1.62233	-22
1.62600	-24
1.62967	-27
1.63333	-31
1.63700	-34
1.64067	-38
1.64433	-41
1.64800	-45
1.65167	-49
1.65533	-52
1.65900	-55
1.66267	-59
1.66633	-63
1.67000	-67
1.67367	-72
1.67733	-77
1.68100	-81
1.68467	-86
1.68833	-91
1.69200	-96
1.69567	-100
1.69933	-103
1.70300	-106
1.70667	-109
1.71033	-111
1.71400	-113
1.71767	-115
1.72133	-116
1.72500	-118
1.72867	-119
1.73233	-119
1.73600	-119
1.73967	-119
1.74333	-118
1.74700	-118
1.75067	-118
1.75433	-119
1.75800	-120
1.76167	-121
1.76533	-122
1.76900	-123
1.77267	-123
1.77633	-124
1.78000	-124
1.78367	-124
1.78733	-124
1.79100	-124
1.79467	-124
1.79833	-124
1.80200	-125
1.80567	-125
1.80933	-126
1.81300	-126
1.81667	-127
1.82033	-127
1.82400	-128
1.82767	-128
1.83133	-128
1.83500	-128
1.83867	-128
1.84233	-128
1.84600	-128
1.84967	-128
1.85333	-128
1.85700	-127
1.86067	-127
1.86433	-126
1.86800	-126
1.87167	-125
1.87533	-125
1.87900	-125
1.88267	-125
1.88633	-124
1.89000	-125
1.89367	-125
1.89733	-125
1.90100	-125
1.90467	-125
1.90833	-125
1.91200	-125
1.91567	-125
1.91933	-125
1.92300	-125
1.92667	-125
1.93033	-125
1.93400	-125
1.93767	-125
1.94133	-125
1.94500	-125
1.94867	-124
1.95233	-124
1.95600	-123
1.95967	-123
1.96333	-122
1.96700	-122
1.97067	-122
1.97433	-122
1.97800	-122
1.98167	-122
1.98533	-122
1.98900	-122
1.99267	-121
1.99633	-121
2.00000	-120
2.00367	-119
2.00733	-118
2.01100	-117
2.01467	-116
2.01833	-116
2.02200	-116
2.02567	-116
2.02933	-117
2.03300	-117
2.03667	-117
2.04033	-118
2.04400	-118
2.04767	-119
2.05133	-119
2.05500	-119
2.05867	-118
2.06233	-117
2.06600	-116
2.06967	-115
2.07333	-114
2.07700	-113
2.08067	-113
2.08433	-112
2.08800	-112
2.09167	-111
2.09533	-111
2.09900	-111
2.10267	-111
2.10633	-111
2.11000	-111
2.11367	-110
2.11733	-110
2.12100	-110
2.12467	-109
2.12833	-109
2.13200	-108
2.13567	-108
2.13933	-107
2.14300	-107
2.14667	-106
2.15033	-106
2.15400	-106
2.15767	-106
2.16133	-106
2.16500	-107
2.16867	-107
2.17233	-107
2.17600	-107
2.17967	-107
2.18333	-107
2.18700	-106
2.19067	-106
2.19433	-105
2.19800	-105
2.20167	-104
2.20533	-104
2.20900	-104
2.21267	-104
2.21633	-103
2.22000	-103
2.22367	-102
2.22733	-102
2.23100	-101
2.23467	-101
2.23833	-100
2.24200	-100
2.24567	-100
2.24933	-99
2.25300	-99
2.25667	-98
2.26033	-98
2.26400	-98
2.26767	-98
2.27133	-99
2.27500	-99
2.27867	-99
2.28233	-99
2.28600	-99
2.28967	-98
2.29333	-97
2.29700	-96
2.30067	-95
2.30433	-94
2.30800	-93
2.31167	-93
2.31533	-94
2.31900	-94
2.32267	-95
2.32633	-96
2.33000	-96
2.33367	-96
2.33733	-95
2.34100	-94
2.34467	-93
2.34833	-92
2.35200	-91
2.35567	-91
2.35933	-91
2.36300	-91
2.36667	-91
2.37033	-91
2.37400	-90
2.37767	-88
2.38133	-86
2.38500	-83
2.38867	-79
2.39233	-75
2.39600	-70
2.39967	-65
2.40333	-61
2.40700	-56
2.41067	-51
2.41433	-46
2.41800	-41
2.42167	-37
2.42533	-33
2.42900	-30
2.43267	-27
2.43633	-25
2.44000	-22
2.44367	-20
2.44733	-17
2.45100	-15
2.45467	-13
2.45833	-12
2.46200	-11
2.46567	-10
2.46933	-8
2.47300	-7
2.47667	-6
2.48033	-4
2.48400	-3
2.48767	-2
2.49133	-1
2.49500	-1
2.49867	-0
2.50233	-0
2.50600	0
2.50967	1
2.51333	2
2.51700	3
2.52067	4
2.52433	5
2.52800	6
2.53167	7
2.53533	8
2.53900	8
2.54267	9
2.54633	9
2.55000	9
2.55367	10
2.55733	10
2.56100	10
2.56467	9
2.56833	9
2.57200	9
2.57567	9
2.57933	9
2.58300	9
2.58667	9
2.59033	9
2.59400	9
2.59767	9
2.60133	9
2.60500	9
2.60867	10
2.61233	10
2.61600	11
2.61967	11
2.62333	11
2.62700	11
2.63067	11
2.63433	11
2.63800	11
2.64167	10
2.64533	10
2.64900	10
2.65267	11
2.65633	11
2.66000	11
2.66367	12
2.66733	13
2.67100	13
2.67467	14
2.67833	14
2.68200	15
2.68567	15
2.68933	15
2.69300	16
2.69667	16
2.70033	16
2.70400	16
2.70767	16
2.71133	17
2.71500	17
2.71867	17
2.72233	17
2.72600	16
2.72967	16
2.73333	15
2.73700	15
2.74067	14
2.74433	14
2.74800	14
2.75167	13
2.75533	13
2.75900	13
2.76267	13
2.76633	14
2.77000	14
2.77367	14
2.77733	15
2.78100	15
2.78467	16
2.78833	17
2.79200	17
2.79567	18
2.79933	18
2.80300	18
2.80667	18
2.81033	18
2.81400	18
2.81767	18
2.82133	19
2.82500	19
2.82867	19
2.83233	19
2.83600	19
2.83967	20
2.84333	20
2.84700	20
2.85067	19
2.85433	16
2.85800	12
2.86167	6
2.86533	-4
2.86900	-17
2.87267	-33
2.87633	-54
2.88000	-79
2.88367	-108
2.88733	-140
2.89100	-176
2.89467	-216
2.89833	-258
2.90200	-303
2.90567	-349
2.90933	-397
2.91300	-447
2.91667	-497
2.92033	-547
2.92400	-597
2.92767	-646
2.93133	-695
2.93500	-744
2.93867	-792
2.94233	-842
2.94600	-896
2.94967	-957
2.95333	-1018
2.95700	-1069
2.96067	-1098
2.96433	-1102
2.96800	-1079
2.97167	-1033
2.97533	-971
2.97900	-898
2.98267	-819
2.98633	-739
2.99000	-659
2.99367	-584
2.99733	-514
3.00100	-449
3.00467	-390
3.00833	-338
3.01200	-291
3.01567	-250
3.01933	-214
3.02300	-183
3.02667	-156
3.03033	-133
3.03400	-113
3.03767	-95
3.04133	-80
3.04500	-67
3.04867	-56
3.05233	-47
3.05600	-39
3.05967	-33
3.06333	-27
3.06700	-22
3.07067	-18
3.07433	-14
3.07800	-11
3.08167	-8
3.08533	-6
3.08900	-4
3.09267	-2
3.09633	-1
3.10000	1
3.10367	2
3.10733	3
3.11100	4
3.11467	5
3.11833	6
3.12200	6
3.12567	7
3.12933	8
3.13300	8
3.13667	9
3.14033	10
3.14400	11
3.14767	12
3.15133	12
3.15500	13
3.15867	14
3.16233	14
3.16600	15
3.16967	15
3.17333	16
3.17700	16
3.18067	17
3.18433	17
3.18800	17
3.19167	18
3.19533	18
3.19900	18
3.20267	18
3.20633	18
3.21000	18
3.21367	18
3.21733	19
3.22100	19
3.22467	19
3.22833	19
3.23200	19
3.23567	19
3.23933	19
3.24300	19
3.24667	19
3.25033	18
3.25400	18
3.25767	18
3.26133	19
3.26500	19
3.26867	19
3.27233	19
3.27600	19
3.27967	19
3.28333	19
3.28700	19
3.29067	19
3.29433	19
3.29800	19
3.30167	19
3.30533	19
3.30900	19
3.31267	19
3.31633	19
3.32000	19
3.32367	19
3.32733	20
3.33100	20
3.33467	20
3.33833	20
3.34200	20
3.34567	20
3.34933	20
3.35300	20
3.35667	21
3.36033	21
3.36400	21
3.36767	21
3.37133	21
3.37500	21
3.37867	21
3.38233	20
3.38600	20
3.38967	20
3.39333	20
3.39700	20
3.40067	20
3.40433	20
3.40800	20
3.41167	20
3.41533	19
3.41900	19
3.42267	19
3.42633	19
3.43000	19
3.43367	19
3.43733	19
3.44100	19
3.44467	19
3.44833	19
3.45200	19
3.45567	19
3.45933	20
3.46300	20
3.46667	20
3.47033	20
3.47400	20
3.47767	20
3.48133	20
3.48500	20
3.48867	20
3.49233	20
3.49600	20
3.49967	21
3.50333	21
3.50700	21
3.51067	21
3.51433	21
3.51800	21
3.52167	21
3.52533	21
3.52900	21
3.53267	21
3.53633	21
3.54000	21
3.54367	21
3.54733	21
3.55100	21
3.55467	21
3.55833	21
3.56200	21
3.56567	21
3.56933	21
3.57300	21
3.57667	21
3.58033	20
3.58400	20
3.58767	20
3.59133	20
3.59500	20
3.59867	20
3.60233	20
3.60600	20
3.60967	20
3.61333	20
3.61700	20
3.62067	20
3.62433	20
3.62800	20
3.63167	20
3.63533	20
3.63900	20
3.64267	20
3.64633	20
3.65000	20
3.65367	21
3.65733	21
3.66100	21
3.66467	22
3.66833	22
3.67200	22
3.67567	23
3.67933	23
3.68300	23
3.68667	23
3.69033	23
3.69400	23
3.69767	23
3.70133	23
3.70500	23
3.70867	23
3.71233	23
3.71600	23
3.71967	23
3.72333	23
3.72700	23
3.73067	23
3.73433	23
3.73800	23
3.74167	23
3.74533	23
3.74900	23
3.75267	23
3.75633	23
3.76000	23
3.76367	23
3.76733	23
3.77100	24
3.77467	24
3.77833	24
3.78200	24
3.78567	24
3.78933	24
3.79300	24
3.79667	24
3.80033	24
3.80400	24
3.80767	24
3.81133	24
3.81500	24
3.81867	24
3.82233	24
3.82600	24
3.82967	24
3.83333	24
3.83700	24
3.84067	24
3.84433	24
3.84800	24
3.85167	24
3.85533	24
3.85900	24
3.86267	24
3.86633	24
3.87000	24
3.87367	24
3.87733	24
3.88100	24
3.88467	24
3.88833	24
3.89200	24
3.89567	23
3.89933	23
3.90300	23
3.90667	23
3.91033	23
3.91400	23
3.91767	23
3.92133	23
3.92500	23
3.92867	23
3.93233	23
3.93600	23
3.93967	23
3.94333	23
3.94700	22
3.95067	22
3.95433	22
3.95800	22
3.96167	22
3.96533	21
3.96900	21
3.97267	21
3.97633	21
3.98000	21
3.98367	21
3.98733	21
3.99100	21
3.99467	21
3.99833	21

[Chromatogram (Ch3)]
Interval(msec)	220
# of Points	1091
Start Time(min)	0.002
End Time(min)	3.998
R.Time (min)	Intensity
0.00167	1
0.00533	2
0.00900	1
0.01267	-1
0.01633	-0
0.02000	1
0.02367	2
0.02733	1
0.03100	-2
0.03467	-5
0.03833	-5
0.04200	-5
0.04567	-2
0.04933	2
0.05300	2
0.05667	3
0.06033	4
0.06400	6
0.06767	7
0.07133	7
0.07500	5
0.07867	7
0.08233	7
0.08600	5
0.08967	5
0.09333	3
0.09700	2
0.10067	2
0.10433	2
0.10800	2
0.11167	5
0.11533	6
0.11900	6
0.12267	8
0.12633	8
0.13000	8
0.13367	9
0.13733	8
0.14100	6
0.14467	7
0.14833	7
0.15200	6
0.15567	6
0.15933	7
0.16300	7
0.16667	8
0.17033	10
0.17400	10
0.17767	11
0.18133	10
0.18500	8
0.18867	8
0.19233	8
0.19600	8
0.19967	7
0.20333	6
0.20700	6
0.21067	6
0.21433	7
0.21800	8
0.22167	9
0.22533	10
0.22900	12
0.23267	10
0.23633	9
0.24000	9
0.24367	10
0.24733	11
0.25100	11
0.25467	11
0.25833	11
0.26200	12
0.26567	12
0.26933	11
0.27300	9
0.27667	10
0.28033	11
0.28400	10
0.28767	10
0.29133	10
0.29500	11
0.29867	13
0.30233	14
0.30600	13
0.30967	12
0.31333	15
0.31700	18
0.32067	18
0.32433	19
0.32800	18
0.33167	19
0.33533	19
0.33900	18
0.34267	18
0.34633	18
0.35000	18
0.35367	18
0.35733	18
0.36100	19
0.36467	20
0.36833	19
0.37200	17
0.37567	16
0.37933	16
0.38300	18
0.38667	19
0.39033	19
0.39400	18
0.39767	18
0.40133	20
0.40500	21
0.40867	21
0.41233	21
0.41600	19
0.41967	17
0.42333	16
0.42700	16
0.43067	18
0.43433	19
0.43800	19
0.44167	18
0.44533	16
0.44900	15
0.45267	14
0.45633	15
0.46000	16
0.46367	17
0.46733	18
0.47100	18
0.47467	20
0.47833	22
0.48200	19
0.48567	18
0.48933	19
0.49300	18
0.49667	17
0.50033	18
0.50400	22
0.50767	20
0.51133	18
0.51500	18
0.51867	17
0.52233	16
0.52600	16
0.52967	17
0.53333	18
0.53700	16
0.54067	15
0.54433	16
0.54800	17
0.55167	16
0.55533	14
0.55900	15
0.56267	16
0.56633	15
0.57000	17
0.57367	19
0.57733	21
0.58100	21
0.58467	24
0.58833	26
0.59200	27
0.59567	28
0.59933	28
0.60300	26
0.60667	26
0.61033	26
0.61400	23
0.61767	20
0.62133	19
0.62500	20
0.62867	18
0.63233	18
0.63600	21
0.63967	24
0.64333	23
0.64700	21
0.65067	21
0.65433	22
0.65800	21
0.66167	21
0.66533	24
0.66900	25
0.67267	24
0.67633	22
0.68000	20
0.68367	19
0.68733	17
0.69100	15
0.69467	14
0.69833	14
0.70200	14
0.70567	17
0.70933	20
0.71300	21
0.71667	20
0.72033	18
0.72400	18
0.72767	17
0.73133	19
0.73500	19
0.73867	18
0.74233	20
0.74600	21
0.74967	22
0.75333	22
0.75700	23
0.76067	23
0.76433	23
0.76800	23
0.77167	22
0.77533	22
0.77900	21
0.78267	21
0.78633	25
0.79000	25
0.79367	25
0.79733	25
0.80100	24
0.80467	22
0.80833	21
0.81200	22
0.81567	22
0.81933	22
0.82300	22
0.82667	23
0.83033	24
0.83400	24
0.83767	25
0.84133	25
0.84500	24
0.84867	22
0.85233	21
0.85600	22
0.85967	23
0.86333	24
0.86700	24
0.87067	24
0.87433	23
0.87800	23
0.88167	23
0.88533	23
0.88900	22
0.89267	21
0.89633	22
0.90000	20
0.90367	20
0.90733	20
0.91100	20
0.91467	19
0.91833	19
0.92200	21
0.92567	24
0.92933	24
0.93300	22
0.93667	22
0.94033	25
0.94400	25
0.94767	23
0.95133	23
0.95500	24
0.95867	26
0.96233	27
0.96600	28
0.96967	29
0.97333	30
0.97700	30
0.98067	32
0.98433	33
0.98800	32
0.99167	31
0.99533	31
0.99900	30
1.00267	28
1.00633	28
1.01000	29
1.01367	28
1.01733	26
1.02100	24
1.02467	24
1.02833	25
1.03200	27
1.03567	28
1.03933	27
1.04300	27
1.04667	26
1.05033	26
1.05400	25
1.05767	24
1.06133	24
1.06500	24
1.06867	23
1.07233	23
1.07600	25
1.07967	25
1.08333	23
1.08700	22
1.09067	21
1.09433	20
1.09800	20
1.10167	21
1.10533	24
1.10900	26
1.11267	27
1.11633	28
1.12000	28
1.12367	27
1.12733	25
1.13100	24
1.13467	23
1.13833	24
1.14200	25
1.14567	27
1.14933	28
1.15300	28
1.15667	27
1.16033	26
1.16400	25
1.16767	23
1.17133	21
1.17500	21
1.17867	20
1.18233	20
1.18600	21
1.18967	20
1.19333	18
1.19700	18
1.20067	20
1.20433	21
1.20800	23
1.21167	24
1.21533	26
1.21900	28
1.22267	29
1.22633	30
1.23000	29
1.23367	30
1.23733	30
1.24100	27
1.24467	24
1.24833	21
1.25200	21
1.25567	23
1.25933	22
1.26300	22
1.26667	22
1.27033	24
1.27400	25
1.27767	25
1.28133	26
1.28500	26
1.28867	27
1.29233	27
1.29600	29
1.29967	32
1.30333	33
1.30700	34
1.31067	34
1.31433	31
1.31800	28
1.32167	24
1.32533	23
1.32900	23
1.33267	25
1.33633	24
1.34000	24
1.34367	25
1.34733	26
1.35100	29
1.35467	29
1.35833	29
1.36200	29
1.36567	28
1.36933	27
1.37300	26
1.37667	26
1.38033	26
1.38400	25
1.38767	24
1.39133	23
1.39500	23
1.39867	25
1.40233	27
1.40600	27
1.40967	24
1.41333	21
1.41700	17
1.42067	17
1.42433	18
1.42800	20
1.43167	20
1.43533	20
1.43900	20
1.44267	21
1.44633	20
1.45000	19
1.45367	20
1.45733	23
1.46100	25
1.46467	24
1.46833	25
1.47200	28
1.47567	30
1.47933	28
1.48300	24
1.48667	22
1.49033	20
1.49400	20
1.49767	22
1.50133	21
1.50500	21
1.50867	20
1.51233	19
1.51600	19
1.51967	17
1.52333	15
1.52700	16
1.53067	18
1.53433	19
1.53800	20
1.54167	21
1.54533	18
1.54900	18
1.55267	18
1.55633	17
1.56000	18
1.56367	21
1.56733	25
1.57100	27
1.57467	26
1.57833	24
1.58200	25
1.58567	24
1.58933	22
1.59300	21
1.59667	21
1.60033	20
1.60400	19
1.60767	19
1.61133	22
1.61500	25
1.61867	26
1.62233	26
1.62600	27
1.62967	31
1.63333	32
1.63700	31
1.64067	31
1.64433	33
1.64800	35
1.65167	33
1.65533	31
1.65900	28
1.66267	29
1.66633	31
1.67000	30
1.67367	31
1.67733	32
1.68100	35
1.68467	39
1.68833	41
1.69200	41
1.69567	40
1.69933	39
1.70300	37
1.70667	36
1.71033	37
1.71400	38
1.71767	39
1.72133	39
1.72500	35
1.72867	33
1.73233	32
1.73600	35
1.73967	35
1.74333	35
1.74700	37
1.75067	43
1.75433	47
1.75800	49
1.76167	50
1.76533	49
1.76900	48
1.77267	49
1.77633	50
1.78000	48
1.78367	46
1.78733	47
1.79100	46
1.79467	46
1.79833	47
1.80200	50
1.80567	54
1.80933	55
1.81300	55
1.81667	55
1.82033	53
1.82400	51
1.82767	51
1.83133	51
1.83500	52
1.83867	56
1.84233	57
1.84600	56
1.84967	55
1.85333	54
1.85700	53
1.86067	54
1.86433	56
1.86800	56
1.87167	57
1.87533	57
1.87900	58
1.88267	59
1.88633	59
1.89000	59
1.89367	59
1.89733	56
1.90100	55
1.90467	53
1.90833	53
1.91200	53
1.91567	57
1.91933	60
1.92300	63
1.92667	63
1.93033	63
1.93400	62
1.93767	63
1.94133	65
1.94500	64
1.94867	65
1.95233	65
1.95600	63
1.95967	62
1.96333	60
1.96700	60
1.97067	62
1.97433	64
1.97800	66
1.98167	69
1.98533	70
1.98900	70
1.99267	70
1.99633	69
2.00000	69
2.00367	71
2.00733	72
2.01100	72
2.01467	74
2.01833	76
2.02200	77
2.02567	78
2.02933	78
2.03300	78
2.03667	78
2.04033	78
2.04400	80
2.04767	82
2.05133	84
2.05500	85
2.05867	87
2.06233	88
2.06600	89
2.06967	88
2.07333	89
2.07700	91
2.08067	92
2.08433	92
2.08800	91
2.09167	92
2.09533	93
2.09900	95
2.10267	98
2.10633	101
2.11000	102
2.11367	100
2.11733	99
2.12100	99
2.12467	101
2.12833	103
2.13200	105
2.13567	106
2.13933	108
2.14300	111
2.14667	114
2.15033	116
2.15400	117
2.15767	119
2.16133	122
2.16500	125
2.16867	124
2.17233	123
2.17600	123
2.17967	121
2.18333	119
2.18700	118
2.19067	120
2.19433	124
2.19800	124
2.20167	126
2.20533	127
2.20900	127
2.21267	129
2.21633	129
2.22000	129
2.22367	130
2.22733	132
2.23100	132
2.23467	134
2.23833	136
2.24200	135
2.24567	134
2.24933	135
2.25300	137
2.25667	140
2.26033	141
2.26400	142
2.26767	144
2.27133	146
2.27500	146
2.27867	143
2.28233	143
2.28600	145
2.28967	146
2.29333	146
2.29700	145
2.30067	145
2.30433	146
2.30800	147
2.31167	147
2.31533	149
2.31900	153
2.32267	157
2.32633	160
2.33000	162
2.33367	162
2.33733	162
2.34100	161
2.34467	162
2.34833	163
2.35200	166
2.35567	167
2.35933	168
2.36300	172
2.36667	173
2.37033	174
2.37400	174
2.37767	175
2.38133	175
2.38500	175
2.38867	176
2.39233	178
2.39600	177
2.39967	175
2.40333	173
2.40700	174
2.41067	176
2.41433	179
2.41800	183
2.42167	185
2.42533	186
2.42900	187
2.43267	188
2.43633	190
2.44000	194
2.44367	197
2.44733	198
2.45100	198
2.45467	199
2.45833	205
2.46200	219
2.46567	239
2.46933	262
2.47300	288
2.47667	317
2.48033	347
2.48400	373
2.48767	400
2.49133	428
2.49500	453
2.49867	475
2.50233	497
2.50600	517
2.50967	538
2.51333	557
2.51700	572
2.52067	586
2.52433	599
2.52800	612
2.53167	624
2.53533	631
2.53900	639
2.54267	646
2.54633	652
2.55000	660
2.55367	669
2.55733	677
2.56100	681
2.56467	686
2.56833	692
2.57200	698
2.57567	703
2.57933	708
2.58300	708
2.58667	707
2.59033	711
2.59400	714
2.59767	714
2.60133	709
2.60500	700
2.60867	688
2.61233	671
2.61600	646
2.61967	616
2.62333	584
2.62700	551
2.63067	517
2.63433	486
2.63800	459
2.64167	437
2.64533	421
2.64900	409
2.65267	398
2.65633	392
2.66000	394
2.66367	397
2.66733	400
2.67100	405
2.67467	411
2.67833	421
2.68200	431
2.68567	439
2.68933	447
2.69300	455
2.69667	463
2.70033	473
2.70400	479
2.70767	484
2.71133	488
2.71500	493
2.71867	496
2.72233	499
2.72600	504
2.72967	506
2.73333	509
2.73700	509
2.74067	511
2.74433	513
2.74800	514
2.75167	513
2.75533	513
2.75900	511
2.76267	511
2.76633	510
2.77000	511
2.77367	511
2.77733	509
2.78100	507
2.78467	504
2.78833	502
2.79200	503
2.79567	505
2.79933	508
2.80300	510
2.80667	510
2.81033	509
2.81400	509
2.81767	508
2.82133	507
2.82500	509
2.82867	515
2.83233	528
2.83600	559
2.83967	619
2.84333	731
2.84700	915
2.85067	1193
2.85433	1569
2.85800	2043
2.86167	2596
2.86533	3194
2.86900	3792
2.87267	4340
2.87633	4789
2.88000	5112
2.88367	5295
2.88733	5331
2.89100	5239
2.89467	5041
2.89833	4767
2.90200	4441
2.90567	4089
2.90933	3729
2.91300	3379
2.91667	3048
2.92033	2744
2.92400	2467
2.92767	2217
2.93133	1993
2.93500	1792
2.93867	1613
2.94233	1457
2.94600	1321
2.94967	1204
2.95333	1101
2.95700	1012
2.96067	932
2.96433	864
2.96800	806
2.97167	755
2.97533	711
2.97900	671
2.98267	636
2.98633	609
2.99000	586
2.99367	566
2.99733	547
3.00100	529
3.00467	515
3.00833	503
3.01200	493
3.01567	485
3.01933	477
3.02300	470
3.02667	460
3.03033	452
3.03400	448
3.03767	442
3.04133	438
3.04500	436
3.04867	432
3.05233	428
3.05600	423
3.05967	418
3.06333	415
3.06700	412
3.07067	409
3.07433	406
3.07800	403
3.08167	401
3.08533	399
3.08900	396
3.09267	393
3.09633	392
3.10000	391
3.10367	387
3.10733	384
3.11100	381
3.11467	378
3.11833	374
3.12200	372
3.12567	369
3.12933	367
3.13300	368
3.13667	368
3.14033	368
3.14400	367
3.14767	365
3.15133	360
3.15500	356
3.15867	352
3.16233	348
3.16600	344
3.16967	344
3.17333	343
3.17700	341
3.18067	339
3.18433	340
3.18800	339
3.19167	337
3.19533	336
3.19900	334
3.20267	331
3.20633	330
3.21000	327
3.21367	325
3.21733	325
3.22100	326
3.22467	324
3.22833	321
3.23200	319
3.23567	318
3.23933	318
3.24300	318
3.24667	318
3.25033	319
3.25400	317
3.25767	314
3.26133	309
3.26500	305
3.26867	306
3.27233	307
3.27600	308
3.27967	305
3.28333	302
3.28700	300
3.29067	297
3.29433	293
3.29800	289
3.30167	286
3.30533	284
3.30900	280
3.31267	279
3.31633	278
3.32000	277
3.32367	276
3.32733	275
3.33100	273
3.33467	271
3.33833	269
3.34200	265
3.34567	263
3.34933	261
3.35300	257
3.35667	255
3.36033	254
3.36400	252
3.36767	249
3.37133	246
3.37500	243
3.37867	242
3.38233	239
3.38600	233
3.38967	229
3.39333	227
3.39700	226
3.40067	225
3.40433	223
3.40800	218
3.41167	216
3.41533	217
3.41900	217
3.42267	217
3.42633	215
3.43000	214
3.43367	212
3.43733	211
3.44100	209
3.44467	205
3.44833	202
3.45200	200
3.45567	198
3.45933	196
3.46300	195
3.46667	196
3.47033	195
3.47400	193
3.47767	193
3.48133	194
3.48500	194
3.48867	193
3.49233	192
3.49600	191
3.49967	190
3.50333	188
3.50700	188
3.51067	186
3.51433	184
3.51800	181
3.52167	179
3.52533	178
3.52900	178
3.53267	177
3.53633	175
3.54000	173
3.54367	173
3.54733	172
3.55100	170
3.55467	169
3.55833	169
3.56200	167
3.56567	165
3.56933	162
3.57300	159
3.57667	157
3.58033	156
3.58400	156
3.58767	153
3.59133	152
3.59500	152
3.59867	151
3.60233	152
3.60600	151
3.60967	149
3.61333	149
3.61700	149
3.62067	149
3.62433	150
3.62800	149
3.63167	149
3.63533	149
3.63900	149
3.64267	149
3.64633	150
3.65000	151
3.65367	151
3.65733	150
3.66100	149
3.66467	146
3.66833	141
3.67200	138
3.67567	138
3.67933	139
3.68300	140
3.68667	140
3.69033	139
3.69400	138
3.69767	137
3.70133	139
3.70500	140
3.70867	139
3.71233	139
3.71600	136
3.71967	133
3.72333	130
3.72700	130
3.73067	130
3.73433	130
3.73800	132
3.74167	130
3.74533	129
3.74900	128
3.75267	126
3.75633	127
3.76000	128
3.76367	128
3.76733	127
3.77100	128
3.77467	127
3.77833	124
3.78200	123
3.78567	121
3.78933	120
3.79300	119
3.79667	119
3.80033	120
3.80400	120
3.80767	123
3.81133	122
3.81500	119
3.81867	117
3.82233	115
3.82600	117
3.82967	118
3.83333	117
3.83700	116
3.84067	113
3.84433	110
3.84800	111
3.85167	114
3.85533	114
3.85900	115
3.86267	116
3.86633	117
3.87000	115
3.87367	111
3.87733	108
3.88100	105
3.88467	105
3.88833	106
3.89200	108
3.89567	108
3.89933	108
3.90300	106
3.90667	103
3.91033	102
3.91400	100
3.91767	101
3.92133	102
3.92500	104
3.92867	103
3.93233	102
3.93600	103
3.93967	101
3.94333	101
3.94700	102
3.95067	103
3.95433	103
3.95800	105
3.96167	104
3.96533	102
3.96900	99
3.97267	97
3.97633	95
3.98000	95
3.98367	98
3.98733	98
3.99100	98
3.99467	98
3.99833	97

[Status Trace (Column Oven Temperature)]
Interval(msec)	1000
# of Points	240
Start Time(min)	0.012
End Time(min)	3.995
Intensity Units	
Intensity Multiplier	1
R.Time (min)	Intensity
0.01192	34.92
0.02858	34.93
0.04525	34.94
0.06192	34.96
0.07858	34.96
0.09525	34.96
0.11192	34.95
0.12858	34.96
0.14525	34.95
0.16192	34.96
0.17858	34.98
0.19525	34.98
0.21192	35.01
0.22858	35.03
0.24525	35.03
0.26192	35.02
0.27858	35.01
0.29525	34.98
0.31192	34.97
0.32858	34.95
0.34525	34.94
0.36192	34.94
0.37858	34.94
0.39525	34.94
0.41192	34.95
0.42858	34.95
0.44525	34.95
0.46192	34.96
0.47858	34.97
0.49525	34.97
0.51192	34.97
0.52858	34.97
0.54525	34.98
0.56192	34.98
0.57858	34.99
0.59525	34.98
0.61192	34.99
0.62858	34.98
0.64525	34.98
0.66192	34.98
0.67858	34.98
0.69525	34.99
0.71192	34.99
0.72858	34.99
0.74525	34.98
0.76192	34.97
0.77858	34.97
0.79525	34.96
0.81192	34.96
0.82858	34.97
0.84525	34.97
0.86192	34.98
0.87858	34.99
0.89525	35.00
0.91192	35.01
0.92858	35.02
0.94525	35.02
0.96192	35.02
0.97858	35.02
0.99525	35.03
1.01192	35.04
1.02858	35.04
1.04525	35.03
1.06192	35.03
1.07858	35.03
1.09525	35.01
1.11192	35.01
1.12858	34.99
1.14525	34.98
1.16192	34.97
1.17858	34.98
1.19525	34.97
1.21192	34.98
1.22858	34.99
1.24525	35.00
1.26192	35.00
1.27858	35.00
1.29525	34.99
1.31192	34.98
1.32858	34.97
1.34525	34.97
1.36192	34.98
1.37858	34.98
1.39525	34.98
1.41192	34.98
1.42858	34.99
1.44525	35.00
1.46192	35.01
1.47858	35.01
1.49525	34.99
1.51192	34.99
1.52858	34.98
1.54525	34.97
1.56192	34.97
1.57858	34.98
1.59525	35.00
1.61192	35.08
1.62858	35.24
1.64525	35.45
1.66192	35.71
1.67858	36.06
1.69525	36.42
1.71192	36.78
1.72858	37.11
1.74525	37.42
1.76192	37.77
1.77858	38.10
1.79525	38.43
1.81192	38.76
1.82858	39.10
1.84525	39.43
1.86192	39.76
1.87858	40.08
1.89525	40.40
1.91192	40.73
1.92858	41.06
1.94525	41.39
1.96192	41.70
1.97858	42.05
1.99525	42.35
2.01192	42.66
2.02858	42.98
2.04525	43.32
2.06192	43.63
2.07858	43.96
2.09525	44.27
2.11192	44.61
2.12858	44.93
2.14525	45.24
2.16192	45.59
2.17858	45.92
2.19525	46.25
2.21192	46.59
2.22858	46.91
2.24525	47.23
2.26192	47.58
2.27858	47.93
2.29525	48.23
2.31192	48.57
2.32858	48.93
2.34525	49.22
2.36192	49.53
2.37858	49.72
2.39525	49.78
2.41192	49.76
2.42858	49.78
2.44525	49.77
2.46192	49.79
2.47858	49.78
2.49525	49.80
2.51192	49.81
2.52858	49.80
2.54525	49.80
2.56192	49.81
2.57858	49.81
2.59525	49.82
2.61192	49.82
2.62858	49.85
2.64525	49.87
2.66192	49.86
2.67858	49.86
2.69525	49.85
2.71192	49.85
2.72858	49.88
2.74525	49.92
2.76192	49.94
2.77858	49.95
2.79525	49.95
2.81192	49.95
2.82858	49.94
2.84525	49.94
2.86192	49.95
2.87858	49.95
2.89525	49.96
2.91192	49.97
2.92858	49.98
2.94525	49.98
2.96192	50.00
2.97858	50.01
2.99525	50.03
3.01192	50.05
3.02858	50.05
3.04525	50.06
3.06192	50.07
3.07858	50.08
3.09525	50.09
3.11192	50.10
3.12858	50.11
3.14525	50.10
3.16192	50.09
3.17858	50.08
3.19525	50.06
3.21192	50.05
3.22858	50.04
3.24525	50.04
3.26192	50.04
3.27858	50.04
3.29525	50.05
3.31192	50.04
3.32858	50.05
3.34525	50.05
3.36192	50.05
3.37858	50.05
3.39525	50.06
3.41192	50.07
3.42858	50.07
3.44525	50.07
3.46192	50.08
3.47858	50.09
3.49525	50.09
3.51192	50.08
3.52858	50.09
3.54525	50.09
3.56192	50.09
3.57858	50.09
3.59525	50.09
3.61192	50.10
3.62858	50.10
3.64525	50.10
3.66192	50.10
3.67858	50.09
3.69525	50.08
3.71192	50.08
3.72858	50.07
3.74525	50.07
3.76192	50.05
3.77858	50.04
3.79525	50.03
3.81192	50.03
3.82858	50.02
3.84525	50.01
3.86192	50.00
3.87858	50.00
3.89525	50.00
3.91192	49.99
3.92858	49.99
3.94525	49.99
3.96192	49.99
3.97858	49.99
3.99525	50.00

[Status Trace (Injection Unit Temperature)]
Interval(msec)	1000
# of Points	240
Start Time(min)	0.012
End Time(min)	3.995
Intensity Units	
Intensity Multiplier	1
R.Time (min)	Intensity
0.01192	99.99
0.02858	99.99
0.04525	99.98
0.06192	99.98
0.07858	99.99
0.09525	99.99
0.11192	99.98
0.12858	99.99
0.14525	99.98
0.16192	99.99
0.17858	99.99
0.19525	99.99
0.21192	99.98
0.22858	99.99
0.24525	99.99
0.26192	99.99
0.27858	99.98
0.29525	99.99
0.31192	99.99
0.32858	99.98
0.34525	99.98
0.36192	99.98
0.37858	99.99
0.39525	99.97
0.41192	99.99
0.42858	99.99
0.44525	99.98
0.46192	99.98
0.47858	99.98
0.49525	99.98
0.51192	99.97
0.52858	99.98
0.54525	99.98
0.56192	99.98
0.57858	99.98
0.59525	99.98
0.61192	99.99
0.62858	99.98
0.64525	99.99
0.66192	99.98
0.67858	99.98
0.69525	99.98
0.71192	99.98
0.72858	99.98
0.74525	99.98
0.76192	99.98
0.77858	99.98
0.79525	99.98
0.81192	99.98
0.82858	99.98
0.84525	99.98
0.86192	99.98
0.87858	99.98
0.89525	99.98
0.91192	99.98
0.92858	99.98
0.94525	99.99
0.96192	99.98
0.97858	99.99
0.99525	99.98
1.01192	99.99
1.02858	99.99
1.04525	99.99
1.06192	99.99
1.07858	99.98
1.09525	99.99
1.11192	99.99
1.12858	99.99
1.14525	99.99
1.16192	99.98
1.17858	99.99
1.19525	99.99
1.21192	99.99
1.22858	99.99
1.24525	99.99
1.26192	99.99
1.27858	99.99
1.29525	99.99
1.31192	99.99
1.32858	99.99
1.34525	99.99
1.36192	99.99
1.37858	99.99
1.39525	99.99
1.41192	99.99
1.42858	99.99
1.44525	99.99
1.46192	99.99
1.47858	99.99
1.49525	99.99
1.51192	99.99
1.52858	99.99
1.54525	99.99
1.56192	99.99
1.57858	99.99
1.59525	99.99
1.61192	99.99
1.62858	99.99
1.64525	99.99
1.66192	99.99
1.67858	99.99
1.69525	99.99
1.71192	99.99
1.72858	99.98
1.74525	99.98
1.76192	99.99
1.77858	99.98
1.79525	99.98
1.81192	99.99
1.82858	99.98
1.84525	99.98
1.86192	99.98
1.87858	99.98
1.89525	99.97
1.91192	99.98
1.92858	99.98
1.94525	99.98
1.96192	99.97
1.97858	99.98
1.99525	99.98
2.01192	99.98
2.02858	99.98
2.04525	99.97
2.06192	99.98
2.07858	99.98
2.09525	99.97
2.11192	99.97
2.12858	99.97
2.14525	99.97
2.16192	99.97
2.17858	99.97
2.19525	99.97
2.21192	99.97
2.22858	99.97
2.24525	99.97
2.26192	99.97
2.27858	99.97
2.29525	99.97
2.31192	99.97
2.32858	99.97
2.34525	99.97
2.36192	99.97
2.37858	99.97
2.39525	99.97
2.41192	99.97
2.42858	99.97
2.44525	99.97
2.46192	99.97
2.47858	99.97
2.49525	99.97
2.51192	99.97
2.52858	99.97
2.54525	99.98
2.56192	99.97
2.57858	99.97
2.59525	99.98
2.61192	99.98
2.62858	99.98
2.64525	99.98
2.66192	99.97
2.67858	99.98
2.69525	99.99
2.71192	99.98
2.72858	99.99
2.74525	99.99
2.76192	99.99
2.77858	99.99
2.79525	99.99
2.81192	99.99
2.82858	99.99
2.84525	100.00
2.86192	100.00
2.87858	100.00
2.89525	100.00
2.91192	100.00
2.92858	100.01
2.94525	100.00
2.96192	100.01
2.97858	100.01
2.99525	100.00
3.01192	100.01
3.02858	100.01
3.04525	100.01
3.06192	100.01
3.07858	100.01
3.09525	100.01
3.11192	100.02
3.12858	100.02
3.14525	100.02
3.16192	100.02
3.17858	100.02
3.19525	100.03
3.21192	100.03
3.22858	100.02
3.24525	100.02
3.26192	100.02
3.27858	100.02
3.29525	100.02
3.31192	100.03
3.32858	100.02
3.34525	100.03
3.36192	100.03
3.37858	100.03
3.39525	100.03
3.41192	100.03
3.42858	100.03
3.44525	100.03
3.46192	100.03
3.47858	100.03
3.49525	100.04
3.51192	100.03
3.52858	100.04
3.54525	100.03
3.56192	100.04
3.57858	100.03
3.59525	100.04
3.61192	100.04
3.62858	100.04
3.64525	100.04
3.66192	100.04
3.67858	100.03
3.69525	100.04
3.71192	100.04
3.72858	100.04
3.74525	100.04
3.76192	100.04
3.77858	100.04
3.79525	100.04
3.81192	100.04
3.82858	100.04
3.84525	100.04
3.86192	100.04
3.87858	100.05
3.89525	100.05
3.91192	100.05
3.92858	100.05
3.94525	100.05
3.96192	100.05
3.97858	100.05
3.99525	100.04

[Status Trace (Carrier Gas Pressure)]
Interval(msec)	1000
# of Points	240
Start Time(min)	0.012
End Time(min)	3.995
Intensity Units	
Intensity Multiplier	1
R.Time (min)	Intensity
0.01192	58.00
0.02858	54.95
0.04525	57.62
0.06192	59.58
0.07858	59.06
0.09525	58.00
0.11192	57.99
0.12858	58.01
0.14525	58.01
0.16192	58.00
0.17858	58.00
0.19525	58.00
0.21192	58.00
0.22858	58.00
0.24525	58.00
0.26192	58.00
0.27858	58.00
0.29525	58.00
0.31192	58.00
0.32858	58.00
0.34525	58.00
0.36192	58.00
0.37858	58.00
0.39525	58.00
0.41192	58.00
0.42858	58.00
0.44525	58.00
0.46192	58.00
0.47858	58.00
0.49525	58.00
0.51192	58.00
0.52858	58.00
0.54525	58.00
0.56192	58.00
0.57858	58.00
0.59525	58.00
0.61192	58.00
0.62858	58.00
0.64525	58.00
0.66192	58.00
0.67858	58.00
0.69525	58.00
0.71192	58.00
0.72858	58.00
0.74525	58.00
0.76192	58.00
0.77858	58.00
0.79525	58.00
0.81192	58.00
0.82858	58.00
0.84525	58.00
0.86192	58.00
0.87858	58.00
0.89525	58.00
0.91192	58.00
0.92858	58.00
0.94525	58.00
0.96192	58.00
0.97858	58.00
0.99525	58.00
1.01192	58.00
1.02858	58.00
1.04525	58.00
1.06192	58.00
1.07858	58.00
1.09525	58.00
1.11192	58.00
1.12858	58.00
1.14525	58.00
1.16192	58.00
1.17858	58.00
1.19525	58.00
1.21192	58.00
1.22858	58.00
1.24525	58.00
1.26192	58.00
1.27858	58.00
1.29525	58.00
1.31192	58.00
1.32858	58.00
1.34525	58.00
1.36192	58.00
1.37858	58.00
1.39525	58.00
1.41192	58.00
1.42858	58.00
1.44525	58.00
1.46192	58.00
1.47858	58.00
1.49525	58.00
1.51192	58.00
1.52858	58.00
1.54525	58.00
1.56192	58.00
1.57858	58.00
1.59525	58.00
1.61192	58.00
1.62858	58.00
1.64525	58.00
1.66192	58.00
1.67858	58.01
1.69525	58.00
1.71192	58.00
1.72858	58.00
1.74525	58.00
1.76192	58.00
1.77858	58.00
1.79525	58.00
1.81192	58.00
1.82858	58.00
1.84525	58.00
1.86192	58.00
1.87858	58.00
1.89525	58.00
1.91192	58.00
1.92858	58.00
1.94525	58.00
1.96192	58.00
1.97858	58.00
1.99525	58.00
2.01192	58.00
2.02858	58.00
2.04525	58.00
2.06192	58.00
2.07858	58.00
2.09525	58.00
2.11192	58.00
2.12858	58.00
2.14525	58.00
2.16192	58.00
2.17858	58.00
2.19525	58.00
2.21192	58.00
2.22858	58.00
2.24525	58.00
2.26192	58.00
2.27858	58.00
2.29525	58.00
2.31192	58.00
2.32858	58.00
2.34525	58.00
2.36192	58.00
2.37858	58.00
2.39525	57.99
2.41192	57.99
2.42858	58.00
2.44525	58.00
2.46192	58.00
2.47858	58.00
2.49525	58.00
2.51192	57.99
2.52858	57.98
2.54525	58.00
2.56192	58.00
2.57858	58.00
2.59525	58.00
2.61192	58.00
2.62858	58.00
2.64525	58.00
2.66192	58.00
2.67858	58.00
2.69525	58.00
2.71192	58.00
2.72858	58.00
2.74525	58.00
2.76192	58.00
2.77858	58.00
2.79525	58.00
2.81192	58.00
2.82858	58.00
2.84525	58.00
2.86192	58.00
2.87858	58.00
2.89525	58.00
2.91192	58.00
2.92858	58.00
2.94525	58.00
2.96192	58.00
2.97858	58.00
2.99525	58.00
3.01192	58.00
3.02858	58.00
3.04525	58.00
3.06192	58.00
3.07858	58.00
3.09525	58.00
3.11192	58.00
3.12858	58.00
3.14525	58.00
3.16192	58.00
3.17858	58.00
3.19525	58.00
3.21192	58.00
3.22858	58.00
3.24525	58.00
3.26192	58.00
3.27858	58.00
3.29525	58.00
3.31192	58.00
3.32858	58.00
3.34525	58.00
3.36192	58.00
3.37858	58.00
3.39525	58.00
3.41192	58.00
3.42858	58.00
3.44525	58.00
3.46192	58.00
3.47858	58.00
3.49525	58.00
3.51192	58.00
3.52858	58.00
3.54525	58.00
3.56192	58.00
3.57858	58.00
3.59525	58.00
3.61192	58.00
3.62858	58.00
3.64525	58.00
3.66192	58.00
3.67858	58.00
3.69525	58.00
3.71192	58.00
3.72858	58.00
3.74525	58.00
3.76192	58.00
3.77858	58.00
3.79525	58.00
3.81192	58.00
3.82858	58.00
3.84525	58.00
3.86192	58.00
3.87858	58.00
3.89525	58.00
3.91192	58.00
3.92858	58.00
3.94525	58.00
3.96192	58.00
3.97858	58.00
3.99525	58.00

[Status Trace (Carrier Gas Flow)]
Interval(msec)	1000
# of Points	240
Start Time(min)	0.012
End Time(min)	3.995
Intensity Units	
Intensity Multiplier	1
R.Time (min)	Intensity
0.01192	34.52
0.02858	34.53
0.04525	34.54
0.06192	34.54
0.07858	34.50
0.09525	34.52
0.11192	34.52
0.12858	34.52
0.14525	34.52
0.16192	34.52
0.17858	34.52
0.19525	34.52
0.21192	34.52
0.22858	34.52
0.24525	34.52
0.26192	34.52
0.27858	34.52
0.29525	34.52
0.31192	34.52
0.32858	34.52
0.34525	34.52
0.36192	34.52
0.37858	34.52
0.39525	34.52
0.41192	34.52
0.42858	34.52
0.44525	34.52
0.46192	34.52
0.47858	34.52
0.49525	34.52
0.51192	34.52
0.52858	34.52
0.54525	34.52
0.56192	34.52
0.57858	34.52
0.59525	34.52
0.61192	34.52
0.62858	34.52
0.64525	34.52
0.66192	34.52
0.67858	34.52
0.69525	34.52
0.71192	34.52
0.72858	34.52
0.74525	34.52
0.76192	34.52
0.77858	34.52
0.79525	34.52
0.81192	34.52
0.82858	34.52
0.84525	34.52
0.86192	34.52
0.87858	34.52
0.89525	34.52
0.91192	34.52
0.92858	34.52
0.94525	34.52
0.96192	34.52
0.97858	34.52
0.99525	34.52
1.01192	34.52
1.02858	34.52
1.04525	34.52
1.06192	34.52
1.07858	34.52
1.09525	34.52
1.11192	34.52
1.12858	34.52
1.14525	34.52
1.16192	34.52
1.17858	34.52
1.19525	34.52
1.21192	34.52
1.22858	34.52
1.24525	34.52
1.26192	34.52
1.27858	34.52
1.29525	34.52
1.31192	34.52
1.32858	34.52
1.34525	34.52
1.36192	34.52
1.37858	34.52
1.39525	34.52
1.41192	34.52
1.42858	34.52
1.44525	34.52
1.46192	34.52
1.47858	34.52
1.49525	34.52
1.51192	34.52
1.52858	34.52
1.54525	34.52
1.56192	34.52
1.57858	34.52
1.59525	34.52
1.61192	34.52
1.62858	34.52
1.64525	34.52
1.66192	34.52
1.67858	34.52
1.69525	34.52
1.71192	34.52
1.72858	34.52
1.74525	34.52
1.76192	34.52
1.77858	34.52
1.79525	34.52
1.81192	34.52
1.82858	34.52
1.84525	34.52
1.86192	34.52
1.87858	34.52
1.89525	34.52
1.91192	34.52
1.92858	34.52
1.94525	34.52
1.96192	34.52
1.97858	34.52
1.99525	34.52
2.01192	34.52
2.02858	34.52
2.04525	34.52
2.06192	34.52
2.07858	34.52
2.09525	34.52
2.11192	34.52
2.12858	34.52
2.14525	34.52
2.16192	34.52
2.17858	34.52
2.19525	34.52
2.21192	34.52
2.22858	34.52
2.24525	34.52
2.26192	34.52
2.27858	34.52
2.29525	34.52
2.31192	34.52
2.32858	34.52
2.34525	34.52
2.36192	34.52
2.37858	34.52
2.39525	34.52
2.41192	34.52
2.42858	34.52
2.44525	34.52
2.46192	34.52
2.47858	34.52
2.49525	34.52
2.51192	34.51
2.52858	34.52
2.54525	34.52
2.56192	34.52
2.57858	34.52
2.59525	34.52
2.61192	34.52
2.62858	34.52
2.64525	34.52
2.66192	34.52
2.67858	34.52
2.69525	34.52
2.71192	34.52
2.72858	34.52
2.74525	34.52
2.76192	34.52
2.77858	34.52
2.79525	34.52
2.81192	34.52
2.82858	34.52
2.84525	34.52
2.86192	34.52
2.87858	34.52
2.89525	34.52
2.91192	34.52
2.92858	34.52
2.94525	34.52
2.96192	34.52
2.97858	34.52
2.99525	34.52
3.01192	34.52
3.02858	34.52
3.04525	34.52
3.06192	34.52
3.07858	34.52
3.09525	34.52
3.11192	34.52
3.12858	34.52
3.14525	34.52
3.16192	34.52
3.17858	34.52
3.19525	34.52
3.21192	34.52
3.22858	34.52
3.24525	34.52
3.26192	34.52
3.27858	34.52
3.29525	34.52
3.31192	34.52
3.32858	34.52
3.34525	34.52
3.36192	34.52
3.37858	34.52
3.39525	34.52
3.41192	34.52
3.42858	34.52
3.44525	34.52
3.46192	34.52
3.47858	34.52
3.49525	34.52
3.51192	34.52
3.52858	34.52
3.54525	34.52
3.56192	34.52
3.57858	34.52
3.59525	34.52
3.61192	34.52
3.62858	34.52
3.64525	34.52
3.66192	34.52
3.67858	34.52
3.69525	34.52
3.71192	34.52
3.72858	34.51
3.74525	34.52
3.76192	34.51
3.77858	34.52
3.79525	34.50
3.81192	34.52
3.82858	34.52
3.84525	34.51
3.86192	34.52
3.87858	34.53
3.89525	34.52
3.91192	34.51
3.92858	34.52
3.94525	34.51
3.96192	34.51
3.97858	34.51
3.99525	34.54

[Status Trace (Column Flow)]
Interval(msec)	1000
# of Points	240
Start Time(min)	0.012
End Time(min)	3.995
Intensity Units	
Intensity Multiplier	1
R.Time (min)	Intensity
0.01192	5.53
0.02858	5.17
0.04525	5.48
0.06192	5.71
0.07858	5.65
0.09525	5.52
0.11192	5.52
0.12858	5.53
0.14525	5.53
0.16192	5.52
0.17858	5.52
0.19525	5.52
0.21192	5.52
0.22858	5.52
0.24525	5.52
0.26192	5.52
0.27858	5.52
0.29525	5.52
0.31192	5.52
0.32858	5.52
0.34525	5.52
0.36192	5.52
0.37858	5.52
0.39525	5.52
0.41192	5.52
0.42858	5.52
0.44525	5.52
0.46192	5.52
0.47858	5.52
0.49525	5.52
0.51192	5.52
0.52858	5.52
0.54525	5.52
0.56192	5.52
0.57858	5.52
0.59525	5.52
0.61192	5.52
0.62858	5.52
0.64525	5.52
0.66192	5.52
0.67858	5.52
0.69525	5.52
0.71192	5.52
0.72858	5.52
0.74525	5.52
0.76192	5.52
0.77858	5.52
0.79525	5.52
0.81192	5.52
0.82858	5.52
0.84525	5.52
0.86192	5.52
0.87858	5.52
0.89525	5.52
0.91192	5.52
0.92858	5.52
0.94525	5.52
0.96192	5.52
0.97858	5.52
0.99525	5.52
1.01192	5.52
1.02858	5.52
1.04525	5.52
1.06192	5.52
1.07858	5.52
1.09525	5.52
1.11192	5.52
1.12858	5.52
1.14525	5.52
1.16192	5.52
1.17858	5.52
1.19525	5.52
1.21192	5.52
1.22858	5.52
1.24525	5.52
1.26192	5.52
1.27858	5.52
1.29525	5.52
1.31192	5.52
1.32858	5.52
1.34525	5.52
1.36192	5.52
1.37858	5.52
1.39525	5.52
1.41192	5.52
1.42858	5.52
1.44525	5.52
1.46192	5.52
1.47858	5.52
1.49525	5.52
1.51192	5.52
1.52858	5.52
1.54525	5.52
1.56192	5.52
1.57858	5.52
1.59525	5.52
1.61192	5.52
1.62858	5.52
1.64525	5.51
1.66192	5.50
1.67858	5.49
1.69525	5.48
1.71192	5.47
1.72858	5.46
1.74525	5.45
1.76192	5.44
1.77858	5.43
1.79525	5.42
1.81192	5.41
1.82858	5.40
1.84525	5.39
1.86192	5.38
1.87858	5.37
1.89525	5.36
1.91192	5.35
1.92858	5.34
1.94525	5.33
1.96192	5.32
1.97858	5.31
1.99525	5.30
2.01192	5.29
2.02858	5.28
2.04525	5.27
2.06192	5.26
2.07858	5.25
2.09525	5.24
2.11192	5.23
2.12858	5.22
2.14525	5.21
2.16192	5.20
2.17858	5.20
2.19525	5.19
2.21192	5.18
2.22858	5.17
2.24525	5.16
2.26192	5.15
2.27858	5.14
2.29525	5.13
2.31192	5.12
2.32858	5.11
2.34525	5.10
2.36192	5.09
2.37858	5.09
2.39525	5.08
2.41192	5.09
2.42858	5.09
2.44525	5.09
2.46192	5.09
2.47858	5.09
2.49525	5.08
2.51192	5.08
2.52858	5.08
2.54525	5.08
2.56192	5.08
2.57858	5.08
2.59525	5.08
2.61192	5.08
2.62858	5.08
2.64525	5.08
2.66192	5.08
2.67858	5.08
2.69525	5.08
2.71192	5.08
2.72858	5.08
2.74525	5.08
2.76192	5.08
2.77858	5.08
2.79525	5.08
2.81192	5.08
2.82858	5.08
2.84525	5.08
2.86192	5.08
2.87858	5.08
2.89525	5.08
2.91192	5.08
2.92858	5.08
2.94525	5.08
2.96192	5.08
2.97858	5.08
2.99525	5.08
3.01192	5.08
3.02858	5.08
3.04525	5.08
3.06192	5.08
3.07858	5.08
3.09525	5.08
3.11192	5.08
3.12858	5.08
3.14525	5.08
3.16192	5.08
3.17858	5.08
3.19525	5.08
3.21192	5.08
3.22858	5.08
3.24525	5.08
3.26192	5.08
3.27858	5.08
3.29525	5.08
3.31192	5.08
3.32858	5.08
3.34525	5.08
3.36192	5.08
3.37858	5.08
3.39525	5.08
3.41192	5.08
3.42858	5.08
3.44525	5.08
3.46192	5.08
3.47858	5.08
3.49525	5.08
3.51192	5.08
3.52858	5.08
3.54525	5.08
3.56192	5.08
3.57858	5.08
3.59525	5.08
3.61192	5.08
3.62858	5.08
3.64525	5.08
3.66192	5.08
3.67858	5.08
3.69525	5.08
3.71192	5.08
3.72858	5.08
3.74525	5.08
3.76192	5.08
3.77858	5.08
3.79525	5.08
3.81192	5.08
3.82858	5.08
3.84525	5.08
3.86192	5.08
3.87858	5.08
3.89525	5.08
3.91192	5.08
3.92858	5.08
3.94525	5.08
3.96192	5.08
3.97858	5.08
3.99525	5.08

[Status Trace (Linear Velocity)]
Interval(msec)	1000
# of Points	240
Start Time(min)	0.012
End Time(min)	3.995
Intensity Units	
Intensity Multiplier	1
R.Time (min)	Intensity
0.01192	39.02
0.02858	37.02
0.04525	38.77
0.06192	40.06
0.07858	39.71
0.09525	39.02
0.11192	39.01
0.12858	39.03
0.14525	39.03
0.16192	39.02
0.17858	39.02
0.19525	39.02
0.21192	39.02
0.22858	39.02
0.24525	39.02
0.26192	39.02
0.27858	39.02
0.29525	39.02
0.31192	39.02
0.32858	39.02
0.34525	39.02
0.36192	39.02
0.37858	39.02
0.39525	39.02
0.41192	39.02
0.42858	39.02
0.44525	39.02
0.46192	39.02
0.47858	39.02
0.49525	39.02
0.51192	39.02
0.52858	39.02
0.54525	39.02
0.56192	39.02
0.57858	39.02
0.59525	39.02
0.61192	39.02
0.62858	39.02
0.64525	39.02
0.66192	39.02
0.67858	39.02
0.69525	39.02
0.71192	39.02
0.72858	39.02
0.74525	39.02
0.76192	39.02
0.77858	39.02
0.79525	39.02
0.81192	39.02
0.82858	39.02
0.84525	39.02
0.86192	39.02
0.87858	39.02
0.89525	39.02
0.91192	39.02
0.92858	39.01
0.94525	39.01
0.96192	39.02
0.97858	39.02
0.99525	39.01
1.01192	39.01
1.02858	39.01
1.04525	39.01
1.06192	39.01
1.07858	39.01
1.09525	39.02
1.11192	39.02
1.12858	39.02
1.14525	39.02
1.16192	39.02
1.17858	39.02
1.19525	39.02
1.21192	39.02
1.22858	39.02
1.24525	39.02
1.26192	39.02
1.27858	39.02
1.29525	39.02
1.31192	39.02
1.32858	39.02
1.34525	39.02
1.36192	39.02
1.37858	39.02
1.39525	39.02
1.41192	39.02
1.42858	39.02
1.44525	39.02
1.46192	39.02
1.47858	39.02
1.49525	39.02
1.51192	39.02
1.52858	39.02
1.54525	39.02
1.56192	39.02
1.57858	39.02
1.59525	39.02
1.61192	39.01
1.62858	39.00
1.64525	38.98
1.66192	38.95
1.67858	38.92
1.69525	38.89
1.71192	38.85
1.72858	38.82
1.74525	38.79
1.76192	38.76
1.77858	38.72
1.79525	38.69
1.81192	38.66
1.82858	38.63
1.84525	38.60
1.86192	38.57
1.87858	38.54
1.89525	38.51
1.91192	38.48
1.92858	38.45
1.94525	38.42
1.96192	38.39
1.97858	38.36
1.99525	38.33
2.01192	38.30
2.02858	38.27
2.04525	38.24
2.06192	38.21
2.07858	38.18
2.09525	38.15
2.11192	38.12
2.12858	38.09
2.14525	38.06
2.16192	38.03
2.17858	38.00
2.19525	37.97
2.21192	37.94
2.22858	37.91
2.24525	37.88
2.26192	37.85
2.27858	37.82
2.29525	37.79
2.31192	37.76
2.32858	37.73
2.34525	37.70
2.36192	37.68
2.37858	37.66
2.39525	37.65
2.41192	37.65
2.42858	37.65
2.44525	37.65
2.46192	37.65
2.47858	37.65
2.49525	37.65
2.51192	37.65
2.52858	37.64
2.54525	37.65
2.56192	37.65
2.57858	37.65
2.59525	37.65
2.61192	37.65
2.62858	37.65
2.64525	37.65
2.66192	37.64
2.67858	37.65
2.69525	37.65
2.71192	37.65
2.72858	37.64
2.74525	37.64
2.76192	37.64
2.77858	37.64
2.79525	37.64
2.81192	37.64
2.82858	37.64
2.84525	37.64
2.86192	37.64
2.87858	37.64
2.89525	37.64
2.91192	37.64
2.92858	37.64
2.94525	37.63
2.96192	37.63
2.97858	37.63
2.99525	37.63
3.01192	37.63
3.02858	37.63
3.04525	37.63
3.06192	37.63
3.07858	37.63
3.09525	37.62
3.11192	37.62
3.12858	37.62
3.14525	37.62
3.16192	37.62
3.17858	37.63
3.19525	37.63
3.21192	37.63
3.22858	37.63
3.24525	37.63
3.26192	37.63
3.27858	37.63
3.29525	37.63
3.31192	37.63
3.32858	37.63
3.34525	37.63
3.36192	37.63
3.37858	37.63
3.39525	37.63
3.41192	37.63
3.42858	37.63
3.44525	37.63
3.46192	37.63
3.47858	37.63
3.49525	37.62
3.51192	37.63
3.52858	37.63
3.54525	37.62
3.56192	37.62
3.57858	37.62
3.59525	37.62
3.61192	37.62
3.62858	37.62
3.64525	37.62
3.66192	37.62
3.67858	37.62
3.69525	37.63
3.71192	37.63
3.72858	37.63
3.74525	37.63
3.76192	37.63
3.77858	37.63
3.79525	37.63
3.81192	37.63
3.82858	37.63
3.84525	37.63
3.86192	37.63
3.87858	37.63
3.89525	37.63
3.91192	37.63
3.92858	37.63
3.94525	37.63
3.96192	37.63
3.97858	37.63
3.99525	37.63

