[Header]
Application Name	LabSolutions
Version	5.110
Data File Name	C:\Users\User\Desktop\GC Analyses\Jack\UIC Prairie Sampling\7.22.22\220722_066.gcd
Output Date	10/5/2022
Output Time	2:13:42 PM

[File Information]
Type	Data File
Generated	9/29/2022 1:32:39 PM
Generated by	System Administrator
Modified	9/29/2022 1:37:13 PM
Modified by	System Administrator

[Sample Information]
Operator Name	System Administrator
Acquired	9/29/2022 1:33:12 PM
Sample Type	1:Standard
Level	1
Sample Name	220722_UICPrairie
Sample ID	220722_UICPrairie
ISTD Amount1	1
ISTD Amount2	1
ISTD Amount3	1
ISTD Amount4	1
ISTD Amount5	1
ISTD Amount6	1
ISTD Amount7	1
ISTD Amount8	1
ISTD Amount9	1
ISTD Amount10	1
ISTD Amount11	1
ISTD Amount12	1
ISTD Amount13	1
ISTD Amount14	1
ISTD Amount15	1
ISTD Amount16	1
ISTD Amount17	1
ISTD Amount18	1
ISTD Amount19	1
ISTD Amount20	1
ISTD Amount21	1
ISTD Amount22	1
ISTD Amount23	1
ISTD Amount24	1
ISTD Amount25	1
ISTD Amount26	1
ISTD Amount27	1
ISTD Amount28	1
ISTD Amount29	1
ISTD Amount30	1
ISTD Amount31	1
ISTD Amount32	1
Sample Amount	1
Dilution Factor	1
Vial#	1
Injection Volume	1
Injection Count	1
Bar Code	

[Original Files]
Data File	C:\Users\User\Desktop\GC Analyses\Jack\UIC Prairie Sampling\7.22.22\220722_066.gcd
Method File	C:\LabSolutions\Data\GHG_4min_2022\ghg3_togas_w_acet_4 min_new_int.gcm
Batch File	
Report Format File	c:\LabSolutions\System\DEFAULT.lsr

[File Description]


[Configuration]
Instrument Name	C0B7VH3-Instrument1
Instrument #	1
Line #	1
# of Detectors	3
Detector ID	DET#1	DET#2	DET#3
Detector Name	FID	PTCD	ECD
# of Channels	1	1	1

[Peak Table(Ch1)]
# of Peaks	3
Peak#	R.Time	I.Time	F.Time	Area	Height	A/H	Conc.	Mark	ID#	Name	k'	Plate #	Plate Ht.	Tailing	Resolution	Sep.Factor	Area Ratio	Height Ratio	Conc. %	Norm Conc.
1	1.483	1.454	1.534	6986	3976	1.757	100.000	   	1	CO	0.000	12480	12.019	1.264	0.000	0.000	0	0	16.667	16.667
2	1.575	1.553	1.611	1724	1182	1.459	100.000	   	2	CH4	0.062	19462	7.707	1.361	1.866	0.000	0	0	16.667	16.667
3	2.004	1.956	2.238	504390	294610	1.712	400.000	   	3	CO2	0.351	24810	6.046	1.369	8.934	5.680	0	0	66.667	66.667

[Peak Table(Ch2)]
# of Peaks	0

[Peak Table(Ch3)]
# of Peaks	2
Peak#	R.Time	I.Time	F.Time	Area	Height	A/H	Conc.	Mark	ID#	Name	k'	Plate #	Plate Ht.	Tailing	Resolution	Sep.Factor	Area Ratio	Height Ratio	Conc. %	Norm Conc.
1	2.576	2.473	2.656	1516	205	7.392	0.000	   			0.000	3468	43.253	0.879	0.000	0.000	0	0	0.000	0.000
2	2.884	2.818	3.115	7536	2141	3.521	1.000	   	1	N2O	0.120	15539	9.653	1.815	2.303	0.000	0	0	100.000	100.000

[Compound Results(Ch1)]
# of IDs	6
ID#	Name	R.Time	Area	Height	Conc.	Curve	3rd	2nd	1st	Constant	Area Ratio	Height Ratio	Conc. %	Norm Conc.
1	CO	1.483	6986	3976	100.000	Linear	0.000000e+00	0.000000e+00	6.986144e+001	0.000000e+00	0	0	16.667	16.667
2	CH4	1.575	1724	1182	100.000	Linear	0.000000e+00	0.000000e+00	1.723519e+001	0.000000e+00	0	0	16.667	16.667
3	CO2	2.004	504390	294610	400.000	Linear	0.000000e+00	0.000000e+00	1.260975e+003	0.000000e+00	0	0	66.667	66.667
4	Ethylene	0.000	0	0	0.000	Linear	0.000000e+00	0.000000e+00	0.000000e+00	0.000000e+00	0	0	0.000	0.000
5	Acetylene	0.000	0	0	0.000	Linear	0.000000e+00	0.000000e+00	0.000000e+00	0.000000e+00	0	0	0.000	0.000
6	Ethane	0.000	0	0	0.000	Linear	0.000000e+00	0.000000e+00	0.000000e+00	0.000000e+00	0	0	0.000	0.000

[Compound Results(Ch2)]
# of IDs	5
ID#	Name	R.Time	Area	Height	Conc.	Curve	3rd	2nd	1st	Constant	Area Ratio	Height Ratio	Conc. %	Norm Conc.
1	Hydrogen	0.000	0	0	0.000	Linear	0.000000e+00	0.000000e+00	0.000000e+00	0.000000e+00	0	0	0.000	0.000
2	Oxygen	0.000	0	0	0.000	Linear	0.000000e+00	0.000000e+00	0.000000e+00	0.000000e+00	0	0	0.000	0.000
3	Nitrogen	0.000	0	0	0.000	Linear	0.000000e+00	0.000000e+00	0.000000e+00	0.000000e+00	0	0	0.000	0.000
4	Methane	0.000	0	0	0.000	Linear	0.000000e+00	0.000000e+00	0.000000e+00	0.000000e+00	0	0	0.000	0.000
5	Carbon Monoxide	0.000	0	0	0.000	Linear	0.000000e+00	0.000000e+00	0.000000e+00	0.000000e+00	0	0	0.000	0.000

[Compound Results(Ch3)]
# of IDs	2
ID#	Name	R.Time	Area	Height	Conc.	Curve	3rd	2nd	1st	Constant	Area Ratio	Height Ratio	Conc. %	Norm Conc.
1	N2O	2.884	7536	2141	1.000	Linear	0.000000e+00	0.000000e+00	7.535735e+003	0.000000e+00	0	0	100.000	100.000
2	SF6	0.000	0	0	0.000	Linear	0.000000e+00	0.000000e+00	0.000000e+00	0.000000e+00	0	0	0.000	0.000

[Group Results(Ch1)]
# of Groups	0

[Group Results(Ch2)]
# of Groups	0

[Group Results(Ch3)]
# of Groups	0

[Chromatogram (Ch1)]
Interval(msec)	220
# of Points	1091
Start Time(min)	0.002
End Time(min)	3.998
R.Time (min)	Intensity
0.00167	10
0.00533	17
0.00900	23
0.01267	26
0.01633	26
0.02000	20
0.02367	10
0.02733	2
0.03100	-1
0.03467	-4
0.03833	-13
0.04200	-19
0.04567	-10
0.04933	-2
0.05300	2
0.05667	4
0.06033	7
0.06400	10
0.06767	7
0.07133	8
0.07500	0
0.07867	-2
0.08233	-4
0.08600	-3
0.08967	8
0.09333	14
0.09700	10
0.10067	4
0.10433	-1
0.10800	-2
0.11167	-4
0.11533	-6
0.11900	-9
0.12267	-12
0.12633	-13
0.13000	-16
0.13367	-19
0.13733	-21
0.14100	-19
0.14467	-17
0.14833	-16
0.15200	-17
0.15567	-15
0.15933	-10
0.16300	-8
0.16667	-11
0.17033	-14
0.17400	-14
0.17767	-16
0.18133	-18
0.18500	-14
0.18867	-12
0.19233	-11
0.19600	-10
0.19967	-12
0.20333	-15
0.20700	-17
0.21067	-17
0.21433	-18
0.21800	-22
0.22167	-18
0.22533	-12
0.22900	-11
0.23267	-19
0.23633	-23
0.24000	-19
0.24367	-12
0.24733	-16
0.25100	-14
0.25467	-7
0.25833	-4
0.26200	-7
0.26567	2
0.26933	9
0.27300	5
0.27667	-1
0.28033	-10
0.28400	-16
0.28767	-23
0.29133	-29
0.29500	-33
0.29867	-31
0.30233	-29
0.30600	-28
0.30967	-24
0.31333	-18
0.31700	-15
0.32067	-15
0.32433	-17
0.32800	-20
0.33167	-21
0.33533	-19
0.33900	-15
0.34267	-11
0.34633	-15
0.35000	-23
0.35367	-31
0.35733	-38
0.36100	-37
0.36467	-35
0.36833	-36
0.37200	-38
0.37567	-37
0.37933	-37
0.38300	-36
0.38667	-37
0.39033	-40
0.39400	-39
0.39767	-37
0.40133	-37
0.40500	-36
0.40867	-31
0.41233	-25
0.41600	-21
0.41967	-20
0.42333	-23
0.42700	-28
0.43067	-31
0.43433	-31
0.43800	-25
0.44167	-19
0.44533	-18
0.44900	-26
0.45267	-36
0.45633	-45
0.46000	-52
0.46367	-56
0.46733	-56
0.47100	-53
0.47467	-49
0.47833	-47
0.48200	-43
0.48567	-42
0.48933	-43
0.49300	-42
0.49667	-40
0.50033	-35
0.50400	-34
0.50767	-44
0.51133	-42
0.51500	-39
0.51867	-41
0.52233	-43
0.52600	-41
0.52967	-42
0.53333	-39
0.53700	-38
0.54067	-37
0.54433	-32
0.54800	-29
0.55167	-30
0.55533	-31
0.55900	-31
0.56267	-33
0.56633	-47
0.57000	-55
0.57367	-52
0.57733	-49
0.58100	-45
0.58467	-42
0.58833	-38
0.59200	-37
0.59567	-40
0.59933	-47
0.60300	-53
0.60667	-56
0.61033	-54
0.61400	-54
0.61767	-54
0.62133	-51
0.62500	-52
0.62867	-56
0.63233	-61
0.63600	-67
0.63967	-70
0.64333	-71
0.64700	-73
0.65067	-79
0.65433	-73
0.65800	-67
0.66167	-63
0.66533	-55
0.66900	-51
0.67267	-46
0.67633	-45
0.68000	-47
0.68367	-52
0.68733	-59
0.69100	-68
0.69467	-71
0.69833	-67
0.70200	-62
0.70567	-59
0.70933	-57
0.71300	-52
0.71667	-49
0.72033	-49
0.72400	-53
0.72767	-58
0.73133	-64
0.73500	-67
0.73867	-63
0.74233	-58
0.74600	-60
0.74967	-70
0.75333	-79
0.75700	-81
0.76067	-72
0.76433	-65
0.76800	-61
0.77167	-59
0.77533	-58
0.77900	-56
0.78267	-54
0.78633	-55
0.79000	-53
0.79367	-53
0.79733	-54
0.80100	-55
0.80467	-58
0.80833	-63
0.81200	-69
0.81567	-73
0.81933	-75
0.82300	-75
0.82667	-74
0.83033	-75
0.83400	-74
0.83767	-70
0.84133	-63
0.84500	-55
0.84867	-48
0.85233	-44
0.85600	-41
0.85967	-42
0.86333	-46
0.86700	-51
0.87067	-51
0.87433	-51
0.87800	-55
0.88167	-59
0.88533	-58
0.88900	-53
0.89267	-48
0.89633	-47
0.90000	-49
0.90367	-55
0.90733	-62
0.91100	-63
0.91467	-66
0.91833	-70
0.92200	-75
0.92567	-83
0.92933	-86
0.93300	-82
0.93667	-78
0.94033	-74
0.94400	-70
0.94767	-68
0.95133	-69
0.95500	-73
0.95867	-80
0.96233	-88
0.96600	-82
0.96967	-68
0.97333	-61
0.97700	-60
0.98067	-62
0.98433	-71
0.98800	-80
0.99167	-84
0.99533	-82
0.99900	-76
1.00267	-71
1.00633	-74
1.01000	-78
1.01367	-77
1.01733	-79
1.02100	-80
1.02467	-80
1.02833	-79
1.03200	-71
1.03567	-63
1.03933	-61
1.04300	-63
1.04667	-67
1.05033	-73
1.05400	-80
1.05767	-81
1.06133	-79
1.06500	-72
1.06867	-65
1.07233	-68
1.07600	-74
1.07967	-71
1.08333	-69
1.08700	-70
1.09067	-72
1.09433	-77
1.09800	-80
1.10167	-82
1.10533	-83
1.10900	-82
1.11267	-87
1.11633	-89
1.12000	-81
1.12367	-68
1.12733	-56
1.13100	-53
1.13467	-57
1.13833	-67
1.14200	-81
1.14567	-90
1.14933	-96
1.15300	-101
1.15667	-101
1.16033	-95
1.16400	-91
1.16767	-88
1.17133	-87
1.17500	-87
1.17867	-88
1.18233	-89
1.18600	-89
1.18967	-90
1.19333	-90
1.19700	-88
1.20067	-90
1.20433	-90
1.20800	-85
1.21167	-85
1.21533	-89
1.21900	-99
1.22267	-103
1.22633	-95
1.23000	-88
1.23367	-86
1.23733	-79
1.24100	-76
1.24467	-76
1.24833	-73
1.25200	-74
1.25567	-77
1.25933	-83
1.26300	-86
1.26667	-85
1.27033	-88
1.27400	-89
1.27767	-89
1.28133	-85
1.28500	-81
1.28867	-77
1.29233	-73
1.29600	-72
1.29967	-76
1.30333	-87
1.30700	-96
1.31067	-97
1.31433	-93
1.31800	-89
1.32167	-86
1.32533	-84
1.32900	-80
1.33267	-75
1.33633	-70
1.34000	-67
1.34367	-72
1.34733	-81
1.35100	-91
1.35467	-99
1.35833	-102
1.36200	-98
1.36567	-92
1.36933	-90
1.37300	-89
1.37667	-90
1.38033	-88
1.38400	-90
1.38767	-93
1.39133	-94
1.39500	-94
1.39867	-91
1.40233	-88
1.40600	-87
1.40967	-88
1.41333	-90
1.41700	-96
1.42067	-101
1.42433	-100
1.42800	-91
1.43167	-89
1.43533	-89
1.43900	-93
1.44267	-96
1.44633	-95
1.45000	-90
1.45367	-66
1.45733	38
1.46100	295
1.46467	718
1.46833	1299
1.47200	2058
1.47567	2907
1.47933	3598
1.48300	3893
1.48667	3735
1.49033	3233
1.49400	2572
1.49767	1925
1.50133	1383
1.50500	964
1.50867	645
1.51233	409
1.51600	235
1.51967	108
1.52333	15
1.52700	-50
1.53067	-91
1.53433	-112
1.53800	-122
1.54167	-124
1.54533	-123
1.54900	-120
1.55267	-108
1.55633	-59
1.56000	76
1.56367	330
1.56733	663
1.57100	952
1.57467	1092
1.57833	1056
1.58200	883
1.58567	655
1.58933	440
1.59300	273
1.59667	155
1.60033	71
1.60400	12
1.60767	-30
1.61133	-61
1.61500	-83
1.61867	-99
1.62233	-110
1.62600	-114
1.62967	-114
1.63333	-113
1.63700	-112
1.64067	-110
1.64433	-112
1.64800	-116
1.65167	-118
1.65533	-121
1.65900	-125
1.66267	-123
1.66633	-115
1.67000	-106
1.67367	-105
1.67733	-107
1.68100	-107
1.68467	-103
1.68833	-102
1.69200	-105
1.69567	-111
1.69933	-119
1.70300	-125
1.70667	-128
1.71033	-127
1.71400	-125
1.71767	-124
1.72133	-121
1.72500	-114
1.72867	-108
1.73233	-105
1.73600	-106
1.73967	-108
1.74333	-107
1.74700	-103
1.75067	-101
1.75433	-102
1.75800	-102
1.76167	-99
1.76533	-92
1.76900	-88
1.77267	-91
1.77633	-97
1.78000	-105
1.78367	-118
1.78733	-122
1.79100	-116
1.79467	-104
1.79833	-97
1.80200	-95
1.80567	-96
1.80933	-95
1.81300	-93
1.81667	-93
1.82033	-99
1.82400	-106
1.82767	-108
1.83133	-104
1.83500	-96
1.83867	-88
1.84233	-84
1.84600	-86
1.84967	-93
1.85333	-102
1.85700	-110
1.86067	-113
1.86433	-111
1.86800	-109
1.87167	-106
1.87533	-101
1.87900	-96
1.88267	-89
1.88633	-72
1.89000	-67
1.89367	-74
1.89733	-82
1.90100	-83
1.90467	-77
1.90833	-76
1.91200	-77
1.91567	-76
1.91933	-71
1.92300	-68
1.92667	-71
1.93033	-70
1.93400	-74
1.93767	-83
1.94133	-91
1.94500	-95
1.94867	-95
1.95233	-93
1.95600	-91
1.95967	-81
1.96333	-56
1.96700	-11
1.97067	148
1.97433	827
1.97800	3512
1.98167	12041
1.98533	33292
1.98900	74516
1.99267	136344
1.99633	206994
2.00000	265716
2.00367	294548
2.00733	287877
2.01100	253205
2.01467	204450
2.01833	154415
2.02200	110962
2.02567	76998
2.02933	52248
2.03300	35039
2.03667	23435
2.04033	15763
2.04400	10747
2.04767	7473
2.05133	5327
2.05500	3904
2.05867	2950
2.06233	2298
2.06600	1841
2.06967	1513
2.07333	1265
2.07700	1071
2.08067	920
2.08433	803
2.08800	713
2.09167	641
2.09533	581
2.09900	528
2.10267	481
2.10633	439
2.11000	404
2.11367	376
2.11733	353
2.12100	330
2.12467	306
2.12833	284
2.13200	262
2.13567	246
2.13933	237
2.14300	221
2.14667	212
2.15033	204
2.15400	195
2.15767	185
2.16133	176
2.16500	167
2.16867	163
2.17233	163
2.17600	164
2.17967	163
2.18333	160
2.18700	155
2.19067	148
2.19433	142
2.19800	131
2.20167	124
2.20533	127
2.20900	129
2.21267	127
2.21633	121
2.22000	115
2.22367	113
2.22733	111
2.23100	104
2.23467	93
2.23833	84
2.24200	77
2.24567	74
2.24933	77
2.25300	83
2.25667	87
2.26033	88
2.26400	85
2.26767	81
2.27133	78
2.27500	77
2.27867	77
2.28233	77
2.28600	79
2.28967	82
2.29333	83
2.29700	81
2.30067	79
2.30433	79
2.30800	77
2.31167	80
2.31533	82
2.31900	79
2.32267	72
2.32633	63
2.33000	57
2.33367	54
2.33733	53
2.34100	54
2.34467	58
2.34833	64
2.35200	71
2.35567	78
2.35933	81
2.36300	82
2.36667	84
2.37033	84
2.37400	81
2.37767	76
2.38133	74
2.38500	73
2.38867	70
2.39233	65
2.39600	60
2.39967	56
2.40333	53
2.40700	50
2.41067	51
2.41433	56
2.41800	62
2.42167	65
2.42533	66
2.42900	69
2.43267	71
2.43633	70
2.44000	78
2.44367	78
2.44733	75
2.45100	75
2.45467	74
2.45833	71
2.46200	63
2.46567	59
2.46933	58
2.47300	59
2.47667	59
2.48033	55
2.48400	53
2.48767	54
2.49133	50
2.49500	42
2.49867	33
2.50233	32
2.50600	30
2.50967	39
2.51333	43
2.51700	44
2.52067	43
2.52433	40
2.52800	39
2.53167	39
2.53533	37
2.53900	36
2.54267	32
2.54633	27
2.55000	30
2.55367	27
2.55733	22
2.56100	30
2.56467	38
2.56833	44
2.57200	47
2.57567	46
2.57933	42
2.58300	37
2.58667	28
2.59033	19
2.59400	16
2.59767	16
2.60133	16
2.60500	18
2.60867	22
2.61233	27
2.61600	26
2.61967	22
2.62333	21
2.62700	23
2.63067	25
2.63433	24
2.63800	24
2.64167	23
2.64533	22
2.64900	21
2.65267	16
2.65633	11
2.66000	8
2.66367	7
2.66733	6
2.67100	5
2.67467	5
2.67833	8
2.68200	12
2.68567	12
2.68933	12
2.69300	12
2.69667	13
2.70033	11
2.70400	5
2.70767	1
2.71133	-2
2.71500	-2
2.71867	1
2.72233	4
2.72600	6
2.72967	6
2.73333	4
2.73700	1
2.74067	-1
2.74433	-6
2.74800	-9
2.75167	-4
2.75533	1
2.75900	3
2.76267	7
2.76633	11
2.77000	11
2.77367	12
2.77733	15
2.78100	12
2.78467	11
2.78833	7
2.79200	4
2.79567	-4
2.79933	1
2.80300	6
2.80667	7
2.81033	7
2.81400	9
2.81767	13
2.82133	16
2.82500	17
2.82867	9
2.83233	7
2.83600	2
2.83967	-8
2.84333	-17
2.84700	-27
2.85067	-34
2.85433	-31
2.85800	-20
2.86167	-18
2.86533	-20
2.86900	-10
2.87267	-7
2.87633	2
2.88000	14
2.88367	16
2.88733	14
2.89100	10
2.89467	5
2.89833	-0
2.90200	-4
2.90567	-7
2.90933	-10
2.91300	-16
2.91667	-21
2.92033	-20
2.92400	-17
2.92767	-11
2.93133	-6
2.93500	-4
2.93867	-5
2.94233	-9
2.94600	-9
2.94967	-8
2.95333	-3
2.95700	-6
2.96067	-6
2.96433	-7
2.96800	-9
2.97167	-8
2.97533	-9
2.97900	-11
2.98267	-15
2.98633	-18
2.99000	-16
2.99367	-9
2.99733	-2
3.00100	-4
3.00467	-5
3.00833	-8
3.01200	-9
3.01567	-11
3.01933	-13
3.02300	-16
3.02667	-20
3.03033	-16
3.03400	-10
3.03767	-9
3.04133	-8
3.04500	-8
3.04867	-6
3.05233	-5
3.05600	-5
3.05967	-3
3.06333	-2
3.06700	-3
3.07067	-4
3.07433	-5
3.07800	-3
3.08167	1
3.08533	3
3.08900	1
3.09267	-4
3.09633	-11
3.10000	-16
3.10367	-19
3.10733	-18
3.11100	-14
3.11467	-10
3.11833	-10
3.12200	-13
3.12567	-9
3.12933	-9
3.13300	-9
3.13667	-11
3.14033	-16
3.14400	-19
3.14767	-19
3.15133	-16
3.15500	-13
3.15867	-8
3.16233	-4
3.16600	1
3.16967	6
3.17333	10
3.17700	10
3.18067	6
3.18433	0
3.18800	-1
3.19167	3
3.19533	4
3.19900	-1
3.20267	-7
3.20633	-12
3.21000	-9
3.21367	-1
3.21733	4
3.22100	5
3.22467	2
3.22833	-7
3.23200	-7
3.23567	5
3.23933	11
3.24300	11
3.24667	7
3.25033	-4
3.25400	-16
3.25767	-24
3.26133	-28
3.26500	-28
3.26867	-23
3.27233	-20
3.27600	-21
3.27967	-24
3.28333	-28
3.28700	-23
3.29067	-26
3.29433	-20
3.29800	-14
3.30167	-13
3.30533	-15
3.30900	-16
3.31267	-15
3.31633	-12
3.32000	-10
3.32367	-11
3.32733	-15
3.33100	-18
3.33467	-18
3.33833	-20
3.34200	-23
3.34567	-27
3.34933	-29
3.35300	-27
3.35667	-23
3.36033	-22
3.36400	-24
3.36767	-26
3.37133	-31
3.37500	-33
3.37867	-32
3.38233	-30
3.38600	-29
3.38967	-28
3.39333	-23
3.39700	-15
3.40067	-2
3.40433	1
3.40800	3
3.41167	5
3.41533	7
3.41900	2
3.42267	-6
3.42633	-9
3.43000	-7
3.43367	-4
3.43733	-2
3.44100	-1
3.44467	-4
3.44833	-13
3.45200	-23
3.45567	-32
3.45933	-39
3.46300	-44
3.46667	-48
3.47033	-48
3.47400	-43
3.47767	-33
3.48133	-25
3.48500	-21
3.48867	-22
3.49233	-28
3.49600	-36
3.49967	-40
3.50333	-40
3.50700	-36
3.51067	-30
3.51433	-23
3.51800	-20
3.52167	-16
3.52533	-11
3.52900	-9
3.53267	-12
3.53633	-18
3.54000	-21
3.54367	-24
3.54733	-24
3.55100	-23
3.55467	-21
3.55833	-20
3.56200	-21
3.56567	-19
3.56933	-21
3.57300	-20
3.57667	-15
3.58033	-10
3.58400	-11
3.58767	-13
3.59133	-11
3.59500	-8
3.59867	-4
3.60233	-1
3.60600	-2
3.60967	-5
3.61333	-8
3.61700	-13
3.62067	-17
3.62433	-18
3.62800	-20
3.63167	-20
3.63533	-23
3.63900	-29
3.64267	-38
3.64633	-37
3.65000	-36
3.65367	-40
3.65733	-41
3.66100	-41
3.66467	-37
3.66833	-34
3.67200	-29
3.67567	-24
3.67933	-27
3.68300	-32
3.68667	-35
3.69033	-33
3.69400	-31
3.69767	-28
3.70133	-12
3.70500	-7
3.70867	-7
3.71233	1
3.71600	1
3.71967	-10
3.72333	-12
3.72700	-9
3.73067	-11
3.73433	-16
3.73800	-24
3.74167	-30
3.74533	-33
3.74900	-30
3.75267	-24
3.75633	-18
3.76000	-16
3.76367	-17
3.76733	-18
3.77100	-19
3.77467	-17
3.77833	-11
3.78200	-5
3.78567	-1
3.78933	-2
3.79300	-2
3.79667	1
3.80033	3
3.80400	4
3.80767	1
3.81133	-7
3.81500	-16
3.81867	-27
3.82233	-29
3.82600	-28
3.82967	-25
3.83333	-23
3.83700	-19
3.84067	-14
3.84433	-10
3.84800	-10
3.85167	-15
3.85533	-24
3.85900	-31
3.86267	-34
3.86633	-33
3.87000	-31
3.87367	-25
3.87733	-19
3.88100	-14
3.88467	-12
3.88833	-12
3.89200	-15
3.89567	-18
3.89933	-16
3.90300	-19
3.90667	-25
3.91033	-34
3.91400	-37
3.91767	-36
3.92133	-32
3.92500	-26
3.92867	-21
3.93233	-18
3.93600	-15
3.93967	-14
3.94333	-20
3.94700	-21
3.95067	-9
3.95433	0
3.95800	1
3.96167	-5
3.96533	-16
3.96900	-26
3.97267	-19
3.97633	-13
3.98000	-12
3.98367	-10
3.98733	-8
3.99100	-9
3.99467	-9
3.99833	-10

[Chromatogram (Ch2)]
Interval(msec)	220
# of Points	1091
Start Time(min)	0.002
End Time(min)	3.998
R.Time (min)	Intensity
0.00167	0
0.00533	0
0.00900	1
0.01267	1
0.01633	1
0.02000	1
0.02367	1
0.02733	2
0.03100	2
0.03467	2
0.03833	2
0.04200	2
0.04567	2
0.04933	2
0.05300	2
0.05667	2
0.06033	2
0.06400	2
0.06767	2
0.07133	2
0.07500	3
0.07867	3
0.08233	3
0.08600	4
0.08967	4
0.09333	4
0.09700	4
0.10067	5
0.10433	5
0.10800	5
0.11167	5
0.11533	5
0.11900	5
0.12267	5
0.12633	5
0.13000	5
0.13367	4
0.13733	4
0.14100	4
0.14467	4
0.14833	3
0.15200	3
0.15567	3
0.15933	2
0.16300	2
0.16667	2
0.17033	2
0.17400	2
0.17767	2
0.18133	2
0.18500	1
0.18867	1
0.19233	1
0.19600	1
0.19967	1
0.20333	0
0.20700	0
0.21067	-0
0.21433	-0
0.21800	-0
0.22167	-0
0.22533	-1
0.22900	-1
0.23267	-1
0.23633	-1
0.24000	-1
0.24367	-1
0.24733	-1
0.25100	-1
0.25467	-1
0.25833	-1
0.26200	-1
0.26567	-1
0.26933	-1
0.27300	-1
0.27667	-2
0.28033	-2
0.28400	-2
0.28767	-2
0.29133	-2
0.29500	-2
0.29867	-2
0.30233	-2
0.30600	-3
0.30967	-2
0.31333	-2
0.31700	-2
0.32067	-1
0.32433	-1
0.32800	-1
0.33167	-0
0.33533	0
0.33900	0
0.34267	1
0.34633	1
0.35000	1
0.35367	0
0.35733	-0
0.36100	-0
0.36467	-1
0.36833	-1
0.37200	-1
0.37567	-1
0.37933	-2
0.38300	-2
0.38667	-2
0.39033	-2
0.39400	-2
0.39767	-1
0.40133	-2
0.40500	-2
0.40867	-1
0.41233	-1
0.41600	-1
0.41967	-1
0.42333	-1
0.42700	-1
0.43067	-1
0.43433	-1
0.43800	-1
0.44167	-1
0.44533	-1
0.44900	-1
0.45267	-1
0.45633	-1
0.46000	-1
0.46367	-1
0.46733	-1
0.47100	-1
0.47467	-1
0.47833	-1
0.48200	-1
0.48567	-1
0.48933	-1
0.49300	-1
0.49667	-1
0.50033	-1
0.50400	-0
0.50767	-0
0.51133	-0
0.51500	-0
0.51867	-1
0.52233	-1
0.52600	-1
0.52967	-2
0.53333	-2
0.53700	-2
0.54067	-2
0.54433	-2
0.54800	-3
0.55167	-3
0.55533	-3
0.55900	-3
0.56267	-3
0.56633	-3
0.57000	-3
0.57367	-3
0.57733	-2
0.58100	-2
0.58467	-2
0.58833	-2
0.59200	-2
0.59567	-2
0.59933	-2
0.60300	-1
0.60667	-1
0.61033	-1
0.61400	-1
0.61767	-1
0.62133	-1
0.62500	-1
0.62867	-1
0.63233	-1
0.63600	-1
0.63967	-1
0.64333	-1
0.64700	-1
0.65067	-0
0.65433	-0
0.65800	-1
0.66167	-1
0.66533	-1
0.66900	-1
0.67267	-2
0.67633	-2
0.68000	-2
0.68367	-2
0.68733	-2
0.69100	-2
0.69467	-2
0.69833	-2
0.70200	-2
0.70567	-2
0.70933	-2
0.71300	-2
0.71667	-2
0.72033	-2
0.72400	-2
0.72767	-3
0.73133	-3
0.73500	-2
0.73867	-2
0.74233	-2
0.74600	-2
0.74967	-2
0.75333	-2
0.75700	-2
0.76067	-1
0.76433	-1
0.76800	-1
0.77167	-1
0.77533	-1
0.77900	-1
0.78267	-1
0.78633	-1
0.79000	-1
0.79367	-1
0.79733	-1
0.80100	-2
0.80467	-2
0.80833	-2
0.81200	-2
0.81567	-3
0.81933	-3
0.82300	-3
0.82667	-4
0.83033	-4
0.83400	-4
0.83767	-4
0.84133	-4
0.84500	-4
0.84867	-4
0.85233	-4
0.85600	-4
0.85967	-4
0.86333	-4
0.86700	-4
0.87067	-5
0.87433	-5
0.87800	-5
0.88167	-5
0.88533	-5
0.88900	-5
0.89267	-5
0.89633	-5
0.90000	-5
0.90367	-5
0.90733	-5
0.91100	-5
0.91467	-5
0.91833	-5
0.92200	-5
0.92567	-4
0.92933	-4
0.93300	-4
0.93667	-4
0.94033	-4
0.94400	-4
0.94767	-4
0.95133	-4
0.95500	-4
0.95867	-5
0.96233	-5
0.96600	-5
0.96967	-5
0.97333	-4
0.97700	-4
0.98067	-4
0.98433	-3
0.98800	-3
0.99167	-2
0.99533	-2
0.99900	-2
1.00267	-2
1.00633	-1
1.01000	-1
1.01367	-1
1.01733	-1
1.02100	-1
1.02467	-1
1.02833	-1
1.03200	-1
1.03567	-1
1.03933	-1
1.04300	-2
1.04667	-2
1.05033	-2
1.05400	-2
1.05767	-1
1.06133	-1
1.06500	-2
1.06867	-2
1.07233	-2
1.07600	-2
1.07967	-2
1.08333	-3
1.08700	-3
1.09067	-2
1.09433	-2
1.09800	-2
1.10167	-2
1.10533	-2
1.10900	-1
1.11267	-1
1.11633	-1
1.12000	-1
1.12367	-1
1.12733	-1
1.13100	-1
1.13467	-1
1.13833	-1
1.14200	-1
1.14567	-1
1.14933	-1
1.15300	-1
1.15667	-1
1.16033	-1
1.16400	-1
1.16767	-1
1.17133	-2
1.17500	-2
1.17867	-2
1.18233	-2
1.18600	-3
1.18967	-3
1.19333	-3
1.19700	-3
1.20067	-3
1.20433	-2
1.20800	-2
1.21167	-2
1.21533	-2
1.21900	-2
1.22267	-2
1.22633	-2
1.23000	-2
1.23367	-2
1.23733	-2
1.24100	-2
1.24467	-2
1.24833	-3
1.25200	-3
1.25567	-3
1.25933	-4
1.26300	-4
1.26667	-5
1.27033	-5
1.27400	-5
1.27767	-5
1.28133	-5
1.28500	-5
1.28867	-5
1.29233	-5
1.29600	-4
1.29967	-4
1.30333	-4
1.30700	-4
1.31067	-4
1.31433	-4
1.31800	-4
1.32167	-4
1.32533	-4
1.32900	-4
1.33267	-4
1.33633	-5
1.34000	-5
1.34367	-6
1.34733	-5
1.35100	-5
1.35467	-5
1.35833	-5
1.36200	-5
1.36567	-5
1.36933	-5
1.37300	-5
1.37667	-5
1.38033	-5
1.38400	-4
1.38767	-4
1.39133	-3
1.39500	-3
1.39867	-3
1.40233	-3
1.40600	-2
1.40967	-3
1.41333	-3
1.41700	-3
1.42067	-3
1.42433	-3
1.42800	-3
1.43167	-4
1.43533	-4
1.43900	-4
1.44267	-4
1.44633	-4
1.45000	-5
1.45367	-5
1.45733	-5
1.46100	-6
1.46467	-6
1.46833	-6
1.47200	-7
1.47567	-7
1.47933	-7
1.48300	-7
1.48667	-7
1.49033	-6
1.49400	-6
1.49767	-6
1.50133	-5
1.50500	-5
1.50867	-4
1.51233	-3
1.51600	-3
1.51967	-2
1.52333	-2
1.52700	-2
1.53067	-2
1.53433	-2
1.53800	-1
1.54167	-1
1.54533	-1
1.54900	-1
1.55267	-2
1.55633	-2
1.56000	-2
1.56367	-2
1.56733	-2
1.57100	-2
1.57467	-3
1.57833	-3
1.58200	-3
1.58567	-3
1.58933	-3
1.59300	-4
1.59667	-4
1.60033	-5
1.60400	-6
1.60767	-7
1.61133	-9
1.61500	-10
1.61867	-12
1.62233	-15
1.62600	-17
1.62967	-20
1.63333	-23
1.63700	-27
1.64067	-31
1.64433	-35
1.64800	-38
1.65167	-42
1.65533	-46
1.65900	-51
1.66267	-55
1.66633	-59
1.67000	-63
1.67367	-68
1.67733	-73
1.68100	-77
1.68467	-82
1.68833	-87
1.69200	-92
1.69567	-96
1.69933	-100
1.70300	-103
1.70667	-106
1.71033	-109
1.71400	-111
1.71767	-112
1.72133	-113
1.72500	-114
1.72867	-114
1.73233	-115
1.73600	-115
1.73967	-115
1.74333	-115
1.74700	-115
1.75067	-115
1.75433	-115
1.75800	-116
1.76167	-116
1.76533	-117
1.76900	-118
1.77267	-119
1.77633	-120
1.78000	-120
1.78367	-121
1.78733	-122
1.79100	-122
1.79467	-123
1.79833	-124
1.80200	-125
1.80567	-126
1.80933	-126
1.81300	-126
1.81667	-126
1.82033	-126
1.82400	-126
1.82767	-126
1.83133	-127
1.83500	-127
1.83867	-128
1.84233	-128
1.84600	-129
1.84967	-129
1.85333	-129
1.85700	-128
1.86067	-128
1.86433	-127
1.86800	-126
1.87167	-126
1.87533	-125
1.87900	-124
1.88267	-124
1.88633	-124
1.89000	-125
1.89367	-125
1.89733	-126
1.90100	-125
1.90467	-125
1.90833	-125
1.91200	-124
1.91567	-124
1.91933	-123
1.92300	-123
1.92667	-123
1.93033	-122
1.93400	-122
1.93767	-121
1.94133	-121
1.94500	-120
1.94867	-120
1.95233	-119
1.95600	-119
1.95967	-119
1.96333	-119
1.96700	-119
1.97067	-118
1.97433	-118
1.97800	-118
1.98167	-117
1.98533	-117
1.98900	-117
1.99267	-117
1.99633	-117
2.00000	-117
2.00367	-117
2.00733	-117
2.01100	-117
2.01467	-117
2.01833	-116
2.02200	-116
2.02567	-115
2.02933	-114
2.03300	-114
2.03667	-113
2.04033	-113
2.04400	-113
2.04767	-113
2.05133	-113
2.05500	-112
2.05867	-112
2.06233	-111
2.06600	-110
2.06967	-110
2.07333	-109
2.07700	-109
2.08067	-108
2.08433	-108
2.08800	-108
2.09167	-107
2.09533	-107
2.09900	-107
2.10267	-108
2.10633	-108
2.11000	-108
2.11367	-109
2.11733	-109
2.12100	-109
2.12467	-109
2.12833	-109
2.13200	-108
2.13567	-108
2.13933	-107
2.14300	-106
2.14667	-105
2.15033	-105
2.15400	-104
2.15767	-104
2.16133	-105
2.16500	-105
2.16867	-105
2.17233	-105
2.17600	-105
2.17967	-104
2.18333	-103
2.18700	-103
2.19067	-102
2.19433	-102
2.19800	-101
2.20167	-101
2.20533	-100
2.20900	-100
2.21267	-99
2.21633	-98
2.22000	-98
2.22367	-97
2.22733	-97
2.23100	-97
2.23467	-96
2.23833	-96
2.24200	-95
2.24567	-95
2.24933	-94
2.25300	-94
2.25667	-94
2.26033	-93
2.26400	-93
2.26767	-93
2.27133	-92
2.27500	-92
2.27867	-92
2.28233	-92
2.28600	-92
2.28967	-92
2.29333	-92
2.29700	-93
2.30067	-94
2.30433	-94
2.30800	-95
2.31167	-95
2.31533	-94
2.31900	-94
2.32267	-93
2.32633	-92
2.33000	-92
2.33367	-91
2.33733	-90
2.34100	-90
2.34467	-89
2.34833	-87
2.35200	-86
2.35567	-84
2.35933	-83
2.36300	-81
2.36667	-79
2.37033	-78
2.37400	-75
2.37767	-73
2.38133	-69
2.38500	-66
2.38867	-62
2.39233	-58
2.39600	-54
2.39967	-49
2.40333	-44
2.40700	-40
2.41067	-35
2.41433	-31
2.41800	-27
2.42167	-24
2.42533	-22
2.42900	-19
2.43267	-17
2.43633	-15
2.44000	-13
2.44367	-11
2.44733	-10
2.45100	-8
2.45467	-6
2.45833	-5
2.46200	-4
2.46567	-3
2.46933	-2
2.47300	-1
2.47667	1
2.48033	2
2.48400	3
2.48767	4
2.49133	5
2.49500	6
2.49867	7
2.50233	7
2.50600	8
2.50967	8
2.51333	9
2.51700	10
2.52067	10
2.52433	11
2.52800	12
2.53167	12
2.53533	13
2.53900	14
2.54267	15
2.54633	15
2.55000	16
2.55367	16
2.55733	16
2.56100	16
2.56467	16
2.56833	17
2.57200	17
2.57567	17
2.57933	17
2.58300	17
2.58667	17
2.59033	17
2.59400	17
2.59767	17
2.60133	17
2.60500	18
2.60867	18
2.61233	18
2.61600	18
2.61967	18
2.62333	17
2.62700	17
2.63067	17
2.63433	17
2.63800	17
2.64167	17
2.64533	18
2.64900	18
2.65267	18
2.65633	19
2.66000	20
2.66367	20
2.66733	21
2.67100	21
2.67467	21
2.67833	21
2.68200	21
2.68567	20
2.68933	20
2.69300	20
2.69667	20
2.70033	20
2.70400	20
2.70767	21
2.71133	21
2.71500	22
2.71867	22
2.72233	23
2.72600	23
2.72967	23
2.73333	24
2.73700	24
2.74067	24
2.74433	25
2.74800	25
2.75167	26
2.75533	26
2.75900	26
2.76267	26
2.76633	27
2.77000	26
2.77367	26
2.77733	25
2.78100	24
2.78467	23
2.78833	23
2.79200	22
2.79567	22
2.79933	22
2.80300	22
2.80667	22
2.81033	22
2.81400	22
2.81767	22
2.82133	23
2.82500	23
2.82867	23
2.83233	23
2.83600	24
2.83967	24
2.84333	24
2.84700	25
2.85067	25
2.85433	26
2.85800	26
2.86167	26
2.86533	26
2.86900	24
2.87267	21
2.87633	16
2.88000	8
2.88367	-3
2.88733	-17
2.89100	-35
2.89467	-57
2.89833	-81
2.90200	-109
2.90567	-140
2.90933	-174
2.91300	-210
2.91667	-248
2.92033	-289
2.92400	-333
2.92767	-379
2.93133	-422
2.93500	-455
2.93867	-476
2.94233	-483
2.94600	-476
2.94967	-457
2.95333	-431
2.95700	-399
2.96067	-363
2.96433	-327
2.96800	-291
2.97167	-256
2.97533	-224
2.97900	-194
2.98267	-167
2.98633	-142
2.99000	-121
2.99367	-102
2.99733	-85
3.00100	-70
3.00467	-58
3.00833	-46
3.01200	-37
3.01567	-28
3.01933	-21
3.02300	-15
3.02667	-10
3.03033	-5
3.03400	-2
3.03767	2
3.04133	5
3.04500	7
3.04867	9
3.05233	11
3.05600	12
3.05967	13
3.06333	14
3.06700	15
3.07067	16
3.07433	17
3.07800	17
3.08167	17
3.08533	18
3.08900	18
3.09267	19
3.09633	19
3.10000	20
3.10367	20
3.10733	21
3.11100	21
3.11467	21
3.11833	21
3.12200	22
3.12567	22
3.12933	22
3.13300	22
3.13667	22
3.14033	22
3.14400	22
3.14767	22
3.15133	22
3.15500	23
3.15867	23
3.16233	23
3.16600	23
3.16967	23
3.17333	23
3.17700	23
3.18067	23
3.18433	24
3.18800	24
3.19167	24
3.19533	25
3.19900	25
3.20267	25
3.20633	26
3.21000	26
3.21367	26
3.21733	26
3.22100	26
3.22467	27
3.22833	27
3.23200	27
3.23567	27
3.23933	28
3.24300	28
3.24667	28
3.25033	28
3.25400	29
3.25767	29
3.26133	29
3.26500	29
3.26867	29
3.27233	29
3.27600	28
3.27967	28
3.28333	28
3.28700	28
3.29067	28
3.29433	27
3.29800	27
3.30167	27
3.30533	27
3.30900	26
3.31267	26
3.31633	27
3.32000	27
3.32367	27
3.32733	27
3.33100	27
3.33467	28
3.33833	28
3.34200	28
3.34567	28
3.34933	28
3.35300	28
3.35667	28
3.36033	28
3.36400	28
3.36767	28
3.37133	28
3.37500	28
3.37867	28
3.38233	28
3.38600	28
3.38967	28
3.39333	28
3.39700	28
3.40067	27
3.40433	27
3.40800	27
3.41167	27
3.41533	27
3.41900	27
3.42267	27
3.42633	27
3.43000	27
3.43367	27
3.43733	27
3.44100	27
3.44467	27
3.44833	27
3.45200	27
3.45567	27
3.45933	27
3.46300	27
3.46667	27
3.47033	27
3.47400	27
3.47767	26
3.48133	26
3.48500	26
3.48867	26
3.49233	26
3.49600	26
3.49967	26
3.50333	26
3.50700	27
3.51067	27
3.51433	27
3.51800	28
3.52167	28
3.52533	28
3.52900	28
3.53267	29
3.53633	29
3.54000	28
3.54367	29
3.54733	29
3.55100	29
3.55467	29
3.55833	29
3.56200	28
3.56567	28
3.56933	28
3.57300	28
3.57667	28
3.58033	28
3.58400	28
3.58767	28
3.59133	28
3.59500	28
3.59867	29
3.60233	29
3.60600	29
3.60967	29
3.61333	29
3.61700	28
3.62067	28
3.62433	28
3.62800	28
3.63167	28
3.63533	28
3.63900	28
3.64267	28
3.64633	28
3.65000	28
3.65367	28
3.65733	28
3.66100	28
3.66467	28
3.66833	27
3.67200	27
3.67567	27
3.67933	27
3.68300	27
3.68667	27
3.69033	28
3.69400	28
3.69767	28
3.70133	28
3.70500	28
3.70867	28
3.71233	28
3.71600	28
3.71967	28
3.72333	28
3.72700	28
3.73067	28
3.73433	28
3.73800	28
3.74167	28
3.74533	28
3.74900	28
3.75267	27
3.75633	27
3.76000	27
3.76367	27
3.76733	27
3.77100	27
3.77467	27
3.77833	27
3.78200	27
3.78567	27
3.78933	28
3.79300	28
3.79667	28
3.80033	28
3.80400	28
3.80767	28
3.81133	28
3.81500	28
3.81867	27
3.82233	27
3.82600	28
3.82967	28
3.83333	28
3.83700	28
3.84067	28
3.84433	28
3.84800	28
3.85167	28
3.85533	28
3.85900	28
3.86267	28
3.86633	28
3.87000	28
3.87367	28
3.87733	28
3.88100	29
3.88467	29
3.88833	29
3.89200	29
3.89567	29
3.89933	29
3.90300	29
3.90667	29
3.91033	29
3.91400	29
3.91767	29
3.92133	29
3.92500	29
3.92867	29
3.93233	29
3.93600	29
3.93967	28
3.94333	28
3.94700	28
3.95067	28
3.95433	27
3.95800	27
3.96167	27
3.96533	27
3.96900	27
3.97267	27
3.97633	27
3.98000	27
3.98367	27
3.98733	27
3.99100	27
3.99467	27
3.99833	26

[Chromatogram (Ch3)]
Interval(msec)	220
# of Points	1091
Start Time(min)	0.002
End Time(min)	3.998
R.Time (min)	Intensity
0.00167	0
0.00533	3
0.00900	2
0.01267	-0
0.01633	-3
0.02000	-3
0.02367	-3
0.02733	-4
0.03100	-4
0.03467	-4
0.03833	-7
0.04200	-7
0.04567	-5
0.04933	-2
0.05300	-0
0.05667	1
0.06033	1
0.06400	2
0.06767	3
0.07133	2
0.07500	3
0.07867	2
0.08233	1
0.08600	0
0.08967	-1
0.09333	-1
0.09700	-1
0.10067	-3
0.10433	-2
0.10800	1
0.11167	2
0.11533	2
0.11900	4
0.12267	6
0.12633	5
0.13000	5
0.13367	7
0.13733	8
0.14100	9
0.14467	9
0.14833	8
0.15200	8
0.15567	6
0.15933	6
0.16300	7
0.16667	8
0.17033	7
0.17400	6
0.17767	6
0.18133	9
0.18500	10
0.18867	11
0.19233	11
0.19600	11
0.19967	9
0.20333	8
0.20700	7
0.21067	7
0.21433	7
0.21800	8
0.22167	7
0.22533	6
0.22900	8
0.23267	10
0.23633	11
0.24000	11
0.24367	10
0.24733	10
0.25100	9
0.25467	9
0.25833	10
0.26200	11
0.26567	12
0.26933	13
0.27300	11
0.27667	9
0.28033	9
0.28400	11
0.28767	12
0.29133	12
0.29500	12
0.29867	11
0.30233	9
0.30600	9
0.30967	11
0.31333	12
0.31700	12
0.32067	13
0.32433	11
0.32800	9
0.33167	9
0.33533	9
0.33900	9
0.34267	10
0.34633	9
0.35000	8
0.35367	8
0.35733	10
0.36100	15
0.36467	15
0.36833	14
0.37200	13
0.37567	14
0.37933	15
0.38300	15
0.38667	14
0.39033	15
0.39400	16
0.39767	16
0.40133	18
0.40500	19
0.40867	17
0.41233	17
0.41600	15
0.41967	15
0.42333	15
0.42700	14
0.43067	12
0.43433	11
0.43800	11
0.44167	12
0.44533	11
0.44900	10
0.45267	13
0.45633	13
0.46000	12
0.46367	12
0.46733	12
0.47100	13
0.47467	13
0.47833	13
0.48200	15
0.48567	16
0.48933	17
0.49300	20
0.49667	22
0.50033	21
0.50400	18
0.50767	14
0.51133	13
0.51500	13
0.51867	13
0.52233	13
0.52600	14
0.52967	14
0.53333	14
0.53700	13
0.54067	16
0.54433	17
0.54800	15
0.55167	15
0.55533	15
0.55900	16
0.56267	16
0.56633	18
0.57000	19
0.57367	17
0.57733	16
0.58100	17
0.58467	19
0.58833	20
0.59200	18
0.59567	15
0.59933	16
0.60300	16
0.60667	14
0.61033	14
0.61400	16
0.61767	18
0.62133	18
0.62500	17
0.62867	16
0.63233	16
0.63600	16
0.63967	17
0.64333	18
0.64700	19
0.65067	19
0.65433	20
0.65800	19
0.66167	20
0.66533	22
0.66900	22
0.67267	22
0.67633	22
0.68000	22
0.68367	20
0.68733	18
0.69100	16
0.69467	15
0.69833	17
0.70200	17
0.70567	17
0.70933	18
0.71300	18
0.71667	17
0.72033	15
0.72400	14
0.72767	16
0.73133	18
0.73500	18
0.73867	19
0.74233	20
0.74600	20
0.74967	21
0.75333	23
0.75700	22
0.76067	21
0.76433	18
0.76800	16
0.77167	16
0.77533	16
0.77900	16
0.78267	16
0.78633	18
0.79000	23
0.79367	27
0.79733	25
0.80100	23
0.80467	21
0.80833	20
0.81200	21
0.81567	21
0.81933	22
0.82300	22
0.82667	23
0.83033	24
0.83400	25
0.83767	25
0.84133	24
0.84500	24
0.84867	22
0.85233	21
0.85600	21
0.85967	22
0.86333	24
0.86700	27
0.87067	27
0.87433	27
0.87800	26
0.88167	26
0.88533	26
0.88900	25
0.89267	25
0.89633	26
0.90000	26
0.90367	26
0.90733	27
0.91100	27
0.91467	24
0.91833	23
0.92200	21
0.92567	21
0.92933	23
0.93300	24
0.93667	26
0.94033	28
0.94400	29
0.94767	31
0.95133	31
0.95500	29
0.95867	29
0.96233	30
0.96600	30
0.96967	29
0.97333	27
0.97700	27
0.98067	27
0.98433	25
0.98800	23
0.99167	23
0.99533	23
0.99900	21
1.00267	19
1.00633	20
1.01000	21
1.01367	24
1.01733	26
1.02100	27
1.02467	26
1.02833	25
1.03200	25
1.03567	28
1.03933	28
1.04300	27
1.04667	27
1.05033	26
1.05400	26
1.05767	25
1.06133	26
1.06500	26
1.06867	24
1.07233	23
1.07600	23
1.07967	23
1.08333	24
1.08700	25
1.09067	26
1.09433	27
1.09800	27
1.10167	26
1.10533	27
1.10900	27
1.11267	25
1.11633	22
1.12000	23
1.12367	25
1.12733	27
1.13100	29
1.13467	32
1.13833	31
1.14200	30
1.14567	29
1.14933	27
1.15300	26
1.15667	27
1.16033	29
1.16400	27
1.16767	25
1.17133	24
1.17500	24
1.17867	25
1.18233	29
1.18600	30
1.18967	29
1.19333	26
1.19700	24
1.20067	25
1.20433	26
1.20800	26
1.21167	27
1.21533	27
1.21900	25
1.22267	23
1.22633	23
1.23000	22
1.23367	20
1.23733	22
1.24100	24
1.24467	26
1.24833	27
1.25200	27
1.25567	27
1.25933	24
1.26300	24
1.26667	23
1.27033	20
1.27400	19
1.27767	19
1.28133	19
1.28500	19
1.28867	21
1.29233	25
1.29600	26
1.29967	26
1.30333	24
1.30700	22
1.31067	22
1.31433	23
1.31800	21
1.32167	19
1.32533	19
1.32900	23
1.33267	27
1.33633	28
1.34000	25
1.34367	22
1.34733	19
1.35100	17
1.35467	18
1.35833	17
1.36200	18
1.36567	19
1.36933	20
1.37300	21
1.37667	22
1.38033	24
1.38400	25
1.38767	25
1.39133	25
1.39500	26
1.39867	24
1.40233	23
1.40600	23
1.40967	24
1.41333	25
1.41700	25
1.42067	26
1.42433	26
1.42800	27
1.43167	27
1.43533	26
1.43900	26
1.44267	25
1.44633	23
1.45000	23
1.45367	23
1.45733	23
1.46100	26
1.46467	29
1.46833	29
1.47200	28
1.47567	25
1.47933	23
1.48300	23
1.48667	22
1.49033	20
1.49400	20
1.49767	21
1.50133	24
1.50500	26
1.50867	27
1.51233	26
1.51600	24
1.51967	22
1.52333	21
1.52700	22
1.53067	22
1.53433	22
1.53800	24
1.54167	26
1.54533	25
1.54900	24
1.55267	21
1.55633	20
1.56000	19
1.56367	17
1.56733	16
1.57100	16
1.57467	18
1.57833	19
1.58200	19
1.58567	20
1.58933	21
1.59300	21
1.59667	20
1.60033	18
1.60400	18
1.60767	19
1.61133	19
1.61500	20
1.61867	21
1.62233	23
1.62600	25
1.62967	27
1.63333	30
1.63700	31
1.64067	32
1.64433	32
1.64800	32
1.65167	31
1.65533	29
1.65900	28
1.66267	27
1.66633	27
1.67000	28
1.67367	30
1.67733	32
1.68100	33
1.68467	34
1.68833	35
1.69200	36
1.69567	36
1.69933	36
1.70300	37
1.70667	39
1.71033	41
1.71400	42
1.71767	40
1.72133	40
1.72500	41
1.72867	40
1.73233	38
1.73600	38
1.73967	41
1.74333	44
1.74700	46
1.75067	47
1.75433	49
1.75800	52
1.76167	55
1.76533	56
1.76900	55
1.77267	54
1.77633	52
1.78000	53
1.78367	52
1.78733	51
1.79100	52
1.79467	55
1.79833	57
1.80200	58
1.80567	57
1.80933	55
1.81300	52
1.81667	51
1.82033	52
1.82400	52
1.82767	54
1.83133	54
1.83500	55
1.83867	54
1.84233	53
1.84600	54
1.84967	55
1.85333	56
1.85700	56
1.86067	58
1.86433	57
1.86800	54
1.87167	52
1.87533	52
1.87900	54
1.88267	55
1.88633	56
1.89000	57
1.89367	58
1.89733	57
1.90100	57
1.90467	59
1.90833	61
1.91200	63
1.91567	63
1.91933	63
1.92300	63
1.92667	67
1.93033	67
1.93400	66
1.93767	65
1.94133	65
1.94500	66
1.94867	67
1.95233	65
1.95600	62
1.95967	63
1.96333	62
1.96700	63
1.97067	66
1.97433	67
1.97800	68
1.98167	69
1.98533	72
1.98900	74
1.99267	73
1.99633	73
2.00000	75
2.00367	75
2.00733	76
2.01100	77
2.01467	77
2.01833	76
2.02200	76
2.02567	78
2.02933	78
2.03300	77
2.03667	76
2.04033	77
2.04400	80
2.04767	82
2.05133	84
2.05500	85
2.05867	86
2.06233	87
2.06600	86
2.06967	86
2.07333	87
2.07700	88
2.08067	89
2.08433	90
2.08800	92
2.09167	97
2.09533	100
2.09900	102
2.10267	104
2.10633	105
2.11000	105
2.11367	105
2.11733	105
2.12100	104
2.12467	104
2.12833	104
2.13200	106
2.13567	107
2.13933	107
2.14300	110
2.14667	111
2.15033	111
2.15400	113
2.15767	115
2.16133	115
2.16500	117
2.16867	119
2.17233	119
2.17600	118
2.17967	118
2.18333	119
2.18700	119
2.19067	122
2.19433	124
2.19800	123
2.20167	124
2.20533	126
2.20900	128
2.21267	128
2.21633	129
2.22000	131
2.22367	130
2.22733	130
2.23100	128
2.23467	127
2.23833	128
2.24200	128
2.24567	130
2.24933	131
2.25300	132
2.25667	134
2.26033	136
2.26400	138
2.26767	141
2.27133	143
2.27500	143
2.27867	143
2.28233	144
2.28600	145
2.28967	146
2.29333	145
2.29700	145
2.30067	146
2.30433	148
2.30800	148
2.31167	148
2.31533	150
2.31900	151
2.32267	151
2.32633	153
2.33000	154
2.33367	156
2.33733	158
2.34100	158
2.34467	158
2.34833	156
2.35200	156
2.35567	156
2.35933	158
2.36300	162
2.36667	165
2.37033	167
2.37400	168
2.37767	168
2.38133	167
2.38500	166
2.38867	166
2.39233	166
2.39600	166
2.39967	164
2.40333	162
2.40700	163
2.41067	164
2.41433	164
2.41800	166
2.42167	168
2.42533	169
2.42900	172
2.43267	176
2.43633	179
2.44000	182
2.44367	185
2.44733	190
2.45100	188
2.45467	172
2.45833	153
2.46200	137
2.46567	131
2.46933	132
2.47300	138
2.47667	148
2.48033	162
2.48400	179
2.48767	196
2.49133	212
2.49500	225
2.49867	239
2.50233	252
2.50600	265
2.50967	279
2.51333	292
2.51700	304
2.52067	318
2.52433	331
2.52800	339
2.53167	348
2.53533	357
2.53900	363
2.54267	368
2.54633	374
2.55000	380
2.55367	384
2.55733	388
2.56100	391
2.56467	394
2.56833	398
2.57200	402
2.57567	405
2.57933	407
2.58300	408
2.58667	410
2.59033	411
2.59400	412
2.59767	412
2.60133	412
2.60500	415
2.60867	416
2.61233	413
2.61600	406
2.61967	394
2.62333	379
2.62700	360
2.63067	338
2.63433	316
2.63800	297
2.64167	282
2.64533	268
2.64900	258
2.65267	251
2.65633	249
2.66000	247
2.66367	249
2.66733	253
2.67100	256
2.67467	261
2.67833	268
2.68200	274
2.68567	278
2.68933	282
2.69300	287
2.69667	292
2.70033	295
2.70400	299
2.70767	303
2.71133	308
2.71500	313
2.71867	317
2.72233	318
2.72600	320
2.72967	323
2.73333	327
2.73700	328
2.74067	328
2.74433	331
2.74800	334
2.75167	334
2.75533	334
2.75900	335
2.76267	337
2.76633	340
2.77000	340
2.77367	339
2.77733	342
2.78100	346
2.78467	348
2.78833	350
2.79200	351
2.79567	350
2.79933	351
2.80300	354
2.80667	353
2.81033	352
2.81400	350
2.81767	351
2.82133	352
2.82500	352
2.82867	353
2.83233	353
2.83600	354
2.83967	361
2.84333	382
2.84700	426
2.85067	509
2.85433	650
2.85800	855
2.86167	1118
2.86533	1421
2.86900	1731
2.87267	2014
2.87633	2242
2.88000	2396
2.88367	2469
2.88733	2466
2.89100	2398
2.89467	2284
2.89833	2141
2.90200	1981
2.90567	1814
2.90933	1653
2.91300	1500
2.91667	1360
2.92033	1230
2.92400	1114
2.92767	1010
2.93133	918
2.93500	837
2.93867	769
2.94233	708
2.94600	653
2.94967	606
2.95333	566
2.95700	531
2.96067	500
2.96433	473
2.96800	451
2.97167	432
2.97533	414
2.97900	398
2.98267	384
2.98633	372
2.99000	361
2.99367	351
2.99733	343
3.00100	338
3.00467	335
3.00833	332
3.01200	325
3.01567	321
3.01933	317
3.02300	312
3.02667	310
3.03033	308
3.03400	304
3.03767	299
3.04133	295
3.04500	294
3.04867	292
3.05233	290
3.05600	287
3.05967	286
3.06333	284
3.06700	281
3.07067	278
3.07433	275
3.07800	274
3.08167	274
3.08533	271
3.08900	266
3.09267	261
3.09633	260
3.10000	260
3.10367	260
3.10733	258
3.11100	255
3.11467	252
3.11833	250
3.12200	250
3.12567	248
3.12933	245
3.13300	243
3.13667	242
3.14033	242
3.14400	240
3.14767	239
3.15133	238
3.15500	237
3.15867	234
3.16233	230
3.16600	228
3.16967	226
3.17333	221
3.17700	216
3.18067	212
3.18433	210
3.18800	209
3.19167	207
3.19533	206
3.19900	205
3.20267	206
3.20633	205
3.21000	206
3.21367	202
3.21733	201
3.22100	200
3.22467	201
3.22833	200
3.23200	196
3.23567	193
3.23933	187
3.24300	181
3.24667	179
3.25033	179
3.25400	180
3.25767	178
3.26133	176
3.26500	174
3.26867	174
3.27233	173
3.27600	172
3.27967	171
3.28333	170
3.28700	168
3.29067	165
3.29433	164
3.29800	164
3.30167	164
3.30533	162
3.30900	159
3.31267	157
3.31633	154
3.32000	150
3.32367	146
3.32733	145
3.33100	144
3.33467	144
3.33833	140
3.34200	135
3.34567	132
3.34933	131
3.35300	129
3.35667	129
3.36033	127
3.36400	124
3.36767	123
3.37133	123
3.37500	120
3.37867	116
3.38233	114
3.38600	112
3.38967	109
3.39333	107
3.39700	104
3.40067	101
3.40433	98
3.40800	96
3.41167	95
3.41533	94
3.41900	93
3.42267	92
3.42633	90
3.43000	90
3.43367	91
3.43733	90
3.44100	89
3.44467	87
3.44833	86
3.45200	85
3.45567	81
3.45933	75
3.46300	71
3.46667	69
3.47033	69
3.47400	70
3.47767	69
3.48133	68
3.48500	68
3.48867	66
3.49233	67
3.49600	68
3.49967	67
3.50333	66
3.50700	65
3.51067	65
3.51433	64
3.51800	61
3.52167	60
3.52533	61
3.52900	62
3.53267	61
3.53633	59
3.54000	57
3.54367	54
3.54733	51
3.55100	49
3.55467	49
3.55833	49
3.56200	48
3.56567	47
3.56933	45
3.57300	42
3.57667	40
3.58033	39
3.58400	38
3.58767	39
3.59133	41
3.59500	39
3.59867	37
3.60233	37
3.60600	36
3.60967	34
3.61333	32
3.61700	30
3.62067	28
3.62433	27
3.62800	25
3.63167	24
3.63533	25
3.63900	25
3.64267	25
3.64633	25
3.65000	25
3.65367	24
3.65733	24
3.66100	24
3.66467	23
3.66833	23
3.67200	21
3.67567	21
3.67933	19
3.68300	19
3.68667	18
3.69033	17
3.69400	18
3.69767	19
3.70133	19
3.70500	19
3.70867	20
3.71233	21
3.71600	19
3.71967	18
3.72333	18
3.72700	16
3.73067	16
3.73433	16
3.73800	17
3.74167	17
3.74533	16
3.74900	17
3.75267	19
3.75633	20
3.76000	20
3.76367	20
3.76733	19
3.77100	17
3.77467	16
3.77833	16
3.78200	17
3.78567	18
3.78933	19
3.79300	19
3.79667	18
3.80033	15
3.80400	13
3.80767	11
3.81133	9
3.81500	9
3.81867	10
3.82233	13
3.82600	15
3.82967	15
3.83333	13
3.83700	12
3.84067	14
3.84433	16
3.84800	18
3.85167	18
3.85533	18
3.85900	17
3.86267	16
3.86633	17
3.87000	14
3.87367	13
3.87733	15
3.88100	17
3.88467	16
3.88833	14
3.89200	14
3.89567	14
3.89933	14
3.90300	14
3.90667	14
3.91033	14
3.91400	13
3.91767	11
3.92133	9
3.92500	9
3.92867	10
3.93233	9
3.93600	10
3.93967	13
3.94333	15
3.94700	17
3.95067	18
3.95433	18
3.95800	15
3.96167	13
3.96533	13
3.96900	14
3.97267	14
3.97633	14
3.98000	14
3.98367	14
3.98733	13
3.99100	14
3.99467	15
3.99833	17

[Status Trace (Column Oven Temperature)]
Interval(msec)	1000
# of Points	240
Start Time(min)	0.015
End Time(min)	3.998
Intensity Units	
Intensity Multiplier	1
R.Time (min)	Intensity
0.01513	35.05
0.03180	35.03
0.04847	35.02
0.06513	35.00
0.08180	34.99
0.09847	34.98
0.11513	34.97
0.13180	34.96
0.14847	34.96
0.16513	34.95
0.18180	34.96
0.19847	34.97
0.21513	34.97
0.23180	34.97
0.24847	34.97
0.26513	34.98
0.28180	34.99
0.29847	34.99
0.31513	34.98
0.33180	34.97
0.34847	34.97
0.36513	34.97
0.38180	34.97
0.39847	34.97
0.41513	34.97
0.43180	34.96
0.44847	34.96
0.46513	34.96
0.48180	34.96
0.49847	34.95
0.51513	34.95
0.53180	34.96
0.54847	34.97
0.56513	34.97
0.58180	34.98
0.59847	34.97
0.61513	34.97
0.63180	34.97
0.64847	34.97
0.66513	34.96
0.68180	34.97
0.69847	34.97
0.71513	34.97
0.73180	34.97
0.74847	34.96
0.76513	34.97
0.78180	34.96
0.79847	34.96
0.81513	34.97
0.83180	34.97
0.84847	34.98
0.86513	34.99
0.88180	35.00
0.89847	35.00
0.91513	35.00
0.93180	35.00
0.94847	35.01
0.96513	35.01
0.98180	35.01
0.99847	35.00
1.01513	35.00
1.03180	34.99
1.04847	34.98
1.06513	34.98
1.08180	34.98
1.09847	34.98
1.11513	34.98
1.13180	34.99
1.14847	34.98
1.16513	34.98
1.18180	34.98
1.19847	34.98
1.21513	34.97
1.23180	34.96
1.24847	34.97
1.26513	34.97
1.28180	34.98
1.29847	34.98
1.31513	35.00
1.33180	35.01
1.34847	35.01
1.36513	35.01
1.38180	35.01
1.39847	35.00
1.41513	35.00
1.43180	35.01
1.44847	35.03
1.46513	35.05
1.48180	35.05
1.49847	35.04
1.51513	35.03
1.53180	35.02
1.54847	35.02
1.56513	35.01
1.58180	35.01
1.59847	35.04
1.61513	35.13
1.63180	35.28
1.64847	35.49
1.66513	35.76
1.68180	36.11
1.69847	36.48
1.71513	36.83
1.73180	37.16
1.74847	37.46
1.76513	37.80
1.78180	38.14
1.79847	38.48
1.81513	38.81
1.83180	39.15
1.84847	39.50
1.86513	39.81
1.88180	40.15
1.89847	40.47
1.91513	40.81
1.93180	41.14
1.94847	41.46
1.96513	41.79
1.98180	42.10
1.99847	42.44
2.01513	42.75
2.03180	43.07
2.04847	43.42
2.06513	43.73
2.08180	44.05
2.09847	44.37
2.11513	44.70
2.13180	45.03
2.14847	45.35
2.16513	45.69
2.18180	46.02
2.19847	46.35
2.21513	46.68
2.23180	46.99
2.24847	47.31
2.26513	47.65
2.28180	47.95
2.29847	48.33
2.31513	48.66
2.33180	49.00
2.34847	49.28
2.36513	49.52
2.38180	49.63
2.39847	49.65
2.41513	49.64
2.43180	49.67
2.44847	49.67
2.46513	49.69
2.48180	49.70
2.49847	49.72
2.51513	49.74
2.53180	49.75
2.54847	49.77
2.56513	49.78
2.58180	49.79
2.59847	49.80
2.61513	49.81
2.63180	49.83
2.64847	49.84
2.66513	49.83
2.68180	49.85
2.69847	49.86
2.71513	49.87
2.73180	49.86
2.74847	49.85
2.76513	49.85
2.78180	49.89
2.79847	49.91
2.81513	49.91
2.83180	49.92
2.84847	49.91
2.86513	49.92
2.88180	49.92
2.89847	49.93
2.91513	49.95
2.93180	49.97
2.94847	49.99
2.96513	50.00
2.98180	50.00
2.99847	50.01
3.01513	50.03
3.03180	50.03
3.04847	50.04
3.06513	50.05
3.08180	50.06
3.09847	50.07
3.11513	50.07
3.13180	50.09
3.14847	50.09
3.16513	50.10
3.18180	50.10
3.19847	50.10
3.21513	50.09
3.23180	50.08
3.24847	50.06
3.26513	50.05
3.28180	50.06
3.29847	50.07
3.31513	50.06
3.33180	50.06
3.34847	50.06
3.36513	50.06
3.38180	50.05
3.39847	50.05
3.41513	50.06
3.43180	50.06
3.44847	50.06
3.46513	50.07
3.48180	50.07
3.49847	50.08
3.51513	50.07
3.53180	50.07
3.54847	50.06
3.56513	50.06
3.58180	50.06
3.59847	50.06
3.61513	50.07
3.63180	50.07
3.64847	50.07
3.66513	50.08
3.68180	50.09
3.69847	50.08
3.71513	50.08
3.73180	50.07
3.74847	50.07
3.76513	50.07
3.78180	50.08
3.79847	50.08
3.81513	50.08
3.83180	50.07
3.84847	50.07
3.86513	50.07
3.88180	50.06
3.89847	50.06
3.91513	50.05
3.93180	50.06
3.94847	50.07
3.96513	50.07
3.98180	50.08
3.99847	50.08

[Status Trace (Injection Unit Temperature)]
Interval(msec)	1000
# of Points	240
Start Time(min)	0.015
End Time(min)	3.998
Intensity Units	
Intensity Multiplier	1
R.Time (min)	Intensity
0.01513	99.99
0.03180	99.99
0.04847	99.99
0.06513	99.99
0.08180	99.99
0.09847	99.99
0.11513	99.99
0.13180	99.99
0.14847	99.99
0.16513	99.99
0.18180	99.99
0.19847	99.99
0.21513	99.99
0.23180	99.99
0.24847	99.99
0.26513	99.99
0.28180	99.98
0.29847	99.99
0.31513	99.99
0.33180	99.99
0.34847	100.00
0.36513	99.99
0.38180	99.99
0.39847	99.99
0.41513	99.99
0.43180	99.99
0.44847	99.99
0.46513	99.99
0.48180	100.00
0.49847	99.99
0.51513	99.99
0.53180	99.98
0.54847	99.99
0.56513	99.99
0.58180	100.00
0.59847	99.99
0.61513	99.99
0.63180	99.99
0.64847	99.99
0.66513	99.99
0.68180	99.99
0.69847	99.99
0.71513	99.99
0.73180	99.99
0.74847	99.99
0.76513	99.99
0.78180	99.99
0.79847	99.99
0.81513	99.99
0.83180	99.99
0.84847	99.99
0.86513	99.99
0.88180	99.99
0.89847	99.99
0.91513	99.99
0.93180	99.99
0.94847	99.99
0.96513	99.99
0.98180	99.99
0.99847	99.98
1.01513	99.99
1.03180	99.98
1.04847	99.99
1.06513	99.99
1.08180	99.99
1.09847	99.99
1.11513	99.99
1.13180	99.98
1.14847	99.99
1.16513	99.99
1.18180	99.99
1.19847	99.99
1.21513	99.99
1.23180	99.99
1.24847	99.98
1.26513	99.99
1.28180	99.98
1.29847	99.99
1.31513	99.99
1.33180	99.98
1.34847	99.99
1.36513	99.99
1.38180	99.99
1.39847	99.99
1.41513	99.99
1.43180	99.99
1.44847	99.99
1.46513	99.99
1.48180	99.99
1.49847	99.99
1.51513	99.99
1.53180	99.99
1.54847	99.99
1.56513	99.99
1.58180	99.99
1.59847	99.99
1.61513	99.99
1.63180	99.99
1.64847	99.99
1.66513	99.99
1.68180	99.99
1.69847	99.98
1.71513	99.99
1.73180	99.99
1.74847	99.99
1.76513	99.99
1.78180	99.99
1.79847	99.99
1.81513	99.99
1.83180	99.98
1.84847	99.99
1.86513	99.99
1.88180	99.99
1.89847	99.99
1.91513	99.98
1.93180	99.98
1.94847	99.98
1.96513	99.98
1.98180	99.98
1.99847	99.98
2.01513	99.98
2.03180	99.98
2.04847	99.98
2.06513	99.98
2.08180	99.98
2.09847	99.98
2.11513	99.97
2.13180	99.98
2.14847	99.98
2.16513	99.98
2.18180	99.97
2.19847	99.98
2.21513	99.97
2.23180	99.97
2.24847	99.97
2.26513	99.97
2.28180	99.97
2.29847	99.97
2.31513	99.97
2.33180	99.97
2.34847	99.97
2.36513	99.97
2.38180	99.97
2.39847	99.97
2.41513	99.97
2.43180	99.97
2.44847	99.98
2.46513	99.97
2.48180	99.97
2.49847	99.98
2.51513	99.98
2.53180	99.97
2.54847	99.98
2.56513	99.97
2.58180	99.98
2.59847	99.99
2.61513	99.98
2.63180	99.98
2.64847	99.99
2.66513	99.99
2.68180	99.98
2.69847	99.99
2.71513	99.99
2.73180	99.99
2.74847	100.00
2.76513	100.00
2.78180	99.99
2.79847	100.00
2.81513	100.00
2.83180	100.00
2.84847	100.00
2.86513	100.01
2.88180	100.01
2.89847	100.01
2.91513	100.01
2.93180	100.01
2.94847	100.01
2.96513	100.01
2.98180	100.01
2.99847	100.02
3.01513	100.01
3.03180	100.02
3.04847	100.02
3.06513	100.02
3.08180	100.02
3.09847	100.02
3.11513	100.03
3.13180	100.02
3.14847	100.03
3.16513	100.03
3.18180	100.03
3.19847	100.03
3.21513	100.03
3.23180	100.03
3.24847	100.03
3.26513	100.03
3.28180	100.03
3.29847	100.03
3.31513	100.04
3.33180	100.03
3.34847	100.03
3.36513	100.04
3.38180	100.03
3.39847	100.04
3.41513	100.03
3.43180	100.04
3.44847	100.04
3.46513	100.03
3.48180	100.04
3.49847	100.04
3.51513	100.04
3.53180	100.04
3.54847	100.04
3.56513	100.04
3.58180	100.04
3.59847	100.04
3.61513	100.05
3.63180	100.04
3.64847	100.04
3.66513	100.05
3.68180	100.05
3.69847	100.05
3.71513	100.05
3.73180	100.05
3.74847	100.04
3.76513	100.05
3.78180	100.05
3.79847	100.05
3.81513	100.05
3.83180	100.05
3.84847	100.05
3.86513	100.05
3.88180	100.05
3.89847	100.05
3.91513	100.05
3.93180	100.05
3.94847	100.05
3.96513	100.05
3.98180	100.06
3.99847	100.05

[Status Trace (Carrier Gas Pressure)]
Interval(msec)	1000
# of Points	240
Start Time(min)	0.015
End Time(min)	3.998
Intensity Units	
Intensity Multiplier	1
R.Time (min)	Intensity
0.01513	57.11
0.03180	55.56
0.04847	57.98
0.06513	59.86
0.08180	58.77
0.09847	57.98
0.11513	58.00
0.13180	58.01
0.14847	58.01
0.16513	58.00
0.18180	58.00
0.19847	58.00
0.21513	58.00
0.23180	58.00
0.24847	58.00
0.26513	58.00
0.28180	58.00
0.29847	58.00
0.31513	58.00
0.33180	58.00
0.34847	58.00
0.36513	58.00
0.38180	58.00
0.39847	58.00
0.41513	58.00
0.43180	58.00
0.44847	58.00
0.46513	58.00
0.48180	58.00
0.49847	58.00
0.51513	58.00
0.53180	58.00
0.54847	58.00
0.56513	58.00
0.58180	58.00
0.59847	58.00
0.61513	58.00
0.63180	58.00
0.64847	58.00
0.66513	58.00
0.68180	58.00
0.69847	58.00
0.71513	58.00
0.73180	58.00
0.74847	58.00
0.76513	58.00
0.78180	58.00
0.79847	58.00
0.81513	58.00
0.83180	58.00
0.84847	58.00
0.86513	58.00
0.88180	58.00
0.89847	58.00
0.91513	58.00
0.93180	58.00
0.94847	58.00
0.96513	58.00
0.98180	58.00
0.99847	58.00
1.01513	58.00
1.03180	58.00
1.04847	58.00
1.06513	58.00
1.08180	58.00
1.09847	58.00
1.11513	58.00
1.13180	58.00
1.14847	58.00
1.16513	58.00
1.18180	58.00
1.19847	58.00
1.21513	58.00
1.23180	58.00
1.24847	58.00
1.26513	58.00
1.28180	58.00
1.29847	58.00
1.31513	58.00
1.33180	58.00
1.34847	58.00
1.36513	58.00
1.38180	58.00
1.39847	58.00
1.41513	58.00
1.43180	58.00
1.44847	58.00
1.46513	58.00
1.48180	58.00
1.49847	58.00
1.51513	58.00
1.53180	58.00
1.54847	58.00
1.56513	58.00
1.58180	58.00
1.59847	58.00
1.61513	58.00
1.63180	58.00
1.64847	58.01
1.66513	58.00
1.68180	58.01
1.69847	58.00
1.71513	58.00
1.73180	58.00
1.74847	58.00
1.76513	58.00
1.78180	58.00
1.79847	58.00
1.81513	58.00
1.83180	58.00
1.84847	58.00
1.86513	58.00
1.88180	58.00
1.89847	58.00
1.91513	58.00
1.93180	58.00
1.94847	58.00
1.96513	58.00
1.98180	58.00
1.99847	58.00
2.01513	58.00
2.03180	58.00
2.04847	58.00
2.06513	58.00
2.08180	58.00
2.09847	58.00
2.11513	58.00
2.13180	58.00
2.14847	58.00
2.16513	58.00
2.18180	58.00
2.19847	58.00
2.21513	58.00
2.23180	58.00
2.24847	58.00
2.26513	58.00
2.28180	58.00
2.29847	58.00
2.31513	58.00
2.33180	58.00
2.34847	58.00
2.36513	58.00
2.38180	58.00
2.39847	57.99
2.41513	58.00
2.43180	58.00
2.44847	58.00
2.46513	58.00
2.48180	58.00
2.49847	58.00
2.51513	57.99
2.53180	57.99
2.54847	58.00
2.56513	58.00
2.58180	58.00
2.59847	58.00
2.61513	58.00
2.63180	58.00
2.64847	58.00
2.66513	58.00
2.68180	58.00
2.69847	58.00
2.71513	58.00
2.73180	58.00
2.74847	58.00
2.76513	58.00
2.78180	58.00
2.79847	58.00
2.81513	58.00
2.83180	58.00
2.84847	58.00
2.86513	58.00
2.88180	58.00
2.89847	58.00
2.91513	58.00
2.93180	58.00
2.94847	58.00
2.96513	58.00
2.98180	58.00
2.99847	58.00
3.01513	58.00
3.03180	58.00
3.04847	58.00
3.06513	58.00
3.08180	58.00
3.09847	58.00
3.11513	58.00
3.13180	58.00
3.14847	58.00
3.16513	58.00
3.18180	58.00
3.19847	58.00
3.21513	58.00
3.23180	58.00
3.24847	58.00
3.26513	58.00
3.28180	58.00
3.29847	58.00
3.31513	58.00
3.33180	58.00
3.34847	58.00
3.36513	58.00
3.38180	58.00
3.39847	58.00
3.41513	58.00
3.43180	58.00
3.44847	58.00
3.46513	58.00
3.48180	58.00
3.49847	58.00
3.51513	58.00
3.53180	58.00
3.54847	58.00
3.56513	58.00
3.58180	58.00
3.59847	58.00
3.61513	58.00
3.63180	58.00
3.64847	58.00
3.66513	58.00
3.68180	58.00
3.69847	58.00
3.71513	58.00
3.73180	58.00
3.74847	58.00
3.76513	58.00
3.78180	58.00
3.79847	58.00
3.81513	58.00
3.83180	58.00
3.84847	58.00
3.86513	58.00
3.88180	58.00
3.89847	58.00
3.91513	58.00
3.93180	58.00
3.94847	58.00
3.96513	58.00
3.98180	58.00
3.99847	58.00

[Status Trace (Carrier Gas Flow)]
Interval(msec)	1000
# of Points	240
Start Time(min)	0.015
End Time(min)	3.998
Intensity Units	
Intensity Multiplier	1
R.Time (min)	Intensity
0.01513	33.92
0.03180	34.53
0.04847	34.55
0.06513	34.52
0.08180	34.49
0.09847	34.52
0.11513	34.52
0.13180	34.52
0.14847	34.52
0.16513	34.52
0.18180	34.52
0.19847	34.52
0.21513	34.52
0.23180	34.52
0.24847	34.52
0.26513	34.52
0.28180	34.52
0.29847	34.52
0.31513	34.52
0.33180	34.52
0.34847	34.52
0.36513	34.52
0.38180	34.52
0.39847	34.52
0.41513	34.52
0.43180	34.52
0.44847	34.52
0.46513	34.52
0.48180	34.52
0.49847	34.52
0.51513	34.52
0.53180	34.52
0.54847	34.52
0.56513	34.52
0.58180	34.52
0.59847	34.52
0.61513	34.52
0.63180	34.52
0.64847	34.52
0.66513	34.52
0.68180	34.52
0.69847	34.52
0.71513	34.52
0.73180	34.52
0.74847	34.52
0.76513	34.52
0.78180	34.52
0.79847	34.52
0.81513	34.52
0.83180	34.52
0.84847	34.52
0.86513	34.52
0.88180	34.52
0.89847	34.52
0.91513	34.52
0.93180	34.52
0.94847	34.52
0.96513	34.52
0.98180	34.52
0.99847	34.52
1.01513	34.52
1.03180	34.52
1.04847	34.52
1.06513	34.52
1.08180	34.52
1.09847	34.52
1.11513	34.52
1.13180	34.52
1.14847	34.52
1.16513	34.52
1.18180	34.52
1.19847	34.52
1.21513	34.52
1.23180	34.52
1.24847	34.52
1.26513	34.52
1.28180	34.52
1.29847	34.52
1.31513	34.52
1.33180	34.52
1.34847	34.52
1.36513	34.52
1.38180	34.52
1.39847	34.52
1.41513	34.52
1.43180	34.52
1.44847	34.52
1.46513	34.52
1.48180	34.52
1.49847	34.52
1.51513	34.52
1.53180	34.52
1.54847	34.52
1.56513	34.52
1.58180	34.52
1.59847	34.52
1.61513	34.52
1.63180	34.52
1.64847	34.52
1.66513	34.52
1.68180	34.52
1.69847	34.52
1.71513	34.52
1.73180	34.52
1.74847	34.52
1.76513	34.52
1.78180	34.52
1.79847	34.52
1.81513	34.52
1.83180	34.52
1.84847	34.52
1.86513	34.52
1.88180	34.52
1.89847	34.52
1.91513	34.52
1.93180	34.52
1.94847	34.52
1.96513	34.52
1.98180	34.52
1.99847	34.52
2.01513	34.52
2.03180	34.52
2.04847	34.52
2.06513	34.52
2.08180	34.52
2.09847	34.52
2.11513	34.52
2.13180	34.52
2.14847	34.52
2.16513	34.52
2.18180	34.52
2.19847	34.52
2.21513	34.52
2.23180	34.52
2.24847	34.52
2.26513	34.52
2.28180	34.52
2.29847	34.52
2.31513	34.52
2.33180	34.52
2.34847	34.52
2.36513	34.52
2.38180	34.52
2.39847	34.52
2.41513	34.52
2.43180	34.52
2.44847	34.52
2.46513	34.52
2.48180	34.52
2.49847	34.52
2.51513	34.52
2.53180	34.52
2.54847	34.52
2.56513	34.52
2.58180	34.52
2.59847	34.52
2.61513	34.52
2.63180	34.52
2.64847	34.53
2.66513	34.52
2.68180	34.52
2.69847	34.52
2.71513	34.51
2.73180	34.51
2.74847	34.52
2.76513	34.51
2.78180	34.52
2.79847	34.51
2.81513	34.51
2.83180	34.52
2.84847	34.51
2.86513	34.52
2.88180	34.51
2.89847	34.52
2.91513	34.51
2.93180	34.52
2.94847	34.52
2.96513	34.52
2.98180	34.52
2.99847	34.52
3.01513	34.52
3.03180	34.52
3.04847	34.52
3.06513	34.51
3.08180	34.52
3.09847	34.52
3.11513	34.52
3.13180	34.52
3.14847	34.52
3.16513	34.52
3.18180	34.52
3.19847	34.52
3.21513	34.52
3.23180	34.52
3.24847	34.52
3.26513	34.52
3.28180	34.52
3.29847	34.52
3.31513	34.52
3.33180	34.52
3.34847	34.52
3.36513	34.52
3.38180	34.52
3.39847	34.52
3.41513	34.52
3.43180	34.52
3.44847	34.52
3.46513	34.52
3.48180	34.52
3.49847	34.52
3.51513	34.52
3.53180	34.52
3.54847	34.52
3.56513	34.52
3.58180	34.52
3.59847	34.52
3.61513	34.52
3.63180	34.52
3.64847	34.52
3.66513	34.52
3.68180	34.52
3.69847	34.52
3.71513	34.52
3.73180	34.52
3.74847	34.52
3.76513	34.52
3.78180	34.52
3.79847	34.52
3.81513	34.52
3.83180	34.52
3.84847	34.52
3.86513	34.52
3.88180	34.52
3.89847	34.52
3.91513	34.52
3.93180	34.52
3.94847	34.52
3.96513	34.52
3.98180	34.52
3.99847	34.51

[Status Trace (Column Flow)]
Interval(msec)	1000
# of Points	240
Start Time(min)	0.015
End Time(min)	3.998
Intensity Units	
Intensity Multiplier	1
R.Time (min)	Intensity
0.01513	5.47
0.03180	5.29
0.04847	5.57
0.06513	5.79
0.08180	5.66
0.09847	5.57
0.11513	5.57
0.13180	5.58
0.14847	5.58
0.16513	5.58
0.18180	5.58
0.19847	5.58
0.21513	5.57
0.23180	5.57
0.24847	5.57
0.26513	5.57
0.28180	5.57
0.29847	5.57
0.31513	5.57
0.33180	5.57
0.34847	5.57
0.36513	5.57
0.38180	5.57
0.39847	5.57
0.41513	5.57
0.43180	5.58
0.44847	5.58
0.46513	5.58
0.48180	5.58
0.49847	5.58
0.51513	5.58
0.53180	5.57
0.54847	5.57
0.56513	5.57
0.58180	5.57
0.59847	5.57
0.61513	5.57
0.63180	5.57
0.64847	5.57
0.66513	5.57
0.68180	5.57
0.69847	5.57
0.71513	5.57
0.73180	5.57
0.74847	5.57
0.76513	5.57
0.78180	5.57
0.79847	5.57
0.81513	5.57
0.83180	5.57
0.84847	5.57
0.86513	5.57
0.88180	5.57
0.89847	5.57
0.91513	5.57
0.93180	5.57
0.94847	5.57
0.96513	5.57
0.98180	5.57
0.99847	5.57
1.01513	5.57
1.03180	5.57
1.04847	5.57
1.06513	5.57
1.08180	5.57
1.09847	5.57
1.11513	5.57
1.13180	5.57
1.14847	5.57
1.16513	5.57
1.18180	5.57
1.19847	5.57
1.21513	5.57
1.23180	5.57
1.24847	5.57
1.26513	5.57
1.28180	5.57
1.29847	5.57
1.31513	5.57
1.33180	5.57
1.34847	5.57
1.36513	5.57
1.38180	5.57
1.39847	5.57
1.41513	5.57
1.43180	5.57
1.44847	5.57
1.46513	5.57
1.48180	5.57
1.49847	5.57
1.51513	5.57
1.53180	5.57
1.54847	5.57
1.56513	5.57
1.58180	5.57
1.59847	5.57
1.61513	5.57
1.63180	5.57
1.64847	5.56
1.66513	5.55
1.68180	5.54
1.69847	5.53
1.71513	5.52
1.73180	5.51
1.74847	5.50
1.76513	5.49
1.78180	5.48
1.79847	5.46
1.81513	5.45
1.83180	5.45
1.84847	5.43
1.86513	5.42
1.88180	5.41
1.89847	5.40
1.91513	5.39
1.93180	5.38
1.94847	5.37
1.96513	5.36
1.98180	5.36
1.99847	5.34
2.01513	5.33
2.03180	5.33
2.04847	5.32
2.06513	5.31
2.08180	5.30
2.09847	5.29
2.11513	5.28
2.13180	5.27
2.14847	5.26
2.16513	5.25
2.18180	5.24
2.19847	5.23
2.21513	5.22
2.23180	5.21
2.24847	5.20
2.26513	5.19
2.28180	5.18
2.29847	5.17
2.31513	5.16
2.33180	5.16
2.34847	5.15
2.36513	5.14
2.38180	5.14
2.39847	5.14
2.41513	5.14
2.43180	5.14
2.44847	5.14
2.46513	5.13
2.48180	5.13
2.49847	5.13
2.51513	5.13
2.53180	5.13
2.54847	5.13
2.56513	5.13
2.58180	5.13
2.59847	5.13
2.61513	5.13
2.63180	5.13
2.64847	5.13
2.66513	5.13
2.68180	5.13
2.69847	5.13
2.71513	5.13
2.73180	5.13
2.74847	5.13
2.76513	5.13
2.78180	5.13
2.79847	5.13
2.81513	5.13
2.83180	5.13
2.84847	5.13
2.86513	5.13
2.88180	5.13
2.89847	5.13
2.91513	5.13
2.93180	5.13
2.94847	5.13
2.96513	5.13
2.98180	5.13
2.99847	5.13
3.01513	5.13
3.03180	5.13
3.04847	5.13
3.06513	5.12
3.08180	5.12
3.09847	5.12
3.11513	5.12
3.13180	5.12
3.14847	5.12
3.16513	5.12
3.18180	5.12
3.19847	5.12
3.21513	5.12
3.23180	5.12
3.24847	5.12
3.26513	5.12
3.28180	5.12
3.29847	5.12
3.31513	5.12
3.33180	5.12
3.34847	5.12
3.36513	5.12
3.38180	5.12
3.39847	5.12
3.41513	5.12
3.43180	5.12
3.44847	5.12
3.46513	5.12
3.48180	5.12
3.49847	5.12
3.51513	5.12
3.53180	5.12
3.54847	5.12
3.56513	5.12
3.58180	5.12
3.59847	5.12
3.61513	5.12
3.63180	5.12
3.64847	5.12
3.66513	5.12
3.68180	5.12
3.69847	5.12
3.71513	5.12
3.73180	5.12
3.74847	5.12
3.76513	5.12
3.78180	5.12
3.79847	5.12
3.81513	5.12
3.83180	5.12
3.84847	5.12
3.86513	5.12
3.88180	5.12
3.89847	5.12
3.91513	5.12
3.93180	5.12
3.94847	5.12
3.96513	5.12
3.98180	5.12
3.99847	5.12

[Status Trace (Linear Velocity)]
Interval(msec)	1000
# of Points	240
Start Time(min)	0.015
End Time(min)	3.998
Intensity Units	
Intensity Multiplier	1
R.Time (min)	Intensity
0.01513	38.44
0.03180	37.42
0.04847	39.02
0.06513	40.25
0.08180	39.53
0.09847	39.02
0.11513	39.03
0.13180	39.04
0.14847	39.04
0.16513	39.04
0.18180	39.04
0.19847	39.03
0.21513	39.03
0.23180	39.03
0.24847	39.03
0.26513	39.03
0.28180	39.03
0.29847	39.03
0.31513	39.03
0.33180	39.03
0.34847	39.03
0.36513	39.03
0.38180	39.03
0.39847	39.03
0.41513	39.03
0.43180	39.03
0.44847	39.03
0.46513	39.03
0.48180	39.03
0.49847	39.03
0.51513	39.03
0.53180	39.03
0.54847	39.03
0.56513	39.03
0.58180	39.03
0.59847	39.03
0.61513	39.03
0.63180	39.03
0.64847	39.03
0.66513	39.03
0.68180	39.03
0.69847	39.03
0.71513	39.03
0.73180	39.03
0.74847	39.03
0.76513	39.03
0.78180	39.03
0.79847	39.03
0.81513	39.03
0.83180	39.03
0.84847	39.03
0.86513	39.03
0.88180	39.03
0.89847	39.03
0.91513	39.03
0.93180	39.03
0.94847	39.03
0.96513	39.03
0.98180	39.03
0.99847	39.03
1.01513	39.03
1.03180	39.03
1.04847	39.03
1.06513	39.03
1.08180	39.03
1.09847	39.03
1.11513	39.03
1.13180	39.03
1.14847	39.03
1.16513	39.03
1.18180	39.03
1.19847	39.03
1.21513	39.03
1.23180	39.03
1.24847	39.03
1.26513	39.03
1.28180	39.03
1.29847	39.03
1.31513	39.03
1.33180	39.03
1.34847	39.03
1.36513	39.03
1.38180	39.03
1.39847	39.03
1.41513	39.03
1.43180	39.03
1.44847	39.03
1.46513	39.02
1.48180	39.02
1.49847	39.02
1.51513	39.03
1.53180	39.03
1.54847	39.03
1.56513	39.03
1.58180	39.03
1.59847	39.03
1.61513	39.02
1.63180	39.01
1.64847	38.98
1.66513	38.96
1.68180	38.93
1.69847	38.89
1.71513	38.85
1.73180	38.82
1.74847	38.79
1.76513	38.76
1.78180	38.73
1.79847	38.70
1.81513	38.67
1.83180	38.64
1.84847	38.60
1.86513	38.57
1.88180	38.54
1.89847	38.51
1.91513	38.48
1.93180	38.45
1.94847	38.42
1.96513	38.39
1.98180	38.36
1.99847	38.33
2.01513	38.30
2.03180	38.27
2.04847	38.24
2.06513	38.21
2.08180	38.18
2.09847	38.15
2.11513	38.12
2.13180	38.09
2.14847	38.06
2.16513	38.03
2.18180	38.00
2.19847	37.97
2.21513	37.94
2.23180	37.91
2.24847	37.88
2.26513	37.85
2.28180	37.83
2.29847	37.79
2.31513	37.76
2.33180	37.73
2.34847	37.71
2.36513	37.69
2.38180	37.67
2.39847	37.67
2.41513	37.67
2.43180	37.67
2.44847	37.67
2.46513	37.67
2.48180	37.67
2.49847	37.67
2.51513	37.66
2.53180	37.66
2.54847	37.67
2.56513	37.66
2.58180	37.66
2.59847	37.66
2.61513	37.66
2.63180	37.66
2.64847	37.66
2.66513	37.66
2.68180	37.66
2.69847	37.66
2.71513	37.66
2.73180	37.66
2.74847	37.66
2.76513	37.66
2.78180	37.66
2.79847	37.65
2.81513	37.65
2.83180	37.65
2.84847	37.65
2.86513	37.65
2.88180	37.65
2.89847	37.65
2.91513	37.65
2.93180	37.65
2.94847	37.65
2.96513	37.64
2.98180	37.64
2.99847	37.64
3.01513	37.64
3.03180	37.64
3.04847	37.64
3.06513	37.64
3.08180	37.64
3.09847	37.64
3.11513	37.64
3.13180	37.64
3.14847	37.64
3.16513	37.64
3.18180	37.64
3.19847	37.63
3.21513	37.64
3.23180	37.64
3.24847	37.64
3.26513	37.64
3.28180	37.64
3.29847	37.64
3.31513	37.64
3.33180	37.64
3.34847	37.64
3.36513	37.64
3.38180	37.64
3.39847	37.64
3.41513	37.64
3.43180	37.64
3.44847	37.64
3.46513	37.64
3.48180	37.64
3.49847	37.64
3.51513	37.64
3.53180	37.64
3.54847	37.64
3.56513	37.64
3.58180	37.64
3.59847	37.64
3.61513	37.64
3.63180	37.64
3.64847	37.64
3.66513	37.64
3.68180	37.64
3.69847	37.64
3.71513	37.64
3.73180	37.64
3.74847	37.64
3.76513	37.64
3.78180	37.64
3.79847	37.64
3.81513	37.64
3.83180	37.64
3.84847	37.64
3.86513	37.64
3.88180	37.64
3.89847	37.64
3.91513	37.64
3.93180	37.64
3.94847	37.64
3.96513	37.64
3.98180	37.64
3.99847	37.64

