[Header]
Application Name	LabSolutions
Version	5.110
Data File Name	C:\Users\User\Desktop\GC Analyses\Jack\UIC Prairie Sampling\7.22.22\220722_032.gcd
Output Date	10/5/2022
Output Time	2:13:39 PM

[File Information]
Type	Data File
Generated	9/28/2022 10:42:41 AM
Generated by	System Administrator
Modified	9/28/2022 10:47:05 AM
Modified by	System Administrator

[Sample Information]
Operator Name	System Administrator
Acquired	9/28/2022 10:43:04 AM
Sample Type	1:Standard
Level	1
Sample Name	220722_UICPrairie
Sample ID	220722_UICPrairie
ISTD Amount1	1
ISTD Amount2	1
ISTD Amount3	1
ISTD Amount4	1
ISTD Amount5	1
ISTD Amount6	1
ISTD Amount7	1
ISTD Amount8	1
ISTD Amount9	1
ISTD Amount10	1
ISTD Amount11	1
ISTD Amount12	1
ISTD Amount13	1
ISTD Amount14	1
ISTD Amount15	1
ISTD Amount16	1
ISTD Amount17	1
ISTD Amount18	1
ISTD Amount19	1
ISTD Amount20	1
ISTD Amount21	1
ISTD Amount22	1
ISTD Amount23	1
ISTD Amount24	1
ISTD Amount25	1
ISTD Amount26	1
ISTD Amount27	1
ISTD Amount28	1
ISTD Amount29	1
ISTD Amount30	1
ISTD Amount31	1
ISTD Amount32	1
Sample Amount	1
Dilution Factor	1
Vial#	1
Injection Volume	1
Injection Count	1
Bar Code	

[Original Files]
Data File	C:\Users\User\Desktop\GC Analyses\Jack\UIC Prairie Sampling\7.22.22\220722_032.gcd
Method File	C:\LabSolutions\Data\GHG_4min_2022\ghg3_togas_w_acet_4 min_new_int.gcm
Batch File	
Report Format File	c:\LabSolutions\System\DEFAULT.lsr

[File Description]


[Configuration]
Instrument Name	C0B7VH3-Instrument1
Instrument #	1
Line #	1
# of Detectors	3
Detector ID	DET#1	DET#2	DET#3
Detector Name	FID	PTCD	ECD
# of Channels	1	1	1

[Peak Table(Ch1)]
# of Peaks	3
Peak#	R.Time	I.Time	F.Time	Area	Height	A/H	Conc.	Mark	ID#	Name	k'	Plate #	Plate Ht.	Tailing	Resolution	Sep.Factor	Area Ratio	Height Ratio	Conc. %	Norm Conc.
1	1.472	1.439	1.534	5696	2181	2.612	100.000	   	1	CO	0.000	6255	23.982	1.440	0.000	0.000	0	0	16.667	16.667
2	1.571	1.534	1.644	21022	10484	2.005	100.000	 V 	2	CH4	0.067	11117	13.493	1.234	1.477	0.000	0	0	16.667	16.667
3	2.000	1.952	2.312	2193000	1060898	2.067	400.000	   	3	CO2	0.359	17153	8.745	1.226	7.110	5.333	0	0	66.667	66.667

[Peak Table(Ch2)]
# of Peaks	0

[Peak Table(Ch3)]
# of Peaks	3
Peak#	R.Time	I.Time	F.Time	Area	Height	A/H	Conc.	Mark	ID#	Name	k'	Plate #	Plate Ht.	Tailing	Resolution	Sep.Factor	Area Ratio	Height Ratio	Conc. %	Norm Conc.
1	2.444	1.223	2.645	27170	720	37.719	0.000	   			0.000	73	2045.388	0.583	0.000	0.000	0	0	0.000	0.000
2	2.884	2.656	3.346	65770	15383	4.276	1.000	   	1	N2O	0.180	12360	12.135	1.552	0.707	0.000	0	0	50.000	50.000
3	3.459	3.349	3.965	11152	550	20.270	1.000	   	2	SF6	0.416	688	217.987	2.760	1.824	2.308	0	0	50.000	50.000

[Compound Results(Ch1)]
# of IDs	6
ID#	Name	R.Time	Area	Height	Conc.	Curve	3rd	2nd	1st	Constant	Area Ratio	Height Ratio	Conc. %	Norm Conc.
1	CO	1.472	5696	2181	100.000	Linear	0.000000e+00	0.000000e+00	5.696021e+001	0.000000e+00	0	0	16.667	16.667
2	CH4	1.571	21022	10484	100.000	Linear	0.000000e+00	0.000000e+00	2.102246e+002	0.000000e+00	0	0	16.667	16.667
3	CO2	2.000	2193000	1060898	400.000	Linear	0.000000e+00	0.000000e+00	5.482499e+003	0.000000e+00	0	0	66.667	66.667
4	Ethylene	0.000	0	0	0.000	Linear	0.000000e+00	0.000000e+00	0.000000e+00	0.000000e+00	0	0	0.000	0.000
5	Acetylene	0.000	0	0	0.000	Linear	0.000000e+00	0.000000e+00	0.000000e+00	0.000000e+00	0	0	0.000	0.000
6	Ethane	0.000	0	0	0.000	Linear	0.000000e+00	0.000000e+00	0.000000e+00	0.000000e+00	0	0	0.000	0.000

[Compound Results(Ch2)]
# of IDs	5
ID#	Name	R.Time	Area	Height	Conc.	Curve	3rd	2nd	1st	Constant	Area Ratio	Height Ratio	Conc. %	Norm Conc.
1	Hydrogen	0.000	0	0	0.000	Linear	0.000000e+00	0.000000e+00	0.000000e+00	0.000000e+00	0	0	0.000	0.000
2	Oxygen	0.000	0	0	0.000	Linear	0.000000e+00	0.000000e+00	0.000000e+00	0.000000e+00	0	0	0.000	0.000
3	Nitrogen	0.000	0	0	0.000	Linear	0.000000e+00	0.000000e+00	0.000000e+00	0.000000e+00	0	0	0.000	0.000
4	Methane	0.000	0	0	0.000	Linear	0.000000e+00	0.000000e+00	0.000000e+00	0.000000e+00	0	0	0.000	0.000
5	Carbon Monoxide	0.000	0	0	0.000	Linear	0.000000e+00	0.000000e+00	0.000000e+00	0.000000e+00	0	0	0.000	0.000

[Compound Results(Ch3)]
# of IDs	2
ID#	Name	R.Time	Area	Height	Conc.	Curve	3rd	2nd	1st	Constant	Area Ratio	Height Ratio	Conc. %	Norm Conc.
1	N2O	2.884	65770	15383	1.000	Linear	0.000000e+00	0.000000e+00	6.577036e+004	0.000000e+00	0	0	50.000	50.000
2	SF6	3.459	11152	550	1.000	Linear	0.000000e+00	0.000000e+00	1.115193e+004	0.000000e+00	0	0	50.000	50.000

[Group Results(Ch1)]
# of Groups	0

[Group Results(Ch2)]
# of Groups	0

[Group Results(Ch3)]
# of Groups	0

[Chromatogram (Ch1)]
Interval(msec)	220
# of Points	1091
Start Time(min)	0.002
End Time(min)	3.998
R.Time (min)	Intensity
0.00167	21
0.00533	23
0.00900	20
0.01267	16
0.01633	14
0.02000	9
0.02367	6
0.02733	5
0.03100	8
0.03467	14
0.03833	19
0.04200	25
0.04567	28
0.04933	28
0.05300	26
0.05667	21
0.06033	16
0.06400	10
0.06767	6
0.07133	6
0.07500	11
0.07867	19
0.08233	25
0.08600	27
0.08967	29
0.09333	30
0.09700	33
0.10067	35
0.10433	37
0.10800	39
0.11167	41
0.11533	37
0.11900	26
0.12267	14
0.12633	6
0.13000	4
0.13367	6
0.13733	9
0.14100	9
0.14467	12
0.14833	16
0.15200	19
0.15567	21
0.15933	18
0.16300	11
0.16667	3
0.17033	-1
0.17400	2
0.17767	7
0.18133	12
0.18500	13
0.18867	9
0.19233	6
0.19600	5
0.19967	10
0.20333	19
0.20700	27
0.21067	34
0.21433	35
0.21800	34
0.22167	31
0.22533	30
0.22900	30
0.23267	28
0.23633	30
0.24000	32
0.24367	35
0.24733	38
0.25100	37
0.25467	31
0.25833	23
0.26200	15
0.26567	10
0.26933	4
0.27300	1
0.27667	0
0.28033	3
0.28400	7
0.28767	10
0.29133	12
0.29500	11
0.29867	11
0.30233	10
0.30600	10
0.30967	12
0.31333	16
0.31700	19
0.32067	21
0.32433	19
0.32800	14
0.33167	7
0.33533	0
0.33900	-5
0.34267	-5
0.34633	-0
0.35000	5
0.35367	6
0.35733	1
0.36100	-5
0.36467	-7
0.36833	-3
0.37200	2
0.37567	6
0.37933	11
0.38300	15
0.38667	19
0.39033	19
0.39400	19
0.39767	19
0.40133	19
0.40500	16
0.40867	13
0.41233	9
0.41600	5
0.41967	2
0.42333	2
0.42700	3
0.43067	4
0.43433	2
0.43800	-1
0.44167	-6
0.44533	-12
0.44900	-16
0.45267	-15
0.45633	-12
0.46000	-9
0.46367	-7
0.46733	-8
0.47100	-10
0.47467	-9
0.47833	-4
0.48200	3
0.48567	9
0.48933	8
0.49300	3
0.49667	2
0.50033	3
0.50400	6
0.50767	10
0.51133	9
0.51500	3
0.51867	-7
0.52233	-18
0.52600	-24
0.52967	-20
0.53333	-11
0.53700	-8
0.54067	-13
0.54433	-19
0.54800	-20
0.55167	-17
0.55533	-14
0.55900	-12
0.56267	-8
0.56633	-3
0.57000	1
0.57367	2
0.57733	2
0.58100	2
0.58467	2
0.58833	2
0.59200	1
0.59567	-1
0.59933	-3
0.60300	-6
0.60667	-10
0.61033	-16
0.61400	-20
0.61767	-21
0.62133	-18
0.62500	-11
0.62867	-4
0.63233	3
0.63600	8
0.63967	10
0.64333	10
0.64700	7
0.65067	3
0.65433	-2
0.65800	-9
0.66167	-15
0.66533	-20
0.66900	-21
0.67267	-22
0.67633	-19
0.68000	-15
0.68367	-9
0.68733	-3
0.69100	2
0.69467	4
0.69833	6
0.70200	7
0.70567	7
0.70933	3
0.71300	-0
0.71667	-1
0.72033	-0
0.72400	1
0.72767	-0
0.73133	-4
0.73500	-8
0.73867	-11
0.74233	-13
0.74600	-13
0.74967	-13
0.75333	-11
0.75700	-10
0.76067	-12
0.76433	-16
0.76800	-18
0.77167	-19
0.77533	-19
0.77900	-19
0.78267	-21
0.78633	-20
0.79000	-20
0.79367	-22
0.79733	-22
0.80100	-19
0.80467	-17
0.80833	-18
0.81200	-23
0.81567	-31
0.81933	-39
0.82300	-40
0.82667	-37
0.83033	-32
0.83400	-29
0.83767	-29
0.84133	-29
0.84500	-26
0.84867	-23
0.85233	-17
0.85600	-9
0.85967	-2
0.86333	-1
0.86700	-6
0.87067	-13
0.87433	-20
0.87800	-26
0.88167	-34
0.88533	-41
0.88900	-44
0.89267	-43
0.89633	-42
0.90000	-41
0.90367	-41
0.90733	-44
0.91100	-43
0.91467	-39
0.91833	-37
0.92200	-36
0.92567	-36
0.92933	-34
0.93300	-29
0.93667	-24
0.94033	-21
0.94400	-19
0.94767	-19
0.95133	-21
0.95500	-24
0.95867	-27
0.96233	-29
0.96600	-30
0.96967	-31
0.97333	-31
0.97700	-30
0.98067	-32
0.98433	-33
0.98800	-31
0.99167	-29
0.99533	-31
0.99900	-34
1.00267	-39
1.00633	-44
1.01000	-45
1.01367	-45
1.01733	-43
1.02100	-44
1.02467	-43
1.02833	-41
1.03200	-37
1.03567	-35
1.03933	-33
1.04300	-33
1.04667	-33
1.05033	-32
1.05400	-32
1.05767	-32
1.06133	-30
1.06500	-28
1.06867	-27
1.07233	-26
1.07600	-27
1.07967	-32
1.08333	-41
1.08700	-48
1.09067	-52
1.09433	-53
1.09800	-50
1.10167	-44
1.10533	-38
1.10900	-34
1.11267	-37
1.11633	-43
1.12000	-46
1.12367	-45
1.12733	-43
1.13100	-42
1.13467	-43
1.13833	-45
1.14200	-45
1.14567	-46
1.14933	-47
1.15300	-46
1.15667	-47
1.16033	-46
1.16400	-45
1.16767	-43
1.17133	-42
1.17500	-40
1.17867	-40
1.18233	-38
1.18600	-35
1.18967	-31
1.19333	-28
1.19700	-28
1.20067	-32
1.20433	-38
1.20800	-39
1.21167	-35
1.21533	-30
1.21900	-24
1.22267	-23
1.22633	-31
1.23000	-44
1.23367	-58
1.23733	-71
1.24100	-82
1.24467	-88
1.24833	-86
1.25200	-80
1.25567	-74
1.25933	-68
1.26300	-63
1.26667	-60
1.27033	-59
1.27400	-58
1.27767	-58
1.28133	-54
1.28500	-49
1.28867	-45
1.29233	-43
1.29600	-45
1.29967	-52
1.30333	-60
1.30700	-67
1.31067	-68
1.31433	-67
1.31800	-67
1.32167	-67
1.32533	-67
1.32900	-65
1.33267	-63
1.33633	-64
1.34000	-66
1.34367	-64
1.34733	-59
1.35100	-53
1.35467	-48
1.35833	-46
1.36200	-49
1.36567	-53
1.36933	-57
1.37300	-58
1.37667	-58
1.38033	-57
1.38400	-57
1.38767	-56
1.39133	-54
1.39500	-55
1.39867	-59
1.40233	-63
1.40600	-67
1.40967	-69
1.41333	-69
1.41700	-68
1.42067	-67
1.42433	-64
1.42800	-61
1.43167	-59
1.43533	-61
1.43900	-60
1.44267	-13
1.44633	172
1.45000	532
1.45367	974
1.45733	1390
1.46100	1721
1.46467	1947
1.46833	2074
1.47200	2116
1.47567	2082
1.47933	1980
1.48300	1823
1.48667	1622
1.49033	1393
1.49400	1154
1.49767	926
1.50133	722
1.50500	547
1.50867	402
1.51233	283
1.51600	186
1.51967	110
1.52333	53
1.52700	12
1.53067	-19
1.53433	-36
1.53800	-27
1.54167	83
1.54533	509
1.54900	1534
1.55267	3211
1.55633	5229
1.56000	7169
1.56367	8756
1.56733	9868
1.57100	10404
1.57467	10230
1.57833	9306
1.58200	7813
1.58567	6097
1.58933	4477
1.59300	3137
1.59667	2119
1.60033	1387
1.60400	881
1.60767	542
1.61133	323
1.61500	185
1.61867	99
1.62233	41
1.62600	-2
1.62967	-34
1.63333	-58
1.63700	-74
1.64067	-85
1.64433	-92
1.64800	-95
1.65167	-98
1.65533	-103
1.65900	-113
1.66267	-121
1.66633	-122
1.67000	-120
1.67367	-118
1.67733	-120
1.68100	-125
1.68467	-127
1.68833	-123
1.69200	-116
1.69567	-112
1.69933	-110
1.70300	-107
1.70667	-103
1.71033	-103
1.71400	-107
1.71767	-113
1.72133	-121
1.72500	-126
1.72867	-127
1.73233	-125
1.73600	-119
1.73967	-113
1.74333	-109
1.74700	-107
1.75067	-106
1.75433	-104
1.75800	-103
1.76167	-106
1.76533	-109
1.76900	-111
1.77267	-112
1.77633	-111
1.78000	-111
1.78367	-111
1.78733	-110
1.79100	-109
1.79467	-108
1.79833	-105
1.80200	-102
1.80567	-100
1.80933	-102
1.81300	-105
1.81667	-108
1.82033	-110
1.82400	-110
1.82767	-110
1.83133	-108
1.83500	-106
1.83867	-100
1.84233	-90
1.84600	-79
1.84967	-74
1.85333	-73
1.85700	-75
1.86067	-79
1.86433	-82
1.86800	-84
1.87167	-85
1.87533	-85
1.87900	-83
1.88267	-81
1.88633	-82
1.89000	-83
1.89367	-84
1.89733	-84
1.90100	-85
1.90467	-87
1.90833	-88
1.91200	-84
1.91567	-80
1.91933	-78
1.92300	-80
1.92667	-81
1.93033	-82
1.93400	-83
1.93767	-85
1.94133	-86
1.94500	-85
1.94867	-81
1.95233	-73
1.95600	-32
1.95967	240
1.96333	1758
1.96700	8264
1.97067	29508
1.97433	82959
1.97800	187239
1.98167	346821
1.98533	542779
1.98900	741176
1.99267	908213
1.99633	1019446
2.00000	1060859
2.00367	1029297
2.00733	933460
2.01100	793284
2.01467	634750
2.01833	481817
2.02200	350300
2.02567	246485
2.02933	169544
2.03300	115035
2.03667	77606
2.04033	52432
2.04400	35712
2.04767	24669
2.05133	17375
2.05500	12526
2.05867	9270
2.06233	7051
2.06600	5512
2.06967	4423
2.07333	3634
2.07700	3045
2.08067	2595
2.08433	2246
2.08800	1972
2.09167	1750
2.09533	1571
2.09900	1422
2.10267	1295
2.10633	1187
2.11000	1093
2.11367	1014
2.11733	949
2.12100	891
2.12467	840
2.12833	798
2.13200	763
2.13567	731
2.13933	696
2.14300	659
2.14667	623
2.15033	590
2.15400	561
2.15767	534
2.16133	515
2.16500	499
2.16867	481
2.17233	460
2.17600	438
2.17967	419
2.18333	403
2.18700	389
2.19067	378
2.19433	366
2.19800	353
2.20167	342
2.20533	337
2.20900	333
2.21267	328
2.21633	318
2.22000	307
2.22367	298
2.22733	287
2.23100	275
2.23467	264
2.23833	260
2.24200	261
2.24567	267
2.24933	272
2.25300	273
2.25667	270
2.26033	264
2.26400	256
2.26767	246
2.27133	236
2.27500	228
2.27867	219
2.28233	210
2.28600	204
2.28967	203
2.29333	203
2.29700	202
2.30067	197
2.30433	192
2.30800	188
2.31167	187
2.31533	187
2.31900	188
2.32267	188
2.32633	188
2.33000	187
2.33367	188
2.33733	188
2.34100	188
2.34467	187
2.34833	186
2.35200	183
2.35567	179
2.35933	177
2.36300	176
2.36667	175
2.37033	170
2.37400	162
2.37767	156
2.38133	153
2.38500	152
2.38867	148
2.39233	142
2.39600	140
2.39967	140
2.40333	141
2.40700	143
2.41067	146
2.41433	151
2.41800	153
2.42167	151
2.42533	148
2.42900	147
2.43267	146
2.43633	146
2.44000	145
2.44367	148
2.44733	155
2.45100	161
2.45467	163
2.45833	162
2.46200	158
2.46567	153
2.46933	149
2.47300	145
2.47667	143
2.48033	141
2.48400	139
2.48767	138
2.49133	136
2.49500	135
2.49867	136
2.50233	134
2.50600	129
2.50967	123
2.51333	119
2.51700	120
2.52067	122
2.52433	126
2.52800	129
2.53167	128
2.53533	123
2.53900	119
2.54267	115
2.54633	110
2.55000	105
2.55367	98
2.55733	94
2.56100	94
2.56467	96
2.56833	95
2.57200	92
2.57567	90
2.57933	91
2.58300	93
2.58667	97
2.59033	98
2.59400	96
2.59767	98
2.60133	103
2.60500	105
2.60867	105
2.61233	105
2.61600	104
2.61967	100
2.62333	97
2.62700	92
2.63067	88
2.63433	86
2.63800	83
2.64167	79
2.64533	77
2.64900	77
2.65267	78
2.65633	80
2.66000	80
2.66367	79
2.66733	79
2.67100	79
2.67467	77
2.67833	73
2.68200	71
2.68567	71
2.68933	70
2.69300	71
2.69667	72
2.70033	69
2.70400	62
2.70767	55
2.71133	46
2.71500	37
2.71867	32
2.72233	33
2.72600	34
2.72967	36
2.73333	40
2.73700	43
2.74067	46
2.74433	52
2.74800	61
2.75167	74
2.75533	85
2.75900	90
2.76267	87
2.76633	81
2.77000	75
2.77367	67
2.77733	56
2.78100	44
2.78467	34
2.78833	26
2.79200	23
2.79567	26
2.79933	31
2.80300	38
2.80667	44
2.81033	51
2.81400	57
2.81767	60
2.82133	62
2.82500	61
2.82867	61
2.83233	59
2.83600	55
2.83967	53
2.84333	49
2.84700	46
2.85067	46
2.85433	45
2.85800	42
2.86167	37
2.86533	33
2.86900	31
2.87267	33
2.87633	37
2.88000	41
2.88367	45
2.88733	44
2.89100	42
2.89467	43
2.89833	46
2.90200	49
2.90567	51
2.90933	52
2.91300	50
2.91667	46
2.92033	42
2.92400	42
2.92767	47
2.93133	51
2.93500	53
2.93867	56
2.94233	61
2.94600	66
2.94967	68
2.95333	69
2.95700	66
2.96067	58
2.96433	53
2.96800	50
2.97167	45
2.97533	43
2.97900	43
2.98267	42
2.98633	39
2.99000	35
2.99367	29
2.99733	22
3.00100	20
3.00467	22
3.00833	27
3.01200	31
3.01567	35
3.01933	39
3.02300	44
3.02667	45
3.03033	44
3.03400	45
3.03767	45
3.04133	42
3.04500	38
3.04867	37
3.05233	41
3.05600	46
3.05967	49
3.06333	48
3.06700	45
3.07067	43
3.07433	43
3.07800	44
3.08167	43
3.08533	41
3.08900	38
3.09267	36
3.09633	38
3.10000	40
3.10367	43
3.10733	46
3.11100	48
3.11467	49
3.11833	48
3.12200	48
3.12567	49
3.12933	49
3.13300	47
3.13667	42
3.14033	36
3.14400	30
3.14767	22
3.15133	16
3.15500	16
3.15867	20
3.16233	24
3.16600	26
3.16967	29
3.17333	30
3.17700	33
3.18067	36
3.18433	41
3.18800	44
3.19167	46
3.19533	45
3.19900	42
3.20267	35
3.20633	27
3.21000	22
3.21367	19
3.21733	21
3.22100	27
3.22467	31
3.22833	30
3.23200	28
3.23567	26
3.23933	24
3.24300	22
3.24667	26
3.25033	33
3.25400	37
3.25767	37
3.26133	35
3.26500	33
3.26867	33
3.27233	34
3.27600	33
3.27967	34
3.28333	34
3.28700	33
3.29067	32
3.29433	29
3.29800	26
3.30167	28
3.30533	30
3.30900	32
3.31267	36
3.31633	41
3.32000	45
3.32367	47
3.32733	48
3.33100	47
3.33467	47
3.33833	48
3.34200	46
3.34567	39
3.34933	30
3.35300	21
3.35667	15
3.36033	12
3.36400	11
3.36767	11
3.37133	12
3.37500	18
3.37867	27
3.38233	36
3.38600	38
3.38967	37
3.39333	37
3.39700	36
3.40067	34
3.40433	33
3.40800	31
3.41167	29
3.41533	28
3.41900	32
3.42267	35
3.42633	32
3.43000	27
3.43367	23
3.43733	22
3.44100	24
3.44467	28
3.44833	32
3.45200	32
3.45567	30
3.45933	25
3.46300	20
3.46667	16
3.47033	15
3.47400	14
3.47767	14
3.48133	14
3.48500	16
3.48867	19
3.49233	20
3.49600	23
3.49967	24
3.50333	21
3.50700	19
3.51067	20
3.51433	25
3.51800	32
3.52167	37
3.52533	40
3.52900	41
3.53267	42
3.53633	39
3.54000	31
3.54367	20
3.54733	12
3.55100	5
3.55467	1
3.55833	0
3.56200	4
3.56567	12
3.56933	18
3.57300	19
3.57667	20
3.58033	19
3.58400	20
3.58767	22
3.59133	24
3.59500	25
3.59867	28
3.60233	32
3.60600	33
3.60967	31
3.61333	28
3.61700	26
3.62067	25
3.62433	21
3.62800	17
3.63167	17
3.63533	17
3.63900	15
3.64267	13
3.64633	14
3.65000	16
3.65367	17
3.65733	20
3.66100	25
3.66467	31
3.66833	37
3.67200	41
3.67567	43
3.67933	43
3.68300	39
3.68667	32
3.69033	29
3.69400	30
3.69767	33
3.70133	40
3.70500	47
3.70867	50
3.71233	45
3.71600	33
3.71967	20
3.72333	8
3.72700	3
3.73067	5
3.73433	7
3.73800	8
3.74167	13
3.74533	20
3.74900	26
3.75267	30
3.75633	36
3.76000	44
3.76367	48
3.76733	47
3.77100	45
3.77467	42
3.77833	39
3.78200	37
3.78567	36
3.78933	38
3.79300	34
3.79667	24
3.80033	11
3.80400	-1
3.80767	-8
3.81133	-10
3.81500	-6
3.81867	-1
3.82233	2
3.82600	5
3.82967	10
3.83333	15
3.83700	19
3.84067	20
3.84433	21
3.84800	20
3.85167	18
3.85533	14
3.85900	12
3.86267	12
3.86633	15
3.87000	21
3.87367	26
3.87733	31
3.88100	36
3.88467	38
3.88833	37
3.89200	35
3.89567	35
3.89933	36
3.90300	39
3.90667	42
3.91033	43
3.91400	41
3.91767	38
3.92133	31
3.92500	20
3.92867	10
3.93233	3
3.93600	3
3.93967	6
3.94333	7
3.94700	5
3.95067	5
3.95433	7
3.95800	10
3.96167	15
3.96533	19
3.96900	23
3.97267	23
3.97633	24
3.98000	27
3.98367	32
3.98733	33
3.99100	30
3.99467	27
3.99833	28

[Chromatogram (Ch2)]
Interval(msec)	220
# of Points	1091
Start Time(min)	0.002
End Time(min)	3.998
R.Time (min)	Intensity
0.00167	0
0.00533	0
0.00900	0
0.01267	0
0.01633	-0
0.02000	-0
0.02367	0
0.02733	0
0.03100	0
0.03467	1
0.03833	1
0.04200	1
0.04567	1
0.04933	2
0.05300	2
0.05667	2
0.06033	2
0.06400	2
0.06767	2
0.07133	2
0.07500	2
0.07867	3
0.08233	3
0.08600	3
0.08967	4
0.09333	4
0.09700	5
0.10067	6
0.10433	6
0.10800	7
0.11167	7
0.11533	8
0.11900	8
0.12267	8
0.12633	8
0.13000	8
0.13367	8
0.13733	8
0.14100	8
0.14467	7
0.14833	7
0.15200	6
0.15567	6
0.15933	5
0.16300	4
0.16667	4
0.17033	3
0.17400	3
0.17767	2
0.18133	1
0.18500	0
0.18867	-0
0.19233	-1
0.19600	-1
0.19967	-2
0.20333	-2
0.20700	-2
0.21067	-1
0.21433	-1
0.21800	-1
0.22167	-1
0.22533	-0
0.22900	-0
0.23267	0
0.23633	1
0.24000	1
0.24367	2
0.24733	2
0.25100	2
0.25467	3
0.25833	3
0.26200	3
0.26567	3
0.26933	3
0.27300	3
0.27667	3
0.28033	3
0.28400	3
0.28767	3
0.29133	3
0.29500	3
0.29867	3
0.30233	3
0.30600	2
0.30967	2
0.31333	2
0.31700	2
0.32067	2
0.32433	2
0.32800	2
0.33167	2
0.33533	2
0.33900	2
0.34267	2
0.34633	2
0.35000	2
0.35367	2
0.35733	2
0.36100	2
0.36467	2
0.36833	2
0.37200	2
0.37567	2
0.37933	2
0.38300	2
0.38667	2
0.39033	1
0.39400	1
0.39767	0
0.40133	-0
0.40500	-0
0.40867	-0
0.41233	-0
0.41600	-0
0.41967	0
0.42333	0
0.42700	1
0.43067	1
0.43433	1
0.43800	2
0.44167	2
0.44533	3
0.44900	3
0.45267	3
0.45633	3
0.46000	3
0.46367	3
0.46733	3
0.47100	3
0.47467	3
0.47833	3
0.48200	3
0.48567	4
0.48933	4
0.49300	3
0.49667	3
0.50033	3
0.50400	2
0.50767	2
0.51133	2
0.51500	1
0.51867	1
0.52233	1
0.52600	1
0.52967	1
0.53333	1
0.53700	1
0.54067	1
0.54433	1
0.54800	2
0.55167	2
0.55533	1
0.55900	1
0.56267	1
0.56633	1
0.57000	1
0.57367	1
0.57733	1
0.58100	1
0.58467	1
0.58833	2
0.59200	2
0.59567	1
0.59933	1
0.60300	1
0.60667	1
0.61033	0
0.61400	-0
0.61767	-1
0.62133	-1
0.62500	-2
0.62867	-2
0.63233	-2
0.63600	-3
0.63967	-3
0.64333	-3
0.64700	-3
0.65067	-3
0.65433	-2
0.65800	-2
0.66167	-2
0.66533	-2
0.66900	-2
0.67267	-2
0.67633	-2
0.68000	-2
0.68367	-1
0.68733	-1
0.69100	-1
0.69467	-1
0.69833	-1
0.70200	-1
0.70567	-1
0.70933	-0
0.71300	-0
0.71667	0
0.72033	1
0.72400	1
0.72767	1
0.73133	1
0.73500	1
0.73867	1
0.74233	1
0.74600	1
0.74967	1
0.75333	1
0.75700	2
0.76067	2
0.76433	2
0.76800	2
0.77167	2
0.77533	2
0.77900	2
0.78267	2
0.78633	2
0.79000	2
0.79367	2
0.79733	2
0.80100	2
0.80467	2
0.80833	2
0.81200	1
0.81567	1
0.81933	1
0.82300	1
0.82667	1
0.83033	1
0.83400	1
0.83767	1
0.84133	1
0.84500	1
0.84867	1
0.85233	0
0.85600	0
0.85967	-0
0.86333	-0
0.86700	-1
0.87067	-1
0.87433	-2
0.87800	-2
0.88167	-3
0.88533	-3
0.88900	-3
0.89267	-2
0.89633	-2
0.90000	-2
0.90367	-1
0.90733	-1
0.91100	-1
0.91467	-0
0.91833	-0
0.92200	0
0.92567	1
0.92933	1
0.93300	1
0.93667	1
0.94033	1
0.94400	2
0.94767	2
0.95133	2
0.95500	1
0.95867	1
0.96233	1
0.96600	0
0.96967	0
0.97333	-0
0.97700	-0
0.98067	-1
0.98433	-1
0.98800	-1
0.99167	-1
0.99533	-1
0.99900	-1
1.00267	-1
1.00633	-2
1.01000	-2
1.01367	-2
1.01733	-2
1.02100	-2
1.02467	-1
1.02833	-1
1.03200	-1
1.03567	-0
1.03933	-0
1.04300	0
1.04667	0
1.05033	1
1.05400	1
1.05767	1
1.06133	1
1.06500	1
1.06867	1
1.07233	1
1.07600	1
1.07967	1
1.08333	1
1.08700	1
1.09067	1
1.09433	1
1.09800	1
1.10167	1
1.10533	1
1.10900	1
1.11267	1
1.11633	0
1.12000	0
1.12367	0
1.12733	0
1.13100	0
1.13467	1
1.13833	1
1.14200	1
1.14567	1
1.14933	1
1.15300	1
1.15667	1
1.16033	0
1.16400	0
1.16767	0
1.17133	0
1.17500	1
1.17867	1
1.18233	1
1.18600	1
1.18967	1
1.19333	1
1.19700	1
1.20067	1
1.20433	1
1.20800	0
1.21167	1
1.21533	1
1.21900	0
1.22267	0
1.22633	0
1.23000	0
1.23367	0
1.23733	-0
1.24100	-0
1.24467	-0
1.24833	-1
1.25200	-1
1.25567	-1
1.25933	-1
1.26300	-1
1.26667	-1
1.27033	-1
1.27400	-1
1.27767	-1
1.28133	-1
1.28500	-2
1.28867	-2
1.29233	-2
1.29600	-2
1.29967	-2
1.30333	-3
1.30700	-3
1.31067	-3
1.31433	-3
1.31800	-3
1.32167	-3
1.32533	-3
1.32900	-3
1.33267	-3
1.33633	-3
1.34000	-3
1.34367	-3
1.34733	-3
1.35100	-2
1.35467	-2
1.35833	-1
1.36200	-1
1.36567	-1
1.36933	-0
1.37300	0
1.37667	0
1.38033	1
1.38400	1
1.38767	1
1.39133	1
1.39500	1
1.39867	1
1.40233	1
1.40600	1
1.40967	1
1.41333	1
1.41700	1
1.42067	1
1.42433	1
1.42800	1
1.43167	1
1.43533	1
1.43900	1
1.44267	1
1.44633	1
1.45000	1
1.45367	1
1.45733	1
1.46100	1
1.46467	1
1.46833	1
1.47200	0
1.47567	0
1.47933	-0
1.48300	-1
1.48667	-1
1.49033	-1
1.49400	-1
1.49767	-1
1.50133	-1
1.50500	-2
1.50867	-2
1.51233	-2
1.51600	-2
1.51967	-2
1.52333	-2
1.52700	-3
1.53067	-3
1.53433	-4
1.53800	-4
1.54167	-4
1.54533	-4
1.54900	-5
1.55267	-5
1.55633	-5
1.56000	-5
1.56367	-5
1.56733	-5
1.57100	-4
1.57467	-4
1.57833	-4
1.58200	-3
1.58567	-3
1.58933	-3
1.59300	-3
1.59667	-3
1.60033	-3
1.60400	-4
1.60767	-5
1.61133	-6
1.61500	-8
1.61867	-10
1.62233	-12
1.62600	-15
1.62967	-18
1.63333	-21
1.63700	-24
1.64067	-28
1.64433	-31
1.64800	-35
1.65167	-38
1.65533	-42
1.65900	-45
1.66267	-49
1.66633	-53
1.67000	-57
1.67367	-62
1.67733	-66
1.68100	-71
1.68467	-76
1.68833	-81
1.69200	-86
1.69567	-90
1.69933	-94
1.70300	-98
1.70667	-101
1.71033	-104
1.71400	-106
1.71767	-107
1.72133	-109
1.72500	-110
1.72867	-111
1.73233	-112
1.73600	-113
1.73967	-113
1.74333	-114
1.74700	-115
1.75067	-116
1.75433	-116
1.75800	-117
1.76167	-118
1.76533	-119
1.76900	-120
1.77267	-120
1.77633	-121
1.78000	-121
1.78367	-120
1.78733	-120
1.79100	-119
1.79467	-118
1.79833	-118
1.80200	-118
1.80567	-118
1.80933	-118
1.81300	-119
1.81667	-120
1.82033	-120
1.82400	-120
1.82767	-120
1.83133	-120
1.83500	-120
1.83867	-121
1.84233	-121
1.84600	-121
1.84967	-122
1.85333	-122
1.85700	-122
1.86067	-122
1.86433	-122
1.86800	-122
1.87167	-122
1.87533	-122
1.87900	-122
1.88267	-122
1.88633	-122
1.89000	-121
1.89367	-121
1.89733	-120
1.90100	-119
1.90467	-119
1.90833	-118
1.91200	-118
1.91567	-118
1.91933	-118
1.92300	-119
1.92667	-119
1.93033	-119
1.93400	-119
1.93767	-119
1.94133	-119
1.94500	-118
1.94867	-118
1.95233	-118
1.95600	-117
1.95967	-117
1.96333	-116
1.96700	-116
1.97067	-116
1.97433	-116
1.97800	-116
1.98167	-116
1.98533	-116
1.98900	-116
1.99267	-116
1.99633	-117
2.00000	-117
2.00367	-117
2.00733	-117
2.01100	-117
2.01467	-116
2.01833	-116
2.02200	-115
2.02567	-116
2.02933	-116
2.03300	-116
2.03667	-116
2.04033	-116
2.04400	-115
2.04767	-115
2.05133	-114
2.05500	-113
2.05867	-113
2.06233	-112
2.06600	-112
2.06967	-111
2.07333	-110
2.07700	-110
2.08067	-109
2.08433	-109
2.08800	-108
2.09167	-108
2.09533	-107
2.09900	-107
2.10267	-107
2.10633	-107
2.11000	-106
2.11367	-106
2.11733	-106
2.12100	-105
2.12467	-105
2.12833	-104
2.13200	-103
2.13567	-103
2.13933	-102
2.14300	-102
2.14667	-102
2.15033	-102
2.15400	-101
2.15767	-101
2.16133	-101
2.16500	-101
2.16867	-101
2.17233	-101
2.17600	-101
2.17967	-100
2.18333	-100
2.18700	-99
2.19067	-99
2.19433	-98
2.19800	-99
2.20167	-99
2.20533	-99
2.20900	-99
2.21267	-99
2.21633	-99
2.22000	-99
2.22367	-98
2.22733	-98
2.23100	-97
2.23467	-97
2.23833	-96
2.24200	-96
2.24567	-95
2.24933	-95
2.25300	-94
2.25667	-94
2.26033	-94
2.26400	-94
2.26767	-94
2.27133	-93
2.27500	-93
2.27867	-92
2.28233	-91
2.28600	-91
2.28967	-91
2.29333	-90
2.29700	-90
2.30067	-90
2.30433	-90
2.30800	-89
2.31167	-89
2.31533	-88
2.31900	-87
2.32267	-87
2.32633	-86
2.33000	-86
2.33367	-85
2.33733	-85
2.34100	-84
2.34467	-84
2.34833	-84
2.35200	-84
2.35567	-85
2.35933	-86
2.36300	-87
2.36667	-88
2.37033	-88
2.37400	-87
2.37767	-85
2.38133	-82
2.38500	-79
2.38867	-75
2.39233	-70
2.39600	-65
2.39967	-60
2.40333	-54
2.40700	-49
2.41067	-44
2.41433	-39
2.41800	-35
2.42167	-31
2.42533	-28
2.42900	-24
2.43267	-21
2.43633	-17
2.44000	-15
2.44367	-12
2.44733	-10
2.45100	-9
2.45467	-7
2.45833	-6
2.46200	-4
2.46567	-3
2.46933	-1
2.47300	0
2.47667	1
2.48033	3
2.48400	4
2.48767	5
2.49133	5
2.49500	6
2.49867	7
2.50233	8
2.50600	9
2.50967	10
2.51333	11
2.51700	12
2.52067	12
2.52433	13
2.52800	13
2.53167	13
2.53533	13
2.53900	14
2.54267	14
2.54633	14
2.55000	14
2.55367	15
2.55733	16
2.56100	16
2.56467	17
2.56833	17
2.57200	17
2.57567	17
2.57933	17
2.58300	17
2.58667	18
2.59033	18
2.59400	18
2.59767	18
2.60133	18
2.60500	18
2.60867	18
2.61233	18
2.61600	18
2.61967	18
2.62333	18
2.62700	18
2.63067	19
2.63433	19
2.63800	20
2.64167	20
2.64533	21
2.64900	21
2.65267	21
2.65633	21
2.66000	20
2.66367	20
2.66733	21
2.67100	21
2.67467	21
2.67833	21
2.68200	22
2.68567	23
2.68933	23
2.69300	23
2.69667	24
2.70033	24
2.70400	25
2.70767	25
2.71133	25
2.71500	25
2.71867	24
2.72233	23
2.72600	23
2.72967	22
2.73333	22
2.73700	22
2.74067	21
2.74433	21
2.74800	21
2.75167	22
2.75533	22
2.75900	22
2.76267	23
2.76633	23
2.77000	23
2.77367	23
2.77733	23
2.78100	24
2.78467	24
2.78833	24
2.79200	24
2.79567	23
2.79933	23
2.80300	23
2.80667	23
2.81033	23
2.81400	23
2.81767	23
2.82133	23
2.82500	24
2.82867	24
2.83233	24
2.83600	24
2.83967	24
2.84333	24
2.84700	22
2.85067	20
2.85433	15
2.85800	8
2.86167	-2
2.86533	-17
2.86900	-36
2.87267	-60
2.87633	-89
2.88000	-123
2.88367	-163
2.88733	-208
2.89100	-258
2.89467	-313
2.89833	-371
2.90200	-434
2.90567	-501
2.90933	-571
2.91300	-644
2.91667	-719
2.92033	-796
2.92400	-876
2.92767	-958
2.93133	-1041
2.93500	-1127
2.93867	-1213
2.94233	-1301
2.94600	-1389
2.94967	-1470
2.95333	-1530
2.95700	-1559
2.96067	-1552
2.96433	-1511
2.96800	-1442
2.97167	-1351
2.97533	-1247
2.97900	-1136
2.98267	-1024
2.98633	-914
2.99000	-810
2.99367	-713
2.99733	-624
3.00100	-543
3.00467	-471
3.00833	-407
3.01200	-351
3.01567	-302
3.01933	-259
3.02300	-221
3.02667	-189
3.03033	-161
3.03400	-137
3.03767	-116
3.04133	-99
3.04500	-83
3.04867	-70
3.05233	-59
3.05600	-49
3.05967	-41
3.06333	-34
3.06700	-28
3.07067	-23
3.07433	-18
3.07800	-15
3.08167	-12
3.08533	-9
3.08900	-6
3.09267	-4
3.09633	-2
3.10000	-0
3.10367	1
3.10733	3
3.11100	4
3.11467	5
3.11833	6
3.12200	6
3.12567	7
3.12933	7
3.13300	7
3.13667	8
3.14033	8
3.14400	9
3.14767	9
3.15133	10
3.15500	11
3.15867	11
3.16233	12
3.16600	12
3.16967	12
3.17333	13
3.17700	13
3.18067	14
3.18433	14
3.18800	14
3.19167	15
3.19533	15
3.19900	15
3.20267	16
3.20633	16
3.21000	16
3.21367	17
3.21733	18
3.22100	18
3.22467	19
3.22833	20
3.23200	20
3.23567	21
3.23933	21
3.24300	22
3.24667	22
3.25033	22
3.25400	23
3.25767	23
3.26133	23
3.26500	24
3.26867	24
3.27233	24
3.27600	24
3.27967	24
3.28333	25
3.28700	25
3.29067	25
3.29433	25
3.29800	25
3.30167	25
3.30533	25
3.30900	25
3.31267	25
3.31633	25
3.32000	25
3.32367	25
3.32733	25
3.33100	26
3.33467	26
3.33833	26
3.34200	26
3.34567	26
3.34933	25
3.35300	25
3.35667	25
3.36033	25
3.36400	25
3.36767	25
3.37133	25
3.37500	25
3.37867	25
3.38233	25
3.38600	25
3.38967	25
3.39333	25
3.39700	25
3.40067	25
3.40433	25
3.40800	25
3.41167	25
3.41533	25
3.41900	25
3.42267	25
3.42633	25
3.43000	25
3.43367	25
3.43733	25
3.44100	25
3.44467	25
3.44833	25
3.45200	25
3.45567	25
3.45933	25
3.46300	26
3.46667	26
3.47033	26
3.47400	26
3.47767	26
3.48133	26
3.48500	25
3.48867	25
3.49233	25
3.49600	25
3.49967	25
3.50333	25
3.50700	25
3.51067	25
3.51433	25
3.51800	25
3.52167	25
3.52533	25
3.52900	25
3.53267	25
3.53633	25
3.54000	25
3.54367	25
3.54733	24
3.55100	24
3.55467	24
3.55833	24
3.56200	24
3.56567	24
3.56933	24
3.57300	24
3.57667	24
3.58033	24
3.58400	24
3.58767	24
3.59133	24
3.59500	24
3.59867	24
3.60233	24
3.60600	24
3.60967	24
3.61333	24
3.61700	25
3.62067	25
3.62433	25
3.62800	25
3.63167	25
3.63533	25
3.63900	25
3.64267	25
3.64633	24
3.65000	24
3.65367	24
3.65733	24
3.66100	24
3.66467	24
3.66833	24
3.67200	24
3.67567	24
3.67933	24
3.68300	24
3.68667	24
3.69033	24
3.69400	24
3.69767	24
3.70133	24
3.70500	24
3.70867	24
3.71233	24
3.71600	24
3.71967	24
3.72333	24
3.72700	25
3.73067	25
3.73433	25
3.73800	25
3.74167	26
3.74533	26
3.74900	25
3.75267	25
3.75633	25
3.76000	25
3.76367	25
3.76733	24
3.77100	24
3.77467	24
3.77833	24
3.78200	24
3.78567	24
3.78933	24
3.79300	24
3.79667	24
3.80033	24
3.80400	25
3.80767	25
3.81133	25
3.81500	25
3.81867	25
3.82233	25
3.82600	25
3.82967	25
3.83333	25
3.83700	25
3.84067	25
3.84433	25
3.84800	25
3.85167	25
3.85533	25
3.85900	25
3.86267	25
3.86633	25
3.87000	25
3.87367	25
3.87733	25
3.88100	25
3.88467	25
3.88833	25
3.89200	25
3.89567	25
3.89933	25
3.90300	25
3.90667	25
3.91033	25
3.91400	25
3.91767	25
3.92133	25
3.92500	25
3.92867	25
3.93233	25
3.93600	26
3.93967	26
3.94333	26
3.94700	26
3.95067	26
3.95433	26
3.95800	26
3.96167	26
3.96533	26
3.96900	25
3.97267	25
3.97633	25
3.98000	25
3.98367	26
3.98733	26
3.99100	26
3.99467	26
3.99833	26

[Chromatogram (Ch3)]
Interval(msec)	220
# of Points	1091
Start Time(min)	0.002
End Time(min)	3.998
R.Time (min)	Intensity
0.00167	1
0.00533	1
0.00900	1
0.01267	1
0.01633	1
0.02000	0
0.02367	-0
0.02733	-1
0.03100	-3
0.03467	-3
0.03833	1
0.04200	5
0.04567	7
0.04933	6
0.05300	3
0.05667	2
0.06033	2
0.06400	0
0.06767	-0
0.07133	-1
0.07500	-2
0.07867	-4
0.08233	-4
0.08600	-3
0.08967	-2
0.09333	-1
0.09700	-3
0.10067	-3
0.10433	-2
0.10800	1
0.11167	3
0.11533	3
0.11900	2
0.12267	3
0.12633	2
0.13000	-0
0.13367	-2
0.13733	-2
0.14100	-0
0.14467	3
0.14833	4
0.15200	5
0.15567	4
0.15933	3
0.16300	4
0.16667	3
0.17033	3
0.17400	4
0.17767	4
0.18133	1
0.18500	-1
0.18867	0
0.19233	1
0.19600	1
0.19967	1
0.20333	-0
0.20700	-1
0.21067	-3
0.21433	-3
0.21800	-1
0.22167	1
0.22533	1
0.22900	2
0.23267	1
0.23633	-1
0.24000	-3
0.24367	-5
0.24733	-3
0.25100	-2
0.25467	-1
0.25833	-2
0.26200	-5
0.26567	-6
0.26933	-4
0.27300	-1
0.27667	-1
0.28033	-2
0.28400	-4
0.28767	-4
0.29133	-4
0.29500	-5
0.29867	-4
0.30233	-3
0.30600	-4
0.30967	-6
0.31333	-7
0.31700	-4
0.32067	-2
0.32433	-0
0.32800	0
0.33167	0
0.33533	-1
0.33900	-2
0.34267	1
0.34633	2
0.35000	1
0.35367	-1
0.35733	-1
0.36100	1
0.36467	2
0.36833	0
0.37200	-3
0.37567	-3
0.37933	-4
0.38300	-3
0.38667	-2
0.39033	-0
0.39400	1
0.39767	2
0.40133	0
0.40500	-3
0.40867	-4
0.41233	-3
0.41600	-2
0.41967	-4
0.42333	-5
0.42700	-5
0.43067	-4
0.43433	-2
0.43800	-0
0.44167	-1
0.44533	-3
0.44900	-4
0.45267	-7
0.45633	-9
0.46000	-8
0.46367	-8
0.46733	-9
0.47100	-8
0.47467	-8
0.47833	-7
0.48200	-4
0.48567	-3
0.48933	-1
0.49300	-2
0.49667	-5
0.50033	-6
0.50400	-4
0.50767	-2
0.51133	-2
0.51500	-3
0.51867	-3
0.52233	-4
0.52600	-3
0.52967	-3
0.53333	-3
0.53700	-2
0.54067	-4
0.54433	-6
0.54800	-8
0.55167	-6
0.55533	-3
0.55900	-0
0.56267	2
0.56633	3
0.57000	1
0.57367	-1
0.57733	-2
0.58100	-3
0.58467	-3
0.58833	-2
0.59200	-2
0.59567	-3
0.59933	-3
0.60300	-5
0.60667	-6
0.61033	-3
0.61400	-2
0.61767	-2
0.62133	-3
0.62500	-3
0.62867	-3
0.63233	-3
0.63600	-4
0.63967	-4
0.64333	-4
0.64700	-2
0.65067	-2
0.65433	-2
0.65800	-1
0.66167	-1
0.66533	-4
0.66900	-5
0.67267	-6
0.67633	-6
0.68000	-4
0.68367	-2
0.68733	-1
0.69100	1
0.69467	3
0.69833	6
0.70200	7
0.70567	9
0.70933	10
0.71300	9
0.71667	9
0.72033	7
0.72400	5
0.72767	5
0.73133	7
0.73500	8
0.73867	9
0.74233	9
0.74600	8
0.74967	7
0.75333	6
0.75700	5
0.76067	5
0.76433	3
0.76800	2
0.77167	2
0.77533	2
0.77900	5
0.78267	7
0.78633	8
0.79000	9
0.79367	9
0.79733	7
0.80100	7
0.80467	5
0.80833	6
0.81200	9
0.81567	10
0.81933	9
0.82300	6
0.82667	2
0.83033	0
0.83400	0
0.83767	3
0.84133	6
0.84500	9
0.84867	11
0.85233	12
0.85600	14
0.85967	13
0.86333	13
0.86700	13
0.87067	14
0.87433	15
0.87800	12
0.88167	9
0.88533	7
0.88900	5
0.89267	5
0.89633	8
0.90000	9
0.90367	10
0.90733	7
0.91100	7
0.91467	6
0.91833	6
0.92200	8
0.92567	10
0.92933	10
0.93300	9
0.93667	10
0.94033	9
0.94400	11
0.94767	12
0.95133	11
0.95500	11
0.95867	11
0.96233	10
0.96600	10
0.96967	13
0.97333	14
0.97700	14
0.98067	14
0.98433	15
0.98800	15
0.99167	13
0.99533	13
0.99900	13
1.00267	13
1.00633	11
1.01000	10
1.01367	10
1.01733	12
1.02100	13
1.02467	15
1.02833	15
1.03200	16
1.03567	16
1.03933	16
1.04300	16
1.04667	16
1.05033	14
1.05400	14
1.05767	14
1.06133	15
1.06500	15
1.06867	13
1.07233	12
1.07600	12
1.07967	11
1.08333	10
1.08700	8
1.09067	9
1.09433	9
1.09800	9
1.10167	10
1.10533	11
1.10900	10
1.11267	9
1.11633	8
1.12000	8
1.12367	9
1.12733	10
1.13100	11
1.13467	13
1.13833	13
1.14200	13
1.14567	13
1.14933	15
1.15300	13
1.15667	11
1.16033	10
1.16400	10
1.16767	11
1.17133	13
1.17500	15
1.17867	14
1.18233	12
1.18600	12
1.18967	13
1.19333	15
1.19700	17
1.20067	17
1.20433	17
1.20800	18
1.21167	18
1.21533	17
1.21900	14
1.22267	13
1.22633	13
1.23000	14
1.23367	14
1.23733	14
1.24100	16
1.24467	18
1.24833	17
1.25200	16
1.25567	15
1.25933	14
1.26300	12
1.26667	11
1.27033	11
1.27400	12
1.27767	11
1.28133	9
1.28500	9
1.28867	13
1.29233	15
1.29600	16
1.29967	17
1.30333	19
1.30700	20
1.31067	20
1.31433	19
1.31800	19
1.32167	18
1.32533	16
1.32900	13
1.33267	11
1.33633	10
1.34000	12
1.34367	13
1.34733	14
1.35100	15
1.35467	15
1.35833	16
1.36200	17
1.36567	18
1.36933	18
1.37300	17
1.37667	16
1.38033	13
1.38400	13
1.38767	14
1.39133	12
1.39500	14
1.39867	16
1.40233	16
1.40600	14
1.40967	12
1.41333	11
1.41700	11
1.42067	9
1.42433	9
1.42800	9
1.43167	11
1.43533	13
1.43900	14
1.44267	14
1.44633	15
1.45000	15
1.45367	14
1.45733	15
1.46100	16
1.46467	14
1.46833	12
1.47200	14
1.47567	15
1.47933	15
1.48300	15
1.48667	13
1.49033	13
1.49400	13
1.49767	13
1.50133	12
1.50500	13
1.50867	14
1.51233	14
1.51600	12
1.51967	12
1.52333	12
1.52700	13
1.53067	14
1.53433	16
1.53800	19
1.54167	19
1.54533	18
1.54900	16
1.55267	15
1.55633	14
1.56000	14
1.56367	15
1.56733	17
1.57100	16
1.57467	17
1.57833	16
1.58200	17
1.58567	16
1.58933	17
1.59300	18
1.59667	18
1.60033	17
1.60400	15
1.60767	14
1.61133	14
1.61500	14
1.61867	14
1.62233	15
1.62600	16
1.62967	16
1.63333	18
1.63700	19
1.64067	19
1.64433	22
1.64800	22
1.65167	20
1.65533	22
1.65900	23
1.66267	22
1.66633	22
1.67000	22
1.67367	23
1.67733	24
1.68100	26
1.68467	27
1.68833	28
1.69200	29
1.69567	28
1.69933	25
1.70300	24
1.70667	25
1.71033	26
1.71400	27
1.71767	26
1.72133	25
1.72500	24
1.72867	27
1.73233	29
1.73600	31
1.73967	32
1.74333	34
1.74700	36
1.75067	38
1.75433	39
1.75800	40
1.76167	41
1.76533	40
1.76900	40
1.77267	40
1.77633	40
1.78000	40
1.78367	41
1.78733	42
1.79100	42
1.79467	43
1.79833	45
1.80200	49
1.80567	51
1.80933	52
1.81300	52
1.81667	54
1.82033	56
1.82400	57
1.82767	59
1.83133	60
1.83500	60
1.83867	59
1.84233	60
1.84600	60
1.84967	60
1.85333	58
1.85700	58
1.86067	59
1.86433	57
1.86800	59
1.87167	61
1.87533	64
1.87900	65
1.88267	64
1.88633	61
1.89000	60
1.89367	61
1.89733	61
1.90100	63
1.90467	65
1.90833	67
1.91200	67
1.91567	69
1.91933	70
1.92300	70
1.92667	71
1.93033	73
1.93400	75
1.93767	75
1.94133	74
1.94500	76
1.94867	78
1.95233	80
1.95600	82
1.95967	84
1.96333	84
1.96700	83
1.97067	80
1.97433	78
1.97800	81
1.98167	85
1.98533	89
1.98900	92
1.99267	95
1.99633	98
2.00000	100
2.00367	101
2.00733	101
2.01100	100
2.01467	100
2.01833	103
2.02200	105
2.02567	107
2.02933	109
2.03300	111
2.03667	113
2.04033	115
2.04400	115
2.04767	114
2.05133	115
2.05500	114
2.05867	113
2.06233	114
2.06600	117
2.06967	118
2.07333	119
2.07700	120
2.08067	121
2.08433	124
2.08800	125
2.09167	126
2.09533	130
2.09900	131
2.10267	129
2.10633	131
2.11000	133
2.11367	135
2.11733	135
2.12100	136
2.12467	138
2.12833	139
2.13200	138
2.13567	139
2.13933	141
2.14300	144
2.14667	148
2.15033	151
2.15400	152
2.15767	155
2.16133	157
2.16500	157
2.16867	158
2.17233	157
2.17600	157
2.17967	159
2.18333	159
2.18700	159
2.19067	161
2.19433	164
2.19800	166
2.20167	167
2.20533	169
2.20900	169
2.21267	170
2.21633	171
2.22000	173
2.22367	174
2.22733	175
2.23100	175
2.23467	176
2.23833	177
2.24200	178
2.24567	180
2.24933	180
2.25300	181
2.25667	181
2.26033	182
2.26400	182
2.26767	184
2.27133	187
2.27500	190
2.27867	191
2.28233	193
2.28600	197
2.28967	201
2.29333	202
2.29700	202
2.30067	200
2.30433	200
2.30800	202
2.31167	204
2.31533	207
2.31900	209
2.32267	210
2.32633	209
2.33000	211
2.33367	213
2.33733	214
2.34100	212
2.34467	211
2.34833	215
2.35200	218
2.35567	221
2.35933	224
2.36300	227
2.36667	229
2.37033	228
2.37400	228
2.37767	230
2.38133	232
2.38500	230
2.38867	231
2.39233	232
2.39600	233
2.39967	235
2.40333	237
2.40700	239
2.41067	241
2.41433	243
2.41800	243
2.42167	239
2.42533	236
2.42900	235
2.43267	239
2.43633	243
2.44000	246
2.44367	248
2.44733	241
2.45100	215
2.45467	181
2.45833	147
2.46200	115
2.46567	89
2.46933	66
2.47300	44
2.47667	26
2.48033	10
2.48400	-7
2.48767	-23
2.49133	-38
2.49500	-57
2.49867	-76
2.50233	-92
2.50600	-105
2.50967	-114
2.51333	-125
2.51700	-138
2.52067	-150
2.52433	-158
2.52800	-166
2.53167	-172
2.53533	-177
2.53900	-181
2.54267	-186
2.54633	-190
2.55000	-192
2.55367	-193
2.55733	-196
2.56100	-199
2.56467	-204
2.56833	-209
2.57200	-212
2.57567	-214
2.57933	-213
2.58300	-213
2.58667	-215
2.59033	-216
2.59400	-217
2.59767	-223
2.60133	-233
2.60500	-250
2.60867	-274
2.61233	-306
2.61600	-341
2.61967	-378
2.62333	-416
2.62700	-451
2.63067	-484
2.63433	-512
2.63800	-532
2.64167	-544
2.64533	-552
2.64900	-556
2.65267	-556
2.65633	-553
2.66000	-548
2.66367	-539
2.66733	-529
2.67100	-519
2.67467	-509
2.67833	-497
2.68200	-484
2.68567	-472
2.68933	-461
2.69300	-451
2.69667	-442
2.70033	-434
2.70400	-424
2.70767	-414
2.71133	-405
2.71500	-395
2.71867	-387
2.72233	-379
2.72600	-369
2.72967	-358
2.73333	-348
2.73700	-339
2.74067	-331
2.74433	-322
2.74800	-315
2.75167	-308
2.75533	-302
2.75900	-298
2.76267	-293
2.76633	-289
2.77000	-284
2.77367	-280
2.77733	-275
2.78100	-272
2.78467	-268
2.78833	-265
2.79200	-262
2.79567	-262
2.79933	-259
2.80300	-257
2.80667	-253
2.81033	-251
2.81400	-248
2.81767	-246
2.82133	-237
2.82500	-213
2.82867	-152
2.83233	-21
2.83600	233
2.83967	672
2.84333	1361
2.84700	2338
2.85067	3616
2.85433	5163
2.85800	6909
2.86167	8735
2.86533	10515
2.86900	12112
2.87267	13409
2.87633	14329
2.88000	14821
2.88367	14892
2.88733	14590
2.89100	13983
2.89467	13153
2.89833	12180
2.90200	11133
2.90567	10067
2.90933	9021
2.91300	8025
2.91667	7092
2.92033	6234
2.92400	5453
2.92767	4749
2.93133	4118
2.93500	3561
2.93867	3065
2.94233	2629
2.94600	2247
2.94967	1914
2.95333	1622
2.95700	1370
2.96067	1151
2.96433	960
2.96800	794
2.97167	649
2.97533	524
2.97900	417
2.98267	322
2.98633	240
2.99000	171
2.99367	111
2.99733	60
3.00100	19
3.00467	-17
3.00833	-49
3.01200	-76
3.01567	-100
3.01933	-121
3.02300	-139
3.02667	-154
3.03033	-167
3.03400	-178
3.03767	-188
3.04133	-195
3.04500	-202
3.04867	-209
3.05233	-215
3.05600	-220
3.05967	-223
3.06333	-224
3.06700	-225
3.07067	-227
3.07433	-229
3.07800	-231
3.08167	-233
3.08533	-236
3.08900	-238
3.09267	-239
3.09633	-238
3.10000	-239
3.10367	-239
3.10733	-241
3.11100	-241
3.11467	-242
3.11833	-241
3.12200	-239
3.12567	-238
3.12933	-236
3.13300	-236
3.13667	-240
3.14033	-244
3.14400	-247
3.14767	-250
3.15133	-252
3.15500	-250
3.15867	-248
3.16233	-248
3.16600	-246
3.16967	-242
3.17333	-240
3.17700	-238
3.18067	-239
3.18433	-242
3.18800	-242
3.19167	-242
3.19533	-244
3.19900	-244
3.20267	-244
3.20633	-243
3.21000	-241
3.21367	-241
3.21733	-242
3.22100	-245
3.22467	-246
3.22833	-244
3.23200	-244
3.23567	-244
3.23933	-242
3.24300	-241
3.24667	-240
3.25033	-239
3.25400	-238
3.25767	-237
3.26133	-236
3.26500	-237
3.26867	-238
3.27233	-237
3.27600	-234
3.27967	-232
3.28333	-232
3.28700	-232
3.29067	-230
3.29433	-228
3.29800	-228
3.30167	-230
3.30533	-232
3.30900	-233
3.31267	-232
3.31633	-231
3.32000	-233
3.32367	-235
3.32733	-237
3.33100	-239
3.33467	-247
3.33833	-286
3.34200	-337
3.34567	-363
3.34933	-359
3.35300	-332
3.35667	-290
3.36033	-243
3.36400	-196
3.36767	-151
3.37133	-109
3.37500	-69
3.37867	-35
3.38233	-5
3.38600	23
3.38967	46
3.39333	70
3.39700	89
3.40067	108
3.40433	128
3.40800	144
3.41167	158
3.41533	173
3.41900	185
3.42267	195
3.42633	207
3.43000	216
3.43367	222
3.43733	229
3.44100	239
3.44467	247
3.44833	254
3.45200	258
3.45567	263
3.45933	266
3.46300	269
3.46667	270
3.47033	271
3.47400	270
3.47767	270
3.48133	269
3.48500	269
3.48867	272
3.49233	275
3.49600	276
3.49967	276
3.50333	277
3.50700	277
3.51067	276
3.51433	275
3.51800	276
3.52167	276
3.52533	275
3.52900	275
3.53267	273
3.53633	271
3.54000	269
3.54367	266
3.54733	263
3.55100	261
3.55467	259
3.55833	258
3.56200	258
3.56567	257
3.56933	255
3.57300	252
3.57667	248
3.58033	242
3.58400	240
3.58767	239
3.59133	238
3.59500	237
3.59867	235
3.60233	234
3.60600	233
3.60967	231
3.61333	229
3.61700	226
3.62067	224
3.62433	222
3.62800	220
3.63167	216
3.63533	214
3.63900	213
3.64267	212
3.64633	209
3.65000	205
3.65367	201
3.65733	198
3.66100	193
3.66467	190
3.66833	188
3.67200	188
3.67567	184
3.67933	181
3.68300	179
3.68667	176
3.69033	173
3.69400	170
3.69767	167
3.70133	166
3.70500	166
3.70867	165
3.71233	163
3.71600	160
3.71967	158
3.72333	157
3.72700	158
3.73067	157
3.73433	154
3.73800	150
3.74167	148
3.74533	146
3.74900	146
3.75267	146
3.75633	143
3.76000	140
3.76367	138
3.76733	136
3.77100	133
3.77467	130
3.77833	127
3.78200	126
3.78567	126
3.78933	129
3.79300	132
3.79667	132
3.80033	130
3.80400	129
3.80767	127
3.81133	126
3.81500	123
3.81867	121
3.82233	116
3.82600	112
3.82967	110
3.83333	111
3.83700	111
3.84067	110
3.84433	111
3.84800	112
3.85167	112
3.85533	112
3.85900	108
3.86267	104
3.86633	100
3.87000	96
3.87367	93
3.87733	90
3.88100	88
3.88467	86
3.88833	86
3.89200	85
3.89567	86
3.89933	85
3.90300	82
3.90667	81
3.91033	83
3.91400	84
3.91767	83
3.92133	83
3.92500	84
3.92867	84
3.93233	82
3.93600	77
3.93967	71
3.94333	67
3.94700	66
3.95067	66
3.95433	66
3.95800	65
3.96167	63
3.96533	63
3.96900	62
3.97267	60
3.97633	60
3.98000	63
3.98367	62
3.98733	59
3.99100	57
3.99467	56
3.99833	57

[Status Trace (Column Oven Temperature)]
Interval(msec)	1000
# of Points	240
Start Time(min)	0.009
End Time(min)	3.992
Intensity Units	
Intensity Multiplier	1
R.Time (min)	Intensity
0.00897	35.06
0.02563	35.06
0.04230	35.06
0.05897	35.06
0.07563	35.06
0.09230	35.03
0.10897	35.01
0.12563	35.00
0.14230	34.99
0.15897	34.99
0.17563	35.00
0.19230	35.02
0.20897	35.02
0.22563	35.02
0.24230	35.02
0.25897	35.00
0.27563	35.01
0.29230	35.00
0.30897	34.99
0.32563	35.00
0.34230	35.00
0.35897	34.99
0.37563	34.99
0.39230	35.00
0.40897	35.00
0.42563	35.00
0.44230	34.99
0.45897	34.98
0.47563	34.96
0.49230	34.96
0.50897	34.96
0.52563	34.96
0.54230	34.96
0.55897	34.96
0.57563	34.96
0.59230	34.96
0.60897	34.98
0.62563	34.99
0.64230	35.00
0.65897	35.01
0.67563	35.01
0.69230	35.02
0.70897	35.02
0.72563	35.00
0.74230	35.00
0.75897	35.00
0.77563	34.99
0.79230	34.99
0.80897	34.98
0.82563	34.99
0.84230	34.98
0.85897	34.99
0.87563	35.00
0.89230	35.00
0.90897	34.99
0.92563	34.99
0.94230	34.99
0.95897	34.99
0.97563	35.00
0.99230	35.00
1.00897	35.00
1.02563	35.01
1.04230	35.00
1.05897	35.00
1.07563	34.99
1.09230	34.98
1.10897	34.98
1.12563	34.98
1.14230	34.98
1.15897	34.99
1.17563	34.98
1.19230	34.98
1.20897	34.98
1.22563	34.98
1.24230	34.98
1.25897	34.99
1.27563	34.99
1.29230	34.99
1.30897	35.01
1.32563	35.02
1.34230	35.02
1.35897	35.02
1.37563	35.01
1.39230	35.01
1.40897	35.00
1.42563	35.00
1.44230	35.00
1.45897	35.00
1.47563	35.01
1.49230	35.01
1.50897	35.02
1.52563	35.02
1.54230	35.05
1.55897	35.06
1.57563	35.06
1.59230	35.07
1.60897	35.11
1.62563	35.24
1.64230	35.41
1.65897	35.65
1.67563	35.97
1.69230	36.34
1.70897	36.69
1.72563	37.02
1.74230	37.36
1.75897	37.71
1.77563	38.04
1.79230	38.33
1.80897	38.67
1.82563	39.01
1.84230	39.35
1.85897	39.67
1.87563	40.01
1.89230	40.32
1.90897	40.63
1.92563	40.98
1.94230	41.30
1.95897	41.63
1.97563	41.95
1.99230	42.28
2.00897	42.61
2.02563	42.95
2.04230	43.28
2.05897	43.60
2.07563	43.92
2.09230	44.25
2.10897	44.58
2.12563	44.90
2.14230	45.22
2.15897	45.55
2.17563	45.88
2.19230	46.21
2.20897	46.55
2.22563	46.88
2.24230	47.20
2.25897	47.54
2.27563	47.85
2.29230	48.19
2.30897	48.51
2.32563	48.84
2.34230	49.14
2.35897	49.49
2.37563	49.71
2.39230	49.77
2.40897	49.78
2.42563	49.77
2.44230	49.78
2.45897	49.79
2.47563	49.79
2.49230	49.81
2.50897	49.79
2.52563	49.80
2.54230	49.83
2.55897	49.82
2.57563	49.83
2.59230	49.83
2.60897	49.85
2.62563	49.85
2.64230	49.85
2.65897	49.87
2.67563	49.86
2.69230	49.84
2.70897	49.85
2.72563	49.87
2.74230	49.89
2.75897	49.89
2.77563	49.89
2.79230	49.91
2.80897	49.91
2.82563	49.92
2.84230	49.93
2.85897	49.94
2.87563	49.95
2.89230	49.97
2.90897	49.99
2.92563	49.99
2.94230	50.00
2.95897	50.00
2.97563	50.00
2.99230	50.00
3.00897	50.01
3.02563	50.01
3.04230	50.03
3.05897	50.04
3.07563	50.05
3.09230	50.05
3.10897	50.06
3.12563	50.08
3.14230	50.08
3.15897	50.09
3.17563	50.10
3.19230	50.11
3.20897	50.11
3.22563	50.10
3.24230	50.07
3.25897	50.06
3.27563	50.05
3.29230	50.04
3.30897	50.02
3.32563	50.02
3.34230	50.01
3.35897	50.01
3.37563	50.01
3.39230	50.01
3.40897	50.01
3.42563	50.01
3.44230	50.01
3.45897	50.01
3.47563	50.01
3.49230	50.02
3.50897	50.02
3.52563	50.03
3.54230	50.03
3.55897	50.03
3.57563	50.04
3.59230	50.04
3.60897	50.05
3.62563	50.05
3.64230	50.06
3.65897	50.06
3.67563	50.07
3.69230	50.07
3.70897	50.07
3.72563	50.07
3.74230	50.06
3.75897	50.07
3.77563	50.08
3.79230	50.08
3.80897	50.08
3.82563	50.08
3.84230	50.09
3.85897	50.09
3.87563	50.08
3.89230	50.08
3.90897	50.07
3.92563	50.07
3.94230	50.07
3.95897	50.06
3.97563	50.05
3.99230	50.05

[Status Trace (Injection Unit Temperature)]
Interval(msec)	1000
# of Points	240
Start Time(min)	0.009
End Time(min)	3.992
Intensity Units	
Intensity Multiplier	1
R.Time (min)	Intensity
0.00897	99.98
0.02563	99.98
0.04230	99.98
0.05897	99.98
0.07563	99.98
0.09230	99.98
0.10897	99.98
0.12563	99.99
0.14230	99.98
0.15897	99.98
0.17563	99.98
0.19230	99.98
0.20897	99.98
0.22563	99.98
0.24230	99.98
0.25897	99.98
0.27563	99.99
0.29230	99.98
0.30897	99.98
0.32563	99.98
0.34230	99.98
0.35897	99.98
0.37563	99.99
0.39230	99.98
0.40897	99.98
0.42563	99.99
0.44230	99.98
0.45897	99.98
0.47563	99.98
0.49230	99.98
0.50897	99.98
0.52563	99.98
0.54230	99.98
0.55897	99.98
0.57563	99.98
0.59230	99.98
0.60897	99.98
0.62563	99.98
0.64230	99.98
0.65897	99.98
0.67563	99.98
0.69230	99.98
0.70897	99.98
0.72563	99.98
0.74230	99.98
0.75897	99.98
0.77563	99.98
0.79230	99.98
0.80897	99.98
0.82563	99.98
0.84230	99.99
0.85897	99.98
0.87563	99.98
0.89230	99.98
0.90897	99.98
0.92563	99.98
0.94230	99.98
0.95897	99.98
0.97563	99.99
0.99230	99.98
1.00897	99.98
1.02563	99.98
1.04230	99.98
1.05897	99.98
1.07563	99.98
1.09230	99.98
1.10897	99.98
1.12563	99.98
1.14230	99.98
1.15897	99.98
1.17563	99.99
1.19230	99.98
1.20897	99.98
1.22563	99.98
1.24230	99.99
1.25897	99.98
1.27563	99.99
1.29230	99.99
1.30897	99.98
1.32563	99.99
1.34230	99.99
1.35897	99.99
1.37563	99.98
1.39230	99.99
1.40897	99.98
1.42563	99.99
1.44230	99.99
1.45897	99.98
1.47563	99.99
1.49230	99.99
1.50897	99.98
1.52563	99.99
1.54230	99.99
1.55897	99.98
1.57563	99.98
1.59230	99.99
1.60897	99.98
1.62563	99.99
1.64230	99.98
1.65897	99.99
1.67563	99.98
1.69230	99.98
1.70897	99.99
1.72563	99.98
1.74230	99.98
1.75897	99.98
1.77563	99.99
1.79230	99.98
1.80897	99.98
1.82563	99.98
1.84230	99.98
1.85897	99.98
1.87563	99.98
1.89230	99.99
1.90897	99.98
1.92563	99.98
1.94230	99.98
1.95897	99.98
1.97563	99.98
1.99230	99.98
2.00897	99.98
2.02563	99.98
2.04230	99.98
2.05897	99.98
2.07563	99.98
2.09230	99.98
2.10897	99.98
2.12563	99.97
2.14230	99.98
2.15897	99.97
2.17563	99.97
2.19230	99.97
2.20897	99.97
2.22563	99.97
2.24230	99.97
2.25897	99.96
2.27563	99.97
2.29230	99.97
2.30897	99.97
2.32563	99.97
2.34230	99.97
2.35897	99.97
2.37563	99.97
2.39230	99.97
2.40897	99.97
2.42563	99.97
2.44230	99.97
2.45897	99.97
2.47563	99.97
2.49230	99.97
2.50897	99.97
2.52563	99.97
2.54230	99.97
2.55897	99.98
2.57563	99.97
2.59230	99.98
2.60897	99.98
2.62563	99.98
2.64230	99.98
2.65897	99.98
2.67563	99.98
2.69230	99.98
2.70897	99.98
2.72563	99.98
2.74230	99.99
2.75897	99.99
2.77563	99.99
2.79230	100.00
2.80897	99.99
2.82563	99.99
2.84230	100.00
2.85897	100.00
2.87563	100.00
2.89230	100.00
2.90897	100.00
2.92563	100.00
2.94230	100.01
2.95897	100.01
2.97563	100.01
2.99230	100.01
3.00897	100.01
3.02563	100.01
3.04230	100.02
3.05897	100.02
3.07563	100.02
3.09230	100.02
3.10897	100.02
3.12563	100.02
3.14230	100.02
3.15897	100.02
3.17563	100.02
3.19230	100.02
3.20897	100.03
3.22563	100.02
3.24230	100.03
3.25897	100.03
3.27563	100.03
3.29230	100.03
3.30897	100.03
3.32563	100.03
3.34230	100.03
3.35897	100.03
3.37563	100.04
3.39230	100.03
3.40897	100.04
3.42563	100.04
3.44230	100.03
3.45897	100.04
3.47563	100.03
3.49230	100.04
3.50897	100.04
3.52563	100.03
3.54230	100.04
3.55897	100.04
3.57563	100.04
3.59230	100.04
3.60897	100.04
3.62563	100.04
3.64230	100.04
3.65897	100.04
3.67563	100.04
3.69230	100.04
3.70897	100.04
3.72563	100.04
3.74230	100.04
3.75897	100.05
3.77563	100.05
3.79230	100.05
3.80897	100.04
3.82563	100.04
3.84230	100.04
3.85897	100.04
3.87563	100.05
3.89230	100.05
3.90897	100.05
3.92563	100.04
3.94230	100.05
3.95897	100.05
3.97563	100.04
3.99230	100.05

[Status Trace (Carrier Gas Pressure)]
Interval(msec)	1000
# of Points	240
Start Time(min)	0.009
End Time(min)	3.992
Intensity Units	
Intensity Multiplier	1
R.Time (min)	Intensity
0.00897	58.00
0.02563	55.22
0.04230	57.15
0.05897	59.30
0.07563	59.36
0.09230	58.07
0.10897	57.98
0.12563	58.01
0.14230	58.01
0.15897	58.01
0.17563	58.00
0.19230	58.00
0.20897	58.00
0.22563	58.00
0.24230	58.00
0.25897	58.00
0.27563	58.00
0.29230	58.00
0.30897	58.00
0.32563	58.00
0.34230	58.00
0.35897	58.00
0.37563	58.00
0.39230	58.00
0.40897	58.00
0.42563	58.00
0.44230	58.00
0.45897	58.00
0.47563	58.00
0.49230	58.00
0.50897	58.00
0.52563	58.00
0.54230	58.00
0.55897	58.00
0.57563	58.00
0.59230	58.00
0.60897	58.00
0.62563	58.00
0.64230	58.00
0.65897	58.00
0.67563	58.00
0.69230	58.00
0.70897	58.00
0.72563	58.00
0.74230	58.00
0.75897	58.00
0.77563	58.00
0.79230	58.00
0.80897	58.00
0.82563	58.00
0.84230	58.00
0.85897	58.00
0.87563	58.00
0.89230	58.00
0.90897	58.00
0.92563	58.00
0.94230	58.00
0.95897	58.00
0.97563	58.00
0.99230	58.00
1.00897	58.00
1.02563	58.00
1.04230	58.00
1.05897	58.00
1.07563	58.00
1.09230	58.00
1.10897	58.00
1.12563	58.00
1.14230	58.00
1.15897	58.00
1.17563	58.00
1.19230	58.00
1.20897	58.00
1.22563	58.00
1.24230	58.00
1.25897	58.00
1.27563	58.00
1.29230	58.00
1.30897	58.00
1.32563	58.00
1.34230	58.00
1.35897	58.00
1.37563	58.00
1.39230	58.00
1.40897	58.00
1.42563	58.00
1.44230	58.00
1.45897	58.00
1.47563	58.00
1.49230	58.00
1.50897	58.00
1.52563	58.00
1.54230	58.00
1.55897	58.00
1.57563	58.00
1.59230	58.00
1.60897	58.00
1.62563	58.00
1.64230	58.01
1.65897	58.00
1.67563	58.01
1.69230	58.01
1.70897	58.00
1.72563	58.00
1.74230	58.00
1.75897	58.00
1.77563	58.00
1.79230	58.00
1.80897	58.00
1.82563	58.00
1.84230	58.00
1.85897	58.00
1.87563	58.00
1.89230	58.00
1.90897	58.00
1.92563	58.00
1.94230	58.00
1.95897	58.00
1.97563	58.00
1.99230	58.00
2.00897	58.00
2.02563	58.00
2.04230	58.00
2.05897	58.00
2.07563	58.00
2.09230	58.00
2.10897	58.00
2.12563	58.00
2.14230	58.00
2.15897	58.00
2.17563	58.00
2.19230	58.00
2.20897	58.00
2.22563	58.00
2.24230	58.00
2.25897	58.00
2.27563	58.00
2.29230	58.00
2.30897	58.00
2.32563	58.00
2.34230	58.00
2.35897	58.00
2.37563	58.00
2.39230	57.99
2.40897	57.99
2.42563	58.00
2.44230	58.00
2.45897	58.00
2.47563	58.00
2.49230	58.00
2.50897	57.99
2.52563	57.98
2.54230	58.00
2.55897	58.00
2.57563	58.00
2.59230	58.00
2.60897	58.00
2.62563	58.00
2.64230	58.00
2.65897	58.00
2.67563	58.00
2.69230	58.00
2.70897	58.00
2.72563	58.00
2.74230	58.00
2.75897	58.00
2.77563	58.00
2.79230	58.00
2.80897	58.00
2.82563	58.00
2.84230	58.00
2.85897	58.00
2.87563	58.00
2.89230	58.00
2.90897	58.00
2.92563	58.00
2.94230	58.00
2.95897	58.00
2.97563	58.00
2.99230	58.00
3.00897	58.00
3.02563	58.00
3.04230	58.00
3.05897	58.00
3.07563	58.00
3.09230	58.00
3.10897	58.00
3.12563	58.00
3.14230	58.00
3.15897	58.00
3.17563	58.00
3.19230	58.00
3.20897	58.00
3.22563	58.00
3.24230	58.00
3.25897	58.00
3.27563	58.00
3.29230	58.00
3.30897	58.00
3.32563	58.00
3.34230	58.00
3.35897	58.00
3.37563	58.00
3.39230	58.00
3.40897	58.00
3.42563	58.00
3.44230	58.00
3.45897	58.00
3.47563	58.00
3.49230	58.00
3.50897	58.00
3.52563	58.00
3.54230	58.00
3.55897	58.00
3.57563	58.00
3.59230	58.00
3.60897	58.00
3.62563	58.00
3.64230	58.00
3.65897	58.00
3.67563	58.00
3.69230	58.00
3.70897	58.00
3.72563	58.00
3.74230	58.00
3.75897	58.00
3.77563	58.00
3.79230	58.00
3.80897	58.00
3.82563	58.00
3.84230	58.00
3.85897	58.00
3.87563	58.00
3.89230	58.00
3.90897	58.00
3.92563	58.00
3.94230	58.00
3.95897	58.00
3.97563	58.00
3.99230	58.00

[Status Trace (Carrier Gas Flow)]
Interval(msec)	1000
# of Points	240
Start Time(min)	0.009
End Time(min)	3.992
Intensity Units	
Intensity Multiplier	1
R.Time (min)	Intensity
0.00897	34.52
0.02563	34.52
0.04230	34.54
0.05897	34.55
0.07563	34.50
0.09230	34.52
0.10897	34.52
0.12563	34.52
0.14230	34.51
0.15897	34.52
0.17563	34.52
0.19230	34.52
0.20897	34.52
0.22563	34.52
0.24230	34.52
0.25897	34.52
0.27563	34.52
0.29230	34.52
0.30897	34.52
0.32563	34.52
0.34230	34.52
0.35897	34.52
0.37563	34.52
0.39230	34.52
0.40897	34.52
0.42563	34.52
0.44230	34.53
0.45897	34.52
0.47563	34.52
0.49230	34.52
0.50897	34.52
0.52563	34.51
0.54230	34.52
0.55897	34.51
0.57563	34.52
0.59230	34.51
0.60897	34.54
0.62563	34.52
0.64230	34.52
0.65897	34.51
0.67563	34.50
0.69230	34.52
0.70897	34.52
0.72563	34.51
0.74230	34.51
0.75897	34.52
0.77563	34.52
0.79230	34.52
0.80897	34.52
0.82563	34.52
0.84230	34.52
0.85897	34.52
0.87563	34.52
0.89230	34.52
0.90897	34.52
0.92563	34.52
0.94230	34.52
0.95897	34.52
0.97563	34.52
0.99230	34.50
1.00897	34.51
1.02563	34.52
1.04230	34.52
1.05897	34.52
1.07563	34.52
1.09230	34.52
1.10897	34.52
1.12563	34.52
1.14230	34.52
1.15897	34.52
1.17563	34.52
1.19230	34.52
1.20897	34.52
1.22563	34.52
1.24230	34.52
1.25897	34.52
1.27563	34.52
1.29230	34.52
1.30897	34.52
1.32563	34.52
1.34230	34.52
1.35897	34.52
1.37563	34.52
1.39230	34.52
1.40897	34.52
1.42563	34.52
1.44230	34.50
1.45897	34.52
1.47563	34.52
1.49230	34.52
1.50897	34.52
1.52563	34.52
1.54230	34.52
1.55897	34.52
1.57563	34.52
1.59230	34.52
1.60897	34.52
1.62563	34.52
1.64230	34.52
1.65897	34.52
1.67563	34.52
1.69230	34.52
1.70897	34.52
1.72563	34.52
1.74230	34.52
1.75897	34.52
1.77563	34.52
1.79230	34.52
1.80897	34.52
1.82563	34.52
1.84230	34.52
1.85897	34.52
1.87563	34.52
1.89230	34.52
1.90897	34.52
1.92563	34.52
1.94230	34.52
1.95897	34.52
1.97563	34.52
1.99230	34.51
2.00897	34.53
2.02563	34.54
2.04230	34.51
2.05897	34.51
2.07563	34.52
2.09230	34.52
2.10897	34.53
2.12563	34.52
2.14230	34.51
2.15897	34.51
2.17563	34.52
2.19230	34.51
2.20897	34.53
2.22563	34.52
2.24230	34.53
2.25897	34.52
2.27563	34.52
2.29230	34.52
2.30897	34.52
2.32563	34.52
2.34230	34.52
2.35897	34.52
2.37563	34.52
2.39230	34.52
2.40897	34.52
2.42563	34.52
2.44230	34.52
2.45897	34.52
2.47563	34.51
2.49230	34.50
2.50897	34.49
2.52563	34.52
2.54230	34.52
2.55897	34.51
2.57563	34.53
2.59230	34.53
2.60897	34.52
2.62563	34.52
2.64230	34.52
2.65897	34.52
2.67563	34.51
2.69230	34.52
2.70897	34.52
2.72563	34.52
2.74230	34.52
2.75897	34.52
2.77563	34.52
2.79230	34.52
2.80897	34.52
2.82563	34.52
2.84230	34.51
2.85897	34.52
2.87563	34.52
2.89230	34.52
2.90897	34.52
2.92563	34.52
2.94230	34.52
2.95897	34.52
2.97563	34.52
2.99230	34.52
3.00897	34.53
3.02563	34.51
3.04230	34.53
3.05897	34.52
3.07563	34.52
3.09230	34.52
3.10897	34.52
3.12563	34.52
3.14230	34.52
3.15897	34.52
3.17563	34.52
3.19230	34.52
3.20897	34.52
3.22563	34.52
3.24230	34.52
3.25897	34.52
3.27563	34.52
3.29230	34.52
3.30897	34.52
3.32563	34.52
3.34230	34.52
3.35897	34.52
3.37563	34.52
3.39230	34.52
3.40897	34.52
3.42563	34.52
3.44230	34.52
3.45897	34.52
3.47563	34.52
3.49230	34.51
3.50897	34.52
3.52563	34.52
3.54230	34.53
3.55897	34.52
3.57563	34.52
3.59230	34.52
3.60897	34.52
3.62563	34.52
3.64230	34.52
3.65897	34.52
3.67563	34.52
3.69230	34.52
3.70897	34.52
3.72563	34.52
3.74230	34.52
3.75897	34.54
3.77563	34.52
3.79230	34.52
3.80897	34.52
3.82563	34.52
3.84230	34.52
3.85897	34.52
3.87563	34.52
3.89230	34.52
3.90897	34.52
3.92563	34.52
3.94230	34.52
3.95897	34.52
3.97563	34.52
3.99230	34.52

[Status Trace (Column Flow)]
Interval(msec)	1000
# of Points	240
Start Time(min)	0.009
End Time(min)	3.992
Intensity Units	
Intensity Multiplier	1
R.Time (min)	Intensity
0.00897	5.57
0.02563	5.25
0.04230	5.47
0.05897	5.72
0.07563	5.73
0.09230	5.58
0.10897	5.57
0.12563	5.57
0.14230	5.57
0.15897	5.57
0.17563	5.57
0.19230	5.57
0.20897	5.57
0.22563	5.57
0.24230	5.57
0.25897	5.57
0.27563	5.57
0.29230	5.57
0.30897	5.57
0.32563	5.57
0.34230	5.57
0.35897	5.57
0.37563	5.57
0.39230	5.57
0.40897	5.57
0.42563	5.57
0.44230	5.57
0.45897	5.57
0.47563	5.57
0.49230	5.57
0.50897	5.57
0.52563	5.57
0.54230	5.57
0.55897	5.57
0.57563	5.57
0.59230	5.57
0.60897	5.57
0.62563	5.57
0.64230	5.57
0.65897	5.57
0.67563	5.57
0.69230	5.57
0.70897	5.57
0.72563	5.57
0.74230	5.57
0.75897	5.57
0.77563	5.57
0.79230	5.57
0.80897	5.57
0.82563	5.57
0.84230	5.57
0.85897	5.57
0.87563	5.57
0.89230	5.57
0.90897	5.57
0.92563	5.57
0.94230	5.57
0.95897	5.57
0.97563	5.57
0.99230	5.57
1.00897	5.57
1.02563	5.57
1.04230	5.57
1.05897	5.57
1.07563	5.57
1.09230	5.57
1.10897	5.57
1.12563	5.57
1.14230	5.57
1.15897	5.57
1.17563	5.57
1.19230	5.57
1.20897	5.57
1.22563	5.57
1.24230	5.57
1.25897	5.57
1.27563	5.57
1.29230	5.57
1.30897	5.57
1.32563	5.57
1.34230	5.57
1.35897	5.57
1.37563	5.57
1.39230	5.57
1.40897	5.57
1.42563	5.57
1.44230	5.57
1.45897	5.57
1.47563	5.57
1.49230	5.57
1.50897	5.57
1.52563	5.57
1.54230	5.57
1.55897	5.57
1.57563	5.57
1.59230	5.57
1.60897	5.57
1.62563	5.57
1.64230	5.56
1.65897	5.55
1.67563	5.54
1.69230	5.53
1.70897	5.52
1.72563	5.51
1.74230	5.50
1.75897	5.49
1.77563	5.48
1.79230	5.47
1.80897	5.46
1.82563	5.45
1.84230	5.44
1.85897	5.43
1.87563	5.42
1.89230	5.41
1.90897	5.40
1.92563	5.39
1.94230	5.38
1.95897	5.37
1.97563	5.36
1.99230	5.35
2.00897	5.34
2.02563	5.33
2.04230	5.32
2.05897	5.31
2.07563	5.30
2.09230	5.29
2.10897	5.28
2.12563	5.27
2.14230	5.26
2.15897	5.25
2.17563	5.24
2.19230	5.23
2.20897	5.22
2.22563	5.21
2.24230	5.21
2.25897	5.19
2.27563	5.19
2.29230	5.18
2.30897	5.17
2.32563	5.16
2.34230	5.15
2.35897	5.14
2.37563	5.13
2.39230	5.13
2.40897	5.13
2.42563	5.13
2.44230	5.13
2.45897	5.13
2.47563	5.13
2.49230	5.13
2.50897	5.13
2.52563	5.13
2.54230	5.13
2.55897	5.13
2.57563	5.13
2.59230	5.13
2.60897	5.13
2.62563	5.13
2.64230	5.13
2.65897	5.13
2.67563	5.13
2.69230	5.13
2.70897	5.13
2.72563	5.13
2.74230	5.13
2.75897	5.13
2.77563	5.13
2.79230	5.13
2.80897	5.13
2.82563	5.13
2.84230	5.13
2.85897	5.13
2.87563	5.13
2.89230	5.13
2.90897	5.13
2.92563	5.13
2.94230	5.13
2.95897	5.13
2.97563	5.13
2.99230	5.13
3.00897	5.13
3.02563	5.13
3.04230	5.12
3.05897	5.12
3.07563	5.12
3.09230	5.12
3.10897	5.12
3.12563	5.12
3.14230	5.12
3.15897	5.12
3.17563	5.12
3.19230	5.12
3.20897	5.12
3.22563	5.12
3.24230	5.12
3.25897	5.12
3.27563	5.12
3.29230	5.12
3.30897	5.12
3.32563	5.13
3.34230	5.13
3.35897	5.13
3.37563	5.13
3.39230	5.13
3.40897	5.13
3.42563	5.13
3.44230	5.13
3.45897	5.13
3.47563	5.13
3.49230	5.12
3.50897	5.12
3.52563	5.12
3.54230	5.12
3.55897	5.12
3.57563	5.12
3.59230	5.12
3.60897	5.12
3.62563	5.12
3.64230	5.12
3.65897	5.12
3.67563	5.12
3.69230	5.12
3.70897	5.12
3.72563	5.12
3.74230	5.12
3.75897	5.12
3.77563	5.12
3.79230	5.12
3.80897	5.12
3.82563	5.12
3.84230	5.12
3.85897	5.12
3.87563	5.12
3.89230	5.12
3.90897	5.12
3.92563	5.12
3.94230	5.12
3.95897	5.12
3.97563	5.12
3.99230	5.12

[Status Trace (Linear Velocity)]
Interval(msec)	1000
# of Points	240
Start Time(min)	0.009
End Time(min)	3.992
Intensity Units	
Intensity Multiplier	1
R.Time (min)	Intensity
0.00897	39.02
0.02563	37.20
0.04230	38.47
0.05897	39.87
0.07563	39.92
0.09230	39.07
0.10897	39.02
0.12563	39.04
0.14230	39.04
0.15897	39.03
0.17563	39.03
0.19230	39.03
0.20897	39.03
0.22563	39.03
0.24230	39.03
0.25897	39.03
0.27563	39.03
0.29230	39.03
0.30897	39.03
0.32563	39.03
0.34230	39.03
0.35897	39.03
0.37563	39.03
0.39230	39.03
0.40897	39.03
0.42563	39.03
0.44230	39.03
0.45897	39.03
0.47563	39.03
0.49230	39.03
0.50897	39.03
0.52563	39.03
0.54230	39.03
0.55897	39.03
0.57563	39.03
0.59230	39.03
0.60897	39.03
0.62563	39.03
0.64230	39.03
0.65897	39.03
0.67563	39.03
0.69230	39.03
0.70897	39.03
0.72563	39.03
0.74230	39.03
0.75897	39.03
0.77563	39.03
0.79230	39.03
0.80897	39.03
0.82563	39.03
0.84230	39.03
0.85897	39.03
0.87563	39.03
0.89230	39.03
0.90897	39.03
0.92563	39.03
0.94230	39.03
0.95897	39.03
0.97563	39.03
0.99230	39.03
1.00897	39.03
1.02563	39.03
1.04230	39.03
1.05897	39.03
1.07563	39.03
1.09230	39.03
1.10897	39.03
1.12563	39.03
1.14230	39.03
1.15897	39.03
1.17563	39.03
1.19230	39.03
1.20897	39.03
1.22563	39.03
1.24230	39.03
1.25897	39.03
1.27563	39.03
1.29230	39.03
1.30897	39.03
1.32563	39.03
1.34230	39.03
1.35897	39.03
1.37563	39.03
1.39230	39.03
1.40897	39.03
1.42563	39.03
1.44230	39.03
1.45897	39.03
1.47563	39.03
1.49230	39.03
1.50897	39.03
1.52563	39.03
1.54230	39.02
1.55897	39.02
1.57563	39.02
1.59230	39.02
1.60897	39.02
1.62563	39.01
1.64230	38.99
1.65897	38.97
1.67563	38.94
1.69230	38.91
1.70897	38.87
1.72563	38.84
1.74230	38.81
1.75897	38.77
1.77563	38.74
1.79230	38.71
1.80897	38.68
1.82563	38.65
1.84230	38.62
1.85897	38.59
1.87563	38.55
1.89230	38.53
1.90897	38.49
1.92563	38.46
1.94230	38.44
1.95897	38.40
1.97563	38.37
1.99230	38.34
2.00897	38.31
2.02563	38.28
2.04230	38.25
2.05897	38.22
2.07563	38.19
2.09230	38.16
2.10897	38.13
2.12563	38.10
2.14230	38.08
2.15897	38.04
2.17563	38.01
2.19230	37.99
2.20897	37.95
2.22563	37.92
2.24230	37.90
2.25897	37.86
2.27563	37.83
2.29230	37.81
2.30897	37.78
2.32563	37.75
2.34230	37.72
2.35897	37.69
2.37563	37.67
2.39230	37.66
2.40897	37.66
2.42563	37.66
2.44230	37.66
2.45897	37.66
2.47563	37.66
2.49230	37.66
2.50897	37.66
2.52563	37.65
2.54230	37.66
2.55897	37.66
2.57563	37.66
2.59230	37.66
2.60897	37.66
2.62563	37.66
2.64230	37.66
2.65897	37.66
2.67563	37.66
2.69230	37.66
2.70897	37.66
2.72563	37.66
2.74230	37.65
2.75897	37.65
2.77563	37.65
2.79230	37.65
2.80897	37.65
2.82563	37.65
2.84230	37.65
2.85897	37.65
2.87563	37.65
2.89230	37.65
2.90897	37.64
2.92563	37.64
2.94230	37.64
2.95897	37.64
2.97563	37.64
2.99230	37.64
3.00897	37.64
3.02563	37.64
3.04230	37.64
3.05897	37.64
3.07563	37.64
3.09230	37.64
3.10897	37.64
3.12563	37.64
3.14230	37.64
3.15897	37.64
3.17563	37.63
3.19230	37.63
3.20897	37.63
3.22563	37.64
3.24230	37.64
3.25897	37.64
3.27563	37.64
3.29230	37.64
3.30897	37.64
3.32563	37.64
3.34230	37.64
3.35897	37.64
3.37563	37.64
3.39230	37.64
3.40897	37.64
3.42563	37.64
3.44230	37.64
3.45897	37.64
3.47563	37.64
3.49230	37.64
3.50897	37.64
3.52563	37.64
3.54230	37.64
3.55897	37.64
3.57563	37.64
3.59230	37.64
3.60897	37.64
3.62563	37.64
3.64230	37.64
3.65897	37.64
3.67563	37.64
3.69230	37.64
3.70897	37.64
3.72563	37.64
3.74230	37.64
3.75897	37.64
3.77563	37.64
3.79230	37.64
3.80897	37.64
3.82563	37.64
3.84230	37.64
3.85897	37.64
3.87563	37.64
3.89230	37.64
3.90897	37.64
3.92563	37.64
3.94230	37.64
3.95897	37.64
3.97563	37.64
3.99230	37.64

