[Header]
Application Name	LabSolutions
Version	5.110
Data File Name	C:\Users\User\Desktop\GC Analyses\Jack\UIC Prairie Sampling\7.22.22\220722_081.gcd
Output Date	10/5/2022
Output Time	2:13:43 PM

[File Information]
Type	Data File
Generated	10/5/2022 10:34:07 AM
Generated by	System Administrator
Modified	10/5/2022 10:38:32 AM
Modified by	System Administrator

[Sample Information]
Operator Name	System Administrator
Acquired	10/5/2022 10:34:32 AM
Sample Type	1:Standard
Level	1
Sample Name	220722_UICPrairie
Sample ID	220722_UICPrairie
ISTD Amount1	1
ISTD Amount2	1
ISTD Amount3	1
ISTD Amount4	1
ISTD Amount5	1
ISTD Amount6	1
ISTD Amount7	1
ISTD Amount8	1
ISTD Amount9	1
ISTD Amount10	1
ISTD Amount11	1
ISTD Amount12	1
ISTD Amount13	1
ISTD Amount14	1
ISTD Amount15	1
ISTD Amount16	1
ISTD Amount17	1
ISTD Amount18	1
ISTD Amount19	1
ISTD Amount20	1
ISTD Amount21	1
ISTD Amount22	1
ISTD Amount23	1
ISTD Amount24	1
ISTD Amount25	1
ISTD Amount26	1
ISTD Amount27	1
ISTD Amount28	1
ISTD Amount29	1
ISTD Amount30	1
ISTD Amount31	1
ISTD Amount32	1
Sample Amount	1
Dilution Factor	1
Vial#	1
Injection Volume	1
Injection Count	1
Bar Code	

[Original Files]
Data File	C:\Users\User\Desktop\GC Analyses\Jack\UIC Prairie Sampling\7.22.22\220722_081.gcd
Method File	C:\LabSolutions\Data\GHG_4min_2022\ghg3_togas_w_acet_4 min_new_int.gcm
Batch File	
Report Format File	c:\LabSolutions\System\DEFAULT.lsr

[File Description]


[Configuration]
Instrument Name	C0B7VH3-Instrument1
Instrument #	1
Line #	1
# of Detectors	3
Detector ID	DET#1	DET#2	DET#3
Detector Name	FID	PTCD	ECD
# of Channels	1	1	1

[Peak Table(Ch1)]
# of Peaks	3
Peak#	R.Time	I.Time	F.Time	Area	Height	A/H	Conc.	Mark	ID#	Name	k'	Plate #	Plate Ht.	Tailing	Resolution	Sep.Factor	Area Ratio	Height Ratio	Conc. %	Norm Conc.
1	1.472	1.443	1.538	5593	2135	2.619	100.000	   	1	CO	0.000	6712	22.347	1.625	0.000	0.000	0	0	16.667	16.667
2	1.575	1.538	1.641	20482	10298	1.989	100.000	 V 	2	CH4	0.070	11468	13.080	1.128	1.571	0.000	0	0	16.667	16.667
3	2.004	1.952	2.257	2125303	1025797	2.072	400.000	   	3	CO2	0.361	17676	8.486	1.154	7.204	5.179	0	0	66.667	66.667

[Peak Table(Ch2)]
# of Peaks	0

[Peak Table(Ch3)]
# of Peaks	4
Peak#	R.Time	I.Time	F.Time	Area	Height	A/H	Conc.	Mark	ID#	Name	k'	Plate #	Plate Ht.	Tailing	Resolution	Sep.Factor	Area Ratio	Height Ratio	Conc. %	Norm Conc.
1	2.455	1.113	2.649	23528	644	36.556	0.000	   			0.000	119	1256.934	0.581	0.000	0.000	0	0	0.000	0.000
2	2.755	2.660	2.825	1660	239	6.935	0.030	   	1	N2O	0.122	2574	58.265	0.000	0.539	0.000	0	0	1.478	1.478
3	2.887	2.825	3.067	54477	14320	3.804	0.970	 V 	1	N2O	0.176	12922	11.608	1.493	0.828	1.439	0	0	48.522	48.522
4	3.294	3.184	3.962	16557	736	22.499	1.000	   	2	SF6	0.342	563	266.582	3.433	1.239	1.941	0	0	50.000	50.000

[Compound Results(Ch1)]
# of IDs	6
ID#	Name	R.Time	Area	Height	Conc.	Curve	3rd	2nd	1st	Constant	Area Ratio	Height Ratio	Conc. %	Norm Conc.
1	CO	1.472	5593	2135	100.000	Linear	0.000000e+00	0.000000e+00	5.592851e+001	0.000000e+00	0	0	16.667	16.667
2	CH4	1.575	20482	10298	100.000	Linear	0.000000e+00	0.000000e+00	2.048162e+002	0.000000e+00	0	0	16.667	16.667
3	CO2	2.004	2125303	1025797	400.000	Linear	0.000000e+00	0.000000e+00	5.313258e+003	0.000000e+00	0	0	66.667	66.667
4	Ethylene	0.000	0	0	0.000	Linear	0.000000e+00	0.000000e+00	0.000000e+00	0.000000e+00	0	0	0.000	0.000
5	Acetylene	0.000	0	0	0.000	Linear	0.000000e+00	0.000000e+00	0.000000e+00	0.000000e+00	0	0	0.000	0.000
6	Ethane	0.000	0	0	0.000	Linear	0.000000e+00	0.000000e+00	0.000000e+00	0.000000e+00	0	0	0.000	0.000

[Compound Results(Ch2)]
# of IDs	5
ID#	Name	R.Time	Area	Height	Conc.	Curve	3rd	2nd	1st	Constant	Area Ratio	Height Ratio	Conc. %	Norm Conc.
1	Hydrogen	0.000	0	0	0.000	Linear	0.000000e+00	0.000000e+00	0.000000e+00	0.000000e+00	0	0	0.000	0.000
2	Oxygen	0.000	0	0	0.000	Linear	0.000000e+00	0.000000e+00	0.000000e+00	0.000000e+00	0	0	0.000	0.000
3	Nitrogen	0.000	0	0	0.000	Linear	0.000000e+00	0.000000e+00	0.000000e+00	0.000000e+00	0	0	0.000	0.000
4	Methane	0.000	0	0	0.000	Linear	0.000000e+00	0.000000e+00	0.000000e+00	0.000000e+00	0	0	0.000	0.000
5	Carbon Monoxide	0.000	0	0	0.000	Linear	0.000000e+00	0.000000e+00	0.000000e+00	0.000000e+00	0	0	0.000	0.000

[Compound Results(Ch3)]
# of IDs	2
ID#	Name	R.Time	Area	Height	Conc.	Curve	3rd	2nd	1st	Constant	Area Ratio	Height Ratio	Conc. %	Norm Conc.
1	N2O	2.887	56137	14559	1.000	Linear	0.000000e+00	0.000000e+00	5.613725e+004	0.000000e+00	0	0	50.000	50.000
2	SF6	3.294	16557	736	1.000	Linear	0.000000e+00	0.000000e+00	1.655720e+004	0.000000e+00	0	0	50.000	50.000

[Group Results(Ch1)]
# of Groups	0

[Group Results(Ch2)]
# of Groups	0

[Group Results(Ch3)]
# of Groups	0

[Chromatogram (Ch1)]
Interval(msec)	220
# of Points	1091
Start Time(min)	0.002
End Time(min)	3.998
R.Time (min)	Intensity
0.00167	2
0.00533	-3
0.00900	-7
0.01267	-6
0.01633	-1
0.02000	4
0.02367	5
0.02733	1
0.03100	-2
0.03467	-5
0.03833	-10
0.04200	-16
0.04567	-21
0.04933	-23
0.05300	-21
0.05667	-17
0.06033	-15
0.06400	-12
0.06767	-8
0.07133	-3
0.07500	0
0.07867	3
0.08233	4
0.08600	4
0.08967	4
0.09333	8
0.09700	11
0.10067	10
0.10433	8
0.10800	5
0.11167	1
0.11533	-8
0.11900	-19
0.12267	-25
0.12633	-25
0.13000	-23
0.13367	-20
0.13733	-19
0.14100	-21
0.14467	-23
0.14833	-25
0.15200	-27
0.15567	-26
0.15933	-23
0.16300	-20
0.16667	-19
0.17033	-21
0.17400	-21
0.17767	-18
0.18133	-14
0.18500	-12
0.18867	-12
0.19233	-12
0.19600	-15
0.19967	-18
0.20333	-18
0.20700	-19
0.21067	-23
0.21433	-27
0.21800	-27
0.22167	-26
0.22533	-28
0.22900	-31
0.23267	-30
0.23633	-26
0.24000	-22
0.24367	-18
0.24733	-16
0.25100	-12
0.25467	-10
0.25833	-11
0.26200	-13
0.26567	-16
0.26933	-19
0.27300	-21
0.27667	-26
0.28033	-28
0.28400	-25
0.28767	-23
0.29133	-26
0.29500	-35
0.29867	-47
0.30233	-55
0.30600	-58
0.30967	-54
0.31333	-48
0.31700	-39
0.32067	-32
0.32433	-31
0.32800	-34
0.33167	-38
0.33533	-38
0.33900	-36
0.34267	-34
0.34633	-32
0.35000	-29
0.35367	-25
0.35733	-21
0.36100	-19
0.36467	-18
0.36833	-14
0.37200	-8
0.37567	-2
0.37933	-0
0.38300	1
0.38667	2
0.39033	1
0.39400	-3
0.39767	-9
0.40133	-14
0.40500	-18
0.40867	-21
0.41233	-25
0.41600	-28
0.41967	-28
0.42333	-26
0.42700	-23
0.43067	-25
0.43433	-33
0.43800	-44
0.44167	-51
0.44533	-56
0.44900	-56
0.45267	-51
0.45633	-45
0.46000	-41
0.46367	-37
0.46733	-32
0.47100	-29
0.47467	-27
0.47833	-27
0.48200	-27
0.48567	-28
0.48933	-28
0.49300	-30
0.49667	-35
0.50033	-42
0.50400	-50
0.50767	-55
0.51133	-55
0.51500	-53
0.51867	-48
0.52233	-43
0.52600	-39
0.52967	-38
0.53333	-40
0.53700	-43
0.54067	-45
0.54433	-47
0.54800	-48
0.55167	-50
0.55533	-46
0.55900	-41
0.56267	-38
0.56633	-39
0.57000	-41
0.57367	-43
0.57733	-45
0.58100	-46
0.58467	-45
0.58833	-44
0.59200	-45
0.59567	-49
0.59933	-52
0.60300	-55
0.60667	-58
0.61033	-58
0.61400	-57
0.61767	-55
0.62133	-53
0.62500	-46
0.62867	-36
0.63233	-30
0.63600	-28
0.63967	-30
0.64333	-34
0.64700	-40
0.65067	-48
0.65433	-54
0.65800	-55
0.66167	-53
0.66533	-52
0.66900	-51
0.67267	-50
0.67633	-48
0.68000	-47
0.68367	-42
0.68733	-34
0.69100	-27
0.69467	-21
0.69833	-14
0.70200	-8
0.70567	-6
0.70933	-4
0.71300	-4
0.71667	-6
0.72033	-8
0.72400	-10
0.72767	-12
0.73133	-16
0.73500	-16
0.73867	-15
0.74233	-15
0.74600	-16
0.74967	-14
0.75333	-11
0.75700	-8
0.76067	-4
0.76433	-3
0.76800	-3
0.77167	-6
0.77533	-9
0.77900	-10
0.78267	-12
0.78633	-13
0.79000	-15
0.79367	-14
0.79733	-8
0.80100	2
0.80467	12
0.80833	17
0.81200	17
0.81567	17
0.81933	16
0.82300	10
0.82667	-3
0.83033	-17
0.83400	-27
0.83767	-33
0.84133	-34
0.84500	-30
0.84867	-22
0.85233	-13
0.85600	-9
0.85967	-12
0.86333	-17
0.86700	-23
0.87067	-30
0.87433	-36
0.87800	-39
0.88167	-41
0.88533	-40
0.88900	-37
0.89267	-33
0.89633	-24
0.90000	-15
0.90367	-9
0.90733	-4
0.91100	-6
0.91467	-12
0.91833	-19
0.92200	-26
0.92567	-31
0.92933	-35
0.93300	-42
0.93667	-50
0.94033	-55
0.94400	-55
0.94767	-52
0.95133	-51
0.95500	-50
0.95867	-47
0.96233	-42
0.96600	-38
0.96967	-33
0.97333	-25
0.97700	-19
0.98067	-16
0.98433	-16
0.98800	-17
0.99167	-16
0.99533	-14
0.99900	-13
1.00267	-15
1.00633	-21
1.01000	-26
1.01367	-26
1.01733	-22
1.02100	-22
1.02467	-30
1.02833	-40
1.03200	-48
1.03567	-53
1.03933	-54
1.04300	-54
1.04667	-53
1.05033	-51
1.05400	-48
1.05767	-45
1.06133	-42
1.06500	-36
1.06867	-33
1.07233	-33
1.07600	-34
1.07967	-37
1.08333	-36
1.08700	-33
1.09067	-29
1.09433	-28
1.09800	-31
1.10167	-36
1.10533	-40
1.10900	-40
1.11267	-38
1.11633	-37
1.12000	-36
1.12367	-37
1.12733	-38
1.13100	-41
1.13467	-46
1.13833	-52
1.14200	-56
1.14567	-57
1.14933	-58
1.15300	-58
1.15667	-59
1.16033	-60
1.16400	-60
1.16767	-56
1.17133	-49
1.17500	-42
1.17867	-38
1.18233	-43
1.18600	-49
1.18967	-52
1.19333	-54
1.19700	-53
1.20067	-51
1.20433	-48
1.20800	-45
1.21167	-44
1.21533	-47
1.21900	-52
1.22267	-57
1.22633	-61
1.23000	-63
1.23367	-64
1.23733	-65
1.24100	-66
1.24467	-67
1.24833	-68
1.25200	-66
1.25567	-62
1.25933	-58
1.26300	-57
1.26667	-59
1.27033	-58
1.27400	-54
1.27767	-49
1.28133	-51
1.28500	-55
1.28867	-58
1.29233	-60
1.29600	-65
1.29967	-69
1.30333	-70
1.30700	-70
1.31067	-71
1.31433	-73
1.31800	-73
1.32167	-75
1.32533	-80
1.32900	-82
1.33267	-80
1.33633	-78
1.34000	-74
1.34367	-69
1.34733	-64
1.35100	-61
1.35467	-60
1.35833	-58
1.36200	-56
1.36567	-52
1.36933	-50
1.37300	-53
1.37667	-59
1.38033	-63
1.38400	-68
1.38767	-70
1.39133	-70
1.39500	-70
1.39867	-70
1.40233	-70
1.40600	-71
1.40967	-74
1.41333	-72
1.41700	-70
1.42067	-72
1.42433	-77
1.42800	-81
1.43167	-82
1.43533	-81
1.43900	-80
1.44267	-57
1.44633	58
1.45000	341
1.45367	760
1.45733	1199
1.46100	1572
1.46467	1843
1.46833	2008
1.47200	2080
1.47567	2073
1.47933	1999
1.48300	1870
1.48667	1690
1.49033	1473
1.49400	1237
1.49767	1001
1.50133	786
1.50500	599
1.50867	445
1.51233	324
1.51600	232
1.51967	165
1.52333	116
1.52700	80
1.53067	53
1.53433	35
1.53800	31
1.54167	76
1.54533	315
1.54900	1028
1.55267	2409
1.55633	4302
1.56000	6298
1.56367	8044
1.56733	9358
1.57100	10137
1.57467	10249
1.57833	9600
1.58200	8290
1.58567	6627
1.58933	4962
1.59300	3533
1.59667	2422
1.60033	1612
1.60400	1050
1.60767	670
1.61133	414
1.61500	243
1.61867	132
1.62233	63
1.62600	19
1.62967	-11
1.63333	-29
1.63700	-40
1.64067	-44
1.64433	-46
1.64800	-49
1.65167	-53
1.65533	-57
1.65900	-60
1.66267	-61
1.66633	-62
1.67000	-66
1.67367	-77
1.67733	-92
1.68100	-104
1.68467	-109
1.68833	-111
1.69200	-114
1.69567	-118
1.69933	-122
1.70300	-126
1.70667	-128
1.71033	-125
1.71400	-121
1.71767	-116
1.72133	-111
1.72500	-109
1.72867	-110
1.73233	-114
1.73600	-119
1.73967	-119
1.74333	-112
1.74700	-105
1.75067	-99
1.75433	-97
1.75800	-98
1.76167	-99
1.76533	-101
1.76900	-102
1.77267	-100
1.77633	-99
1.78000	-98
1.78367	-96
1.78733	-92
1.79100	-91
1.79467	-94
1.79833	-98
1.80200	-100
1.80567	-98
1.80933	-93
1.81300	-88
1.81667	-85
1.82033	-85
1.82400	-85
1.82767	-86
1.83133	-86
1.83500	-82
1.83867	-79
1.84233	-81
1.84600	-88
1.84967	-94
1.85333	-98
1.85700	-100
1.86067	-102
1.86433	-103
1.86800	-105
1.87167	-106
1.87533	-105
1.87900	-101
1.88267	-93
1.88633	-89
1.89000	-92
1.89367	-98
1.89733	-98
1.90100	-95
1.90467	-90
1.90833	-85
1.91200	-81
1.91567	-79
1.91933	-75
1.92300	-72
1.92667	-69
1.93033	-64
1.93400	-60
1.93767	-61
1.94133	-63
1.94500	-63
1.94867	-62
1.95233	-58
1.95600	-37
1.95967	77
1.96333	739
1.96700	3965
1.97067	16026
1.97433	50582
1.97800	126971
1.98167	258270
1.98533	436900
1.98900	634852
1.99267	816744
1.99633	953277
2.00000	1025657
2.00367	1025801
2.00733	956820
2.01100	834467
2.01467	683300
2.01833	528869
2.02200	390487
2.02567	277931
2.02933	192680
2.03300	131355
2.03667	88814
2.04033	60017
2.04400	40812
2.04767	28097
2.05133	19694
2.05500	14116
2.05867	10379
2.06233	7837
2.06600	6079
2.06967	4844
2.07333	3956
2.07700	3300
2.08067	2805
2.08433	2420
2.08800	2118
2.09167	1876
2.09533	1678
2.09900	1516
2.10267	1384
2.10633	1274
2.11000	1179
2.11367	1096
2.11733	1020
2.12100	952
2.12467	894
2.12833	843
2.13200	799
2.13567	762
2.13933	729
2.14300	695
2.14667	660
2.15033	626
2.15400	598
2.15767	573
2.16133	551
2.16500	533
2.16867	518
2.17233	508
2.17600	495
2.17967	481
2.18333	466
2.18700	451
2.19067	439
2.19433	429
2.19800	415
2.20167	402
2.20533	389
2.20900	378
2.21267	370
2.21633	365
2.22000	358
2.22367	345
2.22733	331
2.23100	320
2.23467	312
2.23833	306
2.24200	300
2.24567	298
2.24933	298
2.25300	301
2.25667	303
2.26033	302
2.26400	299
2.26767	294
2.27133	292
2.27500	293
2.27867	290
2.28233	286
2.28600	279
2.28967	271
2.29333	264
2.29700	257
2.30067	251
2.30433	250
2.30800	252
2.31167	254
2.31533	255
2.31900	252
2.32267	247
2.32633	243
2.33000	238
2.33367	234
2.33733	231
2.34100	228
2.34467	223
2.34833	222
2.35200	227
2.35567	234
2.35933	237
2.36300	234
2.36667	229
2.37033	224
2.37400	222
2.37767	222
2.38133	222
2.38500	220
2.38867	220
2.39233	219
2.39600	219
2.39967	219
2.40333	224
2.40700	232
2.41067	239
2.41433	239
2.41800	234
2.42167	229
2.42533	223
2.42900	215
2.43267	208
2.43633	205
2.44000	207
2.44367	210
2.44733	215
2.45100	223
2.45467	231
2.45833	236
2.46200	235
2.46567	229
2.46933	222
2.47300	217
2.47667	211
2.48033	203
2.48400	196
2.48767	191
2.49133	189
2.49500	189
2.49867	192
2.50233	196
2.50600	199
2.50967	201
2.51333	202
2.51700	201
2.52067	197
2.52433	194
2.52800	193
2.53167	197
2.53533	205
2.53900	210
2.54267	212
2.54633	210
2.55000	206
2.55367	200
2.55733	195
2.56100	193
2.56467	195
2.56833	197
2.57200	197
2.57567	193
2.57933	186
2.58300	177
2.58667	171
2.59033	167
2.59400	164
2.59767	163
2.60133	166
2.60500	171
2.60867	172
2.61233	172
2.61600	172
2.61967	173
2.62333	174
2.62700	172
2.63067	170
2.63433	172
2.63800	175
2.64167	176
2.64533	173
2.64900	165
2.65267	156
2.65633	151
2.66000	152
2.66367	153
2.66733	152
2.67100	150
2.67467	149
2.67833	148
2.68200	147
2.68567	148
2.68933	154
2.69300	161
2.69667	167
2.70033	169
2.70400	170
2.70767	170
2.71133	172
2.71500	170
2.71867	163
2.72233	154
2.72600	144
2.72967	134
2.73333	127
2.73700	124
2.74067	126
2.74433	133
2.74800	140
2.75167	145
2.75533	149
2.75900	152
2.76267	151
2.76633	146
2.77000	140
2.77367	136
2.77733	133
2.78100	130
2.78467	129
2.78833	130
2.79200	134
2.79567	141
2.79933	147
2.80300	151
2.80667	155
2.81033	157
2.81400	154
2.81767	147
2.82133	142
2.82500	138
2.82867	135
2.83233	133
2.83600	133
2.83967	135
2.84333	141
2.84700	145
2.85067	143
2.85433	139
2.85800	136
2.86167	137
2.86533	138
2.86900	141
2.87267	145
2.87633	144
2.88000	139
2.88367	131
2.88733	124
2.89100	120
2.89467	120
2.89833	121
2.90200	121
2.90567	123
2.90933	127
2.91300	130
2.91667	133
2.92033	133
2.92400	130
2.92767	127
2.93133	124
2.93500	122
2.93867	120
2.94233	120
2.94600	122
2.94967	125
2.95333	128
2.95700	133
2.96067	138
2.96433	143
2.96800	147
2.97167	147
2.97533	145
2.97900	143
2.98267	140
2.98633	135
2.99000	130
2.99367	127
2.99733	127
3.00100	129
3.00467	131
3.00833	135
3.01200	140
3.01567	143
3.01933	140
3.02300	133
3.02667	126
3.03033	123
3.03400	123
3.03767	125
3.04133	127
3.04500	129
3.04867	131
3.05233	134
3.05600	139
3.05967	139
3.06333	138
3.06700	136
3.07067	133
3.07433	131
3.07800	129
3.08167	126
3.08533	123
3.08900	119
3.09267	119
3.09633	121
3.10000	121
3.10367	120
3.10733	117
3.11100	113
3.11467	105
3.11833	97
3.12200	98
3.12567	108
3.12933	120
3.13300	129
3.13667	132
3.14033	131
3.14400	130
3.14767	126
3.15133	124
3.15500	125
3.15867	125
3.16233	120
3.16600	113
3.16967	104
3.17333	97
3.17700	97
3.18067	101
3.18433	108
3.18800	115
3.19167	117
3.19533	118
3.19900	119
3.20267	119
3.20633	118
3.21000	115
3.21367	115
3.21733	117
3.22100	121
3.22467	123
3.22833	120
3.23200	118
3.23567	117
3.23933	117
3.24300	121
3.24667	123
3.25033	122
3.25400	121
3.25767	120
3.26133	120
3.26500	119
3.26867	113
3.27233	105
3.27600	101
3.27967	100
3.28333	100
3.28700	103
3.29067	107
3.29433	111
3.29800	115
3.30167	119
3.30533	125
3.30900	130
3.31267	132
3.31633	129
3.32000	120
3.32367	107
3.32733	99
3.33100	95
3.33467	93
3.33833	91
3.34200	92
3.34567	100
3.34933	114
3.35300	126
3.35667	133
3.36033	133
3.36400	127
3.36767	116
3.37133	103
3.37500	92
3.37867	88
3.38233	89
3.38600	95
3.38967	104
3.39333	113
3.39700	122
3.40067	125
3.40433	122
3.40800	113
3.41167	106
3.41533	103
3.41900	103
3.42267	104
3.42633	104
3.43000	103
3.43367	99
3.43733	94
3.44100	92
3.44467	91
3.44833	92
3.45200	96
3.45567	101
3.45933	101
3.46300	98
3.46667	96
3.47033	96
3.47400	97
3.47767	100
3.48133	102
3.48500	104
3.48867	107
3.49233	112
3.49600	114
3.49967	113
3.50333	113
3.50700	115
3.51067	120
3.51433	124
3.51800	124
3.52167	119
3.52533	114
3.52900	111
3.53267	112
3.53633	116
3.54000	117
3.54367	114
3.54733	110
3.55100	107
3.55467	112
3.55833	122
3.56200	132
3.56567	135
3.56933	128
3.57300	117
3.57667	109
3.58033	105
3.58400	106
3.58767	106
3.59133	105
3.59500	102
3.59867	99
3.60233	96
3.60600	95
3.60967	96
3.61333	97
3.61700	96
3.62067	94
3.62433	95
3.62800	97
3.63167	98
3.63533	98
3.63900	100
3.64267	104
3.64633	107
3.65000	108
3.65367	108
3.65733	109
3.66100	111
3.66467	114
3.66833	116
3.67200	118
3.67567	119
3.67933	115
3.68300	108
3.68667	102
3.69033	96
3.69400	91
3.69767	85
3.70133	80
3.70500	77
3.70867	76
3.71233	80
3.71600	84
3.71967	88
3.72333	92
3.72700	95
3.73067	94
3.73433	92
3.73800	92
3.74167	95
3.74533	99
3.74900	103
3.75267	105
3.75633	105
3.76000	105
3.76367	106
3.76733	107
3.77100	105
3.77467	100
3.77833	94
3.78200	90
3.78567	91
3.78933	95
3.79300	101
3.79667	108
3.80033	114
3.80400	117
3.80767	117
3.81133	117
3.81500	115
3.81867	114
3.82233	116
3.82600	118
3.82967	114
3.83333	106
3.83700	100
3.84067	96
3.84433	96
3.84800	98
3.85167	97
3.85533	96
3.85900	96
3.86267	98
3.86633	96
3.87000	88
3.87367	81
3.87733	76
3.88100	77
3.88467	83
3.88833	89
3.89200	97
3.89567	103
3.89933	105
3.90300	102
3.90667	96
3.91033	87
3.91400	81
3.91767	79
3.92133	80
3.92500	87
3.92867	94
3.93233	100
3.93600	103
3.93967	103
3.94333	101
3.94700	97
3.95067	93
3.95433	87
3.95800	81
3.96167	77
3.96533	79
3.96900	87
3.97267	92
3.97633	91
3.98000	86
3.98367	80
3.98733	74
3.99100	72
3.99467	73
3.99833	72

[Chromatogram (Ch2)]
Interval(msec)	220
# of Points	1091
Start Time(min)	0.002
End Time(min)	3.998
R.Time (min)	Intensity
0.00167	1
0.00533	2
0.00900	2
0.01267	2
0.01633	2
0.02000	2
0.02367	2
0.02733	2
0.03100	2
0.03467	2
0.03833	2
0.04200	2
0.04567	3
0.04933	3
0.05300	3
0.05667	3
0.06033	3
0.06400	3
0.06767	3
0.07133	3
0.07500	3
0.07867	3
0.08233	3
0.08600	3
0.08967	4
0.09333	4
0.09700	4
0.10067	4
0.10433	5
0.10800	5
0.11167	5
0.11533	5
0.11900	5
0.12267	5
0.12633	5
0.13000	5
0.13367	5
0.13733	5
0.14100	5
0.14467	5
0.14833	5
0.15200	5
0.15567	5
0.15933	5
0.16300	5
0.16667	5
0.17033	5
0.17400	5
0.17767	4
0.18133	4
0.18500	4
0.18867	4
0.19233	4
0.19600	4
0.19967	4
0.20333	4
0.20700	3
0.21067	3
0.21433	3
0.21800	3
0.22167	3
0.22533	3
0.22900	3
0.23267	3
0.23633	3
0.24000	3
0.24367	3
0.24733	3
0.25100	3
0.25467	3
0.25833	3
0.26200	3
0.26567	3
0.26933	3
0.27300	3
0.27667	3
0.28033	3
0.28400	4
0.28767	4
0.29133	4
0.29500	4
0.29867	4
0.30233	4
0.30600	4
0.30967	4
0.31333	4
0.31700	4
0.32067	4
0.32433	4
0.32800	4
0.33167	4
0.33533	4
0.33900	5
0.34267	5
0.34633	5
0.35000	5
0.35367	5
0.35733	5
0.36100	4
0.36467	4
0.36833	4
0.37200	4
0.37567	3
0.37933	3
0.38300	3
0.38667	3
0.39033	3
0.39400	2
0.39767	2
0.40133	2
0.40500	2
0.40867	2
0.41233	2
0.41600	2
0.41967	2
0.42333	2
0.42700	2
0.43067	2
0.43433	2
0.43800	2
0.44167	2
0.44533	2
0.44900	2
0.45267	2
0.45633	3
0.46000	3
0.46367	3
0.46733	3
0.47100	4
0.47467	4
0.47833	4
0.48200	4
0.48567	4
0.48933	4
0.49300	4
0.49667	4
0.50033	4
0.50400	4
0.50767	3
0.51133	3
0.51500	3
0.51867	3
0.52233	3
0.52600	3
0.52967	3
0.53333	4
0.53700	4
0.54067	4
0.54433	4
0.54800	3
0.55167	3
0.55533	3
0.55900	3
0.56267	3
0.56633	3
0.57000	2
0.57367	2
0.57733	2
0.58100	2
0.58467	2
0.58833	2
0.59200	2
0.59567	3
0.59933	3
0.60300	3
0.60667	3
0.61033	3
0.61400	3
0.61767	3
0.62133	3
0.62500	3
0.62867	4
0.63233	4
0.63600	4
0.63967	4
0.64333	4
0.64700	4
0.65067	4
0.65433	4
0.65800	4
0.66167	4
0.66533	4
0.66900	4
0.67267	4
0.67633	4
0.68000	4
0.68367	4
0.68733	4
0.69100	4
0.69467	4
0.69833	4
0.70200	4
0.70567	4
0.70933	3
0.71300	4
0.71667	4
0.72033	4
0.72400	4
0.72767	5
0.73133	5
0.73500	5
0.73867	4
0.74233	4
0.74600	4
0.74967	4
0.75333	4
0.75700	4
0.76067	4
0.76433	4
0.76800	4
0.77167	5
0.77533	4
0.77900	4
0.78267	4
0.78633	4
0.79000	4
0.79367	4
0.79733	3
0.80100	3
0.80467	3
0.80833	3
0.81200	3
0.81567	3
0.81933	2
0.82300	2
0.82667	2
0.83033	1
0.83400	1
0.83767	1
0.84133	0
0.84500	0
0.84867	0
0.85233	0
0.85600	0
0.85967	0
0.86333	0
0.86700	0
0.87067	-0
0.87433	-0
0.87800	-0
0.88167	-0
0.88533	-0
0.88900	-0
0.89267	-0
0.89633	-0
0.90000	-0
0.90367	-0
0.90733	-0
0.91100	-0
0.91467	-0
0.91833	-0
0.92200	-0
0.92567	-0
0.92933	-0
0.93300	-0
0.93667	0
0.94033	0
0.94400	1
0.94767	1
0.95133	1
0.95500	1
0.95867	2
0.96233	2
0.96600	2
0.96967	2
0.97333	2
0.97700	2
0.98067	2
0.98433	2
0.98800	2
0.99167	2
0.99533	2
0.99900	2
1.00267	2
1.00633	2
1.01000	2
1.01367	2
1.01733	2
1.02100	2
1.02467	2
1.02833	2
1.03200	2
1.03567	2
1.03933	2
1.04300	2
1.04667	2
1.05033	3
1.05400	3
1.05767	3
1.06133	4
1.06500	4
1.06867	4
1.07233	4
1.07600	4
1.07967	4
1.08333	4
1.08700	4
1.09067	3
1.09433	3
1.09800	3
1.10167	3
1.10533	3
1.10900	3
1.11267	3
1.11633	3
1.12000	3
1.12367	4
1.12733	4
1.13100	4
1.13467	3
1.13833	3
1.14200	3
1.14567	3
1.14933	3
1.15300	3
1.15667	3
1.16033	3
1.16400	3
1.16767	3
1.17133	3
1.17500	3
1.17867	3
1.18233	3
1.18600	3
1.18967	3
1.19333	3
1.19700	4
1.20067	4
1.20433	4
1.20800	4
1.21167	3
1.21533	3
1.21900	2
1.22267	2
1.22633	1
1.23000	0
1.23367	-0
1.23733	-1
1.24100	-1
1.24467	-2
1.24833	-2
1.25200	-2
1.25567	-2
1.25933	-2
1.26300	-2
1.26667	-1
1.27033	-1
1.27400	-1
1.27767	-1
1.28133	-1
1.28500	-1
1.28867	-1
1.29233	-1
1.29600	-1
1.29967	-1
1.30333	-1
1.30700	-1
1.31067	-2
1.31433	-2
1.31800	-2
1.32167	-2
1.32533	-2
1.32900	-2
1.33267	-2
1.33633	-2
1.34000	-2
1.34367	-2
1.34733	-1
1.35100	-1
1.35467	-1
1.35833	-0
1.36200	-0
1.36567	-0
1.36933	-0
1.37300	0
1.37667	0
1.38033	0
1.38400	0
1.38767	0
1.39133	0
1.39500	1
1.39867	1
1.40233	1
1.40600	1
1.40967	1
1.41333	1
1.41700	2
1.42067	2
1.42433	2
1.42800	1
1.43167	1
1.43533	1
1.43900	1
1.44267	1
1.44633	1
1.45000	1
1.45367	1
1.45733	1
1.46100	1
1.46467	1
1.46833	1
1.47200	1
1.47567	1
1.47933	2
1.48300	2
1.48667	2
1.49033	2
1.49400	2
1.49767	2
1.50133	1
1.50500	1
1.50867	1
1.51233	1
1.51600	1
1.51967	1
1.52333	0
1.52700	0
1.53067	0
1.53433	0
1.53800	0
1.54167	-0
1.54533	-0
1.54900	-0
1.55267	-0
1.55633	-0
1.56000	-0
1.56367	0
1.56733	0
1.57100	1
1.57467	1
1.57833	0
1.58200	0
1.58567	0
1.58933	-0
1.59300	-1
1.59667	-1
1.60033	-2
1.60400	-3
1.60767	-4
1.61133	-6
1.61500	-7
1.61867	-9
1.62233	-12
1.62600	-15
1.62967	-18
1.63333	-21
1.63700	-25
1.64067	-29
1.64433	-33
1.64800	-37
1.65167	-41
1.65533	-46
1.65900	-50
1.66267	-55
1.66633	-60
1.67000	-65
1.67367	-71
1.67733	-77
1.68100	-83
1.68467	-88
1.68833	-94
1.69200	-99
1.69567	-103
1.69933	-107
1.70300	-111
1.70667	-115
1.71033	-118
1.71400	-121
1.71767	-123
1.72133	-125
1.72500	-127
1.72867	-129
1.73233	-131
1.73600	-132
1.73967	-133
1.74333	-133
1.74700	-134
1.75067	-134
1.75433	-135
1.75800	-135
1.76167	-136
1.76533	-137
1.76900	-138
1.77267	-139
1.77633	-141
1.78000	-142
1.78367	-144
1.78733	-145
1.79100	-145
1.79467	-145
1.79833	-145
1.80200	-145
1.80567	-144
1.80933	-143
1.81300	-142
1.81667	-141
1.82033	-140
1.82400	-140
1.82767	-140
1.83133	-140
1.83500	-140
1.83867	-140
1.84233	-140
1.84600	-141
1.84967	-141
1.85333	-142
1.85700	-142
1.86067	-142
1.86433	-143
1.86800	-144
1.87167	-144
1.87533	-144
1.87900	-144
1.88267	-144
1.88633	-143
1.89000	-143
1.89367	-143
1.89733	-143
1.90100	-143
1.90467	-143
1.90833	-143
1.91200	-143
1.91567	-143
1.91933	-142
1.92300	-142
1.92667	-142
1.93033	-141
1.93400	-141
1.93767	-141
1.94133	-141
1.94500	-141
1.94867	-141
1.95233	-141
1.95600	-141
1.95967	-141
1.96333	-140
1.96700	-140
1.97067	-139
1.97433	-139
1.97800	-139
1.98167	-138
1.98533	-138
1.98900	-137
1.99267	-136
1.99633	-135
2.00000	-134
2.00367	-133
2.00733	-132
2.01100	-132
2.01467	-132
2.01833	-132
2.02200	-132
2.02567	-133
2.02933	-133
2.03300	-134
2.03667	-134
2.04033	-134
2.04400	-134
2.04767	-134
2.05133	-133
2.05500	-132
2.05867	-132
2.06233	-131
2.06600	-131
2.06967	-130
2.07333	-130
2.07700	-130
2.08067	-130
2.08433	-129
2.08800	-129
2.09167	-129
2.09533	-129
2.09900	-129
2.10267	-129
2.10633	-128
2.11000	-128
2.11367	-127
2.11733	-127
2.12100	-127
2.12467	-127
2.12833	-126
2.13200	-126
2.13567	-126
2.13933	-125
2.14300	-124
2.14667	-123
2.15033	-123
2.15400	-122
2.15767	-122
2.16133	-122
2.16500	-121
2.16867	-121
2.17233	-120
2.17600	-119
2.17967	-119
2.18333	-118
2.18700	-117
2.19067	-116
2.19433	-116
2.19800	-116
2.20167	-115
2.20533	-115
2.20900	-115
2.21267	-114
2.21633	-114
2.22000	-114
2.22367	-114
2.22733	-114
2.23100	-113
2.23467	-113
2.23833	-113
2.24200	-112
2.24567	-112
2.24933	-112
2.25300	-112
2.25667	-112
2.26033	-112
2.26400	-112
2.26767	-112
2.27133	-112
2.27500	-111
2.27867	-111
2.28233	-111
2.28600	-112
2.28967	-112
2.29333	-112
2.29700	-112
2.30067	-112
2.30433	-111
2.30800	-111
2.31167	-110
2.31533	-109
2.31900	-109
2.32267	-108
2.32633	-108
2.33000	-107
2.33367	-106
2.33733	-105
2.34100	-104
2.34467	-104
2.34833	-103
2.35200	-103
2.35567	-102
2.35933	-101
2.36300	-101
2.36667	-100
2.37033	-99
2.37400	-97
2.37767	-95
2.38133	-92
2.38500	-88
2.38867	-85
2.39233	-80
2.39600	-75
2.39967	-70
2.40333	-65
2.40700	-60
2.41067	-55
2.41433	-50
2.41800	-46
2.42167	-41
2.42533	-37
2.42900	-34
2.43267	-31
2.43633	-28
2.44000	-25
2.44367	-22
2.44733	-20
2.45100	-17
2.45467	-15
2.45833	-13
2.46200	-11
2.46567	-9
2.46933	-7
2.47300	-6
2.47667	-4
2.48033	-3
2.48400	-2
2.48767	-0
2.49133	1
2.49500	2
2.49867	3
2.50233	3
2.50600	4
2.50967	5
2.51333	6
2.51700	6
2.52067	7
2.52433	7
2.52800	8
2.53167	9
2.53533	9
2.53900	10
2.54267	10
2.54633	11
2.55000	12
2.55367	12
2.55733	12
2.56100	13
2.56467	13
2.56833	14
2.57200	14
2.57567	15
2.57933	15
2.58300	16
2.58667	16
2.59033	17
2.59400	18
2.59767	18
2.60133	19
2.60500	19
2.60867	20
2.61233	20
2.61600	20
2.61967	21
2.62333	21
2.62700	22
2.63067	22
2.63433	23
2.63800	23
2.64167	23
2.64533	23
2.64900	23
2.65267	23
2.65633	23
2.66000	23
2.66367	23
2.66733	23
2.67100	22
2.67467	22
2.67833	22
2.68200	22
2.68567	23
2.68933	23
2.69300	23
2.69667	24
2.70033	24
2.70400	25
2.70767	25
2.71133	25
2.71500	25
2.71867	25
2.72233	25
2.72600	25
2.72967	25
2.73333	25
2.73700	25
2.74067	25
2.74433	25
2.74800	25
2.75167	25
2.75533	26
2.75900	26
2.76267	26
2.76633	26
2.77000	26
2.77367	26
2.77733	26
2.78100	26
2.78467	27
2.78833	27
2.79200	27
2.79567	27
2.79933	26
2.80300	26
2.80667	26
2.81033	26
2.81400	25
2.81767	25
2.82133	25
2.82500	25
2.82867	26
2.83233	26
2.83600	25
2.83967	25
2.84333	25
2.84700	24
2.85067	22
2.85433	19
2.85800	13
2.86167	4
2.86533	-8
2.86900	-25
2.87267	-47
2.87633	-73
2.88000	-105
2.88367	-142
2.88733	-184
2.89100	-231
2.89467	-283
2.89833	-339
2.90200	-399
2.90567	-463
2.90933	-531
2.91300	-601
2.91667	-674
2.92033	-749
2.92400	-827
2.92767	-907
2.93133	-989
2.93500	-1073
2.93867	-1158
2.94233	-1245
2.94600	-1333
2.94967	-1416
2.95333	-1482
2.95700	-1520
2.96067	-1523
2.96433	-1492
2.96800	-1430
2.97167	-1346
2.97533	-1246
2.97900	-1138
2.98267	-1028
2.98633	-919
2.99000	-815
2.99367	-718
2.99733	-629
3.00100	-547
3.00467	-475
3.00833	-410
3.01200	-353
3.01567	-303
3.01933	-259
3.02300	-221
3.02667	-188
3.03033	-160
3.03400	-136
3.03767	-115
3.04133	-97
3.04500	-81
3.04867	-68
3.05233	-57
3.05600	-47
3.05967	-39
3.06333	-32
3.06700	-26
3.07067	-21
3.07433	-17
3.07800	-13
3.08167	-10
3.08533	-7
3.08900	-4
3.09267	-2
3.09633	0
3.10000	2
3.10367	3
3.10733	5
3.11100	6
3.11467	7
3.11833	8
3.12200	9
3.12567	9
3.12933	10
3.13300	11
3.13667	12
3.14033	12
3.14400	13
3.14767	13
3.15133	14
3.15500	15
3.15867	16
3.16233	16
3.16600	17
3.16967	18
3.17333	18
3.17700	19
3.18067	19
3.18433	19
3.18800	20
3.19167	20
3.19533	20
3.19900	20
3.20267	21
3.20633	21
3.21000	21
3.21367	21
3.21733	21
3.22100	22
3.22467	22
3.22833	22
3.23200	22
3.23567	22
3.23933	22
3.24300	22
3.24667	23
3.25033	23
3.25400	23
3.25767	23
3.26133	23
3.26500	24
3.26867	24
3.27233	23
3.27600	23
3.27967	23
3.28333	23
3.28700	24
3.29067	24
3.29433	24
3.29800	24
3.30167	24
3.30533	24
3.30900	24
3.31267	24
3.31633	24
3.32000	24
3.32367	24
3.32733	24
3.33100	24
3.33467	24
3.33833	24
3.34200	24
3.34567	24
3.34933	24
3.35300	24
3.35667	24
3.36033	24
3.36400	24
3.36767	24
3.37133	24
3.37500	24
3.37867	24
3.38233	23
3.38600	23
3.38967	23
3.39333	23
3.39700	23
3.40067	22
3.40433	22
3.40800	22
3.41167	22
3.41533	22
3.41900	22
3.42267	22
3.42633	23
3.43000	23
3.43367	23
3.43733	23
3.44100	23
3.44467	23
3.44833	23
3.45200	23
3.45567	23
3.45933	23
3.46300	23
3.46667	23
3.47033	23
3.47400	23
3.47767	23
3.48133	24
3.48500	24
3.48867	23
3.49233	23
3.49600	23
3.49967	23
3.50333	23
3.50700	23
3.51067	23
3.51433	23
3.51800	23
3.52167	23
3.52533	23
3.52900	23
3.53267	23
3.53633	23
3.54000	23
3.54367	23
3.54733	24
3.55100	24
3.55467	24
3.55833	24
3.56200	24
3.56567	24
3.56933	24
3.57300	23
3.57667	23
3.58033	23
3.58400	23
3.58767	23
3.59133	23
3.59500	23
3.59867	23
3.60233	23
3.60600	23
3.60967	22
3.61333	22
3.61700	22
3.62067	22
3.62433	22
3.62800	22
3.63167	22
3.63533	22
3.63900	22
3.64267	22
3.64633	22
3.65000	22
3.65367	22
3.65733	22
3.66100	22
3.66467	22
3.66833	22
3.67200	22
3.67567	22
3.67933	22
3.68300	22
3.68667	22
3.69033	22
3.69400	22
3.69767	22
3.70133	22
3.70500	22
3.70867	22
3.71233	22
3.71600	23
3.71967	23
3.72333	23
3.72700	23
3.73067	23
3.73433	22
3.73800	22
3.74167	22
3.74533	22
3.74900	22
3.75267	22
3.75633	22
3.76000	22
3.76367	22
3.76733	22
3.77100	22
3.77467	22
3.77833	22
3.78200	22
3.78567	22
3.78933	22
3.79300	22
3.79667	22
3.80033	22
3.80400	22
3.80767	22
3.81133	22
3.81500	22
3.81867	21
3.82233	21
3.82600	21
3.82967	21
3.83333	21
3.83700	20
3.84067	20
3.84433	20
3.84800	20
3.85167	20
3.85533	20
3.85900	20
3.86267	20
3.86633	20
3.87000	20
3.87367	20
3.87733	20
3.88100	20
3.88467	20
3.88833	20
3.89200	20
3.89567	20
3.89933	20
3.90300	20
3.90667	20
3.91033	20
3.91400	20
3.91767	20
3.92133	20
3.92500	20
3.92867	20
3.93233	20
3.93600	20
3.93967	20
3.94333	21
3.94700	21
3.95067	21
3.95433	21
3.95800	21
3.96167	21
3.96533	20
3.96900	20
3.97267	20
3.97633	20
3.98000	20
3.98367	20
3.98733	20
3.99100	20
3.99467	19
3.99833	19

[Chromatogram (Ch3)]
Interval(msec)	220
# of Points	1091
Start Time(min)	0.002
End Time(min)	3.998
R.Time (min)	Intensity
0.00167	1
0.00533	2
0.00900	1
0.01267	-1
0.01633	-2
0.02000	-2
0.02367	-4
0.02733	-5
0.03100	-6
0.03467	-6
0.03833	-6
0.04200	-7
0.04567	-6
0.04933	-5
0.05300	-4
0.05667	-2
0.06033	-2
0.06400	-5
0.06767	-7
0.07133	-5
0.07500	-3
0.07867	-1
0.08233	-1
0.08600	-1
0.08967	-3
0.09333	-6
0.09700	-8
0.10067	-9
0.10433	-9
0.10800	-8
0.11167	-6
0.11533	-4
0.11900	-2
0.12267	-2
0.12633	-1
0.13000	0
0.13367	-0
0.13733	-1
0.14100	-1
0.14467	1
0.14833	2
0.15200	1
0.15567	1
0.15933	0
0.16300	-0
0.16667	-1
0.17033	-0
0.17400	2
0.17767	2
0.18133	3
0.18500	4
0.18867	4
0.19233	0
0.19600	-0
0.19967	1
0.20333	2
0.20700	3
0.21067	2
0.21433	2
0.21800	2
0.22167	3
0.22533	1
0.22900	0
0.23267	1
0.23633	3
0.24000	5
0.24367	4
0.24733	3
0.25100	2
0.25467	1
0.25833	1
0.26200	2
0.26567	2
0.26933	3
0.27300	3
0.27667	3
0.28033	3
0.28400	3
0.28767	3
0.29133	2
0.29500	2
0.29867	1
0.30233	2
0.30600	5
0.30967	7
0.31333	7
0.31700	7
0.32067	5
0.32433	6
0.32800	6
0.33167	6
0.33533	9
0.33900	9
0.34267	12
0.34633	13
0.35000	10
0.35367	10
0.35733	12
0.36100	13
0.36467	13
0.36833	15
0.37200	14
0.37567	11
0.37933	11
0.38300	12
0.38667	11
0.39033	11
0.39400	10
0.39767	9
0.40133	11
0.40500	10
0.40867	9
0.41233	12
0.41600	14
0.41967	14
0.42333	14
0.42700	14
0.43067	15
0.43433	16
0.43800	16
0.44167	16
0.44533	13
0.44900	11
0.45267	11
0.45633	11
0.46000	12
0.46367	15
0.46733	16
0.47100	13
0.47467	11
0.47833	10
0.48200	10
0.48567	11
0.48933	11
0.49300	10
0.49667	10
0.50033	13
0.50400	15
0.50767	16
0.51133	15
0.51500	14
0.51867	14
0.52233	13
0.52600	10
0.52967	10
0.53333	11
0.53700	13
0.54067	14
0.54433	14
0.54800	15
0.55167	19
0.55533	20
0.55900	19
0.56267	17
0.56633	16
0.57000	14
0.57367	12
0.57733	13
0.58100	13
0.58467	12
0.58833	13
0.59200	12
0.59567	11
0.59933	11
0.60300	11
0.60667	11
0.61033	11
0.61400	11
0.61767	11
0.62133	12
0.62500	13
0.62867	13
0.63233	14
0.63600	14
0.63967	14
0.64333	13
0.64700	14
0.65067	16
0.65433	16
0.65800	14
0.66167	13
0.66533	15
0.66900	16
0.67267	15
0.67633	14
0.68000	13
0.68367	12
0.68733	12
0.69100	14
0.69467	16
0.69833	17
0.70200	17
0.70567	15
0.70933	15
0.71300	16
0.71667	17
0.72033	17
0.72400	17
0.72767	18
0.73133	17
0.73500	15
0.73867	14
0.74233	12
0.74600	13
0.74967	13
0.75333	14
0.75700	15
0.76067	17
0.76433	18
0.76800	17
0.77167	16
0.77533	13
0.77900	12
0.78267	12
0.78633	11
0.79000	12
0.79367	15
0.79733	16
0.80100	15
0.80467	15
0.80833	13
0.81200	14
0.81567	14
0.81933	13
0.82300	14
0.82667	15
0.83033	15
0.83400	15
0.83767	16
0.84133	15
0.84500	14
0.84867	13
0.85233	12
0.85600	12
0.85967	15
0.86333	16
0.86700	18
0.87067	18
0.87433	17
0.87800	18
0.88167	18
0.88533	20
0.88900	21
0.89267	20
0.89633	21
0.90000	22
0.90367	23
0.90733	25
0.91100	25
0.91467	24
0.91833	22
0.92200	21
0.92567	21
0.92933	19
0.93300	20
0.93667	22
0.94033	24
0.94400	23
0.94767	25
0.95133	24
0.95500	23
0.95867	21
0.96233	21
0.96600	20
0.96967	22
0.97333	22
0.97700	22
0.98067	24
0.98433	24
0.98800	20
0.99167	17
0.99533	18
0.99900	19
1.00267	20
1.00633	22
1.01000	24
1.01367	25
1.01733	23
1.02100	20
1.02467	17
1.02833	16
1.03200	14
1.03567	14
1.03933	16
1.04300	16
1.04667	16
1.05033	16
1.05400	16
1.05767	15
1.06133	14
1.06500	13
1.06867	13
1.07233	13
1.07600	12
1.07967	11
1.08333	12
1.08700	11
1.09067	10
1.09433	10
1.09800	10
1.10167	11
1.10533	9
1.10900	8
1.11267	9
1.11633	10
1.12000	11
1.12367	11
1.12733	13
1.13100	12
1.13467	13
1.13833	14
1.14200	14
1.14567	12
1.14933	10
1.15300	8
1.15667	8
1.16033	8
1.16400	10
1.16767	12
1.17133	13
1.17500	12
1.17867	12
1.18233	8
1.18600	8
1.18967	11
1.19333	12
1.19700	11
1.20067	11
1.20433	13
1.20800	14
1.21167	13
1.21533	11
1.21900	11
1.22267	13
1.22633	14
1.23000	13
1.23367	13
1.23733	14
1.24100	15
1.24467	15
1.24833	16
1.25200	16
1.25567	15
1.25933	15
1.26300	17
1.26667	17
1.27033	18
1.27400	18
1.27767	19
1.28133	21
1.28500	21
1.28867	21
1.29233	19
1.29600	19
1.29967	20
1.30333	20
1.30700	21
1.31067	23
1.31433	26
1.31800	27
1.32167	28
1.32533	28
1.32900	29
1.33267	27
1.33633	26
1.34000	24
1.34367	23
1.34733	21
1.35100	19
1.35467	19
1.35833	19
1.36200	22
1.36567	23
1.36933	23
1.37300	21
1.37667	20
1.38033	18
1.38400	15
1.38767	15
1.39133	16
1.39500	18
1.39867	20
1.40233	22
1.40600	24
1.40967	27
1.41333	28
1.41700	26
1.42067	23
1.42433	23
1.42800	24
1.43167	26
1.43533	28
1.43900	30
1.44267	29
1.44633	30
1.45000	30
1.45367	29
1.45733	28
1.46100	27
1.46467	26
1.46833	27
1.47200	29
1.47567	30
1.47933	31
1.48300	33
1.48667	33
1.49033	31
1.49400	30
1.49767	31
1.50133	33
1.50500	34
1.50867	35
1.51233	35
1.51600	34
1.51967	34
1.52333	34
1.52700	35
1.53067	36
1.53433	37
1.53800	36
1.54167	35
1.54533	36
1.54900	38
1.55267	39
1.55633	40
1.56000	40
1.56367	38
1.56733	36
1.57100	37
1.57467	38
1.57833	37
1.58200	37
1.58567	39
1.58933	39
1.59300	40
1.59667	43
1.60033	45
1.60400	46
1.60767	46
1.61133	47
1.61500	47
1.61867	46
1.62233	45
1.62600	43
1.62967	44
1.63333	46
1.63700	49
1.64067	49
1.64433	49
1.64800	51
1.65167	53
1.65533	54
1.65900	56
1.66267	59
1.66633	63
1.67000	66
1.67367	67
1.67733	69
1.68100	73
1.68467	74
1.68833	76
1.69200	74
1.69567	72
1.69933	74
1.70300	74
1.70667	74
1.71033	76
1.71400	77
1.71767	79
1.72133	84
1.72500	86
1.72867	86
1.73233	83
1.73600	83
1.73967	85
1.74333	88
1.74700	91
1.75067	92
1.75433	94
1.75800	99
1.76167	102
1.76533	102
1.76900	103
1.77267	105
1.77633	108
1.78000	110
1.78367	111
1.78733	114
1.79100	116
1.79467	117
1.79833	121
1.80200	123
1.80567	126
1.80933	128
1.81300	131
1.81667	130
1.82033	129
1.82400	130
1.82767	131
1.83133	132
1.83500	135
1.83867	137
1.84233	140
1.84600	142
1.84967	145
1.85333	147
1.85700	148
1.86067	149
1.86433	150
1.86800	151
1.87167	153
1.87533	155
1.87900	160
1.88267	164
1.88633	165
1.89000	166
1.89367	168
1.89733	170
1.90100	173
1.90467	174
1.90833	176
1.91200	180
1.91567	185
1.91933	188
1.92300	190
1.92667	193
1.93033	195
1.93400	198
1.93767	201
1.94133	204
1.94500	206
1.94867	207
1.95233	212
1.95600	214
1.95967	215
1.96333	217
1.96700	220
1.97067	223
1.97433	225
1.97800	230
1.98167	233
1.98533	236
1.98900	239
1.99267	243
1.99633	247
2.00000	252
2.00367	257
2.00733	259
2.01100	262
2.01467	264
2.01833	267
2.02200	270
2.02567	270
2.02933	270
2.03300	274
2.03667	277
2.04033	282
2.04400	287
2.04767	287
2.05133	287
2.05500	288
2.05867	292
2.06233	292
2.06600	293
2.06967	295
2.07333	300
2.07700	306
2.08067	310
2.08433	313
2.08800	315
2.09167	318
2.09533	320
2.09900	321
2.10267	323
2.10633	325
2.11000	326
2.11367	328
2.11733	329
2.12100	331
2.12467	333
2.12833	335
2.13200	337
2.13567	338
2.13933	336
2.14300	336
2.14667	338
2.15033	343
2.15400	349
2.15767	355
2.16133	359
2.16500	361
2.16867	362
2.17233	361
2.17600	362
2.17967	363
2.18333	364
2.18700	368
2.19067	372
2.19433	376
2.19800	379
2.20167	380
2.20533	380
2.20900	383
2.21267	387
2.21633	390
2.22000	393
2.22367	399
2.22733	405
2.23100	406
2.23467	406
2.23833	408
2.24200	410
2.24567	411
2.24933	413
2.25300	418
2.25667	422
2.26033	424
2.26400	423
2.26767	423
2.27133	422
2.27500	424
2.27867	427
2.28233	430
2.28600	431
2.28967	433
2.29333	438
2.29700	444
2.30067	450
2.30433	452
2.30800	453
2.31167	454
2.31533	456
2.31900	459
2.32267	463
2.32633	464
2.33000	464
2.33367	467
2.33733	471
2.34100	475
2.34467	477
2.34833	478
2.35200	482
2.35567	484
2.35933	488
2.36300	489
2.36667	490
2.37033	490
2.37400	489
2.37767	492
2.38133	494
2.38500	495
2.38867	495
2.39233	494
2.39600	495
2.39967	493
2.40333	494
2.40700	496
2.41067	499
2.41433	501
2.41800	503
2.42167	505
2.42533	509
2.42900	511
2.43267	511
2.43633	509
2.44000	510
2.44367	512
2.44733	516
2.45100	520
2.45467	521
2.45833	520
2.46200	517
2.46567	515
2.46933	513
2.47300	510
2.47667	503
2.48033	494
2.48400	484
2.48767	469
2.49133	451
2.49500	429
2.49867	406
2.50233	384
2.50600	363
2.50967	341
2.51333	321
2.51700	306
2.52067	293
2.52433	283
2.52800	274
2.53167	264
2.53533	258
2.53900	253
2.54267	247
2.54633	243
2.55000	239
2.55367	235
2.55733	233
2.56100	230
2.56467	226
2.56833	223
2.57200	218
2.57567	213
2.57933	208
2.58300	203
2.58667	198
2.59033	196
2.59400	197
2.59767	196
2.60133	190
2.60500	180
2.60867	165
2.61233	141
2.61600	110
2.61967	72
2.62333	32
2.62700	-7
2.63067	-43
2.63433	-74
2.63800	-98
2.64167	-117
2.64533	-132
2.64900	-142
2.65267	-146
2.65633	-145
2.66000	-140
2.66367	-134
2.66733	-127
2.67100	-117
2.67467	-105
2.67833	-92
2.68200	-77
2.68567	-62
2.68933	-48
2.69300	-36
2.69667	-24
2.70033	-13
2.70400	-1
2.70767	10
2.71133	20
2.71500	28
2.71867	36
2.72233	43
2.72600	50
2.72967	58
2.73333	64
2.73700	71
2.74067	79
2.74433	86
2.74800	91
2.75167	93
2.75533	94
2.75900	94
2.76267	91
2.76633	89
2.77000	89
2.77367	88
2.77733	86
2.78100	83
2.78467	80
2.78833	73
2.79200	67
2.79567	60
2.79933	55
2.80300	50
2.80667	43
2.81033	36
2.81400	27
2.81767	15
2.82133	4
2.82500	-1
2.82867	9
2.83233	49
2.83600	150
2.83967	360
2.84333	738
2.84700	1347
2.85067	2233
2.85433	3415
2.85800	4866
2.86167	6513
2.86533	8248
2.86900	9947
2.87267	11477
2.87633	12728
2.88000	13613
2.88367	14092
2.88733	14168
2.89100	13883
2.89467	13305
2.89833	12513
2.90200	11584
2.90567	10586
2.90933	9568
2.91300	8569
2.91667	7617
2.92033	6728
2.92400	5912
2.92767	5172
2.93133	4504
2.93500	3906
2.93867	3375
2.94233	2910
2.94600	2500
2.94967	2142
2.95333	1829
2.95700	1555
2.96067	1318
2.96433	1113
2.96800	934
2.97167	779
2.97533	646
2.97900	529
2.98267	428
2.98633	340
2.99000	266
2.99367	204
2.99733	153
3.00100	108
3.00467	68
3.00833	34
3.01200	2
3.01567	-22
3.01933	-45
3.02300	-65
3.02667	-82
3.03033	-96
3.03400	-107
3.03767	-118
3.04133	-127
3.04500	-133
3.04867	-138
3.05233	-147
3.05600	-154
3.05967	-158
3.06333	-159
3.06700	-161
3.07067	-163
3.07433	-166
3.07800	-171
3.08167	-174
3.08533	-176
3.08900	-179
3.09267	-178
3.09633	-178
3.10000	-178
3.10367	-178
3.10733	-181
3.11100	-185
3.11467	-188
3.11833	-191
3.12200	-193
3.12567	-194
3.12933	-196
3.13300	-197
3.13667	-197
3.14033	-198
3.14400	-197
3.14767	-194
3.15133	-191
3.15500	-192
3.15867	-193
3.16233	-193
3.16600	-193
3.16967	-195
3.17333	-207
3.17700	-238
3.18067	-259
3.18433	-250
3.18800	-217
3.19167	-170
3.19533	-114
3.19900	-56
3.20267	0
3.20633	54
3.21000	104
3.21367	150
3.21733	190
3.22100	229
3.22467	265
3.22833	297
3.23200	326
3.23567	354
3.23933	376
3.24300	397
3.24667	417
3.25033	435
3.25400	449
3.25767	460
3.26133	469
3.26500	478
3.26867	487
3.27233	494
3.27600	503
3.27967	510
3.28333	515
3.28700	517
3.29067	519
3.29433	522
3.29800	523
3.30167	523
3.30533	522
3.30900	518
3.31267	514
3.31633	510
3.32000	504
3.32367	500
3.32733	497
3.33100	493
3.33467	491
3.33833	488
3.34200	485
3.34567	482
3.34933	478
3.35300	474
3.35667	473
3.36033	469
3.36400	465
3.36767	459
3.37133	452
3.37500	443
3.37867	437
3.38233	432
3.38600	430
3.38967	426
3.39333	423
3.39700	420
3.40067	418
3.40433	417
3.40800	412
3.41167	408
3.41533	405
3.41900	404
3.42267	402
3.42633	395
3.43000	389
3.43367	385
3.43733	382
3.44100	377
3.44467	374
3.44833	369
3.45200	365
3.45567	360
3.45933	357
3.46300	354
3.46667	351
3.47033	345
3.47400	339
3.47767	335
3.48133	331
3.48500	329
3.48867	327
3.49233	327
3.49600	323
3.49967	317
3.50333	310
3.50700	303
3.51067	297
3.51433	294
3.51800	289
3.52167	281
3.52533	277
3.52900	275
3.53267	273
3.53633	270
3.54000	267
3.54367	263
3.54733	261
3.55100	259
3.55467	255
3.55833	250
3.56200	245
3.56567	240
3.56933	235
3.57300	232
3.57667	231
3.58033	230
3.58400	226
3.58767	223
3.59133	220
3.59500	218
3.59867	217
3.60233	217
3.60600	218
3.60967	217
3.61333	212
3.61700	206
3.62067	203
3.62433	201
3.62800	200
3.63167	196
3.63533	193
3.63900	189
3.64267	185
3.64633	183
3.65000	184
3.65367	183
3.65733	180
3.66100	177
3.66467	173
3.66833	169
3.67200	164
3.67567	162
3.67933	160
3.68300	158
3.68667	157
3.69033	154
3.69400	152
3.69767	148
3.70133	144
3.70500	138
3.70867	133
3.71233	131
3.71600	130
3.71967	129
3.72333	128
3.72700	126
3.73067	122
3.73433	120
3.73800	117
3.74167	114
3.74533	113
3.74900	111
3.75267	111
3.75633	109
3.76000	109
3.76367	107
3.76733	107
3.77100	107
3.77467	104
3.77833	100
3.78200	98
3.78567	99
3.78933	98
3.79300	96
3.79667	93
3.80033	91
3.80400	89
3.80767	86
3.81133	85
3.81500	83
3.81867	81
3.82233	81
3.82600	81
3.82967	79
3.83333	76
3.83700	71
3.84067	68
3.84433	65
3.84800	63
3.85167	63
3.85533	63
3.85900	63
3.86267	60
3.86633	57
3.87000	55
3.87367	53
3.87733	50
3.88100	46
3.88467	42
3.88833	42
3.89200	41
3.89567	41
3.89933	39
3.90300	35
3.90667	32
3.91033	30
3.91400	30
3.91767	29
3.92133	28
3.92500	26
3.92867	23
3.93233	21
3.93600	19
3.93967	17
3.94333	15
3.94700	13
3.95067	12
3.95433	11
3.95800	9
3.96167	8
3.96533	7
3.96900	9
3.97267	6
3.97633	1
3.98000	-2
3.98367	-5
3.98733	-7
3.99100	-9
3.99467	-12
3.99833	-16

[Status Trace (Column Oven Temperature)]
Interval(msec)	1000
# of Points	240
Start Time(min)	0.000
End Time(min)	3.984
Intensity Units	
Intensity Multiplier	1
R.Time (min)	Intensity
0.00043	35.04
0.01710	35.04
0.03377	35.03
0.05043	35.03
0.06710	35.03
0.08377	35.03
0.10043	35.03
0.11710	35.03
0.13377	35.03
0.15043	35.01
0.16710	35.02
0.18377	35.02
0.20043	35.03
0.21710	35.04
0.23377	35.04
0.25043	35.03
0.26710	35.02
0.28377	35.02
0.30043	35.01
0.31710	35.01
0.33377	35.00
0.35043	35.00
0.36710	35.00
0.38377	35.00
0.40043	35.01
0.41710	35.01
0.43377	35.02
0.45043	35.02
0.46710	35.01
0.48377	35.01
0.50043	35.01
0.51710	35.01
0.53377	35.00
0.55043	35.01
0.56710	35.02
0.58377	35.01
0.60043	35.02
0.61710	35.00
0.63377	34.99
0.65043	35.00
0.66710	34.99
0.68377	34.98
0.70043	34.97
0.71710	34.97
0.73377	34.98
0.75043	34.97
0.76710	34.96
0.78377	34.97
0.80043	34.97
0.81710	34.98
0.83377	34.98
0.85043	34.98
0.86710	34.99
0.88377	34.99
0.90043	34.99
0.91710	35.00
0.93377	35.00
0.95043	35.00
0.96710	34.99
0.98377	34.99
1.00043	34.99
1.01710	34.99
1.03377	34.99
1.05043	34.99
1.06710	34.98
1.08377	34.98
1.10043	34.97
1.11710	34.96
1.13377	34.96
1.15043	34.95
1.16710	34.96
1.18377	34.95
1.20043	34.95
1.21710	34.97
1.23377	34.99
1.25043	34.99
1.26710	34.99
1.28377	34.99
1.30043	35.00
1.31710	35.01
1.33377	35.01
1.35043	35.01
1.36710	35.01
1.38377	35.01
1.40043	35.01
1.41710	35.00
1.43377	34.99
1.45043	34.98
1.46710	34.97
1.48377	34.97
1.50043	34.98
1.51710	34.98
1.53377	34.99
1.55043	34.99
1.56710	34.99
1.58377	34.99
1.60043	35.02
1.61710	35.11
1.63377	35.27
1.65043	35.49
1.66710	35.80
1.68377	36.16
1.70043	36.52
1.71710	36.88
1.73377	37.20
1.75043	37.52
1.76710	37.87
1.78377	38.21
1.80043	38.52
1.81710	38.83
1.83377	39.16
1.85043	39.49
1.86710	39.83
1.88377	40.15
1.90043	40.50
1.91710	40.82
1.93377	41.14
1.95043	41.49
1.96710	41.81
1.98377	42.14
2.00043	42.44
2.01710	42.77
2.03377	43.11
2.05043	43.43
2.06710	43.76
2.08377	44.08
2.10043	44.41
2.11710	44.74
2.13377	45.07
2.15043	45.39
2.16710	45.73
2.18377	46.04
2.20043	46.37
2.21710	46.69
2.23377	47.02
2.25043	47.36
2.26710	47.69
2.28377	48.03
2.30043	48.37
2.31710	48.71
2.33377	49.03
2.35043	49.34
2.36710	49.60
2.38377	49.70
2.40043	49.71
2.41710	49.70
2.43377	49.72
2.45043	49.72
2.46710	49.73
2.48377	49.75
2.50043	49.77
2.51710	49.79
2.53377	49.79
2.55043	49.81
2.56710	49.82
2.58377	49.83
2.60043	49.83
2.61710	49.84
2.63377	49.84
2.65043	49.85
2.66710	49.87
2.68377	49.86
2.70043	49.85
2.71710	49.86
2.73377	49.87
2.75043	49.87
2.76710	49.87
2.78377	49.88
2.80043	49.89
2.81710	49.91
2.83377	49.93
2.85043	49.95
2.86710	49.97
2.88377	49.98
2.90043	50.00
2.91710	50.02
2.93377	50.03
2.95043	50.04
2.96710	50.05
2.98377	50.05
3.00043	50.06
3.01710	50.07
3.03377	50.07
3.05043	50.09
3.06710	50.09
3.08377	50.09
3.10043	50.10
3.11710	50.10
3.13377	50.11
3.15043	50.10
3.16710	50.09
3.18377	50.07
3.20043	50.06
3.21710	50.06
3.23377	50.05
3.25043	50.05
3.26710	50.05
3.28377	50.05
3.30043	50.05
3.31710	50.04
3.33377	50.04
3.35043	50.05
3.36710	50.05
3.38377	50.06
3.40043	50.06
3.41710	50.07
3.43377	50.07
3.45043	50.08
3.46710	50.08
3.48377	50.07
3.50043	50.07
3.51710	50.07
3.53377	50.07
3.55043	50.07
3.56710	50.07
3.58377	50.07
3.60043	50.08
3.61710	50.09
3.63377	50.08
3.65043	50.08
3.66710	50.08
3.68377	50.07
3.70043	50.08
3.71710	50.08
3.73377	50.08
3.75043	50.07
3.76710	50.08
3.78377	50.08
3.80043	50.07
3.81710	50.07
3.83377	50.08
3.85043	50.07
3.86710	50.08
3.88377	50.07
3.90043	50.07
3.91710	50.07
3.93377	50.07
3.95043	50.08
3.96710	50.08
3.98377	50.08

[Status Trace (Injection Unit Temperature)]
Interval(msec)	1000
# of Points	240
Start Time(min)	0.000
End Time(min)	3.984
Intensity Units	
Intensity Multiplier	1
R.Time (min)	Intensity
0.00043	99.99
0.01710	99.99
0.03377	99.99
0.05043	99.99
0.06710	99.99
0.08377	99.99
0.10043	99.99
0.11710	99.99
0.13377	99.99
0.15043	99.99
0.16710	99.99
0.18377	99.98
0.20043	99.99
0.21710	99.99
0.23377	99.98
0.25043	99.98
0.26710	99.98
0.28377	99.98
0.30043	99.98
0.31710	99.98
0.33377	99.98
0.35043	99.98
0.36710	99.98
0.38377	99.98
0.40043	99.98
0.41710	99.98
0.43377	99.98
0.45043	99.98
0.46710	99.98
0.48377	99.98
0.50043	99.98
0.51710	99.98
0.53377	99.98
0.55043	99.98
0.56710	99.98
0.58377	99.98
0.60043	99.98
0.61710	99.98
0.63377	99.98
0.65043	99.98
0.66710	99.98
0.68377	99.98
0.70043	99.99
0.71710	99.99
0.73377	99.98
0.75043	99.99
0.76710	99.98
0.78377	99.98
0.80043	99.99
0.81710	99.98
0.83377	99.99
0.85043	99.99
0.86710	99.99
0.88377	99.99
0.90043	99.99
0.91710	99.99
0.93377	99.98
0.95043	99.99
0.96710	99.99
0.98377	99.99
1.00043	99.99
1.01710	99.99
1.03377	99.99
1.05043	99.98
1.06710	99.99
1.08377	99.98
1.10043	99.99
1.11710	99.99
1.13377	99.99
1.15043	99.99
1.16710	99.98
1.18377	99.98
1.20043	99.98
1.21710	99.98
1.23377	99.98
1.25043	99.98
1.26710	99.98
1.28377	99.99
1.30043	99.98
1.31710	99.98
1.33377	99.98
1.35043	99.98
1.36710	99.98
1.38377	99.98
1.40043	99.98
1.41710	99.98
1.43377	99.98
1.45043	99.98
1.46710	99.98
1.48377	99.98
1.50043	99.97
1.51710	99.98
1.53377	99.98
1.55043	99.98
1.56710	99.98
1.58377	99.98
1.60043	99.98
1.61710	99.98
1.63377	99.98
1.65043	99.98
1.66710	99.98
1.68377	99.98
1.70043	99.98
1.71710	99.98
1.73377	99.98
1.75043	99.98
1.76710	99.98
1.78377	99.98
1.80043	99.98
1.81710	99.98
1.83377	99.98
1.85043	99.98
1.86710	99.98
1.88377	99.98
1.90043	99.98
1.91710	99.98
1.93377	99.98
1.95043	99.98
1.96710	99.98
1.98377	99.98
2.00043	99.98
2.01710	99.98
2.03377	99.98
2.05043	99.98
2.06710	99.97
2.08377	99.98
2.10043	99.97
2.11710	99.98
2.13377	99.97
2.15043	99.98
2.16710	99.98
2.18377	99.97
2.20043	99.97
2.21710	99.98
2.23377	99.97
2.25043	99.97
2.26710	99.97
2.28377	99.97
2.30043	99.97
2.31710	99.97
2.33377	99.97
2.35043	99.97
2.36710	99.97
2.38377	99.97
2.40043	99.97
2.41710	99.97
2.43377	99.97
2.45043	99.98
2.46710	99.97
2.48377	99.97
2.50043	99.97
2.51710	99.97
2.53377	99.97
2.55043	99.98
2.56710	99.97
2.58377	99.97
2.60043	99.98
2.61710	99.97
2.63377	99.98
2.65043	99.97
2.66710	99.97
2.68377	99.98
2.70043	99.98
2.71710	99.98
2.73377	99.98
2.75043	99.98
2.76710	99.98
2.78377	99.99
2.80043	99.99
2.81710	99.99
2.83377	99.99
2.85043	99.99
2.86710	99.99
2.88377	100.00
2.90043	100.00
2.91710	100.00
2.93377	100.00
2.95043	100.00
2.96710	100.00
2.98377	100.00
3.00043	100.01
3.01710	100.01
3.03377	100.01
3.05043	100.00
3.06710	100.01
3.08377	100.01
3.10043	100.01
3.11710	100.01
3.13377	100.01
3.15043	100.01
3.16710	100.02
3.18377	100.02
3.20043	100.02
3.21710	100.02
3.23377	100.02
3.25043	100.02
3.26710	100.02
3.28377	100.02
3.30043	100.02
3.31710	100.02
3.33377	100.02
3.35043	100.03
3.36710	100.03
3.38377	100.03
3.40043	100.03
3.41710	100.02
3.43377	100.03
3.45043	100.03
3.46710	100.03
3.48377	100.03
3.50043	100.03
3.51710	100.03
3.53377	100.03
3.55043	100.03
3.56710	100.03
3.58377	100.04
3.60043	100.03
3.61710	100.04
3.63377	100.04
3.65043	100.03
3.66710	100.04
3.68377	100.04
3.70043	100.03
3.71710	100.04
3.73377	100.04
3.75043	100.03
3.76710	100.04
3.78377	100.04
3.80043	100.04
3.81710	100.03
3.83377	100.04
3.85043	100.04
3.86710	100.04
3.88377	100.04
3.90043	100.04
3.91710	100.04
3.93377	100.05
3.95043	100.04
3.96710	100.04
3.98377	100.05

[Status Trace (Carrier Gas Pressure)]
Interval(msec)	1000
# of Points	240
Start Time(min)	0.000
End Time(min)	3.984
Intensity Units	
Intensity Multiplier	1
R.Time (min)	Intensity
0.00043	58.00
0.01710	56.67
0.03377	55.90
0.05043	58.27
0.06710	59.90
0.08377	58.49
0.10043	57.98
0.11710	58.00
0.13377	58.01
0.15043	58.01
0.16710	58.00
0.18377	58.00
0.20043	58.00
0.21710	58.00
0.23377	58.00
0.25043	58.00
0.26710	58.00
0.28377	58.00
0.30043	58.00
0.31710	58.00
0.33377	58.00
0.35043	58.00
0.36710	58.00
0.38377	58.00
0.40043	58.00
0.41710	58.00
0.43377	58.00
0.45043	58.00
0.46710	58.00
0.48377	58.00
0.50043	58.00
0.51710	58.00
0.53377	58.00
0.55043	58.00
0.56710	58.00
0.58377	58.00
0.60043	58.00
0.61710	58.00
0.63377	58.00
0.65043	58.00
0.66710	58.00
0.68377	58.00
0.70043	58.00
0.71710	58.00
0.73377	58.00
0.75043	58.00
0.76710	58.00
0.78377	58.00
0.80043	58.00
0.81710	58.00
0.83377	58.00
0.85043	58.00
0.86710	58.00
0.88377	58.00
0.90043	58.00
0.91710	58.00
0.93377	58.00
0.95043	58.00
0.96710	58.00
0.98377	58.00
1.00043	58.00
1.01710	58.00
1.03377	58.00
1.05043	58.00
1.06710	58.00
1.08377	58.00
1.10043	58.00
1.11710	58.00
1.13377	58.00
1.15043	58.00
1.16710	58.00
1.18377	58.00
1.20043	58.00
1.21710	58.00
1.23377	58.00
1.25043	58.00
1.26710	58.00
1.28377	58.00
1.30043	58.00
1.31710	58.00
1.33377	58.00
1.35043	58.00
1.36710	58.00
1.38377	58.00
1.40043	58.00
1.41710	58.00
1.43377	58.00
1.45043	58.00
1.46710	58.00
1.48377	58.00
1.50043	58.00
1.51710	58.00
1.53377	58.00
1.55043	58.00
1.56710	58.00
1.58377	58.00
1.60043	58.00
1.61710	58.00
1.63377	58.00
1.65043	58.00
1.66710	58.01
1.68377	58.01
1.70043	58.00
1.71710	58.00
1.73377	58.00
1.75043	58.00
1.76710	58.00
1.78377	58.00
1.80043	58.00
1.81710	58.00
1.83377	58.00
1.85043	58.00
1.86710	58.00
1.88377	58.00
1.90043	58.00
1.91710	58.00
1.93377	58.00
1.95043	58.00
1.96710	58.00
1.98377	58.00
2.00043	58.00
2.01710	58.00
2.03377	58.00
2.05043	58.00
2.06710	58.00
2.08377	58.00
2.10043	58.00
2.11710	58.00
2.13377	58.00
2.15043	58.00
2.16710	58.00
2.18377	58.00
2.20043	58.00
2.21710	58.00
2.23377	58.00
2.25043	58.00
2.26710	58.00
2.28377	58.00
2.30043	58.00
2.31710	58.00
2.33377	58.00
2.35043	58.00
2.36710	58.00
2.38377	57.99
2.40043	57.99
2.41710	58.00
2.43377	58.00
2.45043	58.00
2.46710	58.00
2.48377	58.00
2.50043	58.00
2.51710	57.98
2.53377	57.99
2.55043	58.00
2.56710	58.00
2.58377	58.00
2.60043	58.00
2.61710	58.00
2.63377	58.00
2.65043	58.00
2.66710	58.00
2.68377	58.00
2.70043	58.00
2.71710	58.00
2.73377	58.00
2.75043	58.00
2.76710	58.00
2.78377	58.00
2.80043	58.00
2.81710	58.00
2.83377	58.00
2.85043	58.00
2.86710	58.00
2.88377	58.00
2.90043	58.00
2.91710	58.00
2.93377	58.00
2.95043	58.00
2.96710	58.00
2.98377	58.00
3.00043	58.00
3.01710	58.00
3.03377	58.00
3.05043	58.00
3.06710	58.00
3.08377	58.00
3.10043	58.00
3.11710	58.00
3.13377	58.00
3.15043	58.00
3.16710	58.00
3.18377	58.00
3.20043	58.00
3.21710	58.00
3.23377	58.00
3.25043	58.00
3.26710	58.00
3.28377	58.00
3.30043	58.00
3.31710	58.00
3.33377	58.00
3.35043	58.00
3.36710	58.00
3.38377	58.00
3.40043	58.00
3.41710	58.00
3.43377	58.00
3.45043	58.00
3.46710	58.00
3.48377	58.00
3.50043	58.00
3.51710	58.00
3.53377	58.00
3.55043	58.00
3.56710	58.00
3.58377	58.00
3.60043	58.00
3.61710	58.00
3.63377	58.00
3.65043	58.00
3.66710	58.00
3.68377	58.00
3.70043	58.00
3.71710	58.00
3.73377	58.00
3.75043	58.00
3.76710	58.00
3.78377	58.00
3.80043	58.00
3.81710	58.00
3.83377	58.00
3.85043	58.00
3.86710	58.00
3.88377	58.00
3.90043	58.00
3.91710	58.00
3.93377	58.00
3.95043	58.00
3.96710	58.00
3.98377	58.00

[Status Trace (Carrier Gas Flow)]
Interval(msec)	1000
# of Points	240
Start Time(min)	0.000
End Time(min)	3.984
Intensity Units	
Intensity Multiplier	1
R.Time (min)	Intensity
0.00043	34.52
0.01710	33.82
0.03377	34.54
0.05043	34.54
0.06710	34.51
0.08377	34.51
0.10043	34.52
0.11710	34.52
0.13377	34.52
0.15043	34.52
0.16710	34.52
0.18377	34.52
0.20043	34.52
0.21710	34.52
0.23377	34.52
0.25043	34.52
0.26710	34.52
0.28377	34.52
0.30043	34.52
0.31710	34.52
0.33377	34.52
0.35043	34.52
0.36710	34.52
0.38377	34.52
0.40043	34.52
0.41710	34.52
0.43377	34.52
0.45043	34.52
0.46710	34.52
0.48377	34.52
0.50043	34.52
0.51710	34.52
0.53377	34.52
0.55043	34.52
0.56710	34.52
0.58377	34.52
0.60043	34.52
0.61710	34.52
0.63377	34.52
0.65043	34.52
0.66710	34.52
0.68377	34.52
0.70043	34.52
0.71710	34.52
0.73377	34.52
0.75043	34.52
0.76710	34.52
0.78377	34.52
0.80043	34.52
0.81710	34.52
0.83377	34.52
0.85043	34.52
0.86710	34.52
0.88377	34.52
0.90043	34.52
0.91710	34.52
0.93377	34.52
0.95043	34.52
0.96710	34.52
0.98377	34.52
1.00043	34.52
1.01710	34.52
1.03377	34.52
1.05043	34.52
1.06710	34.52
1.08377	34.52
1.10043	34.52
1.11710	34.52
1.13377	34.52
1.15043	34.52
1.16710	34.52
1.18377	34.52
1.20043	34.52
1.21710	34.52
1.23377	34.52
1.25043	34.52
1.26710	34.52
1.28377	34.52
1.30043	34.52
1.31710	34.52
1.33377	34.52
1.35043	34.52
1.36710	34.52
1.38377	34.52
1.40043	34.52
1.41710	34.52
1.43377	34.52
1.45043	34.52
1.46710	34.52
1.48377	34.52
1.50043	34.52
1.51710	34.52
1.53377	34.52
1.55043	34.52
1.56710	34.52
1.58377	34.52
1.60043	34.52
1.61710	34.52
1.63377	34.52
1.65043	34.52
1.66710	34.52
1.68377	34.52
1.70043	34.52
1.71710	34.52
1.73377	34.52
1.75043	34.52
1.76710	34.52
1.78377	34.51
1.80043	34.51
1.81710	34.52
1.83377	34.52
1.85043	34.52
1.86710	34.52
1.88377	34.52
1.90043	34.52
1.91710	34.52
1.93377	34.52
1.95043	34.52
1.96710	34.52
1.98377	34.53
2.00043	34.52
2.01710	34.52
2.03377	34.52
2.05043	34.52
2.06710	34.52
2.08377	34.52
2.10043	34.52
2.11710	34.52
2.13377	34.52
2.15043	34.52
2.16710	34.52
2.18377	34.52
2.20043	34.52
2.21710	34.52
2.23377	34.52
2.25043	34.52
2.26710	34.52
2.28377	34.52
2.30043	34.52
2.31710	34.52
2.33377	34.52
2.35043	34.50
2.36710	34.53
2.38377	34.52
2.40043	34.52
2.41710	34.52
2.43377	34.52
2.45043	34.52
2.46710	34.52
2.48377	34.52
2.50043	34.52
2.51710	34.52
2.53377	34.52
2.55043	34.52
2.56710	34.52
2.58377	34.52
2.60043	34.52
2.61710	34.52
2.63377	34.52
2.65043	34.52
2.66710	34.52
2.68377	34.52
2.70043	34.52
2.71710	34.52
2.73377	34.52
2.75043	34.52
2.76710	34.52
2.78377	34.52
2.80043	34.52
2.81710	34.52
2.83377	34.52
2.85043	34.52
2.86710	34.52
2.88377	34.52
2.90043	34.51
2.91710	34.52
2.93377	34.52
2.95043	34.52
2.96710	34.52
2.98377	34.52
3.00043	34.52
3.01710	34.52
3.03377	34.52
3.05043	34.52
3.06710	34.52
3.08377	34.52
3.10043	34.52
3.11710	34.52
3.13377	34.52
3.15043	34.52
3.16710	34.52
3.18377	34.52
3.20043	34.52
3.21710	34.52
3.23377	34.52
3.25043	34.52
3.26710	34.52
3.28377	34.52
3.30043	34.52
3.31710	34.51
3.33377	34.52
3.35043	34.52
3.36710	34.52
3.38377	34.52
3.40043	34.52
3.41710	34.52
3.43377	34.52
3.45043	34.52
3.46710	34.52
3.48377	34.52
3.50043	34.52
3.51710	34.52
3.53377	34.52
3.55043	34.52
3.56710	34.52
3.58377	34.52
3.60043	34.52
3.61710	34.52
3.63377	34.52
3.65043	34.52
3.66710	34.52
3.68377	34.52
3.70043	34.52
3.71710	34.52
3.73377	34.52
3.75043	34.52
3.76710	34.52
3.78377	34.52
3.80043	34.52
3.81710	34.52
3.83377	34.52
3.85043	34.52
3.86710	34.52
3.88377	34.52
3.90043	34.52
3.91710	34.52
3.93377	34.52
3.95043	34.52
3.96710	34.52
3.98377	34.52

[Status Trace (Column Flow)]
Interval(msec)	1000
# of Points	240
Start Time(min)	0.000
End Time(min)	3.984
Intensity Units	
Intensity Multiplier	1
R.Time (min)	Intensity
0.00043	5.53
0.01710	5.37
0.03377	5.28
0.05043	5.56
0.06710	5.75
0.08377	5.58
0.10043	5.52
0.11710	5.53
0.13377	5.53
0.15043	5.53
0.16710	5.53
0.18377	5.53
0.20043	5.53
0.21710	5.53
0.23377	5.53
0.25043	5.53
0.26710	5.53
0.28377	5.53
0.30043	5.53
0.31710	5.53
0.33377	5.53
0.35043	5.53
0.36710	5.53
0.38377	5.53
0.40043	5.53
0.41710	5.53
0.43377	5.53
0.45043	5.53
0.46710	5.53
0.48377	5.53
0.50043	5.53
0.51710	5.53
0.53377	5.53
0.55043	5.53
0.56710	5.53
0.58377	5.53
0.60043	5.53
0.61710	5.53
0.63377	5.53
0.65043	5.53
0.66710	5.53
0.68377	5.53
0.70043	5.53
0.71710	5.53
0.73377	5.53
0.75043	5.53
0.76710	5.53
0.78377	5.53
0.80043	5.53
0.81710	5.53
0.83377	5.53
0.85043	5.53
0.86710	5.53
0.88377	5.53
0.90043	5.53
0.91710	5.53
0.93377	5.53
0.95043	5.53
0.96710	5.53
0.98377	5.53
1.00043	5.53
1.01710	5.53
1.03377	5.53
1.05043	5.53
1.06710	5.53
1.08377	5.53
1.10043	5.53
1.11710	5.53
1.13377	5.53
1.15043	5.53
1.16710	5.53
1.18377	5.53
1.20043	5.53
1.21710	5.53
1.23377	5.53
1.25043	5.53
1.26710	5.53
1.28377	5.53
1.30043	5.53
1.31710	5.53
1.33377	5.53
1.35043	5.53
1.36710	5.53
1.38377	5.53
1.40043	5.53
1.41710	5.53
1.43377	5.53
1.45043	5.53
1.46710	5.53
1.48377	5.53
1.50043	5.53
1.51710	5.53
1.53377	5.53
1.55043	5.53
1.56710	5.53
1.58377	5.53
1.60043	5.53
1.61710	5.53
1.63377	5.52
1.65043	5.51
1.66710	5.50
1.68377	5.49
1.70043	5.48
1.71710	5.47
1.73377	5.46
1.75043	5.45
1.76710	5.44
1.78377	5.43
1.80043	5.42
1.81710	5.41
1.83377	5.40
1.85043	5.39
1.86710	5.38
1.88377	5.37
1.90043	5.36
1.91710	5.35
1.93377	5.34
1.95043	5.33
1.96710	5.32
1.98377	5.31
2.00043	5.30
2.01710	5.29
2.03377	5.28
2.05043	5.27
2.06710	5.26
2.08377	5.25
2.10043	5.24
2.11710	5.23
2.13377	5.22
2.15043	5.22
2.16710	5.20
2.18377	5.20
2.20043	5.19
2.21710	5.18
2.23377	5.17
2.25043	5.16
2.26710	5.15
2.28377	5.14
2.30043	5.13
2.31710	5.12
2.33377	5.11
2.35043	5.10
2.36710	5.10
2.38377	5.09
2.40043	5.09
2.41710	5.09
2.43377	5.09
2.45043	5.09
2.46710	5.09
2.48377	5.09
2.50043	5.09
2.51710	5.09
2.53377	5.09
2.55043	5.09
2.56710	5.09
2.58377	5.09
2.60043	5.09
2.61710	5.09
2.63377	5.09
2.65043	5.09
2.66710	5.09
2.68377	5.09
2.70043	5.09
2.71710	5.09
2.73377	5.09
2.75043	5.09
2.76710	5.09
2.78377	5.09
2.80043	5.09
2.81710	5.09
2.83377	5.09
2.85043	5.09
2.86710	5.09
2.88377	5.08
2.90043	5.08
2.91710	5.08
2.93377	5.08
2.95043	5.08
2.96710	5.08
2.98377	5.08
3.00043	5.08
3.01710	5.08
3.03377	5.08
3.05043	5.08
3.06710	5.08
3.08377	5.08
3.10043	5.08
3.11710	5.08
3.13377	5.08
3.15043	5.08
3.16710	5.08
3.18377	5.08
3.20043	5.08
3.21710	5.08
3.23377	5.08
3.25043	5.08
3.26710	5.08
3.28377	5.08
3.30043	5.08
3.31710	5.08
3.33377	5.08
3.35043	5.08
3.36710	5.08
3.38377	5.08
3.40043	5.08
3.41710	5.08
3.43377	5.08
3.45043	5.08
3.46710	5.08
3.48377	5.08
3.50043	5.08
3.51710	5.08
3.53377	5.08
3.55043	5.08
3.56710	5.08
3.58377	5.08
3.60043	5.08
3.61710	5.08
3.63377	5.08
3.65043	5.08
3.66710	5.08
3.68377	5.08
3.70043	5.08
3.71710	5.08
3.73377	5.08
3.75043	5.08
3.76710	5.08
3.78377	5.08
3.80043	5.08
3.81710	5.08
3.83377	5.08
3.85043	5.08
3.86710	5.08
3.88377	5.08
3.90043	5.08
3.91710	5.08
3.93377	5.08
3.95043	5.08
3.96710	5.08
3.98377	5.08

[Status Trace (Linear Velocity)]
Interval(msec)	1000
# of Points	240
Start Time(min)	0.000
End Time(min)	3.984
Intensity Units	
Intensity Multiplier	1
R.Time (min)	Intensity
0.00043	39.01
0.01710	38.14
0.03377	37.64
0.05043	39.19
0.06710	40.26
0.08377	39.34
0.10043	39.00
0.11710	39.02
0.13377	39.02
0.15043	39.02
0.16710	39.02
0.18377	39.02
0.20043	39.02
0.21710	39.02
0.23377	39.02
0.25043	39.02
0.26710	39.02
0.28377	39.02
0.30043	39.02
0.31710	39.02
0.33377	39.02
0.35043	39.02
0.36710	39.02
0.38377	39.02
0.40043	39.02
0.41710	39.02
0.43377	39.02
0.45043	39.02
0.46710	39.02
0.48377	39.02
0.50043	39.02
0.51710	39.02
0.53377	39.02
0.55043	39.02
0.56710	39.02
0.58377	39.02
0.60043	39.02
0.61710	39.02
0.63377	39.02
0.65043	39.02
0.66710	39.02
0.68377	39.02
0.70043	39.02
0.71710	39.02
0.73377	39.02
0.75043	39.02
0.76710	39.02
0.78377	39.02
0.80043	39.02
0.81710	39.02
0.83377	39.02
0.85043	39.02
0.86710	39.02
0.88377	39.02
0.90043	39.02
0.91710	39.02
0.93377	39.02
0.95043	39.02
0.96710	39.02
0.98377	39.02
1.00043	39.02
1.01710	39.02
1.03377	39.02
1.05043	39.02
1.06710	39.02
1.08377	39.02
1.10043	39.02
1.11710	39.02
1.13377	39.02
1.15043	39.02
1.16710	39.02
1.18377	39.02
1.20043	39.02
1.21710	39.02
1.23377	39.02
1.25043	39.02
1.26710	39.02
1.28377	39.02
1.30043	39.02
1.31710	39.02
1.33377	39.02
1.35043	39.02
1.36710	39.02
1.38377	39.02
1.40043	39.02
1.41710	39.02
1.43377	39.02
1.45043	39.02
1.46710	39.02
1.48377	39.02
1.50043	39.02
1.51710	39.02
1.53377	39.02
1.55043	39.02
1.56710	39.02
1.58377	39.02
1.60043	39.02
1.61710	39.01
1.63377	39.00
1.65043	38.98
1.66710	38.94
1.68377	38.91
1.70043	38.88
1.71710	38.84
1.73377	38.81
1.75043	38.78
1.76710	38.75
1.78377	38.72
1.80043	38.68
1.81710	38.65
1.83377	38.63
1.85043	38.59
1.86710	38.56
1.88377	38.53
1.90043	38.50
1.91710	38.47
1.93377	38.44
1.95043	38.41
1.96710	38.37
1.98377	38.35
2.00043	38.32
2.01710	38.29
2.03377	38.26
2.05043	38.23
2.06710	38.20
2.08377	38.17
2.10043	38.14
2.11710	38.11
2.13377	38.08
2.15043	38.05
2.16710	38.02
2.18377	37.99
2.20043	37.96
2.21710	37.93
2.23377	37.90
2.25043	37.87
2.26710	37.84
2.28377	37.81
2.30043	37.78
2.31710	37.75
2.33377	37.72
2.35043	37.69
2.36710	37.67
2.38377	37.66
2.40043	37.65
2.41710	37.66
2.43377	37.66
2.45043	37.66
2.46710	37.66
2.48377	37.66
2.50043	37.65
2.51710	37.64
2.53377	37.65
2.55043	37.65
2.56710	37.65
2.58377	37.65
2.60043	37.65
2.61710	37.65
2.63377	37.65
2.65043	37.65
2.66710	37.65
2.68377	37.65
2.70043	37.65
2.71710	37.65
2.73377	37.65
2.75043	37.65
2.76710	37.65
2.78377	37.65
2.80043	37.64
2.81710	37.64
2.83377	37.64
2.85043	37.64
2.86710	37.64
2.88377	37.64
2.90043	37.63
2.91710	37.63
2.93377	37.63
2.95043	37.63
2.96710	37.63
2.98377	37.63
3.00043	37.63
3.01710	37.63
3.03377	37.63
3.05043	37.63
3.06710	37.63
3.08377	37.63
3.10043	37.63
3.11710	37.63
3.13377	37.62
3.15043	37.63
3.16710	37.63
3.18377	37.63
3.20043	37.63
3.21710	37.63
3.23377	37.63
3.25043	37.63
3.26710	37.63
3.28377	37.63
3.30043	37.63
3.31710	37.63
3.33377	37.63
3.35043	37.63
3.36710	37.63
3.38377	37.63
3.40043	37.63
3.41710	37.63
3.43377	37.63
3.45043	37.63
3.46710	37.63
3.48377	37.63
3.50043	37.63
3.51710	37.63
3.53377	37.63
3.55043	37.63
3.56710	37.63
3.58377	37.63
3.60043	37.63
3.61710	37.63
3.63377	37.63
3.65043	37.63
3.66710	37.63
3.68377	37.63
3.70043	37.63
3.71710	37.63
3.73377	37.63
3.75043	37.63
3.76710	37.63
3.78377	37.63
3.80043	37.63
3.81710	37.63
3.83377	37.63
3.85043	37.63
3.86710	37.63
3.88377	37.63
3.90043	37.63
3.91710	37.63
3.93377	37.63
3.95043	37.63
3.96710	37.63
3.98377	37.63

