[Header]
Application Name	LabSolutions
Version	5.110
Data File Name	C:\Users\User\Desktop\GC Analyses\Jack\UIC Prairie Sampling\7.22.22\220722_023.gcd
Output Date	10/5/2022
Output Time	2:13:39 PM

[File Information]
Type	Data File
Generated	9/26/2022 1:21:33 PM
Generated by	System Administrator
Modified	9/26/2022 1:28:55 PM
Modified by	System Administrator

[Sample Information]
Operator Name	System Administrator
Acquired	9/26/2022 1:24:55 PM
Sample Type	1:Standard
Level	1
Sample Name	220722_UICPrairie
Sample ID	220722_UICPrairie
ISTD Amount1	1
ISTD Amount2	1
ISTD Amount3	1
ISTD Amount4	1
ISTD Amount5	1
ISTD Amount6	1
ISTD Amount7	1
ISTD Amount8	1
ISTD Amount9	1
ISTD Amount10	1
ISTD Amount11	1
ISTD Amount12	1
ISTD Amount13	1
ISTD Amount14	1
ISTD Amount15	1
ISTD Amount16	1
ISTD Amount17	1
ISTD Amount18	1
ISTD Amount19	1
ISTD Amount20	1
ISTD Amount21	1
ISTD Amount22	1
ISTD Amount23	1
ISTD Amount24	1
ISTD Amount25	1
ISTD Amount26	1
ISTD Amount27	1
ISTD Amount28	1
ISTD Amount29	1
ISTD Amount30	1
ISTD Amount31	1
ISTD Amount32	1
Sample Amount	1
Dilution Factor	1
Vial#	1
Injection Volume	1
Injection Count	1
Bar Code	

[Original Files]
Data File	C:\Users\User\Desktop\GC Analyses\Jack\UIC Prairie Sampling\7.22.22\220722_023.gcd
Method File	C:\LabSolutions\Data\GHG_4min_2022\ghg3_togas_w_acet_4 min_new_int.gcm
Batch File	
Report Format File	c:\LabSolutions\System\DEFAULT.lsr

[File Description]


[Configuration]
Instrument Name	C0B7VH3-Instrument1
Instrument #	1
Line #	1
# of Detectors	3
Detector ID	DET#1	DET#2	DET#3
Detector Name	FID	PTCD	ECD
# of Channels	1	1	1

[Peak Table(Ch1)]
# of Peaks	3
Peak#	R.Time	I.Time	F.Time	Area	Height	A/H	Conc.	Mark	ID#	Name	k'	Plate #	Plate Ht.	Tailing	Resolution	Sep.Factor	Area Ratio	Height Ratio	Conc. %	Norm Conc.
1	1.479	1.439	1.542	19851	9203	2.157	100.000	   	1	CO	0.000	8945	16.770	1.204	0.000	0.000	0	0	16.667	16.667
2	1.575	1.542	1.626	4590	2362	1.943	100.000	 V 	2	CH4	0.064	11903	12.602	1.091	1.585	0.000	0	0	16.667	16.667
3	2.004	1.952	2.282	1419336	695547	2.041	400.000	   	3	CO2	0.354	18154	8.262	1.154	7.320	5.500	0	0	66.667	66.667

[Peak Table(Ch2)]
# of Peaks	0

[Peak Table(Ch3)]
# of Peaks	2
Peak#	R.Time	I.Time	F.Time	Area	Height	A/H	Conc.	Mark	ID#	Name	k'	Plate #	Plate Ht.	Tailing	Resolution	Sep.Factor	Area Ratio	Height Ratio	Conc. %	Norm Conc.
1	2.455	1.600	2.653	9980	310	32.186	0.000	   			0.000	195	769.203	0.623	0.000	0.000	0	0	0.000	0.000
2	2.887	2.664	3.254	21308	5015	4.248	1.000	   	1	N2O	0.176	12909	11.620	1.594	1.075	0.000	0	0	100.000	100.000

[Compound Results(Ch1)]
# of IDs	6
ID#	Name	R.Time	Area	Height	Conc.	Curve	3rd	2nd	1st	Constant	Area Ratio	Height Ratio	Conc. %	Norm Conc.
1	CO	1.479	19851	9203	100.000	Linear	0.000000e+00	0.000000e+00	1.985134e+002	0.000000e+00	0	0	16.667	16.667
2	CH4	1.575	4590	2362	100.000	Linear	0.000000e+00	0.000000e+00	4.589593e+001	0.000000e+00	0	0	16.667	16.667
3	CO2	2.004	1419336	695547	400.000	Linear	0.000000e+00	0.000000e+00	3.548340e+003	0.000000e+00	0	0	66.667	66.667
4	Ethylene	0.000	0	0	0.000	Linear	0.000000e+00	0.000000e+00	0.000000e+00	0.000000e+00	0	0	0.000	0.000
5	Acetylene	0.000	0	0	0.000	Linear	0.000000e+00	0.000000e+00	0.000000e+00	0.000000e+00	0	0	0.000	0.000
6	Ethane	0.000	0	0	0.000	Linear	0.000000e+00	0.000000e+00	0.000000e+00	0.000000e+00	0	0	0.000	0.000

[Compound Results(Ch2)]
# of IDs	5
ID#	Name	R.Time	Area	Height	Conc.	Curve	3rd	2nd	1st	Constant	Area Ratio	Height Ratio	Conc. %	Norm Conc.
1	Hydrogen	0.000	0	0	0.000	Linear	0.000000e+00	0.000000e+00	0.000000e+00	0.000000e+00	0	0	0.000	0.000
2	Oxygen	0.000	0	0	0.000	Linear	0.000000e+00	0.000000e+00	0.000000e+00	0.000000e+00	0	0	0.000	0.000
3	Nitrogen	0.000	0	0	0.000	Linear	0.000000e+00	0.000000e+00	0.000000e+00	0.000000e+00	0	0	0.000	0.000
4	Methane	0.000	0	0	0.000	Linear	0.000000e+00	0.000000e+00	0.000000e+00	0.000000e+00	0	0	0.000	0.000
5	Carbon Monoxide	0.000	0	0	0.000	Linear	0.000000e+00	0.000000e+00	0.000000e+00	0.000000e+00	0	0	0.000	0.000

[Compound Results(Ch3)]
# of IDs	2
ID#	Name	R.Time	Area	Height	Conc.	Curve	3rd	2nd	1st	Constant	Area Ratio	Height Ratio	Conc. %	Norm Conc.
1	N2O	2.887	21308	5015	1.000	Linear	0.000000e+00	0.000000e+00	2.130775e+004	0.000000e+00	0	0	100.000	100.000
2	SF6	0.000	0	0	0.000	Linear	0.000000e+00	0.000000e+00	0.000000e+00	0.000000e+00	0	0	0.000	0.000

[Group Results(Ch1)]
# of Groups	0

[Group Results(Ch2)]
# of Groups	0

[Group Results(Ch3)]
# of Groups	0

[Chromatogram (Ch1)]
Interval(msec)	220
# of Points	1091
Start Time(min)	0.002
End Time(min)	3.998
R.Time (min)	Intensity
0.00167	-7
0.00533	-8
0.00900	-6
0.01267	-2
0.01633	4
0.02000	9
0.02367	11
0.02733	10
0.03100	13
0.03467	18
0.03833	21
0.04200	20
0.04567	18
0.04933	15
0.05300	8
0.05667	-0
0.06033	-7
0.06400	-12
0.06767	-15
0.07133	-12
0.07500	-8
0.07867	-6
0.08233	-4
0.08600	-3
0.08967	-5
0.09333	-7
0.09700	-9
0.10067	-12
0.10433	-17
0.10800	-22
0.11167	-25
0.11533	-25
0.11900	-25
0.12267	-25
0.12633	-25
0.13000	-21
0.13367	-18
0.13733	-16
0.14100	-11
0.14467	-5
0.14833	-1
0.15200	1
0.15567	-0
0.15933	-4
0.16300	-10
0.16667	-13
0.17033	-12
0.17400	-8
0.17767	-5
0.18133	-6
0.18500	-10
0.18867	-13
0.19233	-13
0.19600	-11
0.19967	-9
0.20333	-10
0.20700	-12
0.21067	-15
0.21433	-14
0.21800	-9
0.22167	-5
0.22533	-5
0.22900	-5
0.23267	-6
0.23633	-9
0.24000	-14
0.24367	-20
0.24733	-25
0.25100	-27
0.25467	-26
0.25833	-25
0.26200	-24
0.26567	-24
0.26933	-27
0.27300	-31
0.27667	-34
0.28033	-31
0.28400	-27
0.28767	-22
0.29133	-15
0.29500	-9
0.29867	-5
0.30233	-2
0.30600	-0
0.30967	1
0.31333	-2
0.31700	-9
0.32067	-15
0.32433	-18
0.32800	-19
0.33167	-18
0.33533	-18
0.33900	-18
0.34267	-14
0.34633	-10
0.35000	-8
0.35367	-7
0.35733	-6
0.36100	-6
0.36467	-11
0.36833	-21
0.37200	-33
0.37567	-42
0.37933	-46
0.38300	-45
0.38667	-39
0.39033	-31
0.39400	-25
0.39767	-19
0.40133	-15
0.40500	-15
0.40867	-19
0.41233	-21
0.41600	-22
0.41967	-21
0.42333	-22
0.42700	-20
0.43067	-16
0.43433	-11
0.43800	-11
0.44167	-15
0.44533	-19
0.44900	-24
0.45267	-30
0.45633	-34
0.46000	-33
0.46367	-31
0.46733	-27
0.47100	-24
0.47467	-22
0.47833	-18
0.48200	-14
0.48567	-10
0.48933	-10
0.49300	-15
0.49667	-20
0.50033	-23
0.50400	-24
0.50767	-25
0.51133	-29
0.51500	-31
0.51867	-33
0.52233	-38
0.52600	-44
0.52967	-44
0.53333	-43
0.53700	-43
0.54067	-42
0.54433	-40
0.54800	-36
0.55167	-31
0.55533	-26
0.55900	-22
0.56267	-18
0.56633	-13
0.57000	-10
0.57367	-15
0.57733	-21
0.58100	-27
0.58467	-31
0.58833	-33
0.59200	-34
0.59567	-32
0.59933	-30
0.60300	-29
0.60667	-28
0.61033	-29
0.61400	-31
0.61767	-31
0.62133	-33
0.62500	-38
0.62867	-42
0.63233	-45
0.63600	-47
0.63967	-51
0.64333	-53
0.64700	-52
0.65067	-48
0.65433	-47
0.65800	-51
0.66167	-56
0.66533	-59
0.66900	-58
0.67267	-54
0.67633	-51
0.68000	-48
0.68367	-49
0.68733	-52
0.69100	-54
0.69467	-55
0.69833	-54
0.70200	-54
0.70567	-53
0.70933	-46
0.71300	-35
0.71667	-29
0.72033	-32
0.72400	-37
0.72767	-44
0.73133	-54
0.73500	-63
0.73867	-69
0.74233	-70
0.74600	-67
0.74967	-64
0.75333	-63
0.75700	-61
0.76067	-59
0.76433	-57
0.76800	-55
0.77167	-55
0.77533	-54
0.77900	-51
0.78267	-49
0.78633	-47
0.79000	-43
0.79367	-34
0.79733	-26
0.80100	-21
0.80467	-21
0.80833	-24
0.81200	-26
0.81567	-26
0.81933	-25
0.82300	-25
0.82667	-28
0.83033	-33
0.83400	-34
0.83767	-32
0.84133	-30
0.84500	-32
0.84867	-36
0.85233	-42
0.85600	-45
0.85967	-50
0.86333	-54
0.86700	-60
0.87067	-64
0.87433	-63
0.87800	-57
0.88167	-48
0.88533	-41
0.88900	-36
0.89267	-37
0.89633	-42
0.90000	-50
0.90367	-55
0.90733	-56
0.91100	-57
0.91467	-57
0.91833	-56
0.92200	-52
0.92567	-46
0.92933	-41
0.93300	-40
0.93667	-42
0.94033	-45
0.94400	-46
0.94767	-47
0.95133	-48
0.95500	-46
0.95867	-47
0.96233	-53
0.96600	-58
0.96967	-63
0.97333	-63
0.97700	-57
0.98067	-49
0.98433	-43
0.98800	-38
0.99167	-34
0.99533	-32
0.99900	-35
1.00267	-43
1.00633	-49
1.01000	-50
1.01367	-49
1.01733	-50
1.02100	-55
1.02467	-62
1.02833	-67
1.03200	-69
1.03567	-65
1.03933	-60
1.04300	-58
1.04667	-56
1.05033	-53
1.05400	-49
1.05767	-50
1.06133	-52
1.06500	-52
1.06867	-53
1.07233	-56
1.07600	-58
1.07967	-60
1.08333	-61
1.08700	-62
1.09067	-62
1.09433	-63
1.09800	-66
1.10167	-65
1.10533	-59
1.10900	-52
1.11267	-41
1.11633	-33
1.12000	-32
1.12367	-36
1.12733	-43
1.13100	-48
1.13467	-55
1.13833	-62
1.14200	-72
1.14567	-78
1.14933	-77
1.15300	-72
1.15667	-68
1.16033	-64
1.16400	-63
1.16767	-64
1.17133	-62
1.17500	-59
1.17867	-57
1.18233	-55
1.18600	-52
1.18967	-47
1.19333	-44
1.19700	-41
1.20067	-42
1.20433	-47
1.20800	-51
1.21167	-55
1.21533	-59
1.21900	-61
1.22267	-60
1.22633	-54
1.23000	-49
1.23367	-50
1.23733	-55
1.24100	-61
1.24467	-64
1.24833	-64
1.25200	-61
1.25567	-61
1.25933	-64
1.26300	-67
1.26667	-69
1.27033	-72
1.27400	-74
1.27767	-74
1.28133	-71
1.28500	-67
1.28867	-62
1.29233	-58
1.29600	-55
1.29967	-54
1.30333	-55
1.30700	-60
1.31067	-64
1.31433	-63
1.31800	-60
1.32167	-58
1.32533	-58
1.32900	-62
1.33267	-65
1.33633	-66
1.34000	-68
1.34367	-74
1.34733	-77
1.35100	-75
1.35467	-73
1.35833	-73
1.36200	-75
1.36567	-79
1.36933	-81
1.37300	-80
1.37667	-78
1.38033	-74
1.38400	-67
1.38767	-61
1.39133	-57
1.39500	-54
1.39867	-55
1.40233	-60
1.40600	-67
1.40967	-76
1.41333	-82
1.41700	-82
1.42067	-78
1.42433	-71
1.42800	-67
1.43167	-68
1.43533	-69
1.43900	-66
1.44267	-37
1.44633	93
1.45000	436
1.45367	1081
1.45733	2158
1.46100	3683
1.46467	5397
1.46833	6961
1.47200	8162
1.47567	8903
1.47933	9131
1.48300	8804
1.48667	7955
1.49033	6732
1.49400	5365
1.49767	4071
1.50133	2978
1.50500	2120
1.50867	1475
1.51233	1008
1.51600	679
1.51967	452
1.52333	293
1.52700	179
1.53067	100
1.53433	42
1.53800	3
1.54167	-13
1.54533	20
1.54900	163
1.55267	465
1.55633	898
1.56000	1368
1.56367	1784
1.56733	2092
1.57100	2266
1.57467	2276
1.57833	2104
1.58200	1779
1.58567	1382
1.58933	997
1.59300	676
1.59667	433
1.60033	257
1.60400	133
1.60767	47
1.61133	-14
1.61500	-54
1.61867	-75
1.62233	-86
1.62600	-93
1.62967	-98
1.63333	-100
1.63700	-98
1.64067	-93
1.64433	-87
1.64800	-83
1.65167	-84
1.65533	-89
1.65900	-91
1.66267	-91
1.66633	-86
1.67000	-82
1.67367	-81
1.67733	-81
1.68100	-86
1.68467	-95
1.68833	-104
1.69200	-111
1.69567	-113
1.69933	-113
1.70300	-114
1.70667	-113
1.71033	-109
1.71400	-103
1.71767	-98
1.72133	-94
1.72500	-90
1.72867	-90
1.73233	-92
1.73600	-96
1.73967	-100
1.74333	-105
1.74700	-105
1.75067	-102
1.75433	-99
1.75800	-99
1.76167	-100
1.76533	-101
1.76900	-98
1.77267	-90
1.77633	-82
1.78000	-76
1.78367	-72
1.78733	-73
1.79100	-76
1.79467	-81
1.79833	-86
1.80200	-90
1.80567	-89
1.80933	-87
1.81300	-86
1.81667	-89
1.82033	-94
1.82400	-101
1.82767	-104
1.83133	-103
1.83500	-99
1.83867	-94
1.84233	-92
1.84600	-95
1.84967	-96
1.85333	-92
1.85700	-87
1.86067	-84
1.86433	-83
1.86800	-82
1.87167	-84
1.87533	-86
1.87900	-89
1.88267	-90
1.88633	-91
1.89000	-91
1.89367	-88
1.89733	-81
1.90100	-75
1.90467	-69
1.90833	-63
1.91200	-59
1.91567	-57
1.91933	-59
1.92300	-65
1.92667	-72
1.93033	-77
1.93400	-79
1.93767	-77
1.94133	-75
1.94500	-73
1.94867	-69
1.95233	-64
1.95600	-53
1.95967	11
1.96333	411
1.96700	2400
1.97067	9926
1.97433	31579
1.97800	79859
1.98167	164493
1.98533	282711
1.98900	417129
1.99267	543699
1.99633	640969
2.00000	694015
2.00367	695521
2.00733	647697
2.01100	562492
2.01467	457993
2.01833	352391
2.02200	258827
2.02567	183476
2.02933	126871
2.03300	86411
2.03667	58464
2.04033	39591
2.04400	27019
2.04767	18697
2.05133	13191
2.05500	9526
2.05867	7056
2.06233	5363
2.06600	4182
2.06967	3345
2.07333	2739
2.07700	2293
2.08067	1954
2.08433	1691
2.08800	1479
2.09167	1306
2.09533	1163
2.09900	1044
2.10267	949
2.10633	872
2.11000	809
2.11367	755
2.11733	704
2.12100	655
2.12467	610
2.12833	570
2.13200	535
2.13567	503
2.13933	477
2.14300	457
2.14667	440
2.15033	422
2.15400	401
2.15767	383
2.16133	370
2.16500	361
2.16867	354
2.17233	343
2.17600	328
2.17967	312
2.18333	296
2.18700	283
2.19067	270
2.19433	260
2.19800	253
2.20167	248
2.20533	244
2.20900	241
2.21267	236
2.21633	228
2.22000	222
2.22367	219
2.22733	220
2.23100	219
2.23467	217
2.23833	214
2.24200	212
2.24567	209
2.24933	203
2.25300	196
2.25667	191
2.26033	189
2.26400	189
2.26767	190
2.27133	191
2.27500	189
2.27867	183
2.28233	177
2.28600	172
2.28967	173
2.29333	175
2.29700	177
2.30067	177
2.30433	173
2.30800	167
2.31167	164
2.31533	163
2.31900	158
2.32267	150
2.32633	141
2.33000	137
2.33367	138
2.33733	141
2.34100	143
2.34467	144
2.34833	148
2.35200	154
2.35567	159
2.35933	160
2.36300	156
2.36667	151
2.37033	148
2.37400	147
2.37767	146
2.38133	147
2.38500	145
2.38867	144
2.39233	145
2.39600	145
2.39967	145
2.40333	148
2.40700	155
2.41067	160
2.41433	164
2.41800	163
2.42167	159
2.42533	155
2.42900	153
2.43267	153
2.43633	155
2.44000	157
2.44367	155
2.44733	148
2.45100	137
2.45467	126
2.45833	119
2.46200	116
2.46567	118
2.46933	124
2.47300	129
2.47667	132
2.48033	130
2.48400	125
2.48767	117
2.49133	110
2.49500	106
2.49867	107
2.50233	111
2.50600	116
2.50967	121
2.51333	122
2.51700	122
2.52067	120
2.52433	119
2.52800	118
2.53167	120
2.53533	124
2.53900	127
2.54267	128
2.54633	128
2.55000	129
2.55367	128
2.55733	126
2.56100	120
2.56467	111
2.56833	100
2.57200	93
2.57567	92
2.57933	96
2.58300	100
2.58667	101
2.59033	103
2.59400	104
2.59767	104
2.60133	106
2.60500	107
2.60867	104
2.61233	99
2.61600	91
2.61967	86
2.62333	85
2.62700	84
2.63067	83
2.63433	84
2.63800	88
2.64167	94
2.64533	95
2.64900	90
2.65267	84
2.65633	79
2.66000	78
2.66367	78
2.66733	76
2.67100	75
2.67467	72
2.67833	69
2.68200	68
2.68567	67
2.68933	68
2.69300	71
2.69667	73
2.70033	78
2.70400	87
2.70767	95
2.71133	97
2.71500	93
2.71867	86
2.72233	80
2.72600	78
2.72967	77
2.73333	76
2.73700	71
2.74067	64
2.74433	58
2.74800	55
2.75167	53
2.75533	54
2.75900	58
2.76267	64
2.76633	69
2.77000	69
2.77367	70
2.77733	74
2.78100	80
2.78467	85
2.78833	85
2.79200	80
2.79567	75
2.79933	72
2.80300	72
2.80667	72
2.81033	72
2.81400	67
2.81767	60
2.82133	56
2.82500	54
2.82867	52
2.83233	50
2.83600	52
2.83967	62
2.84333	71
2.84700	74
2.85067	72
2.85433	65
2.85800	59
2.86167	57
2.86533	61
2.86900	67
2.87267	69
2.87633	67
2.88000	65
2.88367	63
2.88733	64
2.89100	67
2.89467	68
2.89833	68
2.90200	64
2.90567	57
2.90933	52
2.91300	50
2.91667	49
2.92033	50
2.92400	53
2.92767	56
2.93133	59
2.93500	59
2.93867	59
2.94233	59
2.94600	61
2.94967	63
2.95333	62
2.95700	61
2.96067	61
2.96433	62
2.96800	65
2.97167	71
2.97533	69
2.97900	61
2.98267	52
2.98633	49
2.99000	50
2.99367	54
2.99733	58
3.00100	59
3.00467	60
3.00833	61
3.01200	63
3.01567	63
3.01933	64
3.02300	65
3.02667	66
3.03033	70
3.03400	74
3.03767	77
3.04133	77
3.04500	74
3.04867	69
3.05233	65
3.05600	61
3.05967	58
3.06333	57
3.06700	59
3.07067	64
3.07433	65
3.07800	62
3.08167	57
3.08533	51
3.08900	45
3.09267	39
3.09633	36
3.10000	36
3.10367	39
3.10733	45
3.11100	54
3.11467	64
3.11833	72
3.12200	78
3.12567	79
3.12933	75
3.13300	67
3.13667	59
3.14033	51
3.14400	43
3.14767	41
3.15133	45
3.15500	54
3.15867	62
3.16233	67
3.16600	69
3.16967	70
3.17333	72
3.17700	72
3.18067	71
3.18433	68
3.18800	65
3.19167	64
3.19533	64
3.19900	66
3.20267	69
3.20633	67
3.21000	63
3.21367	61
3.21733	60
3.22100	63
3.22467	69
3.22833	75
3.23200	77
3.23567	74
3.23933	69
3.24300	63
3.24667	59
3.25033	60
3.25400	58
3.25767	52
3.26133	51
3.26500	54
3.26867	56
3.27233	58
3.27600	61
3.27967	69
3.28333	80
3.28700	92
3.29067	96
3.29433	92
3.29800	80
3.30167	67
3.30533	56
3.30900	50
3.31267	46
3.31633	45
3.32000	49
3.32367	54
3.32733	60
3.33100	65
3.33467	72
3.33833	78
3.34200	79
3.34567	77
3.34933	79
3.35300	83
3.35667	90
3.36033	99
3.36400	104
3.36767	104
3.37133	100
3.37500	94
3.37867	91
3.38233	92
3.38600	104
3.38967	121
3.39333	136
3.39700	146
3.40067	153
3.40433	164
3.40800	178
3.41167	193
3.41533	206
3.41900	213
3.42267	219
3.42633	224
3.43000	228
3.43367	229
3.43733	230
3.44100	232
3.44467	239
3.44833	249
3.45200	259
3.45567	264
3.45933	268
3.46300	272
3.46667	275
3.47033	275
3.47400	273
3.47767	270
3.48133	270
3.48500	269
3.48867	269
3.49233	273
3.49600	278
3.49967	281
3.50333	282
3.50700	282
3.51067	283
3.51433	282
3.51800	281
3.52167	283
3.52533	288
3.52900	289
3.53267	284
3.53633	277
3.54000	270
3.54367	267
3.54733	268
3.55100	272
3.55467	278
3.55833	285
3.56200	292
3.56567	293
3.56933	289
3.57300	281
3.57667	274
3.58033	270
3.58400	267
3.58767	263
3.59133	257
3.59500	250
3.59867	241
3.60233	237
3.60600	237
3.60967	240
3.61333	246
3.61700	250
3.62067	250
3.62433	246
3.62800	243
3.63167	243
3.63533	241
3.63900	238
3.64267	235
3.64633	231
3.65000	230
3.65367	232
3.65733	233
3.66100	234
3.66467	236
3.66833	239
3.67200	242
3.67567	245
3.67933	247
3.68300	245
3.68667	241
3.69033	238
3.69400	237
3.69767	236
3.70133	236
3.70500	231
3.70867	225
3.71233	221
3.71600	220
3.71967	224
3.72333	229
3.72700	234
3.73067	233
3.73433	228
3.73800	222
3.74167	219
3.74533	215
3.74900	210
3.75267	202
3.75633	195
3.76000	192
3.76367	195
3.76733	205
3.77100	217
3.77467	232
3.77833	244
3.78200	252
3.78567	251
3.78933	234
3.79300	210
3.79667	190
3.80033	177
3.80400	173
3.80767	173
3.81133	175
3.81500	179
3.81867	183
3.82233	186
3.82600	188
3.82967	190
3.83333	194
3.83700	199
3.84067	202
3.84433	197
3.84800	186
3.85167	176
3.85533	171
3.85900	172
3.86267	178
3.86633	186
3.87000	193
3.87367	195
3.87733	191
3.88100	185
3.88467	183
3.88833	186
3.89200	192
3.89567	197
3.89933	197
3.90300	194
3.90667	191
3.91033	190
3.91400	192
3.91767	196
3.92133	199
3.92500	200
3.92867	196
3.93233	190
3.93600	187
3.93967	188
3.94333	194
3.94700	202
3.95067	207
3.95433	208
3.95800	207
3.96167	206
3.96533	203
3.96900	199
3.97267	195
3.97633	188
3.98000	181
3.98367	178
3.98733	179
3.99100	181
3.99467	181
3.99833	180

[Chromatogram (Ch2)]
Interval(msec)	220
# of Points	1091
Start Time(min)	0.002
End Time(min)	3.998
R.Time (min)	Intensity
0.00167	1
0.00533	1
0.00900	1
0.01267	1
0.01633	1
0.02000	1
0.02367	0
0.02733	0
0.03100	0
0.03467	-0
0.03833	-0
0.04200	-0
0.04567	-1
0.04933	-1
0.05300	-1
0.05667	-1
0.06033	-1
0.06400	-1
0.06767	-1
0.07133	-1
0.07500	-1
0.07867	-0
0.08233	0
0.08600	1
0.08967	1
0.09333	1
0.09700	1
0.10067	1
0.10433	2
0.10800	2
0.11167	2
0.11533	1
0.11900	1
0.12267	1
0.12633	2
0.13000	2
0.13367	2
0.13733	1
0.14100	1
0.14467	1
0.14833	0
0.15200	0
0.15567	-0
0.15933	-0
0.16300	-0
0.16667	-0
0.17033	-0
0.17400	-0
0.17767	-0
0.18133	-0
0.18500	0
0.18867	0
0.19233	1
0.19600	1
0.19967	1
0.20333	1
0.20700	1
0.21067	1
0.21433	1
0.21800	1
0.22167	0
0.22533	0
0.22900	0
0.23267	-0
0.23633	-0
0.24000	-0
0.24367	-0
0.24733	-0
0.25100	-0
0.25467	-0
0.25833	-0
0.26200	-0
0.26567	0
0.26933	0
0.27300	1
0.27667	1
0.28033	1
0.28400	1
0.28767	1
0.29133	1
0.29500	1
0.29867	1
0.30233	1
0.30600	1
0.30967	1
0.31333	1
0.31700	1
0.32067	1
0.32433	1
0.32800	1
0.33167	1
0.33533	1
0.33900	1
0.34267	1
0.34633	1
0.35000	1
0.35367	1
0.35733	1
0.36100	1
0.36467	0
0.36833	-0
0.37200	-0
0.37567	-1
0.37933	-1
0.38300	-1
0.38667	-1
0.39033	-1
0.39400	-0
0.39767	-1
0.40133	-1
0.40500	-1
0.40867	-1
0.41233	-1
0.41600	-1
0.41967	-0
0.42333	-0
0.42700	-0
0.43067	-0
0.43433	-0
0.43800	-1
0.44167	-1
0.44533	-1
0.44900	-1
0.45267	-1
0.45633	-2
0.46000	-2
0.46367	-2
0.46733	-3
0.47100	-3
0.47467	-3
0.47833	-3
0.48200	-3
0.48567	-3
0.48933	-3
0.49300	-3
0.49667	-3
0.50033	-2
0.50400	-2
0.50767	-2
0.51133	-2
0.51500	-1
0.51867	-1
0.52233	-1
0.52600	-1
0.52967	-1
0.53333	-1
0.53700	-1
0.54067	-1
0.54433	-1
0.54800	-1
0.55167	-1
0.55533	-1
0.55900	-0
0.56267	-0
0.56633	-0
0.57000	-0
0.57367	0
0.57733	0
0.58100	0
0.58467	0
0.58833	0
0.59200	0
0.59567	0
0.59933	1
0.60300	1
0.60667	1
0.61033	1
0.61400	1
0.61767	0
0.62133	0
0.62500	0
0.62867	0
0.63233	0
0.63600	-0
0.63967	-0
0.64333	-0
0.64700	-0
0.65067	0
0.65433	0
0.65800	0
0.66167	0
0.66533	0
0.66900	1
0.67267	1
0.67633	1
0.68000	1
0.68367	1
0.68733	2
0.69100	2
0.69467	2
0.69833	2
0.70200	2
0.70567	2
0.70933	2
0.71300	1
0.71667	1
0.72033	1
0.72400	1
0.72767	1
0.73133	1
0.73500	1
0.73867	1
0.74233	1
0.74600	1
0.74967	1
0.75333	1
0.75700	1
0.76067	1
0.76433	0
0.76800	-0
0.77167	-0
0.77533	-1
0.77900	-1
0.78267	-2
0.78633	-2
0.79000	-3
0.79367	-4
0.79733	-5
0.80100	-5
0.80467	-5
0.80833	-6
0.81200	-6
0.81567	-6
0.81933	-6
0.82300	-6
0.82667	-6
0.83033	-6
0.83400	-6
0.83767	-5
0.84133	-5
0.84500	-5
0.84867	-4
0.85233	-4
0.85600	-4
0.85967	-4
0.86333	-4
0.86700	-4
0.87067	-3
0.87433	-3
0.87800	-3
0.88167	-3
0.88533	-3
0.88900	-3
0.89267	-3
0.89633	-2
0.90000	-2
0.90367	-2
0.90733	-1
0.91100	-1
0.91467	-0
0.91833	1
0.92200	1
0.92567	1
0.92933	2
0.93300	2
0.93667	3
0.94033	3
0.94400	3
0.94767	3
0.95133	3
0.95500	3
0.95867	3
0.96233	3
0.96600	4
0.96967	4
0.97333	4
0.97700	4
0.98067	4
0.98433	4
0.98800	4
0.99167	4
0.99533	3
0.99900	3
1.00267	3
1.00633	2
1.01000	2
1.01367	1
1.01733	1
1.02100	1
1.02467	1
1.02833	0
1.03200	0
1.03567	0
1.03933	1
1.04300	1
1.04667	1
1.05033	1
1.05400	1
1.05767	1
1.06133	1
1.06500	1
1.06867	0
1.07233	0
1.07600	-0
1.07967	-0
1.08333	-1
1.08700	-1
1.09067	-1
1.09433	-1
1.09800	-1
1.10167	-1
1.10533	-2
1.10900	-2
1.11267	-2
1.11633	-3
1.12000	-3
1.12367	-3
1.12733	-4
1.13100	-3
1.13467	-3
1.13833	-3
1.14200	-3
1.14567	-3
1.14933	-3
1.15300	-3
1.15667	-3
1.16033	-2
1.16400	-2
1.16767	-2
1.17133	-2
1.17500	-3
1.17867	-3
1.18233	-3
1.18600	-3
1.18967	-3
1.19333	-3
1.19700	-3
1.20067	-3
1.20433	-3
1.20800	-4
1.21167	-4
1.21533	-4
1.21900	-4
1.22267	-4
1.22633	-4
1.23000	-3
1.23367	-3
1.23733	-3
1.24100	-2
1.24467	-2
1.24833	-1
1.25200	-1
1.25567	-1
1.25933	-0
1.26300	0
1.26667	1
1.27033	2
1.27400	2
1.27767	3
1.28133	3
1.28500	3
1.28867	3
1.29233	3
1.29600	3
1.29967	3
1.30333	3
1.30700	2
1.31067	2
1.31433	2
1.31800	1
1.32167	1
1.32533	1
1.32900	1
1.33267	1
1.33633	1
1.34000	1
1.34367	1
1.34733	1
1.35100	2
1.35467	2
1.35833	2
1.36200	2
1.36567	2
1.36933	3
1.37300	3
1.37667	3
1.38033	3
1.38400	3
1.38767	3
1.39133	3
1.39500	2
1.39867	2
1.40233	2
1.40600	2
1.40967	2
1.41333	1
1.41700	1
1.42067	1
1.42433	1
1.42800	0
1.43167	0
1.43533	0
1.43900	0
1.44267	0
1.44633	0
1.45000	0
1.45367	0
1.45733	0
1.46100	0
1.46467	0
1.46833	0
1.47200	0
1.47567	1
1.47933	1
1.48300	1
1.48667	2
1.49033	2
1.49400	2
1.49767	2
1.50133	2
1.50500	2
1.50867	2
1.51233	2
1.51600	2
1.51967	2
1.52333	2
1.52700	2
1.53067	2
1.53433	1
1.53800	1
1.54167	1
1.54533	1
1.54900	1
1.55267	1
1.55633	1
1.56000	1
1.56367	1
1.56733	1
1.57100	1
1.57467	0
1.57833	-0
1.58200	-0
1.58567	-0
1.58933	-1
1.59300	-1
1.59667	-1
1.60033	-2
1.60400	-3
1.60767	-4
1.61133	-6
1.61500	-8
1.61867	-10
1.62233	-13
1.62600	-17
1.62967	-20
1.63333	-23
1.63700	-27
1.64067	-31
1.64433	-35
1.64800	-39
1.65167	-43
1.65533	-47
1.65900	-51
1.66267	-55
1.66633	-59
1.67000	-63
1.67367	-68
1.67733	-72
1.68100	-77
1.68467	-81
1.68833	-86
1.69200	-89
1.69567	-93
1.69933	-96
1.70300	-98
1.70667	-100
1.71033	-101
1.71400	-102
1.71767	-103
1.72133	-104
1.72500	-105
1.72867	-106
1.73233	-108
1.73600	-109
1.73967	-110
1.74333	-111
1.74700	-112
1.75067	-112
1.75433	-112
1.75800	-112
1.76167	-112
1.76533	-112
1.76900	-111
1.77267	-111
1.77633	-111
1.78000	-111
1.78367	-112
1.78733	-112
1.79100	-113
1.79467	-114
1.79833	-115
1.80200	-116
1.80567	-117
1.80933	-118
1.81300	-118
1.81667	-119
1.82033	-119
1.82400	-119
1.82767	-119
1.83133	-119
1.83500	-119
1.83867	-119
1.84233	-119
1.84600	-120
1.84967	-120
1.85333	-120
1.85700	-120
1.86067	-120
1.86433	-120
1.86800	-120
1.87167	-120
1.87533	-119
1.87900	-119
1.88267	-120
1.88633	-120
1.89000	-120
1.89367	-120
1.89733	-120
1.90100	-120
1.90467	-119
1.90833	-119
1.91200	-119
1.91567	-118
1.91933	-118
1.92300	-117
1.92667	-117
1.93033	-116
1.93400	-116
1.93767	-116
1.94133	-116
1.94500	-116
1.94867	-115
1.95233	-115
1.95600	-115
1.95967	-115
1.96333	-115
1.96700	-114
1.97067	-114
1.97433	-114
1.97800	-113
1.98167	-112
1.98533	-112
1.98900	-112
1.99267	-112
1.99633	-112
2.00000	-113
2.00367	-113
2.00733	-113
2.01100	-113
2.01467	-113
2.01833	-112
2.02200	-112
2.02567	-111
2.02933	-111
2.03300	-111
2.03667	-110
2.04033	-110
2.04400	-109
2.04767	-109
2.05133	-108
2.05500	-108
2.05867	-107
2.06233	-107
2.06600	-106
2.06967	-106
2.07333	-107
2.07700	-107
2.08067	-107
2.08433	-107
2.08800	-106
2.09167	-106
2.09533	-105
2.09900	-104
2.10267	-104
2.10633	-103
2.11000	-103
2.11367	-102
2.11733	-102
2.12100	-102
2.12467	-102
2.12833	-102
2.13200	-101
2.13567	-101
2.13933	-101
2.14300	-100
2.14667	-100
2.15033	-100
2.15400	-100
2.15767	-99
2.16133	-98
2.16500	-97
2.16867	-97
2.17233	-96
2.17600	-96
2.17967	-96
2.18333	-96
2.18700	-96
2.19067	-96
2.19433	-95
2.19800	-95
2.20167	-95
2.20533	-95
2.20900	-95
2.21267	-96
2.21633	-96
2.22000	-95
2.22367	-95
2.22733	-95
2.23100	-94
2.23467	-94
2.23833	-93
2.24200	-92
2.24567	-92
2.24933	-91
2.25300	-90
2.25667	-90
2.26033	-89
2.26400	-89
2.26767	-89
2.27133	-89
2.27500	-90
2.27867	-90
2.28233	-90
2.28600	-90
2.28967	-90
2.29333	-90
2.29700	-89
2.30067	-89
2.30433	-88
2.30800	-88
2.31167	-88
2.31533	-87
2.31900	-87
2.32267	-87
2.32633	-86
2.33000	-86
2.33367	-86
2.33733	-85
2.34100	-85
2.34467	-84
2.34833	-83
2.35200	-83
2.35567	-82
2.35933	-81
2.36300	-80
2.36667	-79
2.37033	-77
2.37400	-75
2.37767	-73
2.38133	-71
2.38500	-68
2.38867	-64
2.39233	-60
2.39600	-56
2.39967	-52
2.40333	-47
2.40700	-43
2.41067	-39
2.41433	-35
2.41800	-32
2.42167	-28
2.42533	-25
2.42900	-22
2.43267	-19
2.43633	-16
2.44000	-13
2.44367	-11
2.44733	-9
2.45100	-7
2.45467	-6
2.45833	-4
2.46200	-3
2.46567	-2
2.46933	-0
2.47300	1
2.47667	2
2.48033	4
2.48400	5
2.48767	6
2.49133	7
2.49500	7
2.49867	8
2.50233	8
2.50600	9
2.50967	10
2.51333	11
2.51700	12
2.52067	12
2.52433	13
2.52800	13
2.53167	13
2.53533	13
2.53900	13
2.54267	13
2.54633	13
2.55000	14
2.55367	14
2.55733	14
2.56100	14
2.56467	14
2.56833	14
2.57200	14
2.57567	14
2.57933	14
2.58300	14
2.58667	13
2.59033	13
2.59400	13
2.59767	14
2.60133	14
2.60500	15
2.60867	15
2.61233	16
2.61600	16
2.61967	16
2.62333	17
2.62700	17
2.63067	17
2.63433	18
2.63800	18
2.64167	18
2.64533	19
2.64900	19
2.65267	20
2.65633	20
2.66000	20
2.66367	21
2.66733	21
2.67100	22
2.67467	22
2.67833	22
2.68200	22
2.68567	21
2.68933	21
2.69300	21
2.69667	21
2.70033	22
2.70400	22
2.70767	22
2.71133	22
2.71500	22
2.71867	22
2.72233	22
2.72600	22
2.72967	22
2.73333	22
2.73700	22
2.74067	23
2.74433	23
2.74800	23
2.75167	23
2.75533	24
2.75900	24
2.76267	24
2.76633	24
2.77000	25
2.77367	25
2.77733	25
2.78100	26
2.78467	26
2.78833	27
2.79200	27
2.79567	28
2.79933	28
2.80300	28
2.80667	28
2.81033	28
2.81400	28
2.81767	28
2.82133	28
2.82500	28
2.82867	28
2.83233	28
2.83600	28
2.83967	28
2.84333	27
2.84700	27
2.85067	25
2.85433	23
2.85800	19
2.86167	12
2.86533	3
2.86900	-9
2.87267	-26
2.87633	-46
2.88000	-70
2.88367	-98
2.88733	-130
2.89100	-166
2.89467	-206
2.89833	-248
2.90200	-292
2.90567	-339
2.90933	-388
2.91300	-437
2.91667	-487
2.92033	-538
2.92400	-588
2.92767	-637
2.93133	-687
2.93500	-735
2.93867	-782
2.94233	-832
2.94600	-887
2.94967	-948
2.95333	-1010
2.95700	-1060
2.96067	-1089
2.96433	-1091
2.96800	-1067
2.97167	-1020
2.97533	-958
2.97900	-884
2.98267	-805
2.98633	-724
2.99000	-645
2.99367	-570
2.99733	-500
3.00100	-435
3.00467	-377
3.00833	-325
3.01200	-279
3.01567	-238
3.01933	-203
3.02300	-172
3.02667	-145
3.03033	-122
3.03400	-102
3.03767	-85
3.04133	-71
3.04500	-58
3.04867	-48
3.05233	-39
3.05600	-31
3.05967	-24
3.06333	-19
3.06700	-14
3.07067	-9
3.07433	-6
3.07800	-3
3.08167	0
3.08533	3
3.08900	5
3.09267	6
3.09633	8
3.10000	9
3.10367	10
3.10733	11
3.11100	12
3.11467	13
3.11833	14
3.12200	14
3.12567	15
3.12933	15
3.13300	16
3.13667	16
3.14033	17
3.14400	17
3.14767	18
3.15133	18
3.15500	18
3.15867	19
3.16233	19
3.16600	19
3.16967	20
3.17333	20
3.17700	20
3.18067	20
3.18433	20
3.18800	20
3.19167	20
3.19533	20
3.19900	20
3.20267	20
3.20633	20
3.21000	20
3.21367	20
3.21733	20
3.22100	20
3.22467	20
3.22833	20
3.23200	20
3.23567	20
3.23933	20
3.24300	20
3.24667	20
3.25033	20
3.25400	20
3.25767	20
3.26133	21
3.26500	21
3.26867	21
3.27233	22
3.27600	22
3.27967	23
3.28333	23
3.28700	23
3.29067	24
3.29433	24
3.29800	24
3.30167	24
3.30533	24
3.30900	25
3.31267	25
3.31633	25
3.32000	25
3.32367	25
3.32733	25
3.33100	25
3.33467	25
3.33833	25
3.34200	25
3.34567	25
3.34933	25
3.35300	25
3.35667	26
3.36033	26
3.36400	26
3.36767	26
3.37133	27
3.37500	27
3.37867	27
3.38233	27
3.38600	28
3.38967	28
3.39333	28
3.39700	28
3.40067	28
3.40433	28
3.40800	29
3.41167	29
3.41533	29
3.41900	29
3.42267	29
3.42633	29
3.43000	29
3.43367	29
3.43733	29
3.44100	30
3.44467	30
3.44833	30
3.45200	30
3.45567	30
3.45933	29
3.46300	29
3.46667	30
3.47033	30
3.47400	30
3.47767	30
3.48133	30
3.48500	30
3.48867	30
3.49233	30
3.49600	30
3.49967	30
3.50333	29
3.50700	29
3.51067	29
3.51433	29
3.51800	29
3.52167	29
3.52533	29
3.52900	29
3.53267	29
3.53633	29
3.54000	29
3.54367	29
3.54733	29
3.55100	28
3.55467	28
3.55833	28
3.56200	28
3.56567	28
3.56933	28
3.57300	28
3.57667	28
3.58033	28
3.58400	28
3.58767	28
3.59133	28
3.59500	28
3.59867	28
3.60233	28
3.60600	27
3.60967	27
3.61333	28
3.61700	28
3.62067	28
3.62433	28
3.62800	28
3.63167	28
3.63533	28
3.63900	28
3.64267	28
3.64633	28
3.65000	28
3.65367	28
3.65733	28
3.66100	28
3.66467	28
3.66833	28
3.67200	28
3.67567	28
3.67933	28
3.68300	28
3.68667	28
3.69033	28
3.69400	28
3.69767	28
3.70133	28
3.70500	28
3.70867	28
3.71233	28
3.71600	28
3.71967	28
3.72333	27
3.72700	27
3.73067	27
3.73433	27
3.73800	27
3.74167	27
3.74533	27
3.74900	27
3.75267	26
3.75633	26
3.76000	26
3.76367	26
3.76733	26
3.77100	26
3.77467	26
3.77833	26
3.78200	26
3.78567	26
3.78933	26
3.79300	26
3.79667	27
3.80033	27
3.80400	27
3.80767	27
3.81133	27
3.81500	27
3.81867	27
3.82233	28
3.82600	28
3.82967	28
3.83333	28
3.83700	28
3.84067	28
3.84433	29
3.84800	29
3.85167	29
3.85533	29
3.85900	29
3.86267	29
3.86633	28
3.87000	28
3.87367	28
3.87733	28
3.88100	28
3.88467	28
3.88833	28
3.89200	27
3.89567	27
3.89933	27
3.90300	27
3.90667	27
3.91033	27
3.91400	27
3.91767	27
3.92133	27
3.92500	27
3.92867	27
3.93233	27
3.93600	27
3.93967	28
3.94333	28
3.94700	28
3.95067	28
3.95433	28
3.95800	28
3.96167	27
3.96533	27
3.96900	27
3.97267	27
3.97633	27
3.98000	27
3.98367	28
3.98733	28
3.99100	28
3.99467	27
3.99833	27

[Chromatogram (Ch3)]
Interval(msec)	220
# of Points	1091
Start Time(min)	0.002
End Time(min)	3.998
R.Time (min)	Intensity
0.00167	-1
0.00533	1
0.00900	2
0.01267	-0
0.01633	-2
0.02000	-2
0.02367	-1
0.02733	-2
0.03100	0
0.03467	1
0.03833	-1
0.04200	-1
0.04567	-0
0.04933	-3
0.05300	-3
0.05667	-3
0.06033	-4
0.06400	-5
0.06767	-6
0.07133	-8
0.07500	-7
0.07867	-3
0.08233	0
0.08600	1
0.08967	2
0.09333	3
0.09700	4
0.10067	4
0.10433	2
0.10800	-1
0.11167	-2
0.11533	-2
0.11900	0
0.12267	4
0.12633	7
0.13000	5
0.13367	3
0.13733	2
0.14100	3
0.14467	3
0.14833	3
0.15200	3
0.15567	4
0.15933	5
0.16300	4
0.16667	2
0.17033	2
0.17400	1
0.17767	-2
0.18133	-4
0.18500	-5
0.18867	-5
0.19233	-4
0.19600	-4
0.19967	-5
0.20333	-6
0.20700	-6
0.21067	-7
0.21433	-6
0.21800	-6
0.22167	-8
0.22533	-10
0.22900	-11
0.23267	-11
0.23633	-12
0.24000	-13
0.24367	-12
0.24733	-12
0.25100	-11
0.25467	-13
0.25833	-14
0.26200	-14
0.26567	-13
0.26933	-12
0.27300	-12
0.27667	-12
0.28033	-10
0.28400	-8
0.28767	-9
0.29133	-10
0.29500	-10
0.29867	-10
0.30233	-11
0.30600	-11
0.30967	-13
0.31333	-15
0.31700	-15
0.32067	-15
0.32433	-14
0.32800	-14
0.33167	-14
0.33533	-14
0.33900	-15
0.34267	-14
0.34633	-14
0.35000	-14
0.35367	-14
0.35733	-14
0.36100	-14
0.36467	-13
0.36833	-11
0.37200	-11
0.37567	-9
0.37933	-10
0.38300	-12
0.38667	-14
0.39033	-16
0.39400	-18
0.39767	-17
0.40133	-16
0.40500	-17
0.40867	-18
0.41233	-20
0.41600	-20
0.41967	-19
0.42333	-17
0.42700	-14
0.43067	-15
0.43433	-17
0.43800	-18
0.44167	-18
0.44533	-19
0.44900	-19
0.45267	-19
0.45633	-20
0.46000	-21
0.46367	-20
0.46733	-19
0.47100	-21
0.47467	-24
0.47833	-27
0.48200	-28
0.48567	-28
0.48933	-26
0.49300	-25
0.49667	-23
0.50033	-22
0.50400	-22
0.50767	-23
0.51133	-24
0.51500	-23
0.51867	-21
0.52233	-19
0.52600	-19
0.52967	-19
0.53333	-19
0.53700	-19
0.54067	-21
0.54433	-25
0.54800	-27
0.55167	-27
0.55533	-27
0.55900	-28
0.56267	-28
0.56633	-27
0.57000	-27
0.57367	-26
0.57733	-24
0.58100	-23
0.58467	-23
0.58833	-24
0.59200	-25
0.59567	-25
0.59933	-24
0.60300	-23
0.60667	-23
0.61033	-22
0.61400	-23
0.61767	-26
0.62133	-27
0.62500	-25
0.62867	-23
0.63233	-23
0.63600	-23
0.63967	-23
0.64333	-23
0.64700	-25
0.65067	-27
0.65433	-27
0.65800	-25
0.66167	-23
0.66533	-20
0.66900	-19
0.67267	-20
0.67633	-21
0.68000	-22
0.68367	-22
0.68733	-22
0.69100	-20
0.69467	-20
0.69833	-22
0.70200	-21
0.70567	-19
0.70933	-20
0.71300	-22
0.71667	-24
0.72033	-28
0.72400	-29
0.72767	-27
0.73133	-26
0.73500	-28
0.73867	-30
0.74233	-29
0.74600	-29
0.74967	-28
0.75333	-27
0.75700	-28
0.76067	-30
0.76433	-28
0.76800	-26
0.77167	-25
0.77533	-24
0.77900	-24
0.78267	-25
0.78633	-26
0.79000	-24
0.79367	-23
0.79733	-21
0.80100	-20
0.80467	-20
0.80833	-17
0.81200	-17
0.81567	-20
0.81933	-22
0.82300	-21
0.82667	-22
0.83033	-22
0.83400	-23
0.83767	-23
0.84133	-24
0.84500	-23
0.84867	-21
0.85233	-20
0.85600	-21
0.85967	-24
0.86333	-26
0.86700	-24
0.87067	-21
0.87433	-21
0.87800	-23
0.88167	-23
0.88533	-22
0.88900	-23
0.89267	-23
0.89633	-24
0.90000	-23
0.90367	-25
0.90733	-27
0.91100	-26
0.91467	-24
0.91833	-23
0.92200	-23
0.92567	-23
0.92933	-24
0.93300	-24
0.93667	-25
0.94033	-25
0.94400	-25
0.94767	-25
0.95133	-23
0.95500	-22
0.95867	-24
0.96233	-24
0.96600	-24
0.96967	-24
0.97333	-23
0.97700	-23
0.98067	-21
0.98433	-19
0.98800	-19
0.99167	-22
0.99533	-24
0.99900	-24
1.00267	-26
1.00633	-26
1.01000	-26
1.01367	-24
1.01733	-23
1.02100	-23
1.02467	-24
1.02833	-23
1.03200	-26
1.03567	-28
1.03933	-30
1.04300	-28
1.04667	-28
1.05033	-28
1.05400	-28
1.05767	-28
1.06133	-28
1.06500	-30
1.06867	-30
1.07233	-30
1.07600	-29
1.07967	-29
1.08333	-30
1.08700	-30
1.09067	-28
1.09433	-28
1.09800	-29
1.10167	-30
1.10533	-31
1.10900	-30
1.11267	-29
1.11633	-27
1.12000	-25
1.12367	-24
1.12733	-26
1.13100	-26
1.13467	-24
1.13833	-24
1.14200	-24
1.14567	-25
1.14933	-25
1.15300	-25
1.15667	-26
1.16033	-27
1.16400	-29
1.16767	-28
1.17133	-27
1.17500	-26
1.17867	-26
1.18233	-25
1.18600	-23
1.18967	-25
1.19333	-25
1.19700	-23
1.20067	-21
1.20433	-19
1.20800	-20
1.21167	-19
1.21533	-20
1.21900	-20
1.22267	-17
1.22633	-14
1.23000	-12
1.23367	-11
1.23733	-10
1.24100	-10
1.24467	-12
1.24833	-13
1.25200	-15
1.25567	-18
1.25933	-20
1.26300	-20
1.26667	-21
1.27033	-21
1.27400	-20
1.27767	-20
1.28133	-19
1.28500	-16
1.28867	-15
1.29233	-15
1.29600	-15
1.29967	-13
1.30333	-13
1.30700	-14
1.31067	-14
1.31433	-13
1.31800	-15
1.32167	-15
1.32533	-17
1.32900	-17
1.33267	-18
1.33633	-17
1.34000	-13
1.34367	-10
1.34733	-10
1.35100	-11
1.35467	-12
1.35833	-12
1.36200	-13
1.36567	-14
1.36933	-15
1.37300	-15
1.37667	-13
1.38033	-12
1.38400	-13
1.38767	-14
1.39133	-16
1.39500	-19
1.39867	-19
1.40233	-18
1.40600	-17
1.40967	-17
1.41333	-17
1.41700	-16
1.42067	-15
1.42433	-16
1.42800	-18
1.43167	-17
1.43533	-16
1.43900	-15
1.44267	-15
1.44633	-11
1.45000	-10
1.45367	-11
1.45733	-12
1.46100	-12
1.46467	-12
1.46833	-11
1.47200	-11
1.47567	-12
1.47933	-12
1.48300	-13
1.48667	-14
1.49033	-12
1.49400	-10
1.49767	-8
1.50133	-6
1.50500	-8
1.50867	-9
1.51233	-8
1.51600	-7
1.51967	-7
1.52333	-8
1.52700	-11
1.53067	-14
1.53433	-16
1.53800	-17
1.54167	-16
1.54533	-17
1.54900	-17
1.55267	-14
1.55633	-11
1.56000	-10
1.56367	-11
1.56733	-10
1.57100	-9
1.57467	-11
1.57833	-12
1.58200	-14
1.58567	-17
1.58933	-17
1.59300	-16
1.59667	-15
1.60033	-14
1.60400	-14
1.60767	-14
1.61133	-14
1.61500	-16
1.61867	-17
1.62233	-15
1.62600	-16
1.62967	-17
1.63333	-16
1.63700	-14
1.64067	-12
1.64433	-9
1.64800	-7
1.65167	-7
1.65533	-9
1.65900	-10
1.66267	-10
1.66633	-10
1.67000	-9
1.67367	-7
1.67733	-7
1.68100	-8
1.68467	-9
1.68833	-9
1.69200	-9
1.69567	-9
1.69933	-6
1.70300	-3
1.70667	-3
1.71033	-1
1.71400	0
1.71767	1
1.72133	0
1.72500	-0
1.72867	2
1.73233	3
1.73600	6
1.73967	5
1.74333	4
1.74700	3
1.75067	1
1.75433	2
1.75800	1
1.76167	3
1.76533	4
1.76900	7
1.77267	9
1.77633	10
1.78000	10
1.78367	9
1.78733	8
1.79100	8
1.79467	6
1.79833	6
1.80200	7
1.80567	8
1.80933	9
1.81300	9
1.81667	12
1.82033	15
1.82400	15
1.82767	15
1.83133	13
1.83500	12
1.83867	15
1.84233	19
1.84600	21
1.84967	22
1.85333	24
1.85700	26
1.86067	25
1.86433	23
1.86800	22
1.87167	21
1.87533	20
1.87900	19
1.88267	19
1.88633	21
1.89000	23
1.89367	25
1.89733	26
1.90100	26
1.90467	25
1.90833	24
1.91200	25
1.91567	27
1.91933	28
1.92300	27
1.92667	29
1.93033	29
1.93400	31
1.93767	32
1.94133	31
1.94500	34
1.94867	36
1.95233	37
1.95600	37
1.95967	36
1.96333	37
1.96700	40
1.97067	42
1.97433	45
1.97800	46
1.98167	46
1.98533	46
1.98900	47
1.99267	50
1.99633	50
2.00000	51
2.00367	52
2.00733	52
2.01100	53
2.01467	54
2.01833	55
2.02200	56
2.02567	56
2.02933	58
2.03300	56
2.03667	56
2.04033	58
2.04400	58
2.04767	58
2.05133	58
2.05500	62
2.05867	66
2.06233	67
2.06600	69
2.06967	69
2.07333	72
2.07700	72
2.08067	73
2.08433	75
2.08800	77
2.09167	78
2.09533	79
2.09900	83
2.10267	85
2.10633	85
2.11000	85
2.11367	85
2.11733	86
2.12100	87
2.12467	87
2.12833	90
2.13200	92
2.13567	92
2.13933	92
2.14300	92
2.14667	91
2.15033	90
2.15400	91
2.15767	93
2.16133	94
2.16500	94
2.16867	96
2.17233	98
2.17600	100
2.17967	100
2.18333	103
2.18700	108
2.19067	111
2.19433	113
2.19800	113
2.20167	114
2.20533	114
2.20900	115
2.21267	116
2.21633	119
2.22000	122
2.22367	122
2.22733	121
2.23100	122
2.23467	125
2.23833	126
2.24200	125
2.24567	126
2.24933	127
2.25300	129
2.25667	131
2.26033	132
2.26400	133
2.26767	136
2.27133	139
2.27500	141
2.27867	141
2.28233	143
2.28600	145
2.28967	147
2.29333	148
2.29700	147
2.30067	149
2.30433	152
2.30800	155
2.31167	157
2.31533	160
2.31900	164
2.32267	165
2.32633	165
2.33000	165
2.33367	165
2.33733	163
2.34100	164
2.34467	166
2.34833	167
2.35200	167
2.35567	168
2.35933	169
2.36300	171
2.36667	173
2.37033	173
2.37400	173
2.37767	174
2.38133	173
2.38500	175
2.38867	176
2.39233	177
2.39600	175
2.39967	173
2.40333	172
2.40700	174
2.41067	176
2.41433	177
2.41800	178
2.42167	179
2.42533	179
2.42900	180
2.43267	181
2.43633	181
2.44000	183
2.44367	184
2.44733	185
2.45100	186
2.45467	188
2.45833	185
2.46200	179
2.46567	171
2.46933	162
2.47300	155
2.47667	146
2.48033	140
2.48400	139
2.48767	139
2.49133	139
2.49500	138
2.49867	137
2.50233	136
2.50600	137
2.50967	138
2.51333	140
2.51700	142
2.52067	143
2.52433	142
2.52800	140
2.53167	140
2.53533	142
2.53900	144
2.54267	144
2.54633	145
2.55000	143
2.55367	143
2.55733	144
2.56100	146
2.56467	144
2.56833	141
2.57200	142
2.57567	143
2.57933	142
2.58300	141
2.58667	139
2.59033	140
2.59400	141
2.59767	141
2.60133	141
2.60500	137
2.60867	131
2.61233	118
2.61600	96
2.61967	70
2.62333	41
2.62700	9
2.63067	-24
2.63433	-57
2.63800	-85
2.64167	-107
2.64533	-125
2.64900	-139
2.65267	-147
2.65633	-149
2.66000	-145
2.66367	-142
2.66733	-139
2.67100	-135
2.67467	-130
2.67833	-123
2.68200	-114
2.68567	-104
2.68933	-94
2.69300	-84
2.69667	-77
2.70033	-69
2.70400	-59
2.70767	-50
2.71133	-43
2.71500	-36
2.71867	-31
2.72233	-25
2.72600	-17
2.72967	-11
2.73333	-4
2.73700	3
2.74067	10
2.74433	15
2.74800	19
2.75167	23
2.75533	26
2.75900	26
2.76267	26
2.76633	29
2.77000	36
2.77367	42
2.77733	46
2.78100	50
2.78467	54
2.78833	56
2.79200	56
2.79567	57
2.79933	57
2.80300	58
2.80667	59
2.81033	60
2.81400	61
2.81767	58
2.82133	55
2.82500	57
2.82867	64
2.83233	77
2.83600	102
2.83967	151
2.84333	242
2.84700	400
2.85067	646
2.85433	996
2.85800	1448
2.86167	1988
2.86533	2585
2.86900	3195
2.87267	3769
2.87633	4259
2.88000	4630
2.88367	4856
2.88733	4933
2.89100	4874
2.89467	4703
2.89833	4448
2.90200	4135
2.90567	3790
2.90933	3437
2.91300	3088
2.91667	2750
2.92033	2434
2.92400	2144
2.92767	1881
2.93133	1647
2.93500	1439
2.93867	1253
2.94233	1091
2.94600	951
2.94967	831
2.95333	727
2.95700	636
2.96067	554
2.96433	482
2.96800	419
2.97167	367
2.97533	321
2.97900	284
2.98267	252
2.98633	226
2.99000	203
2.99367	184
2.99733	168
3.00100	154
3.00467	139
3.00833	126
3.01200	114
3.01567	103
3.01933	97
3.02300	91
3.02667	86
3.03033	82
3.03400	78
3.03767	73
3.04133	68
3.04500	64
3.04867	61
3.05233	59
3.05600	56
3.05967	50
3.06333	45
3.06700	45
3.07067	45
3.07433	46
3.07800	46
3.08167	44
3.08533	43
3.08900	43
3.09267	42
3.09633	41
3.10000	39
3.10367	39
3.10733	36
3.11100	33
3.11467	31
3.11833	29
3.12200	28
3.12567	29
3.12933	29
3.13300	29
3.13667	30
3.14033	28
3.14400	27
3.14767	26
3.15133	26
3.15500	27
3.15867	28
3.16233	27
3.16600	26
3.16967	25
3.17333	25
3.17700	25
3.18067	25
3.18433	26
3.18800	26
3.19167	26
3.19533	24
3.19900	20
3.20267	19
3.20633	21
3.21000	22
3.21367	21
3.21733	21
3.22100	23
3.22467	23
3.22833	20
3.23200	19
3.23567	19
3.23933	17
3.24300	17
3.24667	18
3.25033	17
3.25400	16
3.25767	16
3.26133	12
3.26500	9
3.26867	8
3.27233	7
3.27600	7
3.27967	8
3.28333	10
3.28700	10
3.29067	8
3.29433	5
3.29800	2
3.30167	1
3.30533	1
3.30900	1
3.31267	0
3.31633	1
3.32000	-2
3.32367	-5
3.32733	-7
3.33100	-7
3.33467	-6
3.33833	-7
3.34200	-9
3.34567	-10
3.34933	-11
3.35300	-13
3.35667	-15
3.36033	-14
3.36400	-11
3.36767	-11
3.37133	-13
3.37500	-17
3.37867	-19
3.38233	-19
3.38600	-20
3.38967	-21
3.39333	-21
3.39700	-23
3.40067	-26
3.40433	-30
3.40800	-34
3.41167	-35
3.41533	-36
3.41900	-36
3.42267	-36
3.42633	-35
3.43000	-35
3.43367	-37
3.43733	-38
3.44100	-39
3.44467	-40
3.44833	-41
3.45200	-42
3.45567	-43
3.45933	-45
3.46300	-48
3.46667	-46
3.47033	-44
3.47400	-44
3.47767	-44
3.48133	-44
3.48500	-45
3.48867	-46
3.49233	-46
3.49600	-47
3.49967	-47
3.50333	-49
3.50700	-51
3.51067	-53
3.51433	-55
3.51800	-56
3.52167	-57
3.52533	-58
3.52900	-59
3.53267	-59
3.53633	-58
3.54000	-59
3.54367	-61
3.54733	-61
3.55100	-62
3.55467	-63
3.55833	-64
3.56200	-66
3.56567	-67
3.56933	-70
3.57300	-73
3.57667	-74
3.58033	-75
3.58400	-74
3.58767	-71
3.59133	-69
3.59500	-68
3.59867	-69
3.60233	-73
3.60600	-76
3.60967	-78
3.61333	-78
3.61700	-77
3.62067	-76
3.62433	-77
3.62800	-77
3.63167	-76
3.63533	-75
3.63900	-76
3.64267	-78
3.64633	-79
3.65000	-80
3.65367	-80
3.65733	-81
3.66100	-80
3.66467	-80
3.66833	-82
3.67200	-80
3.67567	-78
3.67933	-76
3.68300	-76
3.68667	-80
3.69033	-83
3.69400	-84
3.69767	-85
3.70133	-84
3.70500	-85
3.70867	-85
3.71233	-83
3.71600	-86
3.71967	-87
3.72333	-84
3.72700	-81
3.73067	-82
3.73433	-85
3.73800	-88
3.74167	-89
3.74533	-87
3.74900	-86
3.75267	-87
3.75633	-86
3.76000	-84
3.76367	-82
3.76733	-81
3.77100	-82
3.77467	-83
3.77833	-83
3.78200	-84
3.78567	-83
3.78933	-81
3.79300	-81
3.79667	-84
3.80033	-87
3.80400	-87
3.80767	-85
3.81133	-83
3.81500	-82
3.81867	-84
3.82233	-82
3.82600	-82
3.82967	-82
3.83333	-84
3.83700	-85
3.84067	-84
3.84433	-82
3.84800	-82
3.85167	-84
3.85533	-85
3.85900	-85
3.86267	-83
3.86633	-82
3.87000	-81
3.87367	-80
3.87733	-79
3.88100	-79
3.88467	-79
3.88833	-79
3.89200	-79
3.89567	-79
3.89933	-81
3.90300	-82
3.90667	-79
3.91033	-77
3.91400	-78
3.91767	-80
3.92133	-81
3.92500	-83
3.92867	-83
3.93233	-81
3.93600	-81
3.93967	-80
3.94333	-79
3.94700	-77
3.95067	-75
3.95433	-77
3.95800	-79
3.96167	-80
3.96533	-80
3.96900	-78
3.97267	-75
3.97633	-74
3.98000	-73
3.98367	-72
3.98733	-73
3.99100	-74
3.99467	-76
3.99833	-76

[Status Trace (Column Oven Temperature)]
Interval(msec)	1000
# of Points	240
Start Time(min)	0.008
End Time(min)	3.991
Intensity Units	
Intensity Multiplier	1
R.Time (min)	Intensity
0.00770	34.99
0.02437	34.99
0.04103	34.99
0.05770	35.00
0.07437	35.00
0.09103	34.99
0.10770	35.00
0.12437	35.00
0.14103	35.00
0.15770	35.01
0.17437	35.00
0.19103	34.99
0.20770	34.99
0.22437	34.99
0.24103	34.99
0.25770	34.99
0.27437	34.98
0.29103	34.98
0.30770	34.97
0.32437	34.96
0.34103	34.97
0.35770	34.97
0.37437	34.98
0.39103	34.98
0.40770	34.98
0.42437	34.97
0.44103	34.98
0.45770	34.99
0.47437	35.01
0.49103	35.01
0.50770	35.01
0.52437	35.01
0.54103	35.01
0.55770	35.01
0.57437	35.01
0.59103	35.01
0.60770	35.00
0.62437	35.01
0.64103	35.00
0.65770	35.00
0.67437	34.98
0.69103	34.98
0.70770	34.97
0.72437	34.96
0.74103	34.96
0.75770	34.97
0.77437	34.98
0.79103	35.01
0.80770	35.03
0.82437	35.05
0.84103	35.05
0.85770	35.06
0.87437	35.05
0.89103	35.06
0.90770	35.05
0.92437	35.04
0.94103	35.02
0.95770	35.00
0.97437	34.98
0.99103	34.97
1.00770	34.99
1.02437	34.98
1.04103	34.98
1.05770	34.98
1.07437	34.98
1.09103	34.98
1.10770	34.99
1.12437	35.01
1.14103	35.01
1.15770	35.01
1.17437	35.02
1.19103	35.03
1.20770	35.04
1.22437	35.05
1.24103	35.05
1.25770	35.03
1.27437	35.02
1.29103	35.01
1.30770	35.01
1.32437	35.02
1.34103	35.00
1.35770	34.99
1.37437	34.98
1.39103	34.98
1.40770	34.99
1.42437	35.00
1.44103	35.00
1.45770	35.00
1.47437	34.99
1.49103	34.98
1.50770	34.96
1.52437	34.96
1.54103	34.97
1.55770	34.96
1.57437	34.97
1.59103	34.98
1.60770	35.05
1.62437	35.17
1.64103	35.37
1.65770	35.62
1.67437	35.96
1.69103	36.32
1.70770	36.66
1.72437	37.01
1.74103	37.35
1.75770	37.67
1.77437	37.97
1.79103	38.30
1.80770	38.64
1.82437	38.96
1.84103	39.31
1.85770	39.64
1.87437	39.97
1.89103	40.30
1.90770	40.65
1.92437	40.96
1.94103	41.29
1.95770	41.62
1.97437	41.93
1.99103	42.26
2.00770	42.60
2.02437	42.93
2.04103	43.27
2.05770	43.58
2.07437	43.94
2.09103	44.24
2.10770	44.55
2.12437	44.88
2.14103	45.21
2.15770	45.54
2.17437	45.86
2.19103	46.19
2.20770	46.52
2.22437	46.85
2.24103	47.17
2.25770	47.48
2.27437	47.83
2.29103	48.14
2.30770	48.47
2.32437	48.83
2.34103	49.15
2.35770	49.42
2.37437	49.63
2.39103	49.67
2.40770	49.67
2.42437	49.68
2.44103	49.67
2.45770	49.69
2.47437	49.68
2.49103	49.71
2.50770	49.71
2.52437	49.72
2.54103	49.76
2.55770	49.76
2.57437	49.79
2.59103	49.80
2.60770	49.81
2.62437	49.81
2.64103	49.83
2.65770	49.83
2.67437	49.83
2.69103	49.85
2.70770	49.85
2.72437	49.86
2.74103	49.87
2.75770	49.88
2.77437	49.86
2.79103	49.86
2.80770	49.85
2.82437	49.85
2.84103	49.86
2.85770	49.89
2.87437	49.92
2.89103	49.94
2.90770	49.95
2.92437	49.95
2.94103	49.97
2.95770	49.99
2.97437	49.99
2.99103	49.99
3.00770	50.00
3.02437	49.99
3.04103	50.00
3.05770	50.00
3.07437	50.00
3.09103	50.00
3.10770	50.01
3.12437	50.01
3.14103	50.01
3.15770	50.02
3.17437	50.04
3.19103	50.05
3.20770	50.06
3.22437	50.07
3.24103	50.09
3.25770	50.09
3.27437	50.09
3.29103	50.10
3.30770	50.10
3.32437	50.11
3.34103	50.11
3.35770	50.10
3.37437	50.09
3.39103	50.08
3.40770	50.07
3.42437	50.05
3.44103	50.04
3.45770	50.04
3.47437	50.03
3.49103	50.02
3.50770	50.02
3.52437	50.02
3.54103	50.02
3.55770	50.02
3.57437	50.02
3.59103	50.03
3.60770	50.03
3.62437	50.04
3.64103	50.04
3.65770	50.04
3.67437	50.04
3.69103	50.04
3.70770	50.04
3.72437	50.05
3.74103	50.06
3.75770	50.06
3.77437	50.07
3.79103	50.07
3.80770	50.07
3.82437	50.07
3.84103	50.06
3.85770	50.06
3.87437	50.07
3.89103	50.07
3.90770	50.07
3.92437	50.07
3.94103	50.07
3.95770	50.07
3.97437	50.06
3.99103	50.06

[Status Trace (Injection Unit Temperature)]
Interval(msec)	1000
# of Points	240
Start Time(min)	0.008
End Time(min)	3.991
Intensity Units	
Intensity Multiplier	1
R.Time (min)	Intensity
0.00770	100.00
0.02437	100.00
0.04103	100.00
0.05770	100.00
0.07437	100.00
0.09103	100.00
0.10770	100.00
0.12437	100.00
0.14103	100.00
0.15770	100.00
0.17437	100.00
0.19103	100.00
0.20770	100.00
0.22437	100.00
0.24103	100.00
0.25770	100.00
0.27437	100.00
0.29103	100.00
0.30770	99.99
0.32437	100.00
0.34103	100.00
0.35770	100.00
0.37437	99.99
0.39103	99.99
0.40770	100.00
0.42437	100.00
0.44103	99.99
0.45770	99.99
0.47437	99.99
0.49103	99.99
0.50770	99.99
0.52437	100.00
0.54103	99.99
0.55770	99.99
0.57437	100.00
0.59103	99.99
0.60770	99.99
0.62437	99.99
0.64103	99.99
0.65770	99.99
0.67437	99.99
0.69103	99.99
0.70770	100.00
0.72437	99.99
0.74103	99.99
0.75770	100.00
0.77437	99.99
0.79103	99.99
0.80770	100.00
0.82437	99.99
0.84103	99.99
0.85770	99.99
0.87437	99.99
0.89103	99.99
0.90770	99.99
0.92437	99.99
0.94103	99.99
0.95770	99.99
0.97437	99.99
0.99103	99.99
1.00770	99.99
1.02437	99.99
1.04103	99.99
1.05770	99.99
1.07437	99.99
1.09103	99.99
1.10770	99.99
1.12437	99.99
1.14103	99.99
1.15770	99.99
1.17437	99.99
1.19103	99.99
1.20770	99.99
1.22437	100.00
1.24103	99.99
1.25770	99.99
1.27437	100.00
1.29103	100.00
1.30770	99.99
1.32437	100.00
1.34103	99.99
1.35770	100.00
1.37437	99.99
1.39103	99.99
1.40770	100.00
1.42437	100.00
1.44103	100.00
1.45770	99.99
1.47437	99.99
1.49103	100.00
1.50770	99.99
1.52437	99.99
1.54103	99.99
1.55770	99.99
1.57437	99.99
1.59103	99.99
1.60770	100.00
1.62437	99.99
1.64103	99.99
1.65770	99.99
1.67437	99.99
1.69103	100.00
1.70770	100.00
1.72437	99.99
1.74103	99.99
1.75770	99.99
1.77437	99.99
1.79103	99.99
1.80770	99.99
1.82437	99.99
1.84103	99.99
1.85770	99.99
1.87437	99.99
1.89103	99.98
1.90770	99.99
1.92437	99.99
1.94103	99.99
1.95770	99.98
1.97437	99.99
1.99103	99.99
2.00770	99.99
2.02437	99.98
2.04103	99.99
2.05770	99.98
2.07437	99.99
2.09103	99.99
2.10770	99.98
2.12437	99.99
2.14103	99.98
2.15770	99.98
2.17437	99.98
2.19103	99.99
2.20770	99.98
2.22437	99.99
2.24103	99.98
2.25770	99.98
2.27437	99.98
2.29103	99.98
2.30770	99.98
2.32437	99.98
2.34103	99.98
2.35770	99.98
2.37437	99.98
2.39103	99.98
2.40770	99.98
2.42437	99.98
2.44103	99.98
2.45770	99.98
2.47437	99.98
2.49103	99.98
2.50770	99.98
2.52437	99.98
2.54103	99.98
2.55770	99.99
2.57437	99.98
2.59103	99.98
2.60770	99.99
2.62437	99.99
2.64103	99.99
2.65770	99.99
2.67437	99.99
2.69103	99.99
2.70770	99.99
2.72437	100.00
2.74103	99.99
2.75770	100.00
2.77437	100.00
2.79103	100.00
2.80770	100.00
2.82437	100.00
2.84103	100.00
2.85770	100.01
2.87437	100.00
2.89103	100.01
2.90770	100.01
2.92437	100.01
2.94103	100.01
2.95770	100.01
2.97437	100.01
2.99103	100.02
3.00770	100.01
3.02437	100.02
3.04103	100.02
3.05770	100.02
3.07437	100.02
3.09103	100.02
3.10770	100.02
3.12437	100.02
3.14103	100.02
3.15770	100.02
3.17437	100.02
3.19103	100.03
3.20770	100.02
3.22437	100.03
3.24103	100.03
3.25770	100.03
3.27437	100.03
3.29103	100.03
3.30770	100.03
3.32437	100.04
3.34103	100.04
3.35770	100.04
3.37437	100.04
3.39103	100.04
3.40770	100.04
3.42437	100.04
3.44103	100.04
3.45770	100.03
3.47437	100.04
3.49103	100.04
3.50770	100.05
3.52437	100.04
3.54103	100.04
3.55770	100.05
3.57437	100.04
3.59103	100.04
3.60770	100.05
3.62437	100.05
3.64103	100.04
3.65770	100.04
3.67437	100.05
3.69103	100.05
3.70770	100.04
3.72437	100.05
3.74103	100.05
3.75770	100.05
3.77437	100.05
3.79103	100.05
3.80770	100.05
3.82437	100.05
3.84103	100.05
3.85770	100.06
3.87437	100.05
3.89103	100.05
3.90770	100.05
3.92437	100.05
3.94103	100.06
3.95770	100.06
3.97437	100.06
3.99103	100.06

[Status Trace (Carrier Gas Pressure)]
Interval(msec)	1000
# of Points	240
Start Time(min)	0.008
End Time(min)	3.991
Intensity Units	
Intensity Multiplier	1
R.Time (min)	Intensity
0.00770	58.00
0.02437	55.44
0.04103	57.05
0.05770	59.21
0.07437	59.57
0.09103	58.09
0.10770	57.98
0.12437	58.01
0.14103	58.01
0.15770	58.01
0.17437	58.00
0.19103	58.00
0.20770	58.00
0.22437	58.00
0.24103	58.00
0.25770	58.00
0.27437	58.00
0.29103	58.00
0.30770	58.00
0.32437	58.00
0.34103	58.00
0.35770	58.00
0.37437	58.00
0.39103	58.00
0.40770	58.00
0.42437	58.00
0.44103	58.00
0.45770	58.00
0.47437	58.00
0.49103	58.00
0.50770	58.00
0.52437	58.00
0.54103	58.00
0.55770	58.00
0.57437	58.00
0.59103	58.00
0.60770	58.00
0.62437	58.00
0.64103	58.00
0.65770	58.00
0.67437	58.00
0.69103	58.00
0.70770	58.00
0.72437	58.00
0.74103	58.00
0.75770	58.00
0.77437	58.00
0.79103	58.00
0.80770	58.00
0.82437	58.00
0.84103	58.00
0.85770	58.00
0.87437	58.00
0.89103	58.00
0.90770	58.00
0.92437	58.00
0.94103	58.00
0.95770	58.00
0.97437	58.00
0.99103	58.00
1.00770	58.00
1.02437	58.00
1.04103	58.00
1.05770	58.00
1.07437	58.00
1.09103	58.00
1.10770	58.00
1.12437	58.00
1.14103	58.00
1.15770	58.00
1.17437	58.00
1.19103	58.00
1.20770	58.00
1.22437	58.00
1.24103	58.00
1.25770	58.00
1.27437	58.00
1.29103	58.00
1.30770	58.00
1.32437	58.00
1.34103	58.00
1.35770	58.00
1.37437	58.00
1.39103	58.00
1.40770	58.00
1.42437	58.00
1.44103	58.00
1.45770	58.00
1.47437	58.00
1.49103	58.00
1.50770	58.00
1.52437	58.00
1.54103	58.00
1.55770	58.00
1.57437	58.00
1.59103	58.00
1.60770	58.00
1.62437	58.00
1.64103	58.01
1.65770	58.00
1.67437	58.01
1.69103	58.00
1.70770	58.00
1.72437	58.00
1.74103	58.00
1.75770	58.00
1.77437	58.00
1.79103	58.00
1.80770	58.00
1.82437	58.00
1.84103	58.00
1.85770	58.00
1.87437	58.00
1.89103	58.00
1.90770	58.00
1.92437	58.00
1.94103	58.00
1.95770	58.00
1.97437	58.00
1.99103	58.00
2.00770	58.00
2.02437	58.00
2.04103	58.00
2.05770	58.00
2.07437	58.00
2.09103	58.00
2.10770	58.00
2.12437	58.00
2.14103	58.00
2.15770	58.00
2.17437	58.00
2.19103	58.00
2.20770	58.00
2.22437	58.00
2.24103	58.00
2.25770	58.00
2.27437	58.00
2.29103	58.00
2.30770	58.00
2.32437	58.00
2.34103	58.00
2.35770	58.00
2.37437	58.00
2.39103	57.99
2.40770	57.99
2.42437	58.00
2.44103	58.00
2.45770	58.00
2.47437	58.00
2.49103	58.00
2.50770	58.00
2.52437	57.99
2.54103	58.00
2.55770	58.00
2.57437	58.00
2.59103	58.00
2.60770	58.00
2.62437	58.00
2.64103	58.00
2.65770	58.00
2.67437	58.00
2.69103	58.00
2.70770	58.00
2.72437	58.00
2.74103	58.00
2.75770	58.00
2.77437	58.00
2.79103	58.00
2.80770	58.00
2.82437	58.00
2.84103	58.00
2.85770	58.00
2.87437	58.00
2.89103	58.00
2.90770	58.00
2.92437	58.00
2.94103	58.00
2.95770	58.00
2.97437	58.00
2.99103	58.00
3.00770	58.00
3.02437	58.00
3.04103	58.00
3.05770	58.00
3.07437	58.00
3.09103	58.00
3.10770	58.00
3.12437	58.00
3.14103	58.00
3.15770	58.00
3.17437	58.00
3.19103	58.00
3.20770	58.00
3.22437	58.00
3.24103	58.00
3.25770	58.00
3.27437	58.00
3.29103	58.00
3.30770	58.00
3.32437	58.00
3.34103	58.00
3.35770	58.00
3.37437	58.00
3.39103	58.00
3.40770	58.00
3.42437	58.00
3.44103	58.00
3.45770	58.00
3.47437	58.00
3.49103	58.00
3.50770	58.00
3.52437	58.00
3.54103	58.00
3.55770	58.00
3.57437	58.00
3.59103	58.00
3.60770	58.00
3.62437	58.00
3.64103	58.00
3.65770	58.00
3.67437	58.00
3.69103	58.00
3.70770	58.00
3.72437	58.00
3.74103	58.00
3.75770	58.00
3.77437	58.00
3.79103	58.00
3.80770	58.00
3.82437	58.00
3.84103	58.00
3.85770	58.00
3.87437	58.00
3.89103	58.00
3.90770	58.00
3.92437	58.00
3.94103	58.00
3.95770	58.00
3.97437	58.00
3.99103	58.00

[Status Trace (Carrier Gas Flow)]
Interval(msec)	1000
# of Points	240
Start Time(min)	0.008
End Time(min)	3.991
Intensity Units	
Intensity Multiplier	1
R.Time (min)	Intensity
0.00770	34.52
0.02437	34.54
0.04103	34.55
0.05770	34.55
0.07437	34.50
0.09103	34.52
0.10770	34.52
0.12437	34.52
0.14103	34.52
0.15770	34.52
0.17437	34.51
0.19103	34.52
0.20770	34.53
0.22437	34.52
0.24103	34.50
0.25770	34.52
0.27437	34.52
0.29103	34.50
0.30770	34.53
0.32437	34.53
0.34103	34.52
0.35770	34.51
0.37437	34.52
0.39103	34.52
0.40770	34.53
0.42437	34.53
0.44103	34.51
0.45770	34.52
0.47437	34.52
0.49103	34.52
0.50770	34.51
0.52437	34.52
0.54103	34.52
0.55770	34.52
0.57437	34.51
0.59103	34.52
0.60770	34.52
0.62437	34.52
0.64103	34.52
0.65770	34.52
0.67437	34.52
0.69103	34.52
0.70770	34.52
0.72437	34.52
0.74103	34.52
0.75770	34.51
0.77437	34.52
0.79103	34.52
0.80770	34.52
0.82437	34.52
0.84103	34.52
0.85770	34.52
0.87437	34.52
0.89103	34.52
0.90770	34.52
0.92437	34.52
0.94103	34.52
0.95770	34.52
0.97437	34.52
0.99103	34.52
1.00770	34.52
1.02437	34.52
1.04103	34.52
1.05770	34.52
1.07437	34.52
1.09103	34.51
1.10770	34.52
1.12437	34.52
1.14103	34.52
1.15770	34.52
1.17437	34.52
1.19103	34.52
1.20770	34.52
1.22437	34.52
1.24103	34.52
1.25770	34.52
1.27437	34.52
1.29103	34.52
1.30770	34.52
1.32437	34.52
1.34103	34.52
1.35770	34.52
1.37437	34.52
1.39103	34.52
1.40770	34.52
1.42437	34.52
1.44103	34.52
1.45770	34.52
1.47437	34.52
1.49103	34.52
1.50770	34.52
1.52437	34.52
1.54103	34.52
1.55770	34.52
1.57437	34.52
1.59103	34.52
1.60770	34.52
1.62437	34.52
1.64103	34.52
1.65770	34.52
1.67437	34.51
1.69103	34.52
1.70770	34.51
1.72437	34.52
1.74103	34.52
1.75770	34.52
1.77437	34.52
1.79103	34.51
1.80770	34.52
1.82437	34.51
1.84103	34.52
1.85770	34.52
1.87437	34.52
1.89103	34.52
1.90770	34.52
1.92437	34.51
1.94103	34.52
1.95770	34.52
1.97437	34.52
1.99103	34.50
2.00770	34.52
2.02437	34.52
2.04103	34.54
2.05770	34.51
2.07437	34.52
2.09103	34.53
2.10770	34.53
2.12437	34.52
2.14103	34.52
2.15770	34.52
2.17437	34.52
2.19103	34.52
2.20770	34.52
2.22437	34.52
2.24103	34.51
2.25770	34.53
2.27437	34.52
2.29103	34.53
2.30770	34.51
2.32437	34.51
2.34103	34.52
2.35770	34.51
2.37437	34.52
2.39103	34.51
2.40770	34.52
2.42437	34.51
2.44103	34.51
2.45770	34.52
2.47437	34.53
2.49103	34.51
2.50770	34.41
2.52437	34.52
2.54103	34.52
2.55770	34.52
2.57437	34.52
2.59103	34.52
2.60770	34.52
2.62437	34.52
2.64103	34.52
2.65770	34.52
2.67437	34.52
2.69103	34.52
2.70770	34.52
2.72437	34.52
2.74103	34.52
2.75770	34.52
2.77437	34.52
2.79103	34.52
2.80770	34.52
2.82437	34.52
2.84103	34.52
2.85770	34.52
2.87437	34.52
2.89103	34.52
2.90770	34.52
2.92437	34.52
2.94103	34.52
2.95770	34.52
2.97437	34.52
2.99103	34.52
3.00770	34.52
3.02437	34.52
3.04103	34.52
3.05770	34.52
3.07437	34.52
3.09103	34.52
3.10770	34.52
3.12437	34.52
3.14103	34.52
3.15770	34.52
3.17437	34.52
3.19103	34.52
3.20770	34.52
3.22437	34.52
3.24103	34.52
3.25770	34.52
3.27437	34.52
3.29103	34.52
3.30770	34.52
3.32437	34.52
3.34103	34.52
3.35770	34.52
3.37437	34.52
3.39103	34.52
3.40770	34.52
3.42437	34.52
3.44103	34.52
3.45770	34.52
3.47437	34.52
3.49103	34.52
3.50770	34.52
3.52437	34.52
3.54103	34.52
3.55770	34.52
3.57437	34.52
3.59103	34.52
3.60770	34.52
3.62437	34.52
3.64103	34.52
3.65770	34.52
3.67437	34.52
3.69103	34.52
3.70770	34.52
3.72437	34.52
3.74103	34.52
3.75770	34.52
3.77437	34.52
3.79103	34.52
3.80770	34.52
3.82437	34.52
3.84103	34.52
3.85770	34.52
3.87437	34.52
3.89103	34.52
3.90770	34.52
3.92437	34.52
3.94103	34.52
3.95770	34.52
3.97437	34.52
3.99103	34.52

[Status Trace (Column Flow)]
Interval(msec)	1000
# of Points	240
Start Time(min)	0.008
End Time(min)	3.991
Intensity Units	
Intensity Multiplier	1
R.Time (min)	Intensity
0.00770	5.49
0.02437	5.20
0.04103	5.38
0.05770	5.63
0.07437	5.67
0.09103	5.50
0.10770	5.49
0.12437	5.49
0.14103	5.49
0.15770	5.49
0.17437	5.49
0.19103	5.49
0.20770	5.49
0.22437	5.49
0.24103	5.49
0.25770	5.49
0.27437	5.49
0.29103	5.49
0.30770	5.49
0.32437	5.49
0.34103	5.49
0.35770	5.49
0.37437	5.49
0.39103	5.49
0.40770	5.49
0.42437	5.49
0.44103	5.49
0.45770	5.49
0.47437	5.49
0.49103	5.49
0.50770	5.49
0.52437	5.49
0.54103	5.49
0.55770	5.49
0.57437	5.49
0.59103	5.49
0.60770	5.49
0.62437	5.49
0.64103	5.49
0.65770	5.49
0.67437	5.49
0.69103	5.49
0.70770	5.49
0.72437	5.49
0.74103	5.49
0.75770	5.49
0.77437	5.49
0.79103	5.49
0.80770	5.49
0.82437	5.49
0.84103	5.49
0.85770	5.49
0.87437	5.49
0.89103	5.49
0.90770	5.49
0.92437	5.49
0.94103	5.49
0.95770	5.49
0.97437	5.49
0.99103	5.49
1.00770	5.49
1.02437	5.49
1.04103	5.49
1.05770	5.49
1.07437	5.49
1.09103	5.49
1.10770	5.49
1.12437	5.49
1.14103	5.49
1.15770	5.49
1.17437	5.49
1.19103	5.49
1.20770	5.49
1.22437	5.49
1.24103	5.49
1.25770	5.49
1.27437	5.49
1.29103	5.49
1.30770	5.49
1.32437	5.49
1.34103	5.49
1.35770	5.49
1.37437	5.49
1.39103	5.49
1.40770	5.49
1.42437	5.49
1.44103	5.49
1.45770	5.49
1.47437	5.49
1.49103	5.49
1.50770	5.49
1.52437	5.49
1.54103	5.49
1.55770	5.49
1.57437	5.49
1.59103	5.49
1.60770	5.49
1.62437	5.48
1.64103	5.48
1.65770	5.47
1.67437	5.46
1.69103	5.45
1.70770	5.44
1.72437	5.43
1.74103	5.42
1.75770	5.41
1.77437	5.40
1.79103	5.39
1.80770	5.38
1.82437	5.37
1.84103	5.36
1.85770	5.35
1.87437	5.34
1.89103	5.33
1.90770	5.32
1.92437	5.31
1.94103	5.30
1.95770	5.29
1.97437	5.28
1.99103	5.27
2.00770	5.26
2.02437	5.25
2.04103	5.24
2.05770	5.23
2.07437	5.22
2.09103	5.21
2.10770	5.20
2.12437	5.19
2.14103	5.18
2.15770	5.17
2.17437	5.16
2.19103	5.16
2.20770	5.15
2.22437	5.14
2.24103	5.13
2.25770	5.12
2.27437	5.11
2.29103	5.10
2.30770	5.09
2.32437	5.08
2.34103	5.07
2.35770	5.06
2.37437	5.06
2.39103	5.06
2.40770	5.06
2.42437	5.06
2.44103	5.06
2.45770	5.06
2.47437	5.06
2.49103	5.06
2.50770	5.06
2.52437	5.06
2.54103	5.06
2.55770	5.06
2.57437	5.05
2.59103	5.05
2.60770	5.05
2.62437	5.05
2.64103	5.05
2.65770	5.05
2.67437	5.05
2.69103	5.05
2.70770	5.05
2.72437	5.05
2.74103	5.05
2.75770	5.05
2.77437	5.05
2.79103	5.05
2.80770	5.05
2.82437	5.05
2.84103	5.05
2.85770	5.05
2.87437	5.05
2.89103	5.05
2.90770	5.05
2.92437	5.05
2.94103	5.05
2.95770	5.05
2.97437	5.05
2.99103	5.05
3.00770	5.05
3.02437	5.05
3.04103	5.05
3.05770	5.05
3.07437	5.05
3.09103	5.05
3.10770	5.05
3.12437	5.05
3.14103	5.05
3.15770	5.05
3.17437	5.05
3.19103	5.05
3.20770	5.05
3.22437	5.05
3.24103	5.05
3.25770	5.05
3.27437	5.05
3.29103	5.05
3.30770	5.05
3.32437	5.05
3.34103	5.05
3.35770	5.05
3.37437	5.05
3.39103	5.05
3.40770	5.05
3.42437	5.05
3.44103	5.05
3.45770	5.05
3.47437	5.05
3.49103	5.05
3.50770	5.05
3.52437	5.05
3.54103	5.05
3.55770	5.05
3.57437	5.05
3.59103	5.05
3.60770	5.05
3.62437	5.05
3.64103	5.05
3.65770	5.05
3.67437	5.05
3.69103	5.05
3.70770	5.05
3.72437	5.05
3.74103	5.05
3.75770	5.05
3.77437	5.05
3.79103	5.05
3.80770	5.05
3.82437	5.05
3.84103	5.05
3.85770	5.05
3.87437	5.05
3.89103	5.05
3.90770	5.05
3.92437	5.05
3.94103	5.05
3.95770	5.05
3.97437	5.05
3.99103	5.05

[Status Trace (Linear Velocity)]
Interval(msec)	1000
# of Points	240
Start Time(min)	0.008
End Time(min)	3.991
Intensity Units	
Intensity Multiplier	1
R.Time (min)	Intensity
0.00770	39.01
0.02437	37.33
0.04103	38.39
0.05770	39.80
0.07437	40.04
0.09103	39.07
0.10770	38.99
0.12437	39.02
0.14103	39.02
0.15770	39.01
0.17437	39.01
0.19103	39.01
0.20770	39.01
0.22437	39.01
0.24103	39.01
0.25770	39.01
0.27437	39.01
0.29103	39.01
0.30770	39.01
0.32437	39.01
0.34103	39.01
0.35770	39.01
0.37437	39.01
0.39103	39.01
0.40770	39.01
0.42437	39.01
0.44103	39.01
0.45770	39.01
0.47437	39.01
0.49103	39.01
0.50770	39.01
0.52437	39.01
0.54103	39.01
0.55770	39.01
0.57437	39.01
0.59103	39.01
0.60770	39.01
0.62437	39.01
0.64103	39.01
0.65770	39.01
0.67437	39.01
0.69103	39.01
0.70770	39.01
0.72437	39.01
0.74103	39.01
0.75770	39.01
0.77437	39.01
0.79103	39.01
0.80770	39.01
0.82437	39.00
0.84103	39.00
0.85770	39.00
0.87437	39.00
0.89103	39.00
0.90770	39.00
0.92437	39.01
0.94103	39.01
0.95770	39.01
0.97437	39.01
0.99103	39.01
1.00770	39.01
1.02437	39.01
1.04103	39.01
1.05770	39.01
1.07437	39.01
1.09103	39.01
1.10770	39.01
1.12437	39.01
1.14103	39.01
1.15770	39.01
1.17437	39.01
1.19103	39.01
1.20770	39.01
1.22437	39.00
1.24103	39.00
1.25770	39.01
1.27437	39.01
1.29103	39.01
1.30770	39.01
1.32437	39.01
1.34103	39.01
1.35770	39.01
1.37437	39.01
1.39103	39.01
1.40770	39.01
1.42437	39.01
1.44103	39.01
1.45770	39.01
1.47437	39.01
1.49103	39.01
1.50770	39.01
1.52437	39.01
1.54103	39.01
1.55770	39.01
1.57437	39.01
1.59103	39.01
1.60770	39.01
1.62437	39.00
1.64103	38.98
1.65770	38.95
1.67437	38.92
1.69103	38.88
1.70770	38.85
1.72437	38.82
1.74103	38.79
1.75770	38.75
1.77437	38.73
1.79103	38.70
1.80770	38.66
1.82437	38.63
1.84103	38.60
1.85770	38.57
1.87437	38.54
1.89103	38.51
1.90770	38.47
1.92437	38.44
1.94103	38.41
1.95770	38.38
1.97437	38.35
1.99103	38.32
2.00770	38.29
2.02437	38.26
2.04103	38.23
2.05770	38.20
2.07437	38.17
2.09103	38.14
2.10770	38.11
2.12437	38.08
2.14103	38.05
2.15770	38.02
2.17437	38.00
2.19103	37.97
2.20770	37.94
2.22437	37.91
2.24103	37.88
2.25770	37.85
2.27437	37.82
2.29103	37.79
2.30770	37.76
2.32437	37.73
2.34103	37.70
2.35770	37.68
2.37437	37.66
2.39103	37.65
2.40770	37.65
2.42437	37.65
2.44103	37.65
2.45770	37.65
2.47437	37.65
2.49103	37.65
2.50770	37.65
2.52437	37.64
2.54103	37.65
2.55770	37.65
2.57437	37.64
2.59103	37.64
2.60770	37.64
2.62437	37.64
2.64103	37.64
2.65770	37.64
2.67437	37.64
2.69103	37.64
2.70770	37.64
2.72437	37.64
2.74103	37.64
2.75770	37.64
2.77437	37.64
2.79103	37.64
2.80770	37.64
2.82437	37.64
2.84103	37.64
2.85770	37.64
2.87437	37.63
2.89103	37.63
2.90770	37.63
2.92437	37.63
2.94103	37.63
2.95770	37.63
2.97437	37.63
2.99103	37.63
3.00770	37.63
3.02437	37.63
3.04103	37.63
3.05770	37.63
3.07437	37.62
3.09103	37.63
3.10770	37.62
3.12437	37.62
3.14103	37.62
3.15770	37.62
3.17437	37.62
3.19103	37.62
3.20770	37.62
3.22437	37.62
3.24103	37.62
3.25770	37.62
3.27437	37.62
3.29103	37.62
3.30770	37.62
3.32437	37.62
3.34103	37.62
3.35770	37.62
3.37437	37.62
3.39103	37.62
3.40770	37.62
3.42437	37.62
3.44103	37.62
3.45770	37.62
3.47437	37.62
3.49103	37.62
3.50770	37.62
3.52437	37.62
3.54103	37.62
3.55770	37.62
3.57437	37.62
3.59103	37.62
3.60770	37.62
3.62437	37.62
3.64103	37.62
3.65770	37.62
3.67437	37.62
3.69103	37.62
3.70770	37.62
3.72437	37.62
3.74103	37.62
3.75770	37.62
3.77437	37.62
3.79103	37.62
3.80770	37.62
3.82437	37.62
3.84103	37.62
3.85770	37.62
3.87437	37.62
3.89103	37.62
3.90770	37.62
3.92437	37.62
3.94103	37.62
3.95770	37.62
3.97437	37.62
3.99103	37.62

