[Header]
Application Name	LabSolutions
Version	5.110
Data File Name	C:\Users\User\Desktop\GC Analyses\Jack\UIC Prairie Sampling\7.22.22\220722_094.gcd
Output Date	10/5/2022
Output Time	2:13:44 PM

[File Information]
Type	Data File
Generated	10/5/2022 12:18:23 PM
Generated by	System Administrator
Modified	10/5/2022 12:22:33 PM
Modified by	System Administrator

[Sample Information]
Operator Name	System Administrator
Acquired	10/5/2022 12:18:32 PM
Sample Type	1:Standard
Level	1
Sample Name	220722_UICPrairie
Sample ID	220722_UICPrairie
ISTD Amount1	1
ISTD Amount2	1
ISTD Amount3	1
ISTD Amount4	1
ISTD Amount5	1
ISTD Amount6	1
ISTD Amount7	1
ISTD Amount8	1
ISTD Amount9	1
ISTD Amount10	1
ISTD Amount11	1
ISTD Amount12	1
ISTD Amount13	1
ISTD Amount14	1
ISTD Amount15	1
ISTD Amount16	1
ISTD Amount17	1
ISTD Amount18	1
ISTD Amount19	1
ISTD Amount20	1
ISTD Amount21	1
ISTD Amount22	1
ISTD Amount23	1
ISTD Amount24	1
ISTD Amount25	1
ISTD Amount26	1
ISTD Amount27	1
ISTD Amount28	1
ISTD Amount29	1
ISTD Amount30	1
ISTD Amount31	1
ISTD Amount32	1
Sample Amount	1
Dilution Factor	1
Vial#	1
Injection Volume	1
Injection Count	1
Bar Code	

[Original Files]
Data File	C:\Users\User\Desktop\GC Analyses\Jack\UIC Prairie Sampling\7.22.22\220722_094.gcd
Method File	C:\LabSolutions\Data\GHG_4min_2022\ghg3_togas_w_acet_4 min_new_int.gcm
Batch File	
Report Format File	c:\LabSolutions\System\DEFAULT.lsr

[File Description]


[Configuration]
Instrument Name	C0B7VH3-Instrument1
Instrument #	1
Line #	1
# of Detectors	3
Detector ID	DET#1	DET#2	DET#3
Detector Name	FID	PTCD	ECD
# of Channels	1	1	1

[Peak Table(Ch1)]
# of Peaks	3
Peak#	R.Time	I.Time	F.Time	Area	Height	A/H	Conc.	Mark	ID#	Name	k'	Plate #	Plate Ht.	Tailing	Resolution	Sep.Factor	Area Ratio	Height Ratio	Conc. %	Norm Conc.
1	1.479	1.439	1.542	15292	6914	2.212	100.000	   	1	CO	0.000	8562	17.519	1.195	0.000	0.000	0	0	16.667	16.667
2	1.575	1.542	1.644	4379	2186	2.004	100.000	 V 	2	CH4	0.064	11580	12.954	1.123	1.557	0.000	0	0	16.667	16.667
3	2.000	1.956	2.341	2554593	1246168	2.050	400.000	   	3	CO2	0.352	17778	8.438	1.300	7.177	5.462	0	0	66.667	66.667

[Peak Table(Ch2)]
# of Peaks	0

[Peak Table(Ch3)]
# of Peaks	3
Peak#	R.Time	I.Time	F.Time	Area	Height	A/H	Conc.	Mark	ID#	Name	k'	Plate #	Plate Ht.	Tailing	Resolution	Sep.Factor	Area Ratio	Height Ratio	Conc. %	Norm Conc.
1	2.594	2.466	2.656	2961	412	7.189	0.000	   			0.000	3387	44.285	0.000	0.000	0.000	0	0	0.000	0.000
2	2.777	2.656	2.821	1606	201	7.983	0.066	 V 	1	N2O	0.071	126	1193.490	0.000	0.314	0.000	0	0	6.607	6.607
3	2.887	2.821	3.665	22706	4984	4.556	0.934	 V 	1	N2O	0.113	12750	11.765	1.620	0.201	1.600	0	0	93.393	93.393

[Compound Results(Ch1)]
# of IDs	6
ID#	Name	R.Time	Area	Height	Conc.	Curve	3rd	2nd	1st	Constant	Area Ratio	Height Ratio	Conc. %	Norm Conc.
1	CO	1.479	15292	6914	100.000	Linear	0.000000e+00	0.000000e+00	1.529243e+002	0.000000e+00	0	0	16.667	16.667
2	CH4	1.575	4379	2186	100.000	Linear	0.000000e+00	0.000000e+00	4.378807e+001	0.000000e+00	0	0	16.667	16.667
3	CO2	2.000	2554593	1246168	400.000	Linear	0.000000e+00	0.000000e+00	6.386482e+003	0.000000e+00	0	0	66.667	66.667
4	Ethylene	0.000	0	0	0.000	Linear	0.000000e+00	0.000000e+00	0.000000e+00	0.000000e+00	0	0	0.000	0.000
5	Acetylene	0.000	0	0	0.000	Linear	0.000000e+00	0.000000e+00	0.000000e+00	0.000000e+00	0	0	0.000	0.000
6	Ethane	0.000	0	0	0.000	Linear	0.000000e+00	0.000000e+00	0.000000e+00	0.000000e+00	0	0	0.000	0.000

[Compound Results(Ch2)]
# of IDs	5
ID#	Name	R.Time	Area	Height	Conc.	Curve	3rd	2nd	1st	Constant	Area Ratio	Height Ratio	Conc. %	Norm Conc.
1	Hydrogen	0.000	0	0	0.000	Linear	0.000000e+00	0.000000e+00	0.000000e+00	0.000000e+00	0	0	0.000	0.000
2	Oxygen	0.000	0	0	0.000	Linear	0.000000e+00	0.000000e+00	0.000000e+00	0.000000e+00	0	0	0.000	0.000
3	Nitrogen	0.000	0	0	0.000	Linear	0.000000e+00	0.000000e+00	0.000000e+00	0.000000e+00	0	0	0.000	0.000
4	Methane	0.000	0	0	0.000	Linear	0.000000e+00	0.000000e+00	0.000000e+00	0.000000e+00	0	0	0.000	0.000
5	Carbon Monoxide	0.000	0	0	0.000	Linear	0.000000e+00	0.000000e+00	0.000000e+00	0.000000e+00	0	0	0.000	0.000

[Compound Results(Ch3)]
# of IDs	2
ID#	Name	R.Time	Area	Height	Conc.	Curve	3rd	2nd	1st	Constant	Area Ratio	Height Ratio	Conc. %	Norm Conc.
1	N2O	2.887	24313	5185	1.000	Linear	0.000000e+00	0.000000e+00	2.431271e+004	0.000000e+00	0	0	100.000	100.000
2	SF6	0.000	0	0	0.000	Linear	0.000000e+00	0.000000e+00	0.000000e+00	0.000000e+00	0	0	0.000	0.000

[Group Results(Ch1)]
# of Groups	0

[Group Results(Ch2)]
# of Groups	0

[Group Results(Ch3)]
# of Groups	0

[Chromatogram (Ch1)]
Interval(msec)	220
# of Points	1091
Start Time(min)	0.002
End Time(min)	3.998
R.Time (min)	Intensity
0.00167	-29
0.00533	-31
0.00900	-29
0.01267	-27
0.01633	-25
0.02000	-25
0.02367	-23
0.02733	-20
0.03100	-19
0.03467	-17
0.03833	-14
0.04200	-10
0.04567	-8
0.04933	-12
0.05300	-16
0.05667	-16
0.06033	-18
0.06400	-20
0.06767	-21
0.07133	-17
0.07500	-13
0.07867	-11
0.08233	-11
0.08600	-11
0.08967	-12
0.09333	-12
0.09700	-14
0.10067	-18
0.10433	-24
0.10800	-26
0.11167	-23
0.11533	-18
0.11900	-14
0.12267	-13
0.12633	-12
0.13000	-17
0.13367	-25
0.13733	-30
0.14100	-34
0.14467	-34
0.14833	-32
0.15200	-31
0.15567	-28
0.15933	-28
0.16300	-26
0.16667	-23
0.17033	-19
0.17400	-12
0.17767	-4
0.18133	1
0.18500	-1
0.18867	-5
0.19233	-14
0.19600	-26
0.19967	-34
0.20333	-37
0.20700	-37
0.21067	-36
0.21433	-36
0.21800	-34
0.22167	-33
0.22533	-30
0.22900	-26
0.23267	-21
0.23633	-20
0.24000	-20
0.24367	-24
0.24733	-30
0.25100	-31
0.25467	-27
0.25833	-20
0.26200	-13
0.26567	-2
0.26933	-3
0.27300	-15
0.27667	-26
0.28033	-34
0.28400	-39
0.28767	-44
0.29133	-49
0.29500	-56
0.29867	-57
0.30233	-54
0.30600	-46
0.30967	-39
0.31333	-33
0.31700	-28
0.32067	-27
0.32433	-27
0.32800	-27
0.33167	-25
0.33533	-24
0.33900	-25
0.34267	-28
0.34633	-29
0.35000	-29
0.35367	-25
0.35733	-20
0.36100	-18
0.36467	-20
0.36833	-25
0.37200	-30
0.37567	-35
0.37933	-34
0.38300	-31
0.38667	-27
0.39033	-24
0.39400	-22
0.39767	-22
0.40133	-24
0.40500	-26
0.40867	-28
0.41233	-31
0.41600	-33
0.41967	-34
0.42333	-32
0.42700	-30
0.43067	-29
0.43433	-33
0.43800	-40
0.44167	-45
0.44533	-44
0.44900	-40
0.45267	-35
0.45633	-31
0.46000	-30
0.46367	-31
0.46733	-34
0.47100	-39
0.47467	-41
0.47833	-37
0.48200	-34
0.48567	-31
0.48933	-30
0.49300	-30
0.49667	-31
0.50033	-30
0.50400	-28
0.50767	-30
0.51133	-35
0.51500	-42
0.51867	-45
0.52233	-42
0.52600	-35
0.52967	-28
0.53333	-23
0.53700	-22
0.54067	-25
0.54433	-32
0.54800	-39
0.55167	-43
0.55533	-46
0.55900	-48
0.56267	-48
0.56633	-48
0.57000	-49
0.57367	-49
0.57733	-50
0.58100	-53
0.58467	-60
0.58833	-64
0.59200	-66
0.59567	-60
0.59933	-50
0.60300	-43
0.60667	-41
0.61033	-40
0.61400	-42
0.61767	-45
0.62133	-49
0.62500	-52
0.62867	-54
0.63233	-54
0.63600	-50
0.63967	-49
0.64333	-53
0.64700	-57
0.65067	-56
0.65433	-55
0.65800	-53
0.66167	-54
0.66533	-56
0.66900	-58
0.67267	-60
0.67633	-59
0.68000	-55
0.68367	-54
0.68733	-55
0.69100	-55
0.69467	-56
0.69833	-58
0.70200	-61
0.70567	-66
0.70933	-70
0.71300	-71
0.71667	-70
0.72033	-64
0.72400	-60
0.72767	-60
0.73133	-59
0.73500	-56
0.73867	-54
0.74233	-52
0.74600	-58
0.74967	-68
0.75333	-61
0.75700	-54
0.76067	-51
0.76433	-50
0.76800	-49
0.77167	-48
0.77533	-48
0.77900	-51
0.78267	-58
0.78633	-67
0.79000	-75
0.79367	-79
0.79733	-83
0.80100	-82
0.80467	-77
0.80833	-71
0.81200	-68
0.81567	-66
0.81933	-70
0.82300	-77
0.82667	-79
0.83033	-77
0.83400	-74
0.83767	-73
0.84133	-75
0.84500	-76
0.84867	-73
0.85233	-69
0.85600	-64
0.85967	-62
0.86333	-61
0.86700	-63
0.87067	-68
0.87433	-73
0.87800	-74
0.88167	-71
0.88533	-66
0.88900	-64
0.89267	-66
0.89633	-70
0.90000	-69
0.90367	-68
0.90733	-74
0.91100	-79
0.91467	-84
0.91833	-83
0.92200	-75
0.92567	-65
0.92933	-62
0.93300	-64
0.93667	-67
0.94033	-67
0.94400	-65
0.94767	-65
0.95133	-63
0.95500	-58
0.95867	-51
0.96233	-46
0.96600	-47
0.96967	-51
0.97333	-55
0.97700	-59
0.98067	-65
0.98433	-72
0.98800	-79
0.99167	-84
0.99533	-87
0.99900	-90
1.00267	-93
1.00633	-96
1.01000	-99
1.01367	-97
1.01733	-91
1.02100	-81
1.02467	-77
1.02833	-80
1.03200	-84
1.03567	-84
1.03933	-78
1.04300	-70
1.04667	-61
1.05033	-54
1.05400	-50
1.05767	-52
1.06133	-56
1.06500	-58
1.06867	-60
1.07233	-61
1.07600	-61
1.07967	-61
1.08333	-64
1.08700	-71
1.09067	-79
1.09433	-86
1.09800	-88
1.10167	-84
1.10533	-76
1.10900	-65
1.11267	-59
1.11633	-61
1.12000	-65
1.12367	-73
1.12733	-79
1.13100	-80
1.13467	-78
1.13833	-76
1.14200	-74
1.14567	-72
1.14933	-74
1.15300	-78
1.15667	-80
1.16033	-78
1.16400	-79
1.16767	-83
1.17133	-85
1.17500	-83
1.17867	-79
1.18233	-76
1.18600	-76
1.18967	-75
1.19333	-73
1.19700	-75
1.20067	-78
1.20433	-77
1.20800	-74
1.21167	-73
1.21533	-73
1.21900	-75
1.22267	-76
1.22633	-77
1.23000	-77
1.23367	-75
1.23733	-76
1.24100	-77
1.24467	-81
1.24833	-85
1.25200	-91
1.25567	-94
1.25933	-94
1.26300	-90
1.26667	-87
1.27033	-88
1.27400	-90
1.27767	-92
1.28133	-91
1.28500	-86
1.28867	-82
1.29233	-79
1.29600	-76
1.29967	-74
1.30333	-73
1.30700	-75
1.31067	-78
1.31433	-78
1.31800	-75
1.32167	-72
1.32533	-70
1.32900	-74
1.33267	-79
1.33633	-82
1.34000	-86
1.34367	-92
1.34733	-94
1.35100	-95
1.35467	-96
1.35833	-98
1.36200	-97
1.36567	-94
1.36933	-92
1.37300	-87
1.37667	-81
1.38033	-77
1.38400	-74
1.38767	-76
1.39133	-82
1.39500	-86
1.39867	-88
1.40233	-91
1.40600	-94
1.40967	-95
1.41333	-94
1.41700	-94
1.42067	-94
1.42433	-95
1.42800	-96
1.43167	-98
1.43533	-98
1.43900	-88
1.44267	-51
1.44633	71
1.45000	376
1.45367	919
1.45733	1771
1.46100	2927
1.46467	4186
1.46833	5311
1.47200	6160
1.47567	6674
1.47933	6821
1.48300	6575
1.48667	5950
1.49033	5052
1.49400	4047
1.49767	3094
1.50133	2282
1.50500	1639
1.50867	1151
1.51233	791
1.51600	527
1.51967	337
1.52333	205
1.52700	112
1.53067	47
1.53433	2
1.53800	-27
1.54167	-35
1.54533	4
1.54900	149
1.55267	439
1.55633	841
1.56000	1269
1.56367	1644
1.56733	1922
1.57100	2077
1.57467	2082
1.57833	1923
1.58200	1630
1.58567	1269
1.58933	916
1.59300	618
1.59667	393
1.60033	233
1.60400	122
1.60767	45
1.61133	-3
1.61500	-29
1.61867	-46
1.62233	-57
1.62600	-67
1.62967	-77
1.63333	-86
1.63700	-97
1.64067	-106
1.64433	-112
1.64800	-117
1.65167	-120
1.65533	-121
1.65900	-118
1.66267	-113
1.66633	-110
1.67000	-110
1.67367	-111
1.67733	-113
1.68100	-118
1.68467	-124
1.68833	-119
1.69200	-113
1.69567	-112
1.69933	-114
1.70300	-114
1.70667	-114
1.71033	-113
1.71400	-109
1.71767	-104
1.72133	-101
1.72500	-101
1.72867	-106
1.73233	-113
1.73600	-117
1.73967	-118
1.74333	-118
1.74700	-116
1.75067	-112
1.75433	-109
1.75800	-104
1.76167	-98
1.76533	-97
1.76900	-99
1.77267	-102
1.77633	-107
1.78000	-110
1.78367	-110
1.78733	-108
1.79100	-108
1.79467	-110
1.79833	-113
1.80200	-117
1.80567	-118
1.80933	-115
1.81300	-110
1.81667	-106
1.82033	-101
1.82400	-97
1.82767	-96
1.83133	-92
1.83500	-85
1.83867	-82
1.84233	-82
1.84600	-85
1.84967	-90
1.85333	-97
1.85700	-103
1.86067	-106
1.86433	-105
1.86800	-103
1.87167	-102
1.87533	-102
1.87900	-104
1.88267	-104
1.88633	-105
1.89000	-107
1.89367	-110
1.89733	-111
1.90100	-109
1.90467	-106
1.90833	-105
1.91200	-99
1.91567	-93
1.91933	-91
1.92300	-90
1.92667	-87
1.93033	-83
1.93400	-80
1.93767	-77
1.94133	-73
1.94500	-71
1.94867	-75
1.95233	-82
1.95600	-74
1.95967	52
1.96333	896
1.96700	5022
1.97067	20454
1.97433	64657
1.97800	161945
1.98167	327828
1.98533	550808
1.98900	793535
1.99267	1011968
1.99633	1170102
2.00000	1246120
2.00367	1232178
2.00733	1135955
2.01100	979760
2.01467	794347
2.01833	609779
2.02200	447436
2.02567	317129
2.02933	219349
2.03300	149450
2.03667	101144
2.04033	68498
2.04400	46735
2.04767	32323
2.05133	22787
2.05500	16440
2.05867	12168
2.06233	9246
2.06600	7210
2.06967	5764
2.07333	4713
2.07700	3931
2.08067	3340
2.08433	2885
2.08800	2527
2.09167	2235
2.09533	1994
2.09900	1796
2.10267	1632
2.10633	1494
2.11000	1377
2.11367	1273
2.11733	1182
2.12100	1104
2.12467	1035
2.12833	974
2.13200	916
2.13567	858
2.13933	805
2.14300	757
2.14667	714
2.15033	676
2.15400	643
2.15767	612
2.16133	580
2.16500	550
2.16867	526
2.17233	506
2.17600	489
2.17967	475
2.18333	463
2.18700	453
2.19067	440
2.19433	427
2.19800	414
2.20167	395
2.20533	367
2.20900	365
2.21267	366
2.21633	369
2.22000	365
2.22367	354
2.22733	341
2.23100	324
2.23467	302
2.23833	294
2.24200	292
2.24567	279
2.24933	272
2.25300	270
2.25667	254
2.26033	249
2.26400	260
2.26767	264
2.27133	256
2.27500	246
2.27867	239
2.28233	230
2.28600	224
2.28967	218
2.29333	215
2.29700	212
2.30067	206
2.30433	202
2.30800	201
2.31167	200
2.31533	194
2.31900	184
2.32267	173
2.32633	163
2.33000	158
2.33367	155
2.33733	153
2.34100	149
2.34467	146
2.34833	142
2.35200	142
2.35567	142
2.35933	143
2.36300	144
2.36667	145
2.37033	155
2.37400	162
2.37767	165
2.38133	167
2.38500	166
2.38867	160
2.39233	148
2.39600	138
2.39967	134
2.40333	136
2.40700	140
2.41067	140
2.41433	139
2.41800	141
2.42167	145
2.42533	153
2.42900	152
2.43267	146
2.43633	141
2.44000	137
2.44367	133
2.44733	129
2.45100	124
2.45467	119
2.45833	115
2.46200	113
2.46567	111
2.46933	110
2.47300	108
2.47667	107
2.48033	103
2.48400	98
2.48767	96
2.49133	93
2.49500	89
2.49867	88
2.50233	90
2.50600	92
2.50967	94
2.51333	91
2.51700	86
2.52067	81
2.52433	76
2.52800	74
2.53167	77
2.53533	84
2.53900	95
2.54267	99
2.54633	95
2.55000	89
2.55367	84
2.55733	80
2.56100	75
2.56467	70
2.56833	65
2.57200	59
2.57567	51
2.57933	50
2.58300	51
2.58667	51
2.59033	50
2.59400	49
2.59767	50
2.60133	50
2.60500	51
2.60867	51
2.61233	52
2.61600	55
2.61967	58
2.62333	58
2.62700	59
2.63067	61
2.63433	62
2.63800	60
2.64167	54
2.64533	45
2.64900	39
2.65267	36
2.65633	34
2.66000	35
2.66367	39
2.66733	44
2.67100	49
2.67467	52
2.67833	52
2.68200	50
2.68567	46
2.68933	40
2.69300	35
2.69667	30
2.70033	26
2.70400	23
2.70767	24
2.71133	28
2.71500	28
2.71867	26
2.72233	26
2.72600	28
2.72967	29
2.73333	30
2.73700	31
2.74067	34
2.74433	36
2.74800	37
2.75167	37
2.75533	36
2.75900	39
2.76267	40
2.76633	38
2.77000	31
2.77367	22
2.77733	16
2.78100	14
2.78467	13
2.78833	14
2.79200	16
2.79567	16
2.79933	15
2.80300	13
2.80667	9
2.81033	10
2.81400	17
2.81767	26
2.82133	35
2.82500	38
2.82867	35
2.83233	29
2.83600	20
2.83967	9
2.84333	-1
2.84700	-5
2.85067	-5
2.85433	-4
2.85800	-4
2.86167	-6
2.86533	-11
2.86900	-15
2.87267	-18
2.87633	-19
2.88000	-20
2.88367	-19
2.88733	-18
2.89100	-14
2.89467	-5
2.89833	4
2.90200	9
2.90567	15
2.90933	21
2.91300	25
2.91667	22
2.92033	17
2.92400	14
2.92767	18
2.93133	20
2.93500	19
2.93867	16
2.94233	12
2.94600	10
2.94967	8
2.95333	4
2.95700	-1
2.96067	-5
2.96433	-8
2.96800	-7
2.97167	-2
2.97533	5
2.97900	11
2.98267	17
2.98633	21
2.99000	21
2.99367	16
2.99733	10
3.00100	6
3.00467	4
3.00833	4
3.01200	6
3.01567	9
3.01933	11
3.02300	9
3.02667	6
3.03033	1
3.03400	-1
3.03767	-0
3.04133	1
3.04500	-0
3.04867	-4
3.05233	-6
3.05600	-6
3.05967	-5
3.06333	-4
3.06700	1
3.07067	5
3.07433	4
3.07800	-3
3.08167	-8
3.08533	-7
3.08900	-2
3.09267	2
3.09633	3
3.10000	1
3.10367	-1
3.10733	2
3.11100	5
3.11467	5
3.11833	6
3.12200	7
3.12567	7
3.12933	6
3.13300	2
3.13667	-4
3.14033	-12
3.14400	-16
3.14767	-17
3.15133	-15
3.15500	-13
3.15867	-9
3.16233	-5
3.16600	-4
3.16967	-10
3.17333	-17
3.17700	-22
3.18067	-24
3.18433	-24
3.18800	-22
3.19167	-18
3.19533	-14
3.19900	-10
3.20267	-8
3.20633	-8
3.21000	-11
3.21367	-17
3.21733	-25
3.22100	-32
3.22467	-35
3.22833	-33
3.23200	-30
3.23567	-29
3.23933	-28
3.24300	-26
3.24667	-23
3.25033	-20
3.25400	-19
3.25767	-19
3.26133	-20
3.26500	-17
3.26867	-13
3.27233	-13
3.27600	-16
3.27967	-19
3.28333	-23
3.28700	-27
3.29067	-29
3.29433	-30
3.29800	-31
3.30167	-32
3.30533	-30
3.30900	-24
3.31267	-19
3.31633	-17
3.32000	-19
3.32367	-21
3.32733	-26
3.33100	-35
3.33467	-39
3.33833	-38
3.34200	-34
3.34567	-31
3.34933	-29
3.35300	-25
3.35667	-20
3.36033	-16
3.36400	-13
3.36767	-11
3.37133	-12
3.37500	-16
3.37867	-21
3.38233	-26
3.38600	-30
3.38967	-29
3.39333	-26
3.39700	-24
3.40067	-25
3.40433	-22
3.40800	-21
3.41167	-20
3.41533	-19
3.41900	-18
3.42267	-20
3.42633	-20
3.43000	-18
3.43367	-17
3.43733	-20
3.44100	-24
3.44467	-26
3.44833	-27
3.45200	-30
3.45567	-34
3.45933	-37
3.46300	-39
3.46667	-38
3.47033	-34
3.47400	-28
3.47767	-26
3.48133	-27
3.48500	-28
3.48867	-28
3.49233	-28
3.49600	-29
3.49967	-27
3.50333	-22
3.50700	-17
3.51067	-18
3.51433	-22
3.51800	-26
3.52167	-34
3.52533	-40
3.52900	-44
3.53267	-47
3.53633	-52
3.54000	-57
3.54367	-63
3.54733	-67
3.55100	-68
3.55467	-68
3.55833	-70
3.56200	-72
3.56567	-69
3.56933	-61
3.57300	-53
3.57667	-46
3.58033	-40
3.58400	-36
3.58767	-33
3.59133	-34
3.59500	-38
3.59867	-40
3.60233	-37
3.60600	-31
3.60967	-26
3.61333	-26
3.61700	-28
3.62067	-33
3.62433	-39
3.62800	-44
3.63167	-46
3.63533	-46
3.63900	-45
3.64267	-45
3.64633	-46
3.65000	-47
3.65367	-46
3.65733	-39
3.66100	-30
3.66467	-24
3.66833	-26
3.67200	-33
3.67567	-40
3.67933	-43
3.68300	-43
3.68667	-45
3.69033	-51
3.69400	-56
3.69767	-57
3.70133	-56
3.70500	-53
3.70867	-51
3.71233	-48
3.71600	-48
3.71967	-46
3.72333	-43
3.72700	-42
3.73067	-45
3.73433	-49
3.73800	-48
3.74167	-40
3.74533	-30
3.74900	-26
3.75267	-29
3.75633	-36
3.76000	-44
3.76367	-49
3.76733	-52
3.77100	-50
3.77467	-45
3.77833	-41
3.78200	-39
3.78567	-36
3.78933	-35
3.79300	-39
3.79667	-44
3.80033	-50
3.80400	-52
3.80767	-52
3.81133	-48
3.81500	-43
3.81867	-41
3.82233	-44
3.82600	-40
3.82967	-39
3.83333	-43
3.83700	-42
3.84067	-39
3.84433	-36
3.84800	-35
3.85167	-33
3.85533	-35
3.85900	-39
3.86267	-41
3.86633	-40
3.87000	-36
3.87367	-33
3.87733	-32
3.88100	-32
3.88467	-29
3.88833	-27
3.89200	-30
3.89567	-35
3.89933	-37
3.90300	-35
3.90667	-37
3.91033	-43
3.91400	-50
3.91767	-53
3.92133	-54
3.92500	-54
3.92867	-55
3.93233	-53
3.93600	-51
3.93967	-51
3.94333	-52
3.94700	-53
3.95067	-56
3.95433	-58
3.95800	-63
3.96167	-66
3.96533	-67
3.96900	-67
3.97267	-66
3.97633	-61
3.98000	-55
3.98367	-48
3.98733	-41
3.99100	-37
3.99467	-34
3.99833	-37

[Chromatogram (Ch2)]
Interval(msec)	220
# of Points	1091
Start Time(min)	0.002
End Time(min)	3.998
R.Time (min)	Intensity
0.00167	-1
0.00533	-1
0.00900	-1
0.01267	-1
0.01633	-1
0.02000	-1
0.02367	-1
0.02733	-1
0.03100	-1
0.03467	-1
0.03833	-1
0.04200	-1
0.04567	-0
0.04933	-0
0.05300	-0
0.05667	-0
0.06033	-1
0.06400	-1
0.06767	-1
0.07133	-1
0.07500	-1
0.07867	-2
0.08233	-2
0.08600	-2
0.08967	-1
0.09333	-1
0.09700	-1
0.10067	-0
0.10433	0
0.10800	0
0.11167	0
0.11533	1
0.11900	1
0.12267	2
0.12633	2
0.13000	2
0.13367	3
0.13733	3
0.14100	3
0.14467	3
0.14833	3
0.15200	3
0.15567	4
0.15933	4
0.16300	3
0.16667	3
0.17033	3
0.17400	3
0.17767	3
0.18133	3
0.18500	3
0.18867	3
0.19233	3
0.19600	3
0.19967	3
0.20333	3
0.20700	3
0.21067	3
0.21433	3
0.21800	3
0.22167	3
0.22533	3
0.22900	2
0.23267	2
0.23633	2
0.24000	2
0.24367	1
0.24733	1
0.25100	1
0.25467	0
0.25833	0
0.26200	0
0.26567	0
0.26933	0
0.27300	0
0.27667	0
0.28033	0
0.28400	-0
0.28767	-0
0.29133	-1
0.29500	-1
0.29867	-1
0.30233	-1
0.30600	-1
0.30967	-1
0.31333	-1
0.31700	-1
0.32067	-1
0.32433	-1
0.32800	-1
0.33167	-1
0.33533	-1
0.33900	-1
0.34267	-1
0.34633	-1
0.35000	-1
0.35367	-2
0.35733	-2
0.36100	-2
0.36467	-2
0.36833	-2
0.37200	-2
0.37567	-2
0.37933	-2
0.38300	-2
0.38667	-2
0.39033	-2
0.39400	-2
0.39767	-2
0.40133	-2
0.40500	-2
0.40867	-2
0.41233	-2
0.41600	-2
0.41967	-2
0.42333	-2
0.42700	-2
0.43067	-2
0.43433	-2
0.43800	-2
0.44167	-2
0.44533	-2
0.44900	-2
0.45267	-1
0.45633	-1
0.46000	-1
0.46367	-1
0.46733	-1
0.47100	-1
0.47467	-1
0.47833	-1
0.48200	-1
0.48567	-1
0.48933	-1
0.49300	-1
0.49667	-1
0.50033	-1
0.50400	-1
0.50767	-1
0.51133	-1
0.51500	-0
0.51867	-0
0.52233	0
0.52600	0
0.52967	1
0.53333	1
0.53700	1
0.54067	2
0.54433	2
0.54800	2
0.55167	3
0.55533	3
0.55900	3
0.56267	3
0.56633	3
0.57000	4
0.57367	4
0.57733	4
0.58100	4
0.58467	4
0.58833	3
0.59200	3
0.59567	3
0.59933	3
0.60300	3
0.60667	2
0.61033	2
0.61400	2
0.61767	2
0.62133	1
0.62500	1
0.62867	1
0.63233	1
0.63600	1
0.63967	1
0.64333	0
0.64700	0
0.65067	0
0.65433	0
0.65800	0
0.66167	0
0.66533	0
0.66900	-0
0.67267	-0
0.67633	-1
0.68000	-1
0.68367	-1
0.68733	-1
0.69100	-1
0.69467	-1
0.69833	-1
0.70200	-1
0.70567	-1
0.70933	-1
0.71300	-1
0.71667	-1
0.72033	-1
0.72400	-1
0.72767	-1
0.73133	-1
0.73500	-1
0.73867	-1
0.74233	-1
0.74600	-1
0.74967	-1
0.75333	-1
0.75700	-1
0.76067	-1
0.76433	-1
0.76800	-1
0.77167	-1
0.77533	-1
0.77900	-1
0.78267	-1
0.78633	-1
0.79000	-1
0.79367	-1
0.79733	-1
0.80100	-1
0.80467	-1
0.80833	-1
0.81200	-1
0.81567	-1
0.81933	-1
0.82300	-1
0.82667	-1
0.83033	-1
0.83400	-1
0.83767	-0
0.84133	0
0.84500	0
0.84867	1
0.85233	1
0.85600	1
0.85967	0
0.86333	-0
0.86700	-0
0.87067	-1
0.87433	-1
0.87800	-2
0.88167	-2
0.88533	-3
0.88900	-3
0.89267	-4
0.89633	-4
0.90000	-5
0.90367	-5
0.90733	-5
0.91100	-5
0.91467	-4
0.91833	-4
0.92200	-4
0.92567	-4
0.92933	-3
0.93300	-3
0.93667	-3
0.94033	-3
0.94400	-3
0.94767	-3
0.95133	-3
0.95500	-3
0.95867	-3
0.96233	-3
0.96600	-3
0.96967	-3
0.97333	-3
0.97700	-3
0.98067	-3
0.98433	-3
0.98800	-3
0.99167	-3
0.99533	-3
0.99900	-3
1.00267	-3
1.00633	-3
1.01000	-3
1.01367	-3
1.01733	-3
1.02100	-3
1.02467	-3
1.02833	-3
1.03200	-3
1.03567	-2
1.03933	-2
1.04300	-2
1.04667	-2
1.05033	-2
1.05400	-2
1.05767	-2
1.06133	-2
1.06500	-2
1.06867	-2
1.07233	-1
1.07600	-1
1.07967	-0
1.08333	-0
1.08700	0
1.09067	0
1.09433	0
1.09800	1
1.10167	1
1.10533	1
1.10900	1
1.11267	1
1.11633	1
1.12000	1
1.12367	1
1.12733	1
1.13100	1
1.13467	1
1.13833	1
1.14200	1
1.14567	1
1.14933	1
1.15300	0
1.15667	0
1.16033	1
1.16400	1
1.16767	1
1.17133	1
1.17500	1
1.17867	0
1.18233	0
1.18600	0
1.18967	0
1.19333	0
1.19700	0
1.20067	0
1.20433	-0
1.20800	-0
1.21167	-1
1.21533	-1
1.21900	-2
1.22267	-2
1.22633	-3
1.23000	-3
1.23367	-3
1.23733	-3
1.24100	-3
1.24467	-3
1.24833	-3
1.25200	-3
1.25567	-3
1.25933	-3
1.26300	-3
1.26667	-2
1.27033	-2
1.27400	-2
1.27767	-2
1.28133	-2
1.28500	-2
1.28867	-1
1.29233	-1
1.29600	-1
1.29967	-1
1.30333	-1
1.30700	-1
1.31067	-1
1.31433	-1
1.31800	-1
1.32167	-1
1.32533	-1
1.32900	-0
1.33267	-0
1.33633	-0
1.34000	-0
1.34367	-0
1.34733	-0
1.35100	-0
1.35467	-0
1.35833	-1
1.36200	-1
1.36567	-1
1.36933	-1
1.37300	-2
1.37667	-2
1.38033	-1
1.38400	-1
1.38767	-1
1.39133	-1
1.39500	-1
1.39867	-0
1.40233	-0
1.40600	0
1.40967	0
1.41333	0
1.41700	0
1.42067	0
1.42433	0
1.42800	0
1.43167	-0
1.43533	-0
1.43900	-0
1.44267	-0
1.44633	-0
1.45000	-0
1.45367	-0
1.45733	0
1.46100	0
1.46467	0
1.46833	0
1.47200	0
1.47567	-0
1.47933	-0
1.48300	-0
1.48667	-0
1.49033	-0
1.49400	-0
1.49767	-1
1.50133	-1
1.50500	-1
1.50867	-1
1.51233	-1
1.51600	-1
1.51967	-1
1.52333	-1
1.52700	-1
1.53067	-1
1.53433	-2
1.53800	-2
1.54167	-2
1.54533	-2
1.54900	-2
1.55267	-2
1.55633	-1
1.56000	-1
1.56367	-1
1.56733	-1
1.57100	-0
1.57467	-0
1.57833	-0
1.58200	-0
1.58567	-0
1.58933	-1
1.59300	-1
1.59667	-2
1.60033	-2
1.60400	-3
1.60767	-4
1.61133	-6
1.61500	-8
1.61867	-10
1.62233	-13
1.62600	-15
1.62967	-18
1.63333	-22
1.63700	-25
1.64067	-28
1.64433	-32
1.64800	-36
1.65167	-40
1.65533	-44
1.65900	-48
1.66267	-53
1.66633	-58
1.67000	-64
1.67367	-69
1.67733	-75
1.68100	-80
1.68467	-85
1.68833	-90
1.69200	-94
1.69567	-97
1.69933	-99
1.70300	-101
1.70667	-103
1.71033	-104
1.71400	-106
1.71767	-107
1.72133	-108
1.72500	-109
1.72867	-110
1.73233	-111
1.73600	-112
1.73967	-114
1.74333	-115
1.74700	-116
1.75067	-117
1.75433	-118
1.75800	-118
1.76167	-118
1.76533	-118
1.76900	-118
1.77267	-118
1.77633	-117
1.78000	-116
1.78367	-116
1.78733	-116
1.79100	-116
1.79467	-117
1.79833	-118
1.80200	-119
1.80567	-120
1.80933	-120
1.81300	-121
1.81667	-122
1.82033	-122
1.82400	-122
1.82767	-122
1.83133	-123
1.83500	-123
1.83867	-123
1.84233	-123
1.84600	-124
1.84967	-124
1.85333	-124
1.85700	-123
1.86067	-123
1.86433	-122
1.86800	-122
1.87167	-121
1.87533	-121
1.87900	-121
1.88267	-121
1.88633	-121
1.89000	-121
1.89367	-121
1.89733	-121
1.90100	-121
1.90467	-121
1.90833	-120
1.91200	-120
1.91567	-120
1.91933	-120
1.92300	-120
1.92667	-119
1.93033	-119
1.93400	-118
1.93767	-118
1.94133	-117
1.94500	-117
1.94867	-117
1.95233	-117
1.95600	-117
1.95967	-117
1.96333	-116
1.96700	-116
1.97067	-116
1.97433	-115
1.97800	-115
1.98167	-115
1.98533	-115
1.98900	-114
1.99267	-114
1.99633	-114
2.00000	-114
2.00367	-114
2.00733	-114
2.01100	-114
2.01467	-113
2.01833	-113
2.02200	-112
2.02567	-112
2.02933	-112
2.03300	-111
2.03667	-111
2.04033	-111
2.04400	-110
2.04767	-110
2.05133	-110
2.05500	-110
2.05867	-110
2.06233	-110
2.06600	-110
2.06967	-110
2.07333	-109
2.07700	-109
2.08067	-109
2.08433	-108
2.08800	-108
2.09167	-107
2.09533	-107
2.09900	-107
2.10267	-107
2.10633	-107
2.11000	-107
2.11367	-107
2.11733	-106
2.12100	-105
2.12467	-104
2.12833	-104
2.13200	-103
2.13567	-103
2.13933	-103
2.14300	-103
2.14667	-102
2.15033	-102
2.15400	-101
2.15767	-100
2.16133	-99
2.16500	-98
2.16867	-98
2.17233	-98
2.17600	-97
2.17967	-97
2.18333	-97
2.18700	-97
2.19067	-97
2.19433	-97
2.19800	-97
2.20167	-97
2.20533	-97
2.20900	-96
2.21267	-95
2.21633	-95
2.22000	-94
2.22367	-94
2.22733	-94
2.23100	-94
2.23467	-94
2.23833	-94
2.24200	-94
2.24567	-94
2.24933	-94
2.25300	-94
2.25667	-94
2.26033	-94
2.26400	-94
2.26767	-93
2.27133	-93
2.27500	-93
2.27867	-93
2.28233	-92
2.28600	-92
2.28967	-92
2.29333	-92
2.29700	-93
2.30067	-94
2.30433	-94
2.30800	-95
2.31167	-95
2.31533	-95
2.31900	-94
2.32267	-93
2.32633	-92
2.33000	-90
2.33367	-89
2.33733	-87
2.34100	-86
2.34467	-85
2.34833	-84
2.35200	-84
2.35567	-83
2.35933	-83
2.36300	-82
2.36667	-81
2.37033	-80
2.37400	-79
2.37767	-76
2.38133	-74
2.38500	-70
2.38867	-67
2.39233	-63
2.39600	-59
2.39967	-54
2.40333	-50
2.40700	-45
2.41067	-40
2.41433	-36
2.41800	-32
2.42167	-28
2.42533	-25
2.42900	-21
2.43267	-18
2.43633	-15
2.44000	-12
2.44367	-10
2.44733	-8
2.45100	-7
2.45467	-6
2.45833	-5
2.46200	-4
2.46567	-4
2.46933	-3
2.47300	-2
2.47667	-0
2.48033	1
2.48400	2
2.48767	3
2.49133	3
2.49500	4
2.49867	4
2.50233	5
2.50600	6
2.50967	6
2.51333	7
2.51700	8
2.52067	9
2.52433	10
2.52800	10
2.53167	10
2.53533	10
2.53900	11
2.54267	11
2.54633	11
2.55000	11
2.55367	12
2.55733	12
2.56100	12
2.56467	12
2.56833	12
2.57200	12
2.57567	12
2.57933	12
2.58300	12
2.58667	12
2.59033	12
2.59400	12
2.59767	12
2.60133	12
2.60500	11
2.60867	11
2.61233	11
2.61600	12
2.61967	12
2.62333	13
2.62700	14
2.63067	15
2.63433	15
2.63800	16
2.64167	17
2.64533	18
2.64900	18
2.65267	18
2.65633	18
2.66000	18
2.66367	18
2.66733	18
2.67100	18
2.67467	19
2.67833	19
2.68200	19
2.68567	19
2.68933	20
2.69300	20
2.69667	20
2.70033	21
2.70400	21
2.70767	21
2.71133	21
2.71500	21
2.71867	21
2.72233	21
2.72600	21
2.72967	22
2.73333	22
2.73700	22
2.74067	22
2.74433	22
2.74800	22
2.75167	22
2.75533	22
2.75900	22
2.76267	23
2.76633	23
2.77000	23
2.77367	24
2.77733	24
2.78100	25
2.78467	25
2.78833	25
2.79200	25
2.79567	25
2.79933	24
2.80300	24
2.80667	24
2.81033	23
2.81400	23
2.81767	22
2.82133	22
2.82500	22
2.82867	22
2.83233	22
2.83600	22
2.83967	23
2.84333	23
2.84700	23
2.85067	22
2.85433	20
2.85800	16
2.86167	10
2.86533	1
2.86900	-12
2.87267	-29
2.87633	-49
2.88000	-73
2.88367	-102
2.88733	-134
2.89100	-170
2.89467	-209
2.89833	-251
2.90200	-296
2.90567	-342
2.90933	-390
2.91300	-440
2.91667	-489
2.92033	-539
2.92400	-589
2.92767	-639
2.93133	-688
2.93500	-737
2.93867	-785
2.94233	-835
2.94600	-890
2.94967	-951
2.95333	-1011
2.95700	-1060
2.96067	-1088
2.96433	-1088
2.96800	-1064
2.97167	-1017
2.97533	-954
2.97900	-881
2.98267	-803
2.98633	-722
2.99000	-644
2.99367	-569
2.99733	-499
3.00100	-436
3.00467	-378
3.00833	-326
3.01200	-281
3.01567	-240
3.01933	-205
3.02300	-174
3.02667	-147
3.03033	-124
3.03400	-104
3.03767	-87
3.04133	-73
3.04500	-60
3.04867	-50
3.05233	-41
3.05600	-33
3.05967	-26
3.06333	-21
3.06700	-16
3.07067	-12
3.07433	-9
3.07800	-6
3.08167	-4
3.08533	-2
3.08900	0
3.09267	1
3.09633	3
3.10000	4
3.10367	5
3.10733	6
3.11100	7
3.11467	8
3.11833	8
3.12200	9
3.12567	9
3.12933	10
3.13300	11
3.13667	11
3.14033	12
3.14400	13
3.14767	13
3.15133	14
3.15500	14
3.15867	15
3.16233	15
3.16600	16
3.16967	16
3.17333	16
3.17700	17
3.18067	17
3.18433	18
3.18800	18
3.19167	18
3.19533	18
3.19900	18
3.20267	18
3.20633	19
3.21000	19
3.21367	19
3.21733	19
3.22100	19
3.22467	19
3.22833	19
3.23200	20
3.23567	20
3.23933	21
3.24300	21
3.24667	21
3.25033	21
3.25400	21
3.25767	21
3.26133	21
3.26500	21
3.26867	22
3.27233	22
3.27600	22
3.27967	22
3.28333	22
3.28700	22
3.29067	22
3.29433	22
3.29800	22
3.30167	22
3.30533	22
3.30900	22
3.31267	22
3.31633	22
3.32000	23
3.32367	23
3.32733	23
3.33100	23
3.33467	24
3.33833	24
3.34200	24
3.34567	24
3.34933	24
3.35300	24
3.35667	24
3.36033	24
3.36400	24
3.36767	24
3.37133	24
3.37500	24
3.37867	24
3.38233	24
3.38600	23
3.38967	23
3.39333	23
3.39700	23
3.40067	23
3.40433	23
3.40800	23
3.41167	24
3.41533	24
3.41900	24
3.42267	25
3.42633	25
3.43000	25
3.43367	25
3.43733	25
3.44100	26
3.44467	26
3.44833	26
3.45200	27
3.45567	27
3.45933	27
3.46300	27
3.46667	27
3.47033	27
3.47400	27
3.47767	27
3.48133	28
3.48500	28
3.48867	28
3.49233	28
3.49600	28
3.49967	28
3.50333	28
3.50700	28
3.51067	28
3.51433	28
3.51800	28
3.52167	28
3.52533	28
3.52900	28
3.53267	28
3.53633	28
3.54000	28
3.54367	28
3.54733	28
3.55100	28
3.55467	28
3.55833	28
3.56200	28
3.56567	28
3.56933	28
3.57300	28
3.57667	28
3.58033	28
3.58400	27
3.58767	27
3.59133	27
3.59500	27
3.59867	27
3.60233	27
3.60600	26
3.60967	26
3.61333	26
3.61700	26
3.62067	26
3.62433	26
3.62800	26
3.63167	26
3.63533	26
3.63900	26
3.64267	27
3.64633	27
3.65000	27
3.65367	27
3.65733	27
3.66100	26
3.66467	26
3.66833	26
3.67200	26
3.67567	26
3.67933	26
3.68300	25
3.68667	25
3.69033	25
3.69400	26
3.69767	26
3.70133	26
3.70500	26
3.70867	26
3.71233	26
3.71600	26
3.71967	26
3.72333	26
3.72700	25
3.73067	25
3.73433	25
3.73800	26
3.74167	26
3.74533	26
3.74900	26
3.75267	26
3.75633	25
3.76000	25
3.76367	25
3.76733	25
3.77100	25
3.77467	25
3.77833	25
3.78200	25
3.78567	25
3.78933	25
3.79300	24
3.79667	24
3.80033	24
3.80400	24
3.80767	24
3.81133	24
3.81500	24
3.81867	24
3.82233	24
3.82600	24
3.82967	24
3.83333	25
3.83700	25
3.84067	25
3.84433	25
3.84800	25
3.85167	25
3.85533	25
3.85900	25
3.86267	26
3.86633	26
3.87000	26
3.87367	26
3.87733	26
3.88100	26
3.88467	26
3.88833	26
3.89200	26
3.89567	26
3.89933	26
3.90300	26
3.90667	26
3.91033	26
3.91400	26
3.91767	26
3.92133	26
3.92500	27
3.92867	27
3.93233	27
3.93600	26
3.93967	26
3.94333	26
3.94700	26
3.95067	26
3.95433	26
3.95800	26
3.96167	26
3.96533	26
3.96900	26
3.97267	26
3.97633	25
3.98000	25
3.98367	25
3.98733	25
3.99100	25
3.99467	25
3.99833	25

[Chromatogram (Ch3)]
Interval(msec)	220
# of Points	1091
Start Time(min)	0.002
End Time(min)	3.998
R.Time (min)	Intensity
0.00167	-2
0.00533	-2
0.00900	-0
0.01267	-1
0.01633	-2
0.02000	-2
0.02367	-2
0.02733	-3
0.03100	-3
0.03467	-4
0.03833	-4
0.04200	-4
0.04567	-1
0.04933	1
0.05300	2
0.05667	0
0.06033	-1
0.06400	-1
0.06767	0
0.07133	1
0.07500	-1
0.07867	-0
0.08233	1
0.08600	-1
0.08967	-2
0.09333	-2
0.09700	-1
0.10067	-0
0.10433	0
0.10800	1
0.11167	2
0.11533	2
0.11900	0
0.12267	1
0.12633	1
0.13000	2
0.13367	4
0.13733	5
0.14100	5
0.14467	6
0.14833	6
0.15200	4
0.15567	3
0.15933	-1
0.16300	-2
0.16667	-2
0.17033	0
0.17400	2
0.17767	3
0.18133	2
0.18500	1
0.18867	2
0.19233	3
0.19600	4
0.19967	4
0.20333	3
0.20700	3
0.21067	6
0.21433	7
0.21800	6
0.22167	8
0.22533	10
0.22900	10
0.23267	11
0.23633	12
0.24000	13
0.24367	15
0.24733	12
0.25100	11
0.25467	12
0.25833	13
0.26200	11
0.26567	9
0.26933	9
0.27300	6
0.27667	3
0.28033	3
0.28400	2
0.28767	1
0.29133	4
0.29500	5
0.29867	6
0.30233	8
0.30600	11
0.30967	12
0.31333	12
0.31700	12
0.32067	11
0.32433	8
0.32800	6
0.33167	4
0.33533	4
0.33900	5
0.34267	9
0.34633	13
0.35000	13
0.35367	13
0.35733	13
0.36100	13
0.36467	12
0.36833	10
0.37200	10
0.37567	12
0.37933	12
0.38300	12
0.38667	11
0.39033	13
0.39400	15
0.39767	13
0.40133	9
0.40500	6
0.40867	6
0.41233	8
0.41600	10
0.41967	12
0.42333	13
0.42700	13
0.43067	13
0.43433	13
0.43800	10
0.44167	9
0.44533	11
0.44900	12
0.45267	13
0.45633	12
0.46000	12
0.46367	14
0.46733	16
0.47100	15
0.47467	11
0.47833	11
0.48200	12
0.48567	14
0.48933	16
0.49300	17
0.49667	16
0.50033	15
0.50400	13
0.50767	13
0.51133	15
0.51500	15
0.51867	13
0.52233	10
0.52600	9
0.52967	10
0.53333	9
0.53700	10
0.54067	9
0.54433	9
0.54800	9
0.55167	10
0.55533	11
0.55900	12
0.56267	11
0.56633	14
0.57000	13
0.57367	13
0.57733	13
0.58100	11
0.58467	10
0.58833	9
0.59200	8
0.59567	8
0.59933	8
0.60300	10
0.60667	12
0.61033	12
0.61400	11
0.61767	10
0.62133	11
0.62500	10
0.62867	8
0.63233	8
0.63600	9
0.63967	9
0.64333	9
0.64700	10
0.65067	11
0.65433	12
0.65800	14
0.66167	13
0.66533	11
0.66900	11
0.67267	12
0.67633	12
0.68000	11
0.68367	9
0.68733	7
0.69100	6
0.69467	5
0.69833	7
0.70200	9
0.70567	9
0.70933	11
0.71300	12
0.71667	12
0.72033	12
0.72400	12
0.72767	12
0.73133	11
0.73500	13
0.73867	15
0.74233	16
0.74600	15
0.74967	13
0.75333	12
0.75700	12
0.76067	12
0.76433	11
0.76800	10
0.77167	10
0.77533	12
0.77900	12
0.78267	13
0.78633	13
0.79000	14
0.79367	13
0.79733	11
0.80100	9
0.80467	7
0.80833	5
0.81200	5
0.81567	4
0.81933	6
0.82300	7
0.82667	9
0.83033	10
0.83400	11
0.83767	10
0.84133	9
0.84500	8
0.84867	9
0.85233	10
0.85600	9
0.85967	10
0.86333	10
0.86700	11
0.87067	13
0.87433	18
0.87800	20
0.88167	19
0.88533	18
0.88900	17
0.89267	15
0.89633	15
0.90000	15
0.90367	17
0.90733	19
0.91100	22
0.91467	23
0.91833	21
0.92200	17
0.92567	16
0.92933	15
0.93300	15
0.93667	13
0.94033	14
0.94400	13
0.94767	13
0.95133	13
0.95500	13
0.95867	14
0.96233	14
0.96600	16
0.96967	16
0.97333	16
0.97700	18
0.98067	19
0.98433	18
0.98800	18
0.99167	17
0.99533	17
0.99900	18
1.00267	21
1.00633	21
1.01000	22
1.01367	20
1.01733	18
1.02100	17
1.02467	16
1.02833	17
1.03200	18
1.03567	19
1.03933	20
1.04300	21
1.04667	20
1.05033	18
1.05400	18
1.05767	19
1.06133	19
1.06500	17
1.06867	15
1.07233	14
1.07600	12
1.07967	12
1.08333	12
1.08700	14
1.09067	16
1.09433	19
1.09800	20
1.10167	19
1.10533	17
1.10900	17
1.11267	19
1.11633	19
1.12000	19
1.12367	22
1.12733	24
1.13100	25
1.13467	25
1.13833	26
1.14200	27
1.14567	25
1.14933	23
1.15300	24
1.15667	24
1.16033	21
1.16400	19
1.16767	19
1.17133	20
1.17500	20
1.17867	18
1.18233	16
1.18600	14
1.18967	13
1.19333	13
1.19700	15
1.20067	15
1.20433	16
1.20800	19
1.21167	22
1.21533	22
1.21900	22
1.22267	21
1.22633	19
1.23000	21
1.23367	23
1.23733	24
1.24100	25
1.24467	23
1.24833	22
1.25200	21
1.25567	19
1.25933	18
1.26300	20
1.26667	20
1.27033	19
1.27400	19
1.27767	20
1.28133	21
1.28500	23
1.28867	23
1.29233	19
1.29600	16
1.29967	14
1.30333	12
1.30700	12
1.31067	13
1.31433	15
1.31800	16
1.32167	18
1.32533	20
1.32900	21
1.33267	22
1.33633	22
1.34000	23
1.34367	24
1.34733	25
1.35100	24
1.35467	21
1.35833	19
1.36200	18
1.36567	16
1.36933	14
1.37300	15
1.37667	15
1.38033	17
1.38400	17
1.38767	18
1.39133	19
1.39500	18
1.39867	17
1.40233	17
1.40600	17
1.40967	18
1.41333	18
1.41700	19
1.42067	19
1.42433	19
1.42800	20
1.43167	21
1.43533	19
1.43900	19
1.44267	18
1.44633	19
1.45000	20
1.45367	21
1.45733	22
1.46100	20
1.46467	18
1.46833	19
1.47200	21
1.47567	19
1.47933	17
1.48300	17
1.48667	17
1.49033	18
1.49400	20
1.49767	19
1.50133	17
1.50500	17
1.50867	17
1.51233	16
1.51600	17
1.51967	18
1.52333	17
1.52700	20
1.53067	23
1.53433	22
1.53800	18
1.54167	15
1.54533	16
1.54900	17
1.55267	17
1.55633	16
1.56000	17
1.56367	17
1.56733	17
1.57100	16
1.57467	15
1.57833	14
1.58200	15
1.58567	15
1.58933	16
1.59300	17
1.59667	18
1.60033	18
1.60400	18
1.60767	18
1.61133	18
1.61500	18
1.61867	19
1.62233	19
1.62600	17
1.62967	19
1.63333	21
1.63700	23
1.64067	24
1.64433	25
1.64800	25
1.65167	27
1.65533	27
1.65900	25
1.66267	25
1.66633	25
1.67000	27
1.67367	26
1.67733	27
1.68100	25
1.68467	25
1.68833	25
1.69200	25
1.69567	25
1.69933	25
1.70300	25
1.70667	28
1.71033	30
1.71400	32
1.71767	35
1.72133	36
1.72500	34
1.72867	32
1.73233	31
1.73600	31
1.73967	30
1.74333	32
1.74700	34
1.75067	35
1.75433	36
1.75800	39
1.76167	40
1.76533	40
1.76900	42
1.77267	42
1.77633	41
1.78000	40
1.78367	39
1.78733	39
1.79100	40
1.79467	39
1.79833	38
1.80200	38
1.80567	40
1.80933	43
1.81300	45
1.81667	44
1.82033	44
1.82400	43
1.82767	42
1.83133	42
1.83500	43
1.83867	45
1.84233	45
1.84600	46
1.84967	47
1.85333	46
1.85700	46
1.86067	46
1.86433	45
1.86800	45
1.87167	47
1.87533	47
1.87900	48
1.88267	49
1.88633	52
1.89000	54
1.89367	56
1.89733	55
1.90100	56
1.90467	58
1.90833	59
1.91200	60
1.91567	59
1.91933	59
1.92300	59
1.92667	59
1.93033	61
1.93400	65
1.93767	66
1.94133	66
1.94500	65
1.94867	64
1.95233	63
1.95600	62
1.95967	65
1.96333	69
1.96700	70
1.97067	71
1.97433	72
1.97800	74
1.98167	75
1.98533	75
1.98900	75
1.99267	75
1.99633	77
2.00000	77
2.00367	76
2.00733	75
2.01100	76
2.01467	78
2.01833	79
2.02200	81
2.02567	84
2.02933	87
2.03300	87
2.03667	88
2.04033	87
2.04400	88
2.04767	89
2.05133	90
2.05500	89
2.05867	90
2.06233	92
2.06600	93
2.06967	93
2.07333	97
2.07700	99
2.08067	99
2.08433	98
2.08800	97
2.09167	97
2.09533	99
2.09900	102
2.10267	106
2.10633	110
2.11000	111
2.11367	111
2.11733	113
2.12100	116
2.12467	115
2.12833	115
2.13200	116
2.13567	117
2.13933	119
2.14300	120
2.14667	120
2.15033	121
2.15400	124
2.15767	127
2.16133	129
2.16500	129
2.16867	129
2.17233	127
2.17600	129
2.17967	133
2.18333	135
2.18700	136
2.19067	135
2.19433	135
2.19800	137
2.20167	138
2.20533	138
2.20900	137
2.21267	138
2.21633	139
2.22000	141
2.22367	144
2.22733	145
2.23100	147
2.23467	148
2.23833	149
2.24200	153
2.24567	154
2.24933	154
2.25300	154
2.25667	153
2.26033	155
2.26400	157
2.26767	159
2.27133	160
2.27500	163
2.27867	167
2.28233	170
2.28600	170
2.28967	169
2.29333	168
2.29700	169
2.30067	170
2.30433	170
2.30800	172
2.31167	172
2.31533	174
2.31900	177
2.32267	179
2.32633	181
2.33000	185
2.33367	185
2.33733	186
2.34100	186
2.34467	186
2.34833	187
2.35200	190
2.35567	192
2.35933	193
2.36300	195
2.36667	198
2.37033	198
2.37400	200
2.37767	201
2.38133	200
2.38500	200
2.38867	200
2.39233	201
2.39600	201
2.39967	199
2.40333	198
2.40700	200
2.41067	203
2.41433	204
2.41800	206
2.42167	208
2.42533	209
2.42900	209
2.43267	211
2.43633	212
2.44000	214
2.44367	218
2.44733	222
2.45100	215
2.45467	199
2.45833	183
2.46200	176
2.46567	176
2.46933	188
2.47300	207
2.47667	228
2.48033	250
2.48400	273
2.48767	298
2.49133	323
2.49500	345
2.49867	364
2.50233	382
2.50600	402
2.50967	421
2.51333	435
2.51700	447
2.52067	457
2.52433	468
2.52800	479
2.53167	488
2.53533	497
2.53900	508
2.54267	517
2.54633	524
2.55000	532
2.55367	538
2.55733	542
2.56100	546
2.56467	549
2.56833	553
2.57200	558
2.57567	564
2.57933	569
2.58300	569
2.58667	568
2.59033	570
2.59400	572
2.59767	571
2.60133	569
2.60500	559
2.60867	541
2.61233	516
2.61600	485
2.61967	446
2.62333	402
2.62700	357
2.63067	316
2.63433	281
2.63800	249
2.64167	224
2.64533	206
2.64900	194
2.65267	189
2.65633	188
2.66000	189
2.66367	195
2.66733	203
2.67100	213
2.67467	223
2.67833	234
2.68200	244
2.68567	253
2.68933	261
2.69300	270
2.69667	277
2.70033	286
2.70400	296
2.70767	305
2.71133	313
2.71500	318
2.71867	323
2.72233	328
2.72600	331
2.72967	335
2.73333	336
2.73700	338
2.74067	340
2.74433	341
2.74800	340
2.75167	340
2.75533	340
2.75900	339
2.76267	338
2.76633	339
2.77000	339
2.77367	340
2.77733	339
2.78100	336
2.78467	334
2.78833	332
2.79200	333
2.79567	335
2.79933	335
2.80300	333
2.80667	332
2.81033	331
2.81400	330
2.81767	329
2.82133	327
2.82500	327
2.82867	334
2.83233	350
2.83600	380
2.83967	440
2.84333	556
2.84700	746
2.85067	1028
2.85433	1412
2.85800	1893
2.86167	2449
2.86533	3042
2.86900	3630
2.87267	4166
2.87633	4609
2.88000	4921
2.88367	5087
2.88733	5108
2.89100	5002
2.89467	4796
2.89833	4516
2.90200	4188
2.90567	3842
2.90933	3492
2.91300	3148
2.91667	2822
2.92033	2522
2.92400	2246
2.92767	1997
2.93133	1776
2.93500	1578
2.93867	1404
2.94233	1252
2.94600	1121
2.94967	1005
2.95333	906
2.95700	821
2.96067	749
2.96433	685
2.96800	631
2.97167	583
2.97533	538
2.97900	499
2.98267	466
2.98633	439
2.99000	418
2.99367	400
2.99733	381
3.00100	365
3.00467	350
3.00833	340
3.01200	330
3.01567	321
3.01933	312
3.02300	305
3.02667	298
3.03033	290
3.03400	285
3.03767	281
3.04133	277
3.04500	272
3.04867	267
3.05233	264
3.05600	262
3.05967	262
3.06333	260
3.06700	255
3.07067	250
3.07433	247
3.07800	246
3.08167	246
3.08533	246
3.08900	242
3.09267	242
3.09633	241
3.10000	240
3.10367	241
3.10733	239
3.11100	236
3.11467	232
3.11833	228
3.12200	225
3.12567	222
3.12933	221
3.13300	221
3.13667	220
3.14033	218
3.14400	216
3.14767	214
3.15133	213
3.15500	213
3.15867	212
3.16233	210
3.16600	209
3.16967	208
3.17333	207
3.17700	204
3.18067	200
3.18433	199
3.18800	199
3.19167	201
3.19533	201
3.19900	201
3.20267	200
3.20633	199
3.21000	197
3.21367	195
3.21733	193
3.22100	193
3.22467	194
3.22833	194
3.23200	192
3.23567	192
3.23933	190
3.24300	188
3.24667	187
3.25033	187
3.25400	184
3.25767	179
3.26133	177
3.26500	177
3.26867	174
3.27233	173
3.27600	173
3.27967	174
3.28333	174
3.28700	173
3.29067	172
3.29433	171
3.29800	170
3.30167	167
3.30533	164
3.30900	162
3.31267	161
3.31633	157
3.32000	154
3.32367	154
3.32733	152
3.33100	151
3.33467	149
3.33833	147
3.34200	142
3.34567	139
3.34933	136
3.35300	133
3.35667	130
3.36033	129
3.36400	129
3.36767	128
3.37133	126
3.37500	125
3.37867	126
3.38233	124
3.38600	121
3.38967	117
3.39333	114
3.39700	110
3.40067	106
3.40433	102
3.40800	102
3.41167	102
3.41533	99
3.41900	97
3.42267	95
3.42633	91
3.43000	87
3.43367	89
3.43733	89
3.44100	89
3.44467	89
3.44833	89
3.45200	90
3.45567	89
3.45933	87
3.46300	84
3.46667	82
3.47033	82
3.47400	80
3.47767	80
3.48133	79
3.48500	77
3.48867	76
3.49233	77
3.49600	73
3.49967	70
3.50333	66
3.50700	65
3.51067	64
3.51433	63
3.51800	62
3.52167	61
3.52533	59
3.52900	58
3.53267	58
3.53633	58
3.54000	56
3.54367	55
3.54733	54
3.55100	54
3.55467	54
3.55833	54
3.56200	54
3.56567	53
3.56933	53
3.57300	52
3.57667	50
3.58033	48
3.58400	46
3.58767	45
3.59133	44
3.59500	43
3.59867	42
3.60233	42
3.60600	43
3.60967	43
3.61333	43
3.61700	42
3.62067	40
3.62433	40
3.62800	38
3.63167	37
3.63533	37
3.63900	36
3.64267	36
3.64633	36
3.65000	37
3.65367	36
3.65733	35
3.66100	33
3.66467	29
3.66833	27
3.67200	28
3.67567	26
3.67933	26
3.68300	26
3.68667	26
3.69033	25
3.69400	26
3.69767	27
3.70133	26
3.70500	25
3.70867	25
3.71233	24
3.71600	23
3.71967	22
3.72333	23
3.72700	24
3.73067	23
3.73433	21
3.73800	20
3.74167	21
3.74533	22
3.74900	25
3.75267	23
3.75633	20
3.76000	18
3.76367	15
3.76733	13
3.77100	14
3.77467	16
3.77833	18
3.78200	17
3.78567	18
3.78933	18
3.79300	15
3.79667	13
3.80033	14
3.80400	16
3.80767	17
3.81133	17
3.81500	16
3.81867	15
3.82233	16
3.82600	17
3.82967	17
3.83333	17
3.83700	16
3.84067	16
3.84433	17
3.84800	15
3.85167	13
3.85533	11
3.85900	9
3.86267	8
3.86633	7
3.87000	5
3.87367	5
3.87733	7
3.88100	9
3.88467	8
3.88833	6
3.89200	5
3.89567	5
3.89933	5
3.90300	4
3.90667	3
3.91033	3
3.91400	1
3.91767	0
3.92133	1
3.92500	2
3.92867	2
3.93233	2
3.93600	1
3.93967	2
3.94333	2
3.94700	-0
3.95067	-1
3.95433	-2
3.95800	-3
3.96167	-6
3.96533	-8
3.96900	-8
3.97267	-7
3.97633	-6
3.98000	-3
3.98367	-2
3.98733	-1
3.99100	-0
3.99467	-1
3.99833	-1

[Status Trace (Column Oven Temperature)]
Interval(msec)	1000
# of Points	240
Start Time(min)	0.014
End Time(min)	3.997
Intensity Units	
Intensity Multiplier	1
R.Time (min)	Intensity
0.01358	34.99
0.03025	34.99
0.04692	34.99
0.06358	35.00
0.08025	35.00
0.09692	35.01
0.11358	35.01
0.13025	34.99
0.14692	34.99
0.16358	34.98
0.18025	34.98
0.19692	34.96
0.21358	34.95
0.23025	34.96
0.24692	34.97
0.26358	34.97
0.28025	34.99
0.29692	34.99
0.31358	34.99
0.33025	34.99
0.34692	35.00
0.36358	35.01
0.38025	35.02
0.39692	35.02
0.41358	35.02
0.43025	35.02
0.44692	35.02
0.46358	35.01
0.48025	35.01
0.49692	35.01
0.51358	35.01
0.53025	35.00
0.54692	34.99
0.56358	34.96
0.58025	34.96
0.59692	34.95
0.61358	34.96
0.63025	34.95
0.64692	34.95
0.66358	34.95
0.68025	34.95
0.69692	34.96
0.71358	34.97
0.73025	34.97
0.74692	34.97
0.76358	34.98
0.78025	34.99
0.79692	34.99
0.81358	34.98
0.83025	34.98
0.84692	34.97
0.86358	34.98
0.88025	35.00
0.89692	35.01
0.91358	35.02
0.93025	35.01
0.94692	35.02
0.96358	35.03
0.98025	35.03
0.99692	35.03
1.01358	35.03
1.03025	35.03
1.04692	35.03
1.06358	35.02
1.08025	35.01
1.09692	35.00
1.11358	35.00
1.13025	34.99
1.14692	34.98
1.16358	34.98
1.18025	34.98
1.19692	34.98
1.21358	35.00
1.23025	35.01
1.24692	35.01
1.26358	35.01
1.28025	35.00
1.29692	35.00
1.31358	35.00
1.33025	34.99
1.34692	34.99
1.36358	34.99
1.38025	34.99
1.39692	34.98
1.41358	34.98
1.43025	34.97
1.44692	34.97
1.46358	34.96
1.48025	34.96
1.49692	34.96
1.51358	34.97
1.53025	34.97
1.54692	34.97
1.56358	34.97
1.58025	34.97
1.59692	34.98
1.61358	35.06
1.63025	35.20
1.64692	35.41
1.66358	35.71
1.68025	36.10
1.69692	36.45
1.71358	36.79
1.73025	37.13
1.74692	37.48
1.76358	37.80
1.78025	38.11
1.79692	38.45
1.81358	38.79
1.83025	39.12
1.84692	39.46
1.86358	39.78
1.88025	40.12
1.89692	40.45
1.91358	40.78
1.93025	41.09
1.94692	41.42
1.96358	41.74
1.98025	42.06
1.99692	42.41
2.01358	42.72
2.03025	43.04
2.04692	43.36
2.06358	43.69
2.08025	44.02
2.09692	44.33
2.11358	44.66
2.13025	44.99
2.14692	45.31
2.16358	45.63
2.18025	45.96
2.19692	46.31
2.21358	46.62
2.23025	46.95
2.24692	47.29
2.26358	47.61
2.28025	47.93
2.29692	48.30
2.31358	48.65
2.33025	48.97
2.34692	49.26
2.36358	49.52
2.38025	49.65
2.39692	49.67
2.41358	49.67
2.43025	49.66
2.44692	49.67
2.46358	49.70
2.48025	49.70
2.49692	49.72
2.51358	49.72
2.53025	49.74
2.54692	49.76
2.56358	49.77
2.58025	49.79
2.59692	49.81
2.61358	49.83
2.63025	49.83
2.64692	49.83
2.66358	49.85
2.68025	49.85
2.69692	49.84
2.71358	49.86
2.73025	49.86
2.74692	49.85
2.76358	49.86
2.78025	49.85
2.79692	49.86
2.81358	49.88
2.83025	49.89
2.84692	49.89
2.86358	49.90
2.88025	49.91
2.89692	49.93
2.91358	49.94
2.93025	49.95
2.94692	49.95
2.96358	49.96
2.98025	49.97
2.99692	49.97
3.01358	49.97
3.03025	49.97
3.04692	49.98
3.06358	50.00
3.08025	50.02
3.09692	50.04
3.11358	50.05
3.13025	50.07
3.14692	50.08
3.16358	50.08
3.18025	50.08
3.19692	50.09
3.21358	50.10
3.23025	50.10
3.24692	50.09
3.26358	50.10
3.28025	50.09
3.29692	50.10
3.31358	50.10
3.33025	50.09
3.34692	50.09
3.36358	50.09
3.38025	50.10
3.39692	50.11
3.41358	50.11
3.43025	50.11
3.44692	50.10
3.46358	50.09
3.48025	50.07
3.49692	50.05
3.51358	50.03
3.53025	50.02
3.54692	50.02
3.56358	50.02
3.58025	50.01
3.59692	50.01
3.61358	50.01
3.63025	50.01
3.64692	50.00
3.66358	50.01
3.68025	50.01
3.69692	50.02
3.71358	50.03
3.73025	50.03
3.74692	50.04
3.76358	50.04
3.78025	50.05
3.79692	50.05
3.81358	50.05
3.83025	50.04
3.84692	50.04
3.86358	50.03
3.88025	50.04
3.89692	50.04
3.91358	50.04
3.93025	50.03
3.94692	50.04
3.96358	50.04
3.98025	50.04
3.99692	50.04

[Status Trace (Injection Unit Temperature)]
Interval(msec)	1000
# of Points	240
Start Time(min)	0.014
End Time(min)	3.997
Intensity Units	
Intensity Multiplier	1
R.Time (min)	Intensity
0.01358	99.99
0.03025	99.99
0.04692	99.99
0.06358	99.99
0.08025	99.99
0.09692	99.99
0.11358	99.99
0.13025	99.99
0.14692	99.99
0.16358	99.99
0.18025	99.99
0.19692	99.99
0.21358	99.99
0.23025	99.98
0.24692	99.99
0.26358	99.99
0.28025	99.98
0.29692	99.99
0.31358	99.99
0.33025	99.98
0.34692	99.99
0.36358	99.99
0.38025	99.99
0.39692	99.99
0.41358	99.98
0.43025	99.99
0.44692	99.99
0.46358	99.99
0.48025	99.99
0.49692	99.98
0.51358	99.99
0.53025	99.99
0.54692	99.98
0.56358	99.98
0.58025	99.98
0.59692	99.98
0.61358	99.99
0.63025	99.99
0.64692	99.99
0.66358	99.98
0.68025	99.99
0.69692	99.99
0.71358	99.98
0.73025	99.98
0.74692	99.98
0.76358	99.99
0.78025	99.99
0.79692	99.99
0.81358	99.98
0.83025	99.98
0.84692	99.99
0.86358	99.98
0.88025	99.99
0.89692	99.99
0.91358	99.99
0.93025	99.98
0.94692	99.99
0.96358	99.98
0.98025	99.98
0.99692	99.98
1.01358	99.98
1.03025	99.99
1.04692	99.99
1.06358	99.99
1.08025	99.98
1.09692	99.98
1.11358	99.99
1.13025	99.99
1.14692	99.99
1.16358	99.99
1.18025	99.98
1.19692	99.99
1.21358	99.99
1.23025	99.99
1.24692	99.99
1.26358	99.99
1.28025	99.99
1.29692	99.99
1.31358	99.99
1.33025	99.99
1.34692	99.99
1.36358	100.00
1.38025	99.99
1.39692	99.99
1.41358	99.99
1.43025	99.99
1.44692	99.99
1.46358	99.99
1.48025	100.00
1.49692	99.99
1.51358	99.99
1.53025	100.00
1.54692	99.99
1.56358	100.00
1.58025	100.00
1.59692	99.99
1.61358	100.00
1.63025	100.00
1.64692	100.00
1.66358	99.99
1.68025	100.00
1.69692	99.99
1.71358	100.00
1.73025	99.99
1.74692	100.00
1.76358	100.00
1.78025	100.00
1.79692	99.99
1.81358	99.99
1.83025	99.99
1.84692	99.99
1.86358	99.99
1.88025	99.99
1.89692	99.99
1.91358	99.98
1.93025	99.99
1.94692	99.98
1.96358	99.98
1.98025	99.99
1.99692	99.98
2.01358	99.98
2.03025	99.98
2.04692	99.98
2.06358	99.97
2.08025	99.98
2.09692	99.97
2.11358	99.97
2.13025	99.98
2.14692	99.97
2.16358	99.97
2.18025	99.97
2.19692	99.96
2.21358	99.97
2.23025	99.97
2.24692	99.97
2.26358	99.96
2.28025	99.97
2.29692	99.96
2.31358	99.96
2.33025	99.96
2.34692	99.96
2.36358	99.96
2.38025	99.96
2.39692	99.96
2.41358	99.97
2.43025	99.96
2.44692	99.97
2.46358	99.97
2.48025	99.96
2.49692	99.97
2.51358	99.97
2.53025	99.97
2.54692	99.97
2.56358	99.97
2.58025	99.97
2.59692	99.97
2.61358	99.98
2.63025	99.98
2.64692	99.98
2.66358	99.98
2.68025	99.98
2.69692	99.99
2.71358	99.99
2.73025	99.98
2.74692	99.99
2.76358	99.99
2.78025	99.99
2.79692	99.99
2.81358	100.00
2.83025	100.00
2.84692	100.00
2.86358	100.00
2.88025	100.00
2.89692	100.00
2.91358	100.00
2.93025	100.01
2.94692	100.01
2.96358	100.01
2.98025	100.01
2.99692	100.01
3.01358	100.01
3.03025	100.01
3.04692	100.01
3.06358	100.02
3.08025	100.01
3.09692	100.02
3.11358	100.02
3.13025	100.02
3.14692	100.02
3.16358	100.02
3.18025	100.02
3.19692	100.02
3.21358	100.03
3.23025	100.02
3.24692	100.02
3.26358	100.03
3.28025	100.03
3.29692	100.02
3.31358	100.03
3.33025	100.03
3.34692	100.03
3.36358	100.03
3.38025	100.03
3.39692	100.03
3.41358	100.04
3.43025	100.03
3.44692	100.04
3.46358	100.04
3.48025	100.03
3.49692	100.03
3.51358	100.04
3.53025	100.03
3.54692	100.04
3.56358	100.04
3.58025	100.04
3.59692	100.04
3.61358	100.04
3.63025	100.04
3.64692	100.04
3.66358	100.04
3.68025	100.04
3.69692	100.04
3.71358	100.04
3.73025	100.05
3.74692	100.04
3.76358	100.05
3.78025	100.05
3.79692	100.04
3.81358	100.05
3.83025	100.05
3.84692	100.04
3.86358	100.05
3.88025	100.05
3.89692	100.05
3.91358	100.05
3.93025	100.05
3.94692	100.05
3.96358	100.05
3.98025	100.06
3.99692	100.05

[Status Trace (Carrier Gas Pressure)]
Interval(msec)	1000
# of Points	240
Start Time(min)	0.014
End Time(min)	3.997
Intensity Units	
Intensity Multiplier	1
R.Time (min)	Intensity
0.01358	57.95
0.03025	55.23
0.04692	57.84
0.06358	59.73
0.08025	58.86
0.09692	57.98
0.11358	57.99
0.13025	58.01
0.14692	58.01
0.16358	58.01
0.18025	58.00
0.19692	58.00
0.21358	58.00
0.23025	58.00
0.24692	58.00
0.26358	58.00
0.28025	58.00
0.29692	58.00
0.31358	58.00
0.33025	58.00
0.34692	58.00
0.36358	58.00
0.38025	58.00
0.39692	58.00
0.41358	58.00
0.43025	58.00
0.44692	58.00
0.46358	58.00
0.48025	58.00
0.49692	58.00
0.51358	58.00
0.53025	58.00
0.54692	58.00
0.56358	58.00
0.58025	58.00
0.59692	58.00
0.61358	58.00
0.63025	58.00
0.64692	58.00
0.66358	58.00
0.68025	58.00
0.69692	58.00
0.71358	58.00
0.73025	58.00
0.74692	58.00
0.76358	58.00
0.78025	58.00
0.79692	58.00
0.81358	58.00
0.83025	58.00
0.84692	58.00
0.86358	58.00
0.88025	58.00
0.89692	58.00
0.91358	58.00
0.93025	58.00
0.94692	58.00
0.96358	58.00
0.98025	58.00
0.99692	58.00
1.01358	58.00
1.03025	58.00
1.04692	58.00
1.06358	58.00
1.08025	58.00
1.09692	58.00
1.11358	58.00
1.13025	58.00
1.14692	58.00
1.16358	58.00
1.18025	58.00
1.19692	58.00
1.21358	58.00
1.23025	58.00
1.24692	58.00
1.26358	58.00
1.28025	58.00
1.29692	58.00
1.31358	58.00
1.33025	58.00
1.34692	58.00
1.36358	58.00
1.38025	58.00
1.39692	58.00
1.41358	58.00
1.43025	58.00
1.44692	58.00
1.46358	58.00
1.48025	58.00
1.49692	58.00
1.51358	58.00
1.53025	58.00
1.54692	58.00
1.56358	58.00
1.58025	58.00
1.59692	58.00
1.61358	58.00
1.63025	58.00
1.64692	58.00
1.66358	58.01
1.68025	58.01
1.69692	58.00
1.71358	58.00
1.73025	58.00
1.74692	58.00
1.76358	58.00
1.78025	58.00
1.79692	58.00
1.81358	58.00
1.83025	58.00
1.84692	58.00
1.86358	58.00
1.88025	58.00
1.89692	58.00
1.91358	58.00
1.93025	58.00
1.94692	58.00
1.96358	58.00
1.98025	58.00
1.99692	58.00
2.01358	58.00
2.03025	58.00
2.04692	58.00
2.06358	58.00
2.08025	58.00
2.09692	58.00
2.11358	58.00
2.13025	58.00
2.14692	58.00
2.16358	58.00
2.18025	58.00
2.19692	58.00
2.21358	58.00
2.23025	58.00
2.24692	58.00
2.26358	58.00
2.28025	58.00
2.29692	58.00
2.31358	58.00
2.33025	58.00
2.34692	58.00
2.36358	58.00
2.38025	57.99
2.39692	57.99
2.41358	57.99
2.43025	58.00
2.44692	58.00
2.46358	58.00
2.48025	58.00
2.49692	58.00
2.51358	57.99
2.53025	57.99
2.54692	58.00
2.56358	58.00
2.58025	58.00
2.59692	58.00
2.61358	58.00
2.63025	58.00
2.64692	58.00
2.66358	58.00
2.68025	58.00
2.69692	58.00
2.71358	58.00
2.73025	58.00
2.74692	58.00
2.76358	58.00
2.78025	58.00
2.79692	58.00
2.81358	58.00
2.83025	58.00
2.84692	58.00
2.86358	58.00
2.88025	58.00
2.89692	58.00
2.91358	58.00
2.93025	58.00
2.94692	58.00
2.96358	58.00
2.98025	58.00
2.99692	58.00
3.01358	58.00
3.03025	58.00
3.04692	58.00
3.06358	58.00
3.08025	58.00
3.09692	58.00
3.11358	58.00
3.13025	58.00
3.14692	58.00
3.16358	58.00
3.18025	58.00
3.19692	58.00
3.21358	58.00
3.23025	58.00
3.24692	58.00
3.26358	58.00
3.28025	58.00
3.29692	58.00
3.31358	58.00
3.33025	58.00
3.34692	58.00
3.36358	58.00
3.38025	58.00
3.39692	58.00
3.41358	58.00
3.43025	58.00
3.44692	58.00
3.46358	58.00
3.48025	58.00
3.49692	58.00
3.51358	58.00
3.53025	58.00
3.54692	58.00
3.56358	58.00
3.58025	58.00
3.59692	58.00
3.61358	58.00
3.63025	58.00
3.64692	58.00
3.66358	58.00
3.68025	58.00
3.69692	58.00
3.71358	58.00
3.73025	58.00
3.74692	58.00
3.76358	58.00
3.78025	58.00
3.79692	58.00
3.81358	58.00
3.83025	58.00
3.84692	58.00
3.86358	58.00
3.88025	58.00
3.89692	58.00
3.91358	58.00
3.93025	58.00
3.94692	58.00
3.96358	58.00
3.98025	58.00
3.99692	58.00

[Status Trace (Carrier Gas Flow)]
Interval(msec)	1000
# of Points	240
Start Time(min)	0.014
End Time(min)	3.997
Intensity Units	
Intensity Multiplier	1
R.Time (min)	Intensity
0.01358	34.66
0.03025	34.54
0.04692	34.54
0.06358	34.53
0.08025	34.50
0.09692	34.52
0.11358	34.52
0.13025	34.52
0.14692	34.52
0.16358	34.52
0.18025	34.52
0.19692	34.52
0.21358	34.52
0.23025	34.52
0.24692	34.52
0.26358	34.52
0.28025	34.52
0.29692	34.52
0.31358	34.52
0.33025	34.52
0.34692	34.52
0.36358	34.52
0.38025	34.52
0.39692	34.52
0.41358	34.52
0.43025	34.52
0.44692	34.52
0.46358	34.52
0.48025	34.52
0.49692	34.52
0.51358	34.52
0.53025	34.52
0.54692	34.52
0.56358	34.52
0.58025	34.52
0.59692	34.52
0.61358	34.52
0.63025	34.52
0.64692	34.52
0.66358	34.52
0.68025	34.52
0.69692	34.52
0.71358	34.52
0.73025	34.52
0.74692	34.52
0.76358	34.52
0.78025	34.52
0.79692	34.52
0.81358	34.52
0.83025	34.52
0.84692	34.52
0.86358	34.52
0.88025	34.52
0.89692	34.52
0.91358	34.52
0.93025	34.52
0.94692	34.52
0.96358	34.52
0.98025	34.52
0.99692	34.52
1.01358	34.52
1.03025	34.52
1.04692	34.52
1.06358	34.52
1.08025	34.52
1.09692	34.52
1.11358	34.52
1.13025	34.52
1.14692	34.52
1.16358	34.52
1.18025	34.52
1.19692	34.52
1.21358	34.52
1.23025	34.52
1.24692	34.52
1.26358	34.52
1.28025	34.52
1.29692	34.52
1.31358	34.52
1.33025	34.52
1.34692	34.52
1.36358	34.52
1.38025	34.52
1.39692	34.52
1.41358	34.52
1.43025	34.52
1.44692	34.52
1.46358	34.52
1.48025	34.52
1.49692	34.52
1.51358	34.52
1.53025	34.52
1.54692	34.52
1.56358	34.52
1.58025	34.52
1.59692	34.52
1.61358	34.52
1.63025	34.52
1.64692	34.52
1.66358	34.52
1.68025	34.52
1.69692	34.52
1.71358	34.52
1.73025	34.52
1.74692	34.52
1.76358	34.52
1.78025	34.52
1.79692	34.52
1.81358	34.52
1.83025	34.52
1.84692	34.52
1.86358	34.52
1.88025	34.52
1.89692	34.52
1.91358	34.52
1.93025	34.52
1.94692	34.52
1.96358	34.52
1.98025	34.52
1.99692	34.52
2.01358	34.52
2.03025	34.52
2.04692	34.52
2.06358	34.52
2.08025	34.52
2.09692	34.52
2.11358	34.52
2.13025	34.52
2.14692	34.52
2.16358	34.52
2.18025	34.52
2.19692	34.52
2.21358	34.52
2.23025	34.52
2.24692	34.52
2.26358	34.52
2.28025	34.52
2.29692	34.52
2.31358	34.52
2.33025	34.52
2.34692	34.52
2.36358	34.52
2.38025	34.52
2.39692	34.51
2.41358	34.52
2.43025	34.52
2.44692	34.52
2.46358	34.51
2.48025	34.52
2.49692	34.50
2.51358	34.51
2.53025	34.52
2.54692	34.52
2.56358	34.52
2.58025	34.52
2.59692	34.52
2.61358	34.52
2.63025	34.52
2.64692	34.52
2.66358	34.52
2.68025	34.52
2.69692	34.52
2.71358	34.52
2.73025	34.52
2.74692	34.52
2.76358	34.52
2.78025	34.52
2.79692	34.52
2.81358	34.52
2.83025	34.52
2.84692	34.52
2.86358	34.52
2.88025	34.52
2.89692	34.52
2.91358	34.52
2.93025	34.52
2.94692	34.52
2.96358	34.52
2.98025	34.52
2.99692	34.52
3.01358	34.52
3.03025	34.52
3.04692	34.52
3.06358	34.52
3.08025	34.52
3.09692	34.52
3.11358	34.52
3.13025	34.52
3.14692	34.52
3.16358	34.52
3.18025	34.53
3.19692	34.53
3.21358	34.53
3.23025	34.52
3.24692	34.52
3.26358	34.52
3.28025	34.52
3.29692	34.52
3.31358	34.52
3.33025	34.52
3.34692	34.52
3.36358	34.52
3.38025	34.52
3.39692	34.52
3.41358	34.52
3.43025	34.52
3.44692	34.52
3.46358	34.52
3.48025	34.52
3.49692	34.52
3.51358	34.52
3.53025	34.52
3.54692	34.52
3.56358	34.52
3.58025	34.52
3.59692	34.52
3.61358	34.52
3.63025	34.52
3.64692	34.52
3.66358	34.52
3.68025	34.52
3.69692	34.52
3.71358	34.52
3.73025	34.52
3.74692	34.52
3.76358	34.52
3.78025	34.52
3.79692	34.52
3.81358	34.52
3.83025	34.52
3.84692	34.52
3.86358	34.52
3.88025	34.52
3.89692	34.52
3.91358	34.52
3.93025	34.52
3.94692	34.52
3.96358	34.52
3.98025	34.52
3.99692	34.52

[Status Trace (Column Flow)]
Interval(msec)	1000
# of Points	240
Start Time(min)	0.014
End Time(min)	3.997
Intensity Units	
Intensity Multiplier	1
R.Time (min)	Intensity
0.01358	5.52
0.03025	5.20
0.04692	5.51
0.06358	5.73
0.08025	5.62
0.09692	5.52
0.11358	5.52
0.13025	5.53
0.14692	5.53
0.16358	5.53
0.18025	5.53
0.19692	5.53
0.21358	5.53
0.23025	5.53
0.24692	5.53
0.26358	5.53
0.28025	5.52
0.29692	5.52
0.31358	5.52
0.33025	5.52
0.34692	5.52
0.36358	5.52
0.38025	5.52
0.39692	5.52
0.41358	5.52
0.43025	5.52
0.44692	5.52
0.46358	5.52
0.48025	5.52
0.49692	5.52
0.51358	5.52
0.53025	5.52
0.54692	5.52
0.56358	5.52
0.58025	5.53
0.59692	5.53
0.61358	5.53
0.63025	5.53
0.64692	5.53
0.66358	5.53
0.68025	5.53
0.69692	5.53
0.71358	5.52
0.73025	5.52
0.74692	5.53
0.76358	5.52
0.78025	5.52
0.79692	5.52
0.81358	5.52
0.83025	5.52
0.84692	5.52
0.86358	5.52
0.88025	5.52
0.89692	5.52
0.91358	5.52
0.93025	5.52
0.94692	5.52
0.96358	5.52
0.98025	5.52
0.99692	5.52
1.01358	5.52
1.03025	5.52
1.04692	5.52
1.06358	5.52
1.08025	5.52
1.09692	5.52
1.11358	5.52
1.13025	5.52
1.14692	5.52
1.16358	5.52
1.18025	5.52
1.19692	5.52
1.21358	5.52
1.23025	5.52
1.24692	5.52
1.26358	5.52
1.28025	5.52
1.29692	5.52
1.31358	5.52
1.33025	5.52
1.34692	5.52
1.36358	5.52
1.38025	5.52
1.39692	5.52
1.41358	5.52
1.43025	5.52
1.44692	5.53
1.46358	5.53
1.48025	5.53
1.49692	5.53
1.51358	5.53
1.53025	5.52
1.54692	5.52
1.56358	5.52
1.58025	5.52
1.59692	5.52
1.61358	5.52
1.63025	5.52
1.64692	5.51
1.66358	5.50
1.68025	5.49
1.69692	5.48
1.71358	5.47
1.73025	5.46
1.74692	5.45
1.76358	5.44
1.78025	5.43
1.79692	5.42
1.81358	5.41
1.83025	5.40
1.84692	5.39
1.86358	5.38
1.88025	5.37
1.89692	5.36
1.91358	5.35
1.93025	5.34
1.94692	5.33
1.96358	5.32
1.98025	5.31
1.99692	5.30
2.01358	5.29
2.03025	5.28
2.04692	5.27
2.06358	5.26
2.08025	5.25
2.09692	5.24
2.11358	5.23
2.13025	5.22
2.14692	5.21
2.16358	5.20
2.18025	5.20
2.19692	5.19
2.21358	5.18
2.23025	5.17
2.24692	5.16
2.26358	5.15
2.28025	5.14
2.29692	5.13
2.31358	5.12
2.33025	5.11
2.34692	5.10
2.36358	5.09
2.38025	5.09
2.39692	5.09
2.41358	5.09
2.43025	5.09
2.44692	5.09
2.46358	5.09
2.48025	5.09
2.49692	5.09
2.51358	5.09
2.53025	5.09
2.54692	5.09
2.56358	5.09
2.58025	5.09
2.59692	5.09
2.61358	5.09
2.63025	5.09
2.64692	5.09
2.66358	5.08
2.68025	5.08
2.69692	5.08
2.71358	5.08
2.73025	5.08
2.74692	5.08
2.76358	5.08
2.78025	5.08
2.79692	5.08
2.81358	5.08
2.83025	5.08
2.84692	5.08
2.86358	5.08
2.88025	5.08
2.89692	5.08
2.91358	5.08
2.93025	5.08
2.94692	5.08
2.96358	5.08
2.98025	5.08
2.99692	5.08
3.01358	5.08
3.03025	5.08
3.04692	5.08
3.06358	5.08
3.08025	5.08
3.09692	5.08
3.11358	5.08
3.13025	5.08
3.14692	5.08
3.16358	5.08
3.18025	5.08
3.19692	5.08
3.21358	5.08
3.23025	5.08
3.24692	5.08
3.26358	5.08
3.28025	5.08
3.29692	5.08
3.31358	5.08
3.33025	5.08
3.34692	5.08
3.36358	5.08
3.38025	5.08
3.39692	5.08
3.41358	5.08
3.43025	5.08
3.44692	5.08
3.46358	5.08
3.48025	5.08
3.49692	5.08
3.51358	5.08
3.53025	5.08
3.54692	5.08
3.56358	5.08
3.58025	5.08
3.59692	5.08
3.61358	5.08
3.63025	5.08
3.64692	5.08
3.66358	5.08
3.68025	5.08
3.69692	5.08
3.71358	5.08
3.73025	5.08
3.74692	5.08
3.76358	5.08
3.78025	5.08
3.79692	5.08
3.81358	5.08
3.83025	5.08
3.84692	5.08
3.86358	5.08
3.88025	5.08
3.89692	5.08
3.91358	5.08
3.93025	5.08
3.94692	5.08
3.96358	5.08
3.98025	5.08
3.99692	5.08

[Status Trace (Linear Velocity)]
Interval(msec)	1000
# of Points	240
Start Time(min)	0.014
End Time(min)	3.997
Intensity Units	
Intensity Multiplier	1
R.Time (min)	Intensity
0.01358	38.99
0.03025	37.20
0.04692	38.91
0.06358	40.15
0.08025	39.58
0.09692	39.01
0.11358	39.01
0.13025	39.03
0.14692	39.02
0.16358	39.02
0.18025	39.02
0.19692	39.02
0.21358	39.02
0.23025	39.02
0.24692	39.02
0.26358	39.02
0.28025	39.02
0.29692	39.02
0.31358	39.02
0.33025	39.02
0.34692	39.02
0.36358	39.02
0.38025	39.01
0.39692	39.02
0.41358	39.02
0.43025	39.02
0.44692	39.02
0.46358	39.02
0.48025	39.02
0.49692	39.02
0.51358	39.02
0.53025	39.02
0.54692	39.02
0.56358	39.02
0.58025	39.02
0.59692	39.02
0.61358	39.02
0.63025	39.02
0.64692	39.02
0.66358	39.02
0.68025	39.02
0.69692	39.02
0.71358	39.02
0.73025	39.02
0.74692	39.02
0.76358	39.02
0.78025	39.02
0.79692	39.02
0.81358	39.02
0.83025	39.02
0.84692	39.02
0.86358	39.02
0.88025	39.02
0.89692	39.02
0.91358	39.01
0.93025	39.02
0.94692	39.02
0.96358	39.01
0.98025	39.01
0.99692	39.01
1.01358	39.01
1.03025	39.01
1.04692	39.01
1.06358	39.01
1.08025	39.02
1.09692	39.02
1.11358	39.02
1.13025	39.02
1.14692	39.02
1.16358	39.02
1.18025	39.02
1.19692	39.02
1.21358	39.02
1.23025	39.02
1.24692	39.02
1.26358	39.02
1.28025	39.02
1.29692	39.02
1.31358	39.02
1.33025	39.02
1.34692	39.02
1.36358	39.02
1.38025	39.02
1.39692	39.02
1.41358	39.02
1.43025	39.02
1.44692	39.02
1.46358	39.02
1.48025	39.02
1.49692	39.02
1.51358	39.02
1.53025	39.02
1.54692	39.02
1.56358	39.02
1.58025	39.02
1.59692	39.02
1.61358	39.01
1.63025	39.00
1.64692	38.98
1.66358	38.96
1.68025	38.92
1.69692	38.88
1.71358	38.85
1.73025	38.82
1.74692	38.78
1.76358	38.75
1.78025	38.72
1.79692	38.69
1.81358	38.66
1.83025	38.63
1.84692	38.60
1.86358	38.57
1.88025	38.53
1.89692	38.50
1.91358	38.47
1.93025	38.44
1.94692	38.41
1.96358	38.38
1.98025	38.35
1.99692	38.32
2.01358	38.29
2.03025	38.26
2.04692	38.23
2.06358	38.20
2.08025	38.17
2.09692	38.15
2.11358	38.12
2.13025	38.09
2.14692	38.06
2.16358	38.03
2.18025	38.00
2.19692	37.97
2.21358	37.94
2.23025	37.91
2.24692	37.88
2.26358	37.85
2.28025	37.82
2.29692	37.79
2.31358	37.76
2.33025	37.73
2.34692	37.70
2.36358	37.68
2.38025	37.66
2.39692	37.66
2.41358	37.66
2.43025	37.66
2.44692	37.66
2.46358	37.66
2.48025	37.66
2.49692	37.66
2.51358	37.65
2.53025	37.65
2.54692	37.65
2.56358	37.65
2.58025	37.65
2.59692	37.65
2.61358	37.65
2.63025	37.65
2.64692	37.65
2.66358	37.65
2.68025	37.65
2.69692	37.65
2.71358	37.65
2.73025	37.64
2.74692	37.65
2.76358	37.65
2.78025	37.65
2.79692	37.65
2.81358	37.64
2.83025	37.64
2.84692	37.64
2.86358	37.64
2.88025	37.64
2.89692	37.64
2.91358	37.64
2.93025	37.64
2.94692	37.64
2.96358	37.64
2.98025	37.64
2.99692	37.64
3.01358	37.64
3.03025	37.64
3.04692	37.64
3.06358	37.63
3.08025	37.63
3.09692	37.63
3.11358	37.63
3.13025	37.63
3.14692	37.63
3.16358	37.63
3.18025	37.63
3.19692	37.63
3.21358	37.63
3.23025	37.62
3.24692	37.62
3.26358	37.62
3.28025	37.62
3.29692	37.62
3.31358	37.62
3.33025	37.63
3.34692	37.63
3.36358	37.63
3.38025	37.62
3.39692	37.62
3.41358	37.62
3.43025	37.62
3.44692	37.62
3.46358	37.63
3.48025	37.63
3.49692	37.63
3.51358	37.63
3.53025	37.63
3.54692	37.63
3.56358	37.63
3.58025	37.63
3.59692	37.63
3.61358	37.63
3.63025	37.63
3.64692	37.63
3.66358	37.63
3.68025	37.63
3.69692	37.63
3.71358	37.63
3.73025	37.63
3.74692	37.63
3.76358	37.63
3.78025	37.63
3.79692	37.63
3.81358	37.63
3.83025	37.63
3.84692	37.63
3.86358	37.63
3.88025	37.63
3.89692	37.63
3.91358	37.63
3.93025	37.63
3.94692	37.63
3.96358	37.63
3.98025	37.63
3.99692	37.63

