[Header]
Application Name	LabSolutions
Version	5.110
Data File Name	C:\Users\User\Desktop\Junior\UIC Prairie Sampling\2023\8.2.23\080223_026.gcd
Output Date	8/31/2023
Output Time	12:43:06 PM

[File Information]
Type	Data File
Generated	8/29/2023 6:44:09 PM
Generated by	System Administrator
Modified	8/29/2023 6:50:49 PM
Modified by	System Administrator

[Sample Information]
Operator Name	System Administrator
Acquired	8/29/2023 6:46:48 PM
Sample Type	0:Unknown
Level	0
Sample Name	026
Sample ID	026
ISTD Amount1	1
ISTD Amount2	1
ISTD Amount3	1
ISTD Amount4	1
ISTD Amount5	1
ISTD Amount6	1
ISTD Amount7	1
ISTD Amount8	1
ISTD Amount9	1
ISTD Amount10	1
ISTD Amount11	1
ISTD Amount12	1
ISTD Amount13	1
ISTD Amount14	1
ISTD Amount15	1
ISTD Amount16	1
ISTD Amount17	1
ISTD Amount18	1
ISTD Amount19	1
ISTD Amount20	1
ISTD Amount21	1
ISTD Amount22	1
ISTD Amount23	1
ISTD Amount24	1
ISTD Amount25	1
ISTD Amount26	1
ISTD Amount27	1
ISTD Amount28	1
ISTD Amount29	1
ISTD Amount30	1
ISTD Amount31	1
ISTD Amount32	1
Sample Amount	1
Dilution Factor	1
Vial#	25
Injection Volume	1
Injection Count	1
Bar Code	

[Original Files]
Data File	C:\Users\User\Desktop\Junior\UIC Prairie Sampling\8.2.23\080223_026.gcd
Method File	C:\LabSolutions\Data\GHG_4min_2022\ghg3_togas_w_acet_4 min_new_int.gcm
Batch File	C:\LabSolutions\Data\BATCH FILES\080223.gcb
Report Format File	c:\LabSolutions\System\DEFAULT.lsr

[File Description]


[Configuration]
Instrument Name	C0B7VH3-Instrument1
Instrument #	1
Line #	1
# of Detectors	3
Detector ID	DET#1	DET#2	DET#3
Detector Name	FID	PTCD	ECD
# of Channels	1	1	1

[Peak Table(Ch1)]
# of Peaks	4
Peak#	R.Time	I.Time	F.Time	Area	Height	A/H	Conc.	Mark	ID#	Name	k'	Plate #	Plate Ht.	Tailing	Resolution	Sep.Factor	Area Ratio	Height Ratio	Conc. %	Norm Conc.
1	0.299	0.185	0.401	1015	156	6.494	0.000	   			0.000	49	3089.390	1.007	0.000	0.000	0	0	0.000	0.000
2	1.472	1.428	1.527	6003	2954	2.032	0.000	   	1	CO	3.929	9782	15.335	1.274	10.159	0.000	0	0	0.000	0.000
3	1.564	1.527	1.622	4598	2334	1.970	22.416	 V 	2	CH4	4.235	11583	12.950	1.133	1.558	1.078	0	0	8.503	8.503
4	1.989	1.938	2.491	1251703	605240	2.068	241.226	   	3	CO2	5.660	17710	8.470	1.292	7.215	1.336	0	0	91.497	91.497

[Peak Table(Ch2)]
# of Peaks	0

[Peak Table(Ch3)]
# of Peaks	5
Peak#	R.Time	I.Time	F.Time	Area	Height	A/H	Conc.	Mark	ID#	Name	k'	Plate #	Plate Ht.	Tailing	Resolution	Sep.Factor	Area Ratio	Height Ratio	Conc. %	Norm Conc.
1	2.458	2.396	2.568	1165	280	4.163	0.000	   			0.000	12162	12.334	0.000	0.000	0.000	0	0	0.000	0.000
2	2.620	2.568	2.678	368	98	3.778	0.000	 V 			0.066	7752	19.351	0.000	1.550	0.000	0	0	0.000	0.000
3	2.891	2.836	2.950	12221	3779	3.234	0.181	   	1	N2O	0.176	15584	9.625	0.000	2.564	2.682	0	0	72.541	72.541
4	2.968	2.950	3.173	4626	678	6.822	0.068	 V 	1	N2O	0.207	807	185.950	0.000	0.302	1.178	0	0	27.459	27.459
5	3.404	3.269	3.555	1182	156	7.593	0.000	   			0.385	4786	31.340	1.030	1.419	1.856	0	0	0.000	0.000

[Compound Results(Ch1)]
# of IDs	6
ID#	Name	R.Time	Area	Height	Conc.	Curve	3rd	2nd	1st	Constant	Area Ratio	Height Ratio	Conc. %	Norm Conc.
1	CO	1.472	6003	2954	0.000	Linear	0.000000e+00	0.000000e+00	0.000000e+00	0.000000e+00	0	0	0.000	0.000
2	CH4	1.564	4598	2334	22.416	Linear	0.000000e+00	0.000000e+00	2.051179e+002	0.000000e+00	0	0	8.503	8.503
3	CO2	1.989	1251703	605240	241.226	Linear	0.000000e+00	0.000000e+00	5.188919e+003	0.000000e+00	0	0	91.497	91.497
4	Ethylene	0.000	0	0	0.000	Linear	0.000000e+00	0.000000e+00	0.000000e+00	0.000000e+00	0	0	0.000	0.000
5	Acetylene	0.000	0	0	0.000	Linear	0.000000e+00	0.000000e+00	0.000000e+00	0.000000e+00	0	0	0.000	0.000
6	Ethane	0.000	0	0	0.000	Linear	0.000000e+00	0.000000e+00	0.000000e+00	0.000000e+00	0	0	0.000	0.000

[Compound Results(Ch2)]
# of IDs	5
ID#	Name	R.Time	Area	Height	Conc.	Curve	3rd	2nd	1st	Constant	Area Ratio	Height Ratio	Conc. %	Norm Conc.
1	Hydrogen	0.000	0	0	0.000	Linear	0.000000e+00	0.000000e+00	0.000000e+00	0.000000e+00	0	0	0.000	0.000
2	Oxygen	0.000	0	0	0.000	Linear	0.000000e+00	0.000000e+00	0.000000e+00	0.000000e+00	0	0	0.000	0.000
3	Nitrogen	0.000	0	0	0.000	Linear	0.000000e+00	0.000000e+00	0.000000e+00	0.000000e+00	0	0	0.000	0.000
4	Methane	0.000	0	0	0.000	Linear	0.000000e+00	0.000000e+00	0.000000e+00	0.000000e+00	0	0	0.000	0.000
5	Carbon Monoxide	0.000	0	0	0.000	Linear	0.000000e+00	0.000000e+00	0.000000e+00	0.000000e+00	0	0	0.000	0.000

[Compound Results(Ch3)]
# of IDs	2
ID#	Name	R.Time	Area	Height	Conc.	Curve	3rd	2nd	1st	Constant	Area Ratio	Height Ratio	Conc. %	Norm Conc.
1	N2O	2.891	16847	4458	0.249	Linear	0.000000e+00	0.000000e+00	6.759880e+004	0.000000e+00	0	0	100.000	100.000
2	SF6	0.000	0	0	0.000	Linear	0.000000e+00	0.000000e+00	0.000000e+00	0.000000e+00	0	0	0.000	0.000

[Group Results(Ch1)]
# of Groups	0

[Group Results(Ch2)]
# of Groups	0

[Group Results(Ch3)]
# of Groups	0

[Chromatogram (Ch1)]
Interval(msec)	220
# of Points	1091
Start Time(min)	0.002
End Time(min)	3.998
R.Time (min)	Intensity
0.00167	2
0.00533	-0
0.00900	-0
0.01267	0
0.01633	-1
0.02000	-3
0.02367	-3
0.02733	-2
0.03100	-1
0.03467	1
0.03833	4
0.04200	5
0.04567	3
0.04933	-3
0.05300	-9
0.05667	-12
0.06033	-7
0.06400	1
0.06767	8
0.07133	13
0.07500	13
0.07867	10
0.08233	10
0.08600	11
0.08967	11
0.09333	7
0.09700	1
0.10067	-1
0.10433	2
0.10800	5
0.11167	9
0.11533	12
0.11900	11
0.12267	8
0.12633	3
0.13000	-2
0.13367	-7
0.13733	-8
0.14100	-4
0.14467	2
0.14833	4
0.15200	4
0.15567	4
0.15933	4
0.16300	6
0.16667	13
0.17033	23
0.17400	30
0.17767	33
0.18133	32
0.18500	32
0.18867	33
0.19233	35
0.19600	36
0.19967	37
0.20333	38
0.20700	41
0.21067	48
0.21433	59
0.21800	69
0.22167	79
0.22533	90
0.22900	102
0.23267	110
0.23633	118
0.24000	126
0.24367	132
0.24733	138
0.25100	144
0.25467	149
0.25833	156
0.26200	162
0.26567	167
0.26933	173
0.27300	179
0.27667	185
0.28033	187
0.28400	186
0.28767	185
0.29133	187
0.29500	190
0.29867	191
0.30233	186
0.30600	178
0.30967	167
0.31333	159
0.31700	154
0.32067	149
0.32433	145
0.32800	144
0.33167	144
0.33533	142
0.33900	137
0.34267	130
0.34633	121
0.35000	109
0.35367	95
0.35733	81
0.36100	73
0.36467	71
0.36833	69
0.37200	65
0.37567	62
0.37933	58
0.38300	54
0.38667	52
0.39033	48
0.39400	43
0.39767	39
0.40133	37
0.40500	33
0.40867	28
0.41233	22
0.41600	22
0.41967	23
0.42333	25
0.42700	27
0.43067	26
0.43433	20
0.43800	12
0.44167	6
0.44533	2
0.44900	0
0.45267	-2
0.45633	-2
0.46000	2
0.46367	8
0.46733	12
0.47100	13
0.47467	13
0.47833	13
0.48200	13
0.48567	15
0.48933	14
0.49300	13
0.49667	12
0.50033	14
0.50400	18
0.50767	20
0.51133	19
0.51500	12
0.51867	6
0.52233	4
0.52600	8
0.52967	17
0.53333	26
0.53700	26
0.54067	18
0.54433	8
0.54800	1
0.55167	-3
0.55533	-3
0.55900	-0
0.56267	0
0.56633	2
0.57000	8
0.57367	13
0.57733	15
0.58100	15
0.58467	13
0.58833	10
0.59200	10
0.59567	9
0.59933	8
0.60300	6
0.60667	7
0.61033	8
0.61400	10
0.61767	12
0.62133	17
0.62500	19
0.62867	15
0.63233	8
0.63600	-2
0.63967	-10
0.64333	-13
0.64700	-13
0.65067	-9
0.65433	-6
0.65800	-5
0.66167	-5
0.66533	-3
0.66900	1
0.67267	8
0.67633	13
0.68000	15
0.68367	14
0.68733	8
0.69100	1
0.69467	-6
0.69833	-12
0.70200	-15
0.70567	-14
0.70933	-9
0.71300	-3
0.71667	1
0.72033	5
0.72400	8
0.72767	11
0.73133	12
0.73500	11
0.73867	10
0.74233	8
0.74600	3
0.74967	-4
0.75333	-10
0.75700	-16
0.76067	-19
0.76433	-19
0.76800	-17
0.77167	-13
0.77533	-7
0.77900	1
0.78267	6
0.78633	10
0.79000	10
0.79367	9
0.79733	8
0.80100	6
0.80467	4
0.80833	2
0.81200	-1
0.81567	-2
0.81933	-5
0.82300	-7
0.82667	-9
0.83033	-8
0.83400	-5
0.83767	-1
0.84133	2
0.84500	4
0.84867	2
0.85233	-3
0.85600	-7
0.85967	-5
0.86333	-1
0.86700	-1
0.87067	1
0.87433	4
0.87800	5
0.88167	2
0.88533	0
0.88900	1
0.89267	4
0.89633	4
0.90000	2
0.90367	0
0.90733	-1
0.91100	-3
0.91467	-1
0.91833	3
0.92200	3
0.92567	-2
0.92933	-9
0.93300	-12
0.93667	-13
0.94033	-14
0.94400	-15
0.94767	-13
0.95133	-13
0.95500	-15
0.95867	-14
0.96233	-11
0.96600	-7
0.96967	-6
0.97333	-9
0.97700	-11
0.98067	-12
0.98433	-10
0.98800	-7
0.99167	-6
0.99533	-8
0.99900	-10
1.00267	-11
1.00633	-11
1.01000	-10
1.01367	-8
1.01733	-4
1.02100	3
1.02467	5
1.02833	0
1.03200	-9
1.03567	-19
1.03933	-23
1.04300	-23
1.04667	-23
1.05033	-23
1.05400	-25
1.05767	-26
1.06133	-23
1.06500	-21
1.06867	-23
1.07233	-23
1.07600	-19
1.07967	-14
1.08333	-9
1.08700	-4
1.09067	1
1.09433	4
1.09800	2
1.10167	-0
1.10533	-3
1.10900	-5
1.11267	-4
1.11633	-5
1.12000	-9
1.12367	-14
1.12733	-20
1.13100	-25
1.13467	-28
1.13833	-27
1.14200	-27
1.14567	-29
1.14933	-32
1.15300	-36
1.15667	-38
1.16033	-38
1.16400	-35
1.16767	-31
1.17133	-27
1.17500	-24
1.17867	-21
1.18233	-16
1.18600	-12
1.18967	-12
1.19333	-17
1.19700	-24
1.20067	-26
1.20433	-25
1.20800	-26
1.21167	-28
1.21533	-28
1.21900	-27
1.22267	-22
1.22633	-15
1.23000	-9
1.23367	-9
1.23733	-13
1.24100	-19
1.24467	-27
1.24833	-34
1.25200	-38
1.25567	-42
1.25933	-43
1.26300	-44
1.26667	-43
1.27033	-40
1.27400	-37
1.27767	-35
1.28133	-34
1.28500	-34
1.28867	-33
1.29233	-31
1.29600	-29
1.29967	-28
1.30333	-29
1.30700	-32
1.31067	-36
1.31433	-39
1.31800	-39
1.32167	-38
1.32533	-37
1.32900	-36
1.33267	-36
1.33633	-41
1.34000	-46
1.34367	-48
1.34733	-44
1.35100	-37
1.35467	-31
1.35833	-29
1.36200	-32
1.36567	-37
1.36933	-42
1.37300	-46
1.37667	-48
1.38033	-47
1.38400	-44
1.38767	-42
1.39133	-42
1.39500	-45
1.39867	-47
1.40233	-52
1.40600	-57
1.40967	-61
1.41333	-67
1.41700	-75
1.42067	-81
1.42433	-79
1.42800	-71
1.43167	-61
1.43533	-42
1.43900	-15
1.44267	19
1.44633	128
1.45000	437
1.45367	953
1.45733	1542
1.46100	2082
1.46467	2512
1.46833	2794
1.47200	2887
1.47567	2761
1.47933	2439
1.48300	2000
1.48667	1542
1.49033	1135
1.49400	810
1.49767	565
1.50133	386
1.50500	258
1.50867	169
1.51233	109
1.51600	67
1.51967	37
1.52333	15
1.52700	1
1.53067	1
1.53433	37
1.53800	170
1.54167	455
1.54533	875
1.54900	1334
1.55267	1747
1.55633	2064
1.56000	2252
1.56367	2277
1.56733	2118
1.57100	1809
1.57467	1429
1.57833	1056
1.58200	741
1.58567	498
1.58933	322
1.59300	200
1.59667	117
1.60033	61
1.60400	22
1.60767	-6
1.61133	-26
1.61500	-39
1.61867	-46
1.62233	-51
1.62600	-52
1.62967	-52
1.63333	-50
1.63700	-49
1.64067	-49
1.64433	-50
1.64800	-50
1.65167	-50
1.65533	-51
1.65900	-56
1.66267	-63
1.66633	-66
1.67000	-67
1.67367	-66
1.67733	-64
1.68100	-62
1.68467	-60
1.68833	-61
1.69200	-58
1.69567	-53
1.69933	-51
1.70300	-52
1.70667	-54
1.71033	-59
1.71400	-61
1.71767	-63
1.72133	-63
1.72500	-63
1.72867	-66
1.73233	-70
1.73600	-75
1.73967	-76
1.74333	-76
1.74700	-72
1.75067	-69
1.75433	-69
1.75800	-68
1.76167	-67
1.76533	-68
1.76900	-69
1.77267	-69
1.77633	-69
1.78000	-69
1.78367	-66
1.78733	-65
1.79100	-67
1.79467	-70
1.79833	-71
1.80200	-71
1.80567	-71
1.80933	-70
1.81300	-71
1.81667	-74
1.82033	-76
1.82400	-78
1.82767	-80
1.83133	-78
1.83500	-74
1.83867	-70
1.84233	-64
1.84600	-62
1.84967	-64
1.85333	-70
1.85700	-75
1.86067	-77
1.86433	-79
1.86800	-81
1.87167	-82
1.87533	-81
1.87900	-79
1.88267	-78
1.88633	-78
1.89000	-74
1.89367	-70
1.89733	-66
1.90100	-65
1.90467	-65
1.90833	-62
1.91200	-61
1.91567	-62
1.91933	-66
1.92300	-69
1.92667	-71
1.93033	-74
1.93400	-72
1.93767	-68
1.94133	-63
1.94500	-49
1.94867	38
1.95233	569
1.95600	3088
1.95967	12031
1.96333	36132
1.96700	86502
1.97067	169206
1.97433	277967
1.97800	395026
1.98167	499241
1.98533	572984
1.98900	605198
1.99267	592084
1.99633	538656
2.00000	457819
2.00367	366187
2.00733	278418
2.01100	203564
2.01467	144832
2.01833	101402
2.02200	70581
2.02567	49300
2.02933	34853
2.03300	25130
2.03667	18591
2.04033	14165
2.04400	11129
2.04767	9009
2.05133	7501
2.05500	6404
2.05867	5586
2.06233	4956
2.06600	4456
2.06967	4047
2.07333	3710
2.07700	3424
2.08067	3177
2.08433	2964
2.08800	2779
2.09167	2616
2.09533	2471
2.09900	2341
2.10267	2223
2.10633	2116
2.11000	2020
2.11367	1930
2.11733	1845
2.12100	1764
2.12467	1689
2.12833	1619
2.13200	1557
2.13567	1502
2.13933	1454
2.14300	1408
2.14667	1360
2.15033	1311
2.15400	1262
2.15767	1216
2.16133	1174
2.16500	1136
2.16867	1101
2.17233	1070
2.17600	1041
2.17967	1011
2.18333	983
2.18700	956
2.19067	928
2.19433	899
2.19800	871
2.20167	844
2.20533	822
2.20900	804
2.21267	787
2.21633	769
2.22000	749
2.22367	727
2.22733	705
2.23100	683
2.23467	665
2.23833	648
2.24200	633
2.24567	618
2.24933	602
2.25300	584
2.25667	567
2.26033	551
2.26400	537
2.26767	525
2.27133	517
2.27500	508
2.27867	495
2.28233	482
2.28600	474
2.28967	472
2.29333	474
2.29700	476
2.30067	479
2.30433	479
2.30800	476
2.31167	470
2.31533	460
2.31900	450
2.32267	439
2.32633	427
2.33000	414
2.33367	399
2.33733	387
2.34100	379
2.34467	377
2.34833	374
2.35200	370
2.35567	364
2.35933	356
2.36300	347
2.36667	339
2.37033	328
2.37400	319
2.37767	313
2.38133	309
2.38500	306
2.38867	306
2.39233	305
2.39600	301
2.39967	295
2.40333	290
2.40700	287
2.41067	284
2.41433	280
2.41800	276
2.42167	272
2.42533	270
2.42900	269
2.43267	266
2.43633	260
2.44000	252
2.44367	245
2.44733	240
2.45100	236
2.45467	235
2.45833	236
2.46200	234
2.46567	229
2.46933	222
2.47300	216
2.47667	213
2.48033	214
2.48400	216
2.48767	217
2.49133	216
2.49500	217
2.49867	218
2.50233	219
2.50600	218
2.50967	219
2.51333	221
2.51700	222
2.52067	222
2.52433	221
2.52800	218
2.53167	212
2.53533	207
2.53900	202
2.54267	196
2.54633	188
2.55000	179
2.55367	172
2.55733	167
2.56100	163
2.56467	160
2.56833	161
2.57200	163
2.57567	164
2.57933	166
2.58300	167
2.58667	168
2.59033	170
2.59400	170
2.59767	169
2.60133	169
2.60500	170
2.60867	168
2.61233	166
2.61600	162
2.61967	158
2.62333	157
2.62700	155
2.63067	151
2.63433	149
2.63800	151
2.64167	152
2.64533	152
2.64900	153
2.65267	156
2.65633	159
2.66000	160
2.66367	160
2.66733	158
2.67100	153
2.67467	146
2.67833	138
2.68200	135
2.68567	134
2.68933	134
2.69300	134
2.69667	135
2.70033	133
2.70400	130
2.70767	128
2.71133	127
2.71500	129
2.71867	132
2.72233	132
2.72600	131
2.72967	133
2.73333	136
2.73700	137
2.74067	135
2.74433	132
2.74800	133
2.75167	136
2.75533	138
2.75900	137
2.76267	135
2.76633	133
2.77000	132
2.77367	131
2.77733	130
2.78100	133
2.78467	135
2.78833	137
2.79200	141
2.79567	141
2.79933	140
2.80300	138
2.80667	134
2.81033	128
2.81400	124
2.81767	122
2.82133	123
2.82500	126
2.82867	128
2.83233	128
2.83600	127
2.83967	125
2.84333	123
2.84700	118
2.85067	113
2.85433	109
2.85800	107
2.86167	107
2.86533	108
2.86900	109
2.87267	111
2.87633	115
2.88000	118
2.88367	119
2.88733	117
2.89100	116
2.89467	113
2.89833	112
2.90200	115
2.90567	117
2.90933	117
2.91300	118
2.91667	120
2.92033	123
2.92400	122
2.92767	117
2.93133	112
2.93500	110
2.93867	109
2.94233	108
2.94600	110
2.94967	112
2.95333	114
2.95700	115
2.96067	115
2.96433	118
2.96800	119
2.97167	118
2.97533	115
2.97900	116
2.98267	116
2.98633	117
2.99000	120
2.99367	123
2.99733	125
3.00100	124
3.00467	125
3.00833	124
3.01200	122
3.01567	117
3.01933	112
3.02300	111
3.02667	112
3.03033	114
3.03400	114
3.03767	113
3.04133	112
3.04500	110
3.04867	109
3.05233	110
3.05600	109
3.05967	106
3.06333	105
3.06700	105
3.07067	106
3.07433	105
3.07800	101
3.08167	94
3.08533	87
3.08900	84
3.09267	84
3.09633	86
3.10000	90
3.10367	95
3.10733	102
3.11100	106
3.11467	106
3.11833	104
3.12200	103
3.12567	103
3.12933	101
3.13300	100
3.13667	97
3.14033	95
3.14400	95
3.14767	94
3.15133	96
3.15500	98
3.15867	97
3.16233	96
3.16600	94
3.16967	92
3.17333	89
3.17700	87
3.18067	87
3.18433	89
3.18800	91
3.19167	93
3.19533	93
3.19900	91
3.20267	91
3.20633	94
3.21000	97
3.21367	101
3.21733	103
3.22100	100
3.22467	96
3.22833	91
3.23200	87
3.23567	83
3.23933	83
3.24300	87
3.24667	93
3.25033	97
3.25400	97
3.25767	95
3.26133	94
3.26500	92
3.26867	90
3.27233	86
3.27600	82
3.27967	80
3.28333	83
3.28700	85
3.29067	84
3.29433	84
3.29800	88
3.30167	93
3.30533	95
3.30900	94
3.31267	94
3.31633	93
3.32000	90
3.32367	90
3.32733	94
3.33100	98
3.33467	97
3.33833	94
3.34200	90
3.34567	85
3.34933	80
3.35300	75
3.35667	71
3.36033	68
3.36400	65
3.36767	64
3.37133	65
3.37500	67
3.37867	68
3.38233	68
3.38600	67
3.38967	68
3.39333	69
3.39700	72
3.40067	72
3.40433	71
3.40800	68
3.41167	65
3.41533	64
3.41900	64
3.42267	67
3.42633	70
3.43000	70
3.43367	73
3.43733	75
3.44100	74
3.44467	72
3.44833	65
3.45200	54
3.45567	46
3.45933	44
3.46300	47
3.46667	50
3.47033	53
3.47400	54
3.47767	58
3.48133	63
3.48500	69
3.48867	74
3.49233	80
3.49600	84
3.49967	84
3.50333	81
3.50700	81
3.51067	83
3.51433	83
3.51800	82
3.52167	80
3.52533	76
3.52900	73
3.53267	71
3.53633	67
3.54000	66
3.54367	65
3.54733	64
3.55100	64
3.55467	65
3.55833	67
3.56200	67
3.56567	65
3.56933	62
3.57300	54
3.57667	46
3.58033	44
3.58400	47
3.58767	50
3.59133	48
3.59500	39
3.59867	30
3.60233	23
3.60600	20
3.60967	22
3.61333	29
3.61700	40
3.62067	51
3.62433	58
3.62800	59
3.63167	57
3.63533	54
3.63900	50
3.64267	45
3.64633	40
3.65000	38
3.65367	37
3.65733	39
3.66100	45
3.66467	51
3.66833	51
3.67200	47
3.67567	45
3.67933	45
3.68300	47
3.68667	51
3.69033	54
3.69400	58
3.69767	62
3.70133	66
3.70500	69
3.70867	70
3.71233	68
3.71600	66
3.71967	66
3.72333	68
3.72700	67
3.73067	64
3.73433	62
3.73800	61
3.74167	61
3.74533	60
3.74900	54
3.75267	46
3.75633	40
3.76000	32
3.76367	22
3.76733	15
3.77100	17
3.77467	23
3.77833	30
3.78200	34
3.78567	39
3.78933	45
3.79300	49
3.79667	50
3.80033	50
3.80400	51
3.80767	50
3.81133	48
3.81500	48
3.81867	48
3.82233	46
3.82600	46
3.82967	48
3.83333	49
3.83700	50
3.84067	48
3.84433	45
3.84800	41
3.85167	39
3.85533	35
3.85900	28
3.86267	19
3.86633	15
3.87000	15
3.87367	16
3.87733	20
3.88100	27
3.88467	34
3.88833	40
3.89200	42
3.89567	40
3.89933	36
3.90300	30
3.90667	23
3.91033	17
3.91400	15
3.91767	14
3.92133	16
3.92500	21
3.92867	25
3.93233	26
3.93600	26
3.93967	24
3.94333	20
3.94700	15
3.95067	14
3.95433	17
3.95800	22
3.96167	29
3.96533	35
3.96900	35
3.97267	35
3.97633	35
3.98000	36
3.98367	40
3.98733	43
3.99100	43
3.99467	41
3.99833	37

[Chromatogram (Ch2)]
Interval(msec)	220
# of Points	1091
Start Time(min)	0.002
End Time(min)	3.998
R.Time (min)	Intensity
0.00167	-0
0.00533	-1
0.00900	-1
0.01267	-1
0.01633	-1
0.02000	-1
0.02367	-1
0.02733	-1
0.03100	-1
0.03467	-1
0.03833	-1
0.04200	-1
0.04567	-1
0.04933	-1
0.05300	-1
0.05667	-1
0.06033	-1
0.06400	-1
0.06767	-1
0.07133	-1
0.07500	-1
0.07867	-1
0.08233	-1
0.08600	-1
0.08967	-1
0.09333	-1
0.09700	-1
0.10067	-0
0.10433	-0
0.10800	0
0.11167	0
0.11533	1
0.11900	1
0.12267	0
0.12633	0
0.13000	-0
0.13367	-0
0.13733	-0
0.14100	-0
0.14467	-0
0.14833	-0
0.15200	-0
0.15567	-0
0.15933	-0
0.16300	0
0.16667	0
0.17033	0
0.17400	0
0.17767	0
0.18133	0
0.18500	0
0.18867	0
0.19233	-0
0.19600	-0
0.19967	-0
0.20333	-1
0.20700	-1
0.21067	-1
0.21433	-1
0.21800	-1
0.22167	-1
0.22533	-1
0.22900	-1
0.23267	-1
0.23633	-1
0.24000	-1
0.24367	-1
0.24733	-1
0.25100	-1
0.25467	-1
0.25833	-1
0.26200	-1
0.26567	-1
0.26933	-1
0.27300	-1
0.27667	-1
0.28033	-1
0.28400	-1
0.28767	-1
0.29133	-1
0.29500	-1
0.29867	-1
0.30233	-0
0.30600	-0
0.30967	-0
0.31333	-0
0.31700	-1
0.32067	-1
0.32433	-1
0.32800	-1
0.33167	-1
0.33533	-1
0.33900	-1
0.34267	-1
0.34633	-0
0.35000	-0
0.35367	-0
0.35733	-0
0.36100	-0
0.36467	-0
0.36833	0
0.37200	0
0.37567	-0
0.37933	-0
0.38300	-0
0.38667	0
0.39033	0
0.39400	0
0.39767	0
0.40133	0
0.40500	0
0.40867	0
0.41233	0
0.41600	0
0.41967	0
0.42333	-0
0.42700	-0
0.43067	-0
0.43433	-0
0.43800	-0
0.44167	-0
0.44533	-1
0.44900	-1
0.45267	-1
0.45633	-1
0.46000	-1
0.46367	-1
0.46733	-1
0.47100	-2
0.47467	-1
0.47833	-1
0.48200	-1
0.48567	-1
0.48933	-1
0.49300	-1
0.49667	-1
0.50033	-1
0.50400	-1
0.50767	-1
0.51133	-1
0.51500	-1
0.51867	-1
0.52233	-1
0.52600	-1
0.52967	-1
0.53333	-1
0.53700	-1
0.54067	-0
0.54433	-0
0.54800	-0
0.55167	-1
0.55533	-1
0.55900	-1
0.56267	-1
0.56633	-1
0.57000	-1
0.57367	-1
0.57733	-1
0.58100	-1
0.58467	-1
0.58833	-1
0.59200	-1
0.59567	-1
0.59933	-1
0.60300	-1
0.60667	-1
0.61033	-1
0.61400	-1
0.61767	-1
0.62133	-1
0.62500	-1
0.62867	-1
0.63233	-1
0.63600	-1
0.63967	-1
0.64333	-1
0.64700	-1
0.65067	-1
0.65433	-1
0.65800	-1
0.66167	-1
0.66533	-1
0.66900	-1
0.67267	-1
0.67633	-1
0.68000	-1
0.68367	-2
0.68733	-2
0.69100	-2
0.69467	-2
0.69833	-2
0.70200	-2
0.70567	-2
0.70933	-2
0.71300	-2
0.71667	-2
0.72033	-1
0.72400	-1
0.72767	-1
0.73133	-1
0.73500	-1
0.73867	-1
0.74233	-1
0.74600	-1
0.74967	-1
0.75333	-1
0.75700	-1
0.76067	-2
0.76433	-2
0.76800	-2
0.77167	-2
0.77533	-2
0.77900	-2
0.78267	-2
0.78633	-2
0.79000	-2
0.79367	-2
0.79733	-2
0.80100	-1
0.80467	-1
0.80833	-1
0.81200	-1
0.81567	-1
0.81933	-1
0.82300	-1
0.82667	-1
0.83033	-1
0.83400	-1
0.83767	-1
0.84133	-1
0.84500	-1
0.84867	-1
0.85233	-1
0.85600	-1
0.85967	-2
0.86333	-2
0.86700	-2
0.87067	-3
0.87433	-3
0.87800	-3
0.88167	-2
0.88533	-2
0.88900	-2
0.89267	-2
0.89633	-2
0.90000	-2
0.90367	-2
0.90733	-3
0.91100	-3
0.91467	-3
0.91833	-3
0.92200	-3
0.92567	-2
0.92933	-2
0.93300	-2
0.93667	-2
0.94033	-2
0.94400	-2
0.94767	-2
0.95133	-2
0.95500	-2
0.95867	-2
0.96233	-2
0.96600	-2
0.96967	-2
0.97333	-2
0.97700	-2
0.98067	-2
0.98433	-2
0.98800	-2
0.99167	-2
0.99533	-2
0.99900	-2
1.00267	-2
1.00633	-2
1.01000	-2
1.01367	-3
1.01733	-3
1.02100	-2
1.02467	-2
1.02833	-2
1.03200	-2
1.03567	-3
1.03933	-3
1.04300	-2
1.04667	-2
1.05033	-2
1.05400	-2
1.05767	-2
1.06133	-2
1.06500	-2
1.06867	-2
1.07233	-2
1.07600	-2
1.07967	-2
1.08333	-2
1.08700	-3
1.09067	-3
1.09433	-3
1.09800	-3
1.10167	-3
1.10533	-3
1.10900	-3
1.11267	-3
1.11633	-2
1.12000	-2
1.12367	-2
1.12733	-2
1.13100	-2
1.13467	-2
1.13833	-2
1.14200	-2
1.14567	-3
1.14933	-3
1.15300	-3
1.15667	-3
1.16033	-3
1.16400	-3
1.16767	-3
1.17133	-3
1.17500	-3
1.17867	-3
1.18233	-3
1.18600	-3
1.18967	-3
1.19333	-3
1.19700	-3
1.20067	-4
1.20433	-4
1.20800	-4
1.21167	-4
1.21533	-4
1.21900	-3
1.22267	-3
1.22633	-3
1.23000	-3
1.23367	-3
1.23733	-3
1.24100	-3
1.24467	-3
1.24833	-3
1.25200	-2
1.25567	-2
1.25933	-2
1.26300	-2
1.26667	-2
1.27033	-2
1.27400	-2
1.27767	-2
1.28133	-2
1.28500	-2
1.28867	-2
1.29233	-2
1.29600	-2
1.29967	-2
1.30333	-2
1.30700	-2
1.31067	-2
1.31433	-2
1.31800	-2
1.32167	-2
1.32533	-2
1.32900	-2
1.33267	-2
1.33633	-3
1.34000	-3
1.34367	-3
1.34733	-3
1.35100	-4
1.35467	-4
1.35833	-4
1.36200	-4
1.36567	-4
1.36933	-4
1.37300	-4
1.37667	-4
1.38033	-3
1.38400	-3
1.38767	-3
1.39133	-3
1.39500	-3
1.39867	-3
1.40233	-3
1.40600	-3
1.40967	-3
1.41333	-3
1.41700	-3
1.42067	-3
1.42433	-3
1.42800	-3
1.43167	-3
1.43533	-3
1.43900	-3
1.44267	-3
1.44633	-3
1.45000	-3
1.45367	-3
1.45733	-3
1.46100	-3
1.46467	-3
1.46833	-3
1.47200	-3
1.47567	-3
1.47933	-3
1.48300	-3
1.48667	-2
1.49033	-2
1.49400	-2
1.49767	-2
1.50133	-2
1.50500	-2
1.50867	-2
1.51233	-2
1.51600	-2
1.51967	-2
1.52333	-2
1.52700	-2
1.53067	-2
1.53433	-2
1.53800	-3
1.54167	-3
1.54533	-2
1.54900	-2
1.55267	-2
1.55633	-3
1.56000	-3
1.56367	-3
1.56733	-3
1.57100	-3
1.57467	-3
1.57833	-3
1.58200	-4
1.58567	-4
1.58933	-4
1.59300	-4
1.59667	-4
1.60033	-5
1.60400	-5
1.60767	-7
1.61133	-8
1.61500	-10
1.61867	-13
1.62233	-15
1.62600	-18
1.62967	-21
1.63333	-24
1.63700	-27
1.64067	-30
1.64433	-34
1.64800	-37
1.65167	-40
1.65533	-43
1.65900	-47
1.66267	-50
1.66633	-53
1.67000	-57
1.67367	-61
1.67733	-66
1.68100	-70
1.68467	-74
1.68833	-78
1.69200	-82
1.69567	-85
1.69933	-88
1.70300	-90
1.70667	-91
1.71033	-92
1.71400	-93
1.71767	-94
1.72133	-94
1.72500	-94
1.72867	-95
1.73233	-95
1.73600	-96
1.73967	-96
1.74333	-97
1.74700	-97
1.75067	-97
1.75433	-97
1.75800	-97
1.76167	-97
1.76533	-97
1.76900	-97
1.77267	-97
1.77633	-97
1.78000	-98
1.78367	-98
1.78733	-98
1.79100	-98
1.79467	-98
1.79833	-98
1.80200	-97
1.80567	-97
1.80933	-97
1.81300	-96
1.81667	-97
1.82033	-97
1.82400	-98
1.82767	-98
1.83133	-99
1.83500	-100
1.83867	-100
1.84233	-100
1.84600	-100
1.84967	-100
1.85333	-100
1.85700	-100
1.86067	-100
1.86433	-100
1.86800	-100
1.87167	-100
1.87533	-100
1.87900	-99
1.88267	-99
1.88633	-98
1.89000	-98
1.89367	-98
1.89733	-98
1.90100	-98
1.90467	-98
1.90833	-98
1.91200	-97
1.91567	-96
1.91933	-96
1.92300	-95
1.92667	-95
1.93033	-94
1.93400	-94
1.93767	-94
1.94133	-94
1.94500	-94
1.94867	-94
1.95233	-94
1.95600	-94
1.95967	-94
1.96333	-94
1.96700	-94
1.97067	-94
1.97433	-93
1.97800	-93
1.98167	-93
1.98533	-92
1.98900	-92
1.99267	-92
1.99633	-92
2.00000	-92
2.00367	-93
2.00733	-93
2.01100	-93
2.01467	-92
2.01833	-92
2.02200	-91
2.02567	-90
2.02933	-89
2.03300	-89
2.03667	-88
2.04033	-88
2.04400	-87
2.04767	-87
2.05133	-87
2.05500	-87
2.05867	-87
2.06233	-87
2.06600	-86
2.06967	-85
2.07333	-85
2.07700	-84
2.08067	-84
2.08433	-84
2.08800	-84
2.09167	-84
2.09533	-84
2.09900	-84
2.10267	-84
2.10633	-83
2.11000	-83
2.11367	-83
2.11733	-83
2.12100	-83
2.12467	-83
2.12833	-83
2.13200	-83
2.13567	-82
2.13933	-82
2.14300	-82
2.14667	-82
2.15033	-81
2.15400	-81
2.15767	-80
2.16133	-80
2.16500	-79
2.16867	-79
2.17233	-78
2.17600	-78
2.17967	-78
2.18333	-78
2.18700	-78
2.19067	-78
2.19433	-79
2.19800	-78
2.20167	-78
2.20533	-78
2.20900	-77
2.21267	-76
2.21633	-76
2.22000	-75
2.22367	-74
2.22733	-74
2.23100	-74
2.23467	-74
2.23833	-74
2.24200	-73
2.24567	-73
2.24933	-72
2.25300	-72
2.25667	-71
2.26033	-71
2.26400	-71
2.26767	-71
2.27133	-71
2.27500	-71
2.27867	-71
2.28233	-71
2.28600	-71
2.28967	-70
2.29333	-70
2.29700	-70
2.30067	-70
2.30433	-69
2.30800	-69
2.31167	-68
2.31533	-68
2.31900	-68
2.32267	-68
2.32633	-68
2.33000	-68
2.33367	-67
2.33733	-67
2.34100	-66
2.34467	-65
2.34833	-65
2.35200	-64
2.35567	-64
2.35933	-63
2.36300	-62
2.36667	-61
2.37033	-59
2.37400	-57
2.37767	-54
2.38133	-51
2.38500	-47
2.38867	-43
2.39233	-39
2.39600	-35
2.39967	-30
2.40333	-26
2.40700	-22
2.41067	-19
2.41433	-15
2.41800	-12
2.42167	-10
2.42533	-7
2.42900	-5
2.43267	-3
2.43633	-1
2.44000	1
2.44367	3
2.44733	5
2.45100	6
2.45467	7
2.45833	8
2.46200	9
2.46567	9
2.46933	10
2.47300	10
2.47667	11
2.48033	12
2.48400	13
2.48767	13
2.49133	14
2.49500	14
2.49867	15
2.50233	16
2.50600	16
2.50967	17
2.51333	18
2.51700	19
2.52067	19
2.52433	19
2.52800	20
2.53167	20
2.53533	19
2.53900	19
2.54267	19
2.54633	18
2.55000	18
2.55367	17
2.55733	16
2.56100	15
2.56467	14
2.56833	13
2.57200	12
2.57567	12
2.57933	13
2.58300	13
2.58667	14
2.59033	15
2.59400	15
2.59767	16
2.60133	16
2.60500	16
2.60867	17
2.61233	17
2.61600	18
2.61967	18
2.62333	18
2.62700	19
2.63067	19
2.63433	20
2.63800	20
2.64167	20
2.64533	20
2.64900	20
2.65267	21
2.65633	21
2.66000	22
2.66367	22
2.66733	22
2.67100	22
2.67467	22
2.67833	22
2.68200	22
2.68567	23
2.68933	23
2.69300	23
2.69667	23
2.70033	24
2.70400	24
2.70767	25
2.71133	25
2.71500	26
2.71867	26
2.72233	27
2.72600	27
2.72967	28
2.73333	28
2.73700	28
2.74067	28
2.74433	28
2.74800	27
2.75167	27
2.75533	27
2.75900	27
2.76267	27
2.76633	27
2.77000	28
2.77367	28
2.77733	28
2.78100	28
2.78467	28
2.78833	28
2.79200	28
2.79567	28
2.79933	28
2.80300	28
2.80667	28
2.81033	28
2.81400	29
2.81767	29
2.82133	29
2.82500	29
2.82867	29
2.83233	29
2.83600	29
2.83967	29
2.84333	29
2.84700	29
2.85067	29
2.85433	28
2.85800	27
2.86167	25
2.86533	20
2.86900	13
2.87267	3
2.87633	-12
2.88000	-32
2.88367	-56
2.88733	-87
2.89100	-122
2.89467	-163
2.89833	-209
2.90200	-260
2.90567	-314
2.90933	-373
2.91300	-434
2.91667	-497
2.92033	-562
2.92400	-627
2.92767	-691
2.93133	-754
2.93500	-815
2.93867	-871
2.94233	-926
2.94600	-981
2.94967	-1036
2.95333	-1082
2.95700	-1112
2.96067	-1118
2.96433	-1098
2.96800	-1056
2.97167	-996
2.97533	-924
2.97900	-845
2.98267	-763
2.98633	-682
2.99000	-605
2.99367	-532
2.99733	-465
3.00100	-403
3.00467	-348
3.00833	-299
3.01200	-256
3.01567	-218
3.01933	-185
3.02300	-156
3.02667	-131
3.03033	-110
3.03400	-91
3.03767	-75
3.04133	-62
3.04500	-50
3.04867	-40
3.05233	-32
3.05600	-25
3.05967	-19
3.06333	-13
3.06700	-9
3.07067	-5
3.07433	-2
3.07800	1
3.08167	3
3.08533	6
3.08900	8
3.09267	9
3.09633	11
3.10000	12
3.10367	13
3.10733	14
3.11100	14
3.11467	15
3.11833	16
3.12200	16
3.12567	17
3.12933	17
3.13300	18
3.13667	18
3.14033	19
3.14400	19
3.14767	19
3.15133	20
3.15500	20
3.15867	20
3.16233	21
3.16600	21
3.16967	21
3.17333	22
3.17700	22
3.18067	22
3.18433	23
3.18800	23
3.19167	23
3.19533	23
3.19900	23
3.20267	23
3.20633	24
3.21000	24
3.21367	24
3.21733	25
3.22100	25
3.22467	25
3.22833	25
3.23200	26
3.23567	26
3.23933	26
3.24300	26
3.24667	26
3.25033	27
3.25400	27
3.25767	27
3.26133	28
3.26500	28
3.26867	28
3.27233	28
3.27600	28
3.27967	28
3.28333	29
3.28700	29
3.29067	29
3.29433	30
3.29800	30
3.30167	31
3.30533	31
3.30900	31
3.31267	31
3.31633	31
3.32000	31
3.32367	31
3.32733	31
3.33100	31
3.33467	31
3.33833	31
3.34200	31
3.34567	31
3.34933	31
3.35300	30
3.35667	30
3.36033	30
3.36400	30
3.36767	30
3.37133	30
3.37500	30
3.37867	30
3.38233	30
3.38600	30
3.38967	30
3.39333	30
3.39700	30
3.40067	30
3.40433	30
3.40800	30
3.41167	29
3.41533	29
3.41900	29
3.42267	29
3.42633	30
3.43000	30
3.43367	30
3.43733	30
3.44100	30
3.44467	30
3.44833	30
3.45200	30
3.45567	30
3.45933	30
3.46300	30
3.46667	30
3.47033	29
3.47400	29
3.47767	29
3.48133	29
3.48500	29
3.48867	29
3.49233	29
3.49600	28
3.49967	28
3.50333	28
3.50700	28
3.51067	28
3.51433	29
3.51800	29
3.52167	29
3.52533	29
3.52900	29
3.53267	29
3.53633	29
3.54000	29
3.54367	29
3.54733	29
3.55100	29
3.55467	29
3.55833	29
3.56200	29
3.56567	29
3.56933	29
3.57300	29
3.57667	30
3.58033	30
3.58400	30
3.58767	30
3.59133	30
3.59500	30
3.59867	30
3.60233	30
3.60600	29
3.60967	29
3.61333	29
3.61700	29
3.62067	29
3.62433	29
3.62800	29
3.63167	29
3.63533	29
3.63900	29
3.64267	29
3.64633	30
3.65000	30
3.65367	30
3.65733	30
3.66100	30
3.66467	30
3.66833	30
3.67200	30
3.67567	30
3.67933	30
3.68300	30
3.68667	30
3.69033	30
3.69400	30
3.69767	30
3.70133	30
3.70500	30
3.70867	30
3.71233	30
3.71600	30
3.71967	30
3.72333	30
3.72700	30
3.73067	30
3.73433	30
3.73800	30
3.74167	30
3.74533	29
3.74900	29
3.75267	29
3.75633	29
3.76000	30
3.76367	30
3.76733	30
3.77100	30
3.77467	30
3.77833	30
3.78200	30
3.78567	30
3.78933	30
3.79300	30
3.79667	30
3.80033	30
3.80400	30
3.80767	29
3.81133	29
3.81500	29
3.81867	29
3.82233	29
3.82600	30
3.82967	30
3.83333	30
3.83700	30
3.84067	30
3.84433	30
3.84800	30
3.85167	30
3.85533	30
3.85900	30
3.86267	30
3.86633	30
3.87000	30
3.87367	30
3.87733	30
3.88100	31
3.88467	31
3.88833	31
3.89200	31
3.89567	30
3.89933	30
3.90300	31
3.90667	31
3.91033	31
3.91400	31
3.91767	31
3.92133	31
3.92500	31
3.92867	31
3.93233	31
3.93600	31
3.93967	31
3.94333	31
3.94700	31
3.95067	31
3.95433	31
3.95800	31
3.96167	31
3.96533	30
3.96900	30
3.97267	30
3.97633	30
3.98000	30
3.98367	30
3.98733	30
3.99100	30
3.99467	30
3.99833	30

[Chromatogram (Ch3)]
Interval(msec)	220
# of Points	1091
Start Time(min)	0.002
End Time(min)	3.998
R.Time (min)	Intensity
0.00167	0
0.00533	-1
0.00900	-2
0.01267	-2
0.01633	-2
0.02000	-1
0.02367	1
0.02733	5
0.03100	8
0.03467	7
0.03833	5
0.04200	6
0.04567	5
0.04933	2
0.05300	0
0.05667	-1
0.06033	-2
0.06400	-3
0.06767	-2
0.07133	-1
0.07500	-0
0.07867	0
0.08233	-0
0.08600	-1
0.08967	-1
0.09333	-1
0.09700	-0
0.10067	-1
0.10433	-4
0.10800	-6
0.11167	-4
0.11533	-4
0.11900	-2
0.12267	-0
0.12633	2
0.13000	3
0.13367	3
0.13733	1
0.14100	-2
0.14467	-3
0.14833	-3
0.15200	-2
0.15567	-0
0.15933	2
0.16300	-0
0.16667	-1
0.17033	-0
0.17400	1
0.17767	-0
0.18133	-1
0.18500	-1
0.18867	-2
0.19233	-2
0.19600	-3
0.19967	-5
0.20333	-6
0.20700	-4
0.21067	-1
0.21433	0
0.21800	-1
0.22167	-1
0.22533	1
0.22900	-1
0.23267	-2
0.23633	-2
0.24000	-1
0.24367	2
0.24733	1
0.25100	3
0.25467	3
0.25833	1
0.26200	0
0.26567	-1
0.26933	0
0.27300	1
0.27667	-0
0.28033	-2
0.28400	-4
0.28767	-2
0.29133	-3
0.29500	-4
0.29867	-5
0.30233	-4
0.30600	-1
0.30967	-1
0.31333	1
0.31700	3
0.32067	4
0.32433	3
0.32800	5
0.33167	6
0.33533	6
0.33900	6
0.34267	7
0.34633	10
0.35000	10
0.35367	9
0.35733	10
0.36100	9
0.36467	6
0.36833	4
0.37200	3
0.37567	1
0.37933	2
0.38300	4
0.38667	2
0.39033	1
0.39400	3
0.39767	4
0.40133	6
0.40500	8
0.40867	10
0.41233	10
0.41600	11
0.41967	11
0.42333	9
0.42700	8
0.43067	5
0.43433	5
0.43800	3
0.44167	2
0.44533	2
0.44900	-0
0.45267	-4
0.45633	-5
0.46000	-6
0.46367	-6
0.46733	-3
0.47100	-0
0.47467	1
0.47833	3
0.48200	4
0.48567	5
0.48933	6
0.49300	4
0.49667	4
0.50033	4
0.50400	5
0.50767	5
0.51133	1
0.51500	-2
0.51867	-3
0.52233	0
0.52600	4
0.52967	5
0.53333	5
0.53700	5
0.54067	4
0.54433	4
0.54800	4
0.55167	4
0.55533	2
0.55900	2
0.56267	3
0.56633	3
0.57000	4
0.57367	3
0.57733	3
0.58100	4
0.58467	5
0.58833	5
0.59200	3
0.59567	2
0.59933	2
0.60300	3
0.60667	3
0.61033	5
0.61400	7
0.61767	7
0.62133	6
0.62500	3
0.62867	1
0.63233	2
0.63600	4
0.63967	4
0.64333	3
0.64700	3
0.65067	4
0.65433	5
0.65800	6
0.66167	6
0.66533	5
0.66900	4
0.67267	3
0.67633	3
0.68000	4
0.68367	4
0.68733	3
0.69100	2
0.69467	3
0.69833	5
0.70200	7
0.70567	9
0.70933	9
0.71300	8
0.71667	6
0.72033	5
0.72400	6
0.72767	6
0.73133	3
0.73500	1
0.73867	3
0.74233	5
0.74600	5
0.74967	7
0.75333	11
0.75700	12
0.76067	12
0.76433	13
0.76800	12
0.77167	12
0.77533	11
0.77900	9
0.78267	6
0.78633	6
0.79000	8
0.79367	12
0.79733	16
0.80100	18
0.80467	21
0.80833	21
0.81200	19
0.81567	17
0.81933	14
0.82300	12
0.82667	11
0.83033	10
0.83400	10
0.83767	13
0.84133	15
0.84500	15
0.84867	15
0.85233	14
0.85600	14
0.85967	13
0.86333	12
0.86700	13
0.87067	15
0.87433	13
0.87800	10
0.88167	11
0.88533	12
0.88900	13
0.89267	12
0.89633	8
0.90000	4
0.90367	2
0.90733	4
0.91100	6
0.91467	10
0.91833	12
0.92200	12
0.92567	10
0.92933	10
0.93300	11
0.93667	13
0.94033	14
0.94400	15
0.94767	16
0.95133	16
0.95500	15
0.95867	13
0.96233	10
0.96600	7
0.96967	7
0.97333	6
0.97700	6
0.98067	6
0.98433	9
0.98800	11
0.99167	13
0.99533	12
0.99900	9
1.00267	5
1.00633	4
1.01000	5
1.01367	6
1.01733	4
1.02100	5
1.02467	6
1.02833	8
1.03200	8
1.03567	9
1.03933	11
1.04300	12
1.04667	14
1.05033	15
1.05400	16
1.05767	17
1.06133	16
1.06500	14
1.06867	12
1.07233	9
1.07600	7
1.07967	8
1.08333	7
1.08700	5
1.09067	5
1.09433	6
1.09800	7
1.10167	7
1.10533	7
1.10900	9
1.11267	11
1.11633	12
1.12000	11
1.12367	11
1.12733	12
1.13100	14
1.13467	16
1.13833	17
1.14200	15
1.14567	13
1.14933	15
1.15300	17
1.15667	16
1.16033	16
1.16400	17
1.16767	17
1.17133	14
1.17500	14
1.17867	13
1.18233	13
1.18600	14
1.18967	15
1.19333	14
1.19700	16
1.20067	16
1.20433	16
1.20800	16
1.21167	17
1.21533	17
1.21900	16
1.22267	15
1.22633	15
1.23000	15
1.23367	14
1.23733	13
1.24100	13
1.24467	12
1.24833	14
1.25200	16
1.25567	17
1.25933	18
1.26300	18
1.26667	19
1.27033	18
1.27400	19
1.27767	18
1.28133	16
1.28500	13
1.28867	13
1.29233	15
1.29600	15
1.29967	14
1.30333	11
1.30700	11
1.31067	11
1.31433	11
1.31800	13
1.32167	14
1.32533	15
1.32900	15
1.33267	14
1.33633	14
1.34000	14
1.34367	13
1.34733	12
1.35100	14
1.35467	14
1.35833	15
1.36200	15
1.36567	13
1.36933	15
1.37300	17
1.37667	16
1.38033	15
1.38400	13
1.38767	13
1.39133	15
1.39500	17
1.39867	18
1.40233	20
1.40600	20
1.40967	21
1.41333	21
1.41700	21
1.42067	20
1.42433	18
1.42800	18
1.43167	20
1.43533	21
1.43900	18
1.44267	15
1.44633	16
1.45000	16
1.45367	16
1.45733	15
1.46100	17
1.46467	18
1.46833	19
1.47200	19
1.47567	18
1.47933	18
1.48300	17
1.48667	17
1.49033	17
1.49400	21
1.49767	23
1.50133	22
1.50500	23
1.50867	21
1.51233	19
1.51600	18
1.51967	18
1.52333	18
1.52700	15
1.53067	14
1.53433	15
1.53800	19
1.54167	21
1.54533	22
1.54900	23
1.55267	23
1.55633	22
1.56000	21
1.56367	21
1.56733	20
1.57100	20
1.57467	20
1.57833	19
1.58200	16
1.58567	15
1.58933	13
1.59300	12
1.59667	12
1.60033	13
1.60400	14
1.60767	15
1.61133	14
1.61500	13
1.61867	15
1.62233	17
1.62600	18
1.62967	21
1.63333	22
1.63700	22
1.64067	22
1.64433	20
1.64800	19
1.65167	17
1.65533	15
1.65900	15
1.66267	18
1.66633	18
1.67000	18
1.67367	18
1.67733	19
1.68100	22
1.68467	24
1.68833	25
1.69200	24
1.69567	22
1.69933	23
1.70300	23
1.70667	24
1.71033	22
1.71400	24
1.71767	25
1.72133	24
1.72500	25
1.72867	28
1.73233	29
1.73600	28
1.73967	27
1.74333	28
1.74700	28
1.75067	28
1.75433	27
1.75800	26
1.76167	24
1.76533	23
1.76900	25
1.77267	26
1.77633	27
1.78000	25
1.78367	22
1.78733	23
1.79100	24
1.79467	25
1.79833	27
1.80200	30
1.80567	32
1.80933	33
1.81300	33
1.81667	32
1.82033	27
1.82400	24
1.82767	22
1.83133	23
1.83500	25
1.83867	26
1.84233	28
1.84600	31
1.84967	33
1.85333	34
1.85700	35
1.86067	36
1.86433	38
1.86800	37
1.87167	35
1.87533	34
1.87900	33
1.88267	34
1.88633	34
1.89000	36
1.89367	35
1.89733	33
1.90100	32
1.90467	33
1.90833	30
1.91200	28
1.91567	29
1.91933	32
1.92300	33
1.92667	35
1.93033	38
1.93400	41
1.93767	44
1.94133	43
1.94500	39
1.94867	39
1.95233	40
1.95600	38
1.95967	37
1.96333	37
1.96700	36
1.97067	36
1.97433	38
1.97800	42
1.98167	44
1.98533	45
1.98900	44
1.99267	44
1.99633	47
2.00000	50
2.00367	53
2.00733	53
2.01100	53
2.01467	54
2.01833	55
2.02200	56
2.02567	53
2.02933	51
2.03300	51
2.03667	52
2.04033	55
2.04400	57
2.04767	58
2.05133	58
2.05500	58
2.05867	57
2.06233	55
2.06600	53
2.06967	53
2.07333	53
2.07700	54
2.08067	57
2.08433	62
2.08800	63
2.09167	61
2.09533	62
2.09900	62
2.10267	63
2.10633	66
2.11000	70
2.11367	72
2.11733	73
2.12100	71
2.12467	70
2.12833	70
2.13200	70
2.13567	69
2.13933	69
2.14300	69
2.14667	70
2.15033	71
2.15400	71
2.15767	70
2.16133	69
2.16500	71
2.16867	71
2.17233	73
2.17600	75
2.17967	78
2.18333	79
2.18700	79
2.19067	80
2.19433	82
2.19800	84
2.20167	85
2.20533	83
2.20900	82
2.21267	81
2.21633	82
2.22000	83
2.22367	83
2.22733	82
2.23100	81
2.23467	81
2.23833	82
2.24200	84
2.24567	86
2.24933	87
2.25300	87
2.25667	86
2.26033	85
2.26400	83
2.26767	85
2.27133	89
2.27500	92
2.27867	94
2.28233	93
2.28600	92
2.28967	92
2.29333	93
2.29700	94
2.30067	95
2.30433	96
2.30800	97
2.31167	96
2.31533	98
2.31900	98
2.32267	98
2.32633	100
2.33000	100
2.33367	99
2.33733	99
2.34100	99
2.34467	100
2.34833	101
2.35200	103
2.35567	104
2.35933	106
2.36300	108
2.36667	107
2.37033	106
2.37400	102
2.37767	98
2.38133	95
2.38500	93
2.38867	90
2.39233	93
2.39600	95
2.39967	99
2.40333	105
2.40700	112
2.41067	117
2.41433	123
2.41800	128
2.42167	132
2.42533	135
2.42900	135
2.43267	135
2.43633	134
2.44000	138
2.44367	181
2.44733	255
2.45100	321
2.45467	366
2.45833	381
2.46200	373
2.46567	359
2.46933	349
2.47300	343
2.47667	332
2.48033	312
2.48400	289
2.48767	268
2.49133	249
2.49500	237
2.49867	230
2.50233	226
2.50600	227
2.50967	232
2.51333	237
2.51700	241
2.52067	242
2.52433	238
2.52800	232
2.53167	222
2.53533	210
2.53900	198
2.54267	186
2.54633	176
2.55000	172
2.55367	166
2.55733	160
2.56100	154
2.56467	153
2.56833	153
2.57200	155
2.57567	158
2.57933	160
2.58300	161
2.58667	166
2.59033	173
2.59400	180
2.59767	188
2.60133	193
2.60500	198
2.60867	203
2.61233	209
2.61600	212
2.61967	213
2.62333	210
2.62700	205
2.63067	197
2.63433	190
2.63800	182
2.64167	176
2.64533	168
2.64900	159
2.65267	151
2.65633	144
2.66000	138
2.66367	132
2.66733	129
2.67100	126
2.67467	123
2.67833	120
2.68200	118
2.68567	117
2.68933	119
2.69300	121
2.69667	121
2.70033	119
2.70400	117
2.70767	117
2.71133	116
2.71500	116
2.71867	115
2.72233	111
2.72600	110
2.72967	111
2.73333	115
2.73700	119
2.74067	120
2.74433	122
2.74800	125
2.75167	128
2.75533	130
2.75900	130
2.76267	130
2.76633	129
2.77000	134
2.77367	138
2.77733	142
2.78100	145
2.78467	149
2.78833	151
2.79200	150
2.79567	152
2.79933	157
2.80300	164
2.80667	167
2.81033	168
2.81400	169
2.81767	172
2.82133	175
2.82500	179
2.82867	179
2.83233	181
2.83600	186
2.83967	203
2.84333	239
2.84700	308
2.85067	432
2.85433	629
2.85800	911
2.86167	1282
2.86533	1726
2.86900	2213
2.87267	2712
2.87633	3179
2.88000	3571
2.88367	3860
2.88733	4030
2.89100	4078
2.89467	4013
2.89833	3858
2.90200	3638
2.90567	3373
2.90933	3090
2.91300	2800
2.91667	2517
2.92033	2245
2.92400	1967
2.92767	1649
2.93133	1376
2.93500	1196
2.93867	1099
2.94233	1055
2.94600	1043
2.94967	1048
2.95333	1063
2.95700	1082
2.96067	1100
2.96433	1119
2.96800	1133
2.97167	1140
2.97533	1143
2.97900	1144
2.98267	1142
2.98633	1137
2.99000	1131
2.99367	1123
2.99733	1113
3.00100	1104
3.00467	1094
3.00833	1082
3.01200	1072
3.01567	1063
3.01933	1052
3.02300	1042
3.02667	1034
3.03033	1026
3.03400	1018
3.03767	1012
3.04133	1005
3.04500	999
3.04867	993
3.05233	986
3.05600	978
3.05967	970
3.06333	963
3.06700	957
3.07067	953
3.07433	949
3.07800	943
3.08167	936
3.08533	929
3.08900	923
3.09267	916
3.09633	914
3.10000	912
3.10367	910
3.10733	908
3.11100	907
3.11467	905
3.11833	904
3.12200	905
3.12567	906
3.12933	907
3.13300	907
3.13667	902
3.14033	897
3.14400	893
3.14767	891
3.15133	889
3.15500	887
3.15867	884
3.16233	881
3.16600	878
3.16967	877
3.17333	873
3.17700	870
3.18067	869
3.18433	867
3.18800	864
3.19167	863
3.19533	861
3.19900	857
3.20267	852
3.20633	852
3.21000	853
3.21367	851
3.21733	848
3.22100	843
3.22467	839
3.22833	836
3.23200	832
3.23567	826
3.23933	819
3.24300	813
3.24667	810
3.25033	807
3.25400	802
3.25767	796
3.26133	794
3.26500	795
3.26867	797
3.27233	798
3.27600	797
3.27967	796
3.28333	797
3.28700	798
3.29067	797
3.29433	796
3.29800	796
3.30167	796
3.30533	796
3.30900	797
3.31267	800
3.31633	805
3.32000	811
3.32367	813
3.32733	816
3.33100	819
3.33467	822
3.33833	829
3.34200	836
3.34567	843
3.34933	849
3.35300	853
3.35667	856
3.36033	858
3.36400	860
3.36767	866
3.37133	870
3.37500	873
3.37867	875
3.38233	879
3.38600	883
3.38967	885
3.39333	885
3.39700	885
3.40067	886
3.40433	886
3.40800	884
3.41167	879
3.41533	874
3.41900	871
3.42267	867
3.42633	862
3.43000	857
3.43367	850
3.43733	843
3.44100	834
3.44467	825
3.44833	818
3.45200	808
3.45567	797
3.45933	788
3.46300	778
3.46667	769
3.47033	760
3.47400	756
3.47767	754
3.48133	749
3.48500	743
3.48867	736
3.49233	728
3.49600	719
3.49967	713
3.50333	708
3.50700	702
3.51067	698
3.51433	694
3.51800	689
3.52167	686
3.52533	682
3.52900	678
3.53267	675
3.53633	673
3.54000	670
3.54367	668
3.54733	667
3.55100	661
3.55467	657
3.55833	654
3.56200	652
3.56567	651
3.56933	649
3.57300	649
3.57667	650
3.58033	648
3.58400	643
3.58767	641
3.59133	640
3.59500	638
3.59867	637
3.60233	635
3.60600	633
3.60967	633
3.61333	631
3.61700	630
3.62067	626
3.62433	621
3.62800	619
3.63167	617
3.63533	614
3.63900	609
3.64267	605
3.64633	603
3.65000	602
3.65367	601
3.65733	599
3.66100	596
3.66467	594
3.66833	593
3.67200	591
3.67567	589
3.67933	588
3.68300	588
3.68667	584
3.69033	585
3.69400	586
3.69767	585
3.70133	583
3.70500	582
3.70867	581
3.71233	579
3.71600	579
3.71967	578
3.72333	579
3.72700	578
3.73067	577
3.73433	575
3.73800	572
3.74167	570
3.74533	569
3.74900	570
3.75267	571
3.75633	570
3.76000	568
3.76367	565
3.76733	562
3.77100	560
3.77467	561
3.77833	561
3.78200	560
3.78567	557
3.78933	556
3.79300	556
3.79667	557
3.80033	557
3.80400	557
3.80767	556
3.81133	552
3.81500	547
3.81867	547
3.82233	549
3.82600	549
3.82967	548
3.83333	548
3.83700	548
3.84067	549
3.84433	546
3.84800	543
3.85167	541
3.85533	538
3.85900	539
3.86267	540
3.86633	536
3.87000	531
3.87367	529
3.87733	529
3.88100	530
3.88467	529
3.88833	528
3.89200	529
3.89567	528
3.89933	526
3.90300	523
3.90667	522
3.91033	522
3.91400	521
3.91767	518
3.92133	518
3.92500	516
3.92867	515
3.93233	511
3.93600	509
3.93967	509
3.94333	511
3.94700	510
3.95067	508
3.95433	505
3.95800	502
3.96167	500
3.96533	496
3.96900	493
3.97267	494
3.97633	496
3.98000	497
3.98367	497
3.98733	496
3.99100	497
3.99467	495
3.99833	489

[Status Trace (Column Oven Temperature)]
Interval(msec)	1000
# of Points	240
Start Time(min)	0.014
End Time(min)	3.997
Intensity Units	
Intensity Multiplier	1
R.Time (min)	Intensity
0.01367	35.04
0.03033	35.04
0.04700	35.03
0.06367	35.04
0.08033	35.05
0.09700	35.04
0.11367	35.04
0.13033	35.05
0.14700	35.05
0.16367	35.05
0.18033	35.05
0.19700	35.04
0.21367	35.03
0.23033	35.03
0.24700	35.03
0.26367	35.03
0.28033	35.03
0.29700	35.02
0.31367	35.02
0.33033	35.02
0.34700	35.03
0.36367	35.03
0.38033	35.02
0.39700	35.02
0.41367	35.01
0.43033	35.01
0.44700	35.02
0.46367	35.02
0.48033	35.03
0.49700	35.02
0.51367	35.01
0.53033	35.00
0.54700	35.00
0.56367	35.00
0.58033	35.00
0.59700	35.00
0.61367	34.99
0.63033	34.99
0.64700	35.00
0.66367	35.00
0.68033	35.01
0.69700	35.00
0.71367	35.00
0.73033	35.00
0.74700	34.99
0.76367	35.00
0.78033	34.99
0.79700	35.00
0.81367	34.99
0.83033	34.99
0.84700	34.98
0.86367	34.98
0.88033	34.98
0.89700	34.99
0.91367	34.99
0.93033	34.99
0.94700	35.00
0.96367	34.99
0.98033	34.98
0.99700	34.99
1.01367	34.99
1.03033	35.00
1.04700	35.00
1.06367	34.99
1.08033	34.99
1.09700	34.99
1.11367	34.99
1.13033	34.99
1.14700	34.99
1.16367	34.98
1.18033	34.98
1.19700	34.99
1.21367	34.99
1.23033	34.99
1.24700	35.00
1.26367	35.00
1.28033	35.00
1.29700	34.99
1.31367	34.99
1.33033	34.99
1.34700	34.99
1.36367	34.99
1.38033	34.99
1.39700	34.99
1.41367	34.99
1.43033	34.99
1.44700	34.99
1.46367	34.98
1.48033	34.99
1.49700	34.98
1.51367	34.99
1.53033	34.99
1.54700	35.00
1.56367	34.99
1.58033	34.99
1.59700	35.02
1.61367	35.10
1.63033	35.25
1.64700	35.46
1.66367	35.73
1.68033	36.09
1.69700	36.45
1.71367	36.80
1.73033	37.13
1.74700	37.47
1.76367	37.79
1.78033	38.14
1.79700	38.46
1.81367	38.78
1.83033	39.13
1.84700	39.45
1.86367	39.79
1.88033	40.11
1.89700	40.45
1.91367	40.75
1.93033	41.08
1.94700	41.41
1.96367	41.74
1.98033	42.06
1.99700	42.40
2.01367	42.73
2.03033	43.05
2.04700	43.38
2.06367	43.68
2.08033	44.01
2.09700	44.33
2.11367	44.66
2.13033	44.98
2.14700	45.33
2.16367	45.65
2.18033	45.99
2.19700	46.32
2.21367	46.64
2.23033	46.99
2.24700	47.30
2.26367	47.62
2.28033	47.94
2.29700	48.29
2.31367	48.60
2.33033	48.93
2.34700	49.26
2.36367	49.54
2.38033	49.69
2.39700	49.73
2.41367	49.72
2.43033	49.73
2.44700	49.73
2.46367	49.76
2.48033	49.76
2.49700	49.77
2.51367	49.77
2.53033	49.78
2.54700	49.78
2.56367	49.81
2.58033	49.80
2.59700	49.82
2.61367	49.82
2.63033	49.83
2.64700	49.84
2.66367	49.84
2.68033	49.85
2.69700	49.86
2.71367	49.85
2.73033	49.86
2.74700	49.87
2.76367	49.88
2.78033	49.88
2.79700	49.89
2.81367	49.88
2.83033	49.89
2.84700	49.89
2.86367	49.90
2.88033	49.91
2.89700	49.93
2.91367	49.94
2.93033	49.96
2.94700	49.96
2.96367	49.98
2.98033	49.99
2.99700	50.00
3.01367	50.01
3.03033	50.02
3.04700	50.02
3.06367	50.03
3.08033	50.04
3.09700	50.05
3.11367	50.05
3.13033	50.07
3.14700	50.08
3.16367	50.08
3.18033	50.08
3.19700	50.09
3.21367	50.10
3.23033	50.11
3.24700	50.10
3.26367	50.10
3.28033	50.09
3.29700	50.08
3.31367	50.07
3.33033	50.05
3.34700	50.05
3.36367	50.03
3.38033	50.03
3.39700	50.03
3.41367	50.04
3.43033	50.03
3.44700	50.03
3.46367	50.03
3.48033	50.04
3.49700	50.04
3.51367	50.04
3.53033	50.04
3.54700	50.05
3.56367	50.05
3.58033	50.05
3.59700	50.05
3.61367	50.06
3.63033	50.06
3.64700	50.06
3.66367	50.07
3.68033	50.06
3.69700	50.06
3.71367	50.06
3.73033	50.06
3.74700	50.07
3.76367	50.06
3.78033	50.06
3.79700	50.07
3.81367	50.07
3.83033	50.07
3.84700	50.06
3.86367	50.06
3.88033	50.07
3.89700	50.07
3.91367	50.07
3.93033	50.06
3.94700	50.06
3.96367	50.06
3.98033	50.05
3.99700	50.05

[Status Trace (Injection Unit Temperature)]
Interval(msec)	1000
# of Points	240
Start Time(min)	0.014
End Time(min)	3.997
Intensity Units	
Intensity Multiplier	1
R.Time (min)	Intensity
0.01367	99.96
0.03033	99.97
0.04700	99.97
0.06367	99.97
0.08033	99.97
0.09700	99.97
0.11367	99.97
0.13033	99.97
0.14700	99.97
0.16367	99.97
0.18033	99.97
0.19700	99.97
0.21367	99.97
0.23033	99.97
0.24700	99.97
0.26367	99.97
0.28033	99.97
0.29700	99.97
0.31367	99.97
0.33033	99.97
0.34700	99.97
0.36367	99.97
0.38033	99.97
0.39700	99.97
0.41367	99.97
0.43033	99.97
0.44700	99.97
0.46367	99.97
0.48033	99.97
0.49700	99.97
0.51367	99.98
0.53033	99.98
0.54700	99.97
0.56367	99.98
0.58033	99.98
0.59700	99.98
0.61367	99.97
0.63033	99.97
0.64700	99.98
0.66367	99.98
0.68033	99.98
0.69700	99.98
0.71367	99.98
0.73033	99.98
0.74700	99.98
0.76367	99.98
0.78033	99.98
0.79700	99.97
0.81367	99.98
0.83033	99.98
0.84700	99.98
0.86367	99.98
0.88033	99.98
0.89700	99.98
0.91367	99.98
0.93033	99.98
0.94700	99.98
0.96367	99.98
0.98033	99.98
0.99700	99.98
1.01367	99.98
1.03033	99.98
1.04700	99.98
1.06367	99.98
1.08033	99.97
1.09700	99.97
1.11367	99.98
1.13033	99.98
1.14700	99.97
1.16367	99.98
1.18033	99.98
1.19700	99.98
1.21367	99.98
1.23033	99.98
1.24700	99.98
1.26367	99.98
1.28033	99.98
1.29700	99.97
1.31367	99.97
1.33033	99.97
1.34700	99.97
1.36367	99.98
1.38033	99.98
1.39700	99.97
1.41367	99.97
1.43033	99.97
1.44700	99.97
1.46367	99.98
1.48033	99.98
1.49700	99.97
1.51367	99.97
1.53033	99.98
1.54700	99.98
1.56367	99.98
1.58033	99.97
1.59700	99.98
1.61367	99.98
1.63033	99.98
1.64700	99.98
1.66367	99.98
1.68033	99.97
1.69700	99.98
1.71367	99.98
1.73033	99.98
1.74700	99.98
1.76367	99.98
1.78033	99.98
1.79700	99.98
1.81367	99.97
1.83033	99.98
1.84700	99.97
1.86367	99.97
1.88033	99.98
1.89700	99.97
1.91367	99.97
1.93033	99.97
1.94700	99.97
1.96367	99.97
1.98033	99.97
1.99700	99.97
2.01367	99.97
2.03033	99.96
2.04700	99.97
2.06367	99.97
2.08033	99.96
2.09700	99.96
2.11367	99.96
2.13033	99.96
2.14700	99.96
2.16367	99.96
2.18033	99.96
2.19700	99.96
2.21367	99.96
2.23033	99.95
2.24700	99.96
2.26367	99.96
2.28033	99.95
2.29700	99.96
2.31367	99.96
2.33033	99.95
2.34700	99.95
2.36367	99.95
2.38033	99.95
2.39700	99.95
2.41367	99.95
2.43033	99.96
2.44700	99.96
2.46367	99.95
2.48033	99.96
2.49700	99.96
2.51367	99.96
2.53033	99.96
2.54700	99.96
2.56367	99.96
2.58033	99.96
2.59700	99.96
2.61367	99.96
2.63033	99.97
2.64700	99.97
2.66367	99.97
2.68033	99.97
2.69700	99.97
2.71367	99.97
2.73033	99.98
2.74700	99.98
2.76367	99.98
2.78033	99.98
2.79700	99.98
2.81367	99.98
2.83033	99.98
2.84700	99.99
2.86367	99.99
2.88033	99.99
2.89700	99.99
2.91367	99.99
2.93033	99.99
2.94700	99.99
2.96367	100.00
2.98033	100.00
2.99700	100.00
3.01367	100.00
3.03033	99.99
3.04700	100.00
3.06367	100.01
3.08033	100.01
3.09700	100.01
3.11367	100.01
3.13033	100.01
3.14700	100.01
3.16367	100.01
3.18033	100.01
3.19700	100.01
3.21367	100.01
3.23033	100.01
3.24700	100.02
3.26367	100.01
3.28033	100.01
3.29700	100.02
3.31367	100.02
3.33033	100.02
3.34700	100.02
3.36367	100.02
3.38033	100.02
3.39700	100.02
3.41367	100.02
3.43033	100.02
3.44700	100.02
3.46367	100.03
3.48033	100.03
3.49700	100.02
3.51367	100.03
3.53033	100.02
3.54700	100.03
3.56367	100.03
3.58033	100.03
3.59700	100.03
3.61367	100.03
3.63033	100.03
3.64700	100.03
3.66367	100.03
3.68033	100.03
3.69700	100.03
3.71367	100.03
3.73033	100.03
3.74700	100.03
3.76367	100.04
3.78033	100.03
3.79700	100.04
3.81367	100.04
3.83033	100.04
3.84700	100.04
3.86367	100.04
3.88033	100.04
3.89700	100.04
3.91367	100.04
3.93033	100.04
3.94700	100.04
3.96367	100.03
3.98033	100.04
3.99700	100.04

[Status Trace (Carrier Gas Pressure)]
Interval(msec)	1000
# of Points	240
Start Time(min)	0.014
End Time(min)	3.997
Intensity Units	
Intensity Multiplier	1
R.Time (min)	Intensity
0.01367	57.89
0.03033	55.29
0.04700	57.88
0.06367	59.76
0.08033	58.81
0.09700	57.99
0.11367	57.99
0.13033	58.01
0.14700	58.01
0.16367	58.00
0.18033	58.00
0.19700	58.00
0.21367	58.00
0.23033	58.00
0.24700	58.00
0.26367	58.00
0.28033	58.00
0.29700	58.00
0.31367	58.00
0.33033	58.00
0.34700	58.00
0.36367	58.00
0.38033	58.00
0.39700	58.00
0.41367	58.00
0.43033	58.00
0.44700	58.00
0.46367	58.00
0.48033	58.00
0.49700	58.00
0.51367	58.00
0.53033	58.00
0.54700	58.00
0.56367	58.00
0.58033	58.00
0.59700	58.00
0.61367	58.00
0.63033	58.00
0.64700	58.00
0.66367	58.00
0.68033	58.00
0.69700	58.00
0.71367	58.00
0.73033	58.00
0.74700	58.00
0.76367	58.00
0.78033	58.00
0.79700	58.00
0.81367	58.00
0.83033	58.00
0.84700	58.00
0.86367	58.00
0.88033	58.00
0.89700	58.00
0.91367	58.00
0.93033	58.00
0.94700	58.00
0.96367	58.00
0.98033	58.00
0.99700	58.00
1.01367	58.00
1.03033	58.00
1.04700	58.00
1.06367	58.00
1.08033	58.00
1.09700	58.00
1.11367	58.00
1.13033	58.00
1.14700	58.00
1.16367	58.00
1.18033	58.00
1.19700	58.00
1.21367	58.00
1.23033	58.00
1.24700	58.00
1.26367	58.00
1.28033	58.00
1.29700	58.00
1.31367	58.00
1.33033	58.00
1.34700	58.00
1.36367	58.00
1.38033	58.00
1.39700	58.00
1.41367	58.00
1.43033	58.00
1.44700	58.00
1.46367	58.00
1.48033	58.00
1.49700	58.00
1.51367	58.00
1.53033	58.00
1.54700	58.00
1.56367	58.00
1.58033	58.00
1.59700	58.00
1.61367	58.00
1.63033	58.00
1.64700	58.00
1.66367	58.00
1.68033	58.01
1.69700	58.00
1.71367	58.00
1.73033	58.00
1.74700	58.00
1.76367	58.00
1.78033	58.00
1.79700	58.00
1.81367	58.00
1.83033	58.00
1.84700	58.00
1.86367	58.00
1.88033	58.00
1.89700	58.00
1.91367	58.00
1.93033	58.00
1.94700	58.00
1.96367	58.00
1.98033	58.00
1.99700	58.00
2.01367	58.00
2.03033	58.00
2.04700	58.00
2.06367	58.00
2.08033	58.00
2.09700	58.00
2.11367	58.00
2.13033	58.00
2.14700	58.00
2.16367	58.00
2.18033	58.00
2.19700	58.00
2.21367	58.00
2.23033	58.00
2.24700	58.00
2.26367	58.00
2.28033	58.00
2.29700	58.00
2.31367	58.00
2.33033	58.00
2.34700	58.00
2.36367	58.00
2.38033	57.99
2.39700	57.99
2.41367	58.00
2.43033	58.00
2.44700	58.00
2.46367	58.00
2.48033	58.00
2.49700	58.00
2.51367	57.99
2.53033	57.99
2.54700	58.00
2.56367	58.00
2.58033	58.00
2.59700	58.00
2.61367	58.00
2.63033	58.00
2.64700	58.00
2.66367	58.00
2.68033	58.00
2.69700	58.00
2.71367	58.00
2.73033	58.00
2.74700	58.00
2.76367	58.00
2.78033	58.00
2.79700	58.00
2.81367	58.00
2.83033	58.00
2.84700	58.00
2.86367	58.00
2.88033	58.00
2.89700	58.00
2.91367	58.00
2.93033	58.00
2.94700	58.00
2.96367	58.00
2.98033	58.00
2.99700	58.00
3.01367	58.00
3.03033	58.00
3.04700	58.00
3.06367	58.00
3.08033	58.00
3.09700	58.00
3.11367	58.00
3.13033	58.00
3.14700	58.00
3.16367	58.00
3.18033	58.00
3.19700	58.00
3.21367	58.00
3.23033	58.00
3.24700	58.00
3.26367	58.00
3.28033	58.00
3.29700	58.00
3.31367	58.00
3.33033	58.00
3.34700	58.00
3.36367	58.00
3.38033	58.00
3.39700	58.00
3.41367	58.00
3.43033	58.00
3.44700	58.00
3.46367	58.00
3.48033	58.00
3.49700	58.00
3.51367	58.00
3.53033	58.00
3.54700	58.00
3.56367	58.00
3.58033	58.00
3.59700	58.00
3.61367	58.00
3.63033	58.00
3.64700	58.00
3.66367	58.00
3.68033	58.00
3.69700	58.00
3.71367	58.00
3.73033	58.00
3.74700	58.00
3.76367	58.00
3.78033	58.00
3.79700	58.00
3.81367	58.00
3.83033	58.00
3.84700	58.00
3.86367	58.00
3.88033	58.00
3.89700	58.00
3.91367	58.00
3.93033	58.00
3.94700	58.00
3.96367	58.00
3.98033	58.00
3.99700	58.00

[Status Trace (Carrier Gas Flow)]
Interval(msec)	1000
# of Points	240
Start Time(min)	0.014
End Time(min)	3.997
Intensity Units	
Intensity Multiplier	1
R.Time (min)	Intensity
0.01367	34.65
0.03033	34.54
0.04700	34.55
0.06367	34.53
0.08033	34.51
0.09700	34.52
0.11367	34.52
0.13033	34.51
0.14700	34.52
0.16367	34.52
0.18033	34.52
0.19700	34.52
0.21367	34.52
0.23033	34.52
0.24700	34.52
0.26367	34.52
0.28033	34.52
0.29700	34.52
0.31367	34.52
0.33033	34.52
0.34700	34.52
0.36367	34.52
0.38033	34.52
0.39700	34.52
0.41367	34.52
0.43033	34.52
0.44700	34.52
0.46367	34.52
0.48033	34.52
0.49700	34.52
0.51367	34.51
0.53033	34.52
0.54700	34.52
0.56367	34.51
0.58033	34.52
0.59700	34.52
0.61367	34.51
0.63033	34.52
0.64700	34.51
0.66367	34.52
0.68033	34.52
0.69700	34.52
0.71367	34.52
0.73033	34.52
0.74700	34.52
0.76367	34.52
0.78033	34.52
0.79700	34.52
0.81367	34.52
0.83033	34.52
0.84700	34.52
0.86367	34.52
0.88033	34.52
0.89700	34.52
0.91367	34.51
0.93033	34.52
0.94700	34.52
0.96367	34.52
0.98033	34.51
0.99700	34.52
1.01367	34.52
1.03033	34.52
1.04700	34.52
1.06367	34.52
1.08033	34.52
1.09700	34.51
1.11367	34.52
1.13033	34.52
1.14700	34.52
1.16367	34.52
1.18033	34.53
1.19700	34.52
1.21367	34.52
1.23033	34.52
1.24700	34.52
1.26367	34.52
1.28033	34.52
1.29700	34.52
1.31367	34.52
1.33033	34.52
1.34700	34.52
1.36367	34.52
1.38033	34.52
1.39700	34.51
1.41367	34.52
1.43033	34.52
1.44700	34.52
1.46367	34.52
1.48033	34.52
1.49700	34.52
1.51367	34.52
1.53033	34.52
1.54700	34.52
1.56367	34.52
1.58033	34.52
1.59700	34.52
1.61367	34.51
1.63033	34.52
1.64700	34.52
1.66367	34.51
1.68033	34.51
1.69700	34.52
1.71367	34.52
1.73033	34.51
1.74700	34.52
1.76367	34.52
1.78033	34.51
1.79700	34.52
1.81367	34.52
1.83033	34.52
1.84700	34.52
1.86367	34.51
1.88033	34.52
1.89700	34.52
1.91367	34.52
1.93033	34.52
1.94700	34.52
1.96367	34.52
1.98033	34.52
1.99700	34.53
2.01367	34.52
2.03033	34.52
2.04700	34.52
2.06367	34.51
2.08033	34.52
2.09700	34.52
2.11367	34.53
2.13033	34.52
2.14700	34.51
2.16367	34.52
2.18033	34.52
2.19700	34.52
2.21367	34.53
2.23033	34.52
2.24700	34.52
2.26367	34.52
2.28033	34.52
2.29700	34.51
2.31367	34.52
2.33033	34.52
2.34700	34.52
2.36367	34.52
2.38033	34.52
2.39700	34.51
2.41367	34.52
2.43033	34.52
2.44700	34.52
2.46367	34.51
2.48033	34.52
2.49700	34.52
2.51367	34.52
2.53033	34.52
2.54700	34.52
2.56367	34.51
2.58033	34.52
2.59700	34.51
2.61367	34.52
2.63033	34.52
2.64700	34.51
2.66367	34.52
2.68033	34.52
2.69700	34.52
2.71367	34.52
2.73033	34.53
2.74700	34.52
2.76367	34.51
2.78033	34.52
2.79700	34.52
2.81367	34.51
2.83033	34.53
2.84700	34.52
2.86367	34.51
2.88033	34.51
2.89700	34.52
2.91367	34.52
2.93033	34.51
2.94700	34.51
2.96367	34.53
2.98033	34.51
2.99700	34.52
3.01367	34.52
3.03033	34.52
3.04700	34.52
3.06367	34.52
3.08033	34.53
3.09700	34.52
3.11367	34.52
3.13033	34.52
3.14700	34.52
3.16367	34.51
3.18033	34.51
3.19700	34.52
3.21367	34.51
3.23033	34.51
3.24700	34.52
3.26367	34.52
3.28033	34.52
3.29700	34.52
3.31367	34.52
3.33033	34.52
3.34700	34.51
3.36367	34.52
3.38033	34.52
3.39700	34.52
3.41367	34.51
3.43033	34.52
3.44700	34.51
3.46367	34.52
3.48033	34.52
3.49700	34.52
3.51367	34.52
3.53033	34.52
3.54700	34.52
3.56367	34.52
3.58033	34.51
3.59700	34.52
3.61367	34.52
3.63033	34.51
3.64700	34.51
3.66367	34.52
3.68033	34.51
3.69700	34.51
3.71367	34.52
3.73033	34.52
3.74700	34.52
3.76367	34.52
3.78033	34.52
3.79700	34.52
3.81367	34.52
3.83033	34.52
3.84700	34.52
3.86367	34.52
3.88033	34.51
3.89700	34.52
3.91367	34.52
3.93033	34.52
3.94700	34.52
3.96367	34.53
3.98033	34.52
3.99700	34.52

[Status Trace (Column Flow)]
Interval(msec)	1000
# of Points	240
Start Time(min)	0.014
End Time(min)	3.997
Intensity Units	
Intensity Multiplier	1
R.Time (min)	Intensity
0.01367	5.48
0.03033	5.18
0.04700	5.48
0.06367	5.70
0.08033	5.58
0.09700	5.49
0.11367	5.49
0.13033	5.49
0.14700	5.49
0.16367	5.49
0.18033	5.49
0.19700	5.49
0.21367	5.49
0.23033	5.49
0.24700	5.49
0.26367	5.49
0.28033	5.49
0.29700	5.49
0.31367	5.49
0.33033	5.49
0.34700	5.49
0.36367	5.49
0.38033	5.49
0.39700	5.49
0.41367	5.49
0.43033	5.49
0.44700	5.49
0.46367	5.49
0.48033	5.49
0.49700	5.49
0.51367	5.49
0.53033	5.49
0.54700	5.49
0.56367	5.49
0.58033	5.49
0.59700	5.49
0.61367	5.49
0.63033	5.49
0.64700	5.49
0.66367	5.49
0.68033	5.49
0.69700	5.49
0.71367	5.49
0.73033	5.49
0.74700	5.49
0.76367	5.49
0.78033	5.49
0.79700	5.49
0.81367	5.49
0.83033	5.49
0.84700	5.49
0.86367	5.49
0.88033	5.49
0.89700	5.49
0.91367	5.49
0.93033	5.49
0.94700	5.49
0.96367	5.49
0.98033	5.49
0.99700	5.49
1.01367	5.49
1.03033	5.49
1.04700	5.49
1.06367	5.49
1.08033	5.49
1.09700	5.49
1.11367	5.49
1.13033	5.49
1.14700	5.49
1.16367	5.49
1.18033	5.49
1.19700	5.49
1.21367	5.49
1.23033	5.49
1.24700	5.49
1.26367	5.49
1.28033	5.49
1.29700	5.49
1.31367	5.49
1.33033	5.49
1.34700	5.49
1.36367	5.49
1.38033	5.49
1.39700	5.49
1.41367	5.49
1.43033	5.49
1.44700	5.49
1.46367	5.49
1.48033	5.49
1.49700	5.49
1.51367	5.49
1.53033	5.49
1.54700	5.49
1.56367	5.49
1.58033	5.49
1.59700	5.49
1.61367	5.49
1.63033	5.48
1.64700	5.48
1.66367	5.47
1.68033	5.46
1.69700	5.45
1.71367	5.44
1.73033	5.42
1.74700	5.41
1.76367	5.41
1.78033	5.39
1.79700	5.38
1.81367	5.38
1.83033	5.36
1.84700	5.35
1.86367	5.34
1.88033	5.33
1.89700	5.32
1.91367	5.32
1.93033	5.30
1.94700	5.30
1.96367	5.29
1.98033	5.28
1.99700	5.27
2.01367	5.26
2.03033	5.25
2.04700	5.24
2.06367	5.23
2.08033	5.22
2.09700	5.21
2.11367	5.20
2.13033	5.19
2.14700	5.18
2.16367	5.17
2.18033	5.16
2.19700	5.15
2.21367	5.14
2.23033	5.13
2.24700	5.12
2.26367	5.12
2.28033	5.11
2.29700	5.10
2.31367	5.09
2.33033	5.08
2.34700	5.07
2.36367	5.06
2.38033	5.06
2.39700	5.06
2.41367	5.06
2.43033	5.06
2.44700	5.06
2.46367	5.06
2.48033	5.06
2.49700	5.06
2.51367	5.06
2.53033	5.05
2.54700	5.06
2.56367	5.06
2.58033	5.06
2.59700	5.06
2.61367	5.06
2.63033	5.06
2.64700	5.05
2.66367	5.05
2.68033	5.05
2.69700	5.05
2.71367	5.05
2.73033	5.05
2.74700	5.05
2.76367	5.05
2.78033	5.05
2.79700	5.05
2.81367	5.05
2.83033	5.05
2.84700	5.05
2.86367	5.05
2.88033	5.05
2.89700	5.05
2.91367	5.05
2.93033	5.05
2.94700	5.05
2.96367	5.05
2.98033	5.05
2.99700	5.05
3.01367	5.05
3.03033	5.05
3.04700	5.05
3.06367	5.05
3.08033	5.05
3.09700	5.05
3.11367	5.05
3.13033	5.05
3.14700	5.05
3.16367	5.05
3.18033	5.05
3.19700	5.05
3.21367	5.05
3.23033	5.05
3.24700	5.05
3.26367	5.05
3.28033	5.05
3.29700	5.05
3.31367	5.05
3.33033	5.05
3.34700	5.05
3.36367	5.05
3.38033	5.05
3.39700	5.05
3.41367	5.05
3.43033	5.05
3.44700	5.05
3.46367	5.05
3.48033	5.05
3.49700	5.05
3.51367	5.05
3.53033	5.05
3.54700	5.05
3.56367	5.05
3.58033	5.05
3.59700	5.05
3.61367	5.05
3.63033	5.05
3.64700	5.05
3.66367	5.05
3.68033	5.05
3.69700	5.05
3.71367	5.05
3.73033	5.05
3.74700	5.05
3.76367	5.05
3.78033	5.05
3.79700	5.05
3.81367	5.05
3.83033	5.05
3.84700	5.05
3.86367	5.05
3.88033	5.05
3.89700	5.05
3.91367	5.05
3.93033	5.05
3.94700	5.05
3.96367	5.05
3.98033	5.05
3.99700	5.05

[Status Trace (Linear Velocity)]
Interval(msec)	1000
# of Points	240
Start Time(min)	0.014
End Time(min)	3.997
Intensity Units	
Intensity Multiplier	1
R.Time (min)	Intensity
0.01367	38.94
0.03033	37.23
0.04700	38.93
0.06367	40.16
0.08033	39.54
0.09700	39.00
0.11367	39.00
0.13033	39.01
0.14700	39.01
0.16367	39.01
0.18033	39.01
0.19700	39.01
0.21367	39.01
0.23033	39.01
0.24700	39.01
0.26367	39.01
0.28033	39.01
0.29700	39.01
0.31367	39.01
0.33033	39.01
0.34700	39.01
0.36367	39.01
0.38033	39.01
0.39700	39.01
0.41367	39.01
0.43033	39.01
0.44700	39.01
0.46367	39.01
0.48033	39.01
0.49700	39.01
0.51367	39.01
0.53033	39.01
0.54700	39.01
0.56367	39.01
0.58033	39.01
0.59700	39.01
0.61367	39.01
0.63033	39.01
0.64700	39.01
0.66367	39.01
0.68033	39.01
0.69700	39.01
0.71367	39.01
0.73033	39.01
0.74700	39.01
0.76367	39.01
0.78033	39.01
0.79700	39.01
0.81367	39.01
0.83033	39.01
0.84700	39.01
0.86367	39.01
0.88033	39.01
0.89700	39.01
0.91367	39.01
0.93033	39.01
0.94700	39.01
0.96367	39.01
0.98033	39.01
0.99700	39.01
1.01367	39.01
1.03033	39.01
1.04700	39.01
1.06367	39.01
1.08033	39.01
1.09700	39.01
1.11367	39.01
1.13033	39.01
1.14700	39.01
1.16367	39.01
1.18033	39.01
1.19700	39.01
1.21367	39.01
1.23033	39.01
1.24700	39.01
1.26367	39.01
1.28033	39.01
1.29700	39.01
1.31367	39.01
1.33033	39.01
1.34700	39.01
1.36367	39.01
1.38033	39.01
1.39700	39.01
1.41367	39.01
1.43033	39.01
1.44700	39.01
1.46367	39.01
1.48033	39.01
1.49700	39.01
1.51367	39.01
1.53033	39.01
1.54700	39.01
1.56367	39.01
1.58033	39.01
1.59700	39.01
1.61367	39.00
1.63033	38.99
1.64700	38.97
1.66367	38.95
1.68033	38.91
1.69700	38.87
1.71367	38.84
1.73033	38.81
1.74700	38.77
1.76367	38.75
1.78033	38.71
1.79700	38.68
1.81367	38.65
1.83033	38.62
1.84700	38.59
1.86367	38.56
1.88033	38.52
1.89700	38.49
1.91367	38.47
1.93033	38.43
1.94700	38.40
1.96367	38.38
1.98033	38.34
1.99700	38.31
2.01367	38.28
2.03033	38.25
2.04700	38.22
2.06367	38.20
2.08033	38.16
2.09700	38.13
2.11367	38.11
2.13033	38.08
2.14700	38.04
2.16367	38.02
2.18033	37.98
2.19700	37.95
2.21367	37.93
2.23033	37.89
2.24700	37.87
2.26367	37.84
2.28033	37.81
2.29700	37.78
2.31367	37.75
2.33033	37.72
2.34700	37.69
2.36367	37.67
2.38033	37.65
2.39700	37.64
2.41367	37.65
2.43033	37.65
2.44700	37.65
2.46367	37.65
2.48033	37.65
2.49700	37.65
2.51367	37.64
2.53033	37.64
2.54700	37.65
2.56367	37.64
2.58033	37.64
2.59700	37.64
2.61367	37.64
2.63033	37.64
2.64700	37.64
2.66367	37.64
2.68033	37.64
2.69700	37.64
2.71367	37.64
2.73033	37.64
2.74700	37.64
2.76367	37.64
2.78033	37.64
2.79700	37.64
2.81367	37.64
2.83033	37.64
2.84700	37.64
2.86367	37.63
2.88033	37.63
2.89700	37.63
2.91367	37.63
2.93033	37.63
2.94700	37.63
2.96367	37.63
2.98033	37.63
2.99700	37.63
3.01367	37.62
3.03033	37.62
3.04700	37.62
3.06367	37.62
3.08033	37.62
3.09700	37.62
3.11367	37.62
3.13033	37.62
3.14700	37.62
3.16367	37.62
3.18033	37.62
3.19700	37.62
3.21367	37.62
3.23033	37.62
3.24700	37.62
3.26367	37.62
3.28033	37.62
3.29700	37.62
3.31367	37.62
3.33033	37.62
3.34700	37.62
3.36367	37.62
3.38033	37.62
3.39700	37.62
3.41367	37.62
3.43033	37.62
3.44700	37.62
3.46367	37.62
3.48033	37.62
3.49700	37.62
3.51367	37.62
3.53033	37.62
3.54700	37.62
3.56367	37.62
3.58033	37.62
3.59700	37.62
3.61367	37.62
3.63033	37.62
3.64700	37.62
3.66367	37.62
3.68033	37.62
3.69700	37.62
3.71367	37.62
3.73033	37.62
3.74700	37.62
3.76367	37.62
3.78033	37.62
3.79700	37.62
3.81367	37.62
3.83033	37.62
3.84700	37.62
3.86367	37.62
3.88033	37.62
3.89700	37.62
3.91367	37.62
3.93033	37.62
3.94700	37.62
3.96367	37.62
3.98033	37.62
3.99700	37.62

