[Header]
Application Name	LabSolutions
Version	5.110
Data File Name	C:\Users\User\Desktop\Junior\UIC Prairie Sampling\2023\8.2.23\080223_067.gcd
Output Date	8/31/2023
Output Time	12:43:10 PM

[File Information]
Type	Data File
Generated	8/29/2023 11:20:25 PM
Generated by	System Administrator
Modified	8/29/2023 11:27:05 PM
Modified by	System Administrator

[Sample Information]
Operator Name	System Administrator
Acquired	8/29/2023 11:23:03 PM
Sample Type	0:Unknown
Level	0
Sample Name	067
Sample ID	067
ISTD Amount1	1
ISTD Amount2	1
ISTD Amount3	1
ISTD Amount4	1
ISTD Amount5	1
ISTD Amount6	1
ISTD Amount7	1
ISTD Amount8	1
ISTD Amount9	1
ISTD Amount10	1
ISTD Amount11	1
ISTD Amount12	1
ISTD Amount13	1
ISTD Amount14	1
ISTD Amount15	1
ISTD Amount16	1
ISTD Amount17	1
ISTD Amount18	1
ISTD Amount19	1
ISTD Amount20	1
ISTD Amount21	1
ISTD Amount22	1
ISTD Amount23	1
ISTD Amount24	1
ISTD Amount25	1
ISTD Amount26	1
ISTD Amount27	1
ISTD Amount28	1
ISTD Amount29	1
ISTD Amount30	1
ISTD Amount31	1
ISTD Amount32	1
Sample Amount	1
Dilution Factor	1
Vial#	66
Injection Volume	1
Injection Count	1
Bar Code	

[Original Files]
Data File	C:\Users\User\Desktop\Junior\UIC Prairie Sampling\8.2.23\080223_067.gcd
Method File	C:\LabSolutions\Data\GHG_4min_2022\ghg3_togas_w_acet_4 min_new_int.gcm
Batch File	C:\LabSolutions\Data\BATCH FILES\080223.gcb
Report Format File	c:\LabSolutions\System\DEFAULT.lsr

[File Description]


[Configuration]
Instrument Name	C0B7VH3-Instrument1
Instrument #	1
Line #	1
# of Detectors	3
Detector ID	DET#1	DET#2	DET#3
Detector Name	FID	PTCD	ECD
# of Channels	1	1	1

[Peak Table(Ch1)]
# of Peaks	4
Peak#	R.Time	I.Time	F.Time	Area	Height	A/H	Conc.	Mark	ID#	Name	k'	Plate #	Plate Ht.	Tailing	Resolution	Sep.Factor	Area Ratio	Height Ratio	Conc. %	Norm Conc.
1	0.313	0.148	0.420	1572	211	7.439	0.000	   			0.000	45	3332.052	0.925	0.000	0.000	0	0	0.000	0.000
2	1.472	1.424	1.531	7149	3512	2.036	0.000	   	1	CO	3.698	9837	15.249	1.306	9.414	0.000	0	0	0.000	0.000
3	1.564	1.531	1.626	4258	2143	1.987	20.760	 V 	2	CH4	3.990	11392	13.167	1.100	1.554	1.079	0	0	3.208	3.208
4	1.989	1.941	2.638	3250267	1559683	2.084	626.386	   	3	CO2	5.348	17189	8.727	1.267	7.131	1.340	0	0	96.792	96.792

[Peak Table(Ch2)]
# of Peaks	0

[Peak Table(Ch3)]
# of Peaks	6
Peak#	R.Time	I.Time	F.Time	Area	Height	A/H	Conc.	Mark	ID#	Name	k'	Plate #	Plate Ht.	Tailing	Resolution	Sep.Factor	Area Ratio	Height Ratio	Conc. %	Norm Conc.
1	2.458	2.436	2.506	801	293	2.728	0.000	   			0.000	11690	12.832	0.000	0.000	0.000	0	0	0.000	0.000
2	2.524	2.506	2.568	422	150	2.803	0.000	 V 			0.027	2807	53.428	0.000	0.469	0.000	0	0	0.000	0.000
3	2.620	2.568	2.700	510	120	4.251	0.000	 V 			0.066	5705	26.293	0.000	0.579	2.444	0	0	0.000	0.000
4	2.891	2.836	2.946	12052	3781	3.188	0.178	   	1	N2O	0.176	15686	9.563	0.000	2.349	2.682	0	0	100.000	100.000
5	2.979	2.946	3.155	4334	642	6.753	0.000	 V 	2	SF6	0.212	1335	112.339	0.000	0.421	1.203	0	0	0.000	0.000
6	3.412	3.298	3.635	1453	188	7.743	0.000	   			0.388	4409	34.020	1.255	1.628	1.831	0	0	0.000	0.000

[Compound Results(Ch1)]
# of IDs	6
ID#	Name	R.Time	Area	Height	Conc.	Curve	3rd	2nd	1st	Constant	Area Ratio	Height Ratio	Conc. %	Norm Conc.
1	CO	1.472	7149	3512	0.000	Linear	0.000000e+00	0.000000e+00	0.000000e+00	0.000000e+00	0	0	0.000	0.000
2	CH4	1.564	4258	2143	20.760	Linear	0.000000e+00	0.000000e+00	2.051179e+002	0.000000e+00	0	0	3.208	3.208
3	CO2	1.989	3250267	1559683	626.386	Linear	0.000000e+00	0.000000e+00	5.188919e+003	0.000000e+00	0	0	96.792	96.792
4	Ethylene	0.000	0	0	0.000	Linear	0.000000e+00	0.000000e+00	0.000000e+00	0.000000e+00	0	0	0.000	0.000
5	Acetylene	0.000	0	0	0.000	Linear	0.000000e+00	0.000000e+00	0.000000e+00	0.000000e+00	0	0	0.000	0.000
6	Ethane	0.000	0	0	0.000	Linear	0.000000e+00	0.000000e+00	0.000000e+00	0.000000e+00	0	0	0.000	0.000

[Compound Results(Ch2)]
# of IDs	5
ID#	Name	R.Time	Area	Height	Conc.	Curve	3rd	2nd	1st	Constant	Area Ratio	Height Ratio	Conc. %	Norm Conc.
1	Hydrogen	0.000	0	0	0.000	Linear	0.000000e+00	0.000000e+00	0.000000e+00	0.000000e+00	0	0	0.000	0.000
2	Oxygen	0.000	0	0	0.000	Linear	0.000000e+00	0.000000e+00	0.000000e+00	0.000000e+00	0	0	0.000	0.000
3	Nitrogen	0.000	0	0	0.000	Linear	0.000000e+00	0.000000e+00	0.000000e+00	0.000000e+00	0	0	0.000	0.000
4	Methane	0.000	0	0	0.000	Linear	0.000000e+00	0.000000e+00	0.000000e+00	0.000000e+00	0	0	0.000	0.000
5	Carbon Monoxide	0.000	0	0	0.000	Linear	0.000000e+00	0.000000e+00	0.000000e+00	0.000000e+00	0	0	0.000	0.000

[Compound Results(Ch3)]
# of IDs	2
ID#	Name	R.Time	Area	Height	Conc.	Curve	3rd	2nd	1st	Constant	Area Ratio	Height Ratio	Conc. %	Norm Conc.
1	N2O	2.891	12052	3781	0.178	Linear	0.000000e+00	0.000000e+00	6.759880e+004	0.000000e+00	0	0	100.000	100.000
2	SF6	2.979	4334	642	0.000	Linear	0.000000e+00	0.000000e+00	0.000000e+00	0.000000e+00	0	0	0.000	0.000

[Group Results(Ch1)]
# of Groups	0

[Group Results(Ch2)]
# of Groups	0

[Group Results(Ch3)]
# of Groups	0

[Chromatogram (Ch1)]
Interval(msec)	220
# of Points	1091
Start Time(min)	0.002
End Time(min)	3.998
R.Time (min)	Intensity
0.00167	-22
0.00533	-25
0.00900	-29
0.01267	-32
0.01633	-34
0.02000	-32
0.02367	-28
0.02733	-24
0.03100	-21
0.03467	-20
0.03833	-21
0.04200	-22
0.04567	-25
0.04933	-29
0.05300	-29
0.05667	-28
0.06033	-25
0.06400	-23
0.06767	-23
0.07133	-22
0.07500	-19
0.07867	-17
0.08233	-16
0.08600	-16
0.08967	-18
0.09333	-19
0.09700	-21
0.10067	-21
0.10433	-20
0.10800	-20
0.11167	-20
0.11533	-23
0.11900	-28
0.12267	-32
0.12633	-35
0.13000	-35
0.13367	-32
0.13733	-28
0.14100	-22
0.14467	-16
0.14833	-13
0.15200	-12
0.15567	-11
0.15933	-8
0.16300	-5
0.16667	-1
0.17033	3
0.17400	4
0.17767	1
0.18133	-0
0.18500	-3
0.18867	-3
0.19233	-1
0.19600	1
0.19967	2
0.20333	8
0.20700	17
0.21067	28
0.21433	41
0.21800	54
0.22167	67
0.22533	75
0.22900	79
0.23267	82
0.23633	86
0.24000	93
0.24367	97
0.24733	101
0.25100	106
0.25467	114
0.25833	126
0.26200	139
0.26567	152
0.26933	163
0.27300	174
0.27667	183
0.28033	190
0.28400	193
0.28767	197
0.29133	202
0.29500	207
0.29867	209
0.30233	208
0.30600	206
0.30967	207
0.31333	211
0.31700	211
0.32067	206
0.32433	198
0.32800	190
0.33167	183
0.33533	174
0.33900	164
0.34267	157
0.34633	152
0.35000	145
0.35367	137
0.35733	129
0.36100	123
0.36467	117
0.36833	105
0.37200	91
0.37567	76
0.37933	63
0.38300	55
0.38667	49
0.39033	45
0.39400	41
0.39767	39
0.40133	36
0.40500	30
0.40867	25
0.41233	18
0.41600	12
0.41967	8
0.42333	5
0.42700	-1
0.43067	-4
0.43433	-6
0.43800	-10
0.44167	-15
0.44533	-17
0.44900	-15
0.45267	-15
0.45633	-16
0.46000	-19
0.46367	-25
0.46733	-30
0.47100	-31
0.47467	-30
0.47833	-27
0.48200	-25
0.48567	-23
0.48933	-23
0.49300	-24
0.49667	-25
0.50033	-27
0.50400	-25
0.50767	-20
0.51133	-15
0.51500	-11
0.51867	-7
0.52233	-8
0.52600	-16
0.52967	-27
0.53333	-38
0.53700	-45
0.54067	-46
0.54433	-44
0.54800	-40
0.55167	-39
0.55533	-40
0.55900	-41
0.56267	-40
0.56633	-41
0.57000	-44
0.57367	-46
0.57733	-43
0.58100	-37
0.58467	-27
0.58833	-21
0.59200	-19
0.59567	-17
0.59933	-17
0.60300	-19
0.60667	-23
0.61033	-24
0.61400	-25
0.61767	-25
0.62133	-23
0.62500	-21
0.62867	-21
0.63233	-26
0.63600	-31
0.63967	-35
0.64333	-37
0.64700	-35
0.65067	-32
0.65433	-31
0.65800	-31
0.66167	-33
0.66533	-41
0.66900	-50
0.67267	-54
0.67633	-51
0.68000	-46
0.68367	-41
0.68733	-39
0.69100	-41
0.69467	-44
0.69833	-49
0.70200	-53
0.70567	-54
0.70933	-52
0.71300	-49
0.71667	-43
0.72033	-36
0.72400	-31
0.72767	-31
0.73133	-33
0.73500	-34
0.73867	-33
0.74233	-31
0.74600	-32
0.74967	-32
0.75333	-31
0.75700	-35
0.76067	-41
0.76433	-44
0.76800	-41
0.77167	-34
0.77533	-25
0.77900	-16
0.78267	-8
0.78633	-3
0.79000	0
0.79367	-1
0.79733	-7
0.80100	-12
0.80467	-16
0.80833	-17
0.81200	-19
0.81567	-26
0.81933	-33
0.82300	-38
0.82667	-41
0.83033	-45
0.83400	-49
0.83767	-53
0.84133	-53
0.84500	-50
0.84867	-47
0.85233	-45
0.85600	-42
0.85967	-37
0.86333	-32
0.86700	-29
0.87067	-29
0.87433	-32
0.87800	-35
0.88167	-39
0.88533	-44
0.88900	-48
0.89267	-49
0.89633	-48
0.90000	-45
0.90367	-42
0.90733	-37
0.91100	-34
0.91467	-33
0.91833	-34
0.92200	-38
0.92567	-41
0.92933	-43
0.93300	-44
0.93667	-43
0.94033	-39
0.94400	-38
0.94767	-39
0.95133	-43
0.95500	-45
0.95867	-43
0.96233	-41
0.96600	-40
0.96967	-40
0.97333	-40
0.97700	-40
0.98067	-41
0.98433	-45
0.98800	-49
0.99167	-53
0.99533	-54
0.99900	-52
1.00267	-46
1.00633	-43
1.01000	-44
1.01367	-46
1.01733	-49
1.02100	-51
1.02467	-52
1.02833	-51
1.03200	-48
1.03567	-43
1.03933	-37
1.04300	-31
1.04667	-30
1.05033	-31
1.05400	-29
1.05767	-29
1.06133	-29
1.06500	-30
1.06867	-33
1.07233	-40
1.07600	-47
1.07967	-52
1.08333	-53
1.08700	-53
1.09067	-52
1.09433	-50
1.09800	-48
1.10167	-49
1.10533	-54
1.10900	-60
1.11267	-65
1.11633	-68
1.12000	-70
1.12367	-69
1.12733	-65
1.13100	-60
1.13467	-56
1.13833	-56
1.14200	-56
1.14567	-54
1.14933	-52
1.15300	-48
1.15667	-47
1.16033	-48
1.16400	-48
1.16767	-47
1.17133	-46
1.17500	-47
1.17867	-53
1.18233	-59
1.18600	-62
1.18967	-63
1.19333	-65
1.19700	-67
1.20067	-67
1.20433	-63
1.20800	-58
1.21167	-53
1.21533	-48
1.21900	-42
1.22267	-38
1.22633	-37
1.23000	-42
1.23367	-47
1.23733	-52
1.24100	-56
1.24467	-64
1.24833	-68
1.25200	-69
1.25567	-68
1.25933	-67
1.26300	-68
1.26667	-72
1.27033	-80
1.27400	-87
1.27767	-89
1.28133	-86
1.28500	-79
1.28867	-74
1.29233	-72
1.29600	-71
1.29967	-64
1.30333	-58
1.30700	-54
1.31067	-52
1.31433	-52
1.31800	-51
1.32167	-51
1.32533	-52
1.32900	-55
1.33267	-60
1.33633	-68
1.34000	-77
1.34367	-81
1.34733	-80
1.35100	-76
1.35467	-67
1.35833	-56
1.36200	-50
1.36567	-50
1.36933	-53
1.37300	-59
1.37667	-62
1.38033	-63
1.38400	-65
1.38767	-66
1.39133	-69
1.39500	-75
1.39867	-79
1.40233	-81
1.40600	-82
1.40967	-85
1.41333	-91
1.41700	-96
1.42067	-97
1.42433	-93
1.42800	-82
1.43167	-69
1.43533	-54
1.43900	-34
1.44267	-7
1.44633	118
1.45000	489
1.45367	1106
1.45733	1812
1.46100	2460
1.46467	2977
1.46833	3315
1.47200	3423
1.47567	3273
1.47933	2894
1.48300	2377
1.48667	1834
1.49033	1348
1.49400	952
1.49767	651
1.50133	434
1.50500	287
1.50867	189
1.51233	122
1.51600	78
1.51967	49
1.52333	27
1.52700	11
1.53067	5
1.53433	35
1.53800	151
1.54167	403
1.54533	778
1.54900	1197
1.55267	1573
1.55633	1862
1.56000	2034
1.56367	2062
1.56733	1925
1.57100	1649
1.57467	1303
1.57833	960
1.58200	667
1.58567	438
1.58933	273
1.59300	161
1.59667	84
1.60033	32
1.60400	-4
1.60767	-26
1.61133	-40
1.61500	-51
1.61867	-61
1.62233	-70
1.62600	-75
1.62967	-75
1.63333	-77
1.63700	-82
1.64067	-86
1.64433	-87
1.64800	-83
1.65167	-78
1.65533	-75
1.65900	-75
1.66267	-76
1.66633	-80
1.67000	-82
1.67367	-84
1.67733	-87
1.68100	-88
1.68467	-87
1.68833	-86
1.69200	-89
1.69567	-93
1.69933	-97
1.70300	-99
1.70667	-100
1.71033	-99
1.71400	-96
1.71767	-92
1.72133	-89
1.72500	-87
1.72867	-84
1.73233	-81
1.73600	-80
1.73967	-83
1.74333	-86
1.74700	-88
1.75067	-89
1.75433	-90
1.75800	-93
1.76167	-93
1.76533	-88
1.76900	-84
1.77267	-84
1.77633	-87
1.78000	-89
1.78367	-88
1.78733	-84
1.79100	-79
1.79467	-75
1.79833	-74
1.80200	-75
1.80567	-76
1.80933	-78
1.81300	-81
1.81667	-84
1.82033	-88
1.82400	-91
1.82767	-93
1.83133	-94
1.83500	-96
1.83867	-98
1.84233	-100
1.84600	-100
1.84967	-99
1.85333	-99
1.85700	-97
1.86067	-97
1.86433	-102
1.86800	-112
1.87167	-117
1.87533	-113
1.87900	-106
1.88267	-99
1.88633	-97
1.89000	-92
1.89367	-86
1.89733	-81
1.90100	-78
1.90467	-75
1.90833	-73
1.91200	-73
1.91567	-77
1.91933	-83
1.92300	-85
1.92667	-86
1.93033	-89
1.93400	-92
1.93767	-92
1.94133	-90
1.94500	-65
1.94867	161
1.95233	1638
1.95600	8799
1.95967	34766
1.96333	106332
1.96700	256155
1.97067	495961
1.97433	796693
1.97800	1101050
1.98167	1352355
1.98533	1511537
1.98900	1559627
1.99267	1496829
1.99633	1342933
2.00000	1131766
2.00367	901634
2.00733	684807
2.01100	500944
2.01467	356789
2.01833	250081
2.02200	174241
2.02567	121790
2.02933	86122
2.03300	62067
2.03667	45859
2.04033	34877
2.04400	27355
2.04767	22116
2.05133	18388
2.05500	15673
2.05867	13643
2.06233	12085
2.06600	10856
2.06967	9862
2.07333	9039
2.07700	8349
2.08067	7763
2.08433	7256
2.08800	6813
2.09167	6421
2.09533	6070
2.09900	5754
2.10267	5469
2.10633	5210
2.11000	4973
2.11367	4755
2.11733	4553
2.12100	4365
2.12467	4188
2.12833	4023
2.13200	3872
2.13567	3732
2.13933	3603
2.14300	3481
2.14667	3364
2.15033	3250
2.15400	3138
2.15767	3030
2.16133	2931
2.16500	2839
2.16867	2753
2.17233	2673
2.17600	2598
2.17967	2529
2.18333	2463
2.18700	2402
2.19067	2340
2.19433	2281
2.19800	2224
2.20167	2168
2.20533	2112
2.20900	2058
2.21267	2006
2.21633	1956
2.22000	1907
2.22367	1860
2.22733	1813
2.23100	1764
2.23467	1715
2.23833	1671
2.24200	1632
2.24567	1598
2.24933	1569
2.25300	1542
2.25667	1515
2.26033	1491
2.26400	1468
2.26767	1442
2.27133	1413
2.27500	1385
2.27867	1358
2.28233	1331
2.28600	1306
2.28967	1281
2.29333	1256
2.29700	1234
2.30067	1213
2.30433	1190
2.30800	1166
2.31167	1143
2.31533	1122
2.31900	1105
2.32267	1090
2.32633	1074
2.33000	1057
2.33367	1040
2.33733	1022
2.34100	1006
2.34467	990
2.34833	974
2.35200	959
2.35567	946
2.35933	933
2.36300	920
2.36667	904
2.37033	887
2.37400	872
2.37767	861
2.38133	850
2.38500	836
2.38867	819
2.39233	803
2.39600	791
2.39967	785
2.40333	781
2.40700	777
2.41067	772
2.41433	767
2.41800	762
2.42167	756
2.42533	747
2.42900	739
2.43267	729
2.43633	719
2.44000	707
2.44367	695
2.44733	685
2.45100	676
2.45467	667
2.45833	655
2.46200	644
2.46567	635
2.46933	633
2.47300	633
2.47667	629
2.48033	621
2.48400	614
2.48767	606
2.49133	598
2.49500	590
2.49867	583
2.50233	578
2.50600	576
2.50967	574
2.51333	570
2.51700	565
2.52067	561
2.52433	559
2.52800	554
2.53167	546
2.53533	536
2.53900	527
2.54267	520
2.54633	513
2.55000	508
2.55367	503
2.55733	498
2.56100	492
2.56467	485
2.56833	479
2.57200	473
2.57567	467
2.57933	461
2.58300	454
2.58667	450
2.59033	447
2.59400	446
2.59767	446
2.60133	443
2.60500	438
2.60867	433
2.61233	430
2.61600	427
2.61967	423
2.62333	418
2.62700	413
2.63067	409
2.63433	407
2.63800	407
2.64167	408
2.64533	410
2.64900	412
2.65267	412
2.65633	410
2.66000	405
2.66367	398
2.66733	389
2.67100	380
2.67467	371
2.67833	364
2.68200	360
2.68567	357
2.68933	356
2.69300	354
2.69667	353
2.70033	356
2.70400	359
2.70767	361
2.71133	360
2.71500	356
2.71867	350
2.72233	340
2.72600	332
2.72967	323
2.73333	312
2.73700	304
2.74067	301
2.74433	302
2.74800	303
2.75167	303
2.75533	306
2.75900	310
2.76267	312
2.76633	313
2.77000	315
2.77367	319
2.77733	320
2.78100	317
2.78467	313
2.78833	310
2.79200	308
2.79567	306
2.79933	304
2.80300	300
2.80667	295
2.81033	292
2.81400	290
2.81767	287
2.82133	282
2.82500	277
2.82867	275
2.83233	273
2.83600	273
2.83967	273
2.84333	274
2.84700	270
2.85067	263
2.85433	254
2.85800	248
2.86167	250
2.86533	254
2.86900	256
2.87267	257
2.87633	258
2.88000	258
2.88367	256
2.88733	254
2.89100	252
2.89467	252
2.89833	253
2.90200	256
2.90567	255
2.90933	253
2.91300	252
2.91667	251
2.92033	250
2.92400	245
2.92767	238
2.93133	231
2.93500	225
2.93867	221
2.94233	219
2.94600	221
2.94967	223
2.95333	226
2.95700	224
2.96067	220
2.96433	219
2.96800	222
2.97167	229
2.97533	236
2.97900	240
2.98267	243
2.98633	245
2.99000	243
2.99367	241
2.99733	238
3.00100	236
3.00467	233
3.00833	232
3.01200	228
3.01567	224
3.01933	219
3.02300	214
3.02667	206
3.03033	197
3.03400	191
3.03767	190
3.04133	193
3.04500	196
3.04867	200
3.05233	206
3.05600	210
3.05967	212
3.06333	212
3.06700	209
3.07067	201
3.07433	195
3.07800	194
3.08167	198
3.08533	198
3.08900	196
3.09267	192
3.09633	187
3.10000	182
3.10367	178
3.10733	174
3.11100	169
3.11467	166
3.11833	163
3.12200	162
3.12567	164
3.12933	167
3.13300	171
3.13667	172
3.14033	173
3.14400	175
3.14767	177
3.15133	174
3.15500	169
3.15867	166
3.16233	163
3.16600	162
3.16967	161
3.17333	158
3.17700	153
3.18067	148
3.18433	144
3.18800	141
3.19167	140
3.19533	140
3.19900	141
3.20267	143
3.20633	143
3.21000	144
3.21367	146
3.21733	149
3.22100	153
3.22467	158
3.22833	161
3.23200	158
3.23567	152
3.23933	144
3.24300	139
3.24667	138
3.25033	139
3.25400	138
3.25767	139
3.26133	146
3.26500	153
3.26867	156
3.27233	154
3.27600	153
3.27967	156
3.28333	158
3.28700	151
3.29067	139
3.29433	127
3.29800	120
3.30167	118
3.30533	115
3.30900	116
3.31267	120
3.31633	124
3.32000	126
3.32367	123
3.32733	117
3.33100	110
3.33467	106
3.33833	103
3.34200	99
3.34567	97
3.34933	99
3.35300	104
3.35667	107
3.36033	109
3.36400	112
3.36767	113
3.37133	113
3.37500	111
3.37867	109
3.38233	108
3.38600	109
3.38967	110
3.39333	108
3.39700	105
3.40067	103
3.40433	104
3.40800	105
3.41167	106
3.41533	109
3.41900	113
3.42267	116
3.42633	118
3.43000	115
3.43367	108
3.43733	99
3.44100	92
3.44467	88
3.44833	85
3.45200	84
3.45567	87
3.45933	93
3.46300	97
3.46667	100
3.47033	103
3.47400	103
3.47767	101
3.48133	101
3.48500	101
3.48867	103
3.49233	105
3.49600	105
3.49967	103
3.50333	101
3.50700	100
3.51067	101
3.51433	103
3.51800	103
3.52167	97
3.52533	87
3.52900	83
3.53267	85
3.53633	87
3.54000	86
3.54367	84
3.54733	86
3.55100	87
3.55467	84
3.55833	79
3.56200	75
3.56567	70
3.56933	69
3.57300	72
3.57667	74
3.58033	74
3.58400	74
3.58767	71
3.59133	69
3.59500	68
3.59867	69
3.60233	71
3.60600	73
3.60967	74
3.61333	73
3.61700	71
3.62067	70
3.62433	70
3.62800	70
3.63167	69
3.63533	69
3.63900	69
3.64267	68
3.64633	69
3.65000	68
3.65367	67
3.65733	67
3.66100	67
3.66467	68
3.66833	71
3.67200	72
3.67567	69
3.67933	64
3.68300	61
3.68667	58
3.69033	53
3.69400	49
3.69767	45
3.70133	44
3.70500	46
3.70867	45
3.71233	46
3.71600	48
3.71967	50
3.72333	53
3.72700	57
3.73067	60
3.73433	61
3.73800	60
3.74167	60
3.74533	61
3.74900	63
3.75267	66
3.75633	67
3.76000	68
3.76367	66
3.76733	65
3.77100	65
3.77467	67
3.77833	65
3.78200	62
3.78567	57
3.78933	51
3.79300	45
3.79667	43
3.80033	45
3.80400	50
3.80767	55
3.81133	56
3.81500	54
3.81867	50
3.82233	48
3.82600	47
3.82967	45
3.83333	42
3.83700	40
3.84067	41
3.84433	46
3.84800	50
3.85167	51
3.85533	49
3.85900	44
3.86267	41
3.86633	41
3.87000	43
3.87367	47
3.87733	51
3.88100	51
3.88467	47
3.88833	41
3.89200	37
3.89567	34
3.89933	35
3.90300	40
3.90667	42
3.91033	42
3.91400	44
3.91767	47
3.92133	52
3.92500	55
3.92867	54
3.93233	46
3.93600	41
3.93967	38
3.94333	32
3.94700	27
3.95067	25
3.95433	27
3.95800	28
3.96167	26
3.96533	23
3.96900	20
3.97267	19
3.97633	20
3.98000	22
3.98367	21
3.98733	19
3.99100	18
3.99467	19
3.99833	17

[Chromatogram (Ch2)]
Interval(msec)	220
# of Points	1091
Start Time(min)	0.002
End Time(min)	3.998
R.Time (min)	Intensity
0.00167	0
0.00533	0
0.00900	0
0.01267	1
0.01633	1
0.02000	1
0.02367	1
0.02733	1
0.03100	1
0.03467	1
0.03833	1
0.04200	1
0.04567	0
0.04933	0
0.05300	0
0.05667	0
0.06033	0
0.06400	1
0.06767	1
0.07133	1
0.07500	1
0.07867	1
0.08233	1
0.08600	1
0.08967	1
0.09333	2
0.09700	2
0.10067	2
0.10433	3
0.10800	3
0.11167	3
0.11533	3
0.11900	3
0.12267	3
0.12633	3
0.13000	3
0.13367	3
0.13733	3
0.14100	2
0.14467	2
0.14833	2
0.15200	1
0.15567	1
0.15933	1
0.16300	0
0.16667	0
0.17033	1
0.17400	1
0.17767	1
0.18133	1
0.18500	1
0.18867	1
0.19233	1
0.19600	1
0.19967	1
0.20333	1
0.20700	1
0.21067	0
0.21433	0
0.21800	1
0.22167	0
0.22533	0
0.22900	1
0.23267	0
0.23633	0
0.24000	0
0.24367	0
0.24733	0
0.25100	0
0.25467	0
0.25833	0
0.26200	1
0.26567	1
0.26933	1
0.27300	1
0.27667	1
0.28033	1
0.28400	1
0.28767	0
0.29133	0
0.29500	0
0.29867	0
0.30233	0
0.30600	-0
0.30967	-0
0.31333	-0
0.31700	-0
0.32067	-0
0.32433	-0
0.32800	-0
0.33167	-0
0.33533	-0
0.33900	-0
0.34267	-0
0.34633	-0
0.35000	0
0.35367	0
0.35733	0
0.36100	0
0.36467	0
0.36833	0
0.37200	0
0.37567	-0
0.37933	-0
0.38300	-1
0.38667	-1
0.39033	-1
0.39400	-0
0.39767	-0
0.40133	-0
0.40500	0
0.40867	1
0.41233	1
0.41600	1
0.41967	1
0.42333	1
0.42700	0
0.43067	0
0.43433	-0
0.43800	-0
0.44167	-1
0.44533	-1
0.44900	-1
0.45267	-0
0.45633	-0
0.46000	-0
0.46367	-0
0.46733	-1
0.47100	-1
0.47467	-1
0.47833	-1
0.48200	-1
0.48567	-1
0.48933	-1
0.49300	-1
0.49667	-1
0.50033	-1
0.50400	-1
0.50767	-1
0.51133	-1
0.51500	-1
0.51867	-1
0.52233	-1
0.52600	-1
0.52967	-1
0.53333	-1
0.53700	-1
0.54067	-1
0.54433	-1
0.54800	-1
0.55167	-1
0.55533	-1
0.55900	-1
0.56267	-1
0.56633	-1
0.57000	-1
0.57367	-2
0.57733	-2
0.58100	-2
0.58467	-2
0.58833	-2
0.59200	-2
0.59567	-2
0.59933	-2
0.60300	-1
0.60667	-1
0.61033	-1
0.61400	-1
0.61767	-1
0.62133	-1
0.62500	-1
0.62867	-1
0.63233	-1
0.63600	-1
0.63967	-1
0.64333	-0
0.64700	-0
0.65067	-0
0.65433	-1
0.65800	-1
0.66167	-1
0.66533	-1
0.66900	-1
0.67267	-1
0.67633	-1
0.68000	-1
0.68367	-1
0.68733	-1
0.69100	-1
0.69467	-1
0.69833	-1
0.70200	-1
0.70567	-1
0.70933	-1
0.71300	-2
0.71667	-2
0.72033	-2
0.72400	-2
0.72767	-2
0.73133	-2
0.73500	-2
0.73867	-2
0.74233	-2
0.74600	-2
0.74967	-2
0.75333	-2
0.75700	-2
0.76067	-2
0.76433	-2
0.76800	-2
0.77167	-2
0.77533	-2
0.77900	-2
0.78267	-2
0.78633	-2
0.79000	-2
0.79367	-2
0.79733	-2
0.80100	-2
0.80467	-2
0.80833	-2
0.81200	-1
0.81567	-1
0.81933	-2
0.82300	-2
0.82667	-2
0.83033	-2
0.83400	-3
0.83767	-3
0.84133	-3
0.84500	-4
0.84867	-4
0.85233	-4
0.85600	-3
0.85967	-3
0.86333	-3
0.86700	-3
0.87067	-3
0.87433	-2
0.87800	-2
0.88167	-2
0.88533	-2
0.88900	-1
0.89267	-1
0.89633	-1
0.90000	-1
0.90367	-1
0.90733	-1
0.91100	-1
0.91467	-1
0.91833	-2
0.92200	-2
0.92567	-2
0.92933	-2
0.93300	-1
0.93667	-1
0.94033	-1
0.94400	-1
0.94767	-1
0.95133	-1
0.95500	-1
0.95867	-1
0.96233	-1
0.96600	-1
0.96967	-1
0.97333	-1
0.97700	-1
0.98067	-1
0.98433	-1
0.98800	-1
0.99167	-1
0.99533	-1
0.99900	-2
1.00267	-2
1.00633	-2
1.01000	-2
1.01367	-2
1.01733	-2
1.02100	-2
1.02467	-2
1.02833	-2
1.03200	-2
1.03567	-2
1.03933	-2
1.04300	-2
1.04667	-2
1.05033	-2
1.05400	-2
1.05767	-2
1.06133	-2
1.06500	-2
1.06867	-2
1.07233	-2
1.07600	-2
1.07967	-2
1.08333	-2
1.08700	-2
1.09067	-2
1.09433	-2
1.09800	-2
1.10167	-2
1.10533	-2
1.10900	-2
1.11267	-2
1.11633	-1
1.12000	-1
1.12367	-1
1.12733	-1
1.13100	-1
1.13467	-1
1.13833	-1
1.14200	-1
1.14567	-1
1.14933	-1
1.15300	-1
1.15667	-1
1.16033	-1
1.16400	-1
1.16767	-1
1.17133	-1
1.17500	-1
1.17867	-1
1.18233	-2
1.18600	-2
1.18967	-2
1.19333	-2
1.19700	-2
1.20067	-2
1.20433	-2
1.20800	-2
1.21167	-3
1.21533	-3
1.21900	-3
1.22267	-3
1.22633	-3
1.23000	-3
1.23367	-2
1.23733	-2
1.24100	-3
1.24467	-3
1.24833	-3
1.25200	-3
1.25567	-2
1.25933	-2
1.26300	-2
1.26667	-2
1.27033	-2
1.27400	-2
1.27767	-2
1.28133	-2
1.28500	-2
1.28867	-2
1.29233	-2
1.29600	-2
1.29967	-2
1.30333	-2
1.30700	-3
1.31067	-3
1.31433	-3
1.31800	-3
1.32167	-3
1.32533	-3
1.32900	-3
1.33267	-3
1.33633	-3
1.34000	-3
1.34367	-3
1.34733	-3
1.35100	-3
1.35467	-3
1.35833	-3
1.36200	-3
1.36567	-3
1.36933	-3
1.37300	-3
1.37667	-3
1.38033	-3
1.38400	-2
1.38767	-2
1.39133	-2
1.39500	-2
1.39867	-2
1.40233	-2
1.40600	-2
1.40967	-2
1.41333	-2
1.41700	-3
1.42067	-3
1.42433	-3
1.42800	-3
1.43167	-3
1.43533	-3
1.43900	-3
1.44267	-3
1.44633	-3
1.45000	-3
1.45367	-3
1.45733	-3
1.46100	-3
1.46467	-3
1.46833	-3
1.47200	-3
1.47567	-3
1.47933	-3
1.48300	-3
1.48667	-3
1.49033	-3
1.49400	-3
1.49767	-3
1.50133	-3
1.50500	-3
1.50867	-3
1.51233	-3
1.51600	-3
1.51967	-3
1.52333	-2
1.52700	-2
1.53067	-2
1.53433	-2
1.53800	-2
1.54167	-2
1.54533	-2
1.54900	-2
1.55267	-2
1.55633	-2
1.56000	-2
1.56367	-2
1.56733	-2
1.57100	-3
1.57467	-3
1.57833	-3
1.58200	-3
1.58567	-3
1.58933	-3
1.59300	-4
1.59667	-4
1.60033	-5
1.60400	-6
1.60767	-7
1.61133	-9
1.61500	-11
1.61867	-13
1.62233	-16
1.62600	-19
1.62967	-22
1.63333	-25
1.63700	-28
1.64067	-32
1.64433	-35
1.64800	-38
1.65167	-41
1.65533	-45
1.65900	-48
1.66267	-51
1.66633	-54
1.67000	-58
1.67367	-63
1.67733	-67
1.68100	-72
1.68467	-76
1.68833	-80
1.69200	-83
1.69567	-86
1.69933	-88
1.70300	-89
1.70667	-90
1.71033	-92
1.71400	-93
1.71767	-94
1.72133	-95
1.72500	-95
1.72867	-96
1.73233	-96
1.73600	-96
1.73967	-96
1.74333	-97
1.74700	-97
1.75067	-98
1.75433	-98
1.75800	-99
1.76167	-99
1.76533	-99
1.76900	-99
1.77267	-98
1.77633	-98
1.78000	-97
1.78367	-96
1.78733	-95
1.79100	-95
1.79467	-94
1.79833	-95
1.80200	-95
1.80567	-96
1.80933	-97
1.81300	-98
1.81667	-98
1.82033	-99
1.82400	-99
1.82767	-99
1.83133	-100
1.83500	-99
1.83867	-99
1.84233	-99
1.84600	-99
1.84967	-99
1.85333	-99
1.85700	-99
1.86067	-99
1.86433	-98
1.86800	-98
1.87167	-98
1.87533	-97
1.87900	-97
1.88267	-97
1.88633	-97
1.89000	-97
1.89367	-98
1.89733	-99
1.90100	-99
1.90467	-100
1.90833	-100
1.91200	-99
1.91567	-99
1.91933	-98
1.92300	-98
1.92667	-98
1.93033	-98
1.93400	-97
1.93767	-97
1.94133	-97
1.94500	-97
1.94867	-96
1.95233	-95
1.95600	-95
1.95967	-94
1.96333	-94
1.96700	-93
1.97067	-93
1.97433	-93
1.97800	-93
1.98167	-92
1.98533	-92
1.98900	-91
1.99267	-90
1.99633	-90
2.00000	-90
2.00367	-90
2.00733	-90
2.01100	-90
2.01467	-90
2.01833	-90
2.02200	-90
2.02567	-90
2.02933	-91
2.03300	-91
2.03667	-91
2.04033	-91
2.04400	-91
2.04767	-90
2.05133	-89
2.05500	-88
2.05867	-87
2.06233	-86
2.06600	-86
2.06967	-85
2.07333	-85
2.07700	-85
2.08067	-85
2.08433	-85
2.08800	-85
2.09167	-85
2.09533	-84
2.09900	-84
2.10267	-84
2.10633	-84
2.11000	-84
2.11367	-84
2.11733	-84
2.12100	-84
2.12467	-83
2.12833	-83
2.13200	-82
2.13567	-82
2.13933	-81
2.14300	-81
2.14667	-80
2.15033	-80
2.15400	-80
2.15767	-80
2.16133	-80
2.16500	-79
2.16867	-78
2.17233	-78
2.17600	-77
2.17967	-77
2.18333	-77
2.18700	-76
2.19067	-76
2.19433	-75
2.19800	-75
2.20167	-76
2.20533	-76
2.20900	-76
2.21267	-76
2.21633	-76
2.22000	-75
2.22367	-75
2.22733	-75
2.23100	-74
2.23467	-74
2.23833	-74
2.24200	-74
2.24567	-74
2.24933	-74
2.25300	-73
2.25667	-73
2.26033	-72
2.26400	-71
2.26767	-71
2.27133	-70
2.27500	-70
2.27867	-70
2.28233	-70
2.28600	-70
2.28967	-71
2.29333	-71
2.29700	-71
2.30067	-70
2.30433	-70
2.30800	-69
2.31167	-68
2.31533	-68
2.31900	-67
2.32267	-67
2.32633	-66
2.33000	-66
2.33367	-66
2.33733	-65
2.34100	-65
2.34467	-65
2.34833	-64
2.35200	-63
2.35567	-63
2.35933	-62
2.36300	-61
2.36667	-60
2.37033	-58
2.37400	-56
2.37767	-54
2.38133	-51
2.38500	-48
2.38867	-45
2.39233	-41
2.39600	-37
2.39967	-33
2.40333	-29
2.40700	-25
2.41067	-21
2.41433	-17
2.41800	-13
2.42167	-10
2.42533	-7
2.42900	-4
2.43267	-2
2.43633	-0
2.44000	1
2.44367	2
2.44733	4
2.45100	5
2.45467	6
2.45833	8
2.46200	9
2.46567	9
2.46933	10
2.47300	11
2.47667	11
2.48033	12
2.48400	13
2.48767	13
2.49133	13
2.49500	14
2.49867	15
2.50233	15
2.50600	16
2.50967	16
2.51333	17
2.51700	17
2.52067	18
2.52433	19
2.52800	19
2.53167	19
2.53533	18
2.53900	18
2.54267	17
2.54633	16
2.55000	16
2.55367	16
2.55733	15
2.56100	15
2.56467	15
2.56833	14
2.57200	14
2.57567	14
2.57933	14
2.58300	14
2.58667	15
2.59033	15
2.59400	16
2.59767	17
2.60133	18
2.60500	18
2.60867	19
2.61233	19
2.61600	19
2.61967	18
2.62333	18
2.62700	19
2.63067	19
2.63433	19
2.63800	19
2.64167	20
2.64533	20
2.64900	20
2.65267	20
2.65633	21
2.66000	21
2.66367	21
2.66733	22
2.67100	22
2.67467	22
2.67833	23
2.68200	23
2.68567	23
2.68933	24
2.69300	24
2.69667	24
2.70033	25
2.70400	25
2.70767	26
2.71133	26
2.71500	27
2.71867	27
2.72233	27
2.72600	27
2.72967	27
2.73333	27
2.73700	27
2.74067	27
2.74433	27
2.74800	27
2.75167	27
2.75533	28
2.75900	28
2.76267	28
2.76633	29
2.77000	29
2.77367	29
2.77733	29
2.78100	30
2.78467	30
2.78833	30
2.79200	30
2.79567	30
2.79933	30
2.80300	29
2.80667	29
2.81033	29
2.81400	29
2.81767	29
2.82133	29
2.82500	29
2.82867	28
2.83233	28
2.83600	28
2.83967	28
2.84333	28
2.84700	28
2.85067	28
2.85433	27
2.85800	26
2.86167	23
2.86533	19
2.86900	12
2.87267	1
2.87633	-13
2.88000	-32
2.88367	-57
2.88733	-87
2.89100	-122
2.89467	-162
2.89833	-208
2.90200	-259
2.90567	-313
2.90933	-371
2.91300	-432
2.91667	-495
2.92033	-560
2.92400	-625
2.92767	-690
2.93133	-753
2.93500	-813
2.93867	-870
2.94233	-925
2.94600	-980
2.94967	-1035
2.95333	-1081
2.95700	-1110
2.96067	-1116
2.96433	-1096
2.96800	-1053
2.97167	-993
2.97533	-920
2.97900	-841
2.98267	-759
2.98633	-679
2.99000	-601
2.99367	-528
2.99733	-462
3.00100	-401
3.00467	-346
3.00833	-298
3.01200	-255
3.01567	-218
3.01933	-185
3.02300	-156
3.02667	-132
3.03033	-110
3.03400	-92
3.03767	-76
3.04133	-62
3.04500	-51
3.04867	-41
3.05233	-33
3.05600	-25
3.05967	-19
3.06333	-14
3.06700	-10
3.07067	-6
3.07433	-2
3.07800	0
3.08167	3
3.08533	5
3.08900	7
3.09267	9
3.09633	10
3.10000	12
3.10367	13
3.10733	14
3.11100	14
3.11467	15
3.11833	16
3.12200	16
3.12567	17
3.12933	18
3.13300	18
3.13667	18
3.14033	19
3.14400	19
3.14767	19
3.15133	20
3.15500	20
3.15867	20
3.16233	20
3.16600	20
3.16967	20
3.17333	20
3.17700	20
3.18067	21
3.18433	21
3.18800	21
3.19167	21
3.19533	21
3.19900	22
3.20267	22
3.20633	22
3.21000	22
3.21367	23
3.21733	23
3.22100	23
3.22467	23
3.22833	23
3.23200	24
3.23567	24
3.23933	24
3.24300	24
3.24667	25
3.25033	25
3.25400	25
3.25767	25
3.26133	25
3.26500	25
3.26867	26
3.27233	26
3.27600	26
3.27967	26
3.28333	26
3.28700	26
3.29067	27
3.29433	27
3.29800	27
3.30167	27
3.30533	28
3.30900	28
3.31267	28
3.31633	28
3.32000	28
3.32367	29
3.32733	29
3.33100	29
3.33467	29
3.33833	29
3.34200	29
3.34567	29
3.34933	30
3.35300	30
3.35667	30
3.36033	30
3.36400	30
3.36767	30
3.37133	30
3.37500	30
3.37867	30
3.38233	31
3.38600	31
3.38967	31
3.39333	31
3.39700	31
3.40067	30
3.40433	30
3.40800	30
3.41167	30
3.41533	30
3.41900	30
3.42267	30
3.42633	30
3.43000	30
3.43367	30
3.43733	29
3.44100	29
3.44467	29
3.44833	29
3.45200	29
3.45567	29
3.45933	29
3.46300	29
3.46667	29
3.47033	29
3.47400	29
3.47767	29
3.48133	29
3.48500	29
3.48867	29
3.49233	29
3.49600	29
3.49967	29
3.50333	29
3.50700	29
3.51067	29
3.51433	29
3.51800	29
3.52167	29
3.52533	29
3.52900	30
3.53267	30
3.53633	30
3.54000	30
3.54367	30
3.54733	31
3.55100	31
3.55467	31
3.55833	31
3.56200	31
3.56567	31
3.56933	31
3.57300	31
3.57667	31
3.58033	31
3.58400	31
3.58767	31
3.59133	31
3.59500	31
3.59867	31
3.60233	31
3.60600	31
3.60967	31
3.61333	31
3.61700	31
3.62067	30
3.62433	30
3.62800	30
3.63167	30
3.63533	30
3.63900	30
3.64267	30
3.64633	30
3.65000	30
3.65367	30
3.65733	30
3.66100	30
3.66467	30
3.66833	30
3.67200	30
3.67567	30
3.67933	30
3.68300	30
3.68667	30
3.69033	30
3.69400	30
3.69767	30
3.70133	30
3.70500	30
3.70867	30
3.71233	30
3.71600	29
3.71967	29
3.72333	29
3.72700	29
3.73067	29
3.73433	29
3.73800	29
3.74167	29
3.74533	29
3.74900	29
3.75267	29
3.75633	29
3.76000	30
3.76367	30
3.76733	30
3.77100	30
3.77467	30
3.77833	30
3.78200	30
3.78567	30
3.78933	30
3.79300	30
3.79667	30
3.80033	30
3.80400	30
3.80767	30
3.81133	30
3.81500	30
3.81867	30
3.82233	30
3.82600	30
3.82967	30
3.83333	30
3.83700	30
3.84067	30
3.84433	30
3.84800	30
3.85167	30
3.85533	30
3.85900	30
3.86267	30
3.86633	30
3.87000	30
3.87367	30
3.87733	30
3.88100	30
3.88467	30
3.88833	31
3.89200	31
3.89567	31
3.89933	31
3.90300	31
3.90667	31
3.91033	31
3.91400	30
3.91767	30
3.92133	30
3.92500	30
3.92867	30
3.93233	31
3.93600	31
3.93967	31
3.94333	31
3.94700	31
3.95067	30
3.95433	30
3.95800	30
3.96167	30
3.96533	31
3.96900	31
3.97267	31
3.97633	31
3.98000	31
3.98367	31
3.98733	31
3.99100	31
3.99467	31
3.99833	31

[Chromatogram (Ch3)]
Interval(msec)	220
# of Points	1091
Start Time(min)	0.002
End Time(min)	3.998
R.Time (min)	Intensity
0.00167	0
0.00533	-0
0.00900	-1
0.01267	-1
0.01633	-2
0.02000	-4
0.02367	-5
0.02733	-4
0.03100	-5
0.03467	-5
0.03833	-6
0.04200	-7
0.04567	-7
0.04933	-6
0.05300	-6
0.05667	-3
0.06033	1
0.06400	1
0.06767	0
0.07133	0
0.07500	1
0.07867	-0
0.08233	-1
0.08600	-2
0.08967	-1
0.09333	-0
0.09700	-3
0.10067	-3
0.10433	-3
0.10800	-5
0.11167	-7
0.11533	-7
0.11900	-6
0.12267	-6
0.12633	-5
0.13000	-5
0.13367	-5
0.13733	-6
0.14100	-5
0.14467	-3
0.14833	-3
0.15200	-4
0.15567	-5
0.15933	-3
0.16300	-3
0.16667	-2
0.17033	-3
0.17400	-3
0.17767	-3
0.18133	-3
0.18500	-3
0.18867	-4
0.19233	-3
0.19600	-2
0.19967	-2
0.20333	-4
0.20700	-6
0.21067	-9
0.21433	-10
0.21800	-7
0.22167	-4
0.22533	-1
0.22900	1
0.23267	-0
0.23633	-2
0.24000	-4
0.24367	-6
0.24733	-7
0.25100	-10
0.25467	-10
0.25833	-9
0.26200	-8
0.26567	-5
0.26933	-2
0.27300	-3
0.27667	-5
0.28033	-5
0.28400	-7
0.28767	-7
0.29133	-9
0.29500	-12
0.29867	-11
0.30233	-11
0.30600	-9
0.30967	-7
0.31333	-5
0.31700	-4
0.32067	-3
0.32433	-3
0.32800	-6
0.33167	-11
0.33533	-13
0.33900	-13
0.34267	-10
0.34633	-5
0.35000	-2
0.35367	-2
0.35733	-3
0.36100	-5
0.36467	-6
0.36833	-7
0.37200	-7
0.37567	-5
0.37933	-5
0.38300	-6
0.38667	-7
0.39033	-8
0.39400	-8
0.39767	-9
0.40133	-9
0.40500	-10
0.40867	-10
0.41233	-10
0.41600	-10
0.41967	-9
0.42333	-6
0.42700	-6
0.43067	-5
0.43433	-5
0.43800	-5
0.44167	-3
0.44533	-3
0.44900	-4
0.45267	-5
0.45633	-6
0.46000	-7
0.46367	-6
0.46733	-7
0.47100	-8
0.47467	-8
0.47833	-8
0.48200	-7
0.48567	-9
0.48933	-10
0.49300	-10
0.49667	-11
0.50033	-11
0.50400	-9
0.50767	-6
0.51133	-4
0.51500	-4
0.51867	-4
0.52233	-4
0.52600	-5
0.52967	-8
0.53333	-8
0.53700	-10
0.54067	-8
0.54433	-7
0.54800	-8
0.55167	-7
0.55533	-7
0.55900	-9
0.56267	-12
0.56633	-15
0.57000	-14
0.57367	-10
0.57733	-9
0.58100	-9
0.58467	-8
0.58833	-5
0.59200	-3
0.59567	-2
0.59933	-1
0.60300	-3
0.60667	-4
0.61033	-5
0.61400	-5
0.61767	-4
0.62133	-3
0.62500	-3
0.62867	-6
0.63233	-6
0.63600	-5
0.63967	-3
0.64333	-0
0.64700	-0
0.65067	-3
0.65433	-4
0.65800	-4
0.66167	-1
0.66533	-2
0.66900	-6
0.67267	-6
0.67633	-6
0.68000	-4
0.68367	-5
0.68733	-5
0.69100	-5
0.69467	-4
0.69833	-5
0.70200	-9
0.70567	-11
0.70933	-12
0.71300	-9
0.71667	-8
0.72033	-9
0.72400	-10
0.72767	-10
0.73133	-7
0.73500	-8
0.73867	-9
0.74233	-11
0.74600	-11
0.74967	-9
0.75333	-7
0.75700	-5
0.76067	-2
0.76433	-1
0.76800	-0
0.77167	1
0.77533	1
0.77900	-1
0.78267	-1
0.78633	-2
0.79000	-3
0.79367	-2
0.79733	-2
0.80100	-1
0.80467	-1
0.80833	-1
0.81200	-1
0.81567	-3
0.81933	-1
0.82300	2
0.82667	1
0.83033	-0
0.83400	-2
0.83767	-3
0.84133	-3
0.84500	-3
0.84867	-1
0.85233	2
0.85600	5
0.85967	7
0.86333	6
0.86700	4
0.87067	3
0.87433	2
0.87800	1
0.88167	1
0.88533	1
0.88900	-0
0.89267	-0
0.89633	-1
0.90000	0
0.90367	2
0.90733	3
0.91100	0
0.91467	-2
0.91833	-2
0.92200	-3
0.92567	-2
0.92933	-1
0.93300	-2
0.93667	-3
0.94033	-1
0.94400	-0
0.94767	-0
0.95133	-0
0.95500	2
0.95867	3
0.96233	3
0.96600	3
0.96967	2
0.97333	1
0.97700	0
0.98067	-2
0.98433	-3
0.98800	-3
0.99167	-3
0.99533	-3
0.99900	-3
1.00267	-3
1.00633	-2
1.01000	-4
1.01367	-7
1.01733	-7
1.02100	-5
1.02467	-4
1.02833	-2
1.03200	0
1.03567	0
1.03933	-2
1.04300	-4
1.04667	-4
1.05033	-3
1.05400	-1
1.05767	-1
1.06133	-3
1.06500	-4
1.06867	-4
1.07233	-3
1.07600	1
1.07967	2
1.08333	2
1.08700	3
1.09067	5
1.09433	6
1.09800	5
1.10167	4
1.10533	4
1.10900	3
1.11267	4
1.11633	6
1.12000	5
1.12367	1
1.12733	-1
1.13100	-0
1.13467	-1
1.13833	-3
1.14200	-2
1.14567	-0
1.14933	1
1.15300	-1
1.15667	-1
1.16033	0
1.16400	1
1.16767	1
1.17133	1
1.17500	0
1.17867	0
1.18233	1
1.18600	3
1.18967	3
1.19333	3
1.19700	5
1.20067	7
1.20433	5
1.20800	4
1.21167	5
1.21533	7
1.21900	10
1.22267	10
1.22633	9
1.23000	6
1.23367	3
1.23733	3
1.24100	4
1.24467	2
1.24833	0
1.25200	2
1.25567	5
1.25933	7
1.26300	7
1.26667	5
1.27033	3
1.27400	4
1.27767	4
1.28133	3
1.28500	2
1.28867	3
1.29233	3
1.29600	4
1.29967	6
1.30333	6
1.30700	5
1.31067	4
1.31433	4
1.31800	1
1.32167	1
1.32533	1
1.32900	0
1.33267	1
1.33633	3
1.34000	5
1.34367	6
1.34733	6
1.35100	7
1.35467	6
1.35833	4
1.36200	4
1.36567	2
1.36933	1
1.37300	0
1.37667	3
1.38033	4
1.38400	7
1.38767	8
1.39133	10
1.39500	12
1.39867	9
1.40233	5
1.40600	2
1.40967	1
1.41333	-0
1.41700	3
1.42067	5
1.42433	6
1.42800	8
1.43167	7
1.43533	5
1.43900	2
1.44267	-0
1.44633	2
1.45000	5
1.45367	6
1.45733	7
1.46100	8
1.46467	7
1.46833	4
1.47200	2
1.47567	3
1.47933	4
1.48300	5
1.48667	3
1.49033	1
1.49400	1
1.49767	4
1.50133	4
1.50500	2
1.50867	1
1.51233	1
1.51600	3
1.51967	2
1.52333	1
1.52700	0
1.53067	1
1.53433	3
1.53800	5
1.54167	6
1.54533	5
1.54900	3
1.55267	3
1.55633	5
1.56000	5
1.56367	3
1.56733	1
1.57100	-0
1.57467	1
1.57833	3
1.58200	4
1.58567	5
1.58933	6
1.59300	9
1.59667	9
1.60033	9
1.60400	8
1.60767	7
1.61133	5
1.61500	4
1.61867	5
1.62233	8
1.62600	8
1.62967	6
1.63333	6
1.63700	7
1.64067	11
1.64433	13
1.64800	13
1.65167	12
1.65533	11
1.65900	11
1.66267	12
1.66633	13
1.67000	12
1.67367	12
1.67733	12
1.68100	13
1.68467	15
1.68833	15
1.69200	15
1.69567	15
1.69933	13
1.70300	13
1.70667	12
1.71033	11
1.71400	13
1.71767	13
1.72133	11
1.72500	9
1.72867	8
1.73233	7
1.73600	8
1.73967	10
1.74333	12
1.74700	13
1.75067	13
1.75433	13
1.75800	12
1.76167	10
1.76533	8
1.76900	7
1.77267	7
1.77633	8
1.78000	8
1.78367	5
1.78733	6
1.79100	7
1.79467	7
1.79833	9
1.80200	11
1.80567	12
1.80933	13
1.81300	16
1.81667	18
1.82033	18
1.82400	18
1.82767	19
1.83133	18
1.83500	17
1.83867	18
1.84233	20
1.84600	21
1.84967	21
1.85333	20
1.85700	21
1.86067	23
1.86433	21
1.86800	18
1.87167	16
1.87533	17
1.87900	19
1.88267	21
1.88633	23
1.89000	25
1.89367	28
1.89733	29
1.90100	29
1.90467	30
1.90833	31
1.91200	31
1.91567	30
1.91933	28
1.92300	26
1.92667	24
1.93033	21
1.93400	24
1.93767	26
1.94133	27
1.94500	29
1.94867	31
1.95233	31
1.95600	29
1.95967	31
1.96333	32
1.96700	32
1.97067	32
1.97433	33
1.97800	33
1.98167	34
1.98533	36
1.98900	36
1.99267	38
1.99633	40
2.00000	41
2.00367	40
2.00733	40
2.01100	41
2.01467	41
2.01833	42
2.02200	42
2.02567	43
2.02933	43
2.03300	44
2.03667	44
2.04033	44
2.04400	45
2.04767	49
2.05133	51
2.05500	53
2.05867	54
2.06233	52
2.06600	53
2.06967	52
2.07333	52
2.07700	54
2.08067	55
2.08433	55
2.08800	53
2.09167	53
2.09533	55
2.09900	56
2.10267	56
2.10633	55
2.11000	55
2.11367	54
2.11733	53
2.12100	52
2.12467	56
2.12833	60
2.13200	61
2.13567	61
2.13933	62
2.14300	62
2.14667	64
2.15033	65
2.15400	67
2.15767	69
2.16133	70
2.16500	72
2.16867	75
2.17233	74
2.17600	74
2.17967	77
2.18333	78
2.18700	77
2.19067	77
2.19433	80
2.19800	83
2.20167	82
2.20533	78
2.20900	77
2.21267	79
2.21633	82
2.22000	83
2.22367	82
2.22733	82
2.23100	87
2.23467	90
2.23833	90
2.24200	89
2.24567	88
2.24933	89
2.25300	87
2.25667	84
2.26033	84
2.26400	87
2.26767	92
2.27133	94
2.27500	94
2.27867	95
2.28233	94
2.28600	96
2.28967	97
2.29333	97
2.29700	98
2.30067	100
2.30433	102
2.30800	101
2.31167	101
2.31533	101
2.31900	104
2.32267	105
2.32633	103
2.33000	100
2.33367	98
2.33733	99
2.34100	100
2.34467	101
2.34833	104
2.35200	105
2.35567	105
2.35933	102
2.36300	101
2.36667	102
2.37033	101
2.37400	101
2.37767	100
2.38133	99
2.38500	97
2.38867	94
2.39233	96
2.39600	103
2.39967	110
2.40333	113
2.40700	117
2.41067	122
2.41433	126
2.41800	127
2.42167	126
2.42533	125
2.42900	126
2.43267	126
2.43633	125
2.44000	133
2.44367	182
2.44733	266
2.45100	341
2.45467	394
2.45833	418
2.46200	418
2.46567	407
2.46933	393
2.47300	381
2.47667	372
2.48033	359
2.48400	340
2.48767	319
2.49133	297
2.49500	275
2.49867	262
2.50233	256
2.50600	257
2.50967	261
2.51333	265
2.51700	269
2.52067	273
2.52433	274
2.52800	271
2.53167	264
2.53533	252
2.53900	240
2.54267	229
2.54633	220
2.55000	211
2.55367	202
2.55733	193
2.56100	186
2.56467	180
2.56833	177
2.57200	179
2.57567	181
2.57933	185
2.58300	191
2.58667	195
2.59033	197
2.59400	200
2.59767	205
2.60133	211
2.60500	217
2.60867	224
2.61233	233
2.61600	240
2.61967	241
2.62333	238
2.62700	233
2.63067	226
2.63433	218
2.63800	209
2.64167	204
2.64533	200
2.64900	192
2.65267	183
2.65633	176
2.66000	167
2.66367	158
2.66733	150
2.67100	144
2.67467	140
2.67833	137
2.68200	132
2.68567	129
2.68933	127
2.69300	126
2.69667	123
2.70033	119
2.70400	117
2.70767	116
2.71133	117
2.71500	117
2.71867	117
2.72233	118
2.72600	118
2.72967	116
2.73333	117
2.73700	122
2.74067	126
2.74433	128
2.74800	129
2.75167	132
2.75533	133
2.75900	132
2.76267	132
2.76633	133
2.77000	135
2.77367	139
2.77733	142
2.78100	146
2.78467	148
2.78833	152
2.79200	156
2.79567	159
2.79933	163
2.80300	168
2.80667	174
2.81033	176
2.81400	179
2.81767	181
2.82133	181
2.82500	182
2.82867	182
2.83233	188
2.83600	199
2.83967	220
2.84333	261
2.84700	339
2.85067	472
2.85433	680
2.85800	969
2.86167	1344
2.86533	1793
2.86900	2285
2.87267	2783
2.87633	3245
2.88000	3629
2.88367	3907
2.88733	4068
2.89100	4108
2.89467	4037
2.89833	3877
2.90200	3653
2.90567	3388
2.90933	3101
2.91300	2809
2.91667	2524
2.92033	2253
2.92400	1983
2.92767	1667
2.93133	1367
2.93500	1164
2.93867	1057
2.94233	1013
2.94600	1006
2.94967	1018
2.95333	1041
2.95700	1067
2.96067	1092
2.96433	1115
2.96800	1133
2.97167	1149
2.97533	1163
2.97900	1173
2.98267	1179
2.98633	1180
2.99000	1175
2.99367	1168
2.99733	1161
3.00100	1152
3.00467	1142
3.00833	1133
3.01200	1127
3.01567	1120
3.01933	1112
3.02300	1103
3.02667	1096
3.03033	1088
3.03400	1078
3.03767	1071
3.04133	1064
3.04500	1057
3.04867	1047
3.05233	1039
3.05600	1032
3.05967	1027
3.06333	1021
3.06700	1016
3.07067	1010
3.07433	1002
3.07800	994
3.08167	987
3.08533	982
3.08900	977
3.09267	973
3.09633	970
3.10000	966
3.10367	964
3.10733	962
3.11100	960
3.11467	956
3.11833	953
3.12200	951
3.12567	950
3.12933	949
3.13300	948
3.13667	946
3.14033	944
3.14400	942
3.14767	942
3.15133	941
3.15500	941
3.15867	942
3.16233	941
3.16600	937
3.16967	933
3.17333	928
3.17700	926
3.18067	924
3.18433	922
3.18800	918
3.19167	915
3.19533	911
3.19900	909
3.20267	908
3.20633	907
3.21000	906
3.21367	903
3.21733	900
3.22100	896
3.22467	892
3.22833	888
3.23200	883
3.23567	882
3.23933	881
3.24300	878
3.24667	874
3.25033	870
3.25400	864
3.25767	859
3.26133	856
3.26500	853
3.26867	850
3.27233	850
3.27600	849
3.27967	847
3.28333	847
3.28700	846
3.29067	845
3.29433	843
3.29800	844
3.30167	844
3.30533	849
3.30900	853
3.31267	853
3.31633	854
3.32000	859
3.32367	861
3.32733	863
3.33100	866
3.33467	871
3.33833	877
3.34200	883
3.34567	887
3.34933	892
3.35300	899
3.35667	907
3.36033	914
3.36400	923
3.36767	930
3.37133	936
3.37500	942
3.37867	948
3.38233	954
3.38600	959
3.38967	963
3.39333	966
3.39700	967
3.40067	970
3.40433	972
3.40800	973
3.41167	975
3.41533	973
3.41900	970
3.42267	965
3.42633	960
3.43000	955
3.43367	949
3.43733	942
3.44100	933
3.44467	925
3.44833	915
3.45200	906
3.45567	896
3.45933	887
3.46300	881
3.46667	872
3.47033	863
3.47400	855
3.47767	845
3.48133	833
3.48500	824
3.48867	814
3.49233	805
3.49600	796
3.49967	790
3.50333	784
3.50700	778
3.51067	774
3.51433	773
3.51800	772
3.52167	769
3.52533	766
3.52900	762
3.53267	757
3.53633	753
3.54000	751
3.54367	748
3.54733	743
3.55100	742
3.55467	739
3.55833	733
3.56200	728
3.56567	725
3.56933	721
3.57300	716
3.57667	714
3.58033	714
3.58400	713
3.58767	708
3.59133	705
3.59500	703
3.59867	700
3.60233	697
3.60600	695
3.60967	697
3.61333	699
3.61700	698
3.62067	694
3.62433	692
3.62800	689
3.63167	682
3.63533	677
3.63900	674
3.64267	671
3.64633	669
3.65000	667
3.65367	667
3.65733	664
3.66100	660
3.66467	656
3.66833	653
3.67200	652
3.67567	652
3.67933	653
3.68300	653
3.68667	652
3.69033	648
3.69400	643
3.69767	641
3.70133	640
3.70500	639
3.70867	637
3.71233	634
3.71600	632
3.71967	630
3.72333	630
3.72700	629
3.73067	626
3.73433	625
3.73800	625
3.74167	625
3.74533	626
3.74900	625
3.75267	622
3.75633	621
3.76000	622
3.76367	621
3.76733	619
3.77100	619
3.77467	618
3.77833	620
3.78200	621
3.78567	617
3.78933	614
3.79300	611
3.79667	607
3.80033	605
3.80400	604
3.80767	604
3.81133	606
3.81500	607
3.81867	606
3.82233	600
3.82600	595
3.82967	594
3.83333	593
3.83700	595
3.84067	596
3.84433	595
3.84800	592
3.85167	589
3.85533	588
3.85900	586
3.86267	586
3.86633	587
3.87000	587
3.87367	587
3.87733	586
3.88100	586
3.88467	583
3.88833	581
3.89200	579
3.89567	577
3.89933	574
3.90300	574
3.90667	575
3.91033	574
3.91400	571
3.91767	571
3.92133	571
3.92500	570
3.92867	567
3.93233	565
3.93600	564
3.93967	564
3.94333	563
3.94700	560
3.95067	558
3.95433	559
3.95800	559
3.96167	559
3.96533	557
3.96900	553
3.97267	551
3.97633	550
3.98000	548
3.98367	547
3.98733	544
3.99100	543
3.99467	539
3.99833	532

[Status Trace (Column Oven Temperature)]
Interval(msec)	1000
# of Points	240
Start Time(min)	0.004
End Time(min)	3.987
Intensity Units	
Intensity Multiplier	1
R.Time (min)	Intensity
0.00350	35.04
0.02017	35.04
0.03683	35.05
0.05350	35.05
0.07017	35.04
0.08683	35.05
0.10350	35.05
0.12017	35.04
0.13683	35.04
0.15350	35.03
0.17017	35.03
0.18683	35.03
0.20350	35.01
0.22017	35.01
0.23683	35.01
0.25350	35.01
0.27017	35.02
0.28683	35.02
0.30350	35.02
0.32017	35.01
0.33683	35.01
0.35350	35.02
0.37017	35.02
0.38683	35.02
0.40350	35.01
0.42017	35.01
0.43683	35.01
0.45350	35.01
0.47017	35.01
0.48683	35.01
0.50350	35.01
0.52017	35.01
0.53683	35.01
0.55350	35.00
0.57017	35.01
0.58683	35.01
0.60350	35.00
0.62017	35.00
0.63683	34.99
0.65350	34.99
0.67017	35.00
0.68683	34.99
0.70350	34.99
0.72017	34.98
0.73683	34.98
0.75350	34.98
0.77017	34.98
0.78683	34.99
0.80350	34.99
0.82017	35.00
0.83683	35.00
0.85350	35.01
0.87017	35.01
0.88683	35.01
0.90350	35.01
0.92017	35.01
0.93683	35.01
0.95350	35.00
0.97017	34.99
0.98683	34.99
1.00350	35.00
1.02017	35.00
1.03683	35.01
1.05350	35.01
1.07017	35.01
1.08683	35.00
1.10350	35.00
1.12017	34.99
1.13683	34.99
1.15350	34.99
1.17017	34.99
1.18683	35.00
1.20350	34.99
1.22017	34.98
1.23683	34.98
1.25350	34.98
1.27017	34.99
1.28683	34.98
1.30350	34.98
1.32017	34.99
1.33683	34.99
1.35350	35.00
1.37017	35.00
1.38683	35.00
1.40350	35.00
1.42017	35.00
1.43683	35.00
1.45350	35.00
1.47017	35.00
1.48683	35.00
1.50350	35.00
1.52017	35.00
1.53683	34.99
1.55350	34.99
1.57017	34.99
1.58683	35.00
1.60350	35.04
1.62017	35.15
1.63683	35.32
1.65350	35.55
1.67017	35.87
1.68683	36.23
1.70350	36.58
1.72017	36.92
1.73683	37.26
1.75350	37.61
1.77017	37.93
1.78683	38.23
1.80350	38.57
1.82017	38.91
1.83683	39.24
1.85350	39.58
1.87017	39.90
1.88683	40.22
1.90350	40.56
1.92017	40.89
1.93683	41.23
1.95350	41.54
1.97017	41.88
1.98683	42.20
2.00350	42.52
2.02017	42.85
2.03683	43.20
2.05350	43.50
2.07017	43.83
2.08683	44.16
2.10350	44.49
2.12017	44.81
2.13683	45.14
2.15350	45.48
2.17017	45.79
2.18683	46.09
2.20350	46.44
2.22017	46.76
2.23683	47.11
2.25350	47.44
2.27017	47.75
2.28683	48.10
2.30350	48.42
2.32017	48.75
2.33683	49.06
2.35350	49.38
2.37017	49.63
2.38683	49.75
2.40350	49.77
2.42017	49.75
2.43683	49.76
2.45350	49.75
2.47017	49.76
2.48683	49.79
2.50350	49.79
2.52017	49.79
2.53683	49.81
2.55350	49.81
2.57017	49.81
2.58683	49.81
2.60350	49.81
2.62017	49.83
2.63683	49.84
2.65350	49.84
2.67017	49.85
2.68683	49.86
2.70350	49.85
2.72017	49.85
2.73683	49.87
2.75350	49.87
2.77017	49.86
2.78683	49.86
2.80350	49.85
2.82017	49.86
2.83683	49.87
2.85350	49.88
2.87017	49.90
2.88683	49.91
2.90350	49.93
2.92017	49.94
2.93683	49.95
2.95350	49.96
2.97017	49.98
2.98683	49.98
3.00350	50.00
3.02017	50.01
3.03683	50.01
3.05350	50.02
3.07017	50.02
3.08683	50.03
3.10350	50.04
3.12017	50.05
3.13683	50.05
3.15350	50.06
3.17017	50.06
3.18683	50.08
3.20350	50.09
3.22017	50.10
3.23683	50.10
3.25350	50.10
3.27017	50.10
3.28683	50.10
3.30350	50.09
3.32017	50.09
3.33683	50.08
3.35350	50.07
3.37017	50.06
3.38683	50.05
3.40350	50.05
3.42017	50.05
3.43683	50.05
3.45350	50.05
3.47017	50.05
3.48683	50.06
3.50350	50.06
3.52017	50.07
3.53683	50.07
3.55350	50.07
3.57017	50.07
3.58683	50.07
3.60350	50.06
3.62017	50.06
3.63683	50.05
3.65350	50.06
3.67017	50.07
3.68683	50.06
3.70350	50.06
3.72017	50.07
3.73683	50.07
3.75350	50.07
3.77017	50.07
3.78683	50.06
3.80350	50.06
3.82017	50.06
3.83683	50.06
3.85350	50.06
3.87017	50.06
3.88683	50.06
3.90350	50.07
3.92017	50.07
3.93683	50.07
3.95350	50.07
3.97017	50.07
3.98683	50.07

[Status Trace (Injection Unit Temperature)]
Interval(msec)	1000
# of Points	240
Start Time(min)	0.004
End Time(min)	3.987
Intensity Units	
Intensity Multiplier	1
R.Time (min)	Intensity
0.00350	99.98
0.02017	99.98
0.03683	99.97
0.05350	99.98
0.07017	99.98
0.08683	99.98
0.10350	99.98
0.12017	99.98
0.13683	99.98
0.15350	99.98
0.17017	99.98
0.18683	99.98
0.20350	99.98
0.22017	99.98
0.23683	99.98
0.25350	99.98
0.27017	99.98
0.28683	99.98
0.30350	99.98
0.32017	99.98
0.33683	99.98
0.35350	99.98
0.37017	99.98
0.38683	99.98
0.40350	99.98
0.42017	99.98
0.43683	99.98
0.45350	99.98
0.47017	99.98
0.48683	99.98
0.50350	99.98
0.52017	99.98
0.53683	99.98
0.55350	99.98
0.57017	99.98
0.58683	99.98
0.60350	99.98
0.62017	99.98
0.63683	99.98
0.65350	99.98
0.67017	99.98
0.68683	99.98
0.70350	99.98
0.72017	99.98
0.73683	99.98
0.75350	99.98
0.77017	99.98
0.78683	99.98
0.80350	99.98
0.82017	99.98
0.83683	99.98
0.85350	99.98
0.87017	99.98
0.88683	99.98
0.90350	99.98
0.92017	99.98
0.93683	99.98
0.95350	99.98
0.97017	99.98
0.98683	99.98
1.00350	99.98
1.02017	99.98
1.03683	99.98
1.05350	99.98
1.07017	99.98
1.08683	99.98
1.10350	99.98
1.12017	99.98
1.13683	99.98
1.15350	99.98
1.17017	99.98
1.18683	99.98
1.20350	99.98
1.22017	99.98
1.23683	99.98
1.25350	99.98
1.27017	99.98
1.28683	99.98
1.30350	99.98
1.32017	99.98
1.33683	99.98
1.35350	99.98
1.37017	99.98
1.38683	99.98
1.40350	99.98
1.42017	99.98
1.43683	99.98
1.45350	99.98
1.47017	99.98
1.48683	99.98
1.50350	99.98
1.52017	99.98
1.53683	99.98
1.55350	99.97
1.57017	99.98
1.58683	99.98
1.60350	99.98
1.62017	99.98
1.63683	99.98
1.65350	99.98
1.67017	99.98
1.68683	99.98
1.70350	99.98
1.72017	99.98
1.73683	99.98
1.75350	99.98
1.77017	99.98
1.78683	99.98
1.80350	99.98
1.82017	99.98
1.83683	99.98
1.85350	99.98
1.87017	99.98
1.88683	99.98
1.90350	99.98
1.92017	99.98
1.93683	99.98
1.95350	99.98
1.97017	99.97
1.98683	99.98
2.00350	99.98
2.02017	99.97
2.03683	99.98
2.05350	99.97
2.07017	99.97
2.08683	99.97
2.10350	99.97
2.12017	99.97
2.13683	99.98
2.15350	99.97
2.17017	99.97
2.18683	99.97
2.20350	99.97
2.22017	99.97
2.23683	99.97
2.25350	99.97
2.27017	99.97
2.28683	99.97
2.30350	99.97
2.32017	99.97
2.33683	99.97
2.35350	99.97
2.37017	99.97
2.38683	99.97
2.40350	99.97
2.42017	99.97
2.43683	99.97
2.45350	99.97
2.47017	99.97
2.48683	99.97
2.50350	99.97
2.52017	99.97
2.53683	99.97
2.55350	99.97
2.57017	99.97
2.58683	99.97
2.60350	99.98
2.62017	99.97
2.63683	99.98
2.65350	99.98
2.67017	99.97
2.68683	99.98
2.70350	99.98
2.72017	99.98
2.73683	99.98
2.75350	99.98
2.77017	99.98
2.78683	99.99
2.80350	99.99
2.82017	99.99
2.83683	99.99
2.85350	99.99
2.87017	99.99
2.88683	99.99
2.90350	100.00
2.92017	100.00
2.93683	100.00
2.95350	100.00
2.97017	100.00
2.98683	100.00
3.00350	100.00
3.02017	100.00
3.03683	100.01
3.05350	100.01
3.07017	100.01
3.08683	100.01
3.10350	100.01
3.12017	100.01
3.13683	100.01
3.15350	100.01
3.17017	100.02
3.18683	100.00
3.20350	100.01
3.22017	100.02
3.23683	100.02
3.25350	100.02
3.27017	100.02
3.28683	100.03
3.30350	100.02
3.32017	100.02
3.33683	100.03
3.35350	100.02
3.37017	100.03
3.38683	100.03
3.40350	100.03
3.42017	100.03
3.43683	100.03
3.45350	100.03
3.47017	100.03
3.48683	100.03
3.50350	100.03
3.52017	100.03
3.53683	100.03
3.55350	100.03
3.57017	100.04
3.58683	100.03
3.60350	100.04
3.62017	100.04
3.63683	100.04
3.65350	100.04
3.67017	100.04
3.68683	100.04
3.70350	100.04
3.72017	100.04
3.73683	100.04
3.75350	100.04
3.77017	100.04
3.78683	100.04
3.80350	100.04
3.82017	100.04
3.83683	100.04
3.85350	100.04
3.87017	100.04
3.88683	100.04
3.90350	100.04
3.92017	100.04
3.93683	100.04
3.95350	100.04
3.97017	100.04
3.98683	100.04

[Status Trace (Carrier Gas Pressure)]
Interval(msec)	1000
# of Points	240
Start Time(min)	0.004
End Time(min)	3.987
Intensity Units	
Intensity Multiplier	1
R.Time (min)	Intensity
0.00350	58.00
0.02017	56.09
0.03683	56.46
0.05350	58.60
0.07017	59.86
0.08683	58.26
0.10350	57.97
0.12017	58.00
0.13683	58.01
0.15350	58.01
0.17017	58.00
0.18683	58.00
0.20350	58.00
0.22017	58.00
0.23683	58.00
0.25350	58.00
0.27017	58.00
0.28683	58.00
0.30350	58.00
0.32017	58.00
0.33683	58.00
0.35350	58.00
0.37017	58.00
0.38683	58.00
0.40350	58.00
0.42017	58.00
0.43683	58.00
0.45350	58.00
0.47017	58.00
0.48683	58.00
0.50350	58.00
0.52017	58.00
0.53683	58.00
0.55350	58.00
0.57017	58.00
0.58683	58.00
0.60350	58.00
0.62017	58.00
0.63683	58.00
0.65350	58.00
0.67017	58.00
0.68683	58.00
0.70350	58.00
0.72017	58.00
0.73683	58.00
0.75350	58.00
0.77017	58.00
0.78683	58.00
0.80350	58.00
0.82017	58.00
0.83683	58.00
0.85350	58.00
0.87017	58.00
0.88683	58.00
0.90350	58.00
0.92017	58.00
0.93683	58.00
0.95350	58.00
0.97017	58.00
0.98683	58.00
1.00350	58.00
1.02017	58.00
1.03683	58.00
1.05350	58.00
1.07017	58.00
1.08683	58.00
1.10350	58.00
1.12017	58.00
1.13683	58.00
1.15350	58.00
1.17017	58.00
1.18683	58.00
1.20350	58.00
1.22017	58.00
1.23683	58.00
1.25350	58.00
1.27017	58.00
1.28683	58.00
1.30350	58.00
1.32017	58.00
1.33683	58.00
1.35350	58.00
1.37017	58.00
1.38683	58.00
1.40350	58.00
1.42017	58.00
1.43683	58.00
1.45350	58.00
1.47017	58.00
1.48683	58.00
1.50350	58.00
1.52017	58.00
1.53683	58.00
1.55350	58.00
1.57017	58.00
1.58683	58.00
1.60350	58.00
1.62017	58.00
1.63683	58.00
1.65350	58.00
1.67017	58.01
1.68683	58.01
1.70350	58.00
1.72017	58.00
1.73683	58.00
1.75350	58.00
1.77017	58.00
1.78683	58.00
1.80350	58.00
1.82017	58.00
1.83683	58.00
1.85350	58.00
1.87017	58.00
1.88683	58.00
1.90350	58.00
1.92017	58.00
1.93683	58.00
1.95350	58.00
1.97017	58.00
1.98683	58.00
2.00350	58.00
2.02017	58.00
2.03683	58.00
2.05350	58.00
2.07017	58.00
2.08683	58.00
2.10350	58.00
2.12017	58.00
2.13683	58.00
2.15350	58.00
2.17017	58.00
2.18683	58.00
2.20350	58.00
2.22017	58.00
2.23683	58.00
2.25350	58.00
2.27017	58.00
2.28683	58.00
2.30350	58.00
2.32017	58.00
2.33683	58.00
2.35350	58.00
2.37017	58.00
2.38683	57.99
2.40350	57.99
2.42017	58.00
2.43683	58.00
2.45350	58.00
2.47017	58.00
2.48683	58.00
2.50350	57.95
2.52017	58.00
2.53683	58.00
2.55350	58.00
2.57017	58.00
2.58683	58.00
2.60350	58.00
2.62017	58.00
2.63683	58.00
2.65350	58.00
2.67017	58.00
2.68683	58.00
2.70350	58.00
2.72017	58.00
2.73683	58.00
2.75350	58.00
2.77017	58.00
2.78683	58.00
2.80350	58.00
2.82017	58.00
2.83683	58.00
2.85350	58.00
2.87017	58.00
2.88683	58.00
2.90350	58.00
2.92017	58.00
2.93683	58.00
2.95350	58.00
2.97017	58.00
2.98683	58.00
3.00350	58.00
3.02017	58.00
3.03683	58.00
3.05350	58.00
3.07017	58.00
3.08683	58.00
3.10350	58.00
3.12017	58.00
3.13683	58.00
3.15350	58.00
3.17017	58.00
3.18683	58.00
3.20350	58.00
3.22017	58.00
3.23683	58.00
3.25350	58.00
3.27017	58.00
3.28683	58.00
3.30350	58.00
3.32017	58.00
3.33683	58.00
3.35350	58.00
3.37017	58.00
3.38683	58.00
3.40350	58.00
3.42017	58.00
3.43683	58.00
3.45350	58.00
3.47017	58.00
3.48683	58.00
3.50350	58.00
3.52017	58.00
3.53683	58.00
3.55350	58.00
3.57017	58.00
3.58683	58.00
3.60350	58.00
3.62017	58.00
3.63683	58.00
3.65350	58.00
3.67017	58.00
3.68683	58.00
3.70350	58.00
3.72017	58.00
3.73683	58.00
3.75350	58.00
3.77017	58.00
3.78683	58.00
3.80350	58.00
3.82017	58.00
3.83683	58.00
3.85350	58.00
3.87017	58.00
3.88683	58.00
3.90350	58.00
3.92017	58.00
3.93683	58.00
3.95350	58.00
3.97017	58.00
3.98683	58.00

[Status Trace (Carrier Gas Flow)]
Interval(msec)	1000
# of Points	240
Start Time(min)	0.004
End Time(min)	3.987
Intensity Units	
Intensity Multiplier	1
R.Time (min)	Intensity
0.00350	34.52
0.02017	34.58
0.03683	34.54
0.05350	34.55
0.07017	34.49
0.08683	34.52
0.10350	34.52
0.12017	34.52
0.13683	34.52
0.15350	34.52
0.17017	34.52
0.18683	34.52
0.20350	34.52
0.22017	34.52
0.23683	34.52
0.25350	34.52
0.27017	34.52
0.28683	34.52
0.30350	34.52
0.32017	34.52
0.33683	34.51
0.35350	34.52
0.37017	34.52
0.38683	34.52
0.40350	34.52
0.42017	34.52
0.43683	34.52
0.45350	34.51
0.47017	34.52
0.48683	34.52
0.50350	34.51
0.52017	34.51
0.53683	34.52
0.55350	34.52
0.57017	34.51
0.58683	34.52
0.60350	34.52
0.62017	34.52
0.63683	34.52
0.65350	34.51
0.67017	34.52
0.68683	34.52
0.70350	34.52
0.72017	34.52
0.73683	34.52
0.75350	34.52
0.77017	34.52
0.78683	34.52
0.80350	34.52
0.82017	34.52
0.83683	34.52
0.85350	34.52
0.87017	34.52
0.88683	34.52
0.90350	34.52
0.92017	34.52
0.93683	34.51
0.95350	34.52
0.97017	34.52
0.98683	34.52
1.00350	34.52
1.02017	34.52
1.03683	34.53
1.05350	34.52
1.07017	34.52
1.08683	34.52
1.10350	34.52
1.12017	34.52
1.13683	34.52
1.15350	34.52
1.17017	34.52
1.18683	34.52
1.20350	34.52
1.22017	34.52
1.23683	34.51
1.25350	34.52
1.27017	34.52
1.28683	34.52
1.30350	34.52
1.32017	34.52
1.33683	34.52
1.35350	34.51
1.37017	34.52
1.38683	34.52
1.40350	34.51
1.42017	34.52
1.43683	34.52
1.45350	34.52
1.47017	34.51
1.48683	34.52
1.50350	34.52
1.52017	34.52
1.53683	34.52
1.55350	34.52
1.57017	34.52
1.58683	34.52
1.60350	34.52
1.62017	34.52
1.63683	34.52
1.65350	34.52
1.67017	34.52
1.68683	34.52
1.70350	34.52
1.72017	34.51
1.73683	34.52
1.75350	34.52
1.77017	34.52
1.78683	34.52
1.80350	34.52
1.82017	34.51
1.83683	34.51
1.85350	34.51
1.87017	34.52
1.88683	34.52
1.90350	34.52
1.92017	34.52
1.93683	34.53
1.95350	34.52
1.97017	34.51
1.98683	34.52
2.00350	34.52
2.02017	34.52
2.03683	34.52
2.05350	34.52
2.07017	34.52
2.08683	34.51
2.10350	34.52
2.12017	34.52
2.13683	34.52
2.15350	34.52
2.17017	34.52
2.18683	34.52
2.20350	34.52
2.22017	34.52
2.23683	34.52
2.25350	34.52
2.27017	34.52
2.28683	34.52
2.30350	34.51
2.32017	34.52
2.33683	34.52
2.35350	34.52
2.37017	34.52
2.38683	34.52
2.40350	34.52
2.42017	34.51
2.43683	34.52
2.45350	34.52
2.47017	34.53
2.48683	34.52
2.50350	34.68
2.52017	34.52
2.53683	34.52
2.55350	34.52
2.57017	34.51
2.58683	34.53
2.60350	34.52
2.62017	34.52
2.63683	34.52
2.65350	34.52
2.67017	34.52
2.68683	34.52
2.70350	34.52
2.72017	34.52
2.73683	34.52
2.75350	34.52
2.77017	34.52
2.78683	34.52
2.80350	34.52
2.82017	34.52
2.83683	34.52
2.85350	34.52
2.87017	34.52
2.88683	34.52
2.90350	34.52
2.92017	34.52
2.93683	34.52
2.95350	34.52
2.97017	34.52
2.98683	34.52
3.00350	34.52
3.02017	34.52
3.03683	34.52
3.05350	34.52
3.07017	34.52
3.08683	34.52
3.10350	34.52
3.12017	34.52
3.13683	34.52
3.15350	34.52
3.17017	34.52
3.18683	34.52
3.20350	34.52
3.22017	34.52
3.23683	34.52
3.25350	34.52
3.27017	34.52
3.28683	34.52
3.30350	34.52
3.32017	34.52
3.33683	34.52
3.35350	34.52
3.37017	34.52
3.38683	34.52
3.40350	34.52
3.42017	34.52
3.43683	34.52
3.45350	34.52
3.47017	34.52
3.48683	34.52
3.50350	34.52
3.52017	34.52
3.53683	34.51
3.55350	34.52
3.57017	34.52
3.58683	34.52
3.60350	34.52
3.62017	34.52
3.63683	34.52
3.65350	34.52
3.67017	34.52
3.68683	34.52
3.70350	34.51
3.72017	34.52
3.73683	34.53
3.75350	34.52
3.77017	34.52
3.78683	34.52
3.80350	34.52
3.82017	34.52
3.83683	34.52
3.85350	34.52
3.87017	34.51
3.88683	34.53
3.90350	34.51
3.92017	34.52
3.93683	34.52
3.95350	34.53
3.97017	34.51
3.98683	34.52

[Status Trace (Column Flow)]
Interval(msec)	1000
# of Points	240
Start Time(min)	0.004
End Time(min)	3.987
Intensity Units	
Intensity Multiplier	1
R.Time (min)	Intensity
0.00350	5.50
0.02017	5.28
0.03683	5.32
0.05350	5.57
0.07017	5.72
0.08683	5.53
0.10350	5.50
0.12017	5.50
0.13683	5.50
0.15350	5.50
0.17017	5.50
0.18683	5.50
0.20350	5.50
0.22017	5.50
0.23683	5.50
0.25350	5.50
0.27017	5.50
0.28683	5.50
0.30350	5.50
0.32017	5.50
0.33683	5.50
0.35350	5.50
0.37017	5.50
0.38683	5.50
0.40350	5.50
0.42017	5.50
0.43683	5.50
0.45350	5.50
0.47017	5.50
0.48683	5.50
0.50350	5.50
0.52017	5.50
0.53683	5.50
0.55350	5.50
0.57017	5.50
0.58683	5.50
0.60350	5.50
0.62017	5.50
0.63683	5.50
0.65350	5.50
0.67017	5.50
0.68683	5.50
0.70350	5.50
0.72017	5.50
0.73683	5.50
0.75350	5.50
0.77017	5.50
0.78683	5.50
0.80350	5.50
0.82017	5.50
0.83683	5.50
0.85350	5.50
0.87017	5.50
0.88683	5.50
0.90350	5.50
0.92017	5.50
0.93683	5.50
0.95350	5.50
0.97017	5.50
0.98683	5.50
1.00350	5.50
1.02017	5.50
1.03683	5.50
1.05350	5.50
1.07017	5.50
1.08683	5.50
1.10350	5.50
1.12017	5.50
1.13683	5.50
1.15350	5.50
1.17017	5.50
1.18683	5.50
1.20350	5.50
1.22017	5.50
1.23683	5.50
1.25350	5.50
1.27017	5.50
1.28683	5.50
1.30350	5.50
1.32017	5.50
1.33683	5.50
1.35350	5.50
1.37017	5.50
1.38683	5.50
1.40350	5.50
1.42017	5.50
1.43683	5.50
1.45350	5.50
1.47017	5.50
1.48683	5.50
1.50350	5.50
1.52017	5.50
1.53683	5.50
1.55350	5.50
1.57017	5.50
1.58683	5.50
1.60350	5.50
1.62017	5.50
1.63683	5.49
1.65350	5.49
1.67017	5.48
1.68683	5.47
1.70350	5.46
1.72017	5.44
1.73683	5.43
1.75350	5.42
1.77017	5.41
1.78683	5.40
1.80350	5.39
1.82017	5.38
1.83683	5.37
1.85350	5.36
1.87017	5.35
1.88683	5.34
1.90350	5.33
1.92017	5.32
1.93683	5.31
1.95350	5.31
1.97017	5.29
1.98683	5.28
2.00350	5.28
2.02017	5.27
2.03683	5.26
2.05350	5.25
2.07017	5.24
2.08683	5.23
2.10350	5.22
2.12017	5.21
2.13683	5.20
2.15350	5.19
2.17017	5.18
2.18683	5.17
2.20350	5.16
2.22017	5.15
2.23683	5.14
2.25350	5.13
2.27017	5.12
2.28683	5.12
2.30350	5.11
2.32017	5.10
2.33683	5.09
2.35350	5.08
2.37017	5.07
2.38683	5.07
2.40350	5.07
2.42017	5.07
2.43683	5.07
2.45350	5.07
2.47017	5.07
2.48683	5.07
2.50350	5.06
2.52017	5.07
2.53683	5.07
2.55350	5.07
2.57017	5.07
2.58683	5.07
2.60350	5.07
2.62017	5.07
2.63683	5.07
2.65350	5.07
2.67017	5.07
2.68683	5.07
2.70350	5.07
2.72017	5.07
2.73683	5.07
2.75350	5.07
2.77017	5.07
2.78683	5.07
2.80350	5.07
2.82017	5.07
2.83683	5.07
2.85350	5.07
2.87017	5.07
2.88683	5.06
2.90350	5.06
2.92017	5.06
2.93683	5.06
2.95350	5.06
2.97017	5.06
2.98683	5.06
3.00350	5.06
3.02017	5.06
3.03683	5.06
3.05350	5.06
3.07017	5.06
3.08683	5.06
3.10350	5.06
3.12017	5.06
3.13683	5.06
3.15350	5.06
3.17017	5.06
3.18683	5.06
3.20350	5.06
3.22017	5.06
3.23683	5.06
3.25350	5.06
3.27017	5.06
3.28683	5.06
3.30350	5.06
3.32017	5.06
3.33683	5.06
3.35350	5.06
3.37017	5.06
3.38683	5.06
3.40350	5.06
3.42017	5.06
3.43683	5.06
3.45350	5.06
3.47017	5.06
3.48683	5.06
3.50350	5.06
3.52017	5.06
3.53683	5.06
3.55350	5.06
3.57017	5.06
3.58683	5.06
3.60350	5.06
3.62017	5.06
3.63683	5.06
3.65350	5.06
3.67017	5.06
3.68683	5.06
3.70350	5.06
3.72017	5.06
3.73683	5.06
3.75350	5.06
3.77017	5.06
3.78683	5.06
3.80350	5.06
3.82017	5.06
3.83683	5.06
3.85350	5.06
3.87017	5.06
3.88683	5.06
3.90350	5.06
3.92017	5.06
3.93683	5.06
3.95350	5.06
3.97017	5.06
3.98683	5.06

[Status Trace (Linear Velocity)]
Interval(msec)	1000
# of Points	240
Start Time(min)	0.004
End Time(min)	3.987
Intensity Units	
Intensity Multiplier	1
R.Time (min)	Intensity
0.00350	39.01
0.02017	37.76
0.03683	38.00
0.05350	39.40
0.07017	40.23
0.08683	39.18
0.10350	38.99
0.12017	39.01
0.13683	39.02
0.15350	39.01
0.17017	39.01
0.18683	39.01
0.20350	39.01
0.22017	39.01
0.23683	39.01
0.25350	39.01
0.27017	39.01
0.28683	39.01
0.30350	39.01
0.32017	39.01
0.33683	39.01
0.35350	39.01
0.37017	39.01
0.38683	39.01
0.40350	39.01
0.42017	39.01
0.43683	39.01
0.45350	39.01
0.47017	39.01
0.48683	39.01
0.50350	39.01
0.52017	39.01
0.53683	39.01
0.55350	39.01
0.57017	39.01
0.58683	39.01
0.60350	39.01
0.62017	39.01
0.63683	39.01
0.65350	39.01
0.67017	39.01
0.68683	39.01
0.70350	39.01
0.72017	39.01
0.73683	39.01
0.75350	39.01
0.77017	39.01
0.78683	39.01
0.80350	39.01
0.82017	39.01
0.83683	39.01
0.85350	39.01
0.87017	39.01
0.88683	39.01
0.90350	39.01
0.92017	39.01
0.93683	39.01
0.95350	39.01
0.97017	39.01
0.98683	39.01
1.00350	39.01
1.02017	39.01
1.03683	39.01
1.05350	39.01
1.07017	39.01
1.08683	39.01
1.10350	39.01
1.12017	39.01
1.13683	39.01
1.15350	39.01
1.17017	39.01
1.18683	39.01
1.20350	39.01
1.22017	39.01
1.23683	39.01
1.25350	39.01
1.27017	39.01
1.28683	39.01
1.30350	39.01
1.32017	39.01
1.33683	39.01
1.35350	39.01
1.37017	39.01
1.38683	39.01
1.40350	39.01
1.42017	39.01
1.43683	39.01
1.45350	39.01
1.47017	39.01
1.48683	39.01
1.50350	39.01
1.52017	39.01
1.53683	39.01
1.55350	39.01
1.57017	39.01
1.58683	39.01
1.60350	39.01
1.62017	39.00
1.63683	38.98
1.65350	38.96
1.67017	38.93
1.68683	38.90
1.70350	38.87
1.72017	38.83
1.73683	38.80
1.75350	38.77
1.77017	38.73
1.78683	38.70
1.80350	38.68
1.82017	38.64
1.83683	38.61
1.85350	38.58
1.87017	38.55
1.88683	38.52
1.90350	38.49
1.92017	38.45
1.93683	38.42
1.95350	38.40
1.97017	38.36
1.98683	38.33
2.00350	38.31
2.02017	38.27
2.03683	38.24
2.05350	38.21
2.07017	38.18
2.08683	38.15
2.10350	38.13
2.12017	38.09
2.13683	38.06
2.15350	38.04
2.17017	38.00
2.18683	37.98
2.20350	37.95
2.22017	37.92
2.23683	37.89
2.25350	37.86
2.27017	37.83
2.28683	37.80
2.30350	37.77
2.32017	37.74
2.33683	37.71
2.35350	37.69
2.37017	37.66
2.38683	37.65
2.40350	37.64
2.42017	37.65
2.43683	37.65
2.45350	37.65
2.47017	37.65
2.48683	37.65
2.50350	37.62
2.52017	37.65
2.53683	37.64
2.55350	37.65
2.57017	37.64
2.58683	37.64
2.60350	37.65
2.62017	37.64
2.63683	37.64
2.65350	37.64
2.67017	37.64
2.68683	37.64
2.70350	37.64
2.72017	37.64
2.73683	37.64
2.75350	37.64
2.77017	37.64
2.78683	37.64
2.80350	37.64
2.82017	37.64
2.83683	37.64
2.85350	37.64
2.87017	37.64
2.88683	37.64
2.90350	37.64
2.92017	37.63
2.93683	37.63
2.95350	37.63
2.97017	37.63
2.98683	37.63
3.00350	37.63
3.02017	37.63
3.03683	37.63
3.05350	37.63
3.07017	37.63
3.08683	37.63
3.10350	37.63
3.12017	37.62
3.13683	37.62
3.15350	37.62
3.17017	37.62
3.18683	37.62
3.20350	37.62
3.22017	37.62
3.23683	37.62
3.25350	37.62
3.27017	37.62
3.28683	37.62
3.30350	37.62
3.32017	37.62
3.33683	37.62
3.35350	37.62
3.37017	37.62
3.38683	37.62
3.40350	37.62
3.42017	37.62
3.43683	37.62
3.45350	37.62
3.47017	37.62
3.48683	37.62
3.50350	37.62
3.52017	37.62
3.53683	37.62
3.55350	37.62
3.57017	37.62
3.58683	37.62
3.60350	37.62
3.62017	37.62
3.63683	37.62
3.65350	37.62
3.67017	37.62
3.68683	37.62
3.70350	37.62
3.72017	37.62
3.73683	37.62
3.75350	37.62
3.77017	37.62
3.78683	37.62
3.80350	37.62
3.82017	37.62
3.83683	37.62
3.85350	37.62
3.87017	37.62
3.88683	37.62
3.90350	37.62
3.92017	37.62
3.93683	37.62
3.95350	37.62
3.97017	37.62
3.98683	37.62

