[Header]
Application Name	LabSolutions
Version	5.110
Data File Name	C:\Users\User\Desktop\Junior\UIC Prairie Sampling\2023\8.2.23\080223_036.gcd
Output Date	8/31/2023
Output Time	12:43:07 PM

[File Information]
Type	Data File
Generated	8/29/2023 7:51:43 PM
Generated by	System Administrator
Modified	8/29/2023 7:58:23 PM
Modified by	System Administrator

[Sample Information]
Operator Name	System Administrator
Acquired	8/29/2023 7:54:22 PM
Sample Type	0:Unknown
Level	0
Sample Name	036
Sample ID	036
ISTD Amount1	1
ISTD Amount2	1
ISTD Amount3	1
ISTD Amount4	1
ISTD Amount5	1
ISTD Amount6	1
ISTD Amount7	1
ISTD Amount8	1
ISTD Amount9	1
ISTD Amount10	1
ISTD Amount11	1
ISTD Amount12	1
ISTD Amount13	1
ISTD Amount14	1
ISTD Amount15	1
ISTD Amount16	1
ISTD Amount17	1
ISTD Amount18	1
ISTD Amount19	1
ISTD Amount20	1
ISTD Amount21	1
ISTD Amount22	1
ISTD Amount23	1
ISTD Amount24	1
ISTD Amount25	1
ISTD Amount26	1
ISTD Amount27	1
ISTD Amount28	1
ISTD Amount29	1
ISTD Amount30	1
ISTD Amount31	1
ISTD Amount32	1
Sample Amount	1
Dilution Factor	1
Vial#	35
Injection Volume	1
Injection Count	1
Bar Code	

[Original Files]
Data File	C:\Users\User\Desktop\Junior\UIC Prairie Sampling\8.2.23\080223_036.gcd
Method File	C:\LabSolutions\Data\GHG_4min_2022\ghg3_togas_w_acet_4 min_new_int.gcm
Batch File	C:\LabSolutions\Data\BATCH FILES\080223.gcb
Report Format File	c:\LabSolutions\System\DEFAULT.lsr

[File Description]


[Configuration]
Instrument Name	C0B7VH3-Instrument1
Instrument #	1
Line #	1
# of Detectors	3
Detector ID	DET#1	DET#2	DET#3
Detector Name	FID	PTCD	ECD
# of Channels	1	1	1

[Peak Table(Ch1)]
# of Peaks	4
Peak#	R.Time	I.Time	F.Time	Area	Height	A/H	Conc.	Mark	ID#	Name	k'	Plate #	Plate Ht.	Tailing	Resolution	Sep.Factor	Area Ratio	Height Ratio	Conc. %	Norm Conc.
1	0.273	0.167	0.379	1635	236	6.927	0.000	   			0.000	29	5199.011	0.993	0.000	0.000	0	0	0.000	0.000
2	1.472	1.421	1.531	9099	4538	2.005	0.000	   	1	CO	4.392	10016	14.976	1.262	9.148	0.000	0	0	0.000	0.000
3	1.564	1.531	1.615	4336	2226	1.948	21.141	 V 	2	CH4	4.728	11649	12.876	1.103	1.570	1.076	0	0	7.597	7.597
4	1.989	1.945	2.491	1334167	643859	2.072	257.119	   	3	CO2	6.286	17720	8.465	1.303	7.226	1.330	0	0	92.403	92.403

[Peak Table(Ch2)]
# of Peaks	0

[Peak Table(Ch3)]
# of Peaks	5
Peak#	R.Time	I.Time	F.Time	Area	Height	A/H	Conc.	Mark	ID#	Name	k'	Plate #	Plate Ht.	Tailing	Resolution	Sep.Factor	Area Ratio	Height Ratio	Conc. %	Norm Conc.
1	2.458	2.436	2.506	733	279	2.626	0.000	   			0.000	12383	12.113	0.000	0.000	0.000	0	0	0.000	0.000
2	2.521	2.506	2.572	370	144	2.574	0.000	 V 			0.025	5138	29.196	0.000	0.544	0.000	0	0	0.000	0.000
3	2.620	2.572	2.708	409	107	3.821	0.000	 V 			0.066	8158	18.387	0.000	0.771	2.588	0	0	0.000	0.000
4	2.891	2.766	3.280	28393	3872	7.333	0.420	   	1	N2O	0.176	11266	13.315	0.000	2.412	2.682	0	0	100.000	100.000
5	3.371	3.280	3.874	9786	600	16.298	0.000	 V 			0.371	588	255.292	0.000	1.444	2.110	0	0	0.000	0.000

[Compound Results(Ch1)]
# of IDs	6
ID#	Name	R.Time	Area	Height	Conc.	Curve	3rd	2nd	1st	Constant	Area Ratio	Height Ratio	Conc. %	Norm Conc.
1	CO	1.472	9099	4538	0.000	Linear	0.000000e+00	0.000000e+00	0.000000e+00	0.000000e+00	0	0	0.000	0.000
2	CH4	1.564	4336	2226	21.141	Linear	0.000000e+00	0.000000e+00	2.051179e+002	0.000000e+00	0	0	7.597	7.597
3	CO2	1.989	1334167	643859	257.119	Linear	0.000000e+00	0.000000e+00	5.188919e+003	0.000000e+00	0	0	92.403	92.403
4	Ethylene	0.000	0	0	0.000	Linear	0.000000e+00	0.000000e+00	0.000000e+00	0.000000e+00	0	0	0.000	0.000
5	Acetylene	0.000	0	0	0.000	Linear	0.000000e+00	0.000000e+00	0.000000e+00	0.000000e+00	0	0	0.000	0.000
6	Ethane	0.000	0	0	0.000	Linear	0.000000e+00	0.000000e+00	0.000000e+00	0.000000e+00	0	0	0.000	0.000

[Compound Results(Ch2)]
# of IDs	5
ID#	Name	R.Time	Area	Height	Conc.	Curve	3rd	2nd	1st	Constant	Area Ratio	Height Ratio	Conc. %	Norm Conc.
1	Hydrogen	0.000	0	0	0.000	Linear	0.000000e+00	0.000000e+00	0.000000e+00	0.000000e+00	0	0	0.000	0.000
2	Oxygen	0.000	0	0	0.000	Linear	0.000000e+00	0.000000e+00	0.000000e+00	0.000000e+00	0	0	0.000	0.000
3	Nitrogen	0.000	0	0	0.000	Linear	0.000000e+00	0.000000e+00	0.000000e+00	0.000000e+00	0	0	0.000	0.000
4	Methane	0.000	0	0	0.000	Linear	0.000000e+00	0.000000e+00	0.000000e+00	0.000000e+00	0	0	0.000	0.000
5	Carbon Monoxide	0.000	0	0	0.000	Linear	0.000000e+00	0.000000e+00	0.000000e+00	0.000000e+00	0	0	0.000	0.000

[Compound Results(Ch3)]
# of IDs	2
ID#	Name	R.Time	Area	Height	Conc.	Curve	3rd	2nd	1st	Constant	Area Ratio	Height Ratio	Conc. %	Norm Conc.
1	N2O	2.891	28393	3872	0.420	Linear	0.000000e+00	0.000000e+00	6.759880e+004	0.000000e+00	0	0	100.000	100.000
2	SF6	0.000	0	0	0.000	Linear	0.000000e+00	0.000000e+00	0.000000e+00	0.000000e+00	0	0	0.000	0.000

[Group Results(Ch1)]
# of Groups	0

[Group Results(Ch2)]
# of Groups	0

[Group Results(Ch3)]
# of Groups	0

[Chromatogram (Ch1)]
Interval(msec)	220
# of Points	1091
Start Time(min)	0.002
End Time(min)	3.998
R.Time (min)	Intensity
0.00167	-29
0.00533	-28
0.00900	-26
0.01267	-28
0.01633	-32
0.02000	-34
0.02367	-33
0.02733	-30
0.03100	-27
0.03467	-22
0.03833	-18
0.04200	-15
0.04567	-17
0.04933	-21
0.05300	-27
0.05667	-31
0.06033	-35
0.06400	-38
0.06767	-39
0.07133	-39
0.07500	-36
0.07867	-34
0.08233	-33
0.08600	-33
0.08967	-33
0.09333	-30
0.09700	-26
0.10067	-24
0.10433	-22
0.10800	-19
0.11167	-15
0.11533	-10
0.11900	-6
0.12267	-2
0.12633	3
0.13000	7
0.13367	11
0.13733	10
0.14100	6
0.14467	-3
0.14833	-10
0.15200	-15
0.15567	-21
0.15933	-20
0.16300	-12
0.16667	-1
0.17033	10
0.17400	20
0.17767	27
0.18133	32
0.18500	42
0.18867	54
0.19233	64
0.19600	72
0.19967	77
0.20333	84
0.20700	96
0.21067	107
0.21433	114
0.21800	123
0.22167	136
0.22533	152
0.22900	169
0.23267	184
0.23633	196
0.24000	206
0.24367	214
0.24733	216
0.25100	217
0.25467	220
0.25833	223
0.26200	226
0.26567	231
0.26933	237
0.27300	240
0.27667	237
0.28033	231
0.28400	225
0.28767	216
0.29133	207
0.29500	196
0.29867	185
0.30233	176
0.30600	170
0.30967	167
0.31333	162
0.31700	156
0.32067	147
0.32433	137
0.32800	129
0.33167	123
0.33533	117
0.33900	109
0.34267	96
0.34633	84
0.35000	76
0.35367	70
0.35733	65
0.36100	58
0.36467	48
0.36833	35
0.37200	26
0.37567	15
0.37933	8
0.38300	5
0.38667	2
0.39033	-0
0.39400	-3
0.39767	-7
0.40133	-12
0.40500	-16
0.40867	-19
0.41233	-21
0.41600	-21
0.41967	-22
0.42333	-22
0.42700	-21
0.43067	-17
0.43433	-14
0.43800	-13
0.44167	-10
0.44533	-9
0.44900	-8
0.45267	-6
0.45633	-5
0.46000	-4
0.46367	-3
0.46733	-3
0.47100	-4
0.47467	-5
0.47833	-9
0.48200	-14
0.48567	-19
0.48933	-21
0.49300	-21
0.49667	-22
0.50033	-21
0.50400	-21
0.50767	-24
0.51133	-29
0.51500	-33
0.51867	-36
0.52233	-36
0.52600	-32
0.52967	-27
0.53333	-26
0.53700	-28
0.54067	-31
0.54433	-31
0.54800	-27
0.55167	-19
0.55533	-13
0.55900	-12
0.56267	-14
0.56633	-14
0.57000	-16
0.57367	-20
0.57733	-26
0.58100	-32
0.58467	-35
0.58833	-36
0.59200	-35
0.59567	-32
0.59933	-30
0.60300	-33
0.60667	-37
0.61033	-40
0.61400	-40
0.61767	-34
0.62133	-27
0.62500	-20
0.62867	-12
0.63233	-5
0.63600	-1
0.63967	0
0.64333	0
0.64700	-3
0.65067	-8
0.65433	-16
0.65800	-26
0.66167	-34
0.66533	-38
0.66900	-39
0.67267	-40
0.67633	-37
0.68000	-36
0.68367	-35
0.68733	-35
0.69100	-33
0.69467	-29
0.69833	-28
0.70200	-30
0.70567	-32
0.70933	-36
0.71300	-40
0.71667	-42
0.72033	-42
0.72400	-43
0.72767	-42
0.73133	-40
0.73500	-35
0.73867	-28
0.74233	-22
0.74600	-19
0.74967	-21
0.75333	-26
0.75700	-33
0.76067	-36
0.76433	-37
0.76800	-36
0.77167	-33
0.77533	-29
0.77900	-27
0.78267	-32
0.78633	-38
0.79000	-41
0.79367	-41
0.79733	-36
0.80100	-29
0.80467	-26
0.80833	-27
0.81200	-30
0.81567	-35
0.81933	-37
0.82300	-38
0.82667	-42
0.83033	-45
0.83400	-44
0.83767	-44
0.84133	-46
0.84500	-50
0.84867	-55
0.85233	-58
0.85600	-52
0.85967	-43
0.86333	-35
0.86700	-28
0.87067	-24
0.87433	-23
0.87800	-22
0.88167	-22
0.88533	-23
0.88900	-28
0.89267	-34
0.89633	-39
0.90000	-39
0.90367	-37
0.90733	-35
0.91100	-31
0.91467	-30
0.91833	-31
0.92200	-34
0.92567	-37
0.92933	-39
0.93300	-41
0.93667	-44
0.94033	-47
0.94400	-47
0.94767	-45
0.95133	-41
0.95500	-40
0.95867	-40
0.96233	-39
0.96600	-41
0.96967	-44
0.97333	-47
0.97700	-51
0.98067	-53
0.98433	-52
0.98800	-48
0.99167	-44
0.99533	-41
0.99900	-42
1.00267	-45
1.00633	-48
1.01000	-50
1.01367	-50
1.01733	-50
1.02100	-48
1.02467	-43
1.02833	-41
1.03200	-38
1.03567	-36
1.03933	-35
1.04300	-35
1.04667	-40
1.05033	-44
1.05400	-47
1.05767	-46
1.06133	-46
1.06500	-49
1.06867	-53
1.07233	-54
1.07600	-53
1.07967	-56
1.08333	-58
1.08700	-57
1.09067	-53
1.09433	-46
1.09800	-39
1.10167	-33
1.10533	-30
1.10900	-29
1.11267	-32
1.11633	-40
1.12000	-47
1.12367	-52
1.12733	-56
1.13100	-58
1.13467	-59
1.13833	-57
1.14200	-54
1.14567	-53
1.14933	-52
1.15300	-51
1.15667	-52
1.16033	-54
1.16400	-59
1.16767	-61
1.17133	-62
1.17500	-61
1.17867	-61
1.18233	-62
1.18600	-65
1.18967	-68
1.19333	-68
1.19700	-65
1.20067	-62
1.20433	-60
1.20800	-59
1.21167	-59
1.21533	-55
1.21900	-49
1.22267	-44
1.22633	-45
1.23000	-47
1.23367	-48
1.23733	-54
1.24100	-64
1.24467	-72
1.24833	-76
1.25200	-74
1.25567	-68
1.25933	-61
1.26300	-55
1.26667	-51
1.27033	-48
1.27400	-47
1.27767	-47
1.28133	-48
1.28500	-48
1.28867	-51
1.29233	-54
1.29600	-57
1.29967	-57
1.30333	-53
1.30700	-50
1.31067	-48
1.31433	-47
1.31800	-47
1.32167	-47
1.32533	-50
1.32900	-53
1.33267	-53
1.33633	-54
1.34000	-56
1.34367	-60
1.34733	-65
1.35100	-68
1.35467	-66
1.35833	-59
1.36200	-52
1.36567	-47
1.36933	-45
1.37300	-45
1.37667	-49
1.38033	-55
1.38400	-62
1.38767	-71
1.39133	-81
1.39500	-87
1.39867	-87
1.40233	-82
1.40600	-79
1.40967	-80
1.41333	-82
1.41700	-81
1.42067	-78
1.42433	-73
1.42800	-69
1.43167	-64
1.43533	-53
1.43900	-31
1.44267	13
1.44633	191
1.45000	683
1.45367	1485
1.45733	2403
1.46100	3246
1.46467	3912
1.46833	4339
1.47200	4463
1.47567	4250
1.47933	3743
1.48300	3060
1.48667	2350
1.49033	1720
1.49400	1216
1.49767	839
1.50133	569
1.50500	378
1.50867	245
1.51233	155
1.51600	95
1.51967	56
1.52333	27
1.52700	8
1.53067	3
1.53433	33
1.53800	149
1.54167	408
1.54533	797
1.54900	1236
1.55267	1635
1.55633	1942
1.56000	2127
1.56367	2156
1.56733	2014
1.57100	1725
1.57467	1362
1.57833	1002
1.58200	694
1.58567	455
1.58933	282
1.59300	160
1.59667	76
1.60033	20
1.60400	-17
1.60767	-43
1.61133	-59
1.61500	-67
1.61867	-70
1.62233	-71
1.62600	-70
1.62967	-66
1.63333	-62
1.63700	-62
1.64067	-65
1.64433	-67
1.64800	-68
1.65167	-70
1.65533	-72
1.65900	-73
1.66267	-74
1.66633	-76
1.67000	-80
1.67367	-79
1.67733	-73
1.68100	-68
1.68467	-69
1.68833	-74
1.69200	-78
1.69567	-81
1.69933	-84
1.70300	-86
1.70667	-87
1.71033	-86
1.71400	-84
1.71767	-83
1.72133	-82
1.72500	-81
1.72867	-81
1.73233	-83
1.73600	-85
1.73967	-86
1.74333	-87
1.74700	-85
1.75067	-79
1.75433	-69
1.75800	-60
1.76167	-54
1.76533	-52
1.76900	-51
1.77267	-49
1.77633	-53
1.78000	-60
1.78367	-68
1.78733	-74
1.79100	-76
1.79467	-77
1.79833	-76
1.80200	-73
1.80567	-71
1.80933	-69
1.81300	-68
1.81667	-71
1.82033	-78
1.82400	-86
1.82767	-91
1.83133	-95
1.83500	-96
1.83867	-93
1.84233	-90
1.84600	-88
1.84967	-88
1.85333	-89
1.85700	-88
1.86067	-86
1.86433	-86
1.86800	-84
1.87167	-80
1.87533	-76
1.87900	-75
1.88267	-73
1.88633	-70
1.89000	-67
1.89367	-67
1.89733	-70
1.90100	-78
1.90467	-86
1.90833	-92
1.91200	-94
1.91567	-94
1.91933	-90
1.92300	-83
1.92667	-72
1.93033	-62
1.93400	-57
1.93767	-57
1.94133	-57
1.94500	-48
1.94867	35
1.95233	550
1.95600	3037
1.95967	12021
1.96333	36603
1.96700	88671
1.97067	175221
1.97433	290235
1.97800	415137
1.98167	527233
1.98533	607490
1.98900	643834
1.99267	631977
1.99633	576938
2.00000	492188
2.00367	395105
2.00733	301340
2.01100	220862
2.01467	157419
2.01833	110341
2.02200	76851
2.02567	53689
2.02933	37947
2.03300	27340
2.03667	20202
2.04033	15371
2.04400	12063
2.04767	9760
2.05133	8123
2.05500	6935
2.05867	6049
2.06233	5363
2.06600	4816
2.06967	4374
2.07333	4012
2.07700	3704
2.08067	3440
2.08433	3210
2.08800	3008
2.09167	2833
2.09533	2678
2.09900	2541
2.10267	2417
2.10633	2305
2.11000	2200
2.11367	2101
2.11733	2011
2.12100	1928
2.12467	1848
2.12833	1771
2.13200	1698
2.13567	1629
2.13933	1565
2.14300	1508
2.14667	1453
2.15033	1404
2.15400	1359
2.15767	1317
2.16133	1276
2.16500	1235
2.16867	1198
2.17233	1163
2.17600	1126
2.17967	1088
2.18333	1053
2.18700	1024
2.19067	998
2.19433	977
2.19800	956
2.20167	935
2.20533	911
2.20900	883
2.21267	858
2.21633	841
2.22000	825
2.22367	804
2.22733	781
2.23100	759
2.23467	740
2.23833	724
2.24200	709
2.24567	693
2.24933	675
2.25300	659
2.25667	645
2.26033	633
2.26400	620
2.26767	608
2.27133	599
2.27500	592
2.27867	584
2.28233	575
2.28600	565
2.28967	552
2.29333	539
2.29700	524
2.30067	508
2.30433	494
2.30800	485
2.31167	478
2.31533	469
2.31900	460
2.32267	448
2.32633	440
2.33000	434
2.33367	427
2.33733	421
2.34100	416
2.34467	413
2.34833	411
2.35200	408
2.35567	404
2.35933	400
2.36300	392
2.36667	386
2.37033	381
2.37400	379
2.37767	374
2.38133	366
2.38500	357
2.38867	351
2.39233	346
2.39600	343
2.39967	339
2.40333	337
2.40700	335
2.41067	333
2.41433	327
2.41800	322
2.42167	318
2.42533	313
2.42900	307
2.43267	298
2.43633	288
2.44000	280
2.44367	276
2.44733	274
2.45100	276
2.45467	280
2.45833	281
2.46200	281
2.46567	278
2.46933	273
2.47300	265
2.47667	258
2.48033	254
2.48400	249
2.48767	242
2.49133	238
2.49500	236
2.49867	236
2.50233	241
2.50600	245
2.50967	246
2.51333	244
2.51700	241
2.52067	243
2.52433	249
2.52800	255
2.53167	254
2.53533	245
2.53900	234
2.54267	224
2.54633	217
2.55000	209
2.55367	203
2.55733	202
2.56100	202
2.56467	199
2.56833	196
2.57200	191
2.57567	186
2.57933	183
2.58300	183
2.58667	184
2.59033	187
2.59400	188
2.59767	190
2.60133	192
2.60500	190
2.60867	187
2.61233	185
2.61600	183
2.61967	180
2.62333	176
2.62700	168
2.63067	159
2.63433	154
2.63800	157
2.64167	164
2.64533	170
2.64900	172
2.65267	172
2.65633	169
2.66000	165
2.66367	160
2.66733	160
2.67100	161
2.67467	163
2.67833	165
2.68200	167
2.68567	168
2.68933	167
2.69300	167
2.69667	167
2.70033	166
2.70400	162
2.70767	158
2.71133	156
2.71500	154
2.71867	152
2.72233	152
2.72600	156
2.72967	162
2.73333	164
2.73700	159
2.74067	150
2.74433	140
2.74800	134
2.75167	133
2.75533	134
2.75900	138
2.76267	145
2.76633	151
2.77000	151
2.77367	149
2.77733	147
2.78100	144
2.78467	141
2.78833	138
2.79200	133
2.79567	126
2.79933	121
2.80300	120
2.80667	123
2.81033	131
2.81400	138
2.81767	144
2.82133	148
2.82500	148
2.82867	148
2.83233	149
2.83600	149
2.83967	148
2.84333	144
2.84700	136
2.85067	125
2.85433	117
2.85800	111
2.86167	108
2.86533	108
2.86900	111
2.87267	115
2.87633	119
2.88000	123
2.88367	126
2.88733	124
2.89100	121
2.89467	123
2.89833	128
2.90200	135
2.90567	136
2.90933	133
2.91300	131
2.91667	130
2.92033	129
2.92400	128
2.92767	128
2.93133	129
2.93500	129
2.93867	127
2.94233	124
2.94600	120
2.94967	116
2.95333	110
2.95700	106
2.96067	107
2.96433	112
2.96800	118
2.97167	124
2.97533	130
2.97900	133
2.98267	132
2.98633	126
2.99000	118
2.99367	109
2.99733	103
3.00100	103
3.00467	105
3.00833	106
3.01200	107
3.01567	105
3.01933	101
3.02300	97
3.02667	95
3.03033	97
3.03400	99
3.03767	101
3.04133	100
3.04500	97
3.04867	95
3.05233	95
3.05600	96
3.05967	100
3.06333	104
3.06700	104
3.07067	101
3.07433	99
3.07800	98
3.08167	100
3.08533	100
3.08900	96
3.09267	92
3.09633	91
3.10000	92
3.10367	90
3.10733	90
3.11100	90
3.11467	90
3.11833	88
3.12200	83
3.12567	78
3.12933	76
3.13300	78
3.13667	80
3.14033	81
3.14400	80
3.14767	79
3.15133	81
3.15500	81
3.15867	79
3.16233	76
3.16600	73
3.16967	73
3.17333	73
3.17700	71
3.18067	72
3.18433	73
3.18800	74
3.19167	78
3.19533	83
3.19900	88
3.20267	94
3.20633	97
3.21000	100
3.21367	101
3.21733	98
3.22100	90
3.22467	79
3.22833	71
3.23200	68
3.23567	69
3.23933	73
3.24300	78
3.24667	85
3.25033	90
3.25400	93
3.25767	97
3.26133	99
3.26500	96
3.26867	92
3.27233	90
3.27600	87
3.27967	81
3.28333	74
3.28700	71
3.29067	71
3.29433	72
3.29800	72
3.30167	73
3.30533	76
3.30900	78
3.31267	79
3.31633	77
3.32000	73
3.32367	71
3.32733	70
3.33100	70
3.33467	71
3.33833	70
3.34200	68
3.34567	69
3.34933	73
3.35300	77
3.35667	81
3.36033	82
3.36400	80
3.36767	81
3.37133	81
3.37500	76
3.37867	67
3.38233	57
3.38600	48
3.38967	41
3.39333	41
3.39700	42
3.40067	44
3.40433	49
3.40800	54
3.41167	56
3.41533	54
3.41900	48
3.42267	44
3.42633	43
3.43000	45
3.43367	49
3.43733	50
3.44100	51
3.44467	53
3.44833	55
3.45200	56
3.45567	57
3.45933	57
3.46300	55
3.46667	54
3.47033	56
3.47400	59
3.47767	59
3.48133	59
3.48500	61
3.48867	61
3.49233	62
3.49600	60
3.49967	55
3.50333	49
3.50700	47
3.51067	44
3.51433	43
3.51800	46
3.52167	51
3.52533	51
3.52900	48
3.53267	44
3.53633	39
3.54000	36
3.54367	35
3.54733	34
3.55100	35
3.55467	38
3.55833	43
3.56200	49
3.56567	54
3.56933	58
3.57300	61
3.57667	60
3.58033	56
3.58400	52
3.58767	48
3.59133	47
3.59500	49
3.59867	46
3.60233	42
3.60600	37
3.60967	32
3.61333	32
3.61700	36
3.62067	41
3.62433	45
3.62800	45
3.63167	42
3.63533	39
3.63900	39
3.64267	41
3.64633	44
3.65000	45
3.65367	45
3.65733	45
3.66100	45
3.66467	45
3.66833	43
3.67200	41
3.67567	39
3.67933	39
3.68300	38
3.68667	35
3.69033	32
3.69400	29
3.69767	27
3.70133	27
3.70500	29
3.70867	31
3.71233	32
3.71600	33
3.71967	34
3.72333	34
3.72700	36
3.73067	39
3.73433	42
3.73800	42
3.74167	39
3.74533	33
3.74900	29
3.75267	27
3.75633	26
3.76000	23
3.76367	24
3.76733	27
3.77100	32
3.77467	36
3.77833	36
3.78200	35
3.78567	30
3.78933	23
3.79300	16
3.79667	11
3.80033	8
3.80400	5
3.80767	5
3.81133	8
3.81500	14
3.81867	18
3.82233	19
3.82600	21
3.82967	25
3.83333	29
3.83700	28
3.84067	28
3.84433	28
3.84800	28
3.85167	30
3.85533	32
3.85900	36
3.86267	40
3.86633	41
3.87000	38
3.87367	36
3.87733	33
3.88100	31
3.88467	30
3.88833	31
3.89200	29
3.89567	26
3.89933	22
3.90300	15
3.90667	9
3.91033	8
3.91400	10
3.91767	7
3.92133	4
3.92500	4
3.92867	11
3.93233	17
3.93600	19
3.93967	17
3.94333	15
3.94700	13
3.95067	12
3.95433	12
3.95800	14
3.96167	15
3.96533	15
3.96900	16
3.97267	16
3.97633	14
3.98000	11
3.98367	7
3.98733	-0
3.99100	-8
3.99467	-12
3.99833	-8

[Chromatogram (Ch2)]
Interval(msec)	220
# of Points	1091
Start Time(min)	0.002
End Time(min)	3.998
R.Time (min)	Intensity
0.00167	-0
0.00533	-0
0.00900	-1
0.01267	-1
0.01633	-0
0.02000	-0
0.02367	0
0.02733	1
0.03100	1
0.03467	1
0.03833	0
0.04200	0
0.04567	0
0.04933	0
0.05300	-0
0.05667	-0
0.06033	-0
0.06400	-0
0.06767	-0
0.07133	-0
0.07500	-0
0.07867	0
0.08233	0
0.08600	0
0.08967	1
0.09333	1
0.09700	1
0.10067	1
0.10433	1
0.10800	1
0.11167	1
0.11533	1
0.11900	1
0.12267	1
0.12633	1
0.13000	2
0.13367	2
0.13733	2
0.14100	1
0.14467	1
0.14833	1
0.15200	1
0.15567	1
0.15933	1
0.16300	1
0.16667	1
0.17033	1
0.17400	1
0.17767	1
0.18133	1
0.18500	0
0.18867	0
0.19233	0
0.19600	-0
0.19967	-0
0.20333	-0
0.20700	-0
0.21067	-0
0.21433	-0
0.21800	-0
0.22167	-0
0.22533	-0
0.22900	-0
0.23267	-0
0.23633	-0
0.24000	0
0.24367	0
0.24733	0
0.25100	0
0.25467	1
0.25833	1
0.26200	1
0.26567	1
0.26933	1
0.27300	0
0.27667	0
0.28033	0
0.28400	0
0.28767	-0
0.29133	-0
0.29500	-0
0.29867	-1
0.30233	-1
0.30600	-1
0.30967	-1
0.31333	-0
0.31700	-0
0.32067	-0
0.32433	-0
0.32800	-0
0.33167	-0
0.33533	-0
0.33900	-0
0.34267	-0
0.34633	-0
0.35000	-0
0.35367	-0
0.35733	-0
0.36100	-0
0.36467	-0
0.36833	-0
0.37200	0
0.37567	0
0.37933	0
0.38300	0
0.38667	0
0.39033	-0
0.39400	-0
0.39767	-0
0.40133	-0
0.40500	-0
0.40867	-0
0.41233	-0
0.41600	-0
0.41967	-0
0.42333	0
0.42700	0
0.43067	0
0.43433	0
0.43800	-0
0.44167	-0
0.44533	-0
0.44900	-0
0.45267	-0
0.45633	-0
0.46000	-0
0.46367	-0
0.46733	-0
0.47100	-0
0.47467	0
0.47833	0
0.48200	0
0.48567	0
0.48933	0
0.49300	0
0.49667	1
0.50033	1
0.50400	1
0.50767	1
0.51133	1
0.51500	1
0.51867	1
0.52233	1
0.52600	1
0.52967	0
0.53333	0
0.53700	0
0.54067	0
0.54433	0
0.54800	0
0.55167	0
0.55533	0
0.55900	0
0.56267	0
0.56633	0
0.57000	-0
0.57367	-0
0.57733	-0
0.58100	-0
0.58467	-0
0.58833	-0
0.59200	-1
0.59567	-1
0.59933	-1
0.60300	-1
0.60667	-1
0.61033	-2
0.61400	-2
0.61767	-2
0.62133	-2
0.62500	-2
0.62867	-1
0.63233	-1
0.63600	-1
0.63967	-1
0.64333	-1
0.64700	-1
0.65067	-1
0.65433	-1
0.65800	-1
0.66167	-2
0.66533	-2
0.66900	-2
0.67267	-2
0.67633	-2
0.68000	-2
0.68367	-1
0.68733	-1
0.69100	-1
0.69467	-1
0.69833	-1
0.70200	-0
0.70567	-0
0.70933	-0
0.71300	-0
0.71667	-0
0.72033	-0
0.72400	-0
0.72767	-0
0.73133	-0
0.73500	-0
0.73867	-0
0.74233	-0
0.74600	-0
0.74967	-1
0.75333	-1
0.75700	-1
0.76067	-0
0.76433	-0
0.76800	-0
0.77167	-1
0.77533	-1
0.77900	-1
0.78267	-1
0.78633	-1
0.79000	-0
0.79367	-0
0.79733	-0
0.80100	-0
0.80467	-0
0.80833	-1
0.81200	-1
0.81567	-1
0.81933	-1
0.82300	-1
0.82667	-1
0.83033	-1
0.83400	-1
0.83767	-1
0.84133	-1
0.84500	-1
0.84867	-1
0.85233	-1
0.85600	-2
0.85967	-2
0.86333	-2
0.86700	-2
0.87067	-2
0.87433	-2
0.87800	-2
0.88167	-2
0.88533	-2
0.88900	-2
0.89267	-3
0.89633	-3
0.90000	-2
0.90367	-2
0.90733	-2
0.91100	-2
0.91467	-2
0.91833	-2
0.92200	-2
0.92567	-2
0.92933	-2
0.93300	-2
0.93667	-2
0.94033	-2
0.94400	-2
0.94767	-2
0.95133	-2
0.95500	-2
0.95867	-2
0.96233	-2
0.96600	-2
0.96967	-1
0.97333	-1
0.97700	-1
0.98067	-1
0.98433	-1
0.98800	-1
0.99167	-1
0.99533	-0
0.99900	-0
1.00267	-0
1.00633	-1
1.01000	-1
1.01367	-1
1.01733	-2
1.02100	-2
1.02467	-2
1.02833	-2
1.03200	-2
1.03567	-3
1.03933	-2
1.04300	-2
1.04667	-2
1.05033	-2
1.05400	-2
1.05767	-2
1.06133	-2
1.06500	-2
1.06867	-2
1.07233	-2
1.07600	-2
1.07967	-2
1.08333	-2
1.08700	-2
1.09067	-2
1.09433	-2
1.09800	-2
1.10167	-2
1.10533	-1
1.10900	-1
1.11267	-1
1.11633	-2
1.12000	-2
1.12367	-2
1.12733	-2
1.13100	-2
1.13467	-2
1.13833	-2
1.14200	-3
1.14567	-3
1.14933	-3
1.15300	-3
1.15667	-3
1.16033	-3
1.16400	-3
1.16767	-3
1.17133	-3
1.17500	-3
1.17867	-3
1.18233	-3
1.18600	-3
1.18967	-2
1.19333	-2
1.19700	-2
1.20067	-2
1.20433	-3
1.20800	-3
1.21167	-3
1.21533	-3
1.21900	-3
1.22267	-3
1.22633	-3
1.23000	-3
1.23367	-3
1.23733	-2
1.24100	-2
1.24467	-2
1.24833	-3
1.25200	-3
1.25567	-3
1.25933	-3
1.26300	-3
1.26667	-3
1.27033	-3
1.27400	-3
1.27767	-3
1.28133	-3
1.28500	-3
1.28867	-2
1.29233	-2
1.29600	-2
1.29967	-2
1.30333	-2
1.30700	-2
1.31067	-2
1.31433	-2
1.31800	-2
1.32167	-2
1.32533	-2
1.32900	-2
1.33267	-2
1.33633	-3
1.34000	-3
1.34367	-3
1.34733	-3
1.35100	-3
1.35467	-3
1.35833	-3
1.36200	-3
1.36567	-3
1.36933	-2
1.37300	-2
1.37667	-2
1.38033	-2
1.38400	-2
1.38767	-2
1.39133	-2
1.39500	-2
1.39867	-2
1.40233	-2
1.40600	-2
1.40967	-2
1.41333	-3
1.41700	-3
1.42067	-3
1.42433	-3
1.42800	-3
1.43167	-3
1.43533	-3
1.43900	-3
1.44267	-3
1.44633	-3
1.45000	-3
1.45367	-3
1.45733	-3
1.46100	-2
1.46467	-2
1.46833	-2
1.47200	-2
1.47567	-2
1.47933	-2
1.48300	-2
1.48667	-2
1.49033	-2
1.49400	-2
1.49767	-2
1.50133	-2
1.50500	-2
1.50867	-2
1.51233	-2
1.51600	-2
1.51967	-2
1.52333	-3
1.52700	-3
1.53067	-3
1.53433	-3
1.53800	-4
1.54167	-4
1.54533	-3
1.54900	-3
1.55267	-3
1.55633	-3
1.56000	-3
1.56367	-3
1.56733	-3
1.57100	-3
1.57467	-3
1.57833	-4
1.58200	-4
1.58567	-4
1.58933	-4
1.59300	-5
1.59667	-5
1.60033	-6
1.60400	-6
1.60767	-7
1.61133	-8
1.61500	-10
1.61867	-11
1.62233	-14
1.62600	-16
1.62967	-19
1.63333	-22
1.63700	-26
1.64067	-29
1.64433	-33
1.64800	-36
1.65167	-39
1.65533	-42
1.65900	-46
1.66267	-49
1.66633	-53
1.67000	-57
1.67367	-61
1.67733	-66
1.68100	-70
1.68467	-75
1.68833	-78
1.69200	-82
1.69567	-85
1.69933	-87
1.70300	-89
1.70667	-90
1.71033	-91
1.71400	-92
1.71767	-93
1.72133	-94
1.72500	-94
1.72867	-95
1.73233	-96
1.73600	-96
1.73967	-97
1.74333	-97
1.74700	-97
1.75067	-97
1.75433	-97
1.75800	-97
1.76167	-97
1.76533	-97
1.76900	-97
1.77267	-98
1.77633	-98
1.78000	-99
1.78367	-100
1.78733	-100
1.79100	-100
1.79467	-100
1.79833	-99
1.80200	-99
1.80567	-99
1.80933	-99
1.81300	-99
1.81667	-100
1.82033	-101
1.82400	-101
1.82767	-101
1.83133	-101
1.83500	-101
1.83867	-101
1.84233	-100
1.84600	-99
1.84967	-99
1.85333	-99
1.85700	-98
1.86067	-99
1.86433	-99
1.86800	-99
1.87167	-100
1.87533	-99
1.87900	-99
1.88267	-99
1.88633	-98
1.89000	-98
1.89367	-98
1.89733	-97
1.90100	-97
1.90467	-97
1.90833	-97
1.91200	-97
1.91567	-96
1.91933	-96
1.92300	-95
1.92667	-95
1.93033	-94
1.93400	-94
1.93767	-94
1.94133	-94
1.94500	-95
1.94867	-96
1.95233	-96
1.95600	-96
1.95967	-96
1.96333	-96
1.96700	-95
1.97067	-94
1.97433	-94
1.97800	-93
1.98167	-93
1.98533	-92
1.98900	-92
1.99267	-92
1.99633	-92
2.00000	-91
2.00367	-91
2.00733	-91
2.01100	-90
2.01467	-90
2.01833	-90
2.02200	-90
2.02567	-90
2.02933	-90
2.03300	-90
2.03667	-90
2.04033	-90
2.04400	-90
2.04767	-90
2.05133	-89
2.05500	-89
2.05867	-88
2.06233	-87
2.06600	-86
2.06967	-86
2.07333	-85
2.07700	-85
2.08067	-85
2.08433	-85
2.08800	-84
2.09167	-83
2.09533	-83
2.09900	-82
2.10267	-82
2.10633	-82
2.11000	-81
2.11367	-81
2.11733	-81
2.12100	-80
2.12467	-80
2.12833	-81
2.13200	-81
2.13567	-81
2.13933	-81
2.14300	-81
2.14667	-81
2.15033	-81
2.15400	-81
2.15767	-81
2.16133	-81
2.16500	-81
2.16867	-81
2.17233	-81
2.17600	-81
2.17967	-81
2.18333	-80
2.18700	-80
2.19067	-79
2.19433	-78
2.19800	-77
2.20167	-76
2.20533	-75
2.20900	-75
2.21267	-75
2.21633	-75
2.22000	-75
2.22367	-75
2.22733	-75
2.23100	-74
2.23467	-74
2.23833	-74
2.24200	-74
2.24567	-74
2.24933	-75
2.25300	-75
2.25667	-75
2.26033	-75
2.26400	-75
2.26767	-75
2.27133	-74
2.27500	-73
2.27867	-72
2.28233	-71
2.28600	-70
2.28967	-70
2.29333	-70
2.29700	-70
2.30067	-70
2.30433	-70
2.30800	-69
2.31167	-69
2.31533	-68
2.31900	-67
2.32267	-67
2.32633	-66
2.33000	-66
2.33367	-65
2.33733	-65
2.34100	-65
2.34467	-66
2.34833	-66
2.35200	-67
2.35567	-67
2.35933	-67
2.36300	-67
2.36667	-65
2.37033	-63
2.37400	-60
2.37767	-57
2.38133	-53
2.38500	-49
2.38867	-44
2.39233	-40
2.39600	-35
2.39967	-30
2.40333	-26
2.40700	-21
2.41067	-17
2.41433	-14
2.41800	-12
2.42167	-10
2.42533	-8
2.42900	-6
2.43267	-4
2.43633	-2
2.44000	-0
2.44367	2
2.44733	3
2.45100	4
2.45467	6
2.45833	7
2.46200	8
2.46567	9
2.46933	10
2.47300	11
2.47667	12
2.48033	12
2.48400	12
2.48767	13
2.49133	13
2.49500	13
2.49867	14
2.50233	15
2.50600	15
2.50967	16
2.51333	17
2.51700	17
2.52067	17
2.52433	17
2.52800	17
2.53167	17
2.53533	17
2.53900	17
2.54267	17
2.54633	16
2.55000	16
2.55367	15
2.55733	14
2.56100	12
2.56467	11
2.56833	11
2.57200	10
2.57567	10
2.57933	11
2.58300	12
2.58667	12
2.59033	13
2.59400	14
2.59767	15
2.60133	16
2.60500	16
2.60867	16
2.61233	17
2.61600	17
2.61967	18
2.62333	18
2.62700	19
2.63067	19
2.63433	19
2.63800	19
2.64167	19
2.64533	19
2.64900	19
2.65267	19
2.65633	19
2.66000	19
2.66367	20
2.66733	20
2.67100	21
2.67467	21
2.67833	22
2.68200	22
2.68567	23
2.68933	23
2.69300	23
2.69667	23
2.70033	23
2.70400	23
2.70767	23
2.71133	23
2.71500	24
2.71867	24
2.72233	25
2.72600	25
2.72967	26
2.73333	26
2.73700	27
2.74067	28
2.74433	28
2.74800	29
2.75167	29
2.75533	30
2.75900	30
2.76267	31
2.76633	31
2.77000	31
2.77367	31
2.77733	30
2.78100	30
2.78467	29
2.78833	28
2.79200	27
2.79567	27
2.79933	26
2.80300	26
2.80667	26
2.81033	26
2.81400	26
2.81767	27
2.82133	27
2.82500	27
2.82867	27
2.83233	28
2.83600	28
2.83967	28
2.84333	28
2.84700	28
2.85067	28
2.85433	27
2.85800	26
2.86167	23
2.86533	19
2.86900	12
2.87267	1
2.87633	-14
2.88000	-33
2.88367	-58
2.88733	-89
2.89100	-125
2.89467	-166
2.89833	-212
2.90200	-263
2.90567	-317
2.90933	-376
2.91300	-436
2.91667	-499
2.92033	-564
2.92400	-628
2.92767	-693
2.93133	-755
2.93500	-815
2.93867	-872
2.94233	-926
2.94600	-980
2.94967	-1035
2.95333	-1081
2.95700	-1110
2.96067	-1116
2.96433	-1096
2.96800	-1054
2.97167	-994
2.97533	-922
2.97900	-843
2.98267	-761
2.98633	-680
2.99000	-603
2.99367	-530
2.99733	-463
3.00100	-402
3.00467	-347
3.00833	-298
3.01200	-255
3.01567	-217
3.01933	-184
3.02300	-156
3.02667	-131
3.03033	-110
3.03400	-91
3.03767	-76
3.04133	-62
3.04500	-50
3.04867	-41
3.05233	-32
3.05600	-25
3.05967	-19
3.06333	-14
3.06700	-9
3.07067	-6
3.07433	-2
3.07800	1
3.08167	3
3.08533	5
3.08900	7
3.09267	9
3.09633	10
3.10000	11
3.10367	12
3.10733	13
3.11100	14
3.11467	15
3.11833	16
3.12200	16
3.12567	17
3.12933	18
3.13300	18
3.13667	19
3.14033	19
3.14400	19
3.14767	20
3.15133	20
3.15500	20
3.15867	21
3.16233	21
3.16600	22
3.16967	22
3.17333	22
3.17700	23
3.18067	23
3.18433	23
3.18800	23
3.19167	24
3.19533	24
3.19900	24
3.20267	24
3.20633	24
3.21000	24
3.21367	24
3.21733	24
3.22100	24
3.22467	24
3.22833	24
3.23200	24
3.23567	24
3.23933	24
3.24300	25
3.24667	25
3.25033	26
3.25400	26
3.25767	26
3.26133	26
3.26500	27
3.26867	27
3.27233	27
3.27600	27
3.27967	27
3.28333	27
3.28700	27
3.29067	27
3.29433	27
3.29800	27
3.30167	27
3.30533	27
3.30900	27
3.31267	27
3.31633	28
3.32000	28
3.32367	28
3.32733	29
3.33100	29
3.33467	29
3.33833	29
3.34200	30
3.34567	30
3.34933	30
3.35300	30
3.35667	30
3.36033	31
3.36400	31
3.36767	31
3.37133	31
3.37500	31
3.37867	31
3.38233	31
3.38600	31
3.38967	31
3.39333	31
3.39700	31
3.40067	31
3.40433	30
3.40800	30
3.41167	30
3.41533	30
3.41900	30
3.42267	30
3.42633	30
3.43000	30
3.43367	30
3.43733	30
3.44100	30
3.44467	30
3.44833	30
3.45200	30
3.45567	30
3.45933	30
3.46300	31
3.46667	31
3.47033	31
3.47400	31
3.47767	31
3.48133	31
3.48500	31
3.48867	30
3.49233	30
3.49600	31
3.49967	31
3.50333	31
3.50700	31
3.51067	30
3.51433	30
3.51800	30
3.52167	30
3.52533	30
3.52900	30
3.53267	30
3.53633	29
3.54000	29
3.54367	29
3.54733	29
3.55100	29
3.55467	30
3.55833	30
3.56200	30
3.56567	30
3.56933	30
3.57300	30
3.57667	30
3.58033	30
3.58400	30
3.58767	30
3.59133	30
3.59500	30
3.59867	30
3.60233	30
3.60600	30
3.60967	29
3.61333	29
3.61700	29
3.62067	29
3.62433	29
3.62800	29
3.63167	29
3.63533	30
3.63900	30
3.64267	30
3.64633	30
3.65000	30
3.65367	31
3.65733	31
3.66100	31
3.66467	31
3.66833	31
3.67200	31
3.67567	31
3.67933	31
3.68300	31
3.68667	30
3.69033	30
3.69400	30
3.69767	30
3.70133	30
3.70500	30
3.70867	30
3.71233	30
3.71600	30
3.71967	30
3.72333	30
3.72700	30
3.73067	30
3.73433	30
3.73800	30
3.74167	30
3.74533	30
3.74900	30
3.75267	30
3.75633	30
3.76000	30
3.76367	30
3.76733	30
3.77100	30
3.77467	30
3.77833	30
3.78200	30
3.78567	30
3.78933	30
3.79300	30
3.79667	30
3.80033	29
3.80400	29
3.80767	29
3.81133	29
3.81500	29
3.81867	29
3.82233	29
3.82600	30
3.82967	30
3.83333	30
3.83700	30
3.84067	30
3.84433	30
3.84800	30
3.85167	30
3.85533	30
3.85900	29
3.86267	29
3.86633	29
3.87000	29
3.87367	29
3.87733	29
3.88100	29
3.88467	29
3.88833	29
3.89200	29
3.89567	29
3.89933	29
3.90300	29
3.90667	29
3.91033	30
3.91400	30
3.91767	30
3.92133	29
3.92500	29
3.92867	29
3.93233	29
3.93600	29
3.93967	29
3.94333	29
3.94700	29
3.95067	29
3.95433	29
3.95800	29
3.96167	29
3.96533	29
3.96900	29
3.97267	30
3.97633	30
3.98000	30
3.98367	30
3.98733	30
3.99100	30
3.99467	30
3.99833	30

[Chromatogram (Ch3)]
Interval(msec)	220
# of Points	1091
Start Time(min)	0.002
End Time(min)	3.998
R.Time (min)	Intensity
0.00167	0
0.00533	-1
0.00900	-3
0.01267	-3
0.01633	-1
0.02000	2
0.02367	2
0.02733	-2
0.03100	-6
0.03467	-9
0.03833	-12
0.04200	-11
0.04567	-10
0.04933	-10
0.05300	-10
0.05667	-9
0.06033	-7
0.06400	-7
0.06767	-7
0.07133	-6
0.07500	-5
0.07867	-3
0.08233	-1
0.08600	-0
0.08967	-1
0.09333	-1
0.09700	-3
0.10067	-4
0.10433	-4
0.10800	-3
0.11167	-3
0.11533	-3
0.11900	-6
0.12267	-7
0.12633	-8
0.13000	-9
0.13367	-9
0.13733	-8
0.14100	-9
0.14467	-9
0.14833	-8
0.15200	-8
0.15567	-5
0.15933	-1
0.16300	1
0.16667	3
0.17033	4
0.17400	4
0.17767	4
0.18133	5
0.18500	5
0.18867	5
0.19233	4
0.19600	2
0.19967	3
0.20333	1
0.20700	-1
0.21067	-1
0.21433	-1
0.21800	-1
0.22167	-0
0.22533	0
0.22900	-2
0.23267	-4
0.23633	-5
0.24000	-7
0.24367	-9
0.24733	-9
0.25100	-8
0.25467	-8
0.25833	-7
0.26200	-8
0.26567	-11
0.26933	-11
0.27300	-10
0.27667	-10
0.28033	-8
0.28400	-7
0.28767	-7
0.29133	-8
0.29500	-7
0.29867	-5
0.30233	-5
0.30600	-5
0.30967	-4
0.31333	-0
0.31700	1
0.32067	-1
0.32433	-3
0.32800	-4
0.33167	-3
0.33533	-2
0.33900	-3
0.34267	-3
0.34633	-4
0.35000	-5
0.35367	-5
0.35733	-5
0.36100	-5
0.36467	-7
0.36833	-7
0.37200	-6
0.37567	-3
0.37933	-2
0.38300	-1
0.38667	-1
0.39033	-1
0.39400	0
0.39767	2
0.40133	3
0.40500	3
0.40867	2
0.41233	1
0.41600	0
0.41967	-2
0.42333	-3
0.42700	-4
0.43067	-5
0.43433	-6
0.43800	-7
0.44167	-6
0.44533	-6
0.44900	-4
0.45267	-2
0.45633	-1
0.46000	-2
0.46367	-2
0.46733	-3
0.47100	-4
0.47467	-5
0.47833	-6
0.48200	-7
0.48567	-8
0.48933	-5
0.49300	-0
0.49667	1
0.50033	1
0.50400	1
0.50767	1
0.51133	0
0.51500	-0
0.51867	-1
0.52233	-2
0.52600	-2
0.52967	-3
0.53333	-4
0.53700	-6
0.54067	-6
0.54433	-6
0.54800	-6
0.55167	-5
0.55533	-5
0.55900	-1
0.56267	1
0.56633	3
0.57000	3
0.57367	2
0.57733	2
0.58100	1
0.58467	0
0.58833	-0
0.59200	-1
0.59567	1
0.59933	2
0.60300	2
0.60667	0
0.61033	0
0.61400	2
0.61767	2
0.62133	1
0.62500	3
0.62867	2
0.63233	0
0.63600	-1
0.63967	-2
0.64333	-2
0.64700	-2
0.65067	-2
0.65433	-1
0.65800	-1
0.66167	-2
0.66533	-2
0.66900	-2
0.67267	-4
0.67633	-4
0.68000	-1
0.68367	-0
0.68733	-2
0.69100	-2
0.69467	-0
0.69833	-0
0.70200	0
0.70567	-0
0.70933	-0
0.71300	-1
0.71667	-1
0.72033	-1
0.72400	-3
0.72767	-2
0.73133	1
0.73500	4
0.73867	5
0.74233	5
0.74600	7
0.74967	7
0.75333	5
0.75700	4
0.76067	5
0.76433	2
0.76800	0
0.77167	2
0.77533	4
0.77900	5
0.78267	5
0.78633	3
0.79000	1
0.79367	4
0.79733	7
0.80100	6
0.80467	3
0.80833	2
0.81200	1
0.81567	1
0.81933	-2
0.82300	-4
0.82667	-3
0.83033	-0
0.83400	2
0.83767	3
0.84133	4
0.84500	5
0.84867	4
0.85233	4
0.85600	4
0.85967	3
0.86333	2
0.86700	1
0.87067	2
0.87433	3
0.87800	5
0.88167	6
0.88533	5
0.88900	2
0.89267	1
0.89633	-1
0.90000	-4
0.90367	-6
0.90733	-6
0.91100	-5
0.91467	-2
0.91833	-1
0.92200	0
0.92567	2
0.92933	4
0.93300	5
0.93667	6
0.94033	7
0.94400	11
0.94767	12
0.95133	11
0.95500	12
0.95867	12
0.96233	11
0.96600	9
0.96967	9
0.97333	9
0.97700	7
0.98067	6
0.98433	7
0.98800	8
0.99167	7
0.99533	7
0.99900	7
1.00267	8
1.00633	9
1.01000	10
1.01367	10
1.01733	7
1.02100	5
1.02467	3
1.02833	2
1.03200	3
1.03567	5
1.03933	5
1.04300	3
1.04667	2
1.05033	5
1.05400	8
1.05767	9
1.06133	9
1.06500	9
1.06867	9
1.07233	11
1.07600	12
1.07967	13
1.08333	12
1.08700	11
1.09067	10
1.09433	10
1.09800	11
1.10167	12
1.10533	13
1.10900	12
1.11267	10
1.11633	10
1.12000	9
1.12367	10
1.12733	11
1.13100	10
1.13467	10
1.13833	9
1.14200	9
1.14567	8
1.14933	6
1.15300	7
1.15667	8
1.16033	7
1.16400	6
1.16767	6
1.17133	6
1.17500	7
1.17867	6
1.18233	6
1.18600	6
1.18967	5
1.19333	8
1.19700	10
1.20067	10
1.20433	10
1.20800	10
1.21167	9
1.21533	9
1.21900	9
1.22267	8
1.22633	9
1.23000	11
1.23367	13
1.23733	13
1.24100	13
1.24467	13
1.24833	14
1.25200	13
1.25567	13
1.25933	12
1.26300	12
1.26667	12
1.27033	9
1.27400	7
1.27767	7
1.28133	8
1.28500	9
1.28867	11
1.29233	12
1.29600	13
1.29967	14
1.30333	15
1.30700	16
1.31067	15
1.31433	15
1.31800	14
1.32167	13
1.32533	12
1.32900	10
1.33267	11
1.33633	10
1.34000	8
1.34367	6
1.34733	4
1.35100	4
1.35467	6
1.35833	7
1.36200	7
1.36567	6
1.36933	6
1.37300	9
1.37667	9
1.38033	8
1.38400	8
1.38767	6
1.39133	5
1.39500	6
1.39867	8
1.40233	9
1.40600	8
1.40967	8
1.41333	8
1.41700	9
1.42067	11
1.42433	15
1.42800	16
1.43167	14
1.43533	13
1.43900	12
1.44267	11
1.44633	9
1.45000	10
1.45367	11
1.45733	13
1.46100	13
1.46467	11
1.46833	10
1.47200	9
1.47567	10
1.47933	10
1.48300	9
1.48667	8
1.49033	6
1.49400	7
1.49767	9
1.50133	9
1.50500	8
1.50867	8
1.51233	9
1.51600	9
1.51967	8
1.52333	8
1.52700	8
1.53067	7
1.53433	6
1.53800	5
1.54167	7
1.54533	11
1.54900	13
1.55267	12
1.55633	11
1.56000	11
1.56367	10
1.56733	9
1.57100	9
1.57467	9
1.57833	7
1.58200	7
1.58567	8
1.58933	11
1.59300	14
1.59667	14
1.60033	12
1.60400	11
1.60767	10
1.61133	9
1.61500	8
1.61867	11
1.62233	14
1.62600	15
1.62967	14
1.63333	14
1.63700	14
1.64067	12
1.64433	10
1.64800	12
1.65167	13
1.65533	13
1.65900	13
1.66267	11
1.66633	10
1.67000	11
1.67367	13
1.67733	14
1.68100	13
1.68467	14
1.68833	15
1.69200	15
1.69567	15
1.69933	15
1.70300	15
1.70667	14
1.71033	15
1.71400	19
1.71767	20
1.72133	20
1.72500	22
1.72867	22
1.73233	19
1.73600	18
1.73967	17
1.74333	18
1.74700	18
1.75067	18
1.75433	16
1.75800	16
1.76167	18
1.76533	17
1.76900	15
1.77267	15
1.77633	16
1.78000	18
1.78367	19
1.78733	18
1.79100	19
1.79467	19
1.79833	21
1.80200	23
1.80567	24
1.80933	23
1.81300	23
1.81667	23
1.82033	23
1.82400	23
1.82767	25
1.83133	25
1.83500	24
1.83867	23
1.84233	21
1.84600	22
1.84967	23
1.85333	25
1.85700	27
1.86067	27
1.86433	27
1.86800	28
1.87167	27
1.87533	26
1.87900	26
1.88267	26
1.88633	29
1.89000	31
1.89367	35
1.89733	36
1.90100	35
1.90467	32
1.90833	31
1.91200	31
1.91567	30
1.91933	29
1.92300	29
1.92667	30
1.93033	30
1.93400	32
1.93767	36
1.94133	37
1.94500	38
1.94867	39
1.95233	39
1.95600	37
1.95967	39
1.96333	40
1.96700	41
1.97067	41
1.97433	40
1.97800	40
1.98167	39
1.98533	38
1.98900	40
1.99267	43
1.99633	45
2.00000	46
2.00367	48
2.00733	48
2.01100	48
2.01467	48
2.01833	50
2.02200	50
2.02567	51
2.02933	52
2.03300	53
2.03667	52
2.04033	54
2.04400	54
2.04767	54
2.05133	54
2.05500	53
2.05867	53
2.06233	55
2.06600	55
2.06967	55
2.07333	55
2.07700	58
2.08067	60
2.08433	59
2.08800	59
2.09167	59
2.09533	60
2.09900	62
2.10267	64
2.10633	65
2.11000	66
2.11367	65
2.11733	65
2.12100	67
2.12467	69
2.12833	70
2.13200	70
2.13567	71
2.13933	69
2.14300	67
2.14667	65
2.15033	64
2.15400	66
2.15767	68
2.16133	71
2.16500	73
2.16867	73
2.17233	72
2.17600	72
2.17967	72
2.18333	72
2.18700	75
2.19067	77
2.19433	77
2.19800	79
2.20167	82
2.20533	83
2.20900	84
2.21267	87
2.21633	88
2.22000	85
2.22367	84
2.22733	84
2.23100	84
2.23467	84
2.23833	84
2.24200	84
2.24567	84
2.24933	85
2.25300	85
2.25667	87
2.26033	88
2.26400	89
2.26767	89
2.27133	90
2.27500	91
2.27867	91
2.28233	91
2.28600	92
2.28967	92
2.29333	92
2.29700	91
2.30067	92
2.30433	94
2.30800	93
2.31167	94
2.31533	96
2.31900	97
2.32267	98
2.32633	99
2.33000	101
2.33367	100
2.33733	101
2.34100	103
2.34467	105
2.34833	107
2.35200	108
2.35567	107
2.35933	106
2.36300	102
2.36667	100
2.37033	100
2.37400	98
2.37767	95
2.38133	96
2.38500	97
2.38867	96
2.39233	96
2.39600	101
2.39967	106
2.40333	112
2.40700	116
2.41067	119
2.41433	120
2.41800	120
2.42167	122
2.42533	122
2.42900	121
2.43267	122
2.43633	124
2.44000	130
2.44367	175
2.44733	256
2.45100	331
2.45467	383
2.45833	404
2.46200	398
2.46567	384
2.46933	370
2.47300	361
2.47667	351
2.48033	333
2.48400	313
2.48767	293
2.49133	275
2.49500	260
2.49867	251
2.50233	247
2.50600	249
2.50967	255
2.51333	262
2.51700	268
2.52067	269
2.52433	265
2.52800	257
2.53167	246
2.53533	231
2.53900	218
2.54267	207
2.54633	197
2.55000	190
2.55367	181
2.55733	175
2.56100	173
2.56467	170
2.56833	171
2.57200	171
2.57567	173
2.57933	174
2.58300	177
2.58667	183
2.59033	190
2.59400	195
2.59767	199
2.60133	207
2.60500	215
2.60867	221
2.61233	229
2.61600	234
2.61967	235
2.62333	232
2.62700	230
2.63067	227
2.63433	220
2.63800	209
2.64167	198
2.64533	191
2.64900	184
2.65267	175
2.65633	166
2.66000	158
2.66367	151
2.66733	145
2.67100	137
2.67467	133
2.67833	132
2.68200	132
2.68567	133
2.68933	132
2.69300	132
2.69667	131
2.70033	132
2.70400	132
2.70767	129
2.71133	127
2.71500	124
2.71867	122
2.72233	126
2.72600	130
2.72967	132
2.73333	134
2.73700	135
2.74067	137
2.74433	137
2.74800	137
2.75167	137
2.75533	138
2.75900	141
2.76267	142
2.76633	145
2.77000	148
2.77367	150
2.77733	153
2.78100	159
2.78467	165
2.78833	166
2.79200	167
2.79567	169
2.79933	170
2.80300	172
2.80667	175
2.81033	177
2.81400	177
2.81767	178
2.82133	181
2.82500	186
2.82867	188
2.83233	189
2.83600	198
2.83967	218
2.84333	256
2.84700	327
2.85067	454
2.85433	654
2.85800	938
2.86167	1309
2.86533	1752
2.86900	2240
2.87267	2736
2.87633	3195
2.88000	3579
2.88367	3862
2.88733	4028
2.89100	4062
2.89467	3929
2.89833	3688
2.90200	3448
2.90567	3242
2.90933	3059
2.91300	2889
2.91667	2728
2.92033	2577
2.92400	2434
2.92767	2301
2.93133	2178
2.93500	2066
2.93867	1961
2.94233	1865
2.94600	1777
2.94967	1699
2.95333	1626
2.95700	1560
2.96067	1500
2.96433	1445
2.96800	1394
2.97167	1348
2.97533	1310
2.97900	1278
2.98267	1246
2.98633	1218
2.99000	1193
2.99367	1172
2.99733	1152
3.00100	1132
3.00467	1116
3.00833	1098
3.01200	1080
3.01567	1066
3.01933	1054
3.02300	1042
3.02667	1031
3.03033	1022
3.03400	1012
3.03767	1001
3.04133	991
3.04500	984
3.04867	976
3.05233	969
3.05600	961
3.05967	956
3.06333	951
3.06700	946
3.07067	944
3.07433	942
3.07800	941
3.08167	939
3.08533	935
3.08900	930
3.09267	927
3.09633	925
3.10000	924
3.10367	922
3.10733	920
3.11100	920
3.11467	920
3.11833	919
3.12200	918
3.12567	918
3.12933	913
3.13300	909
3.13667	907
3.14033	906
3.14400	907
3.14767	909
3.15133	908
3.15500	907
3.15867	906
3.16233	902
3.16600	896
3.16967	890
3.17333	887
3.17700	884
3.18067	884
3.18433	884
3.18800	881
3.19167	877
3.19533	874
3.19900	870
3.20267	866
3.20633	861
3.21000	855
3.21367	851
3.21733	849
3.22100	848
3.22467	849
3.22833	847
3.23200	842
3.23567	837
3.23933	833
3.24300	828
3.24667	823
3.25033	821
3.25400	821
3.25767	822
3.26133	823
3.26500	823
3.26867	823
3.27233	821
3.27600	820
3.27967	821
3.28333	822
3.28700	826
3.29067	828
3.29433	832
3.29800	836
3.30167	840
3.30533	842
3.30900	845
3.31267	852
3.31633	860
3.32000	865
3.32367	868
3.32733	875
3.33100	884
3.33467	892
3.33833	899
3.34200	909
3.34567	919
3.34933	927
3.35300	933
3.35667	938
3.36033	944
3.36400	952
3.36767	959
3.37133	964
3.37500	965
3.37867	965
3.38233	965
3.38600	964
3.38967	963
3.39333	963
3.39700	963
3.40067	960
3.40433	955
3.40800	947
3.41167	938
3.41533	929
3.41900	922
3.42267	914
3.42633	906
3.43000	896
3.43367	885
3.43733	875
3.44100	868
3.44467	859
3.44833	849
3.45200	839
3.45567	827
3.45933	818
3.46300	809
3.46667	802
3.47033	793
3.47400	783
3.47767	772
3.48133	762
3.48500	755
3.48867	750
3.49233	746
3.49600	743
3.49967	736
3.50333	731
3.50700	726
3.51067	721
3.51433	714
3.51800	708
3.52167	704
3.52533	702
3.52900	699
3.53267	697
3.53633	694
3.54000	691
3.54367	689
3.54733	688
3.55100	686
3.55467	684
3.55833	683
3.56200	680
3.56567	674
3.56933	673
3.57300	670
3.57667	667
3.58033	665
3.58400	662
3.58767	659
3.59133	659
3.59500	659
3.59867	656
3.60233	651
3.60600	649
3.60967	648
3.61333	645
3.61700	645
3.62067	644
3.62433	640
3.62800	634
3.63167	631
3.63533	629
3.63900	627
3.64267	625
3.64633	621
3.65000	617
3.65367	617
3.65733	617
3.66100	616
3.66467	613
3.66833	611
3.67200	608
3.67567	606
3.67933	606
3.68300	606
3.68667	602
3.69033	599
3.69400	598
3.69767	595
3.70133	596
3.70500	598
3.70867	597
3.71233	596
3.71600	594
3.71967	591
3.72333	590
3.72700	590
3.73067	590
3.73433	591
3.73800	590
3.74167	588
3.74533	588
3.74900	586
3.75267	584
3.75633	583
3.76000	581
3.76367	578
3.76733	576
3.77100	578
3.77467	579
3.77833	578
3.78200	577
3.78567	577
3.78933	578
3.79300	575
3.79667	574
3.80033	571
3.80400	569
3.80767	566
3.81133	565
3.81500	563
3.81867	562
3.82233	559
3.82600	557
3.82967	553
3.83333	551
3.83700	550
3.84067	551
3.84433	551
3.84800	550
3.85167	548
3.85533	546
3.85900	545
3.86267	544
3.86633	546
3.87000	545
3.87367	545
3.87733	547
3.88100	542
3.88467	539
3.88833	538
3.89200	536
3.89567	535
3.89933	534
3.90300	538
3.90667	541
3.91033	541
3.91400	538
3.91767	535
3.92133	535
3.92500	534
3.92867	533
3.93233	531
3.93600	530
3.93967	532
3.94333	530
3.94700	527
3.95067	527
3.95433	525
3.95800	523
3.96167	522
3.96533	520
3.96900	520
3.97267	519
3.97633	518
3.98000	516
3.98367	513
3.98733	511
3.99100	512
3.99467	512
3.99833	506

[Status Trace (Column Oven Temperature)]
Interval(msec)	1000
# of Points	240
Start Time(min)	0.003
End Time(min)	3.987
Intensity Units	
Intensity Multiplier	1
R.Time (min)	Intensity
0.00337	35.04
0.02003	35.04
0.03670	35.05
0.05337	35.05
0.07003	35.05
0.08670	35.04
0.10337	35.04
0.12003	35.03
0.13670	35.03
0.15337	35.03
0.17003	35.02
0.18670	35.02
0.20337	35.02
0.22003	35.03
0.23670	35.02
0.25337	35.01
0.27003	35.02
0.28670	35.02
0.30337	35.02
0.32003	35.02
0.33670	35.02
0.35337	35.02
0.37003	35.02
0.38670	35.02
0.40337	35.02
0.42003	35.01
0.43670	35.01
0.45337	35.02
0.47003	35.01
0.48670	35.01
0.50337	35.01
0.52003	35.00
0.53670	34.99
0.55337	34.99
0.57003	34.99
0.58670	34.99
0.60337	35.00
0.62003	35.00
0.63670	35.00
0.65337	35.01
0.67003	35.00
0.68670	35.00
0.70337	35.01
0.72003	35.01
0.73670	35.01
0.75337	35.00
0.77003	35.00
0.78670	35.00
0.80337	35.00
0.82003	34.99
0.83670	34.99
0.85337	34.99
0.87003	34.98
0.88670	34.98
0.90337	34.99
0.92003	34.99
0.93670	35.00
0.95337	35.00
0.97003	34.99
0.98670	34.99
1.00337	35.00
1.02003	34.99
1.03670	35.00
1.05337	34.99
1.07003	34.99
1.08670	34.99
1.10337	34.99
1.12003	34.99
1.13670	34.99
1.15337	34.99
1.17003	34.99
1.18670	35.00
1.20337	35.00
1.22003	34.99
1.23670	35.00
1.25337	35.00
1.27003	35.00
1.28670	35.00
1.30337	35.00
1.32003	35.00
1.33670	35.00
1.35337	34.99
1.37003	34.99
1.38670	34.99
1.40337	34.99
1.42003	34.99
1.43670	34.99
1.45337	34.99
1.47003	34.99
1.48670	34.99
1.50337	35.00
1.52003	34.99
1.53670	34.99
1.55337	35.00
1.57003	34.99
1.58670	35.01
1.60337	35.05
1.62003	35.15
1.63670	35.31
1.65337	35.54
1.67003	35.86
1.68670	36.23
1.70337	36.57
1.72003	36.92
1.73670	37.26
1.75337	37.57
1.77003	37.92
1.78670	38.26
1.80337	38.57
1.82003	38.91
1.83670	39.24
1.85337	39.56
1.87003	39.90
1.88670	40.22
1.90337	40.56
1.92003	40.88
1.93670	41.20
1.95337	41.54
1.97003	41.86
1.98670	42.19
2.00337	42.50
2.02003	42.83
2.03670	43.16
2.05337	43.48
2.07003	43.81
2.08670	44.12
2.10337	44.44
2.12003	44.76
2.13670	45.10
2.15337	45.43
2.17003	45.75
2.18670	46.08
2.20337	46.40
2.22003	46.74
2.23670	47.05
2.25337	47.42
2.27003	47.75
2.28670	48.08
2.30337	48.40
2.32003	48.73
2.33670	49.05
2.35337	49.41
2.37003	49.63
2.38670	49.72
2.40337	49.71
2.42003	49.72
2.43670	49.71
2.45337	49.72
2.47003	49.73
2.48670	49.76
2.50337	49.76
2.52003	49.77
2.53670	49.78
2.55337	49.81
2.57003	49.82
2.58670	49.81
2.60337	49.81
2.62003	49.82
2.63670	49.83
2.65337	49.85
2.67003	49.84
2.68670	49.86
2.70337	49.88
2.72003	49.88
2.73670	49.86
2.75337	49.85
2.77003	49.85
2.78670	49.87
2.80337	49.88
2.82003	49.89
2.83670	49.90
2.85337	49.90
2.87003	49.91
2.88670	49.93
2.90337	49.94
2.92003	49.94
2.93670	49.95
2.95337	49.95
2.97003	49.96
2.98670	49.97
3.00337	49.98
3.02003	49.99
3.03670	50.00
3.05337	50.01
3.07003	50.01
3.08670	50.02
3.10337	50.03
3.12003	50.04
3.13670	50.05
3.15337	50.05
3.17003	50.06
3.18670	50.06
3.20337	50.08
3.22003	50.08
3.23670	50.09
3.25337	50.09
3.27003	50.10
3.28670	50.10
3.30337	50.11
3.32003	50.10
3.33670	50.09
3.35337	50.08
3.37003	50.07
3.38670	50.06
3.40337	50.06
3.42003	50.05
3.43670	50.05
3.45337	50.04
3.47003	50.04
3.48670	50.03
3.50337	50.03
3.52003	50.04
3.53670	50.04
3.55337	50.05
3.57003	50.05
3.58670	50.05
3.60337	50.05
3.62003	50.05
3.63670	50.05
3.65337	50.05
3.67003	50.05
3.68670	50.06
3.70337	50.06
3.72003	50.06
3.73670	50.05
3.75337	50.06
3.77003	50.06
3.78670	50.06
3.80337	50.06
3.82003	50.06
3.83670	50.06
3.85337	50.06
3.87003	50.06
3.88670	50.06
3.90337	50.06
3.92003	50.07
3.93670	50.07
3.95337	50.07
3.97003	50.07
3.98670	50.07

[Status Trace (Injection Unit Temperature)]
Interval(msec)	1000
# of Points	240
Start Time(min)	0.003
End Time(min)	3.987
Intensity Units	
Intensity Multiplier	1
R.Time (min)	Intensity
0.00337	99.97
0.02003	99.98
0.03670	99.98
0.05337	99.98
0.07003	99.98
0.08670	99.98
0.10337	99.98
0.12003	99.98
0.13670	99.98
0.15337	99.98
0.17003	99.98
0.18670	99.98
0.20337	99.98
0.22003	99.98
0.23670	99.98
0.25337	99.99
0.27003	99.98
0.28670	99.98
0.30337	99.98
0.32003	99.98
0.33670	99.98
0.35337	99.98
0.37003	99.99
0.38670	99.98
0.40337	99.99
0.42003	99.99
0.43670	99.98
0.45337	99.98
0.47003	99.98
0.48670	99.98
0.50337	99.99
0.52003	99.98
0.53670	99.98
0.55337	99.99
0.57003	99.98
0.58670	99.98
0.60337	99.98
0.62003	99.98
0.63670	99.98
0.65337	99.98
0.67003	99.99
0.68670	99.98
0.70337	99.98
0.72003	99.98
0.73670	99.98
0.75337	99.98
0.77003	99.98
0.78670	99.98
0.80337	99.98
0.82003	99.98
0.83670	99.98
0.85337	99.98
0.87003	99.98
0.88670	99.98
0.90337	99.98
0.92003	99.98
0.93670	99.98
0.95337	99.98
0.97003	99.98
0.98670	99.98
1.00337	99.98
1.02003	99.98
1.03670	99.98
1.05337	99.98
1.07003	99.98
1.08670	99.98
1.10337	99.98
1.12003	99.98
1.13670	99.98
1.15337	99.98
1.17003	99.98
1.18670	99.98
1.20337	99.98
1.22003	99.98
1.23670	99.98
1.25337	99.98
1.27003	99.98
1.28670	99.98
1.30337	99.98
1.32003	99.98
1.33670	99.98
1.35337	99.98
1.37003	99.98
1.38670	99.98
1.40337	99.98
1.42003	99.98
1.43670	99.98
1.45337	99.98
1.47003	99.98
1.48670	99.98
1.50337	99.98
1.52003	99.98
1.53670	99.98
1.55337	99.98
1.57003	99.99
1.58670	99.98
1.60337	99.98
1.62003	99.99
1.63670	99.98
1.65337	99.98
1.67003	99.98
1.68670	99.98
1.70337	99.98
1.72003	99.98
1.73670	99.98
1.75337	99.98
1.77003	99.98
1.78670	99.98
1.80337	99.98
1.82003	99.98
1.83670	99.98
1.85337	99.98
1.87003	99.98
1.88670	99.98
1.90337	99.98
1.92003	99.98
1.93670	99.98
1.95337	99.98
1.97003	99.97
1.98670	99.97
2.00337	99.97
2.02003	99.97
2.03670	99.97
2.05337	99.97
2.07003	99.97
2.08670	99.97
2.10337	99.97
2.12003	99.97
2.13670	99.96
2.15337	99.97
2.17003	99.96
2.18670	99.96
2.20337	99.96
2.22003	99.96
2.23670	99.96
2.25337	99.96
2.27003	99.96
2.28670	99.96
2.30337	99.96
2.32003	99.96
2.33670	99.96
2.35337	99.96
2.37003	99.96
2.38670	99.96
2.40337	99.96
2.42003	99.96
2.43670	99.96
2.45337	99.96
2.47003	99.97
2.48670	99.96
2.50337	99.97
2.52003	99.97
2.53670	99.97
2.55337	99.97
2.57003	99.97
2.58670	99.97
2.60337	99.97
2.62003	99.97
2.63670	99.97
2.65337	99.98
2.67003	99.98
2.68670	99.98
2.70337	99.99
2.72003	99.98
2.73670	99.99
2.75337	99.98
2.77003	99.99
2.78670	99.98
2.80337	99.99
2.82003	99.99
2.83670	99.99
2.85337	99.99
2.87003	99.99
2.88670	99.99
2.90337	100.00
2.92003	100.00
2.93670	100.00
2.95337	100.00
2.97003	100.00
2.98670	100.01
3.00337	100.00
3.02003	100.01
3.03670	100.00
3.05337	100.00
3.07003	100.01
3.08670	100.01
3.10337	100.01
3.12003	100.01
3.13670	100.01
3.15337	100.01
3.17003	100.01
3.18670	100.01
3.20337	100.02
3.22003	100.02
3.23670	100.02
3.25337	100.02
3.27003	100.02
3.28670	100.02
3.30337	100.02
3.32003	100.02
3.33670	100.02
3.35337	100.02
3.37003	100.03
3.38670	100.03
3.40337	100.03
3.42003	100.03
3.43670	100.03
3.45337	100.03
3.47003	100.03
3.48670	100.04
3.50337	100.04
3.52003	100.04
3.53670	100.03
3.55337	100.04
3.57003	100.04
3.58670	100.04
3.60337	100.04
3.62003	100.04
3.63670	100.04
3.65337	100.04
3.67003	100.05
3.68670	100.04
3.70337	100.04
3.72003	100.05
3.73670	100.05
3.75337	100.05
3.77003	100.05
3.78670	100.05
3.80337	100.05
3.82003	100.05
3.83670	100.05
3.85337	100.05
3.87003	100.05
3.88670	100.04
3.90337	100.05
3.92003	100.05
3.93670	100.04
3.95337	100.05
3.97003	100.05
3.98670	100.05

[Status Trace (Carrier Gas Pressure)]
Interval(msec)	1000
# of Points	240
Start Time(min)	0.003
End Time(min)	3.987
Intensity Units	
Intensity Multiplier	1
R.Time (min)	Intensity
0.00337	58.00
0.02003	56.06
0.03670	56.34
0.05337	58.63
0.07003	59.85
0.08670	58.31
0.10337	57.97
0.12003	58.00
0.13670	58.01
0.15337	58.01
0.17003	58.00
0.18670	58.00
0.20337	58.00
0.22003	58.00
0.23670	58.00
0.25337	58.00
0.27003	58.00
0.28670	58.00
0.30337	58.00
0.32003	58.00
0.33670	58.00
0.35337	58.00
0.37003	58.00
0.38670	58.00
0.40337	58.00
0.42003	58.00
0.43670	58.00
0.45337	58.00
0.47003	58.00
0.48670	58.00
0.50337	58.00
0.52003	58.00
0.53670	58.00
0.55337	58.00
0.57003	58.00
0.58670	58.00
0.60337	58.00
0.62003	58.00
0.63670	58.00
0.65337	58.00
0.67003	58.00
0.68670	58.00
0.70337	58.00
0.72003	58.00
0.73670	58.00
0.75337	58.00
0.77003	58.00
0.78670	58.00
0.80337	58.00
0.82003	58.00
0.83670	58.00
0.85337	58.00
0.87003	58.00
0.88670	58.00
0.90337	58.00
0.92003	58.00
0.93670	58.00
0.95337	58.00
0.97003	58.00
0.98670	58.00
1.00337	58.00
1.02003	58.00
1.03670	58.00
1.05337	58.00
1.07003	58.00
1.08670	58.00
1.10337	58.00
1.12003	58.00
1.13670	58.00
1.15337	58.00
1.17003	58.00
1.18670	58.00
1.20337	58.00
1.22003	58.00
1.23670	58.00
1.25337	58.00
1.27003	58.00
1.28670	58.00
1.30337	58.00
1.32003	58.00
1.33670	58.00
1.35337	58.00
1.37003	58.00
1.38670	58.00
1.40337	58.00
1.42003	58.00
1.43670	58.00
1.45337	58.00
1.47003	58.00
1.48670	58.00
1.50337	58.00
1.52003	58.00
1.53670	58.00
1.55337	58.00
1.57003	58.00
1.58670	58.00
1.60337	58.00
1.62003	58.00
1.63670	58.00
1.65337	58.00
1.67003	58.01
1.68670	58.01
1.70337	58.00
1.72003	58.00
1.73670	58.00
1.75337	58.00
1.77003	58.00
1.78670	58.00
1.80337	58.00
1.82003	58.00
1.83670	58.00
1.85337	58.00
1.87003	58.00
1.88670	58.00
1.90337	58.00
1.92003	58.00
1.93670	58.00
1.95337	58.00
1.97003	58.00
1.98670	58.00
2.00337	58.00
2.02003	58.00
2.03670	58.00
2.05337	58.00
2.07003	58.00
2.08670	58.00
2.10337	58.00
2.12003	58.00
2.13670	58.00
2.15337	58.00
2.17003	58.00
2.18670	58.00
2.20337	58.00
2.22003	58.00
2.23670	58.00
2.25337	58.00
2.27003	58.00
2.28670	58.00
2.30337	58.00
2.32003	58.00
2.33670	58.00
2.35337	58.00
2.37003	58.00
2.38670	57.99
2.40337	57.99
2.42003	58.00
2.43670	58.00
2.45337	58.00
2.47003	58.00
2.48670	58.00
2.50337	57.96
2.52003	58.00
2.53670	57.99
2.55337	58.00
2.57003	58.00
2.58670	58.00
2.60337	58.00
2.62003	58.00
2.63670	58.00
2.65337	58.00
2.67003	58.00
2.68670	58.00
2.70337	58.00
2.72003	58.00
2.73670	58.00
2.75337	58.00
2.77003	58.00
2.78670	58.00
2.80337	58.00
2.82003	58.00
2.83670	58.00
2.85337	58.00
2.87003	58.00
2.88670	58.00
2.90337	58.00
2.92003	58.00
2.93670	58.00
2.95337	58.00
2.97003	58.00
2.98670	58.00
3.00337	58.00
3.02003	58.00
3.03670	58.00
3.05337	58.00
3.07003	58.00
3.08670	58.00
3.10337	58.00
3.12003	58.00
3.13670	58.00
3.15337	58.00
3.17003	58.00
3.18670	58.00
3.20337	58.00
3.22003	58.00
3.23670	58.00
3.25337	58.00
3.27003	58.00
3.28670	58.00
3.30337	58.00
3.32003	58.00
3.33670	58.00
3.35337	58.00
3.37003	58.00
3.38670	58.00
3.40337	58.00
3.42003	58.00
3.43670	58.00
3.45337	58.00
3.47003	58.00
3.48670	58.00
3.50337	58.00
3.52003	58.00
3.53670	58.00
3.55337	58.00
3.57003	58.00
3.58670	58.00
3.60337	58.00
3.62003	58.00
3.63670	58.00
3.65337	58.00
3.67003	58.00
3.68670	58.00
3.70337	58.00
3.72003	58.00
3.73670	58.00
3.75337	58.00
3.77003	58.00
3.78670	58.00
3.80337	58.00
3.82003	58.00
3.83670	58.00
3.85337	58.00
3.87003	58.00
3.88670	58.00
3.90337	58.00
3.92003	58.00
3.93670	58.00
3.95337	58.00
3.97003	58.00
3.98670	58.00

[Status Trace (Carrier Gas Flow)]
Interval(msec)	1000
# of Points	240
Start Time(min)	0.003
End Time(min)	3.987
Intensity Units	
Intensity Multiplier	1
R.Time (min)	Intensity
0.00337	34.51
0.02003	34.59
0.03670	34.54
0.05337	34.54
0.07003	34.49
0.08670	34.52
0.10337	34.52
0.12003	34.52
0.13670	34.52
0.15337	34.52
0.17003	34.52
0.18670	34.52
0.20337	34.52
0.22003	34.52
0.23670	34.52
0.25337	34.52
0.27003	34.52
0.28670	34.52
0.30337	34.52
0.32003	34.52
0.33670	34.52
0.35337	34.52
0.37003	34.52
0.38670	34.52
0.40337	34.52
0.42003	34.52
0.43670	34.52
0.45337	34.52
0.47003	34.51
0.48670	34.52
0.50337	34.52
0.52003	34.51
0.53670	34.51
0.55337	34.52
0.57003	34.52
0.58670	34.51
0.60337	34.52
0.62003	34.52
0.63670	34.52
0.65337	34.52
0.67003	34.52
0.68670	34.52
0.70337	34.52
0.72003	34.52
0.73670	34.52
0.75337	34.52
0.77003	34.52
0.78670	34.51
0.80337	34.52
0.82003	34.52
0.83670	34.51
0.85337	34.52
0.87003	34.52
0.88670	34.52
0.90337	34.52
0.92003	34.51
0.93670	34.52
0.95337	34.52
0.97003	34.51
0.98670	34.52
1.00337	34.52
1.02003	34.52
1.03670	34.52
1.05337	34.52
1.07003	34.52
1.08670	34.52
1.10337	34.51
1.12003	34.52
1.13670	34.52
1.15337	34.52
1.17003	34.52
1.18670	34.51
1.20337	34.51
1.22003	34.52
1.23670	34.51
1.25337	34.51
1.27003	34.52
1.28670	34.52
1.30337	34.52
1.32003	34.51
1.33670	34.52
1.35337	34.52
1.37003	34.52
1.38670	34.52
1.40337	34.52
1.42003	34.52
1.43670	34.52
1.45337	34.52
1.47003	34.52
1.48670	34.52
1.50337	34.52
1.52003	34.52
1.53670	34.52
1.55337	34.52
1.57003	34.53
1.58670	34.52
1.60337	34.52
1.62003	34.52
1.63670	34.52
1.65337	34.52
1.67003	34.51
1.68670	34.52
1.70337	34.52
1.72003	34.52
1.73670	34.52
1.75337	34.51
1.77003	34.52
1.78670	34.52
1.80337	34.51
1.82003	34.51
1.83670	34.52
1.85337	34.53
1.87003	34.51
1.88670	34.52
1.90337	34.52
1.92003	34.53
1.93670	34.52
1.95337	34.52
1.97003	34.52
1.98670	34.51
2.00337	34.52
2.02003	34.52
2.03670	34.52
2.05337	34.52
2.07003	34.52
2.08670	34.52
2.10337	34.51
2.12003	34.52
2.13670	34.52
2.15337	34.52
2.17003	34.52
2.18670	34.52
2.20337	34.52
2.22003	34.51
2.23670	34.53
2.25337	34.52
2.27003	34.52
2.28670	34.52
2.30337	34.51
2.32003	34.52
2.33670	34.52
2.35337	34.52
2.37003	34.51
2.38670	34.52
2.40337	34.52
2.42003	34.52
2.43670	34.51
2.45337	34.52
2.47003	34.52
2.48670	34.52
2.50337	34.70
2.52003	34.52
2.53670	34.52
2.55337	34.52
2.57003	34.52
2.58670	34.52
2.60337	34.52
2.62003	34.52
2.63670	34.52
2.65337	34.52
2.67003	34.51
2.68670	34.52
2.70337	34.52
2.72003	34.52
2.73670	34.52
2.75337	34.52
2.77003	34.51
2.78670	34.51
2.80337	34.53
2.82003	34.52
2.83670	34.51
2.85337	34.53
2.87003	34.51
2.88670	34.51
2.90337	34.52
2.92003	34.52
2.93670	34.52
2.95337	34.52
2.97003	34.51
2.98670	34.52
3.00337	34.52
3.02003	34.53
3.03670	34.52
3.05337	34.52
3.07003	34.52
3.08670	34.52
3.10337	34.52
3.12003	34.52
3.13670	34.52
3.15337	34.52
3.17003	34.52
3.18670	34.52
3.20337	34.52
3.22003	34.52
3.23670	34.53
3.25337	34.52
3.27003	34.52
3.28670	34.52
3.30337	34.52
3.32003	34.53
3.33670	34.51
3.35337	34.52
3.37003	34.53
3.38670	34.52
3.40337	34.52
3.42003	34.52
3.43670	34.52
3.45337	34.52
3.47003	34.52
3.48670	34.52
3.50337	34.51
3.52003	34.52
3.53670	34.51
3.55337	34.52
3.57003	34.52
3.58670	34.52
3.60337	34.52
3.62003	34.52
3.63670	34.51
3.65337	34.51
3.67003	34.51
3.68670	34.52
3.70337	34.51
3.72003	34.52
3.73670	34.52
3.75337	34.52
3.77003	34.52
3.78670	34.52
3.80337	34.52
3.82003	34.52
3.83670	34.52
3.85337	34.52
3.87003	34.51
3.88670	34.52
3.90337	34.52
3.92003	34.52
3.93670	34.51
3.95337	34.52
3.97003	34.52
3.98670	34.51

[Status Trace (Column Flow)]
Interval(msec)	1000
# of Points	240
Start Time(min)	0.003
End Time(min)	3.987
Intensity Units	
Intensity Multiplier	1
R.Time (min)	Intensity
0.00337	5.49
0.02003	5.27
0.03670	5.30
0.05337	5.57
0.07003	5.71
0.08670	5.53
0.10337	5.49
0.12003	5.49
0.13670	5.49
0.15337	5.49
0.17003	5.49
0.18670	5.49
0.20337	5.49
0.22003	5.49
0.23670	5.49
0.25337	5.49
0.27003	5.49
0.28670	5.49
0.30337	5.49
0.32003	5.49
0.33670	5.49
0.35337	5.49
0.37003	5.49
0.38670	5.49
0.40337	5.49
0.42003	5.49
0.43670	5.49
0.45337	5.49
0.47003	5.49
0.48670	5.49
0.50337	5.49
0.52003	5.49
0.53670	5.49
0.55337	5.49
0.57003	5.50
0.58670	5.50
0.60337	5.49
0.62003	5.49
0.63670	5.49
0.65337	5.49
0.67003	5.49
0.68670	5.49
0.70337	5.49
0.72003	5.49
0.73670	5.49
0.75337	5.49
0.77003	5.49
0.78670	5.49
0.80337	5.49
0.82003	5.50
0.83670	5.50
0.85337	5.50
0.87003	5.50
0.88670	5.50
0.90337	5.49
0.92003	5.50
0.93670	5.49
0.95337	5.49
0.97003	5.49
0.98670	5.49
1.00337	5.49
1.02003	5.49
1.03670	5.49
1.05337	5.49
1.07003	5.49
1.08670	5.49
1.10337	5.50
1.12003	5.50
1.13670	5.50
1.15337	5.49
1.17003	5.50
1.18670	5.49
1.20337	5.49
1.22003	5.50
1.23670	5.49
1.25337	5.49
1.27003	5.49
1.28670	5.49
1.30337	5.50
1.32003	5.49
1.33670	5.49
1.35337	5.50
1.37003	5.50
1.38670	5.50
1.40337	5.49
1.42003	5.49
1.43670	5.50
1.45337	5.50
1.47003	5.50
1.48670	5.49
1.50337	5.49
1.52003	5.49
1.53670	5.50
1.55337	5.49
1.57003	5.49
1.58670	5.49
1.60337	5.49
1.62003	5.49
1.63670	5.49
1.65337	5.48
1.67003	5.47
1.68670	5.46
1.70337	5.45
1.72003	5.44
1.73670	5.43
1.75337	5.41
1.77003	5.40
1.78670	5.39
1.80337	5.38
1.82003	5.37
1.83670	5.36
1.85337	5.35
1.87003	5.34
1.88670	5.34
1.90337	5.32
1.92003	5.31
1.93670	5.31
1.95337	5.30
1.97003	5.29
1.98670	5.28
2.00337	5.27
2.02003	5.26
2.03670	5.25
2.05337	5.24
2.07003	5.23
2.08670	5.22
2.10337	5.21
2.12003	5.20
2.13670	5.19
2.15337	5.18
2.17003	5.17
2.18670	5.16
2.20337	5.15
2.22003	5.14
2.23670	5.14
2.25337	5.13
2.27003	5.12
2.28670	5.11
2.30337	5.10
2.32003	5.09
2.33670	5.08
2.35337	5.07
2.37003	5.06
2.38670	5.06
2.40337	5.06
2.42003	5.06
2.43670	5.06
2.45337	5.06
2.47003	5.06
2.48670	5.06
2.50337	5.06
2.52003	5.06
2.53670	5.06
2.55337	5.06
2.57003	5.06
2.58670	5.06
2.60337	5.06
2.62003	5.06
2.63670	5.06
2.65337	5.06
2.67003	5.06
2.68670	5.06
2.70337	5.06
2.72003	5.06
2.73670	5.06
2.75337	5.06
2.77003	5.06
2.78670	5.06
2.80337	5.06
2.82003	5.06
2.83670	5.06
2.85337	5.06
2.87003	5.06
2.88670	5.06
2.90337	5.06
2.92003	5.06
2.93670	5.05
2.95337	5.06
2.97003	5.05
2.98670	5.05
3.00337	5.05
3.02003	5.05
3.03670	5.05
3.05337	5.05
3.07003	5.05
3.08670	5.05
3.10337	5.05
3.12003	5.05
3.13670	5.05
3.15337	5.05
3.17003	5.05
3.18670	5.05
3.20337	5.05
3.22003	5.05
3.23670	5.05
3.25337	5.05
3.27003	5.05
3.28670	5.05
3.30337	5.05
3.32003	5.05
3.33670	5.05
3.35337	5.05
3.37003	5.05
3.38670	5.05
3.40337	5.05
3.42003	5.05
3.43670	5.05
3.45337	5.05
3.47003	5.05
3.48670	5.05
3.50337	5.05
3.52003	5.05
3.53670	5.05
3.55337	5.05
3.57003	5.05
3.58670	5.05
3.60337	5.05
3.62003	5.05
3.63670	5.05
3.65337	5.05
3.67003	5.05
3.68670	5.05
3.70337	5.05
3.72003	5.05
3.73670	5.05
3.75337	5.05
3.77003	5.05
3.78670	5.05
3.80337	5.05
3.82003	5.05
3.83670	5.05
3.85337	5.05
3.87003	5.05
3.88670	5.05
3.90337	5.05
3.92003	5.05
3.93670	5.05
3.95337	5.05
3.97003	5.05
3.98670	5.05

[Status Trace (Linear Velocity)]
Interval(msec)	1000
# of Points	240
Start Time(min)	0.003
End Time(min)	3.987
Intensity Units	
Intensity Multiplier	1
R.Time (min)	Intensity
0.00337	39.01
0.02003	37.73
0.03670	37.91
0.05337	39.42
0.07003	40.22
0.08670	39.21
0.10337	38.99
0.12003	39.01
0.13670	39.01
0.15337	39.01
0.17003	39.01
0.18670	39.01
0.20337	39.01
0.22003	39.01
0.23670	39.01
0.25337	39.01
0.27003	39.01
0.28670	39.01
0.30337	39.01
0.32003	39.01
0.33670	39.01
0.35337	39.01
0.37003	39.01
0.38670	39.01
0.40337	39.01
0.42003	39.01
0.43670	39.01
0.45337	39.01
0.47003	39.01
0.48670	39.01
0.50337	39.01
0.52003	39.01
0.53670	39.01
0.55337	39.01
0.57003	39.01
0.58670	39.01
0.60337	39.01
0.62003	39.01
0.63670	39.01
0.65337	39.01
0.67003	39.01
0.68670	39.01
0.70337	39.01
0.72003	39.01
0.73670	39.01
0.75337	39.01
0.77003	39.01
0.78670	39.01
0.80337	39.01
0.82003	39.01
0.83670	39.01
0.85337	39.01
0.87003	39.01
0.88670	39.01
0.90337	39.01
0.92003	39.01
0.93670	39.01
0.95337	39.01
0.97003	39.01
0.98670	39.01
1.00337	39.01
1.02003	39.01
1.03670	39.01
1.05337	39.01
1.07003	39.01
1.08670	39.01
1.10337	39.01
1.12003	39.01
1.13670	39.01
1.15337	39.01
1.17003	39.01
1.18670	39.01
1.20337	39.01
1.22003	39.01
1.23670	39.01
1.25337	39.01
1.27003	39.01
1.28670	39.01
1.30337	39.01
1.32003	39.01
1.33670	39.01
1.35337	39.01
1.37003	39.01
1.38670	39.01
1.40337	39.01
1.42003	39.01
1.43670	39.01
1.45337	39.01
1.47003	39.01
1.48670	39.01
1.50337	39.01
1.52003	39.01
1.53670	39.01
1.55337	39.01
1.57003	39.01
1.58670	39.01
1.60337	39.01
1.62003	39.00
1.63670	38.98
1.65337	38.96
1.67003	38.93
1.68670	38.90
1.70337	38.86
1.72003	38.83
1.73670	38.80
1.75337	38.76
1.77003	38.73
1.78670	38.70
1.80337	38.67
1.82003	38.64
1.83670	38.61
1.85337	38.58
1.87003	38.55
1.88670	38.52
1.90337	38.48
1.92003	38.45
1.93670	38.43
1.95337	38.39
1.97003	38.36
1.98670	38.33
2.00337	38.30
2.02003	38.27
2.03670	38.25
2.05337	38.21
2.07003	38.18
2.08670	38.16
2.10337	38.13
2.12003	38.10
2.13670	38.07
2.15337	38.04
2.17003	38.01
2.18670	37.98
2.20337	37.95
2.22003	37.92
2.23670	37.89
2.25337	37.86
2.27003	37.83
2.28670	37.80
2.30337	37.77
2.32003	37.74
2.33670	37.71
2.35337	37.68
2.37003	37.66
2.38670	37.65
2.40337	37.65
2.42003	37.65
2.43670	37.65
2.45337	37.65
2.47003	37.65
2.48670	37.65
2.50337	37.62
2.52003	37.65
2.53670	37.64
2.55337	37.64
2.57003	37.64
2.58670	37.64
2.60337	37.64
2.62003	37.64
2.63670	37.64
2.65337	37.64
2.67003	37.64
2.68670	37.64
2.70337	37.64
2.72003	37.64
2.73670	37.64
2.75337	37.64
2.77003	37.64
2.78670	37.64
2.80337	37.64
2.82003	37.64
2.83670	37.64
2.85337	37.64
2.87003	37.63
2.88670	37.63
2.90337	37.63
2.92003	37.63
2.93670	37.63
2.95337	37.63
2.97003	37.63
2.98670	37.63
3.00337	37.63
3.02003	37.63
3.03670	37.63
3.05337	37.63
3.07003	37.63
3.08670	37.63
3.10337	37.62
3.12003	37.62
3.13670	37.62
3.15337	37.62
3.17003	37.62
3.18670	37.62
3.20337	37.62
3.22003	37.62
3.23670	37.62
3.25337	37.62
3.27003	37.62
3.28670	37.62
3.30337	37.62
3.32003	37.62
3.33670	37.62
3.35337	37.62
3.37003	37.62
3.38670	37.62
3.40337	37.62
3.42003	37.62
3.43670	37.62
3.45337	37.62
3.47003	37.62
3.48670	37.62
3.50337	37.62
3.52003	37.62
3.53670	37.62
3.55337	37.62
3.57003	37.62
3.58670	37.62
3.60337	37.62
3.62003	37.62
3.63670	37.62
3.65337	37.62
3.67003	37.62
3.68670	37.62
3.70337	37.62
3.72003	37.62
3.73670	37.62
3.75337	37.62
3.77003	37.62
3.78670	37.62
3.80337	37.62
3.82003	37.62
3.83670	37.62
3.85337	37.62
3.87003	37.62
3.88670	37.62
3.90337	37.62
3.92003	37.62
3.93670	37.62
3.95337	37.62
3.97003	37.62
3.98670	37.62

