[Header]
Application Name	LabSolutions
Version	5.110
Data File Name	C:\Users\User\Desktop\Junior\UIC Prairie Sampling\2023\8.2.23\080223_057.gcd
Output Date	8/31/2023
Output Time	12:43:09 PM

[File Information]
Type	Data File
Generated	8/29/2023 10:13:08 PM
Generated by	System Administrator
Modified	8/29/2023 10:19:48 PM
Modified by	System Administrator

[Sample Information]
Operator Name	System Administrator
Acquired	8/29/2023 10:15:45 PM
Sample Type	0:Unknown
Level	0
Sample Name	057
Sample ID	057
ISTD Amount1	1
ISTD Amount2	1
ISTD Amount3	1
ISTD Amount4	1
ISTD Amount5	1
ISTD Amount6	1
ISTD Amount7	1
ISTD Amount8	1
ISTD Amount9	1
ISTD Amount10	1
ISTD Amount11	1
ISTD Amount12	1
ISTD Amount13	1
ISTD Amount14	1
ISTD Amount15	1
ISTD Amount16	1
ISTD Amount17	1
ISTD Amount18	1
ISTD Amount19	1
ISTD Amount20	1
ISTD Amount21	1
ISTD Amount22	1
ISTD Amount23	1
ISTD Amount24	1
ISTD Amount25	1
ISTD Amount26	1
ISTD Amount27	1
ISTD Amount28	1
ISTD Amount29	1
ISTD Amount30	1
ISTD Amount31	1
ISTD Amount32	1
Sample Amount	1
Dilution Factor	1
Vial#	56
Injection Volume	1
Injection Count	1
Bar Code	

[Original Files]
Data File	C:\Users\User\Desktop\Junior\UIC Prairie Sampling\8.2.23\080223_057.gcd
Method File	C:\LabSolutions\Data\GHG_4min_2022\ghg3_togas_w_acet_4 min_new_int.gcm
Batch File	C:\LabSolutions\Data\BATCH FILES\080223.gcb
Report Format File	c:\LabSolutions\System\DEFAULT.lsr

[File Description]


[Configuration]
Instrument Name	C0B7VH3-Instrument1
Instrument #	1
Line #	1
# of Detectors	3
Detector ID	DET#1	DET#2	DET#3
Detector Name	FID	PTCD	ECD
# of Channels	1	1	1

[Peak Table(Ch1)]
# of Peaks	3
Peak#	R.Time	I.Time	F.Time	Area	Height	A/H	Conc.	Mark	ID#	Name	k'	Plate #	Plate Ht.	Tailing	Resolution	Sep.Factor	Area Ratio	Height Ratio	Conc. %	Norm Conc.
1	1.472	1.435	1.531	7127	3583	1.989	0.000	   	1	CO	0.000	10102	14.849	1.301	0.000	0.000	0	0	0.000	0.000
2	1.564	1.531	1.611	4426	2294	1.929	21.579	 V 	2	CH4	0.062	11798	12.714	1.100	1.578	0.000	0	0	6.349	6.349
3	1.989	1.941	2.642	1651647	794557	2.079	318.303	   	3	CO2	0.351	17583	8.531	1.292	7.235	5.640	0	0	93.651	93.651

[Peak Table(Ch2)]
# of Peaks	0

[Peak Table(Ch3)]
# of Peaks	4
Peak#	R.Time	I.Time	F.Time	Area	Height	A/H	Conc.	Mark	ID#	Name	k'	Plate #	Plate Ht.	Tailing	Resolution	Sep.Factor	Area Ratio	Height Ratio	Conc. %	Norm Conc.
1	2.458	2.403	2.506	773	290	2.668	0.000	   			0.000	13150	11.407	0.000	0.000	0.000	0	0	0.000	0.000
2	2.521	2.506	2.572	368	136	2.703	0.000	 V 			0.025	5579	26.884	0.000	0.565	0.000	0	0	0.000	0.000
3	2.623	2.572	2.704	440	111	3.976	0.000	 V 			0.067	8283	18.110	0.000	0.820	2.647	0	0	0.000	0.000
4	2.891	2.832	3.353	23836	3802	6.270	0.353	   	1	N2O	0.176	11834	12.675	4.660	2.416	2.622	0	0	100.000	100.000

[Compound Results(Ch1)]
# of IDs	6
ID#	Name	R.Time	Area	Height	Conc.	Curve	3rd	2nd	1st	Constant	Area Ratio	Height Ratio	Conc. %	Norm Conc.
1	CO	1.472	7127	3583	0.000	Linear	0.000000e+00	0.000000e+00	0.000000e+00	0.000000e+00	0	0	0.000	0.000
2	CH4	1.564	4426	2294	21.579	Linear	0.000000e+00	0.000000e+00	2.051179e+002	0.000000e+00	0	0	6.349	6.349
3	CO2	1.989	1651647	794557	318.303	Linear	0.000000e+00	0.000000e+00	5.188919e+003	0.000000e+00	0	0	93.651	93.651
4	Ethylene	0.000	0	0	0.000	Linear	0.000000e+00	0.000000e+00	0.000000e+00	0.000000e+00	0	0	0.000	0.000
5	Acetylene	0.000	0	0	0.000	Linear	0.000000e+00	0.000000e+00	0.000000e+00	0.000000e+00	0	0	0.000	0.000
6	Ethane	0.000	0	0	0.000	Linear	0.000000e+00	0.000000e+00	0.000000e+00	0.000000e+00	0	0	0.000	0.000

[Compound Results(Ch2)]
# of IDs	5
ID#	Name	R.Time	Area	Height	Conc.	Curve	3rd	2nd	1st	Constant	Area Ratio	Height Ratio	Conc. %	Norm Conc.
1	Hydrogen	0.000	0	0	0.000	Linear	0.000000e+00	0.000000e+00	0.000000e+00	0.000000e+00	0	0	0.000	0.000
2	Oxygen	0.000	0	0	0.000	Linear	0.000000e+00	0.000000e+00	0.000000e+00	0.000000e+00	0	0	0.000	0.000
3	Nitrogen	0.000	0	0	0.000	Linear	0.000000e+00	0.000000e+00	0.000000e+00	0.000000e+00	0	0	0.000	0.000
4	Methane	0.000	0	0	0.000	Linear	0.000000e+00	0.000000e+00	0.000000e+00	0.000000e+00	0	0	0.000	0.000
5	Carbon Monoxide	0.000	0	0	0.000	Linear	0.000000e+00	0.000000e+00	0.000000e+00	0.000000e+00	0	0	0.000	0.000

[Compound Results(Ch3)]
# of IDs	2
ID#	Name	R.Time	Area	Height	Conc.	Curve	3rd	2nd	1st	Constant	Area Ratio	Height Ratio	Conc. %	Norm Conc.
1	N2O	2.891	23836	3802	0.353	Linear	0.000000e+00	0.000000e+00	6.759880e+004	0.000000e+00	0	0	100.000	100.000
2	SF6	0.000	0	0	0.000	Linear	0.000000e+00	0.000000e+00	0.000000e+00	0.000000e+00	0	0	0.000	0.000

[Group Results(Ch1)]
# of Groups	0

[Group Results(Ch2)]
# of Groups	0

[Group Results(Ch3)]
# of Groups	0

[Chromatogram (Ch1)]
Interval(msec)	220
# of Points	1091
Start Time(min)	0.002
End Time(min)	3.998
R.Time (min)	Intensity
0.00167	-35
0.00533	-37
0.00900	-34
0.01267	-28
0.01633	-24
0.02000	-24
0.02367	-25
0.02733	-28
0.03100	-30
0.03467	-28
0.03833	-25
0.04200	-26
0.04567	-25
0.04933	-25
0.05300	-24
0.05667	-25
0.06033	-25
0.06400	-25
0.06767	-28
0.07133	-32
0.07500	-35
0.07867	-34
0.08233	-30
0.08600	-25
0.08967	-23
0.09333	-25
0.09700	-27
0.10067	-29
0.10433	-32
0.10800	-34
0.11167	-35
0.11533	-34
0.11900	-31
0.12267	-25
0.12633	-19
0.13000	-17
0.13367	-18
0.13733	-23
0.14100	-28
0.14467	-30
0.14833	-32
0.15200	-28
0.15567	-23
0.15933	-20
0.16300	-21
0.16667	-23
0.17033	-23
0.17400	-24
0.17767	-25
0.18133	-26
0.18500	-25
0.18867	-23
0.19233	-23
0.19600	-25
0.19967	-28
0.20333	-34
0.20700	-38
0.21067	-41
0.21433	-41
0.21800	-36
0.22167	-31
0.22533	-29
0.22900	-29
0.23267	-28
0.23633	-27
0.24000	-28
0.24367	-28
0.24733	-29
0.25100	-30
0.25467	-32
0.25833	-31
0.26200	-30
0.26567	-28
0.26933	-27
0.27300	-25
0.27667	-23
0.28033	-18
0.28400	-13
0.28767	-12
0.29133	-15
0.29500	-19
0.29867	-23
0.30233	-24
0.30600	-21
0.30967	-19
0.31333	-19
0.31700	-19
0.32067	-20
0.32433	-23
0.32800	-25
0.33167	-27
0.33533	-27
0.33900	-26
0.34267	-26
0.34633	-28
0.35000	-33
0.35367	-36
0.35733	-36
0.36100	-36
0.36467	-38
0.36833	-41
0.37200	-43
0.37567	-43
0.37933	-43
0.38300	-42
0.38667	-43
0.39033	-45
0.39400	-46
0.39767	-46
0.40133	-45
0.40500	-43
0.40867	-40
0.41233	-38
0.41600	-37
0.41967	-39
0.42333	-42
0.42700	-45
0.43067	-47
0.43433	-48
0.43800	-47
0.44167	-46
0.44533	-45
0.44900	-42
0.45267	-38
0.45633	-39
0.46000	-41
0.46367	-43
0.46733	-47
0.47100	-52
0.47467	-53
0.47833	-50
0.48200	-46
0.48567	-42
0.48933	-42
0.49300	-43
0.49667	-43
0.50033	-44
0.50400	-45
0.50767	-45
0.51133	-44
0.51500	-43
0.51867	-44
0.52233	-44
0.52600	-44
0.52967	-43
0.53333	-44
0.53700	-44
0.54067	-45
0.54433	-46
0.54800	-48
0.55167	-49
0.55533	-46
0.55900	-41
0.56267	-38
0.56633	-38
0.57000	-41
0.57367	-44
0.57733	-48
0.58100	-54
0.58467	-58
0.58833	-57
0.59200	-53
0.59567	-51
0.59933	-48
0.60300	-48
0.60667	-49
0.61033	-50
0.61400	-49
0.61767	-49
0.62133	-48
0.62500	-48
0.62867	-48
0.63233	-48
0.63600	-48
0.63967	-46
0.64333	-44
0.64700	-43
0.65067	-45
0.65433	-48
0.65800	-52
0.66167	-51
0.66533	-47
0.66900	-44
0.67267	-41
0.67633	-37
0.68000	-37
0.68367	-41
0.68733	-47
0.69100	-50
0.69467	-53
0.69833	-57
0.70200	-59
0.70567	-57
0.70933	-53
0.71300	-47
0.71667	-40
0.72033	-38
0.72400	-37
0.72767	-41
0.73133	-46
0.73500	-48
0.73867	-49
0.74233	-51
0.74600	-55
0.74967	-59
0.75333	-61
0.75700	-61
0.76067	-61
0.76433	-61
0.76800	-62
0.77167	-64
0.77533	-64
0.77900	-65
0.78267	-63
0.78633	-58
0.79000	-55
0.79367	-52
0.79733	-47
0.80100	-45
0.80467	-47
0.80833	-48
0.81200	-48
0.81567	-48
0.81933	-48
0.82300	-48
0.82667	-48
0.83033	-46
0.83400	-43
0.83767	-40
0.84133	-40
0.84500	-42
0.84867	-45
0.85233	-49
0.85600	-51
0.85967	-53
0.86333	-55
0.86700	-56
0.87067	-59
0.87433	-63
0.87800	-67
0.88167	-69
0.88533	-71
0.88900	-75
0.89267	-74
0.89633	-68
0.90000	-58
0.90367	-51
0.90733	-49
0.91100	-51
0.91467	-49
0.91833	-45
0.92200	-43
0.92567	-48
0.92933	-56
0.93300	-63
0.93667	-67
0.94033	-68
0.94400	-62
0.94767	-55
0.95133	-50
0.95500	-50
0.95867	-53
0.96233	-57
0.96600	-63
0.96967	-69
0.97333	-73
0.97700	-72
0.98067	-67
0.98433	-60
0.98800	-52
0.99167	-47
0.99533	-47
0.99900	-47
1.00267	-46
1.00633	-41
1.01000	-35
1.01367	-31
1.01733	-30
1.02100	-34
1.02467	-39
1.02833	-41
1.03200	-42
1.03567	-41
1.03933	-44
1.04300	-51
1.04667	-53
1.05033	-49
1.05400	-43
1.05767	-40
1.06133	-38
1.06500	-42
1.06867	-52
1.07233	-62
1.07600	-68
1.07967	-69
1.08333	-66
1.08700	-65
1.09067	-67
1.09433	-71
1.09800	-75
1.10167	-75
1.10533	-72
1.10900	-68
1.11267	-62
1.11633	-58
1.12000	-58
1.12367	-61
1.12733	-65
1.13100	-67
1.13467	-70
1.13833	-71
1.14200	-71
1.14567	-70
1.14933	-69
1.15300	-68
1.15667	-66
1.16033	-63
1.16400	-58
1.16767	-50
1.17133	-46
1.17500	-45
1.17867	-45
1.18233	-45
1.18600	-49
1.18967	-53
1.19333	-58
1.19700	-63
1.20067	-64
1.20433	-65
1.20800	-66
1.21167	-67
1.21533	-65
1.21900	-61
1.22267	-57
1.22633	-56
1.23000	-57
1.23367	-61
1.23733	-65
1.24100	-68
1.24467	-71
1.24833	-74
1.25200	-72
1.25567	-65
1.25933	-56
1.26300	-50
1.26667	-48
1.27033	-51
1.27400	-56
1.27767	-60
1.28133	-60
1.28500	-55
1.28867	-50
1.29233	-48
1.29600	-51
1.29967	-52
1.30333	-49
1.30700	-44
1.31067	-43
1.31433	-45
1.31800	-50
1.32167	-55
1.32533	-59
1.32900	-62
1.33267	-64
1.33633	-68
1.34000	-71
1.34367	-71
1.34733	-70
1.35100	-70
1.35467	-70
1.35833	-70
1.36200	-72
1.36567	-75
1.36933	-79
1.37300	-82
1.37667	-83
1.38033	-81
1.38400	-76
1.38767	-71
1.39133	-69
1.39500	-67
1.39867	-62
1.40233	-56
1.40600	-52
1.40967	-51
1.41333	-52
1.41700	-53
1.42067	-52
1.42433	-53
1.42800	-53
1.43167	-52
1.43533	-50
1.43900	-40
1.44267	-19
1.44633	109
1.45000	493
1.45367	1132
1.45733	1864
1.46100	2540
1.46467	3077
1.46833	3424
1.47200	3534
1.47567	3373
1.47933	2973
1.48300	2434
1.48667	1875
1.49033	1383
1.49400	990
1.49767	692
1.50133	475
1.50500	319
1.50867	211
1.51233	137
1.51600	88
1.51967	52
1.52333	24
1.52700	3
1.53067	-1
1.53433	34
1.53800	164
1.54167	444
1.54533	857
1.54900	1313
1.55267	1724
1.55633	2036
1.56000	2221
1.56367	2246
1.56733	2090
1.57100	1783
1.57467	1406
1.57833	1035
1.58200	719
1.58567	475
1.58933	297
1.59300	170
1.59667	84
1.60033	27
1.60400	-10
1.60767	-34
1.61133	-48
1.61500	-55
1.61867	-55
1.62233	-51
1.62600	-47
1.62967	-43
1.63333	-41
1.63700	-40
1.64067	-40
1.64433	-48
1.64800	-58
1.65167	-64
1.65533	-65
1.65900	-67
1.66267	-71
1.66633	-74
1.67000	-77
1.67367	-78
1.67733	-78
1.68100	-77
1.68467	-76
1.68833	-76
1.69200	-78
1.69567	-81
1.69933	-81
1.70300	-77
1.70667	-68
1.71033	-63
1.71400	-62
1.71767	-63
1.72133	-62
1.72500	-61
1.72867	-63
1.73233	-67
1.73600	-72
1.73967	-74
1.74333	-76
1.74700	-78
1.75067	-79
1.75433	-78
1.75800	-75
1.76167	-69
1.76533	-66
1.76900	-64
1.77267	-63
1.77633	-66
1.78000	-74
1.78367	-85
1.78733	-93
1.79100	-97
1.79467	-99
1.79833	-99
1.80200	-95
1.80567	-84
1.80933	-73
1.81300	-68
1.81667	-68
1.82033	-70
1.82400	-71
1.82767	-72
1.83133	-73
1.83500	-74
1.83867	-73
1.84233	-74
1.84600	-77
1.84967	-80
1.85333	-85
1.85700	-86
1.86067	-85
1.86433	-83
1.86800	-78
1.87167	-72
1.87533	-69
1.87900	-67
1.88267	-67
1.88633	-71
1.89000	-80
1.89367	-87
1.89733	-88
1.90100	-84
1.90467	-76
1.90833	-69
1.91200	-67
1.91567	-68
1.91933	-70
1.92300	-70
1.92667	-67
1.93033	-62
1.93400	-59
1.93767	-59
1.94133	-58
1.94500	-44
1.94867	69
1.95233	761
1.95600	4054
1.95967	15819
1.96333	47880
1.96700	115387
1.97067	226261
1.97433	370951
1.97800	524959
1.98167	660433
1.98533	754978
1.98900	794517
1.99267	775196
1.99633	704370
2.00000	598769
2.00367	479453
2.00733	365079
2.01100	267330
2.01467	190453
2.01833	133496
2.02200	93017
2.02567	65039
2.02933	46023
2.03300	33205
2.03667	24575
2.04033	18732
2.04400	14731
2.04767	11945
2.05133	9963
2.05500	8516
2.05867	7427
2.06233	6587
2.06600	5924
2.06967	5385
2.07333	4943
2.07700	4572
2.08067	4253
2.08433	3975
2.08800	3729
2.09167	3511
2.09533	3318
2.09900	3146
2.10267	2991
2.10633	2848
2.11000	2718
2.11367	2599
2.11733	2491
2.12100	2388
2.12467	2293
2.12833	2204
2.13200	2119
2.13567	2037
2.13933	1958
2.14300	1885
2.14667	1818
2.15033	1758
2.15400	1705
2.15767	1656
2.16133	1607
2.16500	1560
2.16867	1516
2.17233	1475
2.17600	1434
2.17967	1393
2.18333	1357
2.18700	1322
2.19067	1287
2.19433	1253
2.19800	1218
2.20167	1181
2.20533	1144
2.20900	1108
2.21267	1075
2.21633	1047
2.22000	1022
2.22367	995
2.22733	970
2.23100	949
2.23467	931
2.23833	915
2.24200	897
2.24567	881
2.24933	865
2.25300	848
2.25667	830
2.26033	810
2.26400	791
2.26767	771
2.27133	754
2.27500	740
2.27867	726
2.28233	712
2.28600	700
2.28967	691
2.29333	681
2.29700	667
2.30067	653
2.30433	642
2.30800	633
2.31167	625
2.31533	614
2.31900	599
2.32267	584
2.32633	573
2.33000	561
2.33367	548
2.33733	538
2.34100	531
2.34467	526
2.34833	519
2.35200	514
2.35567	511
2.35933	507
2.36300	503
2.36667	498
2.37033	493
2.37400	486
2.37767	477
2.38133	467
2.38500	457
2.38867	449
2.39233	441
2.39600	430
2.39967	421
2.40333	419
2.40700	419
2.41067	416
2.41433	412
2.41800	407
2.42167	400
2.42533	395
2.42900	392
2.43267	391
2.43633	391
2.44000	390
2.44367	389
2.44733	386
2.45100	381
2.45467	375
2.45833	366
2.46200	356
2.46567	345
2.46933	335
2.47300	329
2.47667	325
2.48033	323
2.48400	321
2.48767	322
2.49133	324
2.49500	325
2.49867	324
2.50233	322
2.50600	319
2.50967	314
2.51333	308
2.51700	303
2.52067	297
2.52433	292
2.52800	290
2.53167	288
2.53533	284
2.53900	281
2.54267	279
2.54633	277
2.55000	276
2.55367	273
2.55733	270
2.56100	266
2.56467	263
2.56833	259
2.57200	255
2.57567	253
2.57933	250
2.58300	247
2.58667	244
2.59033	241
2.59400	239
2.59767	236
2.60133	236
2.60500	236
2.60867	238
2.61233	237
2.61600	235
2.61967	233
2.62333	230
2.62700	227
2.63067	225
2.63433	221
2.63800	216
2.64167	211
2.64533	210
2.64900	211
2.65267	211
2.65633	212
2.66000	213
2.66367	213
2.66733	210
2.67100	206
2.67467	201
2.67833	199
2.68200	199
2.68567	203
2.68933	208
2.69300	215
2.69667	220
2.70033	226
2.70400	227
2.70767	225
2.71133	222
2.71500	219
2.71867	215
2.72233	212
2.72600	207
2.72967	202
2.73333	198
2.73700	195
2.74067	195
2.74433	197
2.74800	195
2.75167	189
2.75533	184
2.75900	181
2.76267	179
2.76633	174
2.77000	169
2.77367	169
2.77733	174
2.78100	183
2.78467	190
2.78833	191
2.79200	188
2.79567	183
2.79933	179
2.80300	175
2.80667	176
2.81033	177
2.81400	179
2.81767	179
2.82133	180
2.82500	180
2.82867	176
2.83233	170
2.83600	163
2.83967	160
2.84333	159
2.84700	162
2.85067	166
2.85433	168
2.85800	168
2.86167	168
2.86533	169
2.86900	171
2.87267	170
2.87633	167
2.88000	165
2.88367	163
2.88733	159
2.89100	156
2.89467	153
2.89833	152
2.90200	153
2.90567	155
2.90933	154
2.91300	153
2.91667	153
2.92033	152
2.92400	154
2.92767	160
2.93133	163
2.93500	160
2.93867	154
2.94233	148
2.94600	142
2.94967	137
2.95333	139
2.95700	144
2.96067	152
2.96433	157
2.96800	158
2.97167	156
2.97533	154
2.97900	150
2.98267	148
2.98633	149
2.99000	150
2.99367	150
2.99733	148
3.00100	146
3.00467	143
3.00833	142
3.01200	144
3.01567	149
3.01933	151
3.02300	151
3.02667	152
3.03033	157
3.03400	162
3.03767	165
3.04133	163
3.04500	157
3.04867	150
3.05233	143
3.05600	138
3.05967	133
3.06333	128
3.06700	121
3.07067	118
3.07433	119
3.07800	120
3.08167	120
3.08533	119
3.08900	116
3.09267	114
3.09633	113
3.10000	111
3.10367	111
3.10733	112
3.11100	115
3.11467	119
3.11833	124
3.12200	127
3.12567	127
3.12933	125
3.13300	122
3.13667	119
3.14033	119
3.14400	120
3.14767	123
3.15133	124
3.15500	123
3.15867	121
3.16233	118
3.16600	114
3.16967	108
3.17333	104
3.17700	104
3.18067	108
3.18433	111
3.18800	109
3.19167	104
3.19533	101
3.19900	100
3.20267	98
3.20633	94
3.21000	94
3.21367	97
3.21733	100
3.22100	103
3.22467	105
3.22833	107
3.23200	108
3.23567	107
3.23933	105
3.24300	104
3.24667	104
3.25033	103
3.25400	102
3.25767	102
3.26133	106
3.26500	111
3.26867	113
3.27233	115
3.27600	120
3.27967	124
3.28333	124
3.28700	121
3.29067	115
3.29433	110
3.29800	106
3.30167	107
3.30533	110
3.30900	112
3.31267	116
3.31633	121
3.32000	123
3.32367	120
3.32733	115
3.33100	113
3.33467	110
3.33833	107
3.34200	104
3.34567	100
3.34933	96
3.35300	92
3.35667	87
3.36033	83
3.36400	81
3.36767	80
3.37133	81
3.37500	82
3.37867	82
3.38233	84
3.38600	87
3.38967	92
3.39333	98
3.39700	103
3.40067	103
3.40433	101
3.40800	97
3.41167	90
3.41533	84
3.41900	76
3.42267	70
3.42633	67
3.43000	66
3.43367	65
3.43733	66
3.44100	70
3.44467	76
3.44833	80
3.45200	83
3.45567	83
3.45933	82
3.46300	80
3.46667	76
3.47033	72
3.47400	70
3.47767	70
3.48133	72
3.48500	73
3.48867	72
3.49233	71
3.49600	71
3.49967	72
3.50333	73
3.50700	73
3.51067	70
3.51433	65
3.51800	62
3.52167	65
3.52533	69
3.52900	70
3.53267	69
3.53633	67
3.54000	67
3.54367	67
3.54733	65
3.55100	61
3.55467	61
3.55833	64
3.56200	68
3.56567	70
3.56933	68
3.57300	65
3.57667	61
3.58033	58
3.58400	56
3.58767	54
3.59133	54
3.59500	57
3.59867	61
3.60233	62
3.60600	61
3.60967	60
3.61333	58
3.61700	56
3.62067	53
3.62433	52
3.62800	55
3.63167	60
3.63533	60
3.63900	57
3.64267	54
3.64633	51
3.65000	49
3.65367	49
3.65733	53
3.66100	58
3.66467	60
3.66833	59
3.67200	56
3.67567	55
3.67933	58
3.68300	63
3.68667	67
3.69033	66
3.69400	61
3.69767	55
3.70133	50
3.70500	47
3.70867	49
3.71233	54
3.71600	59
3.71967	64
3.72333	67
3.72700	68
3.73067	67
3.73433	63
3.73800	57
3.74167	49
3.74533	40
3.74900	31
3.75267	24
3.75633	22
3.76000	28
3.76367	37
3.76733	44
3.77100	48
3.77467	48
3.77833	47
3.78200	46
3.78567	48
3.78933	51
3.79300	54
3.79667	59
3.80033	62
3.80400	62
3.80767	57
3.81133	50
3.81500	43
3.81867	41
3.82233	42
3.82600	44
3.82967	43
3.83333	38
3.83700	35
3.84067	34
3.84433	33
3.84800	31
3.85167	30
3.85533	29
3.85900	29
3.86267	28
3.86633	27
3.87000	28
3.87367	31
3.87733	35
3.88100	39
3.88467	41
3.88833	40
3.89200	37
3.89567	33
3.89933	32
3.90300	35
3.90667	39
3.91033	42
3.91400	45
3.91767	44
3.92133	41
3.92500	36
3.92867	30
3.93233	22
3.93600	16
3.93967	13
3.94333	13
3.94700	15
3.95067	19
3.95433	24
3.95800	30
3.96167	36
3.96533	42
3.96900	44
3.97267	44
3.97633	44
3.98000	45
3.98367	43
3.98733	38
3.99100	30
3.99467	25
3.99833	25

[Chromatogram (Ch2)]
Interval(msec)	220
# of Points	1091
Start Time(min)	0.002
End Time(min)	3.998
R.Time (min)	Intensity
0.00167	-0
0.00533	-0
0.00900	-0
0.01267	-0
0.01633	-1
0.02000	-1
0.02367	-1
0.02733	-1
0.03100	-1
0.03467	-1
0.03833	-1
0.04200	-1
0.04567	-0
0.04933	-0
0.05300	-0
0.05667	0
0.06033	0
0.06400	0
0.06767	0
0.07133	0
0.07500	0
0.07867	0
0.08233	0
0.08600	0
0.08967	1
0.09333	1
0.09700	1
0.10067	1
0.10433	1
0.10800	1
0.11167	1
0.11533	1
0.11900	1
0.12267	1
0.12633	1
0.13000	1
0.13367	1
0.13733	1
0.14100	1
0.14467	1
0.14833	0
0.15200	0
0.15567	0
0.15933	0
0.16300	0
0.16667	-0
0.17033	0
0.17400	0
0.17767	0
0.18133	0
0.18500	0
0.18867	0
0.19233	-0
0.19600	-0
0.19967	-0
0.20333	-1
0.20700	-1
0.21067	-1
0.21433	-0
0.21800	0
0.22167	0
0.22533	0
0.22900	1
0.23267	0
0.23633	0
0.24000	1
0.24367	1
0.24733	0
0.25100	0
0.25467	0
0.25833	0
0.26200	0
0.26567	0
0.26933	0
0.27300	0
0.27667	0
0.28033	0
0.28400	-0
0.28767	-0
0.29133	-0
0.29500	-1
0.29867	-1
0.30233	-0
0.30600	-0
0.30967	-0
0.31333	-0
0.31700	-0
0.32067	-0
0.32433	-0
0.32800	-0
0.33167	0
0.33533	0
0.33900	0
0.34267	0
0.34633	0
0.35000	0
0.35367	-0
0.35733	-0
0.36100	-0
0.36467	-1
0.36833	-1
0.37200	-1
0.37567	-1
0.37933	-1
0.38300	-1
0.38667	-1
0.39033	-1
0.39400	-1
0.39767	-1
0.40133	-1
0.40500	-1
0.40867	-1
0.41233	-1
0.41600	-1
0.41967	-1
0.42333	-1
0.42700	-1
0.43067	-1
0.43433	-1
0.43800	-2
0.44167	-1
0.44533	-2
0.44900	-2
0.45267	-2
0.45633	-2
0.46000	-2
0.46367	-2
0.46733	-2
0.47100	-2
0.47467	-1
0.47833	-1
0.48200	-1
0.48567	-1
0.48933	-1
0.49300	-1
0.49667	-1
0.50033	-1
0.50400	-0
0.50767	-0
0.51133	-0
0.51500	-0
0.51867	-0
0.52233	-0
0.52600	-0
0.52967	-0
0.53333	-0
0.53700	-0
0.54067	-1
0.54433	-1
0.54800	-1
0.55167	-1
0.55533	-1
0.55900	-1
0.56267	-1
0.56633	-0
0.57000	-0
0.57367	0
0.57733	0
0.58100	0
0.58467	0
0.58833	0
0.59200	0
0.59567	0
0.59933	0
0.60300	0
0.60667	-0
0.61033	-0
0.61400	-0
0.61767	-0
0.62133	-0
0.62500	-0
0.62867	-1
0.63233	-1
0.63600	-1
0.63967	-1
0.64333	-1
0.64700	-1
0.65067	-2
0.65433	-2
0.65800	-2
0.66167	-2
0.66533	-2
0.66900	-2
0.67267	-2
0.67633	-2
0.68000	-2
0.68367	-2
0.68733	-2
0.69100	-2
0.69467	-2
0.69833	-2
0.70200	-2
0.70567	-2
0.70933	-2
0.71300	-2
0.71667	-2
0.72033	-2
0.72400	-2
0.72767	-2
0.73133	-2
0.73500	-1
0.73867	-1
0.74233	-1
0.74600	-1
0.74967	-1
0.75333	-1
0.75700	-2
0.76067	-1
0.76433	-1
0.76800	-1
0.77167	-1
0.77533	-1
0.77900	-1
0.78267	-1
0.78633	-0
0.79000	-0
0.79367	0
0.79733	0
0.80100	0
0.80467	0
0.80833	0
0.81200	-0
0.81567	-0
0.81933	-0
0.82300	-0
0.82667	-1
0.83033	-1
0.83400	-1
0.83767	-1
0.84133	-1
0.84500	-1
0.84867	-1
0.85233	-1
0.85600	-1
0.85967	-1
0.86333	-1
0.86700	-1
0.87067	-2
0.87433	-2
0.87800	-2
0.88167	-2
0.88533	-2
0.88900	-2
0.89267	-2
0.89633	-2
0.90000	-2
0.90367	-2
0.90733	-2
0.91100	-2
0.91467	-2
0.91833	-2
0.92200	-2
0.92567	-2
0.92933	-2
0.93300	-2
0.93667	-2
0.94033	-1
0.94400	-1
0.94767	-2
0.95133	-2
0.95500	-2
0.95867	-2
0.96233	-2
0.96600	-2
0.96967	-2
0.97333	-2
0.97700	-1
0.98067	-1
0.98433	-1
0.98800	-1
0.99167	-1
0.99533	-1
0.99900	-2
1.00267	-2
1.00633	-2
1.01000	-2
1.01367	-2
1.01733	-2
1.02100	-2
1.02467	-2
1.02833	-2
1.03200	-2
1.03567	-2
1.03933	-1
1.04300	-1
1.04667	-1
1.05033	-0
1.05400	-0
1.05767	0
1.06133	0
1.06500	1
1.06867	1
1.07233	1
1.07600	0
1.07967	0
1.08333	-0
1.08700	-0
1.09067	-0
1.09433	-0
1.09800	-0
1.10167	-0
1.10533	-0
1.10900	-0
1.11267	-0
1.11633	-1
1.12000	-1
1.12367	-1
1.12733	-1
1.13100	-1
1.13467	-2
1.13833	-2
1.14200	-2
1.14567	-1
1.14933	-1
1.15300	-1
1.15667	-1
1.16033	-1
1.16400	-1
1.16767	-1
1.17133	-1
1.17500	-1
1.17867	-1
1.18233	-2
1.18600	-2
1.18967	-1
1.19333	-1
1.19700	-1
1.20067	-1
1.20433	-1
1.20800	-1
1.21167	-1
1.21533	-2
1.21900	-1
1.22267	-1
1.22633	-1
1.23000	-1
1.23367	-1
1.23733	-1
1.24100	-1
1.24467	-1
1.24833	-2
1.25200	-2
1.25567	-2
1.25933	-2
1.26300	-2
1.26667	-2
1.27033	-2
1.27400	-2
1.27767	-2
1.28133	-2
1.28500	-2
1.28867	-2
1.29233	-2
1.29600	-1
1.29967	-1
1.30333	-1
1.30700	-1
1.31067	-1
1.31433	-1
1.31800	-1
1.32167	-1
1.32533	-1
1.32900	-2
1.33267	-2
1.33633	-2
1.34000	-2
1.34367	-2
1.34733	-2
1.35100	-2
1.35467	-2
1.35833	-2
1.36200	-2
1.36567	-2
1.36933	-2
1.37300	-2
1.37667	-2
1.38033	-2
1.38400	-2
1.38767	-2
1.39133	-2
1.39500	-2
1.39867	-2
1.40233	-2
1.40600	-2
1.40967	-2
1.41333	-2
1.41700	-3
1.42067	-3
1.42433	-3
1.42800	-3
1.43167	-2
1.43533	-2
1.43900	-2
1.44267	-2
1.44633	-2
1.45000	-2
1.45367	-2
1.45733	-2
1.46100	-2
1.46467	-2
1.46833	-2
1.47200	-2
1.47567	-3
1.47933	-3
1.48300	-3
1.48667	-3
1.49033	-3
1.49400	-2
1.49767	-2
1.50133	-2
1.50500	-2
1.50867	-2
1.51233	-3
1.51600	-2
1.51967	-2
1.52333	-2
1.52700	-2
1.53067	-2
1.53433	-2
1.53800	-1
1.54167	-1
1.54533	-1
1.54900	-1
1.55267	-1
1.55633	-1
1.56000	-1
1.56367	-1
1.56733	-1
1.57100	-1
1.57467	-2
1.57833	-2
1.58200	-2
1.58567	-2
1.58933	-3
1.59300	-3
1.59667	-4
1.60033	-5
1.60400	-6
1.60767	-7
1.61133	-9
1.61500	-11
1.61867	-13
1.62233	-15
1.62600	-18
1.62967	-20
1.63333	-23
1.63700	-26
1.64067	-30
1.64433	-33
1.64800	-36
1.65167	-40
1.65533	-43
1.65900	-46
1.66267	-50
1.66633	-54
1.67000	-58
1.67367	-63
1.67733	-67
1.68100	-72
1.68467	-76
1.68833	-79
1.69200	-83
1.69567	-86
1.69933	-88
1.70300	-90
1.70667	-91
1.71033	-92
1.71400	-93
1.71767	-94
1.72133	-94
1.72500	-95
1.72867	-95
1.73233	-95
1.73600	-95
1.73967	-95
1.74333	-96
1.74700	-97
1.75067	-98
1.75433	-99
1.75800	-99
1.76167	-100
1.76533	-100
1.76900	-100
1.77267	-100
1.77633	-99
1.78000	-99
1.78367	-98
1.78733	-97
1.79100	-96
1.79467	-95
1.79833	-95
1.80200	-95
1.80567	-95
1.80933	-95
1.81300	-96
1.81667	-97
1.82033	-98
1.82400	-99
1.82767	-99
1.83133	-99
1.83500	-99
1.83867	-100
1.84233	-100
1.84600	-100
1.84967	-100
1.85333	-100
1.85700	-101
1.86067	-101
1.86433	-101
1.86800	-101
1.87167	-100
1.87533	-100
1.87900	-99
1.88267	-99
1.88633	-99
1.89000	-99
1.89367	-98
1.89733	-98
1.90100	-98
1.90467	-98
1.90833	-98
1.91200	-98
1.91567	-98
1.91933	-98
1.92300	-98
1.92667	-98
1.93033	-97
1.93400	-97
1.93767	-97
1.94133	-96
1.94500	-96
1.94867	-96
1.95233	-96
1.95600	-96
1.95967	-96
1.96333	-95
1.96700	-95
1.97067	-94
1.97433	-93
1.97800	-93
1.98167	-93
1.98533	-93
1.98900	-93
1.99267	-93
1.99633	-93
2.00000	-93
2.00367	-93
2.00733	-92
2.01100	-91
2.01467	-90
2.01833	-90
2.02200	-89
2.02567	-89
2.02933	-89
2.03300	-89
2.03667	-89
2.04033	-89
2.04400	-89
2.04767	-89
2.05133	-88
2.05500	-87
2.05867	-86
2.06233	-85
2.06600	-85
2.06967	-84
2.07333	-84
2.07700	-84
2.08067	-84
2.08433	-84
2.08800	-85
2.09167	-85
2.09533	-85
2.09900	-85
2.10267	-85
2.10633	-84
2.11000	-84
2.11367	-84
2.11733	-83
2.12100	-83
2.12467	-82
2.12833	-82
2.13200	-82
2.13567	-83
2.13933	-83
2.14300	-83
2.14667	-83
2.15033	-83
2.15400	-83
2.15767	-82
2.16133	-81
2.16500	-80
2.16867	-80
2.17233	-79
2.17600	-79
2.17967	-78
2.18333	-78
2.18700	-77
2.19067	-77
2.19433	-76
2.19800	-76
2.20167	-76
2.20533	-75
2.20900	-75
2.21267	-74
2.21633	-74
2.22000	-74
2.22367	-74
2.22733	-74
2.23100	-74
2.23467	-74
2.23833	-74
2.24200	-74
2.24567	-73
2.24933	-73
2.25300	-72
2.25667	-71
2.26033	-71
2.26400	-71
2.26767	-70
2.27133	-70
2.27500	-70
2.27867	-71
2.28233	-71
2.28600	-71
2.28967	-70
2.29333	-70
2.29700	-69
2.30067	-69
2.30433	-69
2.30800	-69
2.31167	-68
2.31533	-68
2.31900	-68
2.32267	-68
2.32633	-68
2.33000	-68
2.33367	-68
2.33733	-68
2.34100	-68
2.34467	-67
2.34833	-66
2.35200	-66
2.35567	-66
2.35933	-65
2.36300	-65
2.36667	-64
2.37033	-62
2.37400	-60
2.37767	-57
2.38133	-54
2.38500	-51
2.38867	-47
2.39233	-43
2.39600	-39
2.39967	-35
2.40333	-30
2.40700	-25
2.41067	-21
2.41433	-17
2.41800	-13
2.42167	-10
2.42533	-7
2.42900	-4
2.43267	-2
2.43633	-1
2.44000	1
2.44367	2
2.44733	4
2.45100	5
2.45467	6
2.45833	7
2.46200	8
2.46567	10
2.46933	11
2.47300	12
2.47667	13
2.48033	13
2.48400	14
2.48767	15
2.49133	16
2.49500	16
2.49867	17
2.50233	17
2.50600	18
2.50967	18
2.51333	19
2.51700	19
2.52067	19
2.52433	19
2.52800	19
2.53167	19
2.53533	19
2.53900	18
2.54267	18
2.54633	18
2.55000	18
2.55367	17
2.55733	17
2.56100	16
2.56467	15
2.56833	14
2.57200	13
2.57567	12
2.57933	12
2.58300	12
2.58667	13
2.59033	14
2.59400	15
2.59767	16
2.60133	17
2.60500	18
2.60867	18
2.61233	19
2.61600	19
2.61967	20
2.62333	20
2.62700	20
2.63067	20
2.63433	20
2.63800	20
2.64167	20
2.64533	20
2.64900	20
2.65267	21
2.65633	22
2.66000	22
2.66367	23
2.66733	23
2.67100	23
2.67467	23
2.67833	23
2.68200	24
2.68567	24
2.68933	24
2.69300	24
2.69667	24
2.70033	24
2.70400	24
2.70767	25
2.71133	25
2.71500	25
2.71867	26
2.72233	26
2.72600	27
2.72967	28
2.73333	28
2.73700	29
2.74067	29
2.74433	30
2.74800	29
2.75167	29
2.75533	29
2.75900	28
2.76267	28
2.76633	27
2.77000	27
2.77367	27
2.77733	27
2.78100	27
2.78467	27
2.78833	26
2.79200	26
2.79567	27
2.79933	27
2.80300	27
2.80667	28
2.81033	28
2.81400	28
2.81767	28
2.82133	29
2.82500	29
2.82867	29
2.83233	29
2.83600	30
2.83967	30
2.84333	30
2.84700	30
2.85067	29
2.85433	29
2.85800	27
2.86167	25
2.86533	20
2.86900	13
2.87267	2
2.87633	-13
2.88000	-32
2.88367	-57
2.88733	-87
2.89100	-122
2.89467	-163
2.89833	-209
2.90200	-259
2.90567	-314
2.90933	-372
2.91300	-433
2.91667	-496
2.92033	-560
2.92400	-625
2.92767	-689
2.93133	-752
2.93500	-813
2.93867	-870
2.94233	-924
2.94600	-979
2.94967	-1034
2.95333	-1082
2.95700	-1112
2.96067	-1118
2.96433	-1100
2.96800	-1058
2.97167	-999
2.97533	-927
2.97900	-848
2.98267	-766
2.98633	-685
2.99000	-607
2.99367	-534
2.99733	-467
3.00100	-405
3.00467	-350
3.00833	-301
3.01200	-257
3.01567	-219
3.01933	-186
3.02300	-157
3.02667	-132
3.03033	-111
3.03400	-92
3.03767	-76
3.04133	-62
3.04500	-51
3.04867	-41
3.05233	-32
3.05600	-25
3.05967	-19
3.06333	-14
3.06700	-10
3.07067	-6
3.07433	-2
3.07800	1
3.08167	3
3.08533	5
3.08900	7
3.09267	8
3.09633	10
3.10000	11
3.10367	12
3.10733	13
3.11100	14
3.11467	15
3.11833	16
3.12200	16
3.12567	17
3.12933	18
3.13300	18
3.13667	19
3.14033	19
3.14400	19
3.14767	19
3.15133	20
3.15500	20
3.15867	20
3.16233	20
3.16600	20
3.16967	20
3.17333	21
3.17700	21
3.18067	21
3.18433	21
3.18800	21
3.19167	21
3.19533	21
3.19900	21
3.20267	22
3.20633	22
3.21000	22
3.21367	23
3.21733	23
3.22100	23
3.22467	23
3.22833	23
3.23200	23
3.23567	23
3.23933	23
3.24300	24
3.24667	24
3.25033	24
3.25400	24
3.25767	24
3.26133	24
3.26500	24
3.26867	24
3.27233	25
3.27600	25
3.27967	25
3.28333	26
3.28700	27
3.29067	27
3.29433	28
3.29800	28
3.30167	29
3.30533	29
3.30900	29
3.31267	29
3.31633	30
3.32000	30
3.32367	30
3.32733	31
3.33100	31
3.33467	31
3.33833	31
3.34200	31
3.34567	31
3.34933	31
3.35300	31
3.35667	31
3.36033	32
3.36400	32
3.36767	32
3.37133	32
3.37500	31
3.37867	31
3.38233	31
3.38600	31
3.38967	31
3.39333	31
3.39700	31
3.40067	31
3.40433	31
3.40800	31
3.41167	31
3.41533	31
3.41900	30
3.42267	30
3.42633	31
3.43000	31
3.43367	31
3.43733	31
3.44100	31
3.44467	30
3.44833	30
3.45200	30
3.45567	30
3.45933	30
3.46300	30
3.46667	30
3.47033	30
3.47400	30
3.47767	30
3.48133	30
3.48500	30
3.48867	29
3.49233	29
3.49600	29
3.49967	29
3.50333	29
3.50700	29
3.51067	29
3.51433	29
3.51800	29
3.52167	29
3.52533	29
3.52900	29
3.53267	29
3.53633	29
3.54000	29
3.54367	29
3.54733	29
3.55100	29
3.55467	29
3.55833	29
3.56200	29
3.56567	29
3.56933	29
3.57300	29
3.57667	29
3.58033	29
3.58400	29
3.58767	29
3.59133	28
3.59500	28
3.59867	28
3.60233	28
3.60600	28
3.60967	28
3.61333	29
3.61700	29
3.62067	29
3.62433	29
3.62800	29
3.63167	29
3.63533	29
3.63900	29
3.64267	29
3.64633	28
3.65000	28
3.65367	29
3.65733	29
3.66100	29
3.66467	29
3.66833	29
3.67200	29
3.67567	29
3.67933	29
3.68300	28
3.68667	28
3.69033	28
3.69400	29
3.69767	29
3.70133	29
3.70500	29
3.70867	29
3.71233	29
3.71600	29
3.71967	29
3.72333	29
3.72700	29
3.73067	29
3.73433	29
3.73800	29
3.74167	28
3.74533	28
3.74900	28
3.75267	28
3.75633	28
3.76000	28
3.76367	29
3.76733	29
3.77100	29
3.77467	29
3.77833	29
3.78200	29
3.78567	29
3.78933	29
3.79300	29
3.79667	29
3.80033	29
3.80400	29
3.80767	29
3.81133	29
3.81500	29
3.81867	29
3.82233	29
3.82600	29
3.82967	28
3.83333	28
3.83700	28
3.84067	28
3.84433	28
3.84800	28
3.85167	28
3.85533	28
3.85900	28
3.86267	28
3.86633	28
3.87000	28
3.87367	28
3.87733	28
3.88100	29
3.88467	29
3.88833	29
3.89200	29
3.89567	29
3.89933	29
3.90300	29
3.90667	29
3.91033	29
3.91400	29
3.91767	29
3.92133	29
3.92500	29
3.92867	29
3.93233	29
3.93600	29
3.93967	29
3.94333	29
3.94700	29
3.95067	29
3.95433	29
3.95800	29
3.96167	29
3.96533	29
3.96900	29
3.97267	29
3.97633	29
3.98000	29
3.98367	29
3.98733	28
3.99100	28
3.99467	28
3.99833	28

[Chromatogram (Ch3)]
Interval(msec)	220
# of Points	1091
Start Time(min)	0.002
End Time(min)	3.998
R.Time (min)	Intensity
0.00167	0
0.00533	1
0.00900	1
0.01267	2
0.01633	0
0.02000	-1
0.02367	-1
0.02733	1
0.03100	3
0.03467	4
0.03833	5
0.04200	6
0.04567	5
0.04933	1
0.05300	-4
0.05667	-4
0.06033	-2
0.06400	1
0.06767	2
0.07133	1
0.07500	0
0.07867	0
0.08233	3
0.08600	3
0.08967	2
0.09333	3
0.09700	3
0.10067	3
0.10433	0
0.10800	-2
0.11167	-2
0.11533	-2
0.11900	-2
0.12267	-1
0.12633	-1
0.13000	-1
0.13367	1
0.13733	1
0.14100	1
0.14467	3
0.14833	5
0.15200	3
0.15567	1
0.15933	1
0.16300	-2
0.16667	-1
0.17033	1
0.17400	3
0.17767	3
0.18133	3
0.18500	5
0.18867	4
0.19233	5
0.19600	4
0.19967	3
0.20333	2
0.20700	3
0.21067	5
0.21433	3
0.21800	0
0.22167	-1
0.22533	-3
0.22900	-5
0.23267	-7
0.23633	-5
0.24000	-3
0.24367	-0
0.24733	2
0.25100	3
0.25467	2
0.25833	2
0.26200	2
0.26567	1
0.26933	-1
0.27300	-2
0.27667	-0
0.28033	2
0.28400	2
0.28767	2
0.29133	-0
0.29500	-3
0.29867	-3
0.30233	-1
0.30600	0
0.30967	1
0.31333	2
0.31700	2
0.32067	-2
0.32433	-3
0.32800	-3
0.33167	-1
0.33533	2
0.33900	3
0.34267	3
0.34633	1
0.35000	0
0.35367	1
0.35733	1
0.36100	2
0.36467	4
0.36833	5
0.37200	5
0.37567	5
0.37933	7
0.38300	8
0.38667	7
0.39033	7
0.39400	7
0.39767	7
0.40133	7
0.40500	6
0.40867	6
0.41233	7
0.41600	7
0.41967	6
0.42333	3
0.42700	2
0.43067	1
0.43433	-0
0.43800	-0
0.44167	-0
0.44533	-1
0.44900	-1
0.45267	-1
0.45633	-2
0.46000	-2
0.46367	-2
0.46733	-4
0.47100	-4
0.47467	-2
0.47833	-2
0.48200	-2
0.48567	1
0.48933	3
0.49300	2
0.49667	3
0.50033	3
0.50400	3
0.50767	2
0.51133	-1
0.51500	-2
0.51867	-4
0.52233	-6
0.52600	-6
0.52967	-4
0.53333	-2
0.53700	-2
0.54067	-4
0.54433	-6
0.54800	-6
0.55167	-4
0.55533	-1
0.55900	3
0.56267	5
0.56633	3
0.57000	2
0.57367	0
0.57733	-1
0.58100	-2
0.58467	-5
0.58833	-8
0.59200	-10
0.59567	-10
0.59933	-9
0.60300	-8
0.60667	-8
0.61033	-7
0.61400	-3
0.61767	-1
0.62133	0
0.62500	2
0.62867	3
0.63233	3
0.63600	3
0.63967	3
0.64333	4
0.64700	4
0.65067	4
0.65433	2
0.65800	-0
0.66167	0
0.66533	-0
0.66900	-1
0.67267	-3
0.67633	-4
0.68000	-6
0.68367	-6
0.68733	-5
0.69100	-4
0.69467	-5
0.69833	-3
0.70200	-1
0.70567	2
0.70933	3
0.71300	-1
0.71667	-1
0.72033	-2
0.72400	-4
0.72767	-2
0.73133	-1
0.73500	1
0.73867	2
0.74233	0
0.74600	-0
0.74967	1
0.75333	5
0.75700	7
0.76067	5
0.76433	2
0.76800	-1
0.77167	-2
0.77533	-1
0.77900	2
0.78267	4
0.78633	3
0.79000	3
0.79367	5
0.79733	5
0.80100	4
0.80467	4
0.80833	5
0.81200	8
0.81567	8
0.81933	7
0.82300	5
0.82667	5
0.83033	4
0.83400	3
0.83767	3
0.84133	3
0.84500	3
0.84867	4
0.85233	3
0.85600	0
0.85967	-2
0.86333	-2
0.86700	-1
0.87067	1
0.87433	4
0.87800	4
0.88167	4
0.88533	4
0.88900	6
0.89267	6
0.89633	6
0.90000	8
0.90367	10
0.90733	8
0.91100	7
0.91467	6
0.91833	5
0.92200	5
0.92567	5
0.92933	5
0.93300	5
0.93667	4
0.94033	4
0.94400	5
0.94767	7
0.95133	9
0.95500	10
0.95867	10
0.96233	10
0.96600	11
0.96967	13
0.97333	12
0.97700	10
0.98067	9
0.98433	8
0.98800	7
0.99167	8
0.99533	8
0.99900	9
1.00267	10
1.00633	11
1.01000	11
1.01367	7
1.01733	5
1.02100	6
1.02467	8
1.02833	8
1.03200	8
1.03567	9
1.03933	10
1.04300	9
1.04667	10
1.05033	11
1.05400	12
1.05767	14
1.06133	14
1.06500	12
1.06867	11
1.07233	8
1.07600	6
1.07967	4
1.08333	5
1.08700	6
1.09067	6
1.09433	7
1.09800	7
1.10167	7
1.10533	7
1.10900	5
1.11267	6
1.11633	6
1.12000	5
1.12367	6
1.12733	6
1.13100	5
1.13467	5
1.13833	6
1.14200	7
1.14567	9
1.14933	10
1.15300	13
1.15667	13
1.16033	12
1.16400	11
1.16767	9
1.17133	8
1.17500	7
1.17867	7
1.18233	9
1.18600	12
1.18967	15
1.19333	15
1.19700	14
1.20067	14
1.20433	15
1.20800	13
1.21167	11
1.21533	11
1.21900	10
1.22267	10
1.22633	10
1.23000	9
1.23367	9
1.23733	8
1.24100	8
1.24467	8
1.24833	9
1.25200	11
1.25567	11
1.25933	9
1.26300	9
1.26667	8
1.27033	9
1.27400	7
1.27767	7
1.28133	7
1.28500	7
1.28867	7
1.29233	8
1.29600	10
1.29967	10
1.30333	9
1.30700	9
1.31067	12
1.31433	13
1.31800	13
1.32167	12
1.32533	11
1.32900	9
1.33267	8
1.33633	8
1.34000	8
1.34367	7
1.34733	8
1.35100	8
1.35467	8
1.35833	9
1.36200	8
1.36567	5
1.36933	4
1.37300	4
1.37667	5
1.38033	6
1.38400	5
1.38767	4
1.39133	4
1.39500	4
1.39867	6
1.40233	6
1.40600	7
1.40967	7
1.41333	6
1.41700	6
1.42067	7
1.42433	10
1.42800	14
1.43167	16
1.43533	16
1.43900	14
1.44267	11
1.44633	8
1.45000	7
1.45367	6
1.45733	4
1.46100	4
1.46467	6
1.46833	6
1.47200	4
1.47567	2
1.47933	3
1.48300	4
1.48667	4
1.49033	3
1.49400	4
1.49767	6
1.50133	7
1.50500	8
1.50867	10
1.51233	10
1.51600	10
1.51967	11
1.52333	12
1.52700	11
1.53067	7
1.53433	5
1.53800	6
1.54167	10
1.54533	11
1.54900	11
1.55267	10
1.55633	11
1.56000	13
1.56367	14
1.56733	15
1.57100	14
1.57467	13
1.57833	14
1.58200	14
1.58567	14
1.58933	12
1.59300	13
1.59667	14
1.60033	13
1.60400	13
1.60767	16
1.61133	16
1.61500	16
1.61867	15
1.62233	14
1.62600	14
1.62967	13
1.63333	13
1.63700	15
1.64067	14
1.64433	13
1.64800	12
1.65167	12
1.65533	12
1.65900	13
1.66267	12
1.66633	13
1.67000	13
1.67367	12
1.67733	10
1.68100	10
1.68467	13
1.68833	16
1.69200	15
1.69567	17
1.69933	16
1.70300	16
1.70667	16
1.71033	16
1.71400	15
1.71767	13
1.72133	11
1.72500	10
1.72867	8
1.73233	9
1.73600	11
1.73967	13
1.74333	17
1.74700	21
1.75067	23
1.75433	22
1.75800	21
1.76167	19
1.76533	18
1.76900	17
1.77267	19
1.77633	17
1.78000	17
1.78367	20
1.78733	22
1.79100	22
1.79467	19
1.79833	17
1.80200	16
1.80567	15
1.80933	15
1.81300	16
1.81667	19
1.82033	22
1.82400	25
1.82767	28
1.83133	28
1.83500	28
1.83867	28
1.84233	28
1.84600	30
1.84967	30
1.85333	29
1.85700	28
1.86067	26
1.86433	26
1.86800	28
1.87167	31
1.87533	34
1.87900	36
1.88267	35
1.88633	35
1.89000	38
1.89367	40
1.89733	41
1.90100	39
1.90467	38
1.90833	36
1.91200	34
1.91567	33
1.91933	30
1.92300	30
1.92667	32
1.93033	33
1.93400	34
1.93767	37
1.94133	38
1.94500	38
1.94867	40
1.95233	41
1.95600	42
1.95967	43
1.96333	47
1.96700	47
1.97067	45
1.97433	44
1.97800	42
1.98167	42
1.98533	42
1.98900	43
1.99267	46
1.99633	50
2.00000	52
2.00367	52
2.00733	54
2.01100	56
2.01467	57
2.01833	55
2.02200	54
2.02567	55
2.02933	57
2.03300	59
2.03667	58
2.04033	56
2.04400	56
2.04767	55
2.05133	56
2.05500	57
2.05867	56
2.06233	58
2.06600	61
2.06967	64
2.07333	68
2.07700	69
2.08067	67
2.08433	65
2.08800	64
2.09167	64
2.09533	65
2.09900	67
2.10267	67
2.10633	65
2.11000	65
2.11367	65
2.11733	66
2.12100	67
2.12467	69
2.12833	68
2.13200	67
2.13567	69
2.13933	71
2.14300	72
2.14667	75
2.15033	78
2.15400	80
2.15767	77
2.16133	75
2.16500	73
2.16867	74
2.17233	76
2.17600	80
2.17967	83
2.18333	86
2.18700	88
2.19067	86
2.19433	84
2.19800	84
2.20167	84
2.20533	85
2.20900	88
2.21267	89
2.21633	87
2.22000	84
2.22367	85
2.22733	86
2.23100	86
2.23467	84
2.23833	84
2.24200	87
2.24567	90
2.24933	92
2.25300	93
2.25667	95
2.26033	96
2.26400	96
2.26767	95
2.27133	94
2.27500	94
2.27867	96
2.28233	98
2.28600	98
2.28967	96
2.29333	95
2.29700	96
2.30067	97
2.30433	97
2.30800	97
2.31167	100
2.31533	100
2.31900	100
2.32267	102
2.32633	101
2.33000	103
2.33367	101
2.33733	101
2.34100	100
2.34467	100
2.34833	101
2.35200	103
2.35567	103
2.35933	103
2.36300	103
2.36667	103
2.37033	103
2.37400	102
2.37767	103
2.38133	105
2.38500	105
2.38867	102
2.39233	104
2.39600	108
2.39967	112
2.40333	116
2.40700	119
2.41067	123
2.41433	126
2.41800	128
2.42167	128
2.42533	127
2.42900	124
2.43267	123
2.43633	123
2.44000	129
2.44367	176
2.44733	258
2.45100	332
2.45467	385
2.45833	406
2.46200	401
2.46567	386
2.46933	371
2.47300	361
2.47667	349
2.48033	332
2.48400	311
2.48767	288
2.49133	267
2.49500	250
2.49867	238
2.50233	231
2.50600	230
2.50967	235
2.51333	242
2.51700	249
2.52067	252
2.52433	251
2.52800	247
2.53167	238
2.53533	228
2.53900	217
2.54267	205
2.54633	193
2.55000	184
2.55367	175
2.55733	170
2.56100	165
2.56467	161
2.56833	159
2.57200	159
2.57567	161
2.57933	161
2.58300	163
2.58667	168
2.59033	173
2.59400	178
2.59767	184
2.60133	192
2.60500	201
2.60867	210
2.61233	218
2.61600	223
2.61967	227
2.62333	227
2.62700	224
2.63067	219
2.63433	212
2.63800	206
2.64167	199
2.64533	190
2.64900	181
2.65267	172
2.65633	164
2.66000	157
2.66367	151
2.66733	145
2.67100	139
2.67467	134
2.67833	130
2.68200	129
2.68567	128
2.68933	124
2.69300	122
2.69667	120
2.70033	120
2.70400	116
2.70767	113
2.71133	111
2.71500	111
2.71867	116
2.72233	120
2.72600	121
2.72967	122
2.73333	126
2.73700	127
2.74067	128
2.74433	130
2.74800	130
2.75167	130
2.75533	131
2.75900	131
2.76267	132
2.76633	136
2.77000	140
2.77367	143
2.77733	146
2.78100	150
2.78467	153
2.78833	155
2.79200	158
2.79567	161
2.79933	164
2.80300	164
2.80667	167
2.81033	169
2.81400	172
2.81767	174
2.82133	176
2.82500	177
2.82867	179
2.83233	183
2.83600	192
2.83967	213
2.84333	253
2.84700	329
2.85067	461
2.85433	665
2.85800	955
2.86167	1332
2.86533	1781
2.86900	2271
2.87267	2764
2.87633	3220
2.88000	3599
2.88367	3875
2.88733	4031
2.89100	4051
2.89467	3894
2.89833	3646
2.90200	3411
2.90567	3212
2.90933	3035
2.91300	2871
2.91667	2715
2.92033	2568
2.92400	2432
2.92767	2306
2.93133	2187
2.93500	2076
2.93867	1976
2.94233	1884
2.94600	1796
2.94967	1717
2.95333	1644
2.95700	1578
2.96067	1520
2.96433	1466
2.96800	1415
2.97167	1370
2.97533	1329
2.97900	1295
2.98267	1264
2.98633	1233
2.99000	1206
2.99367	1181
2.99733	1162
3.00100	1147
3.00467	1133
3.00833	1116
3.01200	1099
3.01567	1085
3.01933	1074
3.02300	1063
3.02667	1051
3.03033	1041
3.03400	1032
3.03767	1023
3.04133	1013
3.04500	1002
3.04867	993
3.05233	986
3.05600	979
3.05967	973
3.06333	966
3.06700	960
3.07067	957
3.07433	954
3.07800	952
3.08167	949
3.08533	946
3.08900	943
3.09267	941
3.09633	940
3.10000	939
3.10367	936
3.10733	932
3.11100	929
3.11467	929
3.11833	930
3.12200	931
3.12567	930
3.12933	927
3.13300	923
3.13667	921
3.14033	920
3.14400	921
3.14767	919
3.15133	918
3.15500	915
3.15867	910
3.16233	906
3.16600	905
3.16967	903
3.17333	902
3.17700	898
3.18067	893
3.18433	889
3.18800	888
3.19167	884
3.19533	879
3.19900	875
3.20267	873
3.20633	872
3.21000	869
3.21367	865
3.21733	861
3.22100	859
3.22467	857
3.22833	853
3.23200	849
3.23567	846
3.23933	843
3.24300	840
3.24667	834
3.25033	830
3.25400	828
3.25767	826
3.26133	824
3.26500	822
3.26867	820
3.27233	820
3.27600	820
3.27967	819
3.28333	817
3.28700	816
3.29067	813
3.29433	808
3.29800	804
3.30167	802
3.30533	800
3.30900	796
3.31267	794
3.31633	794
3.32000	794
3.32367	794
3.32733	793
3.33100	791
3.33467	786
3.33833	785
3.34200	783
3.34567	779
3.34933	776
3.35300	775
3.35667	774
3.36033	773
3.36400	772
3.36767	772
3.37133	769
3.37500	767
3.37867	766
3.38233	765
3.38600	764
3.38967	760
3.39333	755
3.39700	751
3.40067	749
3.40433	746
3.40800	745
3.41167	741
3.41533	740
3.41900	740
3.42267	741
3.42633	741
3.43000	741
3.43367	739
3.43733	736
3.44100	730
3.44467	724
3.44833	717
3.45200	711
3.45567	707
3.45933	702
3.46300	699
3.46667	698
3.47033	697
3.47400	696
3.47767	696
3.48133	697
3.48500	696
3.48867	693
3.49233	690
3.49600	685
3.49967	681
3.50333	676
3.50700	670
3.51067	664
3.51433	661
3.51800	658
3.52167	658
3.52533	661
3.52900	663
3.53267	661
3.53633	663
3.54000	664
3.54367	664
3.54733	661
3.55100	660
3.55467	659
3.55833	656
3.56200	651
3.56567	646
3.56933	644
3.57300	642
3.57667	640
3.58033	640
3.58400	639
3.58767	640
3.59133	639
3.59500	634
3.59867	629
3.60233	626
3.60600	625
3.60967	624
3.61333	621
3.61700	617
3.62067	612
3.62433	608
3.62800	605
3.63167	604
3.63533	603
3.63900	601
3.64267	599
3.64633	596
3.65000	594
3.65367	592
3.65733	590
3.66100	587
3.66467	584
3.66833	584
3.67200	584
3.67567	587
3.67933	590
3.68300	590
3.68667	587
3.69033	583
3.69400	583
3.69767	582
3.70133	580
3.70500	578
3.70867	577
3.71233	575
3.71600	575
3.71967	574
3.72333	574
3.72700	571
3.73067	569
3.73433	566
3.73800	563
3.74167	563
3.74533	563
3.74900	562
3.75267	562
3.75633	562
3.76000	559
3.76367	559
3.76733	558
3.77100	555
3.77467	556
3.77833	557
3.78200	556
3.78567	554
3.78933	551
3.79300	549
3.79667	547
3.80033	545
3.80400	542
3.80767	541
3.81133	541
3.81500	539
3.81867	537
3.82233	536
3.82600	538
3.82967	540
3.83333	539
3.83700	537
3.84067	536
3.84433	535
3.84800	536
3.85167	537
3.85533	536
3.85900	533
3.86267	532
3.86633	533
3.87000	534
3.87367	532
3.87733	531
3.88100	530
3.88467	527
3.88833	524
3.89200	520
3.89567	518
3.89933	517
3.90300	518
3.90667	518
3.91033	520
3.91400	519
3.91767	517
3.92133	515
3.92500	513
3.92867	512
3.93233	510
3.93600	510
3.93967	509
3.94333	505
3.94700	500
3.95067	495
3.95433	492
3.95800	490
3.96167	491
3.96533	490
3.96900	490
3.97267	489
3.97633	491
3.98000	492
3.98367	490
3.98733	490
3.99100	490
3.99467	488
3.99833	482

[Status Trace (Column Oven Temperature)]
Interval(msec)	1000
# of Points	240
Start Time(min)	0.009
End Time(min)	3.992
Intensity Units	
Intensity Multiplier	1
R.Time (min)	Intensity
0.00850	35.04
0.02517	35.04
0.04183	35.03
0.05850	35.03
0.07517	35.04
0.09183	35.05
0.10850	35.04
0.12517	35.04
0.14183	35.04
0.15850	35.04
0.17517	35.04
0.19183	35.03
0.20850	35.03
0.22517	35.03
0.24183	35.02
0.25850	35.02
0.27517	35.02
0.29183	35.02
0.30850	35.01
0.32517	35.01
0.34183	35.01
0.35850	35.00
0.37517	35.00
0.39183	35.00
0.40850	35.00
0.42517	35.00
0.44183	35.01
0.45850	35.01
0.47517	35.01
0.49183	35.01
0.50850	35.01
0.52517	35.02
0.54183	35.01
0.55850	35.01
0.57517	35.00
0.59183	35.00
0.60850	35.00
0.62517	34.99
0.64183	35.00
0.65850	35.00
0.67517	35.00
0.69183	35.00
0.70850	35.01
0.72517	35.01
0.74183	35.01
0.75850	35.01
0.77517	35.00
0.79183	35.00
0.80850	35.00
0.82517	35.00
0.84183	35.00
0.85850	34.99
0.87517	34.99
0.89183	35.00
0.90850	35.00
0.92517	35.01
0.94183	35.01
0.95850	35.00
0.97517	35.00
0.99183	35.00
1.00850	35.00
1.02517	35.00
1.04183	35.00
1.05850	34.99
1.07517	34.98
1.09183	34.99
1.10850	34.99
1.12517	34.99
1.14183	35.00
1.15850	34.99
1.17517	35.00
1.19183	35.00
1.20850	35.00
1.22517	35.00
1.24183	35.00
1.25850	35.00
1.27517	35.00
1.29183	34.99
1.30850	34.99
1.32517	34.99
1.34183	34.99
1.35850	34.98
1.37517	34.99
1.39183	34.99
1.40850	35.00
1.42517	35.00
1.44183	34.99
1.45850	35.00
1.47517	35.00
1.49183	34.99
1.50850	34.99
1.52517	35.00
1.54183	35.00
1.55850	34.99
1.57517	34.99
1.59183	35.01
1.60850	35.07
1.62517	35.19
1.64183	35.38
1.65850	35.62
1.67517	35.97
1.69183	36.34
1.70850	36.70
1.72517	37.02
1.74183	37.36
1.75850	37.71
1.77517	38.03
1.79183	38.33
1.80850	38.67
1.82517	39.00
1.84183	39.34
1.85850	39.69
1.87517	40.01
1.89183	40.34
1.90850	40.66
1.92517	40.99
1.94183	41.30
1.95850	41.63
1.97517	41.95
1.99183	42.29
2.00850	42.59
2.02517	42.91
2.04183	43.27
2.05850	43.57
2.07517	43.90
2.09183	44.25
2.10850	44.57
2.12517	44.91
2.14183	45.25
2.15850	45.56
2.17517	45.89
2.19183	46.22
2.20850	46.54
2.22517	46.85
2.24183	47.19
2.25850	47.51
2.27517	47.86
2.29183	48.17
2.30850	48.49
2.32517	48.85
2.34183	49.15
2.35850	49.46
2.37517	49.68
2.39183	49.77
2.40850	49.77
2.42517	49.77
2.44183	49.77
2.45850	49.78
2.47517	49.78
2.49183	49.79
2.50850	49.78
2.52517	49.80
2.54183	49.80
2.55850	49.81
2.57517	49.84
2.59183	49.84
2.60850	49.83
2.62517	49.85
2.64183	49.85
2.65850	49.83
2.67517	49.85
2.69183	49.86
2.70850	49.86
2.72517	49.85
2.74183	49.85
2.75850	49.87
2.77517	49.89
2.79183	49.91
2.80850	49.91
2.82517	49.91
2.84183	49.91
2.85850	49.92
2.87517	49.92
2.89183	49.92
2.90850	49.93
2.92517	49.94
2.94183	49.96
2.95850	49.97
2.97517	49.98
2.99183	49.99
3.00850	50.00
3.02517	50.00
3.04183	50.00
3.05850	50.00
3.07517	50.00
3.09183	50.02
3.10850	50.02
3.12517	50.04
3.14183	50.05
3.15850	50.05
3.17517	50.06
3.19183	50.07
3.20850	50.08
3.22517	50.09
3.24183	50.10
3.25850	50.11
3.27517	50.11
3.29183	50.10
3.30850	50.08
3.32517	50.07
3.34183	50.05
3.35850	50.03
3.37517	50.03
3.39183	50.02
3.40850	50.02
3.42517	50.01
3.44183	50.00
3.45850	50.00
3.47517	50.00
3.49183	50.00
3.50850	50.01
3.52517	50.01
3.54183	50.01
3.55850	50.01
3.57517	50.02
3.59183	50.02
3.60850	50.02
3.62517	50.03
3.64183	50.03
3.65850	50.02
3.67517	50.03
3.69183	50.03
3.70850	50.03
3.72517	50.03
3.74183	50.03
3.75850	50.03
3.77517	50.03
3.79183	50.03
3.80850	50.03
3.82517	50.04
3.84183	50.04
3.85850	50.04
3.87517	50.04
3.89183	50.05
3.90850	50.05
3.92517	50.06
3.94183	50.05
3.95850	50.06
3.97517	50.07
3.99183	50.07

[Status Trace (Injection Unit Temperature)]
Interval(msec)	1000
# of Points	240
Start Time(min)	0.009
End Time(min)	3.992
Intensity Units	
Intensity Multiplier	1
R.Time (min)	Intensity
0.00850	99.98
0.02517	99.97
0.04183	99.98
0.05850	99.98
0.07517	99.98
0.09183	99.98
0.10850	99.98
0.12517	99.98
0.14183	99.98
0.15850	99.97
0.17517	99.98
0.19183	99.98
0.20850	99.97
0.22517	99.98
0.24183	99.98
0.25850	99.98
0.27517	99.98
0.29183	99.98
0.30850	99.98
0.32517	99.98
0.34183	99.98
0.35850	99.98
0.37517	99.98
0.39183	99.98
0.40850	99.98
0.42517	99.98
0.44183	99.98
0.45850	99.98
0.47517	99.98
0.49183	99.98
0.50850	99.98
0.52517	99.98
0.54183	99.98
0.55850	99.98
0.57517	99.98
0.59183	99.98
0.60850	99.98
0.62517	99.98
0.64183	99.98
0.65850	99.98
0.67517	99.98
0.69183	99.98
0.70850	99.98
0.72517	99.98
0.74183	99.98
0.75850	99.98
0.77517	99.98
0.79183	99.98
0.80850	99.98
0.82517	99.98
0.84183	99.98
0.85850	99.98
0.87517	99.98
0.89183	99.98
0.90850	99.98
0.92517	99.98
0.94183	99.98
0.95850	99.98
0.97517	99.98
0.99183	99.98
1.00850	99.98
1.02517	99.98
1.04183	99.98
1.05850	99.98
1.07517	99.98
1.09183	99.98
1.10850	99.98
1.12517	99.98
1.14183	99.98
1.15850	99.98
1.17517	99.98
1.19183	99.98
1.20850	99.98
1.22517	99.98
1.24183	99.98
1.25850	99.98
1.27517	99.98
1.29183	99.98
1.30850	99.98
1.32517	99.98
1.34183	99.98
1.35850	99.98
1.37517	99.98
1.39183	99.98
1.40850	99.98
1.42517	99.98
1.44183	99.98
1.45850	99.98
1.47517	99.98
1.49183	99.98
1.50850	99.98
1.52517	99.98
1.54183	99.98
1.55850	99.98
1.57517	99.98
1.59183	99.98
1.60850	99.98
1.62517	99.98
1.64183	99.98
1.65850	99.98
1.67517	99.98
1.69183	99.98
1.70850	99.98
1.72517	99.98
1.74183	99.98
1.75850	99.98
1.77517	99.98
1.79183	99.98
1.80850	99.98
1.82517	99.98
1.84183	99.98
1.85850	99.98
1.87517	99.98
1.89183	99.98
1.90850	99.98
1.92517	99.98
1.94183	99.98
1.95850	99.98
1.97517	99.98
1.99183	99.98
2.00850	99.97
2.02517	99.97
2.04183	99.97
2.05850	99.98
2.07517	99.97
2.09183	99.97
2.10850	99.97
2.12517	99.97
2.14183	99.97
2.15850	99.97
2.17517	99.97
2.19183	99.97
2.20850	99.97
2.22517	99.97
2.24183	99.97
2.25850	99.97
2.27517	99.97
2.29183	99.97
2.30850	99.97
2.32517	99.97
2.34183	99.97
2.35850	99.97
2.37517	99.97
2.39183	99.96
2.40850	99.97
2.42517	99.96
2.44183	99.97
2.45850	99.97
2.47517	99.97
2.49183	99.97
2.50850	99.97
2.52517	99.97
2.54183	99.97
2.55850	99.97
2.57517	99.97
2.59183	99.97
2.60850	99.97
2.62517	99.97
2.64183	99.97
2.65850	99.98
2.67517	99.98
2.69183	99.97
2.70850	99.98
2.72517	99.98
2.74183	99.98
2.75850	99.98
2.77517	99.98
2.79183	99.99
2.80850	99.99
2.82517	99.99
2.84183	99.99
2.85850	99.99
2.87517	100.00
2.89183	100.00
2.90850	99.99
2.92517	100.00
2.94183	100.00
2.95850	100.00
2.97517	100.00
2.99183	100.00
3.00850	100.01
3.02517	100.01
3.04183	100.01
3.05850	100.01
3.07517	100.01
3.09183	100.01
3.10850	100.01
3.12517	100.02
3.14183	100.02
3.15850	100.02
3.17517	100.02
3.19183	100.02
3.20850	100.02
3.22517	100.02
3.24183	100.02
3.25850	100.02
3.27517	100.03
3.29183	100.03
3.30850	100.03
3.32517	100.03
3.34183	100.03
3.35850	100.03
3.37517	100.03
3.39183	100.03
3.40850	100.03
3.42517	100.03
3.44183	100.03
3.45850	100.04
3.47517	100.03
3.49183	100.03
3.50850	100.04
3.52517	100.04
3.54183	100.04
3.55850	100.04
3.57517	100.03
3.59183	100.04
3.60850	100.04
3.62517	100.04
3.64183	100.04
3.65850	100.04
3.67517	100.04
3.69183	100.04
3.70850	100.04
3.72517	100.04
3.74183	100.04
3.75850	100.04
3.77517	100.04
3.79183	100.04
3.80850	100.04
3.82517	100.04
3.84183	100.04
3.85850	100.05
3.87517	100.04
3.89183	100.04
3.90850	100.05
3.92517	100.05
3.94183	100.04
3.95850	100.04
3.97517	100.05
3.99183	100.05

[Status Trace (Carrier Gas Pressure)]
Interval(msec)	1000
# of Points	240
Start Time(min)	0.009
End Time(min)	3.992
Intensity Units	
Intensity Multiplier	1
R.Time (min)	Intensity
0.00850	58.00
0.02517	55.25
0.04183	57.09
0.05850	59.27
0.07517	59.41
0.09183	58.08
0.10850	57.98
0.12517	58.01
0.14183	58.01
0.15850	58.01
0.17517	58.00
0.19183	58.00
0.20850	58.00
0.22517	58.00
0.24183	58.00
0.25850	58.00
0.27517	58.00
0.29183	58.00
0.30850	58.00
0.32517	58.00
0.34183	58.00
0.35850	58.00
0.37517	58.00
0.39183	58.00
0.40850	58.00
0.42517	58.00
0.44183	58.00
0.45850	58.00
0.47517	58.00
0.49183	58.00
0.50850	58.00
0.52517	58.00
0.54183	58.00
0.55850	58.00
0.57517	58.00
0.59183	58.00
0.60850	58.00
0.62517	58.00
0.64183	58.00
0.65850	58.00
0.67517	58.00
0.69183	58.00
0.70850	58.00
0.72517	58.00
0.74183	58.00
0.75850	58.00
0.77517	58.00
0.79183	58.00
0.80850	58.00
0.82517	58.00
0.84183	58.00
0.85850	58.00
0.87517	58.00
0.89183	58.00
0.90850	58.00
0.92517	58.00
0.94183	58.00
0.95850	58.00
0.97517	58.00
0.99183	58.00
1.00850	58.00
1.02517	58.00
1.04183	58.00
1.05850	58.00
1.07517	58.00
1.09183	58.00
1.10850	58.00
1.12517	58.00
1.14183	58.00
1.15850	58.00
1.17517	58.00
1.19183	58.00
1.20850	58.00
1.22517	58.00
1.24183	58.00
1.25850	58.00
1.27517	58.00
1.29183	58.00
1.30850	58.00
1.32517	58.00
1.34183	58.00
1.35850	58.00
1.37517	58.00
1.39183	58.00
1.40850	58.00
1.42517	58.00
1.44183	58.00
1.45850	58.00
1.47517	58.00
1.49183	58.00
1.50850	58.00
1.52517	58.00
1.54183	58.00
1.55850	58.00
1.57517	58.00
1.59183	58.00
1.60850	58.00
1.62517	58.00
1.64183	58.00
1.65850	58.00
1.67517	58.01
1.69183	58.00
1.70850	58.00
1.72517	58.00
1.74183	58.00
1.75850	58.00
1.77517	58.00
1.79183	58.00
1.80850	58.00
1.82517	58.00
1.84183	58.00
1.85850	58.00
1.87517	58.00
1.89183	58.00
1.90850	58.00
1.92517	58.00
1.94183	58.00
1.95850	58.00
1.97517	58.00
1.99183	58.00
2.00850	58.00
2.02517	58.00
2.04183	58.00
2.05850	58.00
2.07517	58.00
2.09183	58.00
2.10850	58.00
2.12517	58.00
2.14183	58.00
2.15850	58.00
2.17517	58.00
2.19183	58.00
2.20850	58.00
2.22517	58.00
2.24183	58.00
2.25850	58.00
2.27517	58.00
2.29183	58.00
2.30850	58.00
2.32517	58.00
2.34183	58.00
2.35850	58.00
2.37517	58.00
2.39183	57.99
2.40850	57.99
2.42517	58.00
2.44183	58.00
2.45850	58.00
2.47517	58.00
2.49183	58.00
2.50850	58.00
2.52517	57.99
2.54183	58.00
2.55850	58.00
2.57517	58.00
2.59183	58.00
2.60850	58.00
2.62517	58.00
2.64183	58.00
2.65850	58.00
2.67517	58.00
2.69183	58.00
2.70850	58.00
2.72517	58.00
2.74183	58.00
2.75850	58.00
2.77517	58.00
2.79183	58.00
2.80850	58.00
2.82517	58.00
2.84183	58.00
2.85850	58.00
2.87517	58.00
2.89183	58.00
2.90850	58.00
2.92517	58.00
2.94183	58.00
2.95850	58.00
2.97517	58.00
2.99183	58.00
3.00850	58.00
3.02517	58.00
3.04183	58.00
3.05850	58.00
3.07517	58.00
3.09183	58.00
3.10850	58.00
3.12517	58.00
3.14183	58.00
3.15850	58.00
3.17517	58.00
3.19183	58.00
3.20850	58.00
3.22517	58.00
3.24183	58.00
3.25850	58.00
3.27517	58.00
3.29183	58.00
3.30850	58.00
3.32517	58.00
3.34183	58.00
3.35850	58.00
3.37517	58.00
3.39183	58.00
3.40850	58.00
3.42517	58.00
3.44183	58.00
3.45850	58.00
3.47517	58.00
3.49183	58.00
3.50850	58.00
3.52517	58.00
3.54183	58.00
3.55850	58.00
3.57517	58.00
3.59183	58.00
3.60850	58.00
3.62517	58.00
3.64183	58.00
3.65850	58.00
3.67517	58.00
3.69183	58.00
3.70850	58.00
3.72517	58.00
3.74183	58.00
3.75850	58.00
3.77517	58.00
3.79183	58.00
3.80850	58.00
3.82517	58.00
3.84183	58.00
3.85850	58.00
3.87517	58.00
3.89183	58.00
3.90850	58.00
3.92517	58.00
3.94183	58.00
3.95850	58.00
3.97517	58.00
3.99183	58.00

[Status Trace (Carrier Gas Flow)]
Interval(msec)	1000
# of Points	240
Start Time(min)	0.009
End Time(min)	3.992
Intensity Units	
Intensity Multiplier	1
R.Time (min)	Intensity
0.00850	34.52
0.02517	34.54
0.04183	34.55
0.05850	34.55
0.07517	34.50
0.09183	34.52
0.10850	34.52
0.12517	34.51
0.14183	34.51
0.15850	34.51
0.17517	34.52
0.19183	34.51
0.20850	34.52
0.22517	34.52
0.24183	34.52
0.25850	34.51
0.27517	34.51
0.29183	34.52
0.30850	34.52
0.32517	34.52
0.34183	34.52
0.35850	34.52
0.37517	34.53
0.39183	34.52
0.40850	34.52
0.42517	34.52
0.44183	34.52
0.45850	34.51
0.47517	34.52
0.49183	34.52
0.50850	34.52
0.52517	34.52
0.54183	34.52
0.55850	34.52
0.57517	34.51
0.59183	34.52
0.60850	34.52
0.62517	34.52
0.64183	34.51
0.65850	34.52
0.67517	34.53
0.69183	34.53
0.70850	34.51
0.72517	34.51
0.74183	34.52
0.75850	34.52
0.77517	34.52
0.79183	34.52
0.80850	34.52
0.82517	34.51
0.84183	34.52
0.85850	34.52
0.87517	34.52
0.89183	34.52
0.90850	34.52
0.92517	34.52
0.94183	34.52
0.95850	34.52
0.97517	34.52
0.99183	34.52
1.00850	34.52
1.02517	34.51
1.04183	34.52
1.05850	34.51
1.07517	34.52
1.09183	34.52
1.10850	34.52
1.12517	34.52
1.14183	34.52
1.15850	34.52
1.17517	34.53
1.19183	34.51
1.20850	34.53
1.22517	34.53
1.24183	34.52
1.25850	34.51
1.27517	34.53
1.29183	34.52
1.30850	34.52
1.32517	34.52
1.34183	34.52
1.35850	34.52
1.37517	34.51
1.39183	34.52
1.40850	34.52
1.42517	34.51
1.44183	34.52
1.45850	34.52
1.47517	34.52
1.49183	34.52
1.50850	34.52
1.52517	34.52
1.54183	34.52
1.55850	34.51
1.57517	34.52
1.59183	34.51
1.60850	34.52
1.62517	34.52
1.64183	34.52
1.65850	34.52
1.67517	34.52
1.69183	34.52
1.70850	34.52
1.72517	34.52
1.74183	34.53
1.75850	34.52
1.77517	34.52
1.79183	34.52
1.80850	34.52
1.82517	34.52
1.84183	34.51
1.85850	34.53
1.87517	34.52
1.89183	34.52
1.90850	34.52
1.92517	34.52
1.94183	34.52
1.95850	34.52
1.97517	34.52
1.99183	34.51
2.00850	34.51
2.02517	34.52
2.04183	34.52
2.05850	34.52
2.07517	34.52
2.09183	34.52
2.10850	34.52
2.12517	34.52
2.14183	34.52
2.15850	34.52
2.17517	34.51
2.19183	34.52
2.20850	34.52
2.22517	34.52
2.24183	34.52
2.25850	34.52
2.27517	34.52
2.29183	34.52
2.30850	34.52
2.32517	34.52
2.34183	34.52
2.35850	34.51
2.37517	34.52
2.39183	34.52
2.40850	34.52
2.42517	34.52
2.44183	34.52
2.45850	34.52
2.47517	34.51
2.49183	34.52
2.50850	34.45
2.52517	34.52
2.54183	34.52
2.55850	34.53
2.57517	34.51
2.59183	34.51
2.60850	34.52
2.62517	34.51
2.64183	34.51
2.65850	34.52
2.67517	34.52
2.69183	34.53
2.70850	34.51
2.72517	34.52
2.74183	34.52
2.75850	34.51
2.77517	34.52
2.79183	34.52
2.80850	34.52
2.82517	34.52
2.84183	34.51
2.85850	34.52
2.87517	34.52
2.89183	34.52
2.90850	34.51
2.92517	34.52
2.94183	34.52
2.95850	34.52
2.97517	34.53
2.99183	34.52
3.00850	34.52
3.02517	34.52
3.04183	34.51
3.05850	34.52
3.07517	34.52
3.09183	34.52
3.10850	34.52
3.12517	34.51
3.14183	34.52
3.15850	34.52
3.17517	34.52
3.19183	34.52
3.20850	34.52
3.22517	34.52
3.24183	34.51
3.25850	34.53
3.27517	34.51
3.29183	34.52
3.30850	34.52
3.32517	34.52
3.34183	34.51
3.35850	34.52
3.37517	34.52
3.39183	34.52
3.40850	34.52
3.42517	34.52
3.44183	34.52
3.45850	34.52
3.47517	34.51
3.49183	34.51
3.50850	34.51
3.52517	34.52
3.54183	34.52
3.55850	34.53
3.57517	34.52
3.59183	34.52
3.60850	34.52
3.62517	34.52
3.64183	34.51
3.65850	34.52
3.67517	34.52
3.69183	34.52
3.70850	34.52
3.72517	34.52
3.74183	34.51
3.75850	34.51
3.77517	34.52
3.79183	34.52
3.80850	34.52
3.82517	34.52
3.84183	34.52
3.85850	34.52
3.87517	34.52
3.89183	34.52
3.90850	34.52
3.92517	34.52
3.94183	34.52
3.95850	34.52
3.97517	34.52
3.99183	34.52

[Status Trace (Column Flow)]
Interval(msec)	1000
# of Points	240
Start Time(min)	0.009
End Time(min)	3.992
Intensity Units	
Intensity Multiplier	1
R.Time (min)	Intensity
0.00850	5.50
0.02517	5.18
0.04183	5.40
0.05850	5.65
0.07517	5.66
0.09183	5.51
0.10850	5.50
0.12517	5.50
0.14183	5.50
0.15850	5.50
0.17517	5.50
0.19183	5.50
0.20850	5.50
0.22517	5.50
0.24183	5.50
0.25850	5.50
0.27517	5.50
0.29183	5.50
0.30850	5.50
0.32517	5.50
0.34183	5.50
0.35850	5.50
0.37517	5.50
0.39183	5.50
0.40850	5.50
0.42517	5.50
0.44183	5.50
0.45850	5.50
0.47517	5.50
0.49183	5.50
0.50850	5.50
0.52517	5.50
0.54183	5.50
0.55850	5.50
0.57517	5.50
0.59183	5.50
0.60850	5.50
0.62517	5.50
0.64183	5.50
0.65850	5.50
0.67517	5.50
0.69183	5.50
0.70850	5.50
0.72517	5.50
0.74183	5.50
0.75850	5.50
0.77517	5.50
0.79183	5.50
0.80850	5.50
0.82517	5.50
0.84183	5.50
0.85850	5.50
0.87517	5.50
0.89183	5.50
0.90850	5.50
0.92517	5.50
0.94183	5.50
0.95850	5.50
0.97517	5.50
0.99183	5.50
1.00850	5.50
1.02517	5.50
1.04183	5.50
1.05850	5.50
1.07517	5.50
1.09183	5.50
1.10850	5.50
1.12517	5.50
1.14183	5.50
1.15850	5.50
1.17517	5.50
1.19183	5.50
1.20850	5.50
1.22517	5.50
1.24183	5.50
1.25850	5.50
1.27517	5.50
1.29183	5.50
1.30850	5.50
1.32517	5.50
1.34183	5.50
1.35850	5.50
1.37517	5.50
1.39183	5.50
1.40850	5.50
1.42517	5.50
1.44183	5.50
1.45850	5.50
1.47517	5.50
1.49183	5.50
1.50850	5.50
1.52517	5.50
1.54183	5.50
1.55850	5.50
1.57517	5.50
1.59183	5.50
1.60850	5.50
1.62517	5.50
1.64183	5.49
1.65850	5.48
1.67517	5.47
1.69183	5.46
1.70850	5.45
1.72517	5.44
1.74183	5.43
1.75850	5.42
1.77517	5.41
1.79183	5.40
1.80850	5.39
1.82517	5.38
1.84183	5.37
1.85850	5.36
1.87517	5.35
1.89183	5.34
1.90850	5.33
1.92517	5.32
1.94183	5.31
1.95850	5.30
1.97517	5.29
1.99183	5.28
2.00850	5.27
2.02517	5.26
2.04183	5.25
2.05850	5.24
2.07517	5.23
2.09183	5.22
2.10850	5.21
2.12517	5.20
2.14183	5.20
2.15850	5.19
2.17517	5.18
2.19183	5.17
2.20850	5.16
2.22517	5.15
2.24183	5.14
2.25850	5.13
2.27517	5.12
2.29183	5.11
2.30850	5.10
2.32517	5.09
2.34183	5.09
2.35850	5.08
2.37517	5.07
2.39183	5.07
2.40850	5.07
2.42517	5.07
2.44183	5.07
2.45850	5.07
2.47517	5.07
2.49183	5.07
2.50850	5.07
2.52517	5.06
2.54183	5.07
2.55850	5.07
2.57517	5.07
2.59183	5.06
2.60850	5.07
2.62517	5.06
2.64183	5.06
2.65850	5.06
2.67517	5.06
2.69183	5.06
2.70850	5.06
2.72517	5.06
2.74183	5.06
2.75850	5.06
2.77517	5.06
2.79183	5.06
2.80850	5.06
2.82517	5.06
2.84183	5.06
2.85850	5.06
2.87517	5.06
2.89183	5.06
2.90850	5.06
2.92517	5.06
2.94183	5.06
2.95850	5.06
2.97517	5.06
2.99183	5.06
3.00850	5.06
3.02517	5.06
3.04183	5.06
3.05850	5.06
3.07517	5.06
3.09183	5.06
3.10850	5.06
3.12517	5.06
3.14183	5.06
3.15850	5.06
3.17517	5.06
3.19183	5.06
3.20850	5.06
3.22517	5.06
3.24183	5.06
3.25850	5.06
3.27517	5.06
3.29183	5.06
3.30850	5.06
3.32517	5.06
3.34183	5.06
3.35850	5.06
3.37517	5.06
3.39183	5.06
3.40850	5.06
3.42517	5.06
3.44183	5.06
3.45850	5.06
3.47517	5.06
3.49183	5.06
3.50850	5.06
3.52517	5.06
3.54183	5.06
3.55850	5.06
3.57517	5.06
3.59183	5.06
3.60850	5.06
3.62517	5.06
3.64183	5.06
3.65850	5.06
3.67517	5.06
3.69183	5.06
3.70850	5.06
3.72517	5.06
3.74183	5.06
3.75850	5.06
3.77517	5.06
3.79183	5.06
3.80850	5.06
3.82517	5.06
3.84183	5.06
3.85850	5.06
3.87517	5.06
3.89183	5.06
3.90850	5.06
3.92517	5.06
3.94183	5.06
3.95850	5.06
3.97517	5.06
3.99183	5.06

[Status Trace (Linear Velocity)]
Interval(msec)	1000
# of Points	240
Start Time(min)	0.009
End Time(min)	3.992
Intensity Units	
Intensity Multiplier	1
R.Time (min)	Intensity
0.00850	39.01
0.02517	37.21
0.04183	38.41
0.05850	39.84
0.07517	39.93
0.09183	39.06
0.10850	38.99
0.12517	39.01
0.14183	39.01
0.15850	39.01
0.17517	39.01
0.19183	39.01
0.20850	39.01
0.22517	39.01
0.24183	39.01
0.25850	39.01
0.27517	39.01
0.29183	39.01
0.30850	39.01
0.32517	39.01
0.34183	39.01
0.35850	39.01
0.37517	39.01
0.39183	39.01
0.40850	39.01
0.42517	39.01
0.44183	39.01
0.45850	39.01
0.47517	39.01
0.49183	39.01
0.50850	39.01
0.52517	39.01
0.54183	39.01
0.55850	39.01
0.57517	39.01
0.59183	39.01
0.60850	39.01
0.62517	39.01
0.64183	39.01
0.65850	39.01
0.67517	39.01
0.69183	39.01
0.70850	39.01
0.72517	39.01
0.74183	39.01
0.75850	39.01
0.77517	39.01
0.79183	39.01
0.80850	39.01
0.82517	39.01
0.84183	39.01
0.85850	39.01
0.87517	39.01
0.89183	39.01
0.90850	39.01
0.92517	39.01
0.94183	39.01
0.95850	39.01
0.97517	39.01
0.99183	39.01
1.00850	39.01
1.02517	39.01
1.04183	39.01
1.05850	39.01
1.07517	39.01
1.09183	39.01
1.10850	39.01
1.12517	39.01
1.14183	39.01
1.15850	39.01
1.17517	39.01
1.19183	39.01
1.20850	39.01
1.22517	39.01
1.24183	39.01
1.25850	39.01
1.27517	39.01
1.29183	39.01
1.30850	39.01
1.32517	39.01
1.34183	39.01
1.35850	39.01
1.37517	39.01
1.39183	39.01
1.40850	39.01
1.42517	39.01
1.44183	39.01
1.45850	39.01
1.47517	39.01
1.49183	39.01
1.50850	39.01
1.52517	39.01
1.54183	39.01
1.55850	39.01
1.57517	39.01
1.59183	39.01
1.60850	39.01
1.62517	39.00
1.64183	38.98
1.65850	38.96
1.67517	38.92
1.69183	38.89
1.70850	38.85
1.72517	38.82
1.74183	38.79
1.75850	38.75
1.77517	38.72
1.79183	38.70
1.80850	38.66
1.82517	38.63
1.84183	38.60
1.85850	38.57
1.87517	38.54
1.89183	38.51
1.90850	38.48
1.92517	38.44
1.94183	38.42
1.95850	38.39
1.97517	38.36
1.99183	38.33
2.00850	38.30
2.02517	38.27
2.04183	38.24
2.05850	38.21
2.07517	38.18
2.09183	38.15
2.10850	38.12
2.12517	38.08
2.14183	38.06
2.15850	38.02
2.17517	38.00
2.19183	37.97
2.20850	37.94
2.22517	37.91
2.24183	37.88
2.25850	37.85
2.27517	37.82
2.29183	37.79
2.30850	37.76
2.32517	37.73
2.34183	37.71
2.35850	37.68
2.37517	37.65
2.39183	37.64
2.40850	37.64
2.42517	37.65
2.44183	37.65
2.45850	37.65
2.47517	37.65
2.49183	37.65
2.50850	37.64
2.52517	37.64
2.54183	37.64
2.55850	37.64
2.57517	37.64
2.59183	37.64
2.60850	37.64
2.62517	37.64
2.64183	37.64
2.65850	37.64
2.67517	37.64
2.69183	37.64
2.70850	37.64
2.72517	37.64
2.74183	37.64
2.75850	37.64
2.77517	37.64
2.79183	37.64
2.80850	37.64
2.82517	37.64
2.84183	37.64
2.85850	37.64
2.87517	37.64
2.89183	37.63
2.90850	37.63
2.92517	37.63
2.94183	37.63
2.95850	37.63
2.97517	37.63
2.99183	37.63
3.00850	37.63
3.02517	37.63
3.04183	37.63
3.05850	37.63
3.07517	37.63
3.09183	37.63
3.10850	37.63
3.12517	37.63
3.14183	37.62
3.15850	37.62
3.17517	37.62
3.19183	37.62
3.20850	37.62
3.22517	37.62
3.24183	37.62
3.25850	37.62
3.27517	37.62
3.29183	37.62
3.30850	37.62
3.32517	37.62
3.34183	37.62
3.35850	37.62
3.37517	37.63
3.39183	37.63
3.40850	37.63
3.42517	37.63
3.44183	37.63
3.45850	37.63
3.47517	37.63
3.49183	37.63
3.50850	37.63
3.52517	37.63
3.54183	37.63
3.55850	37.63
3.57517	37.63
3.59183	37.63
3.60850	37.63
3.62517	37.63
3.64183	37.63
3.65850	37.63
3.67517	37.63
3.69183	37.63
3.70850	37.63
3.72517	37.63
3.74183	37.63
3.75850	37.63
3.77517	37.63
3.79183	37.63
3.80850	37.63
3.82517	37.63
3.84183	37.62
3.85850	37.62
3.87517	37.62
3.89183	37.62
3.90850	37.62
3.92517	37.62
3.94183	37.62
3.95850	37.62
3.97517	37.62
3.99183	37.62

