[Header]
Application Name	LabSolutions
Version	5.110
Data File Name	C:\Users\User\Desktop\Junior\UIC Prairie Sampling\2023\8.2.23\080223_007.gcd
Output Date	8/31/2023
Output Time	12:43:05 PM

[File Information]
Type	Data File
Generated	8/29/2023 4:35:48 PM
Generated by	System Administrator
Modified	8/29/2023 4:42:28 PM
Modified by	System Administrator

[Sample Information]
Operator Name	System Administrator
Acquired	8/29/2023 4:38:28 PM
Sample Type	0:Unknown
Level	0
Sample Name	007
Sample ID	007
ISTD Amount1	1
ISTD Amount2	1
ISTD Amount3	1
ISTD Amount4	1
ISTD Amount5	1
ISTD Amount6	1
ISTD Amount7	1
ISTD Amount8	1
ISTD Amount9	1
ISTD Amount10	1
ISTD Amount11	1
ISTD Amount12	1
ISTD Amount13	1
ISTD Amount14	1
ISTD Amount15	1
ISTD Amount16	1
ISTD Amount17	1
ISTD Amount18	1
ISTD Amount19	1
ISTD Amount20	1
ISTD Amount21	1
ISTD Amount22	1
ISTD Amount23	1
ISTD Amount24	1
ISTD Amount25	1
ISTD Amount26	1
ISTD Amount27	1
ISTD Amount28	1
ISTD Amount29	1
ISTD Amount30	1
ISTD Amount31	1
ISTD Amount32	1
Sample Amount	1
Dilution Factor	1
Vial#	6
Injection Volume	1
Injection Count	1
Bar Code	

[Original Files]
Data File	C:\Users\User\Desktop\Junior\UIC Prairie Sampling\8.2.23\080223_007.gcd
Method File	C:\LabSolutions\Data\GHG_4min_2022\ghg3_togas_w_acet_4 min_new_int.gcm
Batch File	C:\LabSolutions\Data\BATCH FILES\080223.gcb
Report Format File	c:\LabSolutions\System\DEFAULT.lsr

[File Description]


[Configuration]
Instrument Name	C0B7VH3-Instrument1
Instrument #	1
Line #	1
# of Detectors	3
Detector ID	DET#1	DET#2	DET#3
Detector Name	FID	PTCD	ECD
# of Channels	1	1	1

[Peak Table(Ch1)]
# of Peaks	3
Peak#	R.Time	I.Time	F.Time	Area	Height	A/H	Conc.	Mark	ID#	Name	k'	Plate #	Plate Ht.	Tailing	Resolution	Sep.Factor	Area Ratio	Height Ratio	Conc. %	Norm Conc.
1	1.472	1.435	1.527	5328	2665	2.000	0.000	   	1	CO	0.000	9954	15.070	1.300	0.000	0.000	0	0	0.000	0.000
2	1.564	1.527	1.622	4474	2291	1.953	21.810	 V 	2	CH4	0.062	11649	12.876	1.104	1.567	0.000	0	0	10.423	10.423
3	1.989	1.945	2.466	972592	469787	2.070	187.436	   	3	CO2	0.351	17790	8.432	1.311	7.234	5.640	0	0	89.577	89.577

[Peak Table(Ch2)]
# of Peaks	0

[Peak Table(Ch3)]
# of Peaks	5
Peak#	R.Time	I.Time	F.Time	Area	Height	A/H	Conc.	Mark	ID#	Name	k'	Plate #	Plate Ht.	Tailing	Resolution	Sep.Factor	Area Ratio	Height Ratio	Conc. %	Norm Conc.
1	2.458	2.389	2.502	809	282	2.865	0.000	   			0.000	12148	12.348	0.000	0.000	0.000	0	0	0.000	0.000
2	2.517	2.502	2.561	375	151	2.488	0.000	 V 			0.024	4052	37.020	0.000	0.474	0.000	0	0	0.000	0.000
3	2.612	2.561	2.689	450	106	4.261	0.000	 V 			0.063	5889	25.472	0.000	0.648	2.625	0	0	0.000	0.000
4	2.891	2.836	3.063	14327	3969	3.609	0.212	   	1	N2O	0.176	14154	10.598	1.553	2.388	2.810	0	0	100.000	100.000
5	3.423	3.335	3.980	8642	488	17.693	0.000	   			0.392	666	225.166	3.686	1.694	2.229	0	0	0.000	0.000

[Compound Results(Ch1)]
# of IDs	6
ID#	Name	R.Time	Area	Height	Conc.	Curve	3rd	2nd	1st	Constant	Area Ratio	Height Ratio	Conc. %	Norm Conc.
1	CO	1.472	5328	2665	0.000	Linear	0.000000e+00	0.000000e+00	0.000000e+00	0.000000e+00	0	0	0.000	0.000
2	CH4	1.564	4474	2291	21.810	Linear	0.000000e+00	0.000000e+00	2.051179e+002	0.000000e+00	0	0	10.423	10.423
3	CO2	1.989	972592	469787	187.436	Linear	0.000000e+00	0.000000e+00	5.188919e+003	0.000000e+00	0	0	89.577	89.577
4	Ethylene	0.000	0	0	0.000	Linear	0.000000e+00	0.000000e+00	0.000000e+00	0.000000e+00	0	0	0.000	0.000
5	Acetylene	0.000	0	0	0.000	Linear	0.000000e+00	0.000000e+00	0.000000e+00	0.000000e+00	0	0	0.000	0.000
6	Ethane	0.000	0	0	0.000	Linear	0.000000e+00	0.000000e+00	0.000000e+00	0.000000e+00	0	0	0.000	0.000

[Compound Results(Ch2)]
# of IDs	5
ID#	Name	R.Time	Area	Height	Conc.	Curve	3rd	2nd	1st	Constant	Area Ratio	Height Ratio	Conc. %	Norm Conc.
1	Hydrogen	0.000	0	0	0.000	Linear	0.000000e+00	0.000000e+00	0.000000e+00	0.000000e+00	0	0	0.000	0.000
2	Oxygen	0.000	0	0	0.000	Linear	0.000000e+00	0.000000e+00	0.000000e+00	0.000000e+00	0	0	0.000	0.000
3	Nitrogen	0.000	0	0	0.000	Linear	0.000000e+00	0.000000e+00	0.000000e+00	0.000000e+00	0	0	0.000	0.000
4	Methane	0.000	0	0	0.000	Linear	0.000000e+00	0.000000e+00	0.000000e+00	0.000000e+00	0	0	0.000	0.000
5	Carbon Monoxide	0.000	0	0	0.000	Linear	0.000000e+00	0.000000e+00	0.000000e+00	0.000000e+00	0	0	0.000	0.000

[Compound Results(Ch3)]
# of IDs	2
ID#	Name	R.Time	Area	Height	Conc.	Curve	3rd	2nd	1st	Constant	Area Ratio	Height Ratio	Conc. %	Norm Conc.
1	N2O	2.891	14327	3969	0.212	Linear	0.000000e+00	0.000000e+00	6.759880e+004	0.000000e+00	0	0	100.000	100.000
2	SF6	0.000	0	0	0.000	Linear	0.000000e+00	0.000000e+00	0.000000e+00	0.000000e+00	0	0	0.000	0.000

[Group Results(Ch1)]
# of Groups	0

[Group Results(Ch2)]
# of Groups	0

[Group Results(Ch3)]
# of Groups	0

[Chromatogram (Ch1)]
Interval(msec)	220
# of Points	1091
Start Time(min)	0.002
End Time(min)	3.998
R.Time (min)	Intensity
0.00167	18
0.00533	18
0.00900	16
0.01267	14
0.01633	11
0.02000	8
0.02367	11
0.02733	16
0.03100	22
0.03467	27
0.03833	28
0.04200	26
0.04567	24
0.04933	23
0.05300	22
0.05667	22
0.06033	21
0.06400	18
0.06767	17
0.07133	17
0.07500	16
0.07867	16
0.08233	16
0.08600	16
0.08967	15
0.09333	14
0.09700	13
0.10067	8
0.10433	4
0.10800	5
0.11167	7
0.11533	7
0.11900	9
0.12267	12
0.12633	15
0.13000	17
0.13367	20
0.13733	23
0.14100	24
0.14467	21
0.14833	18
0.15200	14
0.15567	11
0.15933	11
0.16300	14
0.16667	16
0.17033	18
0.17400	20
0.17767	20
0.18133	19
0.18500	19
0.18867	18
0.19233	16
0.19600	14
0.19967	12
0.20333	14
0.20700	19
0.21067	24
0.21433	23
0.21800	19
0.22167	15
0.22533	14
0.22900	16
0.23267	16
0.23633	15
0.24000	14
0.24367	14
0.24733	12
0.25100	8
0.25467	7
0.25833	8
0.26200	10
0.26567	15
0.26933	21
0.27300	23
0.27667	19
0.28033	15
0.28400	12
0.28767	14
0.29133	18
0.29500	21
0.29867	22
0.30233	20
0.30600	19
0.30967	19
0.31333	18
0.31700	19
0.32067	20
0.32433	20
0.32800	21
0.33167	19
0.33533	15
0.33900	10
0.34267	8
0.34633	9
0.35000	12
0.35367	15
0.35733	19
0.36100	21
0.36467	26
0.36833	31
0.37200	33
0.37567	26
0.37933	13
0.38300	2
0.38667	-0
0.39033	3
0.39400	5
0.39767	6
0.40133	7
0.40500	8
0.40867	7
0.41233	5
0.41600	2
0.41967	-1
0.42333	-1
0.42700	-2
0.43067	-6
0.43433	-5
0.43800	-5
0.44167	-3
0.44533	1
0.44900	6
0.45267	12
0.45633	16
0.46000	18
0.46367	15
0.46733	12
0.47100	13
0.47467	19
0.47833	27
0.48200	31
0.48567	35
0.48933	38
0.49300	37
0.49667	33
0.50033	29
0.50400	26
0.50767	24
0.51133	20
0.51500	14
0.51867	8
0.52233	4
0.52600	1
0.52967	-3
0.53333	-5
0.53700	-4
0.54067	-1
0.54433	5
0.54800	13
0.55167	20
0.55533	23
0.55900	20
0.56267	17
0.56633	13
0.57000	8
0.57367	4
0.57733	2
0.58100	2
0.58467	2
0.58833	3
0.59200	3
0.59567	3
0.59933	4
0.60300	8
0.60667	11
0.61033	10
0.61400	7
0.61767	5
0.62133	5
0.62500	9
0.62867	11
0.63233	9
0.63600	3
0.63967	-4
0.64333	-9
0.64700	-12
0.65067	-9
0.65433	-3
0.65800	0
0.66167	0
0.66533	-3
0.66900	-7
0.67267	-7
0.67633	-5
0.68000	-1
0.68367	2
0.68733	3
0.69100	3
0.69467	3
0.69833	5
0.70200	6
0.70567	6
0.70933	7
0.71300	6
0.71667	5
0.72033	1
0.72400	-5
0.72767	-11
0.73133	-12
0.73500	-11
0.73867	-9
0.74233	-4
0.74600	0
0.74967	1
0.75333	0
0.75700	-2
0.76067	-3
0.76433	-3
0.76800	-5
0.77167	-7
0.77533	-8
0.77900	-8
0.78267	-4
0.78633	1
0.79000	3
0.79367	4
0.79733	6
0.80100	8
0.80467	6
0.80833	3
0.81200	1
0.81567	1
0.81933	-1
0.82300	-4
0.82667	-8
0.83033	-12
0.83400	-13
0.83767	-11
0.84133	-8
0.84500	-7
0.84867	-10
0.85233	-12
0.85600	-10
0.85967	-8
0.86333	-8
0.86700	-12
0.87067	-17
0.87433	-21
0.87800	-23
0.88167	-21
0.88533	-18
0.88900	-16
0.89267	-17
0.89633	-19
0.90000	-18
0.90367	-18
0.90733	-17
0.91100	-17
0.91467	-15
0.91833	-11
0.92200	-12
0.92567	-14
0.92933	-14
0.93300	-12
0.93667	-11
0.94033	-12
0.94400	-11
0.94767	-8
0.95133	-4
0.95500	-5
0.95867	-6
0.96233	-8
0.96600	-9
0.96967	-12
0.97333	-16
0.97700	-22
0.98067	-22
0.98433	-22
0.98800	-23
0.99167	-26
0.99533	-30
0.99900	-33
1.00267	-37
1.00633	-40
1.01000	-37
1.01367	-31
1.01733	-21
1.02100	-15
1.02467	-15
1.02833	-19
1.03200	-23
1.03567	-26
1.03933	-27
1.04300	-31
1.04667	-37
1.05033	-40
1.05400	-41
1.05767	-38
1.06133	-31
1.06500	-24
1.06867	-16
1.07233	-11
1.07600	-10
1.07967	-10
1.08333	-9
1.08700	-9
1.09067	-9
1.09433	-12
1.09800	-15
1.10167	-18
1.10533	-22
1.10900	-27
1.11267	-31
1.11633	-38
1.12000	-42
1.12367	-40
1.12733	-32
1.13100	-23
1.13467	-19
1.13833	-20
1.14200	-21
1.14567	-20
1.14933	-19
1.15300	-19
1.15667	-21
1.16033	-24
1.16400	-27
1.16767	-29
1.17133	-31
1.17500	-35
1.17867	-36
1.18233	-36
1.18600	-37
1.18967	-39
1.19333	-41
1.19700	-39
1.20067	-34
1.20433	-27
1.20800	-21
1.21167	-20
1.21533	-22
1.21900	-24
1.22267	-24
1.22633	-27
1.23000	-29
1.23367	-32
1.23733	-37
1.24100	-40
1.24467	-37
1.24833	-30
1.25200	-25
1.25567	-25
1.25933	-29
1.26300	-34
1.26667	-37
1.27033	-38
1.27400	-34
1.27767	-28
1.28133	-24
1.28500	-25
1.28867	-27
1.29233	-26
1.29600	-24
1.29967	-23
1.30333	-27
1.30700	-33
1.31067	-36
1.31433	-35
1.31800	-32
1.32167	-29
1.32533	-26
1.32900	-23
1.33267	-19
1.33633	-15
1.34000	-14
1.34367	-17
1.34733	-20
1.35100	-23
1.35467	-27
1.35833	-30
1.36200	-34
1.36567	-37
1.36933	-38
1.37300	-36
1.37667	-34
1.38033	-29
1.38400	-24
1.38767	-20
1.39133	-20
1.39500	-22
1.39867	-23
1.40233	-28
1.40600	-40
1.40967	-54
1.41333	-60
1.41700	-58
1.42067	-54
1.42433	-52
1.42800	-51
1.43167	-50
1.43533	-45
1.43900	-33
1.44267	-15
1.44633	79
1.45000	370
1.45367	847
1.45733	1388
1.46100	1885
1.46467	2281
1.46833	2538
1.47200	2621
1.47567	2502
1.47933	2208
1.48300	1813
1.48667	1403
1.49033	1039
1.49400	747
1.49767	524
1.50133	357
1.50500	238
1.50867	155
1.51233	96
1.51600	57
1.51967	31
1.52333	15
1.52700	4
1.53067	7
1.53433	49
1.53800	184
1.54167	468
1.54533	878
1.54900	1327
1.55267	1729
1.55633	2038
1.56000	2223
1.56367	2249
1.56733	2097
1.57100	1797
1.57467	1421
1.57833	1048
1.58200	730
1.58567	484
1.58933	309
1.59300	186
1.59667	100
1.60033	42
1.60400	7
1.60767	-14
1.61133	-26
1.61500	-32
1.61867	-37
1.62233	-41
1.62600	-42
1.62967	-43
1.63333	-42
1.63700	-43
1.64067	-44
1.64433	-44
1.64800	-44
1.65167	-45
1.65533	-45
1.65900	-45
1.66267	-47
1.66633	-52
1.67000	-57
1.67367	-60
1.67733	-60
1.68100	-58
1.68467	-56
1.68833	-56
1.69200	-56
1.69567	-55
1.69933	-53
1.70300	-53
1.70667	-53
1.71033	-51
1.71400	-52
1.71767	-53
1.72133	-54
1.72500	-54
1.72867	-56
1.73233	-58
1.73600	-62
1.73967	-69
1.74333	-75
1.74700	-80
1.75067	-78
1.75433	-71
1.75800	-61
1.76167	-54
1.76533	-50
1.76900	-49
1.77267	-51
1.77633	-53
1.78000	-58
1.78367	-60
1.78733	-60
1.79100	-60
1.79467	-61
1.79833	-63
1.80200	-64
1.80567	-64
1.80933	-61
1.81300	-57
1.81667	-56
1.82033	-58
1.82400	-62
1.82767	-64
1.83133	-65
1.83500	-65
1.83867	-65
1.84233	-64
1.84600	-63
1.84967	-64
1.85333	-66
1.85700	-68
1.86067	-69
1.86433	-69
1.86800	-68
1.87167	-69
1.87533	-70
1.87900	-71
1.88267	-71
1.88633	-66
1.89000	-61
1.89367	-59
1.89733	-59
1.90100	-62
1.90467	-65
1.90833	-68
1.91200	-71
1.91567	-73
1.91933	-72
1.92300	-69
1.92667	-64
1.93033	-59
1.93400	-56
1.93767	-56
1.94133	-56
1.94500	-49
1.94867	12
1.95233	379
1.95600	2127
1.95967	8439
1.96333	25769
1.96700	62592
1.97067	124105
1.97433	206548
1.97800	297127
1.98167	379743
1.98533	440468
1.98900	469759
1.99267	463660
1.99633	425154
2.00000	363843
2.00367	292669
2.00733	223467
2.01100	163855
2.01467	116756
2.01833	81769
2.02200	56874
2.02567	39661
2.02933	27966
2.03300	20091
2.03667	14796
2.04033	11213
2.04400	8763
2.04767	7060
2.05133	5853
2.05500	4974
2.05867	4319
2.06233	3816
2.06600	3421
2.06967	3102
2.07333	2840
2.07700	2621
2.08067	2432
2.08433	2267
2.08800	2121
2.09167	1993
2.09533	1882
2.09900	1783
2.10267	1693
2.10633	1609
2.11000	1531
2.11367	1458
2.11733	1390
2.12100	1329
2.12467	1270
2.12833	1215
2.13200	1165
2.13567	1120
2.13933	1079
2.14300	1043
2.14667	1009
2.15033	978
2.15400	949
2.15767	922
2.16133	891
2.16500	857
2.16867	825
2.17233	798
2.17600	777
2.17967	757
2.18333	738
2.18700	719
2.19067	700
2.19433	683
2.19800	668
2.20167	653
2.20533	635
2.20900	615
2.21267	597
2.21633	581
2.22000	566
2.22367	551
2.22733	535
2.23100	522
2.23467	510
2.23833	500
2.24200	490
2.24567	477
2.24933	463
2.25300	452
2.25667	444
2.26033	437
2.26400	431
2.26767	425
2.27133	417
2.27500	408
2.27867	397
2.28233	388
2.28600	380
2.28967	374
2.29333	370
2.29700	366
2.30067	363
2.30433	359
2.30800	356
2.31167	351
2.31533	343
2.31900	332
2.32267	320
2.32633	310
2.33000	306
2.33367	306
2.33733	308
2.34100	306
2.34467	300
2.34833	296
2.35200	296
2.35567	296
2.35933	297
2.36300	298
2.36667	299
2.37033	296
2.37400	290
2.37767	282
2.38133	275
2.38500	268
2.38867	263
2.39233	259
2.39600	254
2.39967	250
2.40333	250
2.40700	253
2.41067	255
2.41433	254
2.41800	251
2.42167	246
2.42533	239
2.42900	233
2.43267	231
2.43633	229
2.44000	228
2.44367	226
2.44733	224
2.45100	222
2.45467	222
2.45833	222
2.46200	214
2.46567	202
2.46933	194
2.47300	190
2.47667	191
2.48033	196
2.48400	202
2.48767	209
2.49133	213
2.49500	215
2.49867	214
2.50233	212
2.50600	211
2.50967	210
2.51333	207
2.51700	204
2.52067	204
2.52433	205
2.52800	207
2.53167	208
2.53533	207
2.53900	206
2.54267	202
2.54633	196
2.55000	192
2.55367	192
2.55733	196
2.56100	197
2.56467	194
2.56833	191
2.57200	190
2.57567	191
2.57933	191
2.58300	189
2.58667	191
2.59033	192
2.59400	191
2.59767	191
2.60133	191
2.60500	189
2.60867	186
2.61233	184
2.61600	182
2.61967	184
2.62333	185
2.62700	183
2.63067	180
2.63433	176
2.63800	174
2.64167	171
2.64533	166
2.64900	163
2.65267	162
2.65633	164
2.66000	168
2.66367	168
2.66733	165
2.67100	161
2.67467	159
2.67833	161
2.68200	167
2.68567	176
2.68933	184
2.69300	189
2.69667	190
2.70033	188
2.70400	186
2.70767	186
2.71133	188
2.71500	185
2.71867	177
2.72233	170
2.72600	166
2.72967	167
2.73333	168
2.73700	168
2.74067	168
2.74433	170
2.74800	171
2.75167	169
2.75533	165
2.75900	162
2.76267	158
2.76633	158
2.77000	162
2.77367	168
2.77733	174
2.78100	179
2.78467	183
2.78833	187
2.79200	191
2.79567	193
2.79933	191
2.80300	184
2.80667	177
2.81033	176
2.81400	178
2.81767	178
2.82133	176
2.82500	173
2.82867	172
2.83233	176
2.83600	180
2.83967	181
2.84333	181
2.84700	181
2.85067	180
2.85433	179
2.85800	178
2.86167	177
2.86533	177
2.86900	177
2.87267	176
2.87633	176
2.88000	176
2.88367	179
2.88733	182
2.89100	183
2.89467	180
2.89833	179
2.90200	180
2.90567	180
2.90933	178
2.91300	175
2.91667	175
2.92033	176
2.92400	177
2.92767	173
2.93133	167
2.93500	164
2.93867	163
2.94233	163
2.94600	165
2.94967	171
2.95333	179
2.95700	183
2.96067	185
2.96433	183
2.96800	181
2.97167	182
2.97533	186
2.97900	194
2.98267	199
2.98633	202
2.99000	202
2.99367	199
2.99733	196
3.00100	195
3.00467	192
3.00833	188
3.01200	185
3.01567	183
3.01933	184
3.02300	184
3.02667	184
3.03033	182
3.03400	179
3.03767	175
3.04133	171
3.04500	168
3.04867	165
3.05233	164
3.05600	165
3.05967	166
3.06333	168
3.06700	173
3.07067	176
3.07433	179
3.07800	182
3.08167	184
3.08533	183
3.08900	181
3.09267	180
3.09633	178
3.10000	177
3.10367	178
3.10733	179
3.11100	178
3.11467	173
3.11833	169
3.12200	167
3.12567	170
3.12933	175
3.13300	177
3.13667	176
3.14033	173
3.14400	168
3.14767	164
3.15133	162
3.15500	159
3.15867	156
3.16233	153
3.16600	151
3.16967	152
3.17333	152
3.17700	154
3.18067	164
3.18433	176
3.18800	185
3.19167	189
3.19533	190
3.19900	184
3.20267	175
3.20633	164
3.21000	156
3.21367	153
3.21733	155
3.22100	159
3.22467	162
3.22833	164
3.23200	163
3.23567	160
3.23933	157
3.24300	153
3.24667	151
3.25033	151
3.25400	149
3.25767	146
3.26133	144
3.26500	143
3.26867	144
3.27233	147
3.27600	150
3.27967	152
3.28333	149
3.28700	148
3.29067	149
3.29433	151
3.29800	152
3.30167	154
3.30533	154
3.30900	152
3.31267	146
3.31633	142
3.32000	141
3.32367	143
3.32733	147
3.33100	151
3.33467	155
3.33833	157
3.34200	159
3.34567	162
3.34933	161
3.35300	159
3.35667	154
3.36033	149
3.36400	147
3.36767	148
3.37133	150
3.37500	151
3.37867	154
3.38233	156
3.38600	157
3.38967	153
3.39333	147
3.39700	142
3.40067	141
3.40433	143
3.40800	145
3.41167	146
3.41533	146
3.41900	144
3.42267	142
3.42633	139
3.43000	133
3.43367	127
3.43733	122
3.44100	121
3.44467	125
3.44833	133
3.45200	140
3.45567	145
3.45933	151
3.46300	154
3.46667	153
3.47033	153
3.47400	152
3.47767	150
3.48133	149
3.48500	146
3.48867	141
3.49233	138
3.49600	138
3.49967	138
3.50333	136
3.50700	134
3.51067	133
3.51433	133
3.51800	133
3.52167	132
3.52533	131
3.52900	128
3.53267	124
3.53633	119
3.54000	118
3.54367	118
3.54733	118
3.55100	118
3.55467	115
3.55833	113
3.56200	111
3.56567	111
3.56933	115
3.57300	122
3.57667	130
3.58033	137
3.58400	143
3.58767	146
3.59133	145
3.59500	143
3.59867	143
3.60233	142
3.60600	138
3.60967	135
3.61333	132
3.61700	127
3.62067	125
3.62433	125
3.62800	126
3.63167	128
3.63533	131
3.63900	132
3.64267	131
3.64633	134
3.65000	136
3.65367	131
3.65733	122
3.66100	112
3.66467	106
3.66833	103
3.67200	103
3.67567	106
3.67933	110
3.68300	114
3.68667	119
3.69033	123
3.69400	125
3.69767	125
3.70133	122
3.70500	121
3.70867	123
3.71233	128
3.71600	132
3.71967	133
3.72333	133
3.72700	130
3.73067	125
3.73433	122
3.73800	122
3.74167	121
3.74533	117
3.74900	112
3.75267	104
3.75633	95
3.76000	88
3.76367	86
3.76733	87
3.77100	88
3.77467	88
3.77833	91
3.78200	95
3.78567	97
3.78933	99
3.79300	102
3.79667	105
3.80033	109
3.80400	112
3.80767	114
3.81133	117
3.81500	120
3.81867	122
3.82233	121
3.82600	118
3.82967	115
3.83333	117
3.83700	118
3.84067	115
3.84433	106
3.84800	97
3.85167	91
3.85533	88
3.85900	87
3.86267	88
3.86633	93
3.87000	99
3.87367	101
3.87733	102
3.88100	103
3.88467	103
3.88833	104
3.89200	105
3.89567	106
3.89933	103
3.90300	99
3.90667	99
3.91033	102
3.91400	100
3.91767	94
3.92133	87
3.92500	83
3.92867	84
3.93233	87
3.93600	88
3.93967	86
3.94333	83
3.94700	81
3.95067	81
3.95433	82
3.95800	87
3.96167	93
3.96533	98
3.96900	105
3.97267	109
3.97633	108
3.98000	101
3.98367	92
3.98733	87
3.99100	85
3.99467	85
3.99833	87

[Chromatogram (Ch2)]
Interval(msec)	220
# of Points	1091
Start Time(min)	0.002
End Time(min)	3.998
R.Time (min)	Intensity
0.00167	-0
0.00533	-0
0.00900	-0
0.01267	-1
0.01633	-1
0.02000	-1
0.02367	-1
0.02733	-1
0.03100	-0
0.03467	-0
0.03833	-0
0.04200	0
0.04567	0
0.04933	0
0.05300	0
0.05667	0
0.06033	0
0.06400	0
0.06767	0
0.07133	-0
0.07500	-0
0.07867	-0
0.08233	-1
0.08600	-1
0.08967	-1
0.09333	-0
0.09700	-0
0.10067	-0
0.10433	-0
0.10800	0
0.11167	0
0.11533	0
0.11900	0
0.12267	0
0.12633	0
0.13000	0
0.13367	0
0.13733	-0
0.14100	-0
0.14467	-0
0.14833	-0
0.15200	-0
0.15567	-0
0.15933	-0
0.16300	-0
0.16667	-1
0.17033	-1
0.17400	-1
0.17767	-1
0.18133	-1
0.18500	-1
0.18867	-1
0.19233	-1
0.19600	-1
0.19967	-1
0.20333	-1
0.20700	-1
0.21067	-1
0.21433	-1
0.21800	-1
0.22167	-1
0.22533	-1
0.22900	-1
0.23267	-1
0.23633	-1
0.24000	-1
0.24367	-1
0.24733	-1
0.25100	-1
0.25467	-1
0.25833	-1
0.26200	-1
0.26567	-0
0.26933	-0
0.27300	-0
0.27667	-0
0.28033	0
0.28400	0
0.28767	-0
0.29133	-0
0.29500	-0
0.29867	-0
0.30233	-0
0.30600	-0
0.30967	-0
0.31333	-0
0.31700	-0
0.32067	-0
0.32433	-0
0.32800	-0
0.33167	-0
0.33533	-0
0.33900	-0
0.34267	-1
0.34633	-1
0.35000	-1
0.35367	-1
0.35733	-1
0.36100	-1
0.36467	-1
0.36833	-1
0.37200	-1
0.37567	-1
0.37933	-1
0.38300	-1
0.38667	-1
0.39033	-1
0.39400	-1
0.39767	-1
0.40133	-1
0.40500	-1
0.40867	-1
0.41233	-0
0.41600	-0
0.41967	-1
0.42333	-1
0.42700	-1
0.43067	-1
0.43433	-0
0.43800	0
0.44167	0
0.44533	-0
0.44900	-0
0.45267	-1
0.45633	-1
0.46000	-1
0.46367	-2
0.46733	-2
0.47100	-2
0.47467	-2
0.47833	-2
0.48200	-2
0.48567	-2
0.48933	-1
0.49300	-1
0.49667	-1
0.50033	-1
0.50400	-1
0.50767	-1
0.51133	-1
0.51500	-1
0.51867	-2
0.52233	-2
0.52600	-2
0.52967	-2
0.53333	-2
0.53700	-2
0.54067	-1
0.54433	-1
0.54800	-2
0.55167	-2
0.55533	-2
0.55900	-2
0.56267	-1
0.56633	-1
0.57000	-1
0.57367	-1
0.57733	-1
0.58100	-1
0.58467	-1
0.58833	-0
0.59200	-0
0.59567	-0
0.59933	-1
0.60300	-1
0.60667	-1
0.61033	-1
0.61400	-1
0.61767	-1
0.62133	-1
0.62500	-1
0.62867	-1
0.63233	-2
0.63600	-2
0.63967	-2
0.64333	-2
0.64700	-2
0.65067	-2
0.65433	-1
0.65800	-1
0.66167	-1
0.66533	-2
0.66900	-2
0.67267	-2
0.67633	-2
0.68000	-2
0.68367	-1
0.68733	-1
0.69100	-1
0.69467	-1
0.69833	-1
0.70200	-1
0.70567	-1
0.70933	-2
0.71300	-2
0.71667	-2
0.72033	-2
0.72400	-3
0.72767	-2
0.73133	-2
0.73500	-2
0.73867	-3
0.74233	-2
0.74600	-3
0.74967	-3
0.75333	-3
0.75700	-2
0.76067	-2
0.76433	-2
0.76800	-2
0.77167	-2
0.77533	-2
0.77900	-3
0.78267	-3
0.78633	-3
0.79000	-3
0.79367	-3
0.79733	-3
0.80100	-2
0.80467	-2
0.80833	-2
0.81200	-2
0.81567	-2
0.81933	-2
0.82300	-2
0.82667	-2
0.83033	-2
0.83400	-2
0.83767	-2
0.84133	-2
0.84500	-1
0.84867	-1
0.85233	-1
0.85600	-1
0.85967	-1
0.86333	-1
0.86700	-1
0.87067	-1
0.87433	-1
0.87800	-1
0.88167	-1
0.88533	-1
0.88900	-1
0.89267	-1
0.89633	-1
0.90000	-1
0.90367	-1
0.90733	-1
0.91100	-1
0.91467	-1
0.91833	-1
0.92200	-1
0.92567	-1
0.92933	-2
0.93300	-2
0.93667	-2
0.94033	-2
0.94400	-2
0.94767	-2
0.95133	-2
0.95500	-2
0.95867	-2
0.96233	-2
0.96600	-2
0.96967	-2
0.97333	-1
0.97700	-1
0.98067	-1
0.98433	-1
0.98800	-1
0.99167	-2
0.99533	-2
0.99900	-2
1.00267	-2
1.00633	-2
1.01000	-2
1.01367	-2
1.01733	-3
1.02100	-3
1.02467	-3
1.02833	-2
1.03200	-2
1.03567	-2
1.03933	-2
1.04300	-2
1.04667	-2
1.05033	-2
1.05400	-2
1.05767	-2
1.06133	-2
1.06500	-2
1.06867	-2
1.07233	-2
1.07600	-2
1.07967	-2
1.08333	-2
1.08700	-2
1.09067	-2
1.09433	-2
1.09800	-2
1.10167	-2
1.10533	-2
1.10900	-3
1.11267	-2
1.11633	-2
1.12000	-2
1.12367	-2
1.12733	-2
1.13100	-2
1.13467	-2
1.13833	-2
1.14200	-2
1.14567	-2
1.14933	-2
1.15300	-2
1.15667	-3
1.16033	-3
1.16400	-3
1.16767	-3
1.17133	-3
1.17500	-3
1.17867	-3
1.18233	-3
1.18600	-3
1.18967	-3
1.19333	-3
1.19700	-3
1.20067	-3
1.20433	-3
1.20800	-3
1.21167	-3
1.21533	-3
1.21900	-3
1.22267	-3
1.22633	-3
1.23000	-3
1.23367	-3
1.23733	-3
1.24100	-3
1.24467	-3
1.24833	-3
1.25200	-3
1.25567	-3
1.25933	-3
1.26300	-3
1.26667	-3
1.27033	-3
1.27400	-3
1.27767	-3
1.28133	-3
1.28500	-4
1.28867	-4
1.29233	-4
1.29600	-4
1.29967	-4
1.30333	-4
1.30700	-4
1.31067	-4
1.31433	-4
1.31800	-4
1.32167	-4
1.32533	-3
1.32900	-3
1.33267	-3
1.33633	-3
1.34000	-3
1.34367	-3
1.34733	-2
1.35100	-2
1.35467	-2
1.35833	-2
1.36200	-2
1.36567	-2
1.36933	-2
1.37300	-2
1.37667	-2
1.38033	-2
1.38400	-3
1.38767	-3
1.39133	-3
1.39500	-3
1.39867	-3
1.40233	-3
1.40600	-2
1.40967	-2
1.41333	-2
1.41700	-2
1.42067	-2
1.42433	-2
1.42800	-1
1.43167	-1
1.43533	-1
1.43900	-1
1.44267	-1
1.44633	-1
1.45000	-1
1.45367	-2
1.45733	-2
1.46100	-2
1.46467	-2
1.46833	-2
1.47200	-2
1.47567	-2
1.47933	-2
1.48300	-2
1.48667	-2
1.49033	-2
1.49400	-2
1.49767	-2
1.50133	-3
1.50500	-3
1.50867	-3
1.51233	-3
1.51600	-3
1.51967	-3
1.52333	-3
1.52700	-3
1.53067	-3
1.53433	-3
1.53800	-3
1.54167	-3
1.54533	-2
1.54900	-3
1.55267	-3
1.55633	-3
1.56000	-3
1.56367	-3
1.56733	-3
1.57100	-3
1.57467	-3
1.57833	-3
1.58200	-3
1.58567	-3
1.58933	-3
1.59300	-3
1.59667	-4
1.60033	-4
1.60400	-5
1.60767	-6
1.61133	-8
1.61500	-10
1.61867	-12
1.62233	-15
1.62600	-18
1.62967	-21
1.63333	-24
1.63700	-27
1.64067	-30
1.64433	-33
1.64800	-37
1.65167	-40
1.65533	-43
1.65900	-47
1.66267	-50
1.66633	-54
1.67000	-58
1.67367	-63
1.67733	-67
1.68100	-71
1.68467	-75
1.68833	-79
1.69200	-82
1.69567	-84
1.69933	-87
1.70300	-88
1.70667	-90
1.71033	-91
1.71400	-92
1.71767	-93
1.72133	-93
1.72500	-93
1.72867	-94
1.73233	-94
1.73600	-95
1.73967	-95
1.74333	-95
1.74700	-95
1.75067	-95
1.75433	-95
1.75800	-95
1.76167	-95
1.76533	-95
1.76900	-96
1.77267	-96
1.77633	-97
1.78000	-98
1.78367	-98
1.78733	-99
1.79100	-99
1.79467	-99
1.79833	-99
1.80200	-98
1.80567	-98
1.80933	-97
1.81300	-97
1.81667	-97
1.82033	-97
1.82400	-97
1.82767	-97
1.83133	-97
1.83500	-97
1.83867	-97
1.84233	-97
1.84600	-98
1.84967	-98
1.85333	-98
1.85700	-98
1.86067	-98
1.86433	-98
1.86800	-99
1.87167	-99
1.87533	-99
1.87900	-99
1.88267	-99
1.88633	-99
1.89000	-98
1.89367	-97
1.89733	-97
1.90100	-96
1.90467	-96
1.90833	-96
1.91200	-95
1.91567	-95
1.91933	-95
1.92300	-94
1.92667	-94
1.93033	-94
1.93400	-95
1.93767	-95
1.94133	-95
1.94500	-95
1.94867	-95
1.95233	-95
1.95600	-94
1.95967	-94
1.96333	-94
1.96700	-93
1.97067	-93
1.97433	-93
1.97800	-93
1.98167	-93
1.98533	-93
1.98900	-92
1.99267	-92
1.99633	-91
2.00000	-90
2.00367	-90
2.00733	-89
2.01100	-89
2.01467	-89
2.01833	-89
2.02200	-89
2.02567	-88
2.02933	-88
2.03300	-87
2.03667	-87
2.04033	-87
2.04400	-87
2.04767	-87
2.05133	-87
2.05500	-87
2.05867	-88
2.06233	-88
2.06600	-88
2.06967	-89
2.07333	-88
2.07700	-88
2.08067	-87
2.08433	-87
2.08800	-87
2.09167	-86
2.09533	-86
2.09900	-85
2.10267	-85
2.10633	-84
2.11000	-84
2.11367	-84
2.11733	-83
2.12100	-83
2.12467	-83
2.12833	-83
2.13200	-83
2.13567	-83
2.13933	-83
2.14300	-83
2.14667	-83
2.15033	-83
2.15400	-82
2.15767	-81
2.16133	-81
2.16500	-80
2.16867	-80
2.17233	-80
2.17600	-79
2.17967	-79
2.18333	-79
2.18700	-78
2.19067	-78
2.19433	-78
2.19800	-78
2.20167	-78
2.20533	-78
2.20900	-77
2.21267	-77
2.21633	-76
2.22000	-75
2.22367	-75
2.22733	-74
2.23100	-74
2.23467	-74
2.23833	-74
2.24200	-73
2.24567	-73
2.24933	-73
2.25300	-72
2.25667	-72
2.26033	-71
2.26400	-71
2.26767	-70
2.27133	-70
2.27500	-70
2.27867	-70
2.28233	-70
2.28600	-70
2.28967	-70
2.29333	-69
2.29700	-69
2.30067	-69
2.30433	-69
2.30800	-69
2.31167	-68
2.31533	-68
2.31900	-67
2.32267	-67
2.32633	-66
2.33000	-66
2.33367	-66
2.33733	-65
2.34100	-64
2.34467	-64
2.34833	-63
2.35200	-63
2.35567	-63
2.35933	-63
2.36300	-62
2.36667	-62
2.37033	-60
2.37400	-58
2.37767	-55
2.38133	-52
2.38500	-48
2.38867	-45
2.39233	-40
2.39600	-36
2.39967	-32
2.40333	-28
2.40700	-23
2.41067	-19
2.41433	-16
2.41800	-12
2.42167	-9
2.42533	-6
2.42900	-4
2.43267	-2
2.43633	-0
2.44000	1
2.44367	3
2.44733	4
2.45100	6
2.45467	7
2.45833	8
2.46200	9
2.46567	10
2.46933	10
2.47300	11
2.47667	11
2.48033	12
2.48400	13
2.48767	14
2.49133	15
2.49500	16
2.49867	17
2.50233	18
2.50600	18
2.50967	18
2.51333	18
2.51700	19
2.52067	19
2.52433	19
2.52800	19
2.53167	19
2.53533	19
2.53900	19
2.54267	18
2.54633	17
2.55000	16
2.55367	15
2.55733	15
2.56100	14
2.56467	14
2.56833	13
2.57200	13
2.57567	13
2.57933	12
2.58300	12
2.58667	13
2.59033	13
2.59400	14
2.59767	15
2.60133	16
2.60500	16
2.60867	17
2.61233	18
2.61600	18
2.61967	19
2.62333	19
2.62700	19
2.63067	19
2.63433	19
2.63800	20
2.64167	20
2.64533	20
2.64900	20
2.65267	20
2.65633	21
2.66000	21
2.66367	21
2.66733	22
2.67100	22
2.67467	23
2.67833	23
2.68200	24
2.68567	24
2.68933	25
2.69300	25
2.69667	25
2.70033	26
2.70400	26
2.70767	26
2.71133	27
2.71500	27
2.71867	26
2.72233	26
2.72600	26
2.72967	25
2.73333	25
2.73700	25
2.74067	25
2.74433	26
2.74800	26
2.75167	26
2.75533	27
2.75900	27
2.76267	28
2.76633	29
2.77000	29
2.77367	29
2.77733	30
2.78100	30
2.78467	30
2.78833	30
2.79200	30
2.79567	30
2.79933	30
2.80300	30
2.80667	30
2.81033	30
2.81400	29
2.81767	29
2.82133	29
2.82500	28
2.82867	28
2.83233	28
2.83600	27
2.83967	27
2.84333	27
2.84700	27
2.85067	26
2.85433	26
2.85800	25
2.86167	22
2.86533	18
2.86900	11
2.87267	1
2.87633	-14
2.88000	-34
2.88367	-58
2.88733	-89
2.89100	-125
2.89467	-166
2.89833	-212
2.90200	-263
2.90567	-318
2.90933	-376
2.91300	-437
2.91667	-500
2.92033	-565
2.92400	-630
2.92767	-694
2.93133	-757
2.93500	-817
2.93867	-874
2.94233	-929
2.94600	-983
2.94967	-1038
2.95333	-1085
2.95700	-1115
2.96067	-1121
2.96433	-1102
2.96800	-1060
2.97167	-1000
2.97533	-928
2.97900	-848
2.98267	-767
2.98633	-685
2.99000	-607
2.99367	-534
2.99733	-466
3.00100	-405
3.00467	-350
3.00833	-301
3.01200	-258
3.01567	-220
3.01933	-187
3.02300	-158
3.02667	-133
3.03033	-112
3.03400	-93
3.03767	-78
3.04133	-64
3.04500	-52
3.04867	-42
3.05233	-34
3.05600	-26
3.05967	-20
3.06333	-15
3.06700	-10
3.07067	-6
3.07433	-3
3.07800	-0
3.08167	2
3.08533	4
3.08900	6
3.09267	8
3.09633	9
3.10000	10
3.10367	11
3.10733	12
3.11100	13
3.11467	14
3.11833	15
3.12200	15
3.12567	16
3.12933	16
3.13300	17
3.13667	17
3.14033	18
3.14400	18
3.14767	19
3.15133	19
3.15500	20
3.15867	20
3.16233	20
3.16600	20
3.16967	21
3.17333	21
3.17700	21
3.18067	21
3.18433	21
3.18800	21
3.19167	21
3.19533	22
3.19900	22
3.20267	22
3.20633	23
3.21000	23
3.21367	23
3.21733	23
3.22100	23
3.22467	23
3.22833	23
3.23200	23
3.23567	23
3.23933	23
3.24300	23
3.24667	23
3.25033	23
3.25400	23
3.25767	24
3.26133	24
3.26500	25
3.26867	25
3.27233	25
3.27600	26
3.27967	26
3.28333	26
3.28700	27
3.29067	27
3.29433	27
3.29800	27
3.30167	27
3.30533	27
3.30900	27
3.31267	27
3.31633	27
3.32000	27
3.32367	27
3.32733	27
3.33100	27
3.33467	27
3.33833	27
3.34200	27
3.34567	27
3.34933	27
3.35300	27
3.35667	28
3.36033	28
3.36400	28
3.36767	27
3.37133	27
3.37500	28
3.37867	28
3.38233	28
3.38600	28
3.38967	28
3.39333	28
3.39700	28
3.40067	28
3.40433	28
3.40800	28
3.41167	28
3.41533	28
3.41900	28
3.42267	28
3.42633	28
3.43000	28
3.43367	28
3.43733	29
3.44100	29
3.44467	29
3.44833	29
3.45200	29
3.45567	29
3.45933	29
3.46300	29
3.46667	29
3.47033	29
3.47400	29
3.47767	29
3.48133	29
3.48500	29
3.48867	29
3.49233	29
3.49600	29
3.49967	29
3.50333	29
3.50700	29
3.51067	29
3.51433	29
3.51800	29
3.52167	29
3.52533	29
3.52900	29
3.53267	29
3.53633	29
3.54000	29
3.54367	28
3.54733	28
3.55100	28
3.55467	28
3.55833	28
3.56200	29
3.56567	29
3.56933	29
3.57300	29
3.57667	29
3.58033	30
3.58400	29
3.58767	29
3.59133	29
3.59500	29
3.59867	28
3.60233	28
3.60600	28
3.60967	29
3.61333	29
3.61700	29
3.62067	29
3.62433	29
3.62800	29
3.63167	29
3.63533	29
3.63900	29
3.64267	29
3.64633	29
3.65000	29
3.65367	29
3.65733	29
3.66100	29
3.66467	29
3.66833	30
3.67200	30
3.67567	30
3.67933	30
3.68300	30
3.68667	30
3.69033	30
3.69400	30
3.69767	30
3.70133	30
3.70500	30
3.70867	30
3.71233	30
3.71600	30
3.71967	31
3.72333	31
3.72700	31
3.73067	31
3.73433	31
3.73800	31
3.74167	31
3.74533	31
3.74900	31
3.75267	31
3.75633	30
3.76000	30
3.76367	30
3.76733	30
3.77100	30
3.77467	30
3.77833	30
3.78200	30
3.78567	29
3.78933	29
3.79300	29
3.79667	29
3.80033	29
3.80400	29
3.80767	29
3.81133	29
3.81500	29
3.81867	29
3.82233	29
3.82600	29
3.82967	29
3.83333	30
3.83700	30
3.84067	30
3.84433	29
3.84800	29
3.85167	29
3.85533	29
3.85900	30
3.86267	30
3.86633	30
3.87000	29
3.87367	29
3.87733	29
3.88100	29
3.88467	29
3.88833	29
3.89200	29
3.89567	29
3.89933	29
3.90300	29
3.90667	29
3.91033	29
3.91400	29
3.91767	29
3.92133	29
3.92500	30
3.92867	30
3.93233	30
3.93600	30
3.93967	29
3.94333	29
3.94700	29
3.95067	29
3.95433	29
3.95800	29
3.96167	29
3.96533	29
3.96900	29
3.97267	29
3.97633	29
3.98000	29
3.98367	29
3.98733	29
3.99100	29
3.99467	29
3.99833	29

[Chromatogram (Ch3)]
Interval(msec)	220
# of Points	1091
Start Time(min)	0.002
End Time(min)	3.998
R.Time (min)	Intensity
0.00167	1
0.00533	2
0.00900	4
0.01267	5
0.01633	2
0.02000	-0
0.02367	-2
0.02733	-2
0.03100	-2
0.03467	-4
0.03833	-7
0.04200	-11
0.04567	-12
0.04933	-10
0.05300	-8
0.05667	-7
0.06033	-3
0.06400	0
0.06767	0
0.07133	0
0.07500	1
0.07867	2
0.08233	3
0.08600	3
0.08967	1
0.09333	-4
0.09700	-7
0.10067	-10
0.10433	-7
0.10800	-4
0.11167	-1
0.11533	1
0.11900	1
0.12267	-0
0.12633	-1
0.13000	-0
0.13367	1
0.13733	2
0.14100	3
0.14467	3
0.14833	3
0.15200	4
0.15567	5
0.15933	7
0.16300	6
0.16667	6
0.17033	4
0.17400	2
0.17767	0
0.18133	-2
0.18500	-2
0.18867	-0
0.19233	1
0.19600	2
0.19967	4
0.20333	4
0.20700	3
0.21067	0
0.21433	0
0.21800	3
0.22167	5
0.22533	6
0.22900	4
0.23267	3
0.23633	4
0.24000	5
0.24367	2
0.24733	3
0.25100	4
0.25467	6
0.25833	9
0.26200	10
0.26567	10
0.26933	9
0.27300	6
0.27667	5
0.28033	4
0.28400	3
0.28767	2
0.29133	1
0.29500	1
0.29867	1
0.30233	1
0.30600	3
0.30967	5
0.31333	3
0.31700	3
0.32067	1
0.32433	2
0.32800	2
0.33167	1
0.33533	1
0.33900	2
0.34267	2
0.34633	1
0.35000	2
0.35367	4
0.35733	7
0.36100	9
0.36467	8
0.36833	7
0.37200	8
0.37567	7
0.37933	6
0.38300	6
0.38667	5
0.39033	3
0.39400	4
0.39767	7
0.40133	9
0.40500	8
0.40867	5
0.41233	4
0.41600	5
0.41967	4
0.42333	4
0.42700	4
0.43067	3
0.43433	3
0.43800	4
0.44167	6
0.44533	8
0.44900	8
0.45267	5
0.45633	3
0.46000	5
0.46367	8
0.46733	12
0.47100	14
0.47467	13
0.47833	13
0.48200	11
0.48567	8
0.48933	8
0.49300	8
0.49667	6
0.50033	8
0.50400	11
0.50767	10
0.51133	8
0.51500	7
0.51867	7
0.52233	6
0.52600	7
0.52967	7
0.53333	7
0.53700	7
0.54067	6
0.54433	7
0.54800	8
0.55167	8
0.55533	4
0.55900	2
0.56267	2
0.56633	3
0.57000	4
0.57367	6
0.57733	6
0.58100	7
0.58467	9
0.58833	11
0.59200	9
0.59567	9
0.59933	7
0.60300	6
0.60667	7
0.61033	8
0.61400	9
0.61767	7
0.62133	4
0.62500	5
0.62867	5
0.63233	7
0.63600	9
0.63967	12
0.64333	11
0.64700	8
0.65067	7
0.65433	7
0.65800	6
0.66167	6
0.66533	7
0.66900	8
0.67267	7
0.67633	8
0.68000	9
0.68367	11
0.68733	11
0.69100	12
0.69467	14
0.69833	13
0.70200	11
0.70567	11
0.70933	10
0.71300	12
0.71667	11
0.72033	9
0.72400	7
0.72767	6
0.73133	6
0.73500	8
0.73867	9
0.74233	10
0.74600	13
0.74967	15
0.75333	15
0.75700	17
0.76067	16
0.76433	14
0.76800	15
0.77167	17
0.77533	17
0.77900	16
0.78267	16
0.78633	15
0.79000	14
0.79367	13
0.79733	12
0.80100	8
0.80467	8
0.80833	9
0.81200	9
0.81567	9
0.81933	10
0.82300	13
0.82667	16
0.83033	18
0.83400	19
0.83767	19
0.84133	19
0.84500	19
0.84867	16
0.85233	15
0.85600	15
0.85967	16
0.86333	16
0.86700	16
0.87067	13
0.87433	11
0.87800	13
0.88167	16
0.88533	16
0.88900	15
0.89267	16
0.89633	17
0.90000	14
0.90367	12
0.90733	11
0.91100	10
0.91467	8
0.91833	8
0.92200	10
0.92567	11
0.92933	11
0.93300	12
0.93667	14
0.94033	15
0.94400	14
0.94767	14
0.95133	13
0.95500	11
0.95867	9
0.96233	9
0.96600	9
0.96967	8
0.97333	7
0.97700	8
0.98067	10
0.98433	9
0.98800	9
0.99167	10
0.99533	13
0.99900	16
1.00267	16
1.00633	17
1.01000	18
1.01367	20
1.01733	23
1.02100	22
1.02467	19
1.02833	16
1.03200	16
1.03567	16
1.03933	13
1.04300	11
1.04667	11
1.05033	14
1.05400	15
1.05767	17
1.06133	15
1.06500	15
1.06867	16
1.07233	16
1.07600	16
1.07967	15
1.08333	14
1.08700	14
1.09067	12
1.09433	9
1.09800	9
1.10167	10
1.10533	11
1.10900	9
1.11267	7
1.11633	7
1.12000	7
1.12367	8
1.12733	9
1.13100	12
1.13467	14
1.13833	15
1.14200	15
1.14567	13
1.14933	12
1.15300	12
1.15667	13
1.16033	13
1.16400	13
1.16767	12
1.17133	12
1.17500	13
1.17867	14
1.18233	18
1.18600	21
1.18967	21
1.19333	20
1.19700	17
1.20067	14
1.20433	14
1.20800	15
1.21167	17
1.21533	15
1.21900	15
1.22267	16
1.22633	15
1.23000	12
1.23367	12
1.23733	13
1.24100	13
1.24467	15
1.24833	17
1.25200	16
1.25567	14
1.25933	14
1.26300	16
1.26667	17
1.27033	16
1.27400	15
1.27767	13
1.28133	12
1.28500	12
1.28867	12
1.29233	12
1.29600	12
1.29967	13
1.30333	13
1.30700	11
1.31067	12
1.31433	15
1.31800	18
1.32167	18
1.32533	16
1.32900	15
1.33267	16
1.33633	15
1.34000	15
1.34367	16
1.34733	16
1.35100	15
1.35467	15
1.35833	15
1.36200	13
1.36567	12
1.36933	12
1.37300	13
1.37667	14
1.38033	14
1.38400	14
1.38767	12
1.39133	11
1.39500	10
1.39867	10
1.40233	11
1.40600	14
1.40967	16
1.41333	17
1.41700	17
1.42067	17
1.42433	17
1.42800	16
1.43167	13
1.43533	12
1.43900	15
1.44267	17
1.44633	19
1.45000	18
1.45367	17
1.45733	17
1.46100	15
1.46467	13
1.46833	11
1.47200	10
1.47567	10
1.47933	10
1.48300	9
1.48667	9
1.49033	10
1.49400	12
1.49767	11
1.50133	12
1.50500	11
1.50867	12
1.51233	16
1.51600	15
1.51967	13
1.52333	12
1.52700	11
1.53067	10
1.53433	12
1.53800	12
1.54167	13
1.54533	14
1.54900	15
1.55267	16
1.55633	14
1.56000	13
1.56367	12
1.56733	15
1.57100	15
1.57467	13
1.57833	13
1.58200	17
1.58567	20
1.58933	21
1.59300	19
1.59667	15
1.60033	13
1.60400	13
1.60767	15
1.61133	15
1.61500	14
1.61867	13
1.62233	15
1.62600	18
1.62967	19
1.63333	19
1.63700	19
1.64067	17
1.64433	15
1.64800	16
1.65167	18
1.65533	19
1.65900	19
1.66267	19
1.66633	19
1.67000	19
1.67367	17
1.67733	17
1.68100	17
1.68467	18
1.68833	20
1.69200	19
1.69567	19
1.69933	20
1.70300	21
1.70667	19
1.71033	18
1.71400	17
1.71767	18
1.72133	19
1.72500	20
1.72867	21
1.73233	22
1.73600	20
1.73967	20
1.74333	21
1.74700	22
1.75067	19
1.75433	18
1.75800	17
1.76167	18
1.76533	20
1.76900	21
1.77267	23
1.77633	24
1.78000	24
1.78367	23
1.78733	23
1.79100	26
1.79467	29
1.79833	29
1.80200	28
1.80567	26
1.80933	24
1.81300	23
1.81667	21
1.82033	19
1.82400	18
1.82767	22
1.83133	25
1.83500	25
1.83867	26
1.84233	26
1.84600	26
1.84967	27
1.85333	28
1.85700	30
1.86067	31
1.86433	31
1.86800	33
1.87167	33
1.87533	32
1.87900	32
1.88267	34
1.88633	36
1.89000	39
1.89367	38
1.89733	37
1.90100	35
1.90467	35
1.90833	33
1.91200	34
1.91567	36
1.91933	38
1.92300	38
1.92667	36
1.93033	34
1.93400	34
1.93767	35
1.94133	37
1.94500	39
1.94867	37
1.95233	35
1.95600	34
1.95967	35
1.96333	36
1.96700	38
1.97067	39
1.97433	40
1.97800	41
1.98167	42
1.98533	43
1.98900	43
1.99267	42
1.99633	43
2.00000	43
2.00367	43
2.00733	41
2.01100	40
2.01467	42
2.01833	44
2.02200	42
2.02567	42
2.02933	43
2.03300	43
2.03667	44
2.04033	46
2.04400	50
2.04767	53
2.05133	55
2.05500	57
2.05867	60
2.06233	60
2.06600	56
2.06967	55
2.07333	53
2.07700	51
2.08067	50
2.08433	49
2.08800	49
2.09167	49
2.09533	49
2.09900	52
2.10267	54
2.10633	57
2.11000	61
2.11367	62
2.11733	61
2.12100	60
2.12467	59
2.12833	60
2.13200	61
2.13567	63
2.13933	66
2.14300	69
2.14667	70
2.15033	69
2.15400	67
2.15767	65
2.16133	64
2.16500	64
2.16867	64
2.17233	63
2.17600	64
2.17967	66
2.18333	67
2.18700	67
2.19067	68
2.19433	70
2.19800	71
2.20167	72
2.20533	73
2.20900	74
2.21267	76
2.21633	79
2.22000	81
2.22367	82
2.22733	81
2.23100	79
2.23467	78
2.23833	77
2.24200	76
2.24567	76
2.24933	78
2.25300	78
2.25667	78
2.26033	79
2.26400	80
2.26767	82
2.27133	86
2.27500	88
2.27867	91
2.28233	94
2.28600	92
2.28967	89
2.29333	87
2.29700	87
2.30067	88
2.30433	91
2.30800	92
2.31167	93
2.31533	92
2.31900	92
2.32267	92
2.32633	91
2.33000	89
2.33367	91
2.33733	92
2.34100	90
2.34467	91
2.34833	93
2.35200	94
2.35567	94
2.35933	94
2.36300	95
2.36667	96
2.37033	96
2.37400	95
2.37767	96
2.38133	98
2.38500	94
2.38867	91
2.39233	93
2.39600	99
2.39967	106
2.40333	110
2.40700	114
2.41067	117
2.41433	119
2.41800	121
2.42167	122
2.42533	123
2.42900	122
2.43267	121
2.43633	120
2.44000	126
2.44367	168
2.44733	241
2.45100	311
2.45467	359
2.45833	373
2.46200	365
2.46567	355
2.46933	346
2.47300	338
2.47667	323
2.48033	303
2.48400	282
2.48767	260
2.49133	243
2.49500	230
2.49867	223
2.50233	224
2.50600	230
2.50967	236
2.51333	240
2.51700	242
2.52067	236
2.52433	227
2.52800	215
2.53167	202
2.53533	190
2.53900	179
2.54267	169
2.54633	161
2.55000	156
2.55367	150
2.55733	145
2.56100	144
2.56467	147
2.56833	149
2.57200	154
2.57567	159
2.57933	164
2.58300	168
2.58667	174
2.59033	180
2.59400	184
2.59767	188
2.60133	193
2.60500	196
2.60867	197
2.61233	197
2.61600	197
2.61967	194
2.62333	187
2.62700	177
2.63067	167
2.63433	156
2.63800	147
2.64167	139
2.64533	131
2.64900	124
2.65267	119
2.65633	115
2.66000	114
2.66367	110
2.66733	106
2.67100	103
2.67467	101
2.67833	98
2.68200	97
2.68567	94
2.68933	92
2.69300	90
2.69667	90
2.70033	89
2.70400	89
2.70767	90
2.71133	92
2.71500	94
2.71867	95
2.72233	96
2.72600	97
2.72967	98
2.73333	100
2.73700	102
2.74067	102
2.74433	102
2.74800	103
2.75167	106
2.75533	109
2.75900	113
2.76267	117
2.76633	120
2.77000	123
2.77367	126
2.77733	130
2.78100	135
2.78467	138
2.78833	140
2.79200	143
2.79567	143
2.79933	143
2.80300	146
2.80667	151
2.81033	152
2.81400	154
2.81767	159
2.82133	159
2.82500	156
2.82867	153
2.83233	152
2.83600	156
2.83967	171
2.84333	208
2.84700	279
2.85067	407
2.85433	603
2.85800	884
2.86167	1254
2.86533	1696
2.86900	2190
2.87267	2699
2.87633	3175
2.88000	3580
2.88367	3881
2.88733	4061
2.89100	4120
2.89467	4065
2.89833	3912
2.90200	3691
2.90567	3424
2.90933	3136
2.91300	2840
2.91667	2548
2.92033	2269
2.92400	2013
2.92767	1779
2.93133	1569
2.93500	1382
2.93867	1217
2.94233	1072
2.94600	943
2.94967	831
2.95333	731
2.95700	645
2.96067	572
2.96433	509
2.96800	457
2.97167	412
2.97533	374
2.97900	342
2.98267	312
2.98633	286
2.99000	263
2.99367	244
2.99733	227
3.00100	212
3.00467	200
3.00833	187
3.01200	176
3.01567	169
3.01933	166
3.02300	160
3.02667	155
3.03033	153
3.03400	149
3.03767	145
3.04133	146
3.04500	145
3.04867	142
3.05233	139
3.05600	137
3.05967	136
3.06333	135
3.06700	134
3.07067	134
3.07433	133
3.07800	132
3.08167	134
3.08533	135
3.08900	137
3.09267	137
3.09633	137
3.10000	136
3.10367	136
3.10733	136
3.11100	134
3.11467	134
3.11833	134
3.12200	134
3.12567	135
3.12933	138
3.13300	143
3.13667	147
3.14033	149
3.14400	151
3.14767	153
3.15133	154
3.15500	154
3.15867	154
3.16233	156
3.16600	156
3.16967	156
3.17333	157
3.17700	158
3.18067	159
3.18433	160
3.18800	160
3.19167	163
3.19533	165
3.19900	164
3.20267	165
3.20633	167
3.21000	169
3.21367	172
3.21733	174
3.22100	176
3.22467	180
3.22833	184
3.23200	188
3.23567	190
3.23933	190
3.24300	189
3.24667	187
3.25033	185
3.25400	185
3.25767	186
3.26133	186
3.26500	185
3.26867	186
3.27233	188
3.27600	189
3.27967	189
3.28333	189
3.28700	191
3.29067	195
3.29433	198
3.29800	198
3.30167	196
3.30533	194
3.30900	190
3.31267	188
3.31633	190
3.32000	191
3.32367	187
3.32733	183
3.33100	184
3.33467	187
3.33833	198
3.34200	219
3.34567	246
3.34933	276
3.35300	306
3.35667	340
3.36033	375
3.36400	413
3.36767	452
3.37133	490
3.37500	524
3.37867	556
3.38233	585
3.38600	608
3.38967	628
3.39333	647
3.39700	664
3.40067	680
3.40433	692
3.40800	698
3.41167	703
3.41533	705
3.41900	707
3.42267	710
3.42633	710
3.43000	710
3.43367	709
3.43733	708
3.44100	706
3.44467	705
3.44833	704
3.45200	700
3.45567	698
3.45933	694
3.46300	690
3.46667	686
3.47033	681
3.47400	676
3.47767	671
3.48133	665
3.48500	660
3.48867	654
3.49233	650
3.49600	646
3.49967	641
3.50333	638
3.50700	635
3.51067	633
3.51433	631
3.51800	627
3.52167	624
3.52533	623
3.52900	623
3.53267	622
3.53633	621
3.54000	618
3.54367	615
3.54733	611
3.55100	608
3.55467	606
3.55833	605
3.56200	603
3.56567	602
3.56933	600
3.57300	598
3.57667	595
3.58033	592
3.58400	589
3.58767	586
3.59133	585
3.59500	583
3.59867	584
3.60233	583
3.60600	579
3.60967	573
3.61333	568
3.61700	564
3.62067	560
3.62433	557
3.62800	556
3.63167	555
3.63533	554
3.63900	550
3.64267	545
3.64633	541
3.65000	542
3.65367	543
3.65733	541
3.66100	540
3.66467	538
3.66833	533
3.67200	530
3.67567	530
3.67933	528
3.68300	525
3.68667	523
3.69033	521
3.69400	518
3.69767	515
3.70133	513
3.70500	514
3.70867	516
3.71233	515
3.71600	514
3.71967	513
3.72333	512
3.72700	510
3.73067	509
3.73433	508
3.73800	506
3.74167	504
3.74533	501
3.74900	497
3.75267	495
3.75633	493
3.76000	492
3.76367	491
3.76733	492
3.77100	490
3.77467	487
3.77833	484
3.78200	482
3.78567	483
3.78933	484
3.79300	485
3.79667	483
3.80033	479
3.80400	477
3.80767	475
3.81133	472
3.81500	471
3.81867	471
3.82233	470
3.82600	470
3.82967	471
3.83333	471
3.83700	469
3.84067	463
3.84433	462
3.84800	461
3.85167	460
3.85533	461
3.85900	461
3.86267	460
3.86633	458
3.87000	458
3.87367	459
3.87733	457
3.88100	455
3.88467	454
3.88833	453
3.89200	453
3.89567	452
3.89933	451
3.90300	452
3.90667	451
3.91033	449
3.91400	448
3.91767	446
3.92133	445
3.92500	445
3.92867	443
3.93233	443
3.93600	443
3.93967	445
3.94333	445
3.94700	444
3.95067	446
3.95433	447
3.95800	447
3.96167	446
3.96533	444
3.96900	444
3.97267	442
3.97633	436
3.98000	435
3.98367	434
3.98733	432
3.99100	432
3.99467	430
3.99833	425

[Status Trace (Column Oven Temperature)]
Interval(msec)	1000
# of Points	240
Start Time(min)	0.014
End Time(min)	3.997
Intensity Units	
Intensity Multiplier	1
R.Time (min)	Intensity
0.01400	35.04
0.03067	35.04
0.04733	35.04
0.06400	35.03
0.08067	35.02
0.09733	35.02
0.11400	35.03
0.13067	35.04
0.14733	35.03
0.16400	35.04
0.18067	35.03
0.19733	35.03
0.21400	35.04
0.23067	35.04
0.24733	35.04
0.26400	35.03
0.28067	35.03
0.29733	35.02
0.31400	35.02
0.33067	35.01
0.34733	35.01
0.36400	35.01
0.38067	35.00
0.39733	35.00
0.41400	35.01
0.43067	35.01
0.44733	35.02
0.46400	35.02
0.48067	35.00
0.49733	35.01
0.51400	35.00
0.53067	35.01
0.54733	35.00
0.56400	35.01
0.58067	35.00
0.59733	35.00
0.61400	35.00
0.63067	35.00
0.64733	35.00
0.66400	34.99
0.68067	34.99
0.69733	35.00
0.71400	35.00
0.73067	35.01
0.74733	35.00
0.76400	34.99
0.78067	34.99
0.79733	35.01
0.81400	35.00
0.83067	35.01
0.84733	35.00
0.86400	35.00
0.88067	35.00
0.89733	34.99
0.91400	34.99
0.93067	34.99
0.94733	34.99
0.96400	35.00
0.98067	34.99
0.99733	34.99
1.01400	35.00
1.03067	34.99
1.04733	34.99
1.06400	34.99
1.08067	35.01
1.09733	35.01
1.11400	35.00
1.13067	35.00
1.14733	35.00
1.16400	34.99
1.18067	35.00
1.19733	35.00
1.21400	35.00
1.23067	34.99
1.24733	34.99
1.26400	34.99
1.28067	35.00
1.29733	35.00
1.31400	35.00
1.33067	35.00
1.34733	34.99
1.36400	34.99
1.38067	35.00
1.39733	34.99
1.41400	35.00
1.43067	34.99
1.44733	34.99
1.46400	34.99
1.48067	35.00
1.49733	34.99
1.51400	34.99
1.53067	34.99
1.54733	35.00
1.56400	34.99
1.58067	35.00
1.59733	35.02
1.61400	35.10
1.63067	35.25
1.64733	35.46
1.66400	35.75
1.68067	36.10
1.69733	36.46
1.71400	36.80
1.73067	37.15
1.74733	37.46
1.76400	37.80
1.78067	38.14
1.79733	38.47
1.81400	38.78
1.83067	39.12
1.84733	39.45
1.86400	39.78
1.88067	40.11
1.89733	40.44
1.91400	40.76
1.93067	41.09
1.94733	41.42
1.96400	41.73
1.98067	42.07
1.99733	42.38
2.01400	42.72
2.03067	43.02
2.04733	43.35
2.06400	43.71
2.08067	44.03
2.09733	44.34
2.11400	44.68
2.13067	45.01
2.14733	45.35
2.16400	45.67
2.18067	45.98
2.19733	46.32
2.21400	46.64
2.23067	46.98
2.24733	47.30
2.26400	47.63
2.28067	47.96
2.29733	48.29
2.31400	48.62
2.33067	48.94
2.34733	49.25
2.36400	49.53
2.38067	49.69
2.39733	49.73
2.41400	49.73
2.43067	49.74
2.44733	49.74
2.46400	49.75
2.48067	49.76
2.49733	49.75
2.51400	49.76
2.53067	49.77
2.54733	49.79
2.56400	49.80
2.58067	49.82
2.59733	49.83
2.61400	49.82
2.63067	49.82
2.64733	49.84
2.66400	49.85
2.68067	49.85
2.69733	49.84
2.71400	49.85
2.73067	49.87
2.74733	49.87
2.76400	49.86
2.78067	49.86
2.79733	49.85
2.81400	49.86
2.83067	49.87
2.84733	49.89
2.86400	49.90
2.88067	49.92
2.89733	49.93
2.91400	49.93
2.93067	49.94
2.94733	49.95
2.96400	49.96
2.98067	49.97
2.99733	49.98
3.01400	50.00
3.03067	50.00
3.04733	50.01
3.06400	50.01
3.08067	50.03
3.09733	50.03
3.11400	50.04
3.13067	50.05
3.14733	50.04
3.16400	50.06
3.18067	50.06
3.19733	50.08
3.21400	50.09
3.23067	50.09
3.24733	50.10
3.26400	50.10
3.28067	50.09
3.29733	50.08
3.31400	50.09
3.33067	50.09
3.34733	50.09
3.36400	50.10
3.38067	50.10
3.39733	50.09
3.41400	50.09
3.43067	50.09
3.44733	50.09
3.46400	50.10
3.48067	50.10
3.49733	50.09
3.51400	50.09
3.53067	50.09
3.54733	50.08
3.56400	50.09
3.58067	50.09
3.59733	50.09
3.61400	50.09
3.63067	50.09
3.64733	50.10
3.66400	50.10
3.68067	50.10
3.69733	50.09
3.71400	50.08
3.73067	50.08
3.74733	50.08
3.76400	50.07
3.78067	50.07
3.79733	50.07
3.81400	50.06
3.83067	50.05
3.84733	50.05
3.86400	50.05
3.88067	50.05
3.89733	50.05
3.91400	50.05
3.93067	50.05
3.94733	50.05
3.96400	50.05
3.98067	50.05
3.99733	50.05

[Status Trace (Injection Unit Temperature)]
Interval(msec)	1000
# of Points	240
Start Time(min)	0.014
End Time(min)	3.997
Intensity Units	
Intensity Multiplier	1
R.Time (min)	Intensity
0.01400	99.97
0.03067	99.97
0.04733	99.97
0.06400	99.97
0.08067	99.97
0.09733	99.97
0.11400	99.98
0.13067	99.97
0.14733	99.97
0.16400	99.98
0.18067	99.98
0.19733	99.98
0.21400	99.98
0.23067	99.98
0.24733	99.98
0.26400	99.98
0.28067	99.98
0.29733	99.98
0.31400	99.98
0.33067	99.98
0.34733	99.98
0.36400	99.98
0.38067	99.98
0.39733	99.98
0.41400	99.98
0.43067	99.98
0.44733	99.98
0.46400	99.98
0.48067	99.99
0.49733	99.98
0.51400	99.99
0.53067	99.98
0.54733	99.98
0.56400	99.98
0.58067	99.98
0.59733	99.98
0.61400	99.98
0.63067	99.98
0.64733	99.98
0.66400	99.98
0.68067	99.98
0.69733	99.99
0.71400	99.98
0.73067	99.98
0.74733	99.98
0.76400	99.98
0.78067	99.98
0.79733	99.98
0.81400	99.98
0.83067	99.98
0.84733	99.98
0.86400	99.98
0.88067	99.98
0.89733	99.98
0.91400	99.98
0.93067	99.98
0.94733	99.98
0.96400	99.98
0.98067	99.98
0.99733	99.98
1.01400	99.98
1.03067	99.98
1.04733	99.98
1.06400	99.98
1.08067	99.98
1.09733	99.98
1.11400	99.98
1.13067	99.98
1.14733	99.98
1.16400	99.98
1.18067	99.98
1.19733	99.98
1.21400	99.98
1.23067	99.98
1.24733	99.98
1.26400	99.98
1.28067	99.98
1.29733	99.99
1.31400	99.98
1.33067	99.98
1.34733	99.98
1.36400	99.98
1.38067	99.99
1.39733	99.99
1.41400	99.98
1.43067	99.98
1.44733	99.98
1.46400	99.98
1.48067	99.98
1.49733	99.99
1.51400	99.98
1.53067	99.98
1.54733	99.98
1.56400	99.99
1.58067	99.98
1.59733	99.98
1.61400	99.98
1.63067	99.98
1.64733	99.98
1.66400	99.98
1.68067	99.98
1.69733	99.98
1.71400	99.99
1.73067	99.98
1.74733	99.98
1.76400	99.98
1.78067	99.98
1.79733	99.98
1.81400	99.98
1.83067	99.98
1.84733	99.98
1.86400	99.98
1.88067	99.98
1.89733	99.98
1.91400	99.97
1.93067	99.97
1.94733	99.97
1.96400	99.97
1.98067	99.97
1.99733	99.97
2.01400	99.97
2.03067	99.97
2.04733	99.97
2.06400	99.97
2.08067	99.97
2.09733	99.97
2.11400	99.97
2.13067	99.97
2.14733	99.97
2.16400	99.97
2.18067	99.96
2.19733	99.96
2.21400	99.96
2.23067	99.96
2.24733	99.96
2.26400	99.96
2.28067	99.96
2.29733	99.96
2.31400	99.96
2.33067	99.96
2.34733	99.96
2.36400	99.96
2.38067	99.96
2.39733	99.96
2.41400	99.96
2.43067	99.96
2.44733	99.96
2.46400	99.96
2.48067	99.96
2.49733	99.96
2.51400	99.96
2.53067	99.96
2.54733	99.96
2.56400	99.96
2.58067	99.96
2.59733	99.96
2.61400	99.97
2.63067	99.97
2.64733	99.97
2.66400	99.97
2.68067	99.97
2.69733	99.97
2.71400	99.98
2.73067	99.97
2.74733	99.98
2.76400	99.98
2.78067	99.98
2.79733	99.98
2.81400	99.98
2.83067	99.98
2.84733	99.99
2.86400	99.99
2.88067	99.99
2.89733	100.00
2.91400	99.99
2.93067	100.00
2.94733	100.00
2.96400	100.00
2.98067	100.00
2.99733	100.00
3.01400	100.01
3.03067	100.01
3.04733	100.01
3.06400	100.01
3.08067	100.01
3.09733	100.01
3.11400	100.01
3.13067	100.02
3.14733	100.02
3.16400	100.02
3.18067	100.02
3.19733	100.02
3.21400	100.02
3.23067	100.02
3.24733	100.02
3.26400	100.03
3.28067	100.03
3.29733	100.03
3.31400	100.03
3.33067	100.03
3.34733	100.03
3.36400	100.03
3.38067	100.03
3.39733	100.03
3.41400	100.03
3.43067	100.03
3.44733	100.04
3.46400	100.03
3.48067	100.04
3.49733	100.04
3.51400	100.03
3.53067	100.04
3.54733	100.04
3.56400	100.04
3.58067	100.04
3.59733	100.04
3.61400	100.04
3.63067	100.04
3.64733	100.04
3.66400	100.04
3.68067	100.04
3.69733	100.04
3.71400	100.04
3.73067	100.04
3.74733	100.04
3.76400	100.04
3.78067	100.04
3.79733	100.04
3.81400	100.04
3.83067	100.04
3.84733	100.04
3.86400	100.04
3.88067	100.04
3.89733	100.04
3.91400	100.04
3.93067	100.04
3.94733	100.04
3.96400	100.04
3.98067	100.04
3.99733	100.04

[Status Trace (Carrier Gas Pressure)]
Interval(msec)	1000
# of Points	240
Start Time(min)	0.014
End Time(min)	3.997
Intensity Units	
Intensity Multiplier	1
R.Time (min)	Intensity
0.01400	57.61
0.03067	55.44
0.04733	57.83
0.06400	59.81
0.08067	58.74
0.09733	57.99
0.11400	57.99
0.13067	58.01
0.14733	58.01
0.16400	58.00
0.18067	58.00
0.19733	58.00
0.21400	58.00
0.23067	58.00
0.24733	58.00
0.26400	58.00
0.28067	58.00
0.29733	58.00
0.31400	58.00
0.33067	58.00
0.34733	58.00
0.36400	58.00
0.38067	58.00
0.39733	58.00
0.41400	58.00
0.43067	58.00
0.44733	58.00
0.46400	58.00
0.48067	58.00
0.49733	58.00
0.51400	58.00
0.53067	58.00
0.54733	58.00
0.56400	58.00
0.58067	58.00
0.59733	58.00
0.61400	58.00
0.63067	58.00
0.64733	58.00
0.66400	58.00
0.68067	58.00
0.69733	58.00
0.71400	58.00
0.73067	58.00
0.74733	58.00
0.76400	58.00
0.78067	58.00
0.79733	58.00
0.81400	58.00
0.83067	58.00
0.84733	58.00
0.86400	58.00
0.88067	58.00
0.89733	58.00
0.91400	58.00
0.93067	58.00
0.94733	58.00
0.96400	58.00
0.98067	58.00
0.99733	58.00
1.01400	58.00
1.03067	58.00
1.04733	58.00
1.06400	58.00
1.08067	58.00
1.09733	58.00
1.11400	58.00
1.13067	58.00
1.14733	58.00
1.16400	58.00
1.18067	58.00
1.19733	58.00
1.21400	58.00
1.23067	58.00
1.24733	58.00
1.26400	58.00
1.28067	58.00
1.29733	58.00
1.31400	58.00
1.33067	58.00
1.34733	58.00
1.36400	58.00
1.38067	58.00
1.39733	58.00
1.41400	58.00
1.43067	58.00
1.44733	58.00
1.46400	58.00
1.48067	58.00
1.49733	58.00
1.51400	58.00
1.53067	58.00
1.54733	58.00
1.56400	58.00
1.58067	58.00
1.59733	58.00
1.61400	58.00
1.63067	58.00
1.64733	58.01
1.66400	58.00
1.68067	58.01
1.69733	58.00
1.71400	58.00
1.73067	58.00
1.74733	58.00
1.76400	58.00
1.78067	58.00
1.79733	58.00
1.81400	58.00
1.83067	58.00
1.84733	58.00
1.86400	58.00
1.88067	58.00
1.89733	58.00
1.91400	58.00
1.93067	58.00
1.94733	58.00
1.96400	58.00
1.98067	58.00
1.99733	58.00
2.01400	58.00
2.03067	58.00
2.04733	58.00
2.06400	58.00
2.08067	58.00
2.09733	58.00
2.11400	58.00
2.13067	58.00
2.14733	58.00
2.16400	58.00
2.18067	58.00
2.19733	58.00
2.21400	58.00
2.23067	58.00
2.24733	58.00
2.26400	58.00
2.28067	58.00
2.29733	58.00
2.31400	58.00
2.33067	58.00
2.34733	58.00
2.36400	58.00
2.38067	57.99
2.39733	57.99
2.41400	58.00
2.43067	58.00
2.44733	58.00
2.46400	58.00
2.48067	58.00
2.49733	58.00
2.51400	57.99
2.53067	57.99
2.54733	58.00
2.56400	58.00
2.58067	58.00
2.59733	58.00
2.61400	58.00
2.63067	58.00
2.64733	58.00
2.66400	58.00
2.68067	58.00
2.69733	58.00
2.71400	58.00
2.73067	58.00
2.74733	58.00
2.76400	58.00
2.78067	58.00
2.79733	58.00
2.81400	58.00
2.83067	58.00
2.84733	58.00
2.86400	58.00
2.88067	58.00
2.89733	58.00
2.91400	58.00
2.93067	58.00
2.94733	58.00
2.96400	58.00
2.98067	58.00
2.99733	58.00
3.01400	58.00
3.03067	58.00
3.04733	58.00
3.06400	58.00
3.08067	58.00
3.09733	58.00
3.11400	58.00
3.13067	58.00
3.14733	58.00
3.16400	58.00
3.18067	58.00
3.19733	58.00
3.21400	58.00
3.23067	58.00
3.24733	58.00
3.26400	58.00
3.28067	58.00
3.29733	58.00
3.31400	58.00
3.33067	58.00
3.34733	58.00
3.36400	58.00
3.38067	58.00
3.39733	58.00
3.41400	58.00
3.43067	58.00
3.44733	58.00
3.46400	58.00
3.48067	58.00
3.49733	58.00
3.51400	58.00
3.53067	58.00
3.54733	58.00
3.56400	58.00
3.58067	58.00
3.59733	58.00
3.61400	58.00
3.63067	58.00
3.64733	58.00
3.66400	58.00
3.68067	58.00
3.69733	58.00
3.71400	58.00
3.73067	58.00
3.74733	58.00
3.76400	58.00
3.78067	58.00
3.79733	58.00
3.81400	58.00
3.83067	58.00
3.84733	58.00
3.86400	58.00
3.88067	58.00
3.89733	58.00
3.91400	58.00
3.93067	58.00
3.94733	58.00
3.96400	58.00
3.98067	58.00
3.99733	58.00

[Status Trace (Carrier Gas Flow)]
Interval(msec)	1000
# of Points	240
Start Time(min)	0.014
End Time(min)	3.997
Intensity Units	
Intensity Multiplier	1
R.Time (min)	Intensity
0.01400	34.29
0.03067	34.54
0.04733	34.54
0.06400	34.52
0.08067	34.51
0.09733	34.51
0.11400	34.52
0.13067	34.51
0.14733	34.52
0.16400	34.52
0.18067	34.52
0.19733	34.52
0.21400	34.52
0.23067	34.52
0.24733	34.52
0.26400	34.52
0.28067	34.51
0.29733	34.52
0.31400	34.52
0.33067	34.52
0.34733	34.52
0.36400	34.52
0.38067	34.52
0.39733	34.51
0.41400	34.52
0.43067	34.52
0.44733	34.51
0.46400	34.51
0.48067	34.52
0.49733	34.52
0.51400	34.52
0.53067	34.52
0.54733	34.52
0.56400	34.52
0.58067	34.52
0.59733	34.52
0.61400	34.52
0.63067	34.52
0.64733	34.52
0.66400	34.52
0.68067	34.52
0.69733	34.52
0.71400	34.52
0.73067	34.52
0.74733	34.52
0.76400	34.52
0.78067	34.52
0.79733	34.52
0.81400	34.52
0.83067	34.52
0.84733	34.52
0.86400	34.52
0.88067	34.52
0.89733	34.52
0.91400	34.52
0.93067	34.52
0.94733	34.52
0.96400	34.51
0.98067	34.52
0.99733	34.52
1.01400	34.52
1.03067	34.52
1.04733	34.52
1.06400	34.52
1.08067	34.52
1.09733	34.52
1.11400	34.52
1.13067	34.52
1.14733	34.51
1.16400	34.52
1.18067	34.52
1.19733	34.52
1.21400	34.52
1.23067	34.51
1.24733	34.52
1.26400	34.52
1.28067	34.52
1.29733	34.52
1.31400	34.52
1.33067	34.51
1.34733	34.52
1.36400	34.51
1.38067	34.52
1.39733	34.52
1.41400	34.52
1.43067	34.52
1.44733	34.52
1.46400	34.52
1.48067	34.51
1.49733	34.52
1.51400	34.52
1.53067	34.51
1.54733	34.52
1.56400	34.52
1.58067	34.52
1.59733	34.51
1.61400	34.52
1.63067	34.52
1.64733	34.52
1.66400	34.52
1.68067	34.52
1.69733	34.52
1.71400	34.52
1.73067	34.52
1.74733	34.52
1.76400	34.52
1.78067	34.52
1.79733	34.52
1.81400	34.52
1.83067	34.52
1.84733	34.52
1.86400	34.52
1.88067	34.52
1.89733	34.51
1.91400	34.51
1.93067	34.52
1.94733	34.52
1.96400	34.52
1.98067	34.52
1.99733	34.52
2.01400	34.52
2.03067	34.52
2.04733	34.52
2.06400	34.52
2.08067	34.51
2.09733	34.52
2.11400	34.52
2.13067	34.52
2.14733	34.52
2.16400	34.52
2.18067	34.52
2.19733	34.52
2.21400	34.51
2.23067	34.53
2.24733	34.51
2.26400	34.51
2.28067	34.52
2.29733	34.52
2.31400	34.52
2.33067	34.52
2.34733	34.51
2.36400	34.52
2.38067	34.52
2.39733	34.52
2.41400	34.51
2.43067	34.51
2.44733	34.52
2.46400	34.52
2.48067	34.51
2.49733	34.52
2.51400	34.52
2.53067	34.52
2.54733	34.51
2.56400	34.53
2.58067	34.52
2.59733	34.52
2.61400	34.52
2.63067	34.52
2.64733	34.52
2.66400	34.52
2.68067	34.52
2.69733	34.51
2.71400	34.52
2.73067	34.52
2.74733	34.52
2.76400	34.52
2.78067	34.52
2.79733	34.52
2.81400	34.52
2.83067	34.52
2.84733	34.51
2.86400	34.53
2.88067	34.52
2.89733	34.52
2.91400	34.52
2.93067	34.52
2.94733	34.52
2.96400	34.52
2.98067	34.53
2.99733	34.52
3.01400	34.52
3.03067	34.52
3.04733	34.52
3.06400	34.51
3.08067	34.52
3.09733	34.53
3.11400	34.52
3.13067	34.52
3.14733	34.52
3.16400	34.52
3.18067	34.53
3.19733	34.52
3.21400	34.52
3.23067	34.52
3.24733	34.52
3.26400	34.52
3.28067	34.52
3.29733	34.52
3.31400	34.52
3.33067	34.52
3.34733	34.52
3.36400	34.52
3.38067	34.52
3.39733	34.52
3.41400	34.52
3.43067	34.52
3.44733	34.52
3.46400	34.52
3.48067	34.52
3.49733	34.52
3.51400	34.52
3.53067	34.52
3.54733	34.52
3.56400	34.52
3.58067	34.52
3.59733	34.52
3.61400	34.51
3.63067	34.52
3.64733	34.52
3.66400	34.52
3.68067	34.51
3.69733	34.52
3.71400	34.52
3.73067	34.52
3.74733	34.52
3.76400	34.52
3.78067	34.51
3.79733	34.52
3.81400	34.52
3.83067	34.52
3.84733	34.52
3.86400	34.52
3.88067	34.52
3.89733	34.52
3.91400	34.52
3.93067	34.53
3.94733	34.51
3.96400	34.52
3.98067	34.52
3.99733	34.52

[Status Trace (Column Flow)]
Interval(msec)	1000
# of Points	240
Start Time(min)	0.014
End Time(min)	3.997
Intensity Units	
Intensity Multiplier	1
R.Time (min)	Intensity
0.01400	5.44
0.03067	5.19
0.04733	5.47
0.06400	5.70
0.08067	5.57
0.09733	5.48
0.11400	5.48
0.13067	5.49
0.14733	5.49
0.16400	5.49
0.18067	5.49
0.19733	5.49
0.21400	5.49
0.23067	5.49
0.24733	5.49
0.26400	5.49
0.28067	5.49
0.29733	5.49
0.31400	5.49
0.33067	5.49
0.34733	5.49
0.36400	5.49
0.38067	5.49
0.39733	5.49
0.41400	5.49
0.43067	5.49
0.44733	5.49
0.46400	5.49
0.48067	5.49
0.49733	5.49
0.51400	5.49
0.53067	5.49
0.54733	5.49
0.56400	5.49
0.58067	5.49
0.59733	5.49
0.61400	5.49
0.63067	5.49
0.64733	5.49
0.66400	5.49
0.68067	5.49
0.69733	5.49
0.71400	5.49
0.73067	5.49
0.74733	5.49
0.76400	5.49
0.78067	5.49
0.79733	5.49
0.81400	5.49
0.83067	5.49
0.84733	5.49
0.86400	5.49
0.88067	5.49
0.89733	5.49
0.91400	5.49
0.93067	5.49
0.94733	5.49
0.96400	5.49
0.98067	5.49
0.99733	5.49
1.01400	5.49
1.03067	5.49
1.04733	5.49
1.06400	5.49
1.08067	5.49
1.09733	5.49
1.11400	5.49
1.13067	5.49
1.14733	5.49
1.16400	5.49
1.18067	5.49
1.19733	5.49
1.21400	5.49
1.23067	5.49
1.24733	5.49
1.26400	5.49
1.28067	5.49
1.29733	5.49
1.31400	5.49
1.33067	5.49
1.34733	5.49
1.36400	5.49
1.38067	5.49
1.39733	5.49
1.41400	5.49
1.43067	5.49
1.44733	5.49
1.46400	5.49
1.48067	5.49
1.49733	5.49
1.51400	5.49
1.53067	5.49
1.54733	5.49
1.56400	5.49
1.58067	5.49
1.59733	5.49
1.61400	5.48
1.63067	5.48
1.64733	5.47
1.66400	5.46
1.68067	5.45
1.69733	5.44
1.71400	5.43
1.73067	5.42
1.74733	5.41
1.76400	5.40
1.78067	5.39
1.79733	5.38
1.81400	5.37
1.83067	5.36
1.84733	5.35
1.86400	5.34
1.88067	5.33
1.89733	5.32
1.91400	5.31
1.93067	5.30
1.94733	5.29
1.96400	5.28
1.98067	5.27
1.99733	5.26
2.01400	5.25
2.03067	5.24
2.04733	5.24
2.06400	5.22
2.08067	5.21
2.09733	5.21
2.11400	5.20
2.13067	5.19
2.14733	5.18
2.16400	5.17
2.18067	5.16
2.19733	5.15
2.21400	5.14
2.23067	5.13
2.24733	5.12
2.26400	5.11
2.28067	5.10
2.29733	5.09
2.31400	5.08
2.33067	5.08
2.34733	5.07
2.36400	5.06
2.38067	5.05
2.39733	5.05
2.41400	5.05
2.43067	5.05
2.44733	5.05
2.46400	5.05
2.48067	5.05
2.49733	5.05
2.51400	5.05
2.53067	5.05
2.54733	5.05
2.56400	5.05
2.58067	5.05
2.59733	5.05
2.61400	5.05
2.63067	5.05
2.64733	5.05
2.66400	5.05
2.68067	5.05
2.69733	5.05
2.71400	5.05
2.73067	5.05
2.74733	5.05
2.76400	5.05
2.78067	5.05
2.79733	5.05
2.81400	5.05
2.83067	5.05
2.84733	5.05
2.86400	5.05
2.88067	5.05
2.89733	5.05
2.91400	5.05
2.93067	5.05
2.94733	5.05
2.96400	5.05
2.98067	5.05
2.99733	5.05
3.01400	5.05
3.03067	5.05
3.04733	5.05
3.06400	5.05
3.08067	5.05
3.09733	5.05
3.11400	5.04
3.13067	5.04
3.14733	5.04
3.16400	5.04
3.18067	5.04
3.19733	5.04
3.21400	5.04
3.23067	5.04
3.24733	5.04
3.26400	5.04
3.28067	5.04
3.29733	5.04
3.31400	5.04
3.33067	5.04
3.34733	5.04
3.36400	5.04
3.38067	5.04
3.39733	5.04
3.41400	5.04
3.43067	5.04
3.44733	5.04
3.46400	5.04
3.48067	5.04
3.49733	5.04
3.51400	5.04
3.53067	5.04
3.54733	5.04
3.56400	5.04
3.58067	5.04
3.59733	5.04
3.61400	5.04
3.63067	5.04
3.64733	5.04
3.66400	5.04
3.68067	5.04
3.69733	5.04
3.71400	5.04
3.73067	5.04
3.74733	5.04
3.76400	5.04
3.78067	5.04
3.79733	5.04
3.81400	5.04
3.83067	5.04
3.84733	5.04
3.86400	5.04
3.88067	5.04
3.89733	5.04
3.91400	5.04
3.93067	5.04
3.94733	5.04
3.96400	5.04
3.98067	5.04
3.99733	5.04

[Status Trace (Linear Velocity)]
Interval(msec)	1000
# of Points	240
Start Time(min)	0.014
End Time(min)	3.997
Intensity Units	
Intensity Multiplier	1
R.Time (min)	Intensity
0.01400	38.75
0.03067	37.33
0.04733	38.89
0.06400	40.19
0.08067	39.49
0.09733	39.00
0.11400	39.00
0.13067	39.01
0.14733	39.01
0.16400	39.01
0.18067	39.01
0.19733	39.01
0.21400	39.01
0.23067	39.01
0.24733	39.01
0.26400	39.01
0.28067	39.01
0.29733	39.01
0.31400	39.01
0.33067	39.01
0.34733	39.01
0.36400	39.01
0.38067	39.01
0.39733	39.01
0.41400	39.01
0.43067	39.01
0.44733	39.01
0.46400	39.01
0.48067	39.01
0.49733	39.01
0.51400	39.01
0.53067	39.01
0.54733	39.01
0.56400	39.01
0.58067	39.01
0.59733	39.01
0.61400	39.01
0.63067	39.01
0.64733	39.01
0.66400	39.01
0.68067	39.01
0.69733	39.01
0.71400	39.01
0.73067	39.01
0.74733	39.01
0.76400	39.01
0.78067	39.01
0.79733	39.01
0.81400	39.01
0.83067	39.01
0.84733	39.01
0.86400	39.01
0.88067	39.01
0.89733	39.01
0.91400	39.01
0.93067	39.01
0.94733	39.01
0.96400	39.01
0.98067	39.01
0.99733	39.01
1.01400	39.01
1.03067	39.01
1.04733	39.01
1.06400	39.01
1.08067	39.01
1.09733	39.01
1.11400	39.01
1.13067	39.01
1.14733	39.01
1.16400	39.01
1.18067	39.01
1.19733	39.01
1.21400	39.01
1.23067	39.01
1.24733	39.01
1.26400	39.01
1.28067	39.01
1.29733	39.01
1.31400	39.01
1.33067	39.01
1.34733	39.01
1.36400	39.01
1.38067	39.01
1.39733	39.01
1.41400	39.01
1.43067	39.01
1.44733	39.01
1.46400	39.01
1.48067	39.01
1.49733	39.01
1.51400	39.01
1.53067	39.01
1.54733	39.01
1.56400	39.01
1.58067	39.01
1.59733	39.01
1.61400	39.00
1.63067	38.99
1.64733	38.97
1.66400	38.94
1.68067	38.91
1.69733	38.87
1.71400	38.84
1.73067	38.80
1.74733	38.78
1.76400	38.74
1.78067	38.71
1.79733	38.68
1.81400	38.65
1.83067	38.62
1.84733	38.59
1.86400	38.55
1.88067	38.52
1.89733	38.50
1.91400	38.46
1.93067	38.43
1.94733	38.40
1.96400	38.37
1.98067	38.34
1.99733	38.32
2.01400	38.28
2.03067	38.25
2.04733	38.23
2.06400	38.19
2.08067	38.16
2.09733	38.13
2.11400	38.10
2.13067	38.07
2.14733	38.04
2.16400	38.01
2.18067	37.98
2.19733	37.96
2.21400	37.92
2.23067	37.89
2.24733	37.87
2.26400	37.84
2.28067	37.81
2.29733	37.78
2.31400	37.75
2.33067	37.72
2.34733	37.69
2.36400	37.67
2.38067	37.65
2.39733	37.64
2.41400	37.65
2.43067	37.65
2.44733	37.65
2.46400	37.65
2.48067	37.65
2.49733	37.65
2.51400	37.64
2.53067	37.64
2.54733	37.64
2.56400	37.64
2.58067	37.64
2.59733	37.64
2.61400	37.64
2.63067	37.64
2.64733	37.64
2.66400	37.64
2.68067	37.64
2.69733	37.64
2.71400	37.64
2.73067	37.64
2.74733	37.64
2.76400	37.64
2.78067	37.64
2.79733	37.64
2.81400	37.64
2.83067	37.64
2.84733	37.63
2.86400	37.63
2.88067	37.63
2.89733	37.63
2.91400	37.63
2.93067	37.63
2.94733	37.63
2.96400	37.63
2.98067	37.63
2.99733	37.63
3.01400	37.63
3.03067	37.62
3.04733	37.62
3.06400	37.62
3.08067	37.62
3.09733	37.62
3.11400	37.62
3.13067	37.62
3.14733	37.62
3.16400	37.62
3.18067	37.62
3.19733	37.62
3.21400	37.62
3.23067	37.62
3.24733	37.62
3.26400	37.62
3.28067	37.62
3.29733	37.62
3.31400	37.62
3.33067	37.62
3.34733	37.62
3.36400	37.62
3.38067	37.62
3.39733	37.62
3.41400	37.62
3.43067	37.62
3.44733	37.62
3.46400	37.62
3.48067	37.62
3.49733	37.62
3.51400	37.62
3.53067	37.62
3.54733	37.62
3.56400	37.62
3.58067	37.62
3.59733	37.62
3.61400	37.62
3.63067	37.62
3.64733	37.62
3.66400	37.62
3.68067	37.62
3.69733	37.62
3.71400	37.62
3.73067	37.62
3.74733	37.62
3.76400	37.62
3.78067	37.62
3.79733	37.62
3.81400	37.62
3.83067	37.62
3.84733	37.62
3.86400	37.62
3.88067	37.62
3.89733	37.62
3.91400	37.62
3.93067	37.62
3.94733	37.62
3.96400	37.62
3.98067	37.62
3.99733	37.62

