[Header]
Application Name	LabSolutions
Version	5.110
Data File Name	C:\Users\User\Desktop\Junior\UIC Prairie Sampling\2023\8.2.23\080223_084.gcd
Output Date	8/31/2023
Output Time	12:43:11 PM

[File Information]
Type	Data File
Generated	8/30/2023 1:14:38 AM
Generated by	System Administrator
Modified	8/30/2023 1:21:15 AM
Modified by	System Administrator

[Sample Information]
Operator Name	System Administrator
Acquired	8/30/2023 1:17:14 AM
Sample Type	0:Unknown
Level	0
Sample Name	084
Sample ID	084
ISTD Amount1	1
ISTD Amount2	1
ISTD Amount3	1
ISTD Amount4	1
ISTD Amount5	1
ISTD Amount6	1
ISTD Amount7	1
ISTD Amount8	1
ISTD Amount9	1
ISTD Amount10	1
ISTD Amount11	1
ISTD Amount12	1
ISTD Amount13	1
ISTD Amount14	1
ISTD Amount15	1
ISTD Amount16	1
ISTD Amount17	1
ISTD Amount18	1
ISTD Amount19	1
ISTD Amount20	1
ISTD Amount21	1
ISTD Amount22	1
ISTD Amount23	1
ISTD Amount24	1
ISTD Amount25	1
ISTD Amount26	1
ISTD Amount27	1
ISTD Amount28	1
ISTD Amount29	1
ISTD Amount30	1
ISTD Amount31	1
ISTD Amount32	1
Sample Amount	1
Dilution Factor	1
Vial#	83
Injection Volume	1
Injection Count	1
Bar Code	

[Original Files]
Data File	C:\Users\User\Desktop\Junior\UIC Prairie Sampling\8.2.23\080223_084.gcd
Method File	C:\LabSolutions\Data\GHG_4min_2022\ghg3_togas_w_acet_4 min_new_int.gcm
Batch File	C:\LabSolutions\Data\BATCH FILES\080223.gcb
Report Format File	c:\LabSolutions\System\DEFAULT.lsr

[File Description]


[Configuration]
Instrument Name	C0B7VH3-Instrument1
Instrument #	1
Line #	1
# of Detectors	3
Detector ID	DET#1	DET#2	DET#3
Detector Name	FID	PTCD	ECD
# of Channels	1	1	1

[Peak Table(Ch1)]
# of Peaks	4
Peak#	R.Time	I.Time	F.Time	Area	Height	A/H	Conc.	Mark	ID#	Name	k'	Plate #	Plate Ht.	Tailing	Resolution	Sep.Factor	Area Ratio	Height Ratio	Conc. %	Norm Conc.
1	0.313	0.203	0.431	1314	201	6.522	0.000	   			0.000	53	2819.505	0.975	0.000	0.000	0	0	0.000	0.000
2	1.472	1.435	1.527	6083	3061	1.987	0.000	   	1	CO	3.698	10027	14.959	1.273	10.048	0.000	0	0	0.000	0.000
3	1.564	1.527	1.622	4716	2441	1.932	22.994	 V 	2	CH4	3.990	11901	12.604	1.104	1.579	1.079	0	0	3.899	3.899
4	1.989	1.941	2.708	2940778	1408455	2.088	566.742	   	3	CO2	5.348	17227	8.707	1.270	7.212	1.340	0	0	96.101	96.101

[Peak Table(Ch2)]
# of Peaks	0

[Peak Table(Ch3)]
# of Peaks	5
Peak#	R.Time	I.Time	F.Time	Area	Height	A/H	Conc.	Mark	ID#	Name	k'	Plate #	Plate Ht.	Tailing	Resolution	Sep.Factor	Area Ratio	Height Ratio	Conc. %	Norm Conc.
1	2.458	2.440	2.572	906	278	3.258	0.000	   			0.000	16266	9.221	0.000	0.000	0.000	0	0	0.000	0.000
2	2.627	2.572	2.682	312	89	3.500	0.000	 V 			0.069	11346	13.220	0.000	1.919	0.000	0	0	0.000	0.000
3	2.891	2.755	2.953	15181	4370	3.473	0.225	   	1	N2O	0.176	13971	10.736	0.000	2.687	2.565	0	0	100.000	100.000
4	2.986	2.953	3.313	15680	979	16.021	0.000	 V 	2	SF6	0.215	152	989.707	0.000	0.179	1.220	0	0	0.000	0.000
5	3.415	3.313	3.995	11539	619	18.645	0.000	 V 			0.389	196	766.442	0.000	0.441	1.813	0	0	0.000	0.000

[Compound Results(Ch1)]
# of IDs	6
ID#	Name	R.Time	Area	Height	Conc.	Curve	3rd	2nd	1st	Constant	Area Ratio	Height Ratio	Conc. %	Norm Conc.
1	CO	1.472	6083	3061	0.000	Linear	0.000000e+00	0.000000e+00	0.000000e+00	0.000000e+00	0	0	0.000	0.000
2	CH4	1.564	4716	2441	22.994	Linear	0.000000e+00	0.000000e+00	2.051179e+002	0.000000e+00	0	0	3.899	3.899
3	CO2	1.989	2940778	1408455	566.742	Linear	0.000000e+00	0.000000e+00	5.188919e+003	0.000000e+00	0	0	96.101	96.101
4	Ethylene	0.000	0	0	0.000	Linear	0.000000e+00	0.000000e+00	0.000000e+00	0.000000e+00	0	0	0.000	0.000
5	Acetylene	0.000	0	0	0.000	Linear	0.000000e+00	0.000000e+00	0.000000e+00	0.000000e+00	0	0	0.000	0.000
6	Ethane	0.000	0	0	0.000	Linear	0.000000e+00	0.000000e+00	0.000000e+00	0.000000e+00	0	0	0.000	0.000

[Compound Results(Ch2)]
# of IDs	5
ID#	Name	R.Time	Area	Height	Conc.	Curve	3rd	2nd	1st	Constant	Area Ratio	Height Ratio	Conc. %	Norm Conc.
1	Hydrogen	0.000	0	0	0.000	Linear	0.000000e+00	0.000000e+00	0.000000e+00	0.000000e+00	0	0	0.000	0.000
2	Oxygen	0.000	0	0	0.000	Linear	0.000000e+00	0.000000e+00	0.000000e+00	0.000000e+00	0	0	0.000	0.000
3	Nitrogen	0.000	0	0	0.000	Linear	0.000000e+00	0.000000e+00	0.000000e+00	0.000000e+00	0	0	0.000	0.000
4	Methane	0.000	0	0	0.000	Linear	0.000000e+00	0.000000e+00	0.000000e+00	0.000000e+00	0	0	0.000	0.000
5	Carbon Monoxide	0.000	0	0	0.000	Linear	0.000000e+00	0.000000e+00	0.000000e+00	0.000000e+00	0	0	0.000	0.000

[Compound Results(Ch3)]
# of IDs	2
ID#	Name	R.Time	Area	Height	Conc.	Curve	3rd	2nd	1st	Constant	Area Ratio	Height Ratio	Conc. %	Norm Conc.
1	N2O	2.891	15181	4370	0.225	Linear	0.000000e+00	0.000000e+00	6.759880e+004	0.000000e+00	0	0	100.000	100.000
2	SF6	2.986	15680	979	0.000	Linear	0.000000e+00	0.000000e+00	0.000000e+00	0.000000e+00	0	0	0.000	0.000

[Group Results(Ch1)]
# of Groups	0

[Group Results(Ch2)]
# of Groups	0

[Group Results(Ch3)]
# of Groups	0

[Chromatogram (Ch1)]
Interval(msec)	220
# of Points	1091
Start Time(min)	0.002
End Time(min)	3.998
R.Time (min)	Intensity
0.00167	-12
0.00533	-5
0.00900	8
0.01267	26
0.01633	42
0.02000	50
0.02367	49
0.02733	41
0.03100	30
0.03467	21
0.03833	15
0.04200	12
0.04567	10
0.04933	10
0.05300	14
0.05667	20
0.06033	25
0.06400	28
0.06767	27
0.07133	27
0.07500	29
0.07867	30
0.08233	28
0.08600	22
0.08967	12
0.09333	6
0.09700	5
0.10067	8
0.10433	11
0.10800	16
0.11167	19
0.11533	21
0.11900	21
0.12267	19
0.12633	15
0.13000	13
0.13367	13
0.13733	14
0.14100	14
0.14467	14
0.14833	16
0.15200	19
0.15567	22
0.15933	25
0.16300	26
0.16667	28
0.17033	29
0.17400	26
0.17767	23
0.18133	19
0.18500	15
0.18867	16
0.19233	21
0.19600	28
0.19967	34
0.20333	39
0.20700	43
0.21067	47
0.21433	51
0.21800	55
0.22167	58
0.22533	60
0.22900	64
0.23267	70
0.23633	79
0.24000	89
0.24367	101
0.24733	113
0.25100	125
0.25467	137
0.25833	150
0.26200	161
0.26567	169
0.26933	176
0.27300	183
0.27667	189
0.28033	196
0.28400	203
0.28767	209
0.29133	213
0.29500	217
0.29867	224
0.30233	232
0.30600	239
0.30967	243
0.31333	245
0.31700	244
0.32067	240
0.32433	237
0.32800	236
0.33167	232
0.33533	227
0.33900	222
0.34267	217
0.34633	210
0.35000	202
0.35367	193
0.35733	180
0.36100	166
0.36467	154
0.36833	142
0.37200	130
0.37567	118
0.37933	104
0.38300	93
0.38667	84
0.39033	80
0.39400	78
0.39767	73
0.40133	69
0.40500	64
0.40867	57
0.41233	52
0.41600	50
0.41967	50
0.42333	52
0.42700	52
0.43067	48
0.43433	44
0.43800	39
0.44167	36
0.44533	28
0.44900	17
0.45267	8
0.45633	1
0.46000	-5
0.46367	-12
0.46733	-17
0.47100	-16
0.47467	-8
0.47833	-0
0.48200	6
0.48567	11
0.48933	16
0.49300	18
0.49667	17
0.50033	13
0.50400	8
0.50767	4
0.51133	3
0.51500	4
0.51867	5
0.52233	6
0.52600	8
0.52967	10
0.53333	9
0.53700	8
0.54067	5
0.54433	2
0.54800	-3
0.55167	-9
0.55533	-16
0.55900	-24
0.56267	-29
0.56633	-28
0.57000	-23
0.57367	-18
0.57733	-14
0.58100	-11
0.58467	-6
0.58833	-1
0.59200	6
0.59567	12
0.59933	15
0.60300	17
0.60667	15
0.61033	7
0.61400	-2
0.61767	-9
0.62133	-13
0.62500	-15
0.62867	-14
0.63233	-10
0.63600	-4
0.63967	4
0.64333	12
0.64700	17
0.65067	18
0.65433	13
0.65800	4
0.66167	-4
0.66533	-8
0.66900	-9
0.67267	-7
0.67633	-1
0.68000	8
0.68367	15
0.68733	18
0.69100	12
0.69467	3
0.69833	-8
0.70200	-17
0.70567	-23
0.70933	-24
0.71300	-23
0.71667	-18
0.72033	-12
0.72400	-9
0.72767	-8
0.73133	-10
0.73500	-14
0.73867	-16
0.74233	-15
0.74600	-15
0.74967	-16
0.75333	-18
0.75700	-18
0.76067	-17
0.76433	-16
0.76800	-15
0.77167	-12
0.77533	-10
0.77900	-9
0.78267	-9
0.78633	-5
0.79000	1
0.79367	4
0.79733	4
0.80100	3
0.80467	2
0.80833	3
0.81200	3
0.81567	2
0.81933	-1
0.82300	-4
0.82667	-6
0.83033	-3
0.83400	-1
0.83767	-4
0.84133	-10
0.84500	-17
0.84867	-25
0.85233	-30
0.85600	-30
0.85967	-28
0.86333	-26
0.86700	-21
0.87067	-17
0.87433	-20
0.87800	-26
0.88167	-32
0.88533	-35
0.88900	-29
0.89267	-20
0.89633	-13
0.90000	-5
0.90367	1
0.90733	5
0.91100	3
0.91467	-3
0.91833	-9
0.92200	-12
0.92567	-13
0.92933	-12
0.93300	-12
0.93667	-11
0.94033	-10
0.94400	-12
0.94767	-17
0.95133	-23
0.95500	-25
0.95867	-24
0.96233	-26
0.96600	-29
0.96967	-33
0.97333	-35
0.97700	-34
0.98067	-34
0.98433	-33
0.98800	-30
0.99167	-27
0.99533	-24
0.99900	-23
1.00267	-25
1.00633	-27
1.01000	-29
1.01367	-27
1.01733	-22
1.02100	-19
1.02467	-18
1.02833	-15
1.03200	-13
1.03567	-12
1.03933	-13
1.04300	-15
1.04667	-16
1.05033	-20
1.05400	-22
1.05767	-24
1.06133	-26
1.06500	-30
1.06867	-34
1.07233	-35
1.07600	-31
1.07967	-21
1.08333	-12
1.08700	-8
1.09067	-5
1.09433	-5
1.09800	-9
1.10167	-16
1.10533	-20
1.10900	-23
1.11267	-23
1.11633	-22
1.12000	-23
1.12367	-23
1.12733	-24
1.13100	-26
1.13467	-28
1.13833	-27
1.14200	-25
1.14567	-23
1.14933	-23
1.15300	-24
1.15667	-29
1.16033	-31
1.16400	-29
1.16767	-29
1.17133	-31
1.17500	-31
1.17867	-30
1.18233	-29
1.18600	-32
1.18967	-36
1.19333	-36
1.19700	-34
1.20067	-29
1.20433	-24
1.20800	-16
1.21167	-12
1.21533	-12
1.21900	-13
1.22267	-13
1.22633	-12
1.23000	-6
1.23367	1
1.23733	1
1.24100	-5
1.24467	-14
1.24833	-24
1.25200	-34
1.25567	-41
1.25933	-44
1.26300	-40
1.26667	-34
1.27033	-27
1.27400	-23
1.27767	-24
1.28133	-28
1.28500	-29
1.28867	-28
1.29233	-27
1.29600	-28
1.29967	-28
1.30333	-28
1.30700	-31
1.31067	-34
1.31433	-36
1.31800	-35
1.32167	-34
1.32533	-33
1.32900	-33
1.33267	-36
1.33633	-39
1.34000	-40
1.34367	-40
1.34733	-40
1.35100	-43
1.35467	-46
1.35833	-48
1.36200	-46
1.36567	-42
1.36933	-35
1.37300	-27
1.37667	-18
1.38033	-11
1.38400	-9
1.38767	-11
1.39133	-17
1.39500	-22
1.39867	-27
1.40233	-33
1.40600	-40
1.40967	-46
1.41333	-47
1.41700	-45
1.42067	-42
1.42433	-41
1.42800	-40
1.43167	-37
1.43533	-26
1.43900	-5
1.44267	23
1.44633	133
1.45000	451
1.45367	980
1.45733	1593
1.46100	2163
1.46467	2624
1.46833	2931
1.47200	3038
1.47567	2914
1.47933	2583
1.48300	2127
1.48667	1648
1.49033	1218
1.49400	870
1.49767	606
1.50133	413
1.50500	279
1.50867	188
1.51233	127
1.51600	88
1.51967	61
1.52333	42
1.52700	31
1.53067	30
1.53433	66
1.53800	198
1.54167	489
1.54533	925
1.54900	1412
1.55267	1855
1.55633	2194
1.56000	2396
1.56367	2427
1.56733	2265
1.57100	1945
1.57467	1542
1.57833	1144
1.58200	804
1.58567	542
1.58933	350
1.59300	216
1.59667	127
1.60033	72
1.60400	40
1.60767	24
1.61133	15
1.61500	5
1.61867	-4
1.62233	-9
1.62600	-13
1.62967	-15
1.63333	-13
1.63700	-11
1.64067	-10
1.64433	-13
1.64800	-20
1.65167	-29
1.65533	-33
1.65900	-33
1.66267	-31
1.66633	-33
1.67000	-39
1.67367	-46
1.67733	-53
1.68100	-58
1.68467	-61
1.68833	-64
1.69200	-66
1.69567	-67
1.69933	-67
1.70300	-63
1.70667	-57
1.71033	-52
1.71400	-49
1.71767	-46
1.72133	-42
1.72500	-35
1.72867	-34
1.73233	-37
1.73600	-42
1.73967	-47
1.74333	-49
1.74700	-50
1.75067	-50
1.75433	-51
1.75800	-51
1.76167	-49
1.76533	-44
1.76900	-41
1.77267	-40
1.77633	-38
1.78000	-36
1.78367	-34
1.78733	-36
1.79100	-39
1.79467	-41
1.79833	-42
1.80200	-41
1.80567	-40
1.80933	-38
1.81300	-33
1.81667	-27
1.82033	-23
1.82400	-19
1.82767	-17
1.83133	-17
1.83500	-20
1.83867	-26
1.84233	-33
1.84600	-41
1.84967	-48
1.85333	-52
1.85700	-53
1.86067	-52
1.86433	-52
1.86800	-53
1.87167	-53
1.87533	-51
1.87900	-46
1.88267	-39
1.88633	-33
1.89000	-30
1.89367	-28
1.89733	-26
1.90100	-27
1.90467	-28
1.90833	-31
1.91200	-35
1.91567	-40
1.91933	-44
1.92300	-46
1.92667	-46
1.93033	-43
1.93400	-39
1.93767	-37
1.94133	-34
1.94500	-7
1.94867	207
1.95233	1564
1.95600	8085
1.95967	31505
1.96333	95500
1.96700	228608
1.97067	441425
1.97433	709488
1.97800	982970
1.98167	1211897
1.98533	1359920
1.98900	1408444
1.99267	1356378
1.99633	1220165
2.00000	1030195
2.00367	821599
2.00733	624307
2.01100	456747
2.01467	325338
2.01833	228081
2.02200	158977
2.02567	111206
2.02933	78728
2.03300	56830
2.03667	42073
2.04033	32073
2.04400	25219
2.04767	20445
2.05133	17047
2.05500	14563
2.05867	12701
2.06233	11264
2.06600	10127
2.06967	9208
2.07333	8452
2.07700	7821
2.08067	7282
2.08433	6811
2.08800	6399
2.09167	6035
2.09533	5710
2.09900	5416
2.10267	5149
2.10633	4904
2.11000	4679
2.11367	4471
2.11733	4283
2.12100	4110
2.12467	3950
2.12833	3803
2.13200	3668
2.13567	3539
2.13933	3412
2.14300	3292
2.14667	3181
2.15033	3079
2.15400	2983
2.15767	2892
2.16133	2806
2.16500	2723
2.16867	2642
2.17233	2562
2.17600	2485
2.17967	2415
2.18333	2350
2.18700	2286
2.19067	2226
2.19433	2167
2.19800	2109
2.20167	2055
2.20533	2003
2.20900	1953
2.21267	1905
2.21633	1863
2.22000	1826
2.22367	1792
2.22733	1756
2.23100	1720
2.23467	1685
2.23833	1653
2.24200	1623
2.24567	1592
2.24933	1557
2.25300	1522
2.25667	1487
2.26033	1452
2.26400	1418
2.26767	1389
2.27133	1363
2.27500	1340
2.27867	1320
2.28233	1300
2.28600	1281
2.28967	1261
2.29333	1240
2.29700	1222
2.30067	1206
2.30433	1187
2.30800	1166
2.31167	1146
2.31533	1130
2.31900	1115
2.32267	1095
2.32633	1069
2.33000	1044
2.33367	1023
2.33733	1006
2.34100	993
2.34467	981
2.34833	969
2.35200	955
2.35567	938
2.35933	921
2.36300	906
2.36667	896
2.37033	888
2.37400	880
2.37767	871
2.38133	862
2.38500	857
2.38867	850
2.39233	841
2.39600	828
2.39967	815
2.40333	802
2.40700	791
2.41067	783
2.41433	775
2.41800	766
2.42167	758
2.42533	752
2.42900	745
2.43267	737
2.43633	728
2.44000	716
2.44367	703
2.44733	694
2.45100	686
2.45467	679
2.45833	674
2.46200	669
2.46567	661
2.46933	650
2.47300	641
2.47667	634
2.48033	625
2.48400	615
2.48767	606
2.49133	599
2.49500	592
2.49867	585
2.50233	576
2.50600	570
2.50967	567
2.51333	569
2.51700	573
2.52067	577
2.52433	578
2.52800	575
2.53167	569
2.53533	562
2.53900	553
2.54267	544
2.54633	536
2.55000	531
2.55367	525
2.55733	518
2.56100	508
2.56467	496
2.56833	489
2.57200	486
2.57567	486
2.57933	484
2.58300	482
2.58667	478
2.59033	478
2.59400	479
2.59767	476
2.60133	472
2.60500	465
2.60867	458
2.61233	453
2.61600	446
2.61967	438
2.62333	431
2.62700	426
2.63067	421
2.63433	421
2.63800	424
2.64167	425
2.64533	419
2.64900	411
2.65267	407
2.65633	407
2.66000	406
2.66367	404
2.66733	401
2.67100	398
2.67467	394
2.67833	390
2.68200	388
2.68567	383
2.68933	376
2.69300	368
2.69667	362
2.70033	359
2.70400	355
2.70767	348
2.71133	342
2.71500	340
2.71867	340
2.72233	343
2.72600	349
2.72967	356
2.73333	360
2.73700	359
2.74067	356
2.74433	354
2.74800	349
2.75167	346
2.75533	346
2.75900	347
2.76267	346
2.76633	343
2.77000	338
2.77367	329
2.77733	319
2.78100	311
2.78467	308
2.78833	310
2.79200	311
2.79567	310
2.79933	307
2.80300	304
2.80667	301
2.81033	298
2.81400	295
2.81767	295
2.82133	296
2.82500	298
2.82867	300
2.83233	302
2.83600	306
2.83967	308
2.84333	303
2.84700	293
2.85067	281
2.85433	272
2.85800	267
2.86167	264
2.86533	263
2.86900	262
2.87267	260
2.87633	262
2.88000	267
2.88367	270
2.88733	270
2.89100	271
2.89467	269
2.89833	265
2.90200	261
2.90567	257
2.90933	255
2.91300	255
2.91667	254
2.92033	255
2.92400	256
2.92767	259
2.93133	261
2.93500	261
2.93867	260
2.94233	258
2.94600	253
2.94967	247
2.95333	241
2.95700	235
2.96067	232
2.96433	231
2.96800	230
2.97167	230
2.97533	232
2.97900	236
2.98267	236
2.98633	232
2.99000	231
2.99367	229
2.99733	227
3.00100	222
3.00467	218
3.00833	216
3.01200	216
3.01567	218
3.01933	223
3.02300	230
3.02667	238
3.03033	246
3.03400	245
3.03767	236
3.04133	228
3.04500	220
3.04867	212
3.05233	206
3.05600	202
3.05967	202
3.06333	202
3.06700	200
3.07067	200
3.07433	204
3.07800	206
3.08167	207
3.08533	209
3.08900	209
3.09267	209
3.09633	211
3.10000	211
3.10367	210
3.10733	207
3.11100	203
3.11467	199
3.11833	196
3.12200	195
3.12567	195
3.12933	193
3.13300	191
3.13667	188
3.14033	182
3.14400	175
3.14767	170
3.15133	169
3.15500	171
3.15867	173
3.16233	172
3.16600	168
3.16967	165
3.17333	166
3.17700	167
3.18067	168
3.18433	171
3.18800	170
3.19167	168
3.19533	165
3.19900	162
3.20267	159
3.20633	156
3.21000	155
3.21367	158
3.21733	163
3.22100	169
3.22467	175
3.22833	174
3.23200	169
3.23567	165
3.23933	161
3.24300	161
3.24667	161
3.25033	159
3.25400	156
3.25767	153
3.26133	154
3.26500	157
3.26867	160
3.27233	162
3.27600	163
3.27967	163
3.28333	162
3.28700	160
3.29067	157
3.29433	154
3.29800	151
3.30167	146
3.30533	141
3.30900	140
3.31267	141
3.31633	142
3.32000	141
3.32367	139
3.32733	140
3.33100	143
3.33467	148
3.33833	154
3.34200	158
3.34567	160
3.34933	160
3.35300	157
3.35667	152
3.36033	146
3.36400	142
3.36767	141
3.37133	140
3.37500	137
3.37867	135
3.38233	136
3.38600	135
3.38967	130
3.39333	125
3.39700	124
3.40067	126
3.40433	132
3.40800	137
3.41167	140
3.41533	143
3.41900	143
3.42267	142
3.42633	142
3.43000	138
3.43367	133
3.43733	130
3.44100	127
3.44467	126
3.44833	127
3.45200	127
3.45567	127
3.45933	127
3.46300	125
3.46667	125
3.47033	128
3.47400	131
3.47767	131
3.48133	128
3.48500	121
3.48867	118
3.49233	119
3.49600	123
3.49967	128
3.50333	132
3.50700	135
3.51067	133
3.51433	130
3.51800	126
3.52167	121
3.52533	116
3.52900	111
3.53267	105
3.53633	103
3.54000	104
3.54367	107
3.54733	110
3.55100	115
3.55467	120
3.55833	126
3.56200	129
3.56567	126
3.56933	118
3.57300	112
3.57667	111
3.58033	116
3.58400	123
3.58767	126
3.59133	126
3.59500	125
3.59867	122
3.60233	116
3.60600	110
3.60967	105
3.61333	103
3.61700	102
3.62067	101
3.62433	101
3.62800	102
3.63167	104
3.63533	106
3.63900	105
3.64267	104
3.64633	106
3.65000	110
3.65367	112
3.65733	109
3.66100	104
3.66467	99
3.66833	98
3.67200	101
3.67567	103
3.67933	102
3.68300	101
3.68667	102
3.69033	103
3.69400	103
3.69767	104
3.70133	105
3.70500	104
3.70867	103
3.71233	103
3.71600	103
3.71967	102
3.72333	102
3.72700	99
3.73067	96
3.73433	97
3.73800	103
3.74167	104
3.74533	98
3.74900	91
3.75267	85
3.75633	81
3.76000	80
3.76367	82
3.76733	83
3.77100	85
3.77467	88
3.77833	92
3.78200	95
3.78567	97
3.78933	99
3.79300	97
3.79667	94
3.80033	90
3.80400	84
3.80767	79
3.81133	77
3.81500	77
3.81867	79
3.82233	83
3.82600	88
3.82967	92
3.83333	93
3.83700	90
3.84067	84
3.84433	77
3.84800	75
3.85167	76
3.85533	79
3.85900	80
3.86267	80
3.86633	78
3.87000	76
3.87367	76
3.87733	78
3.88100	79
3.88467	83
3.88833	88
3.89200	92
3.89567	95
3.89933	92
3.90300	87
3.90667	84
3.91033	82
3.91400	82
3.91767	81
3.92133	79
3.92500	76
3.92867	74
3.93233	73
3.93600	72
3.93967	71
3.94333	66
3.94700	61
3.95067	59
3.95433	60
3.95800	64
3.96167	67
3.96533	68
3.96900	69
3.97267	68
3.97633	65
3.98000	62
3.98367	61
3.98733	60
3.99100	61
3.99467	63
3.99833	66

[Chromatogram (Ch2)]
Interval(msec)	220
# of Points	1091
Start Time(min)	0.002
End Time(min)	3.998
R.Time (min)	Intensity
0.00167	0
0.00533	0
0.00900	0
0.01267	0
0.01633	-0
0.02000	-0
0.02367	-0
0.02733	-0
0.03100	-0
0.03467	-0
0.03833	-0
0.04200	-0
0.04567	-1
0.04933	-1
0.05300	-1
0.05667	-1
0.06033	-1
0.06400	-1
0.06767	-1
0.07133	-0
0.07500	-0
0.07867	-0
0.08233	0
0.08600	0
0.08967	0
0.09333	1
0.09700	1
0.10067	1
0.10433	1
0.10800	1
0.11167	1
0.11533	1
0.11900	1
0.12267	1
0.12633	1
0.13000	1
0.13367	1
0.13733	1
0.14100	1
0.14467	1
0.14833	1
0.15200	1
0.15567	1
0.15933	1
0.16300	1
0.16667	1
0.17033	1
0.17400	1
0.17767	1
0.18133	1
0.18500	1
0.18867	1
0.19233	1
0.19600	1
0.19967	1
0.20333	1
0.20700	1
0.21067	1
0.21433	1
0.21800	1
0.22167	1
0.22533	1
0.22900	1
0.23267	1
0.23633	1
0.24000	1
0.24367	1
0.24733	1
0.25100	1
0.25467	1
0.25833	1
0.26200	1
0.26567	1
0.26933	1
0.27300	0
0.27667	0
0.28033	0
0.28400	0
0.28767	0
0.29133	-0
0.29500	-0
0.29867	-0
0.30233	-0
0.30600	-0
0.30967	-0
0.31333	-0
0.31700	-0
0.32067	-0
0.32433	-0
0.32800	-1
0.33167	-1
0.33533	-0
0.33900	-0
0.34267	0
0.34633	0
0.35000	1
0.35367	1
0.35733	1
0.36100	1
0.36467	1
0.36833	1
0.37200	0
0.37567	0
0.37933	-0
0.38300	-1
0.38667	-0
0.39033	-0
0.39400	-0
0.39767	-0
0.40133	-0
0.40500	-0
0.40867	-1
0.41233	-1
0.41600	-1
0.41967	-0
0.42333	-0
0.42700	-0
0.43067	-0
0.43433	0
0.43800	0
0.44167	0
0.44533	0
0.44900	0
0.45267	0
0.45633	0
0.46000	0
0.46367	1
0.46733	1
0.47100	0
0.47467	1
0.47833	0
0.48200	0
0.48567	0
0.48933	0
0.49300	0
0.49667	0
0.50033	0
0.50400	-0
0.50767	-0
0.51133	-0
0.51500	-0
0.51867	-0
0.52233	-0
0.52600	-1
0.52967	-1
0.53333	-1
0.53700	-0
0.54067	-0
0.54433	-0
0.54800	0
0.55167	0
0.55533	0
0.55900	0
0.56267	0
0.56633	0
0.57000	-0
0.57367	-0
0.57733	-1
0.58100	-1
0.58467	-1
0.58833	-1
0.59200	-1
0.59567	-0
0.59933	-1
0.60300	-1
0.60667	-1
0.61033	-1
0.61400	-1
0.61767	-0
0.62133	-0
0.62500	-0
0.62867	-0
0.63233	-0
0.63600	-0
0.63967	-1
0.64333	-1
0.64700	-1
0.65067	-1
0.65433	-1
0.65800	-1
0.66167	-1
0.66533	-1
0.66900	-1
0.67267	-0
0.67633	-0
0.68000	-0
0.68367	-0
0.68733	-0
0.69100	-0
0.69467	-0
0.69833	-0
0.70200	-1
0.70567	-1
0.70933	-1
0.71300	-1
0.71667	-1
0.72033	-2
0.72400	-2
0.72767	-2
0.73133	-2
0.73500	-2
0.73867	-2
0.74233	-2
0.74600	-2
0.74967	-2
0.75333	-2
0.75700	-2
0.76067	-2
0.76433	-3
0.76800	-3
0.77167	-2
0.77533	-2
0.77900	-2
0.78267	-2
0.78633	-2
0.79000	-3
0.79367	-3
0.79733	-2
0.80100	-2
0.80467	-2
0.80833	-2
0.81200	-2
0.81567	-2
0.81933	-1
0.82300	-1
0.82667	-2
0.83033	-2
0.83400	-2
0.83767	-2
0.84133	-2
0.84500	-2
0.84867	-3
0.85233	-3
0.85600	-3
0.85967	-3
0.86333	-2
0.86700	-2
0.87067	-2
0.87433	-2
0.87800	-1
0.88167	-1
0.88533	-1
0.88900	-1
0.89267	-2
0.89633	-2
0.90000	-2
0.90367	-2
0.90733	-2
0.91100	-3
0.91467	-3
0.91833	-3
0.92200	-3
0.92567	-3
0.92933	-3
0.93300	-3
0.93667	-3
0.94033	-3
0.94400	-3
0.94767	-3
0.95133	-3
0.95500	-3
0.95867	-2
0.96233	-2
0.96600	-2
0.96967	-2
0.97333	-2
0.97700	-2
0.98067	-2
0.98433	-2
0.98800	-2
0.99167	-2
0.99533	-2
0.99900	-3
1.00267	-3
1.00633	-3
1.01000	-2
1.01367	-2
1.01733	-3
1.02100	-3
1.02467	-3
1.02833	-3
1.03200	-3
1.03567	-3
1.03933	-2
1.04300	-2
1.04667	-2
1.05033	-2
1.05400	-2
1.05767	-2
1.06133	-2
1.06500	-2
1.06867	-2
1.07233	-3
1.07600	-3
1.07967	-3
1.08333	-3
1.08700	-3
1.09067	-3
1.09433	-3
1.09800	-3
1.10167	-3
1.10533	-3
1.10900	-3
1.11267	-3
1.11633	-3
1.12000	-3
1.12367	-3
1.12733	-3
1.13100	-3
1.13467	-3
1.13833	-3
1.14200	-2
1.14567	-2
1.14933	-2
1.15300	-2
1.15667	-2
1.16033	-2
1.16400	-1
1.16767	-1
1.17133	-1
1.17500	-2
1.17867	-2
1.18233	-2
1.18600	-2
1.18967	-2
1.19333	-2
1.19700	-2
1.20067	-2
1.20433	-2
1.20800	-2
1.21167	-2
1.21533	-2
1.21900	-2
1.22267	-2
1.22633	-2
1.23000	-2
1.23367	-1
1.23733	-1
1.24100	-2
1.24467	-2
1.24833	-2
1.25200	-3
1.25567	-3
1.25933	-3
1.26300	-3
1.26667	-3
1.27033	-2
1.27400	-2
1.27767	-2
1.28133	-2
1.28500	-2
1.28867	-2
1.29233	-2
1.29600	-2
1.29967	-2
1.30333	-2
1.30700	-2
1.31067	-2
1.31433	-2
1.31800	-2
1.32167	-2
1.32533	-2
1.32900	-2
1.33267	-1
1.33633	-1
1.34000	-1
1.34367	-1
1.34733	-1
1.35100	-1
1.35467	-1
1.35833	-1
1.36200	-1
1.36567	-2
1.36933	-2
1.37300	-2
1.37667	-2
1.38033	-2
1.38400	-2
1.38767	-2
1.39133	-2
1.39500	-2
1.39867	-2
1.40233	-2
1.40600	-2
1.40967	-2
1.41333	-2
1.41700	-3
1.42067	-3
1.42433	-3
1.42800	-3
1.43167	-3
1.43533	-3
1.43900	-3
1.44267	-2
1.44633	-2
1.45000	-2
1.45367	-2
1.45733	-2
1.46100	-2
1.46467	-2
1.46833	-2
1.47200	-2
1.47567	-2
1.47933	-2
1.48300	-2
1.48667	-2
1.49033	-2
1.49400	-2
1.49767	-2
1.50133	-2
1.50500	-2
1.50867	-2
1.51233	-2
1.51600	-2
1.51967	-2
1.52333	-2
1.52700	-2
1.53067	-2
1.53433	-2
1.53800	-2
1.54167	-3
1.54533	-3
1.54900	-3
1.55267	-3
1.55633	-2
1.56000	-2
1.56367	-2
1.56733	-2
1.57100	-2
1.57467	-3
1.57833	-3
1.58200	-3
1.58567	-3
1.58933	-4
1.59300	-4
1.59667	-5
1.60033	-5
1.60400	-6
1.60767	-7
1.61133	-9
1.61500	-11
1.61867	-13
1.62233	-15
1.62600	-18
1.62967	-20
1.63333	-23
1.63700	-26
1.64067	-30
1.64433	-33
1.64800	-37
1.65167	-40
1.65533	-44
1.65900	-47
1.66267	-51
1.66633	-54
1.67000	-58
1.67367	-62
1.67733	-67
1.68100	-71
1.68467	-76
1.68833	-80
1.69200	-83
1.69567	-86
1.69933	-88
1.70300	-90
1.70667	-91
1.71033	-92
1.71400	-93
1.71767	-93
1.72133	-93
1.72500	-93
1.72867	-93
1.73233	-93
1.73600	-93
1.73967	-93
1.74333	-93
1.74700	-93
1.75067	-94
1.75433	-95
1.75800	-96
1.76167	-97
1.76533	-98
1.76900	-98
1.77267	-99
1.77633	-100
1.78000	-100
1.78367	-100
1.78733	-100
1.79100	-99
1.79467	-99
1.79833	-99
1.80200	-100
1.80567	-100
1.80933	-100
1.81300	-100
1.81667	-100
1.82033	-100
1.82400	-100
1.82767	-100
1.83133	-100
1.83500	-99
1.83867	-99
1.84233	-99
1.84600	-99
1.84967	-99
1.85333	-98
1.85700	-98
1.86067	-98
1.86433	-98
1.86800	-98
1.87167	-98
1.87533	-98
1.87900	-98
1.88267	-98
1.88633	-98
1.89000	-98
1.89367	-97
1.89733	-97
1.90100	-96
1.90467	-96
1.90833	-96
1.91200	-96
1.91567	-96
1.91933	-96
1.92300	-96
1.92667	-96
1.93033	-96
1.93400	-96
1.93767	-96
1.94133	-97
1.94500	-97
1.94867	-97
1.95233	-97
1.95600	-96
1.95967	-96
1.96333	-96
1.96700	-96
1.97067	-95
1.97433	-95
1.97800	-95
1.98167	-95
1.98533	-95
1.98900	-95
1.99267	-94
1.99633	-93
2.00000	-93
2.00367	-92
2.00733	-91
2.01100	-91
2.01467	-91
2.01833	-90
2.02200	-90
2.02567	-90
2.02933	-90
2.03300	-89
2.03667	-89
2.04033	-89
2.04400	-89
2.04767	-88
2.05133	-88
2.05500	-88
2.05867	-88
2.06233	-87
2.06600	-87
2.06967	-87
2.07333	-87
2.07700	-86
2.08067	-86
2.08433	-86
2.08800	-86
2.09167	-86
2.09533	-86
2.09900	-86
2.10267	-85
2.10633	-85
2.11000	-85
2.11367	-84
2.11733	-83
2.12100	-83
2.12467	-82
2.12833	-82
2.13200	-82
2.13567	-82
2.13933	-81
2.14300	-81
2.14667	-80
2.15033	-80
2.15400	-79
2.15767	-79
2.16133	-78
2.16500	-78
2.16867	-78
2.17233	-78
2.17600	-78
2.17967	-78
2.18333	-78
2.18700	-78
2.19067	-78
2.19433	-78
2.19800	-78
2.20167	-78
2.20533	-78
2.20900	-77
2.21267	-76
2.21633	-75
2.22000	-74
2.22367	-74
2.22733	-74
2.23100	-75
2.23467	-75
2.23833	-76
2.24200	-76
2.24567	-76
2.24933	-75
2.25300	-75
2.25667	-75
2.26033	-75
2.26400	-75
2.26767	-74
2.27133	-72
2.27500	-71
2.27867	-70
2.28233	-70
2.28600	-69
2.28967	-68
2.29333	-68
2.29700	-68
2.30067	-68
2.30433	-68
2.30800	-68
2.31167	-68
2.31533	-68
2.31900	-67
2.32267	-66
2.32633	-65
2.33000	-65
2.33367	-65
2.33733	-65
2.34100	-64
2.34467	-64
2.34833	-63
2.35200	-62
2.35567	-61
2.35933	-60
2.36300	-59
2.36667	-58
2.37033	-56
2.37400	-53
2.37767	-50
2.38133	-47
2.38500	-44
2.38867	-40
2.39233	-36
2.39600	-32
2.39967	-28
2.40333	-24
2.40700	-21
2.41067	-17
2.41433	-13
2.41800	-10
2.42167	-7
2.42533	-5
2.42900	-3
2.43267	-1
2.43633	1
2.44000	2
2.44367	3
2.44733	4
2.45100	6
2.45467	7
2.45833	8
2.46200	9
2.46567	10
2.46933	11
2.47300	12
2.47667	12
2.48033	13
2.48400	14
2.48767	15
2.49133	16
2.49500	17
2.49867	17
2.50233	18
2.50600	18
2.50967	18
2.51333	18
2.51700	18
2.52067	18
2.52433	18
2.52800	18
2.53167	18
2.53533	18
2.53900	18
2.54267	18
2.54633	18
2.55000	18
2.55367	17
2.55733	16
2.56100	15
2.56467	14
2.56833	13
2.57200	12
2.57567	12
2.57933	12
2.58300	13
2.58667	14
2.59033	15
2.59400	15
2.59767	16
2.60133	16
2.60500	16
2.60867	16
2.61233	17
2.61600	17
2.61967	17
2.62333	17
2.62700	18
2.63067	18
2.63433	19
2.63800	19
2.64167	20
2.64533	20
2.64900	21
2.65267	21
2.65633	22
2.66000	22
2.66367	22
2.66733	23
2.67100	23
2.67467	23
2.67833	23
2.68200	23
2.68567	23
2.68933	23
2.69300	23
2.69667	24
2.70033	24
2.70400	24
2.70767	24
2.71133	24
2.71500	24
2.71867	24
2.72233	25
2.72600	25
2.72967	26
2.73333	26
2.73700	27
2.74067	27
2.74433	28
2.74800	29
2.75167	29
2.75533	30
2.75900	30
2.76267	30
2.76633	30
2.77000	30
2.77367	30
2.77733	30
2.78100	30
2.78467	30
2.78833	29
2.79200	29
2.79567	28
2.79933	27
2.80300	27
2.80667	26
2.81033	26
2.81400	26
2.81767	26
2.82133	27
2.82500	27
2.82867	27
2.83233	27
2.83600	26
2.83967	27
2.84333	27
2.84700	27
2.85067	27
2.85433	27
2.85800	26
2.86167	24
2.86533	19
2.86900	12
2.87267	2
2.87633	-13
2.88000	-33
2.88367	-58
2.88733	-88
2.89100	-124
2.89467	-165
2.89833	-211
2.90200	-261
2.90567	-316
2.90933	-375
2.91300	-436
2.91667	-500
2.92033	-565
2.92400	-630
2.92767	-695
2.93133	-759
2.93500	-821
2.93867	-880
2.94233	-936
2.94600	-993
2.94967	-1050
2.95333	-1098
2.95700	-1128
2.96067	-1135
2.96433	-1115
2.96800	-1073
2.97167	-1012
2.97533	-939
2.97900	-859
2.98267	-776
2.98633	-694
2.99000	-615
2.99367	-541
2.99733	-472
3.00100	-410
3.00467	-355
3.00833	-305
3.01200	-261
3.01567	-223
3.01933	-190
3.02300	-160
3.02667	-135
3.03033	-113
3.03400	-94
3.03767	-78
3.04133	-64
3.04500	-52
3.04867	-42
3.05233	-33
3.05600	-26
3.05967	-20
3.06333	-15
3.06700	-10
3.07067	-6
3.07433	-3
3.07800	0
3.08167	3
3.08533	5
3.08900	7
3.09267	9
3.09633	10
3.10000	11
3.10367	12
3.10733	13
3.11100	14
3.11467	15
3.11833	16
3.12200	16
3.12567	17
3.12933	17
3.13300	18
3.13667	18
3.14033	18
3.14400	19
3.14767	19
3.15133	20
3.15500	21
3.15867	21
3.16233	21
3.16600	22
3.16967	22
3.17333	22
3.17700	22
3.18067	22
3.18433	22
3.18800	22
3.19167	22
3.19533	23
3.19900	23
3.20267	23
3.20633	23
3.21000	23
3.21367	24
3.21733	24
3.22100	24
3.22467	24
3.22833	24
3.23200	24
3.23567	24
3.23933	25
3.24300	25
3.24667	25
3.25033	25
3.25400	25
3.25767	25
3.26133	25
3.26500	26
3.26867	26
3.27233	26
3.27600	26
3.27967	27
3.28333	27
3.28700	27
3.29067	27
3.29433	28
3.29800	28
3.30167	28
3.30533	28
3.30900	28
3.31267	28
3.31633	28
3.32000	29
3.32367	29
3.32733	29
3.33100	29
3.33467	30
3.33833	30
3.34200	30
3.34567	30
3.34933	30
3.35300	30
3.35667	30
3.36033	30
3.36400	30
3.36767	30
3.37133	30
3.37500	30
3.37867	30
3.38233	30
3.38600	30
3.38967	31
3.39333	31
3.39700	31
3.40067	31
3.40433	31
3.40800	31
3.41167	31
3.41533	31
3.41900	31
3.42267	31
3.42633	31
3.43000	31
3.43367	31
3.43733	31
3.44100	31
3.44467	31
3.44833	31
3.45200	31
3.45567	30
3.45933	30
3.46300	30
3.46667	30
3.47033	30
3.47400	30
3.47767	30
3.48133	30
3.48500	30
3.48867	30
3.49233	30
3.49600	31
3.49967	31
3.50333	31
3.50700	31
3.51067	31
3.51433	31
3.51800	31
3.52167	30
3.52533	30
3.52900	30
3.53267	30
3.53633	30
3.54000	30
3.54367	30
3.54733	30
3.55100	30
3.55467	30
3.55833	30
3.56200	30
3.56567	30
3.56933	30
3.57300	30
3.57667	30
3.58033	30
3.58400	30
3.58767	30
3.59133	30
3.59500	30
3.59867	30
3.60233	30
3.60600	30
3.60967	30
3.61333	30
3.61700	30
3.62067	30
3.62433	30
3.62800	31
3.63167	31
3.63533	31
3.63900	31
3.64267	31
3.64633	31
3.65000	31
3.65367	31
3.65733	31
3.66100	31
3.66467	31
3.66833	30
3.67200	30
3.67567	30
3.67933	30
3.68300	30
3.68667	31
3.69033	31
3.69400	31
3.69767	31
3.70133	31
3.70500	31
3.70867	31
3.71233	31
3.71600	32
3.71967	32
3.72333	32
3.72700	32
3.73067	32
3.73433	31
3.73800	31
3.74167	31
3.74533	31
3.74900	31
3.75267	30
3.75633	30
3.76000	30
3.76367	30
3.76733	30
3.77100	30
3.77467	30
3.77833	30
3.78200	30
3.78567	30
3.78933	30
3.79300	30
3.79667	30
3.80033	30
3.80400	30
3.80767	30
3.81133	30
3.81500	30
3.81867	30
3.82233	30
3.82600	30
3.82967	30
3.83333	30
3.83700	31
3.84067	31
3.84433	31
3.84800	31
3.85167	31
3.85533	31
3.85900	31
3.86267	31
3.86633	31
3.87000	31
3.87367	31
3.87733	30
3.88100	30
3.88467	30
3.88833	30
3.89200	30
3.89567	30
3.89933	30
3.90300	31
3.90667	31
3.91033	31
3.91400	31
3.91767	31
3.92133	31
3.92500	31
3.92867	31
3.93233	30
3.93600	30
3.93967	30
3.94333	30
3.94700	30
3.95067	30
3.95433	30
3.95800	30
3.96167	30
3.96533	31
3.96900	31
3.97267	31
3.97633	31
3.98000	31
3.98367	31
3.98733	31
3.99100	31
3.99467	31
3.99833	31

[Chromatogram (Ch3)]
Interval(msec)	220
# of Points	1091
Start Time(min)	0.002
End Time(min)	3.998
R.Time (min)	Intensity
0.00167	1
0.00533	4
0.00900	4
0.01267	3
0.01633	1
0.02000	1
0.02367	3
0.02733	4
0.03100	3
0.03467	0
0.03833	2
0.04200	4
0.04567	5
0.04933	5
0.05300	6
0.05667	5
0.06033	4
0.06400	3
0.06767	1
0.07133	1
0.07500	1
0.07867	2
0.08233	3
0.08600	3
0.08967	5
0.09333	6
0.09700	6
0.10067	6
0.10433	6
0.10800	4
0.11167	3
0.11533	3
0.11900	2
0.12267	1
0.12633	0
0.13000	-1
0.13367	1
0.13733	3
0.14100	5
0.14467	8
0.14833	10
0.15200	10
0.15567	9
0.15933	6
0.16300	4
0.16667	1
0.17033	-3
0.17400	-3
0.17767	-2
0.18133	-3
0.18500	-4
0.18867	-3
0.19233	-0
0.19600	1
0.19967	4
0.20333	5
0.20700	4
0.21067	4
0.21433	4
0.21800	6
0.22167	7
0.22533	8
0.22900	9
0.23267	9
0.23633	10
0.24000	11
0.24367	14
0.24733	15
0.25100	14
0.25467	11
0.25833	9
0.26200	8
0.26567	7
0.26933	6
0.27300	5
0.27667	1
0.28033	-2
0.28400	-2
0.28767	-1
0.29133	2
0.29500	4
0.29867	4
0.30233	5
0.30600	4
0.30967	3
0.31333	3
0.31700	1
0.32067	-1
0.32433	-2
0.32800	-1
0.33167	-1
0.33533	0
0.33900	1
0.34267	2
0.34633	1
0.35000	1
0.35367	1
0.35733	-0
0.36100	-3
0.36467	-5
0.36833	-6
0.37200	-4
0.37567	-4
0.37933	-4
0.38300	-4
0.38667	-4
0.39033	-5
0.39400	-7
0.39767	-8
0.40133	-8
0.40500	-5
0.40867	-4
0.41233	-3
0.41600	-0
0.41967	2
0.42333	-1
0.42700	-4
0.43067	-6
0.43433	-6
0.43800	-6
0.44167	-4
0.44533	-1
0.44900	2
0.45267	2
0.45633	3
0.46000	4
0.46367	2
0.46733	1
0.47100	-1
0.47467	-2
0.47833	-3
0.48200	-2
0.48567	-1
0.48933	-2
0.49300	-3
0.49667	-1
0.50033	1
0.50400	1
0.50767	0
0.51133	-1
0.51500	-3
0.51867	-2
0.52233	-1
0.52600	0
0.52967	2
0.53333	2
0.53700	1
0.54067	-1
0.54433	-1
0.54800	1
0.55167	3
0.55533	3
0.55900	2
0.56267	3
0.56633	5
0.57000	6
0.57367	5
0.57733	5
0.58100	3
0.58467	3
0.58833	2
0.59200	-1
0.59567	-1
0.59933	0
0.60300	2
0.60667	2
0.61033	2
0.61400	5
0.61767	5
0.62133	5
0.62500	6
0.62867	5
0.63233	5
0.63600	4
0.63967	4
0.64333	3
0.64700	3
0.65067	3
0.65433	4
0.65800	5
0.66167	6
0.66533	7
0.66900	9
0.67267	9
0.67633	8
0.68000	6
0.68367	5
0.68733	6
0.69100	4
0.69467	2
0.69833	-0
0.70200	-0
0.70567	2
0.70933	3
0.71300	4
0.71667	6
0.72033	8
0.72400	8
0.72767	7
0.73133	4
0.73500	3
0.73867	3
0.74233	4
0.74600	5
0.74967	5
0.75333	6
0.75700	8
0.76067	9
0.76433	9
0.76800	8
0.77167	5
0.77533	5
0.77900	6
0.78267	7
0.78633	7
0.79000	8
0.79367	6
0.79733	4
0.80100	4
0.80467	2
0.80833	1
0.81200	3
0.81567	6
0.81933	8
0.82300	10
0.82667	10
0.83033	9
0.83400	5
0.83767	1
0.84133	1
0.84500	2
0.84867	2
0.85233	1
0.85600	1
0.85967	1
0.86333	-0
0.86700	1
0.87067	3
0.87433	3
0.87800	2
0.88167	4
0.88533	4
0.88900	3
0.89267	3
0.89633	3
0.90000	5
0.90367	7
0.90733	9
0.91100	8
0.91467	7
0.91833	6
0.92200	7
0.92567	6
0.92933	5
0.93300	7
0.93667	7
0.94033	7
0.94400	5
0.94767	3
0.95133	4
0.95500	4
0.95867	4
0.96233	3
0.96600	5
0.96967	4
0.97333	3
0.97700	5
0.98067	7
0.98433	9
0.98800	10
0.99167	11
0.99533	11
0.99900	11
1.00267	11
1.00633	10
1.01000	10
1.01367	10
1.01733	9
1.02100	8
1.02467	8
1.02833	9
1.03200	7
1.03567	4
1.03933	4
1.04300	4
1.04667	3
1.05033	5
1.05400	8
1.05767	10
1.06133	11
1.06500	10
1.06867	10
1.07233	8
1.07600	9
1.07967	10
1.08333	11
1.08700	12
1.09067	10
1.09433	5
1.09800	3
1.10167	3
1.10533	4
1.10900	7
1.11267	10
1.11633	13
1.12000	15
1.12367	13
1.12733	12
1.13100	10
1.13467	11
1.13833	13
1.14200	13
1.14567	14
1.14933	14
1.15300	14
1.15667	12
1.16033	11
1.16400	10
1.16767	10
1.17133	11
1.17500	11
1.17867	10
1.18233	10
1.18600	9
1.18967	9
1.19333	7
1.19700	4
1.20067	3
1.20433	4
1.20800	5
1.21167	6
1.21533	6
1.21900	8
1.22267	11
1.22633	11
1.23000	11
1.23367	9
1.23733	6
1.24100	6
1.24467	5
1.24833	3
1.25200	4
1.25567	4
1.25933	4
1.26300	6
1.26667	8
1.27033	8
1.27400	9
1.27767	11
1.28133	12
1.28500	12
1.28867	11
1.29233	12
1.29600	11
1.29967	10
1.30333	9
1.30700	10
1.31067	11
1.31433	9
1.31800	6
1.32167	8
1.32533	10
1.32900	10
1.33267	11
1.33633	11
1.34000	9
1.34367	11
1.34733	11
1.35100	10
1.35467	8
1.35833	9
1.36200	11
1.36567	12
1.36933	15
1.37300	17
1.37667	18
1.38033	19
1.38400	18
1.38767	16
1.39133	15
1.39500	14
1.39867	12
1.40233	11
1.40600	10
1.40967	10
1.41333	7
1.41700	7
1.42067	7
1.42433	7
1.42800	7
1.43167	9
1.43533	10
1.43900	9
1.44267	9
1.44633	8
1.45000	8
1.45367	11
1.45733	13
1.46100	14
1.46467	15
1.46833	15
1.47200	16
1.47567	16
1.47933	15
1.48300	15
1.48667	18
1.49033	17
1.49400	15
1.49767	13
1.50133	12
1.50500	10
1.50867	11
1.51233	12
1.51600	14
1.51967	13
1.52333	12
1.52700	12
1.53067	14
1.53433	16
1.53800	16
1.54167	16
1.54533	15
1.54900	14
1.55267	13
1.55633	13
1.56000	13
1.56367	11
1.56733	10
1.57100	9
1.57467	9
1.57833	10
1.58200	11
1.58567	11
1.58933	11
1.59300	13
1.59667	16
1.60033	16
1.60400	15
1.60767	14
1.61133	11
1.61500	9
1.61867	10
1.62233	13
1.62600	14
1.62967	14
1.63333	16
1.63700	16
1.64067	15
1.64433	14
1.64800	15
1.65167	17
1.65533	18
1.65900	18
1.66267	18
1.66633	21
1.67000	20
1.67367	21
1.67733	22
1.68100	22
1.68467	22
1.68833	20
1.69200	18
1.69567	19
1.69933	18
1.70300	17
1.70667	15
1.71033	15
1.71400	18
1.71767	22
1.72133	24
1.72500	23
1.72867	21
1.73233	20
1.73600	20
1.73967	19
1.74333	22
1.74700	22
1.75067	18
1.75433	17
1.75800	19
1.76167	21
1.76533	22
1.76900	20
1.77267	18
1.77633	15
1.78000	12
1.78367	11
1.78733	12
1.79100	14
1.79467	15
1.79833	19
1.80200	22
1.80567	26
1.80933	26
1.81300	26
1.81667	24
1.82033	23
1.82400	22
1.82767	20
1.83133	19
1.83500	19
1.83867	20
1.84233	23
1.84600	26
1.84967	28
1.85333	29
1.85700	31
1.86067	30
1.86433	28
1.86800	27
1.87167	28
1.87533	30
1.87900	30
1.88267	32
1.88633	34
1.89000	34
1.89367	33
1.89733	33
1.90100	32
1.90467	31
1.90833	30
1.91200	30
1.91567	33
1.91933	34
1.92300	36
1.92667	37
1.93033	38
1.93400	38
1.93767	40
1.94133	43
1.94500	43
1.94867	42
1.95233	44
1.95600	44
1.95967	43
1.96333	42
1.96700	41
1.97067	40
1.97433	40
1.97800	39
1.98167	40
1.98533	40
1.98900	41
1.99267	44
1.99633	46
2.00000	48
2.00367	48
2.00733	48
2.01100	48
2.01467	48
2.01833	49
2.02200	50
2.02567	53
2.02933	54
2.03300	54
2.03667	55
2.04033	57
2.04400	57
2.04767	57
2.05133	57
2.05500	58
2.05867	58
2.06233	57
2.06600	59
2.06967	63
2.07333	63
2.07700	64
2.08067	65
2.08433	65
2.08800	65
2.09167	66
2.09533	68
2.09900	70
2.10267	71
2.10633	70
2.11000	66
2.11367	65
2.11733	67
2.12100	68
2.12467	70
2.12833	73
2.13200	76
2.13567	78
2.13933	78
2.14300	78
2.14667	78
2.15033	77
2.15400	75
2.15767	76
2.16133	78
2.16500	81
2.16867	84
2.17233	87
2.17600	88
2.17967	87
2.18333	84
2.18700	84
2.19067	87
2.19433	89
2.19800	89
2.20167	87
2.20533	85
2.20900	85
2.21267	87
2.21633	88
2.22000	86
2.22367	86
2.22733	87
2.23100	89
2.23467	93
2.23833	95
2.24200	96
2.24567	96
2.24933	95
2.25300	94
2.25667	95
2.26033	96
2.26400	98
2.26767	100
2.27133	101
2.27500	104
2.27867	106
2.28233	106
2.28600	103
2.28967	99
2.29333	98
2.29700	99
2.30067	100
2.30433	102
2.30800	106
2.31167	109
2.31533	111
2.31900	110
2.32267	108
2.32633	108
2.33000	108
2.33367	107
2.33733	105
2.34100	105
2.34467	105
2.34833	105
2.35200	106
2.35567	109
2.35933	111
2.36300	113
2.36667	114
2.37033	114
2.37400	111
2.37767	109
2.38133	105
2.38500	103
2.38867	97
2.39233	96
2.39600	101
2.39967	107
2.40333	113
2.40700	119
2.41067	125
2.41433	130
2.41800	133
2.42167	137
2.42533	139
2.42900	136
2.43267	133
2.43633	130
2.44000	133
2.44367	178
2.44733	260
2.45100	334
2.45467	386
2.45833	407
2.46200	401
2.46567	380
2.46933	357
2.47300	341
2.47667	328
2.48033	313
2.48400	293
2.48767	270
2.49133	247
2.49500	226
2.49867	210
2.50233	203
2.50600	201
2.50967	201
2.51333	202
2.51700	204
2.52067	206
2.52433	210
2.52800	210
2.53167	203
2.53533	194
2.53900	182
2.54267	170
2.54633	159
2.55000	149
2.55367	141
2.55733	137
2.56100	135
2.56467	133
2.56833	131
2.57200	129
2.57567	130
2.57933	130
2.58300	131
2.58667	133
2.59033	137
2.59400	143
2.59767	150
2.60133	153
2.60500	160
2.60867	169
2.61233	176
2.61600	181
2.61967	184
2.62333	185
2.62700	185
2.63067	183
2.63433	178
2.63800	170
2.64167	161
2.64533	151
2.64900	142
2.65267	133
2.65633	126
2.66000	118
2.66367	110
2.66733	104
2.67100	96
2.67467	89
2.67833	87
2.68200	85
2.68567	83
2.68933	81
2.69300	80
2.69667	81
2.70033	81
2.70400	83
2.70767	86
2.71133	86
2.71500	84
2.71867	81
2.72233	80
2.72600	80
2.72967	81
2.73333	80
2.73700	81
2.74067	80
2.74433	81
2.74800	83
2.75167	85
2.75533	86
2.75900	89
2.76267	92
2.76633	94
2.77000	96
2.77367	98
2.77733	101
2.78100	102
2.78467	106
2.78833	112
2.79200	114
2.79567	116
2.79933	117
2.80300	118
2.80667	122
2.81033	126
2.81400	131
2.81767	135
2.82133	138
2.82500	142
2.82867	146
2.83233	150
2.83600	159
2.83967	181
2.84333	225
2.84700	312
2.85067	460
2.85433	692
2.85800	1019
2.86167	1442
2.86533	1944
2.86900	2489
2.87267	3039
2.87633	3547
2.88000	3973
2.88367	4284
2.88733	4461
2.89100	4505
2.89467	4428
2.89833	4253
2.90200	4005
2.90567	3710
2.90933	3393
2.91300	3072
2.91667	2757
2.92033	2456
2.92400	2177
2.92767	1912
2.93133	1651
2.93500	1425
2.93867	1260
2.94233	1152
2.94600	1091
2.94967	1062
2.95333	1052
2.95700	1056
2.96067	1068
2.96433	1084
2.96800	1100
2.97167	1115
2.97533	1126
2.97900	1136
2.98267	1143
2.98633	1146
2.99000	1147
2.99367	1143
2.99733	1137
3.00100	1131
3.00467	1124
3.00833	1116
3.01200	1109
3.01567	1102
3.01933	1094
3.02300	1086
3.02667	1079
3.03033	1070
3.03400	1061
3.03767	1050
3.04133	1039
3.04500	1031
3.04867	1026
3.05233	1020
3.05600	1010
3.05967	1002
3.06333	997
3.06700	991
3.07067	986
3.07433	979
3.07800	973
3.08167	967
3.08533	962
3.08900	955
3.09267	951
3.09633	946
3.10000	942
3.10367	940
3.10733	938
3.11100	937
3.11467	933
3.11833	931
3.12200	928
3.12567	925
3.12933	923
3.13300	921
3.13667	919
3.14033	917
3.14400	914
3.14767	910
3.15133	907
3.15500	907
3.15867	905
3.16233	904
3.16600	903
3.16967	899
3.17333	895
3.17700	891
3.18067	889
3.18433	887
3.18800	885
3.19167	883
3.19533	881
3.19900	878
3.20267	872
3.20633	868
3.21000	867
3.21367	867
3.21733	867
3.22100	866
3.22467	862
3.22833	855
3.23200	851
3.23567	847
3.23933	844
3.24300	840
3.24667	839
3.25033	836
3.25400	830
3.25767	826
3.26133	823
3.26500	823
3.26867	823
3.27233	822
3.27600	822
3.27967	821
3.28333	819
3.28700	817
3.29067	813
3.29433	810
3.29800	808
3.30167	808
3.30533	807
3.30900	805
3.31267	805
3.31633	806
3.32000	809
3.32367	812
3.32733	818
3.33100	826
3.33467	829
3.33833	832
3.34200	838
3.34567	845
3.34933	848
3.35300	852
3.35667	858
3.36033	864
3.36400	869
3.36767	875
3.37133	881
3.37500	889
3.37867	897
3.38233	903
3.38600	910
3.38967	918
3.39333	925
3.39700	928
3.40067	930
3.40433	932
3.40800	932
3.41167	934
3.41533	937
3.41900	937
3.42267	936
3.42633	932
3.43000	926
3.43367	922
3.43733	918
3.44100	911
3.44467	903
3.44833	894
3.45200	888
3.45567	882
3.45933	873
3.46300	865
3.46667	856
3.47033	847
3.47400	836
3.47767	825
3.48133	814
3.48500	804
3.48867	797
3.49233	789
3.49600	782
3.49967	772
3.50333	765
3.50700	760
3.51067	753
3.51433	748
3.51800	745
3.52167	740
3.52533	735
3.52900	732
3.53267	726
3.53633	721
3.54000	716
3.54367	713
3.54733	711
3.55100	706
3.55467	702
3.55833	700
3.56200	698
3.56567	695
3.56933	692
3.57300	689
3.57667	686
3.58033	682
3.58400	679
3.58767	677
3.59133	675
3.59500	671
3.59867	668
3.60233	667
3.60600	666
3.60967	663
3.61333	659
3.61700	655
3.62067	650
3.62433	649
3.62800	650
3.63167	649
3.63533	647
3.63900	648
3.64267	647
3.64633	643
3.65000	640
3.65367	637
3.65733	633
3.66100	632
3.66467	630
3.66833	628
3.67200	626
3.67567	623
3.67933	622
3.68300	621
3.68667	620
3.69033	618
3.69400	619
3.69767	620
3.70133	620
3.70500	618
3.70867	616
3.71233	615
3.71600	614
3.71967	611
3.72333	610
3.72700	609
3.73067	607
3.73433	605
3.73800	605
3.74167	605
3.74533	604
3.74900	603
3.75267	601
3.75633	600
3.76000	596
3.76367	593
3.76733	593
3.77100	596
3.77467	596
3.77833	594
3.78200	594
3.78567	593
3.78933	591
3.79300	590
3.79667	587
3.80033	583
3.80400	582
3.80767	579
3.81133	576
3.81500	575
3.81867	577
3.82233	576
3.82600	573
3.82967	569
3.83333	568
3.83700	567
3.84067	564
3.84433	563
3.84800	561
3.85167	558
3.85533	558
3.85900	558
3.86267	555
3.86633	556
3.87000	559
3.87367	558
3.87733	559
3.88100	559
3.88467	561
3.88833	562
3.89200	561
3.89567	559
3.89933	556
3.90300	553
3.90667	552
3.91033	551
3.91400	552
3.91767	554
3.92133	551
3.92500	549
3.92867	548
3.93233	549
3.93600	546
3.93967	543
3.94333	544
3.94700	543
3.95067	545
3.95433	544
3.95800	541
3.96167	540
3.96533	537
3.96900	536
3.97267	537
3.97633	537
3.98000	533
3.98367	532
3.98733	530
3.99100	525
3.99467	522
3.99833	517

[Status Trace (Column Oven Temperature)]
Interval(msec)	1000
# of Points	240
Start Time(min)	0.007
End Time(min)	3.990
Intensity Units	
Intensity Multiplier	1
R.Time (min)	Intensity
0.00700	35.03
0.02367	35.03
0.04033	35.04
0.05700	35.04
0.07367	35.04
0.09033	35.04
0.10700	35.03
0.12367	35.03
0.14033	35.03
0.15700	35.03
0.17367	35.03
0.19033	35.03
0.20700	35.02
0.22367	35.03
0.24033	35.02
0.25700	35.02
0.27367	35.02
0.29033	35.02
0.30700	35.02
0.32367	35.02
0.34033	35.02
0.35700	35.01
0.37367	35.00
0.39033	35.00
0.40700	35.01
0.42367	35.01
0.44033	35.01
0.45700	35.01
0.47367	35.01
0.49033	35.01
0.50700	35.00
0.52367	35.00
0.54033	35.00
0.55700	35.01
0.57367	35.00
0.59033	34.99
0.60700	35.00
0.62367	35.01
0.64033	35.00
0.65700	35.00
0.67367	35.00
0.69033	34.99
0.70700	35.00
0.72367	35.00
0.74033	35.00
0.75700	35.00
0.77367	35.00
0.79033	35.00
0.80700	35.00
0.82367	35.01
0.84033	35.00
0.85700	34.99
0.87367	34.99
0.89033	34.98
0.90700	34.99
0.92367	35.00
0.94033	34.99
0.95700	34.99
0.97367	34.98
0.99033	34.99
1.00700	34.98
1.02367	34.99
1.04033	34.99
1.05700	34.99
1.07367	34.99
1.09033	35.00
1.10700	35.00
1.12367	35.00
1.14033	35.00
1.15700	35.00
1.17367	35.00
1.19033	35.00
1.20700	34.99
1.22367	34.99
1.24033	34.99
1.25700	34.99
1.27367	34.99
1.29033	35.00
1.30700	34.99
1.32367	35.00
1.34033	35.00
1.35700	35.00
1.37367	35.00
1.39033	35.00
1.40700	35.00
1.42367	35.00
1.44033	34.99
1.45700	35.00
1.47367	34.99
1.49033	34.99
1.50700	34.99
1.52367	34.99
1.54033	34.99
1.55700	34.99
1.57367	34.98
1.59033	35.00
1.60700	35.07
1.62367	35.19
1.64033	35.38
1.65700	35.62
1.67367	35.95
1.69033	36.34
1.70700	36.69
1.72367	37.00
1.74033	37.32
1.75700	37.66
1.77367	38.00
1.79033	38.32
1.80700	38.67
1.82367	39.00
1.84033	39.33
1.85700	39.65
1.87367	40.00
1.89033	40.32
1.90700	40.65
1.92367	40.97
1.94033	41.32
1.95700	41.63
1.97367	41.97
1.99033	42.30
2.00700	42.62
2.02367	42.95
2.04033	43.29
2.05700	43.60
2.07367	43.93
2.09033	44.27
2.10700	44.58
2.12367	44.92
2.14033	45.25
2.15700	45.57
2.17367	45.89
2.19033	46.24
2.20700	46.56
2.22367	46.87
2.24033	47.20
2.25700	47.55
2.27367	47.86
2.29033	48.18
2.30700	48.52
2.32367	48.83
2.34033	49.15
2.35700	49.43
2.37367	49.61
2.39033	49.69
2.40700	49.67
2.42367	49.69
2.44033	49.70
2.45700	49.70
2.47367	49.71
2.49033	49.72
2.50700	49.72
2.52367	49.74
2.54033	49.74
2.55700	49.77
2.57367	49.78
2.59033	49.79
2.60700	49.80
2.62367	49.81
2.64033	49.81
2.65700	49.82
2.67367	49.83
2.69033	49.84
2.70700	49.87
2.72367	49.88
2.74033	49.87
2.75700	49.85
2.77367	49.85
2.79033	49.87
2.80700	49.90
2.82367	49.91
2.84033	49.92
2.85700	49.91
2.87367	49.92
2.89033	49.92
2.90700	49.92
2.92367	49.94
2.94033	49.95
2.95700	49.97
2.97367	49.98
2.99033	49.99
3.00700	50.01
3.02367	50.01
3.04033	50.01
3.05700	50.01
3.07367	50.02
3.09033	50.02
3.10700	50.03
3.12367	50.04
3.14033	50.05
3.15700	50.05
3.17367	50.06
3.19033	50.07
3.20700	50.08
3.22367	50.09
3.24033	50.10
3.25700	50.09
3.27367	50.10
3.29033	50.10
3.30700	50.10
3.32367	50.09
3.34033	50.08
3.35700	50.08
3.37367	50.08
3.39033	50.08
3.40700	50.08
3.42367	50.08
3.44033	50.08
3.45700	50.08
3.47367	50.07
3.49033	50.07
3.50700	50.07
3.52367	50.07
3.54033	50.07
3.55700	50.08
3.57367	50.08
3.59033	50.08
3.60700	50.08
3.62367	50.08
3.64033	50.07
3.65700	50.07
3.67367	50.07
3.69033	50.07
3.70700	50.07
3.72367	50.06
3.74033	50.06
3.75700	50.07
3.77367	50.07
3.79033	50.08
3.80700	50.07
3.82367	50.08
3.84033	50.08
3.85700	50.08
3.87367	50.07
3.89033	50.07
3.90700	50.07
3.92367	50.07
3.94033	50.08
3.95700	50.08
3.97367	50.08
3.99033	50.08

[Status Trace (Injection Unit Temperature)]
Interval(msec)	1000
# of Points	240
Start Time(min)	0.007
End Time(min)	3.990
Intensity Units	
Intensity Multiplier	1
R.Time (min)	Intensity
0.00700	99.97
0.02367	99.97
0.04033	99.97
0.05700	99.97
0.07367	99.97
0.09033	99.97
0.10700	99.98
0.12367	99.97
0.14033	99.98
0.15700	99.98
0.17367	99.98
0.19033	99.98
0.20700	99.98
0.22367	99.97
0.24033	99.98
0.25700	99.98
0.27367	99.98
0.29033	99.98
0.30700	99.98
0.32367	99.98
0.34033	99.98
0.35700	99.98
0.37367	99.98
0.39033	99.98
0.40700	99.98
0.42367	99.98
0.44033	99.98
0.45700	99.98
0.47367	99.98
0.49033	99.98
0.50700	99.98
0.52367	99.98
0.54033	99.98
0.55700	99.98
0.57367	99.98
0.59033	99.98
0.60700	99.98
0.62367	99.98
0.64033	99.98
0.65700	99.99
0.67367	99.98
0.69033	99.99
0.70700	99.98
0.72367	99.99
0.74033	99.99
0.75700	99.98
0.77367	99.98
0.79033	99.98
0.80700	99.98
0.82367	99.98
0.84033	99.98
0.85700	99.98
0.87367	99.98
0.89033	99.98
0.90700	99.98
0.92367	99.98
0.94033	99.98
0.95700	99.98
0.97367	99.98
0.99033	99.98
1.00700	99.98
1.02367	99.98
1.04033	99.98
1.05700	99.98
1.07367	99.98
1.09033	99.98
1.10700	99.98
1.12367	99.98
1.14033	99.98
1.15700	99.98
1.17367	99.98
1.19033	99.98
1.20700	99.98
1.22367	99.98
1.24033	99.98
1.25700	99.98
1.27367	99.98
1.29033	99.98
1.30700	99.98
1.32367	99.98
1.34033	99.98
1.35700	99.98
1.37367	99.98
1.39033	99.99
1.40700	99.98
1.42367	99.98
1.44033	99.98
1.45700	99.98
1.47367	99.98
1.49033	99.98
1.50700	99.98
1.52367	99.98
1.54033	99.99
1.55700	99.99
1.57367	99.99
1.59033	99.98
1.60700	99.98
1.62367	99.98
1.64033	99.98
1.65700	99.98
1.67367	99.99
1.69033	99.98
1.70700	99.98
1.72367	99.98
1.74033	99.98
1.75700	99.98
1.77367	99.98
1.79033	99.98
1.80700	99.98
1.82367	99.98
1.84033	99.98
1.85700	99.98
1.87367	99.98
1.89033	99.98
1.90700	99.98
1.92367	99.98
1.94033	99.97
1.95700	99.97
1.97367	99.97
1.99033	99.97
2.00700	99.97
2.02367	99.97
2.04033	99.97
2.05700	99.97
2.07367	99.97
2.09033	99.96
2.10700	99.96
2.12367	99.97
2.14033	99.96
2.15700	99.96
2.17367	99.96
2.19033	99.96
2.20700	99.96
2.22367	99.96
2.24033	99.96
2.25700	99.96
2.27367	99.96
2.29033	99.96
2.30700	99.96
2.32367	99.96
2.34033	99.96
2.35700	99.96
2.37367	99.96
2.39033	99.96
2.40700	99.96
2.42367	99.96
2.44033	99.96
2.45700	99.96
2.47367	99.97
2.49033	99.97
2.50700	99.97
2.52367	99.97
2.54033	99.97
2.55700	99.97
2.57367	99.97
2.59033	99.97
2.60700	99.97
2.62367	99.97
2.64033	99.98
2.65700	99.98
2.67367	99.98
2.69033	99.98
2.70700	99.98
2.72367	99.98
2.74033	99.98
2.75700	99.99
2.77367	99.99
2.79033	99.99
2.80700	99.99
2.82367	99.99
2.84033	99.99
2.85700	100.00
2.87367	100.00
2.89033	100.00
2.90700	100.00
2.92367	100.00
2.94033	100.00
2.95700	100.00
2.97367	100.00
2.99033	100.01
3.00700	100.01
3.02367	100.01
3.04033	100.01
3.05700	100.01
3.07367	100.01
3.09033	100.01
3.10700	100.01
3.12367	100.02
3.14033	100.02
3.15700	100.02
3.17367	100.02
3.19033	100.02
3.20700	100.02
3.22367	100.02
3.24033	100.02
3.25700	100.02
3.27367	100.03
3.29033	100.02
3.30700	100.02
3.32367	100.03
3.34033	100.03
3.35700	100.03
3.37367	100.03
3.39033	100.03
3.40700	100.03
3.42367	100.03
3.44033	100.03
3.45700	100.03
3.47367	100.03
3.49033	100.03
3.50700	100.03
3.52367	100.03
3.54033	100.03
3.55700	100.04
3.57367	100.04
3.59033	100.04
3.60700	100.03
3.62367	100.03
3.64033	100.04
3.65700	100.04
3.67367	100.04
3.69033	100.04
3.70700	100.04
3.72367	100.04
3.74033	100.04
3.75700	100.04
3.77367	100.04
3.79033	100.05
3.80700	100.04
3.82367	100.05
3.84033	100.05
3.85700	100.05
3.87367	100.05
3.89033	100.05
3.90700	100.05
3.92367	100.05
3.94033	100.05
3.95700	100.05
3.97367	100.05
3.99033	100.05

[Status Trace (Carrier Gas Pressure)]
Interval(msec)	1000
# of Points	240
Start Time(min)	0.007
End Time(min)	3.990
Intensity Units	
Intensity Multiplier	1
R.Time (min)	Intensity
0.00700	58.00
0.02367	55.56
0.04033	56.93
0.05700	59.13
0.07367	59.63
0.09033	58.12
0.10700	57.98
0.12367	58.01
0.14033	58.01
0.15700	58.01
0.17367	58.00
0.19033	58.00
0.20700	58.00
0.22367	58.00
0.24033	58.00
0.25700	58.00
0.27367	58.00
0.29033	58.00
0.30700	58.00
0.32367	58.00
0.34033	58.00
0.35700	58.00
0.37367	58.00
0.39033	58.00
0.40700	58.00
0.42367	58.00
0.44033	58.00
0.45700	58.00
0.47367	58.00
0.49033	58.00
0.50700	58.00
0.52367	58.00
0.54033	58.00
0.55700	58.00
0.57367	58.00
0.59033	58.00
0.60700	58.00
0.62367	58.00
0.64033	58.00
0.65700	58.00
0.67367	58.00
0.69033	58.00
0.70700	58.00
0.72367	58.00
0.74033	58.00
0.75700	58.00
0.77367	58.00
0.79033	58.00
0.80700	58.00
0.82367	58.00
0.84033	58.00
0.85700	58.00
0.87367	58.00
0.89033	58.00
0.90700	58.00
0.92367	58.00
0.94033	58.00
0.95700	58.00
0.97367	58.00
0.99033	58.00
1.00700	58.00
1.02367	58.00
1.04033	58.00
1.05700	58.00
1.07367	58.00
1.09033	58.00
1.10700	58.00
1.12367	58.00
1.14033	58.00
1.15700	58.00
1.17367	58.00
1.19033	58.00
1.20700	58.00
1.22367	58.00
1.24033	58.00
1.25700	58.00
1.27367	58.00
1.29033	58.00
1.30700	58.00
1.32367	58.00
1.34033	58.00
1.35700	58.00
1.37367	58.00
1.39033	58.00
1.40700	58.00
1.42367	58.00
1.44033	58.00
1.45700	58.00
1.47367	58.00
1.49033	58.00
1.50700	58.00
1.52367	58.00
1.54033	58.00
1.55700	58.00
1.57367	58.00
1.59033	58.00
1.60700	58.00
1.62367	58.00
1.64033	58.00
1.65700	58.00
1.67367	58.01
1.69033	58.01
1.70700	58.00
1.72367	58.00
1.74033	58.00
1.75700	58.00
1.77367	58.00
1.79033	58.00
1.80700	58.00
1.82367	58.00
1.84033	58.00
1.85700	58.00
1.87367	58.00
1.89033	58.00
1.90700	58.00
1.92367	58.00
1.94033	58.00
1.95700	58.00
1.97367	58.00
1.99033	58.00
2.00700	58.00
2.02367	58.00
2.04033	58.00
2.05700	58.00
2.07367	58.00
2.09033	58.00
2.10700	58.00
2.12367	58.00
2.14033	58.00
2.15700	58.00
2.17367	58.00
2.19033	58.00
2.20700	58.00
2.22367	58.00
2.24033	58.00
2.25700	58.00
2.27367	58.00
2.29033	58.00
2.30700	58.00
2.32367	58.00
2.34033	58.00
2.35700	58.00
2.37367	58.00
2.39033	57.99
2.40700	57.99
2.42367	58.00
2.44033	58.00
2.45700	58.00
2.47367	58.00
2.49033	58.00
2.50700	58.00
2.52367	57.99
2.54033	58.00
2.55700	58.00
2.57367	58.00
2.59033	58.00
2.60700	58.00
2.62367	58.00
2.64033	58.00
2.65700	58.00
2.67367	58.00
2.69033	58.00
2.70700	58.00
2.72367	58.00
2.74033	58.00
2.75700	58.00
2.77367	58.00
2.79033	58.00
2.80700	58.00
2.82367	58.00
2.84033	58.00
2.85700	58.00
2.87367	58.00
2.89033	58.00
2.90700	58.00
2.92367	58.00
2.94033	58.00
2.95700	58.00
2.97367	58.00
2.99033	58.00
3.00700	58.00
3.02367	58.00
3.04033	58.00
3.05700	58.00
3.07367	58.00
3.09033	58.00
3.10700	58.00
3.12367	58.00
3.14033	58.00
3.15700	58.00
3.17367	58.00
3.19033	58.00
3.20700	58.00
3.22367	58.00
3.24033	58.00
3.25700	58.00
3.27367	58.00
3.29033	58.00
3.30700	58.00
3.32367	58.00
3.34033	58.00
3.35700	58.00
3.37367	58.00
3.39033	58.00
3.40700	58.00
3.42367	58.00
3.44033	58.00
3.45700	58.00
3.47367	58.00
3.49033	58.00
3.50700	58.00
3.52367	58.00
3.54033	58.00
3.55700	58.00
3.57367	58.00
3.59033	58.00
3.60700	58.00
3.62367	58.00
3.64033	58.00
3.65700	58.00
3.67367	58.00
3.69033	58.00
3.70700	58.00
3.72367	58.00
3.74033	58.00
3.75700	58.00
3.77367	58.00
3.79033	58.00
3.80700	58.00
3.82367	58.00
3.84033	58.00
3.85700	58.00
3.87367	58.00
3.89033	58.00
3.90700	58.00
3.92367	58.00
3.94033	58.00
3.95700	58.00
3.97367	58.00
3.99033	58.00

[Status Trace (Carrier Gas Flow)]
Interval(msec)	1000
# of Points	240
Start Time(min)	0.007
End Time(min)	3.990
Intensity Units	
Intensity Multiplier	1
R.Time (min)	Intensity
0.00700	34.51
0.02367	34.54
0.04033	34.54
0.05700	34.55
0.07367	34.50
0.09033	34.51
0.10700	34.51
0.12367	34.52
0.14033	34.52
0.15700	34.51
0.17367	34.52
0.19033	34.52
0.20700	34.51
0.22367	34.52
0.24033	34.52
0.25700	34.51
0.27367	34.52
0.29033	34.52
0.30700	34.52
0.32367	34.52
0.34033	34.53
0.35700	34.52
0.37367	34.51
0.39033	34.52
0.40700	34.52
0.42367	34.51
0.44033	34.52
0.45700	34.52
0.47367	34.52
0.49033	34.52
0.50700	34.51
0.52367	34.52
0.54033	34.52
0.55700	34.52
0.57367	34.52
0.59033	34.52
0.60700	34.51
0.62367	34.52
0.64033	34.51
0.65700	34.52
0.67367	34.52
0.69033	34.52
0.70700	34.53
0.72367	34.52
0.74033	34.52
0.75700	34.52
0.77367	34.52
0.79033	34.52
0.80700	34.52
0.82367	34.51
0.84033	34.52
0.85700	34.52
0.87367	34.52
0.89033	34.51
0.90700	34.52
0.92367	34.52
0.94033	34.52
0.95700	34.52
0.97367	34.52
0.99033	34.52
1.00700	34.51
1.02367	34.52
1.04033	34.52
1.05700	34.52
1.07367	34.52
1.09033	34.52
1.10700	34.52
1.12367	34.52
1.14033	34.52
1.15700	34.52
1.17367	34.52
1.19033	34.52
1.20700	34.52
1.22367	34.52
1.24033	34.52
1.25700	34.52
1.27367	34.52
1.29033	34.52
1.30700	34.52
1.32367	34.51
1.34033	34.52
1.35700	34.52
1.37367	34.52
1.39033	34.52
1.40700	34.52
1.42367	34.52
1.44033	34.51
1.45700	34.52
1.47367	34.52
1.49033	34.51
1.50700	34.52
1.52367	34.53
1.54033	34.52
1.55700	34.51
1.57367	34.52
1.59033	34.53
1.60700	34.51
1.62367	34.52
1.64033	34.52
1.65700	34.52
1.67367	34.52
1.69033	34.52
1.70700	34.52
1.72367	34.52
1.74033	34.51
1.75700	34.53
1.77367	34.51
1.79033	34.52
1.80700	34.52
1.82367	34.52
1.84033	34.51
1.85700	34.52
1.87367	34.52
1.89033	34.52
1.90700	34.52
1.92367	34.52
1.94033	34.51
1.95700	34.51
1.97367	34.52
1.99033	34.52
2.00700	34.51
2.02367	34.52
2.04033	34.52
2.05700	34.52
2.07367	34.52
2.09033	34.53
2.10700	34.52
2.12367	34.51
2.14033	34.52
2.15700	34.52
2.17367	34.51
2.19033	34.51
2.20700	34.52
2.22367	34.52
2.24033	34.51
2.25700	34.52
2.27367	34.52
2.29033	34.51
2.30700	34.52
2.32367	34.51
2.34033	34.51
2.35700	34.51
2.37367	34.52
2.39033	34.51
2.40700	34.51
2.42367	34.52
2.44033	34.52
2.45700	34.51
2.47367	34.52
2.49033	34.51
2.50700	34.32
2.52367	34.51
2.54033	34.52
2.55700	34.53
2.57367	34.51
2.59033	34.52
2.60700	34.52
2.62367	34.51
2.64033	34.52
2.65700	34.52
2.67367	34.52
2.69033	34.52
2.70700	34.51
2.72367	34.52
2.74033	34.52
2.75700	34.51
2.77367	34.52
2.79033	34.52
2.80700	34.52
2.82367	34.51
2.84033	34.52
2.85700	34.51
2.87367	34.51
2.89033	34.52
2.90700	34.52
2.92367	34.52
2.94033	34.52
2.95700	34.52
2.97367	34.52
2.99033	34.52
3.00700	34.52
3.02367	34.52
3.04033	34.51
3.05700	34.52
3.07367	34.52
3.09033	34.52
3.10700	34.52
3.12367	34.52
3.14033	34.52
3.15700	34.52
3.17367	34.52
3.19033	34.52
3.20700	34.52
3.22367	34.53
3.24033	34.52
3.25700	34.51
3.27367	34.52
3.29033	34.52
3.30700	34.52
3.32367	34.52
3.34033	34.52
3.35700	34.51
3.37367	34.51
3.39033	34.52
3.40700	34.52
3.42367	34.52
3.44033	34.52
3.45700	34.52
3.47367	34.52
3.49033	34.52
3.50700	34.51
3.52367	34.52
3.54033	34.51
3.55700	34.52
3.57367	34.52
3.59033	34.52
3.60700	34.52
3.62367	34.53
3.64033	34.52
3.65700	34.52
3.67367	34.52
3.69033	34.52
3.70700	34.52
3.72367	34.52
3.74033	34.52
3.75700	34.52
3.77367	34.52
3.79033	34.52
3.80700	34.52
3.82367	34.52
3.84033	34.51
3.85700	34.53
3.87367	34.52
3.89033	34.53
3.90700	34.52
3.92367	34.52
3.94033	34.52
3.95700	34.52
3.97367	34.52
3.99033	34.52

[Status Trace (Column Flow)]
Interval(msec)	1000
# of Points	240
Start Time(min)	0.007
End Time(min)	3.990
Intensity Units	
Intensity Multiplier	1
R.Time (min)	Intensity
0.00700	5.50
0.02367	5.22
0.04033	5.38
0.05700	5.64
0.07367	5.70
0.09033	5.52
0.10700	5.50
0.12367	5.51
0.14033	5.51
0.15700	5.51
0.17367	5.51
0.19033	5.51
0.20700	5.51
0.22367	5.51
0.24033	5.51
0.25700	5.51
0.27367	5.51
0.29033	5.51
0.30700	5.51
0.32367	5.51
0.34033	5.51
0.35700	5.51
0.37367	5.51
0.39033	5.51
0.40700	5.51
0.42367	5.51
0.44033	5.51
0.45700	5.51
0.47367	5.51
0.49033	5.51
0.50700	5.51
0.52367	5.51
0.54033	5.51
0.55700	5.51
0.57367	5.51
0.59033	5.51
0.60700	5.51
0.62367	5.51
0.64033	5.51
0.65700	5.51
0.67367	5.51
0.69033	5.51
0.70700	5.51
0.72367	5.51
0.74033	5.51
0.75700	5.51
0.77367	5.51
0.79033	5.51
0.80700	5.51
0.82367	5.51
0.84033	5.51
0.85700	5.51
0.87367	5.51
0.89033	5.51
0.90700	5.51
0.92367	5.51
0.94033	5.51
0.95700	5.51
0.97367	5.51
0.99033	5.51
1.00700	5.51
1.02367	5.51
1.04033	5.51
1.05700	5.51
1.07367	5.51
1.09033	5.51
1.10700	5.51
1.12367	5.51
1.14033	5.51
1.15700	5.51
1.17367	5.51
1.19033	5.51
1.20700	5.51
1.22367	5.51
1.24033	5.51
1.25700	5.51
1.27367	5.51
1.29033	5.51
1.30700	5.51
1.32367	5.51
1.34033	5.51
1.35700	5.51
1.37367	5.51
1.39033	5.51
1.40700	5.51
1.42367	5.51
1.44033	5.51
1.45700	5.51
1.47367	5.51
1.49033	5.51
1.50700	5.51
1.52367	5.51
1.54033	5.51
1.55700	5.51
1.57367	5.51
1.59033	5.51
1.60700	5.50
1.62367	5.50
1.64033	5.49
1.65700	5.49
1.67367	5.48
1.69033	5.46
1.70700	5.45
1.72367	5.44
1.74033	5.43
1.75700	5.42
1.77367	5.41
1.79033	5.40
1.80700	5.39
1.82367	5.38
1.84033	5.37
1.85700	5.36
1.87367	5.35
1.89033	5.34
1.90700	5.33
1.92367	5.32
1.94033	5.31
1.95700	5.30
1.97367	5.29
1.99033	5.28
2.00700	5.27
2.02367	5.27
2.04033	5.25
2.05700	5.25
2.07367	5.24
2.09033	5.23
2.10700	5.22
2.12367	5.21
2.14033	5.20
2.15700	5.19
2.17367	5.18
2.19033	5.17
2.20700	5.16
2.22367	5.15
2.24033	5.14
2.25700	5.13
2.27367	5.12
2.29033	5.11
2.30700	5.11
2.32367	5.10
2.34033	5.09
2.35700	5.08
2.37367	5.07
2.39033	5.07
2.40700	5.07
2.42367	5.07
2.44033	5.07
2.45700	5.07
2.47367	5.07
2.49033	5.07
2.50700	5.07
2.52367	5.07
2.54033	5.07
2.55700	5.07
2.57367	5.07
2.59033	5.07
2.60700	5.07
2.62367	5.07
2.64033	5.07
2.65700	5.07
2.67367	5.07
2.69033	5.07
2.70700	5.07
2.72367	5.07
2.74033	5.07
2.75700	5.07
2.77367	5.07
2.79033	5.07
2.80700	5.07
2.82367	5.07
2.84033	5.07
2.85700	5.07
2.87367	5.07
2.89033	5.07
2.90700	5.07
2.92367	5.07
2.94033	5.07
2.95700	5.06
2.97367	5.06
2.99033	5.06
3.00700	5.06
3.02367	5.06
3.04033	5.06
3.05700	5.06
3.07367	5.06
3.09033	5.06
3.10700	5.06
3.12367	5.06
3.14033	5.06
3.15700	5.06
3.17367	5.06
3.19033	5.06
3.20700	5.06
3.22367	5.06
3.24033	5.06
3.25700	5.06
3.27367	5.06
3.29033	5.06
3.30700	5.06
3.32367	5.06
3.34033	5.06
3.35700	5.06
3.37367	5.06
3.39033	5.06
3.40700	5.06
3.42367	5.06
3.44033	5.06
3.45700	5.06
3.47367	5.06
3.49033	5.06
3.50700	5.06
3.52367	5.06
3.54033	5.06
3.55700	5.06
3.57367	5.06
3.59033	5.06
3.60700	5.06
3.62367	5.06
3.64033	5.06
3.65700	5.06
3.67367	5.06
3.69033	5.06
3.70700	5.06
3.72367	5.06
3.74033	5.06
3.75700	5.06
3.77367	5.06
3.79033	5.06
3.80700	5.06
3.82367	5.06
3.84033	5.06
3.85700	5.06
3.87367	5.06
3.89033	5.06
3.90700	5.06
3.92367	5.06
3.94033	5.06
3.95700	5.06
3.97367	5.06
3.99033	5.06

[Status Trace (Linear Velocity)]
Interval(msec)	1000
# of Points	240
Start Time(min)	0.007
End Time(min)	3.990
Intensity Units	
Intensity Multiplier	1
R.Time (min)	Intensity
0.00700	39.01
0.02367	37.41
0.04033	38.31
0.05700	39.75
0.07367	40.08
0.09033	39.09
0.10700	39.00
0.12367	39.01
0.14033	39.02
0.15700	39.01
0.17367	39.01
0.19033	39.01
0.20700	39.01
0.22367	39.01
0.24033	39.01
0.25700	39.01
0.27367	39.01
0.29033	39.01
0.30700	39.01
0.32367	39.01
0.34033	39.01
0.35700	39.01
0.37367	39.01
0.39033	39.01
0.40700	39.01
0.42367	39.01
0.44033	39.01
0.45700	39.01
0.47367	39.01
0.49033	39.01
0.50700	39.01
0.52367	39.01
0.54033	39.01
0.55700	39.01
0.57367	39.01
0.59033	39.01
0.60700	39.01
0.62367	39.01
0.64033	39.01
0.65700	39.01
0.67367	39.01
0.69033	39.01
0.70700	39.01
0.72367	39.01
0.74033	39.01
0.75700	39.01
0.77367	39.01
0.79033	39.01
0.80700	39.01
0.82367	39.01
0.84033	39.01
0.85700	39.01
0.87367	39.01
0.89033	39.02
0.90700	39.01
0.92367	39.01
0.94033	39.01
0.95700	39.01
0.97367	39.01
0.99033	39.01
1.00700	39.02
1.02367	39.01
1.04033	39.01
1.05700	39.01
1.07367	39.01
1.09033	39.01
1.10700	39.01
1.12367	39.01
1.14033	39.01
1.15700	39.01
1.17367	39.01
1.19033	39.01
1.20700	39.01
1.22367	39.01
1.24033	39.01
1.25700	39.01
1.27367	39.01
1.29033	39.01
1.30700	39.01
1.32367	39.01
1.34033	39.01
1.35700	39.01
1.37367	39.01
1.39033	39.01
1.40700	39.01
1.42367	39.01
1.44033	39.01
1.45700	39.01
1.47367	39.01
1.49033	39.01
1.50700	39.01
1.52367	39.01
1.54033	39.01
1.55700	39.01
1.57367	39.01
1.59033	39.01
1.60700	39.01
1.62367	39.00
1.64033	38.98
1.65700	38.96
1.67367	38.93
1.69033	38.89
1.70700	38.85
1.72367	38.82
1.74033	38.79
1.75700	38.76
1.77367	38.73
1.79033	38.70
1.80700	38.66
1.82367	38.63
1.84033	38.60
1.85700	38.57
1.87367	38.54
1.89033	38.51
1.90700	38.48
1.92367	38.45
1.94033	38.42
1.95700	38.39
1.97367	38.36
1.99033	38.32
2.00700	38.29
2.02367	38.27
2.04033	38.23
2.05700	38.20
2.07367	38.18
2.09033	38.14
2.10700	38.11
2.12367	38.09
2.14033	38.05
2.15700	38.02
2.17367	38.00
2.19033	37.97
2.20700	37.94
2.22367	37.91
2.24033	37.88
2.25700	37.85
2.27367	37.82
2.29033	37.79
2.30700	37.76
2.32367	37.74
2.34033	37.70
2.35700	37.68
2.37367	37.66
2.39033	37.65
2.40700	37.65
2.42367	37.66
2.44033	37.65
2.45700	37.65
2.47367	37.65
2.49033	37.65
2.50700	37.65
2.52367	37.64
2.54033	37.65
2.55700	37.65
2.57367	37.65
2.59033	37.65
2.60700	37.65
2.62367	37.65
2.64033	37.65
2.65700	37.65
2.67367	37.64
2.69033	37.64
2.70700	37.64
2.72367	37.64
2.74033	37.64
2.75700	37.64
2.77367	37.64
2.79033	37.64
2.80700	37.64
2.82367	37.64
2.84033	37.64
2.85700	37.64
2.87367	37.64
2.89033	37.64
2.90700	37.64
2.92367	37.63
2.94033	37.63
2.95700	37.63
2.97367	37.63
2.99033	37.63
3.00700	37.63
3.02367	37.63
3.04033	37.63
3.05700	37.63
3.07367	37.63
3.09033	37.63
3.10700	37.63
3.12367	37.63
3.14033	37.62
3.15700	37.62
3.17367	37.62
3.19033	37.62
3.20700	37.62
3.22367	37.62
3.24033	37.62
3.25700	37.62
3.27367	37.62
3.29033	37.62
3.30700	37.62
3.32367	37.62
3.34033	37.62
3.35700	37.62
3.37367	37.62
3.39033	37.62
3.40700	37.62
3.42367	37.62
3.44033	37.62
3.45700	37.62
3.47367	37.62
3.49033	37.62
3.50700	37.62
3.52367	37.62
3.54033	37.62
3.55700	37.62
3.57367	37.62
3.59033	37.62
3.60700	37.62
3.62367	37.62
3.64033	37.62
3.65700	37.62
3.67367	37.62
3.69033	37.62
3.70700	37.62
3.72367	37.62
3.74033	37.62
3.75700	37.62
3.77367	37.62
3.79033	37.62
3.80700	37.62
3.82367	37.62
3.84033	37.62
3.85700	37.62
3.87367	37.62
3.89033	37.62
3.90700	37.62
3.92367	37.62
3.94033	37.62
3.95700	37.62
3.97367	37.62
3.99033	37.62

