[Header]
Application Name	LabSolutions
Version	5.110
Data File Name	C:\Users\User\Desktop\Junior\UIC Prairie Sampling\2023\8.2.23\080223_023.gcd
Output Date	8/31/2023
Output Time	12:43:06 PM

[File Information]
Type	Data File
Generated	8/29/2023 6:23:56 PM
Generated by	System Administrator
Modified	8/29/2023 6:30:35 PM
Modified by	System Administrator

[Sample Information]
Operator Name	System Administrator
Acquired	8/29/2023 6:26:34 PM
Sample Type	0:Unknown
Level	0
Sample Name	023
Sample ID	023
ISTD Amount1	1
ISTD Amount2	1
ISTD Amount3	1
ISTD Amount4	1
ISTD Amount5	1
ISTD Amount6	1
ISTD Amount7	1
ISTD Amount8	1
ISTD Amount9	1
ISTD Amount10	1
ISTD Amount11	1
ISTD Amount12	1
ISTD Amount13	1
ISTD Amount14	1
ISTD Amount15	1
ISTD Amount16	1
ISTD Amount17	1
ISTD Amount18	1
ISTD Amount19	1
ISTD Amount20	1
ISTD Amount21	1
ISTD Amount22	1
ISTD Amount23	1
ISTD Amount24	1
ISTD Amount25	1
ISTD Amount26	1
ISTD Amount27	1
ISTD Amount28	1
ISTD Amount29	1
ISTD Amount30	1
ISTD Amount31	1
ISTD Amount32	1
Sample Amount	1
Dilution Factor	1
Vial#	22
Injection Volume	1
Injection Count	1
Bar Code	

[Original Files]
Data File	C:\Users\User\Desktop\Junior\UIC Prairie Sampling\8.2.23\080223_023.gcd
Method File	C:\LabSolutions\Data\GHG_4min_2022\ghg3_togas_w_acet_4 min_new_int.gcm
Batch File	C:\LabSolutions\Data\BATCH FILES\080223.gcb
Report Format File	c:\LabSolutions\System\DEFAULT.lsr

[File Description]


[Configuration]
Instrument Name	C0B7VH3-Instrument1
Instrument #	1
Line #	1
# of Detectors	3
Detector ID	DET#1	DET#2	DET#3
Detector Name	FID	PTCD	ECD
# of Channels	1	1	1

[Peak Table(Ch1)]
# of Peaks	4
Peak#	R.Time	I.Time	F.Time	Area	Height	A/H	Conc.	Mark	ID#	Name	k'	Plate #	Plate Ht.	Tailing	Resolution	Sep.Factor	Area Ratio	Height Ratio	Conc. %	Norm Conc.
1	0.284	0.167	0.405	2616	364	7.187	0.000	   			0.000	30	5062.669	0.993	0.000	0.000	0	0	0.000	0.000
2	1.472	1.435	1.531	6342	3192	1.986	0.000	   	1	CO	4.183	10113	14.832	1.282	8.891	0.000	0	0	0.000	0.000
3	1.564	1.531	1.615	4383	2266	1.934	21.369	 V 	2	CH4	4.506	11826	12.684	1.127	1.580	1.077	0	0	10.342	10.342
4	1.989	1.945	2.411	961305	465078	2.067	185.261	   	3	CO2	6.004	17800	8.427	1.304	7.261	1.332	0	0	89.658	89.658

[Peak Table(Ch2)]
# of Peaks	0

[Peak Table(Ch3)]
# of Peaks	6
Peak#	R.Time	I.Time	F.Time	Area	Height	A/H	Conc.	Mark	ID#	Name	k'	Plate #	Plate Ht.	Tailing	Resolution	Sep.Factor	Area Ratio	Height Ratio	Conc. %	Norm Conc.
1	2.458	2.440	2.506	655	259	2.527	0.000	   			0.000	16372	9.162	0.000	0.000	0.000	0	0	0.000	0.000
2	2.521	2.506	2.572	286	117	2.443	0.000	 V 			0.025	7416	20.227	0.000	0.643	0.000	0	0	0.000	0.000
3	2.620	2.572	2.693	357	98	3.647	0.000	 V 			0.066	9806	15.296	0.000	0.888	2.588	0	0	0.000	0.000
4	2.891	2.836	2.979	13562	3877	3.498	0.201	   	1	N2O	0.176	14301	10.489	1.450	2.680	2.682	0	0	100.000	100.000
5	3.049	2.979	3.283	10507	729	14.417	0.000	 V 	2	SF6	0.240	317	473.204	0.000	0.403	1.364	0	0	0.000	0.000
6	3.397	3.283	3.874	10528	688	15.308	0.000	 V 			0.382	819	183.199	0.000	0.601	1.590	0	0	0.000	0.000

[Compound Results(Ch1)]
# of IDs	6
ID#	Name	R.Time	Area	Height	Conc.	Curve	3rd	2nd	1st	Constant	Area Ratio	Height Ratio	Conc. %	Norm Conc.
1	CO	1.472	6342	3192	0.000	Linear	0.000000e+00	0.000000e+00	0.000000e+00	0.000000e+00	0	0	0.000	0.000
2	CH4	1.564	4383	2266	21.369	Linear	0.000000e+00	0.000000e+00	2.051179e+002	0.000000e+00	0	0	10.342	10.342
3	CO2	1.989	961305	465078	185.261	Linear	0.000000e+00	0.000000e+00	5.188919e+003	0.000000e+00	0	0	89.658	89.658
4	Ethylene	0.000	0	0	0.000	Linear	0.000000e+00	0.000000e+00	0.000000e+00	0.000000e+00	0	0	0.000	0.000
5	Acetylene	0.000	0	0	0.000	Linear	0.000000e+00	0.000000e+00	0.000000e+00	0.000000e+00	0	0	0.000	0.000
6	Ethane	0.000	0	0	0.000	Linear	0.000000e+00	0.000000e+00	0.000000e+00	0.000000e+00	0	0	0.000	0.000

[Compound Results(Ch2)]
# of IDs	5
ID#	Name	R.Time	Area	Height	Conc.	Curve	3rd	2nd	1st	Constant	Area Ratio	Height Ratio	Conc. %	Norm Conc.
1	Hydrogen	0.000	0	0	0.000	Linear	0.000000e+00	0.000000e+00	0.000000e+00	0.000000e+00	0	0	0.000	0.000
2	Oxygen	0.000	0	0	0.000	Linear	0.000000e+00	0.000000e+00	0.000000e+00	0.000000e+00	0	0	0.000	0.000
3	Nitrogen	0.000	0	0	0.000	Linear	0.000000e+00	0.000000e+00	0.000000e+00	0.000000e+00	0	0	0.000	0.000
4	Methane	0.000	0	0	0.000	Linear	0.000000e+00	0.000000e+00	0.000000e+00	0.000000e+00	0	0	0.000	0.000
5	Carbon Monoxide	0.000	0	0	0.000	Linear	0.000000e+00	0.000000e+00	0.000000e+00	0.000000e+00	0	0	0.000	0.000

[Compound Results(Ch3)]
# of IDs	2
ID#	Name	R.Time	Area	Height	Conc.	Curve	3rd	2nd	1st	Constant	Area Ratio	Height Ratio	Conc. %	Norm Conc.
1	N2O	2.891	13562	3877	0.201	Linear	0.000000e+00	0.000000e+00	6.759880e+004	0.000000e+00	0	0	100.000	100.000
2	SF6	3.049	10507	729	0.000	Linear	0.000000e+00	0.000000e+00	0.000000e+00	0.000000e+00	0	0	0.000	0.000

[Group Results(Ch1)]
# of Groups	0

[Group Results(Ch2)]
# of Groups	0

[Group Results(Ch3)]
# of Groups	0

[Chromatogram (Ch1)]
Interval(msec)	220
# of Points	1091
Start Time(min)	0.002
End Time(min)	3.998
R.Time (min)	Intensity
0.00167	-2
0.00533	0
0.00900	2
0.01267	1
0.01633	0
0.02000	-2
0.02367	-5
0.02733	-8
0.03100	-10
0.03467	-10
0.03833	-6
0.04200	-2
0.04567	0
0.04933	0
0.05300	-0
0.05667	0
0.06033	0
0.06400	3
0.06767	9
0.07133	16
0.07500	20
0.07867	19
0.08233	18
0.08600	14
0.08967	8
0.09333	3
0.09700	3
0.10067	8
0.10433	13
0.10800	13
0.11167	14
0.11533	16
0.11900	17
0.12267	17
0.12633	11
0.13000	5
0.13367	-2
0.13733	-10
0.14100	-14
0.14467	-15
0.14833	-12
0.15200	-5
0.15567	3
0.15933	9
0.16300	15
0.16667	22
0.17033	33
0.17400	44
0.17767	55
0.18133	65
0.18500	69
0.18867	71
0.19233	72
0.19600	76
0.19967	83
0.20333	92
0.20700	103
0.21067	117
0.21433	132
0.21800	148
0.22167	164
0.22533	181
0.22900	198
0.23267	216
0.23633	235
0.24000	254
0.24367	272
0.24733	288
0.25100	302
0.25467	316
0.25833	329
0.26200	342
0.26567	355
0.26933	367
0.27300	377
0.27667	384
0.28033	389
0.28400	391
0.28767	390
0.29133	387
0.29500	382
0.29867	378
0.30233	374
0.30600	368
0.30967	357
0.31333	345
0.31700	334
0.32067	321
0.32433	307
0.32800	291
0.33167	277
0.33533	266
0.33900	256
0.34267	245
0.34633	232
0.35000	216
0.35367	197
0.35733	176
0.36100	154
0.36467	133
0.36833	117
0.37200	104
0.37567	92
0.37933	81
0.38300	71
0.38667	64
0.39033	57
0.39400	49
0.39767	41
0.40133	35
0.40500	32
0.40867	30
0.41233	31
0.41600	34
0.41967	37
0.42333	39
0.42700	37
0.43067	31
0.43433	24
0.43800	14
0.44167	5
0.44533	-1
0.44900	-5
0.45267	-7
0.45633	-8
0.46000	-7
0.46367	-4
0.46733	-1
0.47100	1
0.47467	4
0.47833	4
0.48200	4
0.48567	4
0.48933	7
0.49300	11
0.49667	13
0.50033	12
0.50400	8
0.50767	3
0.51133	1
0.51500	-0
0.51867	-0
0.52233	1
0.52600	4
0.52967	6
0.53333	6
0.53700	7
0.54067	9
0.54433	9
0.54800	9
0.55167	8
0.55533	4
0.55900	-1
0.56267	-7
0.56633	-8
0.57000	-8
0.57367	-9
0.57733	-11
0.58100	-12
0.58467	-11
0.58833	-11
0.59200	-11
0.59567	-10
0.59933	-9
0.60300	-8
0.60667	-9
0.61033	-8
0.61400	-8
0.61767	-8
0.62133	-7
0.62500	-6
0.62867	-5
0.63233	-5
0.63600	-5
0.63967	-5
0.64333	-7
0.64700	-7
0.65067	-6
0.65433	-5
0.65800	-2
0.66167	-1
0.66533	-1
0.66900	-1
0.67267	-3
0.67633	-5
0.68000	-6
0.68367	-6
0.68733	-5
0.69100	-6
0.69467	-10
0.69833	-15
0.70200	-19
0.70567	-22
0.70933	-21
0.71300	-14
0.71667	-8
0.72033	-5
0.72400	-5
0.72767	-3
0.73133	-1
0.73500	-1
0.73867	-3
0.74233	-6
0.74600	-8
0.74967	-11
0.75333	-14
0.75700	-16
0.76067	-18
0.76433	-19
0.76800	-16
0.77167	-13
0.77533	-13
0.77900	-19
0.78267	-26
0.78633	-31
0.79000	-33
0.79367	-32
0.79733	-29
0.80100	-24
0.80467	-20
0.80833	-18
0.81200	-17
0.81567	-16
0.81933	-16
0.82300	-15
0.82667	-12
0.83033	-10
0.83400	-9
0.83767	-10
0.84133	-11
0.84500	-11
0.84867	-10
0.85233	-13
0.85600	-17
0.85967	-20
0.86333	-24
0.86700	-30
0.87067	-32
0.87433	-30
0.87800	-27
0.88167	-24
0.88533	-22
0.88900	-19
0.89267	-13
0.89633	-13
0.90000	-16
0.90367	-17
0.90733	-16
0.91100	-16
0.91467	-17
0.91833	-18
0.92200	-21
0.92567	-25
0.92933	-27
0.93300	-28
0.93667	-26
0.94033	-26
0.94400	-25
0.94767	-26
0.95133	-26
0.95500	-26
0.95867	-25
0.96233	-24
0.96600	-26
0.96967	-28
0.97333	-27
0.97700	-26
0.98067	-26
0.98433	-29
0.98800	-33
0.99167	-35
0.99533	-34
0.99900	-33
1.00267	-30
1.00633	-27
1.01000	-20
1.01367	-13
1.01733	-10
1.02100	-9
1.02467	-12
1.02833	-17
1.03200	-25
1.03567	-33
1.03933	-37
1.04300	-37
1.04667	-36
1.05033	-33
1.05400	-30
1.05767	-27
1.06133	-24
1.06500	-21
1.06867	-20
1.07233	-20
1.07600	-22
1.07967	-23
1.08333	-24
1.08700	-24
1.09067	-25
1.09433	-27
1.09800	-29
1.10167	-31
1.10533	-34
1.10900	-37
1.11267	-39
1.11633	-38
1.12000	-34
1.12367	-29
1.12733	-24
1.13100	-22
1.13467	-21
1.13833	-25
1.14200	-30
1.14567	-35
1.14933	-39
1.15300	-42
1.15667	-41
1.16033	-39
1.16400	-39
1.16767	-40
1.17133	-39
1.17500	-39
1.17867	-37
1.18233	-33
1.18600	-28
1.18967	-29
1.19333	-34
1.19700	-39
1.20067	-40
1.20433	-36
1.20800	-32
1.21167	-29
1.21533	-31
1.21900	-35
1.22267	-37
1.22633	-40
1.23000	-47
1.23367	-53
1.23733	-58
1.24100	-62
1.24467	-61
1.24833	-55
1.25200	-48
1.25567	-42
1.25933	-38
1.26300	-37
1.26667	-38
1.27033	-37
1.27400	-36
1.27767	-38
1.28133	-41
1.28500	-45
1.28867	-46
1.29233	-45
1.29600	-45
1.29967	-48
1.30333	-51
1.30700	-52
1.31067	-49
1.31433	-47
1.31800	-45
1.32167	-44
1.32533	-41
1.32900	-41
1.33267	-41
1.33633	-42
1.34000	-44
1.34367	-47
1.34733	-51
1.35100	-55
1.35467	-58
1.35833	-56
1.36200	-52
1.36567	-46
1.36933	-43
1.37300	-42
1.37667	-40
1.38033	-38
1.38400	-38
1.38767	-40
1.39133	-43
1.39500	-45
1.39867	-47
1.40233	-48
1.40600	-48
1.40967	-47
1.41333	-44
1.41700	-42
1.42067	-41
1.42433	-42
1.42800	-47
1.43167	-48
1.43533	-41
1.43900	-22
1.44267	5
1.44633	120
1.45000	460
1.45367	1024
1.45733	1671
1.46100	2266
1.46467	2739
1.46833	3049
1.47200	3151
1.47567	3013
1.47933	2658
1.48300	2175
1.48667	1671
1.49033	1222
1.49400	862
1.49767	595
1.50133	404
1.50500	271
1.50867	180
1.51233	116
1.51600	70
1.51967	40
1.52333	18
1.52700	3
1.53067	-2
1.53433	29
1.53800	154
1.54167	424
1.54533	828
1.54900	1281
1.55267	1690
1.55633	2006
1.56000	2195
1.56367	2223
1.56733	2075
1.57100	1779
1.57467	1406
1.57833	1038
1.58200	728
1.58567	486
1.58933	309
1.59300	187
1.59667	104
1.60033	48
1.60400	11
1.60767	-15
1.61133	-33
1.61500	-44
1.61867	-48
1.62233	-48
1.62600	-50
1.62967	-53
1.63333	-56
1.63700	-60
1.64067	-66
1.64433	-73
1.64800	-78
1.65167	-80
1.65533	-78
1.65900	-73
1.66267	-65
1.66633	-59
1.67000	-54
1.67367	-51
1.67733	-48
1.68100	-45
1.68467	-43
1.68833	-45
1.69200	-51
1.69567	-55
1.69933	-56
1.70300	-52
1.70667	-50
1.71033	-54
1.71400	-63
1.71767	-69
1.72133	-73
1.72500	-75
1.72867	-78
1.73233	-81
1.73600	-84
1.73967	-85
1.74333	-86
1.74700	-84
1.75067	-80
1.75433	-74
1.75800	-72
1.76167	-73
1.76533	-76
1.76900	-78
1.77267	-79
1.77633	-79
1.78000	-76
1.78367	-73
1.78733	-70
1.79100	-68
1.79467	-68
1.79833	-71
1.80200	-73
1.80567	-74
1.80933	-71
1.81300	-65
1.81667	-62
1.82033	-61
1.82400	-61
1.82767	-62
1.83133	-61
1.83500	-60
1.83867	-59
1.84233	-58
1.84600	-60
1.84967	-61
1.85333	-63
1.85700	-65
1.86067	-64
1.86433	-61
1.86800	-61
1.87167	-65
1.87533	-72
1.87900	-77
1.88267	-78
1.88633	-77
1.89000	-72
1.89367	-67
1.89733	-64
1.90100	-64
1.90467	-66
1.90833	-70
1.91200	-74
1.91567	-77
1.91933	-79
1.92300	-79
1.92667	-74
1.93033	-66
1.93400	-60
1.93767	-56
1.94133	-53
1.94500	-43
1.94867	21
1.95233	405
1.95600	2226
1.95967	8736
1.96333	26435
1.96700	63682
1.97067	125330
1.97433	207331
1.97800	296971
1.98167	378279
1.98533	437449
1.98900	465060
1.99267	457490
1.99633	418098
2.00000	356642
2.00367	286077
2.00733	217978
2.01100	159642
2.01467	113732
2.01833	79713
2.02200	55538
2.02567	38828
2.02933	27471
2.03300	19816
2.03667	14662
2.04033	11171
2.04400	8780
2.04767	7114
2.05133	5925
2.05500	5056
2.05867	4401
2.06233	3893
2.06600	3493
2.06967	3174
2.07333	2911
2.07700	2692
2.08067	2507
2.08433	2347
2.08800	2206
2.09167	2080
2.09533	1965
2.09900	1859
2.10267	1760
2.10633	1671
2.11000	1591
2.11367	1515
2.11733	1443
2.12100	1375
2.12467	1311
2.12833	1255
2.13200	1209
2.13567	1172
2.13933	1142
2.14300	1109
2.14667	1070
2.15033	1028
2.15400	990
2.15767	956
2.16133	924
2.16500	894
2.16867	865
2.17233	837
2.17600	813
2.17967	790
2.18333	767
2.18700	745
2.19067	721
2.19433	698
2.19800	677
2.20167	656
2.20533	638
2.20900	622
2.21267	609
2.21633	596
2.22000	582
2.22367	568
2.22733	556
2.23100	549
2.23467	543
2.23833	535
2.24200	523
2.24567	510
2.24933	495
2.25300	480
2.25667	469
2.26033	459
2.26400	446
2.26767	434
2.27133	425
2.27500	422
2.27867	422
2.28233	422
2.28600	416
2.28967	407
2.29333	398
2.29700	392
2.30067	388
2.30433	381
2.30800	371
2.31167	360
2.31533	349
2.31900	340
2.32267	329
2.32633	319
2.33000	312
2.33367	308
2.33733	305
2.34100	302
2.34467	299
2.34833	298
2.35200	296
2.35567	292
2.35933	290
2.36300	289
2.36667	283
2.37033	273
2.37400	261
2.37767	250
2.38133	244
2.38500	244
2.38867	247
2.39233	250
2.39600	250
2.39967	245
2.40333	239
2.40700	231
2.41067	224
2.41433	218
2.41800	216
2.42167	216
2.42533	219
2.42900	225
2.43267	231
2.43633	236
2.44000	238
2.44367	239
2.44733	238
2.45100	233
2.45467	226
2.45833	220
2.46200	218
2.46567	219
2.46933	217
2.47300	211
2.47667	203
2.48033	194
2.48400	185
2.48767	179
2.49133	177
2.49500	179
2.49867	182
2.50233	181
2.50600	182
2.50967	186
2.51333	191
2.51700	194
2.52067	192
2.52433	189
2.52800	184
2.53167	180
2.53533	176
2.53900	171
2.54267	165
2.54633	157
2.55000	150
2.55367	146
2.55733	143
2.56100	144
2.56467	146
2.56833	148
2.57200	151
2.57567	153
2.57933	155
2.58300	154
2.58667	151
2.59033	148
2.59400	145
2.59767	144
2.60133	145
2.60500	147
2.60867	149
2.61233	148
2.61600	145
2.61967	142
2.62333	137
2.62700	134
2.63067	135
2.63433	141
2.63800	148
2.64167	154
2.64533	158
2.64900	159
2.65267	159
2.65633	159
2.66000	161
2.66367	161
2.66733	157
2.67100	151
2.67467	145
2.67833	140
2.68200	137
2.68567	132
2.68933	127
2.69300	125
2.69667	126
2.70033	129
2.70400	136
2.70767	140
2.71133	141
2.71500	137
2.71867	131
2.72233	124
2.72600	117
2.72967	113
2.73333	115
2.73700	117
2.74067	116
2.74433	117
2.74800	119
2.75167	123
2.75533	127
2.75900	130
2.76267	128
2.76633	125
2.77000	125
2.77367	124
2.77733	122
2.78100	120
2.78467	120
2.78833	119
2.79200	117
2.79567	113
2.79933	106
2.80300	100
2.80667	101
2.81033	106
2.81400	114
2.81767	122
2.82133	130
2.82500	137
2.82867	140
2.83233	139
2.83600	137
2.83967	137
2.84333	134
2.84700	128
2.85067	124
2.85433	119
2.85800	116
2.86167	115
2.86533	114
2.86900	113
2.87267	109
2.87633	108
2.88000	110
2.88367	112
2.88733	114
2.89100	117
2.89467	118
2.89833	116
2.90200	112
2.90567	110
2.90933	114
2.91300	119
2.91667	122
2.92033	123
2.92400	126
2.92767	130
2.93133	132
2.93500	132
2.93867	130
2.94233	126
2.94600	123
2.94967	123
2.95333	124
2.95700	125
2.96067	123
2.96433	119
2.96800	117
2.97167	114
2.97533	110
2.97900	109
2.98267	110
2.98633	111
2.99000	111
2.99367	114
2.99733	117
3.00100	119
3.00467	119
3.00833	118
3.01200	117
3.01567	117
3.01933	116
3.02300	115
3.02667	115
3.03033	114
3.03400	114
3.03767	114
3.04133	113
3.04500	111
3.04867	110
3.05233	108
3.05600	106
3.05967	104
3.06333	104
3.06700	107
3.07067	109
3.07433	111
3.07800	112
3.08167	113
3.08533	112
3.08900	111
3.09267	110
3.09633	112
3.10000	113
3.10367	116
3.10733	120
3.11100	120
3.11467	116
3.11833	108
3.12200	103
3.12567	102
3.12933	104
3.13300	104
3.13667	101
3.14033	98
3.14400	96
3.14767	97
3.15133	99
3.15500	101
3.15867	101
3.16233	98
3.16600	95
3.16967	96
3.17333	98
3.17700	102
3.18067	107
3.18433	109
3.18800	107
3.19167	103
3.19533	99
3.19900	93
3.20267	86
3.20633	79
3.21000	75
3.21367	71
3.21733	69
3.22100	69
3.22467	74
3.22833	83
3.23200	91
3.23567	98
3.23933	102
3.24300	104
3.24667	106
3.25033	106
3.25400	106
3.25767	106
3.26133	104
3.26500	101
3.26867	95
3.27233	89
3.27600	85
3.27967	84
3.28333	85
3.28700	87
3.29067	86
3.29433	82
3.29800	79
3.30167	77
3.30533	78
3.30900	78
3.31267	77
3.31633	75
3.32000	74
3.32367	74
3.32733	76
3.33100	77
3.33467	77
3.33833	76
3.34200	78
3.34567	79
3.34933	80
3.35300	81
3.35667	84
3.36033	88
3.36400	91
3.36767	90
3.37133	88
3.37500	84
3.37867	79
3.38233	73
3.38600	69
3.38967	68
3.39333	68
3.39700	70
3.40067	73
3.40433	76
3.40800	77
3.41167	74
3.41533	71
3.41900	69
3.42267	68
3.42633	67
3.43000	66
3.43367	68
3.43733	71
3.44100	75
3.44467	79
3.44833	81
3.45200	80
3.45567	80
3.45933	80
3.46300	80
3.46667	80
3.47033	78
3.47400	74
3.47767	70
3.48133	68
3.48500	67
3.48867	65
3.49233	66
3.49600	70
3.49967	72
3.50333	71
3.50700	68
3.51067	63
3.51433	57
3.51800	52
3.52167	49
3.52533	48
3.52900	50
3.53267	55
3.53633	60
3.54000	63
3.54367	64
3.54733	65
3.55100	66
3.55467	69
3.55833	71
3.56200	72
3.56567	73
3.56933	73
3.57300	72
3.57667	69
3.58033	66
3.58400	65
3.58767	66
3.59133	65
3.59500	62
3.59867	60
3.60233	57
3.60600	52
3.60967	48
3.61333	43
3.61700	38
3.62067	35
3.62433	34
3.62800	36
3.63167	41
3.63533	46
3.63900	48
3.64267	47
3.64633	46
3.65000	45
3.65367	43
3.65733	41
3.66100	39
3.66467	38
3.66833	36
3.67200	33
3.67567	33
3.67933	33
3.68300	32
3.68667	31
3.69033	32
3.69400	34
3.69767	36
3.70133	38
3.70500	39
3.70867	44
3.71233	47
3.71600	46
3.71967	41
3.72333	37
3.72700	33
3.73067	29
3.73433	27
3.73800	26
3.74167	27
3.74533	30
3.74900	34
3.75267	36
3.75633	35
3.76000	34
3.76367	33
3.76733	36
3.77100	38
3.77467	40
3.77833	40
3.78200	37
3.78567	35
3.78933	33
3.79300	31
3.79667	29
3.80033	26
3.80400	26
3.80767	28
3.81133	33
3.81500	38
3.81867	43
3.82233	46
3.82600	48
3.82967	52
3.83333	55
3.83700	57
3.84067	58
3.84433	56
3.84800	54
3.85167	50
3.85533	43
3.85900	35
3.86267	27
3.86633	20
3.87000	18
3.87367	22
3.87733	30
3.88100	37
3.88467	40
3.88833	41
3.89200	39
3.89567	34
3.89933	29
3.90300	27
3.90667	30
3.91033	36
3.91400	42
3.91767	46
3.92133	47
3.92500	46
3.92867	42
3.93233	38
3.93600	33
3.93967	30
3.94333	27
3.94700	24
3.95067	23
3.95433	23
3.95800	22
3.96167	20
3.96533	20
3.96900	23
3.97267	25
3.97633	26
3.98000	27
3.98367	27
3.98733	28
3.99100	28
3.99467	30
3.99833	31

[Chromatogram (Ch2)]
Interval(msec)	220
# of Points	1091
Start Time(min)	0.002
End Time(min)	3.998
R.Time (min)	Intensity
0.00167	-0
0.00533	-0
0.00900	-0
0.01267	0
0.01633	0
0.02000	0
0.02367	0
0.02733	0
0.03100	0
0.03467	0
0.03833	0
0.04200	-0
0.04567	-0
0.04933	-0
0.05300	-0
0.05667	-0
0.06033	-0
0.06400	-1
0.06767	-1
0.07133	-1
0.07500	-1
0.07867	-1
0.08233	-0
0.08600	-0
0.08967	-0
0.09333	0
0.09700	0
0.10067	1
0.10433	1
0.10800	1
0.11167	1
0.11533	1
0.11900	1
0.12267	1
0.12633	1
0.13000	1
0.13367	1
0.13733	1
0.14100	0
0.14467	0
0.14833	0
0.15200	-0
0.15567	-0
0.15933	-0
0.16300	-0
0.16667	0
0.17033	0
0.17400	0
0.17767	0
0.18133	0
0.18500	0
0.18867	0
0.19233	0
0.19600	0
0.19967	0
0.20333	0
0.20700	0
0.21067	0
0.21433	0
0.21800	0
0.22167	0
0.22533	-0
0.22900	-0
0.23267	-0
0.23633	-1
0.24000	-1
0.24367	-1
0.24733	-1
0.25100	-1
0.25467	-1
0.25833	-1
0.26200	-1
0.26567	-1
0.26933	-1
0.27300	-1
0.27667	-1
0.28033	-1
0.28400	-1
0.28767	-1
0.29133	-1
0.29500	-1
0.29867	-0
0.30233	0
0.30600	0
0.30967	0
0.31333	0
0.31700	0
0.32067	-0
0.32433	-0
0.32800	-1
0.33167	-1
0.33533	-0
0.33900	-0
0.34267	-0
0.34633	-0
0.35000	-0
0.35367	-0
0.35733	-0
0.36100	-0
0.36467	-0
0.36833	-0
0.37200	-0
0.37567	-0
0.37933	-0
0.38300	-0
0.38667	-0
0.39033	-0
0.39400	-0
0.39767	-0
0.40133	-0
0.40500	-0
0.40867	-0
0.41233	-0
0.41600	-0
0.41967	-0
0.42333	-0
0.42700	-0
0.43067	-0
0.43433	-0
0.43800	-0
0.44167	-0
0.44533	-0
0.44900	-0
0.45267	-0
0.45633	-0
0.46000	-0
0.46367	-0
0.46733	-0
0.47100	-1
0.47467	-1
0.47833	-1
0.48200	-1
0.48567	-1
0.48933	-1
0.49300	-1
0.49667	-1
0.50033	-1
0.50400	-0
0.50767	-0
0.51133	-0
0.51500	-0
0.51867	-0
0.52233	-0
0.52600	-0
0.52967	-0
0.53333	0
0.53700	0
0.54067	-0
0.54433	-0
0.54800	0
0.55167	0
0.55533	0
0.55900	0
0.56267	0
0.56633	0
0.57000	0
0.57367	-0
0.57733	-0
0.58100	-0
0.58467	-0
0.58833	-0
0.59200	-0
0.59567	-0
0.59933	-0
0.60300	-0
0.60667	0
0.61033	0
0.61400	0
0.61767	0
0.62133	0
0.62500	0
0.62867	1
0.63233	1
0.63600	0
0.63967	0
0.64333	0
0.64700	0
0.65067	0
0.65433	0
0.65800	-0
0.66167	-1
0.66533	-1
0.66900	-1
0.67267	-1
0.67633	-1
0.68000	-1
0.68367	-1
0.68733	-1
0.69100	-1
0.69467	-1
0.69833	-0
0.70200	-0
0.70567	0
0.70933	0
0.71300	-0
0.71667	-0
0.72033	-0
0.72400	-0
0.72767	-0
0.73133	-1
0.73500	-1
0.73867	-1
0.74233	-1
0.74600	-1
0.74967	-2
0.75333	-2
0.75700	-2
0.76067	-2
0.76433	-2
0.76800	-1
0.77167	-1
0.77533	-1
0.77900	-1
0.78267	-1
0.78633	-1
0.79000	-2
0.79367	-2
0.79733	-2
0.80100	-2
0.80467	-2
0.80833	-2
0.81200	-1
0.81567	-1
0.81933	-1
0.82300	-1
0.82667	-1
0.83033	-1
0.83400	-1
0.83767	-1
0.84133	-1
0.84500	-1
0.84867	-1
0.85233	-1
0.85600	-1
0.85967	-1
0.86333	-1
0.86700	-1
0.87067	-1
0.87433	-1
0.87800	-1
0.88167	-1
0.88533	-1
0.88900	-1
0.89267	-1
0.89633	-1
0.90000	-1
0.90367	-1
0.90733	-0
0.91100	-0
0.91467	-0
0.91833	-0
0.92200	-0
0.92567	-0
0.92933	-1
0.93300	-1
0.93667	-1
0.94033	-1
0.94400	-1
0.94767	-1
0.95133	-1
0.95500	-1
0.95867	-1
0.96233	-1
0.96600	-1
0.96967	-1
0.97333	-1
0.97700	-1
0.98067	-1
0.98433	-1
0.98800	-1
0.99167	-1
0.99533	-1
0.99900	-2
1.00267	-2
1.00633	-2
1.01000	-1
1.01367	-1
1.01733	-2
1.02100	-2
1.02467	-2
1.02833	-2
1.03200	-2
1.03567	-2
1.03933	-2
1.04300	-2
1.04667	-2
1.05033	-2
1.05400	-2
1.05767	-2
1.06133	-1
1.06500	-1
1.06867	-1
1.07233	-1
1.07600	-2
1.07967	-2
1.08333	-2
1.08700	-1
1.09067	-1
1.09433	-1
1.09800	-1
1.10167	-1
1.10533	-1
1.10900	-1
1.11267	-1
1.11633	-1
1.12000	-1
1.12367	-1
1.12733	-1
1.13100	-1
1.13467	-1
1.13833	-1
1.14200	-1
1.14567	-2
1.14933	-2
1.15300	-2
1.15667	-2
1.16033	-2
1.16400	-2
1.16767	-2
1.17133	-2
1.17500	-2
1.17867	-2
1.18233	-2
1.18600	-2
1.18967	-2
1.19333	-2
1.19700	-2
1.20067	-2
1.20433	-2
1.20800	-2
1.21167	-2
1.21533	-2
1.21900	-2
1.22267	-2
1.22633	-2
1.23000	-2
1.23367	-2
1.23733	-2
1.24100	-2
1.24467	-2
1.24833	-2
1.25200	-2
1.25567	-2
1.25933	-2
1.26300	-2
1.26667	-2
1.27033	-2
1.27400	-2
1.27767	-2
1.28133	-2
1.28500	-2
1.28867	-3
1.29233	-3
1.29600	-3
1.29967	-3
1.30333	-3
1.30700	-3
1.31067	-3
1.31433	-3
1.31800	-3
1.32167	-3
1.32533	-3
1.32900	-3
1.33267	-3
1.33633	-3
1.34000	-2
1.34367	-2
1.34733	-2
1.35100	-2
1.35467	-2
1.35833	-2
1.36200	-2
1.36567	-2
1.36933	-2
1.37300	-2
1.37667	-2
1.38033	-2
1.38400	-2
1.38767	-2
1.39133	-2
1.39500	-2
1.39867	-2
1.40233	-2
1.40600	-2
1.40967	-2
1.41333	-2
1.41700	-2
1.42067	-2
1.42433	-2
1.42800	-2
1.43167	-2
1.43533	-2
1.43900	-2
1.44267	-2
1.44633	-2
1.45000	-2
1.45367	-2
1.45733	-2
1.46100	-2
1.46467	-2
1.46833	-2
1.47200	-2
1.47567	-2
1.47933	-2
1.48300	-2
1.48667	-2
1.49033	-2
1.49400	-2
1.49767	-2
1.50133	-2
1.50500	-2
1.50867	-2
1.51233	-2
1.51600	-2
1.51967	-2
1.52333	-2
1.52700	-2
1.53067	-2
1.53433	-3
1.53800	-3
1.54167	-3
1.54533	-3
1.54900	-3
1.55267	-3
1.55633	-3
1.56000	-3
1.56367	-3
1.56733	-3
1.57100	-3
1.57467	-3
1.57833	-3
1.58200	-3
1.58567	-3
1.58933	-3
1.59300	-4
1.59667	-4
1.60033	-4
1.60400	-5
1.60767	-6
1.61133	-8
1.61500	-10
1.61867	-12
1.62233	-15
1.62600	-18
1.62967	-21
1.63333	-24
1.63700	-27
1.64067	-30
1.64433	-34
1.64800	-37
1.65167	-40
1.65533	-44
1.65900	-47
1.66267	-51
1.66633	-55
1.67000	-58
1.67367	-62
1.67733	-67
1.68100	-71
1.68467	-76
1.68833	-80
1.69200	-83
1.69567	-86
1.69933	-89
1.70300	-91
1.70667	-92
1.71033	-93
1.71400	-93
1.71767	-94
1.72133	-94
1.72500	-94
1.72867	-94
1.73233	-94
1.73600	-94
1.73967	-93
1.74333	-93
1.74700	-93
1.75067	-92
1.75433	-92
1.75800	-92
1.76167	-93
1.76533	-94
1.76900	-94
1.77267	-95
1.77633	-96
1.78000	-96
1.78367	-97
1.78733	-97
1.79100	-98
1.79467	-98
1.79833	-98
1.80200	-98
1.80567	-98
1.80933	-98
1.81300	-98
1.81667	-98
1.82033	-98
1.82400	-98
1.82767	-97
1.83133	-97
1.83500	-98
1.83867	-98
1.84233	-99
1.84600	-99
1.84967	-100
1.85333	-100
1.85700	-100
1.86067	-100
1.86433	-100
1.86800	-100
1.87167	-99
1.87533	-99
1.87900	-99
1.88267	-99
1.88633	-99
1.89000	-99
1.89367	-99
1.89733	-99
1.90100	-99
1.90467	-99
1.90833	-98
1.91200	-97
1.91567	-97
1.91933	-97
1.92300	-96
1.92667	-96
1.93033	-96
1.93400	-96
1.93767	-95
1.94133	-95
1.94500	-95
1.94867	-94
1.95233	-94
1.95600	-94
1.95967	-95
1.96333	-95
1.96700	-95
1.97067	-95
1.97433	-95
1.97800	-95
1.98167	-95
1.98533	-95
1.98900	-94
1.99267	-94
1.99633	-93
2.00000	-93
2.00367	-93
2.00733	-92
2.01100	-91
2.01467	-91
2.01833	-90
2.02200	-90
2.02567	-90
2.02933	-89
2.03300	-89
2.03667	-89
2.04033	-89
2.04400	-89
2.04767	-88
2.05133	-88
2.05500	-87
2.05867	-87
2.06233	-87
2.06600	-87
2.06967	-86
2.07333	-86
2.07700	-85
2.08067	-85
2.08433	-84
2.08800	-84
2.09167	-84
2.09533	-84
2.09900	-84
2.10267	-84
2.10633	-84
2.11000	-84
2.11367	-83
2.11733	-83
2.12100	-83
2.12467	-83
2.12833	-83
2.13200	-83
2.13567	-83
2.13933	-82
2.14300	-82
2.14667	-81
2.15033	-81
2.15400	-80
2.15767	-79
2.16133	-78
2.16500	-77
2.16867	-76
2.17233	-76
2.17600	-76
2.17967	-76
2.18333	-76
2.18700	-76
2.19067	-77
2.19433	-77
2.19800	-77
2.20167	-78
2.20533	-77
2.20900	-77
2.21267	-76
2.21633	-75
2.22000	-74
2.22367	-73
2.22733	-73
2.23100	-72
2.23467	-72
2.23833	-73
2.24200	-73
2.24567	-72
2.24933	-72
2.25300	-71
2.25667	-71
2.26033	-71
2.26400	-71
2.26767	-71
2.27133	-72
2.27500	-72
2.27867	-72
2.28233	-71
2.28600	-71
2.28967	-71
2.29333	-71
2.29700	-70
2.30067	-70
2.30433	-69
2.30800	-69
2.31167	-69
2.31533	-69
2.31900	-69
2.32267	-69
2.32633	-69
2.33000	-69
2.33367	-68
2.33733	-68
2.34100	-68
2.34467	-67
2.34833	-66
2.35200	-65
2.35567	-64
2.35933	-63
2.36300	-61
2.36667	-59
2.37033	-57
2.37400	-54
2.37767	-50
2.38133	-47
2.38500	-43
2.38867	-39
2.39233	-35
2.39600	-31
2.39967	-27
2.40333	-23
2.40700	-19
2.41067	-16
2.41433	-13
2.41800	-10
2.42167	-7
2.42533	-5
2.42900	-3
2.43267	-1
2.43633	1
2.44000	3
2.44367	4
2.44733	6
2.45100	7
2.45467	8
2.45833	9
2.46200	10
2.46567	10
2.46933	10
2.47300	11
2.47667	12
2.48033	12
2.48400	13
2.48767	13
2.49133	14
2.49500	14
2.49867	15
2.50233	15
2.50600	16
2.50967	17
2.51333	17
2.51700	18
2.52067	19
2.52433	19
2.52800	18
2.53167	18
2.53533	17
2.53900	17
2.54267	16
2.54633	16
2.55000	16
2.55367	15
2.55733	15
2.56100	14
2.56467	14
2.56833	14
2.57200	14
2.57567	14
2.57933	14
2.58300	14
2.58667	14
2.59033	14
2.59400	15
2.59767	15
2.60133	16
2.60500	16
2.60867	17
2.61233	17
2.61600	18
2.61967	18
2.62333	18
2.62700	17
2.63067	17
2.63433	17
2.63800	17
2.64167	17
2.64533	17
2.64900	18
2.65267	18
2.65633	19
2.66000	20
2.66367	20
2.66733	21
2.67100	21
2.67467	22
2.67833	23
2.68200	23
2.68567	24
2.68933	25
2.69300	25
2.69667	25
2.70033	25
2.70400	26
2.70767	26
2.71133	26
2.71500	26
2.71867	26
2.72233	26
2.72600	26
2.72967	26
2.73333	27
2.73700	27
2.74067	28
2.74433	28
2.74800	28
2.75167	29
2.75533	29
2.75900	29
2.76267	29
2.76633	29
2.77000	28
2.77367	28
2.77733	28
2.78100	28
2.78467	28
2.78833	28
2.79200	28
2.79567	28
2.79933	28
2.80300	28
2.80667	28
2.81033	29
2.81400	29
2.81767	29
2.82133	29
2.82500	29
2.82867	29
2.83233	29
2.83600	29
2.83967	29
2.84333	29
2.84700	29
2.85067	29
2.85433	29
2.85800	27
2.86167	25
2.86533	20
2.86900	13
2.87267	3
2.87633	-12
2.88000	-31
2.88367	-56
2.88733	-86
2.89100	-122
2.89467	-163
2.89833	-208
2.90200	-259
2.90567	-314
2.90933	-372
2.91300	-433
2.91667	-496
2.92033	-560
2.92400	-625
2.92767	-690
2.93133	-753
2.93500	-813
2.93867	-870
2.94233	-925
2.94600	-980
2.94967	-1035
2.95333	-1082
2.95700	-1112
2.96067	-1119
2.96433	-1100
2.96800	-1058
2.97167	-999
2.97533	-927
2.97900	-848
2.98267	-766
2.98633	-685
2.99000	-607
2.99367	-534
2.99733	-466
3.00100	-405
3.00467	-350
3.00833	-300
3.01200	-257
3.01567	-219
3.01933	-186
3.02300	-157
3.02667	-132
3.03033	-111
3.03400	-92
3.03767	-76
3.04133	-62
3.04500	-51
3.04867	-41
3.05233	-33
3.05600	-25
3.05967	-19
3.06333	-14
3.06700	-9
3.07067	-6
3.07433	-2
3.07800	0
3.08167	3
3.08533	5
3.08900	7
3.09267	8
3.09633	10
3.10000	11
3.10367	12
3.10733	13
3.11100	14
3.11467	15
3.11833	15
3.12200	16
3.12567	16
3.12933	17
3.13300	18
3.13667	18
3.14033	19
3.14400	19
3.14767	20
3.15133	20
3.15500	20
3.15867	21
3.16233	21
3.16600	21
3.16967	21
3.17333	22
3.17700	22
3.18067	22
3.18433	22
3.18800	22
3.19167	22
3.19533	23
3.19900	23
3.20267	23
3.20633	24
3.21000	24
3.21367	24
3.21733	24
3.22100	24
3.22467	25
3.22833	25
3.23200	25
3.23567	25
3.23933	25
3.24300	25
3.24667	25
3.25033	25
3.25400	25
3.25767	25
3.26133	25
3.26500	25
3.26867	25
3.27233	25
3.27600	26
3.27967	26
3.28333	26
3.28700	26
3.29067	26
3.29433	26
3.29800	27
3.30167	27
3.30533	27
3.30900	27
3.31267	27
3.31633	27
3.32000	27
3.32367	27
3.32733	27
3.33100	27
3.33467	27
3.33833	27
3.34200	27
3.34567	28
3.34933	28
3.35300	28
3.35667	29
3.36033	29
3.36400	30
3.36767	30
3.37133	30
3.37500	31
3.37867	31
3.38233	31
3.38600	31
3.38967	31
3.39333	31
3.39700	32
3.40067	31
3.40433	31
3.40800	31
3.41167	31
3.41533	31
3.41900	31
3.42267	31
3.42633	31
3.43000	31
3.43367	31
3.43733	31
3.44100	31
3.44467	31
3.44833	31
3.45200	31
3.45567	31
3.45933	31
3.46300	31
3.46667	31
3.47033	31
3.47400	31
3.47767	31
3.48133	31
3.48500	31
3.48867	31
3.49233	31
3.49600	31
3.49967	31
3.50333	30
3.50700	30
3.51067	30
3.51433	30
3.51800	30
3.52167	30
3.52533	30
3.52900	30
3.53267	30
3.53633	30
3.54000	30
3.54367	30
3.54733	30
3.55100	30
3.55467	30
3.55833	30
3.56200	31
3.56567	31
3.56933	31
3.57300	31
3.57667	31
3.58033	31
3.58400	31
3.58767	31
3.59133	31
3.59500	31
3.59867	31
3.60233	30
3.60600	30
3.60967	30
3.61333	30
3.61700	30
3.62067	30
3.62433	30
3.62800	30
3.63167	30
3.63533	30
3.63900	30
3.64267	30
3.64633	30
3.65000	30
3.65367	30
3.65733	30
3.66100	30
3.66467	30
3.66833	30
3.67200	30
3.67567	30
3.67933	30
3.68300	30
3.68667	30
3.69033	31
3.69400	31
3.69767	30
3.70133	30
3.70500	30
3.70867	30
3.71233	30
3.71600	30
3.71967	29
3.72333	29
3.72700	29
3.73067	29
3.73433	29
3.73800	29
3.74167	29
3.74533	30
3.74900	30
3.75267	29
3.75633	29
3.76000	29
3.76367	29
3.76733	29
3.77100	29
3.77467	29
3.77833	29
3.78200	29
3.78567	29
3.78933	29
3.79300	29
3.79667	29
3.80033	29
3.80400	30
3.80767	30
3.81133	30
3.81500	30
3.81867	30
3.82233	30
3.82600	31
3.82967	31
3.83333	31
3.83700	31
3.84067	31
3.84433	30
3.84800	30
3.85167	30
3.85533	30
3.85900	30
3.86267	30
3.86633	29
3.87000	29
3.87367	29
3.87733	29
3.88100	29
3.88467	29
3.88833	29
3.89200	29
3.89567	29
3.89933	29
3.90300	29
3.90667	29
3.91033	29
3.91400	29
3.91767	29
3.92133	29
3.92500	29
3.92867	29
3.93233	29
3.93600	29
3.93967	29
3.94333	29
3.94700	30
3.95067	30
3.95433	30
3.95800	30
3.96167	30
3.96533	30
3.96900	30
3.97267	30
3.97633	30
3.98000	30
3.98367	30
3.98733	30
3.99100	30
3.99467	30
3.99833	30

[Chromatogram (Ch3)]
Interval(msec)	220
# of Points	1091
Start Time(min)	0.002
End Time(min)	3.998
R.Time (min)	Intensity
0.00167	2
0.00533	5
0.00900	5
0.01267	3
0.01633	2
0.02000	2
0.02367	2
0.02733	3
0.03100	3
0.03467	3
0.03833	3
0.04200	2
0.04567	2
0.04933	0
0.05300	0
0.05667	2
0.06033	4
0.06400	5
0.06767	6
0.07133	5
0.07500	5
0.07867	3
0.08233	1
0.08600	1
0.08967	-0
0.09333	0
0.09700	2
0.10067	3
0.10433	5
0.10800	7
0.11167	9
0.11533	8
0.11900	8
0.12267	8
0.12633	9
0.13000	8
0.13367	7
0.13733	6
0.14100	5
0.14467	2
0.14833	1
0.15200	-1
0.15567	-4
0.15933	-4
0.16300	-1
0.16667	1
0.17033	-1
0.17400	-2
0.17767	-4
0.18133	-4
0.18500	-2
0.18867	0
0.19233	1
0.19600	3
0.19967	4
0.20333	4
0.20700	3
0.21067	3
0.21433	2
0.21800	-0
0.22167	-1
0.22533	1
0.22900	2
0.23267	5
0.23633	7
0.24000	9
0.24367	8
0.24733	6
0.25100	6
0.25467	5
0.25833	7
0.26200	7
0.26567	4
0.26933	1
0.27300	2
0.27667	1
0.28033	0
0.28400	1
0.28767	0
0.29133	1
0.29500	3
0.29867	7
0.30233	9
0.30600	12
0.30967	12
0.31333	11
0.31700	9
0.32067	9
0.32433	10
0.32800	10
0.33167	9
0.33533	8
0.33900	7
0.34267	6
0.34633	5
0.35000	4
0.35367	6
0.35733	8
0.36100	10
0.36467	11
0.36833	11
0.37200	8
0.37567	6
0.37933	7
0.38300	8
0.38667	10
0.39033	11
0.39400	10
0.39767	9
0.40133	8
0.40500	5
0.40867	4
0.41233	3
0.41600	3
0.41967	5
0.42333	9
0.42700	9
0.43067	5
0.43433	1
0.43800	-1
0.44167	-2
0.44533	-0
0.44900	2
0.45267	3
0.45633	3
0.46000	4
0.46367	7
0.46733	8
0.47100	7
0.47467	7
0.47833	7
0.48200	8
0.48567	8
0.48933	9
0.49300	10
0.49667	11
0.50033	11
0.50400	10
0.50767	10
0.51133	10
0.51500	10
0.51867	10
0.52233	9
0.52600	9
0.52967	9
0.53333	8
0.53700	4
0.54067	3
0.54433	5
0.54800	8
0.55167	8
0.55533	8
0.55900	8
0.56267	6
0.56633	4
0.57000	3
0.57367	3
0.57733	5
0.58100	9
0.58467	11
0.58833	11
0.59200	13
0.59567	13
0.59933	13
0.60300	15
0.60667	15
0.61033	12
0.61400	8
0.61767	6
0.62133	7
0.62500	9
0.62867	10
0.63233	9
0.63600	11
0.63967	12
0.64333	13
0.64700	12
0.65067	10
0.65433	9
0.65800	8
0.66167	7
0.66533	8
0.66900	7
0.67267	7
0.67633	8
0.68000	9
0.68367	11
0.68733	12
0.69100	11
0.69467	12
0.69833	14
0.70200	15
0.70567	15
0.70933	15
0.71300	14
0.71667	10
0.72033	10
0.72400	11
0.72767	11
0.73133	11
0.73500	11
0.73867	13
0.74233	14
0.74600	15
0.74967	13
0.75333	9
0.75700	8
0.76067	8
0.76433	8
0.76800	8
0.77167	9
0.77533	8
0.77900	9
0.78267	10
0.78633	11
0.79000	12
0.79367	13
0.79733	13
0.80100	13
0.80467	13
0.80833	13
0.81200	13
0.81567	13
0.81933	14
0.82300	13
0.82667	13
0.83033	12
0.83400	12
0.83767	13
0.84133	15
0.84500	15
0.84867	15
0.85233	16
0.85600	17
0.85967	17
0.86333	16
0.86700	16
0.87067	16
0.87433	17
0.87800	20
0.88167	20
0.88533	18
0.88900	16
0.89267	14
0.89633	14
0.90000	12
0.90367	11
0.90733	11
0.91100	9
0.91467	9
0.91833	10
0.92200	11
0.92567	10
0.92933	8
0.93300	8
0.93667	9
0.94033	11
0.94400	14
0.94767	17
0.95133	18
0.95500	18
0.95867	18
0.96233	18
0.96600	20
0.96967	24
0.97333	23
0.97700	21
0.98067	17
0.98433	14
0.98800	14
0.99167	16
0.99533	16
0.99900	16
1.00267	18
1.00633	19
1.01000	18
1.01367	16
1.01733	17
1.02100	16
1.02467	17
1.02833	17
1.03200	16
1.03567	16
1.03933	15
1.04300	16
1.04667	17
1.05033	18
1.05400	17
1.05767	16
1.06133	14
1.06500	11
1.06867	9
1.07233	8
1.07600	10
1.07967	13
1.08333	12
1.08700	11
1.09067	14
1.09433	15
1.09800	13
1.10167	11
1.10533	11
1.10900	12
1.11267	12
1.11633	12
1.12000	13
1.12367	14
1.12733	14
1.13100	15
1.13467	16
1.13833	15
1.14200	15
1.14567	13
1.14933	15
1.15300	15
1.15667	13
1.16033	12
1.16400	14
1.16767	18
1.17133	18
1.17500	17
1.17867	16
1.18233	16
1.18600	17
1.18967	18
1.19333	19
1.19700	19
1.20067	21
1.20433	22
1.20800	24
1.21167	25
1.21533	25
1.21900	23
1.22267	21
1.22633	19
1.23000	16
1.23367	16
1.23733	18
1.24100	18
1.24467	17
1.24833	16
1.25200	16
1.25567	16
1.25933	17
1.26300	17
1.26667	19
1.27033	19
1.27400	16
1.27767	15
1.28133	16
1.28500	15
1.28867	12
1.29233	10
1.29600	9
1.29967	9
1.30333	11
1.30700	14
1.31067	16
1.31433	17
1.31800	18
1.32167	20
1.32533	20
1.32900	21
1.33267	20
1.33633	18
1.34000	16
1.34367	16
1.34733	16
1.35100	14
1.35467	14
1.35833	13
1.36200	15
1.36567	18
1.36933	21
1.37300	21
1.37667	22
1.38033	24
1.38400	24
1.38767	23
1.39133	20
1.39500	18
1.39867	17
1.40233	17
1.40600	18
1.40967	22
1.41333	23
1.41700	22
1.42067	22
1.42433	20
1.42800	18
1.43167	16
1.43533	14
1.43900	15
1.44267	16
1.44633	15
1.45000	13
1.45367	13
1.45733	13
1.46100	14
1.46467	18
1.46833	21
1.47200	23
1.47567	24
1.47933	22
1.48300	19
1.48667	17
1.49033	15
1.49400	15
1.49767	19
1.50133	22
1.50500	25
1.50867	26
1.51233	27
1.51600	27
1.51967	25
1.52333	21
1.52700	21
1.53067	22
1.53433	22
1.53800	22
1.54167	20
1.54533	17
1.54900	16
1.55267	17
1.55633	18
1.56000	19
1.56367	19
1.56733	19
1.57100	17
1.57467	16
1.57833	16
1.58200	17
1.58567	19
1.58933	21
1.59300	22
1.59667	20
1.60033	18
1.60400	18
1.60767	17
1.61133	16
1.61500	15
1.61867	13
1.62233	14
1.62600	13
1.62967	14
1.63333	16
1.63700	18
1.64067	19
1.64433	20
1.64800	20
1.65167	22
1.65533	23
1.65900	24
1.66267	24
1.66633	24
1.67000	25
1.67367	25
1.67733	22
1.68100	21
1.68467	19
1.68833	19
1.69200	20
1.69567	19
1.69933	19
1.70300	21
1.70667	24
1.71033	24
1.71400	25
1.71767	25
1.72133	24
1.72500	25
1.72867	26
1.73233	27
1.73600	27
1.73967	26
1.74333	24
1.74700	24
1.75067	25
1.75433	27
1.75800	25
1.76167	23
1.76533	24
1.76900	25
1.77267	25
1.77633	27
1.78000	27
1.78367	29
1.78733	30
1.79100	30
1.79467	29
1.79833	28
1.80200	28
1.80567	28
1.80933	27
1.81300	28
1.81667	28
1.82033	29
1.82400	29
1.82767	29
1.83133	30
1.83500	32
1.83867	32
1.84233	31
1.84600	31
1.84967	33
1.85333	33
1.85700	31
1.86067	28
1.86433	28
1.86800	29
1.87167	32
1.87533	35
1.87900	37
1.88267	36
1.88633	33
1.89000	34
1.89367	35
1.89733	33
1.90100	31
1.90467	30
1.90833	31
1.91200	34
1.91567	37
1.91933	39
1.92300	39
1.92667	41
1.93033	46
1.93400	47
1.93767	48
1.94133	48
1.94500	48
1.94867	47
1.95233	47
1.95600	48
1.95967	48
1.96333	49
1.96700	51
1.97067	52
1.97433	49
1.97800	47
1.98167	49
1.98533	52
1.98900	52
1.99267	52
1.99633	53
2.00000	53
2.00367	54
2.00733	55
2.01100	55
2.01467	53
2.01833	52
2.02200	51
2.02567	53
2.02933	55
2.03300	54
2.03667	55
2.04033	56
2.04400	58
2.04767	60
2.05133	62
2.05500	62
2.05867	63
2.06233	65
2.06600	66
2.06967	67
2.07333	67
2.07700	64
2.08067	62
2.08433	62
2.08800	63
2.09167	64
2.09533	68
2.09900	71
2.10267	72
2.10633	70
2.11000	69
2.11367	72
2.11733	75
2.12100	77
2.12467	78
2.12833	75
2.13200	74
2.13567	74
2.13933	76
2.14300	77
2.14667	78
2.15033	76
2.15400	74
2.15767	74
2.16133	74
2.16500	76
2.16867	78
2.17233	79
2.17600	80
2.17967	83
2.18333	85
2.18700	86
2.19067	84
2.19433	84
2.19800	83
2.20167	81
2.20533	82
2.20900	82
2.21267	83
2.21633	83
2.22000	84
2.22367	83
2.22733	83
2.23100	84
2.23467	85
2.23833	87
2.24200	88
2.24567	88
2.24933	88
2.25300	89
2.25667	89
2.26033	93
2.26400	95
2.26767	94
2.27133	93
2.27500	93
2.27867	94
2.28233	94
2.28600	95
2.28967	96
2.29333	96
2.29700	96
2.30067	96
2.30433	97
2.30800	100
2.31167	103
2.31533	105
2.31900	106
2.32267	107
2.32633	107
2.33000	104
2.33367	101
2.33733	100
2.34100	101
2.34467	101
2.34833	100
2.35200	101
2.35567	104
2.35933	107
2.36300	107
2.36667	106
2.37033	104
2.37400	102
2.37767	100
2.38133	100
2.38500	100
2.38867	94
2.39233	92
2.39600	95
2.39967	101
2.40333	109
2.40700	115
2.41067	118
2.41433	122
2.41800	126
2.42167	128
2.42533	129
2.42900	130
2.43267	129
2.43633	126
2.44000	131
2.44367	177
2.44733	255
2.45100	325
2.45467	372
2.45833	390
2.46200	383
2.46567	369
2.46933	359
2.47300	349
2.47667	336
2.48033	316
2.48400	293
2.48767	270
2.49133	251
2.49500	237
2.49867	228
2.50233	225
2.50600	224
2.50967	226
2.51333	233
2.51700	241
2.52067	245
2.52433	244
2.52800	236
2.53167	226
2.53533	213
2.53900	198
2.54267	189
2.54633	182
2.55000	175
2.55367	168
2.55733	161
2.56100	157
2.56467	155
2.56833	153
2.57200	151
2.57567	153
2.57933	159
2.58300	163
2.58667	168
2.59033	176
2.59400	184
2.59767	190
2.60133	196
2.60500	204
2.60867	212
2.61233	219
2.61600	222
2.61967	222
2.62333	219
2.62700	213
2.63067	204
2.63433	198
2.63800	190
2.64167	180
2.64533	171
2.64900	166
2.65267	159
2.65633	154
2.66000	150
2.66367	147
2.66733	143
2.67100	138
2.67467	135
2.67833	133
2.68200	132
2.68567	130
2.68933	126
2.69300	121
2.69667	119
2.70033	119
2.70400	119
2.70767	121
2.71133	123
2.71500	125
2.71867	124
2.72233	122
2.72600	123
2.72967	127
2.73333	130
2.73700	130
2.74067	131
2.74433	132
2.74800	133
2.75167	136
2.75533	138
2.75900	139
2.76267	139
2.76633	140
2.77000	142
2.77367	145
2.77733	149
2.78100	150
2.78467	151
2.78833	152
2.79200	154
2.79567	157
2.79933	161
2.80300	162
2.80667	164
2.81033	167
2.81400	173
2.81767	178
2.82133	181
2.82500	182
2.82867	182
2.83233	182
2.83600	184
2.83967	200
2.84333	240
2.84700	312
2.85067	436
2.85433	633
2.85800	917
2.86167	1289
2.86533	1733
2.86900	2222
2.87267	2720
2.87633	3185
2.88000	3578
2.88367	3870
2.88733	4037
2.89100	4080
2.89467	4016
2.89833	3860
2.90200	3638
2.90567	3374
2.90933	3091
2.91300	2803
2.91667	2520
2.92033	2251
2.92400	1999
2.92767	1772
2.93133	1565
2.93500	1379
2.93867	1212
2.94233	1066
2.94600	941
2.94967	832
2.95333	737
2.95700	656
2.96067	586
2.96433	523
2.96800	465
2.97167	409
2.97533	366
2.97900	351
2.98267	366
2.98633	400
2.99000	446
2.99367	501
2.99733	560
3.00100	619
3.00467	678
3.00833	732
3.01200	783
3.01567	829
3.01933	867
3.02300	899
3.02667	923
3.03033	942
3.03400	959
3.03767	973
3.04133	980
3.04500	983
3.04867	986
3.05233	984
3.05600	981
3.05967	981
3.06333	982
3.06700	980
3.07067	977
3.07433	971
3.07800	965
3.08167	960
3.08533	956
3.08900	948
3.09267	941
3.09633	937
3.10000	935
3.10367	933
3.10733	932
3.11100	929
3.11467	926
3.11833	922
3.12200	921
3.12567	921
3.12933	918
3.13300	917
3.13667	915
3.14033	911
3.14400	909
3.14767	907
3.15133	904
3.15500	902
3.15867	901
3.16233	900
3.16600	896
3.16967	893
3.17333	890
3.17700	889
3.18067	887
3.18433	883
3.18800	881
3.19167	879
3.19533	878
3.19900	876
3.20267	873
3.20633	869
3.21000	865
3.21367	861
3.21733	859
3.22100	858
3.22467	854
3.22833	850
3.23200	848
3.23567	846
3.23933	844
3.24300	838
3.24667	835
3.25033	834
3.25400	832
3.25767	829
3.26133	825
3.26500	822
3.26867	819
3.27233	814
3.27600	810
3.27967	811
3.28333	811
3.28700	814
3.29067	819
3.29433	820
3.29800	821
3.30167	823
3.30533	826
3.30900	832
3.31267	838
3.31633	845
3.32000	856
3.32367	869
3.32733	879
3.33100	889
3.33467	899
3.33833	908
3.34200	916
3.34567	929
3.34933	943
3.35300	955
3.35667	967
3.36033	978
3.36400	989
3.36767	1000
3.37133	1012
3.37500	1024
3.37867	1034
3.38233	1042
3.38600	1049
3.38967	1055
3.39333	1061
3.39700	1064
3.40067	1064
3.40433	1062
3.40800	1056
3.41167	1050
3.41533	1047
3.41900	1043
3.42267	1038
3.42633	1032
3.43000	1022
3.43367	1010
3.43733	1000
3.44100	989
3.44467	978
3.44833	964
3.45200	950
3.45567	935
3.45933	919
3.46300	904
3.46667	891
3.47033	877
3.47400	864
3.47767	849
3.48133	835
3.48500	822
3.48867	808
3.49233	795
3.49600	787
3.49967	783
3.50333	776
3.50700	766
3.51067	756
3.51433	750
3.51800	745
3.52167	739
3.52533	735
3.52900	728
3.53267	719
3.53633	713
3.54000	711
3.54367	710
3.54733	706
3.55100	703
3.55467	700
3.55833	696
3.56200	693
3.56567	688
3.56933	683
3.57300	679
3.57667	677
3.58033	675
3.58400	671
3.58767	671
3.59133	670
3.59500	664
3.59867	658
3.60233	657
3.60600	655
3.60967	651
3.61333	649
3.61700	650
3.62067	646
3.62433	640
3.62800	635
3.63167	629
3.63533	624
3.63900	620
3.64267	617
3.64633	617
3.65000	614
3.65367	611
3.65733	610
3.66100	609
3.66467	606
3.66833	606
3.67200	604
3.67567	602
3.67933	602
3.68300	602
3.68667	601
3.69033	599
3.69400	597
3.69767	597
3.70133	598
3.70500	598
3.70867	599
3.71233	596
3.71600	592
3.71967	591
3.72333	591
3.72700	589
3.73067	588
3.73433	587
3.73800	587
3.74167	585
3.74533	583
3.74900	581
3.75267	580
3.75633	579
3.76000	577
3.76367	574
3.76733	572
3.77100	574
3.77467	574
3.77833	574
3.78200	572
3.78567	570
3.78933	570
3.79300	571
3.79667	568
3.80033	565
3.80400	563
3.80767	562
3.81133	561
3.81500	558
3.81867	555
3.82233	553
3.82600	550
3.82967	549
3.83333	551
3.83700	551
3.84067	549
3.84433	547
3.84800	546
3.85167	544
3.85533	543
3.85900	541
3.86267	540
3.86633	541
3.87000	541
3.87367	539
3.87733	536
3.88100	534
3.88467	532
3.88833	534
3.89200	534
3.89567	534
3.89933	536
3.90300	535
3.90667	534
3.91033	532
3.91400	530
3.91767	529
3.92133	528
3.92500	526
3.92867	524
3.93233	521
3.93600	520
3.93967	518
3.94333	517
3.94700	519
3.95067	519
3.95433	519
3.95800	517
3.96167	516
3.96533	515
3.96900	511
3.97267	510
3.97633	508
3.98000	509
3.98367	505
3.98733	499
3.99100	497
3.99467	495
3.99833	489

[Status Trace (Column Oven Temperature)]
Interval(msec)	1000
# of Points	240
Start Time(min)	0.002
End Time(min)	3.985
Intensity Units	
Intensity Multiplier	1
R.Time (min)	Intensity
0.00200	35.05
0.01867	35.05
0.03533	35.05
0.05200	35.05
0.06867	35.05
0.08533	35.05
0.10200	35.04
0.11867	35.04
0.13533	35.04
0.15200	35.04
0.16867	35.05
0.18533	35.05
0.20200	35.03
0.21867	35.03
0.23533	35.02
0.25200	35.03
0.26867	35.02
0.28533	35.03
0.30200	35.03
0.31867	35.03
0.33533	35.03
0.35200	35.02
0.36867	35.02
0.38533	35.02
0.40200	35.02
0.41867	35.03
0.43533	35.02
0.45200	35.02
0.46867	35.02
0.48533	35.02
0.50200	35.02
0.51867	35.01
0.53533	35.01
0.55200	35.01
0.56867	35.00
0.58533	35.00
0.60200	34.99
0.61867	34.99
0.63533	34.99
0.65200	34.99
0.66867	35.00
0.68533	35.00
0.70200	35.00
0.71867	35.00
0.73533	35.00
0.75200	35.00
0.76867	35.00
0.78533	35.00
0.80200	35.00
0.81867	35.00
0.83533	35.00
0.85200	35.00
0.86867	34.99
0.88533	34.99
0.90200	34.99
0.91867	34.99
0.93533	35.00
0.95200	34.99
0.96867	35.00
0.98533	34.99
1.00200	34.99
1.01867	34.99
1.03533	34.99
1.05200	34.99
1.06867	34.99
1.08533	34.99
1.10200	34.99
1.11867	34.99
1.13533	34.99
1.15200	35.00
1.16867	35.01
1.18533	35.01
1.20200	35.01
1.21867	35.01
1.23533	35.00
1.25200	35.00
1.26867	35.00
1.28533	34.99
1.30200	34.99
1.31867	35.00
1.33533	35.01
1.35200	35.01
1.36867	35.00
1.38533	35.00
1.40200	35.00
1.41867	35.00
1.43533	35.00
1.45200	34.99
1.46867	35.00
1.48533	34.99
1.50200	34.98
1.51867	34.98
1.53533	34.98
1.55200	34.99
1.56867	34.99
1.58533	35.00
1.60200	35.03
1.61867	35.13
1.63533	35.30
1.65200	35.53
1.66867	35.84
1.68533	36.22
1.70200	36.57
1.71867	36.92
1.73533	37.23
1.75200	37.55
1.76867	37.89
1.78533	38.23
1.80200	38.57
1.81867	38.89
1.83533	39.23
1.85200	39.57
1.86867	39.89
1.88533	40.22
1.90200	40.56
1.91867	40.88
1.93533	41.21
1.95200	41.53
1.96867	41.88
1.98533	42.21
2.00200	42.53
2.01867	42.86
2.03533	43.19
2.05200	43.51
2.06867	43.84
2.08533	44.16
2.10200	44.48
2.11867	44.81
2.13533	45.16
2.15200	45.47
2.16867	45.79
2.18533	46.13
2.20200	46.46
2.21867	46.76
2.23533	47.10
2.25200	47.41
2.26867	47.75
2.28533	48.08
2.30200	48.40
2.31867	48.74
2.33533	49.08
2.35200	49.39
2.36867	49.60
2.38533	49.68
2.40200	49.67
2.41867	49.66
2.43533	49.68
2.45200	49.67
2.46867	49.69
2.48533	49.72
2.50200	49.73
2.51867	49.74
2.53533	49.76
2.55200	49.78
2.56867	49.78
2.58533	49.79
2.60200	49.79
2.61867	49.81
2.63533	49.84
2.65200	49.85
2.66867	49.85
2.68533	49.84
2.70200	49.86
2.71867	49.86
2.73533	49.85
2.75200	49.85
2.76867	49.87
2.78533	49.89
2.80200	49.89
2.81867	49.89
2.83533	49.89
2.85200	49.89
2.86867	49.88
2.88533	49.89
2.90200	49.90
2.91867	49.91
2.93533	49.92
2.95200	49.94
2.96867	49.95
2.98533	49.96
3.00200	49.97
3.01867	49.98
3.03533	49.99
3.05200	49.99
3.06867	50.00
3.08533	50.00
3.10200	50.01
3.11867	50.02
3.13533	50.02
3.15200	50.04
3.16867	50.05
3.18533	50.05
3.20200	50.06
3.21867	50.07
3.23533	50.07
3.25200	50.07
3.26867	50.08
3.28533	50.09
3.30200	50.10
3.31867	50.10
3.33533	50.11
3.35200	50.10
3.36867	50.09
3.38533	50.09
3.40200	50.08
3.41867	50.08
3.43533	50.07
3.45200	50.06
3.46867	50.06
3.48533	50.05
3.50200	50.05
3.51867	50.05
3.53533	50.05
3.55200	50.05
3.56867	50.04
3.58533	50.04
3.60200	50.05
3.61867	50.05
3.63533	50.05
3.65200	50.04
3.66867	50.04
3.68533	50.04
3.70200	50.05
3.71867	50.06
3.73533	50.06
3.75200	50.06
3.76867	50.06
3.78533	50.07
3.80200	50.06
3.81867	50.06
3.83533	50.05
3.85200	50.06
3.86867	50.05
3.88533	50.05
3.90200	50.06
3.91867	50.06
3.93533	50.06
3.95200	50.07
3.96867	50.06
3.98533	50.06

[Status Trace (Injection Unit Temperature)]
Interval(msec)	1000
# of Points	240
Start Time(min)	0.002
End Time(min)	3.985
Intensity Units	
Intensity Multiplier	1
R.Time (min)	Intensity
0.00200	99.98
0.01867	99.98
0.03533	99.98
0.05200	99.98
0.06867	99.98
0.08533	99.98
0.10200	99.98
0.11867	99.98
0.13533	99.98
0.15200	99.98
0.16867	99.98
0.18533	99.98
0.20200	99.98
0.21867	99.98
0.23533	99.98
0.25200	99.98
0.26867	99.98
0.28533	99.98
0.30200	99.98
0.31867	99.98
0.33533	99.98
0.35200	99.98
0.36867	99.98
0.38533	99.98
0.40200	99.98
0.41867	99.98
0.43533	99.99
0.45200	99.98
0.46867	99.98
0.48533	99.98
0.50200	99.99
0.51867	99.98
0.53533	99.98
0.55200	99.98
0.56867	99.99
0.58533	99.98
0.60200	99.99
0.61867	99.98
0.63533	99.98
0.65200	99.98
0.66867	99.98
0.68533	99.98
0.70200	99.98
0.71867	99.99
0.73533	99.98
0.75200	99.98
0.76867	99.98
0.78533	99.98
0.80200	99.98
0.81867	99.98
0.83533	99.98
0.85200	99.99
0.86867	99.98
0.88533	99.98
0.90200	99.98
0.91867	99.98
0.93533	99.98
0.95200	99.98
0.96867	99.98
0.98533	99.98
1.00200	99.98
1.01867	99.98
1.03533	99.98
1.05200	99.98
1.06867	99.98
1.08533	99.98
1.10200	99.98
1.11867	99.98
1.13533	99.98
1.15200	99.98
1.16867	99.98
1.18533	99.98
1.20200	99.98
1.21867	99.98
1.23533	99.98
1.25200	99.98
1.26867	99.98
1.28533	99.98
1.30200	99.98
1.31867	99.98
1.33533	99.98
1.35200	99.98
1.36867	99.98
1.38533	99.98
1.40200	99.98
1.41867	99.98
1.43533	99.98
1.45200	99.98
1.46867	99.98
1.48533	99.98
1.50200	99.98
1.51867	99.99
1.53533	99.98
1.55200	99.98
1.56867	99.99
1.58533	99.98
1.60200	99.98
1.61867	99.98
1.63533	99.99
1.65200	99.98
1.66867	99.98
1.68533	99.99
1.70200	99.99
1.71867	99.98
1.73533	99.99
1.75200	99.98
1.76867	99.99
1.78533	99.99
1.80200	99.98
1.81867	99.98
1.83533	99.98
1.85200	99.98
1.86867	99.99
1.88533	99.98
1.90200	99.98
1.91867	99.98
1.93533	99.98
1.95200	99.98
1.96867	99.98
1.98533	99.98
2.00200	99.97
2.01867	99.97
2.03533	99.98
2.05200	99.98
2.06867	99.97
2.08533	99.97
2.10200	99.97
2.11867	99.98
2.13533	99.97
2.15200	99.97
2.16867	99.97
2.18533	99.97
2.20200	99.97
2.21867	99.97
2.23533	99.96
2.25200	99.97
2.26867	99.96
2.28533	99.96
2.30200	99.96
2.31867	99.96
2.33533	99.96
2.35200	99.96
2.36867	99.96
2.38533	99.96
2.40200	99.96
2.41867	99.96
2.43533	99.96
2.45200	99.96
2.46867	99.96
2.48533	99.96
2.50200	99.96
2.51867	99.96
2.53533	99.96
2.55200	99.96
2.56867	99.97
2.58533	99.97
2.60200	99.97
2.61867	99.97
2.63533	99.97
2.65200	99.97
2.66867	99.97
2.68533	99.97
2.70200	99.98
2.71867	99.98
2.73533	99.98
2.75200	99.98
2.76867	99.98
2.78533	99.98
2.80200	99.99
2.81867	99.99
2.83533	99.99
2.85200	99.99
2.86867	99.99
2.88533	100.00
2.90200	99.99
2.91867	100.00
2.93533	100.00
2.95200	100.00
2.96867	100.00
2.98533	100.01
3.00200	100.01
3.01867	100.01
3.03533	100.01
3.05200	100.01
3.06867	100.01
3.08533	100.01
3.10200	100.01
3.11867	100.02
3.13533	100.02
3.15200	100.02
3.16867	100.02
3.18533	100.02
3.20200	100.02
3.21867	100.02
3.23533	100.02
3.25200	100.03
3.26867	100.03
3.28533	100.03
3.30200	100.03
3.31867	100.03
3.33533	100.03
3.35200	100.03
3.36867	100.03
3.38533	100.03
3.40200	100.04
3.41867	100.03
3.43533	100.04
3.45200	100.03
3.46867	100.04
3.48533	100.04
3.50200	100.04
3.51867	100.04
3.53533	100.04
3.55200	100.04
3.56867	100.04
3.58533	100.04
3.60200	100.05
3.61867	100.04
3.63533	100.04
3.65200	100.04
3.66867	100.04
3.68533	100.05
3.70200	100.05
3.71867	100.05
3.73533	100.05
3.75200	100.05
3.76867	100.05
3.78533	100.05
3.80200	100.05
3.81867	100.05
3.83533	100.05
3.85200	100.05
3.86867	100.05
3.88533	100.05
3.90200	100.05
3.91867	100.05
3.93533	100.05
3.95200	100.05
3.96867	100.05
3.98533	100.05

[Status Trace (Carrier Gas Pressure)]
Interval(msec)	1000
# of Points	240
Start Time(min)	0.002
End Time(min)	3.985
Intensity Units	
Intensity Multiplier	1
R.Time (min)	Intensity
0.00200	58.00
0.01867	56.29
0.03533	56.16
0.05200	58.47
0.06867	59.90
0.08533	58.39
0.10200	57.97
0.11867	58.00
0.13533	58.01
0.15200	58.01
0.16867	58.00
0.18533	58.00
0.20200	58.00
0.21867	58.00
0.23533	58.00
0.25200	58.00
0.26867	58.00
0.28533	58.00
0.30200	58.00
0.31867	58.00
0.33533	58.00
0.35200	58.00
0.36867	58.00
0.38533	58.00
0.40200	58.00
0.41867	58.00
0.43533	58.00
0.45200	58.00
0.46867	58.00
0.48533	58.00
0.50200	58.00
0.51867	58.00
0.53533	58.00
0.55200	58.00
0.56867	58.00
0.58533	58.00
0.60200	58.00
0.61867	58.00
0.63533	58.00
0.65200	58.00
0.66867	58.00
0.68533	58.00
0.70200	58.00
0.71867	58.00
0.73533	58.00
0.75200	58.00
0.76867	58.00
0.78533	58.00
0.80200	58.00
0.81867	58.00
0.83533	58.00
0.85200	58.00
0.86867	58.00
0.88533	58.00
0.90200	58.00
0.91867	58.00
0.93533	58.00
0.95200	58.00
0.96867	58.00
0.98533	58.00
1.00200	58.00
1.01867	58.00
1.03533	58.00
1.05200	58.00
1.06867	58.00
1.08533	58.00
1.10200	58.00
1.11867	58.00
1.13533	58.00
1.15200	58.00
1.16867	58.00
1.18533	58.00
1.20200	58.00
1.21867	58.00
1.23533	58.00
1.25200	58.00
1.26867	58.00
1.28533	58.00
1.30200	58.00
1.31867	58.00
1.33533	58.00
1.35200	58.00
1.36867	58.00
1.38533	58.00
1.40200	58.00
1.41867	58.00
1.43533	58.00
1.45200	58.00
1.46867	58.00
1.48533	58.00
1.50200	58.00
1.51867	58.00
1.53533	58.00
1.55200	58.00
1.56867	58.00
1.58533	58.00
1.60200	58.00
1.61867	58.00
1.63533	58.00
1.65200	58.00
1.66867	58.01
1.68533	58.01
1.70200	58.00
1.71867	58.00
1.73533	58.00
1.75200	58.00
1.76867	58.00
1.78533	58.00
1.80200	58.00
1.81867	58.00
1.83533	58.00
1.85200	58.00
1.86867	58.00
1.88533	58.00
1.90200	58.00
1.91867	58.00
1.93533	58.00
1.95200	58.00
1.96867	58.00
1.98533	58.00
2.00200	58.00
2.01867	58.00
2.03533	58.00
2.05200	58.00
2.06867	58.00
2.08533	58.00
2.10200	58.00
2.11867	58.00
2.13533	58.00
2.15200	58.00
2.16867	58.00
2.18533	58.00
2.20200	58.00
2.21867	58.00
2.23533	58.00
2.25200	58.00
2.26867	58.00
2.28533	58.00
2.30200	58.00
2.31867	58.00
2.33533	58.00
2.35200	58.00
2.36867	58.00
2.38533	57.99
2.40200	57.99
2.41867	58.00
2.43533	58.00
2.45200	58.00
2.46867	58.00
2.48533	58.00
2.50200	57.99
2.51867	58.02
2.53533	57.99
2.55200	58.00
2.56867	58.00
2.58533	58.00
2.60200	58.00
2.61867	58.00
2.63533	58.00
2.65200	58.00
2.66867	58.00
2.68533	58.00
2.70200	58.00
2.71867	58.00
2.73533	58.00
2.75200	58.00
2.76867	58.00
2.78533	58.00
2.80200	58.00
2.81867	58.00
2.83533	58.00
2.85200	58.00
2.86867	58.00
2.88533	58.00
2.90200	58.00
2.91867	58.00
2.93533	58.00
2.95200	58.00
2.96867	58.00
2.98533	58.00
3.00200	58.00
3.01867	58.00
3.03533	58.00
3.05200	58.00
3.06867	58.00
3.08533	58.00
3.10200	58.00
3.11867	58.00
3.13533	58.00
3.15200	58.00
3.16867	58.00
3.18533	58.00
3.20200	58.00
3.21867	58.00
3.23533	58.00
3.25200	58.00
3.26867	58.00
3.28533	58.00
3.30200	58.00
3.31867	58.00
3.33533	58.00
3.35200	58.00
3.36867	58.00
3.38533	58.00
3.40200	58.00
3.41867	58.00
3.43533	58.00
3.45200	58.00
3.46867	58.00
3.48533	58.00
3.50200	58.00
3.51867	58.00
3.53533	58.00
3.55200	58.00
3.56867	58.00
3.58533	58.00
3.60200	58.00
3.61867	58.00
3.63533	58.00
3.65200	58.00
3.66867	58.00
3.68533	58.00
3.70200	58.00
3.71867	58.00
3.73533	58.00
3.75200	58.00
3.76867	58.00
3.78533	58.00
3.80200	58.00
3.81867	58.00
3.83533	58.00
3.85200	58.00
3.86867	58.00
3.88533	58.00
3.90200	58.00
3.91867	58.00
3.93533	58.00
3.95200	58.00
3.96867	58.00
3.98533	58.00

[Status Trace (Carrier Gas Flow)]
Interval(msec)	1000
# of Points	240
Start Time(min)	0.002
End Time(min)	3.985
Intensity Units	
Intensity Multiplier	1
R.Time (min)	Intensity
0.00200	34.52
0.01867	34.54
0.03533	34.55
0.05200	34.55
0.06867	34.49
0.08533	34.52
0.10200	34.52
0.11867	34.52
0.13533	34.52
0.15200	34.52
0.16867	34.52
0.18533	34.52
0.20200	34.52
0.21867	34.52
0.23533	34.51
0.25200	34.52
0.26867	34.52
0.28533	34.52
0.30200	34.52
0.31867	34.52
0.33533	34.52
0.35200	34.51
0.36867	34.52
0.38533	34.52
0.40200	34.51
0.41867	34.52
0.43533	34.53
0.45200	34.52
0.46867	34.51
0.48533	34.52
0.50200	34.52
0.51867	34.52
0.53533	34.52
0.55200	34.52
0.56867	34.52
0.58533	34.52
0.60200	34.52
0.61867	34.52
0.63533	34.52
0.65200	34.52
0.66867	34.52
0.68533	34.51
0.70200	34.52
0.71867	34.52
0.73533	34.53
0.75200	34.52
0.76867	34.52
0.78533	34.52
0.80200	34.52
0.81867	34.51
0.83533	34.52
0.85200	34.52
0.86867	34.52
0.88533	34.52
0.90200	34.52
0.91867	34.52
0.93533	34.52
0.95200	34.52
0.96867	34.52
0.98533	34.52
1.00200	34.52
1.01867	34.52
1.03533	34.51
1.05200	34.52
1.06867	34.53
1.08533	34.51
1.10200	34.52
1.11867	34.52
1.13533	34.52
1.15200	34.52
1.16867	34.52
1.18533	34.52
1.20200	34.52
1.21867	34.52
1.23533	34.51
1.25200	34.52
1.26867	34.52
1.28533	34.52
1.30200	34.52
1.31867	34.52
1.33533	34.52
1.35200	34.52
1.36867	34.52
1.38533	34.52
1.40200	34.52
1.41867	34.52
1.43533	34.52
1.45200	34.52
1.46867	34.52
1.48533	34.52
1.50200	34.53
1.51867	34.52
1.53533	34.52
1.55200	34.52
1.56867	34.52
1.58533	34.51
1.60200	34.53
1.61867	34.52
1.63533	34.51
1.65200	34.52
1.66867	34.52
1.68533	34.52
1.70200	34.52
1.71867	34.52
1.73533	34.52
1.75200	34.52
1.76867	34.52
1.78533	34.52
1.80200	34.52
1.81867	34.51
1.83533	34.53
1.85200	34.52
1.86867	34.52
1.88533	34.51
1.90200	34.51
1.91867	34.52
1.93533	34.51
1.95200	34.52
1.96867	34.53
1.98533	34.52
2.00200	34.52
2.01867	34.52
2.03533	34.51
2.05200	34.52
2.06867	34.52
2.08533	34.52
2.10200	34.51
2.11867	34.51
2.13533	34.51
2.15200	34.52
2.16867	34.52
2.18533	34.52
2.20200	34.52
2.21867	34.52
2.23533	34.52
2.25200	34.52
2.26867	34.53
2.28533	34.51
2.30200	34.52
2.31867	34.52
2.33533	34.52
2.35200	34.52
2.36867	34.52
2.38533	34.52
2.40200	34.52
2.41867	34.52
2.43533	34.52
2.45200	34.52
2.46867	34.52
2.48533	34.51
2.50200	34.54
2.51867	34.52
2.53533	34.52
2.55200	34.52
2.56867	34.52
2.58533	34.52
2.60200	34.52
2.61867	34.52
2.63533	34.52
2.65200	34.52
2.66867	34.52
2.68533	34.52
2.70200	34.52
2.71867	34.52
2.73533	34.52
2.75200	34.52
2.76867	34.52
2.78533	34.51
2.80200	34.52
2.81867	34.52
2.83533	34.52
2.85200	34.51
2.86867	34.51
2.88533	34.52
2.90200	34.52
2.91867	34.51
2.93533	34.52
2.95200	34.52
2.96867	34.52
2.98533	34.52
3.00200	34.53
3.01867	34.52
3.03533	34.52
3.05200	34.51
3.06867	34.52
3.08533	34.52
3.10200	34.52
3.11867	34.52
3.13533	34.52
3.15200	34.52
3.16867	34.52
3.18533	34.51
3.20200	34.52
3.21867	34.51
3.23533	34.53
3.25200	34.52
3.26867	34.52
3.28533	34.52
3.30200	34.52
3.31867	34.52
3.33533	34.51
3.35200	34.52
3.36867	34.52
3.38533	34.52
3.40200	34.53
3.41867	34.52
3.43533	34.52
3.45200	34.52
3.46867	34.52
3.48533	34.52
3.50200	34.52
3.51867	34.53
3.53533	34.52
3.55200	34.52
3.56867	34.52
3.58533	34.51
3.60200	34.52
3.61867	34.52
3.63533	34.52
3.65200	34.52
3.66867	34.52
3.68533	34.52
3.70200	34.51
3.71867	34.52
3.73533	34.52
3.75200	34.52
3.76867	34.52
3.78533	34.52
3.80200	34.52
3.81867	34.52
3.83533	34.52
3.85200	34.51
3.86867	34.52
3.88533	34.52
3.90200	34.52
3.91867	34.52
3.93533	34.52
3.95200	34.52
3.96867	34.52
3.98533	34.52

[Status Trace (Column Flow)]
Interval(msec)	1000
# of Points	240
Start Time(min)	0.002
End Time(min)	3.985
Intensity Units	
Intensity Multiplier	1
R.Time (min)	Intensity
0.00200	5.49
0.01867	5.29
0.03533	5.28
0.05200	5.54
0.06867	5.71
0.08533	5.53
0.10200	5.49
0.11867	5.49
0.13533	5.49
0.15200	5.49
0.16867	5.49
0.18533	5.49
0.20200	5.49
0.21867	5.49
0.23533	5.49
0.25200	5.49
0.26867	5.49
0.28533	5.49
0.30200	5.49
0.31867	5.49
0.33533	5.49
0.35200	5.49
0.36867	5.49
0.38533	5.49
0.40200	5.49
0.41867	5.49
0.43533	5.49
0.45200	5.49
0.46867	5.49
0.48533	5.49
0.50200	5.49
0.51867	5.49
0.53533	5.49
0.55200	5.49
0.56867	5.49
0.58533	5.49
0.60200	5.49
0.61867	5.49
0.63533	5.49
0.65200	5.49
0.66867	5.49
0.68533	5.49
0.70200	5.49
0.71867	5.49
0.73533	5.49
0.75200	5.49
0.76867	5.49
0.78533	5.49
0.80200	5.49
0.81867	5.49
0.83533	5.49
0.85200	5.49
0.86867	5.49
0.88533	5.49
0.90200	5.49
0.91867	5.49
0.93533	5.49
0.95200	5.49
0.96867	5.49
0.98533	5.49
1.00200	5.49
1.01867	5.49
1.03533	5.49
1.05200	5.49
1.06867	5.49
1.08533	5.49
1.10200	5.49
1.11867	5.49
1.13533	5.49
1.15200	5.49
1.16867	5.49
1.18533	5.49
1.20200	5.49
1.21867	5.49
1.23533	5.49
1.25200	5.49
1.26867	5.49
1.28533	5.49
1.30200	5.49
1.31867	5.49
1.33533	5.49
1.35200	5.49
1.36867	5.49
1.38533	5.49
1.40200	5.49
1.41867	5.49
1.43533	5.49
1.45200	5.49
1.46867	5.49
1.48533	5.49
1.50200	5.49
1.51867	5.49
1.53533	5.49
1.55200	5.49
1.56867	5.49
1.58533	5.49
1.60200	5.49
1.61867	5.49
1.63533	5.48
1.65200	5.47
1.66867	5.47
1.68533	5.45
1.70200	5.44
1.71867	5.43
1.73533	5.42
1.75200	5.41
1.76867	5.40
1.78533	5.39
1.80200	5.38
1.81867	5.37
1.83533	5.36
1.85200	5.35
1.86867	5.34
1.88533	5.33
1.90200	5.32
1.91867	5.31
1.93533	5.30
1.95200	5.29
1.96867	5.28
1.98533	5.27
2.00200	5.26
2.01867	5.25
2.03533	5.24
2.05200	5.23
2.06867	5.22
2.08533	5.22
2.10200	5.21
2.11867	5.20
2.13533	5.19
2.15200	5.18
2.16867	5.17
2.18533	5.16
2.20200	5.15
2.21867	5.14
2.23533	5.13
2.25200	5.12
2.26867	5.11
2.28533	5.10
2.30200	5.09
2.31867	5.08
2.33533	5.08
2.35200	5.07
2.36867	5.06
2.38533	5.06
2.40200	5.06
2.41867	5.06
2.43533	5.06
2.45200	5.06
2.46867	5.06
2.48533	5.06
2.50200	5.06
2.51867	5.06
2.53533	5.06
2.55200	5.06
2.56867	5.06
2.58533	5.06
2.60200	5.06
2.61867	5.06
2.63533	5.05
2.65200	5.05
2.66867	5.05
2.68533	5.05
2.70200	5.05
2.71867	5.05
2.73533	5.05
2.75200	5.05
2.76867	5.05
2.78533	5.05
2.80200	5.05
2.81867	5.05
2.83533	5.05
2.85200	5.05
2.86867	5.05
2.88533	5.05
2.90200	5.05
2.91867	5.05
2.93533	5.05
2.95200	5.05
2.96867	5.05
2.98533	5.05
3.00200	5.05
3.01867	5.05
3.03533	5.05
3.05200	5.05
3.06867	5.05
3.08533	5.05
3.10200	5.05
3.11867	5.05
3.13533	5.05
3.15200	5.05
3.16867	5.05
3.18533	5.05
3.20200	5.05
3.21867	5.05
3.23533	5.05
3.25200	5.05
3.26867	5.05
3.28533	5.05
3.30200	5.05
3.31867	5.05
3.33533	5.05
3.35200	5.05
3.36867	5.05
3.38533	5.05
3.40200	5.05
3.41867	5.05
3.43533	5.05
3.45200	5.05
3.46867	5.05
3.48533	5.05
3.50200	5.05
3.51867	5.05
3.53533	5.05
3.55200	5.05
3.56867	5.05
3.58533	5.05
3.60200	5.05
3.61867	5.05
3.63533	5.05
3.65200	5.05
3.66867	5.05
3.68533	5.05
3.70200	5.05
3.71867	5.05
3.73533	5.05
3.75200	5.05
3.76867	5.05
3.78533	5.05
3.80200	5.05
3.81867	5.05
3.83533	5.05
3.85200	5.05
3.86867	5.05
3.88533	5.05
3.90200	5.05
3.91867	5.05
3.93533	5.05
3.95200	5.05
3.96867	5.05
3.98533	5.05

[Status Trace (Linear Velocity)]
Interval(msec)	1000
# of Points	240
Start Time(min)	0.002
End Time(min)	3.985
Intensity Units	
Intensity Multiplier	1
R.Time (min)	Intensity
0.00200	39.00
0.01867	37.89
0.03533	37.80
0.05200	39.32
0.06867	40.25
0.08533	39.26
0.10200	38.99
0.11867	39.01
0.13533	39.01
0.15200	39.01
0.16867	39.01
0.18533	39.01
0.20200	39.01
0.21867	39.01
0.23533	39.01
0.25200	39.01
0.26867	39.01
0.28533	39.01
0.30200	39.01
0.31867	39.01
0.33533	39.01
0.35200	39.01
0.36867	39.01
0.38533	39.01
0.40200	39.01
0.41867	39.01
0.43533	39.01
0.45200	39.01
0.46867	39.01
0.48533	39.01
0.50200	39.01
0.51867	39.01
0.53533	39.01
0.55200	39.01
0.56867	39.01
0.58533	39.01
0.60200	39.01
0.61867	39.01
0.63533	39.01
0.65200	39.01
0.66867	39.01
0.68533	39.01
0.70200	39.01
0.71867	39.01
0.73533	39.01
0.75200	39.01
0.76867	39.01
0.78533	39.01
0.80200	39.01
0.81867	39.01
0.83533	39.01
0.85200	39.01
0.86867	39.01
0.88533	39.01
0.90200	39.01
0.91867	39.01
0.93533	39.01
0.95200	39.01
0.96867	39.01
0.98533	39.01
1.00200	39.01
1.01867	39.01
1.03533	39.01
1.05200	39.01
1.06867	39.01
1.08533	39.01
1.10200	39.01
1.11867	39.01
1.13533	39.01
1.15200	39.01
1.16867	39.01
1.18533	39.01
1.20200	39.01
1.21867	39.01
1.23533	39.01
1.25200	39.01
1.26867	39.01
1.28533	39.01
1.30200	39.01
1.31867	39.01
1.33533	39.01
1.35200	39.01
1.36867	39.01
1.38533	39.01
1.40200	39.01
1.41867	39.01
1.43533	39.01
1.45200	39.01
1.46867	39.01
1.48533	39.01
1.50200	39.01
1.51867	39.01
1.53533	39.01
1.55200	39.01
1.56867	39.01
1.58533	39.01
1.60200	39.01
1.61867	39.00
1.63533	38.98
1.65200	38.96
1.66867	38.93
1.68533	38.90
1.70200	38.86
1.71867	38.83
1.73533	38.80
1.75200	38.77
1.76867	38.73
1.78533	38.71
1.80200	38.67
1.81867	38.64
1.83533	38.61
1.85200	38.58
1.86867	38.54
1.88533	38.52
1.90200	38.48
1.91867	38.45
1.93533	38.42
1.95200	38.39
1.96867	38.36
1.98533	38.33
2.00200	38.30
2.01867	38.27
2.03533	38.24
2.05200	38.21
2.06867	38.18
2.08533	38.15
2.10200	38.12
2.11867	38.09
2.13533	38.06
2.15200	38.03
2.16867	38.00
2.18533	37.98
2.20200	37.94
2.21867	37.91
2.23533	37.89
2.25200	37.86
2.26867	37.83
2.28533	37.80
2.30200	37.77
2.31867	37.74
2.33533	37.71
2.35200	37.68
2.36867	37.66
2.38533	37.65
2.40200	37.65
2.41867	37.65
2.43533	37.65
2.45200	37.65
2.46867	37.65
2.48533	37.65
2.50200	37.65
2.51867	37.66
2.53533	37.64
2.55200	37.65
2.56867	37.64
2.58533	37.64
2.60200	37.64
2.61867	37.64
2.63533	37.64
2.65200	37.64
2.66867	37.64
2.68533	37.64
2.70200	37.64
2.71867	37.64
2.73533	37.64
2.75200	37.64
2.76867	37.64
2.78533	37.64
2.80200	37.63
2.81867	37.64
2.83533	37.64
2.85200	37.64
2.86867	37.64
2.88533	37.64
2.90200	37.63
2.91867	37.63
2.93533	37.63
2.95200	37.63
2.96867	37.63
2.98533	37.63
3.00200	37.63
3.01867	37.63
3.03533	37.63
3.05200	37.63
3.06867	37.63
3.08533	37.63
3.10200	37.63
3.11867	37.62
3.13533	37.62
3.15200	37.62
3.16867	37.62
3.18533	37.62
3.20200	37.62
3.21867	37.62
3.23533	37.62
3.25200	37.62
3.26867	37.62
3.28533	37.62
3.30200	37.62
3.31867	37.62
3.33533	37.62
3.35200	37.62
3.36867	37.62
3.38533	37.62
3.40200	37.62
3.41867	37.62
3.43533	37.62
3.45200	37.62
3.46867	37.62
3.48533	37.62
3.50200	37.62
3.51867	37.62
3.53533	37.62
3.55200	37.62
3.56867	37.62
3.58533	37.62
3.60200	37.62
3.61867	37.62
3.63533	37.62
3.65200	37.62
3.66867	37.62
3.68533	37.62
3.70200	37.62
3.71867	37.62
3.73533	37.62
3.75200	37.62
3.76867	37.62
3.78533	37.62
3.80200	37.62
3.81867	37.62
3.83533	37.62
3.85200	37.62
3.86867	37.62
3.88533	37.62
3.90200	37.62
3.91867	37.62
3.93533	37.62
3.95200	37.62
3.96867	37.62
3.98533	37.62

