[Header]
Application Name	LabSolutions
Version	5.110
Data File Name	C:\Users\User\Desktop\Junior\UIC Prairie Sampling\3.23.23\032323_011.gcd
Output Date	5/24/2023
Output Time	10:27:35 AM

[File Information]
Type	Data File
Generated	5/23/2023 4:31:46 PM
Generated by	System Administrator
Modified	5/23/2023 4:38:41 PM
Modified by	System Administrator

[Sample Information]
Operator Name	System Administrator
Acquired	5/23/2023 4:34:40 PM
Sample Type	0:Unknown
Level	0
Sample Name	011
Sample ID	011
ISTD Amount1	1
ISTD Amount2	1
ISTD Amount3	1
ISTD Amount4	1
ISTD Amount5	1
ISTD Amount6	1
ISTD Amount7	1
ISTD Amount8	1
ISTD Amount9	1
ISTD Amount10	1
ISTD Amount11	1
ISTD Amount12	1
ISTD Amount13	1
ISTD Amount14	1
ISTD Amount15	1
ISTD Amount16	1
ISTD Amount17	1
ISTD Amount18	1
ISTD Amount19	1
ISTD Amount20	1
ISTD Amount21	1
ISTD Amount22	1
ISTD Amount23	1
ISTD Amount24	1
ISTD Amount25	1
ISTD Amount26	1
ISTD Amount27	1
ISTD Amount28	1
ISTD Amount29	1
ISTD Amount30	1
ISTD Amount31	1
ISTD Amount32	1
Sample Amount	1
Dilution Factor	1
Vial#	10
Injection Volume	1
Injection Count	1
Bar Code	

[Original Files]
Data File	C:\Users\User\Desktop\GC Analyses\Jack\Nachusa Grasslands Sampling\20220924\t2\032323_011.gcd
Method File	C:\LabSolutions\Data\GHG_4min_2022\ghg3_togas_w_acet_4 min_new_int.gcm
Batch File	C:\LabSolutions\Data\AutoSamplerTesting\032323.gcb
Report Format File	c:\LabSolutions\System\DEFAULT.lsr

[File Description]


[Configuration]
Instrument Name	C0B7VH3-Instrument1
Instrument #	1
Line #	1
# of Detectors	3
Detector ID	DET#1	DET#2	DET#3
Detector Name	FID	PTCD	ECD
# of Channels	1	1	1

[Peak Table(Ch1)]
# of Peaks	3
Peak#	R.Time	I.Time	F.Time	Area	Height	A/H	Conc.	Mark	ID#	Name	k'	Plate #	Plate Ht.	Tailing	Resolution	Sep.Factor	Area Ratio	Height Ratio	Conc. %	Norm Conc.
1	1.476	1.432	1.531	7181	3459	2.076	0.000	   	1	CO	0.000	9399	15.958	1.145	0.000	0.000	0	0	0.000	0.000
2	1.567	1.531	1.637	4472	2227	2.008	21.804	 V 	2	CH4	0.062	11498	13.046	1.133	1.536	0.000	0	0	10.397	10.397
3	1.993	1.949	2.352	975078	465965	2.093	187.915	   	3	CO2	0.350	17405	8.618	1.307	7.155	5.640	0	0	89.603	89.603

[Peak Table(Ch2)]
# of Peaks	0

[Peak Table(Ch3)]
# of Peaks	4
Peak#	R.Time	I.Time	F.Time	Area	Height	A/H	Conc.	Mark	ID#	Name	k'	Plate #	Plate Ht.	Tailing	Resolution	Sep.Factor	Area Ratio	Height Ratio	Conc. %	Norm Conc.
1	2.466	2.440	2.565	1043	265	3.931	0.000	   			0.000	14980	10.014	0.000	0.000	0.000	0	0	0.000	0.000
2	2.601	2.565	2.656	331	96	3.450	0.000	 V 			0.055	7952	18.862	0.000	1.375	0.000	0	0	0.000	0.000
3	2.887	2.829	2.968	15047	4259	3.533	0.223	   	1	N2O	0.171	14196	10.566	0.000	2.678	3.108	0	0	100.000	100.000
4	3.115	2.968	3.936	17567	569	30.879	0.000	 V 	2	SF6	0.263	136	1102.036	0.000	0.390	1.539	0	0	0.000	0.000

[Compound Results(Ch1)]
# of IDs	6
ID#	Name	R.Time	Area	Height	Conc.	Curve	3rd	2nd	1st	Constant	Area Ratio	Height Ratio	Conc. %	Norm Conc.
1	CO	1.476	7181	3459	0.000	Linear	0.000000e+00	0.000000e+00	0.000000e+00	0.000000e+00	0	0	0.000	0.000
2	CH4	1.567	4472	2227	21.804	Linear	0.000000e+00	0.000000e+00	2.051179e+002	0.000000e+00	0	0	10.397	10.397
3	CO2	1.993	975078	465965	187.915	Linear	0.000000e+00	0.000000e+00	5.188919e+003	0.000000e+00	0	0	89.603	89.603
4	Ethylene	0.000	0	0	0.000	Linear	0.000000e+00	0.000000e+00	0.000000e+00	0.000000e+00	0	0	0.000	0.000
5	Acetylene	0.000	0	0	0.000	Linear	0.000000e+00	0.000000e+00	0.000000e+00	0.000000e+00	0	0	0.000	0.000
6	Ethane	0.000	0	0	0.000	Linear	0.000000e+00	0.000000e+00	0.000000e+00	0.000000e+00	0	0	0.000	0.000

[Compound Results(Ch2)]
# of IDs	5
ID#	Name	R.Time	Area	Height	Conc.	Curve	3rd	2nd	1st	Constant	Area Ratio	Height Ratio	Conc. %	Norm Conc.
1	Hydrogen	0.000	0	0	0.000	Linear	0.000000e+00	0.000000e+00	0.000000e+00	0.000000e+00	0	0	0.000	0.000
2	Oxygen	0.000	0	0	0.000	Linear	0.000000e+00	0.000000e+00	0.000000e+00	0.000000e+00	0	0	0.000	0.000
3	Nitrogen	0.000	0	0	0.000	Linear	0.000000e+00	0.000000e+00	0.000000e+00	0.000000e+00	0	0	0.000	0.000
4	Methane	0.000	0	0	0.000	Linear	0.000000e+00	0.000000e+00	0.000000e+00	0.000000e+00	0	0	0.000	0.000
5	Carbon Monoxide	0.000	0	0	0.000	Linear	0.000000e+00	0.000000e+00	0.000000e+00	0.000000e+00	0	0	0.000	0.000

[Compound Results(Ch3)]
# of IDs	2
ID#	Name	R.Time	Area	Height	Conc.	Curve	3rd	2nd	1st	Constant	Area Ratio	Height Ratio	Conc. %	Norm Conc.
1	N2O	2.887	15047	4259	0.223	Linear	0.000000e+00	0.000000e+00	6.759880e+004	0.000000e+00	0	0	100.000	100.000
2	SF6	3.115	17567	569	0.000	Linear	0.000000e+00	0.000000e+00	0.000000e+00	0.000000e+00	0	0	0.000	0.000

[Group Results(Ch1)]
# of Groups	0

[Group Results(Ch2)]
# of Groups	0

[Group Results(Ch3)]
# of Groups	0

[Chromatogram (Ch1)]
Interval(msec)	220
# of Points	1091
Start Time(min)	0.002
End Time(min)	3.998
R.Time (min)	Intensity
0.00167	12
0.00533	16
0.00900	18
0.01267	18
0.01633	22
0.02000	32
0.02367	41
0.02733	46
0.03100	46
0.03467	41
0.03833	33
0.04200	28
0.04567	25
0.04933	24
0.05300	23
0.05667	17
0.06033	11
0.06400	9
0.06767	11
0.07133	18
0.07500	23
0.07867	27
0.08233	27
0.08600	22
0.08967	17
0.09333	15
0.09700	13
0.10067	10
0.10433	11
0.10800	12
0.11167	15
0.11533	17
0.11900	18
0.12267	17
0.12633	14
0.13000	7
0.13367	0
0.13733	-8
0.14100	-13
0.14467	-14
0.14833	-16
0.15200	-19
0.15567	-21
0.15933	-18
0.16300	-12
0.16667	-7
0.17033	-8
0.17400	-8
0.17767	-4
0.18133	2
0.18500	7
0.18867	10
0.19233	11
0.19600	13
0.19967	13
0.20333	9
0.20700	5
0.21067	-2
0.21433	-7
0.21800	-9
0.22167	-11
0.22533	-15
0.22900	-16
0.23267	-13
0.23633	-10
0.24000	-11
0.24367	-13
0.24733	-16
0.25100	-17
0.25467	-15
0.25833	-13
0.26200	-11
0.26567	-8
0.26933	-2
0.27300	5
0.27667	13
0.28033	18
0.28400	20
0.28767	20
0.29133	19
0.29500	16
0.29867	12
0.30233	8
0.30600	7
0.30967	9
0.31333	9
0.31700	7
0.32067	5
0.32433	3
0.32800	-1
0.33167	-6
0.33533	-10
0.33900	-17
0.34267	-25
0.34633	-30
0.35000	-32
0.35367	-29
0.35733	-20
0.36100	-9
0.36467	4
0.36833	12
0.37200	10
0.37567	3
0.37933	-4
0.38300	-7
0.38667	-12
0.39033	-16
0.39400	-19
0.39767	-23
0.40133	-27
0.40500	-28
0.40867	-26
0.41233	-22
0.41600	-18
0.41967	-16
0.42333	-14
0.42700	-12
0.43067	-11
0.43433	-14
0.43800	-19
0.44167	-20
0.44533	-17
0.44900	-17
0.45267	-19
0.45633	-21
0.46000	-25
0.46367	-23
0.46733	-18
0.47100	-14
0.47467	-9
0.47833	-6
0.48200	-6
0.48567	-8
0.48933	-11
0.49300	-13
0.49667	-14
0.50033	-14
0.50400	-11
0.50767	-6
0.51133	-2
0.51500	-3
0.51867	-5
0.52233	-7
0.52600	-6
0.52967	-5
0.53333	-6
0.53700	-10
0.54067	-14
0.54433	-18
0.54800	-20
0.55167	-22
0.55533	-26
0.55900	-29
0.56267	-29
0.56633	-26
0.57000	-21
0.57367	-17
0.57733	-15
0.58100	-16
0.58467	-19
0.58833	-20
0.59200	-22
0.59567	-19
0.59933	-15
0.60300	-13
0.60667	-18
0.61033	-25
0.61400	-29
0.61767	-28
0.62133	-27
0.62500	-26
0.62867	-22
0.63233	-15
0.63600	-11
0.63967	-9
0.64333	-6
0.64700	-10
0.65067	-15
0.65433	-17
0.65800	-20
0.66167	-25
0.66533	-31
0.66900	-35
0.67267	-40
0.67633	-42
0.68000	-40
0.68367	-33
0.68733	-25
0.69100	-22
0.69467	-24
0.69833	-24
0.70200	-21
0.70567	-14
0.70933	-4
0.71300	5
0.71667	8
0.72033	3
0.72400	-7
0.72767	-16
0.73133	-23
0.73500	-26
0.73867	-27
0.74233	-30
0.74600	-33
0.74967	-33
0.75333	-31
0.75700	-25
0.76067	-14
0.76433	-5
0.76800	-5
0.77167	-12
0.77533	-21
0.77900	-28
0.78267	-31
0.78633	-31
0.79000	-33
0.79367	-38
0.79733	-43
0.80100	-44
0.80467	-42
0.80833	-38
0.81200	-35
0.81567	-33
0.81933	-32
0.82300	-32
0.82667	-31
0.83033	-28
0.83400	-24
0.83767	-21
0.84133	-19
0.84500	-16
0.84867	-10
0.85233	-8
0.85600	-6
0.85967	-5
0.86333	-6
0.86700	-10
0.87067	-11
0.87433	-12
0.87800	-14
0.88167	-21
0.88533	-28
0.88900	-34
0.89267	-33
0.89633	-25
0.90000	-18
0.90367	-16
0.90733	-15
0.91100	-12
0.91467	-9
0.91833	-8
0.92200	-10
0.92567	-15
0.92933	-21
0.93300	-29
0.93667	-34
0.94033	-38
0.94400	-40
0.94767	-44
0.95133	-50
0.95500	-52
0.95867	-50
0.96233	-44
0.96600	-38
0.96967	-31
0.97333	-28
0.97700	-30
0.98067	-31
0.98433	-33
0.98800	-31
0.99167	-23
0.99533	-14
0.99900	-14
1.00267	-23
1.00633	-35
1.01000	-44
1.01367	-48
1.01733	-48
1.02100	-45
1.02467	-42
1.02833	-38
1.03200	-35
1.03567	-35
1.03933	-40
1.04300	-45
1.04667	-49
1.05033	-52
1.05400	-52
1.05767	-52
1.06133	-51
1.06500	-48
1.06867	-43
1.07233	-36
1.07600	-31
1.07967	-29
1.08333	-30
1.08700	-31
1.09067	-33
1.09433	-36
1.09800	-38
1.10167	-38
1.10533	-37
1.10900	-34
1.11267	-33
1.11633	-32
1.12000	-28
1.12367	-20
1.12733	-13
1.13100	-12
1.13467	-14
1.13833	-17
1.14200	-14
1.14567	-10
1.14933	-12
1.15300	-19
1.15667	-28
1.16033	-36
1.16400	-42
1.16767	-45
1.17133	-45
1.17500	-43
1.17867	-40
1.18233	-32
1.18600	-24
1.18967	-20
1.19333	-22
1.19700	-29
1.20067	-38
1.20433	-46
1.20800	-53
1.21167	-56
1.21533	-52
1.21900	-47
1.22267	-44
1.22633	-43
1.23000	-40
1.23367	-35
1.23733	-31
1.24100	-33
1.24467	-36
1.24833	-38
1.25200	-39
1.25567	-45
1.25933	-50
1.26300	-52
1.26667	-51
1.27033	-50
1.27400	-50
1.27767	-50
1.28133	-50
1.28500	-49
1.28867	-47
1.29233	-45
1.29600	-43
1.29967	-42
1.30333	-42
1.30700	-41
1.31067	-38
1.31433	-36
1.31800	-35
1.32167	-36
1.32533	-40
1.32900	-47
1.33267	-51
1.33633	-50
1.34000	-47
1.34367	-41
1.34733	-34
1.35100	-31
1.35467	-31
1.35833	-32
1.36200	-35
1.36567	-39
1.36933	-45
1.37300	-48
1.37667	-46
1.38033	-43
1.38400	-37
1.38767	-29
1.39133	-23
1.39500	-23
1.39867	-29
1.40233	-37
1.40600	-43
1.40967	-46
1.41333	-48
1.41700	-51
1.42067	-55
1.42433	-58
1.42800	-55
1.43167	-50
1.43533	-43
1.43900	-21
1.44267	34
1.44633	141
1.45000	389
1.45367	866
1.45733	1506
1.46100	2160
1.46467	2718
1.46833	3135
1.47200	3376
1.47567	3401
1.47933	3187
1.48300	2769
1.48667	2239
1.49033	1705
1.49400	1237
1.49767	865
1.50133	585
1.50500	384
1.50867	245
1.51233	146
1.51600	78
1.51967	30
1.52333	-8
1.52700	-37
1.53067	-53
1.53433	-49
1.53800	3
1.54167	162
1.54533	470
1.54900	893
1.55267	1335
1.55633	1716
1.56000	1993
1.56367	2147
1.56733	2151
1.57100	1990
1.57467	1690
1.57833	1326
1.58200	970
1.58567	668
1.58933	433
1.59300	264
1.59667	148
1.60033	69
1.60400	20
1.60767	-6
1.61133	-16
1.61500	-18
1.61867	-24
1.62233	-37
1.62600	-52
1.62967	-67
1.63333	-80
1.63700	-90
1.64067	-95
1.64433	-95
1.64800	-93
1.65167	-87
1.65533	-81
1.65900	-75
1.66267	-72
1.66633	-74
1.67000	-79
1.67367	-82
1.67733	-80
1.68100	-75
1.68467	-71
1.68833	-70
1.69200	-73
1.69567	-80
1.69933	-86
1.70300	-90
1.70667	-92
1.71033	-88
1.71400	-82
1.71767	-78
1.72133	-76
1.72500	-80
1.72867	-89
1.73233	-99
1.73600	-104
1.73967	-103
1.74333	-97
1.74700	-88
1.75067	-82
1.75433	-80
1.75800	-78
1.76167	-78
1.76533	-78
1.76900	-76
1.77267	-76
1.77633	-73
1.78000	-70
1.78367	-69
1.78733	-69
1.79100	-72
1.79467	-74
1.79833	-73
1.80200	-70
1.80567	-68
1.80933	-67
1.81300	-68
1.81667	-74
1.82033	-81
1.82400	-86
1.82767	-87
1.83133	-85
1.83500	-81
1.83867	-79
1.84233	-81
1.84600	-85
1.84967	-92
1.85333	-96
1.85700	-95
1.86067	-91
1.86433	-85
1.86800	-80
1.87167	-75
1.87533	-72
1.87900	-70
1.88267	-65
1.88633	-58
1.89000	-54
1.89367	-58
1.89733	-65
1.90100	-71
1.90467	-72
1.90833	-71
1.91200	-69
1.91567	-66
1.91933	-64
1.92300	-64
1.92667	-67
1.93033	-71
1.93400	-75
1.93767	-77
1.94133	-77
1.94500	-79
1.94867	-70
1.95233	8
1.95600	454
1.95967	2461
1.96333	9415
1.96700	27866
1.97067	65975
1.97433	128090
1.97800	209660
1.98167	297951
1.98533	377846
1.98900	436751
1.99267	465927
1.99633	461416
2.00000	425479
2.00367	366563
2.00733	296834
2.01100	228016
2.01467	168036
2.01833	120222
2.02200	84461
2.02567	58876
2.02933	41103
2.03300	28982
2.03667	20789
2.04033	15256
2.04400	11498
2.04767	8915
2.05133	7107
2.05500	5814
2.05867	4868
2.06233	4161
2.06600	3620
2.06967	3195
2.07333	2856
2.07700	2582
2.08067	2354
2.08433	2163
2.08800	1997
2.09167	1850
2.09533	1717
2.09900	1599
2.10267	1495
2.10633	1400
2.11000	1311
2.11367	1231
2.11733	1158
2.12100	1092
2.12467	1033
2.12833	978
2.13200	930
2.13567	889
2.13933	857
2.14300	831
2.14667	807
2.15033	785
2.15400	763
2.15767	738
2.16133	707
2.16500	673
2.16867	643
2.17233	621
2.17600	604
2.17967	585
2.18333	564
2.18700	540
2.19067	517
2.19433	503
2.19800	494
2.20167	477
2.20533	452
2.20900	428
2.21267	413
2.21633	405
2.22000	399
2.22367	392
2.22733	385
2.23100	379
2.23467	374
2.23833	369
2.24200	363
2.24567	356
2.24933	353
2.25300	350
2.25667	343
2.26033	334
2.26400	325
2.26767	314
2.27133	304
2.27500	296
2.27867	292
2.28233	288
2.28600	281
2.28967	278
2.29333	279
2.29700	281
2.30067	282
2.30433	285
2.30800	280
2.31167	267
2.31533	253
2.31900	240
2.32267	233
2.32633	232
2.33000	234
2.33367	236
2.33733	234
2.34100	230
2.34467	227
2.34833	224
2.35200	222
2.35567	218
2.35933	211
2.36300	205
2.36667	201
2.37033	203
2.37400	208
2.37767	214
2.38133	218
2.38500	219
2.38867	217
2.39233	213
2.39600	209
2.39967	210
2.40333	217
2.40700	226
2.41067	231
2.41433	228
2.41800	219
2.42167	213
2.42533	213
2.42900	215
2.43267	214
2.43633	209
2.44000	203
2.44367	200
2.44733	202
2.45100	209
2.45467	212
2.45833	207
2.46200	202
2.46567	201
2.46933	201
2.47300	199
2.47667	198
2.48033	197
2.48400	196
2.48767	194
2.49133	191
2.49500	188
2.49867	185
2.50233	185
2.50600	190
2.50967	193
2.51333	195
2.51700	197
2.52067	200
2.52433	205
2.52800	209
2.53167	211
2.53533	211
2.53900	209
2.54267	205
2.54633	204
2.55000	203
2.55367	204
2.55733	205
2.56100	204
2.56467	204
2.56833	207
2.57200	211
2.57567	214
2.57933	216
2.58300	217
2.58667	215
2.59033	208
2.59400	204
2.59767	203
2.60133	203
2.60500	205
2.60867	212
2.61233	219
2.61600	221
2.61967	221
2.62333	223
2.62700	226
2.63067	225
2.63433	222
2.63800	218
2.64167	213
2.64533	207
2.64900	203
2.65267	205
2.65633	210
2.66000	214
2.66367	216
2.66733	220
2.67100	225
2.67467	231
2.67833	237
2.68200	238
2.68567	227
2.68933	211
2.69300	200
2.69667	193
2.70033	190
2.70400	192
2.70767	198
2.71133	208
2.71500	220
2.71867	232
2.72233	238
2.72600	233
2.72967	222
2.73333	214
2.73700	210
2.74067	213
2.74433	221
2.74800	224
2.75167	224
2.75533	222
2.75900	217
2.76267	216
2.76633	219
2.77000	226
2.77367	234
2.77733	237
2.78100	239
2.78467	242
2.78833	249
2.79200	257
2.79567	264
2.79933	268
2.80300	266
2.80667	262
2.81033	260
2.81400	260
2.81767	261
2.82133	260
2.82500	255
2.82867	250
2.83233	248
2.83600	248
2.83967	251
2.84333	253
2.84700	256
2.85067	255
2.85433	254
2.85800	259
2.86167	268
2.86533	280
2.86900	289
2.87267	289
2.87633	280
2.88000	271
2.88367	264
2.88733	261
2.89100	261
2.89467	262
2.89833	266
2.90200	269
2.90567	271
2.90933	273
2.91300	278
2.91667	283
2.92033	284
2.92400	285
2.92767	286
2.93133	289
2.93500	290
2.93867	290
2.94233	288
2.94600	291
2.94967	298
2.95333	306
2.95700	310
2.96067	310
2.96433	307
2.96800	305
2.97167	303
2.97533	297
2.97900	289
2.98267	284
2.98633	282
2.99000	281
2.99367	284
2.99733	290
3.00100	297
3.00467	303
3.00833	304
3.01200	301
3.01567	300
3.01933	303
3.02300	306
3.02667	306
3.03033	301
3.03400	296
3.03767	292
3.04133	292
3.04500	296
3.04867	299
3.05233	300
3.05600	298
3.05967	296
3.06333	294
3.06700	296
3.07067	298
3.07433	296
3.07800	293
3.08167	291
3.08533	293
3.08900	298
3.09267	300
3.09633	296
3.10000	289
3.10367	282
3.10733	277
3.11100	279
3.11467	285
3.11833	293
3.12200	299
3.12567	300
3.12933	298
3.13300	292
3.13667	286
3.14033	281
3.14400	278
3.14767	275
3.15133	276
3.15500	280
3.15867	284
3.16233	286
3.16600	288
3.16967	290
3.17333	296
3.17700	303
3.18067	304
3.18433	301
3.18800	297
3.19167	294
3.19533	293
3.19900	293
3.20267	295
3.20633	298
3.21000	301
3.21367	305
3.21733	309
3.22100	313
3.22467	313
3.22833	308
3.23200	303
3.23567	302
3.23933	306
3.24300	311
3.24667	313
3.25033	310
3.25400	300
3.25767	289
3.26133	283
3.26500	283
3.26867	286
3.27233	292
3.27600	295
3.27967	292
3.28333	287
3.28700	284
3.29067	284
3.29433	288
3.29800	287
3.30167	282
3.30533	278
3.30900	278
3.31267	284
3.31633	293
3.32000	302
3.32367	309
3.32733	307
3.33100	305
3.33467	304
3.33833	302
3.34200	298
3.34567	294
3.34933	291
3.35300	285
3.35667	277
3.36033	273
3.36400	275
3.36767	280
3.37133	283
3.37500	286
3.37867	290
3.38233	292
3.38600	287
3.38967	282
3.39333	281
3.39700	282
3.40067	284
3.40433	284
3.40800	282
3.41167	279
3.41533	280
3.41900	284
3.42267	288
3.42633	288
3.43000	283
3.43367	277
3.43733	272
3.44100	272
3.44467	275
3.44833	277
3.45200	279
3.45567	279
3.45933	279
3.46300	277
3.46667	274
3.47033	268
3.47400	263
3.47767	266
3.48133	274
3.48500	280
3.48867	279
3.49233	277
3.49600	275
3.49967	274
3.50333	274
3.50700	272
3.51067	270
3.51433	270
3.51800	274
3.52167	282
3.52533	292
3.52900	298
3.53267	296
3.53633	289
3.54000	282
3.54367	277
3.54733	272
3.55100	268
3.55467	267
3.55833	269
3.56200	270
3.56567	267
3.56933	262
3.57300	257
3.57667	257
3.58033	261
3.58400	266
3.58767	270
3.59133	272
3.59500	274
3.59867	275
3.60233	276
3.60600	278
3.60967	277
3.61333	273
3.61700	268
3.62067	263
3.62433	262
3.62800	263
3.63167	266
3.63533	265
3.63900	262
3.64267	260
3.64633	261
3.65000	263
3.65367	263
3.65733	262
3.66100	264
3.66467	263
3.66833	260
3.67200	260
3.67567	265
3.67933	267
3.68300	266
3.68667	265
3.69033	263
3.69400	261
3.69767	258
3.70133	251
3.70500	246
3.70867	243
3.71233	242
3.71600	240
3.71967	240
3.72333	241
3.72700	241
3.73067	241
3.73433	242
3.73800	244
3.74167	246
3.74533	249
3.74900	253
3.75267	256
3.75633	256
3.76000	254
3.76367	248
3.76733	243
3.77100	242
3.77467	242
3.77833	238
3.78200	235
3.78567	237
3.78933	245
3.79300	254
3.79667	256
3.80033	254
3.80400	254
3.80767	255
3.81133	259
3.81500	263
3.81867	264
3.82233	260
3.82600	255
3.82967	250
3.83333	247
3.83700	246
3.84067	245
3.84433	243
3.84800	238
3.85167	234
3.85533	233
3.85900	229
3.86267	224
3.86633	224
3.87000	232
3.87367	243
3.87733	251
3.88100	256
3.88467	255
3.88833	248
3.89200	242
3.89567	238
3.89933	235
3.90300	233
3.90667	233
3.91033	232
3.91400	229
3.91767	229
3.92133	227
3.92500	224
3.92867	225
3.93233	230
3.93600	236
3.93967	241
3.94333	243
3.94700	240
3.95067	237
3.95433	236
3.95800	237
3.96167	237
3.96533	234
3.96900	230
3.97267	225
3.97633	223
3.98000	224
3.98367	226
3.98733	229
3.99100	231
3.99467	235
3.99833	240

[Chromatogram (Ch2)]
Interval(msec)	220
# of Points	1091
Start Time(min)	0.002
End Time(min)	3.998
R.Time (min)	Intensity
0.00167	-0
0.00533	-0
0.00900	-1
0.01267	-1
0.01633	-1
0.02000	-2
0.02367	-2
0.02733	-2
0.03100	-2
0.03467	-2
0.03833	-2
0.04200	-2
0.04567	-2
0.04933	-2
0.05300	-2
0.05667	-2
0.06033	-2
0.06400	-2
0.06767	-2
0.07133	-2
0.07500	-1
0.07867	-1
0.08233	-1
0.08600	-1
0.08967	-1
0.09333	-0
0.09700	-0
0.10067	-0
0.10433	-0
0.10800	-0
0.11167	-0
0.11533	-0
0.11900	-0
0.12267	-0
0.12633	-1
0.13000	-1
0.13367	-1
0.13733	-2
0.14100	-2
0.14467	-2
0.14833	-2
0.15200	-2
0.15567	-2
0.15933	-2
0.16300	-3
0.16667	-3
0.17033	-3
0.17400	-3
0.17767	-3
0.18133	-3
0.18500	-3
0.18867	-3
0.19233	-3
0.19600	-3
0.19967	-3
0.20333	-3
0.20700	-3
0.21067	-3
0.21433	-3
0.21800	-3
0.22167	-2
0.22533	-2
0.22900	-2
0.23267	-2
0.23633	-2
0.24000	-2
0.24367	-2
0.24733	-2
0.25100	-1
0.25467	-1
0.25833	-1
0.26200	-1
0.26567	-1
0.26933	-1
0.27300	-1
0.27667	-2
0.28033	-2
0.28400	-2
0.28767	-1
0.29133	-1
0.29500	-1
0.29867	-1
0.30233	-1
0.30600	-1
0.30967	-1
0.31333	-1
0.31700	-1
0.32067	-1
0.32433	-1
0.32800	-1
0.33167	-1
0.33533	-1
0.33900	-0
0.34267	-0
0.34633	0
0.35000	0
0.35367	0
0.35733	0
0.36100	0
0.36467	0
0.36833	0
0.37200	0
0.37567	0
0.37933	0
0.38300	-0
0.38667	-0
0.39033	-1
0.39400	-1
0.39767	-1
0.40133	-1
0.40500	-1
0.40867	-1
0.41233	-1
0.41600	-1
0.41967	-2
0.42333	-2
0.42700	-2
0.43067	-2
0.43433	-2
0.43800	-2
0.44167	-3
0.44533	-3
0.44900	-3
0.45267	-4
0.45633	-4
0.46000	-4
0.46367	-4
0.46733	-4
0.47100	-4
0.47467	-4
0.47833	-4
0.48200	-4
0.48567	-4
0.48933	-4
0.49300	-3
0.49667	-3
0.50033	-3
0.50400	-3
0.50767	-3
0.51133	-3
0.51500	-3
0.51867	-3
0.52233	-3
0.52600	-3
0.52967	-3
0.53333	-2
0.53700	-2
0.54067	-2
0.54433	-1
0.54800	-1
0.55167	-1
0.55533	-1
0.55900	-1
0.56267	-1
0.56633	-1
0.57000	-1
0.57367	-0
0.57733	-0
0.58100	-0
0.58467	-0
0.58833	0
0.59200	0
0.59567	0
0.59933	0
0.60300	-0
0.60667	0
0.61033	0
0.61400	0
0.61767	0
0.62133	0
0.62500	-0
0.62867	-0
0.63233	-1
0.63600	-1
0.63967	-1
0.64333	-1
0.64700	-2
0.65067	-2
0.65433	-2
0.65800	-2
0.66167	-2
0.66533	-2
0.66900	-2
0.67267	-2
0.67633	-3
0.68000	-3
0.68367	-3
0.68733	-4
0.69100	-4
0.69467	-4
0.69833	-5
0.70200	-5
0.70567	-5
0.70933	-5
0.71300	-5
0.71667	-5
0.72033	-4
0.72400	-4
0.72767	-3
0.73133	-3
0.73500	-3
0.73867	-2
0.74233	-2
0.74600	-2
0.74967	-2
0.75333	-2
0.75700	-2
0.76067	-1
0.76433	-1
0.76800	-1
0.77167	-1
0.77533	-1
0.77900	-1
0.78267	-1
0.78633	-1
0.79000	-1
0.79367	-1
0.79733	-1
0.80100	-1
0.80467	-1
0.80833	-1
0.81200	-1
0.81567	-1
0.81933	-1
0.82300	-2
0.82667	-2
0.83033	-2
0.83400	-2
0.83767	-2
0.84133	-2
0.84500	-1
0.84867	-2
0.85233	-2
0.85600	-2
0.85967	-2
0.86333	-2
0.86700	-2
0.87067	-2
0.87433	-2
0.87800	-2
0.88167	-2
0.88533	-3
0.88900	-3
0.89267	-3
0.89633	-3
0.90000	-3
0.90367	-3
0.90733	-3
0.91100	-3
0.91467	-3
0.91833	-3
0.92200	-3
0.92567	-3
0.92933	-3
0.93300	-3
0.93667	-3
0.94033	-3
0.94400	-3
0.94767	-3
0.95133	-3
0.95500	-3
0.95867	-3
0.96233	-3
0.96600	-3
0.96967	-3
0.97333	-3
0.97700	-3
0.98067	-4
0.98433	-4
0.98800	-4
0.99167	-4
0.99533	-4
0.99900	-4
1.00267	-4
1.00633	-4
1.01000	-4
1.01367	-5
1.01733	-5
1.02100	-5
1.02467	-5
1.02833	-5
1.03200	-5
1.03567	-5
1.03933	-5
1.04300	-5
1.04667	-5
1.05033	-5
1.05400	-5
1.05767	-4
1.06133	-4
1.06500	-3
1.06867	-2
1.07233	-2
1.07600	-1
1.07967	-1
1.08333	-1
1.08700	-1
1.09067	-1
1.09433	-1
1.09800	-1
1.10167	-1
1.10533	-1
1.10900	-1
1.11267	-1
1.11633	-1
1.12000	-1
1.12367	-1
1.12733	-1
1.13100	-1
1.13467	-1
1.13833	-1
1.14200	-1
1.14567	-1
1.14933	-1
1.15300	-1
1.15667	-1
1.16033	-1
1.16400	-1
1.16767	-1
1.17133	-1
1.17500	-1
1.17867	-1
1.18233	-1
1.18600	-1
1.18967	-1
1.19333	-1
1.19700	-1
1.20067	-1
1.20433	-1
1.20800	-1
1.21167	-1
1.21533	-1
1.21900	-0
1.22267	-0
1.22633	-0
1.23000	-0
1.23367	-0
1.23733	-0
1.24100	-1
1.24467	-1
1.24833	-1
1.25200	-1
1.25567	-1
1.25933	-1
1.26300	-1
1.26667	-1
1.27033	-2
1.27400	-2
1.27767	-3
1.28133	-3
1.28500	-3
1.28867	-3
1.29233	-3
1.29600	-3
1.29967	-3
1.30333	-3
1.30700	-3
1.31067	-3
1.31433	-3
1.31800	-3
1.32167	-3
1.32533	-3
1.32900	-2
1.33267	-2
1.33633	-2
1.34000	-2
1.34367	-3
1.34733	-3
1.35100	-3
1.35467	-3
1.35833	-3
1.36200	-4
1.36567	-4
1.36933	-4
1.37300	-4
1.37667	-4
1.38033	-4
1.38400	-4
1.38767	-3
1.39133	-3
1.39500	-3
1.39867	-3
1.40233	-3
1.40600	-3
1.40967	-3
1.41333	-3
1.41700	-3
1.42067	-3
1.42433	-3
1.42800	-3
1.43167	-3
1.43533	-3
1.43900	-3
1.44267	-3
1.44633	-3
1.45000	-3
1.45367	-3
1.45733	-3
1.46100	-3
1.46467	-3
1.46833	-3
1.47200	-3
1.47567	-3
1.47933	-4
1.48300	-4
1.48667	-3
1.49033	-3
1.49400	-3
1.49767	-3
1.50133	-3
1.50500	-3
1.50867	-4
1.51233	-4
1.51600	-4
1.51967	-4
1.52333	-4
1.52700	-4
1.53067	-3
1.53433	-3
1.53800	-3
1.54167	-3
1.54533	-3
1.54900	-3
1.55267	-3
1.55633	-3
1.56000	-3
1.56367	-3
1.56733	-3
1.57100	-3
1.57467	-3
1.57833	-3
1.58200	-3
1.58567	-4
1.58933	-4
1.59300	-4
1.59667	-4
1.60033	-4
1.60400	-5
1.60767	-7
1.61133	-8
1.61500	-10
1.61867	-12
1.62233	-15
1.62600	-17
1.62967	-20
1.63333	-23
1.63700	-26
1.64067	-29
1.64433	-33
1.64800	-36
1.65167	-39
1.65533	-43
1.65900	-46
1.66267	-50
1.66633	-54
1.67000	-58
1.67367	-63
1.67733	-67
1.68100	-72
1.68467	-76
1.68833	-80
1.69200	-84
1.69567	-88
1.69933	-90
1.70300	-92
1.70667	-94
1.71033	-96
1.71400	-97
1.71767	-98
1.72133	-99
1.72500	-99
1.72867	-100
1.73233	-101
1.73600	-101
1.73967	-102
1.74333	-103
1.74700	-104
1.75067	-105
1.75433	-106
1.75800	-106
1.76167	-106
1.76533	-106
1.76900	-105
1.77267	-105
1.77633	-104
1.78000	-103
1.78367	-103
1.78733	-103
1.79100	-103
1.79467	-103
1.79833	-104
1.80200	-105
1.80567	-105
1.80933	-106
1.81300	-106
1.81667	-106
1.82033	-106
1.82400	-106
1.82767	-106
1.83133	-106
1.83500	-106
1.83867	-106
1.84233	-107
1.84600	-107
1.84967	-107
1.85333	-107
1.85700	-107
1.86067	-106
1.86433	-105
1.86800	-105
1.87167	-105
1.87533	-104
1.87900	-104
1.88267	-104
1.88633	-104
1.89000	-104
1.89367	-105
1.89733	-106
1.90100	-106
1.90467	-106
1.90833	-106
1.91200	-105
1.91567	-105
1.91933	-104
1.92300	-104
1.92667	-103
1.93033	-103
1.93400	-102
1.93767	-102
1.94133	-102
1.94500	-102
1.94867	-101
1.95233	-101
1.95600	-101
1.95967	-100
1.96333	-100
1.96700	-100
1.97067	-100
1.97433	-100
1.97800	-100
1.98167	-100
1.98533	-101
1.98900	-101
1.99267	-101
1.99633	-100
2.00000	-100
2.00367	-99
2.00733	-99
2.01100	-99
2.01467	-99
2.01833	-99
2.02200	-98
2.02567	-98
2.02933	-97
2.03300	-96
2.03667	-95
2.04033	-94
2.04400	-93
2.04767	-92
2.05133	-92
2.05500	-92
2.05867	-92
2.06233	-91
2.06600	-91
2.06967	-92
2.07333	-92
2.07700	-92
2.08067	-93
2.08433	-93
2.08800	-93
2.09167	-93
2.09533	-93
2.09900	-94
2.10267	-94
2.10633	-95
2.11000	-94
2.11367	-94
2.11733	-93
2.12100	-92
2.12467	-91
2.12833	-90
2.13200	-89
2.13567	-89
2.13933	-88
2.14300	-88
2.14667	-88
2.15033	-88
2.15400	-88
2.15767	-88
2.16133	-88
2.16500	-88
2.16867	-87
2.17233	-87
2.17600	-86
2.17967	-85
2.18333	-85
2.18700	-84
2.19067	-84
2.19433	-83
2.19800	-83
2.20167	-83
2.20533	-84
2.20900	-84
2.21267	-85
2.21633	-85
2.22000	-85
2.22367	-84
2.22733	-83
2.23100	-82
2.23467	-82
2.23833	-81
2.24200	-81
2.24567	-81
2.24933	-82
2.25300	-83
2.25667	-83
2.26033	-84
2.26400	-84
2.26767	-83
2.27133	-83
2.27500	-83
2.27867	-82
2.28233	-81
2.28600	-81
2.28967	-81
2.29333	-80
2.29700	-81
2.30067	-81
2.30433	-82
2.30800	-82
2.31167	-82
2.31533	-81
2.31900	-80
2.32267	-79
2.32633	-77
2.33000	-76
2.33367	-74
2.33733	-73
2.34100	-72
2.34467	-71
2.34833	-70
2.35200	-70
2.35567	-69
2.35933	-69
2.36300	-69
2.36667	-68
2.37033	-67
2.37400	-65
2.37767	-62
2.38133	-60
2.38500	-56
2.38867	-53
2.39233	-49
2.39600	-44
2.39967	-40
2.40333	-36
2.40700	-31
2.41067	-27
2.41433	-23
2.41800	-19
2.42167	-16
2.42533	-13
2.42900	-10
2.43267	-8
2.43633	-6
2.44000	-4
2.44367	-3
2.44733	-2
2.45100	-1
2.45467	-0
2.45833	1
2.46200	2
2.46567	3
2.46933	5
2.47300	6
2.47667	7
2.48033	7
2.48400	8
2.48767	8
2.49133	9
2.49500	9
2.49867	10
2.50233	10
2.50600	10
2.50967	10
2.51333	9
2.51700	9
2.52067	8
2.52433	7
2.52800	7
2.53167	7
2.53533	7
2.53900	8
2.54267	9
2.54633	10
2.55000	11
2.55367	12
2.55733	12
2.56100	12
2.56467	12
2.56833	11
2.57200	11
2.57567	11
2.57933	11
2.58300	11
2.58667	12
2.59033	13
2.59400	13
2.59767	14
2.60133	14
2.60500	15
2.60867	15
2.61233	15
2.61600	15
2.61967	16
2.62333	16
2.62700	16
2.63067	17
2.63433	17
2.63800	17
2.64167	17
2.64533	17
2.64900	17
2.65267	17
2.65633	17
2.66000	18
2.66367	18
2.66733	19
2.67100	20
2.67467	20
2.67833	21
2.68200	21
2.68567	21
2.68933	21
2.69300	21
2.69667	21
2.70033	21
2.70400	21
2.70767	21
2.71133	21
2.71500	21
2.71867	22
2.72233	22
2.72600	23
2.72967	23
2.73333	24
2.73700	24
2.74067	24
2.74433	23
2.74800	23
2.75167	22
2.75533	22
2.75900	22
2.76267	22
2.76633	22
2.77000	22
2.77367	22
2.77733	23
2.78100	23
2.78467	24
2.78833	24
2.79200	25
2.79567	25
2.79933	25
2.80300	25
2.80667	25
2.81033	25
2.81400	25
2.81767	25
2.82133	25
2.82500	25
2.82867	25
2.83233	25
2.83600	25
2.83967	25
2.84333	25
2.84700	25
2.85067	25
2.85433	25
2.85800	23
2.86167	20
2.86533	14
2.86900	4
2.87267	-9
2.87633	-26
2.88000	-48
2.88367	-76
2.88733	-108
2.89100	-146
2.89467	-189
2.89833	-237
2.90200	-288
2.90567	-344
2.90933	-401
2.91300	-462
2.91667	-523
2.92033	-586
2.92400	-648
2.92767	-710
2.93133	-769
2.93500	-826
2.93867	-880
2.94233	-933
2.94600	-988
2.94967	-1044
2.95333	-1091
2.95700	-1118
2.96067	-1120
2.96433	-1097
2.96800	-1051
2.97167	-988
2.97533	-914
2.97900	-834
2.98267	-753
2.98633	-672
2.99000	-595
2.99367	-523
2.99733	-456
3.00100	-396
3.00467	-343
3.00833	-295
3.01200	-253
3.01567	-216
3.01933	-184
3.02300	-156
3.02667	-132
3.03033	-111
3.03400	-93
3.03767	-78
3.04133	-65
3.04500	-54
3.04867	-45
3.05233	-37
3.05600	-30
3.05967	-24
3.06333	-19
3.06700	-15
3.07067	-11
3.07433	-8
3.07800	-5
3.08167	-3
3.08533	-1
3.08900	1
3.09267	3
3.09633	4
3.10000	5
3.10367	6
3.10733	6
3.11100	7
3.11467	8
3.11833	9
3.12200	9
3.12567	10
3.12933	10
3.13300	11
3.13667	11
3.14033	11
3.14400	12
3.14767	12
3.15133	13
3.15500	13
3.15867	13
3.16233	14
3.16600	15
3.16967	15
3.17333	16
3.17700	17
3.18067	17
3.18433	18
3.18800	19
3.19167	19
3.19533	20
3.19900	20
3.20267	21
3.20633	21
3.21000	21
3.21367	21
3.21733	21
3.22100	22
3.22467	21
3.22833	21
3.23200	21
3.23567	21
3.23933	22
3.24300	22
3.24667	22
3.25033	23
3.25400	23
3.25767	23
3.26133	24
3.26500	24
3.26867	24
3.27233	24
3.27600	24
3.27967	24
3.28333	25
3.28700	25
3.29067	25
3.29433	25
3.29800	25
3.30167	25
3.30533	25
3.30900	25
3.31267	25
3.31633	25
3.32000	25
3.32367	25
3.32733	25
3.33100	25
3.33467	24
3.33833	24
3.34200	24
3.34567	24
3.34933	24
3.35300	24
3.35667	24
3.36033	24
3.36400	24
3.36767	24
3.37133	24
3.37500	24
3.37867	24
3.38233	24
3.38600	24
3.38967	24
3.39333	24
3.39700	24
3.40067	24
3.40433	24
3.40800	24
3.41167	24
3.41533	24
3.41900	24
3.42267	24
3.42633	24
3.43000	24
3.43367	24
3.43733	24
3.44100	24
3.44467	24
3.44833	24
3.45200	24
3.45567	24
3.45933	24
3.46300	24
3.46667	25
3.47033	25
3.47400	25
3.47767	25
3.48133	25
3.48500	25
3.48867	25
3.49233	25
3.49600	25
3.49967	25
3.50333	24
3.50700	24
3.51067	24
3.51433	24
3.51800	24
3.52167	23
3.52533	23
3.52900	23
3.53267	23
3.53633	24
3.54000	24
3.54367	24
3.54733	24
3.55100	24
3.55467	24
3.55833	24
3.56200	24
3.56567	24
3.56933	24
3.57300	23
3.57667	23
3.58033	24
3.58400	24
3.58767	24
3.59133	24
3.59500	24
3.59867	24
3.60233	24
3.60600	24
3.60967	24
3.61333	24
3.61700	24
3.62067	24
3.62433	24
3.62800	24
3.63167	24
3.63533	24
3.63900	24
3.64267	24
3.64633	24
3.65000	24
3.65367	24
3.65733	24
3.66100	24
3.66467	24
3.66833	24
3.67200	24
3.67567	24
3.67933	24
3.68300	25
3.68667	25
3.69033	25
3.69400	25
3.69767	25
3.70133	24
3.70500	24
3.70867	24
3.71233	24
3.71600	24
3.71967	24
3.72333	24
3.72700	23
3.73067	23
3.73433	23
3.73800	23
3.74167	23
3.74533	23
3.74900	23
3.75267	23
3.75633	23
3.76000	23
3.76367	23
3.76733	23
3.77100	23
3.77467	23
3.77833	23
3.78200	23
3.78567	23
3.78933	23
3.79300	23
3.79667	23
3.80033	23
3.80400	24
3.80767	24
3.81133	24
3.81500	24
3.81867	24
3.82233	24
3.82600	24
3.82967	24
3.83333	24
3.83700	24
3.84067	24
3.84433	24
3.84800	24
3.85167	25
3.85533	25
3.85900	25
3.86267	25
3.86633	25
3.87000	25
3.87367	25
3.87733	25
3.88100	25
3.88467	25
3.88833	25
3.89200	25
3.89567	25
3.89933	25
3.90300	25
3.90667	25
3.91033	24
3.91400	24
3.91767	24
3.92133	24
3.92500	24
3.92867	24
3.93233	24
3.93600	24
3.93967	24
3.94333	24
3.94700	24
3.95067	24
3.95433	24
3.95800	24
3.96167	24
3.96533	24
3.96900	24
3.97267	24
3.97633	24
3.98000	24
3.98367	24
3.98733	24
3.99100	24
3.99467	24
3.99833	24

[Chromatogram (Ch3)]
Interval(msec)	220
# of Points	1091
Start Time(min)	0.002
End Time(min)	3.998
R.Time (min)	Intensity
0.00167	0
0.00533	0
0.00900	1
0.01267	-1
0.01633	-1
0.02000	0
0.02367	2
0.02733	3
0.03100	3
0.03467	3
0.03833	4
0.04200	4
0.04567	3
0.04933	2
0.05300	2
0.05667	2
0.06033	3
0.06400	2
0.06767	1
0.07133	-0
0.07500	-1
0.07867	0
0.08233	3
0.08600	5
0.08967	4
0.09333	1
0.09700	2
0.10067	1
0.10433	0
0.10800	1
0.11167	1
0.11533	2
0.11900	3
0.12267	2
0.12633	1
0.13000	3
0.13367	4
0.13733	5
0.14100	5
0.14467	7
0.14833	8
0.15200	8
0.15567	8
0.15933	9
0.16300	10
0.16667	13
0.17033	14
0.17400	12
0.17767	9
0.18133	6
0.18500	7
0.18867	7
0.19233	7
0.19600	8
0.19967	8
0.20333	6
0.20700	4
0.21067	2
0.21433	-1
0.21800	-1
0.22167	1
0.22533	3
0.22900	6
0.23267	7
0.23633	8
0.24000	8
0.24367	5
0.24733	5
0.25100	7
0.25467	8
0.25833	8
0.26200	8
0.26567	7
0.26933	5
0.27300	3
0.27667	4
0.28033	7
0.28400	9
0.28767	9
0.29133	8
0.29500	8
0.29867	5
0.30233	4
0.30600	5
0.30967	6
0.31333	6
0.31700	5
0.32067	6
0.32433	6
0.32800	8
0.33167	8
0.33533	6
0.33900	5
0.34267	4
0.34633	5
0.35000	6
0.35367	5
0.35733	6
0.36100	6
0.36467	5
0.36833	5
0.37200	6
0.37567	7
0.37933	6
0.38300	6
0.38667	6
0.39033	7
0.39400	7
0.39767	8
0.40133	9
0.40500	8
0.40867	4
0.41233	3
0.41600	2
0.41967	2
0.42333	2
0.42700	5
0.43067	7
0.43433	6
0.43800	5
0.44167	5
0.44533	4
0.44900	3
0.45267	1
0.45633	4
0.46000	6
0.46367	7
0.46733	8
0.47100	7
0.47467	5
0.47833	5
0.48200	8
0.48567	9
0.48933	10
0.49300	11
0.49667	12
0.50033	11
0.50400	9
0.50767	9
0.51133	8
0.51500	6
0.51867	4
0.52233	6
0.52600	9
0.52967	12
0.53333	14
0.53700	14
0.54067	14
0.54433	11
0.54800	8
0.55167	6
0.55533	5
0.55900	5
0.56267	4
0.56633	7
0.57000	10
0.57367	12
0.57733	14
0.58100	14
0.58467	14
0.58833	16
0.59200	16
0.59567	14
0.59933	12
0.60300	10
0.60667	8
0.61033	7
0.61400	8
0.61767	10
0.62133	11
0.62500	9
0.62867	8
0.63233	7
0.63600	9
0.63967	9
0.64333	8
0.64700	7
0.65067	7
0.65433	7
0.65800	6
0.66167	6
0.66533	8
0.66900	10
0.67267	11
0.67633	11
0.68000	10
0.68367	10
0.68733	11
0.69100	9
0.69467	9
0.69833	12
0.70200	13
0.70567	14
0.70933	14
0.71300	12
0.71667	13
0.72033	14
0.72400	12
0.72767	10
0.73133	12
0.73500	14
0.73867	14
0.74233	13
0.74600	13
0.74967	14
0.75333	14
0.75700	13
0.76067	11
0.76433	12
0.76800	15
0.77167	14
0.77533	14
0.77900	15
0.78267	13
0.78633	10
0.79000	7
0.79367	7
0.79733	8
0.80100	8
0.80467	6
0.80833	4
0.81200	5
0.81567	6
0.81933	8
0.82300	8
0.82667	10
0.83033	12
0.83400	12
0.83767	12
0.84133	11
0.84500	11
0.84867	12
0.85233	11
0.85600	11
0.85967	11
0.86333	10
0.86700	8
0.87067	6
0.87433	6
0.87800	6
0.88167	7
0.88533	6
0.88900	7
0.89267	9
0.89633	10
0.90000	11
0.90367	14
0.90733	14
0.91100	13
0.91467	14
0.91833	16
0.92200	15
0.92567	14
0.92933	14
0.93300	13
0.93667	14
0.94033	16
0.94400	16
0.94767	14
0.95133	13
0.95500	11
0.95867	10
0.96233	10
0.96600	12
0.96967	12
0.97333	12
0.97700	12
0.98067	13
0.98433	13
0.98800	12
0.99167	13
0.99533	14
0.99900	14
1.00267	13
1.00633	13
1.01000	14
1.01367	15
1.01733	16
1.02100	17
1.02467	18
1.02833	16
1.03200	15
1.03567	14
1.03933	15
1.04300	15
1.04667	13
1.05033	12
1.05400	12
1.05767	11
1.06133	9
1.06500	7
1.06867	7
1.07233	10
1.07600	11
1.07967	11
1.08333	11
1.08700	11
1.09067	9
1.09433	7
1.09800	6
1.10167	6
1.10533	8
1.10900	9
1.11267	7
1.11633	7
1.12000	7
1.12367	8
1.12733	8
1.13100	7
1.13467	5
1.13833	5
1.14200	7
1.14567	9
1.14933	12
1.15300	14
1.15667	15
1.16033	17
1.16400	17
1.16767	17
1.17133	17
1.17500	17
1.17867	17
1.18233	15
1.18600	12
1.18967	11
1.19333	10
1.19700	10
1.20067	10
1.20433	11
1.20800	12
1.21167	11
1.21533	11
1.21900	11
1.22267	11
1.22633	10
1.23000	10
1.23367	10
1.23733	9
1.24100	8
1.24467	7
1.24833	5
1.25200	2
1.25567	4
1.25933	5
1.26300	5
1.26667	4
1.27033	5
1.27400	6
1.27767	7
1.28133	7
1.28500	7
1.28867	8
1.29233	12
1.29600	11
1.29967	9
1.30333	9
1.30700	9
1.31067	11
1.31433	10
1.31800	10
1.32167	11
1.32533	9
1.32900	9
1.33267	10
1.33633	11
1.34000	11
1.34367	14
1.34733	15
1.35100	13
1.35467	11
1.35833	8
1.36200	6
1.36567	7
1.36933	7
1.37300	7
1.37667	7
1.38033	7
1.38400	4
1.38767	5
1.39133	6
1.39500	9
1.39867	9
1.40233	8
1.40600	8
1.40967	8
1.41333	6
1.41700	4
1.42067	5
1.42433	8
1.42800	11
1.43167	13
1.43533	14
1.43900	14
1.44267	12
1.44633	9
1.45000	6
1.45367	6
1.45733	8
1.46100	9
1.46467	8
1.46833	8
1.47200	8
1.47567	7
1.47933	6
1.48300	5
1.48667	5
1.49033	6
1.49400	7
1.49767	6
1.50133	5
1.50500	6
1.50867	8
1.51233	9
1.51600	8
1.51967	7
1.52333	7
1.52700	10
1.53067	10
1.53433	10
1.53800	10
1.54167	11
1.54533	11
1.54900	10
1.55267	7
1.55633	6
1.56000	8
1.56367	9
1.56733	9
1.57100	9
1.57467	10
1.57833	12
1.58200	11
1.58567	10
1.58933	8
1.59300	7
1.59667	4
1.60033	2
1.60400	3
1.60767	3
1.61133	2
1.61500	3
1.61867	3
1.62233	2
1.62600	1
1.62967	1
1.63333	4
1.63700	7
1.64067	9
1.64433	10
1.64800	12
1.65167	12
1.65533	13
1.65900	16
1.66267	18
1.66633	19
1.67000	20
1.67367	20
1.67733	19
1.68100	18
1.68467	18
1.68833	20
1.69200	23
1.69567	26
1.69933	28
1.70300	28
1.70667	27
1.71033	26
1.71400	25
1.71767	25
1.72133	24
1.72500	23
1.72867	22
1.73233	22
1.73600	24
1.73967	24
1.74333	25
1.74700	24
1.75067	21
1.75433	21
1.75800	20
1.76167	20
1.76533	21
1.76900	22
1.77267	23
1.77633	25
1.78000	27
1.78367	28
1.78733	29
1.79100	31
1.79467	31
1.79833	31
1.80200	32
1.80567	32
1.80933	32
1.81300	31
1.81667	33
1.82033	35
1.82400	38
1.82767	38
1.83133	35
1.83500	33
1.83867	34
1.84233	34
1.84600	34
1.84967	34
1.85333	36
1.85700	37
1.86067	37
1.86433	39
1.86800	40
1.87167	42
1.87533	43
1.87900	42
1.88267	42
1.88633	41
1.89000	42
1.89367	45
1.89733	49
1.90100	50
1.90467	48
1.90833	47
1.91200	49
1.91567	52
1.91933	50
1.92300	48
1.92667	49
1.93033	49
1.93400	51
1.93767	53
1.94133	56
1.94500	57
1.94867	58
1.95233	60
1.95600	61
1.95967	61
1.96333	61
1.96700	62
1.97067	66
1.97433	68
1.97800	70
1.98167	70
1.98533	67
1.98900	65
1.99267	64
1.99633	64
2.00000	67
2.00367	69
2.00733	70
2.01100	73
2.01467	75
2.01833	76
2.02200	74
2.02567	71
2.02933	70
2.03300	72
2.03667	75
2.04033	77
2.04400	79
2.04767	82
2.05133	86
2.05500	87
2.05867	89
2.06233	91
2.06600	91
2.06967	92
2.07333	93
2.07700	94
2.08067	94
2.08433	96
2.08800	100
2.09167	102
2.09533	104
2.09900	104
2.10267	102
2.10633	103
2.11000	104
2.11367	105
2.11733	106
2.12100	107
2.12467	107
2.12833	105
2.13200	104
2.13567	103
2.13933	104
2.14300	105
2.14667	107
2.15033	109
2.15400	112
2.15767	115
2.16133	116
2.16500	116
2.16867	115
2.17233	116
2.17600	116
2.17967	116
2.18333	116
2.18700	115
2.19067	115
2.19433	118
2.19800	122
2.20167	129
2.20533	134
2.20900	135
2.21267	135
2.21633	137
2.22000	137
2.22367	136
2.22733	134
2.23100	132
2.23467	130
2.23833	131
2.24200	134
2.24567	137
2.24933	137
2.25300	139
2.25667	140
2.26033	143
2.26400	144
2.26767	142
2.27133	143
2.27500	143
2.27867	146
2.28233	147
2.28600	147
2.28967	146
2.29333	145
2.29700	148
2.30067	153
2.30433	156
2.30800	154
2.31167	150
2.31533	150
2.31900	150
2.32267	149
2.32633	150
2.33000	153
2.33367	155
2.33733	155
2.34100	154
2.34467	155
2.34833	157
2.35200	158
2.35567	159
2.35933	159
2.36300	159
2.36667	160
2.37033	160
2.37400	161
2.37767	161
2.38133	159
2.38500	158
2.38867	159
2.39233	161
2.39600	163
2.39967	166
2.40333	166
2.40700	167
2.41067	169
2.41433	171
2.41800	171
2.42167	170
2.42533	168
2.42900	166
2.43267	165
2.43633	165
2.44000	171
2.44367	209
2.44733	283
2.45100	358
2.45467	410
2.45833	431
2.46200	436
2.46567	437
2.46933	434
2.47300	423
2.47667	404
2.48033	379
2.48400	353
2.48767	332
2.49133	317
2.49500	310
2.49867	311
2.50233	316
2.50600	320
2.50967	322
2.51333	320
2.51700	312
2.52067	301
2.52433	290
2.52800	278
2.53167	265
2.53533	251
2.53900	241
2.54267	238
2.54633	236
2.55000	234
2.55367	233
2.55733	233
2.56100	232
2.56467	231
2.56833	234
2.57200	238
2.57567	243
2.57933	250
2.58300	259
2.58667	267
2.59033	272
2.59400	272
2.59767	274
2.60133	275
2.60500	275
2.60867	271
2.61233	265
2.61600	258
2.61967	250
2.62333	243
2.62700	234
2.63067	224
2.63433	214
2.63800	206
2.64167	198
2.64533	192
2.64900	188
2.65267	184
2.65633	182
2.66000	179
2.66367	178
2.66733	178
2.67100	179
2.67467	179
2.67833	178
2.68200	179
2.68567	181
2.68933	183
2.69300	185
2.69667	187
2.70033	190
2.70400	194
2.70767	196
2.71133	199
2.71500	201
2.71867	202
2.72233	203
2.72600	204
2.72967	204
2.73333	207
2.73700	212
2.74067	216
2.74433	217
2.74800	221
2.75167	223
2.75533	226
2.75900	228
2.76267	230
2.76633	234
2.77000	238
2.77367	242
2.77733	247
2.78100	250
2.78467	248
2.78833	245
2.79200	244
2.79567	244
2.79933	245
2.80300	247
2.80667	246
2.81033	243
2.81400	242
2.81767	239
2.82133	239
2.82500	239
2.82867	240
2.83233	244
2.83600	258
2.83967	292
2.84333	363
2.84700	490
2.85067	696
2.85433	992
2.85800	1387
2.86167	1864
2.86533	2400
2.86900	2949
2.87267	3470
2.87633	3916
2.88000	4249
2.88367	4447
2.88733	4514
2.89100	4457
2.89467	4296
2.89833	4063
2.90200	3780
2.90567	3472
2.90933	3156
2.91300	2844
2.91667	2548
2.92033	2273
2.92400	2020
2.92767	1789
2.93133	1581
2.93500	1394
2.93867	1233
2.94233	1099
2.94600	996
2.94967	917
2.95333	859
2.95700	817
2.96067	790
2.96433	775
2.96800	770
2.97167	772
2.97533	777
2.97900	784
2.98267	791
2.98633	798
2.99000	804
2.99367	811
2.99733	817
3.00100	822
3.00467	828
3.00833	831
3.01200	834
3.01567	836
3.01933	840
3.02300	843
3.02667	845
3.03033	847
3.03400	848
3.03767	852
3.04133	856
3.04500	856
3.04867	855
3.05233	855
3.05600	859
3.05967	860
3.06333	862
3.06700	864
3.07067	864
3.07433	864
3.07800	866
3.08167	867
3.08533	870
3.08900	873
3.09267	874
3.09633	875
3.10000	877
3.10367	878
3.10733	878
3.11100	880
3.11467	881
3.11833	882
3.12200	880
3.12567	878
3.12933	878
3.13300	882
3.13667	883
3.14033	885
3.14400	888
3.14767	888
3.15133	888
3.15500	888
3.15867	886
3.16233	885
3.16600	887
3.16967	888
3.17333	888
3.17700	886
3.18067	884
3.18433	884
3.18800	884
3.19167	883
3.19533	883
3.19900	883
3.20267	881
3.20633	879
3.21000	877
3.21367	875
3.21733	872
3.22100	869
3.22467	865
3.22833	861
3.23200	858
3.23567	856
3.23933	853
3.24300	851
3.24667	848
3.25033	847
3.25400	844
3.25767	838
3.26133	833
3.26500	831
3.26867	828
3.27233	824
3.27600	819
3.27967	813
3.28333	808
3.28700	804
3.29067	802
3.29433	801
3.29800	799
3.30167	795
3.30533	791
3.30900	788
3.31267	784
3.31633	779
3.32000	776
3.32367	771
3.32733	765
3.33100	757
3.33467	753
3.33833	751
3.34200	750
3.34567	748
3.34933	744
3.35300	741
3.35667	736
3.36033	733
3.36400	730
3.36767	728
3.37133	725
3.37500	721
3.37867	719
3.38233	716
3.38600	712
3.38967	708
3.39333	707
3.39700	705
3.40067	702
3.40433	697
3.40800	693
3.41167	690
3.41533	689
3.41900	689
3.42267	687
3.42633	686
3.43000	685
3.43367	684
3.43733	685
3.44100	684
3.44467	681
3.44833	680
3.45200	681
3.45567	680
3.45933	676
3.46300	672
3.46667	667
3.47033	663
3.47400	662
3.47767	662
3.48133	660
3.48500	657
3.48867	651
3.49233	647
3.49600	644
3.49967	640
3.50333	641
3.50700	642
3.51067	642
3.51433	641
3.51800	639
3.52167	636
3.52533	633
3.52900	630
3.53267	627
3.53633	625
3.54000	623
3.54367	621
3.54733	622
3.55100	621
3.55467	618
3.55833	617
3.56200	617
3.56567	617
3.56933	620
3.57300	620
3.57667	618
3.58033	619
3.58400	618
3.58767	616
3.59133	616
3.59500	616
3.59867	616
3.60233	616
3.60600	617
3.60967	618
3.61333	618
3.61700	617
3.62067	613
3.62433	611
3.62800	609
3.63167	608
3.63533	606
3.63900	602
3.64267	601
3.64633	601
3.65000	600
3.65367	596
3.65733	594
3.66100	594
3.66467	593
3.66833	593
3.67200	594
3.67567	594
3.67933	592
3.68300	589
3.68667	586
3.69033	584
3.69400	583
3.69767	583
3.70133	584
3.70500	584
3.70867	587
3.71233	587
3.71600	585
3.71967	584
3.72333	581
3.72700	578
3.73067	576
3.73433	572
3.73800	569
3.74167	569
3.74533	569
3.74900	570
3.75267	571
3.75633	570
3.76000	570
3.76367	570
3.76733	570
3.77100	566
3.77467	561
3.77833	558
3.78200	557
3.78567	557
3.78933	558
3.79300	558
3.79667	556
3.80033	555
3.80400	553
3.80767	550
3.81133	547
3.81500	549
3.81867	550
3.82233	548
3.82600	547
3.82967	549
3.83333	551
3.83700	550
3.84067	547
3.84433	547
3.84800	546
3.85167	544
3.85533	541
3.85900	538
3.86267	536
3.86633	536
3.87000	536
3.87367	534
3.87733	533
3.88100	532
3.88467	530
3.88833	527
3.89200	525
3.89567	523
3.89933	522
3.90300	521
3.90667	523
3.91033	527
3.91400	527
3.91767	526
3.92133	524
3.92500	523
3.92867	524
3.93233	523
3.93600	521
3.93967	519
3.94333	517
3.94700	515
3.95067	511
3.95433	510
3.95800	509
3.96167	507
3.96533	505
3.96900	504
3.97267	504
3.97633	504
3.98000	504
3.98367	503
3.98733	501
3.99100	498
3.99467	494
3.99833	491

[Status Trace (Column Oven Temperature)]
Interval(msec)	1000
# of Points	240
Start Time(min)	0.011
End Time(min)	3.995
Intensity Units	
Intensity Multiplier	1
R.Time (min)	Intensity
0.01132	35.02
0.02798	35.02
0.04465	35.02
0.06132	35.01
0.07798	35.01
0.09465	35.01
0.11132	35.00
0.12798	35.01
0.14465	35.00
0.16132	35.01
0.17798	35.03
0.19465	35.03
0.21132	35.03
0.22798	35.04
0.24465	35.04
0.26132	35.04
0.27798	35.04
0.29465	35.03
0.31132	35.03
0.32798	35.02
0.34465	35.01
0.36132	35.01
0.37798	35.00
0.39465	35.00
0.41132	34.99
0.42798	34.99
0.44465	35.00
0.46132	35.01
0.47798	35.02
0.49465	35.03
0.51132	35.04
0.52798	35.03
0.54465	35.02
0.56132	35.02
0.57798	35.01
0.59465	35.01
0.61132	35.00
0.62798	34.99
0.64465	34.99
0.66132	34.99
0.67798	35.00
0.69465	35.02
0.71132	35.02
0.72798	35.01
0.74465	35.02
0.76132	35.02
0.77798	35.01
0.79465	35.01
0.81132	35.02
0.82798	35.02
0.84465	35.02
0.86132	35.02
0.87798	35.02
0.89465	35.02
0.91132	35.02
0.92798	35.01
0.94465	35.01
0.96132	35.01
0.97798	35.03
0.99465	35.03
1.01132	35.04
1.02798	35.05
1.04465	35.05
1.06132	35.05
1.07798	35.04
1.09465	35.03
1.11132	35.02
1.12798	35.02
1.14465	35.03
1.16132	35.02
1.17798	35.01
1.19465	35.00
1.21132	34.99
1.22798	34.99
1.24465	34.98
1.26132	34.99
1.27798	34.98
1.29465	34.98
1.31132	34.97
1.32798	34.97
1.34465	34.98
1.36132	34.98
1.37798	34.98
1.39465	34.99
1.41132	34.99
1.42798	34.99
1.44465	34.99
1.46132	34.99
1.47798	35.00
1.49465	35.00
1.51132	35.01
1.52798	35.00
1.54465	35.00
1.56132	35.00
1.57798	34.99
1.59465	35.01
1.61132	35.08
1.62798	35.21
1.64465	35.40
1.66132	35.65
1.67798	36.00
1.69465	36.36
1.71132	36.71
1.72798	37.05
1.74465	37.40
1.76132	37.74
1.77798	38.03
1.79465	38.37
1.81132	38.70
1.82798	39.03
1.84465	39.38
1.86132	39.70
1.87798	40.02
1.89465	40.36
1.91132	40.69
1.92798	41.01
1.94465	41.33
1.96132	41.65
1.97798	41.98
1.99465	42.30
2.01132	42.63
2.02798	42.95
2.04465	43.26
2.06132	43.58
2.07798	43.90
2.09465	44.25
2.11132	44.57
2.12798	44.88
2.14465	45.22
2.16132	45.56
2.17798	45.87
2.19465	46.21
2.21132	46.56
2.22798	46.87
2.24465	47.22
2.26132	47.58
2.27798	47.87
2.29465	48.22
2.31132	48.57
2.32798	48.89
2.34465	49.20
2.36132	49.48
2.37798	49.66
2.39465	49.73
2.41132	49.73
2.42798	49.74
2.44465	49.75
2.46132	49.75
2.47798	49.77
2.49465	49.77
2.51132	49.78
2.52798	49.80
2.54465	49.79
2.56132	49.82
2.57798	49.84
2.59465	49.83
2.61132	49.84
2.62798	49.84
2.64465	49.85
2.66132	49.85
2.67798	49.83
2.69465	49.86
2.71132	49.86
2.72798	49.84
2.74465	49.87
2.76132	49.88
2.77798	49.88
2.79465	49.87
2.81132	49.86
2.82798	49.86
2.84465	49.87
2.86132	49.87
2.87798	49.89
2.89465	49.90
2.91132	49.92
2.92798	49.94
2.94465	49.96
2.96132	49.97
2.97798	49.98
2.99465	49.99
3.01132	49.99
3.02798	50.00
3.04465	50.01
3.06132	50.03
3.07798	50.04
3.09465	50.07
3.11132	50.08
3.12798	50.09
3.14465	50.10
3.16132	50.11
3.17798	50.11
3.19465	50.10
3.21132	50.09
3.22798	50.08
3.24465	50.07
3.26132	50.05
3.27798	50.04
3.29465	50.03
3.31132	50.02
3.32798	50.02
3.34465	50.01
3.36132	50.01
3.37798	50.01
3.39465	50.01
3.41132	50.01
3.42798	50.01
3.44465	50.01
3.46132	50.01
3.47798	50.01
3.49465	50.02
3.51132	50.03
3.52798	50.04
3.54465	50.05
3.56132	50.05
3.57798	50.06
3.59465	50.06
3.61132	50.06
3.62798	50.06
3.64465	50.06
3.66132	50.06
3.67798	50.05
3.69465	50.04
3.71132	50.05
3.72798	50.07
3.74465	50.08
3.76132	50.08
3.77798	50.09
3.79465	50.09
3.81132	50.09
3.82798	50.10
3.84465	50.10
3.86132	50.09
3.87798	50.08
3.89465	50.08
3.91132	50.08
3.92798	50.08
3.94465	50.07
3.96132	50.08
3.97798	50.08
3.99465	50.08

[Status Trace (Injection Unit Temperature)]
Interval(msec)	1000
# of Points	240
Start Time(min)	0.011
End Time(min)	3.995
Intensity Units	
Intensity Multiplier	1
R.Time (min)	Intensity
0.01132	99.98
0.02798	99.98
0.04465	99.98
0.06132	99.98
0.07798	99.98
0.09465	99.98
0.11132	99.98
0.12798	99.98
0.14465	99.98
0.16132	99.98
0.17798	99.98
0.19465	99.98
0.21132	99.98
0.22798	99.98
0.24465	99.98
0.26132	99.98
0.27798	99.98
0.29465	99.98
0.31132	99.99
0.32798	99.98
0.34465	99.98
0.36132	99.98
0.37798	99.99
0.39465	99.98
0.41132	99.99
0.42798	99.98
0.44465	99.99
0.46132	99.98
0.47798	99.99
0.49465	99.99
0.51132	99.99
0.52798	99.98
0.54465	99.98
0.56132	99.99
0.57798	99.98
0.59465	99.99
0.61132	99.99
0.62798	99.99
0.64465	99.98
0.66132	99.99
0.67798	99.99
0.69465	99.99
0.71132	99.99
0.72798	99.99
0.74465	99.99
0.76132	99.99
0.77798	99.99
0.79465	99.99
0.81132	99.98
0.82798	99.99
0.84465	99.99
0.86132	99.99
0.87798	99.99
0.89465	99.99
0.91132	99.99
0.92798	99.98
0.94465	99.99
0.96132	99.98
0.97798	99.99
0.99465	99.99
1.01132	99.99
1.02798	99.99
1.04465	99.99
1.06132	99.99
1.07798	99.98
1.09465	99.98
1.11132	99.98
1.12798	99.98
1.14465	99.98
1.16132	99.99
1.17798	99.98
1.19465	99.99
1.21132	99.98
1.22798	99.98
1.24465	99.98
1.26132	99.99
1.27798	99.98
1.29465	99.98
1.31132	99.98
1.32798	99.98
1.34465	99.98
1.36132	99.98
1.37798	99.98
1.39465	99.99
1.41132	99.98
1.42798	99.98
1.44465	99.98
1.46132	99.98
1.47798	99.98
1.49465	99.98
1.51132	99.98
1.52798	99.98
1.54465	99.98
1.56132	99.98
1.57798	99.98
1.59465	99.98
1.61132	99.98
1.62798	99.98
1.64465	99.98
1.66132	99.98
1.67798	99.98
1.69465	99.98
1.71132	99.98
1.72798	99.98
1.74465	99.98
1.76132	99.98
1.77798	99.98
1.79465	99.98
1.81132	99.98
1.82798	99.98
1.84465	99.98
1.86132	99.98
1.87798	99.98
1.89465	99.98
1.91132	99.98
1.92798	99.98
1.94465	99.98
1.96132	99.98
1.97798	99.98
1.99465	99.98
2.01132	99.98
2.02798	99.98
2.04465	99.97
2.06132	99.97
2.07798	99.97
2.09465	99.97
2.11132	99.97
2.12798	99.97
2.14465	99.97
2.16132	99.97
2.17798	99.97
2.19465	99.97
2.21132	99.97
2.22798	99.97
2.24465	99.97
2.26132	99.96
2.27798	99.97
2.29465	99.96
2.31132	99.96
2.32798	99.96
2.34465	99.96
2.36132	99.96
2.37798	99.96
2.39465	99.96
2.41132	99.96
2.42798	99.96
2.44465	99.96
2.46132	99.97
2.47798	99.97
2.49465	99.97
2.51132	99.97
2.52798	99.97
2.54465	99.97
2.56132	99.97
2.57798	99.97
2.59465	99.97
2.61132	99.97
2.62798	99.98
2.64465	99.98
2.66132	99.98
2.67798	99.98
2.69465	99.98
2.71132	99.98
2.72798	99.98
2.74465	99.99
2.76132	99.99
2.77798	99.99
2.79465	99.99
2.81132	99.99
2.82798	99.99
2.84465	100.00
2.86132	99.99
2.87798	100.00
2.89465	100.00
2.91132	100.00
2.92798	100.00
2.94465	100.00
2.96132	100.01
2.97798	100.01
2.99465	100.00
3.01132	100.01
3.02798	100.01
3.04465	100.01
3.06132	100.01
3.07798	100.01
3.09465	100.01
3.11132	100.01
3.12798	100.01
3.14465	100.02
3.16132	100.02
3.17798	100.02
3.19465	100.02
3.21132	100.02
3.22798	100.02
3.24465	100.03
3.26132	100.02
3.27798	100.02
3.29465	100.03
3.31132	100.03
3.32798	100.03
3.34465	100.03
3.36132	100.03
3.37798	100.03
3.39465	100.03
3.41132	100.03
3.42798	100.04
3.44465	100.03
3.46132	100.03
3.47798	100.03
3.49465	100.03
3.51132	100.03
3.52798	100.04
3.54465	100.04
3.56132	100.04
3.57798	100.04
3.59465	100.04
3.61132	100.04
3.62798	100.04
3.64465	100.04
3.66132	100.04
3.67798	100.04
3.69465	100.04
3.71132	100.04
3.72798	100.05
3.74465	100.05
3.76132	100.05
3.77798	100.05
3.79465	100.05
3.81132	100.05
3.82798	100.05
3.84465	100.05
3.86132	100.05
3.87798	100.05
3.89465	100.05
3.91132	100.05
3.92798	100.05
3.94465	100.05
3.96132	100.05
3.97798	100.05
3.99465	100.05

[Status Trace (Carrier Gas Pressure)]
Interval(msec)	1000
# of Points	240
Start Time(min)	0.011
End Time(min)	3.995
Intensity Units	
Intensity Multiplier	1
R.Time (min)	Intensity
0.01132	58.00
0.02798	54.99
0.04465	57.60
0.06132	59.71
0.07798	58.81
0.09465	58.00
0.11132	57.99
0.12798	58.01
0.14465	58.01
0.16132	58.00
0.17798	58.00
0.19465	58.00
0.21132	58.00
0.22798	58.00
0.24465	58.00
0.26132	58.00
0.27798	58.00
0.29465	58.00
0.31132	58.00
0.32798	58.00
0.34465	58.00
0.36132	58.00
0.37798	58.00
0.39465	58.00
0.41132	58.00
0.42798	58.00
0.44465	58.00
0.46132	58.00
0.47798	58.00
0.49465	58.00
0.51132	58.00
0.52798	58.00
0.54465	58.00
0.56132	58.00
0.57798	58.00
0.59465	58.00
0.61132	58.00
0.62798	58.00
0.64465	58.00
0.66132	58.00
0.67798	58.00
0.69465	58.00
0.71132	58.00
0.72798	58.00
0.74465	58.00
0.76132	58.00
0.77798	58.00
0.79465	58.00
0.81132	58.00
0.82798	58.00
0.84465	58.00
0.86132	58.00
0.87798	58.00
0.89465	58.00
0.91132	58.00
0.92798	58.00
0.94465	58.00
0.96132	58.00
0.97798	58.00
0.99465	58.00
1.01132	58.00
1.02798	58.00
1.04465	58.00
1.06132	58.00
1.07798	58.00
1.09465	58.00
1.11132	58.00
1.12798	58.00
1.14465	58.00
1.16132	58.00
1.17798	58.00
1.19465	58.00
1.21132	58.00
1.22798	58.00
1.24465	58.00
1.26132	58.00
1.27798	58.00
1.29465	58.00
1.31132	58.00
1.32798	58.00
1.34465	58.00
1.36132	58.00
1.37798	58.00
1.39465	58.00
1.41132	58.00
1.42798	58.00
1.44465	58.00
1.46132	58.00
1.47798	58.00
1.49465	58.00
1.51132	58.00
1.52798	58.00
1.54465	58.00
1.56132	58.00
1.57798	58.00
1.59465	58.00
1.61132	58.00
1.62798	58.00
1.64465	58.00
1.66132	58.00
1.67798	58.01
1.69465	58.00
1.71132	58.00
1.72798	58.00
1.74465	58.00
1.76132	58.00
1.77798	58.00
1.79465	58.00
1.81132	58.00
1.82798	58.00
1.84465	58.00
1.86132	58.00
1.87798	58.00
1.89465	58.00
1.91132	58.00
1.92798	58.00
1.94465	58.00
1.96132	58.00
1.97798	58.00
1.99465	58.00
2.01132	58.00
2.02798	58.00
2.04465	58.00
2.06132	58.00
2.07798	58.00
2.09465	58.00
2.11132	58.00
2.12798	58.00
2.14465	58.00
2.16132	58.00
2.17798	58.00
2.19465	58.00
2.21132	58.00
2.22798	58.00
2.24465	58.00
2.26132	58.00
2.27798	58.00
2.29465	58.00
2.31132	58.00
2.32798	58.00
2.34465	58.00
2.36132	58.00
2.37798	58.00
2.39465	57.99
2.41132	57.99
2.42798	58.00
2.44465	58.00
2.46132	58.00
2.47798	58.00
2.49465	58.00
2.51132	57.99
2.52798	57.99
2.54465	58.00
2.56132	58.00
2.57798	58.00
2.59465	58.00
2.61132	58.00
2.62798	58.00
2.64465	58.00
2.66132	58.00
2.67798	58.00
2.69465	58.00
2.71132	58.00
2.72798	58.00
2.74465	58.00
2.76132	58.00
2.77798	58.00
2.79465	58.00
2.81132	58.00
2.82798	58.00
2.84465	58.00
2.86132	58.00
2.87798	58.00
2.89465	58.00
2.91132	58.00
2.92798	58.00
2.94465	58.00
2.96132	58.00
2.97798	58.00
2.99465	58.00
3.01132	58.00
3.02798	58.00
3.04465	58.00
3.06132	58.00
3.07798	58.00
3.09465	58.00
3.11132	58.00
3.12798	58.00
3.14465	58.00
3.16132	58.00
3.17798	58.00
3.19465	58.00
3.21132	58.00
3.22798	58.00
3.24465	58.00
3.26132	58.00
3.27798	58.00
3.29465	58.00
3.31132	58.00
3.32798	58.00
3.34465	58.00
3.36132	58.00
3.37798	58.00
3.39465	58.00
3.41132	58.00
3.42798	58.00
3.44465	58.00
3.46132	58.00
3.47798	58.00
3.49465	58.00
3.51132	58.00
3.52798	58.00
3.54465	58.00
3.56132	58.00
3.57798	58.00
3.59465	58.00
3.61132	58.00
3.62798	58.00
3.64465	58.00
3.66132	58.00
3.67798	58.00
3.69465	58.00
3.71132	58.00
3.72798	58.00
3.74465	58.00
3.76132	58.00
3.77798	58.00
3.79465	58.00
3.81132	58.00
3.82798	58.00
3.84465	58.00
3.86132	58.00
3.87798	58.00
3.89465	58.00
3.91132	58.00
3.92798	58.00
3.94465	58.00
3.96132	58.00
3.97798	58.00
3.99465	58.00

[Status Trace (Carrier Gas Flow)]
Interval(msec)	1000
# of Points	240
Start Time(min)	0.011
End Time(min)	3.995
Intensity Units	
Intensity Multiplier	1
R.Time (min)	Intensity
0.01132	34.51
0.02798	34.53
0.04465	34.55
0.06132	34.53
0.07798	34.51
0.09465	34.52
0.11132	34.52
0.12798	34.52
0.14465	34.52
0.16132	34.52
0.17798	34.52
0.19465	34.51
0.21132	34.52
0.22798	34.52
0.24465	34.52
0.26132	34.52
0.27798	34.52
0.29465	34.52
0.31132	34.52
0.32798	34.52
0.34465	34.52
0.36132	34.52
0.37798	34.51
0.39465	34.51
0.41132	34.52
0.42798	34.51
0.44465	34.52
0.46132	34.52
0.47798	34.52
0.49465	34.51
0.51132	34.52
0.52798	34.52
0.54465	34.52
0.56132	34.52
0.57798	34.52
0.59465	34.52
0.61132	34.52
0.62798	34.52
0.64465	34.52
0.66132	34.52
0.67798	34.51
0.69465	34.52
0.71132	34.53
0.72798	34.52
0.74465	34.52
0.76132	34.52
0.77798	34.52
0.79465	34.52
0.81132	34.52
0.82798	34.52
0.84465	34.51
0.86132	34.51
0.87798	34.52
0.89465	34.52
0.91132	34.52
0.92798	34.52
0.94465	34.52
0.96132	34.52
0.97798	34.52
0.99465	34.52
1.01132	34.52
1.02798	34.52
1.04465	34.52
1.06132	34.52
1.07798	34.52
1.09465	34.51
1.11132	34.52
1.12798	34.51
1.14465	34.52
1.16132	34.51
1.17798	34.52
1.19465	34.52
1.21132	34.52
1.22798	34.51
1.24465	34.52
1.26132	34.52
1.27798	34.52
1.29465	34.52
1.31132	34.52
1.32798	34.52
1.34465	34.52
1.36132	34.52
1.37798	34.52
1.39465	34.52
1.41132	34.51
1.42798	34.52
1.44465	34.52
1.46132	34.52
1.47798	34.52
1.49465	34.52
1.51132	34.52
1.52798	34.52
1.54465	34.52
1.56132	34.52
1.57798	34.52
1.59465	34.51
1.61132	34.52
1.62798	34.52
1.64465	34.52
1.66132	34.52
1.67798	34.52
1.69465	34.52
1.71132	34.52
1.72798	34.51
1.74465	34.52
1.76132	34.52
1.77798	34.52
1.79465	34.52
1.81132	34.52
1.82798	34.52
1.84465	34.52
1.86132	34.52
1.87798	34.52
1.89465	34.52
1.91132	34.52
1.92798	34.52
1.94465	34.52
1.96132	34.52
1.97798	34.51
1.99465	34.52
2.01132	34.52
2.02798	34.52
2.04465	34.52
2.06132	34.52
2.07798	34.52
2.09465	34.52
2.11132	34.51
2.12798	34.52
2.14465	34.52
2.16132	34.52
2.17798	34.51
2.19465	34.52
2.21132	34.52
2.22798	34.52
2.24465	34.52
2.26132	34.52
2.27798	34.52
2.29465	34.52
2.31132	34.52
2.32798	34.52
2.34465	34.52
2.36132	34.52
2.37798	34.52
2.39465	34.52
2.41132	34.52
2.42798	34.51
2.44465	34.52
2.46132	34.52
2.47798	34.52
2.49465	34.52
2.51132	34.51
2.52798	34.52
2.54465	34.52
2.56132	34.52
2.57798	34.52
2.59465	34.52
2.61132	34.52
2.62798	34.52
2.64465	34.52
2.66132	34.51
2.67798	34.52
2.69465	34.52
2.71132	34.51
2.72798	34.52
2.74465	34.51
2.76132	34.53
2.77798	34.53
2.79465	34.51
2.81132	34.52
2.82798	34.52
2.84465	34.52
2.86132	34.51
2.87798	34.52
2.89465	34.52
2.91132	34.51
2.92798	34.52
2.94465	34.52
2.96132	34.52
2.97798	34.51
2.99465	34.52
3.01132	34.52
3.02798	34.52
3.04465	34.52
3.06132	34.52
3.07798	34.52
3.09465	34.51
3.11132	34.52
3.12798	34.52
3.14465	34.51
3.16132	34.52
3.17798	34.52
3.19465	34.52
3.21132	34.51
3.22798	34.52
3.24465	34.52
3.26132	34.52
3.27798	34.51
3.29465	34.52
3.31132	34.52
3.32798	34.52
3.34465	34.52
3.36132	34.51
3.37798	34.52
3.39465	34.52
3.41132	34.52
3.42798	34.52
3.44465	34.52
3.46132	34.52
3.47798	34.52
3.49465	34.51
3.51132	34.52
3.52798	34.51
3.54465	34.52
3.56132	34.52
3.57798	34.52
3.59465	34.52
3.61132	34.52
3.62798	34.52
3.64465	34.52
3.66132	34.52
3.67798	34.52
3.69465	34.52
3.71132	34.52
3.72798	34.53
3.74465	34.52
3.76132	34.51
3.77798	34.52
3.79465	34.52
3.81132	34.52
3.82798	34.52
3.84465	34.52
3.86132	34.52
3.87798	34.52
3.89465	34.52
3.91132	34.52
3.92798	34.52
3.94465	34.52
3.96132	34.52
3.97798	34.52
3.99465	34.52

[Status Trace (Column Flow)]
Interval(msec)	1000
# of Points	240
Start Time(min)	0.011
End Time(min)	3.995
Intensity Units	
Intensity Multiplier	1
R.Time (min)	Intensity
0.01132	5.52
0.02798	5.17
0.04465	5.47
0.06132	5.72
0.07798	5.61
0.09465	5.52
0.11132	5.52
0.12798	5.52
0.14465	5.52
0.16132	5.52
0.17798	5.52
0.19465	5.52
0.21132	5.52
0.22798	5.52
0.24465	5.52
0.26132	5.52
0.27798	5.52
0.29465	5.52
0.31132	5.52
0.32798	5.52
0.34465	5.52
0.36132	5.52
0.37798	5.52
0.39465	5.52
0.41132	5.52
0.42798	5.52
0.44465	5.52
0.46132	5.52
0.47798	5.52
0.49465	5.52
0.51132	5.52
0.52798	5.52
0.54465	5.52
0.56132	5.52
0.57798	5.52
0.59465	5.52
0.61132	5.52
0.62798	5.52
0.64465	5.52
0.66132	5.52
0.67798	5.52
0.69465	5.52
0.71132	5.52
0.72798	5.52
0.74465	5.52
0.76132	5.52
0.77798	5.52
0.79465	5.52
0.81132	5.52
0.82798	5.52
0.84465	5.52
0.86132	5.52
0.87798	5.52
0.89465	5.52
0.91132	5.52
0.92798	5.52
0.94465	5.52
0.96132	5.52
0.97798	5.52
0.99465	5.52
1.01132	5.52
1.02798	5.52
1.04465	5.52
1.06132	5.52
1.07798	5.52
1.09465	5.52
1.11132	5.52
1.12798	5.52
1.14465	5.52
1.16132	5.52
1.17798	5.52
1.19465	5.52
1.21132	5.52
1.22798	5.52
1.24465	5.52
1.26132	5.52
1.27798	5.52
1.29465	5.52
1.31132	5.52
1.32798	5.52
1.34465	5.52
1.36132	5.52
1.37798	5.52
1.39465	5.52
1.41132	5.52
1.42798	5.52
1.44465	5.52
1.46132	5.52
1.47798	5.52
1.49465	5.52
1.51132	5.52
1.52798	5.52
1.54465	5.52
1.56132	5.52
1.57798	5.52
1.59465	5.52
1.61132	5.52
1.62798	5.51
1.64465	5.51
1.66132	5.50
1.67798	5.49
1.69465	5.48
1.71132	5.46
1.72798	5.45
1.74465	5.44
1.76132	5.43
1.77798	5.42
1.79465	5.41
1.81132	5.40
1.82798	5.39
1.84465	5.38
1.86132	5.37
1.87798	5.36
1.89465	5.35
1.91132	5.34
1.92798	5.33
1.94465	5.32
1.96132	5.31
1.97798	5.30
1.99465	5.29
2.01132	5.29
2.02798	5.28
2.04465	5.27
2.06132	5.26
2.07798	5.25
2.09465	5.24
2.11132	5.23
2.12798	5.22
2.14465	5.21
2.16132	5.20
2.17798	5.19
2.19465	5.18
2.21132	5.17
2.22798	5.16
2.24465	5.15
2.26132	5.14
2.27798	5.13
2.29465	5.12
2.31132	5.11
2.32798	5.11
2.34465	5.10
2.36132	5.09
2.37798	5.08
2.39465	5.08
2.41132	5.08
2.42798	5.08
2.44465	5.08
2.46132	5.08
2.47798	5.08
2.49465	5.08
2.51132	5.08
2.52798	5.08
2.54465	5.08
2.56132	5.08
2.57798	5.08
2.59465	5.08
2.61132	5.08
2.62798	5.08
2.64465	5.08
2.66132	5.08
2.67798	5.08
2.69465	5.08
2.71132	5.08
2.72798	5.08
2.74465	5.08
2.76132	5.08
2.77798	5.08
2.79465	5.08
2.81132	5.08
2.82798	5.08
2.84465	5.08
2.86132	5.08
2.87798	5.08
2.89465	5.08
2.91132	5.08
2.92798	5.08
2.94465	5.08
2.96132	5.08
2.97798	5.07
2.99465	5.07
3.01132	5.07
3.02798	5.07
3.04465	5.07
3.06132	5.07
3.07798	5.07
3.09465	5.07
3.11132	5.07
3.12798	5.07
3.14465	5.07
3.16132	5.07
3.17798	5.07
3.19465	5.07
3.21132	5.07
3.22798	5.07
3.24465	5.07
3.26132	5.07
3.27798	5.07
3.29465	5.07
3.31132	5.07
3.32798	5.07
3.34465	5.07
3.36132	5.07
3.37798	5.07
3.39465	5.07
3.41132	5.07
3.42798	5.07
3.44465	5.07
3.46132	5.07
3.47798	5.07
3.49465	5.07
3.51132	5.07
3.52798	5.07
3.54465	5.07
3.56132	5.07
3.57798	5.07
3.59465	5.07
3.61132	5.07
3.62798	5.07
3.64465	5.07
3.66132	5.07
3.67798	5.07
3.69465	5.07
3.71132	5.07
3.72798	5.07
3.74465	5.07
3.76132	5.07
3.77798	5.07
3.79465	5.07
3.81132	5.07
3.82798	5.07
3.84465	5.07
3.86132	5.07
3.87798	5.07
3.89465	5.07
3.91132	5.07
3.92798	5.07
3.94465	5.07
3.96132	5.07
3.97798	5.07
3.99465	5.07

[Status Trace (Linear Velocity)]
Interval(msec)	1000
# of Points	240
Start Time(min)	0.011
End Time(min)	3.995
Intensity Units	
Intensity Multiplier	1
R.Time (min)	Intensity
0.01132	39.01
0.02798	37.04
0.04465	38.76
0.06132	40.13
0.07798	39.54
0.09465	39.01
0.11132	39.01
0.12798	39.02
0.14465	39.02
0.16132	39.02
0.17798	39.02
0.19465	39.01
0.21132	39.01
0.22798	39.01
0.24465	39.01
0.26132	39.01
0.27798	39.01
0.29465	39.01
0.31132	39.01
0.32798	39.01
0.34465	39.01
0.36132	39.01
0.37798	39.02
0.39465	39.02
0.41132	39.02
0.42798	39.02
0.44465	39.02
0.46132	39.01
0.47798	39.01
0.49465	39.01
0.51132	39.01
0.52798	39.01
0.54465	39.01
0.56132	39.01
0.57798	39.02
0.59465	39.01
0.61132	39.02
0.62798	39.02
0.64465	39.02
0.66132	39.02
0.67798	39.02
0.69465	39.01
0.71132	39.01
0.72798	39.01
0.74465	39.01
0.76132	39.01
0.77798	39.01
0.79465	39.01
0.81132	39.01
0.82798	39.01
0.84465	39.01
0.86132	39.01
0.87798	39.01
0.89465	39.01
0.91132	39.01
0.92798	39.01
0.94465	39.01
0.96132	39.01
0.97798	39.01
0.99465	39.01
1.01132	39.01
1.02798	39.01
1.04465	39.01
1.06132	39.01
1.07798	39.01
1.09465	39.01
1.11132	39.01
1.12798	39.01
1.14465	39.01
1.16132	39.01
1.17798	39.01
1.19465	39.02
1.21132	39.02
1.22798	39.02
1.24465	39.02
1.26132	39.02
1.27798	39.02
1.29465	39.02
1.31132	39.02
1.32798	39.02
1.34465	39.02
1.36132	39.02
1.37798	39.02
1.39465	39.02
1.41132	39.02
1.42798	39.02
1.44465	39.02
1.46132	39.02
1.47798	39.02
1.49465	39.02
1.51132	39.02
1.52798	39.02
1.54465	39.02
1.56132	39.02
1.57798	39.02
1.59465	39.01
1.61132	39.01
1.62798	39.00
1.64465	38.98
1.66132	38.96
1.67798	38.92
1.69465	38.89
1.71132	38.85
1.72798	38.82
1.74465	38.79
1.76132	38.75
1.77798	38.73
1.79465	38.70
1.81132	38.66
1.82798	38.63
1.84465	38.60
1.86132	38.57
1.87798	38.54
1.89465	38.51
1.91132	38.48
1.92798	38.45
1.94465	38.42
1.96132	38.39
1.97798	38.36
1.99465	38.33
2.01132	38.30
2.02798	38.27
2.04465	38.24
2.06132	38.21
2.07798	38.18
2.09465	38.15
2.11132	38.12
2.12798	38.09
2.14465	38.06
2.16132	38.03
2.17798	38.00
2.19465	37.97
2.21132	37.94
2.22798	37.91
2.24465	37.88
2.26132	37.85
2.27798	37.82
2.29465	37.79
2.31132	37.76
2.32798	37.73
2.34465	37.70
2.36132	37.68
2.37798	37.66
2.39465	37.65
2.41132	37.65
2.42798	37.65
2.44465	37.65
2.46132	37.65
2.47798	37.65
2.49465	37.65
2.51132	37.65
2.52798	37.64
2.54465	37.65
2.56132	37.65
2.57798	37.65
2.59465	37.65
2.61132	37.65
2.62798	37.65
2.64465	37.64
2.66132	37.64
2.67798	37.65
2.69465	37.64
2.71132	37.64
2.72798	37.64
2.74465	37.64
2.76132	37.64
2.77798	37.64
2.79465	37.64
2.81132	37.64
2.82798	37.64
2.84465	37.64
2.86132	37.64
2.87798	37.64
2.89465	37.64
2.91132	37.64
2.92798	37.64
2.94465	37.64
2.96132	37.63
2.97798	37.63
2.99465	37.63
3.01132	37.63
3.02798	37.63
3.04465	37.63
3.06132	37.63
3.07798	37.63
3.09465	37.63
3.11132	37.62
3.12798	37.62
3.14465	37.62
3.16132	37.62
3.17798	37.62
3.19465	37.62
3.21132	37.62
3.22798	37.62
3.24465	37.63
3.26132	37.63
3.27798	37.63
3.29465	37.63
3.31132	37.63
3.32798	37.63
3.34465	37.63
3.36132	37.63
3.37798	37.63
3.39465	37.63
3.41132	37.63
3.42798	37.63
3.44465	37.63
3.46132	37.63
3.47798	37.63
3.49465	37.63
3.51132	37.63
3.52798	37.63
3.54465	37.63
3.56132	37.63
3.57798	37.63
3.59465	37.63
3.61132	37.63
3.62798	37.63
3.64465	37.63
3.66132	37.63
3.67798	37.63
3.69465	37.63
3.71132	37.63
3.72798	37.63
3.74465	37.63
3.76132	37.62
3.77798	37.62
3.79465	37.62
3.81132	37.62
3.82798	37.62
3.84465	37.62
3.86132	37.62
3.87798	37.62
3.89465	37.62
3.91132	37.62
3.92798	37.62
3.94465	37.63
3.96132	37.62
3.97798	37.62
3.99465	37.62

