[Header]
Application Name	LabSolutions
Version	5.110
Data File Name	C:\Users\User\Desktop\Junior\UIC Prairie Sampling\3.23.23\032323_050.gcd
Output Date	5/24/2023
Output Time	10:27:38 AM

[File Information]
Type	Data File
Generated	5/23/2023 9:03:57 PM
Generated by	System Administrator
Modified	5/23/2023 9:10:49 PM
Modified by	System Administrator

[Sample Information]
Operator Name	System Administrator
Acquired	5/23/2023 9:06:48 PM
Sample Type	0:Unknown
Level	0
Sample Name	050
Sample ID	050
ISTD Amount1	1
ISTD Amount2	1
ISTD Amount3	1
ISTD Amount4	1
ISTD Amount5	1
ISTD Amount6	1
ISTD Amount7	1
ISTD Amount8	1
ISTD Amount9	1
ISTD Amount10	1
ISTD Amount11	1
ISTD Amount12	1
ISTD Amount13	1
ISTD Amount14	1
ISTD Amount15	1
ISTD Amount16	1
ISTD Amount17	1
ISTD Amount18	1
ISTD Amount19	1
ISTD Amount20	1
ISTD Amount21	1
ISTD Amount22	1
ISTD Amount23	1
ISTD Amount24	1
ISTD Amount25	1
ISTD Amount26	1
ISTD Amount27	1
ISTD Amount28	1
ISTD Amount29	1
ISTD Amount30	1
ISTD Amount31	1
ISTD Amount32	1
Sample Amount	1
Dilution Factor	1
Vial#	49
Injection Volume	1
Injection Count	1
Bar Code	

[Original Files]
Data File	C:\Users\User\Desktop\GC Analyses\Jack\Nachusa Grasslands Sampling\20220924\t2\032323_050.gcd
Method File	C:\LabSolutions\Data\GHG_4min_2022\ghg3_togas_w_acet_4 min_new_int.gcm
Batch File	C:\LabSolutions\Data\AutoSamplerTesting\032323.gcb
Report Format File	c:\LabSolutions\System\DEFAULT.lsr

[File Description]


[Configuration]
Instrument Name	C0B7VH3-Instrument1
Instrument #	1
Line #	1
# of Detectors	3
Detector ID	DET#1	DET#2	DET#3
Detector Name	FID	PTCD	ECD
# of Channels	1	1	1

[Peak Table(Ch1)]
# of Peaks	3
Peak#	R.Time	I.Time	F.Time	Area	Height	A/H	Conc.	Mark	ID#	Name	k'	Plate #	Plate Ht.	Tailing	Resolution	Sep.Factor	Area Ratio	Height Ratio	Conc. %	Norm Conc.
1	1.476	1.435	1.531	6567	3206	2.048	0.000	   	1	CO	0.000	9641	15.559	1.164	0.000	0.000	0	0	0.000	0.000
2	1.564	1.531	1.626	4279	2186	1.957	20.862	 V 	2	CH4	0.060	11549	12.988	1.244	1.488	0.000	0	0	8.427	8.427
3	1.993	1.945	2.466	1176279	563782	2.086	226.691	   	3	CO2	0.350	17415	8.613	1.287	7.234	5.875	0	0	91.573	91.573

[Peak Table(Ch2)]
# of Peaks	0

[Peak Table(Ch3)]
# of Peaks	5
Peak#	R.Time	I.Time	F.Time	Area	Height	A/H	Conc.	Mark	ID#	Name	k'	Plate #	Plate Ht.	Tailing	Resolution	Sep.Factor	Area Ratio	Height Ratio	Conc. %	Norm Conc.
1	2.458	2.286	2.502	1055	292	3.617	0.000	   			0.000	17328	8.656	0.000	0.000	0.000	0	0	0.000	0.000
2	2.521	2.502	2.554	141	75	1.882	0.000	 V 			0.025	16214	9.251	0.000	0.810	0.000	0	0	0.000	0.000
3	2.616	2.579	2.645	138	61	2.273	0.000	   			0.064	26649	5.629	0.909	1.331	2.529	0	0	0.000	0.000
4	2.884	2.741	2.997	16272	4457	3.651	0.241	   	1	N2O	0.173	13882	10.806	1.587	3.305	2.698	0	0	100.000	100.000
5	3.232	2.997	3.995	14242	467	30.507	0.000	 V 	2	SF6	0.315	300	499.779	2.011	0.825	1.819	0	0	0.000	0.000

[Compound Results(Ch1)]
# of IDs	6
ID#	Name	R.Time	Area	Height	Conc.	Curve	3rd	2nd	1st	Constant	Area Ratio	Height Ratio	Conc. %	Norm Conc.
1	CO	1.476	6567	3206	0.000	Linear	0.000000e+00	0.000000e+00	0.000000e+00	0.000000e+00	0	0	0.000	0.000
2	CH4	1.564	4279	2186	20.862	Linear	0.000000e+00	0.000000e+00	2.051179e+002	0.000000e+00	0	0	8.427	8.427
3	CO2	1.993	1176279	563782	226.691	Linear	0.000000e+00	0.000000e+00	5.188919e+003	0.000000e+00	0	0	91.573	91.573
4	Ethylene	0.000	0	0	0.000	Linear	0.000000e+00	0.000000e+00	0.000000e+00	0.000000e+00	0	0	0.000	0.000
5	Acetylene	0.000	0	0	0.000	Linear	0.000000e+00	0.000000e+00	0.000000e+00	0.000000e+00	0	0	0.000	0.000
6	Ethane	0.000	0	0	0.000	Linear	0.000000e+00	0.000000e+00	0.000000e+00	0.000000e+00	0	0	0.000	0.000

[Compound Results(Ch2)]
# of IDs	5
ID#	Name	R.Time	Area	Height	Conc.	Curve	3rd	2nd	1st	Constant	Area Ratio	Height Ratio	Conc. %	Norm Conc.
1	Hydrogen	0.000	0	0	0.000	Linear	0.000000e+00	0.000000e+00	0.000000e+00	0.000000e+00	0	0	0.000	0.000
2	Oxygen	0.000	0	0	0.000	Linear	0.000000e+00	0.000000e+00	0.000000e+00	0.000000e+00	0	0	0.000	0.000
3	Nitrogen	0.000	0	0	0.000	Linear	0.000000e+00	0.000000e+00	0.000000e+00	0.000000e+00	0	0	0.000	0.000
4	Methane	0.000	0	0	0.000	Linear	0.000000e+00	0.000000e+00	0.000000e+00	0.000000e+00	0	0	0.000	0.000
5	Carbon Monoxide	0.000	0	0	0.000	Linear	0.000000e+00	0.000000e+00	0.000000e+00	0.000000e+00	0	0	0.000	0.000

[Compound Results(Ch3)]
# of IDs	2
ID#	Name	R.Time	Area	Height	Conc.	Curve	3rd	2nd	1st	Constant	Area Ratio	Height Ratio	Conc. %	Norm Conc.
1	N2O	2.884	16272	4457	0.241	Linear	0.000000e+00	0.000000e+00	6.759880e+004	0.000000e+00	0	0	100.000	100.000
2	SF6	3.232	14242	467	0.000	Linear	0.000000e+00	0.000000e+00	0.000000e+00	0.000000e+00	0	0	0.000	0.000

[Group Results(Ch1)]
# of Groups	0

[Group Results(Ch2)]
# of Groups	0

[Group Results(Ch3)]
# of Groups	0

[Chromatogram (Ch1)]
Interval(msec)	220
# of Points	1091
Start Time(min)	0.002
End Time(min)	3.998
R.Time (min)	Intensity
0.00167	-3
0.00533	-2
0.00900	3
0.01267	10
0.01633	16
0.02000	20
0.02367	22
0.02733	23
0.03100	24
0.03467	27
0.03833	31
0.04200	32
0.04567	32
0.04933	27
0.05300	17
0.05667	8
0.06033	1
0.06400	-1
0.06767	2
0.07133	9
0.07500	15
0.07867	19
0.08233	19
0.08600	16
0.08967	14
0.09333	17
0.09700	22
0.10067	27
0.10433	23
0.10800	17
0.11167	15
0.11533	22
0.11900	29
0.12267	27
0.12633	22
0.13000	18
0.13367	15
0.13733	16
0.14100	16
0.14467	15
0.14833	9
0.15200	2
0.15567	3
0.15933	10
0.16300	20
0.16667	27
0.17033	30
0.17400	28
0.17767	27
0.18133	25
0.18500	20
0.18867	14
0.19233	11
0.19600	11
0.19967	10
0.20333	6
0.20700	5
0.21067	5
0.21433	6
0.21800	5
0.22167	3
0.22533	3
0.22900	2
0.23267	2
0.23633	4
0.24000	7
0.24367	10
0.24733	10
0.25100	6
0.25467	2
0.25833	1
0.26200	1
0.26567	4
0.26933	8
0.27300	13
0.27667	13
0.28033	4
0.28400	-6
0.28767	-13
0.29133	-16
0.29500	-15
0.29867	-12
0.30233	-4
0.30600	6
0.30967	13
0.31333	15
0.31700	16
0.32067	16
0.32433	14
0.32800	13
0.33167	12
0.33533	13
0.33900	13
0.34267	12
0.34633	11
0.35000	9
0.35367	6
0.35733	3
0.36100	2
0.36467	2
0.36833	3
0.37200	5
0.37567	6
0.37933	4
0.38300	0
0.38667	0
0.39033	2
0.39400	4
0.39767	6
0.40133	7
0.40500	7
0.40867	7
0.41233	7
0.41600	9
0.41967	12
0.42333	15
0.42700	12
0.43067	8
0.43433	6
0.43800	6
0.44167	6
0.44533	4
0.44900	1
0.45267	-1
0.45633	-4
0.46000	-9
0.46367	-15
0.46733	-17
0.47100	-14
0.47467	-8
0.47833	0
0.48200	5
0.48567	7
0.48933	11
0.49300	16
0.49667	16
0.50033	16
0.50400	16
0.50767	17
0.51133	19
0.51500	20
0.51867	18
0.52233	14
0.52600	11
0.52967	9
0.53333	7
0.53700	6
0.54067	4
0.54433	1
0.54800	-2
0.55167	-0
0.55533	-0
0.55900	-4
0.56267	-8
0.56633	-9
0.57000	-6
0.57367	-4
0.57733	-2
0.58100	-0
0.58467	-0
0.58833	-2
0.59200	-4
0.59567	-5
0.59933	-6
0.60300	-5
0.60667	-5
0.61033	-5
0.61400	-7
0.61767	-12
0.62133	-16
0.62500	-16
0.62867	-8
0.63233	1
0.63600	6
0.63967	9
0.64333	16
0.64700	18
0.65067	20
0.65433	22
0.65800	22
0.66167	20
0.66533	18
0.66900	15
0.67267	15
0.67633	15
0.68000	12
0.68367	8
0.68733	6
0.69100	5
0.69467	5
0.69833	3
0.70200	-1
0.70567	-7
0.70933	-14
0.71300	-20
0.71667	-24
0.72033	-22
0.72400	-16
0.72767	-5
0.73133	3
0.73500	5
0.73867	3
0.74233	1
0.74600	-3
0.74967	-8
0.75333	-16
0.75700	-23
0.76067	-26
0.76433	-24
0.76800	-22
0.77167	-18
0.77533	-15
0.77900	-12
0.78267	-9
0.78633	-3
0.79000	6
0.79367	14
0.79733	18
0.80100	19
0.80467	22
0.80833	25
0.81200	23
0.81567	16
0.81933	8
0.82300	4
0.82667	2
0.83033	-2
0.83400	-11
0.83767	-24
0.84133	-37
0.84500	-46
0.84867	-52
0.85233	-54
0.85600	-52
0.85967	-47
0.86333	-40
0.86700	-34
0.87067	-26
0.87433	-17
0.87800	-9
0.88167	-2
0.88533	1
0.88900	0
0.89267	-2
0.89633	-6
0.90000	-8
0.90367	-9
0.90733	-8
0.91100	-7
0.91467	-5
0.91833	-4
0.92200	-3
0.92567	-5
0.92933	-9
0.93300	-11
0.93667	-10
0.94033	-8
0.94400	-11
0.94767	-15
0.95133	-13
0.95500	-6
0.95867	-2
0.96233	0
0.96600	1
0.96967	-1
0.97333	-5
0.97700	-11
0.98067	-19
0.98433	-28
0.98800	-27
0.99167	-21
0.99533	-14
0.99900	-7
1.00267	-4
1.00633	-3
1.01000	-4
1.01367	-10
1.01733	-17
1.02100	-20
1.02467	-20
1.02833	-21
1.03200	-23
1.03567	-22
1.03933	-16
1.04300	-11
1.04667	-7
1.05033	-8
1.05400	-9
1.05767	-9
1.06133	-7
1.06500	-4
1.06867	-4
1.07233	-7
1.07600	-14
1.07967	-21
1.08333	-26
1.08700	-27
1.09067	-27
1.09433	-28
1.09800	-28
1.10167	-30
1.10533	-33
1.10900	-35
1.11267	-36
1.11633	-34
1.12000	-33
1.12367	-31
1.12733	-31
1.13100	-30
1.13467	-25
1.13833	-20
1.14200	-18
1.14567	-17
1.14933	-21
1.15300	-25
1.15667	-27
1.16033	-29
1.16400	-32
1.16767	-36
1.17133	-38
1.17500	-35
1.17867	-29
1.18233	-22
1.18600	-17
1.18967	-13
1.19333	-7
1.19700	-3
1.20067	-7
1.20433	-21
1.20800	-37
1.21167	-47
1.21533	-50
1.21900	-48
1.22267	-45
1.22633	-40
1.23000	-35
1.23367	-28
1.23733	-26
1.24100	-26
1.24467	-26
1.24833	-25
1.25200	-24
1.25567	-20
1.25933	-18
1.26300	-16
1.26667	-18
1.27033	-24
1.27400	-27
1.27767	-25
1.28133	-23
1.28500	-17
1.28867	-9
1.29233	-4
1.29600	-4
1.29967	-10
1.30333	-16
1.30700	-20
1.31067	-24
1.31433	-27
1.31800	-27
1.32167	-22
1.32533	-16
1.32900	-15
1.33267	-18
1.33633	-20
1.34000	-21
1.34367	-24
1.34733	-30
1.35100	-36
1.35467	-39
1.35833	-40
1.36200	-36
1.36567	-28
1.36933	-20
1.37300	-16
1.37667	-19
1.38033	-23
1.38400	-25
1.38767	-25
1.39133	-24
1.39500	-22
1.39867	-19
1.40233	-16
1.40600	-17
1.40967	-22
1.41333	-23
1.41700	-17
1.42067	-10
1.42433	-9
1.42800	-10
1.43167	-10
1.43533	-7
1.43900	10
1.44267	48
1.44633	126
1.45000	347
1.45367	805
1.45733	1422
1.46100	2047
1.46467	2576
1.46833	2965
1.47200	3185
1.47567	3195
1.47933	2978
1.48300	2575
1.48667	2079
1.49033	1584
1.49400	1156
1.49767	819
1.50133	570
1.50500	394
1.50867	269
1.51233	177
1.51600	110
1.51967	63
1.52333	33
1.52700	15
1.53067	6
1.53433	13
1.53800	69
1.54167	237
1.54533	549
1.54900	963
1.55267	1388
1.55633	1751
1.56000	2021
1.56367	2167
1.56733	2158
1.57100	1981
1.57467	1672
1.57833	1308
1.58200	960
1.58567	670
1.58933	448
1.59300	291
1.59667	178
1.60033	97
1.60400	43
1.60767	10
1.61133	-8
1.61500	-13
1.61867	-14
1.62233	-18
1.62600	-25
1.62967	-31
1.63333	-33
1.63700	-35
1.64067	-38
1.64433	-41
1.64800	-41
1.65167	-40
1.65533	-37
1.65900	-38
1.66267	-44
1.66633	-52
1.67000	-58
1.67367	-60
1.67733	-63
1.68100	-69
1.68467	-70
1.68833	-66
1.69200	-62
1.69567	-62
1.69933	-61
1.70300	-55
1.70667	-48
1.71033	-45
1.71400	-47
1.71767	-51
1.72133	-53
1.72500	-58
1.72867	-63
1.73233	-67
1.73600	-67
1.73967	-67
1.74333	-67
1.74700	-64
1.75067	-58
1.75433	-53
1.75800	-47
1.76167	-44
1.76533	-46
1.76900	-49
1.77267	-49
1.77633	-47
1.78000	-41
1.78367	-41
1.78733	-44
1.79100	-44
1.79467	-42
1.79833	-40
1.80200	-39
1.80567	-43
1.80933	-49
1.81300	-58
1.81667	-65
1.82033	-67
1.82400	-64
1.82767	-59
1.83133	-51
1.83500	-46
1.83867	-46
1.84233	-48
1.84600	-48
1.84967	-47
1.85333	-45
1.85700	-44
1.86067	-43
1.86433	-42
1.86800	-42
1.87167	-42
1.87533	-43
1.87900	-45
1.88267	-46
1.88633	-45
1.89000	-43
1.89367	-43
1.89733	-45
1.90100	-45
1.90467	-44
1.90833	-42
1.91200	-41
1.91567	-43
1.91933	-47
1.92300	-52
1.92667	-55
1.93033	-57
1.93400	-60
1.93767	-66
1.94133	-69
1.94500	-66
1.94867	-46
1.95233	63
1.95600	659
1.95967	3333
1.96333	12493
1.96700	36458
1.97067	85122
1.97433	163007
1.97800	263481
1.98167	370365
1.98533	465193
1.98900	532913
1.99267	563745
1.99633	553792
2.00000	506500
2.00367	432932
2.00733	348139
2.01100	265899
2.01467	195093
2.01833	139145
2.02200	97567
2.02567	67958
2.02933	47453
2.03300	33490
2.03667	24058
2.04033	17692
2.04400	13370
2.04767	10403
2.05133	8334
2.05500	6861
2.05867	5786
2.06233	4975
2.06600	4351
2.06967	3863
2.07333	3466
2.07700	3133
2.08067	2850
2.08433	2609
2.08800	2405
2.09167	2233
2.09533	2087
2.09900	1959
2.10267	1848
2.10633	1746
2.11000	1647
2.11367	1553
2.11733	1469
2.12100	1396
2.12467	1328
2.12833	1267
2.13200	1213
2.13567	1164
2.13933	1117
2.14300	1073
2.14667	1029
2.15033	987
2.15400	947
2.15767	907
2.16133	872
2.16500	841
2.16867	816
2.17233	794
2.17600	772
2.17967	754
2.18333	739
2.18700	725
2.19067	706
2.19433	681
2.19800	650
2.20167	620
2.20533	596
2.20900	579
2.21267	563
2.21633	552
2.22000	542
2.22367	529
2.22733	515
2.23100	498
2.23467	481
2.23833	467
2.24200	458
2.24567	452
2.24933	450
2.25300	447
2.25667	442
2.26033	433
2.26400	427
2.26767	420
2.27133	409
2.27500	399
2.27867	393
2.28233	390
2.28600	386
2.28967	381
2.29333	376
2.29700	368
2.30067	359
2.30433	353
2.30800	354
2.31167	356
2.31533	355
2.31900	351
2.32267	344
2.32633	338
2.33000	333
2.33367	329
2.33733	322
2.34100	312
2.34467	300
2.34833	287
2.35200	277
2.35567	273
2.35933	272
2.36300	271
2.36667	272
2.37033	275
2.37400	281
2.37767	285
2.38133	286
2.38500	285
2.38867	281
2.39233	277
2.39600	274
2.39967	271
2.40333	270
2.40700	270
2.41067	270
2.41433	267
2.41800	262
2.42167	259
2.42533	261
2.42900	265
2.43267	266
2.43633	263
2.44000	257
2.44367	250
2.44733	249
2.45100	250
2.45467	251
2.45833	251
2.46200	252
2.46567	251
2.46933	247
2.47300	241
2.47667	238
2.48033	236
2.48400	238
2.48767	240
2.49133	242
2.49500	245
2.49867	247
2.50233	245
2.50600	244
2.50967	247
2.51333	251
2.51700	254
2.52067	255
2.52433	254
2.52800	248
2.53167	241
2.53533	235
2.53900	233
2.54267	234
2.54633	240
2.55000	245
2.55367	247
2.55733	242
2.56100	238
2.56467	237
2.56833	236
2.57200	235
2.57567	235
2.57933	236
2.58300	238
2.58667	238
2.59033	234
2.59400	231
2.59767	228
2.60133	227
2.60500	228
2.60867	231
2.61233	238
2.61600	246
2.61967	252
2.62333	252
2.62700	249
2.63067	246
2.63433	241
2.63800	237
2.64167	237
2.64533	241
2.64900	245
2.65267	241
2.65633	235
2.66000	234
2.66367	235
2.66733	235
2.67100	232
2.67467	228
2.67833	224
2.68200	225
2.68567	228
2.68933	228
2.69300	227
2.69667	227
2.70033	230
2.70400	233
2.70767	237
2.71133	242
2.71500	248
2.71867	251
2.72233	249
2.72600	244
2.72967	237
2.73333	232
2.73700	231
2.74067	232
2.74433	237
2.74800	245
2.75167	250
2.75533	257
2.75900	262
2.76267	262
2.76633	261
2.77000	262
2.77367	263
2.77733	264
2.78100	264
2.78467	265
2.78833	268
2.79200	275
2.79567	282
2.79933	281
2.80300	275
2.80667	268
2.81033	266
2.81400	266
2.81767	265
2.82133	261
2.82500	258
2.82867	259
2.83233	263
2.83600	271
2.83967	281
2.84333	289
2.84700	296
2.85067	304
2.85433	306
2.85800	300
2.86167	289
2.86533	277
2.86900	268
2.87267	264
2.87633	265
2.88000	268
2.88367	268
2.88733	267
2.89100	266
2.89467	267
2.89833	268
2.90200	265
2.90567	259
2.90933	254
2.91300	252
2.91667	254
2.92033	258
2.92400	265
2.92767	275
2.93133	281
2.93500	281
2.93867	280
2.94233	278
2.94600	276
2.94967	277
2.95333	280
2.95700	282
2.96067	284
2.96433	285
2.96800	286
2.97167	287
2.97533	285
2.97900	283
2.98267	286
2.98633	291
2.99000	295
2.99367	298
2.99733	300
3.00100	302
3.00467	305
3.00833	306
3.01200	305
3.01567	299
3.01933	293
3.02300	292
3.02667	295
3.03033	298
3.03400	296
3.03767	293
3.04133	289
3.04500	284
3.04867	281
3.05233	279
3.05600	278
3.05967	281
3.06333	285
3.06700	284
3.07067	281
3.07433	279
3.07800	278
3.08167	274
3.08533	272
3.08900	273
3.09267	275
3.09633	280
3.10000	285
3.10367	291
3.10733	298
3.11100	304
3.11467	306
3.11833	307
3.12200	310
3.12567	313
3.12933	314
3.13300	310
3.13667	303
3.14033	296
3.14400	293
3.14767	290
3.15133	288
3.15500	284
3.15867	281
3.16233	277
3.16600	272
3.16967	268
3.17333	268
3.17700	268
3.18067	267
3.18433	266
3.18800	265
3.19167	262
3.19533	265
3.19900	275
3.20267	289
3.20633	301
3.21000	307
3.21367	306
3.21733	302
3.22100	299
3.22467	297
3.22833	299
3.23200	302
3.23567	300
3.23933	295
3.24300	286
3.24667	277
3.25033	270
3.25400	266
3.25767	267
3.26133	269
3.26500	272
3.26867	273
3.27233	276
3.27600	278
3.27967	280
3.28333	283
3.28700	284
3.29067	281
3.29433	277
3.29800	272
3.30167	268
3.30533	267
3.30900	270
3.31267	274
3.31633	278
3.32000	281
3.32367	281
3.32733	279
3.33100	277
3.33467	276
3.33833	274
3.34200	275
3.34567	277
3.34933	277
3.35300	275
3.35667	273
3.36033	271
3.36400	270
3.36767	270
3.37133	272
3.37500	281
3.37867	292
3.38233	299
3.38600	299
3.38967	298
3.39333	296
3.39700	293
3.40067	289
3.40433	285
3.40800	284
3.41167	284
3.41533	281
3.41900	275
3.42267	268
3.42633	261
3.43000	255
3.43367	247
3.43733	241
3.44100	241
3.44467	244
3.44833	248
3.45200	250
3.45567	252
3.45933	256
3.46300	260
3.46667	262
3.47033	263
3.47400	264
3.47767	260
3.48133	255
3.48500	250
3.48867	247
3.49233	246
3.49600	248
3.49967	255
3.50333	263
3.50700	269
3.51067	271
3.51433	268
3.51800	263
3.52167	259
3.52533	257
3.52900	257
3.53267	258
3.53633	258
3.54000	256
3.54367	256
3.54733	254
3.55100	253
3.55467	253
3.55833	253
3.56200	260
3.56567	272
3.56933	282
3.57300	287
3.57667	288
3.58033	281
3.58400	267
3.58767	252
3.59133	241
3.59500	233
3.59867	225
3.60233	221
3.60600	222
3.60967	228
3.61333	236
3.61700	248
3.62067	258
3.62433	263
3.62800	262
3.63167	255
3.63533	244
3.63900	236
3.64267	230
3.64633	228
3.65000	230
3.65367	235
3.65733	241
3.66100	247
3.66467	249
3.66833	246
3.67200	240
3.67567	235
3.67933	231
3.68300	231
3.68667	233
3.69033	238
3.69400	243
3.69767	243
3.70133	240
3.70500	238
3.70867	235
3.71233	233
3.71600	234
3.71967	239
3.72333	247
3.72700	256
3.73067	261
3.73433	263
3.73800	266
3.74167	268
3.74533	268
3.74900	261
3.75267	249
3.75633	237
3.76000	228
3.76367	226
3.76733	228
3.77100	236
3.77467	242
3.77833	244
3.78200	242
3.78567	236
3.78933	230
3.79300	225
3.79667	221
3.80033	217
3.80400	218
3.80767	221
3.81133	225
3.81500	229
3.81867	234
3.82233	238
3.82600	239
3.82967	242
3.83333	247
3.83700	253
3.84067	257
3.84433	255
3.84800	251
3.85167	245
3.85533	237
3.85900	231
3.86267	227
3.86633	229
3.87000	233
3.87367	233
3.87733	225
3.88100	214
3.88467	207
3.88833	201
3.89200	196
3.89567	192
3.89933	193
3.90300	198
3.90667	203
3.91033	207
3.91400	210
3.91767	212
3.92133	213
3.92500	216
3.92867	224
3.93233	236
3.93600	242
3.93967	244
3.94333	240
3.94700	233
3.95067	223
3.95433	217
3.95800	214
3.96167	210
3.96533	206
3.96900	204
3.97267	202
3.97633	203
3.98000	206
3.98367	207
3.98733	206
3.99100	206
3.99467	209
3.99833	213

[Chromatogram (Ch2)]
Interval(msec)	220
# of Points	1091
Start Time(min)	0.002
End Time(min)	3.998
R.Time (min)	Intensity
0.00167	0
0.00533	1
0.00900	1
0.01267	1
0.01633	1
0.02000	1
0.02367	1
0.02733	1
0.03100	1
0.03467	1
0.03833	1
0.04200	1
0.04567	1
0.04933	1
0.05300	1
0.05667	0
0.06033	0
0.06400	0
0.06767	0
0.07133	0
0.07500	1
0.07867	1
0.08233	1
0.08600	1
0.08967	1
0.09333	1
0.09700	1
0.10067	1
0.10433	1
0.10800	1
0.11167	1
0.11533	1
0.11900	1
0.12267	1
0.12633	1
0.13000	1
0.13367	1
0.13733	1
0.14100	1
0.14467	1
0.14833	1
0.15200	1
0.15567	1
0.15933	2
0.16300	2
0.16667	2
0.17033	2
0.17400	2
0.17767	2
0.18133	2
0.18500	2
0.18867	2
0.19233	2
0.19600	2
0.19967	2
0.20333	2
0.20700	2
0.21067	2
0.21433	1
0.21800	1
0.22167	1
0.22533	1
0.22900	1
0.23267	1
0.23633	1
0.24000	1
0.24367	1
0.24733	1
0.25100	1
0.25467	1
0.25833	1
0.26200	1
0.26567	1
0.26933	2
0.27300	2
0.27667	1
0.28033	1
0.28400	1
0.28767	1
0.29133	1
0.29500	1
0.29867	1
0.30233	1
0.30600	1
0.30967	1
0.31333	1
0.31700	1
0.32067	1
0.32433	1
0.32800	1
0.33167	1
0.33533	0
0.33900	0
0.34267	-0
0.34633	-0
0.35000	-1
0.35367	-1
0.35733	-1
0.36100	-1
0.36467	-1
0.36833	-1
0.37200	-1
0.37567	-1
0.37933	-0
0.38300	0
0.38667	1
0.39033	1
0.39400	1
0.39767	1
0.40133	1
0.40500	1
0.40867	1
0.41233	1
0.41600	1
0.41967	1
0.42333	1
0.42700	0
0.43067	0
0.43433	-0
0.43800	-0
0.44167	-1
0.44533	-1
0.44900	-1
0.45267	-1
0.45633	-1
0.46000	-1
0.46367	-1
0.46733	-1
0.47100	-1
0.47467	-1
0.47833	-1
0.48200	-2
0.48567	-2
0.48933	-2
0.49300	-2
0.49667	-2
0.50033	-2
0.50400	-2
0.50767	-2
0.51133	-2
0.51500	-2
0.51867	-2
0.52233	-1
0.52600	-1
0.52967	-1
0.53333	-1
0.53700	-1
0.54067	-1
0.54433	-1
0.54800	-1
0.55167	-1
0.55533	-1
0.55900	-0
0.56267	-0
0.56633	-0
0.57000	-0
0.57367	-0
0.57733	-0
0.58100	-0
0.58467	-0
0.58833	0
0.59200	0
0.59567	1
0.59933	1
0.60300	0
0.60667	0
0.61033	0
0.61400	0
0.61767	0
0.62133	0
0.62500	0
0.62867	1
0.63233	1
0.63600	1
0.63967	1
0.64333	1
0.64700	2
0.65067	2
0.65433	2
0.65800	3
0.66167	3
0.66533	3
0.66900	3
0.67267	2
0.67633	2
0.68000	2
0.68367	1
0.68733	1
0.69100	1
0.69467	1
0.69833	1
0.70200	1
0.70567	1
0.70933	1
0.71300	1
0.71667	1
0.72033	2
0.72400	2
0.72767	2
0.73133	3
0.73500	3
0.73867	3
0.74233	3
0.74600	2
0.74967	2
0.75333	2
0.75700	1
0.76067	1
0.76433	0
0.76800	0
0.77167	0
0.77533	0
0.77900	0
0.78267	0
0.78633	0
0.79000	0
0.79367	0
0.79733	0
0.80100	0
0.80467	1
0.80833	1
0.81200	1
0.81567	0
0.81933	0
0.82300	0
0.82667	-0
0.83033	-1
0.83400	-1
0.83767	-1
0.84133	-1
0.84500	-1
0.84867	-1
0.85233	-0
0.85600	-0
0.85967	0
0.86333	1
0.86700	1
0.87067	1
0.87433	1
0.87800	1
0.88167	1
0.88533	1
0.88900	1
0.89267	1
0.89633	1
0.90000	1
0.90367	1
0.90733	1
0.91100	1
0.91467	1
0.91833	0
0.92200	0
0.92567	-0
0.92933	-0
0.93300	-0
0.93667	-0
0.94033	-0
0.94400	-0
0.94767	-1
0.95133	-1
0.95500	-1
0.95867	-1
0.96233	-1
0.96600	-2
0.96967	-2
0.97333	-2
0.97700	-2
0.98067	-2
0.98433	-2
0.98800	-2
0.99167	-1
0.99533	-1
0.99900	-1
1.00267	-0
1.00633	-0
1.01000	0
1.01367	0
1.01733	0
1.02100	0
1.02467	-0
1.02833	-0
1.03200	-0
1.03567	-0
1.03933	-0
1.04300	-0
1.04667	-0
1.05033	-0
1.05400	-0
1.05767	-0
1.06133	-0
1.06500	-0
1.06867	-0
1.07233	0
1.07600	0
1.07967	0
1.08333	0
1.08700	0
1.09067	-0
1.09433	-1
1.09800	-1
1.10167	-1
1.10533	-1
1.10900	-1
1.11267	-1
1.11633	-1
1.12000	-1
1.12367	-1
1.12733	-1
1.13100	-1
1.13467	-1
1.13833	-1
1.14200	-1
1.14567	-2
1.14933	-2
1.15300	-2
1.15667	-2
1.16033	-2
1.16400	-3
1.16767	-3
1.17133	-3
1.17500	-3
1.17867	-4
1.18233	-4
1.18600	-3
1.18967	-3
1.19333	-3
1.19700	-3
1.20067	-2
1.20433	-2
1.20800	-2
1.21167	-1
1.21533	-0
1.21900	0
1.22267	1
1.22633	1
1.23000	1
1.23367	1
1.23733	1
1.24100	1
1.24467	1
1.24833	0
1.25200	0
1.25567	0
1.25933	0
1.26300	0
1.26667	0
1.27033	-0
1.27400	-0
1.27767	-0
1.28133	-0
1.28500	-0
1.28867	-0
1.29233	-0
1.29600	-0
1.29967	-0
1.30333	-0
1.30700	-0
1.31067	-0
1.31433	-0
1.31800	-0
1.32167	-0
1.32533	-1
1.32900	-1
1.33267	-0
1.33633	-0
1.34000	-0
1.34367	-1
1.34733	-1
1.35100	-1
1.35467	-2
1.35833	-2
1.36200	-2
1.36567	-2
1.36933	-3
1.37300	-3
1.37667	-4
1.38033	-4
1.38400	-4
1.38767	-4
1.39133	-4
1.39500	-5
1.39867	-5
1.40233	-5
1.40600	-4
1.40967	-4
1.41333	-4
1.41700	-4
1.42067	-4
1.42433	-4
1.42800	-4
1.43167	-4
1.43533	-4
1.43900	-4
1.44267	-3
1.44633	-3
1.45000	-3
1.45367	-4
1.45733	-4
1.46100	-3
1.46467	-3
1.46833	-3
1.47200	-3
1.47567	-2
1.47933	-2
1.48300	-1
1.48667	-1
1.49033	-1
1.49400	-0
1.49767	-0
1.50133	0
1.50500	0
1.50867	0
1.51233	0
1.51600	1
1.51967	1
1.52333	1
1.52700	1
1.53067	1
1.53433	0
1.53800	-0
1.54167	-1
1.54533	-1
1.54900	-1
1.55267	-1
1.55633	-1
1.56000	-1
1.56367	-0
1.56733	-1
1.57100	-1
1.57467	-1
1.57833	-1
1.58200	-1
1.58567	-2
1.58933	-2
1.59300	-3
1.59667	-3
1.60033	-4
1.60400	-4
1.60767	-6
1.61133	-7
1.61500	-8
1.61867	-10
1.62233	-13
1.62600	-16
1.62967	-19
1.63333	-21
1.63700	-24
1.64067	-27
1.64433	-30
1.64800	-34
1.65167	-37
1.65533	-40
1.65900	-44
1.66267	-47
1.66633	-51
1.67000	-55
1.67367	-60
1.67733	-64
1.68100	-69
1.68467	-73
1.68833	-77
1.69200	-81
1.69567	-85
1.69933	-87
1.70300	-90
1.70667	-92
1.71033	-94
1.71400	-95
1.71767	-96
1.72133	-97
1.72500	-98
1.72867	-99
1.73233	-100
1.73600	-100
1.73967	-101
1.74333	-101
1.74700	-101
1.75067	-101
1.75433	-101
1.75800	-101
1.76167	-101
1.76533	-101
1.76900	-102
1.77267	-102
1.77633	-103
1.78000	-103
1.78367	-104
1.78733	-104
1.79100	-105
1.79467	-105
1.79833	-105
1.80200	-106
1.80567	-106
1.80933	-105
1.81300	-105
1.81667	-105
1.82033	-105
1.82400	-105
1.82767	-105
1.83133	-106
1.83500	-107
1.83867	-107
1.84233	-108
1.84600	-108
1.84967	-108
1.85333	-107
1.85700	-106
1.86067	-104
1.86433	-103
1.86800	-102
1.87167	-101
1.87533	-100
1.87900	-100
1.88267	-101
1.88633	-101
1.89000	-102
1.89367	-103
1.89733	-103
1.90100	-103
1.90467	-103
1.90833	-103
1.91200	-103
1.91567	-103
1.91933	-103
1.92300	-103
1.92667	-103
1.93033	-103
1.93400	-102
1.93767	-102
1.94133	-102
1.94500	-102
1.94867	-102
1.95233	-102
1.95600	-101
1.95967	-101
1.96333	-101
1.96700	-100
1.97067	-100
1.97433	-99
1.97800	-99
1.98167	-99
1.98533	-99
1.98900	-99
1.99267	-98
1.99633	-98
2.00000	-97
2.00367	-97
2.00733	-97
2.01100	-96
2.01467	-96
2.01833	-95
2.02200	-95
2.02567	-94
2.02933	-95
2.03300	-95
2.03667	-95
2.04033	-95
2.04400	-94
2.04767	-94
2.05133	-94
2.05500	-93
2.05867	-93
2.06233	-93
2.06600	-93
2.06967	-93
2.07333	-93
2.07700	-92
2.08067	-92
2.08433	-92
2.08800	-92
2.09167	-92
2.09533	-92
2.09900	-91
2.10267	-91
2.10633	-90
2.11000	-89
2.11367	-89
2.11733	-88
2.12100	-88
2.12467	-88
2.12833	-88
2.13200	-87
2.13567	-87
2.13933	-87
2.14300	-87
2.14667	-87
2.15033	-86
2.15400	-85
2.15767	-85
2.16133	-84
2.16500	-84
2.16867	-84
2.17233	-84
2.17600	-84
2.17967	-84
2.18333	-85
2.18700	-85
2.19067	-85
2.19433	-85
2.19800	-85
2.20167	-84
2.20533	-84
2.20900	-84
2.21267	-84
2.21633	-84
2.22000	-84
2.22367	-83
2.22733	-83
2.23100	-83
2.23467	-83
2.23833	-83
2.24200	-83
2.24567	-82
2.24933	-82
2.25300	-81
2.25667	-81
2.26033	-80
2.26400	-79
2.26767	-78
2.27133	-78
2.27500	-78
2.27867	-77
2.28233	-77
2.28600	-77
2.28967	-76
2.29333	-76
2.29700	-76
2.30067	-76
2.30433	-75
2.30800	-75
2.31167	-74
2.31533	-74
2.31900	-73
2.32267	-73
2.32633	-73
2.33000	-73
2.33367	-73
2.33733	-72
2.34100	-71
2.34467	-70
2.34833	-69
2.35200	-68
2.35567	-66
2.35933	-65
2.36300	-64
2.36667	-62
2.37033	-60
2.37400	-58
2.37767	-55
2.38133	-52
2.38500	-49
2.38867	-45
2.39233	-41
2.39600	-37
2.39967	-33
2.40333	-29
2.40700	-25
2.41067	-21
2.41433	-18
2.41800	-14
2.42167	-11
2.42533	-8
2.42900	-6
2.43267	-4
2.43633	-3
2.44000	-2
2.44367	-0
2.44733	1
2.45100	3
2.45467	4
2.45833	6
2.46200	7
2.46567	8
2.46933	9
2.47300	10
2.47667	11
2.48033	11
2.48400	12
2.48767	12
2.49133	13
2.49500	13
2.49867	13
2.50233	13
2.50600	13
2.50967	12
2.51333	11
2.51700	9
2.52067	8
2.52433	7
2.52800	7
2.53167	7
2.53533	7
2.53900	7
2.54267	8
2.54633	9
2.55000	9
2.55367	10
2.55733	11
2.56100	12
2.56467	12
2.56833	13
2.57200	13
2.57567	13
2.57933	14
2.58300	14
2.58667	15
2.59033	15
2.59400	16
2.59767	16
2.60133	17
2.60500	17
2.60867	17
2.61233	17
2.61600	17
2.61967	18
2.62333	18
2.62700	19
2.63067	19
2.63433	20
2.63800	20
2.64167	21
2.64533	21
2.64900	21
2.65267	21
2.65633	21
2.66000	21
2.66367	21
2.66733	22
2.67100	22
2.67467	22
2.67833	23
2.68200	24
2.68567	24
2.68933	24
2.69300	25
2.69667	25
2.70033	25
2.70400	25
2.70767	25
2.71133	25
2.71500	24
2.71867	24
2.72233	24
2.72600	23
2.72967	24
2.73333	24
2.73700	24
2.74067	25
2.74433	25
2.74800	26
2.75167	26
2.75533	27
2.75900	27
2.76267	28
2.76633	28
2.77000	27
2.77367	27
2.77733	27
2.78100	26
2.78467	26
2.78833	26
2.79200	26
2.79567	26
2.79933	26
2.80300	26
2.80667	26
2.81033	26
2.81400	26
2.81767	26
2.82133	27
2.82500	27
2.82867	27
2.83233	27
2.83600	28
2.83967	28
2.84333	28
2.84700	28
2.85067	28
2.85433	27
2.85800	24
2.86167	20
2.86533	13
2.86900	2
2.87267	-12
2.87633	-31
2.88000	-55
2.88367	-85
2.88733	-120
2.89100	-159
2.89467	-204
2.89833	-253
2.90200	-305
2.90567	-361
2.90933	-420
2.91300	-481
2.91667	-543
2.92033	-605
2.92400	-667
2.92767	-728
2.93133	-787
2.93500	-843
2.93867	-895
2.94233	-949
2.94600	-1005
2.94967	-1058
2.95333	-1099
2.95700	-1118
2.96067	-1112
2.96433	-1081
2.96800	-1029
2.97167	-962
2.97533	-886
2.97900	-805
2.98267	-723
2.98633	-644
2.99000	-568
2.99367	-498
2.99733	-434
3.00100	-376
3.00467	-325
3.00833	-279
3.01200	-239
3.01567	-204
3.01933	-173
3.02300	-146
3.02667	-123
3.03033	-103
3.03400	-86
3.03767	-72
3.04133	-59
3.04500	-49
3.04867	-40
3.05233	-32
3.05600	-25
3.05967	-20
3.06333	-15
3.06700	-11
3.07067	-8
3.07433	-5
3.07800	-2
3.08167	-0
3.08533	2
3.08900	4
3.09267	6
3.09633	7
3.10000	8
3.10367	10
3.10733	11
3.11100	11
3.11467	12
3.11833	13
3.12200	13
3.12567	14
3.12933	14
3.13300	15
3.13667	16
3.14033	16
3.14400	16
3.14767	17
3.15133	17
3.15500	17
3.15867	18
3.16233	18
3.16600	19
3.16967	19
3.17333	19
3.17700	20
3.18067	20
3.18433	20
3.18800	21
3.19167	21
3.19533	21
3.19900	21
3.20267	21
3.20633	21
3.21000	21
3.21367	21
3.21733	21
3.22100	21
3.22467	21
3.22833	21
3.23200	22
3.23567	22
3.23933	22
3.24300	22
3.24667	23
3.25033	23
3.25400	23
3.25767	23
3.26133	23
3.26500	23
3.26867	23
3.27233	23
3.27600	23
3.27967	23
3.28333	23
3.28700	23
3.29067	24
3.29433	24
3.29800	24
3.30167	24
3.30533	24
3.30900	24
3.31267	24
3.31633	24
3.32000	24
3.32367	24
3.32733	25
3.33100	25
3.33467	25
3.33833	25
3.34200	25
3.34567	25
3.34933	25
3.35300	25
3.35667	25
3.36033	25
3.36400	26
3.36767	26
3.37133	26
3.37500	26
3.37867	25
3.38233	25
3.38600	26
3.38967	26
3.39333	26
3.39700	26
3.40067	27
3.40433	27
3.40800	27
3.41167	27
3.41533	28
3.41900	28
3.42267	28
3.42633	28
3.43000	28
3.43367	29
3.43733	29
3.44100	29
3.44467	29
3.44833	29
3.45200	29
3.45567	29
3.45933	28
3.46300	28
3.46667	28
3.47033	28
3.47400	28
3.47767	28
3.48133	28
3.48500	28
3.48867	28
3.49233	28
3.49600	28
3.49967	28
3.50333	28
3.50700	28
3.51067	28
3.51433	28
3.51800	28
3.52167	28
3.52533	28
3.52900	28
3.53267	27
3.53633	27
3.54000	27
3.54367	27
3.54733	26
3.55100	26
3.55467	26
3.55833	26
3.56200	26
3.56567	26
3.56933	26
3.57300	26
3.57667	26
3.58033	26
3.58400	26
3.58767	26
3.59133	26
3.59500	26
3.59867	26
3.60233	26
3.60600	26
3.60967	26
3.61333	26
3.61700	26
3.62067	26
3.62433	26
3.62800	26
3.63167	26
3.63533	25
3.63900	25
3.64267	25
3.64633	26
3.65000	26
3.65367	26
3.65733	26
3.66100	26
3.66467	26
3.66833	26
3.67200	26
3.67567	26
3.67933	26
3.68300	27
3.68667	27
3.69033	27
3.69400	28
3.69767	28
3.70133	28
3.70500	28
3.70867	28
3.71233	28
3.71600	28
3.71967	28
3.72333	28
3.72700	28
3.73067	27
3.73433	27
3.73800	27
3.74167	27
3.74533	27
3.74900	27
3.75267	27
3.75633	27
3.76000	27
3.76367	27
3.76733	27
3.77100	27
3.77467	27
3.77833	27
3.78200	27
3.78567	27
3.78933	27
3.79300	27
3.79667	27
3.80033	27
3.80400	27
3.80767	27
3.81133	27
3.81500	26
3.81867	26
3.82233	26
3.82600	26
3.82967	26
3.83333	27
3.83700	27
3.84067	27
3.84433	27
3.84800	27
3.85167	26
3.85533	26
3.85900	26
3.86267	26
3.86633	26
3.87000	26
3.87367	26
3.87733	26
3.88100	26
3.88467	26
3.88833	26
3.89200	26
3.89567	26
3.89933	27
3.90300	27
3.90667	27
3.91033	27
3.91400	26
3.91767	26
3.92133	26
3.92500	26
3.92867	26
3.93233	26
3.93600	26
3.93967	27
3.94333	27
3.94700	26
3.95067	26
3.95433	26
3.95800	26
3.96167	26
3.96533	27
3.96900	27
3.97267	27
3.97633	27
3.98000	27
3.98367	27
3.98733	27
3.99100	27
3.99467	27
3.99833	26

[Chromatogram (Ch3)]
Interval(msec)	220
# of Points	1091
Start Time(min)	0.002
End Time(min)	3.998
R.Time (min)	Intensity
0.00167	-1
0.00533	-2
0.00900	-3
0.01267	-3
0.01633	-4
0.02000	-5
0.02367	-5
0.02733	-2
0.03100	-1
0.03467	-2
0.03833	-3
0.04200	-2
0.04567	-3
0.04933	-1
0.05300	1
0.05667	1
0.06033	1
0.06400	2
0.06767	4
0.07133	5
0.07500	6
0.07867	4
0.08233	0
0.08600	0
0.08967	1
0.09333	3
0.09700	4
0.10067	5
0.10433	4
0.10800	3
0.11167	2
0.11533	4
0.11900	4
0.12267	4
0.12633	5
0.13000	6
0.13367	6
0.13733	5
0.14100	5
0.14467	7
0.14833	10
0.15200	12
0.15567	12
0.15933	12
0.16300	11
0.16667	9
0.17033	7
0.17400	4
0.17767	3
0.18133	4
0.18500	4
0.18867	3
0.19233	2
0.19600	-0
0.19967	-1
0.20333	1
0.20700	2
0.21067	3
0.21433	4
0.21800	4
0.22167	3
0.22533	1
0.22900	-1
0.23267	-1
0.23633	-2
0.24000	-3
0.24367	-2
0.24733	-2
0.25100	-1
0.25467	1
0.25833	1
0.26200	1
0.26567	-0
0.26933	-0
0.27300	0
0.27667	-0
0.28033	-1
0.28400	-0
0.28767	3
0.29133	5
0.29500	7
0.29867	8
0.30233	9
0.30600	7
0.30967	6
0.31333	6
0.31700	6
0.32067	7
0.32433	7
0.32800	6
0.33167	2
0.33533	0
0.33900	2
0.34267	5
0.34633	8
0.35000	8
0.35367	8
0.35733	9
0.36100	9
0.36467	8
0.36833	9
0.37200	9
0.37567	9
0.37933	11
0.38300	14
0.38667	14
0.39033	12
0.39400	8
0.39767	5
0.40133	7
0.40500	8
0.40867	9
0.41233	12
0.41600	14
0.41967	15
0.42333	14
0.42700	12
0.43067	10
0.43433	9
0.43800	9
0.44167	9
0.44533	9
0.44900	14
0.45267	17
0.45633	17
0.46000	16
0.46367	14
0.46733	15
0.47100	16
0.47467	16
0.47833	14
0.48200	13
0.48567	12
0.48933	12
0.49300	11
0.49667	10
0.50033	10
0.50400	11
0.50767	10
0.51133	10
0.51500	11
0.51867	12
0.52233	14
0.52600	17
0.52967	18
0.53333	17
0.53700	16
0.54067	15
0.54433	14
0.54800	14
0.55167	15
0.55533	14
0.55900	14
0.56267	15
0.56633	15
0.57000	15
0.57367	14
0.57733	14
0.58100	14
0.58467	12
0.58833	11
0.59200	11
0.59567	10
0.59933	11
0.60300	11
0.60667	11
0.61033	11
0.61400	11
0.61767	12
0.62133	13
0.62500	16
0.62867	18
0.63233	17
0.63600	16
0.63967	16
0.64333	16
0.64700	16
0.65067	15
0.65433	15
0.65800	16
0.66167	16
0.66533	17
0.66900	18
0.67267	19
0.67633	21
0.68000	21
0.68367	19
0.68733	16
0.69100	13
0.69467	13
0.69833	13
0.70200	12
0.70567	14
0.70933	17
0.71300	18
0.71667	17
0.72033	15
0.72400	16
0.72767	17
0.73133	17
0.73500	16
0.73867	16
0.74233	15
0.74600	16
0.74967	18
0.75333	19
0.75700	20
0.76067	21
0.76433	21
0.76800	19
0.77167	18
0.77533	17
0.77900	16
0.78267	16
0.78633	16
0.79000	16
0.79367	16
0.79733	18
0.80100	18
0.80467	18
0.80833	18
0.81200	19
0.81567	19
0.81933	19
0.82300	21
0.82667	22
0.83033	23
0.83400	22
0.83767	21
0.84133	20
0.84500	19
0.84867	17
0.85233	18
0.85600	18
0.85967	18
0.86333	17
0.86700	18
0.87067	19
0.87433	23
0.87800	24
0.88167	25
0.88533	25
0.88900	24
0.89267	26
0.89633	27
0.90000	24
0.90367	21
0.90733	18
0.91100	16
0.91467	19
0.91833	24
0.92200	25
0.92567	25
0.92933	26
0.93300	25
0.93667	24
0.94033	23
0.94400	24
0.94767	24
0.95133	23
0.95500	22
0.95867	20
0.96233	20
0.96600	22
0.96967	23
0.97333	23
0.97700	23
0.98067	23
0.98433	25
0.98800	26
0.99167	29
0.99533	29
0.99900	29
1.00267	27
1.00633	24
1.01000	23
1.01367	24
1.01733	24
1.02100	25
1.02467	24
1.02833	25
1.03200	25
1.03567	23
1.03933	22
1.04300	23
1.04667	23
1.05033	23
1.05400	23
1.05767	21
1.06133	22
1.06500	22
1.06867	20
1.07233	20
1.07600	20
1.07967	20
1.08333	20
1.08700	21
1.09067	25
1.09433	27
1.09800	27
1.10167	27
1.10533	26
1.10900	27
1.11267	28
1.11633	29
1.12000	28
1.12367	26
1.12733	24
1.13100	21
1.13467	20
1.13833	20
1.14200	19
1.14567	20
1.14933	20
1.15300	23
1.15667	25
1.16033	25
1.16400	25
1.16767	26
1.17133	29
1.17500	29
1.17867	26
1.18233	25
1.18600	25
1.18967	25
1.19333	25
1.19700	27
1.20067	30
1.20433	30
1.20800	27
1.21167	26
1.21533	26
1.21900	27
1.22267	26
1.22633	26
1.23000	24
1.23367	22
1.23733	20
1.24100	19
1.24467	21
1.24833	22
1.25200	24
1.25567	25
1.25933	26
1.26300	26
1.26667	25
1.27033	23
1.27400	22
1.27767	23
1.28133	23
1.28500	25
1.28867	27
1.29233	27
1.29600	26
1.29967	25
1.30333	23
1.30700	22
1.31067	22
1.31433	25
1.31800	25
1.32167	24
1.32533	24
1.32900	25
1.33267	27
1.33633	28
1.34000	29
1.34367	30
1.34733	31
1.35100	30
1.35467	28
1.35833	27
1.36200	26
1.36567	26
1.36933	26
1.37300	24
1.37667	23
1.38033	22
1.38400	22
1.38767	23
1.39133	25
1.39500	25
1.39867	24
1.40233	23
1.40600	24
1.40967	24
1.41333	23
1.41700	23
1.42067	23
1.42433	24
1.42800	24
1.43167	23
1.43533	20
1.43900	21
1.44267	24
1.44633	26
1.45000	27
1.45367	26
1.45733	28
1.46100	30
1.46467	30
1.46833	27
1.47200	26
1.47567	25
1.47933	24
1.48300	24
1.48667	24
1.49033	25
1.49400	25
1.49767	22
1.50133	20
1.50500	21
1.50867	23
1.51233	22
1.51600	19
1.51967	19
1.52333	20
1.52700	20
1.53067	20
1.53433	21
1.53800	23
1.54167	24
1.54533	25
1.54900	24
1.55267	22
1.55633	21
1.56000	22
1.56367	21
1.56733	22
1.57100	22
1.57467	22
1.57833	22
1.58200	22
1.58567	22
1.58933	23
1.59300	25
1.59667	27
1.60033	29
1.60400	28
1.60767	27
1.61133	26
1.61500	28
1.61867	28
1.62233	29
1.62600	29
1.62967	28
1.63333	28
1.63700	28
1.64067	26
1.64433	26
1.64800	25
1.65167	26
1.65533	26
1.65900	26
1.66267	26
1.66633	28
1.67000	31
1.67367	33
1.67733	34
1.68100	36
1.68467	37
1.68833	37
1.69200	36
1.69567	35
1.69933	36
1.70300	38
1.70667	38
1.71033	37
1.71400	37
1.71767	37
1.72133	38
1.72500	39
1.72867	40
1.73233	40
1.73600	39
1.73967	39
1.74333	41
1.74700	42
1.75067	42
1.75433	43
1.75800	40
1.76167	39
1.76533	40
1.76900	41
1.77267	42
1.77633	45
1.78000	42
1.78367	43
1.78733	43
1.79100	42
1.79467	42
1.79833	44
1.80200	44
1.80567	44
1.80933	45
1.81300	47
1.81667	47
1.82033	46
1.82400	47
1.82767	51
1.83133	55
1.83500	57
1.83867	57
1.84233	56
1.84600	57
1.84967	54
1.85333	53
1.85700	52
1.86067	49
1.86433	49
1.86800	51
1.87167	51
1.87533	50
1.87900	50
1.88267	51
1.88633	51
1.89000	53
1.89367	57
1.89733	60
1.90100	61
1.90467	61
1.90833	59
1.91200	60
1.91567	61
1.91933	63
1.92300	65
1.92667	67
1.93033	67
1.93400	66
1.93767	64
1.94133	64
1.94500	66
1.94867	68
1.95233	70
1.95600	70
1.95967	69
1.96333	71
1.96700	73
1.97067	75
1.97433	75
1.97800	77
1.98167	75
1.98533	73
1.98900	73
1.99267	75
1.99633	78
2.00000	80
2.00367	82
2.00733	82
2.01100	82
2.01467	84
2.01833	84
2.02200	83
2.02567	85
2.02933	86
2.03300	89
2.03667	94
2.04033	96
2.04400	94
2.04767	92
2.05133	93
2.05500	93
2.05867	92
2.06233	93
2.06600	94
2.06967	97
2.07333	98
2.07700	97
2.08067	98
2.08433	98
2.08800	99
2.09167	103
2.09533	104
2.09900	104
2.10267	105
2.10633	105
2.11000	106
2.11367	107
2.11733	107
2.12100	108
2.12467	111
2.12833	113
2.13200	115
2.13567	115
2.13933	117
2.14300	119
2.14667	120
2.15033	119
2.15400	116
2.15767	112
2.16133	111
2.16500	113
2.16867	112
2.17233	114
2.17600	117
2.17967	119
2.18333	122
2.18700	123
2.19067	123
2.19433	124
2.19800	124
2.20167	124
2.20533	126
2.20900	126
2.21267	126
2.21633	129
2.22000	131
2.22367	132
2.22733	133
2.23100	133
2.23467	131
2.23833	130
2.24200	133
2.24567	135
2.24933	138
2.25300	142
2.25667	144
2.26033	144
2.26400	144
2.26767	144
2.27133	143
2.27500	139
2.27867	138
2.28233	141
2.28600	144
2.28967	144
2.29333	142
2.29700	141
2.30067	140
2.30433	139
2.30800	138
2.31167	139
2.31533	140
2.31900	141
2.32267	144
2.32633	147
2.33000	148
2.33367	149
2.33733	151
2.34100	151
2.34467	152
2.34833	154
2.35200	155
2.35567	156
2.35933	155
2.36300	155
2.36667	157
2.37033	159
2.37400	160
2.37767	160
2.38133	159
2.38500	157
2.38867	154
2.39233	155
2.39600	156
2.39967	155
2.40333	154
2.40700	155
2.41067	158
2.41433	159
2.41800	159
2.42167	159
2.42533	159
2.42900	160
2.43267	157
2.43633	154
2.44000	156
2.44367	191
2.44733	258
2.45100	318
2.45467	354
2.45833	356
2.46200	334
2.46567	310
2.46933	290
2.47300	269
2.47667	245
2.48033	216
2.48400	185
2.48767	155
2.49133	130
2.49500	113
2.49867	101
2.50233	96
2.50600	97
2.50967	101
2.51333	107
2.51700	112
2.52067	110
2.52433	104
2.52800	94
2.53167	81
2.53533	68
2.53900	55
2.54267	43
2.54633	33
2.55000	26
2.55367	20
2.55733	16
2.56100	16
2.56467	16
2.56833	16
2.57200	15
2.57567	13
2.57933	13
2.58300	17
2.58667	23
2.59033	31
2.59400	39
2.59767	46
2.60133	54
2.60500	60
2.60867	64
2.61233	66
2.61600	66
2.61967	64
2.62333	58
2.62700	48
2.63067	39
2.63433	28
2.63800	18
2.64167	7
2.64533	-1
2.64900	-8
2.65267	-15
2.65633	-19
2.66000	-20
2.66367	-21
2.66733	-23
2.67100	-26
2.67467	-28
2.67833	-30
2.68200	-33
2.68567	-35
2.68933	-34
2.69300	-32
2.69667	-30
2.70033	-28
2.70400	-25
2.70767	-23
2.71133	-22
2.71500	-20
2.71867	-20
2.72233	-20
2.72600	-23
2.72967	-23
2.73333	-20
2.73700	-18
2.74067	-16
2.74433	-12
2.74800	-10
2.75167	-8
2.75533	-5
2.75900	-2
2.76267	1
2.76633	2
2.77000	3
2.77367	6
2.77733	10
2.78100	12
2.78467	13
2.78833	14
2.79200	16
2.79567	18
2.79933	24
2.80300	29
2.80667	32
2.81033	33
2.81400	36
2.81767	39
2.82133	41
2.82500	43
2.82867	48
2.83233	62
2.83600	92
2.83967	150
2.84333	257
2.84700	435
2.85067	702
2.85433	1068
2.85800	1528
2.86167	2060
2.86533	2627
2.86900	3182
2.87267	3678
2.87633	4076
2.88000	4347
2.88367	4480
2.88733	4480
2.89100	4364
2.89467	4155
2.89833	3880
2.90200	3568
2.90567	3240
2.90933	2912
2.91300	2596
2.91667	2299
2.92033	2026
2.92400	1779
2.92767	1556
2.93133	1357
2.93500	1181
2.93867	1025
2.94233	887
2.94600	768
2.94967	667
2.95333	579
2.95700	502
2.96067	434
2.96433	377
2.96800	327
2.97167	284
2.97533	247
2.97900	216
2.98267	181
2.98633	133
2.99000	93
2.99367	73
2.99733	73
3.00100	86
3.00467	106
3.00833	129
3.01200	154
3.01567	182
3.01933	211
3.02300	242
3.02667	274
3.03033	303
3.03400	329
3.03767	354
3.04133	375
3.04500	391
3.04867	408
3.05233	425
3.05600	438
3.05967	450
3.06333	458
3.06700	464
3.07067	468
3.07433	474
3.07800	478
3.08167	479
3.08533	482
3.08900	484
3.09267	487
3.09633	490
3.10000	493
3.10367	497
3.10733	501
3.11100	503
3.11467	504
3.11833	506
3.12200	510
3.12567	514
3.12933	516
3.13300	517
3.13667	518
3.14033	522
3.14400	524
3.14767	526
3.15133	528
3.15500	531
3.15867	533
3.16233	534
3.16600	537
3.16967	539
3.17333	541
3.17700	544
3.18067	548
3.18433	552
3.18800	556
3.19167	559
3.19533	561
3.19900	564
3.20267	565
3.20633	569
3.21000	572
3.21367	576
3.21733	579
3.22100	582
3.22467	583
3.22833	584
3.23200	587
3.23567	587
3.23933	584
3.24300	584
3.24667	584
3.25033	585
3.25400	585
3.25767	584
3.26133	582
3.26500	580
3.26867	579
3.27233	575
3.27600	574
3.27967	571
3.28333	569
3.28700	566
3.29067	565
3.29433	565
3.29800	565
3.30167	563
3.30533	560
3.30900	557
3.31267	552
3.31633	547
3.32000	544
3.32367	539
3.32733	536
3.33100	533
3.33467	529
3.33833	525
3.34200	521
3.34567	517
3.34933	517
3.35300	517
3.35667	516
3.36033	513
3.36400	509
3.36767	508
3.37133	509
3.37500	506
3.37867	503
3.38233	501
3.38600	499
3.38967	497
3.39333	494
3.39700	492
3.40067	490
3.40433	488
3.40800	488
3.41167	487
3.41533	485
3.41900	484
3.42267	482
3.42633	482
3.43000	480
3.43367	480
3.43733	478
3.44100	475
3.44467	471
3.44833	468
3.45200	467
3.45567	464
3.45933	462
3.46300	460
3.46667	457
3.47033	454
3.47400	452
3.47767	450
3.48133	449
3.48500	448
3.48867	445
3.49233	443
3.49600	442
3.49967	443
3.50333	442
3.50700	439
3.51067	436
3.51433	438
3.51800	438
3.52167	435
3.52533	431
3.52900	429
3.53267	426
3.53633	424
3.54000	423
3.54367	421
3.54733	419
3.55100	418
3.55467	418
3.55833	416
3.56200	413
3.56567	410
3.56933	407
3.57300	405
3.57667	405
3.58033	406
3.58400	405
3.58767	405
3.59133	402
3.59500	401
3.59867	401
3.60233	401
3.60600	400
3.60967	400
3.61333	402
3.61700	402
3.62067	399
3.62433	397
3.62800	394
3.63167	391
3.63533	388
3.63900	388
3.64267	386
3.64633	386
3.65000	386
3.65367	385
3.65733	385
3.66100	385
3.66467	383
3.66833	382
3.67200	382
3.67567	381
3.67933	380
3.68300	378
3.68667	379
3.69033	381
3.69400	381
3.69767	380
3.70133	380
3.70500	381
3.70867	379
3.71233	375
3.71600	371
3.71967	369
3.72333	368
3.72700	367
3.73067	368
3.73433	369
3.73800	369
3.74167	368
3.74533	368
3.74900	370
3.75267	370
3.75633	367
3.76000	364
3.76367	362
3.76733	359
3.77100	358
3.77467	359
3.77833	361
3.78200	360
3.78567	358
3.78933	357
3.79300	354
3.79667	354
3.80033	357
3.80400	358
3.80767	358
3.81133	357
3.81500	357
3.81867	357
3.82233	357
3.82600	356
3.82967	358
3.83333	360
3.83700	357
3.84067	354
3.84433	354
3.84800	353
3.85167	350
3.85533	347
3.85900	346
3.86267	347
3.86633	347
3.87000	346
3.87367	346
3.87733	348
3.88100	348
3.88467	347
3.88833	347
3.89200	347
3.89567	347
3.89933	346
3.90300	347
3.90667	348
3.91033	347
3.91400	346
3.91767	345
3.92133	342
3.92500	340
3.92867	340
3.93233	341
3.93600	339
3.93967	337
3.94333	338
3.94700	337
3.95067	336
3.95433	335
3.95800	333
3.96167	332
3.96533	332
3.96900	330
3.97267	329
3.97633	329
3.98000	330
3.98367	330
3.98733	332
3.99100	332
3.99467	331
3.99833	330

[Status Trace (Column Oven Temperature)]
Interval(msec)	1000
# of Points	240
Start Time(min)	0.004
End Time(min)	3.987
Intensity Units	
Intensity Multiplier	1
R.Time (min)	Intensity
0.00382	35.05
0.02048	35.04
0.03715	35.04
0.05382	35.05
0.07048	35.04
0.08715	35.05
0.10382	35.04
0.12048	35.04
0.13715	35.04
0.15382	35.03
0.17048	35.02
0.18715	35.03
0.20382	35.03
0.22048	35.02
0.23715	35.02
0.25382	35.02
0.27048	35.01
0.28715	35.01
0.30382	35.02
0.32048	35.02
0.33715	35.02
0.35382	35.04
0.37048	35.03
0.38715	35.03
0.40382	35.02
0.42048	35.02
0.43715	35.03
0.45382	35.04
0.47048	35.05
0.48715	35.05
0.50382	35.06
0.52048	35.06
0.53715	35.06
0.55382	35.05
0.57048	35.05
0.58715	35.05
0.60382	35.04
0.62048	35.03
0.63715	35.03
0.65382	35.02
0.67048	35.01
0.68715	35.00
0.70382	34.99
0.72048	34.99
0.73715	34.99
0.75382	34.99
0.77048	35.00
0.78715	34.99
0.80382	34.99
0.82048	34.98
0.83715	35.00
0.85382	34.99
0.87048	35.00
0.88715	34.99
0.90382	34.99
0.92048	34.99
0.93715	35.00
0.95382	34.99
0.97048	35.00
0.98715	35.00
1.00382	34.99
1.02048	34.98
1.03715	34.99
1.05382	34.98
1.07048	34.98
1.08715	34.98
1.10382	34.99
1.12048	34.98
1.13715	34.99
1.15382	35.00
1.17048	35.01
1.18715	35.01
1.20382	35.01
1.22048	35.01
1.23715	34.99
1.25382	34.99
1.27048	34.99
1.28715	34.98
1.30382	34.97
1.32048	34.97
1.33715	34.98
1.35382	34.99
1.37048	35.00
1.38715	35.02
1.40382	35.03
1.42048	35.03
1.43715	35.03
1.45382	35.04
1.47048	35.04
1.48715	35.02
1.50382	35.01
1.52048	35.00
1.53715	35.00
1.55382	34.99
1.57048	35.00
1.58715	35.02
1.60382	35.05
1.62048	35.15
1.63715	35.32
1.65382	35.54
1.67048	35.83
1.68715	36.20
1.70382	36.55
1.72048	36.90
1.73715	37.25
1.75382	37.58
1.77048	37.91
1.78715	38.24
1.80382	38.58
1.82048	38.90
1.83715	39.26
1.85382	39.57
1.87048	39.87
1.88715	40.20
1.90382	40.53
1.92048	40.87
1.93715	41.18
1.95382	41.51
1.97048	41.84
1.98715	42.16
2.00382	42.50
2.02048	42.82
2.03715	43.14
2.05382	43.46
2.07048	43.79
2.08715	44.12
2.10382	44.44
2.12048	44.76
2.13715	45.10
2.15382	45.43
2.17048	45.74
2.18715	46.08
2.20382	46.41
2.22048	46.73
2.23715	47.08
2.25382	47.41
2.27048	47.75
2.28715	48.08
2.30382	48.39
2.32048	48.73
2.33715	49.07
2.35382	49.35
2.37048	49.56
2.38715	49.65
2.40382	49.66
2.42048	49.65
2.43715	49.67
2.45382	49.67
2.47048	49.68
2.48715	49.70
2.50382	49.70
2.52048	49.74
2.53715	49.75
2.55382	49.76
2.57048	49.78
2.58715	49.80
2.60382	49.80
2.62048	49.81
2.63715	49.82
2.65382	49.83
2.67048	49.84
2.68715	49.82
2.70382	49.84
2.72048	49.86
2.73715	49.85
2.75382	49.84
2.77048	49.86
2.78715	49.87
2.80382	49.87
2.82048	49.86
2.83715	49.86
2.85382	49.86
2.87048	49.86
2.88715	49.87
2.90382	49.89
2.92048	49.90
2.93715	49.92
2.95382	49.94
2.97048	49.94
2.98715	49.95
3.00382	49.96
3.02048	49.96
3.03715	49.97
3.05382	49.97
3.07048	49.98
3.08715	50.00
3.10382	50.00
3.12048	50.01
3.13715	50.02
3.15382	50.02
3.17048	50.03
3.18715	50.03
3.20382	50.03
3.22048	50.04
3.23715	50.05
3.25382	50.05
3.27048	50.06
3.28715	50.07
3.30382	50.08
3.32048	50.09
3.33715	50.10
3.35382	50.10
3.37048	50.11
3.38715	50.10
3.40382	50.08
3.42048	50.07
3.43715	50.07
3.45382	50.07
3.47048	50.07
3.48715	50.06
3.50382	50.06
3.52048	50.05
3.53715	50.05
3.55382	50.06
3.57048	50.06
3.58715	50.07
3.60382	50.07
3.62048	50.08
3.63715	50.08
3.65382	50.08
3.67048	50.07
3.68715	50.07
3.70382	50.07
3.72048	50.07
3.73715	50.07
3.75382	50.07
3.77048	50.06
3.78715	50.06
3.80382	50.06
3.82048	50.06
3.83715	50.07
3.85382	50.06
3.87048	50.07
3.88715	50.07
3.90382	50.07
3.92048	50.07
3.93715	50.07
3.95382	50.07
3.97048	50.06
3.98715	50.06

[Status Trace (Injection Unit Temperature)]
Interval(msec)	1000
# of Points	240
Start Time(min)	0.004
End Time(min)	3.987
Intensity Units	
Intensity Multiplier	1
R.Time (min)	Intensity
0.00382	99.99
0.02048	99.98
0.03715	99.98
0.05382	99.99
0.07048	99.98
0.08715	99.98
0.10382	99.99
0.12048	99.99
0.13715	99.99
0.15382	99.98
0.17048	99.99
0.18715	99.98
0.20382	99.99
0.22048	99.99
0.23715	99.99
0.25382	99.99
0.27048	99.99
0.28715	99.99
0.30382	99.98
0.32048	99.98
0.33715	99.99
0.35382	99.98
0.37048	99.99
0.38715	99.99
0.40382	99.99
0.42048	99.98
0.43715	99.98
0.45382	99.98
0.47048	99.98
0.48715	99.99
0.50382	99.98
0.52048	99.98
0.53715	99.99
0.55382	99.98
0.57048	99.98
0.58715	99.98
0.60382	99.98
0.62048	99.98
0.63715	99.98
0.65382	99.98
0.67048	99.98
0.68715	99.99
0.70382	99.98
0.72048	99.98
0.73715	99.98
0.75382	99.98
0.77048	99.98
0.78715	99.98
0.80382	99.98
0.82048	99.98
0.83715	99.98
0.85382	99.98
0.87048	99.98
0.88715	99.98
0.90382	99.98
0.92048	99.98
0.93715	99.98
0.95382	99.98
0.97048	99.98
0.98715	99.98
1.00382	99.98
1.02048	99.98
1.03715	99.98
1.05382	99.98
1.07048	99.98
1.08715	99.98
1.10382	99.98
1.12048	99.98
1.13715	99.98
1.15382	99.98
1.17048	99.98
1.18715	99.98
1.20382	99.98
1.22048	99.98
1.23715	99.98
1.25382	99.98
1.27048	99.99
1.28715	99.99
1.30382	99.99
1.32048	99.98
1.33715	99.98
1.35382	99.98
1.37048	99.98
1.38715	99.98
1.40382	99.99
1.42048	99.98
1.43715	99.98
1.45382	99.99
1.47048	99.98
1.48715	99.98
1.50382	99.99
1.52048	99.98
1.53715	99.98
1.55382	99.98
1.57048	99.99
1.58715	99.99
1.60382	99.98
1.62048	99.98
1.63715	99.98
1.65382	99.98
1.67048	99.98
1.68715	99.99
1.70382	99.98
1.72048	99.98
1.73715	99.98
1.75382	99.98
1.77048	99.98
1.78715	99.98
1.80382	99.98
1.82048	99.98
1.83715	99.98
1.85382	99.98
1.87048	99.98
1.88715	99.98
1.90382	99.98
1.92048	99.98
1.93715	99.98
1.95382	99.98
1.97048	99.97
1.98715	99.98
2.00382	99.98
2.02048	99.97
2.03715	99.97
2.05382	99.97
2.07048	99.97
2.08715	99.97
2.10382	99.97
2.12048	99.97
2.13715	99.97
2.15382	99.96
2.17048	99.96
2.18715	99.97
2.20382	99.96
2.22048	99.97
2.23715	99.97
2.25382	99.96
2.27048	99.96
2.28715	99.96
2.30382	99.96
2.32048	99.96
2.33715	99.96
2.35382	99.96
2.37048	99.96
2.38715	99.96
2.40382	99.96
2.42048	99.96
2.43715	99.96
2.45382	99.96
2.47048	99.96
2.48715	99.96
2.50382	99.96
2.52048	99.96
2.53715	99.97
2.55382	99.97
2.57048	99.97
2.58715	99.97
2.60382	99.97
2.62048	99.97
2.63715	99.97
2.65382	99.98
2.67048	99.98
2.68715	99.98
2.70382	99.98
2.72048	99.98
2.73715	99.99
2.75382	99.98
2.77048	99.99
2.78715	99.99
2.80382	99.99
2.82048	99.99
2.83715	99.99
2.85382	99.99
2.87048	100.00
2.88715	100.00
2.90382	100.00
2.92048	100.00
2.93715	100.00
2.95382	100.00
2.97048	100.01
2.98715	100.01
3.00382	100.01
3.02048	100.01
3.03715	100.01
3.05382	100.01
3.07048	100.02
3.08715	100.01
3.10382	100.01
3.12048	100.02
3.13715	100.02
3.15382	100.02
3.17048	100.02
3.18715	100.02
3.20382	100.02
3.22048	100.02
3.23715	100.03
3.25382	100.03
3.27048	100.03
3.28715	100.03
3.30382	100.03
3.32048	100.03
3.33715	100.03
3.35382	100.03
3.37048	100.03
3.38715	100.03
3.40382	100.03
3.42048	100.03
3.43715	100.03
3.45382	100.04
3.47048	100.04
3.48715	100.03
3.50382	100.04
3.52048	100.04
3.53715	100.04
3.55382	100.04
3.57048	100.04
3.58715	100.04
3.60382	100.04
3.62048	100.04
3.63715	100.04
3.65382	100.04
3.67048	100.05
3.68715	100.04
3.70382	100.05
3.72048	100.04
3.73715	100.04
3.75382	100.05
3.77048	100.05
3.78715	100.04
3.80382	100.04
3.82048	100.04
3.83715	100.04
3.85382	100.05
3.87048	100.05
3.88715	100.04
3.90382	100.05
3.92048	100.04
3.93715	100.05
3.95382	100.05
3.97048	100.04
3.98715	100.04

[Status Trace (Carrier Gas Pressure)]
Interval(msec)	1000
# of Points	240
Start Time(min)	0.004
End Time(min)	3.987
Intensity Units	
Intensity Multiplier	1
R.Time (min)	Intensity
0.00382	58.00
0.02048	56.01
0.03715	56.63
0.05382	58.81
0.07048	59.70
0.08715	58.15
0.10382	57.98
0.12048	58.01
0.13715	58.01
0.15382	58.00
0.17048	58.00
0.18715	58.00
0.20382	58.00
0.22048	58.00
0.23715	58.00
0.25382	58.00
0.27048	58.00
0.28715	58.00
0.30382	58.00
0.32048	58.00
0.33715	58.00
0.35382	58.00
0.37048	58.00
0.38715	58.00
0.40382	58.00
0.42048	58.00
0.43715	58.00
0.45382	58.00
0.47048	58.00
0.48715	58.00
0.50382	58.00
0.52048	58.00
0.53715	58.00
0.55382	58.00
0.57048	58.00
0.58715	58.00
0.60382	58.00
0.62048	58.00
0.63715	58.00
0.65382	58.00
0.67048	58.00
0.68715	58.00
0.70382	58.00
0.72048	58.00
0.73715	58.00
0.75382	58.00
0.77048	58.00
0.78715	58.00
0.80382	58.00
0.82048	58.00
0.83715	58.00
0.85382	58.00
0.87048	58.00
0.88715	58.00
0.90382	58.00
0.92048	58.00
0.93715	58.00
0.95382	58.00
0.97048	58.00
0.98715	58.00
1.00382	58.00
1.02048	58.00
1.03715	58.00
1.05382	58.00
1.07048	58.00
1.08715	58.00
1.10382	58.00
1.12048	58.00
1.13715	58.00
1.15382	58.00
1.17048	58.00
1.18715	58.00
1.20382	58.00
1.22048	58.00
1.23715	58.00
1.25382	58.00
1.27048	58.00
1.28715	58.00
1.30382	58.00
1.32048	58.00
1.33715	58.00
1.35382	58.00
1.37048	58.00
1.38715	58.00
1.40382	58.00
1.42048	58.00
1.43715	58.00
1.45382	58.00
1.47048	58.00
1.48715	58.00
1.50382	58.00
1.52048	58.00
1.53715	58.00
1.55382	58.00
1.57048	58.00
1.58715	58.00
1.60382	58.00
1.62048	58.00
1.63715	58.00
1.65382	58.00
1.67048	58.01
1.68715	58.01
1.70382	58.00
1.72048	58.00
1.73715	58.00
1.75382	58.00
1.77048	58.00
1.78715	58.00
1.80382	58.00
1.82048	58.00
1.83715	58.00
1.85382	58.00
1.87048	58.00
1.88715	58.00
1.90382	58.00
1.92048	58.00
1.93715	58.00
1.95382	58.00
1.97048	58.00
1.98715	58.00
2.00382	58.00
2.02048	58.00
2.03715	58.00
2.05382	58.00
2.07048	58.00
2.08715	58.00
2.10382	58.00
2.12048	58.00
2.13715	58.00
2.15382	58.00
2.17048	58.00
2.18715	58.00
2.20382	58.00
2.22048	58.00
2.23715	58.00
2.25382	58.00
2.27048	58.00
2.28715	58.00
2.30382	58.00
2.32048	58.00
2.33715	58.00
2.35382	58.00
2.37048	58.00
2.38715	57.99
2.40382	57.99
2.42048	58.00
2.43715	58.00
2.45382	58.00
2.47048	58.00
2.48715	58.00
2.50382	57.97
2.52048	58.00
2.53715	57.99
2.55382	58.00
2.57048	58.00
2.58715	58.00
2.60382	58.00
2.62048	58.00
2.63715	58.00
2.65382	58.00
2.67048	58.00
2.68715	58.00
2.70382	58.00
2.72048	58.00
2.73715	58.00
2.75382	58.00
2.77048	58.00
2.78715	58.00
2.80382	58.00
2.82048	58.00
2.83715	58.00
2.85382	58.00
2.87048	58.00
2.88715	58.00
2.90382	58.00
2.92048	58.00
2.93715	58.00
2.95382	58.00
2.97048	58.00
2.98715	58.00
3.00382	58.00
3.02048	58.00
3.03715	58.00
3.05382	58.00
3.07048	58.00
3.08715	58.00
3.10382	58.00
3.12048	58.00
3.13715	58.00
3.15382	58.00
3.17048	58.00
3.18715	58.00
3.20382	58.00
3.22048	58.00
3.23715	58.00
3.25382	58.00
3.27048	58.00
3.28715	58.00
3.30382	58.00
3.32048	58.00
3.33715	58.00
3.35382	58.00
3.37048	58.00
3.38715	58.00
3.40382	58.00
3.42048	58.00
3.43715	58.00
3.45382	58.00
3.47048	58.00
3.48715	58.00
3.50382	58.00
3.52048	58.00
3.53715	58.00
3.55382	58.00
3.57048	58.00
3.58715	58.00
3.60382	58.00
3.62048	58.00
3.63715	58.00
3.65382	58.00
3.67048	58.00
3.68715	58.00
3.70382	58.00
3.72048	58.00
3.73715	58.00
3.75382	58.00
3.77048	58.00
3.78715	58.00
3.80382	58.00
3.82048	58.00
3.83715	58.00
3.85382	58.00
3.87048	58.00
3.88715	58.00
3.90382	58.00
3.92048	58.00
3.93715	58.00
3.95382	58.00
3.97048	58.00
3.98715	58.00

[Status Trace (Carrier Gas Flow)]
Interval(msec)	1000
# of Points	240
Start Time(min)	0.004
End Time(min)	3.987
Intensity Units	
Intensity Multiplier	1
R.Time (min)	Intensity
0.00382	34.51
0.02048	34.58
0.03715	34.55
0.05382	34.55
0.07048	34.49
0.08715	34.52
0.10382	34.52
0.12048	34.52
0.13715	34.52
0.15382	34.52
0.17048	34.52
0.18715	34.52
0.20382	34.52
0.22048	34.52
0.23715	34.52
0.25382	34.52
0.27048	34.52
0.28715	34.52
0.30382	34.52
0.32048	34.52
0.33715	34.52
0.35382	34.52
0.37048	34.52
0.38715	34.52
0.40382	34.52
0.42048	34.52
0.43715	34.52
0.45382	34.52
0.47048	34.53
0.48715	34.52
0.50382	34.52
0.52048	34.52
0.53715	34.52
0.55382	34.52
0.57048	34.52
0.58715	34.53
0.60382	34.52
0.62048	34.52
0.63715	34.52
0.65382	34.52
0.67048	34.52
0.68715	34.51
0.70382	34.52
0.72048	34.52
0.73715	34.52
0.75382	34.52
0.77048	34.52
0.78715	34.52
0.80382	34.52
0.82048	34.52
0.83715	34.52
0.85382	34.52
0.87048	34.51
0.88715	34.52
0.90382	34.52
0.92048	34.52
0.93715	34.52
0.95382	34.52
0.97048	34.52
0.98715	34.52
1.00382	34.52
1.02048	34.52
1.03715	34.52
1.05382	34.51
1.07048	34.52
1.08715	34.52
1.10382	34.52
1.12048	34.51
1.13715	34.51
1.15382	34.52
1.17048	34.52
1.18715	34.52
1.20382	34.52
1.22048	34.52
1.23715	34.52
1.25382	34.51
1.27048	34.52
1.28715	34.52
1.30382	34.52
1.32048	34.52
1.33715	34.52
1.35382	34.52
1.37048	34.52
1.38715	34.52
1.40382	34.52
1.42048	34.52
1.43715	34.52
1.45382	34.52
1.47048	34.52
1.48715	34.52
1.50382	34.52
1.52048	34.52
1.53715	34.52
1.55382	34.52
1.57048	34.51
1.58715	34.52
1.60382	34.52
1.62048	34.52
1.63715	34.51
1.65382	34.52
1.67048	34.52
1.68715	34.52
1.70382	34.52
1.72048	34.51
1.73715	34.52
1.75382	34.52
1.77048	34.52
1.78715	34.52
1.80382	34.52
1.82048	34.52
1.83715	34.52
1.85382	34.53
1.87048	34.52
1.88715	34.51
1.90382	34.52
1.92048	34.52
1.93715	34.52
1.95382	34.51
1.97048	34.52
1.98715	34.52
2.00382	34.52
2.02048	34.52
2.03715	34.52
2.05382	34.52
2.07048	34.52
2.08715	34.52
2.10382	34.52
2.12048	34.52
2.13715	34.52
2.15382	34.52
2.17048	34.52
2.18715	34.52
2.20382	34.52
2.22048	34.52
2.23715	34.52
2.25382	34.52
2.27048	34.52
2.28715	34.52
2.30382	34.52
2.32048	34.52
2.33715	34.52
2.35382	34.52
2.37048	34.52
2.38715	34.52
2.40382	34.52
2.42048	34.52
2.43715	34.52
2.45382	34.51
2.47048	34.52
2.48715	34.52
2.50382	34.68
2.52048	34.51
2.53715	34.52
2.55382	34.52
2.57048	34.52
2.58715	34.52
2.60382	34.52
2.62048	34.52
2.63715	34.51
2.65382	34.52
2.67048	34.52
2.68715	34.52
2.70382	34.51
2.72048	34.52
2.73715	34.52
2.75382	34.51
2.77048	34.52
2.78715	34.52
2.80382	34.52
2.82048	34.52
2.83715	34.52
2.85382	34.52
2.87048	34.52
2.88715	34.52
2.90382	34.52
2.92048	34.53
2.93715	34.52
2.95382	34.52
2.97048	34.52
2.98715	34.52
3.00382	34.52
3.02048	34.53
3.03715	34.52
3.05382	34.52
3.07048	34.51
3.08715	34.52
3.10382	34.52
3.12048	34.52
3.13715	34.52
3.15382	34.52
3.17048	34.52
3.18715	34.52
3.20382	34.51
3.22048	34.52
3.23715	34.52
3.25382	34.52
3.27048	34.52
3.28715	34.52
3.30382	34.52
3.32048	34.51
3.33715	34.52
3.35382	34.51
3.37048	34.52
3.38715	34.52
3.40382	34.52
3.42048	34.52
3.43715	34.51
3.45382	34.52
3.47048	34.52
3.48715	34.52
3.50382	34.51
3.52048	34.52
3.53715	34.52
3.55382	34.52
3.57048	34.52
3.58715	34.52
3.60382	34.52
3.62048	34.51
3.63715	34.52
3.65382	34.52
3.67048	34.52
3.68715	34.51
3.70382	34.52
3.72048	34.52
3.73715	34.52
3.75382	34.52
3.77048	34.52
3.78715	34.53
3.80382	34.52
3.82048	34.52
3.83715	34.52
3.85382	34.52
3.87048	34.52
3.88715	34.52
3.90382	34.52
3.92048	34.51
3.93715	34.52
3.95382	34.52
3.97048	34.52
3.98715	34.52

[Status Trace (Column Flow)]
Interval(msec)	1000
# of Points	240
Start Time(min)	0.004
End Time(min)	3.987
Intensity Units	
Intensity Multiplier	1
R.Time (min)	Intensity
0.00382	5.52
0.02048	5.29
0.03715	5.36
0.05382	5.61
0.07048	5.72
0.08715	5.54
0.10382	5.52
0.12048	5.52
0.13715	5.52
0.15382	5.52
0.17048	5.52
0.18715	5.52
0.20382	5.52
0.22048	5.52
0.23715	5.52
0.25382	5.52
0.27048	5.52
0.28715	5.52
0.30382	5.52
0.32048	5.52
0.33715	5.52
0.35382	5.52
0.37048	5.52
0.38715	5.52
0.40382	5.52
0.42048	5.52
0.43715	5.52
0.45382	5.52
0.47048	5.52
0.48715	5.52
0.50382	5.52
0.52048	5.52
0.53715	5.52
0.55382	5.52
0.57048	5.52
0.58715	5.52
0.60382	5.52
0.62048	5.52
0.63715	5.52
0.65382	5.52
0.67048	5.52
0.68715	5.52
0.70382	5.52
0.72048	5.52
0.73715	5.52
0.75382	5.52
0.77048	5.52
0.78715	5.52
0.80382	5.52
0.82048	5.52
0.83715	5.52
0.85382	5.52
0.87048	5.52
0.88715	5.52
0.90382	5.52
0.92048	5.52
0.93715	5.52
0.95382	5.52
0.97048	5.52
0.98715	5.52
1.00382	5.52
1.02048	5.52
1.03715	5.52
1.05382	5.52
1.07048	5.52
1.08715	5.52
1.10382	5.52
1.12048	5.52
1.13715	5.52
1.15382	5.52
1.17048	5.52
1.18715	5.52
1.20382	5.52
1.22048	5.52
1.23715	5.52
1.25382	5.52
1.27048	5.52
1.28715	5.52
1.30382	5.52
1.32048	5.52
1.33715	5.52
1.35382	5.52
1.37048	5.52
1.38715	5.52
1.40382	5.52
1.42048	5.52
1.43715	5.52
1.45382	5.52
1.47048	5.52
1.48715	5.52
1.50382	5.52
1.52048	5.52
1.53715	5.52
1.55382	5.52
1.57048	5.52
1.58715	5.52
1.60382	5.52
1.62048	5.52
1.63715	5.51
1.65382	5.50
1.67048	5.49
1.68715	5.48
1.70382	5.47
1.72048	5.46
1.73715	5.45
1.75382	5.44
1.77048	5.43
1.78715	5.42
1.80382	5.41
1.82048	5.40
1.83715	5.39
1.85382	5.38
1.87048	5.37
1.88715	5.36
1.90382	5.35
1.92048	5.34
1.93715	5.33
1.95382	5.32
1.97048	5.31
1.98715	5.30
2.00382	5.29
2.02048	5.28
2.03715	5.27
2.05382	5.26
2.07048	5.25
2.08715	5.24
2.10382	5.23
2.12048	5.22
2.13715	5.21
2.15382	5.21
2.17048	5.20
2.18715	5.19
2.20382	5.18
2.22048	5.17
2.23715	5.16
2.25382	5.15
2.27048	5.14
2.28715	5.13
2.30382	5.12
2.32048	5.11
2.33715	5.10
2.35382	5.09
2.37048	5.09
2.38715	5.09
2.40382	5.09
2.42048	5.09
2.43715	5.09
2.45382	5.09
2.47048	5.09
2.48715	5.09
2.50382	5.08
2.52048	5.08
2.53715	5.08
2.55382	5.08
2.57048	5.08
2.58715	5.08
2.60382	5.08
2.62048	5.08
2.63715	5.08
2.65382	5.08
2.67048	5.08
2.68715	5.08
2.70382	5.08
2.72048	5.08
2.73715	5.08
2.75382	5.08
2.77048	5.08
2.78715	5.08
2.80382	5.08
2.82048	5.08
2.83715	5.08
2.85382	5.08
2.87048	5.08
2.88715	5.08
2.90382	5.08
2.92048	5.08
2.93715	5.08
2.95382	5.08
2.97048	5.08
2.98715	5.08
3.00382	5.08
3.02048	5.08
3.03715	5.08
3.05382	5.08
3.07048	5.08
3.08715	5.08
3.10382	5.08
3.12048	5.08
3.13715	5.08
3.15382	5.08
3.17048	5.08
3.18715	5.08
3.20382	5.08
3.22048	5.08
3.23715	5.08
3.25382	5.08
3.27048	5.07
3.28715	5.07
3.30382	5.07
3.32048	5.07
3.33715	5.07
3.35382	5.07
3.37048	5.07
3.38715	5.07
3.40382	5.07
3.42048	5.07
3.43715	5.07
3.45382	5.07
3.47048	5.07
3.48715	5.07
3.50382	5.07
3.52048	5.08
3.53715	5.08
3.55382	5.07
3.57048	5.07
3.58715	5.07
3.60382	5.07
3.62048	5.07
3.63715	5.07
3.65382	5.07
3.67048	5.07
3.68715	5.07
3.70382	5.07
3.72048	5.07
3.73715	5.07
3.75382	5.07
3.77048	5.07
3.78715	5.07
3.80382	5.07
3.82048	5.07
3.83715	5.07
3.85382	5.07
3.87048	5.07
3.88715	5.07
3.90382	5.07
3.92048	5.07
3.93715	5.07
3.95382	5.07
3.97048	5.07
3.98715	5.07

[Status Trace (Linear Velocity)]
Interval(msec)	1000
# of Points	240
Start Time(min)	0.004
End Time(min)	3.987
Intensity Units	
Intensity Multiplier	1
R.Time (min)	Intensity
0.00382	39.01
0.02048	37.71
0.03715	38.11
0.05382	39.54
0.07048	40.12
0.08715	39.11
0.10382	39.00
0.12048	39.02
0.13715	39.02
0.15382	39.02
0.17048	39.02
0.18715	39.02
0.20382	39.02
0.22048	39.02
0.23715	39.02
0.25382	39.02
0.27048	39.02
0.28715	39.02
0.30382	39.02
0.32048	39.02
0.33715	39.01
0.35382	39.01
0.37048	39.01
0.38715	39.01
0.40382	39.01
0.42048	39.01
0.43715	39.01
0.45382	39.01
0.47048	39.01
0.48715	39.01
0.50382	39.01
0.52048	39.01
0.53715	39.01
0.55382	39.01
0.57048	39.01
0.58715	39.01
0.60382	39.01
0.62048	39.01
0.63715	39.01
0.65382	39.01
0.67048	39.02
0.68715	39.02
0.70382	39.02
0.72048	39.02
0.73715	39.02
0.75382	39.02
0.77048	39.02
0.78715	39.02
0.80382	39.02
0.82048	39.02
0.83715	39.02
0.85382	39.02
0.87048	39.02
0.88715	39.02
0.90382	39.02
0.92048	39.02
0.93715	39.02
0.95382	39.02
0.97048	39.02
0.98715	39.02
1.00382	39.02
1.02048	39.02
1.03715	39.02
1.05382	39.02
1.07048	39.02
1.08715	39.02
1.10382	39.02
1.12048	39.02
1.13715	39.02
1.15382	39.02
1.17048	39.01
1.18715	39.01
1.20382	39.02
1.22048	39.01
1.23715	39.02
1.25382	39.02
1.27048	39.02
1.28715	39.02
1.30382	39.02
1.32048	39.02
1.33715	39.02
1.35382	39.02
1.37048	39.02
1.38715	39.01
1.40382	39.01
1.42048	39.01
1.43715	39.01
1.45382	39.01
1.47048	39.01
1.48715	39.01
1.50382	39.02
1.52048	39.02
1.53715	39.02
1.55382	39.02
1.57048	39.02
1.58715	39.01
1.60382	39.01
1.62048	39.00
1.63715	38.99
1.65382	38.97
1.67048	38.94
1.68715	38.90
1.70382	38.87
1.72048	38.83
1.73715	38.80
1.75382	38.77
1.77048	38.74
1.78715	38.71
1.80382	38.68
1.82048	38.65
1.83715	38.61
1.85382	38.58
1.87048	38.55
1.88715	38.52
1.90382	38.49
1.92048	38.46
1.93715	38.43
1.95382	38.40
1.97048	38.37
1.98715	38.34
2.00382	38.31
2.02048	38.28
2.03715	38.25
2.05382	38.22
2.07048	38.19
2.08715	38.16
2.10382	38.13
2.12048	38.10
2.13715	38.07
2.15382	38.04
2.17048	38.01
2.18715	37.98
2.20382	37.95
2.22048	37.92
2.23715	37.89
2.25382	37.86
2.27048	37.83
2.28715	37.80
2.30382	37.77
2.32048	37.75
2.33715	37.71
2.35382	37.69
2.37048	37.67
2.38715	37.66
2.40382	37.66
2.42048	37.66
2.43715	37.66
2.45382	37.66
2.47048	37.66
2.48715	37.66
2.50382	37.64
2.52048	37.65
2.53715	37.65
2.55382	37.65
2.57048	37.65
2.58715	37.65
2.60382	37.65
2.62048	37.65
2.63715	37.65
2.65382	37.65
2.67048	37.65
2.68715	37.65
2.70382	37.65
2.72048	37.64
2.73715	37.64
2.75382	37.65
2.77048	37.65
2.78715	37.64
2.80382	37.64
2.82048	37.64
2.83715	37.64
2.85382	37.64
2.87048	37.64
2.88715	37.64
2.90382	37.64
2.92048	37.64
2.93715	37.64
2.95382	37.64
2.97048	37.64
2.98715	37.64
3.00382	37.64
3.02048	37.64
3.03715	37.64
3.05382	37.63
3.07048	37.63
3.08715	37.63
3.10382	37.63
3.12048	37.63
3.13715	37.63
3.15382	37.63
3.17048	37.63
3.18715	37.63
3.20382	37.63
3.22048	37.63
3.23715	37.63
3.25382	37.63
3.27048	37.63
3.28715	37.63
3.30382	37.63
3.32048	37.62
3.33715	37.62
3.35382	37.62
3.37048	37.62
3.38715	37.62
3.40382	37.62
3.42048	37.63
3.43715	37.63
3.45382	37.63
3.47048	37.63
3.48715	37.63
3.50382	37.63
3.52048	37.63
3.53715	37.63
3.55382	37.63
3.57048	37.63
3.58715	37.63
3.60382	37.63
3.62048	37.63
3.63715	37.63
3.65382	37.62
3.67048	37.63
3.68715	37.63
3.70382	37.63
3.72048	37.63
3.73715	37.63
3.75382	37.63
3.77048	37.63
3.78715	37.63
3.80382	37.63
3.82048	37.63
3.83715	37.63
3.85382	37.63
3.87048	37.63
3.88715	37.63
3.90382	37.63
3.92048	37.63
3.93715	37.63
3.95382	37.63
3.97048	37.63
3.98715	37.63

