[Header]
Application Name	LabSolutions
Version	5.110
Data File Name	C:\Users\User\Desktop\Junior\UIC Prairie Sampling\3.23.23\032323_058.gcd
Output Date	5/24/2023
Output Time	10:27:39 AM

[File Information]
Type	Data File
Generated	5/23/2023 9:59:54 PM
Generated by	System Administrator
Modified	5/23/2023 10:06:47 PM
Modified by	System Administrator

[Sample Information]
Operator Name	System Administrator
Acquired	5/23/2023 10:02:46 PM
Sample Type	0:Unknown
Level	0
Sample Name	058
Sample ID	058
ISTD Amount1	1
ISTD Amount2	1
ISTD Amount3	1
ISTD Amount4	1
ISTD Amount5	1
ISTD Amount6	1
ISTD Amount7	1
ISTD Amount8	1
ISTD Amount9	1
ISTD Amount10	1
ISTD Amount11	1
ISTD Amount12	1
ISTD Amount13	1
ISTD Amount14	1
ISTD Amount15	1
ISTD Amount16	1
ISTD Amount17	1
ISTD Amount18	1
ISTD Amount19	1
ISTD Amount20	1
ISTD Amount21	1
ISTD Amount22	1
ISTD Amount23	1
ISTD Amount24	1
ISTD Amount25	1
ISTD Amount26	1
ISTD Amount27	1
ISTD Amount28	1
ISTD Amount29	1
ISTD Amount30	1
ISTD Amount31	1
ISTD Amount32	1
Sample Amount	1
Dilution Factor	1
Vial#	57
Injection Volume	1
Injection Count	1
Bar Code	

[Original Files]
Data File	C:\Users\User\Desktop\GC Analyses\Jack\Nachusa Grasslands Sampling\20220924\t2\032323_058.gcd
Method File	C:\LabSolutions\Data\GHG_4min_2022\ghg3_togas_w_acet_4 min_new_int.gcm
Batch File	C:\LabSolutions\Data\AutoSamplerTesting\032323.gcb
Report Format File	c:\LabSolutions\System\DEFAULT.lsr

[File Description]


[Configuration]
Instrument Name	C0B7VH3-Instrument1
Instrument #	1
Line #	1
# of Detectors	3
Detector ID	DET#1	DET#2	DET#3
Detector Name	FID	PTCD	ECD
# of Channels	1	1	1

[Peak Table(Ch1)]
# of Peaks	3
Peak#	R.Time	I.Time	F.Time	Area	Height	A/H	Conc.	Mark	ID#	Name	k'	Plate #	Plate Ht.	Tailing	Resolution	Sep.Factor	Area Ratio	Height Ratio	Conc. %	Norm Conc.
1	1.472	1.439	1.534	11724	5768	2.033	0.000	   	1	CO	0.000	9662	15.524	1.320	0.000	0.000	0	0	0.000	0.000
2	1.564	1.534	1.626	4501	2277	1.976	21.944	 V 	2	CH4	0.062	11321	13.249	1.237	1.545	0.000	0	0	8.613	8.613
3	1.993	1.941	2.385	1208146	579861	2.084	232.832	   	3	CO2	0.354	17319	8.661	1.272	7.189	5.680	0	0	91.387	91.387

[Peak Table(Ch2)]
# of Peaks	0

[Peak Table(Ch3)]
# of Peaks	5
Peak#	R.Time	I.Time	F.Time	Area	Height	A/H	Conc.	Mark	ID#	Name	k'	Plate #	Plate Ht.	Tailing	Resolution	Sep.Factor	Area Ratio	Height Ratio	Conc. %	Norm Conc.
1	2.458	2.359	2.502	683	268	2.547	0.000	   			0.000	17997	8.335	0.000	0.000	0.000	0	0	0.000	0.000
2	2.521	2.502	2.565	229	107	2.148	0.000	 V 			0.025	12583	11.921	0.000	0.764	0.000	0	0	0.000	0.000
3	2.620	2.565	2.667	279	85	3.266	0.000	 V 			0.066	12587	11.917	0.000	1.080	2.588	0	0	0.000	0.000
4	2.891	2.741	3.104	21442	4463	4.804	0.317	   	1	N2O	0.176	12544	11.958	0.000	2.760	2.682	0	0	100.000	100.000
5	3.170	3.104	3.951	12545	478	26.235	0.000	 V 	2	SF6	0.289	75	2013.119	0.000	0.355	1.644	0	0	0.000	0.000

[Compound Results(Ch1)]
# of IDs	6
ID#	Name	R.Time	Area	Height	Conc.	Curve	3rd	2nd	1st	Constant	Area Ratio	Height Ratio	Conc. %	Norm Conc.
1	CO	1.472	11724	5768	0.000	Linear	0.000000e+00	0.000000e+00	0.000000e+00	0.000000e+00	0	0	0.000	0.000
2	CH4	1.564	4501	2277	21.944	Linear	0.000000e+00	0.000000e+00	2.051179e+002	0.000000e+00	0	0	8.613	8.613
3	CO2	1.993	1208146	579861	232.832	Linear	0.000000e+00	0.000000e+00	5.188919e+003	0.000000e+00	0	0	91.387	91.387
4	Ethylene	0.000	0	0	0.000	Linear	0.000000e+00	0.000000e+00	0.000000e+00	0.000000e+00	0	0	0.000	0.000
5	Acetylene	0.000	0	0	0.000	Linear	0.000000e+00	0.000000e+00	0.000000e+00	0.000000e+00	0	0	0.000	0.000
6	Ethane	0.000	0	0	0.000	Linear	0.000000e+00	0.000000e+00	0.000000e+00	0.000000e+00	0	0	0.000	0.000

[Compound Results(Ch2)]
# of IDs	5
ID#	Name	R.Time	Area	Height	Conc.	Curve	3rd	2nd	1st	Constant	Area Ratio	Height Ratio	Conc. %	Norm Conc.
1	Hydrogen	0.000	0	0	0.000	Linear	0.000000e+00	0.000000e+00	0.000000e+00	0.000000e+00	0	0	0.000	0.000
2	Oxygen	0.000	0	0	0.000	Linear	0.000000e+00	0.000000e+00	0.000000e+00	0.000000e+00	0	0	0.000	0.000
3	Nitrogen	0.000	0	0	0.000	Linear	0.000000e+00	0.000000e+00	0.000000e+00	0.000000e+00	0	0	0.000	0.000
4	Methane	0.000	0	0	0.000	Linear	0.000000e+00	0.000000e+00	0.000000e+00	0.000000e+00	0	0	0.000	0.000
5	Carbon Monoxide	0.000	0	0	0.000	Linear	0.000000e+00	0.000000e+00	0.000000e+00	0.000000e+00	0	0	0.000	0.000

[Compound Results(Ch3)]
# of IDs	2
ID#	Name	R.Time	Area	Height	Conc.	Curve	3rd	2nd	1st	Constant	Area Ratio	Height Ratio	Conc. %	Norm Conc.
1	N2O	2.891	21442	4463	0.317	Linear	0.000000e+00	0.000000e+00	6.759880e+004	0.000000e+00	0	0	100.000	100.000
2	SF6	3.170	12545	478	0.000	Linear	0.000000e+00	0.000000e+00	0.000000e+00	0.000000e+00	0	0	0.000	0.000

[Group Results(Ch1)]
# of Groups	0

[Group Results(Ch2)]
# of Groups	0

[Group Results(Ch3)]
# of Groups	0

[Chromatogram (Ch1)]
Interval(msec)	220
# of Points	1091
Start Time(min)	0.002
End Time(min)	3.998
R.Time (min)	Intensity
0.00167	1
0.00533	4
0.00900	-2
0.01267	-7
0.01633	-11
0.02000	-16
0.02367	-20
0.02733	-22
0.03100	-24
0.03467	-28
0.03833	-31
0.04200	-32
0.04567	-30
0.04933	-29
0.05300	-25
0.05667	-17
0.06033	-10
0.06400	-2
0.06767	5
0.07133	12
0.07500	16
0.07867	15
0.08233	11
0.08600	5
0.08967	-3
0.09333	-10
0.09700	-14
0.10067	-14
0.10433	-11
0.10800	-5
0.11167	1
0.11533	4
0.11900	4
0.12267	9
0.12633	14
0.13000	14
0.13367	8
0.13733	0
0.14100	-8
0.14467	-9
0.14833	-8
0.15200	-7
0.15567	-4
0.15933	2
0.16300	6
0.16667	8
0.17033	8
0.17400	10
0.17767	12
0.18133	15
0.18500	16
0.18867	16
0.19233	14
0.19600	12
0.19967	13
0.20333	14
0.20700	13
0.21067	10
0.21433	5
0.21800	-1
0.22167	-3
0.22533	-2
0.22900	-4
0.23267	-5
0.23633	-1
0.24000	5
0.24367	10
0.24733	15
0.25100	22
0.25467	25
0.25833	26
0.26200	23
0.26567	17
0.26933	9
0.27300	2
0.27667	-7
0.28033	-14
0.28400	-17
0.28767	-19
0.29133	-17
0.29500	-17
0.29867	-18
0.30233	-17
0.30600	-15
0.30967	-14
0.31333	-12
0.31700	-10
0.32067	-8
0.32433	-6
0.32800	-4
0.33167	-2
0.33533	-5
0.33900	-11
0.34267	-16
0.34633	-18
0.35000	-17
0.35367	-13
0.35733	-7
0.36100	-1
0.36467	6
0.36833	14
0.37200	19
0.37567	17
0.37933	5
0.38300	-12
0.38667	-28
0.39033	-39
0.39400	-42
0.39767	-34
0.40133	-23
0.40500	-14
0.40867	-12
0.41233	-17
0.41600	-22
0.41967	-22
0.42333	-19
0.42700	-17
0.43067	-18
0.43433	-20
0.43800	-22
0.44167	-18
0.44533	-10
0.44900	1
0.45267	8
0.45633	5
0.46000	-3
0.46367	-11
0.46733	-16
0.47100	-16
0.47467	-17
0.47833	-15
0.48200	-10
0.48567	-7
0.48933	-7
0.49300	-9
0.49667	-10
0.50033	-10
0.50400	-8
0.50767	-4
0.51133	-0
0.51500	2
0.51867	2
0.52233	0
0.52600	-3
0.52967	-5
0.53333	-7
0.53700	-10
0.54067	-14
0.54433	-17
0.54800	-17
0.55167	-15
0.55533	-11
0.55900	-5
0.56267	1
0.56633	8
0.57000	13
0.57367	13
0.57733	6
0.58100	-1
0.58467	-4
0.58833	-7
0.59200	-11
0.59567	-14
0.59933	-17
0.60300	-17
0.60667	-14
0.61033	-8
0.61400	-2
0.61767	0
0.62133	-1
0.62500	-4
0.62867	-8
0.63233	-13
0.63600	-18
0.63967	-21
0.64333	-20
0.64700	-20
0.65067	-22
0.65433	-19
0.65800	-14
0.66167	-11
0.66533	-13
0.66900	-16
0.67267	-17
0.67633	-17
0.68000	-18
0.68367	-18
0.68733	-18
0.69100	-15
0.69467	-11
0.69833	-6
0.70200	-0
0.70567	3
0.70933	2
0.71300	-1
0.71667	-5
0.72033	-9
0.72400	-14
0.72767	-17
0.73133	-17
0.73500	-17
0.73867	-14
0.74233	-11
0.74600	-9
0.74967	-8
0.75333	-8
0.75700	-9
0.76067	-9
0.76433	-8
0.76800	-8
0.77167	-11
0.77533	-16
0.77900	-21
0.78267	-22
0.78633	-20
0.79000	-18
0.79367	-22
0.79733	-26
0.80100	-28
0.80467	-25
0.80833	-23
0.81200	-23
0.81567	-27
0.81933	-31
0.82300	-35
0.82667	-35
0.83033	-32
0.83400	-30
0.83767	-27
0.84133	-27
0.84500	-29
0.84867	-31
0.85233	-35
0.85600	-41
0.85967	-47
0.86333	-47
0.86700	-43
0.87067	-38
0.87433	-36
0.87800	-33
0.88167	-28
0.88533	-26
0.88900	-27
0.89267	-25
0.89633	-21
0.90000	-20
0.90367	-21
0.90733	-21
0.91100	-20
0.91467	-23
0.91833	-26
0.92200	-29
0.92567	-31
0.92933	-31
0.93300	-33
0.93667	-37
0.94033	-40
0.94400	-40
0.94767	-39
0.95133	-39
0.95500	-41
0.95867	-41
0.96233	-41
0.96600	-40
0.96967	-39
0.97333	-37
0.97700	-34
0.98067	-35
0.98433	-38
0.98800	-43
0.99167	-46
0.99533	-44
0.99900	-40
1.00267	-38
1.00633	-35
1.01000	-32
1.01367	-30
1.01733	-30
1.02100	-28
1.02467	-29
1.02833	-32
1.03200	-32
1.03567	-32
1.03933	-31
1.04300	-29
1.04667	-28
1.05033	-30
1.05400	-32
1.05767	-35
1.06133	-36
1.06500	-38
1.06867	-44
1.07233	-50
1.07600	-52
1.07967	-52
1.08333	-52
1.08700	-54
1.09067	-54
1.09433	-50
1.09800	-42
1.10167	-34
1.10533	-32
1.10900	-38
1.11267	-49
1.11633	-63
1.12000	-74
1.12367	-78
1.12733	-74
1.13100	-66
1.13467	-56
1.13833	-45
1.14200	-38
1.14567	-32
1.14933	-31
1.15300	-31
1.15667	-34
1.16033	-36
1.16400	-39
1.16767	-41
1.17133	-42
1.17500	-42
1.17867	-40
1.18233	-38
1.18600	-34
1.18967	-30
1.19333	-29
1.19700	-29
1.20067	-26
1.20433	-22
1.20800	-24
1.21167	-32
1.21533	-40
1.21900	-43
1.22267	-45
1.22633	-45
1.23000	-44
1.23367	-41
1.23733	-41
1.24100	-42
1.24467	-43
1.24833	-39
1.25200	-33
1.25567	-28
1.25933	-25
1.26300	-25
1.26667	-31
1.27033	-39
1.27400	-47
1.27767	-54
1.28133	-58
1.28500	-57
1.28867	-56
1.29233	-59
1.29600	-62
1.29967	-64
1.30333	-62
1.30700	-60
1.31067	-60
1.31433	-59
1.31800	-56
1.32167	-53
1.32533	-49
1.32900	-45
1.33267	-43
1.33633	-41
1.34000	-42
1.34367	-46
1.34733	-53
1.35100	-54
1.35467	-49
1.35833	-41
1.36200	-36
1.36567	-40
1.36933	-49
1.37300	-59
1.37667	-63
1.38033	-65
1.38400	-67
1.38767	-68
1.39133	-67
1.39500	-66
1.39867	-66
1.40233	-67
1.40600	-72
1.40967	-75
1.41333	-72
1.41700	-65
1.42067	-57
1.42433	-54
1.42800	-57
1.43167	-64
1.43533	-61
1.43900	-39
1.44267	15
1.44633	175
1.45000	643
1.45367	1531
1.45733	2674
1.46100	3797
1.46467	4727
1.46833	5389
1.47200	5726
1.47567	5674
1.47933	5221
1.48300	4460
1.48667	3559
1.49033	2685
1.49400	1940
1.49767	1360
1.50133	932
1.50500	626
1.50867	413
1.51233	265
1.51600	164
1.51967	98
1.52333	57
1.52700	31
1.53067	14
1.53433	13
1.53800	64
1.54167	240
1.54533	577
1.54900	1013
1.55267	1451
1.55633	1820
1.56000	2086
1.56367	2227
1.56733	2212
1.57100	2026
1.57467	1706
1.57833	1330
1.58200	970
1.58567	668
1.58933	436
1.59300	267
1.59667	151
1.60033	75
1.60400	28
1.60767	-4
1.61133	-24
1.61500	-35
1.61867	-43
1.62233	-49
1.62600	-56
1.62967	-62
1.63333	-66
1.63700	-65
1.64067	-63
1.64433	-61
1.64800	-61
1.65167	-64
1.65533	-71
1.65900	-82
1.66267	-92
1.66633	-100
1.67000	-106
1.67367	-108
1.67733	-105
1.68100	-100
1.68467	-92
1.68833	-83
1.69200	-76
1.69567	-72
1.69933	-73
1.70300	-77
1.70667	-83
1.71033	-90
1.71400	-92
1.71767	-87
1.72133	-76
1.72500	-64
1.72867	-55
1.73233	-53
1.73600	-56
1.73967	-61
1.74333	-66
1.74700	-73
1.75067	-83
1.75433	-96
1.75800	-105
1.76167	-108
1.76533	-111
1.76900	-111
1.77267	-109
1.77633	-104
1.78000	-96
1.78367	-86
1.78733	-76
1.79100	-77
1.79467	-85
1.79833	-90
1.80200	-93
1.80567	-98
1.80933	-102
1.81300	-104
1.81667	-103
1.82033	-99
1.82400	-92
1.82767	-81
1.83133	-70
1.83500	-66
1.83867	-69
1.84233	-77
1.84600	-90
1.84967	-103
1.85333	-108
1.85700	-110
1.86067	-110
1.86433	-108
1.86800	-104
1.87167	-96
1.87533	-88
1.87900	-83
1.88267	-79
1.88633	-75
1.89000	-74
1.89367	-76
1.89733	-78
1.90100	-82
1.90467	-90
1.90833	-97
1.91200	-100
1.91567	-101
1.91933	-101
1.92300	-99
1.92667	-96
1.93033	-92
1.93400	-84
1.93767	-79
1.94133	-74
1.94500	-66
1.94867	-42
1.95233	80
1.95600	762
1.95967	3815
1.96333	14090
1.96700	40455
1.97067	93040
1.97433	175652
1.97800	280295
1.98167	389847
1.98533	485363
1.98900	551849
1.99267	579820
1.99633	566068
2.00000	514961
2.00367	438139
2.00733	350913
2.01100	267115
2.01467	195474
2.01833	139157
2.02200	97460
2.02567	67840
2.02933	47365
2.03300	33448
2.03667	24060
2.04033	17730
2.04400	13434
2.04767	10479
2.05133	8410
2.05500	6931
2.05867	5846
2.06233	5028
2.06600	4396
2.06967	3897
2.07333	3492
2.07700	3157
2.08067	2877
2.08433	2637
2.08800	2428
2.09167	2248
2.09533	2094
2.09900	1960
2.10267	1840
2.10633	1732
2.11000	1633
2.11367	1543
2.11733	1462
2.12100	1390
2.12467	1323
2.12833	1260
2.13200	1199
2.13567	1143
2.13933	1087
2.14300	1035
2.14667	992
2.15033	956
2.15400	924
2.15767	892
2.16133	858
2.16500	827
2.16867	798
2.17233	769
2.17600	741
2.17967	714
2.18333	690
2.18700	664
2.19067	637
2.19433	611
2.19800	588
2.20167	571
2.20533	559
2.20900	549
2.21267	533
2.21633	517
2.22000	503
2.22367	492
2.22733	486
2.23100	480
2.23467	472
2.23833	464
2.24200	455
2.24567	445
2.24933	433
2.25300	418
2.25667	402
2.26033	389
2.26400	379
2.26767	375
2.27133	373
2.27500	368
2.27867	362
2.28233	353
2.28600	344
2.28967	333
2.29333	321
2.29700	308
2.30067	298
2.30433	290
2.30800	284
2.31167	282
2.31533	280
2.31900	278
2.32267	277
2.32633	276
2.33000	274
2.33367	269
2.33733	262
2.34100	257
2.34467	251
2.34833	244
2.35200	236
2.35567	231
2.35933	226
2.36300	221
2.36667	219
2.37033	219
2.37400	218
2.37767	215
2.38133	211
2.38500	212
2.38867	214
2.39233	217
2.39600	216
2.39967	209
2.40333	204
2.40700	205
2.41067	209
2.41433	216
2.41800	218
2.42167	218
2.42533	218
2.42900	219
2.43267	216
2.43633	209
2.44000	204
2.44367	200
2.44733	195
2.45100	189
2.45467	181
2.45833	175
2.46200	175
2.46567	180
2.46933	186
2.47300	188
2.47667	185
2.48033	178
2.48400	172
2.48767	170
2.49133	170
2.49500	169
2.49867	170
2.50233	169
2.50600	168
2.50967	170
2.51333	176
2.51700	183
2.52067	187
2.52433	189
2.52800	188
2.53167	183
2.53533	178
2.53900	174
2.54267	172
2.54633	166
2.55000	159
2.55367	153
2.55733	153
2.56100	154
2.56467	153
2.56833	151
2.57200	155
2.57567	162
2.57933	164
2.58300	163
2.58667	161
2.59033	159
2.59400	155
2.59767	151
2.60133	151
2.60500	152
2.60867	151
2.61233	149
2.61600	146
2.61967	145
2.62333	149
2.62700	157
2.63067	161
2.63433	163
2.63800	161
2.64167	153
2.64533	145
2.64900	140
2.65267	139
2.65633	137
2.66000	135
2.66367	133
2.66733	133
2.67100	134
2.67467	138
2.67833	141
2.68200	143
2.68567	146
2.68933	151
2.69300	154
2.69667	153
2.70033	150
2.70400	154
2.70767	162
2.71133	171
2.71500	174
2.71867	170
2.72233	164
2.72600	158
2.72967	153
2.73333	152
2.73700	154
2.74067	156
2.74433	160
2.74800	165
2.75167	166
2.75533	164
2.75900	161
2.76267	162
2.76633	164
2.77000	161
2.77367	155
2.77733	151
2.78100	151
2.78467	156
2.78833	162
2.79200	168
2.79567	171
2.79933	172
2.80300	172
2.80667	167
2.81033	158
2.81400	154
2.81767	152
2.82133	153
2.82500	157
2.82867	161
2.83233	163
2.83600	166
2.83967	168
2.84333	171
2.84700	174
2.85067	177
2.85433	176
2.85800	170
2.86167	166
2.86533	162
2.86900	161
2.87267	163
2.87633	164
2.88000	161
2.88367	156
2.88733	155
2.89100	158
2.89467	161
2.89833	162
2.90200	162
2.90567	162
2.90933	165
2.91300	169
2.91667	170
2.92033	169
2.92400	166
2.92767	163
2.93133	164
2.93500	168
2.93867	171
2.94233	171
2.94600	167
2.94967	164
2.95333	167
2.95700	172
2.96067	173
2.96433	172
2.96800	170
2.97167	168
2.97533	166
2.97900	163
2.98267	159
2.98633	159
2.99000	160
2.99367	160
2.99733	163
3.00100	169
3.00467	176
3.00833	182
3.01200	185
3.01567	187
3.01933	191
3.02300	193
3.02667	190
3.03033	187
3.03400	185
3.03767	183
3.04133	181
3.04500	183
3.04867	181
3.05233	177
3.05600	169
3.05967	158
3.06333	147
3.06700	140
3.07067	137
3.07433	137
3.07800	139
3.08167	146
3.08533	155
3.08900	163
3.09267	167
3.09633	170
3.10000	171
3.10367	170
3.10733	167
3.11100	162
3.11467	158
3.11833	159
3.12200	161
3.12567	164
3.12933	167
3.13300	170
3.13667	173
3.14033	173
3.14400	169
3.14767	159
3.15133	148
3.15500	139
3.15867	133
3.16233	131
3.16600	133
3.16967	137
3.17333	137
3.17700	137
3.18067	142
3.18433	153
3.18800	166
3.19167	175
3.19533	177
3.19900	171
3.20267	165
3.20633	161
3.21000	162
3.21367	167
3.21733	172
3.22100	171
3.22467	167
3.22833	160
3.23200	153
3.23567	146
3.23933	145
3.24300	149
3.24667	156
3.25033	165
3.25400	171
3.25767	176
3.26133	180
3.26500	182
3.26867	181
3.27233	173
3.27600	165
3.27967	155
3.28333	142
3.28700	133
3.29067	129
3.29433	126
3.29800	129
3.30167	135
3.30533	140
3.30900	145
3.31267	151
3.31633	155
3.32000	158
3.32367	158
3.32733	158
3.33100	156
3.33467	155
3.33833	152
3.34200	153
3.34567	154
3.34933	156
3.35300	153
3.35667	147
3.36033	137
3.36400	126
3.36767	118
3.37133	116
3.37500	117
3.37867	118
3.38233	123
3.38600	128
3.38967	135
3.39333	141
3.39700	143
3.40067	139
3.40433	135
3.40800	132
3.41167	130
3.41533	128
3.41900	129
3.42267	136
3.42633	142
3.43000	146
3.43367	146
3.43733	143
3.44100	141
3.44467	135
3.44833	130
3.45200	129
3.45567	132
3.45933	134
3.46300	135
3.46667	134
3.47033	134
3.47400	137
3.47767	141
3.48133	146
3.48500	147
3.48867	142
3.49233	132
3.49600	124
3.49967	118
3.50333	113
3.50700	114
3.51067	120
3.51433	127
3.51800	134
3.52167	136
3.52533	134
3.52900	130
3.53267	129
3.53633	134
3.54000	137
3.54367	136
3.54733	133
3.55100	130
3.55467	126
3.55833	127
3.56200	131
3.56567	134
3.56933	132
3.57300	125
3.57667	120
3.58033	116
3.58400	114
3.58767	114
3.59133	116
3.59500	118
3.59867	119
3.60233	119
3.60600	121
3.60967	128
3.61333	135
3.61700	138
3.62067	131
3.62433	120
3.62800	113
3.63167	109
3.63533	109
3.63900	111
3.64267	117
3.64633	125
3.65000	130
3.65367	128
3.65733	123
3.66100	119
3.66467	117
3.66833	116
3.67200	113
3.67567	109
3.67933	105
3.68300	101
3.68667	99
3.69033	100
3.69400	101
3.69767	100
3.70133	99
3.70500	99
3.70867	100
3.71233	101
3.71600	105
3.71967	113
3.72333	119
3.72700	121
3.73067	118
3.73433	114
3.73800	110
3.74167	109
3.74533	110
3.74900	110
3.75267	108
3.75633	103
3.76000	98
3.76367	97
3.76733	100
3.77100	106
3.77467	108
3.77833	107
3.78200	104
3.78567	99
3.78933	97
3.79300	97
3.79667	98
3.80033	99
3.80400	103
3.80767	109
3.81133	115
3.81500	120
3.81867	121
3.82233	119
3.82600	117
3.82967	113
3.83333	107
3.83700	104
3.84067	97
3.84433	88
3.84800	81
3.85167	78
3.85533	80
3.85900	86
3.86267	90
3.86633	90
3.87000	93
3.87367	95
3.87733	93
3.88100	91
3.88467	87
3.88833	86
3.89200	88
3.89567	94
3.89933	98
3.90300	100
3.90667	100
3.91033	100
3.91400	100
3.91767	101
3.92133	100
3.92500	99
3.92867	100
3.93233	101
3.93600	104
3.93967	105
3.94333	101
3.94700	93
3.95067	84
3.95433	76
3.95800	73
3.96167	73
3.96533	70
3.96900	69
3.97267	68
3.97633	67
3.98000	69
3.98367	75
3.98733	81
3.99100	86
3.99467	90
3.99833	92

[Chromatogram (Ch2)]
Interval(msec)	220
# of Points	1091
Start Time(min)	0.002
End Time(min)	3.998
R.Time (min)	Intensity
0.00167	-0
0.00533	-0
0.00900	-1
0.01267	-1
0.01633	-1
0.02000	-1
0.02367	-1
0.02733	-1
0.03100	-2
0.03467	-2
0.03833	-2
0.04200	-2
0.04567	-2
0.04933	-1
0.05300	-1
0.05667	-1
0.06033	-1
0.06400	-1
0.06767	-1
0.07133	-1
0.07500	-1
0.07867	-1
0.08233	-0
0.08600	-0
0.08967	-0
0.09333	-0
0.09700	-0
0.10067	-0
0.10433	-0
0.10800	-1
0.11167	-1
0.11533	-1
0.11900	-1
0.12267	-2
0.12633	-2
0.13000	-3
0.13367	-4
0.13733	-4
0.14100	-4
0.14467	-4
0.14833	-4
0.15200	-5
0.15567	-5
0.15933	-5
0.16300	-5
0.16667	-5
0.17033	-5
0.17400	-5
0.17767	-5
0.18133	-4
0.18500	-4
0.18867	-3
0.19233	-3
0.19600	-2
0.19967	-2
0.20333	-1
0.20700	-0
0.21067	0
0.21433	0
0.21800	1
0.22167	1
0.22533	1
0.22900	2
0.23267	2
0.23633	2
0.24000	3
0.24367	3
0.24733	3
0.25100	3
0.25467	3
0.25833	3
0.26200	3
0.26567	3
0.26933	3
0.27300	3
0.27667	3
0.28033	2
0.28400	2
0.28767	2
0.29133	2
0.29500	2
0.29867	2
0.30233	2
0.30600	2
0.30967	2
0.31333	2
0.31700	2
0.32067	2
0.32433	2
0.32800	2
0.33167	2
0.33533	2
0.33900	2
0.34267	2
0.34633	2
0.35000	2
0.35367	2
0.35733	2
0.36100	2
0.36467	2
0.36833	2
0.37200	2
0.37567	2
0.37933	2
0.38300	2
0.38667	2
0.39033	1
0.39400	1
0.39767	1
0.40133	1
0.40500	1
0.40867	1
0.41233	1
0.41600	1
0.41967	1
0.42333	1
0.42700	1
0.43067	1
0.43433	1
0.43800	1
0.44167	1
0.44533	0
0.44900	0
0.45267	0
0.45633	0
0.46000	0
0.46367	0
0.46733	0
0.47100	0
0.47467	0
0.47833	0
0.48200	1
0.48567	1
0.48933	1
0.49300	0
0.49667	0
0.50033	-0
0.50400	-0
0.50767	-0
0.51133	-0
0.51500	-0
0.51867	-0
0.52233	-0
0.52600	-1
0.52967	-1
0.53333	-1
0.53700	-1
0.54067	-1
0.54433	-1
0.54800	-1
0.55167	-2
0.55533	-2
0.55900	-2
0.56267	-2
0.56633	-2
0.57000	-2
0.57367	-2
0.57733	-1
0.58100	-1
0.58467	-2
0.58833	-2
0.59200	-2
0.59567	-1
0.59933	-1
0.60300	-1
0.60667	-1
0.61033	-1
0.61400	-1
0.61767	-0
0.62133	0
0.62500	0
0.62867	1
0.63233	1
0.63600	1
0.63967	1
0.64333	1
0.64700	1
0.65067	1
0.65433	1
0.65800	1
0.66167	1
0.66533	1
0.66900	0
0.67267	0
0.67633	0
0.68000	0
0.68367	0
0.68733	0
0.69100	0
0.69467	1
0.69833	1
0.70200	1
0.70567	1
0.70933	0
0.71300	0
0.71667	-0
0.72033	-1
0.72400	-1
0.72767	-2
0.73133	-2
0.73500	-2
0.73867	-2
0.74233	-3
0.74600	-3
0.74967	-3
0.75333	-3
0.75700	-4
0.76067	-4
0.76433	-4
0.76800	-4
0.77167	-4
0.77533	-4
0.77900	-4
0.78267	-4
0.78633	-4
0.79000	-4
0.79367	-4
0.79733	-3
0.80100	-3
0.80467	-3
0.80833	-2
0.81200	-2
0.81567	-2
0.81933	-2
0.82300	-2
0.82667	-1
0.83033	-1
0.83400	-1
0.83767	-1
0.84133	-1
0.84500	-1
0.84867	-1
0.85233	-0
0.85600	0
0.85967	0
0.86333	1
0.86700	1
0.87067	1
0.87433	1
0.87800	1
0.88167	1
0.88533	1
0.88900	1
0.89267	1
0.89633	1
0.90000	1
0.90367	1
0.90733	1
0.91100	1
0.91467	1
0.91833	0
0.92200	0
0.92567	-0
0.92933	0
0.93300	0
0.93667	1
0.94033	1
0.94400	1
0.94767	1
0.95133	1
0.95500	2
0.95867	1
0.96233	1
0.96600	1
0.96967	0
0.97333	0
0.97700	-0
0.98067	-0
0.98433	-1
0.98800	-1
0.99167	-1
0.99533	-2
0.99900	-2
1.00267	-2
1.00633	-2
1.01000	-1
1.01367	-1
1.01733	-1
1.02100	-1
1.02467	-1
1.02833	-1
1.03200	-1
1.03567	-1
1.03933	-2
1.04300	-2
1.04667	-2
1.05033	-2
1.05400	-2
1.05767	-2
1.06133	-2
1.06500	-2
1.06867	-2
1.07233	-2
1.07600	-2
1.07967	-2
1.08333	-2
1.08700	-2
1.09067	-2
1.09433	-1
1.09800	-1
1.10167	-1
1.10533	-1
1.10900	-1
1.11267	-1
1.11633	-1
1.12000	-1
1.12367	-0
1.12733	-0
1.13100	-0
1.13467	0
1.13833	-0
1.14200	-0
1.14567	-0
1.14933	-0
1.15300	-0
1.15667	-0
1.16033	-0
1.16400	-0
1.16767	-0
1.17133	-0
1.17500	-0
1.17867	-0
1.18233	0
1.18600	0
1.18967	0
1.19333	0
1.19700	0
1.20067	-0
1.20433	-1
1.20800	-1
1.21167	-1
1.21533	-1
1.21900	-1
1.22267	-1
1.22633	-1
1.23000	-1
1.23367	-2
1.23733	-2
1.24100	-2
1.24467	-2
1.24833	-2
1.25200	-2
1.25567	-2
1.25933	-1
1.26300	-1
1.26667	-1
1.27033	-0
1.27400	-0
1.27767	-0
1.28133	-0
1.28500	-1
1.28867	-1
1.29233	-1
1.29600	-1
1.29967	-1
1.30333	-1
1.30700	-2
1.31067	-2
1.31433	-2
1.31800	-2
1.32167	-2
1.32533	-2
1.32900	-2
1.33267	-2
1.33633	-2
1.34000	-3
1.34367	-3
1.34733	-3
1.35100	-3
1.35467	-3
1.35833	-3
1.36200	-3
1.36567	-3
1.36933	-3
1.37300	-3
1.37667	-3
1.38033	-3
1.38400	-4
1.38767	-4
1.39133	-4
1.39500	-4
1.39867	-4
1.40233	-4
1.40600	-4
1.40967	-3
1.41333	-3
1.41700	-3
1.42067	-3
1.42433	-2
1.42800	-2
1.43167	-2
1.43533	-2
1.43900	-2
1.44267	-2
1.44633	-1
1.45000	-1
1.45367	-1
1.45733	-1
1.46100	-1
1.46467	-0
1.46833	-0
1.47200	-0
1.47567	-0
1.47933	-1
1.48300	-1
1.48667	-1
1.49033	-1
1.49400	-1
1.49767	-1
1.50133	-1
1.50500	-1
1.50867	-0
1.51233	-1
1.51600	-1
1.51967	-1
1.52333	-1
1.52700	-1
1.53067	-1
1.53433	-1
1.53800	-1
1.54167	-1
1.54533	-2
1.54900	-2
1.55267	-2
1.55633	-2
1.56000	-2
1.56367	-2
1.56733	-2
1.57100	-2
1.57467	-2
1.57833	-2
1.58200	-2
1.58567	-2
1.58933	-3
1.59300	-3
1.59667	-3
1.60033	-4
1.60400	-5
1.60767	-7
1.61133	-8
1.61500	-10
1.61867	-12
1.62233	-15
1.62600	-18
1.62967	-21
1.63333	-24
1.63700	-27
1.64067	-30
1.64433	-34
1.64800	-37
1.65167	-41
1.65533	-44
1.65900	-48
1.66267	-52
1.66633	-56
1.67000	-60
1.67367	-65
1.67733	-70
1.68100	-74
1.68467	-78
1.68833	-82
1.69200	-86
1.69567	-88
1.69933	-91
1.70300	-93
1.70667	-94
1.71033	-96
1.71400	-97
1.71767	-99
1.72133	-99
1.72500	-100
1.72867	-100
1.73233	-101
1.73600	-101
1.73967	-100
1.74333	-100
1.74700	-100
1.75067	-99
1.75433	-99
1.75800	-99
1.76167	-99
1.76533	-100
1.76900	-101
1.77267	-102
1.77633	-103
1.78000	-103
1.78367	-104
1.78733	-104
1.79100	-105
1.79467	-105
1.79833	-105
1.80200	-105
1.80567	-105
1.80933	-105
1.81300	-105
1.81667	-105
1.82033	-105
1.82400	-105
1.82767	-105
1.83133	-105
1.83500	-105
1.83867	-105
1.84233	-105
1.84600	-105
1.84967	-105
1.85333	-105
1.85700	-105
1.86067	-105
1.86433	-105
1.86800	-105
1.87167	-105
1.87533	-105
1.87900	-106
1.88267	-106
1.88633	-107
1.89000	-107
1.89367	-107
1.89733	-107
1.90100	-106
1.90467	-106
1.90833	-106
1.91200	-105
1.91567	-104
1.91933	-103
1.92300	-102
1.92667	-102
1.93033	-102
1.93400	-102
1.93767	-102
1.94133	-102
1.94500	-101
1.94867	-100
1.95233	-100
1.95600	-99
1.95967	-99
1.96333	-99
1.96700	-99
1.97067	-99
1.97433	-98
1.97800	-98
1.98167	-98
1.98533	-98
1.98900	-98
1.99267	-98
1.99633	-98
2.00000	-98
2.00367	-98
2.00733	-98
2.01100	-98
2.01467	-98
2.01833	-98
2.02200	-97
2.02567	-96
2.02933	-95
2.03300	-95
2.03667	-94
2.04033	-94
2.04400	-93
2.04767	-93
2.05133	-93
2.05500	-92
2.05867	-92
2.06233	-92
2.06600	-92
2.06967	-92
2.07333	-93
2.07700	-93
2.08067	-92
2.08433	-92
2.08800	-91
2.09167	-91
2.09533	-90
2.09900	-90
2.10267	-89
2.10633	-88
2.11000	-88
2.11367	-87
2.11733	-87
2.12100	-87
2.12467	-87
2.12833	-87
2.13200	-88
2.13567	-87
2.13933	-87
2.14300	-87
2.14667	-86
2.15033	-86
2.15400	-86
2.15767	-86
2.16133	-85
2.16500	-85
2.16867	-85
2.17233	-84
2.17600	-84
2.17967	-84
2.18333	-84
2.18700	-84
2.19067	-84
2.19433	-84
2.19800	-83
2.20167	-83
2.20533	-82
2.20900	-82
2.21267	-81
2.21633	-81
2.22000	-80
2.22367	-80
2.22733	-80
2.23100	-80
2.23467	-79
2.23833	-79
2.24200	-79
2.24567	-78
2.24933	-78
2.25300	-78
2.25667	-78
2.26033	-77
2.26400	-77
2.26767	-77
2.27133	-77
2.27500	-76
2.27867	-76
2.28233	-76
2.28600	-76
2.28967	-76
2.29333	-75
2.29700	-75
2.30067	-75
2.30433	-74
2.30800	-74
2.31167	-74
2.31533	-73
2.31900	-73
2.32267	-74
2.32633	-74
2.33000	-75
2.33367	-75
2.33733	-76
2.34100	-75
2.34467	-75
2.34833	-74
2.35200	-73
2.35567	-71
2.35933	-70
2.36300	-68
2.36667	-65
2.37033	-62
2.37400	-59
2.37767	-56
2.38133	-52
2.38500	-48
2.38867	-44
2.39233	-40
2.39600	-35
2.39967	-31
2.40333	-27
2.40700	-23
2.41067	-19
2.41433	-16
2.41800	-13
2.42167	-10
2.42533	-7
2.42900	-5
2.43267	-3
2.43633	-2
2.44000	-0
2.44367	1
2.44733	2
2.45100	3
2.45467	4
2.45833	5
2.46200	7
2.46567	8
2.46933	9
2.47300	9
2.47667	10
2.48033	10
2.48400	11
2.48767	11
2.49133	12
2.49500	12
2.49867	13
2.50233	13
2.50600	13
2.50967	13
2.51333	13
2.51700	12
2.52067	12
2.52433	12
2.52800	11
2.53167	11
2.53533	10
2.53900	10
2.54267	9
2.54633	10
2.55000	10
2.55367	11
2.55733	11
2.56100	12
2.56467	13
2.56833	13
2.57200	14
2.57567	14
2.57933	15
2.58300	15
2.58667	16
2.59033	16
2.59400	17
2.59767	17
2.60133	17
2.60500	17
2.60867	17
2.61233	16
2.61600	16
2.61967	16
2.62333	16
2.62700	16
2.63067	16
2.63433	16
2.63800	15
2.64167	15
2.64533	15
2.64900	15
2.65267	16
2.65633	16
2.66000	17
2.66367	17
2.66733	18
2.67100	19
2.67467	19
2.67833	19
2.68200	20
2.68567	20
2.68933	20
2.69300	21
2.69667	21
2.70033	22
2.70400	22
2.70767	23
2.71133	24
2.71500	24
2.71867	25
2.72233	26
2.72600	26
2.72967	27
2.73333	27
2.73700	27
2.74067	26
2.74433	26
2.74800	26
2.75167	26
2.75533	26
2.75900	27
2.76267	27
2.76633	28
2.77000	28
2.77367	28
2.77733	29
2.78100	29
2.78467	29
2.78833	29
2.79200	29
2.79567	29
2.79933	29
2.80300	29
2.80667	28
2.81033	28
2.81400	28
2.81767	27
2.82133	26
2.82500	26
2.82867	25
2.83233	25
2.83600	25
2.83967	25
2.84333	25
2.84700	25
2.85067	25
2.85433	25
2.85800	24
2.86167	23
2.86533	20
2.86900	15
2.87267	7
2.87633	-5
2.88000	-22
2.88367	-43
2.88733	-70
2.89100	-102
2.89467	-139
2.89833	-181
2.90200	-227
2.90567	-277
2.90933	-331
2.91300	-388
2.91667	-447
2.92033	-508
2.92400	-570
2.92767	-631
2.93133	-692
2.93500	-752
2.93867	-808
2.94233	-862
2.94600	-914
2.94967	-968
2.95333	-1024
2.95700	-1072
2.96067	-1104
2.96433	-1112
2.96800	-1095
2.97167	-1054
2.97533	-995
2.97900	-924
2.98267	-845
2.98633	-764
2.99000	-683
2.99367	-606
2.99733	-533
3.00100	-466
3.00467	-405
3.00833	-350
3.01200	-302
3.01567	-259
3.01933	-221
3.02300	-189
3.02667	-160
3.03033	-135
3.03400	-114
3.03767	-95
3.04133	-79
3.04500	-66
3.04867	-54
3.05233	-44
3.05600	-35
3.05967	-28
3.06333	-22
3.06700	-16
3.07067	-12
3.07433	-8
3.07800	-4
3.08167	-1
3.08533	2
3.08900	5
3.09267	7
3.09633	8
3.10000	10
3.10367	11
3.10733	12
3.11100	13
3.11467	14
3.11833	14
3.12200	15
3.12567	16
3.12933	16
3.13300	17
3.13667	18
3.14033	18
3.14400	18
3.14767	19
3.15133	19
3.15500	19
3.15867	19
3.16233	19
3.16600	19
3.16967	19
3.17333	20
3.17700	20
3.18067	20
3.18433	20
3.18800	21
3.19167	21
3.19533	21
3.19900	21
3.20267	21
3.20633	21
3.21000	21
3.21367	22
3.21733	22
3.22100	22
3.22467	22
3.22833	22
3.23200	22
3.23567	22
3.23933	22
3.24300	23
3.24667	23
3.25033	23
3.25400	23
3.25767	23
3.26133	23
3.26500	23
3.26867	23
3.27233	23
3.27600	24
3.27967	24
3.28333	24
3.28700	24
3.29067	24
3.29433	24
3.29800	25
3.30167	25
3.30533	25
3.30900	25
3.31267	25
3.31633	25
3.32000	25
3.32367	25
3.32733	24
3.33100	24
3.33467	24
3.33833	24
3.34200	24
3.34567	24
3.34933	24
3.35300	24
3.35667	24
3.36033	24
3.36400	24
3.36767	25
3.37133	25
3.37500	25
3.37867	25
3.38233	25
3.38600	25
3.38967	26
3.39333	26
3.39700	26
3.40067	26
3.40433	26
3.40800	26
3.41167	26
3.41533	26
3.41900	26
3.42267	26
3.42633	26
3.43000	26
3.43367	26
3.43733	26
3.44100	26
3.44467	26
3.44833	26
3.45200	26
3.45567	26
3.45933	27
3.46300	27
3.46667	27
3.47033	27
3.47400	28
3.47767	28
3.48133	28
3.48500	28
3.48867	28
3.49233	28
3.49600	28
3.49967	28
3.50333	28
3.50700	28
3.51067	28
3.51433	28
3.51800	28
3.52167	28
3.52533	28
3.52900	28
3.53267	28
3.53633	28
3.54000	28
3.54367	28
3.54733	28
3.55100	28
3.55467	28
3.55833	27
3.56200	27
3.56567	27
3.56933	27
3.57300	27
3.57667	27
3.58033	27
3.58400	27
3.58767	27
3.59133	28
3.59500	28
3.59867	28
3.60233	28
3.60600	27
3.60967	27
3.61333	27
3.61700	27
3.62067	27
3.62433	27
3.62800	27
3.63167	27
3.63533	27
3.63900	27
3.64267	27
3.64633	27
3.65000	27
3.65367	27
3.65733	27
3.66100	27
3.66467	27
3.66833	27
3.67200	27
3.67567	27
3.67933	27
3.68300	28
3.68667	28
3.69033	28
3.69400	29
3.69767	29
3.70133	29
3.70500	29
3.70867	30
3.71233	30
3.71600	30
3.71967	30
3.72333	29
3.72700	29
3.73067	29
3.73433	29
3.73800	29
3.74167	29
3.74533	29
3.74900	29
3.75267	29
3.75633	29
3.76000	29
3.76367	29
3.76733	29
3.77100	29
3.77467	29
3.77833	28
3.78200	28
3.78567	28
3.78933	28
3.79300	28
3.79667	28
3.80033	29
3.80400	29
3.80767	29
3.81133	29
3.81500	29
3.81867	29
3.82233	29
3.82600	29
3.82967	29
3.83333	28
3.83700	28
3.84067	28
3.84433	28
3.84800	28
3.85167	28
3.85533	28
3.85900	28
3.86267	27
3.86633	27
3.87000	27
3.87367	27
3.87733	27
3.88100	27
3.88467	28
3.88833	28
3.89200	28
3.89567	28
3.89933	28
3.90300	27
3.90667	27
3.91033	27
3.91400	27
3.91767	27
3.92133	27
3.92500	27
3.92867	27
3.93233	27
3.93600	27
3.93967	27
3.94333	27
3.94700	28
3.95067	28
3.95433	28
3.95800	28
3.96167	28
3.96533	28
3.96900	28
3.97267	28
3.97633	28
3.98000	28
3.98367	28
3.98733	28
3.99100	28
3.99467	28
3.99833	28

[Chromatogram (Ch3)]
Interval(msec)	220
# of Points	1091
Start Time(min)	0.002
End Time(min)	3.998
R.Time (min)	Intensity
0.00167	0
0.00533	0
0.00900	1
0.01267	-0
0.01633	-1
0.02000	-3
0.02367	-4
0.02733	-6
0.03100	-6
0.03467	-8
0.03833	-10
0.04200	-10
0.04567	-6
0.04933	-4
0.05300	-2
0.05667	-3
0.06033	-3
0.06400	-4
0.06767	-3
0.07133	-1
0.07500	1
0.07867	1
0.08233	2
0.08600	1
0.08967	3
0.09333	2
0.09700	2
0.10067	-0
0.10433	-1
0.10800	-2
0.11167	-3
0.11533	-4
0.11900	-5
0.12267	-3
0.12633	-4
0.13000	-4
0.13367	-3
0.13733	-2
0.14100	-3
0.14467	-2
0.14833	-1
0.15200	-1
0.15567	-2
0.15933	-2
0.16300	-2
0.16667	-2
0.17033	-2
0.17400	-1
0.17767	-0
0.18133	1
0.18500	-0
0.18867	-1
0.19233	-2
0.19600	-3
0.19967	-1
0.20333	1
0.20700	-1
0.21067	-3
0.21433	-3
0.21800	-3
0.22167	-2
0.22533	-1
0.22900	-0
0.23267	-0
0.23633	0
0.24000	-0
0.24367	-2
0.24733	-2
0.25100	-2
0.25467	-2
0.25833	-2
0.26200	-2
0.26567	-1
0.26933	-1
0.27300	1
0.27667	2
0.28033	2
0.28400	2
0.28767	2
0.29133	2
0.29500	1
0.29867	3
0.30233	5
0.30600	5
0.30967	5
0.31333	4
0.31700	4
0.32067	3
0.32433	3
0.32800	3
0.33167	3
0.33533	5
0.33900	7
0.34267	8
0.34633	8
0.35000	6
0.35367	5
0.35733	4
0.36100	4
0.36467	3
0.36833	1
0.37200	1
0.37567	1
0.37933	1
0.38300	1
0.38667	1
0.39033	1
0.39400	0
0.39767	-1
0.40133	1
0.40500	5
0.40867	7
0.41233	8
0.41600	8
0.41967	10
0.42333	10
0.42700	11
0.43067	11
0.43433	11
0.43800	11
0.44167	9
0.44533	8
0.44900	6
0.45267	3
0.45633	1
0.46000	2
0.46367	4
0.46733	3
0.47100	5
0.47467	7
0.47833	7
0.48200	6
0.48567	6
0.48933	6
0.49300	7
0.49667	8
0.50033	9
0.50400	8
0.50767	7
0.51133	6
0.51500	7
0.51867	7
0.52233	7
0.52600	8
0.52967	7
0.53333	6
0.53700	4
0.54067	4
0.54433	6
0.54800	8
0.55167	8
0.55533	8
0.55900	6
0.56267	6
0.56633	6
0.57000	7
0.57367	7
0.57733	7
0.58100	7
0.58467	7
0.58833	5
0.59200	5
0.59567	5
0.59933	6
0.60300	6
0.60667	7
0.61033	8
0.61400	7
0.61767	6
0.62133	6
0.62500	7
0.62867	10
0.63233	12
0.63600	13
0.63967	12
0.64333	10
0.64700	9
0.65067	10
0.65433	11
0.65800	10
0.66167	9
0.66533	8
0.66900	9
0.67267	7
0.67633	6
0.68000	7
0.68367	10
0.68733	11
0.69100	11
0.69467	11
0.69833	11
0.70200	14
0.70567	13
0.70933	9
0.71300	9
0.71667	9
0.72033	7
0.72400	8
0.72767	9
0.73133	9
0.73500	9
0.73867	8
0.74233	7
0.74600	9
0.74967	9
0.75333	9
0.75700	10
0.76067	10
0.76433	12
0.76800	14
0.77167	14
0.77533	12
0.77900	10
0.78267	9
0.78633	9
0.79000	9
0.79367	11
0.79733	15
0.80100	20
0.80467	21
0.80833	19
0.81200	18
0.81567	16
0.81933	15
0.82300	15
0.82667	12
0.83033	10
0.83400	10
0.83767	13
0.84133	14
0.84500	15
0.84867	16
0.85233	16
0.85600	14
0.85967	12
0.86333	12
0.86700	11
0.87067	9
0.87433	8
0.87800	6
0.88167	6
0.88533	8
0.88900	9
0.89267	10
0.89633	12
0.90000	14
0.90367	14
0.90733	14
0.91100	15
0.91467	14
0.91833	13
0.92200	15
0.92567	20
0.92933	22
0.93300	20
0.93667	18
0.94033	16
0.94400	15
0.94767	14
0.95133	15
0.95500	15
0.95867	15
0.96233	16
0.96600	15
0.96967	15
0.97333	14
0.97700	14
0.98067	15
0.98433	17
0.98800	16
0.99167	15
0.99533	16
0.99900	15
1.00267	14
1.00633	14
1.01000	13
1.01367	13
1.01733	13
1.02100	11
1.02467	9
1.02833	9
1.03200	11
1.03567	12
1.03933	11
1.04300	12
1.04667	13
1.05033	15
1.05400	14
1.05767	13
1.06133	14
1.06500	14
1.06867	17
1.07233	18
1.07600	18
1.07967	18
1.08333	16
1.08700	13
1.09067	12
1.09433	12
1.09800	12
1.10167	13
1.10533	13
1.10900	15
1.11267	16
1.11633	15
1.12000	14
1.12367	13
1.12733	14
1.13100	14
1.13467	15
1.13833	16
1.14200	17
1.14567	19
1.14933	19
1.15300	17
1.15667	16
1.16033	17
1.16400	19
1.16767	21
1.17133	21
1.17500	20
1.17867	18
1.18233	18
1.18600	19
1.18967	19
1.19333	19
1.19700	21
1.20067	19
1.20433	16
1.20800	15
1.21167	14
1.21533	12
1.21900	13
1.22267	13
1.22633	13
1.23000	13
1.23367	13
1.23733	12
1.24100	12
1.24467	13
1.24833	15
1.25200	16
1.25567	15
1.25933	15
1.26300	15
1.26667	15
1.27033	16
1.27400	17
1.27767	18
1.28133	19
1.28500	18
1.28867	17
1.29233	15
1.29600	14
1.29967	14
1.30333	16
1.30700	18
1.31067	18
1.31433	18
1.31800	19
1.32167	18
1.32533	16
1.32900	13
1.33267	12
1.33633	13
1.34000	12
1.34367	12
1.34733	14
1.35100	16
1.35467	18
1.35833	19
1.36200	18
1.36567	18
1.36933	19
1.37300	20
1.37667	19
1.38033	19
1.38400	17
1.38767	15
1.39133	16
1.39500	15
1.39867	13
1.40233	13
1.40600	12
1.40967	11
1.41333	12
1.41700	13
1.42067	15
1.42433	16
1.42800	16
1.43167	15
1.43533	16
1.43900	16
1.44267	14
1.44633	14
1.45000	14
1.45367	15
1.45733	16
1.46100	17
1.46467	17
1.46833	16
1.47200	14
1.47567	13
1.47933	13
1.48300	15
1.48667	16
1.49033	16
1.49400	17
1.49767	17
1.50133	17
1.50500	17
1.50867	18
1.51233	19
1.51600	19
1.51967	17
1.52333	15
1.52700	15
1.53067	16
1.53433	17
1.53800	18
1.54167	17
1.54533	16
1.54900	16
1.55267	17
1.55633	16
1.56000	14
1.56367	12
1.56733	11
1.57100	13
1.57467	15
1.57833	17
1.58200	16
1.58567	15
1.58933	14
1.59300	15
1.59667	15
1.60033	15
1.60400	15
1.60767	14
1.61133	12
1.61500	12
1.61867	13
1.62233	13
1.62600	15
1.62967	16
1.63333	14
1.63700	11
1.64067	11
1.64433	13
1.64800	14
1.65167	15
1.65533	17
1.65900	19
1.66267	21
1.66633	24
1.67000	25
1.67367	24
1.67733	21
1.68100	19
1.68467	20
1.68833	22
1.69200	23
1.69567	25
1.69933	28
1.70300	29
1.70667	29
1.71033	30
1.71400	32
1.71767	33
1.72133	33
1.72500	31
1.72867	29
1.73233	29
1.73600	30
1.73967	29
1.74333	32
1.74700	34
1.75067	34
1.75433	32
1.75800	31
1.76167	28
1.76533	25
1.76900	26
1.77267	29
1.77633	33
1.78000	37
1.78367	38
1.78733	40
1.79100	41
1.79467	41
1.79833	39
1.80200	38
1.80567	35
1.80933	35
1.81300	35
1.81667	35
1.82033	37
1.82400	39
1.82767	41
1.83133	43
1.83500	44
1.83867	46
1.84233	45
1.84600	43
1.84967	42
1.85333	42
1.85700	43
1.86067	44
1.86433	44
1.86800	46
1.87167	46
1.87533	46
1.87900	46
1.88267	47
1.88633	48
1.89000	49
1.89367	50
1.89733	50
1.90100	52
1.90467	54
1.90833	55
1.91200	55
1.91567	54
1.91933	55
1.92300	54
1.92667	55
1.93033	58
1.93400	59
1.93767	60
1.94133	60
1.94500	60
1.94867	61
1.95233	60
1.95600	60
1.95967	61
1.96333	63
1.96700	65
1.97067	67
1.97433	67
1.97800	67
1.98167	66
1.98533	65
1.98900	67
1.99267	68
1.99633	70
2.00000	71
2.00367	71
2.00733	73
2.01100	75
2.01467	77
2.01833	78
2.02200	79
2.02567	79
2.02933	77
2.03300	78
2.03667	79
2.04033	79
2.04400	81
2.04767	81
2.05133	82
2.05500	82
2.05867	81
2.06233	81
2.06600	82
2.06967	82
2.07333	82
2.07700	84
2.08067	84
2.08433	85
2.08800	87
2.09167	88
2.09533	89
2.09900	90
2.10267	92
2.10633	95
2.11000	98
2.11367	100
2.11733	99
2.12100	100
2.12467	101
2.12833	102
2.13200	103
2.13567	103
2.13933	102
2.14300	102
2.14667	103
2.15033	105
2.15400	105
2.15767	102
2.16133	101
2.16500	102
2.16867	104
2.17233	108
2.17600	109
2.17967	111
2.18333	114
2.18700	116
2.19067	116
2.19433	114
2.19800	114
2.20167	115
2.20533	116
2.20900	118
2.21267	118
2.21633	117
2.22000	117
2.22367	118
2.22733	119
2.23100	120
2.23467	123
2.23833	124
2.24200	125
2.24567	126
2.24933	124
2.25300	124
2.25667	124
2.26033	123
2.26400	124
2.26767	126
2.27133	128
2.27500	130
2.27867	131
2.28233	132
2.28600	132
2.28967	133
2.29333	134
2.29700	136
2.30067	137
2.30433	138
2.30800	139
2.31167	142
2.31533	144
2.31900	144
2.32267	142
2.32633	141
2.33000	141
2.33367	144
2.33733	145
2.34100	145
2.34467	145
2.34833	144
2.35200	145
2.35567	145
2.35933	147
2.36300	148
2.36667	149
2.37033	150
2.37400	150
2.37767	149
2.38133	147
2.38500	145
2.38867	143
2.39233	141
2.39600	142
2.39967	145
2.40333	145
2.40700	148
2.41067	151
2.41433	152
2.41800	151
2.42167	150
2.42533	147
2.42900	144
2.43267	144
2.43633	143
2.44000	145
2.44367	182
2.44733	254
2.45100	324
2.45467	373
2.45833	388
2.46200	380
2.46567	365
2.46933	352
2.47300	340
2.47667	322
2.48033	298
2.48400	270
2.48767	241
2.49133	215
2.49500	196
2.49867	187
2.50233	184
2.50600	185
2.50967	191
2.51333	200
2.51700	207
2.52067	210
2.52433	204
2.52800	192
2.53167	178
2.53533	162
2.53900	148
2.54267	135
2.54633	125
2.55000	118
2.55367	115
2.55733	114
2.56100	112
2.56467	111
2.56833	112
2.57200	113
2.57567	113
2.57933	114
2.58300	116
2.58667	119
2.59033	124
2.59400	129
2.59767	137
2.60133	143
2.60500	149
2.60867	156
2.61233	159
2.61600	162
2.61967	162
2.62333	158
2.62700	152
2.63067	145
2.63433	137
2.63800	129
2.64167	118
2.64533	107
2.64900	99
2.65267	89
2.65633	80
2.66000	72
2.66367	67
2.66733	64
2.67100	62
2.67467	62
2.67833	61
2.68200	61
2.68567	60
2.68933	58
2.69300	58
2.69667	57
2.70033	57
2.70400	59
2.70767	61
2.71133	64
2.71500	65
2.71867	68
2.72233	68
2.72600	69
2.72967	70
2.73333	69
2.73700	68
2.74067	70
2.74433	73
2.74800	76
2.75167	79
2.75533	81
2.75900	83
2.76267	84
2.76633	85
2.77000	86
2.77367	90
2.77733	94
2.78100	99
2.78467	101
2.78833	104
2.79200	105
2.79567	105
2.79933	108
2.80300	113
2.80667	119
2.81033	123
2.81400	124
2.81767	122
2.82133	123
2.82500	126
2.82867	129
2.83233	132
2.83600	141
2.83967	165
2.84333	220
2.84700	324
2.85067	497
2.85433	759
2.85800	1120
2.86167	1577
2.86533	2107
2.86900	2676
2.87267	3238
2.87633	3744
2.88000	4145
2.88367	4416
2.88733	4556
2.89100	4572
2.89467	4470
2.89833	4264
2.90200	3994
2.90567	3700
2.90933	3401
2.91300	3112
2.91667	2839
2.92033	2586
2.92400	2354
2.92767	2144
2.93133	1957
2.93500	1790
2.93867	1639
2.94233	1505
2.94600	1387
2.94967	1283
2.95333	1193
2.95700	1115
2.96067	1047
2.96433	986
2.96800	934
2.97167	888
2.97533	848
2.97900	816
2.98267	788
2.98633	762
2.99000	739
2.99367	721
2.99733	705
3.00100	695
3.00467	687
3.00833	678
3.01200	668
3.01567	661
3.01933	657
3.02300	654
3.02667	650
3.03033	647
3.03400	643
3.03767	639
3.04133	635
3.04500	631
3.04867	630
3.05233	631
3.05600	633
3.05967	630
3.06333	626
3.06700	625
3.07067	625
3.07433	624
3.07800	622
3.08167	622
3.08533	624
3.08900	626
3.09267	624
3.09633	622
3.10000	622
3.10367	626
3.10733	629
3.11100	630
3.11467	630
3.11833	630
3.12200	630
3.12567	632
3.12933	636
3.13300	638
3.13667	642
3.14033	646
3.14400	648
3.14767	651
3.15133	652
3.15500	652
3.15867	654
3.16233	656
3.16600	658
3.16967	660
3.17333	660
3.17700	659
3.18067	660
3.18433	661
3.18800	661
3.19167	662
3.19533	662
3.19900	662
3.20267	662
3.20633	661
3.21000	662
3.21367	661
3.21733	660
3.22100	661
3.22467	660
3.22833	660
3.23200	660
3.23567	661
3.23933	661
3.24300	659
3.24667	657
3.25033	655
3.25400	651
3.25767	648
3.26133	647
3.26500	648
3.26867	648
3.27233	647
3.27600	644
3.27967	642
3.28333	639
3.28700	637
3.29067	635
3.29433	632
3.29800	632
3.30167	630
3.30533	626
3.30900	625
3.31267	625
3.31633	626
3.32000	625
3.32367	623
3.32733	621
3.33100	620
3.33467	617
3.33833	614
3.34200	610
3.34567	608
3.34933	608
3.35300	607
3.35667	602
3.36033	599
3.36400	596
3.36767	592
3.37133	588
3.37500	586
3.37867	582
3.38233	579
3.38600	578
3.38967	577
3.39333	579
3.39700	580
3.40067	578
3.40433	576
3.40800	572
3.41167	570
3.41533	567
3.41900	563
3.42267	559
3.42633	558
3.43000	556
3.43367	551
3.43733	546
3.44100	543
3.44467	542
3.44833	543
3.45200	545
3.45567	544
3.45933	541
3.46300	538
3.46667	535
3.47033	535
3.47400	533
3.47767	530
3.48133	529
3.48500	526
3.48867	523
3.49233	520
3.49600	519
3.49967	518
3.50333	517
3.50700	515
3.51067	513
3.51433	512
3.51800	511
3.52167	510
3.52533	508
3.52900	506
3.53267	502
3.53633	500
3.54000	498
3.54367	496
3.54733	495
3.55100	494
3.55467	491
3.55833	489
3.56200	489
3.56567	488
3.56933	487
3.57300	487
3.57667	485
3.58033	483
3.58400	480
3.58767	478
3.59133	476
3.59500	477
3.59867	476
3.60233	476
3.60600	475
3.60967	473
3.61333	471
3.61700	470
3.62067	468
3.62433	466
3.62800	466
3.63167	464
3.63533	462
3.63900	461
3.64267	461
3.64633	461
3.65000	460
3.65367	459
3.65733	459
3.66100	459
3.66467	457
3.66833	456
3.67200	454
3.67567	451
3.67933	446
3.68300	445
3.68667	444
3.69033	441
3.69400	438
3.69767	438
3.70133	438
3.70500	437
3.70867	438
3.71233	439
3.71600	440
3.71967	441
3.72333	441
3.72700	440
3.73067	436
3.73433	433
3.73800	433
3.74167	434
3.74533	431
3.74900	429
3.75267	428
3.75633	429
3.76000	428
3.76367	429
3.76733	427
3.77100	424
3.77467	424
3.77833	423
3.78200	424
3.78567	422
3.78933	420
3.79300	421
3.79667	421
3.80033	421
3.80400	420
3.80767	420
3.81133	420
3.81500	420
3.81867	419
3.82233	419
3.82600	419
3.82967	418
3.83333	416
3.83700	414
3.84067	413
3.84433	412
3.84800	411
3.85167	411
3.85533	411
3.85900	411
3.86267	411
3.86633	410
3.87000	409
3.87367	407
3.87733	404
3.88100	404
3.88467	402
3.88833	401
3.89200	400
3.89567	399
3.89933	400
3.90300	400
3.90667	399
3.91033	396
3.91400	394
3.91767	394
3.92133	394
3.92500	392
3.92867	390
3.93233	388
3.93600	388
3.93967	389
3.94333	390
3.94700	388
3.95067	385
3.95433	385
3.95800	385
3.96167	386
3.96533	384
3.96900	383
3.97267	384
3.97633	384
3.98000	381
3.98367	379
3.98733	380
3.99100	378
3.99467	373
3.99833	371

[Status Trace (Column Oven Temperature)]
Interval(msec)	1000
# of Points	240
Start Time(min)	0.002
End Time(min)	3.986
Intensity Units	
Intensity Multiplier	1
R.Time (min)	Intensity
0.00248	35.03
0.01915	35.03
0.03582	35.04
0.05248	35.04
0.06915	35.04
0.08582	35.04
0.10248	35.05
0.11915	35.07
0.13582	35.09
0.15248	35.11
0.16915	35.12
0.18582	35.12
0.20248	35.10
0.21915	35.08
0.23582	35.06
0.25248	35.05
0.26915	35.04
0.28582	35.03
0.30248	35.03
0.31915	35.02
0.33582	35.01
0.35248	35.00
0.36915	35.00
0.38582	34.99
0.40248	34.99
0.41915	34.99
0.43582	34.99
0.45248	34.98
0.46915	34.98
0.48582	34.97
0.50248	34.97
0.51915	34.99
0.53582	34.99
0.55248	34.99
0.56915	35.00
0.58582	35.00
0.60248	35.00
0.61915	34.99
0.63582	34.98
0.65248	34.98
0.66915	34.98
0.68582	34.97
0.70248	34.97
0.71915	34.98
0.73582	34.99
0.75248	35.01
0.76915	35.02
0.78582	35.03
0.80248	35.03
0.81915	35.03
0.83582	35.02
0.85248	35.02
0.86915	35.01
0.88582	35.00
0.90248	35.00
0.91915	34.99
0.93582	34.98
0.95248	34.98
0.96915	34.97
0.98582	34.99
1.00248	34.99
1.01915	34.99
1.03582	34.99
1.05248	34.99
1.06915	34.99
1.08582	34.99
1.10248	34.98
1.11915	34.98
1.13582	34.98
1.15248	34.98
1.16915	34.98
1.18582	34.97
1.20248	34.97
1.21915	34.97
1.23582	34.98
1.25248	34.98
1.26915	34.98
1.28582	34.98
1.30248	34.98
1.31915	34.99
1.33582	35.00
1.35248	35.00
1.36915	35.00
1.38582	35.00
1.40248	35.01
1.41915	35.00
1.43582	34.98
1.45248	34.98
1.46915	34.98
1.48582	34.98
1.50248	34.97
1.51915	34.97
1.53582	34.97
1.55248	34.98
1.56915	34.98
1.58582	34.98
1.60248	35.02
1.61915	35.11
1.63582	35.28
1.65248	35.52
1.66915	35.84
1.68582	36.20
1.70248	36.56
1.71915	36.91
1.73582	37.23
1.75248	37.54
1.76915	37.88
1.78582	38.22
1.80248	38.55
1.81915	38.89
1.83582	39.22
1.85248	39.55
1.86915	39.87
1.88582	40.21
1.90248	40.55
1.91915	40.86
1.93582	41.20
1.95248	41.51
1.96915	41.84
1.98582	42.15
2.00248	42.49
2.01915	42.82
2.03582	43.13
2.05248	43.45
2.06915	43.80
2.08582	44.12
2.10248	44.44
2.11915	44.76
2.13582	45.08
2.15248	45.40
2.16915	45.72
2.18582	46.06
2.20248	46.39
2.21915	46.72
2.23582	47.05
2.25248	47.38
2.26915	47.70
2.28582	48.04
2.30248	48.36
2.31915	48.69
2.33582	49.07
2.35248	49.38
2.36915	49.58
2.38582	49.68
2.40248	49.68
2.41915	49.68
2.43582	49.69
2.45248	49.70
2.46915	49.70
2.48582	49.71
2.50248	49.72
2.51915	49.73
2.53582	49.74
2.55248	49.74
2.56915	49.76
2.58582	49.77
2.60248	49.79
2.61915	49.80
2.63582	49.83
2.65248	49.84
2.66915	49.85
2.68582	49.86
2.70248	49.85
2.71915	49.83
2.73582	49.85
2.75248	49.86
2.76915	49.85
2.78582	49.85
2.80248	49.85
2.81915	49.87
2.83582	49.90
2.85248	49.90
2.86915	49.90
2.88582	49.89
2.90248	49.89
2.91915	49.91
2.93582	49.92
2.95248	49.93
2.96915	49.95
2.98582	49.95
3.00248	49.95
3.01915	49.98
3.03582	49.99
3.05248	49.99
3.06915	49.99
3.08582	49.99
3.10248	49.99
3.11915	49.99
3.13582	49.99
3.15248	50.00
3.16915	50.01
3.18582	50.02
3.20248	50.03
3.21915	50.03
3.23582	50.04
3.25248	50.05
3.26915	50.05
3.28582	50.05
3.30248	50.06
3.31915	50.07
3.33582	50.08
3.35248	50.10
3.36915	50.10
3.38582	50.10
3.40248	50.10
3.41915	50.10
3.43582	50.11
3.45248	50.10
3.46915	50.09
3.48582	50.08
3.50248	50.08
3.51915	50.07
3.53582	50.07
3.55248	50.07
3.56915	50.07
3.58582	50.07
3.60248	50.08
3.61915	50.08
3.63582	50.09
3.65248	50.10
3.66915	50.09
3.68582	50.08
3.70248	50.07
3.71915	50.06
3.73582	50.07
3.75248	50.06
3.76915	50.06
3.78582	50.06
3.80248	50.05
3.81915	50.04
3.83582	50.05
3.85248	50.04
3.86915	50.05
3.88582	50.04
3.90248	50.04
3.91915	50.05
3.93582	50.04
3.95248	50.04
3.96915	50.04
3.98582	50.03

[Status Trace (Injection Unit Temperature)]
Interval(msec)	1000
# of Points	240
Start Time(min)	0.002
End Time(min)	3.986
Intensity Units	
Intensity Multiplier	1
R.Time (min)	Intensity
0.00248	99.98
0.01915	99.98
0.03582	99.98
0.05248	99.98
0.06915	99.98
0.08582	99.98
0.10248	99.98
0.11915	99.98
0.13582	99.98
0.15248	99.98
0.16915	99.98
0.18582	99.99
0.20248	99.98
0.21915	99.99
0.23582	99.99
0.25248	99.98
0.26915	99.99
0.28582	99.99
0.30248	99.99
0.31915	99.99
0.33582	99.99
0.35248	99.99
0.36915	99.99
0.38582	99.99
0.40248	99.99
0.41915	99.99
0.43582	99.99
0.45248	99.99
0.46915	99.99
0.48582	99.99
0.50248	99.99
0.51915	99.99
0.53582	99.99
0.55248	99.99
0.56915	99.99
0.58582	99.99
0.60248	99.99
0.61915	99.99
0.63582	99.99
0.65248	99.99
0.66915	99.98
0.68582	99.98
0.70248	99.99
0.71915	99.98
0.73582	99.98
0.75248	99.99
0.76915	99.99
0.78582	99.99
0.80248	99.98
0.81915	99.99
0.83582	99.98
0.85248	99.98
0.86915	99.99
0.88582	99.99
0.90248	99.98
0.91915	99.98
0.93582	99.98
0.95248	99.98
0.96915	99.99
0.98582	99.98
1.00248	99.99
1.01915	99.98
1.03582	99.98
1.05248	99.98
1.06915	99.99
1.08582	99.98
1.10248	99.99
1.11915	99.98
1.13582	99.98
1.15248	99.98
1.16915	99.98
1.18582	99.98
1.20248	99.98
1.21915	99.98
1.23582	99.98
1.25248	99.98
1.26915	99.99
1.28582	99.98
1.30248	99.98
1.31915	99.98
1.33582	99.98
1.35248	99.98
1.36915	99.98
1.38582	99.98
1.40248	99.98
1.41915	99.98
1.43582	99.98
1.45248	99.98
1.46915	99.98
1.48582	99.98
1.50248	99.98
1.51915	99.98
1.53582	99.98
1.55248	99.98
1.56915	99.98
1.58582	99.98
1.60248	99.98
1.61915	99.98
1.63582	99.98
1.65248	99.98
1.66915	99.98
1.68582	99.99
1.70248	99.98
1.71915	99.98
1.73582	99.99
1.75248	99.98
1.76915	99.99
1.78582	99.98
1.80248	99.98
1.81915	99.98
1.83582	99.98
1.85248	99.98
1.86915	99.98
1.88582	99.98
1.90248	99.98
1.91915	99.98
1.93582	99.98
1.95248	99.98
1.96915	99.98
1.98582	99.98
2.00248	99.98
2.01915	99.98
2.03582	99.97
2.05248	99.97
2.06915	99.98
2.08582	99.98
2.10248	99.98
2.11915	99.98
2.13582	99.98
2.15248	99.97
2.16915	99.97
2.18582	99.97
2.20248	99.97
2.21915	99.97
2.23582	99.97
2.25248	99.97
2.26915	99.97
2.28582	99.97
2.30248	99.97
2.31915	99.97
2.33582	99.97
2.35248	99.97
2.36915	99.97
2.38582	99.97
2.40248	99.97
2.41915	99.96
2.43582	99.97
2.45248	99.97
2.46915	99.97
2.48582	99.97
2.50248	99.97
2.51915	99.97
2.53582	99.97
2.55248	99.97
2.56915	99.97
2.58582	99.97
2.60248	99.97
2.61915	99.98
2.63582	99.98
2.65248	99.98
2.66915	99.98
2.68582	99.98
2.70248	99.98
2.71915	99.99
2.73582	99.98
2.75248	99.99
2.76915	99.99
2.78582	99.99
2.80248	99.99
2.81915	99.99
2.83582	99.99
2.85248	99.99
2.86915	100.00
2.88582	100.00
2.90248	100.00
2.91915	100.00
2.93582	100.00
2.95248	100.01
2.96915	100.00
2.98582	100.00
3.00248	100.01
3.01915	100.01
3.03582	100.01
3.05248	100.01
3.06915	100.01
3.08582	100.01
3.10248	100.01
3.11915	100.02
3.13582	100.02
3.15248	100.02
3.16915	100.02
3.18582	100.02
3.20248	100.02
3.21915	100.02
3.23582	100.02
3.25248	100.02
3.26915	100.03
3.28582	100.03
3.30248	100.03
3.31915	100.03
3.33582	100.03
3.35248	100.03
3.36915	100.03
3.38582	100.03
3.40248	100.04
3.41915	100.03
3.43582	100.04
3.45248	100.04
3.46915	100.04
3.48582	100.04
3.50248	100.04
3.51915	100.04
3.53582	100.04
3.55248	100.04
3.56915	100.04
3.58582	100.04
3.60248	100.05
3.61915	100.04
3.63582	100.05
3.65248	100.04
3.66915	100.04
3.68582	100.04
3.70248	100.04
3.71915	100.05
3.73582	100.05
3.75248	100.04
3.76915	100.05
3.78582	100.05
3.80248	100.05
3.81915	100.05
3.83582	100.04
3.85248	100.05
3.86915	100.05
3.88582	100.05
3.90248	100.05
3.91915	100.05
3.93582	100.05
3.95248	100.05
3.96915	100.05
3.98582	100.04

[Status Trace (Carrier Gas Pressure)]
Interval(msec)	1000
# of Points	240
Start Time(min)	0.002
End Time(min)	3.986
Intensity Units	
Intensity Multiplier	1
R.Time (min)	Intensity
0.00248	58.00
0.01915	56.20
0.03582	56.32
0.05248	58.68
0.06915	59.77
0.08582	58.24
0.10248	57.97
0.11915	58.01
0.13582	58.01
0.15248	58.01
0.16915	58.00
0.18582	58.00
0.20248	58.00
0.21915	58.00
0.23582	58.00
0.25248	58.00
0.26915	58.00
0.28582	58.00
0.30248	58.00
0.31915	58.00
0.33582	58.00
0.35248	58.00
0.36915	58.00
0.38582	58.00
0.40248	58.00
0.41915	58.00
0.43582	58.00
0.45248	58.00
0.46915	58.00
0.48582	58.00
0.50248	58.00
0.51915	58.00
0.53582	58.00
0.55248	58.00
0.56915	58.00
0.58582	58.00
0.60248	58.00
0.61915	58.00
0.63582	58.00
0.65248	58.00
0.66915	58.00
0.68582	58.00
0.70248	58.00
0.71915	58.00
0.73582	58.00
0.75248	58.00
0.76915	58.00
0.78582	58.00
0.80248	58.00
0.81915	58.00
0.83582	58.00
0.85248	58.00
0.86915	58.00
0.88582	58.00
0.90248	58.00
0.91915	58.00
0.93582	58.00
0.95248	58.00
0.96915	58.00
0.98582	58.00
1.00248	58.00
1.01915	58.00
1.03582	58.00
1.05248	58.00
1.06915	58.00
1.08582	58.00
1.10248	58.00
1.11915	58.00
1.13582	58.00
1.15248	58.00
1.16915	58.00
1.18582	58.00
1.20248	58.00
1.21915	58.00
1.23582	58.00
1.25248	58.00
1.26915	58.00
1.28582	58.00
1.30248	58.00
1.31915	58.00
1.33582	58.00
1.35248	58.00
1.36915	58.00
1.38582	58.00
1.40248	58.00
1.41915	58.00
1.43582	58.00
1.45248	58.00
1.46915	58.00
1.48582	58.00
1.50248	58.00
1.51915	58.00
1.53582	58.00
1.55248	58.00
1.56915	58.00
1.58582	58.00
1.60248	58.00
1.61915	58.00
1.63582	58.00
1.65248	58.00
1.66915	58.01
1.68582	58.01
1.70248	58.00
1.71915	58.00
1.73582	58.00
1.75248	58.00
1.76915	58.00
1.78582	58.00
1.80248	58.00
1.81915	58.00
1.83582	58.00
1.85248	58.00
1.86915	58.00
1.88582	58.00
1.90248	58.00
1.91915	58.00
1.93582	58.00
1.95248	58.00
1.96915	58.00
1.98582	58.00
2.00248	58.00
2.01915	58.00
2.03582	58.00
2.05248	58.00
2.06915	58.00
2.08582	58.00
2.10248	58.00
2.11915	58.00
2.13582	58.00
2.15248	58.00
2.16915	58.00
2.18582	58.00
2.20248	58.00
2.21915	58.00
2.23582	58.00
2.25248	58.00
2.26915	58.00
2.28582	58.00
2.30248	58.00
2.31915	58.00
2.33582	58.00
2.35248	58.00
2.36915	58.00
2.38582	57.99
2.40248	57.99
2.41915	58.00
2.43582	58.00
2.45248	58.00
2.46915	58.00
2.48582	58.00
2.50248	57.97
2.51915	58.01
2.53582	57.99
2.55248	58.00
2.56915	58.00
2.58582	58.00
2.60248	58.00
2.61915	58.00
2.63582	58.00
2.65248	58.00
2.66915	58.00
2.68582	58.00
2.70248	58.00
2.71915	58.00
2.73582	58.00
2.75248	58.00
2.76915	58.00
2.78582	58.00
2.80248	58.00
2.81915	58.00
2.83582	58.00
2.85248	58.00
2.86915	58.00
2.88582	58.00
2.90248	58.00
2.91915	58.00
2.93582	58.00
2.95248	58.00
2.96915	58.00
2.98582	58.00
3.00248	58.00
3.01915	58.00
3.03582	58.00
3.05248	58.00
3.06915	58.00
3.08582	58.00
3.10248	58.00
3.11915	58.00
3.13582	58.00
3.15248	58.00
3.16915	58.00
3.18582	58.00
3.20248	58.00
3.21915	58.00
3.23582	58.00
3.25248	58.00
3.26915	58.00
3.28582	58.00
3.30248	58.00
3.31915	58.00
3.33582	58.00
3.35248	58.00
3.36915	58.00
3.38582	58.00
3.40248	58.00
3.41915	58.00
3.43582	58.00
3.45248	58.00
3.46915	58.00
3.48582	58.00
3.50248	58.00
3.51915	58.00
3.53582	58.00
3.55248	58.00
3.56915	58.00
3.58582	58.00
3.60248	58.00
3.61915	58.00
3.63582	58.00
3.65248	58.00
3.66915	58.00
3.68582	58.00
3.70248	58.00
3.71915	58.00
3.73582	58.00
3.75248	58.00
3.76915	58.00
3.78582	58.00
3.80248	58.00
3.81915	58.00
3.83582	58.00
3.85248	58.00
3.86915	58.00
3.88582	58.00
3.90248	58.00
3.91915	58.00
3.93582	58.00
3.95248	58.00
3.96915	58.00
3.98582	58.00

[Status Trace (Carrier Gas Flow)]
Interval(msec)	1000
# of Points	240
Start Time(min)	0.002
End Time(min)	3.986
Intensity Units	
Intensity Multiplier	1
R.Time (min)	Intensity
0.00248	34.53
0.01915	34.60
0.03582	34.54
0.05248	34.55
0.06915	34.50
0.08582	34.51
0.10248	34.52
0.11915	34.51
0.13582	34.52
0.15248	34.52
0.16915	34.52
0.18582	34.51
0.20248	34.52
0.21915	34.51
0.23582	34.51
0.25248	34.52
0.26915	34.53
0.28582	34.51
0.30248	34.51
0.31915	34.51
0.33582	34.52
0.35248	34.52
0.36915	34.52
0.38582	34.53
0.40248	34.51
0.41915	34.51
0.43582	34.51
0.45248	34.51
0.46915	34.52
0.48582	34.52
0.50248	34.52
0.51915	34.52
0.53582	34.51
0.55248	34.52
0.56915	34.52
0.58582	34.52
0.60248	34.51
0.61915	34.52
0.63582	34.52
0.65248	34.52
0.66915	34.52
0.68582	34.52
0.70248	34.52
0.71915	34.53
0.73582	34.52
0.75248	34.52
0.76915	34.52
0.78582	34.52
0.80248	34.52
0.81915	34.51
0.83582	34.52
0.85248	34.52
0.86915	34.52
0.88582	34.52
0.90248	34.52
0.91915	34.52
0.93582	34.51
0.95248	34.52
0.96915	34.52
0.98582	34.52
1.00248	34.52
1.01915	34.52
1.03582	34.52
1.05248	34.52
1.06915	34.51
1.08582	34.52
1.10248	34.52
1.11915	34.52
1.13582	34.52
1.15248	34.52
1.16915	34.52
1.18582	34.51
1.20248	34.52
1.21915	34.52
1.23582	34.52
1.25248	34.52
1.26915	34.52
1.28582	34.52
1.30248	34.52
1.31915	34.52
1.33582	34.52
1.35248	34.52
1.36915	34.52
1.38582	34.51
1.40248	34.52
1.41915	34.52
1.43582	34.52
1.45248	34.52
1.46915	34.51
1.48582	34.52
1.50248	34.52
1.51915	34.51
1.53582	34.52
1.55248	34.52
1.56915	34.52
1.58582	34.51
1.60248	34.52
1.61915	34.52
1.63582	34.51
1.65248	34.52
1.66915	34.52
1.68582	34.52
1.70248	34.52
1.71915	34.52
1.73582	34.52
1.75248	34.52
1.76915	34.51
1.78582	34.52
1.80248	34.52
1.81915	34.51
1.83582	34.52
1.85248	34.52
1.86915	34.52
1.88582	34.53
1.90248	34.51
1.91915	34.51
1.93582	34.52
1.95248	34.51
1.96915	34.52
1.98582	34.52
2.00248	34.53
2.01915	34.53
2.03582	34.51
2.05248	34.52
2.06915	34.52
2.08582	34.52
2.10248	34.52
2.11915	34.52
2.13582	34.51
2.15248	34.52
2.16915	34.52
2.18582	34.52
2.20248	34.51
2.21915	34.52
2.23582	34.52
2.25248	34.52
2.26915	34.53
2.28582	34.51
2.30248	34.53
2.31915	34.52
2.33582	34.53
2.35248	34.53
2.36915	34.52
2.38582	34.52
2.40248	34.52
2.41915	34.52
2.43582	34.52
2.45248	34.52
2.46915	34.53
2.48582	34.52
2.50248	34.61
2.51915	34.52
2.53582	34.52
2.55248	34.52
2.56915	34.52
2.58582	34.52
2.60248	34.52
2.61915	34.51
2.63582	34.52
2.65248	34.52
2.66915	34.52
2.68582	34.52
2.70248	34.52
2.71915	34.52
2.73582	34.52
2.75248	34.52
2.76915	34.52
2.78582	34.52
2.80248	34.52
2.81915	34.52
2.83582	34.52
2.85248	34.52
2.86915	34.52
2.88582	34.52
2.90248	34.52
2.91915	34.51
2.93582	34.52
2.95248	34.52
2.96915	34.52
2.98582	34.52
3.00248	34.52
3.01915	34.52
3.03582	34.52
3.05248	34.52
3.06915	34.52
3.08582	34.52
3.10248	34.51
3.11915	34.52
3.13582	34.52
3.15248	34.52
3.16915	34.52
3.18582	34.52
3.20248	34.52
3.21915	34.52
3.23582	34.52
3.25248	34.52
3.26915	34.52
3.28582	34.52
3.30248	34.52
3.31915	34.52
3.33582	34.52
3.35248	34.52
3.36915	34.52
3.38582	34.52
3.40248	34.51
3.41915	34.52
3.43582	34.52
3.45248	34.51
3.46915	34.52
3.48582	34.52
3.50248	34.52
3.51915	34.52
3.53582	34.52
3.55248	34.52
3.56915	34.52
3.58582	34.52
3.60248	34.52
3.61915	34.52
3.63582	34.51
3.65248	34.52
3.66915	34.52
3.68582	34.52
3.70248	34.51
3.71915	34.52
3.73582	34.52
3.75248	34.52
3.76915	34.52
3.78582	34.52
3.80248	34.52
3.81915	34.52
3.83582	34.52
3.85248	34.52
3.86915	34.52
3.88582	34.52
3.90248	34.52
3.91915	34.52
3.93582	34.52
3.95248	34.52
3.96915	34.52
3.98582	34.52

[Status Trace (Column Flow)]
Interval(msec)	1000
# of Points	240
Start Time(min)	0.002
End Time(min)	3.986
Intensity Units	
Intensity Multiplier	1
R.Time (min)	Intensity
0.00248	5.52
0.01915	5.31
0.03582	5.32
0.05248	5.60
0.06915	5.73
0.08582	5.55
0.10248	5.52
0.11915	5.52
0.13582	5.52
0.15248	5.52
0.16915	5.52
0.18582	5.52
0.20248	5.52
0.21915	5.52
0.23582	5.52
0.25248	5.52
0.26915	5.52
0.28582	5.52
0.30248	5.52
0.31915	5.52
0.33582	5.52
0.35248	5.52
0.36915	5.52
0.38582	5.52
0.40248	5.52
0.41915	5.52
0.43582	5.52
0.45248	5.52
0.46915	5.52
0.48582	5.52
0.50248	5.52
0.51915	5.52
0.53582	5.52
0.55248	5.52
0.56915	5.52
0.58582	5.52
0.60248	5.52
0.61915	5.52
0.63582	5.52
0.65248	5.52
0.66915	5.52
0.68582	5.52
0.70248	5.52
0.71915	5.52
0.73582	5.52
0.75248	5.52
0.76915	5.52
0.78582	5.52
0.80248	5.52
0.81915	5.52
0.83582	5.52
0.85248	5.52
0.86915	5.52
0.88582	5.52
0.90248	5.52
0.91915	5.52
0.93582	5.52
0.95248	5.52
0.96915	5.52
0.98582	5.52
1.00248	5.52
1.01915	5.52
1.03582	5.52
1.05248	5.52
1.06915	5.52
1.08582	5.52
1.10248	5.52
1.11915	5.52
1.13582	5.52
1.15248	5.52
1.16915	5.52
1.18582	5.52
1.20248	5.52
1.21915	5.52
1.23582	5.52
1.25248	5.52
1.26915	5.52
1.28582	5.52
1.30248	5.52
1.31915	5.52
1.33582	5.52
1.35248	5.52
1.36915	5.52
1.38582	5.52
1.40248	5.52
1.41915	5.52
1.43582	5.52
1.45248	5.52
1.46915	5.52
1.48582	5.52
1.50248	5.52
1.51915	5.52
1.53582	5.52
1.55248	5.52
1.56915	5.52
1.58582	5.52
1.60248	5.52
1.61915	5.52
1.63582	5.51
1.65248	5.50
1.66915	5.49
1.68582	5.48
1.70248	5.47
1.71915	5.46
1.73582	5.45
1.75248	5.44
1.76915	5.43
1.78582	5.42
1.80248	5.41
1.81915	5.40
1.83582	5.39
1.85248	5.38
1.86915	5.37
1.88582	5.36
1.90248	5.35
1.91915	5.34
1.93582	5.33
1.95248	5.32
1.96915	5.31
1.98582	5.30
2.00248	5.29
2.01915	5.28
2.03582	5.27
2.05248	5.26
2.06915	5.25
2.08582	5.24
2.10248	5.23
2.11915	5.23
2.13582	5.22
2.15248	5.21
2.16915	5.20
2.18582	5.19
2.20248	5.18
2.21915	5.17
2.23582	5.16
2.25248	5.15
2.26915	5.14
2.28582	5.13
2.30248	5.12
2.31915	5.11
2.33582	5.10
2.35248	5.09
2.36915	5.09
2.38582	5.09
2.40248	5.09
2.41915	5.09
2.43582	5.09
2.45248	5.09
2.46915	5.09
2.48582	5.09
2.50248	5.08
2.51915	5.09
2.53582	5.08
2.55248	5.08
2.56915	5.08
2.58582	5.08
2.60248	5.08
2.61915	5.08
2.63582	5.08
2.65248	5.08
2.66915	5.08
2.68582	5.08
2.70248	5.08
2.71915	5.08
2.73582	5.08
2.75248	5.08
2.76915	5.08
2.78582	5.08
2.80248	5.08
2.81915	5.08
2.83582	5.08
2.85248	5.08
2.86915	5.08
2.88582	5.08
2.90248	5.08
2.91915	5.08
2.93582	5.08
2.95248	5.08
2.96915	5.08
2.98582	5.08
3.00248	5.08
3.01915	5.08
3.03582	5.08
3.05248	5.08
3.06915	5.08
3.08582	5.08
3.10248	5.08
3.11915	5.08
3.13582	5.08
3.15248	5.08
3.16915	5.08
3.18582	5.08
3.20248	5.08
3.21915	5.08
3.23582	5.08
3.25248	5.08
3.26915	5.08
3.28582	5.08
3.30248	5.08
3.31915	5.08
3.33582	5.08
3.35248	5.07
3.36915	5.07
3.38582	5.07
3.40248	5.07
3.41915	5.07
3.43582	5.07
3.45248	5.07
3.46915	5.07
3.48582	5.08
3.50248	5.08
3.51915	5.08
3.53582	5.08
3.55248	5.08
3.56915	5.08
3.58582	5.08
3.60248	5.08
3.61915	5.08
3.63582	5.07
3.65248	5.07
3.66915	5.07
3.68582	5.08
3.70248	5.08
3.71915	5.08
3.73582	5.08
3.75248	5.08
3.76915	5.08
3.78582	5.08
3.80248	5.08
3.81915	5.08
3.83582	5.08
3.85248	5.08
3.86915	5.08
3.88582	5.08
3.90248	5.08
3.91915	5.08
3.93582	5.08
3.95248	5.08
3.96915	5.08
3.98582	5.08

[Status Trace (Linear Velocity)]
Interval(msec)	1000
# of Points	240
Start Time(min)	0.002
End Time(min)	3.986
Intensity Units	
Intensity Multiplier	1
R.Time (min)	Intensity
0.00248	39.01
0.01915	37.83
0.03582	37.91
0.05248	39.46
0.06915	40.17
0.08582	39.17
0.10248	38.99
0.11915	39.01
0.13582	39.01
0.15248	39.01
0.16915	39.01
0.18582	39.01
0.20248	39.01
0.21915	39.01
0.23582	39.01
0.25248	39.01
0.26915	39.01
0.28582	39.01
0.30248	39.01
0.31915	39.02
0.33582	39.02
0.35248	39.01
0.36915	39.02
0.38582	39.02
0.40248	39.02
0.41915	39.02
0.43582	39.02
0.45248	39.02
0.46915	39.02
0.48582	39.02
0.50248	39.02
0.51915	39.02
0.53582	39.02
0.55248	39.02
0.56915	39.02
0.58582	39.02
0.60248	39.02
0.61915	39.02
0.63582	39.02
0.65248	39.02
0.66915	39.02
0.68582	39.02
0.70248	39.02
0.71915	39.02
0.73582	39.02
0.75248	39.02
0.76915	39.01
0.78582	39.01
0.80248	39.01
0.81915	39.01
0.83582	39.01
0.85248	39.01
0.86915	39.02
0.88582	39.02
0.90248	39.02
0.91915	39.02
0.93582	39.02
0.95248	39.02
0.96915	39.02
0.98582	39.02
1.00248	39.02
1.01915	39.02
1.03582	39.02
1.05248	39.02
1.06915	39.02
1.08582	39.02
1.10248	39.02
1.11915	39.02
1.13582	39.02
1.15248	39.02
1.16915	39.02
1.18582	39.02
1.20248	39.02
1.21915	39.02
1.23582	39.02
1.25248	39.02
1.26915	39.02
1.28582	39.02
1.30248	39.02
1.31915	39.02
1.33582	39.02
1.35248	39.02
1.36915	39.02
1.38582	39.02
1.40248	39.02
1.41915	39.02
1.43582	39.02
1.45248	39.02
1.46915	39.02
1.48582	39.02
1.50248	39.02
1.51915	39.02
1.53582	39.02
1.55248	39.02
1.56915	39.02
1.58582	39.02
1.60248	39.02
1.61915	39.01
1.63582	38.99
1.65248	38.97
1.66915	38.94
1.68582	38.90
1.70248	38.87
1.71915	38.83
1.73582	38.80
1.75248	38.77
1.76915	38.74
1.78582	38.71
1.80248	38.68
1.81915	38.65
1.83582	38.61
1.85248	38.58
1.86915	38.55
1.88582	38.52
1.90248	38.49
1.91915	38.46
1.93582	38.43
1.95248	38.40
1.96915	38.37
1.98582	38.34
2.00248	38.31
2.01915	38.28
2.03582	38.25
2.05248	38.22
2.06915	38.19
2.08582	38.16
2.10248	38.13
2.11915	38.10
2.13582	38.07
2.15248	38.04
2.16915	38.01
2.18582	37.98
2.20248	37.95
2.21915	37.92
2.23582	37.89
2.25248	37.87
2.26915	37.84
2.28582	37.81
2.30248	37.78
2.31915	37.75
2.33582	37.72
2.35248	37.69
2.36915	37.67
2.38582	37.66
2.40248	37.66
2.41915	37.66
2.43582	37.66
2.45248	37.66
2.46915	37.66
2.48582	37.66
2.50248	37.64
2.51915	37.66
2.53582	37.65
2.55248	37.66
2.56915	37.65
2.58582	37.65
2.60248	37.65
2.61915	37.65
2.63582	37.65
2.65248	37.65
2.66915	37.64
2.68582	37.64
2.70248	37.64
2.71915	37.65
2.73582	37.65
2.75248	37.65
2.76915	37.64
2.78582	37.65
2.80248	37.65
2.81915	37.64
2.83582	37.64
2.85248	37.64
2.86915	37.64
2.88582	37.64
2.90248	37.64
2.91915	37.64
2.93582	37.64
2.95248	37.64
2.96915	37.64
2.98582	37.64
3.00248	37.64
3.01915	37.63
3.03582	37.63
3.05248	37.63
3.06915	37.63
3.08582	37.63
3.10248	37.63
3.11915	37.63
3.13582	37.63
3.15248	37.63
3.16915	37.63
3.18582	37.63
3.20248	37.63
3.21915	37.63
3.23582	37.63
3.25248	37.63
3.26915	37.63
3.28582	37.63
3.30248	37.63
3.31915	37.63
3.33582	37.62
3.35248	37.62
3.36915	37.62
3.38582	37.62
3.40248	37.62
3.41915	37.62
3.43582	37.62
3.45248	37.62
3.46915	37.62
3.48582	37.62
3.50248	37.63
3.51915	37.63
3.53582	37.63
3.55248	37.63
3.56915	37.63
3.58582	37.63
3.60248	37.63
3.61915	37.63
3.63582	37.62
3.65248	37.62
3.66915	37.62
3.68582	37.62
3.70248	37.63
3.71915	37.63
3.73582	37.63
3.75248	37.63
3.76915	37.63
3.78582	37.63
3.80248	37.63
3.81915	37.63
3.83582	37.63
3.85248	37.63
3.86915	37.63
3.88582	37.63
3.90248	37.63
3.91915	37.63
3.93582	37.63
3.95248	37.63
3.96915	37.63
3.98582	37.63

