[Header]
Application Name	LabSolutions
Version	5.110
Data File Name	C:\Users\User\Desktop\Junior\UIC Prairie Sampling\3.23.23\032323_081.gcd
Output Date	5/24/2023
Output Time	10:27:40 AM

[File Information]
Type	Data File
Generated	5/24/2023 12:41:11 AM
Generated by	System Administrator
Modified	5/24/2023 12:48:05 AM
Modified by	System Administrator

[Sample Information]
Operator Name	System Administrator
Acquired	5/24/2023 12:44:05 AM
Sample Type	0:Unknown
Level	0
Sample Name	081
Sample ID	081
ISTD Amount1	1
ISTD Amount2	1
ISTD Amount3	1
ISTD Amount4	1
ISTD Amount5	1
ISTD Amount6	1
ISTD Amount7	1
ISTD Amount8	1
ISTD Amount9	1
ISTD Amount10	1
ISTD Amount11	1
ISTD Amount12	1
ISTD Amount13	1
ISTD Amount14	1
ISTD Amount15	1
ISTD Amount16	1
ISTD Amount17	1
ISTD Amount18	1
ISTD Amount19	1
ISTD Amount20	1
ISTD Amount21	1
ISTD Amount22	1
ISTD Amount23	1
ISTD Amount24	1
ISTD Amount25	1
ISTD Amount26	1
ISTD Amount27	1
ISTD Amount28	1
ISTD Amount29	1
ISTD Amount30	1
ISTD Amount31	1
ISTD Amount32	1
Sample Amount	1
Dilution Factor	1
Vial#	80
Injection Volume	1
Injection Count	1
Bar Code	

[Original Files]
Data File	C:\Users\User\Desktop\GC Analyses\Jack\Nachusa Grasslands Sampling\20220924\t2\032323_081.gcd
Method File	C:\LabSolutions\Data\GHG_4min_2022\ghg3_togas_w_acet_4 min_new_int.gcm
Batch File	C:\LabSolutions\Data\AutoSamplerTesting\032323.gcb
Report Format File	c:\LabSolutions\System\DEFAULT.lsr

[File Description]


[Configuration]
Instrument Name	C0B7VH3-Instrument1
Instrument #	1
Line #	1
# of Detectors	3
Detector ID	DET#1	DET#2	DET#3
Detector Name	FID	PTCD	ECD
# of Channels	1	1	1

[Peak Table(Ch1)]
# of Peaks	3
Peak#	R.Time	I.Time	F.Time	Area	Height	A/H	Conc.	Mark	ID#	Name	k'	Plate #	Plate Ht.	Tailing	Resolution	Sep.Factor	Area Ratio	Height Ratio	Conc. %	Norm Conc.
1	1.472	1.435	1.531	7244	3508	2.065	0.000	   	1	CO	0.000	9446	15.880	1.310	0.000	0.000	0	0	0.000	0.000
2	1.564	1.531	1.626	4540	2251	2.017	22.131	 V 	2	CH4	0.062	11119	13.491	1.252	1.529	0.000	0	0	8.218	8.218
3	1.993	1.949	2.462	1282593	614552	2.087	247.179	   	3	CO2	0.354	17252	8.694	1.265	7.150	5.680	0	0	91.782	91.782

[Peak Table(Ch2)]
# of Peaks	0

[Peak Table(Ch3)]
# of Peaks	5
Peak#	R.Time	I.Time	F.Time	Area	Height	A/H	Conc.	Mark	ID#	Name	k'	Plate #	Plate Ht.	Tailing	Resolution	Sep.Factor	Area Ratio	Height Ratio	Conc. %	Norm Conc.
1	2.458	2.308	2.506	952	300	3.174	0.000	   			0.000	15678	9.567	0.000	0.000	0.000	0	0	0.000	0.000
2	2.521	2.506	2.568	250	107	2.341	0.000	 V 			0.025	5985	25.064	0.000	0.597	0.000	0	0	0.000	0.000
3	2.620	2.568	2.664	279	87	3.203	0.000	 V 			0.066	12542	11.960	0.000	0.884	2.588	0	0	0.000	0.000
4	2.891	2.755	2.986	16371	4530	3.614	0.242	   	1	N2O	0.176	13924	10.773	1.454	2.833	2.682	0	0	100.000	100.000
5	3.261	2.986	3.995	14091	433	32.519	0.000	 V 			0.327	227	659.802	0.000	0.769	1.856	0	0	0.000	0.000

[Compound Results(Ch1)]
# of IDs	6
ID#	Name	R.Time	Area	Height	Conc.	Curve	3rd	2nd	1st	Constant	Area Ratio	Height Ratio	Conc. %	Norm Conc.
1	CO	1.472	7244	3508	0.000	Linear	0.000000e+00	0.000000e+00	0.000000e+00	0.000000e+00	0	0	0.000	0.000
2	CH4	1.564	4540	2251	22.131	Linear	0.000000e+00	0.000000e+00	2.051179e+002	0.000000e+00	0	0	8.218	8.218
3	CO2	1.993	1282593	614552	247.179	Linear	0.000000e+00	0.000000e+00	5.188919e+003	0.000000e+00	0	0	91.782	91.782
4	Ethylene	0.000	0	0	0.000	Linear	0.000000e+00	0.000000e+00	0.000000e+00	0.000000e+00	0	0	0.000	0.000
5	Acetylene	0.000	0	0	0.000	Linear	0.000000e+00	0.000000e+00	0.000000e+00	0.000000e+00	0	0	0.000	0.000
6	Ethane	0.000	0	0	0.000	Linear	0.000000e+00	0.000000e+00	0.000000e+00	0.000000e+00	0	0	0.000	0.000

[Compound Results(Ch2)]
# of IDs	5
ID#	Name	R.Time	Area	Height	Conc.	Curve	3rd	2nd	1st	Constant	Area Ratio	Height Ratio	Conc. %	Norm Conc.
1	Hydrogen	0.000	0	0	0.000	Linear	0.000000e+00	0.000000e+00	0.000000e+00	0.000000e+00	0	0	0.000	0.000
2	Oxygen	0.000	0	0	0.000	Linear	0.000000e+00	0.000000e+00	0.000000e+00	0.000000e+00	0	0	0.000	0.000
3	Nitrogen	0.000	0	0	0.000	Linear	0.000000e+00	0.000000e+00	0.000000e+00	0.000000e+00	0	0	0.000	0.000
4	Methane	0.000	0	0	0.000	Linear	0.000000e+00	0.000000e+00	0.000000e+00	0.000000e+00	0	0	0.000	0.000
5	Carbon Monoxide	0.000	0	0	0.000	Linear	0.000000e+00	0.000000e+00	0.000000e+00	0.000000e+00	0	0	0.000	0.000

[Compound Results(Ch3)]
# of IDs	2
ID#	Name	R.Time	Area	Height	Conc.	Curve	3rd	2nd	1st	Constant	Area Ratio	Height Ratio	Conc. %	Norm Conc.
1	N2O	2.891	16371	4530	0.242	Linear	0.000000e+00	0.000000e+00	6.759880e+004	0.000000e+00	0	0	100.000	100.000
2	SF6	0.000	0	0	0.000	Linear	0.000000e+00	0.000000e+00	0.000000e+00	0.000000e+00	0	0	0.000	0.000

[Group Results(Ch1)]
# of Groups	0

[Group Results(Ch2)]
# of Groups	0

[Group Results(Ch3)]
# of Groups	0

[Chromatogram (Ch1)]
Interval(msec)	220
# of Points	1091
Start Time(min)	0.002
End Time(min)	3.998
R.Time (min)	Intensity
0.00167	15
0.00533	12
0.00900	8
0.01267	7
0.01633	7
0.02000	6
0.02367	5
0.02733	6
0.03100	9
0.03467	11
0.03833	13
0.04200	17
0.04567	19
0.04933	21
0.05300	23
0.05667	21
0.06033	20
0.06400	22
0.06767	26
0.07133	31
0.07500	31
0.07867	30
0.08233	27
0.08600	23
0.08967	22
0.09333	22
0.09700	19
0.10067	16
0.10433	13
0.10800	11
0.11167	8
0.11533	8
0.11900	7
0.12267	5
0.12633	1
0.13000	-5
0.13367	-8
0.13733	-6
0.14100	-2
0.14467	2
0.14833	3
0.15200	3
0.15567	0
0.15933	-3
0.16300	-9
0.16667	-15
0.17033	-19
0.17400	-21
0.17767	-21
0.18133	-20
0.18500	-13
0.18867	-2
0.19233	7
0.19600	10
0.19967	11
0.20333	7
0.20700	4
0.21067	3
0.21433	7
0.21800	15
0.22167	21
0.22533	19
0.22900	11
0.23267	1
0.23633	-5
0.24000	-8
0.24367	-9
0.24733	-11
0.25100	-14
0.25467	-13
0.25833	-9
0.26200	-4
0.26567	1
0.26933	5
0.27300	6
0.27667	4
0.28033	2
0.28400	7
0.28767	11
0.29133	11
0.29500	7
0.29867	0
0.30233	-7
0.30600	-11
0.30967	-16
0.31333	-20
0.31700	-21
0.32067	-18
0.32433	-15
0.32800	-15
0.33167	-14
0.33533	-13
0.33900	-10
0.34267	-8
0.34633	-5
0.35000	-3
0.35367	-4
0.35733	-7
0.36100	-13
0.36467	-13
0.36833	-5
0.37200	2
0.37567	5
0.37933	3
0.38300	-1
0.38667	-6
0.39033	-11
0.39400	-12
0.39767	-9
0.40133	-5
0.40500	-2
0.40867	4
0.41233	10
0.41600	12
0.41967	9
0.42333	4
0.42700	-1
0.43067	-5
0.43433	-7
0.43800	-9
0.44167	-13
0.44533	-18
0.44900	-22
0.45267	-23
0.45633	-21
0.46000	-19
0.46367	-18
0.46733	-18
0.47100	-17
0.47467	-16
0.47833	-15
0.48200	-16
0.48567	-14
0.48933	-8
0.49300	-3
0.49667	-3
0.50033	-5
0.50400	-6
0.50767	-9
0.51133	-12
0.51500	-16
0.51867	-20
0.52233	-23
0.52600	-26
0.52967	-30
0.53333	-32
0.53700	-30
0.54067	-27
0.54433	-25
0.54800	-23
0.55167	-21
0.55533	-19
0.55900	-18
0.56267	-20
0.56633	-22
0.57000	-22
0.57367	-20
0.57733	-20
0.58100	-22
0.58467	-25
0.58833	-23
0.59200	-16
0.59567	-8
0.59933	-4
0.60300	-1
0.60667	-3
0.61033	-10
0.61400	-19
0.61767	-23
0.62133	-22
0.62500	-17
0.62867	-11
0.63233	-8
0.63600	-10
0.63967	-10
0.64333	-9
0.64700	-10
0.65067	-17
0.65433	-23
0.65800	-21
0.66167	-13
0.66533	-4
0.66900	2
0.67267	3
0.67633	1
0.68000	-6
0.68367	-16
0.68733	-25
0.69100	-31
0.69467	-32
0.69833	-27
0.70200	-22
0.70567	-20
0.70933	-18
0.71300	-12
0.71667	-5
0.72033	-2
0.72400	-7
0.72767	-16
0.73133	-20
0.73500	-21
0.73867	-20
0.74233	-18
0.74600	-17
0.74967	-18
0.75333	-19
0.75700	-21
0.76067	-22
0.76433	-25
0.76800	-29
0.77167	-30
0.77533	-27
0.77900	-26
0.78267	-24
0.78633	-22
0.79000	-20
0.79367	-18
0.79733	-19
0.80100	-20
0.80467	-18
0.80833	-17
0.81200	-18
0.81567	-18
0.81933	-16
0.82300	-12
0.82667	-10
0.83033	-8
0.83400	-8
0.83767	-8
0.84133	-11
0.84500	-11
0.84867	-8
0.85233	-6
0.85600	-5
0.85967	-0
0.86333	6
0.86700	9
0.87067	7
0.87433	0
0.87800	-10
0.88167	-21
0.88533	-33
0.88900	-48
0.89267	-61
0.89633	-70
0.90000	-75
0.90367	-75
0.90733	-67
0.91100	-58
0.91467	-47
0.91833	-37
0.92200	-31
0.92567	-28
0.92933	-27
0.93300	-26
0.93667	-25
0.94033	-21
0.94400	-13
0.94767	-4
0.95133	2
0.95500	2
0.95867	-4
0.96233	-14
0.96600	-24
0.96967	-28
0.97333	-29
0.97700	-28
0.98067	-23
0.98433	-18
0.98800	-18
0.99167	-24
0.99533	-35
0.99900	-44
1.00267	-50
1.00633	-52
1.01000	-51
1.01367	-51
1.01733	-54
1.02100	-55
1.02467	-55
1.02833	-52
1.03200	-50
1.03567	-49
1.03933	-46
1.04300	-42
1.04667	-40
1.05033	-36
1.05400	-30
1.05767	-28
1.06133	-27
1.06500	-26
1.06867	-24
1.07233	-23
1.07600	-24
1.07967	-25
1.08333	-23
1.08700	-20
1.09067	-16
1.09433	-14
1.09800	-17
1.10167	-19
1.10533	-22
1.10900	-21
1.11267	-22
1.11633	-23
1.12000	-27
1.12367	-31
1.12733	-32
1.13100	-33
1.13467	-35
1.13833	-39
1.14200	-43
1.14567	-43
1.14933	-40
1.15300	-35
1.15667	-31
1.16033	-29
1.16400	-28
1.16767	-25
1.17133	-22
1.17500	-18
1.17867	-17
1.18233	-22
1.18600	-32
1.18967	-42
1.19333	-51
1.19700	-52
1.20067	-50
1.20433	-48
1.20800	-47
1.21167	-44
1.21533	-39
1.21900	-37
1.22267	-39
1.22633	-43
1.23000	-45
1.23367	-45
1.23733	-48
1.24100	-50
1.24467	-51
1.24833	-53
1.25200	-51
1.25567	-46
1.25933	-41
1.26300	-40
1.26667	-39
1.27033	-38
1.27400	-35
1.27767	-32
1.28133	-31
1.28500	-32
1.28867	-33
1.29233	-38
1.29600	-46
1.29967	-51
1.30333	-51
1.30700	-49
1.31067	-49
1.31433	-50
1.31800	-49
1.32167	-47
1.32533	-39
1.32900	-24
1.33267	-12
1.33633	-6
1.34000	-10
1.34367	-17
1.34733	-25
1.35100	-29
1.35467	-25
1.35833	-21
1.36200	-20
1.36567	-26
1.36933	-34
1.37300	-42
1.37667	-47
1.38033	-49
1.38400	-50
1.38767	-48
1.39133	-45
1.39500	-46
1.39867	-50
1.40233	-51
1.40600	-52
1.40967	-51
1.41333	-50
1.41700	-45
1.42067	-40
1.42433	-39
1.42800	-41
1.43167	-43
1.43533	-32
1.43900	-3
1.44267	44
1.44633	138
1.45000	402
1.45367	923
1.45733	1608
1.46100	2284
1.46467	2845
1.46833	3249
1.47200	3464
1.47567	3452
1.47933	3195
1.48300	2744
1.48667	2203
1.49033	1673
1.49400	1215
1.49767	849
1.50133	573
1.50500	372
1.50867	231
1.51233	138
1.51600	75
1.51967	32
1.52333	5
1.52700	-11
1.53067	-15
1.53433	2
1.53800	74
1.54167	259
1.54533	587
1.54900	1008
1.55267	1432
1.55633	1787
1.56000	2044
1.56367	2174
1.56733	2148
1.57100	1955
1.57467	1634
1.57833	1263
1.58200	913
1.58567	624
1.58933	405
1.59300	246
1.59667	138
1.60033	68
1.60400	25
1.60767	-0
1.61133	-21
1.61500	-43
1.61867	-66
1.62233	-86
1.62600	-98
1.62967	-102
1.63333	-101
1.63700	-97
1.64067	-96
1.64433	-92
1.64800	-86
1.65167	-78
1.65533	-72
1.65900	-74
1.66267	-78
1.66633	-80
1.67000	-77
1.67367	-72
1.67733	-71
1.68100	-72
1.68467	-74
1.68833	-76
1.69200	-72
1.69567	-68
1.69933	-68
1.70300	-71
1.70667	-74
1.71033	-78
1.71400	-83
1.71767	-86
1.72133	-84
1.72500	-81
1.72867	-77
1.73233	-72
1.73600	-66
1.73967	-65
1.74333	-63
1.74700	-60
1.75067	-58
1.75433	-62
1.75800	-67
1.76167	-67
1.76533	-67
1.76900	-69
1.77267	-72
1.77633	-73
1.78000	-76
1.78367	-84
1.78733	-89
1.79100	-87
1.79467	-83
1.79833	-78
1.80200	-72
1.80567	-66
1.80933	-61
1.81300	-59
1.81667	-64
1.82033	-72
1.82400	-80
1.82767	-84
1.83133	-85
1.83500	-81
1.83867	-76
1.84233	-71
1.84600	-69
1.84967	-72
1.85333	-77
1.85700	-80
1.86067	-80
1.86433	-78
1.86800	-76
1.87167	-72
1.87533	-71
1.87900	-70
1.88267	-65
1.88633	-61
1.89000	-57
1.89367	-53
1.89733	-54
1.90100	-58
1.90467	-60
1.90833	-58
1.91200	-56
1.91567	-58
1.91933	-59
1.92300	-58
1.92667	-60
1.93033	-61
1.93400	-62
1.93767	-67
1.94133	-72
1.94500	-75
1.94867	-58
1.95233	76
1.95600	850
1.95967	4273
1.96333	15660
1.96700	44628
1.97067	101776
1.97433	190752
1.97800	302526
1.98167	418210
1.98533	518074
1.98900	586782
1.99267	614516
1.99633	598062
2.00000	542541
2.00367	460525
2.00733	368217
2.01100	279987
2.01467	204770
2.01833	145743
2.02200	102091
2.02567	71108
2.02933	49705
2.03300	35156
2.03667	25335
2.04033	18702
2.04400	14192
2.04767	11085
2.05133	8907
2.05500	7347
2.05867	6200
2.06233	5332
2.06600	4663
2.06967	4143
2.07333	3730
2.07700	3393
2.08067	3103
2.08433	2848
2.08800	2624
2.09167	2427
2.09533	2257
2.09900	2109
2.10267	1979
2.10633	1863
2.11000	1755
2.11367	1657
2.11733	1568
2.12100	1487
2.12467	1412
2.12833	1343
2.13200	1282
2.13567	1229
2.13933	1180
2.14300	1135
2.14667	1094
2.15033	1055
2.15400	1017
2.15767	979
2.16133	943
2.16500	906
2.16867	871
2.17233	838
2.17600	808
2.17967	782
2.18333	762
2.18700	743
2.19067	720
2.19433	695
2.19800	669
2.20167	645
2.20533	627
2.20900	613
2.21267	600
2.21633	587
2.22000	571
2.22367	554
2.22733	542
2.23100	536
2.23467	531
2.23833	520
2.24200	502
2.24567	483
2.24933	463
2.25300	445
2.25667	431
2.26033	423
2.26400	422
2.26767	422
2.27133	418
2.27500	408
2.27867	395
2.28233	378
2.28600	361
2.28967	347
2.29333	342
2.29700	342
2.30067	340
2.30433	335
2.30800	333
2.31167	329
2.31533	323
2.31900	318
2.32267	315
2.32633	315
2.33000	317
2.33367	312
2.33733	301
2.34100	290
2.34467	282
2.34833	277
2.35200	275
2.35567	273
2.35933	268
2.36300	261
2.36667	254
2.37033	250
2.37400	249
2.37767	248
2.38133	244
2.38500	240
2.38867	243
2.39233	246
2.39600	246
2.39967	245
2.40333	241
2.40700	234
2.41067	225
2.41433	218
2.41800	214
2.42167	215
2.42533	215
2.42900	215
2.43267	214
2.43633	211
2.44000	209
2.44367	207
2.44733	206
2.45100	205
2.45467	202
2.45833	198
2.46200	195
2.46567	194
2.46933	193
2.47300	193
2.47667	194
2.48033	190
2.48400	183
2.48767	179
2.49133	179
2.49500	181
2.49867	186
2.50233	192
2.50600	194
2.50967	194
2.51333	195
2.51700	199
2.52067	198
2.52433	195
2.52800	190
2.53167	186
2.53533	182
2.53900	180
2.54267	180
2.54633	176
2.55000	171
2.55367	170
2.55733	172
2.56100	170
2.56467	165
2.56833	159
2.57200	154
2.57567	151
2.57933	151
2.58300	151
2.58667	149
2.59033	149
2.59400	151
2.59767	153
2.60133	154
2.60500	161
2.60867	171
2.61233	176
2.61600	176
2.61967	174
2.62333	171
2.62700	167
2.63067	157
2.63433	146
2.63800	137
2.64167	131
2.64533	124
2.64900	117
2.65267	114
2.65633	115
2.66000	117
2.66367	118
2.66733	118
2.67100	119
2.67467	121
2.67833	123
2.68200	125
2.68567	126
2.68933	128
2.69300	128
2.69667	128
2.70033	130
2.70400	133
2.70767	138
2.71133	144
2.71500	149
2.71867	152
2.72233	156
2.72600	160
2.72967	160
2.73333	157
2.73700	152
2.74067	149
2.74433	148
2.74800	146
2.75167	144
2.75533	143
2.75900	144
2.76267	147
2.76633	146
2.77000	142
2.77367	138
2.77733	135
2.78100	134
2.78467	136
2.78833	143
2.79200	149
2.79567	149
2.79933	147
2.80300	143
2.80667	141
2.81033	136
2.81400	128
2.81767	123
2.82133	122
2.82500	123
2.82867	125
2.83233	128
2.83600	132
2.83967	137
2.84333	141
2.84700	141
2.85067	140
2.85433	139
2.85800	138
2.86167	140
2.86533	142
2.86900	141
2.87267	140
2.87633	138
2.88000	136
2.88367	134
2.88733	132
2.89100	134
2.89467	137
2.89833	142
2.90200	144
2.90567	145
2.90933	144
2.91300	142
2.91667	142
2.92033	139
2.92400	134
2.92767	131
2.93133	132
2.93500	140
2.93867	146
2.94233	146
2.94600	145
2.94967	145
2.95333	141
2.95700	138
2.96067	140
2.96433	143
2.96800	146
2.97167	147
2.97533	147
2.97900	147
2.98267	144
2.98633	141
2.99000	139
2.99367	140
2.99733	146
3.00100	152
3.00467	157
3.00833	160
3.01200	155
3.01567	146
3.01933	139
3.02300	136
3.02667	132
3.03033	130
3.03400	130
3.03767	131
3.04133	128
3.04500	123
3.04867	121
3.05233	124
3.05600	129
3.05967	133
3.06333	136
3.06700	138
3.07067	134
3.07433	123
3.07800	115
3.08167	115
3.08533	119
3.08900	125
3.09267	133
3.09633	139
3.10000	140
3.10367	135
3.10733	126
3.11100	118
3.11467	110
3.11833	106
3.12200	106
3.12567	110
3.12933	115
3.13300	121
3.13667	130
3.14033	138
3.14400	146
3.14767	152
3.15133	152
3.15500	149
3.15867	142
3.16233	136
3.16600	132
3.16967	131
3.17333	135
3.17700	139
3.18067	137
3.18433	129
3.18800	118
3.19167	109
3.19533	103
3.19900	101
3.20267	102
3.20633	105
3.21000	109
3.21367	115
3.21733	123
3.22100	128
3.22467	132
3.22833	136
3.23200	136
3.23567	136
3.23933	136
3.24300	137
3.24667	136
3.25033	131
3.25400	122
3.25767	110
3.26133	98
3.26500	88
3.26867	84
3.27233	86
3.27600	86
3.27967	87
3.28333	90
3.28700	95
3.29067	100
3.29433	103
3.29800	103
3.30167	102
3.30533	105
3.30900	108
3.31267	109
3.31633	109
3.32000	109
3.32367	107
3.32733	106
3.33100	108
3.33467	111
3.33833	112
3.34200	113
3.34567	112
3.34933	114
3.35300	120
3.35667	125
3.36033	124
3.36400	121
3.36767	117
3.37133	110
3.37500	102
3.37867	97
3.38233	93
3.38600	91
3.38967	88
3.39333	88
3.39700	92
3.40067	99
3.40433	106
3.40800	116
3.41167	123
3.41533	123
3.41900	120
3.42267	119
3.42633	124
3.43000	127
3.43367	119
3.43733	105
3.44100	96
3.44467	92
3.44833	90
3.45200	89
3.45567	87
3.45933	88
3.46300	87
3.46667	89
3.47033	93
3.47400	98
3.47767	102
3.48133	101
3.48500	100
3.48867	100
3.49233	98
3.49600	92
3.49967	89
3.50333	91
3.50700	97
3.51067	99
3.51433	99
3.51800	95
3.52167	93
3.52533	98
3.52900	106
3.53267	110
3.53633	109
3.54000	107
3.54367	107
3.54733	105
3.55100	100
3.55467	93
3.55833	87
3.56200	83
3.56567	81
3.56933	79
3.57300	76
3.57667	74
3.58033	77
3.58400	79
3.58767	80
3.59133	82
3.59500	85
3.59867	90
3.60233	94
3.60600	95
3.60967	92
3.61333	88
3.61700	87
3.62067	88
3.62433	86
3.62800	83
3.63167	80
3.63533	79
3.63900	80
3.64267	81
3.64633	81
3.65000	80
3.65367	82
3.65733	85
3.66100	83
3.66467	79
3.66833	76
3.67200	72
3.67567	71
3.67933	70
3.68300	70
3.68667	71
3.69033	73
3.69400	77
3.69767	79
3.70133	80
3.70500	79
3.70867	77
3.71233	73
3.71600	66
3.71967	64
3.72333	65
3.72700	67
3.73067	67
3.73433	66
3.73800	61
3.74167	55
3.74533	53
3.74900	56
3.75267	61
3.75633	67
3.76000	76
3.76367	81
3.76733	85
3.77100	88
3.77467	88
3.77833	82
3.78200	75
3.78567	68
3.78933	66
3.79300	69
3.79667	73
3.80033	76
3.80400	76
3.80767	75
3.81133	75
3.81500	76
3.81867	77
3.82233	75
3.82600	73
3.82967	74
3.83333	75
3.83700	71
3.84067	65
3.84433	61
3.84800	56
3.85167	48
3.85533	43
3.85900	42
3.86267	44
3.86633	48
3.87000	53
3.87367	55
3.87733	54
3.88100	52
3.88467	51
3.88833	53
3.89200	58
3.89567	61
3.89933	63
3.90300	64
3.90667	64
3.91033	65
3.91400	69
3.91767	70
3.92133	67
3.92500	66
3.92867	66
3.93233	68
3.93600	71
3.93967	73
3.94333	73
3.94700	70
3.95067	65
3.95433	62
3.95800	62
3.96167	62
3.96533	61
3.96900	59
3.97267	53
3.97633	48
3.98000	46
3.98367	46
3.98733	47
3.99100	46
3.99467	47
3.99833	53

[Chromatogram (Ch2)]
Interval(msec)	220
# of Points	1091
Start Time(min)	0.002
End Time(min)	3.998
R.Time (min)	Intensity
0.00167	1
0.00533	1
0.00900	1
0.01267	1
0.01633	1
0.02000	1
0.02367	1
0.02733	2
0.03100	2
0.03467	2
0.03833	2
0.04200	2
0.04567	2
0.04933	2
0.05300	1
0.05667	1
0.06033	2
0.06400	2
0.06767	2
0.07133	2
0.07500	2
0.07867	2
0.08233	2
0.08600	2
0.08967	2
0.09333	2
0.09700	2
0.10067	2
0.10433	1
0.10800	1
0.11167	1
0.11533	0
0.11900	0
0.12267	0
0.12633	-0
0.13000	-0
0.13367	-1
0.13733	-1
0.14100	-1
0.14467	-2
0.14833	-2
0.15200	-2
0.15567	-2
0.15933	-2
0.16300	-2
0.16667	-2
0.17033	-3
0.17400	-3
0.17767	-3
0.18133	-3
0.18500	-3
0.18867	-3
0.19233	-3
0.19600	-2
0.19967	-2
0.20333	-2
0.20700	-1
0.21067	-1
0.21433	-0
0.21800	0
0.22167	0
0.22533	1
0.22900	1
0.23267	1
0.23633	2
0.24000	1
0.24367	1
0.24733	2
0.25100	2
0.25467	2
0.25833	2
0.26200	2
0.26567	3
0.26933	3
0.27300	3
0.27667	3
0.28033	3
0.28400	3
0.28767	3
0.29133	2
0.29500	2
0.29867	1
0.30233	1
0.30600	1
0.30967	1
0.31333	1
0.31700	0
0.32067	-0
0.32433	-0
0.32800	-1
0.33167	-1
0.33533	-1
0.33900	-1
0.34267	-1
0.34633	-2
0.35000	-2
0.35367	-2
0.35733	-2
0.36100	-2
0.36467	-2
0.36833	-2
0.37200	-2
0.37567	-2
0.37933	-2
0.38300	-2
0.38667	-2
0.39033	-2
0.39400	-2
0.39767	-2
0.40133	-2
0.40500	-2
0.40867	-1
0.41233	-1
0.41600	-1
0.41967	-1
0.42333	-1
0.42700	-1
0.43067	-1
0.43433	-1
0.43800	-1
0.44167	-1
0.44533	-1
0.44900	-1
0.45267	-2
0.45633	-2
0.46000	-2
0.46367	-2
0.46733	-2
0.47100	-3
0.47467	-3
0.47833	-3
0.48200	-3
0.48567	-3
0.48933	-3
0.49300	-3
0.49667	-3
0.50033	-3
0.50400	-3
0.50767	-3
0.51133	-3
0.51500	-3
0.51867	-3
0.52233	-3
0.52600	-3
0.52967	-3
0.53333	-4
0.53700	-4
0.54067	-4
0.54433	-4
0.54800	-4
0.55167	-4
0.55533	-4
0.55900	-4
0.56267	-4
0.56633	-4
0.57000	-4
0.57367	-4
0.57733	-3
0.58100	-3
0.58467	-2
0.58833	-2
0.59200	-1
0.59567	-0
0.59933	0
0.60300	1
0.60667	1
0.61033	2
0.61400	2
0.61767	2
0.62133	2
0.62500	3
0.62867	3
0.63233	3
0.63600	3
0.63967	2
0.64333	2
0.64700	2
0.65067	2
0.65433	1
0.65800	1
0.66167	0
0.66533	-0
0.66900	-0
0.67267	-0
0.67633	-0
0.68000	-0
0.68367	-0
0.68733	-0
0.69100	-0
0.69467	-0
0.69833	-0
0.70200	0
0.70567	0
0.70933	0
0.71300	0
0.71667	-0
0.72033	-1
0.72400	-1
0.72767	-1
0.73133	-1
0.73500	-1
0.73867	-2
0.74233	-2
0.74600	-2
0.74967	-2
0.75333	-2
0.75700	-2
0.76067	-2
0.76433	-2
0.76800	-2
0.77167	-2
0.77533	-2
0.77900	-2
0.78267	-2
0.78633	-2
0.79000	-2
0.79367	-2
0.79733	-2
0.80100	-3
0.80467	-3
0.80833	-3
0.81200	-3
0.81567	-3
0.81933	-3
0.82300	-2
0.82667	-2
0.83033	-2
0.83400	-2
0.83767	-1
0.84133	-1
0.84500	-1
0.84867	-0
0.85233	-0
0.85600	-0
0.85967	-0
0.86333	-0
0.86700	0
0.87067	0
0.87433	0
0.87800	0
0.88167	0
0.88533	0
0.88900	0
0.89267	0
0.89633	1
0.90000	1
0.90367	1
0.90733	1
0.91100	1
0.91467	1
0.91833	1
0.92200	1
0.92567	1
0.92933	0
0.93300	-0
0.93667	-0
0.94033	-0
0.94400	-0
0.94767	-1
0.95133	-1
0.95500	-1
0.95867	-1
0.96233	-1
0.96600	-1
0.96967	-1
0.97333	-1
0.97700	-1
0.98067	-1
0.98433	-0
0.98800	-0
0.99167	-0
0.99533	-1
0.99900	-1
1.00267	-2
1.00633	-2
1.01000	-2
1.01367	-3
1.01733	-3
1.02100	-3
1.02467	-3
1.02833	-3
1.03200	-3
1.03567	-4
1.03933	-4
1.04300	-4
1.04667	-5
1.05033	-5
1.05400	-4
1.05767	-4
1.06133	-4
1.06500	-4
1.06867	-4
1.07233	-3
1.07600	-3
1.07967	-3
1.08333	-3
1.08700	-3
1.09067	-3
1.09433	-3
1.09800	-3
1.10167	-2
1.10533	-2
1.10900	-2
1.11267	-1
1.11633	-1
1.12000	-1
1.12367	-1
1.12733	-1
1.13100	-1
1.13467	-2
1.13833	-2
1.14200	-2
1.14567	-2
1.14933	-2
1.15300	-2
1.15667	-2
1.16033	-3
1.16400	-3
1.16767	-3
1.17133	-3
1.17500	-2
1.17867	-2
1.18233	-3
1.18600	-3
1.18967	-3
1.19333	-3
1.19700	-3
1.20067	-3
1.20433	-3
1.20800	-3
1.21167	-3
1.21533	-3
1.21900	-3
1.22267	-3
1.22633	-3
1.23000	-3
1.23367	-3
1.23733	-4
1.24100	-4
1.24467	-4
1.24833	-4
1.25200	-4
1.25567	-4
1.25933	-4
1.26300	-4
1.26667	-4
1.27033	-4
1.27400	-4
1.27767	-5
1.28133	-5
1.28500	-5
1.28867	-5
1.29233	-5
1.29600	-5
1.29967	-4
1.30333	-4
1.30700	-4
1.31067	-4
1.31433	-4
1.31800	-4
1.32167	-4
1.32533	-4
1.32900	-3
1.33267	-3
1.33633	-3
1.34000	-3
1.34367	-2
1.34733	-2
1.35100	-2
1.35467	-2
1.35833	-2
1.36200	-2
1.36567	-2
1.36933	-2
1.37300	-2
1.37667	-2
1.38033	-2
1.38400	-2
1.38767	-2
1.39133	-3
1.39500	-3
1.39867	-3
1.40233	-4
1.40600	-4
1.40967	-4
1.41333	-3
1.41700	-3
1.42067	-3
1.42433	-3
1.42800	-3
1.43167	-3
1.43533	-3
1.43900	-3
1.44267	-3
1.44633	-3
1.45000	-3
1.45367	-3
1.45733	-3
1.46100	-2
1.46467	-2
1.46833	-2
1.47200	-2
1.47567	-2
1.47933	-2
1.48300	-2
1.48667	-2
1.49033	-2
1.49400	-2
1.49767	-2
1.50133	-3
1.50500	-3
1.50867	-3
1.51233	-3
1.51600	-3
1.51967	-3
1.52333	-3
1.52700	-3
1.53067	-3
1.53433	-3
1.53800	-3
1.54167	-3
1.54533	-3
1.54900	-4
1.55267	-4
1.55633	-4
1.56000	-4
1.56367	-5
1.56733	-5
1.57100	-5
1.57467	-5
1.57833	-5
1.58200	-5
1.58567	-5
1.58933	-5
1.59300	-5
1.59667	-5
1.60033	-6
1.60400	-7
1.60767	-8
1.61133	-9
1.61500	-11
1.61867	-13
1.62233	-16
1.62600	-19
1.62967	-22
1.63333	-25
1.63700	-28
1.64067	-32
1.64433	-35
1.64800	-39
1.65167	-42
1.65533	-46
1.65900	-49
1.66267	-53
1.66633	-56
1.67000	-60
1.67367	-65
1.67733	-69
1.68100	-74
1.68467	-78
1.68833	-82
1.69200	-85
1.69567	-88
1.69933	-91
1.70300	-93
1.70667	-95
1.71033	-96
1.71400	-98
1.71767	-99
1.72133	-100
1.72500	-101
1.72867	-102
1.73233	-103
1.73600	-103
1.73967	-104
1.74333	-104
1.74700	-104
1.75067	-104
1.75433	-104
1.75800	-103
1.76167	-102
1.76533	-102
1.76900	-101
1.77267	-101
1.77633	-101
1.78000	-102
1.78367	-103
1.78733	-103
1.79100	-104
1.79467	-105
1.79833	-105
1.80200	-105
1.80567	-105
1.80933	-105
1.81300	-105
1.81667	-104
1.82033	-104
1.82400	-104
1.82767	-104
1.83133	-105
1.83500	-105
1.83867	-106
1.84233	-106
1.84600	-106
1.84967	-107
1.85333	-107
1.85700	-107
1.86067	-107
1.86433	-107
1.86800	-107
1.87167	-107
1.87533	-106
1.87900	-106
1.88267	-106
1.88633	-106
1.89000	-106
1.89367	-106
1.89733	-106
1.90100	-106
1.90467	-106
1.90833	-105
1.91200	-105
1.91567	-104
1.91933	-103
1.92300	-103
1.92667	-103
1.93033	-103
1.93400	-103
1.93767	-104
1.94133	-104
1.94500	-104
1.94867	-103
1.95233	-103
1.95600	-103
1.95967	-102
1.96333	-102
1.96700	-102
1.97067	-101
1.97433	-101
1.97800	-100
1.98167	-99
1.98533	-99
1.98900	-98
1.99267	-98
1.99633	-98
2.00000	-99
2.00367	-98
2.00733	-98
2.01100	-98
2.01467	-98
2.01833	-98
2.02200	-98
2.02567	-98
2.02933	-98
2.03300	-98
2.03667	-98
2.04033	-97
2.04400	-97
2.04767	-97
2.05133	-96
2.05500	-96
2.05867	-95
2.06233	-94
2.06600	-94
2.06967	-93
2.07333	-92
2.07700	-91
2.08067	-91
2.08433	-90
2.08800	-91
2.09167	-91
2.09533	-91
2.09900	-91
2.10267	-91
2.10633	-91
2.11000	-91
2.11367	-91
2.11733	-91
2.12100	-90
2.12467	-90
2.12833	-89
2.13200	-89
2.13567	-88
2.13933	-88
2.14300	-88
2.14667	-87
2.15033	-87
2.15400	-86
2.15767	-85
2.16133	-85
2.16500	-84
2.16867	-84
2.17233	-83
2.17600	-83
2.17967	-83
2.18333	-83
2.18700	-83
2.19067	-82
2.19433	-82
2.19800	-82
2.20167	-82
2.20533	-82
2.20900	-82
2.21267	-82
2.21633	-82
2.22000	-81
2.22367	-80
2.22733	-80
2.23100	-79
2.23467	-79
2.23833	-78
2.24200	-78
2.24567	-77
2.24933	-77
2.25300	-77
2.25667	-78
2.26033	-77
2.26400	-77
2.26767	-77
2.27133	-77
2.27500	-76
2.27867	-75
2.28233	-75
2.28600	-75
2.28967	-75
2.29333	-76
2.29700	-77
2.30067	-78
2.30433	-78
2.30800	-78
2.31167	-77
2.31533	-76
2.31900	-75
2.32267	-74
2.32633	-73
2.33000	-72
2.33367	-72
2.33733	-72
2.34100	-71
2.34467	-70
2.34833	-69
2.35200	-68
2.35567	-66
2.35933	-65
2.36300	-63
2.36667	-62
2.37033	-60
2.37400	-58
2.37767	-56
2.38133	-52
2.38500	-48
2.38867	-44
2.39233	-40
2.39600	-36
2.39967	-32
2.40333	-28
2.40700	-24
2.41067	-20
2.41433	-17
2.41800	-14
2.42167	-11
2.42533	-8
2.42900	-6
2.43267	-5
2.43633	-3
2.44000	-2
2.44367	-1
2.44733	1
2.45100	2
2.45467	3
2.45833	5
2.46200	5
2.46567	7
2.46933	8
2.47300	8
2.47667	9
2.48033	10
2.48400	11
2.48767	12
2.49133	13
2.49500	13
2.49867	13
2.50233	14
2.50600	14
2.50967	14
2.51333	13
2.51700	13
2.52067	12
2.52433	12
2.52800	12
2.53167	11
2.53533	11
2.53900	10
2.54267	10
2.54633	10
2.55000	11
2.55367	11
2.55733	12
2.56100	12
2.56467	12
2.56833	13
2.57200	13
2.57567	14
2.57933	15
2.58300	15
2.58667	16
2.59033	16
2.59400	16
2.59767	16
2.60133	16
2.60500	16
2.60867	16
2.61233	16
2.61600	17
2.61967	17
2.62333	18
2.62700	18
2.63067	18
2.63433	17
2.63800	17
2.64167	16
2.64533	16
2.64900	16
2.65267	17
2.65633	17
2.66000	17
2.66367	18
2.66733	18
2.67100	19
2.67467	20
2.67833	21
2.68200	21
2.68567	22
2.68933	22
2.69300	23
2.69667	23
2.70033	23
2.70400	23
2.70767	23
2.71133	23
2.71500	24
2.71867	24
2.72233	24
2.72600	24
2.72967	25
2.73333	25
2.73700	25
2.74067	26
2.74433	26
2.74800	27
2.75167	27
2.75533	27
2.75900	27
2.76267	27
2.76633	27
2.77000	26
2.77367	26
2.77733	25
2.78100	25
2.78467	25
2.78833	25
2.79200	25
2.79567	26
2.79933	26
2.80300	26
2.80667	26
2.81033	26
2.81400	26
2.81767	27
2.82133	27
2.82500	27
2.82867	27
2.83233	27
2.83600	27
2.83967	28
2.84333	28
2.84700	28
2.85067	28
2.85433	28
2.85800	28
2.86167	27
2.86533	24
2.86900	19
2.87267	11
2.87633	0
2.88000	-15
2.88367	-35
2.88733	-60
2.89100	-91
2.89467	-126
2.89833	-166
2.90200	-212
2.90567	-261
2.90933	-314
2.91300	-370
2.91667	-429
2.92033	-490
2.92400	-551
2.92767	-613
2.93133	-675
2.93500	-735
2.93867	-793
2.94233	-847
2.94600	-899
2.94967	-953
2.95333	-1009
2.95700	-1061
2.96067	-1101
2.96433	-1119
2.96800	-1111
2.97167	-1078
2.97533	-1025
2.97900	-957
2.98267	-881
2.98633	-800
2.99000	-719
2.99367	-640
2.99733	-565
3.00100	-495
3.00467	-432
3.00833	-374
3.01200	-323
3.01567	-277
3.01933	-237
3.02300	-202
3.02667	-172
3.03033	-146
3.03400	-123
3.03767	-103
3.04133	-87
3.04500	-72
3.04867	-60
3.05233	-49
3.05600	-40
3.05967	-32
3.06333	-25
3.06700	-19
3.07067	-14
3.07433	-9
3.07800	-6
3.08167	-3
3.08533	0
3.08900	2
3.09267	5
3.09633	6
3.10000	8
3.10367	10
3.10733	11
3.11100	12
3.11467	12
3.11833	13
3.12200	14
3.12567	14
3.12933	15
3.13300	15
3.13667	16
3.14033	16
3.14400	17
3.14767	17
3.15133	17
3.15500	17
3.15867	17
3.16233	18
3.16600	18
3.16967	18
3.17333	18
3.17700	19
3.18067	19
3.18433	20
3.18800	20
3.19167	21
3.19533	21
3.19900	22
3.20267	22
3.20633	22
3.21000	22
3.21367	23
3.21733	23
3.22100	23
3.22467	23
3.22833	23
3.23200	24
3.23567	24
3.23933	24
3.24300	24
3.24667	23
3.25033	23
3.25400	23
3.25767	24
3.26133	24
3.26500	24
3.26867	24
3.27233	24
3.27600	24
3.27967	24
3.28333	24
3.28700	24
3.29067	24
3.29433	25
3.29800	25
3.30167	25
3.30533	25
3.30900	25
3.31267	25
3.31633	25
3.32000	25
3.32367	25
3.32733	25
3.33100	25
3.33467	25
3.33833	25
3.34200	25
3.34567	25
3.34933	25
3.35300	25
3.35667	25
3.36033	26
3.36400	26
3.36767	26
3.37133	26
3.37500	26
3.37867	26
3.38233	26
3.38600	26
3.38967	26
3.39333	26
3.39700	26
3.40067	26
3.40433	26
3.40800	27
3.41167	27
3.41533	27
3.41900	27
3.42267	27
3.42633	28
3.43000	28
3.43367	29
3.43733	29
3.44100	29
3.44467	30
3.44833	30
3.45200	30
3.45567	30
3.45933	30
3.46300	30
3.46667	30
3.47033	30
3.47400	30
3.47767	30
3.48133	30
3.48500	29
3.48867	29
3.49233	29
3.49600	29
3.49967	29
3.50333	29
3.50700	29
3.51067	29
3.51433	29
3.51800	29
3.52167	29
3.52533	29
3.52900	29
3.53267	29
3.53633	29
3.54000	28
3.54367	28
3.54733	28
3.55100	27
3.55467	27
3.55833	27
3.56200	27
3.56567	27
3.56933	27
3.57300	27
3.57667	27
3.58033	26
3.58400	26
3.58767	26
3.59133	26
3.59500	26
3.59867	25
3.60233	25
3.60600	26
3.60967	26
3.61333	26
3.61700	26
3.62067	26
3.62433	26
3.62800	27
3.63167	27
3.63533	27
3.63900	27
3.64267	28
3.64633	28
3.65000	28
3.65367	28
3.65733	28
3.66100	28
3.66467	28
3.66833	28
3.67200	28
3.67567	28
3.67933	28
3.68300	28
3.68667	28
3.69033	28
3.69400	28
3.69767	29
3.70133	29
3.70500	29
3.70867	29
3.71233	29
3.71600	29
3.71967	29
3.72333	29
3.72700	29
3.73067	29
3.73433	29
3.73800	29
3.74167	29
3.74533	28
3.74900	28
3.75267	28
3.75633	28
3.76000	27
3.76367	27
3.76733	27
3.77100	27
3.77467	27
3.77833	26
3.78200	26
3.78567	26
3.78933	25
3.79300	25
3.79667	25
3.80033	25
3.80400	25
3.80767	25
3.81133	25
3.81500	25
3.81867	25
3.82233	25
3.82600	25
3.82967	25
3.83333	25
3.83700	26
3.84067	26
3.84433	26
3.84800	26
3.85167	26
3.85533	26
3.85900	26
3.86267	26
3.86633	26
3.87000	26
3.87367	26
3.87733	26
3.88100	26
3.88467	27
3.88833	27
3.89200	27
3.89567	27
3.89933	27
3.90300	28
3.90667	28
3.91033	28
3.91400	28
3.91767	28
3.92133	28
3.92500	28
3.92867	28
3.93233	28
3.93600	28
3.93967	28
3.94333	28
3.94700	28
3.95067	28
3.95433	28
3.95800	28
3.96167	28
3.96533	28
3.96900	28
3.97267	28
3.97633	28
3.98000	28
3.98367	28
3.98733	28
3.99100	28
3.99467	28
3.99833	28

[Chromatogram (Ch3)]
Interval(msec)	220
# of Points	1091
Start Time(min)	0.002
End Time(min)	3.998
R.Time (min)	Intensity
0.00167	0
0.00533	-0
0.00900	-0
0.01267	-0
0.01633	0
0.02000	1
0.02367	1
0.02733	0
0.03100	2
0.03467	2
0.03833	-0
0.04200	-3
0.04567	-5
0.04933	-5
0.05300	-6
0.05667	-4
0.06033	-3
0.06400	-1
0.06767	-1
0.07133	-1
0.07500	-0
0.07867	-1
0.08233	0
0.08600	2
0.08967	1
0.09333	-1
0.09700	-2
0.10067	-3
0.10433	-4
0.10800	-5
0.11167	-5
0.11533	-1
0.11900	2
0.12267	4
0.12633	3
0.13000	2
0.13367	3
0.13733	4
0.14100	5
0.14467	5
0.14833	4
0.15200	4
0.15567	5
0.15933	4
0.16300	2
0.16667	1
0.17033	1
0.17400	2
0.17767	3
0.18133	2
0.18500	2
0.18867	2
0.19233	4
0.19600	6
0.19967	8
0.20333	8
0.20700	6
0.21067	8
0.21433	9
0.21800	9
0.22167	9
0.22533	9
0.22900	8
0.23267	7
0.23633	3
0.24000	0
0.24367	-1
0.24733	-0
0.25100	-0
0.25467	0
0.25833	2
0.26200	5
0.26567	8
0.26933	9
0.27300	8
0.27667	7
0.28033	5
0.28400	3
0.28767	2
0.29133	1
0.29500	2
0.29867	2
0.30233	2
0.30600	4
0.30967	6
0.31333	7
0.31700	8
0.32067	8
0.32433	9
0.32800	10
0.33167	11
0.33533	9
0.33900	9
0.34267	9
0.34633	8
0.35000	7
0.35367	6
0.35733	6
0.36100	8
0.36467	11
0.36833	12
0.37200	11
0.37567	10
0.37933	12
0.38300	13
0.38667	14
0.39033	14
0.39400	14
0.39767	13
0.40133	11
0.40500	8
0.40867	6
0.41233	4
0.41600	1
0.41967	-1
0.42333	-0
0.42700	2
0.43067	4
0.43433	7
0.43800	6
0.44167	7
0.44533	8
0.44900	8
0.45267	6
0.45633	3
0.46000	3
0.46367	2
0.46733	2
0.47100	3
0.47467	2
0.47833	2
0.48200	3
0.48567	4
0.48933	4
0.49300	4
0.49667	6
0.50033	6
0.50400	5
0.50767	6
0.51133	8
0.51500	10
0.51867	10
0.52233	8
0.52600	9
0.52967	12
0.53333	14
0.53700	13
0.54067	12
0.54433	10
0.54800	9
0.55167	9
0.55533	11
0.55900	12
0.56267	11
0.56633	12
0.57000	14
0.57367	14
0.57733	12
0.58100	10
0.58467	8
0.58833	9
0.59200	8
0.59567	5
0.59933	6
0.60300	8
0.60667	9
0.61033	10
0.61400	10
0.61767	10
0.62133	11
0.62500	10
0.62867	9
0.63233	9
0.63600	11
0.63967	12
0.64333	12
0.64700	12
0.65067	14
0.65433	15
0.65800	14
0.66167	12
0.66533	14
0.66900	14
0.67267	14
0.67633	14
0.68000	15
0.68367	16
0.68733	15
0.69100	13
0.69467	11
0.69833	10
0.70200	10
0.70567	12
0.70933	12
0.71300	12
0.71667	12
0.72033	10
0.72400	10
0.72767	10
0.73133	12
0.73500	13
0.73867	12
0.74233	12
0.74600	13
0.74967	14
0.75333	16
0.75700	17
0.76067	18
0.76433	18
0.76800	20
0.77167	22
0.77533	22
0.77900	22
0.78267	21
0.78633	19
0.79000	18
0.79367	19
0.79733	20
0.80100	19
0.80467	17
0.80833	15
0.81200	15
0.81567	16
0.81933	14
0.82300	13
0.82667	14
0.83033	14
0.83400	15
0.83767	14
0.84133	13
0.84500	14
0.84867	14
0.85233	16
0.85600	19
0.85967	20
0.86333	21
0.86700	22
0.87067	24
0.87433	23
0.87800	22
0.88167	20
0.88533	19
0.88900	19
0.89267	19
0.89633	20
0.90000	21
0.90367	22
0.90733	20
0.91100	17
0.91467	16
0.91833	15
0.92200	15
0.92567	14
0.92933	14
0.93300	14
0.93667	14
0.94033	13
0.94400	14
0.94767	16
0.95133	17
0.95500	17
0.95867	15
0.96233	14
0.96600	16
0.96967	19
0.97333	21
0.97700	20
0.98067	20
0.98433	20
0.98800	21
0.99167	21
0.99533	20
0.99900	19
1.00267	16
1.00633	16
1.01000	16
1.01367	16
1.01733	17
1.02100	18
1.02467	20
1.02833	21
1.03200	21
1.03567	21
1.03933	22
1.04300	22
1.04667	23
1.05033	23
1.05400	25
1.05767	24
1.06133	22
1.06500	20
1.06867	19
1.07233	20
1.07600	20
1.07967	20
1.08333	21
1.08700	22
1.09067	23
1.09433	24
1.09800	23
1.10167	22
1.10533	23
1.10900	24
1.11267	23
1.11633	23
1.12000	22
1.12367	21
1.12733	21
1.13100	21
1.13467	21
1.13833	21
1.14200	25
1.14567	29
1.14933	31
1.15300	30
1.15667	28
1.16033	26
1.16400	25
1.16767	25
1.17133	24
1.17500	24
1.17867	22
1.18233	22
1.18600	22
1.18967	23
1.19333	24
1.19700	23
1.20067	22
1.20433	22
1.20800	21
1.21167	21
1.21533	24
1.21900	27
1.22267	30
1.22633	30
1.23000	28
1.23367	27
1.23733	25
1.24100	24
1.24467	25
1.24833	27
1.25200	28
1.25567	26
1.25933	22
1.26300	20
1.26667	20
1.27033	21
1.27400	21
1.27767	22
1.28133	22
1.28500	21
1.28867	21
1.29233	22
1.29600	25
1.29967	27
1.30333	28
1.30700	29
1.31067	31
1.31433	30
1.31800	29
1.32167	25
1.32533	22
1.32900	22
1.33267	22
1.33633	22
1.34000	21
1.34367	19
1.34733	18
1.35100	20
1.35467	21
1.35833	21
1.36200	21
1.36567	21
1.36933	21
1.37300	22
1.37667	23
1.38033	22
1.38400	20
1.38767	19
1.39133	18
1.39500	18
1.39867	18
1.40233	16
1.40600	16
1.40967	18
1.41333	18
1.41700	19
1.42067	18
1.42433	20
1.42800	21
1.43167	19
1.43533	17
1.43900	17
1.44267	18
1.44633	18
1.45000	20
1.45367	20
1.45733	20
1.46100	22
1.46467	23
1.46833	25
1.47200	24
1.47567	23
1.47933	23
1.48300	23
1.48667	22
1.49033	20
1.49400	18
1.49767	19
1.50133	20
1.50500	21
1.50867	21
1.51233	18
1.51600	18
1.51967	20
1.52333	21
1.52700	23
1.53067	25
1.53433	25
1.53800	24
1.54167	25
1.54533	25
1.54900	27
1.55267	28
1.55633	29
1.56000	28
1.56367	28
1.56733	26
1.57100	23
1.57467	21
1.57833	21
1.58200	21
1.58567	19
1.58933	18
1.59300	19
1.59667	21
1.60033	23
1.60400	24
1.60767	23
1.61133	23
1.61500	22
1.61867	22
1.62233	21
1.62600	21
1.62967	23
1.63333	25
1.63700	24
1.64067	24
1.64433	23
1.64800	20
1.65167	19
1.65533	21
1.65900	23
1.66267	25
1.66633	27
1.67000	26
1.67367	25
1.67733	26
1.68100	28
1.68467	30
1.68833	30
1.69200	30
1.69567	32
1.69933	36
1.70300	39
1.70667	38
1.71033	37
1.71400	37
1.71767	37
1.72133	36
1.72500	38
1.72867	39
1.73233	38
1.73600	40
1.73967	41
1.74333	42
1.74700	41
1.75067	41
1.75433	40
1.75800	41
1.76167	43
1.76533	45
1.76900	46
1.77267	45
1.77633	44
1.78000	42
1.78367	40
1.78733	42
1.79100	43
1.79467	43
1.79833	43
1.80200	42
1.80567	44
1.80933	43
1.81300	42
1.81667	42
1.82033	44
1.82400	46
1.82767	47
1.83133	47
1.83500	47
1.83867	48
1.84233	50
1.84600	51
1.84967	52
1.85333	53
1.85700	52
1.86067	54
1.86433	56
1.86800	56
1.87167	54
1.87533	54
1.87900	55
1.88267	54
1.88633	54
1.89000	52
1.89367	49
1.89733	48
1.90100	48
1.90467	49
1.90833	52
1.91200	54
1.91567	54
1.91933	55
1.92300	57
1.92667	59
1.93033	61
1.93400	60
1.93767	59
1.94133	60
1.94500	61
1.94867	62
1.95233	64
1.95600	66
1.95967	66
1.96333	67
1.96700	68
1.97067	69
1.97433	69
1.97800	67
1.98167	67
1.98533	70
1.98900	71
1.99267	73
1.99633	73
2.00000	73
2.00367	74
2.00733	76
2.01100	77
2.01467	79
2.01833	82
2.02200	83
2.02567	83
2.02933	83
2.03300	85
2.03667	86
2.04033	85
2.04400	84
2.04767	85
2.05133	86
2.05500	87
2.05867	88
2.06233	90
2.06600	90
2.06967	93
2.07333	97
2.07700	97
2.08067	97
2.08433	96
2.08800	93
2.09167	92
2.09533	92
2.09900	95
2.10267	98
2.10633	99
2.11000	99
2.11367	101
2.11733	103
2.12100	104
2.12467	104
2.12833	104
2.13200	104
2.13567	102
2.13933	102
2.14300	103
2.14667	103
2.15033	104
2.15400	105
2.15767	108
2.16133	112
2.16500	114
2.16867	115
2.17233	116
2.17600	115
2.17967	114
2.18333	113
2.18700	112
2.19067	111
2.19433	112
2.19800	114
2.20167	115
2.20533	116
2.20900	116
2.21267	116
2.21633	116
2.22000	116
2.22367	115
2.22733	115
2.23100	117
2.23467	119
2.23833	119
2.24200	120
2.24567	124
2.24933	128
2.25300	130
2.25667	129
2.26033	130
2.26400	130
2.26767	129
2.27133	129
2.27500	130
2.27867	129
2.28233	130
2.28600	130
2.28967	130
2.29333	132
2.29700	134
2.30067	132
2.30433	130
2.30800	129
2.31167	130
2.31533	132
2.31900	133
2.32267	135
2.32633	138
2.33000	139
2.33367	137
2.33733	134
2.34100	133
2.34467	135
2.34833	136
2.35200	138
2.35567	141
2.35933	145
2.36300	147
2.36667	146
2.37033	143
2.37400	143
2.37767	144
2.38133	144
2.38500	143
2.38867	140
2.39233	138
2.39600	138
2.39967	138
2.40333	140
2.40700	142
2.41067	144
2.41433	146
2.41800	145
2.42167	144
2.42533	142
2.42900	144
2.43267	147
2.43633	146
2.44000	150
2.44367	188
2.44733	261
2.45100	329
2.45467	379
2.45833	393
2.46200	380
2.46567	360
2.46933	346
2.47300	333
2.47667	315
2.48033	291
2.48400	263
2.48767	235
2.49133	210
2.49500	188
2.49867	177
2.50233	172
2.50600	171
2.50967	175
2.51333	177
2.51700	182
2.52067	185
2.52433	183
2.52800	176
2.53167	165
2.53533	151
2.53900	137
2.54267	126
2.54633	117
2.55000	109
2.55367	103
2.55733	98
2.56100	95
2.56467	94
2.56833	93
2.57200	93
2.57567	93
2.57933	94
2.58300	97
2.58667	100
2.59033	103
2.59400	105
2.59767	110
2.60133	118
2.60500	124
2.60867	130
2.61233	136
2.61600	142
2.61967	142
2.62333	139
2.62700	135
2.63067	127
2.63433	118
2.63800	109
2.64167	98
2.64533	88
2.64900	78
2.65267	68
2.65633	60
2.66000	52
2.66367	45
2.66733	40
2.67100	38
2.67467	38
2.67833	38
2.68200	37
2.68567	35
2.68933	35
2.69300	37
2.69667	39
2.70033	39
2.70400	39
2.70767	42
2.71133	44
2.71500	45
2.71867	45
2.72233	45
2.72600	48
2.72967	48
2.73333	49
2.73700	50
2.74067	51
2.74433	52
2.74800	54
2.75167	54
2.75533	53
2.75900	55
2.76267	56
2.76633	58
2.77000	62
2.77367	64
2.77733	68
2.78100	70
2.78467	73
2.78833	76
2.79200	79
2.79567	81
2.79933	83
2.80300	83
2.80667	83
2.81033	84
2.81400	86
2.81767	88
2.82133	91
2.82500	92
2.82867	93
2.83233	99
2.83600	109
2.83967	134
2.84333	184
2.84700	278
2.85067	441
2.85433	694
2.85800	1047
2.86167	1498
2.86533	2027
2.86900	2598
2.87267	3169
2.87633	3687
2.88000	4113
2.88367	4418
2.88733	4584
2.89100	4614
2.89467	4522
2.89833	4328
2.90200	4063
2.90567	3757
2.90933	3429
2.91300	3095
2.91667	2769
2.92033	2459
2.92400	2173
2.92767	1916
2.93133	1683
2.93500	1474
2.93867	1291
2.94233	1128
2.94600	985
2.94967	858
2.95333	749
2.95700	654
2.96067	573
2.96433	504
2.96800	441
2.97167	370
2.97533	304
2.97900	260
2.98267	239
2.98633	233
2.99000	236
2.99367	248
2.99733	264
3.00100	284
3.00467	307
3.00833	332
3.01200	356
3.01567	378
3.01933	397
3.02300	414
3.02667	432
3.03033	448
3.03400	462
3.03767	474
3.04133	483
3.04500	491
3.04867	494
3.05233	499
3.05600	504
3.05967	507
3.06333	511
3.06700	513
3.07067	514
3.07433	513
3.07800	513
3.08167	513
3.08533	515
3.08900	517
3.09267	519
3.09633	521
3.10000	520
3.10367	520
3.10733	523
3.11100	524
3.11467	523
3.11833	524
3.12200	524
3.12567	526
3.12933	528
3.13300	531
3.13667	532
3.14033	531
3.14400	531
3.14767	533
3.15133	537
3.15500	538
3.15867	541
3.16233	544
3.16600	549
3.16967	552
3.17333	554
3.17700	556
3.18067	558
3.18433	559
3.18800	562
3.19167	563
3.19533	564
3.19900	568
3.20267	574
3.20633	578
3.21000	580
3.21367	584
3.21733	586
3.22100	586
3.22467	587
3.22833	588
3.23200	589
3.23567	591
3.23933	593
3.24300	593
3.24667	593
3.25033	595
3.25400	596
3.25767	598
3.26133	599
3.26500	596
3.26867	595
3.27233	592
3.27600	592
3.27967	591
3.28333	589
3.28700	584
3.29067	579
3.29433	575
3.29800	571
3.30167	570
3.30533	569
3.30900	566
3.31267	562
3.31633	560
3.32000	558
3.32367	555
3.32733	550
3.33100	546
3.33467	544
3.33833	542
3.34200	539
3.34567	538
3.34933	536
3.35300	535
3.35667	533
3.36033	529
3.36400	525
3.36767	521
3.37133	517
3.37500	515
3.37867	515
3.38233	515
3.38600	515
3.38967	514
3.39333	514
3.39700	513
3.40067	512
3.40433	510
3.40800	508
3.41167	505
3.41533	502
3.41900	500
3.42267	497
3.42633	496
3.43000	494
3.43367	491
3.43733	488
3.44100	486
3.44467	485
3.44833	485
3.45200	483
3.45567	480
3.45933	478
3.46300	478
3.46667	478
3.47033	479
3.47400	478
3.47767	474
3.48133	472
3.48500	471
3.48867	469
3.49233	467
3.49600	467
3.49967	463
3.50333	460
3.50700	455
3.51067	450
3.51433	447
3.51800	445
3.52167	443
3.52533	441
3.52900	441
3.53267	442
3.53633	443
3.54000	443
3.54367	442
3.54733	440
3.55100	437
3.55467	435
3.55833	435
3.56200	435
3.56567	433
3.56933	433
3.57300	430
3.57667	428
3.58033	424
3.58400	420
3.58767	419
3.59133	419
3.59500	421
3.59867	421
3.60233	421
3.60600	419
3.60967	417
3.61333	415
3.61700	413
3.62067	411
3.62433	410
3.62800	408
3.63167	405
3.63533	403
3.63900	402
3.64267	403
3.64633	404
3.65000	405
3.65367	404
3.65733	404
3.66100	401
3.66467	398
3.66833	396
3.67200	393
3.67567	390
3.67933	388
3.68300	388
3.68667	389
3.69033	391
3.69400	392
3.69767	391
3.70133	388
3.70500	384
3.70867	381
3.71233	379
3.71600	380
3.71967	382
3.72333	381
3.72700	378
3.73067	375
3.73433	373
3.73800	372
3.74167	370
3.74533	368
3.74900	368
3.75267	370
3.75633	371
3.76000	369
3.76367	367
3.76733	366
3.77100	366
3.77467	367
3.77833	366
3.78200	364
3.78567	364
3.78933	365
3.79300	364
3.79667	363
3.80033	365
3.80400	367
3.80767	367
3.81133	365
3.81500	364
3.81867	363
3.82233	361
3.82600	359
3.82967	357
3.83333	356
3.83700	357
3.84067	357
3.84433	355
3.84800	354
3.85167	351
3.85533	349
3.85900	348
3.86267	348
3.86633	347
3.87000	345
3.87367	344
3.87733	341
3.88100	339
3.88467	340
3.88833	343
3.89200	345
3.89567	344
3.89933	344
3.90300	343
3.90667	341
3.91033	340
3.91400	338
3.91767	336
3.92133	337
3.92500	337
3.92867	336
3.93233	337
3.93600	338
3.93967	338
3.94333	337
3.94700	338
3.95067	337
3.95433	334
3.95800	331
3.96167	329
3.96533	329
3.96900	327
3.97267	329
3.97633	330
3.98000	330
3.98367	328
3.98733	327
3.99100	328
3.99467	327
3.99833	326

[Status Trace (Column Oven Temperature)]
Interval(msec)	1000
# of Points	240
Start Time(min)	0.006
End Time(min)	3.989
Intensity Units	
Intensity Multiplier	1
R.Time (min)	Intensity
0.00572	35.04
0.02238	35.04
0.03905	35.04
0.05572	35.03
0.07238	35.02
0.08905	35.01
0.10572	35.02
0.12238	35.02
0.13905	35.03
0.15572	35.04
0.17238	35.05
0.18905	35.06
0.20572	35.05
0.22238	35.04
0.23905	35.02
0.25572	35.00
0.27238	35.00
0.28905	34.99
0.30572	34.99
0.32238	35.00
0.33905	35.00
0.35572	35.01
0.37238	35.02
0.38905	35.01
0.40572	35.01
0.42238	35.02
0.43905	35.00
0.45572	35.01
0.47238	35.03
0.48905	35.04
0.50572	35.05
0.52238	35.05
0.53905	35.06
0.55572	35.07
0.57238	35.06
0.58905	35.05
0.60572	35.03
0.62238	35.02
0.63905	35.00
0.65572	35.00
0.67238	34.99
0.68905	34.98
0.70572	34.98
0.72238	34.99
0.73905	34.99
0.75572	35.00
0.77238	35.00
0.78905	35.00
0.80572	35.01
0.82238	35.00
0.83905	34.99
0.85572	34.98
0.87238	34.99
0.88905	34.97
0.90572	34.97
0.92238	34.96
0.93905	34.96
0.95572	34.96
0.97238	34.95
0.98905	34.95
1.00572	34.96
1.02238	34.97
1.03905	34.98
1.05572	34.98
1.07238	34.98
1.08905	34.98
1.10572	34.97
1.12238	34.98
1.13905	34.98
1.15572	34.98
1.17238	34.98
1.18905	34.98
1.20572	34.98
1.22238	34.99
1.23905	34.99
1.25572	35.00
1.27238	35.01
1.28905	35.01
1.30572	35.02
1.32238	35.02
1.33905	35.01
1.35572	34.99
1.37238	34.99
1.38905	34.98
1.40572	34.99
1.42238	34.98
1.43905	34.97
1.45572	34.97
1.47238	34.97
1.48905	34.97
1.50572	34.98
1.52238	34.97
1.53905	34.97
1.55572	34.98
1.57238	34.98
1.58905	35.00
1.60572	35.05
1.62238	35.16
1.63905	35.34
1.65572	35.57
1.67238	35.90
1.68905	36.26
1.70572	36.61
1.72238	36.97
1.73905	37.31
1.75572	37.62
1.77238	37.93
1.78905	38.28
1.80572	38.60
1.82238	38.93
1.83905	39.27
1.85572	39.60
1.87238	39.93
1.88905	40.26
1.90572	40.58
1.92238	40.91
1.93905	41.24
1.95572	41.58
1.97238	41.90
1.98905	42.21
2.00572	42.54
2.02238	42.87
2.03905	43.20
2.05572	43.53
2.07238	43.85
2.08905	44.16
2.10572	44.51
2.12238	44.81
2.13905	45.16
2.15572	45.47
2.17238	45.80
2.18905	46.12
2.20572	46.46
2.22238	46.78
2.23905	47.09
2.25572	47.44
2.27238	47.76
2.28905	48.10
2.30572	48.46
2.32238	48.79
2.33905	49.11
2.35572	49.39
2.37238	49.60
2.38905	49.65
2.40572	49.65
2.42238	49.65
2.43905	49.66
2.45572	49.66
2.47238	49.68
2.48905	49.69
2.50572	49.70
2.52238	49.70
2.53905	49.71
2.55572	49.73
2.57238	49.76
2.58905	49.76
2.60572	49.78
2.62238	49.78
2.63905	49.83
2.65572	49.85
2.67238	49.85
2.68905	49.85
2.70572	49.85
2.72238	49.86
2.73905	49.85
2.75572	49.84
2.77238	49.87
2.78905	49.88
2.80572	49.89
2.82238	49.89
2.83905	49.88
2.85572	49.87
2.87238	49.87
2.88905	49.87
2.90572	49.89
2.92238	49.89
2.93905	49.90
2.95572	49.92
2.97238	49.94
2.98905	49.96
3.00572	49.98
3.02238	50.00
3.03905	50.01
3.05572	50.01
3.07238	50.02
3.08905	50.02
3.10572	50.03
3.12238	50.04
3.13905	50.05
3.15572	50.06
3.17238	50.07
3.18905	50.06
3.20572	50.07
3.22238	50.06
3.23905	50.07
3.25572	50.07
3.27238	50.08
3.28905	50.08
3.30572	50.09
3.32238	50.10
3.33905	50.10
3.35572	50.11
3.37238	50.11
3.38905	50.11
3.40572	50.10
3.42238	50.08
3.43905	50.06
3.45572	50.05
3.47238	50.04
3.48905	50.03
3.50572	50.02
3.52238	50.01
3.53905	50.01
3.55572	50.01
3.57238	50.02
3.58905	50.03
3.60572	50.04
3.62238	50.05
3.63905	50.05
3.65572	50.05
3.67238	50.05
3.68905	50.04
3.70572	50.03
3.72238	50.03
3.73905	50.03
3.75572	50.03
3.77238	50.05
3.78905	50.06
3.80572	50.07
3.82238	50.08
3.83905	50.08
3.85572	50.09
3.87238	50.08
3.88905	50.08
3.90572	50.07
3.92238	50.06
3.93905	50.06
3.95572	50.06
3.97238	50.06
3.98905	50.06

[Status Trace (Injection Unit Temperature)]
Interval(msec)	1000
# of Points	240
Start Time(min)	0.006
End Time(min)	3.989
Intensity Units	
Intensity Multiplier	1
R.Time (min)	Intensity
0.00572	99.98
0.02238	99.98
0.03905	99.98
0.05572	99.98
0.07238	99.98
0.08905	99.98
0.10572	99.98
0.12238	99.98
0.13905	99.98
0.15572	99.98
0.17238	99.98
0.18905	99.98
0.20572	99.98
0.22238	99.98
0.23905	99.98
0.25572	99.98
0.27238	99.98
0.28905	99.98
0.30572	99.98
0.32238	99.98
0.33905	99.98
0.35572	99.98
0.37238	99.98
0.38905	99.98
0.40572	99.98
0.42238	99.98
0.43905	99.98
0.45572	99.98
0.47238	99.98
0.48905	99.98
0.50572	99.98
0.52238	99.98
0.53905	99.98
0.55572	99.98
0.57238	99.98
0.58905	99.98
0.60572	99.98
0.62238	99.99
0.63905	99.98
0.65572	99.98
0.67238	99.99
0.68905	99.99
0.70572	99.99
0.72238	99.99
0.73905	99.99
0.75572	99.99
0.77238	99.99
0.78905	99.99
0.80572	99.98
0.82238	99.98
0.83905	99.99
0.85572	99.99
0.87238	99.98
0.88905	99.99
0.90572	99.99
0.92238	99.99
0.93905	99.99
0.95572	99.99
0.97238	99.99
0.98905	99.99
1.00572	99.99
1.02238	99.99
1.03905	99.99
1.05572	99.99
1.07238	99.99
1.08905	99.98
1.10572	99.99
1.12238	99.99
1.13905	99.99
1.15572	99.99
1.17238	99.99
1.18905	99.99
1.20572	99.99
1.22238	99.99
1.23905	99.99
1.25572	99.98
1.27238	99.99
1.28905	99.98
1.30572	99.98
1.32238	99.99
1.33905	99.98
1.35572	99.98
1.37238	99.98
1.38905	99.99
1.40572	99.99
1.42238	99.98
1.43905	99.98
1.45572	99.99
1.47238	99.98
1.48905	99.98
1.50572	99.98
1.52238	99.98
1.53905	99.98
1.55572	99.98
1.57238	99.99
1.58905	99.98
1.60572	99.99
1.62238	99.98
1.63905	99.98
1.65572	99.98
1.67238	99.99
1.68905	99.98
1.70572	99.99
1.72238	99.98
1.73905	99.98
1.75572	99.98
1.77238	99.98
1.78905	99.98
1.80572	99.98
1.82238	99.98
1.83905	99.98
1.85572	99.98
1.87238	99.98
1.88905	99.98
1.90572	99.98
1.92238	99.98
1.93905	99.97
1.95572	99.98
1.97238	99.97
1.98905	99.98
2.00572	99.98
2.02238	99.97
2.03905	99.98
2.05572	99.97
2.07238	99.97
2.08905	99.97
2.10572	99.97
2.12238	99.97
2.13905	99.97
2.15572	99.97
2.17238	99.96
2.18905	99.97
2.20572	99.97
2.22238	99.96
2.23905	99.96
2.25572	99.96
2.27238	99.96
2.28905	99.96
2.30572	99.96
2.32238	99.96
2.33905	99.96
2.35572	99.96
2.37238	99.96
2.38905	99.96
2.40572	99.96
2.42238	99.96
2.43905	99.96
2.45572	99.96
2.47238	99.96
2.48905	99.96
2.50572	99.96
2.52238	99.96
2.53905	99.96
2.55572	99.97
2.57238	99.97
2.58905	99.97
2.60572	99.97
2.62238	99.97
2.63905	99.97
2.65572	99.98
2.67238	99.97
2.68905	99.98
2.70572	99.98
2.72238	99.98
2.73905	99.98
2.75572	99.98
2.77238	99.98
2.78905	99.99
2.80572	99.99
2.82238	99.99
2.83905	100.00
2.85572	100.00
2.87238	100.00
2.88905	100.00
2.90572	100.00
2.92238	100.00
2.93905	100.00
2.95572	100.00
2.97238	100.01
2.98905	100.01
3.00572	100.01
3.02238	100.01
3.03905	100.01
3.05572	100.01
3.07238	100.02
3.08905	100.02
3.10572	100.02
3.12238	100.02
3.13905	100.02
3.15572	100.02
3.17238	100.02
3.18905	100.03
3.20572	100.03
3.22238	100.02
3.23905	100.02
3.25572	100.02
3.27238	100.03
3.28905	100.03
3.30572	100.03
3.32238	100.03
3.33905	100.03
3.35572	100.03
3.37238	100.03
3.38905	100.03
3.40572	100.04
3.42238	100.03
3.43905	100.03
3.45572	100.04
3.47238	100.04
3.48905	100.04
3.50572	100.05
3.52238	100.04
3.53905	100.04
3.55572	100.04
3.57238	100.04
3.58905	100.05
3.60572	100.05
3.62238	100.05
3.63905	100.05
3.65572	100.05
3.67238	100.05
3.68905	100.05
3.70572	100.05
3.72238	100.05
3.73905	100.05
3.75572	100.05
3.77238	100.05
3.78905	100.05
3.80572	100.05
3.82238	100.05
3.83905	100.05
3.85572	100.05
3.87238	100.05
3.88905	100.06
3.90572	100.05
3.92238	100.05
3.93905	100.05
3.95572	100.05
3.97238	100.06
3.98905	100.05

[Status Trace (Carrier Gas Pressure)]
Interval(msec)	1000
# of Points	240
Start Time(min)	0.006
End Time(min)	3.989
Intensity Units	
Intensity Multiplier	1
R.Time (min)	Intensity
0.00572	58.00
0.02238	55.76
0.03905	56.84
0.05572	59.11
0.07238	59.57
0.08905	58.10
0.10572	57.98
0.12238	58.01
0.13905	58.01
0.15572	58.01
0.17238	58.00
0.18905	58.00
0.20572	58.00
0.22238	58.00
0.23905	58.00
0.25572	58.00
0.27238	58.00
0.28905	58.00
0.30572	58.00
0.32238	58.00
0.33905	58.00
0.35572	58.00
0.37238	58.00
0.38905	58.00
0.40572	58.00
0.42238	58.00
0.43905	58.00
0.45572	58.00
0.47238	58.00
0.48905	58.00
0.50572	58.00
0.52238	58.00
0.53905	58.00
0.55572	58.00
0.57238	58.00
0.58905	58.00
0.60572	58.00
0.62238	58.00
0.63905	58.00
0.65572	58.00
0.67238	58.00
0.68905	58.00
0.70572	58.00
0.72238	58.00
0.73905	58.00
0.75572	58.00
0.77238	58.00
0.78905	58.00
0.80572	58.00
0.82238	58.00
0.83905	58.00
0.85572	58.00
0.87238	58.00
0.88905	58.00
0.90572	58.00
0.92238	58.00
0.93905	58.00
0.95572	58.00
0.97238	58.00
0.98905	58.00
1.00572	58.00
1.02238	58.00
1.03905	58.00
1.05572	58.00
1.07238	58.00
1.08905	58.00
1.10572	58.00
1.12238	58.00
1.13905	58.00
1.15572	58.00
1.17238	58.00
1.18905	58.00
1.20572	58.00
1.22238	58.00
1.23905	58.00
1.25572	58.00
1.27238	58.00
1.28905	58.00
1.30572	58.00
1.32238	58.00
1.33905	58.00
1.35572	58.00
1.37238	58.00
1.38905	58.00
1.40572	58.00
1.42238	58.00
1.43905	58.00
1.45572	58.00
1.47238	58.00
1.48905	58.00
1.50572	58.00
1.52238	58.00
1.53905	58.00
1.55572	58.00
1.57238	58.00
1.58905	58.00
1.60572	58.00
1.62238	58.00
1.63905	58.00
1.65572	58.00
1.67238	58.01
1.68905	58.00
1.70572	58.00
1.72238	58.00
1.73905	58.00
1.75572	58.00
1.77238	58.00
1.78905	58.00
1.80572	58.00
1.82238	58.00
1.83905	58.00
1.85572	58.00
1.87238	58.00
1.88905	58.00
1.90572	58.00
1.92238	58.00
1.93905	58.00
1.95572	58.00
1.97238	58.00
1.98905	58.00
2.00572	58.00
2.02238	58.00
2.03905	58.00
2.05572	58.00
2.07238	58.00
2.08905	58.00
2.10572	58.00
2.12238	58.00
2.13905	58.00
2.15572	58.00
2.17238	58.00
2.18905	58.00
2.20572	58.00
2.22238	58.00
2.23905	58.00
2.25572	58.00
2.27238	58.00
2.28905	58.00
2.30572	58.00
2.32238	58.00
2.33905	58.00
2.35572	58.00
2.37238	58.00
2.38905	57.99
2.40572	57.99
2.42238	58.00
2.43905	58.00
2.45572	58.00
2.47238	58.00
2.48905	58.00
2.50572	57.99
2.52238	57.99
2.53905	58.00
2.55572	58.00
2.57238	58.00
2.58905	58.00
2.60572	58.00
2.62238	58.00
2.63905	58.00
2.65572	58.00
2.67238	58.00
2.68905	58.00
2.70572	58.00
2.72238	58.00
2.73905	58.00
2.75572	58.00
2.77238	58.00
2.78905	58.00
2.80572	58.00
2.82238	58.00
2.83905	58.00
2.85572	58.00
2.87238	58.00
2.88905	58.00
2.90572	58.00
2.92238	58.00
2.93905	58.00
2.95572	58.00
2.97238	58.00
2.98905	58.00
3.00572	58.00
3.02238	58.00
3.03905	58.00
3.05572	58.00
3.07238	58.00
3.08905	58.00
3.10572	58.00
3.12238	58.00
3.13905	58.00
3.15572	58.00
3.17238	58.00
3.18905	58.00
3.20572	58.00
3.22238	58.00
3.23905	58.00
3.25572	58.00
3.27238	58.00
3.28905	58.00
3.30572	58.00
3.32238	58.00
3.33905	58.00
3.35572	58.00
3.37238	58.00
3.38905	58.00
3.40572	58.00
3.42238	58.00
3.43905	58.00
3.45572	58.00
3.47238	58.00
3.48905	58.00
3.50572	58.00
3.52238	58.00
3.53905	58.00
3.55572	58.00
3.57238	58.00
3.58905	58.00
3.60572	58.00
3.62238	58.00
3.63905	58.00
3.65572	58.00
3.67238	58.00
3.68905	58.00
3.70572	58.00
3.72238	58.00
3.73905	58.00
3.75572	58.00
3.77238	58.00
3.78905	58.00
3.80572	58.00
3.82238	58.00
3.83905	58.00
3.85572	58.00
3.87238	58.00
3.88905	58.00
3.90572	58.00
3.92238	58.00
3.93905	58.00
3.95572	58.00
3.97238	58.00
3.98905	58.00

[Status Trace (Carrier Gas Flow)]
Interval(msec)	1000
# of Points	240
Start Time(min)	0.006
End Time(min)	3.989
Intensity Units	
Intensity Multiplier	1
R.Time (min)	Intensity
0.00572	34.51
0.02238	34.54
0.03905	34.55
0.05572	34.55
0.07238	34.50
0.08905	34.52
0.10572	34.52
0.12238	34.52
0.13905	34.52
0.15572	34.52
0.17238	34.52
0.18905	34.52
0.20572	34.52
0.22238	34.52
0.23905	34.51
0.25572	34.52
0.27238	34.51
0.28905	34.52
0.30572	34.52
0.32238	34.52
0.33905	34.52
0.35572	34.52
0.37238	34.52
0.38905	34.51
0.40572	34.51
0.42238	34.52
0.43905	34.52
0.45572	34.52
0.47238	34.52
0.48905	34.52
0.50572	34.52
0.52238	34.53
0.53905	34.52
0.55572	34.52
0.57238	34.52
0.58905	34.51
0.60572	34.53
0.62238	34.52
0.63905	34.52
0.65572	34.52
0.67238	34.52
0.68905	34.51
0.70572	34.52
0.72238	34.53
0.73905	34.52
0.75572	34.52
0.77238	34.52
0.78905	34.52
0.80572	34.52
0.82238	34.52
0.83905	34.52
0.85572	34.52
0.87238	34.52
0.88905	34.52
0.90572	34.52
0.92238	34.51
0.93905	34.52
0.95572	34.52
0.97238	34.52
0.98905	34.52
1.00572	34.51
1.02238	34.52
1.03905	34.52
1.05572	34.51
1.07238	34.52
1.08905	34.52
1.10572	34.52
1.12238	34.52
1.13905	34.52
1.15572	34.52
1.17238	34.52
1.18905	34.52
1.20572	34.52
1.22238	34.52
1.23905	34.52
1.25572	34.52
1.27238	34.52
1.28905	34.52
1.30572	34.52
1.32238	34.52
1.33905	34.52
1.35572	34.52
1.37238	34.52
1.38905	34.52
1.40572	34.52
1.42238	34.52
1.43905	34.52
1.45572	34.51
1.47238	34.52
1.48905	34.52
1.50572	34.52
1.52238	34.52
1.53905	34.51
1.55572	34.53
1.57238	34.51
1.58905	34.52
1.60572	34.52
1.62238	34.52
1.63905	34.52
1.65572	34.51
1.67238	34.51
1.68905	34.52
1.70572	34.51
1.72238	34.52
1.73905	34.52
1.75572	34.52
1.77238	34.52
1.78905	34.52
1.80572	34.53
1.82238	34.52
1.83905	34.52
1.85572	34.52
1.87238	34.51
1.88905	34.53
1.90572	34.52
1.92238	34.52
1.93905	34.51
1.95572	34.51
1.97238	34.52
1.98905	34.52
2.00572	34.52
2.02238	34.52
2.03905	34.53
2.05572	34.52
2.07238	34.51
2.08905	34.51
2.10572	34.52
2.12238	34.51
2.13905	34.51
2.15572	34.51
2.17238	34.51
2.18905	34.51
2.20572	34.51
2.22238	34.51
2.23905	34.51
2.25572	34.52
2.27238	34.51
2.28905	34.52
2.30572	34.52
2.32238	34.52
2.33905	34.51
2.35572	34.52
2.37238	34.51
2.38905	34.52
2.40572	34.52
2.42238	34.52
2.43905	34.52
2.45572	34.52
2.47238	34.53
2.48905	34.52
2.50572	34.48
2.52238	34.52
2.53905	34.52
2.55572	34.52
2.57238	34.52
2.58905	34.52
2.60572	34.52
2.62238	34.52
2.63905	34.52
2.65572	34.52
2.67238	34.53
2.68905	34.52
2.70572	34.51
2.72238	34.52
2.73905	34.52
2.75572	34.52
2.77238	34.52
2.78905	34.52
2.80572	34.52
2.82238	34.52
2.83905	34.52
2.85572	34.52
2.87238	34.52
2.88905	34.51
2.90572	34.51
2.92238	34.52
2.93905	34.52
2.95572	34.52
2.97238	34.52
2.98905	34.52
3.00572	34.52
3.02238	34.52
3.03905	34.52
3.05572	34.52
3.07238	34.52
3.08905	34.52
3.10572	34.52
3.12238	34.52
3.13905	34.51
3.15572	34.51
3.17238	34.52
3.18905	34.52
3.20572	34.52
3.22238	34.52
3.23905	34.52
3.25572	34.52
3.27238	34.52
3.28905	34.52
3.30572	34.52
3.32238	34.52
3.33905	34.52
3.35572	34.52
3.37238	34.52
3.38905	34.52
3.40572	34.52
3.42238	34.52
3.43905	34.52
3.45572	34.52
3.47238	34.52
3.48905	34.52
3.50572	34.52
3.52238	34.52
3.53905	34.52
3.55572	34.53
3.57238	34.51
3.58905	34.52
3.60572	34.52
3.62238	34.52
3.63905	34.52
3.65572	34.51
3.67238	34.52
3.68905	34.52
3.70572	34.52
3.72238	34.52
3.73905	34.52
3.75572	34.52
3.77238	34.52
3.78905	34.52
3.80572	34.52
3.82238	34.52
3.83905	34.52
3.85572	34.52
3.87238	34.52
3.88905	34.51
3.90572	34.52
3.92238	34.52
3.93905	34.52
3.95572	34.51
3.97238	34.52
3.98905	34.52

[Status Trace (Column Flow)]
Interval(msec)	1000
# of Points	240
Start Time(min)	0.006
End Time(min)	3.989
Intensity Units	
Intensity Multiplier	1
R.Time (min)	Intensity
0.00572	5.52
0.02238	5.26
0.03905	5.39
0.05572	5.65
0.07238	5.71
0.08905	5.53
0.10572	5.52
0.12238	5.52
0.13905	5.52
0.15572	5.52
0.17238	5.52
0.18905	5.52
0.20572	5.52
0.22238	5.52
0.23905	5.52
0.25572	5.52
0.27238	5.52
0.28905	5.52
0.30572	5.52
0.32238	5.52
0.33905	5.52
0.35572	5.52
0.37238	5.52
0.38905	5.52
0.40572	5.52
0.42238	5.52
0.43905	5.52
0.45572	5.52
0.47238	5.52
0.48905	5.52
0.50572	5.52
0.52238	5.52
0.53905	5.52
0.55572	5.52
0.57238	5.52
0.58905	5.52
0.60572	5.52
0.62238	5.52
0.63905	5.52
0.65572	5.52
0.67238	5.52
0.68905	5.52
0.70572	5.52
0.72238	5.52
0.73905	5.52
0.75572	5.52
0.77238	5.52
0.78905	5.52
0.80572	5.52
0.82238	5.52
0.83905	5.52
0.85572	5.52
0.87238	5.52
0.88905	5.52
0.90572	5.52
0.92238	5.52
0.93905	5.52
0.95572	5.52
0.97238	5.52
0.98905	5.52
1.00572	5.52
1.02238	5.52
1.03905	5.52
1.05572	5.52
1.07238	5.52
1.08905	5.52
1.10572	5.52
1.12238	5.52
1.13905	5.52
1.15572	5.52
1.17238	5.52
1.18905	5.52
1.20572	5.52
1.22238	5.52
1.23905	5.52
1.25572	5.52
1.27238	5.52
1.28905	5.52
1.30572	5.52
1.32238	5.52
1.33905	5.52
1.35572	5.52
1.37238	5.52
1.38905	5.52
1.40572	5.52
1.42238	5.52
1.43905	5.52
1.45572	5.52
1.47238	5.52
1.48905	5.52
1.50572	5.52
1.52238	5.52
1.53905	5.52
1.55572	5.52
1.57238	5.52
1.58905	5.52
1.60572	5.52
1.62238	5.52
1.63905	5.51
1.65572	5.50
1.67238	5.49
1.68905	5.48
1.70572	5.47
1.72238	5.46
1.73905	5.45
1.75572	5.44
1.77238	5.43
1.78905	5.42
1.80572	5.41
1.82238	5.40
1.83905	5.39
1.85572	5.38
1.87238	5.37
1.88905	5.36
1.90572	5.35
1.92238	5.34
1.93905	5.33
1.95572	5.32
1.97238	5.31
1.98905	5.30
2.00572	5.29
2.02238	5.28
2.03905	5.27
2.05572	5.26
2.07238	5.25
2.08905	5.24
2.10572	5.23
2.12238	5.22
2.13905	5.22
2.15572	5.21
2.17238	5.20
2.18905	5.19
2.20572	5.18
2.22238	5.17
2.23905	5.16
2.25572	5.15
2.27238	5.14
2.28905	5.13
2.30572	5.12
2.32238	5.11
2.33905	5.10
2.35572	5.09
2.37238	5.09
2.38905	5.09
2.40572	5.09
2.42238	5.09
2.43905	5.09
2.45572	5.09
2.47238	5.09
2.48905	5.09
2.50572	5.09
2.52238	5.09
2.53905	5.09
2.55572	5.09
2.57238	5.09
2.58905	5.08
2.60572	5.08
2.62238	5.08
2.63905	5.08
2.65572	5.08
2.67238	5.08
2.68905	5.08
2.70572	5.08
2.72238	5.08
2.73905	5.08
2.75572	5.08
2.77238	5.08
2.78905	5.08
2.80572	5.08
2.82238	5.08
2.83905	5.08
2.85572	5.08
2.87238	5.08
2.88905	5.08
2.90572	5.08
2.92238	5.08
2.93905	5.08
2.95572	5.08
2.97238	5.08
2.98905	5.08
3.00572	5.08
3.02238	5.08
3.03905	5.08
3.05572	5.08
3.07238	5.08
3.08905	5.08
3.10572	5.08
3.12238	5.08
3.13905	5.08
3.15572	5.08
3.17238	5.08
3.18905	5.08
3.20572	5.08
3.22238	5.08
3.23905	5.08
3.25572	5.08
3.27238	5.08
3.28905	5.08
3.30572	5.08
3.32238	5.08
3.33905	5.08
3.35572	5.08
3.37238	5.08
3.38905	5.08
3.40572	5.08
3.42238	5.08
3.43905	5.08
3.45572	5.08
3.47238	5.08
3.48905	5.08
3.50572	5.08
3.52238	5.08
3.53905	5.08
3.55572	5.08
3.57238	5.08
3.58905	5.08
3.60572	5.08
3.62238	5.08
3.63905	5.08
3.65572	5.08
3.67238	5.08
3.68905	5.08
3.70572	5.08
3.72238	5.08
3.73905	5.08
3.75572	5.08
3.77238	5.08
3.78905	5.08
3.80572	5.08
3.82238	5.08
3.83905	5.08
3.85572	5.08
3.87238	5.08
3.88905	5.08
3.90572	5.08
3.92238	5.08
3.93905	5.08
3.95572	5.08
3.97238	5.08
3.98905	5.08

[Status Trace (Linear Velocity)]
Interval(msec)	1000
# of Points	240
Start Time(min)	0.006
End Time(min)	3.989
Intensity Units	
Intensity Multiplier	1
R.Time (min)	Intensity
0.00572	39.01
0.02238	37.54
0.03905	38.25
0.05572	39.74
0.07238	40.04
0.08905	39.08
0.10572	39.00
0.12238	39.02
0.13905	39.02
0.15572	39.02
0.17238	39.01
0.18905	39.01
0.20572	39.01
0.22238	39.01
0.23905	39.02
0.25572	39.02
0.27238	39.02
0.28905	39.02
0.30572	39.02
0.32238	39.02
0.33905	39.02
0.35572	39.01
0.37238	39.01
0.38905	39.02
0.40572	39.02
0.42238	39.02
0.43905	39.02
0.45572	39.02
0.47238	39.01
0.48905	39.01
0.50572	39.01
0.52238	39.01
0.53905	39.01
0.55572	39.01
0.57238	39.01
0.58905	39.01
0.60572	39.01
0.62238	39.02
0.63905	39.02
0.65572	39.02
0.67238	39.02
0.68905	39.02
0.70572	39.02
0.72238	39.02
0.73905	39.02
0.75572	39.02
0.77238	39.02
0.78905	39.02
0.80572	39.02
0.82238	39.02
0.83905	39.02
0.85572	39.02
0.87238	39.02
0.88905	39.02
0.90572	39.02
0.92238	39.02
0.93905	39.02
0.95572	39.02
0.97238	39.02
0.98905	39.02
1.00572	39.02
1.02238	39.02
1.03905	39.02
1.05572	39.02
1.07238	39.02
1.08905	39.02
1.10572	39.02
1.12238	39.02
1.13905	39.02
1.15572	39.02
1.17238	39.02
1.18905	39.02
1.20572	39.02
1.22238	39.02
1.23905	39.02
1.25572	39.02
1.27238	39.02
1.28905	39.02
1.30572	39.01
1.32238	39.01
1.33905	39.02
1.35572	39.02
1.37238	39.02
1.38905	39.02
1.40572	39.02
1.42238	39.02
1.43905	39.02
1.45572	39.02
1.47238	39.02
1.48905	39.02
1.50572	39.02
1.52238	39.02
1.53905	39.02
1.55572	39.02
1.57238	39.02
1.58905	39.02
1.60572	39.01
1.62238	39.00
1.63905	38.99
1.65572	38.96
1.67238	38.93
1.68905	38.90
1.70572	38.86
1.72238	38.83
1.73905	38.80
1.75572	38.77
1.77238	38.74
1.78905	38.70
1.80572	38.67
1.82238	38.64
1.83905	38.61
1.85572	38.58
1.87238	38.55
1.88905	38.52
1.90572	38.49
1.92238	38.46
1.93905	38.43
1.95572	38.39
1.97238	38.36
1.98905	38.34
2.00572	38.31
2.02238	38.28
2.03905	38.24
2.05572	38.21
2.07238	38.19
2.08905	38.16
2.10572	38.13
2.12238	38.10
2.13905	38.07
2.15572	38.04
2.17238	38.01
2.18905	37.98
2.20572	37.95
2.22238	37.92
2.23905	37.89
2.25572	37.86
2.27238	37.83
2.28905	37.80
2.30572	37.77
2.32238	37.74
2.33905	37.71
2.35572	37.69
2.37238	37.67
2.38905	37.66
2.40572	37.66
2.42238	37.66
2.43905	37.66
2.45572	37.66
2.47238	37.66
2.48905	37.66
2.50572	37.65
2.52238	37.65
2.53905	37.66
2.55572	37.66
2.57238	37.65
2.58905	37.65
2.60572	37.65
2.62238	37.65
2.63905	37.65
2.65572	37.65
2.67238	37.65
2.68905	37.65
2.70572	37.65
2.72238	37.65
2.73905	37.65
2.75572	37.65
2.77238	37.64
2.78905	37.64
2.80572	37.64
2.82238	37.64
2.83905	37.64
2.85572	37.64
2.87238	37.64
2.88905	37.64
2.90572	37.64
2.92238	37.64
2.93905	37.64
2.95572	37.64
2.97238	37.64
2.98905	37.64
3.00572	37.63
3.02238	37.63
3.03905	37.63
3.05572	37.63
3.07238	37.63
3.08905	37.63
3.10572	37.63
3.12238	37.63
3.13905	37.63
3.15572	37.63
3.17238	37.63
3.18905	37.63
3.20572	37.63
3.22238	37.63
3.23905	37.63
3.25572	37.63
3.27238	37.63
3.28905	37.63
3.30572	37.62
3.32238	37.62
3.33905	37.62
3.35572	37.62
3.37238	37.62
3.38905	37.62
3.40572	37.62
3.42238	37.63
3.43905	37.63
3.45572	37.63
3.47238	37.63
3.48905	37.63
3.50572	37.63
3.52238	37.63
3.53905	37.63
3.55572	37.63
3.57238	37.63
3.58905	37.63
3.60572	37.63
3.62238	37.63
3.63905	37.63
3.65572	37.63
3.67238	37.63
3.68905	37.63
3.70572	37.63
3.72238	37.63
3.73905	37.63
3.75572	37.63
3.77238	37.63
3.78905	37.63
3.80572	37.63
3.82238	37.63
3.83905	37.63
3.85572	37.62
3.87238	37.63
3.88905	37.63
3.90572	37.63
3.92238	37.63
3.93905	37.63
3.95572	37.63
3.97238	37.63
3.98905	37.63

