[Header]
Application Name	LabSolutions
Version	5.110
Data File Name	C:\Users\User\Desktop\Junior\UIC Prairie Sampling\3.23.23\032323_022.gcd
Output Date	5/24/2023
Output Time	10:27:36 AM

[File Information]
Type	Data File
Generated	5/23/2023 5:49:02 PM
Generated by	System Administrator
Modified	5/23/2023 5:55:55 PM
Modified by	System Administrator

[Sample Information]
Operator Name	System Administrator
Acquired	5/23/2023 5:51:53 PM
Sample Type	0:Unknown
Level	0
Sample Name	022
Sample ID	022
ISTD Amount1	1
ISTD Amount2	1
ISTD Amount3	1
ISTD Amount4	1
ISTD Amount5	1
ISTD Amount6	1
ISTD Amount7	1
ISTD Amount8	1
ISTD Amount9	1
ISTD Amount10	1
ISTD Amount11	1
ISTD Amount12	1
ISTD Amount13	1
ISTD Amount14	1
ISTD Amount15	1
ISTD Amount16	1
ISTD Amount17	1
ISTD Amount18	1
ISTD Amount19	1
ISTD Amount20	1
ISTD Amount21	1
ISTD Amount22	1
ISTD Amount23	1
ISTD Amount24	1
ISTD Amount25	1
ISTD Amount26	1
ISTD Amount27	1
ISTD Amount28	1
ISTD Amount29	1
ISTD Amount30	1
ISTD Amount31	1
ISTD Amount32	1
Sample Amount	1
Dilution Factor	1
Vial#	21
Injection Volume	1
Injection Count	1
Bar Code	

[Original Files]
Data File	C:\Users\User\Desktop\GC Analyses\Jack\Nachusa Grasslands Sampling\20220924\t2\032323_022.gcd
Method File	C:\LabSolutions\Data\GHG_4min_2022\ghg3_togas_w_acet_4 min_new_int.gcm
Batch File	C:\LabSolutions\Data\AutoSamplerTesting\032323.gcb
Report Format File	c:\LabSolutions\System\DEFAULT.lsr

[File Description]


[Configuration]
Instrument Name	C0B7VH3-Instrument1
Instrument #	1
Line #	1
# of Detectors	3
Detector ID	DET#1	DET#2	DET#3
Detector Name	FID	PTCD	ECD
# of Channels	1	1	1

[Peak Table(Ch1)]
# of Peaks	4
Peak#	R.Time	I.Time	F.Time	Area	Height	A/H	Conc.	Mark	ID#	Name	k'	Plate #	Plate Ht.	Tailing	Resolution	Sep.Factor	Area Ratio	Height Ratio	Conc. %	Norm Conc.
1	1.479	1.439	1.520	1061	504	2.107	0.000	   	1	CO	0.000	8647	17.346	0.942	0.000	0.000	0	0	0.000	0.000
2	1.567	1.531	1.637	19686	9925	1.983	95.974	   	2	CH4	0.059	11498	13.046	1.132	1.441	0.000	0	0	19.705	19.705
3	1.993	1.945	2.436	2029341	970844	2.090	391.091	   	3	CO2	0.347	17338	8.651	1.303	7.148	5.833	0	0	80.295	80.295
4	3.005	2.719	3.544	1794	68	26.371	0.000	   	5	Acetylene	1.031	1446	103.759	1.448	5.374	2.971	0	0	0.000	0.000

[Peak Table(Ch2)]
# of Peaks	0

[Peak Table(Ch3)]
# of Peaks	5
Peak#	R.Time	I.Time	F.Time	Area	Height	A/H	Conc.	Mark	ID#	Name	k'	Plate #	Plate Ht.	Tailing	Resolution	Sep.Factor	Area Ratio	Height Ratio	Conc. %	Norm Conc.
1	2.458	2.400	2.502	645	253	2.547	0.000	   			0.000	16479	9.102	0.000	0.000	0.000	0	0	0.000	0.000
2	2.517	2.502	2.557	250	111	2.248	0.000	 V 			0.024	4340	34.565	0.000	0.511	0.000	0	0	0.000	0.000
3	2.605	2.557	2.660	331	94	3.526	0.000	 V 			0.060	11278	13.300	0.000	0.701	2.500	0	0	0.000	0.000
4	2.887	2.814	3.023	51818	13823	3.749	0.767	   	1	N2O	0.175	13115	11.437	1.572	2.838	2.925	0	0	100.000	100.000
5	3.181	3.023	3.995	14020	475	29.532	0.000	 V 	2	SF6	0.294	273	549.245	0.000	0.674	1.684	0	0	0.000	0.000

[Compound Results(Ch1)]
# of IDs	6
ID#	Name	R.Time	Area	Height	Conc.	Curve	3rd	2nd	1st	Constant	Area Ratio	Height Ratio	Conc. %	Norm Conc.
1	CO	1.479	1061	504	0.000	Linear	0.000000e+00	0.000000e+00	0.000000e+00	0.000000e+00	0	0	0.000	0.000
2	CH4	1.567	19686	9925	95.974	Linear	0.000000e+00	0.000000e+00	2.051179e+002	0.000000e+00	0	0	19.705	19.705
3	CO2	1.993	2029341	970844	391.091	Linear	0.000000e+00	0.000000e+00	5.188919e+003	0.000000e+00	0	0	80.295	80.295
4	Ethylene	0.000	0	0	0.000	Linear	0.000000e+00	0.000000e+00	0.000000e+00	0.000000e+00	0	0	0.000	0.000
5	Acetylene	3.005	1794	68	0.000	Linear	0.000000e+00	0.000000e+00	0.000000e+00	0.000000e+00	0	0	0.000	0.000
6	Ethane	0.000	0	0	0.000	Linear	0.000000e+00	0.000000e+00	0.000000e+00	0.000000e+00	0	0	0.000	0.000

[Compound Results(Ch2)]
# of IDs	5
ID#	Name	R.Time	Area	Height	Conc.	Curve	3rd	2nd	1st	Constant	Area Ratio	Height Ratio	Conc. %	Norm Conc.
1	Hydrogen	0.000	0	0	0.000	Linear	0.000000e+00	0.000000e+00	0.000000e+00	0.000000e+00	0	0	0.000	0.000
2	Oxygen	0.000	0	0	0.000	Linear	0.000000e+00	0.000000e+00	0.000000e+00	0.000000e+00	0	0	0.000	0.000
3	Nitrogen	0.000	0	0	0.000	Linear	0.000000e+00	0.000000e+00	0.000000e+00	0.000000e+00	0	0	0.000	0.000
4	Methane	0.000	0	0	0.000	Linear	0.000000e+00	0.000000e+00	0.000000e+00	0.000000e+00	0	0	0.000	0.000
5	Carbon Monoxide	0.000	0	0	0.000	Linear	0.000000e+00	0.000000e+00	0.000000e+00	0.000000e+00	0	0	0.000	0.000

[Compound Results(Ch3)]
# of IDs	2
ID#	Name	R.Time	Area	Height	Conc.	Curve	3rd	2nd	1st	Constant	Area Ratio	Height Ratio	Conc. %	Norm Conc.
1	N2O	2.887	51818	13823	0.767	Linear	0.000000e+00	0.000000e+00	6.759880e+004	0.000000e+00	0	0	100.000	100.000
2	SF6	3.181	14020	475	0.000	Linear	0.000000e+00	0.000000e+00	0.000000e+00	0.000000e+00	0	0	0.000	0.000

[Group Results(Ch1)]
# of Groups	0

[Group Results(Ch2)]
# of Groups	0

[Group Results(Ch3)]
# of Groups	0

[Chromatogram (Ch1)]
Interval(msec)	220
# of Points	1091
Start Time(min)	0.002
End Time(min)	3.998
R.Time (min)	Intensity
0.00167	-9
0.00533	-4
0.00900	2
0.01267	10
0.01633	19
0.02000	22
0.02367	21
0.02733	17
0.03100	12
0.03467	8
0.03833	4
0.04200	-1
0.04567	-2
0.04933	1
0.05300	9
0.05667	16
0.06033	23
0.06400	24
0.06767	16
0.07133	9
0.07500	5
0.07867	4
0.08233	8
0.08600	13
0.08967	15
0.09333	13
0.09700	12
0.10067	14
0.10433	16
0.10800	13
0.11167	10
0.11533	7
0.11900	3
0.12267	3
0.12633	5
0.13000	10
0.13367	13
0.13733	12
0.14100	8
0.14467	3
0.14833	-0
0.15200	1
0.15567	2
0.15933	1
0.16300	-3
0.16667	-5
0.17033	-3
0.17400	2
0.17767	9
0.18133	17
0.18500	19
0.18867	19
0.19233	17
0.19600	12
0.19967	5
0.20333	2
0.20700	5
0.21067	9
0.21433	9
0.21800	6
0.22167	0
0.22533	-6
0.22900	-10
0.23267	-14
0.23633	-11
0.24000	-9
0.24367	-7
0.24733	-7
0.25100	-7
0.25467	-7
0.25833	-5
0.26200	-3
0.26567	-3
0.26933	-7
0.27300	-12
0.27667	-14
0.28033	-13
0.28400	-10
0.28767	-8
0.29133	-8
0.29500	-8
0.29867	-6
0.30233	-4
0.30600	-1
0.30967	3
0.31333	4
0.31700	6
0.32067	6
0.32433	5
0.32800	5
0.33167	4
0.33533	3
0.33900	4
0.34267	4
0.34633	7
0.35000	14
0.35367	17
0.35733	13
0.36100	7
0.36467	6
0.36833	9
0.37200	13
0.37567	16
0.37933	13
0.38300	4
0.38667	-4
0.39033	-9
0.39400	-11
0.39767	-11
0.40133	-7
0.40500	1
0.40867	7
0.41233	11
0.41600	10
0.41967	5
0.42333	-2
0.42700	-7
0.43067	-7
0.43433	-7
0.43800	-7
0.44167	-10
0.44533	-12
0.44900	-11
0.45267	-4
0.45633	4
0.46000	8
0.46367	7
0.46733	4
0.47100	3
0.47467	4
0.47833	5
0.48200	6
0.48567	6
0.48933	6
0.49300	9
0.49667	7
0.50033	3
0.50400	0
0.50767	-1
0.51133	-2
0.51500	-1
0.51867	-1
0.52233	-2
0.52600	-2
0.52967	-3
0.53333	-3
0.53700	-5
0.54067	-4
0.54433	-3
0.54800	-2
0.55167	-5
0.55533	-10
0.55900	-15
0.56267	-18
0.56633	-16
0.57000	-9
0.57367	-1
0.57733	7
0.58100	13
0.58467	16
0.58833	14
0.59200	11
0.59567	9
0.59933	7
0.60300	5
0.60667	7
0.61033	9
0.61400	10
0.61767	12
0.62133	14
0.62500	18
0.62867	19
0.63233	19
0.63600	20
0.63967	16
0.64333	5
0.64700	-9
0.65067	-19
0.65433	-25
0.65800	-26
0.66167	-25
0.66533	-24
0.66900	-23
0.67267	-23
0.67633	-22
0.68000	-21
0.68367	-19
0.68733	-15
0.69100	-10
0.69467	-3
0.69833	2
0.70200	2
0.70567	1
0.70933	-3
0.71300	-7
0.71667	-13
0.72033	-16
0.72400	-15
0.72767	-10
0.73133	0
0.73500	12
0.73867	19
0.74233	20
0.74600	15
0.74967	3
0.75333	-11
0.75700	-20
0.76067	-22
0.76433	-21
0.76800	-20
0.77167	-19
0.77533	-18
0.77900	-16
0.78267	-13
0.78633	-6
0.79000	2
0.79367	4
0.79733	4
0.80100	-1
0.80467	-9
0.80833	-16
0.81200	-18
0.81567	-18
0.81933	-17
0.82300	-16
0.82667	-15
0.83033	-13
0.83400	-10
0.83767	-7
0.84133	-3
0.84500	-1
0.84867	-3
0.85233	-6
0.85600	-8
0.85967	-12
0.86333	-16
0.86700	-18
0.87067	-19
0.87433	-20
0.87800	-21
0.88167	-24
0.88533	-25
0.88900	-24
0.89267	-22
0.89633	-19
0.90000	-16
0.90367	-14
0.90733	-17
0.91100	-21
0.91467	-22
0.91833	-18
0.92200	-11
0.92567	-7
0.92933	-11
0.93300	-19
0.93667	-25
0.94033	-27
0.94400	-24
0.94767	-15
0.95133	-2
0.95500	10
0.95867	16
0.96233	11
0.96600	-2
0.96967	-20
0.97333	-31
0.97700	-36
0.98067	-37
0.98433	-35
0.98800	-38
0.99167	-43
0.99533	-46
0.99900	-44
1.00267	-37
1.00633	-29
1.01000	-22
1.01367	-17
1.01733	-11
1.02100	-6
1.02467	-5
1.02833	-10
1.03200	-16
1.03567	-19
1.03933	-20
1.04300	-17
1.04667	-12
1.05033	-11
1.05400	-14
1.05767	-18
1.06133	-22
1.06500	-23
1.06867	-23
1.07233	-22
1.07600	-20
1.07967	-15
1.08333	-11
1.08700	-14
1.09067	-19
1.09433	-20
1.09800	-21
1.10167	-20
1.10533	-19
1.10900	-15
1.11267	-10
1.11633	-5
1.12000	-0
1.12367	0
1.12733	-5
1.13100	-13
1.13467	-21
1.13833	-26
1.14200	-23
1.14567	-20
1.14933	-19
1.15300	-21
1.15667	-23
1.16033	-24
1.16400	-26
1.16767	-28
1.17133	-29
1.17500	-29
1.17867	-30
1.18233	-27
1.18600	-19
1.18967	-12
1.19333	-9
1.19700	-12
1.20067	-18
1.20433	-25
1.20800	-29
1.21167	-33
1.21533	-38
1.21900	-40
1.22267	-38
1.22633	-34
1.23000	-29
1.23367	-21
1.23733	-16
1.24100	-14
1.24467	-15
1.24833	-18
1.25200	-23
1.25567	-28
1.25933	-33
1.26300	-36
1.26667	-37
1.27033	-37
1.27400	-36
1.27767	-38
1.28133	-38
1.28500	-36
1.28867	-34
1.29233	-32
1.29600	-28
1.29967	-29
1.30333	-33
1.30700	-38
1.31067	-47
1.31433	-56
1.31800	-59
1.32167	-56
1.32533	-51
1.32900	-47
1.33267	-43
1.33633	-39
1.34000	-37
1.34367	-34
1.34733	-34
1.35100	-34
1.35467	-34
1.35833	-33
1.36200	-29
1.36567	-24
1.36933	-23
1.37300	-25
1.37667	-27
1.38033	-32
1.38400	-37
1.38767	-40
1.39133	-40
1.39500	-38
1.39867	-36
1.40233	-35
1.40600	-38
1.40967	-41
1.41333	-42
1.41700	-42
1.42067	-39
1.42433	-39
1.42800	-47
1.43167	-58
1.43533	-56
1.43900	-34
1.44267	9
1.44633	42
1.45000	56
1.45367	85
1.45733	143
1.46100	213
1.46467	281
1.46833	347
1.47200	406
1.47567	449
1.47933	458
1.48300	423
1.48667	355
1.49033	273
1.49400	193
1.49767	121
1.50133	62
1.50500	18
1.50867	-10
1.51233	-27
1.51600	-43
1.51967	-58
1.52333	-69
1.52700	-74
1.53067	-70
1.53433	-18
1.53800	239
1.54167	981
1.54533	2380
1.54900	4253
1.55267	6196
1.55633	7874
1.56000	9119
1.56367	9824
1.56733	9856
1.57100	9138
1.57467	7805
1.57833	6179
1.58200	4591
1.58567	3246
1.58933	2211
1.59300	1463
1.59667	949
1.60033	608
1.60400	382
1.60767	230
1.61133	127
1.61500	61
1.61867	18
1.62233	-11
1.62600	-34
1.62967	-51
1.63333	-62
1.63700	-67
1.64067	-68
1.64433	-68
1.64800	-70
1.65167	-70
1.65533	-68
1.65900	-63
1.66267	-59
1.66633	-56
1.67000	-54
1.67367	-53
1.67733	-57
1.68100	-64
1.68467	-69
1.68833	-68
1.69200	-67
1.69567	-66
1.69933	-69
1.70300	-70
1.70667	-69
1.71033	-67
1.71400	-64
1.71767	-61
1.72133	-59
1.72500	-65
1.72867	-74
1.73233	-81
1.73600	-80
1.73967	-74
1.74333	-70
1.74700	-73
1.75067	-79
1.75433	-85
1.75800	-87
1.76167	-86
1.76533	-83
1.76900	-79
1.77267	-78
1.77633	-79
1.78000	-77
1.78367	-75
1.78733	-74
1.79100	-74
1.79467	-77
1.79833	-78
1.80200	-82
1.80567	-85
1.80933	-87
1.81300	-90
1.81667	-89
1.82033	-82
1.82400	-73
1.82767	-65
1.83133	-59
1.83500	-57
1.83867	-58
1.84233	-59
1.84600	-61
1.84967	-64
1.85333	-68
1.85700	-72
1.86067	-74
1.86433	-72
1.86800	-68
1.87167	-64
1.87533	-59
1.87900	-57
1.88267	-55
1.88633	-54
1.89000	-55
1.89367	-59
1.89733	-62
1.90100	-64
1.90467	-65
1.90833	-63
1.91200	-58
1.91567	-51
1.91933	-43
1.92300	-40
1.92667	-40
1.93033	-43
1.93400	-50
1.93767	-59
1.94133	-66
1.94500	-68
1.94867	-43
1.95233	105
1.95600	952
1.95967	4937
1.96333	19126
1.96700	57754
1.97067	139054
1.97433	272504
1.97800	446875
1.98167	633143
1.98533	798437
1.98900	916560
1.99267	970823
1.99633	955609
2.00000	877349
2.00367	754155
2.00733	610385
2.01100	469047
2.01467	345821
2.01833	247425
2.02200	173708
2.02567	120906
2.02933	84214
2.03300	59194
2.03667	42291
2.04033	30895
2.04400	23178
2.04767	17895
2.05133	14219
2.05500	11607
2.05867	9707
2.06233	8290
2.06600	7206
2.06967	6352
2.07333	5668
2.07700	5112
2.08067	4656
2.08433	4273
2.08800	3941
2.09167	3651
2.09533	3398
2.09900	3176
2.10267	2979
2.10633	2803
2.11000	2648
2.11367	2507
2.11733	2372
2.12100	2242
2.12467	2123
2.12833	2017
2.13200	1922
2.13567	1839
2.13933	1761
2.14300	1687
2.14667	1617
2.15033	1549
2.15400	1487
2.15767	1434
2.16133	1385
2.16500	1337
2.16867	1292
2.17233	1249
2.17600	1207
2.17967	1165
2.18333	1127
2.18700	1090
2.19067	1054
2.19433	1020
2.19800	993
2.20167	972
2.20533	955
2.20900	937
2.21267	916
2.21633	891
2.22000	863
2.22367	838
2.22733	819
2.23100	807
2.23467	801
2.23833	791
2.24200	774
2.24567	751
2.24933	727
2.25300	706
2.25667	689
2.26033	673
2.26400	661
2.26767	652
2.27133	643
2.27500	635
2.27867	629
2.28233	623
2.28600	616
2.28967	606
2.29333	598
2.29700	590
2.30067	579
2.30433	568
2.30800	557
2.31167	546
2.31533	534
2.31900	526
2.32267	521
2.32633	517
2.33000	512
2.33367	506
2.33733	498
2.34100	493
2.34467	489
2.34833	486
2.35200	483
2.35567	481
2.35933	478
2.36300	469
2.36667	457
2.37033	451
2.37400	447
2.37767	441
2.38133	432
2.38500	422
2.38867	417
2.39233	415
2.39600	412
2.39967	405
2.40333	398
2.40700	397
2.41067	399
2.41433	402
2.41800	404
2.42167	404
2.42533	403
2.42900	402
2.43267	403
2.43633	406
2.44000	408
2.44367	408
2.44733	403
2.45100	395
2.45467	386
2.45833	377
2.46200	369
2.46567	362
2.46933	360
2.47300	359
2.47667	357
2.48033	354
2.48400	353
2.48767	351
2.49133	350
2.49500	347
2.49867	346
2.50233	345
2.50600	343
2.50967	343
2.51333	345
2.51700	348
2.52067	350
2.52433	348
2.52800	347
2.53167	347
2.53533	348
2.53900	347
2.54267	345
2.54633	345
2.55000	344
2.55367	343
2.55733	340
2.56100	339
2.56467	344
2.56833	351
2.57200	353
2.57567	350
2.57933	345
2.58300	341
2.58667	337
2.59033	334
2.59400	335
2.59767	336
2.60133	340
2.60500	342
2.60867	345
2.61233	347
2.61600	348
2.61967	351
2.62333	353
2.62700	355
2.63067	360
2.63433	363
2.63800	365
2.64167	363
2.64533	362
2.64900	357
2.65267	350
2.65633	344
2.66000	343
2.66367	346
2.66733	346
2.67100	342
2.67467	337
2.67833	334
2.68200	335
2.68567	337
2.68933	343
2.69300	348
2.69667	349
2.70033	345
2.70400	340
2.70767	336
2.71133	336
2.71500	338
2.71867	342
2.72233	347
2.72600	348
2.72967	347
2.73333	346
2.73700	350
2.74067	356
2.74433	362
2.74800	367
2.75167	367
2.75533	366
2.75900	366
2.76267	365
2.76633	362
2.77000	357
2.77367	351
2.77733	349
2.78100	350
2.78467	351
2.78833	354
2.79200	358
2.79567	365
2.79933	373
2.80300	382
2.80667	385
2.81033	384
2.81400	382
2.81767	377
2.82133	374
2.82500	372
2.82867	368
2.83233	364
2.83600	366
2.83967	371
2.84333	375
2.84700	376
2.85067	375
2.85433	375
2.85800	376
2.86167	377
2.86533	375
2.86900	371
2.87267	369
2.87633	368
2.88000	367
2.88367	369
2.88733	372
2.89100	376
2.89467	378
2.89833	378
2.90200	381
2.90567	387
2.90933	393
2.91300	398
2.91667	400
2.92033	398
2.92400	394
2.92767	390
2.93133	387
2.93500	385
2.93867	384
2.94233	381
2.94600	376
2.94967	374
2.95333	374
2.95700	378
2.96067	384
2.96433	388
2.96800	392
2.97167	397
2.97533	402
2.97900	399
2.98267	392
2.98633	387
2.99000	386
2.99367	391
2.99733	401
3.00100	409
3.00467	409
3.00833	405
3.01200	399
3.01567	394
3.01933	393
3.02300	397
3.02667	403
3.03033	404
3.03400	405
3.03767	406
3.04133	406
3.04500	403
3.04867	396
3.05233	393
3.05600	396
3.05967	398
3.06333	392
3.06700	386
3.07067	385
3.07433	386
3.07800	390
3.08167	395
3.08533	399
3.08900	399
3.09267	398
3.09633	397
3.10000	397
3.10367	398
3.10733	402
3.11100	403
3.11467	398
3.11833	395
3.12200	393
3.12567	394
3.12933	395
3.13300	398
3.13667	400
3.14033	394
3.14400	385
3.14767	379
3.15133	379
3.15500	385
3.15867	392
3.16233	398
3.16600	400
3.16967	396
3.17333	389
3.17700	382
3.18067	379
3.18433	381
3.18800	388
3.19167	398
3.19533	405
3.19900	404
3.20267	396
3.20633	386
3.21000	379
3.21367	377
3.21733	380
3.22100	385
3.22467	387
3.22833	387
3.23200	382
3.23567	375
3.23933	372
3.24300	374
3.24667	380
3.25033	386
3.25400	390
3.25767	391
3.26133	388
3.26500	383
3.26867	379
3.27233	378
3.27600	381
3.27967	384
3.28333	384
3.28700	382
3.29067	379
3.29433	377
3.29800	378
3.30167	381
3.30533	387
3.30900	391
3.31267	392
3.31633	388
3.32000	380
3.32367	373
3.32733	367
3.33100	362
3.33467	359
3.33833	357
3.34200	356
3.34567	354
3.34933	355
3.35300	359
3.35667	365
3.36033	373
3.36400	382
3.36767	389
3.37133	391
3.37500	390
3.37867	385
3.38233	375
3.38600	366
3.38967	364
3.39333	363
3.39700	359
3.40067	357
3.40433	361
3.40800	366
3.41167	368
3.41533	367
3.41900	366
3.42267	366
3.42633	369
3.43000	374
3.43367	379
3.43733	379
3.44100	375
3.44467	369
3.44833	363
3.45200	356
3.45567	351
3.45933	348
3.46300	350
3.46667	353
3.47033	354
3.47400	356
3.47767	355
3.48133	353
3.48500	352
3.48867	351
3.49233	349
3.49600	346
3.49967	343
3.50333	345
3.50700	346
3.51067	344
3.51433	346
3.51800	349
3.52167	352
3.52533	351
3.52900	349
3.53267	348
3.53633	347
3.54000	346
3.54367	340
3.54733	332
3.55100	328
3.55467	329
3.55833	333
3.56200	336
3.56567	338
3.56933	339
3.57300	339
3.57667	338
3.58033	336
3.58400	338
3.58767	344
3.59133	348
3.59500	345
3.59867	343
3.60233	346
3.60600	347
3.60967	343
3.61333	335
3.61700	329
3.62067	327
3.62433	330
3.62800	336
3.63167	341
3.63533	345
3.63900	346
3.64267	345
3.64633	345
3.65000	340
3.65367	330
3.65733	322
3.66100	318
3.66467	317
3.66833	317
3.67200	320
3.67567	324
3.67933	325
3.68300	321
3.68667	314
3.69033	308
3.69400	305
3.69767	304
3.70133	304
3.70500	308
3.70867	316
3.71233	328
3.71600	339
3.71967	349
3.72333	354
3.72700	352
3.73067	339
3.73433	318
3.73800	298
3.74167	286
3.74533	283
3.74900	281
3.75267	280
3.75633	281
3.76000	283
3.76367	284
3.76733	285
3.77100	286
3.77467	289
3.77833	295
3.78200	301
3.78567	305
3.78933	306
3.79300	306
3.79667	304
3.80033	302
3.80400	301
3.80767	302
3.81133	301
3.81500	301
3.81867	304
3.82233	310
3.82600	315
3.82967	316
3.83333	315
3.83700	312
3.84067	310
3.84433	309
3.84800	308
3.85167	304
3.85533	297
3.85900	287
3.86267	281
3.86633	280
3.87000	284
3.87367	289
3.87733	293
3.88100	297
3.88467	296
3.88833	293
3.89200	287
3.89567	280
3.89933	276
3.90300	276
3.90667	278
3.91033	280
3.91400	288
3.91767	294
3.92133	297
3.92500	299
3.92867	300
3.93233	297
3.93600	292
3.93967	291
3.94333	291
3.94700	291
3.95067	291
3.95433	292
3.95800	294
3.96167	297
3.96533	298
3.96900	296
3.97267	291
3.97633	283
3.98000	276
3.98367	275
3.98733	274
3.99100	273
3.99467	271
3.99833	271

[Chromatogram (Ch2)]
Interval(msec)	220
# of Points	1091
Start Time(min)	0.002
End Time(min)	3.998
R.Time (min)	Intensity
0.00167	0
0.00533	0
0.00900	1
0.01267	1
0.01633	1
0.02000	1
0.02367	1
0.02733	2
0.03100	2
0.03467	3
0.03833	3
0.04200	4
0.04567	4
0.04933	4
0.05300	4
0.05667	4
0.06033	4
0.06400	4
0.06767	3
0.07133	4
0.07500	4
0.07867	4
0.08233	4
0.08600	4
0.08967	4
0.09333	4
0.09700	4
0.10067	4
0.10433	4
0.10800	4
0.11167	4
0.11533	4
0.11900	4
0.12267	3
0.12633	3
0.13000	3
0.13367	3
0.13733	3
0.14100	2
0.14467	2
0.14833	2
0.15200	1
0.15567	1
0.15933	1
0.16300	0
0.16667	0
0.17033	-0
0.17400	-0
0.17767	-1
0.18133	-1
0.18500	-1
0.18867	-1
0.19233	-2
0.19600	-2
0.19967	-2
0.20333	-2
0.20700	-2
0.21067	-2
0.21433	-2
0.21800	-2
0.22167	-2
0.22533	-3
0.22900	-3
0.23267	-3
0.23633	-2
0.24000	-2
0.24367	-2
0.24733	-2
0.25100	-2
0.25467	-2
0.25833	-2
0.26200	-2
0.26567	-2
0.26933	-2
0.27300	-2
0.27667	-2
0.28033	-2
0.28400	-2
0.28767	-2
0.29133	-2
0.29500	-2
0.29867	-2
0.30233	-2
0.30600	-2
0.30967	-2
0.31333	-2
0.31700	-1
0.32067	-1
0.32433	-1
0.32800	-1
0.33167	-1
0.33533	-1
0.33900	-1
0.34267	-2
0.34633	-2
0.35000	-2
0.35367	-2
0.35733	-2
0.36100	-2
0.36467	-2
0.36833	-2
0.37200	-2
0.37567	-2
0.37933	-2
0.38300	-2
0.38667	-2
0.39033	-2
0.39400	-2
0.39767	-2
0.40133	-2
0.40500	-1
0.40867	-1
0.41233	-1
0.41600	-1
0.41967	-1
0.42333	-1
0.42700	-1
0.43067	-1
0.43433	-1
0.43800	-1
0.44167	-1
0.44533	-1
0.44900	-1
0.45267	-1
0.45633	-1
0.46000	-2
0.46367	-2
0.46733	-2
0.47100	-2
0.47467	-3
0.47833	-3
0.48200	-3
0.48567	-3
0.48933	-3
0.49300	-3
0.49667	-2
0.50033	-2
0.50400	-2
0.50767	-1
0.51133	-1
0.51500	-1
0.51867	-1
0.52233	-0
0.52600	-0
0.52967	-0
0.53333	-0
0.53700	-0
0.54067	-0
0.54433	-0
0.54800	-0
0.55167	-1
0.55533	-1
0.55900	-1
0.56267	-2
0.56633	-2
0.57000	-2
0.57367	-3
0.57733	-3
0.58100	-3
0.58467	-4
0.58833	-4
0.59200	-4
0.59567	-4
0.59933	-4
0.60300	-5
0.60667	-5
0.61033	-5
0.61400	-6
0.61767	-6
0.62133	-6
0.62500	-6
0.62867	-6
0.63233	-6
0.63600	-5
0.63967	-5
0.64333	-5
0.64700	-5
0.65067	-4
0.65433	-4
0.65800	-4
0.66167	-3
0.66533	-3
0.66900	-3
0.67267	-3
0.67633	-3
0.68000	-2
0.68367	-2
0.68733	-2
0.69100	-2
0.69467	-2
0.69833	-1
0.70200	-1
0.70567	-1
0.70933	-1
0.71300	-0
0.71667	-0
0.72033	-1
0.72400	-1
0.72767	-1
0.73133	-2
0.73500	-2
0.73867	-2
0.74233	-2
0.74600	-2
0.74967	-2
0.75333	-2
0.75700	-3
0.76067	-3
0.76433	-3
0.76800	-3
0.77167	-3
0.77533	-3
0.77900	-3
0.78267	-3
0.78633	-3
0.79000	-3
0.79367	-3
0.79733	-3
0.80100	-3
0.80467	-3
0.80833	-3
0.81200	-4
0.81567	-4
0.81933	-4
0.82300	-5
0.82667	-5
0.83033	-5
0.83400	-5
0.83767	-5
0.84133	-6
0.84500	-6
0.84867	-5
0.85233	-5
0.85600	-5
0.85967	-4
0.86333	-4
0.86700	-4
0.87067	-4
0.87433	-4
0.87800	-3
0.88167	-3
0.88533	-3
0.88900	-2
0.89267	-2
0.89633	-1
0.90000	-1
0.90367	-1
0.90733	-1
0.91100	-1
0.91467	-1
0.91833	-1
0.92200	-1
0.92567	-1
0.92933	-1
0.93300	-2
0.93667	-2
0.94033	-1
0.94400	-1
0.94767	-1
0.95133	-1
0.95500	-1
0.95867	-2
0.96233	-2
0.96600	-2
0.96967	-2
0.97333	-3
0.97700	-3
0.98067	-3
0.98433	-4
0.98800	-4
0.99167	-4
0.99533	-4
0.99900	-4
1.00267	-3
1.00633	-3
1.01000	-3
1.01367	-3
1.01733	-3
1.02100	-3
1.02467	-3
1.02833	-3
1.03200	-3
1.03567	-3
1.03933	-3
1.04300	-3
1.04667	-3
1.05033	-3
1.05400	-3
1.05767	-3
1.06133	-2
1.06500	-2
1.06867	-2
1.07233	-1
1.07600	-1
1.07967	-0
1.08333	-0
1.08700	0
1.09067	0
1.09433	0
1.09800	0
1.10167	0
1.10533	-0
1.10900	-0
1.11267	-0
1.11633	-1
1.12000	-1
1.12367	-1
1.12733	-1
1.13100	-1
1.13467	-1
1.13833	-2
1.14200	-2
1.14567	-2
1.14933	-2
1.15300	-3
1.15667	-3
1.16033	-3
1.16400	-3
1.16767	-3
1.17133	-3
1.17500	-3
1.17867	-3
1.18233	-3
1.18600	-3
1.18967	-3
1.19333	-3
1.19700	-3
1.20067	-3
1.20433	-3
1.20800	-3
1.21167	-3
1.21533	-3
1.21900	-3
1.22267	-3
1.22633	-3
1.23000	-3
1.23367	-3
1.23733	-3
1.24100	-3
1.24467	-3
1.24833	-3
1.25200	-3
1.25567	-3
1.25933	-3
1.26300	-3
1.26667	-3
1.27033	-3
1.27400	-3
1.27767	-3
1.28133	-3
1.28500	-3
1.28867	-4
1.29233	-4
1.29600	-4
1.29967	-4
1.30333	-4
1.30700	-5
1.31067	-5
1.31433	-5
1.31800	-5
1.32167	-5
1.32533	-5
1.32900	-5
1.33267	-5
1.33633	-5
1.34000	-5
1.34367	-5
1.34733	-4
1.35100	-4
1.35467	-4
1.35833	-3
1.36200	-3
1.36567	-3
1.36933	-3
1.37300	-3
1.37667	-3
1.38033	-3
1.38400	-3
1.38767	-3
1.39133	-3
1.39500	-4
1.39867	-4
1.40233	-4
1.40600	-4
1.40967	-4
1.41333	-4
1.41700	-4
1.42067	-4
1.42433	-4
1.42800	-4
1.43167	-4
1.43533	-4
1.43900	-3
1.44267	-3
1.44633	-3
1.45000	-3
1.45367	-3
1.45733	-3
1.46100	-3
1.46467	-3
1.46833	-3
1.47200	-3
1.47567	-3
1.47933	-3
1.48300	-3
1.48667	-3
1.49033	-3
1.49400	-3
1.49767	-3
1.50133	-3
1.50500	-3
1.50867	-3
1.51233	-3
1.51600	-3
1.51967	-3
1.52333	-3
1.52700	-3
1.53067	-3
1.53433	-4
1.53800	-4
1.54167	-4
1.54533	-4
1.54900	-4
1.55267	-4
1.55633	-4
1.56000	-4
1.56367	-4
1.56733	-4
1.57100	-5
1.57467	-5
1.57833	-5
1.58200	-5
1.58567	-5
1.58933	-5
1.59300	-5
1.59667	-6
1.60033	-6
1.60400	-8
1.60767	-9
1.61133	-11
1.61500	-12
1.61867	-14
1.62233	-17
1.62600	-19
1.62967	-22
1.63333	-25
1.63700	-28
1.64067	-31
1.64433	-35
1.64800	-38
1.65167	-41
1.65533	-45
1.65900	-48
1.66267	-52
1.66633	-55
1.67000	-59
1.67367	-63
1.67733	-68
1.68100	-73
1.68467	-77
1.68833	-82
1.69200	-86
1.69567	-89
1.69933	-92
1.70300	-94
1.70667	-96
1.71033	-98
1.71400	-99
1.71767	-100
1.72133	-101
1.72500	-102
1.72867	-102
1.73233	-103
1.73600	-104
1.73967	-104
1.74333	-105
1.74700	-105
1.75067	-105
1.75433	-105
1.75800	-105
1.76167	-105
1.76533	-105
1.76900	-105
1.77267	-105
1.77633	-105
1.78000	-105
1.78367	-105
1.78733	-105
1.79100	-105
1.79467	-105
1.79833	-105
1.80200	-105
1.80567	-105
1.80933	-105
1.81300	-105
1.81667	-105
1.82033	-105
1.82400	-106
1.82767	-106
1.83133	-106
1.83500	-107
1.83867	-107
1.84233	-107
1.84600	-106
1.84967	-106
1.85333	-106
1.85700	-105
1.86067	-106
1.86433	-106
1.86800	-107
1.87167	-107
1.87533	-108
1.87900	-108
1.88267	-108
1.88633	-108
1.89000	-107
1.89367	-106
1.89733	-105
1.90100	-105
1.90467	-105
1.90833	-105
1.91200	-105
1.91567	-105
1.91933	-106
1.92300	-106
1.92667	-106
1.93033	-106
1.93400	-106
1.93767	-105
1.94133	-104
1.94500	-104
1.94867	-103
1.95233	-102
1.95600	-102
1.95967	-101
1.96333	-101
1.96700	-101
1.97067	-101
1.97433	-100
1.97800	-100
1.98167	-100
1.98533	-100
1.98900	-100
1.99267	-100
1.99633	-99
2.00000	-99
2.00367	-99
2.00733	-99
2.01100	-99
2.01467	-99
2.01833	-99
2.02200	-99
2.02567	-99
2.02933	-98
2.03300	-98
2.03667	-97
2.04033	-97
2.04400	-96
2.04767	-96
2.05133	-95
2.05500	-95
2.05867	-94
2.06233	-94
2.06600	-93
2.06967	-93
2.07333	-92
2.07700	-92
2.08067	-92
2.08433	-91
2.08800	-91
2.09167	-91
2.09533	-91
2.09900	-92
2.10267	-92
2.10633	-92
2.11000	-92
2.11367	-92
2.11733	-92
2.12100	-92
2.12467	-91
2.12833	-90
2.13200	-89
2.13567	-88
2.13933	-87
2.14300	-87
2.14667	-86
2.15033	-86
2.15400	-85
2.15767	-85
2.16133	-85
2.16500	-85
2.16867	-84
2.17233	-84
2.17600	-83
2.17967	-83
2.18333	-83
2.18700	-84
2.19067	-83
2.19433	-83
2.19800	-83
2.20167	-83
2.20533	-82
2.20900	-82
2.21267	-82
2.21633	-82
2.22000	-82
2.22367	-83
2.22733	-84
2.23100	-84
2.23467	-84
2.23833	-84
2.24200	-84
2.24567	-83
2.24933	-82
2.25300	-81
2.25667	-80
2.26033	-80
2.26400	-79
2.26767	-79
2.27133	-79
2.27500	-78
2.27867	-78
2.28233	-78
2.28600	-77
2.28967	-76
2.29333	-76
2.29700	-75
2.30067	-75
2.30433	-74
2.30800	-74
2.31167	-75
2.31533	-75
2.31900	-75
2.32267	-75
2.32633	-74
2.33000	-74
2.33367	-73
2.33733	-72
2.34100	-72
2.34467	-71
2.34833	-71
2.35200	-70
2.35567	-70
2.35933	-69
2.36300	-68
2.36667	-66
2.37033	-65
2.37400	-62
2.37767	-60
2.38133	-57
2.38500	-53
2.38867	-49
2.39233	-45
2.39600	-40
2.39967	-36
2.40333	-31
2.40700	-26
2.41067	-22
2.41433	-17
2.41800	-14
2.42167	-11
2.42533	-8
2.42900	-6
2.43267	-5
2.43633	-3
2.44000	-2
2.44367	0
2.44733	2
2.45100	3
2.45467	4
2.45833	6
2.46200	7
2.46567	8
2.46933	9
2.47300	10
2.47667	11
2.48033	11
2.48400	12
2.48767	12
2.49133	13
2.49500	13
2.49867	13
2.50233	12
2.50600	12
2.50967	12
2.51333	11
2.51700	10
2.52067	9
2.52433	9
2.52800	8
2.53167	8
2.53533	7
2.53900	7
2.54267	8
2.54633	8
2.55000	9
2.55367	10
2.55733	10
2.56100	11
2.56467	11
2.56833	12
2.57200	13
2.57567	14
2.57933	15
2.58300	16
2.58667	16
2.59033	16
2.59400	17
2.59767	17
2.60133	17
2.60500	17
2.60867	17
2.61233	17
2.61600	17
2.61967	17
2.62333	17
2.62700	17
2.63067	18
2.63433	18
2.63800	18
2.64167	18
2.64533	18
2.64900	19
2.65267	19
2.65633	20
2.66000	20
2.66367	21
2.66733	21
2.67100	21
2.67467	21
2.67833	22
2.68200	22
2.68567	22
2.68933	22
2.69300	22
2.69667	22
2.70033	22
2.70400	22
2.70767	23
2.71133	23
2.71500	23
2.71867	23
2.72233	24
2.72600	24
2.72967	24
2.73333	24
2.73700	24
2.74067	24
2.74433	24
2.74800	24
2.75167	24
2.75533	24
2.75900	24
2.76267	25
2.76633	25
2.77000	25
2.77367	25
2.77733	26
2.78100	26
2.78467	26
2.78833	26
2.79200	26
2.79567	25
2.79933	25
2.80300	24
2.80667	23
2.81033	23
2.81400	23
2.81767	22
2.82133	22
2.82500	22
2.82867	22
2.83233	23
2.83600	23
2.83967	23
2.84333	24
2.84700	24
2.85067	24
2.85433	23
2.85800	21
2.86167	17
2.86533	10
2.86900	-1
2.87267	-16
2.87633	-36
2.88000	-62
2.88367	-95
2.88733	-134
2.89100	-179
2.89467	-231
2.89833	-289
2.90200	-352
2.90567	-421
2.90933	-494
2.91300	-572
2.91667	-654
2.92033	-740
2.92400	-828
2.92767	-920
2.93133	-1014
2.93500	-1111
2.93867	-1210
2.94233	-1311
2.94600	-1410
2.94967	-1497
2.95333	-1558
2.95700	-1584
2.96067	-1570
2.96433	-1522
2.96800	-1446
2.97167	-1349
2.97533	-1240
2.97900	-1126
2.98267	-1012
2.98633	-901
2.99000	-796
2.99367	-699
2.99733	-611
3.00100	-531
3.00467	-460
3.00833	-397
3.01200	-342
3.01567	-293
3.01933	-251
3.02300	-214
3.02667	-183
3.03033	-155
3.03400	-132
3.03767	-111
3.04133	-94
3.04500	-79
3.04867	-67
3.05233	-56
3.05600	-47
3.05967	-39
3.06333	-32
3.06700	-26
3.07067	-21
3.07433	-17
3.07800	-13
3.08167	-10
3.08533	-7
3.08900	-4
3.09267	-2
3.09633	0
3.10000	2
3.10367	3
3.10733	4
3.11100	5
3.11467	6
3.11833	7
3.12200	8
3.12567	9
3.12933	9
3.13300	10
3.13667	11
3.14033	12
3.14400	13
3.14767	13
3.15133	14
3.15500	14
3.15867	15
3.16233	15
3.16600	15
3.16967	16
3.17333	16
3.17700	16
3.18067	16
3.18433	16
3.18800	17
3.19167	17
3.19533	17
3.19900	17
3.20267	18
3.20633	18
3.21000	18
3.21367	19
3.21733	19
3.22100	19
3.22467	20
3.22833	20
3.23200	20
3.23567	20
3.23933	20
3.24300	20
3.24667	21
3.25033	21
3.25400	21
3.25767	21
3.26133	21
3.26500	21
3.26867	22
3.27233	22
3.27600	22
3.27967	22
3.28333	22
3.28700	22
3.29067	22
3.29433	22
3.29800	22
3.30167	22
3.30533	22
3.30900	22
3.31267	22
3.31633	22
3.32000	22
3.32367	23
3.32733	23
3.33100	23
3.33467	23
3.33833	23
3.34200	24
3.34567	24
3.34933	24
3.35300	24
3.35667	24
3.36033	24
3.36400	24
3.36767	24
3.37133	24
3.37500	25
3.37867	25
3.38233	25
3.38600	25
3.38967	26
3.39333	26
3.39700	26
3.40067	27
3.40433	27
3.40800	27
3.41167	27
3.41533	28
3.41900	28
3.42267	28
3.42633	28
3.43000	28
3.43367	28
3.43733	28
3.44100	28
3.44467	28
3.44833	28
3.45200	28
3.45567	28
3.45933	28
3.46300	28
3.46667	28
3.47033	28
3.47400	28
3.47767	28
3.48133	28
3.48500	28
3.48867	28
3.49233	28
3.49600	28
3.49967	28
3.50333	28
3.50700	28
3.51067	28
3.51433	28
3.51800	28
3.52167	29
3.52533	29
3.52900	29
3.53267	29
3.53633	29
3.54000	29
3.54367	29
3.54733	29
3.55100	29
3.55467	29
3.55833	28
3.56200	28
3.56567	28
3.56933	27
3.57300	27
3.57667	27
3.58033	26
3.58400	26
3.58767	26
3.59133	25
3.59500	25
3.59867	25
3.60233	25
3.60600	25
3.60967	25
3.61333	25
3.61700	25
3.62067	25
3.62433	25
3.62800	25
3.63167	25
3.63533	26
3.63900	26
3.64267	26
3.64633	26
3.65000	26
3.65367	26
3.65733	26
3.66100	26
3.66467	26
3.66833	26
3.67200	27
3.67567	27
3.67933	27
3.68300	27
3.68667	26
3.69033	27
3.69400	27
3.69767	27
3.70133	27
3.70500	27
3.70867	27
3.71233	27
3.71600	27
3.71967	27
3.72333	26
3.72700	26
3.73067	26
3.73433	26
3.73800	26
3.74167	26
3.74533	26
3.74900	26
3.75267	26
3.75633	26
3.76000	25
3.76367	25
3.76733	25
3.77100	25
3.77467	25
3.77833	25
3.78200	26
3.78567	26
3.78933	26
3.79300	26
3.79667	26
3.80033	26
3.80400	26
3.80767	26
3.81133	25
3.81500	25
3.81867	25
3.82233	24
3.82600	24
3.82967	24
3.83333	24
3.83700	24
3.84067	24
3.84433	24
3.84800	24
3.85167	24
3.85533	24
3.85900	24
3.86267	24
3.86633	24
3.87000	24
3.87367	24
3.87733	24
3.88100	24
3.88467	24
3.88833	24
3.89200	25
3.89567	25
3.89933	25
3.90300	25
3.90667	26
3.91033	26
3.91400	26
3.91767	25
3.92133	25
3.92500	25
3.92867	25
3.93233	26
3.93600	26
3.93967	26
3.94333	26
3.94700	26
3.95067	26
3.95433	26
3.95800	26
3.96167	26
3.96533	27
3.96900	27
3.97267	27
3.97633	27
3.98000	27
3.98367	27
3.98733	26
3.99100	26
3.99467	26
3.99833	26

[Chromatogram (Ch3)]
Interval(msec)	220
# of Points	1091
Start Time(min)	0.002
End Time(min)	3.998
R.Time (min)	Intensity
0.00167	-0
0.00533	-0
0.00900	-0
0.01267	1
0.01633	3
0.02000	4
0.02367	4
0.02733	5
0.03100	5
0.03467	3
0.03833	-0
0.04200	-1
0.04567	-0
0.04933	1
0.05300	2
0.05667	2
0.06033	3
0.06400	3
0.06767	2
0.07133	5
0.07500	9
0.07867	9
0.08233	7
0.08600	6
0.08967	7
0.09333	7
0.09700	7
0.10067	8
0.10433	8
0.10800	8
0.11167	7
0.11533	3
0.11900	-1
0.12267	-1
0.12633	-2
0.13000	-2
0.13367	-1
0.13733	-0
0.14100	-1
0.14467	-1
0.14833	2
0.15200	3
0.15567	2
0.15933	1
0.16300	1
0.16667	3
0.17033	3
0.17400	2
0.17767	3
0.18133	4
0.18500	3
0.18867	2
0.19233	1
0.19600	-0
0.19967	0
0.20333	2
0.20700	1
0.21067	-1
0.21433	-0
0.21800	0
0.22167	2
0.22533	2
0.22900	3
0.23267	2
0.23633	-0
0.24000	-2
0.24367	-2
0.24733	-2
0.25100	-3
0.25467	-2
0.25833	-0
0.26200	0
0.26567	1
0.26933	2
0.27300	1
0.27667	3
0.28033	5
0.28400	6
0.28767	7
0.29133	8
0.29500	7
0.29867	8
0.30233	8
0.30600	8
0.30967	8
0.31333	10
0.31700	10
0.32067	11
0.32433	10
0.32800	8
0.33167	7
0.33533	8
0.33900	9
0.34267	8
0.34633	6
0.35000	5
0.35367	3
0.35733	2
0.36100	3
0.36467	3
0.36833	3
0.37200	5
0.37567	6
0.37933	7
0.38300	7
0.38667	7
0.39033	9
0.39400	10
0.39767	13
0.40133	12
0.40500	11
0.40867	11
0.41233	11
0.41600	9
0.41967	8
0.42333	10
0.42700	12
0.43067	12
0.43433	13
0.43800	12
0.44167	11
0.44533	10
0.44900	8
0.45267	7
0.45633	5
0.46000	4
0.46367	4
0.46733	6
0.47100	8
0.47467	9
0.47833	9
0.48200	10
0.48567	9
0.48933	10
0.49300	9
0.49667	11
0.50033	13
0.50400	15
0.50767	15
0.51133	12
0.51500	11
0.51867	8
0.52233	6
0.52600	7
0.52967	9
0.53333	10
0.53700	10
0.54067	10
0.54433	11
0.54800	11
0.55167	10
0.55533	10
0.55900	9
0.56267	9
0.56633	10
0.57000	11
0.57367	12
0.57733	13
0.58100	11
0.58467	9
0.58833	9
0.59200	9
0.59567	10
0.59933	12
0.60300	11
0.60667	9
0.61033	7
0.61400	7
0.61767	8
0.62133	7
0.62500	8
0.62867	10
0.63233	12
0.63600	12
0.63967	13
0.64333	14
0.64700	14
0.65067	14
0.65433	13
0.65800	12
0.66167	12
0.66533	13
0.66900	14
0.67267	14
0.67633	13
0.68000	12
0.68367	12
0.68733	13
0.69100	15
0.69467	16
0.69833	18
0.70200	17
0.70567	15
0.70933	14
0.71300	15
0.71667	18
0.72033	18
0.72400	16
0.72767	16
0.73133	13
0.73500	12
0.73867	13
0.74233	15
0.74600	16
0.74967	17
0.75333	16
0.75700	16
0.76067	16
0.76433	16
0.76800	14
0.77167	13
0.77533	12
0.77900	10
0.78267	9
0.78633	10
0.79000	15
0.79367	18
0.79733	18
0.80100	18
0.80467	16
0.80833	16
0.81200	16
0.81567	16
0.81933	16
0.82300	16
0.82667	14
0.83033	13
0.83400	13
0.83767	14
0.84133	17
0.84500	20
0.84867	19
0.85233	17
0.85600	15
0.85967	13
0.86333	12
0.86700	14
0.87067	15
0.87433	16
0.87800	17
0.88167	17
0.88533	18
0.88900	19
0.89267	20
0.89633	20
0.90000	18
0.90367	18
0.90733	19
0.91100	20
0.91467	20
0.91833	20
0.92200	19
0.92567	17
0.92933	17
0.93300	19
0.93667	20
0.94033	19
0.94400	18
0.94767	18
0.95133	17
0.95500	18
0.95867	21
0.96233	22
0.96600	21
0.96967	20
0.97333	19
0.97700	17
0.98067	17
0.98433	19
0.98800	22
0.99167	23
0.99533	24
0.99900	22
1.00267	21
1.00633	20
1.01000	20
1.01367	22
1.01733	24
1.02100	24
1.02467	24
1.02833	25
1.03200	25
1.03567	25
1.03933	24
1.04300	25
1.04667	24
1.05033	21
1.05400	20
1.05767	19
1.06133	18
1.06500	17
1.06867	19
1.07233	21
1.07600	22
1.07967	26
1.08333	24
1.08700	19
1.09067	15
1.09433	16
1.09800	19
1.10167	23
1.10533	26
1.10900	24
1.11267	22
1.11633	21
1.12000	19
1.12367	19
1.12733	21
1.13100	22
1.13467	22
1.13833	22
1.14200	21
1.14567	20
1.14933	23
1.15300	26
1.15667	26
1.16033	24
1.16400	24
1.16767	23
1.17133	21
1.17500	18
1.17867	16
1.18233	16
1.18600	19
1.18967	20
1.19333	19
1.19700	20
1.20067	20
1.20433	20
1.20800	19
1.21167	18
1.21533	17
1.21900	18
1.22267	19
1.22633	19
1.23000	20
1.23367	22
1.23733	24
1.24100	23
1.24467	24
1.24833	23
1.25200	22
1.25567	21
1.25933	20
1.26300	20
1.26667	21
1.27033	22
1.27400	23
1.27767	24
1.28133	22
1.28500	21
1.28867	22
1.29233	22
1.29600	22
1.29967	24
1.30333	24
1.30700	25
1.31067	25
1.31433	26
1.31800	26
1.32167	26
1.32533	25
1.32900	23
1.33267	22
1.33633	19
1.34000	17
1.34367	18
1.34733	17
1.35100	17
1.35467	17
1.35833	17
1.36200	17
1.36567	18
1.36933	19
1.37300	18
1.37667	17
1.38033	18
1.38400	20
1.38767	22
1.39133	24
1.39500	24
1.39867	24
1.40233	24
1.40600	23
1.40967	21
1.41333	21
1.41700	21
1.42067	19
1.42433	18
1.42800	18
1.43167	18
1.43533	17
1.43900	15
1.44267	17
1.44633	18
1.45000	19
1.45367	20
1.45733	21
1.46100	21
1.46467	22
1.46833	24
1.47200	24
1.47567	24
1.47933	23
1.48300	23
1.48667	21
1.49033	18
1.49400	16
1.49767	16
1.50133	16
1.50500	16
1.50867	16
1.51233	14
1.51600	13
1.51967	14
1.52333	16
1.52700	17
1.53067	17
1.53433	17
1.53800	16
1.54167	16
1.54533	14
1.54900	11
1.55267	10
1.55633	11
1.56000	12
1.56367	12
1.56733	11
1.57100	11
1.57467	11
1.57833	12
1.58200	14
1.58567	14
1.58933	14
1.59300	13
1.59667	16
1.60033	18
1.60400	21
1.60767	22
1.61133	21
1.61500	20
1.61867	20
1.62233	19
1.62600	19
1.62967	21
1.63333	22
1.63700	20
1.64067	17
1.64433	14
1.64800	12
1.65167	13
1.65533	14
1.65900	15
1.66267	18
1.66633	21
1.67000	24
1.67367	25
1.67733	27
1.68100	26
1.68467	27
1.68833	29
1.69200	31
1.69567	33
1.69933	33
1.70300	32
1.70667	32
1.71033	32
1.71400	32
1.71767	32
1.72133	31
1.72500	32
1.72867	33
1.73233	33
1.73600	34
1.73967	35
1.74333	33
1.74700	33
1.75067	33
1.75433	34
1.75800	34
1.76167	35
1.76533	37
1.76900	38
1.77267	40
1.77633	40
1.78000	39
1.78367	38
1.78733	37
1.79100	37
1.79467	38
1.79833	39
1.80200	40
1.80567	42
1.80933	44
1.81300	44
1.81667	44
1.82033	44
1.82400	44
1.82767	44
1.83133	44
1.83500	46
1.83867	48
1.84233	49
1.84600	50
1.84967	50
1.85333	50
1.85700	50
1.86067	50
1.86433	52
1.86800	54
1.87167	54
1.87533	54
1.87900	55
1.88267	55
1.88633	56
1.89000	58
1.89367	58
1.89733	59
1.90100	61
1.90467	61
1.90833	63
1.91200	62
1.91567	62
1.91933	62
1.92300	64
1.92667	66
1.93033	67
1.93400	68
1.93767	69
1.94133	70
1.94500	71
1.94867	72
1.95233	72
1.95600	71
1.95967	69
1.96333	70
1.96700	71
1.97067	73
1.97433	76
1.97800	76
1.98167	75
1.98533	76
1.98900	77
1.99267	79
1.99633	82
2.00000	84
2.00367	86
2.00733	86
2.01100	86
2.01467	86
2.01833	87
2.02200	90
2.02567	92
2.02933	93
2.03300	91
2.03667	91
2.04033	92
2.04400	93
2.04767	94
2.05133	95
2.05500	96
2.05867	97
2.06233	98
2.06600	99
2.06967	99
2.07333	99
2.07700	99
2.08067	100
2.08433	102
2.08800	103
2.09167	104
2.09533	104
2.09900	107
2.10267	109
2.10633	107
2.11000	109
2.11367	111
2.11733	113
2.12100	116
2.12467	120
2.12833	121
2.13200	120
2.13567	120
2.13933	121
2.14300	122
2.14667	121
2.15033	120
2.15400	119
2.15767	120
2.16133	120
2.16500	121
2.16867	120
2.17233	121
2.17600	122
2.17967	123
2.18333	124
2.18700	127
2.19067	132
2.19433	134
2.19800	133
2.20167	132
2.20533	134
2.20900	137
2.21267	140
2.21633	140
2.22000	141
2.22367	139
2.22733	140
2.23100	144
2.23467	148
2.23833	147
2.24200	144
2.24567	146
2.24933	149
2.25300	149
2.25667	148
2.26033	148
2.26400	149
2.26767	148
2.27133	147
2.27500	147
2.27867	147
2.28233	148
2.28600	148
2.28967	149
2.29333	148
2.29700	149
2.30067	151
2.30433	153
2.30800	155
2.31167	157
2.31533	161
2.31900	162
2.32267	161
2.32633	160
2.33000	161
2.33367	161
2.33733	161
2.34100	161
2.34467	162
2.34833	164
2.35200	166
2.35567	169
2.35933	169
2.36300	169
2.36667	170
2.37033	170
2.37400	170
2.37767	170
2.38133	169
2.38500	168
2.38867	166
2.39233	165
2.39600	164
2.39967	165
2.40333	165
2.40700	166
2.41067	167
2.41433	166
2.41800	167
2.42167	168
2.42533	169
2.42900	169
2.43267	168
2.43633	167
2.44000	172
2.44367	205
2.44733	272
2.45100	339
2.45467	387
2.45833	405
2.46200	401
2.46567	393
2.46933	386
2.47300	373
2.47667	352
2.48033	327
2.48400	302
2.48767	280
2.49133	261
2.49500	249
2.49867	243
2.50233	241
2.50600	244
2.50967	249
2.51333	250
2.51700	250
2.52067	245
2.52433	235
2.52800	224
2.53167	213
2.53533	201
2.53900	189
2.54267	178
2.54633	171
2.55000	165
2.55367	160
2.55733	159
2.56100	160
2.56467	160
2.56833	163
2.57200	167
2.57567	170
2.57933	173
2.58300	178
2.58667	185
2.59033	194
2.59400	201
2.59767	208
2.60133	212
2.60500	213
2.60867	212
2.61233	210
2.61600	208
2.61967	202
2.62333	193
2.62700	185
2.63067	174
2.63433	162
2.63800	149
2.64167	138
2.64533	128
2.64900	118
2.65267	113
2.65633	111
2.66000	107
2.66367	102
2.66733	100
2.67100	100
2.67467	102
2.67833	104
2.68200	105
2.68567	105
2.68933	107
2.69300	108
2.69667	108
2.70033	108
2.70400	108
2.70767	108
2.71133	110
2.71500	113
2.71867	118
2.72233	123
2.72600	125
2.72967	127
2.73333	128
2.73700	129
2.74067	129
2.74433	133
2.74800	136
2.75167	139
2.75533	144
2.75900	147
2.76267	150
2.76633	154
2.77000	156
2.77367	162
2.77733	165
2.78100	167
2.78467	169
2.78833	169
2.79200	170
2.79567	170
2.79933	173
2.80300	175
2.80667	176
2.81033	176
2.81400	176
2.81767	178
2.82133	182
2.82500	187
2.82867	197
2.83233	224
2.83600	293
2.83967	441
2.84333	726
2.84700	1210
2.85067	1946
2.85433	2973
2.85800	4284
2.86167	5831
2.86533	7522
2.86900	9236
2.87267	10835
2.87633	12190
2.88000	13201
2.88367	13813
2.88733	14016
2.89100	13845
2.89467	13363
2.89833	12653
2.90200	11786
2.90567	10831
2.90933	9847
2.91300	8878
2.91667	7950
2.92033	7077
2.92400	6272
2.92767	5542
2.93133	4886
2.93500	4299
2.93867	3777
2.94233	3316
2.94600	2908
2.94967	2547
2.95333	2231
2.95700	1955
2.96067	1715
2.96433	1505
2.96800	1324
2.97167	1169
2.97533	1033
2.97900	914
2.98267	809
2.98633	721
2.99000	649
2.99367	587
2.99733	532
3.00100	482
3.00467	435
3.00833	389
3.01200	354
3.01567	331
3.01933	316
3.02300	311
3.02667	315
3.03033	326
3.03400	342
3.03767	363
3.04133	391
3.04500	423
3.04867	457
3.05233	489
3.05600	519
3.05967	544
3.06333	567
3.06700	586
3.07067	603
3.07433	617
3.07800	628
3.08167	636
3.08533	643
3.08900	649
3.09267	656
3.09633	664
3.10000	670
3.10367	675
3.10733	678
3.11100	684
3.11467	687
3.11833	690
3.12200	693
3.12567	696
3.12933	700
3.13300	703
3.13667	706
3.14033	709
3.14400	711
3.14767	714
3.15133	715
3.15500	719
3.15867	724
3.16233	727
3.16600	727
3.16967	728
3.17333	730
3.17700	733
3.18067	736
3.18433	736
3.18800	735
3.19167	733
3.19533	730
3.19900	728
3.20267	729
3.20633	731
3.21000	732
3.21367	733
3.21733	734
3.22100	734
3.22467	734
3.22833	734
3.23200	733
3.23567	734
3.23933	735
3.24300	735
3.24667	734
3.25033	732
3.25400	731
3.25767	728
3.26133	729
3.26500	727
3.26867	722
3.27233	718
3.27600	715
3.27967	713
3.28333	711
3.28700	709
3.29067	708
3.29433	705
3.29800	704
3.30167	704
3.30533	700
3.30900	696
3.31267	693
3.31633	690
3.32000	688
3.32367	685
3.32733	682
3.33100	679
3.33467	678
3.33833	675
3.34200	672
3.34567	670
3.34933	667
3.35300	663
3.35667	661
3.36033	655
3.36400	650
3.36767	647
3.37133	645
3.37500	646
3.37867	644
3.38233	641
3.38600	640
3.38967	637
3.39333	635
3.39700	636
3.40067	636
3.40433	633
3.40800	628
3.41167	623
3.41533	624
3.41900	626
3.42267	626
3.42633	624
3.43000	623
3.43367	620
3.43733	615
3.44100	612
3.44467	611
3.44833	611
3.45200	612
3.45567	612
3.45933	609
3.46300	604
3.46667	601
3.47033	598
3.47400	598
3.47767	599
3.48133	596
3.48500	592
3.48867	590
3.49233	585
3.49600	582
3.49967	578
3.50333	578
3.50700	578
3.51067	575
3.51433	573
3.51800	568
3.52167	566
3.52533	563
3.52900	560
3.53267	559
3.53633	559
3.54000	557
3.54367	554
3.54733	553
3.55100	555
3.55467	556
3.55833	554
3.56200	551
3.56567	549
3.56933	546
3.57300	544
3.57667	542
3.58033	541
3.58400	541
3.58767	540
3.59133	541
3.59500	542
3.59867	541
3.60233	540
3.60600	539
3.60967	538
3.61333	537
3.61700	537
3.62067	536
3.62433	537
3.62800	539
3.63167	540
3.63533	539
3.63900	536
3.64267	534
3.64633	533
3.65000	531
3.65367	527
3.65733	522
3.66100	521
3.66467	520
3.66833	518
3.67200	515
3.67567	515
3.67933	516
3.68300	515
3.68667	514
3.69033	513
3.69400	512
3.69767	512
3.70133	512
3.70500	510
3.70867	508
3.71233	508
3.71600	509
3.71967	509
3.72333	511
3.72700	513
3.73067	514
3.73433	514
3.73800	514
3.74167	513
3.74533	510
3.74900	507
3.75267	504
3.75633	502
3.76000	504
3.76367	504
3.76733	502
3.77100	500
3.77467	498
3.77833	496
3.78200	494
3.78567	493
3.78933	492
3.79300	490
3.79667	490
3.80033	490
3.80400	490
3.80767	487
3.81133	487
3.81500	488
3.81867	487
3.82233	487
3.82600	488
3.82967	489
3.83333	489
3.83700	488
3.84067	486
3.84433	484
3.84800	483
3.85167	481
3.85533	481
3.85900	483
3.86267	486
3.86633	486
3.87000	485
3.87367	483
3.87733	479
3.88100	479
3.88467	481
3.88833	482
3.89200	485
3.89567	485
3.89933	484
3.90300	483
3.90667	480
3.91033	478
3.91400	478
3.91767	476
3.92133	477
3.92500	474
3.92867	472
3.93233	472
3.93600	471
3.93967	470
3.94333	468
3.94700	464
3.95067	462
3.95433	459
3.95800	459
3.96167	458
3.96533	458
3.96900	459
3.97267	457
3.97633	455
3.98000	456
3.98367	456
3.98733	455
3.99100	453
3.99467	452
3.99833	451

[Status Trace (Column Oven Temperature)]
Interval(msec)	1000
# of Points	240
Start Time(min)	0.004
End Time(min)	3.988
Intensity Units	
Intensity Multiplier	1
R.Time (min)	Intensity
0.00437	35.09
0.02103	35.07
0.03770	35.05
0.05437	35.03
0.07103	35.01
0.08770	34.99
0.10437	34.98
0.12103	34.97
0.13770	34.96
0.15437	34.96
0.17103	34.96
0.18770	34.97
0.20437	34.98
0.22103	34.99
0.23770	34.99
0.25437	34.99
0.27103	34.99
0.28770	34.99
0.30437	34.99
0.32103	34.99
0.33770	34.99
0.35437	34.99
0.37103	35.00
0.38770	34.99
0.40437	34.99
0.42103	34.98
0.43770	34.98
0.45437	34.98
0.47103	34.99
0.48770	34.99
0.50437	35.00
0.52103	34.99
0.53770	34.99
0.55437	34.98
0.57103	34.99
0.58770	35.00
0.60437	35.01
0.62103	35.03
0.63770	35.03
0.65437	35.02
0.67103	35.00
0.68770	34.99
0.70437	34.99
0.72103	34.98
0.73770	34.99
0.75437	34.99
0.77103	35.00
0.78770	35.00
0.80437	35.00
0.82103	35.01
0.83770	35.02
0.85437	35.02
0.87103	35.02
0.88770	35.02
0.90437	34.99
0.92103	34.99
0.93770	34.99
0.95437	34.99
0.97103	35.00
0.98770	35.00
1.00437	35.00
1.02103	35.00
1.03770	35.00
1.05437	34.99
1.07103	34.99
1.08770	34.98
1.10437	34.97
1.12103	34.98
1.13770	34.98
1.15437	34.98
1.17103	34.98
1.18770	34.98
1.20437	34.98
1.22103	34.98
1.23770	34.98
1.25437	34.97
1.27103	34.97
1.28770	34.98
1.30437	34.98
1.32103	34.99
1.33770	34.99
1.35437	34.99
1.37103	34.99
1.38770	35.00
1.40437	35.00
1.42103	34.99
1.43770	34.99
1.45437	34.98
1.47103	34.99
1.48770	34.99
1.50437	34.98
1.52103	34.98
1.53770	34.98
1.55437	34.98
1.57103	34.98
1.58770	35.00
1.60437	35.04
1.62103	35.15
1.63770	35.32
1.65437	35.54
1.67103	35.84
1.68770	36.21
1.70437	36.58
1.72103	36.92
1.73770	37.25
1.75437	37.58
1.77103	37.93
1.78770	38.25
1.80437	38.58
1.82103	38.91
1.83770	39.26
1.85437	39.57
1.87103	39.93
1.88770	40.24
1.90437	40.57
1.92103	40.92
1.93770	41.24
1.95437	41.55
1.97103	41.87
1.98770	42.20
2.00437	42.53
2.02103	42.86
2.03770	43.18
2.05437	43.51
2.07103	43.82
2.08770	44.15
2.10437	44.48
2.12103	44.81
2.13770	45.12
2.15437	45.44
2.17103	45.76
2.18770	46.07
2.20437	46.39
2.22103	46.75
2.23770	47.09
2.25437	47.41
2.27103	47.73
2.28770	48.06
2.30437	48.40
2.32103	48.74
2.33770	49.06
2.35437	49.37
2.37103	49.60
2.38770	49.68
2.40437	49.68
2.42103	49.68
2.43770	49.68
2.45437	49.69
2.47103	49.68
2.48770	49.70
2.50437	49.71
2.52103	49.72
2.53770	49.73
2.55437	49.74
2.57103	49.75
2.58770	49.76
2.60437	49.77
2.62103	49.80
2.63770	49.81
2.65437	49.82
2.67103	49.82
2.68770	49.84
2.70437	49.85
2.72103	49.85
2.73770	49.86
2.75437	49.86
2.77103	49.85
2.78770	49.85
2.80437	49.88
2.82103	49.91
2.83770	49.91
2.85437	49.91
2.87103	49.90
2.88770	49.90
2.90437	49.90
2.92103	49.90
2.93770	49.92
2.95437	49.93
2.97103	49.94
2.98770	49.96
3.00437	49.98
3.02103	49.99
3.03770	50.00
3.05437	50.01
3.07103	50.02
3.08770	50.02
3.10437	50.02
3.12103	50.03
3.13770	50.03
3.15437	50.03
3.17103	50.04
3.18770	50.04
3.20437	50.05
3.22103	50.06
3.23770	50.07
3.25437	50.08
3.27103	50.07
3.28770	50.08
3.30437	50.08
3.32103	50.10
3.33770	50.10
3.35437	50.11
3.37103	50.11
3.38770	50.11
3.40437	50.10
3.42103	50.10
3.43770	50.09
3.45437	50.08
3.47103	50.06
3.48770	50.04
3.50437	50.03
3.52103	50.02
3.53770	50.01
3.55437	50.01
3.57103	50.01
3.58770	50.02
3.60437	50.03
3.62103	50.03
3.63770	50.02
3.65437	50.03
3.67103	50.03
3.68770	50.02
3.70437	50.02
3.72103	50.02
3.73770	50.03
3.75437	50.03
3.77103	50.03
3.78770	50.03
3.80437	50.04
3.82103	50.05
3.83770	50.04
3.85437	50.05
3.87103	50.05
3.88770	50.06
3.90437	50.05
3.92103	50.05
3.93770	50.05
3.95437	50.05
3.97103	50.05
3.98770	50.05

[Status Trace (Injection Unit Temperature)]
Interval(msec)	1000
# of Points	240
Start Time(min)	0.004
End Time(min)	3.988
Intensity Units	
Intensity Multiplier	1
R.Time (min)	Intensity
0.00437	99.98
0.02103	99.97
0.03770	99.97
0.05437	99.98
0.07103	99.98
0.08770	99.98
0.10437	99.97
0.12103	99.98
0.13770	99.98
0.15437	99.98
0.17103	99.98
0.18770	99.98
0.20437	99.98
0.22103	99.98
0.23770	99.98
0.25437	99.98
0.27103	99.98
0.28770	99.98
0.30437	99.98
0.32103	99.98
0.33770	99.98
0.35437	99.98
0.37103	99.98
0.38770	99.98
0.40437	99.98
0.42103	99.98
0.43770	99.98
0.45437	99.98
0.47103	99.98
0.48770	99.99
0.50437	99.98
0.52103	99.98
0.53770	99.98
0.55437	99.98
0.57103	99.98
0.58770	99.98
0.60437	99.98
0.62103	99.98
0.63770	99.98
0.65437	99.98
0.67103	99.98
0.68770	99.98
0.70437	99.98
0.72103	99.98
0.73770	99.98
0.75437	99.98
0.77103	99.99
0.78770	99.98
0.80437	99.98
0.82103	99.98
0.83770	99.99
0.85437	99.99
0.87103	99.98
0.88770	99.98
0.90437	99.98
0.92103	99.99
0.93770	99.98
0.95437	99.99
0.97103	99.99
0.98770	99.98
1.00437	99.99
1.02103	99.99
1.03770	99.98
1.05437	99.98
1.07103	99.98
1.08770	99.98
1.10437	99.98
1.12103	99.99
1.13770	99.99
1.15437	99.99
1.17103	99.99
1.18770	99.98
1.20437	99.99
1.22103	99.99
1.23770	99.99
1.25437	99.98
1.27103	99.99
1.28770	99.99
1.30437	99.99
1.32103	99.99
1.33770	99.99
1.35437	99.99
1.37103	99.99
1.38770	99.99
1.40437	99.99
1.42103	99.99
1.43770	99.98
1.45437	99.98
1.47103	99.99
1.48770	99.99
1.50437	99.99
1.52103	99.99
1.53770	99.99
1.55437	99.99
1.57103	99.99
1.58770	99.99
1.60437	99.99
1.62103	99.98
1.63770	99.98
1.65437	99.98
1.67103	99.99
1.68770	99.99
1.70437	99.99
1.72103	99.98
1.73770	99.99
1.75437	99.99
1.77103	99.99
1.78770	99.98
1.80437	99.98
1.82103	99.99
1.83770	99.98
1.85437	99.98
1.87103	99.98
1.88770	99.98
1.90437	99.98
1.92103	99.98
1.93770	99.98
1.95437	99.98
1.97103	99.98
1.98770	99.97
2.00437	99.98
2.02103	99.98
2.03770	99.97
2.05437	99.97
2.07103	99.97
2.08770	99.97
2.10437	99.97
2.12103	99.97
2.13770	99.97
2.15437	99.97
2.17103	99.97
2.18770	99.97
2.20437	99.97
2.22103	99.96
2.23770	99.96
2.25437	99.96
2.27103	99.96
2.28770	99.96
2.30437	99.96
2.32103	99.96
2.33770	99.96
2.35437	99.96
2.37103	99.96
2.38770	99.96
2.40437	99.96
2.42103	99.95
2.43770	99.96
2.45437	99.96
2.47103	99.96
2.48770	99.96
2.50437	99.96
2.52103	99.96
2.53770	99.96
2.55437	99.96
2.57103	99.96
2.58770	99.96
2.60437	99.96
2.62103	99.96
2.63770	99.97
2.65437	99.97
2.67103	99.97
2.68770	99.97
2.70437	99.97
2.72103	99.97
2.73770	99.98
2.75437	99.98
2.77103	99.98
2.78770	99.99
2.80437	99.99
2.82103	99.99
2.83770	99.99
2.85437	99.98
2.87103	99.99
2.88770	100.00
2.90437	100.00
2.92103	100.00
2.93770	100.00
2.95437	100.00
2.97103	100.00
2.98770	100.01
3.00437	100.00
3.02103	100.01
3.03770	100.01
3.05437	100.01
3.07103	100.02
3.08770	100.02
3.10437	100.02
3.12103	100.02
3.13770	100.02
3.15437	100.02
3.17103	100.02
3.18770	100.03
3.20437	100.03
3.22103	100.03
3.23770	100.03
3.25437	100.03
3.27103	100.03
3.28770	100.03
3.30437	100.03
3.32103	100.03
3.33770	100.03
3.35437	100.03
3.37103	100.04
3.38770	100.04
3.40437	100.04
3.42103	100.04
3.43770	100.04
3.45437	100.04
3.47103	100.04
3.48770	100.04
3.50437	100.05
3.52103	100.04
3.53770	100.05
3.55437	100.05
3.57103	100.05
3.58770	100.05
3.60437	100.05
3.62103	100.05
3.63770	100.04
3.65437	100.05
3.67103	100.05
3.68770	100.05
3.70437	100.05
3.72103	100.05
3.73770	100.05
3.75437	100.05
3.77103	100.05
3.78770	100.05
3.80437	100.05
3.82103	100.06
3.83770	100.05
3.85437	100.05
3.87103	100.05
3.88770	100.05
3.90437	100.05
3.92103	100.05
3.93770	100.05
3.95437	100.05
3.97103	100.05
3.98770	100.05

[Status Trace (Carrier Gas Pressure)]
Interval(msec)	1000
# of Points	240
Start Time(min)	0.004
End Time(min)	3.988
Intensity Units	
Intensity Multiplier	1
R.Time (min)	Intensity
0.00437	58.00
0.02103	55.99
0.03770	56.64
0.05437	58.95
0.07103	59.68
0.08770	58.14
0.10437	57.98
0.12103	58.01
0.13770	58.01
0.15437	58.00
0.17103	58.00
0.18770	58.00
0.20437	58.00
0.22103	58.00
0.23770	58.00
0.25437	58.00
0.27103	58.00
0.28770	58.00
0.30437	58.00
0.32103	58.00
0.33770	58.00
0.35437	58.00
0.37103	58.00
0.38770	58.00
0.40437	58.00
0.42103	58.00
0.43770	58.00
0.45437	58.00
0.47103	58.00
0.48770	58.00
0.50437	58.00
0.52103	58.00
0.53770	58.00
0.55437	58.00
0.57103	58.00
0.58770	58.00
0.60437	58.00
0.62103	58.00
0.63770	58.00
0.65437	58.00
0.67103	58.00
0.68770	58.00
0.70437	58.00
0.72103	58.00
0.73770	58.00
0.75437	58.00
0.77103	58.00
0.78770	58.00
0.80437	58.00
0.82103	58.00
0.83770	58.00
0.85437	58.00
0.87103	58.00
0.88770	58.00
0.90437	58.00
0.92103	58.00
0.93770	58.00
0.95437	58.00
0.97103	58.00
0.98770	58.00
1.00437	58.00
1.02103	58.00
1.03770	58.00
1.05437	58.00
1.07103	58.00
1.08770	58.00
1.10437	58.00
1.12103	58.00
1.13770	58.00
1.15437	58.00
1.17103	58.00
1.18770	58.00
1.20437	58.00
1.22103	58.00
1.23770	58.00
1.25437	58.00
1.27103	58.00
1.28770	58.00
1.30437	58.00
1.32103	58.00
1.33770	58.00
1.35437	58.00
1.37103	58.00
1.38770	58.00
1.40437	58.00
1.42103	58.00
1.43770	58.00
1.45437	58.00
1.47103	58.00
1.48770	58.00
1.50437	58.00
1.52103	58.00
1.53770	58.00
1.55437	58.00
1.57103	58.00
1.58770	58.00
1.60437	58.00
1.62103	58.00
1.63770	58.00
1.65437	58.00
1.67103	58.01
1.68770	58.01
1.70437	58.00
1.72103	58.00
1.73770	58.00
1.75437	58.00
1.77103	58.00
1.78770	58.00
1.80437	58.00
1.82103	58.00
1.83770	58.00
1.85437	58.00
1.87103	58.00
1.88770	58.00
1.90437	58.00
1.92103	58.00
1.93770	58.00
1.95437	58.00
1.97103	58.00
1.98770	58.00
2.00437	58.00
2.02103	58.00
2.03770	58.00
2.05437	58.00
2.07103	58.00
2.08770	58.00
2.10437	58.00
2.12103	58.00
2.13770	58.00
2.15437	58.00
2.17103	58.00
2.18770	58.00
2.20437	58.00
2.22103	58.00
2.23770	58.00
2.25437	58.00
2.27103	58.00
2.28770	58.00
2.30437	58.00
2.32103	58.00
2.33770	58.00
2.35437	58.00
2.37103	58.00
2.38770	57.99
2.40437	57.99
2.42103	58.00
2.43770	58.00
2.45437	58.00
2.47103	58.00
2.48770	58.00
2.50437	57.99
2.52103	58.00
2.53770	58.00
2.55437	58.00
2.57103	58.00
2.58770	58.00
2.60437	58.00
2.62103	58.00
2.63770	58.00
2.65437	58.00
2.67103	58.00
2.68770	58.00
2.70437	58.00
2.72103	58.00
2.73770	58.00
2.75437	58.00
2.77103	58.00
2.78770	58.00
2.80437	58.00
2.82103	58.00
2.83770	58.00
2.85437	58.00
2.87103	58.00
2.88770	58.00
2.90437	58.00
2.92103	58.00
2.93770	58.00
2.95437	58.00
2.97103	58.00
2.98770	58.00
3.00437	58.00
3.02103	58.00
3.03770	58.00
3.05437	58.00
3.07103	58.00
3.08770	58.00
3.10437	58.00
3.12103	58.00
3.13770	58.00
3.15437	58.00
3.17103	58.00
3.18770	58.00
3.20437	58.00
3.22103	58.00
3.23770	58.00
3.25437	58.00
3.27103	58.00
3.28770	58.00
3.30437	58.00
3.32103	58.00
3.33770	58.00
3.35437	58.00
3.37103	58.00
3.38770	58.00
3.40437	58.00
3.42103	58.00
3.43770	58.00
3.45437	58.00
3.47103	58.00
3.48770	58.00
3.50437	58.00
3.52103	58.00
3.53770	58.00
3.55437	58.00
3.57103	58.00
3.58770	58.00
3.60437	58.00
3.62103	58.00
3.63770	58.00
3.65437	58.00
3.67103	58.00
3.68770	58.00
3.70437	58.00
3.72103	58.00
3.73770	58.00
3.75437	58.00
3.77103	58.00
3.78770	58.00
3.80437	58.00
3.82103	58.00
3.83770	58.00
3.85437	58.00
3.87103	58.00
3.88770	58.00
3.90437	58.00
3.92103	58.00
3.93770	58.00
3.95437	58.00
3.97103	58.00
3.98770	58.00

[Status Trace (Carrier Gas Flow)]
Interval(msec)	1000
# of Points	240
Start Time(min)	0.004
End Time(min)	3.988
Intensity Units	
Intensity Multiplier	1
R.Time (min)	Intensity
0.00437	34.52
0.02103	34.57
0.03770	34.54
0.05437	34.56
0.07103	34.50
0.08770	34.51
0.10437	34.52
0.12103	34.53
0.13770	34.52
0.15437	34.52
0.17103	34.52
0.18770	34.52
0.20437	34.52
0.22103	34.52
0.23770	34.52
0.25437	34.52
0.27103	34.51
0.28770	34.52
0.30437	34.52
0.32103	34.52
0.33770	34.51
0.35437	34.51
0.37103	34.52
0.38770	34.52
0.40437	34.52
0.42103	34.52
0.43770	34.52
0.45437	34.52
0.47103	34.52
0.48770	34.52
0.50437	34.52
0.52103	34.52
0.53770	34.52
0.55437	34.52
0.57103	34.52
0.58770	34.52
0.60437	34.52
0.62103	34.52
0.63770	34.52
0.65437	34.52
0.67103	34.52
0.68770	34.52
0.70437	34.52
0.72103	34.52
0.73770	34.52
0.75437	34.52
0.77103	34.52
0.78770	34.51
0.80437	34.52
0.82103	34.52
0.83770	34.51
0.85437	34.51
0.87103	34.52
0.88770	34.52
0.90437	34.52
0.92103	34.52
0.93770	34.52
0.95437	34.52
0.97103	34.51
0.98770	34.52
1.00437	34.51
1.02103	34.52
1.03770	34.52
1.05437	34.51
1.07103	34.52
1.08770	34.51
1.10437	34.52
1.12103	34.52
1.13770	34.52
1.15437	34.52
1.17103	34.52
1.18770	34.52
1.20437	34.52
1.22103	34.52
1.23770	34.52
1.25437	34.52
1.27103	34.52
1.28770	34.51
1.30437	34.52
1.32103	34.52
1.33770	34.52
1.35437	34.51
1.37103	34.52
1.38770	34.52
1.40437	34.52
1.42103	34.52
1.43770	34.52
1.45437	34.51
1.47103	34.52
1.48770	34.51
1.50437	34.53
1.52103	34.52
1.53770	34.52
1.55437	34.52
1.57103	34.52
1.58770	34.51
1.60437	34.51
1.62103	34.52
1.63770	34.52
1.65437	34.52
1.67103	34.51
1.68770	34.52
1.70437	34.53
1.72103	34.52
1.73770	34.52
1.75437	34.52
1.77103	34.52
1.78770	34.52
1.80437	34.51
1.82103	34.52
1.83770	34.52
1.85437	34.52
1.87103	34.51
1.88770	34.52
1.90437	34.52
1.92103	34.52
1.93770	34.52
1.95437	34.52
1.97103	34.52
1.98770	34.52
2.00437	34.52
2.02103	34.52
2.03770	34.52
2.05437	34.52
2.07103	34.53
2.08770	34.52
2.10437	34.52
2.12103	34.52
2.13770	34.53
2.15437	34.52
2.17103	34.52
2.18770	34.52
2.20437	34.52
2.22103	34.52
2.23770	34.52
2.25437	34.52
2.27103	34.53
2.28770	34.52
2.30437	34.52
2.32103	34.52
2.33770	34.52
2.35437	34.52
2.37103	34.52
2.38770	34.52
2.40437	34.52
2.42103	34.52
2.43770	34.52
2.45437	34.52
2.47103	34.52
2.48770	34.52
2.50437	34.55
2.52103	34.52
2.53770	34.52
2.55437	34.52
2.57103	34.52
2.58770	34.52
2.60437	34.52
2.62103	34.51
2.63770	34.52
2.65437	34.52
2.67103	34.52
2.68770	34.52
2.70437	34.52
2.72103	34.52
2.73770	34.51
2.75437	34.51
2.77103	34.52
2.78770	34.52
2.80437	34.51
2.82103	34.52
2.83770	34.52
2.85437	34.52
2.87103	34.52
2.88770	34.52
2.90437	34.52
2.92103	34.52
2.93770	34.52
2.95437	34.53
2.97103	34.51
2.98770	34.51
3.00437	34.52
3.02103	34.52
3.03770	34.51
3.05437	34.52
3.07103	34.52
3.08770	34.52
3.10437	34.52
3.12103	34.52
3.13770	34.52
3.15437	34.52
3.17103	34.52
3.18770	34.51
3.20437	34.52
3.22103	34.52
3.23770	34.51
3.25437	34.52
3.27103	34.51
3.28770	34.51
3.30437	34.52
3.32103	34.52
3.33770	34.52
3.35437	34.52
3.37103	34.53
3.38770	34.52
3.40437	34.52
3.42103	34.52
3.43770	34.52
3.45437	34.53
3.47103	34.51
3.48770	34.52
3.50437	34.52
3.52103	34.52
3.53770	34.52
3.55437	34.52
3.57103	34.52
3.58770	34.51
3.60437	34.51
3.62103	34.52
3.63770	34.51
3.65437	34.51
3.67103	34.53
3.68770	34.52
3.70437	34.52
3.72103	34.52
3.73770	34.52
3.75437	34.52
3.77103	34.52
3.78770	34.52
3.80437	34.52
3.82103	34.52
3.83770	34.51
3.85437	34.52
3.87103	34.52
3.88770	34.52
3.90437	34.52
3.92103	34.52
3.93770	34.52
3.95437	34.52
3.97103	34.52
3.98770	34.52

[Status Trace (Column Flow)]
Interval(msec)	1000
# of Points	240
Start Time(min)	0.004
End Time(min)	3.988
Intensity Units	
Intensity Multiplier	1
R.Time (min)	Intensity
0.00437	5.51
0.02103	5.28
0.03770	5.36
0.05437	5.63
0.07103	5.71
0.08770	5.53
0.10437	5.51
0.12103	5.52
0.13770	5.52
0.15437	5.52
0.17103	5.52
0.18770	5.52
0.20437	5.52
0.22103	5.52
0.23770	5.52
0.25437	5.52
0.27103	5.52
0.28770	5.52
0.30437	5.52
0.32103	5.52
0.33770	5.52
0.35437	5.52
0.37103	5.52
0.38770	5.52
0.40437	5.52
0.42103	5.52
0.43770	5.52
0.45437	5.52
0.47103	5.52
0.48770	5.52
0.50437	5.52
0.52103	5.52
0.53770	5.52
0.55437	5.52
0.57103	5.52
0.58770	5.52
0.60437	5.52
0.62103	5.51
0.63770	5.51
0.65437	5.52
0.67103	5.52
0.68770	5.52
0.70437	5.52
0.72103	5.52
0.73770	5.52
0.75437	5.52
0.77103	5.52
0.78770	5.52
0.80437	5.52
0.82103	5.52
0.83770	5.52
0.85437	5.52
0.87103	5.52
0.88770	5.52
0.90437	5.52
0.92103	5.52
0.93770	5.52
0.95437	5.52
0.97103	5.52
0.98770	5.52
1.00437	5.52
1.02103	5.52
1.03770	5.52
1.05437	5.52
1.07103	5.52
1.08770	5.52
1.10437	5.52
1.12103	5.52
1.13770	5.52
1.15437	5.52
1.17103	5.52
1.18770	5.52
1.20437	5.52
1.22103	5.52
1.23770	5.52
1.25437	5.52
1.27103	5.52
1.28770	5.52
1.30437	5.52
1.32103	5.52
1.33770	5.52
1.35437	5.52
1.37103	5.52
1.38770	5.52
1.40437	5.52
1.42103	5.52
1.43770	5.52
1.45437	5.52
1.47103	5.52
1.48770	5.52
1.50437	5.52
1.52103	5.52
1.53770	5.52
1.55437	5.52
1.57103	5.52
1.58770	5.52
1.60437	5.51
1.62103	5.51
1.63770	5.51
1.65437	5.50
1.67103	5.49
1.68770	5.48
1.70437	5.47
1.72103	5.46
1.73770	5.45
1.75437	5.44
1.77103	5.42
1.78770	5.42
1.80437	5.40
1.82103	5.39
1.83770	5.38
1.85437	5.37
1.87103	5.36
1.88770	5.35
1.90437	5.34
1.92103	5.33
1.93770	5.32
1.95437	5.32
1.97103	5.31
1.98770	5.30
2.00437	5.29
2.02103	5.28
2.03770	5.27
2.05437	5.26
2.07103	5.25
2.08770	5.24
2.10437	5.23
2.12103	5.22
2.13770	5.21
2.15437	5.20
2.17103	5.19
2.18770	5.18
2.20437	5.17
2.22103	5.16
2.23770	5.15
2.25437	5.15
2.27103	5.14
2.28770	5.13
2.30437	5.12
2.32103	5.11
2.33770	5.10
2.35437	5.09
2.37103	5.08
2.38770	5.08
2.40437	5.08
2.42103	5.08
2.43770	5.08
2.45437	5.08
2.47103	5.08
2.48770	5.08
2.50437	5.08
2.52103	5.08
2.53770	5.08
2.55437	5.08
2.57103	5.08
2.58770	5.08
2.60437	5.08
2.62103	5.08
2.63770	5.08
2.65437	5.08
2.67103	5.08
2.68770	5.08
2.70437	5.08
2.72103	5.08
2.73770	5.08
2.75437	5.08
2.77103	5.08
2.78770	5.08
2.80437	5.08
2.82103	5.08
2.83770	5.08
2.85437	5.08
2.87103	5.08
2.88770	5.08
2.90437	5.08
2.92103	5.08
2.93770	5.08
2.95437	5.08
2.97103	5.07
2.98770	5.07
3.00437	5.07
3.02103	5.07
3.03770	5.07
3.05437	5.07
3.07103	5.07
3.08770	5.07
3.10437	5.07
3.12103	5.07
3.13770	5.07
3.15437	5.07
3.17103	5.07
3.18770	5.07
3.20437	5.07
3.22103	5.07
3.23770	5.07
3.25437	5.07
3.27103	5.07
3.28770	5.07
3.30437	5.07
3.32103	5.07
3.33770	5.07
3.35437	5.07
3.37103	5.07
3.38770	5.07
3.40437	5.07
3.42103	5.07
3.43770	5.07
3.45437	5.07
3.47103	5.07
3.48770	5.07
3.50437	5.07
3.52103	5.07
3.53770	5.07
3.55437	5.07
3.57103	5.07
3.58770	5.07
3.60437	5.07
3.62103	5.07
3.63770	5.07
3.65437	5.07
3.67103	5.07
3.68770	5.07
3.70437	5.07
3.72103	5.07
3.73770	5.07
3.75437	5.07
3.77103	5.07
3.78770	5.07
3.80437	5.07
3.82103	5.07
3.83770	5.07
3.85437	5.07
3.87103	5.07
3.88770	5.07
3.90437	5.07
3.92103	5.07
3.93770	5.07
3.95437	5.07
3.97103	5.07
3.98770	5.07

[Status Trace (Linear Velocity)]
Interval(msec)	1000
# of Points	240
Start Time(min)	0.004
End Time(min)	3.988
Intensity Units	
Intensity Multiplier	1
R.Time (min)	Intensity
0.00437	39.01
0.02103	37.69
0.03770	38.12
0.05437	39.64
0.07103	40.12
0.08770	39.11
0.10437	39.00
0.12103	39.02
0.13770	39.02
0.15437	39.02
0.17103	39.02
0.18770	39.02
0.20437	39.02
0.22103	39.02
0.23770	39.02
0.25437	39.02
0.27103	39.02
0.28770	39.02
0.30437	39.02
0.32103	39.02
0.33770	39.02
0.35437	39.02
0.37103	39.02
0.38770	39.02
0.40437	39.02
0.42103	39.02
0.43770	39.02
0.45437	39.02
0.47103	39.02
0.48770	39.02
0.50437	39.01
0.52103	39.02
0.53770	39.02
0.55437	39.02
0.57103	39.02
0.58770	39.02
0.60437	39.01
0.62103	39.01
0.63770	39.01
0.65437	39.01
0.67103	39.02
0.68770	39.02
0.70437	39.02
0.72103	39.02
0.73770	39.02
0.75437	39.02
0.77103	39.02
0.78770	39.02
0.80437	39.01
0.82103	39.01
0.83770	39.01
0.85437	39.01
0.87103	39.01
0.88770	39.01
0.90437	39.02
0.92103	39.02
0.93770	39.02
0.95437	39.02
0.97103	39.02
0.98770	39.02
1.00437	39.02
1.02103	39.02
1.03770	39.02
1.05437	39.02
1.07103	39.02
1.08770	39.02
1.10437	39.02
1.12103	39.02
1.13770	39.02
1.15437	39.02
1.17103	39.02
1.18770	39.02
1.20437	39.02
1.22103	39.02
1.23770	39.02
1.25437	39.02
1.27103	39.02
1.28770	39.02
1.30437	39.02
1.32103	39.02
1.33770	39.02
1.35437	39.02
1.37103	39.02
1.38770	39.01
1.40437	39.02
1.42103	39.02
1.43770	39.02
1.45437	39.02
1.47103	39.02
1.48770	39.02
1.50437	39.02
1.52103	39.02
1.53770	39.02
1.55437	39.02
1.57103	39.02
1.58770	39.02
1.60437	39.01
1.62103	39.00
1.63770	38.99
1.65437	38.97
1.67103	38.94
1.68770	38.90
1.70437	38.86
1.72103	38.83
1.73770	38.80
1.75437	38.77
1.77103	38.74
1.78770	38.71
1.80437	38.67
1.82103	38.64
1.83770	38.61
1.85437	38.58
1.87103	38.55
1.88770	38.52
1.90437	38.49
1.92103	38.46
1.93770	38.42
1.95437	38.40
1.97103	38.37
1.98770	38.34
2.00437	38.31
2.02103	38.27
2.03770	38.25
2.05437	38.22
2.07103	38.19
2.08770	38.16
2.10437	38.13
2.12103	38.10
2.13770	38.07
2.15437	38.04
2.17103	38.01
2.18770	37.98
2.20437	37.95
2.22103	37.92
2.23770	37.89
2.25437	37.86
2.27103	37.83
2.28770	37.80
2.30437	37.77
2.32103	37.74
2.33770	37.71
2.35437	37.69
2.37103	37.66
2.38770	37.66
2.40437	37.66
2.42103	37.66
2.43770	37.66
2.45437	37.66
2.47103	37.66
2.48770	37.66
2.50437	37.65
2.52103	37.65
2.53770	37.65
2.55437	37.65
2.57103	37.65
2.58770	37.65
2.60437	37.65
2.62103	37.65
2.63770	37.65
2.65437	37.65
2.67103	37.65
2.68770	37.65
2.70437	37.64
2.72103	37.64
2.73770	37.64
2.75437	37.64
2.77103	37.64
2.78770	37.64
2.80437	37.64
2.82103	37.64
2.83770	37.64
2.85437	37.64
2.87103	37.64
2.88770	37.64
2.90437	37.64
2.92103	37.64
2.93770	37.64
2.95437	37.64
2.97103	37.64
2.98770	37.63
3.00437	37.63
3.02103	37.63
3.03770	37.63
3.05437	37.63
3.07103	37.63
3.08770	37.63
3.10437	37.63
3.12103	37.63
3.13770	37.63
3.15437	37.63
3.17103	37.63
3.18770	37.63
3.20437	37.63
3.22103	37.63
3.23770	37.62
3.25437	37.62
3.27103	37.62
3.28770	37.62
3.30437	37.62
3.32103	37.62
3.33770	37.62
3.35437	37.62
3.37103	37.62
3.38770	37.62
3.40437	37.62
3.42103	37.62
3.43770	37.62
3.45437	37.62
3.47103	37.63
3.48770	37.63
3.50437	37.63
3.52103	37.63
3.53770	37.63
3.55437	37.63
3.57103	37.63
3.58770	37.63
3.60437	37.63
3.62103	37.63
3.63770	37.63
3.65437	37.63
3.67103	37.63
3.68770	37.63
3.70437	37.63
3.72103	37.63
3.73770	37.63
3.75437	37.63
3.77103	37.63
3.78770	37.63
3.80437	37.63
3.82103	37.63
3.83770	37.63
3.85437	37.63
3.87103	37.63
3.88770	37.63
3.90437	37.63
3.92103	37.63
3.93770	37.63
3.95437	37.63
3.97103	37.63
3.98770	37.63

