[Header]
Application Name	LabSolutions
Version	5.110
Data File Name	C:\Users\User\Desktop\Junior\UIC Prairie Sampling\3.23.23\032323_008.gcd
Output Date	5/24/2023
Output Time	10:27:35 AM

[File Information]
Type	Data File
Generated	5/23/2023 4:10:55 PM
Generated by	System Administrator
Modified	5/23/2023 4:17:45 PM
Modified by	System Administrator

[Sample Information]
Operator Name	System Administrator
Acquired	5/23/2023 4:13:44 PM
Sample Type	0:Unknown
Level	0
Sample Name	008
Sample ID	008
ISTD Amount1	1
ISTD Amount2	1
ISTD Amount3	1
ISTD Amount4	1
ISTD Amount5	1
ISTD Amount6	1
ISTD Amount7	1
ISTD Amount8	1
ISTD Amount9	1
ISTD Amount10	1
ISTD Amount11	1
ISTD Amount12	1
ISTD Amount13	1
ISTD Amount14	1
ISTD Amount15	1
ISTD Amount16	1
ISTD Amount17	1
ISTD Amount18	1
ISTD Amount19	1
ISTD Amount20	1
ISTD Amount21	1
ISTD Amount22	1
ISTD Amount23	1
ISTD Amount24	1
ISTD Amount25	1
ISTD Amount26	1
ISTD Amount27	1
ISTD Amount28	1
ISTD Amount29	1
ISTD Amount30	1
ISTD Amount31	1
ISTD Amount32	1
Sample Amount	1
Dilution Factor	1
Vial#	7
Injection Volume	1
Injection Count	1
Bar Code	

[Original Files]
Data File	C:\Users\User\Desktop\GC Analyses\Jack\Nachusa Grasslands Sampling\20220924\t2\032323_008.gcd
Method File	C:\LabSolutions\Data\GHG_4min_2022\ghg3_togas_w_acet_4 min_new_int.gcm
Batch File	C:\LabSolutions\Data\AutoSamplerTesting\032323.gcb
Report Format File	c:\LabSolutions\System\DEFAULT.lsr

[File Description]


[Configuration]
Instrument Name	C0B7VH3-Instrument1
Instrument #	1
Line #	1
# of Detectors	3
Detector ID	DET#1	DET#2	DET#3
Detector Name	FID	PTCD	ECD
# of Channels	1	1	1

[Peak Table(Ch1)]
# of Peaks	3
Peak#	R.Time	I.Time	F.Time	Area	Height	A/H	Conc.	Mark	ID#	Name	k'	Plate #	Plate Ht.	Tailing	Resolution	Sep.Factor	Area Ratio	Height Ratio	Conc. %	Norm Conc.
1	1.490	1.476	1.531	228	111	2.060	0.000	   	1	CO	0.000	7479	20.057	0.000	0.000	0.000	0	0	0.000	0.000
2	1.567	1.531	1.622	4475	2253	1.986	21.819	 V 	2	CH4	0.052	11446	13.105	1.131	1.208	0.000	0	0	10.451	10.451
3	1.993	1.941	2.341	970106	463909	2.091	186.957	   	3	CO2	0.337	17434	8.604	1.307	7.150	6.524	0	0	89.549	89.549

[Peak Table(Ch2)]
# of Peaks	0

[Peak Table(Ch3)]
# of Peaks	5
Peak#	R.Time	I.Time	F.Time	Area	Height	A/H	Conc.	Mark	ID#	Name	k'	Plate #	Plate Ht.	Tailing	Resolution	Sep.Factor	Area Ratio	Height Ratio	Conc. %	Norm Conc.
1	2.466	2.440	2.499	641	259	2.471	0.000	   			0.000	14531	10.323	0.000	0.000	0.000	0	0	0.000	0.000
2	2.506	2.499	2.554	348	149	2.339	0.000	 V 			0.016	2509	59.793	0.000	0.286	0.000	0	0	0.000	0.000
3	2.594	2.554	2.656	382	103	3.699	0.000	 V 			0.052	6426	23.341	0.000	0.534	3.182	0	0	0.000	0.000
4	2.887	2.832	2.979	15119	4287	3.527	0.224	   	1	N2O	0.171	14334	10.465	0.000	2.597	3.286	0	0	100.000	100.000
5	3.089	2.979	3.635	12826	578	22.209	0.000	 V 	2	SF6	0.253	390	384.713	0.000	0.558	1.478	0	0	0.000	0.000

[Compound Results(Ch1)]
# of IDs	6
ID#	Name	R.Time	Area	Height	Conc.	Curve	3rd	2nd	1st	Constant	Area Ratio	Height Ratio	Conc. %	Norm Conc.
1	CO	1.490	228	111	0.000	Linear	0.000000e+00	0.000000e+00	0.000000e+00	0.000000e+00	0	0	0.000	0.000
2	CH4	1.567	4475	2253	21.819	Linear	0.000000e+00	0.000000e+00	2.051179e+002	0.000000e+00	0	0	10.451	10.451
3	CO2	1.993	970106	463909	186.957	Linear	0.000000e+00	0.000000e+00	5.188919e+003	0.000000e+00	0	0	89.549	89.549
4	Ethylene	0.000	0	0	0.000	Linear	0.000000e+00	0.000000e+00	0.000000e+00	0.000000e+00	0	0	0.000	0.000
5	Acetylene	0.000	0	0	0.000	Linear	0.000000e+00	0.000000e+00	0.000000e+00	0.000000e+00	0	0	0.000	0.000
6	Ethane	0.000	0	0	0.000	Linear	0.000000e+00	0.000000e+00	0.000000e+00	0.000000e+00	0	0	0.000	0.000

[Compound Results(Ch2)]
# of IDs	5
ID#	Name	R.Time	Area	Height	Conc.	Curve	3rd	2nd	1st	Constant	Area Ratio	Height Ratio	Conc. %	Norm Conc.
1	Hydrogen	0.000	0	0	0.000	Linear	0.000000e+00	0.000000e+00	0.000000e+00	0.000000e+00	0	0	0.000	0.000
2	Oxygen	0.000	0	0	0.000	Linear	0.000000e+00	0.000000e+00	0.000000e+00	0.000000e+00	0	0	0.000	0.000
3	Nitrogen	0.000	0	0	0.000	Linear	0.000000e+00	0.000000e+00	0.000000e+00	0.000000e+00	0	0	0.000	0.000
4	Methane	0.000	0	0	0.000	Linear	0.000000e+00	0.000000e+00	0.000000e+00	0.000000e+00	0	0	0.000	0.000
5	Carbon Monoxide	0.000	0	0	0.000	Linear	0.000000e+00	0.000000e+00	0.000000e+00	0.000000e+00	0	0	0.000	0.000

[Compound Results(Ch3)]
# of IDs	2
ID#	Name	R.Time	Area	Height	Conc.	Curve	3rd	2nd	1st	Constant	Area Ratio	Height Ratio	Conc. %	Norm Conc.
1	N2O	2.887	15119	4287	0.224	Linear	0.000000e+00	0.000000e+00	6.759880e+004	0.000000e+00	0	0	100.000	100.000
2	SF6	3.089	12826	578	0.000	Linear	0.000000e+00	0.000000e+00	0.000000e+00	0.000000e+00	0	0	0.000	0.000

[Group Results(Ch1)]
# of Groups	0

[Group Results(Ch2)]
# of Groups	0

[Group Results(Ch3)]
# of Groups	0

[Chromatogram (Ch1)]
Interval(msec)	220
# of Points	1091
Start Time(min)	0.002
End Time(min)	3.998
R.Time (min)	Intensity
0.00167	-4
0.00533	0
0.00900	0
0.01267	-4
0.01633	-8
0.02000	-11
0.02367	-12
0.02733	-13
0.03100	-12
0.03467	-12
0.03833	-8
0.04200	-4
0.04567	1
0.04933	3
0.05300	-0
0.05667	-6
0.06033	-12
0.06400	-18
0.06767	-22
0.07133	-20
0.07500	-18
0.07867	-17
0.08233	-16
0.08600	-15
0.08967	-12
0.09333	-9
0.09700	-8
0.10067	-9
0.10433	-11
0.10800	-13
0.11167	-12
0.11533	-9
0.11900	-6
0.12267	-3
0.12633	2
0.13000	4
0.13367	6
0.13733	9
0.14100	11
0.14467	11
0.14833	8
0.15200	3
0.15567	-5
0.15933	-14
0.16300	-19
0.16667	-19
0.17033	-18
0.17400	-18
0.17767	-20
0.18133	-20
0.18500	-18
0.18867	-12
0.19233	-8
0.19600	-7
0.19967	-8
0.20333	-11
0.20700	-15
0.21067	-17
0.21433	-18
0.21800	-19
0.22167	-19
0.22533	-17
0.22900	-13
0.23267	-10
0.23633	-7
0.24000	-2
0.24367	3
0.24733	4
0.25100	6
0.25467	6
0.25833	5
0.26200	3
0.26567	1
0.26933	-2
0.27300	-4
0.27667	-4
0.28033	-3
0.28400	0
0.28767	3
0.29133	1
0.29500	-7
0.29867	-13
0.30233	-14
0.30600	-13
0.30967	-8
0.31333	-0
0.31700	6
0.32067	7
0.32433	2
0.32800	-5
0.33167	-11
0.33533	-15
0.33900	-18
0.34267	-22
0.34633	-26
0.35000	-29
0.35367	-32
0.35733	-33
0.36100	-32
0.36467	-29
0.36833	-26
0.37200	-26
0.37567	-25
0.37933	-22
0.38300	-17
0.38667	-12
0.39033	-9
0.39400	-8
0.39767	-5
0.40133	-3
0.40500	-8
0.40867	-15
0.41233	-18
0.41600	-19
0.41967	-16
0.42333	-11
0.42700	-9
0.43067	-8
0.43433	-6
0.43800	-6
0.44167	-11
0.44533	-17
0.44900	-23
0.45267	-23
0.45633	-20
0.46000	-16
0.46367	-11
0.46733	-8
0.47100	-7
0.47467	-8
0.47833	-8
0.48200	-4
0.48567	-0
0.48933	0
0.49300	-5
0.49667	-12
0.50033	-15
0.50400	-15
0.50767	-12
0.51133	-9
0.51500	-5
0.51867	0
0.52233	8
0.52600	12
0.52967	9
0.53333	2
0.53700	-4
0.54067	-12
0.54433	-17
0.54800	-16
0.55167	-13
0.55533	-9
0.55900	-7
0.56267	-6
0.56633	-5
0.57000	-2
0.57367	2
0.57733	5
0.58100	6
0.58467	-1
0.58833	-16
0.59200	-30
0.59567	-36
0.59933	-34
0.60300	-27
0.60667	-18
0.61033	-11
0.61400	-8
0.61767	-5
0.62133	-6
0.62500	-8
0.62867	-12
0.63233	-19
0.63600	-27
0.63967	-34
0.64333	-37
0.64700	-34
0.65067	-28
0.65433	-22
0.65800	-18
0.66167	-10
0.66533	-3
0.66900	1
0.67267	3
0.67633	3
0.68000	2
0.68367	-1
0.68733	-5
0.69100	-10
0.69467	-14
0.69833	-13
0.70200	-12
0.70567	-11
0.70933	-9
0.71300	-8
0.71667	-8
0.72033	-11
0.72400	-16
0.72767	-21
0.73133	-24
0.73500	-21
0.73867	-14
0.74233	-10
0.74600	-13
0.74967	-20
0.75333	-27
0.75700	-30
0.76067	-32
0.76433	-30
0.76800	-27
0.77167	-25
0.77533	-27
0.77900	-28
0.78267	-23
0.78633	-16
0.79000	-10
0.79367	-7
0.79733	-6
0.80100	-5
0.80467	-5
0.80833	-9
0.81200	-13
0.81567	-16
0.81933	-19
0.82300	-19
0.82667	-16
0.83033	-10
0.83400	-4
0.83767	1
0.84133	1
0.84500	-6
0.84867	-15
0.85233	-22
0.85600	-26
0.85967	-29
0.86333	-33
0.86700	-37
0.87067	-38
0.87433	-34
0.87800	-30
0.88167	-28
0.88533	-28
0.88900	-25
0.89267	-22
0.89633	-21
0.90000	-20
0.90367	-16
0.90733	-15
0.91100	-18
0.91467	-25
0.91833	-32
0.92200	-36
0.92567	-37
0.92933	-34
0.93300	-32
0.93667	-34
0.94033	-37
0.94400	-38
0.94767	-35
0.95133	-32
0.95500	-29
0.95867	-24
0.96233	-16
0.96600	-7
0.96967	-2
0.97333	-2
0.97700	-8
0.98067	-16
0.98433	-22
0.98800	-25
0.99167	-26
0.99533	-27
0.99900	-26
1.00267	-23
1.00633	-21
1.01000	-21
1.01367	-23
1.01733	-27
1.02100	-28
1.02467	-25
1.02833	-25
1.03200	-25
1.03567	-22
1.03933	-14
1.04300	-10
1.04667	-12
1.05033	-22
1.05400	-31
1.05767	-38
1.06133	-45
1.06500	-49
1.06867	-53
1.07233	-54
1.07600	-50
1.07967	-46
1.08333	-42
1.08700	-38
1.09067	-35
1.09433	-34
1.09800	-34
1.10167	-35
1.10533	-35
1.10900	-30
1.11267	-22
1.11633	-14
1.12000	-7
1.12367	-4
1.12733	-6
1.13100	-9
1.13467	-11
1.13833	-11
1.14200	-16
1.14567	-27
1.14933	-41
1.15300	-55
1.15667	-67
1.16033	-72
1.16400	-74
1.16767	-69
1.17133	-61
1.17500	-55
1.17867	-55
1.18233	-60
1.18600	-64
1.18967	-63
1.19333	-58
1.19700	-53
1.20067	-49
1.20433	-45
1.20800	-43
1.21167	-42
1.21533	-44
1.21900	-45
1.22267	-47
1.22633	-43
1.23000	-35
1.23367	-32
1.23733	-34
1.24100	-37
1.24467	-41
1.24833	-45
1.25200	-48
1.25567	-49
1.25933	-50
1.26300	-53
1.26667	-54
1.27033	-55
1.27400	-57
1.27767	-58
1.28133	-52
1.28500	-43
1.28867	-36
1.29233	-34
1.29600	-40
1.29967	-49
1.30333	-54
1.30700	-57
1.31067	-58
1.31433	-57
1.31800	-54
1.32167	-53
1.32533	-54
1.32900	-57
1.33267	-57
1.33633	-52
1.34000	-45
1.34367	-41
1.34733	-41
1.35100	-41
1.35467	-41
1.35833	-43
1.36200	-42
1.36567	-39
1.36933	-39
1.37300	-46
1.37667	-56
1.38033	-66
1.38400	-71
1.38767	-68
1.39133	-62
1.39500	-52
1.39867	-40
1.40233	-31
1.40600	-27
1.40967	-30
1.41333	-38
1.41700	-48
1.42067	-56
1.42433	-58
1.42800	-56
1.43167	-55
1.43533	-50
1.43900	-28
1.44267	22
1.44633	61
1.45000	54
1.45367	11
1.45733	-49
1.46100	-114
1.46467	-167
1.46833	-193
1.47200	-182
1.47567	-143
1.47933	-95
1.48300	-56
1.48667	-33
1.49033	-26
1.49400	-31
1.49767	-39
1.50133	-43
1.50500	-48
1.50867	-56
1.51233	-63
1.51600	-70
1.51967	-76
1.52333	-81
1.52700	-87
1.53067	-91
1.53433	-82
1.53800	-30
1.54167	126
1.54533	435
1.54900	858
1.55267	1302
1.55633	1689
1.56000	1975
1.56367	2140
1.56733	2153
1.57100	1996
1.57467	1700
1.57833	1335
1.58200	975
1.58567	670
1.58933	439
1.59300	274
1.59667	156
1.60033	76
1.60400	22
1.60767	-14
1.61133	-38
1.61500	-55
1.61867	-67
1.62233	-74
1.62600	-75
1.62967	-72
1.63333	-66
1.63700	-62
1.64067	-58
1.64433	-55
1.64800	-54
1.65167	-55
1.65533	-59
1.65900	-63
1.66267	-65
1.66633	-68
1.67000	-72
1.67367	-76
1.67733	-79
1.68100	-78
1.68467	-74
1.68833	-70
1.69200	-68
1.69567	-71
1.69933	-75
1.70300	-80
1.70667	-80
1.71033	-78
1.71400	-72
1.71767	-67
1.72133	-62
1.72500	-60
1.72867	-60
1.73233	-63
1.73600	-66
1.73967	-71
1.74333	-78
1.74700	-86
1.75067	-94
1.75433	-99
1.75800	-97
1.76167	-89
1.76533	-79
1.76900	-74
1.77267	-73
1.77633	-71
1.78000	-67
1.78367	-66
1.78733	-66
1.79100	-64
1.79467	-63
1.79833	-64
1.80200	-67
1.80567	-73
1.80933	-79
1.81300	-82
1.81667	-85
1.82033	-87
1.82400	-88
1.82767	-90
1.83133	-92
1.83500	-94
1.83867	-93
1.84233	-90
1.84600	-84
1.84967	-76
1.85333	-67
1.85700	-58
1.86067	-54
1.86433	-53
1.86800	-58
1.87167	-63
1.87533	-66
1.87900	-66
1.88267	-63
1.88633	-62
1.89000	-60
1.89367	-61
1.89733	-62
1.90100	-62
1.90467	-62
1.90833	-61
1.91200	-61
1.91567	-64
1.91933	-70
1.92300	-73
1.92667	-73
1.93033	-72
1.93400	-70
1.93767	-67
1.94133	-61
1.94500	-52
1.94867	-33
1.95233	43
1.95600	463
1.95967	2407
1.96333	9238
1.96700	27525
1.97067	65444
1.97433	127333
1.97800	208637
1.98167	296732
1.98533	376428
1.98900	434992
1.99267	463886
1.99633	459287
2.00000	423412
2.00367	364629
2.00733	295133
2.01100	226627
2.01467	166978
2.01833	119461
2.02200	83937
2.02567	58525
2.02933	40871
2.03300	28829
2.03667	20690
2.04033	15195
2.04400	11459
2.04767	8885
2.05133	7078
2.05500	5787
2.05867	4847
2.06233	4149
2.06600	3614
2.06967	3193
2.07333	2858
2.07700	2586
2.08067	2357
2.08433	2160
2.08800	1989
2.09167	1841
2.09533	1712
2.09900	1603
2.10267	1507
2.10633	1420
2.11000	1337
2.11367	1257
2.11733	1182
2.12100	1117
2.12467	1060
2.12833	1010
2.13200	970
2.13567	940
2.13933	911
2.14300	881
2.14667	850
2.15033	815
2.15400	770
2.15767	725
2.16133	686
2.16500	654
2.16867	625
2.17233	599
2.17600	576
2.17967	558
2.18333	543
2.18700	531
2.19067	519
2.19433	506
2.19800	492
2.20167	477
2.20533	462
2.20900	450
2.21267	441
2.21633	432
2.22000	425
2.22367	419
2.22733	413
2.23100	408
2.23467	401
2.23833	390
2.24200	378
2.24567	366
2.24933	358
2.25300	352
2.25667	345
2.26033	336
2.26400	326
2.26767	319
2.27133	316
2.27500	315
2.27867	314
2.28233	310
2.28600	302
2.28967	292
2.29333	283
2.29700	276
2.30067	271
2.30433	268
2.30800	267
2.31167	269
2.31533	274
2.31900	280
2.32267	284
2.32633	280
2.33000	271
2.33367	257
2.33733	243
2.34100	229
2.34467	218
2.34833	212
2.35200	213
2.35567	218
2.35933	227
2.36300	237
2.36667	242
2.37033	242
2.37400	239
2.37767	233
2.38133	226
2.38500	220
2.38867	217
2.39233	217
2.39600	217
2.39967	218
2.40333	219
2.40700	220
2.41067	223
2.41433	224
2.41800	222
2.42167	218
2.42533	215
2.42900	212
2.43267	208
2.43633	206
2.44000	209
2.44367	209
2.44733	207
2.45100	208
2.45467	213
2.45833	220
2.46200	229
2.46567	236
2.46933	240
2.47300	242
2.47667	238
2.48033	226
2.48400	210
2.48767	197
2.49133	189
2.49500	187
2.49867	192
2.50233	199
2.50600	204
2.50967	207
2.51333	211
2.51700	218
2.52067	224
2.52433	226
2.52800	225
2.53167	223
2.53533	220
2.53900	213
2.54267	203
2.54633	194
2.55000	187
2.55367	186
2.55733	188
2.56100	192
2.56467	197
2.56833	204
2.57200	211
2.57567	214
2.57933	216
2.58300	219
2.58667	222
2.59033	224
2.59400	223
2.59767	221
2.60133	220
2.60500	220
2.60867	220
2.61233	223
2.61600	225
2.61967	226
2.62333	225
2.62700	225
2.63067	227
2.63433	231
2.63800	230
2.64167	226
2.64533	223
2.64900	224
2.65267	224
2.65633	226
2.66000	228
2.66367	228
2.66733	224
2.67100	220
2.67467	218
2.67833	221
2.68200	232
2.68567	247
2.68933	256
2.69300	255
2.69667	246
2.70033	236
2.70400	231
2.70767	237
2.71133	247
2.71500	254
2.71867	258
2.72233	258
2.72600	257
2.72967	252
2.73333	250
2.73700	251
2.74067	253
2.74433	251
2.74800	248
2.75167	247
2.75533	248
2.75900	253
2.76267	259
2.76633	265
2.77000	266
2.77367	263
2.77733	259
2.78100	256
2.78467	255
2.78833	257
2.79200	258
2.79567	255
2.79933	253
2.80300	252
2.80667	252
2.81033	252
2.81400	251
2.81767	254
2.82133	261
2.82500	268
2.82867	274
2.83233	276
2.83600	275
2.83967	274
2.84333	274
2.84700	279
2.85067	285
2.85433	290
2.85800	291
2.86167	291
2.86533	292
2.86900	291
2.87267	291
2.87633	294
2.88000	298
2.88367	300
2.88733	296
2.89100	286
2.89467	273
2.89833	263
2.90200	261
2.90567	266
2.90933	274
2.91300	282
2.91667	287
2.92033	286
2.92400	282
2.92767	279
2.93133	279
2.93500	279
2.93867	283
2.94233	289
2.94600	297
2.94967	305
2.95333	312
2.95700	312
2.96067	310
2.96433	310
2.96800	311
2.97167	310
2.97533	308
2.97900	305
2.98267	301
2.98633	297
2.99000	292
2.99367	292
2.99733	297
3.00100	304
3.00467	310
3.00833	311
3.01200	309
3.01567	307
3.01933	305
3.02300	305
3.02667	305
3.03033	304
3.03400	302
3.03767	303
3.04133	306
3.04500	308
3.04867	309
3.05233	311
3.05600	311
3.05967	308
3.06333	307
3.06700	305
3.07067	303
3.07433	299
3.07800	292
3.08167	287
3.08533	284
3.08900	286
3.09267	293
3.09633	299
3.10000	303
3.10367	300
3.10733	298
3.11100	303
3.11467	313
3.11833	327
3.12200	333
3.12567	327
3.12933	317
3.13300	305
3.13667	296
3.14033	289
3.14400	285
3.14767	283
3.15133	281
3.15500	280
3.15867	284
3.16233	291
3.16600	297
3.16967	302
3.17333	304
3.17700	303
3.18067	302
3.18433	303
3.18800	305
3.19167	303
3.19533	300
3.19900	298
3.20267	301
3.20633	307
3.21000	310
3.21367	310
3.21733	308
3.22100	299
3.22467	289
3.22833	284
3.23200	282
3.23567	285
3.23933	289
3.24300	294
3.24667	295
3.25033	291
3.25400	286
3.25767	285
3.26133	289
3.26500	294
3.26867	297
3.27233	300
3.27600	308
3.27967	316
3.28333	322
3.28700	322
3.29067	318
3.29433	314
3.29800	309
3.30167	305
3.30533	307
3.30900	311
3.31267	308
3.31633	301
3.32000	297
3.32367	298
3.32733	300
3.33100	297
3.33467	292
3.33833	289
3.34200	288
3.34567	288
3.34933	286
3.35300	282
3.35667	282
3.36033	284
3.36400	289
3.36767	290
3.37133	285
3.37500	279
3.37867	277
3.38233	280
3.38600	288
3.38967	294
3.39333	294
3.39700	289
3.40067	285
3.40433	283
3.40800	281
3.41167	279
3.41533	277
3.41900	277
3.42267	281
3.42633	282
3.43000	278
3.43367	272
3.43733	270
3.44100	273
3.44467	276
3.44833	273
3.45200	270
3.45567	269
3.45933	267
3.46300	262
3.46667	258
3.47033	256
3.47400	257
3.47767	260
3.48133	265
3.48500	271
3.48867	277
3.49233	281
3.49600	282
3.49967	281
3.50333	279
3.50700	274
3.51067	267
3.51433	265
3.51800	268
3.52167	273
3.52533	277
3.52900	279
3.53267	279
3.53633	284
3.54000	290
3.54367	295
3.54733	296
3.55100	294
3.55467	290
3.55833	285
3.56200	277
3.56567	266
3.56933	256
3.57300	253
3.57667	257
3.58033	260
3.58400	263
3.58767	262
3.59133	261
3.59500	263
3.59867	265
3.60233	265
3.60600	263
3.60967	259
3.61333	251
3.61700	246
3.62067	246
3.62433	250
3.62800	256
3.63167	259
3.63533	260
3.63900	256
3.64267	250
3.64633	247
3.65000	248
3.65367	250
3.65733	252
3.66100	252
3.66467	251
3.66833	248
3.67200	246
3.67567	246
3.67933	246
3.68300	245
3.68667	244
3.69033	245
3.69400	249
3.69767	253
3.70133	258
3.70500	263
3.70867	264
3.71233	264
3.71600	261
3.71967	255
3.72333	245
3.72700	241
3.73067	242
3.73433	241
3.73800	239
3.74167	237
3.74533	239
3.74900	244
3.75267	248
3.75633	248
3.76000	246
3.76367	243
3.76733	237
3.77100	235
3.77467	237
3.77833	240
3.78200	239
3.78567	232
3.78933	225
3.79300	222
3.79667	221
3.80033	220
3.80400	220
3.80767	219
3.81133	219
3.81500	224
3.81867	231
3.82233	237
3.82600	242
3.82967	246
3.83333	247
3.83700	247
3.84067	244
3.84433	239
3.84800	234
3.85167	231
3.85533	230
3.85900	233
3.86267	237
3.86633	240
3.87000	241
3.87367	240
3.87733	236
3.88100	234
3.88467	233
3.88833	233
3.89200	235
3.89567	238
3.89933	236
3.90300	233
3.90667	232
3.91033	235
3.91400	239
3.91767	238
3.92133	233
3.92500	227
3.92867	226
3.93233	229
3.93600	235
3.93967	240
3.94333	239
3.94700	237
3.95067	237
3.95433	234
3.95800	231
3.96167	228
3.96533	227
3.96900	228
3.97267	227
3.97633	219
3.98000	208
3.98367	198
3.98733	196
3.99100	199
3.99467	205
3.99833	209

[Chromatogram (Ch2)]
Interval(msec)	220
# of Points	1091
Start Time(min)	0.002
End Time(min)	3.998
R.Time (min)	Intensity
0.00167	-0
0.00533	-0
0.00900	-0
0.01267	-1
0.01633	-1
0.02000	-1
0.02367	-1
0.02733	-1
0.03100	-1
0.03467	-1
0.03833	-1
0.04200	-1
0.04567	-1
0.04933	-1
0.05300	-1
0.05667	-1
0.06033	-1
0.06400	-1
0.06767	-1
0.07133	-1
0.07500	-1
0.07867	-1
0.08233	-1
0.08600	-2
0.08967	-2
0.09333	-2
0.09700	-2
0.10067	-2
0.10433	-3
0.10800	-3
0.11167	-3
0.11533	-3
0.11900	-3
0.12267	-3
0.12633	-3
0.13000	-3
0.13367	-3
0.13733	-3
0.14100	-3
0.14467	-3
0.14833	-3
0.15200	-3
0.15567	-3
0.15933	-3
0.16300	-3
0.16667	-3
0.17033	-3
0.17400	-3
0.17767	-3
0.18133	-2
0.18500	-2
0.18867	-2
0.19233	-2
0.19600	-3
0.19967	-3
0.20333	-3
0.20700	-3
0.21067	-3
0.21433	-3
0.21800	-3
0.22167	-3
0.22533	-3
0.22900	-3
0.23267	-3
0.23633	-3
0.24000	-3
0.24367	-3
0.24733	-3
0.25100	-3
0.25467	-3
0.25833	-3
0.26200	-3
0.26567	-4
0.26933	-4
0.27300	-4
0.27667	-4
0.28033	-4
0.28400	-5
0.28767	-5
0.29133	-5
0.29500	-5
0.29867	-5
0.30233	-6
0.30600	-6
0.30967	-5
0.31333	-5
0.31700	-5
0.32067	-5
0.32433	-5
0.32800	-5
0.33167	-5
0.33533	-4
0.33900	-4
0.34267	-4
0.34633	-4
0.35000	-4
0.35367	-4
0.35733	-3
0.36100	-3
0.36467	-3
0.36833	-3
0.37200	-2
0.37567	-2
0.37933	-2
0.38300	-2
0.38667	-2
0.39033	-2
0.39400	-2
0.39767	-1
0.40133	-1
0.40500	-1
0.40867	-1
0.41233	-1
0.41600	-1
0.41967	-1
0.42333	-1
0.42700	-1
0.43067	-1
0.43433	-1
0.43800	-1
0.44167	-1
0.44533	-1
0.44900	-1
0.45267	-1
0.45633	-1
0.46000	-1
0.46367	-1
0.46733	-1
0.47100	-2
0.47467	-2
0.47833	-2
0.48200	-2
0.48567	-2
0.48933	-2
0.49300	-2
0.49667	-3
0.50033	-3
0.50400	-3
0.50767	-3
0.51133	-3
0.51500	-3
0.51867	-3
0.52233	-2
0.52600	-2
0.52967	-2
0.53333	-2
0.53700	-2
0.54067	-2
0.54433	-3
0.54800	-3
0.55167	-3
0.55533	-3
0.55900	-3
0.56267	-3
0.56633	-3
0.57000	-3
0.57367	-3
0.57733	-3
0.58100	-3
0.58467	-3
0.58833	-3
0.59200	-3
0.59567	-3
0.59933	-3
0.60300	-3
0.60667	-3
0.61033	-4
0.61400	-4
0.61767	-4
0.62133	-4
0.62500	-4
0.62867	-4
0.63233	-4
0.63600	-4
0.63967	-4
0.64333	-4
0.64700	-4
0.65067	-4
0.65433	-4
0.65800	-4
0.66167	-4
0.66533	-4
0.66900	-4
0.67267	-4
0.67633	-5
0.68000	-5
0.68367	-5
0.68733	-5
0.69100	-5
0.69467	-5
0.69833	-6
0.70200	-6
0.70567	-6
0.70933	-6
0.71300	-6
0.71667	-6
0.72033	-6
0.72400	-6
0.72767	-6
0.73133	-6
0.73500	-6
0.73867	-6
0.74233	-6
0.74600	-6
0.74967	-5
0.75333	-5
0.75700	-5
0.76067	-4
0.76433	-4
0.76800	-4
0.77167	-4
0.77533	-3
0.77900	-3
0.78267	-3
0.78633	-3
0.79000	-3
0.79367	-3
0.79733	-3
0.80100	-2
0.80467	-2
0.80833	-2
0.81200	-2
0.81567	-2
0.81933	-2
0.82300	-2
0.82667	-3
0.83033	-3
0.83400	-3
0.83767	-3
0.84133	-3
0.84500	-4
0.84867	-4
0.85233	-4
0.85600	-4
0.85967	-5
0.86333	-5
0.86700	-5
0.87067	-5
0.87433	-5
0.87800	-5
0.88167	-5
0.88533	-5
0.88900	-5
0.89267	-5
0.89633	-5
0.90000	-5
0.90367	-5
0.90733	-5
0.91100	-4
0.91467	-4
0.91833	-4
0.92200	-4
0.92567	-4
0.92933	-4
0.93300	-4
0.93667	-4
0.94033	-4
0.94400	-4
0.94767	-4
0.95133	-4
0.95500	-4
0.95867	-4
0.96233	-3
0.96600	-3
0.96967	-3
0.97333	-3
0.97700	-2
0.98067	-3
0.98433	-3
0.98800	-3
0.99167	-3
0.99533	-3
0.99900	-3
1.00267	-3
1.00633	-3
1.01000	-2
1.01367	-2
1.01733	-2
1.02100	-2
1.02467	-1
1.02833	-1
1.03200	-1
1.03567	-1
1.03933	-1
1.04300	-1
1.04667	-1
1.05033	-1
1.05400	-1
1.05767	-2
1.06133	-2
1.06500	-2
1.06867	-2
1.07233	-2
1.07600	-2
1.07967	-2
1.08333	-2
1.08700	-2
1.09067	-2
1.09433	-3
1.09800	-3
1.10167	-3
1.10533	-3
1.10900	-3
1.11267	-3
1.11633	-3
1.12000	-3
1.12367	-3
1.12733	-3
1.13100	-3
1.13467	-3
1.13833	-3
1.14200	-2
1.14567	-2
1.14933	-2
1.15300	-2
1.15667	-2
1.16033	-2
1.16400	-2
1.16767	-2
1.17133	-2
1.17500	-2
1.17867	-2
1.18233	-2
1.18600	-2
1.18967	-2
1.19333	-2
1.19700	-2
1.20067	-3
1.20433	-3
1.20800	-3
1.21167	-3
1.21533	-4
1.21900	-4
1.22267	-4
1.22633	-4
1.23000	-4
1.23367	-4
1.23733	-4
1.24100	-4
1.24467	-4
1.24833	-4
1.25200	-4
1.25567	-4
1.25933	-4
1.26300	-4
1.26667	-4
1.27033	-4
1.27400	-4
1.27767	-4
1.28133	-5
1.28500	-5
1.28867	-5
1.29233	-4
1.29600	-5
1.29967	-5
1.30333	-5
1.30700	-5
1.31067	-5
1.31433	-6
1.31800	-6
1.32167	-6
1.32533	-6
1.32900	-5
1.33267	-5
1.33633	-5
1.34000	-5
1.34367	-4
1.34733	-4
1.35100	-4
1.35467	-4
1.35833	-4
1.36200	-3
1.36567	-3
1.36933	-3
1.37300	-3
1.37667	-3
1.38033	-3
1.38400	-3
1.38767	-3
1.39133	-2
1.39500	-2
1.39867	-3
1.40233	-3
1.40600	-3
1.40967	-3
1.41333	-3
1.41700	-3
1.42067	-3
1.42433	-3
1.42800	-2
1.43167	-2
1.43533	-2
1.43900	-2
1.44267	-2
1.44633	-2
1.45000	-2
1.45367	-2
1.45733	-2
1.46100	-2
1.46467	-2
1.46833	-2
1.47200	-2
1.47567	-1
1.47933	-1
1.48300	-1
1.48667	-1
1.49033	-1
1.49400	-1
1.49767	-1
1.50133	-1
1.50500	-2
1.50867	-2
1.51233	-2
1.51600	-2
1.51967	-2
1.52333	-2
1.52700	-2
1.53067	-3
1.53433	-3
1.53800	-3
1.54167	-3
1.54533	-3
1.54900	-3
1.55267	-3
1.55633	-3
1.56000	-3
1.56367	-3
1.56733	-3
1.57100	-3
1.57467	-3
1.57833	-4
1.58200	-4
1.58567	-4
1.58933	-4
1.59300	-5
1.59667	-6
1.60033	-7
1.60400	-8
1.60767	-9
1.61133	-11
1.61500	-12
1.61867	-14
1.62233	-17
1.62600	-19
1.62967	-22
1.63333	-26
1.63700	-29
1.64067	-32
1.64433	-36
1.64800	-39
1.65167	-43
1.65533	-46
1.65900	-50
1.66267	-53
1.66633	-57
1.67000	-61
1.67367	-66
1.67733	-70
1.68100	-74
1.68467	-78
1.68833	-82
1.69200	-85
1.69567	-88
1.69933	-91
1.70300	-93
1.70667	-94
1.71033	-96
1.71400	-97
1.71767	-97
1.72133	-98
1.72500	-99
1.72867	-100
1.73233	-101
1.73600	-101
1.73967	-102
1.74333	-103
1.74700	-103
1.75067	-104
1.75433	-104
1.75800	-105
1.76167	-105
1.76533	-104
1.76900	-104
1.77267	-104
1.77633	-104
1.78000	-104
1.78367	-104
1.78733	-104
1.79100	-105
1.79467	-106
1.79833	-107
1.80200	-108
1.80567	-108
1.80933	-109
1.81300	-109
1.81667	-109
1.82033	-109
1.82400	-109
1.82767	-108
1.83133	-108
1.83500	-108
1.83867	-108
1.84233	-108
1.84600	-108
1.84967	-108
1.85333	-108
1.85700	-108
1.86067	-108
1.86433	-108
1.86800	-109
1.87167	-108
1.87533	-108
1.87900	-107
1.88267	-106
1.88633	-105
1.89000	-104
1.89367	-104
1.89733	-103
1.90100	-103
1.90467	-103
1.90833	-103
1.91200	-104
1.91567	-104
1.91933	-104
1.92300	-104
1.92667	-104
1.93033	-103
1.93400	-102
1.93767	-102
1.94133	-101
1.94500	-101
1.94867	-101
1.95233	-101
1.95600	-101
1.95967	-101
1.96333	-101
1.96700	-101
1.97067	-101
1.97433	-101
1.97800	-101
1.98167	-100
1.98533	-100
1.98900	-99
1.99267	-98
1.99633	-98
2.00000	-98
2.00367	-98
2.00733	-98
2.01100	-98
2.01467	-99
2.01833	-99
2.02200	-99
2.02567	-99
2.02933	-99
2.03300	-98
2.03667	-98
2.04033	-97
2.04400	-96
2.04767	-96
2.05133	-96
2.05500	-95
2.05867	-95
2.06233	-95
2.06600	-95
2.06967	-95
2.07333	-95
2.07700	-95
2.08067	-94
2.08433	-93
2.08800	-92
2.09167	-92
2.09533	-92
2.09900	-91
2.10267	-91
2.10633	-91
2.11000	-91
2.11367	-91
2.11733	-90
2.12100	-90
2.12467	-89
2.12833	-89
2.13200	-88
2.13567	-88
2.13933	-88
2.14300	-87
2.14667	-87
2.15033	-86
2.15400	-86
2.15767	-86
2.16133	-86
2.16500	-86
2.16867	-85
2.17233	-85
2.17600	-85
2.17967	-86
2.18333	-86
2.18700	-86
2.19067	-85
2.19433	-85
2.19800	-85
2.20167	-84
2.20533	-84
2.20900	-83
2.21267	-83
2.21633	-83
2.22000	-82
2.22367	-82
2.22733	-81
2.23100	-81
2.23467	-81
2.23833	-81
2.24200	-83
2.24567	-84
2.24933	-85
2.25300	-86
2.25667	-86
2.26033	-86
2.26400	-85
2.26767	-84
2.27133	-83
2.27500	-81
2.27867	-80
2.28233	-79
2.28600	-79
2.28967	-78
2.29333	-78
2.29700	-77
2.30067	-77
2.30433	-77
2.30800	-76
2.31167	-76
2.31533	-75
2.31900	-74
2.32267	-74
2.32633	-73
2.33000	-73
2.33367	-73
2.33733	-74
2.34100	-74
2.34467	-74
2.34833	-73
2.35200	-72
2.35567	-71
2.35933	-70
2.36300	-68
2.36667	-67
2.37033	-65
2.37400	-62
2.37767	-59
2.38133	-55
2.38500	-52
2.38867	-48
2.39233	-44
2.39600	-40
2.39967	-36
2.40333	-32
2.40700	-28
2.41067	-24
2.41433	-21
2.41800	-18
2.42167	-15
2.42533	-12
2.42900	-10
2.43267	-8
2.43633	-6
2.44000	-4
2.44367	-2
2.44733	-1
2.45100	0
2.45467	1
2.45833	2
2.46200	3
2.46567	5
2.46933	6
2.47300	7
2.47667	7
2.48033	8
2.48400	8
2.48767	8
2.49133	9
2.49500	9
2.49867	10
2.50233	10
2.50600	10
2.50967	10
2.51333	9
2.51700	9
2.52067	9
2.52433	8
2.52800	8
2.53167	7
2.53533	6
2.53900	6
2.54267	5
2.54633	5
2.55000	5
2.55367	6
2.55733	7
2.56100	8
2.56467	9
2.56833	10
2.57200	11
2.57567	11
2.57933	12
2.58300	13
2.58667	13
2.59033	14
2.59400	14
2.59767	15
2.60133	15
2.60500	15
2.60867	16
2.61233	16
2.61600	16
2.61967	16
2.62333	16
2.62700	16
2.63067	16
2.63433	16
2.63800	16
2.64167	16
2.64533	17
2.64900	18
2.65267	19
2.65633	19
2.66000	20
2.66367	20
2.66733	21
2.67100	21
2.67467	21
2.67833	21
2.68200	21
2.68567	21
2.68933	21
2.69300	20
2.69667	20
2.70033	20
2.70400	20
2.70767	21
2.71133	21
2.71500	22
2.71867	22
2.72233	22
2.72600	22
2.72967	23
2.73333	23
2.73700	24
2.74067	25
2.74433	25
2.74800	26
2.75167	26
2.75533	26
2.75900	26
2.76267	26
2.76633	25
2.77000	25
2.77367	24
2.77733	24
2.78100	23
2.78467	23
2.78833	23
2.79200	23
2.79567	23
2.79933	23
2.80300	23
2.80667	23
2.81033	24
2.81400	24
2.81767	24
2.82133	24
2.82500	24
2.82867	24
2.83233	25
2.83600	25
2.83967	25
2.84333	25
2.84700	26
2.85067	25
2.85433	24
2.85800	22
2.86167	18
2.86533	11
2.86900	1
2.87267	-12
2.87633	-31
2.88000	-54
2.88367	-83
2.88733	-117
2.89100	-156
2.89467	-200
2.89833	-248
2.90200	-301
2.90567	-356
2.90933	-414
2.91300	-474
2.91667	-536
2.92033	-598
2.92400	-659
2.92767	-720
2.93133	-779
2.93500	-834
2.93867	-886
2.94233	-939
2.94600	-995
2.94967	-1050
2.95333	-1094
2.95700	-1117
2.96067	-1116
2.96433	-1089
2.96800	-1041
2.97167	-977
2.97533	-902
2.97900	-822
2.98267	-740
2.98633	-660
2.99000	-584
2.99367	-513
2.99733	-448
3.00100	-389
3.00467	-336
3.00833	-289
3.01200	-247
3.01567	-211
3.01933	-180
3.02300	-153
3.02667	-129
3.03033	-109
3.03400	-92
3.03767	-77
3.04133	-64
3.04500	-53
3.04867	-44
3.05233	-36
3.05600	-29
3.05967	-23
3.06333	-18
3.06700	-14
3.07067	-11
3.07433	-8
3.07800	-5
3.08167	-3
3.08533	-1
3.08900	1
3.09267	3
3.09633	4
3.10000	5
3.10367	7
3.10733	8
3.11100	8
3.11467	9
3.11833	10
3.12200	11
3.12567	11
3.12933	12
3.13300	12
3.13667	13
3.14033	13
3.14400	14
3.14767	14
3.15133	15
3.15500	15
3.15867	16
3.16233	16
3.16600	16
3.16967	16
3.17333	16
3.17700	16
3.18067	16
3.18433	16
3.18800	17
3.19167	17
3.19533	17
3.19900	18
3.20267	18
3.20633	18
3.21000	18
3.21367	18
3.21733	18
3.22100	18
3.22467	18
3.22833	19
3.23200	19
3.23567	19
3.23933	19
3.24300	19
3.24667	19
3.25033	19
3.25400	18
3.25767	18
3.26133	19
3.26500	19
3.26867	19
3.27233	20
3.27600	20
3.27967	20
3.28333	21
3.28700	21
3.29067	21
3.29433	21
3.29800	21
3.30167	21
3.30533	21
3.30900	21
3.31267	21
3.31633	21
3.32000	21
3.32367	21
3.32733	21
3.33100	22
3.33467	22
3.33833	22
3.34200	22
3.34567	22
3.34933	22
3.35300	22
3.35667	22
3.36033	22
3.36400	23
3.36767	23
3.37133	23
3.37500	23
3.37867	24
3.38233	24
3.38600	25
3.38967	25
3.39333	25
3.39700	25
3.40067	25
3.40433	25
3.40800	25
3.41167	25
3.41533	25
3.41900	25
3.42267	25
3.42633	25
3.43000	25
3.43367	25
3.43733	25
3.44100	25
3.44467	25
3.44833	25
3.45200	25
3.45567	25
3.45933	25
3.46300	25
3.46667	25
3.47033	25
3.47400	25
3.47767	25
3.48133	25
3.48500	25
3.48867	25
3.49233	25
3.49600	24
3.49967	24
3.50333	24
3.50700	24
3.51067	24
3.51433	24
3.51800	24
3.52167	24
3.52533	24
3.52900	24
3.53267	24
3.53633	24
3.54000	24
3.54367	24
3.54733	24
3.55100	24
3.55467	24
3.55833	24
3.56200	23
3.56567	23
3.56933	23
3.57300	23
3.57667	23
3.58033	23
3.58400	24
3.58767	24
3.59133	24
3.59500	24
3.59867	24
3.60233	24
3.60600	24
3.60967	23
3.61333	23
3.61700	23
3.62067	23
3.62433	22
3.62800	22
3.63167	22
3.63533	22
3.63900	23
3.64267	23
3.64633	23
3.65000	23
3.65367	23
3.65733	24
3.66100	24
3.66467	24
3.66833	24
3.67200	24
3.67567	24
3.67933	24
3.68300	25
3.68667	24
3.69033	24
3.69400	24
3.69767	24
3.70133	24
3.70500	25
3.70867	25
3.71233	25
3.71600	25
3.71967	25
3.72333	25
3.72700	25
3.73067	24
3.73433	24
3.73800	24
3.74167	24
3.74533	24
3.74900	23
3.75267	23
3.75633	23
3.76000	23
3.76367	23
3.76733	23
3.77100	23
3.77467	23
3.77833	23
3.78200	23
3.78567	23
3.78933	23
3.79300	23
3.79667	23
3.80033	23
3.80400	23
3.80767	23
3.81133	23
3.81500	23
3.81867	24
3.82233	24
3.82600	24
3.82967	24
3.83333	24
3.83700	24
3.84067	24
3.84433	24
3.84800	24
3.85167	24
3.85533	24
3.85900	24
3.86267	24
3.86633	24
3.87000	24
3.87367	24
3.87733	24
3.88100	24
3.88467	24
3.88833	24
3.89200	24
3.89567	24
3.89933	24
3.90300	24
3.90667	24
3.91033	24
3.91400	24
3.91767	24
3.92133	24
3.92500	24
3.92867	24
3.93233	24
3.93600	24
3.93967	24
3.94333	24
3.94700	24
3.95067	24
3.95433	24
3.95800	24
3.96167	23
3.96533	23
3.96900	23
3.97267	23
3.97633	24
3.98000	24
3.98367	24
3.98733	24
3.99100	24
3.99467	24
3.99833	23

[Chromatogram (Ch3)]
Interval(msec)	220
# of Points	1091
Start Time(min)	0.002
End Time(min)	3.998
R.Time (min)	Intensity
0.00167	-0
0.00533	-2
0.00900	-5
0.01267	-4
0.01633	-3
0.02000	-1
0.02367	1
0.02733	3
0.03100	4
0.03467	3
0.03833	3
0.04200	1
0.04567	0
0.04933	-1
0.05300	-2
0.05667	-2
0.06033	-1
0.06400	1
0.06767	1
0.07133	0
0.07500	0
0.07867	-0
0.08233	-2
0.08600	-3
0.08967	-4
0.09333	-3
0.09700	-2
0.10067	-3
0.10433	-3
0.10800	-4
0.11167	-4
0.11533	-4
0.11900	-3
0.12267	1
0.12633	2
0.13000	0
0.13367	-1
0.13733	-0
0.14100	-0
0.14467	1
0.14833	2
0.15200	-0
0.15567	-2
0.15933	0
0.16300	3
0.16667	4
0.17033	4
0.17400	3
0.17767	3
0.18133	4
0.18500	5
0.18867	5
0.19233	5
0.19600	5
0.19967	4
0.20333	4
0.20700	4
0.21067	3
0.21433	4
0.21800	3
0.22167	1
0.22533	0
0.22900	-3
0.23267	-4
0.23633	-3
0.24000	-4
0.24367	-4
0.24733	-1
0.25100	1
0.25467	4
0.25833	5
0.26200	6
0.26567	6
0.26933	5
0.27300	2
0.27667	1
0.28033	2
0.28400	4
0.28767	4
0.29133	6
0.29500	4
0.29867	1
0.30233	0
0.30600	2
0.30967	4
0.31333	4
0.31700	3
0.32067	3
0.32433	3
0.32800	2
0.33167	2
0.33533	2
0.33900	1
0.34267	0
0.34633	1
0.35000	0
0.35367	-0
0.35733	-1
0.36100	-1
0.36467	-2
0.36833	-2
0.37200	-3
0.37567	-3
0.37933	-4
0.38300	-4
0.38667	-5
0.39033	-7
0.39400	-8
0.39767	-5
0.40133	-3
0.40500	-2
0.40867	1
0.41233	3
0.41600	6
0.41967	7
0.42333	6
0.42700	3
0.43067	1
0.43433	0
0.43800	-0
0.44167	1
0.44533	3
0.44900	4
0.45267	1
0.45633	-3
0.46000	-5
0.46367	-6
0.46733	-4
0.47100	-2
0.47467	1
0.47833	0
0.48200	2
0.48567	2
0.48933	3
0.49300	3
0.49667	1
0.50033	1
0.50400	1
0.50767	1
0.51133	1
0.51500	2
0.51867	4
0.52233	5
0.52600	7
0.52967	6
0.53333	3
0.53700	2
0.54067	3
0.54433	3
0.54800	1
0.55167	-0
0.55533	-0
0.55900	-0
0.56267	0
0.56633	1
0.57000	-1
0.57367	-4
0.57733	-5
0.58100	-5
0.58467	-2
0.58833	-1
0.59200	-1
0.59567	2
0.59933	4
0.60300	5
0.60667	5
0.61033	5
0.61400	5
0.61767	5
0.62133	4
0.62500	3
0.62867	3
0.63233	4
0.63600	4
0.63967	5
0.64333	5
0.64700	5
0.65067	5
0.65433	4
0.65800	4
0.66167	5
0.66533	6
0.66900	6
0.67267	5
0.67633	4
0.68000	5
0.68367	6
0.68733	7
0.69100	9
0.69467	9
0.69833	8
0.70200	7
0.70567	4
0.70933	2
0.71300	3
0.71667	4
0.72033	4
0.72400	3
0.72767	4
0.73133	6
0.73500	8
0.73867	9
0.74233	11
0.74600	9
0.74967	6
0.75333	4
0.75700	2
0.76067	-0
0.76433	-3
0.76800	-2
0.77167	0
0.77533	3
0.77900	5
0.78267	5
0.78633	4
0.79000	3
0.79367	3
0.79733	4
0.80100	3
0.80467	2
0.80833	2
0.81200	3
0.81567	5
0.81933	4
0.82300	4
0.82667	5
0.83033	5
0.83400	6
0.83767	6
0.84133	6
0.84500	7
0.84867	7
0.85233	5
0.85600	2
0.85967	-0
0.86333	1
0.86700	2
0.87067	2
0.87433	2
0.87800	3
0.88167	7
0.88533	8
0.88900	8
0.89267	7
0.89633	6
0.90000	5
0.90367	7
0.90733	7
0.91100	7
0.91467	4
0.91833	3
0.92200	2
0.92567	2
0.92933	4
0.93300	4
0.93667	2
0.94033	-1
0.94400	-1
0.94767	-2
0.95133	-3
0.95500	-1
0.95867	1
0.96233	2
0.96600	4
0.96967	6
0.97333	8
0.97700	7
0.98067	5
0.98433	5
0.98800	7
0.99167	8
0.99533	6
0.99900	3
1.00267	2
1.00633	4
1.01000	8
1.01367	8
1.01733	8
1.02100	7
1.02467	7
1.02833	6
1.03200	6
1.03567	5
1.03933	5
1.04300	6
1.04667	4
1.05033	3
1.05400	3
1.05767	3
1.06133	4
1.06500	5
1.06867	7
1.07233	8
1.07600	9
1.07967	9
1.08333	9
1.08700	9
1.09067	7
1.09433	4
1.09800	4
1.10167	3
1.10533	5
1.10900	8
1.11267	10
1.11633	8
1.12000	8
1.12367	9
1.12733	8
1.13100	6
1.13467	7
1.13833	6
1.14200	5
1.14567	7
1.14933	7
1.15300	7
1.15667	8
1.16033	11
1.16400	10
1.16767	7
1.17133	4
1.17500	1
1.17867	1
1.18233	2
1.18600	6
1.18967	7
1.19333	6
1.19700	5
1.20067	4
1.20433	1
1.20800	-2
1.21167	-3
1.21533	-4
1.21900	-2
1.22267	0
1.22633	3
1.23000	4
1.23367	3
1.23733	2
1.24100	0
1.24467	-1
1.24833	0
1.25200	2
1.25567	2
1.25933	2
1.26300	4
1.26667	4
1.27033	4
1.27400	1
1.27767	-0
1.28133	1
1.28500	1
1.28867	1
1.29233	2
1.29600	4
1.29967	4
1.30333	4
1.30700	2
1.31067	0
1.31433	1
1.31800	1
1.32167	2
1.32533	4
1.32900	4
1.33267	2
1.33633	1
1.34000	1
1.34367	3
1.34733	4
1.35100	4
1.35467	3
1.35833	3
1.36200	5
1.36567	7
1.36933	8
1.37300	8
1.37667	7
1.38033	6
1.38400	8
1.38767	8
1.39133	6
1.39500	6
1.39867	5
1.40233	3
1.40600	2
1.40967	0
1.41333	2
1.41700	3
1.42067	2
1.42433	2
1.42800	3
1.43167	2
1.43533	5
1.43900	4
1.44267	2
1.44633	-1
1.45000	-2
1.45367	-0
1.45733	0
1.46100	0
1.46467	1
1.46833	1
1.47200	0
1.47567	-1
1.47933	-1
1.48300	-1
1.48667	-1
1.49033	-0
1.49400	-0
1.49767	0
1.50133	1
1.50500	1
1.50867	2
1.51233	3
1.51600	2
1.51967	1
1.52333	2
1.52700	2
1.53067	5
1.53433	8
1.53800	9
1.54167	10
1.54533	9
1.54900	8
1.55267	6
1.55633	3
1.56000	1
1.56367	-0
1.56733	0
1.57100	2
1.57467	2
1.57833	2
1.58200	4
1.58567	6
1.58933	7
1.59300	6
1.59667	4
1.60033	4
1.60400	6
1.60767	9
1.61133	10
1.61500	8
1.61867	8
1.62233	9
1.62600	9
1.62967	9
1.63333	9
1.63700	10
1.64067	9
1.64433	8
1.64800	6
1.65167	4
1.65533	4
1.65900	5
1.66267	7
1.66633	10
1.67000	11
1.67367	9
1.67733	10
1.68100	12
1.68467	11
1.68833	9
1.69200	7
1.69567	7
1.69933	9
1.70300	11
1.70667	9
1.71033	9
1.71400	11
1.71767	14
1.72133	16
1.72500	18
1.72867	20
1.73233	19
1.73600	22
1.73967	24
1.74333	23
1.74700	23
1.75067	23
1.75433	23
1.75800	24
1.76167	24
1.76533	23
1.76900	25
1.77267	26
1.77633	26
1.78000	26
1.78367	26
1.78733	28
1.79100	30
1.79467	31
1.79833	31
1.80200	29
1.80567	29
1.80933	31
1.81300	32
1.81667	33
1.82033	31
1.82400	33
1.82767	34
1.83133	34
1.83500	33
1.83867	34
1.84233	35
1.84600	35
1.84967	34
1.85333	33
1.85700	33
1.86067	35
1.86433	37
1.86800	38
1.87167	39
1.87533	39
1.87900	41
1.88267	44
1.88633	45
1.89000	47
1.89367	47
1.89733	47
1.90100	48
1.90467	49
1.90833	50
1.91200	52
1.91567	53
1.91933	53
1.92300	55
1.92667	56
1.93033	57
1.93400	61
1.93767	63
1.94133	62
1.94500	61
1.94867	61
1.95233	62
1.95600	62
1.95967	62
1.96333	65
1.96700	67
1.97067	66
1.97433	67
1.97800	68
1.98167	70
1.98533	71
1.98900	73
1.99267	75
1.99633	75
2.00000	75
2.00367	77
2.00733	78
2.01100	78
2.01467	79
2.01833	78
2.02200	80
2.02567	79
2.02933	78
2.03300	77
2.03667	78
2.04033	81
2.04400	83
2.04767	83
2.05133	84
2.05500	84
2.05867	86
2.06233	88
2.06600	92
2.06967	94
2.07333	95
2.07700	96
2.08067	99
2.08433	103
2.08800	106
2.09167	106
2.09533	104
2.09900	101
2.10267	99
2.10633	99
2.11000	100
2.11367	105
2.11733	108
2.12100	108
2.12467	108
2.12833	108
2.13200	109
2.13567	109
2.13933	108
2.14300	108
2.14667	108
2.15033	108
2.15400	109
2.15767	109
2.16133	109
2.16500	110
2.16867	111
2.17233	110
2.17600	111
2.17967	111
2.18333	113
2.18700	115
2.19067	117
2.19433	117
2.19800	120
2.20167	122
2.20533	124
2.20900	126
2.21267	127
2.21633	127
2.22000	128
2.22367	128
2.22733	128
2.23100	131
2.23467	134
2.23833	139
2.24200	141
2.24567	143
2.24933	145
2.25300	147
2.25667	148
2.26033	147
2.26400	149
2.26767	149
2.27133	147
2.27500	145
2.27867	146
2.28233	147
2.28600	147
2.28967	146
2.29333	147
2.29700	149
2.30067	152
2.30433	155
2.30800	156
2.31167	156
2.31533	156
2.31900	157
2.32267	157
2.32633	158
2.33000	161
2.33367	164
2.33733	165
2.34100	164
2.34467	163
2.34833	163
2.35200	163
2.35567	164
2.35933	165
2.36300	165
2.36667	166
2.37033	167
2.37400	167
2.37767	164
2.38133	162
2.38500	160
2.38867	160
2.39233	162
2.39600	162
2.39967	161
2.40333	163
2.40700	165
2.41067	165
2.41433	164
2.41800	165
2.42167	168
2.42533	168
2.42900	166
2.43267	167
2.43633	166
2.44000	168
2.44367	202
2.44733	272
2.45100	343
2.45467	394
2.45833	419
2.46200	426
2.46567	429
2.46933	426
2.47300	413
2.47667	392
2.48033	369
2.48400	346
2.48767	327
2.49133	315
2.49500	311
2.49867	313
2.50233	317
2.50600	320
2.50967	320
2.51333	315
2.51700	307
2.52067	296
2.52433	282
2.52800	269
2.53167	258
2.53533	252
2.53900	246
2.54267	240
2.54633	234
2.55000	232
2.55367	234
2.55733	236
2.56100	236
2.56467	237
2.56833	240
2.57200	244
2.57567	248
2.57933	254
2.58300	261
2.58667	268
2.59033	274
2.59400	278
2.59767	277
2.60133	273
2.60500	268
2.60867	261
2.61233	253
2.61600	245
2.61967	239
2.62333	234
2.62700	227
2.63067	219
2.63433	212
2.63800	203
2.64167	194
2.64533	188
2.64900	182
2.65267	179
2.65633	177
2.66000	176
2.66367	174
2.66733	174
2.67100	175
2.67467	176
2.67833	176
2.68200	177
2.68567	179
2.68933	183
2.69300	186
2.69667	187
2.70033	187
2.70400	189
2.70767	191
2.71133	194
2.71500	197
2.71867	201
2.72233	205
2.72600	208
2.72967	211
2.73333	214
2.73700	215
2.74067	216
2.74433	219
2.74800	223
2.75167	231
2.75533	237
2.75900	241
2.76267	242
2.76633	242
2.77000	242
2.77367	244
2.77733	245
2.78100	247
2.78467	250
2.78833	249
2.79200	248
2.79567	246
2.79933	242
2.80300	240
2.80667	241
2.81033	241
2.81400	240
2.81767	239
2.82133	237
2.82500	236
2.82867	234
2.83233	237
2.83600	250
2.83967	283
2.84333	354
2.84700	483
2.85067	687
2.85433	983
2.85800	1376
2.86167	1857
2.86533	2396
2.86900	2953
2.87267	3478
2.87633	3925
2.88000	4265
2.88367	4475
2.88733	4554
2.89100	4511
2.89467	4360
2.89833	4128
2.90200	3841
2.90567	3526
2.90933	3203
2.91300	2888
2.91667	2588
2.92033	2308
2.92400	2052
2.92767	1821
2.93133	1616
2.93500	1434
2.93867	1275
2.94233	1136
2.94600	1015
2.94967	909
2.95333	817
2.95700	736
2.96067	666
2.96433	608
2.96800	570
2.97167	549
2.97533	536
2.97900	536
2.98267	545
2.98633	563
2.99000	590
2.99367	624
2.99733	660
3.00100	693
3.00467	725
3.00833	754
3.01200	782
3.01567	806
3.01933	826
3.02300	842
3.02667	856
3.03033	868
3.03400	878
3.03767	885
3.04133	895
3.04500	903
3.04867	908
3.05233	913
3.05600	920
3.05967	926
3.06333	931
3.06700	936
3.07067	940
3.07433	942
3.07800	943
3.08167	946
3.08533	950
3.08900	954
3.09267	954
3.09633	953
3.10000	954
3.10367	951
3.10733	950
3.11100	950
3.11467	953
3.11833	957
3.12200	960
3.12567	961
3.12933	959
3.13300	957
3.13667	955
3.14033	956
3.14400	955
3.14767	955
3.15133	955
3.15500	954
3.15867	952
3.16233	951
3.16600	950
3.16967	949
3.17333	949
3.17700	949
3.18067	948
3.18433	947
3.18800	946
3.19167	944
3.19533	942
3.19900	941
3.20267	938
3.20633	935
3.21000	934
3.21367	932
3.21733	932
3.22100	930
3.22467	926
3.22833	922
3.23200	920
3.23567	918
3.23933	916
3.24300	913
3.24667	913
3.25033	912
3.25400	909
3.25767	907
3.26133	905
3.26500	901
3.26867	898
3.27233	894
3.27600	891
3.27967	888
3.28333	882
3.28700	878
3.29067	876
3.29433	871
3.29800	866
3.30167	862
3.30533	857
3.30900	853
3.31267	852
3.31633	851
3.32000	850
3.32367	846
3.32733	840
3.33100	837
3.33467	835
3.33833	834
3.34200	832
3.34567	830
3.34933	827
3.35300	823
3.35667	819
3.36033	813
3.36400	808
3.36767	805
3.37133	803
3.37500	800
3.37867	798
3.38233	797
3.38600	794
3.38967	791
3.39333	789
3.39700	789
3.40067	789
3.40433	789
3.40800	787
3.41167	783
3.41533	777
3.41900	773
3.42267	768
3.42633	763
3.43000	760
3.43367	756
3.43733	757
3.44100	756
3.44467	754
3.44833	752
3.45200	750
3.45567	748
3.45933	744
3.46300	742
3.46667	741
3.47033	739
3.47400	738
3.47767	737
3.48133	735
3.48500	733
3.48867	731
3.49233	726
3.49600	721
3.49967	719
3.50333	719
3.50700	718
3.51067	716
3.51433	713
3.51800	711
3.52167	709
3.52533	708
3.52900	707
3.53267	704
3.53633	700
3.54000	698
3.54367	697
3.54733	698
3.55100	699
3.55467	697
3.55833	696
3.56200	694
3.56567	693
3.56933	692
3.57300	691
3.57667	692
3.58033	692
3.58400	690
3.58767	687
3.59133	685
3.59500	683
3.59867	681
3.60233	682
3.60600	682
3.60967	683
3.61333	682
3.61700	681
3.62067	678
3.62433	676
3.62800	674
3.63167	673
3.63533	673
3.63900	673
3.64267	669
3.64633	665
3.65000	661
3.65367	659
3.65733	658
3.66100	658
3.66467	657
3.66833	657
3.67200	657
3.67567	658
3.67933	658
3.68300	653
3.68667	649
3.69033	649
3.69400	651
3.69767	651
3.70133	650
3.70500	647
3.70867	645
3.71233	642
3.71600	641
3.71967	642
3.72333	640
3.72700	640
3.73067	638
3.73433	636
3.73800	635
3.74167	634
3.74533	631
3.74900	627
3.75267	623
3.75633	625
3.76000	628
3.76367	627
3.76733	624
3.77100	622
3.77467	621
3.77833	620
3.78200	620
3.78567	620
3.78933	621
3.79300	619
3.79667	617
3.80033	616
3.80400	615
3.80767	613
3.81133	610
3.81500	607
3.81867	603
3.82233	600
3.82600	601
3.82967	600
3.83333	598
3.83700	595
3.84067	592
3.84433	592
3.84800	594
3.85167	594
3.85533	594
3.85900	592
3.86267	590
3.86633	589
3.87000	588
3.87367	585
3.87733	585
3.88100	584
3.88467	581
3.88833	578
3.89200	577
3.89567	576
3.89933	576
3.90300	576
3.90667	577
3.91033	577
3.91400	575
3.91767	575
3.92133	577
3.92500	577
3.92867	576
3.93233	575
3.93600	575
3.93967	572
3.94333	569
3.94700	566
3.95067	564
3.95433	563
3.95800	566
3.96167	567
3.96533	568
3.96900	569
3.97267	569
3.97633	567
3.98000	565
3.98367	564
3.98733	563
3.99100	564
3.99467	564
3.99833	558

[Status Trace (Column Oven Temperature)]
Interval(msec)	1000
# of Points	240
Start Time(min)	0.002
End Time(min)	3.985
Intensity Units	
Intensity Multiplier	1
R.Time (min)	Intensity
0.00168	34.99
0.01835	34.99
0.03502	34.98
0.05168	34.98
0.06835	34.99
0.08502	34.98
0.10168	34.99
0.11835	35.00
0.13502	35.00
0.15168	35.01
0.16835	35.01
0.18502	35.01
0.20168	35.01
0.21835	35.00
0.23502	35.00
0.25168	35.00
0.26835	35.01
0.28502	35.01
0.30168	35.02
0.31835	35.03
0.33502	35.03
0.35168	35.03
0.36835	35.02
0.38502	35.01
0.40168	35.01
0.41835	34.99
0.43502	34.98
0.45168	34.98
0.46835	34.98
0.48502	34.98
0.50168	34.99
0.51835	34.99
0.53502	34.99
0.55168	34.98
0.56835	34.99
0.58502	34.99
0.60168	35.00
0.61835	35.01
0.63502	35.01
0.65168	35.02
0.66835	35.02
0.68502	35.02
0.70168	35.03
0.71835	35.03
0.73502	35.03
0.75168	35.03
0.76835	35.02
0.78502	35.01
0.80168	35.01
0.81835	35.00
0.83502	35.00
0.85168	35.00
0.86835	35.01
0.88502	35.01
0.90168	35.02
0.91835	35.02
0.93502	35.01
0.95168	35.01
0.96835	35.01
0.98502	35.01
1.00168	35.01
1.01835	35.00
1.03502	34.99
1.05168	34.99
1.06835	34.98
1.08502	34.98
1.10168	34.98
1.11835	34.97
1.13502	34.97
1.15168	34.96
1.16835	34.97
1.18502	34.96
1.20168	34.97
1.21835	34.98
1.23502	34.99
1.25168	34.99
1.26835	34.99
1.28502	34.99
1.30168	35.00
1.31835	35.00
1.33502	35.01
1.35168	35.00
1.36835	35.00
1.38502	35.00
1.40168	35.00
1.41835	35.01
1.43502	35.00
1.45168	35.00
1.46835	34.99
1.48502	34.99
1.50168	34.97
1.51835	34.98
1.53502	34.97
1.55168	34.97
1.56835	34.97
1.58502	34.98
1.60168	35.01
1.61835	35.12
1.63502	35.28
1.65168	35.51
1.66835	35.81
1.68502	36.16
1.70168	36.51
1.71835	36.85
1.73502	37.19
1.75168	37.53
1.76835	37.86
1.78502	38.18
1.80168	38.53
1.81835	38.86
1.83502	39.20
1.85168	39.54
1.86835	39.87
1.88502	40.18
1.90168	40.50
1.91835	40.83
1.93502	41.14
1.95168	41.48
1.96835	41.81
1.98502	42.13
2.00168	42.45
2.01835	42.78
2.03502	43.09
2.05168	43.42
2.06835	43.77
2.08502	44.06
2.10168	44.42
2.11835	44.71
2.13502	45.04
2.15168	45.36
2.16835	45.69
2.18502	46.03
2.20168	46.36
2.21835	46.68
2.23502	47.01
2.25168	47.39
2.26835	47.69
2.28502	48.01
2.30168	48.35
2.31835	48.67
2.33502	49.02
2.35168	49.32
2.36835	49.57
2.38502	49.69
2.40168	49.70
2.41835	49.70
2.43502	49.70
2.45168	49.72
2.46835	49.72
2.48502	49.74
2.50168	49.74
2.51835	49.75
2.53502	49.77
2.55168	49.80
2.56835	49.82
2.58502	49.83
2.60168	49.82
2.61835	49.84
2.63502	49.86
2.65168	49.84
2.66835	49.84
2.68502	49.85
2.70168	49.87
2.71835	49.87
2.73502	49.86
2.75168	49.84
2.76835	49.87
2.78502	49.89
2.80168	49.88
2.81835	49.88
2.83502	49.87
2.85168	49.87
2.86835	49.89
2.88502	49.90
2.90168	49.91
2.91835	49.91
2.93502	49.92
2.95168	49.94
2.96835	49.95
2.98502	49.96
3.00168	49.97
3.01835	49.98
3.03502	49.98
3.05168	49.99
3.06835	50.01
3.08502	50.02
3.10168	50.02
3.11835	50.03
3.13502	50.04
3.15168	50.04
3.16835	50.05
3.18502	50.05
3.20168	50.06
3.21835	50.07
3.23502	50.08
3.25168	50.09
3.26835	50.08
3.28502	50.09
3.30168	50.10
3.31835	50.11
3.33502	50.11
3.35168	50.10
3.36835	50.10
3.38502	50.09
3.40168	50.07
3.41835	50.06
3.43502	50.04
3.45168	50.03
3.46835	50.03
3.48502	50.02
3.50168	50.03
3.51835	50.02
3.53502	50.02
3.55168	50.02
3.56835	50.04
3.58502	50.04
3.60168	50.04
3.61835	50.04
3.63502	50.05
3.65168	50.04
3.66835	50.04
3.68502	50.04
3.70168	50.03
3.71835	50.03
3.73502	50.03
3.75168	50.05
3.76835	50.05
3.78502	50.05
3.80168	50.05
3.81835	50.05
3.83502	50.04
3.85168	50.03
3.86835	50.04
3.88502	50.04
3.90168	50.04
3.91835	50.04
3.93502	50.04
3.95168	50.04
3.96835	50.03
3.98502	50.04

[Status Trace (Injection Unit Temperature)]
Interval(msec)	1000
# of Points	240
Start Time(min)	0.002
End Time(min)	3.985
Intensity Units	
Intensity Multiplier	1
R.Time (min)	Intensity
0.00168	99.98
0.01835	99.98
0.03502	99.98
0.05168	99.98
0.06835	99.98
0.08502	99.97
0.10168	99.98
0.11835	99.98
0.13502	99.98
0.15168	99.98
0.16835	99.98
0.18502	99.98
0.20168	99.98
0.21835	99.98
0.23502	99.98
0.25168	99.98
0.26835	99.98
0.28502	99.98
0.30168	99.98
0.31835	99.98
0.33502	99.98
0.35168	99.98
0.36835	99.98
0.38502	99.98
0.40168	99.98
0.41835	99.98
0.43502	99.99
0.45168	99.98
0.46835	99.98
0.48502	99.98
0.50168	99.98
0.51835	99.98
0.53502	99.98
0.55168	99.98
0.56835	99.98
0.58502	99.98
0.60168	99.98
0.61835	99.98
0.63502	99.98
0.65168	99.98
0.66835	99.98
0.68502	99.98
0.70168	99.98
0.71835	99.98
0.73502	99.98
0.75168	99.98
0.76835	99.98
0.78502	99.98
0.80168	99.99
0.81835	99.98
0.83502	99.98
0.85168	99.98
0.86835	99.99
0.88502	99.98
0.90168	99.98
0.91835	99.98
0.93502	99.98
0.95168	99.98
0.96835	99.98
0.98502	99.98
1.00168	99.98
1.01835	99.98
1.03502	99.98
1.05168	99.98
1.06835	99.98
1.08502	99.98
1.10168	99.98
1.11835	99.98
1.13502	99.99
1.15168	99.98
1.16835	99.98
1.18502	99.98
1.20168	99.98
1.21835	99.99
1.23502	99.99
1.25168	99.98
1.26835	99.98
1.28502	99.98
1.30168	99.98
1.31835	99.98
1.33502	99.99
1.35168	99.98
1.36835	99.98
1.38502	99.99
1.40168	99.99
1.41835	99.98
1.43502	99.98
1.45168	99.98
1.46835	99.99
1.48502	99.99
1.50168	99.98
1.51835	99.98
1.53502	99.98
1.55168	99.98
1.56835	99.99
1.58502	99.98
1.60168	99.98
1.61835	99.98
1.63502	99.98
1.65168	99.98
1.66835	99.98
1.68502	99.98
1.70168	99.99
1.71835	99.98
1.73502	99.98
1.75168	99.98
1.76835	99.98
1.78502	99.98
1.80168	99.98
1.81835	99.98
1.83502	99.98
1.85168	99.98
1.86835	99.98
1.88502	99.98
1.90168	99.98
1.91835	99.98
1.93502	99.97
1.95168	99.98
1.96835	99.97
1.98502	99.97
2.00168	99.97
2.01835	99.97
2.03502	99.97
2.05168	99.97
2.06835	99.97
2.08502	99.97
2.10168	99.97
2.11835	99.97
2.13502	99.97
2.15168	99.97
2.16835	99.97
2.18502	99.97
2.20168	99.97
2.21835	99.97
2.23502	99.97
2.25168	99.97
2.26835	99.97
2.28502	99.97
2.30168	99.97
2.31835	99.97
2.33502	99.97
2.35168	99.97
2.36835	99.97
2.38502	99.97
2.40168	99.97
2.41835	99.97
2.43502	99.97
2.45168	99.97
2.46835	99.97
2.48502	99.98
2.50168	99.98
2.51835	99.98
2.53502	99.98
2.55168	99.98
2.56835	99.98
2.58502	99.98
2.60168	99.98
2.61835	99.98
2.63502	99.99
2.65168	99.99
2.66835	99.99
2.68502	99.99
2.70168	99.99
2.71835	99.99
2.73502	99.99
2.75168	99.99
2.76835	100.00
2.78502	99.99
2.80168	99.99
2.81835	100.00
2.83502	100.00
2.85168	100.00
2.86835	100.00
2.88502	100.00
2.90168	100.00
2.91835	100.00
2.93502	100.00
2.95168	100.01
2.96835	100.00
2.98502	100.01
3.00168	100.01
3.01835	100.01
3.03502	100.01
3.05168	100.01
3.06835	100.01
3.08502	100.01
3.10168	100.01
3.11835	100.01
3.13502	100.02
3.15168	100.02
3.16835	100.02
3.18502	100.02
3.20168	100.02
3.21835	100.02
3.23502	100.02
3.25168	100.02
3.26835	100.02
3.28502	100.02
3.30168	100.02
3.31835	100.02
3.33502	100.02
3.35168	100.03
3.36835	100.03
3.38502	100.02
3.40168	100.02
3.41835	100.03
3.43502	100.03
3.45168	100.03
3.46835	100.03
3.48502	100.03
3.50168	100.03
3.51835	100.03
3.53502	100.03
3.55168	100.03
3.56835	100.03
3.58502	100.03
3.60168	100.04
3.61835	100.03
3.63502	100.04
3.65168	100.04
3.66835	100.04
3.68502	100.04
3.70168	100.04
3.71835	100.04
3.73502	100.04
3.75168	100.04
3.76835	100.04
3.78502	100.04
3.80168	100.04
3.81835	100.04
3.83502	100.04
3.85168	100.04
3.86835	100.05
3.88502	100.05
3.90168	100.04
3.91835	100.05
3.93502	100.05
3.95168	100.05
3.96835	100.05
3.98502	100.05

[Status Trace (Carrier Gas Pressure)]
Interval(msec)	1000
# of Points	240
Start Time(min)	0.002
End Time(min)	3.985
Intensity Units	
Intensity Multiplier	1
R.Time (min)	Intensity
0.00168	58.00
0.01835	56.34
0.03502	56.20
0.05168	58.59
0.06835	59.80
0.08502	58.27
0.10168	57.97
0.11835	58.01
0.13502	58.01
0.15168	58.01
0.16835	58.00
0.18502	58.00
0.20168	58.00
0.21835	58.00
0.23502	58.00
0.25168	58.00
0.26835	58.00
0.28502	58.00
0.30168	58.00
0.31835	58.00
0.33502	58.00
0.35168	58.00
0.36835	58.00
0.38502	58.00
0.40168	58.00
0.41835	58.00
0.43502	58.00
0.45168	58.00
0.46835	58.00
0.48502	58.00
0.50168	58.00
0.51835	58.00
0.53502	58.00
0.55168	58.00
0.56835	58.00
0.58502	58.00
0.60168	58.00
0.61835	58.00
0.63502	58.00
0.65168	58.00
0.66835	58.00
0.68502	58.00
0.70168	58.00
0.71835	58.00
0.73502	58.00
0.75168	58.00
0.76835	58.00
0.78502	58.00
0.80168	58.00
0.81835	58.00
0.83502	58.00
0.85168	58.00
0.86835	58.00
0.88502	58.00
0.90168	58.00
0.91835	58.00
0.93502	58.00
0.95168	58.00
0.96835	58.00
0.98502	58.00
1.00168	58.00
1.01835	58.00
1.03502	58.00
1.05168	58.00
1.06835	58.00
1.08502	58.00
1.10168	58.00
1.11835	58.00
1.13502	58.00
1.15168	58.00
1.16835	58.00
1.18502	58.00
1.20168	58.00
1.21835	58.00
1.23502	58.00
1.25168	58.00
1.26835	58.00
1.28502	58.00
1.30168	58.00
1.31835	58.00
1.33502	58.00
1.35168	58.00
1.36835	58.00
1.38502	58.00
1.40168	58.00
1.41835	58.00
1.43502	58.00
1.45168	58.00
1.46835	58.00
1.48502	58.00
1.50168	58.00
1.51835	58.00
1.53502	58.00
1.55168	58.00
1.56835	58.00
1.58502	58.00
1.60168	58.00
1.61835	58.00
1.63502	58.00
1.65168	58.00
1.66835	58.01
1.68502	58.00
1.70168	58.00
1.71835	58.00
1.73502	58.00
1.75168	58.00
1.76835	58.00
1.78502	58.00
1.80168	58.00
1.81835	58.00
1.83502	58.00
1.85168	58.00
1.86835	58.00
1.88502	58.00
1.90168	58.00
1.91835	58.00
1.93502	58.00
1.95168	58.00
1.96835	58.00
1.98502	58.00
2.00168	58.00
2.01835	58.00
2.03502	58.00
2.05168	58.00
2.06835	58.00
2.08502	58.00
2.10168	58.00
2.11835	58.00
2.13502	58.00
2.15168	58.00
2.16835	58.00
2.18502	58.00
2.20168	58.00
2.21835	58.00
2.23502	58.00
2.25168	58.00
2.26835	58.00
2.28502	58.00
2.30168	58.00
2.31835	58.00
2.33502	58.00
2.35168	58.00
2.36835	58.00
2.38502	57.99
2.40168	57.99
2.41835	58.00
2.43502	58.00
2.45168	58.00
2.46835	58.00
2.48502	58.00
2.50168	58.00
2.51835	58.02
2.53502	57.99
2.55168	58.00
2.56835	58.00
2.58502	58.00
2.60168	58.00
2.61835	58.00
2.63502	58.00
2.65168	58.00
2.66835	58.00
2.68502	58.00
2.70168	58.00
2.71835	58.00
2.73502	58.00
2.75168	58.00
2.76835	58.00
2.78502	58.00
2.80168	58.00
2.81835	58.00
2.83502	58.00
2.85168	58.00
2.86835	58.00
2.88502	58.00
2.90168	58.00
2.91835	58.00
2.93502	58.00
2.95168	58.00
2.96835	58.00
2.98502	58.00
3.00168	58.00
3.01835	58.00
3.03502	58.00
3.05168	58.00
3.06835	58.00
3.08502	58.00
3.10168	58.00
3.11835	58.00
3.13502	58.00
3.15168	58.00
3.16835	58.00
3.18502	58.00
3.20168	58.00
3.21835	58.00
3.23502	58.00
3.25168	58.00
3.26835	58.00
3.28502	58.00
3.30168	58.00
3.31835	58.00
3.33502	58.00
3.35168	58.00
3.36835	58.00
3.38502	58.00
3.40168	58.00
3.41835	58.00
3.43502	58.00
3.45168	58.00
3.46835	58.00
3.48502	58.00
3.50168	58.00
3.51835	58.00
3.53502	58.00
3.55168	58.00
3.56835	58.00
3.58502	58.00
3.60168	58.00
3.61835	58.00
3.63502	58.00
3.65168	58.00
3.66835	58.00
3.68502	58.00
3.70168	58.00
3.71835	58.00
3.73502	58.00
3.75168	58.00
3.76835	58.00
3.78502	58.00
3.80168	58.00
3.81835	58.00
3.83502	58.00
3.85168	58.00
3.86835	58.00
3.88502	58.00
3.90168	58.00
3.91835	58.00
3.93502	58.00
3.95168	58.00
3.96835	58.00
3.98502	58.00

[Status Trace (Carrier Gas Flow)]
Interval(msec)	1000
# of Points	240
Start Time(min)	0.002
End Time(min)	3.985
Intensity Units	
Intensity Multiplier	1
R.Time (min)	Intensity
0.00168	34.52
0.01835	34.53
0.03502	34.54
0.05168	34.55
0.06835	34.49
0.08502	34.52
0.10168	34.52
0.11835	34.51
0.13502	34.52
0.15168	34.52
0.16835	34.52
0.18502	34.52
0.20168	34.52
0.21835	34.52
0.23502	34.52
0.25168	34.52
0.26835	34.52
0.28502	34.52
0.30168	34.51
0.31835	34.52
0.33502	34.52
0.35168	34.52
0.36835	34.52
0.38502	34.53
0.40168	34.52
0.41835	34.51
0.43502	34.52
0.45168	34.52
0.46835	34.52
0.48502	34.52
0.50168	34.52
0.51835	34.52
0.53502	34.52
0.55168	34.52
0.56835	34.52
0.58502	34.51
0.60168	34.52
0.61835	34.52
0.63502	34.52
0.65168	34.51
0.66835	34.51
0.68502	34.52
0.70168	34.52
0.71835	34.52
0.73502	34.52
0.75168	34.52
0.76835	34.52
0.78502	34.52
0.80168	34.52
0.81835	34.52
0.83502	34.52
0.85168	34.52
0.86835	34.52
0.88502	34.52
0.90168	34.51
0.91835	34.51
0.93502	34.52
0.95168	34.53
0.96835	34.52
0.98502	34.52
1.00168	34.53
1.01835	34.52
1.03502	34.52
1.05168	34.51
1.06835	34.52
1.08502	34.52
1.10168	34.52
1.11835	34.52
1.13502	34.52
1.15168	34.52
1.16835	34.52
1.18502	34.52
1.20168	34.52
1.21835	34.52
1.23502	34.51
1.25168	34.52
1.26835	34.52
1.28502	34.52
1.30168	34.51
1.31835	34.53
1.33502	34.52
1.35168	34.52
1.36835	34.52
1.38502	34.52
1.40168	34.52
1.41835	34.51
1.43502	34.52
1.45168	34.52
1.46835	34.52
1.48502	34.51
1.50168	34.51
1.51835	34.52
1.53502	34.52
1.55168	34.52
1.56835	34.52
1.58502	34.52
1.60168	34.52
1.61835	34.52
1.63502	34.52
1.65168	34.52
1.66835	34.51
1.68502	34.52
1.70168	34.52
1.71835	34.52
1.73502	34.52
1.75168	34.52
1.76835	34.52
1.78502	34.51
1.80168	34.52
1.81835	34.53
1.83502	34.52
1.85168	34.51
1.86835	34.51
1.88502	34.52
1.90168	34.52
1.91835	34.52
1.93502	34.52
1.95168	34.51
1.96835	34.52
1.98502	34.51
2.00168	34.52
2.01835	34.52
2.03502	34.52
2.05168	34.52
2.06835	34.52
2.08502	34.52
2.10168	34.51
2.11835	34.52
2.13502	34.53
2.15168	34.52
2.16835	34.52
2.18502	34.52
2.20168	34.52
2.21835	34.52
2.23502	34.52
2.25168	34.52
2.26835	34.52
2.28502	34.52
2.30168	34.52
2.31835	34.52
2.33502	34.52
2.35168	34.52
2.36835	34.52
2.38502	34.51
2.40168	34.52
2.41835	34.52
2.43502	34.52
2.45168	34.52
2.46835	34.52
2.48502	34.52
2.50168	34.53
2.51835	34.52
2.53502	34.52
2.55168	34.52
2.56835	34.52
2.58502	34.52
2.60168	34.51
2.61835	34.52
2.63502	34.52
2.65168	34.52
2.66835	34.52
2.68502	34.52
2.70168	34.52
2.71835	34.52
2.73502	34.52
2.75168	34.52
2.76835	34.52
2.78502	34.51
2.80168	34.52
2.81835	34.52
2.83502	34.52
2.85168	34.51
2.86835	34.51
2.88502	34.52
2.90168	34.53
2.91835	34.51
2.93502	34.52
2.95168	34.52
2.96835	34.52
2.98502	34.52
3.00168	34.52
3.01835	34.52
3.03502	34.51
3.05168	34.52
3.06835	34.53
3.08502	34.52
3.10168	34.51
3.11835	34.51
3.13502	34.52
3.15168	34.52
3.16835	34.52
3.18502	34.52
3.20168	34.52
3.21835	34.51
3.23502	34.52
3.25168	34.52
3.26835	34.52
3.28502	34.52
3.30168	34.52
3.31835	34.52
3.33502	34.52
3.35168	34.52
3.36835	34.52
3.38502	34.52
3.40168	34.52
3.41835	34.51
3.43502	34.52
3.45168	34.52
3.46835	34.51
3.48502	34.52
3.50168	34.52
3.51835	34.52
3.53502	34.52
3.55168	34.52
3.56835	34.52
3.58502	34.52
3.60168	34.52
3.61835	34.52
3.63502	34.52
3.65168	34.52
3.66835	34.52
3.68502	34.52
3.70168	34.52
3.71835	34.52
3.73502	34.52
3.75168	34.52
3.76835	34.52
3.78502	34.52
3.80168	34.52
3.81835	34.52
3.83502	34.52
3.85168	34.51
3.86835	34.52
3.88502	34.52
3.90168	34.52
3.91835	34.52
3.93502	34.52
3.95168	34.53
3.96835	34.52
3.98502	34.52

[Status Trace (Column Flow)]
Interval(msec)	1000
# of Points	240
Start Time(min)	0.002
End Time(min)	3.985
Intensity Units	
Intensity Multiplier	1
R.Time (min)	Intensity
0.00168	5.52
0.01835	5.33
0.03502	5.31
0.05168	5.59
0.06835	5.73
0.08502	5.55
0.10168	5.52
0.11835	5.52
0.13502	5.52
0.15168	5.52
0.16835	5.52
0.18502	5.52
0.20168	5.52
0.21835	5.52
0.23502	5.52
0.25168	5.52
0.26835	5.52
0.28502	5.52
0.30168	5.52
0.31835	5.52
0.33502	5.52
0.35168	5.52
0.36835	5.52
0.38502	5.52
0.40168	5.52
0.41835	5.52
0.43502	5.52
0.45168	5.52
0.46835	5.52
0.48502	5.52
0.50168	5.52
0.51835	5.52
0.53502	5.52
0.55168	5.52
0.56835	5.52
0.58502	5.52
0.60168	5.52
0.61835	5.52
0.63502	5.52
0.65168	5.52
0.66835	5.52
0.68502	5.52
0.70168	5.52
0.71835	5.52
0.73502	5.52
0.75168	5.52
0.76835	5.52
0.78502	5.52
0.80168	5.52
0.81835	5.52
0.83502	5.52
0.85168	5.52
0.86835	5.52
0.88502	5.52
0.90168	5.52
0.91835	5.52
0.93502	5.52
0.95168	5.52
0.96835	5.52
0.98502	5.52
1.00168	5.52
1.01835	5.52
1.03502	5.52
1.05168	5.52
1.06835	5.52
1.08502	5.52
1.10168	5.52
1.11835	5.52
1.13502	5.52
1.15168	5.52
1.16835	5.52
1.18502	5.52
1.20168	5.52
1.21835	5.52
1.23502	5.52
1.25168	5.52
1.26835	5.52
1.28502	5.52
1.30168	5.52
1.31835	5.52
1.33502	5.52
1.35168	5.52
1.36835	5.52
1.38502	5.52
1.40168	5.52
1.41835	5.52
1.43502	5.52
1.45168	5.52
1.46835	5.52
1.48502	5.52
1.50168	5.52
1.51835	5.52
1.53502	5.52
1.55168	5.52
1.56835	5.52
1.58502	5.52
1.60168	5.52
1.61835	5.51
1.63502	5.51
1.65168	5.50
1.66835	5.49
1.68502	5.48
1.70168	5.47
1.71835	5.46
1.73502	5.45
1.75168	5.44
1.76835	5.43
1.78502	5.42
1.80168	5.41
1.81835	5.40
1.83502	5.39
1.85168	5.38
1.86835	5.37
1.88502	5.36
1.90168	5.35
1.91835	5.34
1.93502	5.33
1.95168	5.32
1.96835	5.31
1.98502	5.30
2.00168	5.29
2.01835	5.28
2.03502	5.27
2.05168	5.26
2.06835	5.25
2.08502	5.24
2.10168	5.23
2.11835	5.22
2.13502	5.22
2.15168	5.21
2.16835	5.20
2.18502	5.19
2.20168	5.18
2.21835	5.17
2.23502	5.16
2.25168	5.15
2.26835	5.14
2.28502	5.13
2.30168	5.12
2.31835	5.11
2.33502	5.10
2.35168	5.09
2.36835	5.09
2.38502	5.08
2.40168	5.08
2.41835	5.08
2.43502	5.08
2.45168	5.08
2.46835	5.08
2.48502	5.08
2.50168	5.08
2.51835	5.08
2.53502	5.08
2.55168	5.08
2.56835	5.08
2.58502	5.08
2.60168	5.08
2.61835	5.08
2.63502	5.08
2.65168	5.08
2.66835	5.08
2.68502	5.08
2.70168	5.08
2.71835	5.08
2.73502	5.08
2.75168	5.08
2.76835	5.08
2.78502	5.08
2.80168	5.08
2.81835	5.08
2.83502	5.08
2.85168	5.08
2.86835	5.08
2.88502	5.08
2.90168	5.08
2.91835	5.08
2.93502	5.08
2.95168	5.08
2.96835	5.08
2.98502	5.08
3.00168	5.08
3.01835	5.08
3.03502	5.08
3.05168	5.08
3.06835	5.08
3.08502	5.07
3.10168	5.07
3.11835	5.07
3.13502	5.07
3.15168	5.07
3.16835	5.07
3.18502	5.07
3.20168	5.07
3.21835	5.07
3.23502	5.07
3.25168	5.07
3.26835	5.07
3.28502	5.07
3.30168	5.07
3.31835	5.07
3.33502	5.07
3.35168	5.07
3.36835	5.07
3.38502	5.07
3.40168	5.07
3.41835	5.07
3.43502	5.07
3.45168	5.07
3.46835	5.07
3.48502	5.07
3.50168	5.07
3.51835	5.07
3.53502	5.07
3.55168	5.07
3.56835	5.07
3.58502	5.07
3.60168	5.07
3.61835	5.07
3.63502	5.07
3.65168	5.07
3.66835	5.07
3.68502	5.07
3.70168	5.07
3.71835	5.07
3.73502	5.07
3.75168	5.07
3.76835	5.07
3.78502	5.07
3.80168	5.07
3.81835	5.07
3.83502	5.07
3.85168	5.07
3.86835	5.07
3.88502	5.07
3.90168	5.07
3.91835	5.07
3.93502	5.07
3.95168	5.07
3.96835	5.07
3.98502	5.07

[Status Trace (Linear Velocity)]
Interval(msec)	1000
# of Points	240
Start Time(min)	0.002
End Time(min)	3.985
Intensity Units	
Intensity Multiplier	1
R.Time (min)	Intensity
0.00168	39.02
0.01835	37.93
0.03502	37.84
0.05168	39.40
0.06835	40.19
0.08502	39.20
0.10168	39.00
0.11835	39.02
0.13502	39.02
0.15168	39.02
0.16835	39.02
0.18502	39.02
0.20168	39.02
0.21835	39.02
0.23502	39.02
0.25168	39.02
0.26835	39.02
0.28502	39.01
0.30168	39.02
0.31835	39.01
0.33502	39.01
0.35168	39.01
0.36835	39.01
0.38502	39.02
0.40168	39.02
0.41835	39.02
0.43502	39.02
0.45168	39.02
0.46835	39.02
0.48502	39.02
0.50168	39.02
0.51835	39.02
0.53502	39.02
0.55168	39.02
0.56835	39.02
0.58502	39.02
0.60168	39.02
0.61835	39.02
0.63502	39.02
0.65168	39.01
0.66835	39.01
0.68502	39.01
0.70168	39.01
0.71835	39.01
0.73502	39.01
0.75168	39.01
0.76835	39.01
0.78502	39.02
0.80168	39.01
0.81835	39.02
0.83502	39.02
0.85168	39.02
0.86835	39.01
0.88502	39.01
0.90168	39.01
0.91835	39.01
0.93502	39.01
0.95168	39.01
0.96835	39.01
0.98502	39.01
1.00168	39.01
1.01835	39.02
1.03502	39.02
1.05168	39.02
1.06835	39.02
1.08502	39.02
1.10168	39.02
1.11835	39.02
1.13502	39.02
1.15168	39.02
1.16835	39.02
1.18502	39.02
1.20168	39.02
1.21835	39.02
1.23502	39.02
1.25168	39.02
1.26835	39.02
1.28502	39.02
1.30168	39.02
1.31835	39.02
1.33502	39.01
1.35168	39.02
1.36835	39.02
1.38502	39.02
1.40168	39.02
1.41835	39.02
1.43502	39.02
1.45168	39.02
1.46835	39.02
1.48502	39.02
1.50168	39.02
1.51835	39.02
1.53502	39.02
1.55168	39.02
1.56835	39.02
1.58502	39.02
1.60168	39.02
1.61835	39.01
1.63502	38.99
1.65168	38.97
1.66835	38.94
1.68502	38.91
1.70168	38.87
1.71835	38.84
1.73502	38.81
1.75168	38.77
1.76835	38.74
1.78502	38.71
1.80168	38.68
1.81835	38.65
1.83502	38.62
1.85168	38.58
1.86835	38.55
1.88502	38.52
1.90168	38.49
1.91835	38.46
1.93502	38.43
1.95168	38.40
1.96835	38.37
1.98502	38.34
2.00168	38.31
2.01835	38.28
2.03502	38.25
2.05168	38.22
2.06835	38.19
2.08502	38.16
2.10168	38.13
2.11835	38.11
2.13502	38.08
2.15168	38.05
2.16835	38.02
2.18502	37.99
2.20168	37.96
2.21835	37.93
2.23502	37.90
2.25168	37.87
2.26835	37.83
2.28502	37.81
2.30168	37.78
2.31835	37.75
2.33502	37.72
2.35168	37.69
2.36835	37.67
2.38502	37.66
2.40168	37.65
2.41835	37.66
2.43502	37.66
2.45168	37.66
2.46835	37.66
2.48502	37.66
2.50168	37.65
2.51835	37.66
2.53502	37.65
2.55168	37.65
2.56835	37.65
2.58502	37.65
2.60168	37.65
2.61835	37.65
2.63502	37.64
2.65168	37.64
2.66835	37.65
2.68502	37.65
2.70168	37.64
2.71835	37.64
2.73502	37.64
2.75168	37.65
2.76835	37.64
2.78502	37.64
2.80168	37.64
2.81835	37.64
2.83502	37.64
2.85168	37.64
2.86835	37.64
2.88502	37.64
2.90168	37.64
2.91835	37.64
2.93502	37.64
2.95168	37.64
2.96835	37.64
2.98502	37.64
3.00168	37.63
3.01835	37.63
3.03502	37.63
3.05168	37.63
3.06835	37.63
3.08502	37.63
3.10168	37.63
3.11835	37.63
3.13502	37.63
3.15168	37.63
3.16835	37.63
3.18502	37.63
3.20168	37.63
3.21835	37.63
3.23502	37.62
3.25168	37.62
3.26835	37.62
3.28502	37.62
3.30168	37.62
3.31835	37.62
3.33502	37.62
3.35168	37.62
3.36835	37.62
3.38502	37.62
3.40168	37.63
3.41835	37.63
3.43502	37.63
3.45168	37.63
3.46835	37.63
3.48502	37.63
3.50168	37.63
3.51835	37.63
3.53502	37.63
3.55168	37.63
3.56835	37.63
3.58502	37.63
3.60168	37.63
3.61835	37.63
3.63502	37.63
3.65168	37.63
3.66835	37.63
3.68502	37.63
3.70168	37.63
3.71835	37.63
3.73502	37.63
3.75168	37.63
3.76835	37.63
3.78502	37.63
3.80168	37.63
3.81835	37.63
3.83502	37.63
3.85168	37.63
3.86835	37.63
3.88502	37.63
3.90168	37.63
3.91835	37.63
3.93502	37.63
3.95168	37.63
3.96835	37.63
3.98502	37.63

