[Header]
Application Name	LabSolutions
Version	5.110
Data File Name	C:\Users\User\Desktop\Junior\UIC Prairie Sampling\3.23.23\032323_083.gcd
Output Date	5/24/2023
Output Time	10:27:40 AM

[File Information]
Type	Data File
Generated	5/24/2023 12:55:12 AM
Generated by	System Administrator
Modified	5/24/2023 1:02:06 AM
Modified by	System Administrator

[Sample Information]
Operator Name	System Administrator
Acquired	5/24/2023 12:58:05 AM
Sample Type	0:Unknown
Level	0
Sample Name	083
Sample ID	083
ISTD Amount1	1
ISTD Amount2	1
ISTD Amount3	1
ISTD Amount4	1
ISTD Amount5	1
ISTD Amount6	1
ISTD Amount7	1
ISTD Amount8	1
ISTD Amount9	1
ISTD Amount10	1
ISTD Amount11	1
ISTD Amount12	1
ISTD Amount13	1
ISTD Amount14	1
ISTD Amount15	1
ISTD Amount16	1
ISTD Amount17	1
ISTD Amount18	1
ISTD Amount19	1
ISTD Amount20	1
ISTD Amount21	1
ISTD Amount22	1
ISTD Amount23	1
ISTD Amount24	1
ISTD Amount25	1
ISTD Amount26	1
ISTD Amount27	1
ISTD Amount28	1
ISTD Amount29	1
ISTD Amount30	1
ISTD Amount31	1
ISTD Amount32	1
Sample Amount	1
Dilution Factor	1
Vial#	82
Injection Volume	1
Injection Count	1
Bar Code	

[Original Files]
Data File	C:\Users\User\Desktop\GC Analyses\Jack\Nachusa Grasslands Sampling\20220924\t2\032323_083.gcd
Method File	C:\LabSolutions\Data\GHG_4min_2022\ghg3_togas_w_acet_4 min_new_int.gcm
Batch File	C:\LabSolutions\Data\AutoSamplerTesting\032323.gcb
Report Format File	c:\LabSolutions\System\DEFAULT.lsr

[File Description]


[Configuration]
Instrument Name	C0B7VH3-Instrument1
Instrument #	1
Line #	1
# of Detectors	3
Detector ID	DET#1	DET#2	DET#3
Detector Name	FID	PTCD	ECD
# of Channels	1	1	1

[Peak Table(Ch1)]
# of Peaks	3
Peak#	R.Time	I.Time	F.Time	Area	Height	A/H	Conc.	Mark	ID#	Name	k'	Plate #	Plate Ht.	Tailing	Resolution	Sep.Factor	Area Ratio	Height Ratio	Conc. %	Norm Conc.
1	1.472	1.435	1.531	6545	3163	2.070	0.000	   	1	CO	0.000	9493	15.802	1.339	0.000	0.000	0	0	0.000	0.000
2	1.564	1.531	1.622	4478	2253	1.987	21.830	 V 	2	CH4	0.062	11251	13.332	1.245	1.535	0.000	0	0	9.053	9.053
3	1.993	1.941	2.381	1137892	546081	2.084	219.293	   	3	CO2	0.354	17329	8.656	1.271	7.179	5.680	0	0	90.947	90.947

[Peak Table(Ch2)]
# of Peaks	0

[Peak Table(Ch3)]
# of Peaks	5
Peak#	R.Time	I.Time	F.Time	Area	Height	A/H	Conc.	Mark	ID#	Name	k'	Plate #	Plate Ht.	Tailing	Resolution	Sep.Factor	Area Ratio	Height Ratio	Conc. %	Norm Conc.
1	2.458	2.341	2.506	790	300	2.636	0.000	   			0.000	16437	9.126	0.000	0.000	0.000	0	0	0.000	0.000
2	2.521	2.506	2.572	269	111	2.422	0.000	 V 			0.025	8855	16.940	0.000	0.678	0.000	0	0	0.000	0.000
3	2.620	2.572	2.671	266	84	3.167	0.000	 V 			0.066	12773	11.743	0.000	0.991	2.588	0	0	0.000	0.000
4	2.891	2.821	3.056	16666	4500	3.703	0.247	   	1	N2O	0.176	13896	10.795	1.558	2.844	2.682	0	0	100.000	100.000
5	3.265	3.063	3.995	14040	478	29.382	0.000	   			0.328	322	465.618	2.255	0.906	1.864	0	0	0.000	0.000

[Compound Results(Ch1)]
# of IDs	6
ID#	Name	R.Time	Area	Height	Conc.	Curve	3rd	2nd	1st	Constant	Area Ratio	Height Ratio	Conc. %	Norm Conc.
1	CO	1.472	6545	3163	0.000	Linear	0.000000e+00	0.000000e+00	0.000000e+00	0.000000e+00	0	0	0.000	0.000
2	CH4	1.564	4478	2253	21.830	Linear	0.000000e+00	0.000000e+00	2.051179e+002	0.000000e+00	0	0	9.053	9.053
3	CO2	1.993	1137892	546081	219.293	Linear	0.000000e+00	0.000000e+00	5.188919e+003	0.000000e+00	0	0	90.947	90.947
4	Ethylene	0.000	0	0	0.000	Linear	0.000000e+00	0.000000e+00	0.000000e+00	0.000000e+00	0	0	0.000	0.000
5	Acetylene	0.000	0	0	0.000	Linear	0.000000e+00	0.000000e+00	0.000000e+00	0.000000e+00	0	0	0.000	0.000
6	Ethane	0.000	0	0	0.000	Linear	0.000000e+00	0.000000e+00	0.000000e+00	0.000000e+00	0	0	0.000	0.000

[Compound Results(Ch2)]
# of IDs	5
ID#	Name	R.Time	Area	Height	Conc.	Curve	3rd	2nd	1st	Constant	Area Ratio	Height Ratio	Conc. %	Norm Conc.
1	Hydrogen	0.000	0	0	0.000	Linear	0.000000e+00	0.000000e+00	0.000000e+00	0.000000e+00	0	0	0.000	0.000
2	Oxygen	0.000	0	0	0.000	Linear	0.000000e+00	0.000000e+00	0.000000e+00	0.000000e+00	0	0	0.000	0.000
3	Nitrogen	0.000	0	0	0.000	Linear	0.000000e+00	0.000000e+00	0.000000e+00	0.000000e+00	0	0	0.000	0.000
4	Methane	0.000	0	0	0.000	Linear	0.000000e+00	0.000000e+00	0.000000e+00	0.000000e+00	0	0	0.000	0.000
5	Carbon Monoxide	0.000	0	0	0.000	Linear	0.000000e+00	0.000000e+00	0.000000e+00	0.000000e+00	0	0	0.000	0.000

[Compound Results(Ch3)]
# of IDs	2
ID#	Name	R.Time	Area	Height	Conc.	Curve	3rd	2nd	1st	Constant	Area Ratio	Height Ratio	Conc. %	Norm Conc.
1	N2O	2.891	16666	4500	0.247	Linear	0.000000e+00	0.000000e+00	6.759880e+004	0.000000e+00	0	0	100.000	100.000
2	SF6	0.000	0	0	0.000	Linear	0.000000e+00	0.000000e+00	0.000000e+00	0.000000e+00	0	0	0.000	0.000

[Group Results(Ch1)]
# of Groups	0

[Group Results(Ch2)]
# of Groups	0

[Group Results(Ch3)]
# of Groups	0

[Chromatogram (Ch1)]
Interval(msec)	220
# of Points	1091
Start Time(min)	0.002
End Time(min)	3.998
R.Time (min)	Intensity
0.00167	20
0.00533	27
0.00900	33
0.01267	37
0.01633	40
0.02000	39
0.02367	38
0.02733	42
0.03100	45
0.03467	46
0.03833	47
0.04200	47
0.04567	44
0.04933	43
0.05300	44
0.05667	44
0.06033	44
0.06400	41
0.06767	38
0.07133	41
0.07500	49
0.07867	57
0.08233	65
0.08600	71
0.08967	78
0.09333	82
0.09700	76
0.10067	65
0.10433	55
0.10800	49
0.11167	41
0.11533	32
0.11900	20
0.12267	8
0.12633	-1
0.13000	-6
0.13367	-9
0.13733	-11
0.14100	-11
0.14467	-7
0.14833	1
0.15200	9
0.15567	18
0.15933	24
0.16300	29
0.16667	37
0.17033	49
0.17400	58
0.17767	59
0.18133	50
0.18500	37
0.18867	29
0.19233	28
0.19600	31
0.19967	32
0.20333	32
0.20700	33
0.21067	36
0.21433	39
0.21800	42
0.22167	41
0.22533	38
0.22900	34
0.23267	31
0.23633	30
0.24000	29
0.24367	29
0.24733	26
0.25100	22
0.25467	21
0.25833	23
0.26200	26
0.26567	24
0.26933	21
0.27300	17
0.27667	16
0.28033	21
0.28400	24
0.28767	22
0.29133	17
0.29500	14
0.29867	15
0.30233	17
0.30600	20
0.30967	21
0.31333	19
0.31700	20
0.32067	22
0.32433	24
0.32800	27
0.33167	27
0.33533	22
0.33900	18
0.34267	17
0.34633	20
0.35000	20
0.35367	19
0.35733	18
0.36100	18
0.36467	19
0.36833	21
0.37200	19
0.37567	17
0.37933	16
0.38300	17
0.38667	18
0.39033	17
0.39400	18
0.39767	19
0.40133	22
0.40500	26
0.40867	29
0.41233	29
0.41600	26
0.41967	22
0.42333	20
0.42700	21
0.43067	24
0.43433	31
0.43800	39
0.44167	44
0.44533	43
0.44900	36
0.45267	25
0.45633	17
0.46000	14
0.46367	14
0.46733	15
0.47100	17
0.47467	21
0.47833	26
0.48200	30
0.48567	32
0.48933	31
0.49300	29
0.49667	26
0.50033	22
0.50400	20
0.50767	18
0.51133	16
0.51500	15
0.51867	15
0.52233	16
0.52600	18
0.52967	21
0.53333	25
0.53700	33
0.54067	40
0.54433	38
0.54800	34
0.55167	28
0.55533	19
0.55900	13
0.56267	14
0.56633	21
0.57000	27
0.57367	29
0.57733	26
0.58100	19
0.58467	12
0.58833	8
0.59200	8
0.59567	8
0.59933	7
0.60300	5
0.60667	6
0.61033	11
0.61400	18
0.61767	24
0.62133	25
0.62500	25
0.62867	24
0.63233	21
0.63600	20
0.63967	18
0.64333	14
0.64700	12
0.65067	14
0.65433	18
0.65800	20
0.66167	20
0.66533	15
0.66900	8
0.67267	7
0.67633	8
0.68000	9
0.68367	9
0.68733	5
0.69100	-1
0.69467	-6
0.69833	-6
0.70200	-1
0.70567	4
0.70933	11
0.71300	19
0.71667	26
0.72033	32
0.72400	32
0.72767	26
0.73133	19
0.73500	13
0.73867	9
0.74233	6
0.74600	1
0.74967	-4
0.75333	-7
0.75700	-5
0.76067	4
0.76433	14
0.76800	20
0.77167	25
0.77533	25
0.77900	23
0.78267	18
0.78633	14
0.79000	13
0.79367	15
0.79733	19
0.80100	22
0.80467	23
0.80833	23
0.81200	22
0.81567	21
0.81933	21
0.82300	22
0.82667	20
0.83033	15
0.83400	13
0.83767	15
0.84133	18
0.84500	21
0.84867	21
0.85233	18
0.85600	16
0.85967	18
0.86333	22
0.86700	25
0.87067	27
0.87433	28
0.87800	28
0.88167	28
0.88533	28
0.88900	26
0.89267	23
0.89633	17
0.90000	12
0.90367	10
0.90733	12
0.91100	16
0.91467	23
0.91833	26
0.92200	26
0.92567	24
0.92933	19
0.93300	12
0.93667	7
0.94033	4
0.94400	-0
0.94767	-3
0.95133	-2
0.95500	-1
0.95867	1
0.96233	3
0.96600	5
0.96967	7
0.97333	6
0.97700	3
0.98067	-1
0.98433	-5
0.98800	-8
0.99167	-10
0.99533	-10
0.99900	-12
1.00267	-12
1.00633	-7
1.01000	3
1.01367	12
1.01733	18
1.02100	18
1.02467	12
1.02833	4
1.03200	-1
1.03567	-4
1.03933	-6
1.04300	-5
1.04667	-2
1.05033	-3
1.05400	-5
1.05767	-6
1.06133	-3
1.06500	3
1.06867	12
1.07233	18
1.07600	19
1.07967	12
1.08333	4
1.08700	-4
1.09067	-12
1.09433	-20
1.09800	-24
1.10167	-24
1.10533	-24
1.10900	-26
1.11267	-26
1.11633	-22
1.12000	-18
1.12367	-14
1.12733	-10
1.13100	-6
1.13467	-4
1.13833	-1
1.14200	4
1.14567	3
1.14933	-2
1.15300	-5
1.15667	-1
1.16033	7
1.16400	14
1.16767	18
1.17133	17
1.17500	15
1.17867	11
1.18233	7
1.18600	10
1.18967	12
1.19333	8
1.19700	6
1.20067	8
1.20433	8
1.20800	0
1.21167	-10
1.21533	-16
1.21900	-16
1.22267	-13
1.22633	-11
1.23000	-6
1.23367	-5
1.23733	-9
1.24100	-14
1.24467	-17
1.24833	-17
1.25200	-16
1.25567	-15
1.25933	-13
1.26300	-7
1.26667	-2
1.27033	-4
1.27400	-12
1.27767	-21
1.28133	-22
1.28500	-19
1.28867	-14
1.29233	-8
1.29600	-1
1.29967	3
1.30333	1
1.30700	-2
1.31067	-2
1.31433	-0
1.31800	-0
1.32167	-2
1.32533	-3
1.32900	-6
1.33267	-10
1.33633	-12
1.34000	-11
1.34367	-8
1.34733	-6
1.35100	-5
1.35467	-4
1.35833	-3
1.36200	-2
1.36567	-2
1.36933	-4
1.37300	-8
1.37667	-8
1.38033	-2
1.38400	3
1.38767	0
1.39133	-6
1.39500	-12
1.39867	-17
1.40233	-25
1.40600	-33
1.40967	-38
1.41333	-40
1.41700	-39
1.42067	-39
1.42433	-38
1.42800	-39
1.43167	-39
1.43533	-30
1.43900	-4
1.44267	42
1.44633	127
1.45000	357
1.45367	818
1.45733	1428
1.46100	2040
1.46467	2554
1.46833	2928
1.47200	3130
1.47567	3124
1.47933	2896
1.48300	2492
1.48667	2002
1.49033	1521
1.49400	1108
1.49767	781
1.50133	539
1.50500	366
1.50867	246
1.51233	165
1.51600	108
1.51967	69
1.52333	42
1.52700	24
1.53067	13
1.53433	17
1.53800	79
1.54167	267
1.54533	606
1.54900	1038
1.55267	1466
1.55633	1825
1.56000	2082
1.56367	2215
1.56733	2196
1.57100	2007
1.57467	1685
1.57833	1308
1.58200	956
1.58567	664
1.58933	445
1.59300	286
1.59667	176
1.60033	99
1.60400	45
1.60767	10
1.61133	-11
1.61500	-26
1.61867	-36
1.62233	-42
1.62600	-45
1.62967	-49
1.63333	-51
1.63700	-52
1.64067	-50
1.64433	-46
1.64800	-41
1.65167	-38
1.65533	-34
1.65900	-30
1.66267	-27
1.66633	-27
1.67000	-27
1.67367	-28
1.67733	-33
1.68100	-43
1.68467	-46
1.68833	-45
1.69200	-45
1.69567	-48
1.69933	-50
1.70300	-51
1.70667	-54
1.71033	-56
1.71400	-55
1.71767	-50
1.72133	-46
1.72500	-47
1.72867	-47
1.73233	-48
1.73600	-53
1.73967	-58
1.74333	-59
1.74700	-57
1.75067	-53
1.75433	-50
1.75800	-49
1.76167	-49
1.76533	-48
1.76900	-43
1.77267	-39
1.77633	-38
1.78000	-39
1.78367	-40
1.78733	-41
1.79100	-47
1.79467	-53
1.79833	-56
1.80200	-58
1.80567	-59
1.80933	-58
1.81300	-59
1.81667	-61
1.82033	-62
1.82400	-63
1.82767	-62
1.83133	-59
1.83500	-58
1.83867	-54
1.84233	-46
1.84600	-40
1.84967	-39
1.85333	-40
1.85700	-40
1.86067	-40
1.86433	-42
1.86800	-45
1.87167	-45
1.87533	-42
1.87900	-38
1.88267	-37
1.88633	-43
1.89000	-48
1.89367	-55
1.89733	-63
1.90100	-66
1.90467	-67
1.90833	-66
1.91200	-63
1.91567	-60
1.91933	-57
1.92300	-59
1.92667	-62
1.93033	-65
1.93400	-68
1.93767	-66
1.94133	-59
1.94500	-48
1.94867	-23
1.95233	100
1.95600	769
1.95967	3705
1.96333	13491
1.96700	38440
1.97067	87901
1.97433	165447
1.97800	263699
1.98167	366610
1.98533	456681
1.98900	519572
1.99267	546056
1.99633	532975
2.00000	484619
2.00367	412108
2.00733	329972
2.01100	251174
2.01467	183844
2.01833	130934
2.02200	91764
2.02567	63938
2.02933	44703
2.03300	31623
2.03667	22795
2.04033	16834
2.04400	12781
2.04767	9991
2.05133	8035
2.05500	6640
2.05867	5615
2.06233	4837
2.06600	4231
2.06967	3750
2.07333	3364
2.07700	3048
2.08067	2787
2.08433	2567
2.08800	2375
2.09167	2205
2.09533	2053
2.09900	1916
2.10267	1795
2.10633	1691
2.11000	1601
2.11367	1520
2.11733	1441
2.12100	1366
2.12467	1298
2.12833	1235
2.13200	1179
2.13567	1129
2.13933	1082
2.14300	1038
2.14667	1000
2.15033	965
2.15400	931
2.15767	896
2.16133	861
2.16500	828
2.16867	798
2.17233	770
2.17600	744
2.17967	721
2.18333	701
2.18700	680
2.19067	659
2.19433	639
2.19800	620
2.20167	602
2.20533	587
2.20900	574
2.21267	559
2.21633	543
2.22000	528
2.22367	514
2.22733	502
2.23100	492
2.23467	482
2.23833	471
2.24200	459
2.24567	447
2.24933	437
2.25300	429
2.25667	421
2.26033	415
2.26400	412
2.26767	412
2.27133	407
2.27500	397
2.27867	384
2.28233	371
2.28600	360
2.28967	353
2.29333	348
2.29700	343
2.30067	336
2.30433	330
2.30800	331
2.31167	333
2.31533	328
2.31900	315
2.32267	300
2.32633	286
2.33000	280
2.33367	279
2.33733	275
2.34100	267
2.34467	259
2.34833	251
2.35200	243
2.35567	240
2.35933	241
2.36300	243
2.36667	242
2.37033	241
2.37400	236
2.37767	232
2.38133	229
2.38500	229
2.38867	229
2.39233	227
2.39600	226
2.39967	225
2.40333	219
2.40700	210
2.41067	207
2.41433	209
2.41800	215
2.42167	225
2.42533	233
2.42900	235
2.43267	234
2.43633	231
2.44000	229
2.44367	227
2.44733	223
2.45100	220
2.45467	213
2.45833	203
2.46200	193
2.46567	188
2.46933	188
2.47300	190
2.47667	193
2.48033	198
2.48400	204
2.48767	209
2.49133	216
2.49500	219
2.49867	215
2.50233	208
2.50600	199
2.50967	196
2.51333	199
2.51700	204
2.52067	208
2.52433	211
2.52800	215
2.53167	215
2.53533	208
2.53900	200
2.54267	193
2.54633	181
2.55000	166
2.55367	149
2.55733	139
2.56100	136
2.56467	137
2.56833	140
2.57200	141
2.57567	140
2.57933	140
2.58300	142
2.58667	145
2.59033	150
2.59400	156
2.59767	163
2.60133	167
2.60500	166
2.60867	161
2.61233	158
2.61600	160
2.61967	162
2.62333	159
2.62700	154
2.63067	151
2.63433	151
2.63800	153
2.64167	156
2.64533	161
2.64900	163
2.65267	161
2.65633	157
2.66000	156
2.66367	158
2.66733	160
2.67100	163
2.67467	165
2.67833	166
2.68200	165
2.68567	163
2.68933	164
2.69300	170
2.69667	175
2.70033	177
2.70400	174
2.70767	169
2.71133	165
2.71500	159
2.71867	150
2.72233	145
2.72600	145
2.72967	148
2.73333	152
2.73700	158
2.74067	168
2.74433	177
2.74800	185
2.75167	188
2.75533	188
2.75900	186
2.76267	182
2.76633	175
2.77000	166
2.77367	159
2.77733	155
2.78100	152
2.78467	154
2.78833	162
2.79200	168
2.79567	163
2.79933	153
2.80300	146
2.80667	147
2.81033	155
2.81400	164
2.81767	165
2.82133	162
2.82500	159
2.82867	155
2.83233	151
2.83600	148
2.83967	144
2.84333	144
2.84700	148
2.85067	153
2.85433	161
2.85800	166
2.86167	164
2.86533	161
2.86900	160
2.87267	162
2.87633	161
2.88000	160
2.88367	158
2.88733	153
2.89100	148
2.89467	146
2.89833	147
2.90200	148
2.90567	147
2.90933	147
2.91300	154
2.91667	161
2.92033	165
2.92400	167
2.92767	171
2.93133	178
2.93500	183
2.93867	186
2.94233	184
2.94600	179
2.94967	171
2.95333	163
2.95700	151
2.96067	139
2.96433	135
2.96800	138
2.97167	145
2.97533	152
2.97900	157
2.98267	161
2.98633	162
2.99000	162
2.99367	162
2.99733	167
3.00100	175
3.00467	176
3.00833	170
3.01200	160
3.01567	152
3.01933	149
3.02300	150
3.02667	151
3.03033	152
3.03400	152
3.03767	156
3.04133	161
3.04500	168
3.04867	175
3.05233	177
3.05600	173
3.05967	168
3.06333	160
3.06700	150
3.07067	141
3.07433	137
3.07800	138
3.08167	140
3.08533	144
3.08900	151
3.09267	157
3.09633	158
3.10000	155
3.10367	155
3.10733	158
3.11100	160
3.11467	160
3.11833	160
3.12200	159
3.12567	157
3.12933	155
3.13300	153
3.13667	151
3.14033	150
3.14400	152
3.14767	157
3.15133	163
3.15500	170
3.15867	175
3.16233	176
3.16600	173
3.16967	164
3.17333	154
3.17700	148
3.18067	148
3.18433	152
3.18800	154
3.19167	159
3.19533	166
3.19900	173
3.20267	176
3.20633	171
3.21000	162
3.21367	150
3.21733	140
3.22100	133
3.22467	126
3.22833	126
3.23200	128
3.23567	131
3.23933	137
3.24300	141
3.24667	142
3.25033	145
3.25400	147
3.25767	144
3.26133	139
3.26500	136
3.26867	137
3.27233	139
3.27600	141
3.27967	142
3.28333	142
3.28700	141
3.29067	140
3.29433	138
3.29800	140
3.30167	146
3.30533	149
3.30900	148
3.31267	143
3.31633	138
3.32000	138
3.32367	139
3.32733	140
3.33100	137
3.33467	133
3.33833	130
3.34200	129
3.34567	129
3.34933	129
3.35300	131
3.35667	133
3.36033	133
3.36400	132
3.36767	128
3.37133	125
3.37500	126
3.37867	128
3.38233	130
3.38600	132
3.38967	137
3.39333	143
3.39700	148
3.40067	151
3.40433	149
3.40800	145
3.41167	140
3.41533	136
3.41900	134
3.42267	136
3.42633	136
3.43000	133
3.43367	129
3.43733	124
3.44100	120
3.44467	115
3.44833	112
3.45200	114
3.45567	119
3.45933	119
3.46300	116
3.46667	115
3.47033	118
3.47400	126
3.47767	133
3.48133	136
3.48500	133
3.48867	129
3.49233	126
3.49600	121
3.49967	112
3.50333	104
3.50700	105
3.51067	111
3.51433	120
3.51800	128
3.52167	131
3.52533	131
3.52900	129
3.53267	127
3.53633	123
3.54000	117
3.54367	111
3.54733	107
3.55100	103
3.55467	99
3.55833	97
3.56200	102
3.56567	105
3.56933	105
3.57300	104
3.57667	106
3.58033	108
3.58400	109
3.58767	112
3.59133	113
3.59500	114
3.59867	116
3.60233	118
3.60600	116
3.60967	113
3.61333	109
3.61700	108
3.62067	110
3.62433	110
3.62800	110
3.63167	112
3.63533	115
3.63900	115
3.64267	113
3.64633	108
3.65000	102
3.65367	98
3.65733	98
3.66100	94
3.66467	89
3.66833	85
3.67200	86
3.67567	89
3.67933	92
3.68300	93
3.68667	93
3.69033	93
3.69400	91
3.69767	89
3.70133	88
3.70500	90
3.70867	90
3.71233	93
3.71600	95
3.71967	97
3.72333	99
3.72700	99
3.73067	97
3.73433	95
3.73800	96
3.74167	97
3.74533	95
3.74900	94
3.75267	96
3.75633	96
3.76000	93
3.76367	89
3.76733	88
3.77100	89
3.77467	90
3.77833	91
3.78200	92
3.78567	95
3.78933	96
3.79300	93
3.79667	93
3.80033	94
3.80400	97
3.80767	102
3.81133	108
3.81500	111
3.81867	112
3.82233	107
3.82600	100
3.82967	94
3.83333	90
3.83700	88
3.84067	86
3.84433	84
3.84800	78
3.85167	71
3.85533	68
3.85900	70
3.86267	77
3.86633	87
3.87000	96
3.87367	103
3.87733	104
3.88100	101
3.88467	97
3.88833	93
3.89200	94
3.89567	96
3.89933	98
3.90300	99
3.90667	100
3.91033	99
3.91400	95
3.91767	86
3.92133	73
3.92500	63
3.92867	60
3.93233	59
3.93600	58
3.93967	59
3.94333	62
3.94700	66
3.95067	68
3.95433	71
3.95800	73
3.96167	73
3.96533	74
3.96900	78
3.97267	86
3.97633	94
3.98000	100
3.98367	105
3.98733	106
3.99100	99
3.99467	88
3.99833	80

[Chromatogram (Ch2)]
Interval(msec)	220
# of Points	1091
Start Time(min)	0.002
End Time(min)	3.998
R.Time (min)	Intensity
0.00167	1
0.00533	1
0.00900	1
0.01267	1
0.01633	0
0.02000	0
0.02367	0
0.02733	0
0.03100	0
0.03467	-0
0.03833	-0
0.04200	-0
0.04567	-0
0.04933	-1
0.05300	-1
0.05667	-1
0.06033	-1
0.06400	-0
0.06767	-0
0.07133	-0
0.07500	-0
0.07867	-0
0.08233	-0
0.08600	-0
0.08967	-0
0.09333	-0
0.09700	-0
0.10067	0
0.10433	0
0.10800	0
0.11167	0
0.11533	0
0.11900	0
0.12267	0
0.12633	0
0.13000	-0
0.13367	-0
0.13733	-0
0.14100	-0
0.14467	-0
0.14833	-0
0.15200	-1
0.15567	-1
0.15933	-1
0.16300	-0
0.16667	-0
0.17033	-0
0.17400	-1
0.17767	-1
0.18133	-1
0.18500	-1
0.18867	-1
0.19233	-1
0.19600	-2
0.19967	-2
0.20333	-3
0.20700	-3
0.21067	-3
0.21433	-3
0.21800	-3
0.22167	-3
0.22533	-3
0.22900	-3
0.23267	-3
0.23633	-3
0.24000	-3
0.24367	-3
0.24733	-3
0.25100	-2
0.25467	-2
0.25833	-2
0.26200	-2
0.26567	-2
0.26933	-2
0.27300	-2
0.27667	-2
0.28033	-2
0.28400	-2
0.28767	-2
0.29133	-2
0.29500	-3
0.29867	-2
0.30233	-2
0.30600	-2
0.30967	-2
0.31333	-1
0.31700	-1
0.32067	-1
0.32433	-2
0.32800	-2
0.33167	-2
0.33533	-2
0.33900	-2
0.34267	-2
0.34633	-2
0.35000	-2
0.35367	-2
0.35733	-1
0.36100	-1
0.36467	-1
0.36833	-1
0.37200	-1
0.37567	-0
0.37933	-0
0.38300	-1
0.38667	-1
0.39033	-1
0.39400	-1
0.39767	-1
0.40133	-1
0.40500	-1
0.40867	-1
0.41233	-1
0.41600	-1
0.41967	-1
0.42333	-1
0.42700	-1
0.43067	-2
0.43433	-2
0.43800	-2
0.44167	-2
0.44533	-2
0.44900	-2
0.45267	-2
0.45633	-2
0.46000	-2
0.46367	-2
0.46733	-2
0.47100	-2
0.47467	-3
0.47833	-2
0.48200	-2
0.48567	-2
0.48933	-2
0.49300	-2
0.49667	-1
0.50033	-1
0.50400	-1
0.50767	-1
0.51133	-1
0.51500	-1
0.51867	-1
0.52233	-1
0.52600	-0
0.52967	-0
0.53333	0
0.53700	0
0.54067	1
0.54433	1
0.54800	2
0.55167	2
0.55533	2
0.55900	2
0.56267	2
0.56633	2
0.57000	2
0.57367	2
0.57733	3
0.58100	3
0.58467	3
0.58833	3
0.59200	3
0.59567	3
0.59933	3
0.60300	3
0.60667	3
0.61033	2
0.61400	2
0.61767	2
0.62133	1
0.62500	1
0.62867	1
0.63233	1
0.63600	1
0.63967	0
0.64333	0
0.64700	0
0.65067	1
0.65433	1
0.65800	1
0.66167	1
0.66533	1
0.66900	0
0.67267	0
0.67633	0
0.68000	-0
0.68367	-1
0.68733	-1
0.69100	-1
0.69467	-1
0.69833	-1
0.70200	-1
0.70567	-1
0.70933	-1
0.71300	-2
0.71667	-2
0.72033	-2
0.72400	-3
0.72767	-3
0.73133	-4
0.73500	-4
0.73867	-4
0.74233	-5
0.74600	-5
0.74967	-5
0.75333	-5
0.75700	-5
0.76067	-5
0.76433	-5
0.76800	-5
0.77167	-5
0.77533	-5
0.77900	-4
0.78267	-4
0.78633	-3
0.79000	-3
0.79367	-2
0.79733	-2
0.80100	-1
0.80467	-1
0.80833	-1
0.81200	-0
0.81567	0
0.81933	0
0.82300	0
0.82667	0
0.83033	-0
0.83400	-0
0.83767	-0
0.84133	-0
0.84500	-0
0.84867	-1
0.85233	-1
0.85600	-1
0.85967	-1
0.86333	-1
0.86700	-1
0.87067	-1
0.87433	-2
0.87800	-2
0.88167	-2
0.88533	-2
0.88900	-2
0.89267	-2
0.89633	-2
0.90000	-3
0.90367	-3
0.90733	-3
0.91100	-4
0.91467	-4
0.91833	-5
0.92200	-5
0.92567	-5
0.92933	-5
0.93300	-5
0.93667	-5
0.94033	-5
0.94400	-4
0.94767	-4
0.95133	-3
0.95500	-3
0.95867	-2
0.96233	-2
0.96600	-2
0.96967	-2
0.97333	-2
0.97700	-1
0.98067	-1
0.98433	-1
0.98800	-0
0.99167	-0
0.99533	1
0.99900	1
1.00267	1
1.00633	2
1.01000	2
1.01367	3
1.01733	3
1.02100	2
1.02467	2
1.02833	2
1.03200	2
1.03567	2
1.03933	2
1.04300	1
1.04667	1
1.05033	1
1.05400	0
1.05767	0
1.06133	-0
1.06500	-1
1.06867	-1
1.07233	-1
1.07600	-2
1.07967	-2
1.08333	-2
1.08700	-2
1.09067	-2
1.09433	-2
1.09800	-2
1.10167	-2
1.10533	-1
1.10900	-1
1.11267	-1
1.11633	-1
1.12000	-1
1.12367	-1
1.12733	-1
1.13100	-1
1.13467	-1
1.13833	-1
1.14200	-1
1.14567	-1
1.14933	-1
1.15300	-1
1.15667	-1
1.16033	-1
1.16400	-2
1.16767	-2
1.17133	-2
1.17500	-2
1.17867	-3
1.18233	-3
1.18600	-3
1.18967	-3
1.19333	-3
1.19700	-2
1.20067	-2
1.20433	-2
1.20800	-2
1.21167	-1
1.21533	-1
1.21900	-1
1.22267	-1
1.22633	-1
1.23000	-1
1.23367	-1
1.23733	-1
1.24100	-1
1.24467	-1
1.24833	-1
1.25200	-1
1.25567	-1
1.25933	-1
1.26300	-1
1.26667	-1
1.27033	-2
1.27400	-2
1.27767	-2
1.28133	-2
1.28500	-2
1.28867	-2
1.29233	-2
1.29600	-2
1.29967	-2
1.30333	-2
1.30700	-2
1.31067	-2
1.31433	-2
1.31800	-2
1.32167	-2
1.32533	-2
1.32900	-2
1.33267	-2
1.33633	-1
1.34000	-1
1.34367	-1
1.34733	-1
1.35100	-1
1.35467	-1
1.35833	-1
1.36200	-1
1.36567	-1
1.36933	-1
1.37300	-2
1.37667	-2
1.38033	-2
1.38400	-2
1.38767	-1
1.39133	-1
1.39500	-2
1.39867	-2
1.40233	-2
1.40600	-2
1.40967	-3
1.41333	-3
1.41700	-3
1.42067	-4
1.42433	-4
1.42800	-3
1.43167	-3
1.43533	-3
1.43900	-3
1.44267	-3
1.44633	-3
1.45000	-3
1.45367	-3
1.45733	-4
1.46100	-4
1.46467	-4
1.46833	-4
1.47200	-4
1.47567	-4
1.47933	-4
1.48300	-4
1.48667	-5
1.49033	-5
1.49400	-5
1.49767	-5
1.50133	-5
1.50500	-5
1.50867	-4
1.51233	-4
1.51600	-4
1.51967	-4
1.52333	-3
1.52700	-3
1.53067	-3
1.53433	-3
1.53800	-3
1.54167	-3
1.54533	-3
1.54900	-3
1.55267	-3
1.55633	-2
1.56000	-2
1.56367	-2
1.56733	-2
1.57100	-2
1.57467	-2
1.57833	-2
1.58200	-2
1.58567	-2
1.58933	-2
1.59300	-3
1.59667	-3
1.60033	-4
1.60400	-5
1.60767	-6
1.61133	-8
1.61500	-10
1.61867	-12
1.62233	-15
1.62600	-18
1.62967	-21
1.63333	-24
1.63700	-28
1.64067	-31
1.64433	-35
1.64800	-38
1.65167	-42
1.65533	-45
1.65900	-49
1.66267	-52
1.66633	-56
1.67000	-60
1.67367	-65
1.67733	-69
1.68100	-74
1.68467	-78
1.68833	-82
1.69200	-86
1.69567	-89
1.69933	-91
1.70300	-93
1.70667	-95
1.71033	-96
1.71400	-97
1.71767	-97
1.72133	-98
1.72500	-99
1.72867	-99
1.73233	-100
1.73600	-101
1.73967	-101
1.74333	-101
1.74700	-101
1.75067	-101
1.75433	-101
1.75800	-101
1.76167	-101
1.76533	-101
1.76900	-102
1.77267	-103
1.77633	-103
1.78000	-104
1.78367	-105
1.78733	-105
1.79100	-106
1.79467	-106
1.79833	-106
1.80200	-106
1.80567	-105
1.80933	-105
1.81300	-105
1.81667	-106
1.82033	-106
1.82400	-106
1.82767	-107
1.83133	-107
1.83500	-107
1.83867	-108
1.84233	-108
1.84600	-107
1.84967	-107
1.85333	-106
1.85700	-105
1.86067	-105
1.86433	-105
1.86800	-105
1.87167	-105
1.87533	-105
1.87900	-105
1.88267	-105
1.88633	-105
1.89000	-104
1.89367	-104
1.89733	-104
1.90100	-104
1.90467	-104
1.90833	-104
1.91200	-104
1.91567	-104
1.91933	-104
1.92300	-103
1.92667	-103
1.93033	-103
1.93400	-103
1.93767	-103
1.94133	-102
1.94500	-101
1.94867	-101
1.95233	-100
1.95600	-100
1.95967	-100
1.96333	-100
1.96700	-100
1.97067	-100
1.97433	-100
1.97800	-99
1.98167	-99
1.98533	-99
1.98900	-99
1.99267	-99
1.99633	-99
2.00000	-99
2.00367	-99
2.00733	-98
2.01100	-98
2.01467	-97
2.01833	-97
2.02200	-96
2.02567	-95
2.02933	-95
2.03300	-95
2.03667	-95
2.04033	-95
2.04400	-94
2.04767	-94
2.05133	-93
2.05500	-93
2.05867	-92
2.06233	-92
2.06600	-92
2.06967	-92
2.07333	-92
2.07700	-92
2.08067	-92
2.08433	-92
2.08800	-92
2.09167	-91
2.09533	-91
2.09900	-91
2.10267	-90
2.10633	-90
2.11000	-89
2.11367	-89
2.11733	-89
2.12100	-89
2.12467	-89
2.12833	-89
2.13200	-88
2.13567	-88
2.13933	-87
2.14300	-87
2.14667	-87
2.15033	-86
2.15400	-87
2.15767	-86
2.16133	-86
2.16500	-86
2.16867	-85
2.17233	-84
2.17600	-84
2.17967	-84
2.18333	-84
2.18700	-84
2.19067	-84
2.19433	-84
2.19800	-83
2.20167	-82
2.20533	-81
2.20900	-81
2.21267	-80
2.21633	-80
2.22000	-80
2.22367	-80
2.22733	-80
2.23100	-80
2.23467	-80
2.23833	-80
2.24200	-80
2.24567	-79
2.24933	-78
2.25300	-77
2.25667	-76
2.26033	-76
2.26400	-76
2.26767	-76
2.27133	-77
2.27500	-79
2.27867	-80
2.28233	-81
2.28600	-82
2.28967	-82
2.29333	-81
2.29700	-80
2.30067	-79
2.30433	-78
2.30800	-76
2.31167	-75
2.31533	-74
2.31900	-73
2.32267	-72
2.32633	-72
2.33000	-72
2.33367	-71
2.33733	-71
2.34100	-70
2.34467	-69
2.34833	-69
2.35200	-68
2.35567	-67
2.35933	-65
2.36300	-64
2.36667	-63
2.37033	-61
2.37400	-58
2.37767	-56
2.38133	-52
2.38500	-49
2.38867	-45
2.39233	-41
2.39600	-37
2.39967	-33
2.40333	-29
2.40700	-25
2.41067	-21
2.41433	-18
2.41800	-15
2.42167	-13
2.42533	-11
2.42900	-8
2.43267	-6
2.43633	-4
2.44000	-2
2.44367	-0
2.44733	2
2.45100	3
2.45467	5
2.45833	6
2.46200	7
2.46567	8
2.46933	9
2.47300	10
2.47667	11
2.48033	12
2.48400	13
2.48767	13
2.49133	14
2.49500	13
2.49867	13
2.50233	13
2.50600	13
2.50967	13
2.51333	12
2.51700	12
2.52067	12
2.52433	12
2.52800	11
2.53167	11
2.53533	11
2.53900	11
2.54267	11
2.54633	11
2.55000	11
2.55367	12
2.55733	12
2.56100	13
2.56467	14
2.56833	15
2.57200	15
2.57567	16
2.57933	16
2.58300	17
2.58667	17
2.59033	17
2.59400	17
2.59767	17
2.60133	16
2.60500	16
2.60867	16
2.61233	17
2.61600	17
2.61967	17
2.62333	18
2.62700	18
2.63067	18
2.63433	19
2.63800	19
2.64167	19
2.64533	20
2.64900	20
2.65267	20
2.65633	20
2.66000	20
2.66367	21
2.66733	21
2.67100	21
2.67467	21
2.67833	21
2.68200	22
2.68567	22
2.68933	22
2.69300	22
2.69667	23
2.70033	23
2.70400	24
2.70767	24
2.71133	24
2.71500	24
2.71867	24
2.72233	24
2.72600	24
2.72967	24
2.73333	24
2.73700	24
2.74067	24
2.74433	25
2.74800	25
2.75167	26
2.75533	26
2.75900	27
2.76267	27
2.76633	28
2.77000	28
2.77367	28
2.77733	28
2.78100	29
2.78467	29
2.78833	29
2.79200	29
2.79567	28
2.79933	28
2.80300	27
2.80667	27
2.81033	26
2.81400	26
2.81767	25
2.82133	25
2.82500	25
2.82867	25
2.83233	25
2.83600	24
2.83967	24
2.84333	25
2.84700	24
2.85067	24
2.85433	24
2.85800	24
2.86167	23
2.86533	20
2.86900	16
2.87267	8
2.87633	-3
2.88000	-19
2.88367	-40
2.88733	-65
2.89100	-96
2.89467	-133
2.89833	-174
2.90200	-219
2.90567	-269
2.90933	-323
2.91300	-380
2.91667	-439
2.92033	-499
2.92400	-561
2.92767	-622
2.93133	-683
2.93500	-743
2.93867	-800
2.94233	-853
2.94600	-904
2.94967	-957
2.95333	-1012
2.95700	-1063
2.96067	-1100
2.96433	-1114
2.96800	-1103
2.97167	-1067
2.97533	-1013
2.97900	-944
2.98267	-866
2.98633	-785
2.99000	-704
2.99367	-626
2.99733	-551
3.00100	-483
3.00467	-420
3.00833	-364
3.01200	-313
3.01567	-269
3.01933	-230
3.02300	-196
3.02667	-166
3.03033	-141
3.03400	-119
3.03767	-100
3.04133	-84
3.04500	-70
3.04867	-58
3.05233	-47
3.05600	-38
3.05967	-31
3.06333	-24
3.06700	-18
3.07067	-14
3.07433	-10
3.07800	-6
3.08167	-3
3.08533	-1
3.08900	1
3.09267	3
3.09633	5
3.10000	6
3.10367	7
3.10733	8
3.11100	9
3.11467	10
3.11833	11
3.12200	12
3.12567	13
3.12933	14
3.13300	15
3.13667	15
3.14033	16
3.14400	16
3.14767	17
3.15133	18
3.15500	18
3.15867	19
3.16233	19
3.16600	19
3.16967	19
3.17333	20
3.17700	20
3.18067	20
3.18433	20
3.18800	20
3.19167	20
3.19533	21
3.19900	21
3.20267	22
3.20633	22
3.21000	23
3.21367	23
3.21733	24
3.22100	24
3.22467	24
3.22833	24
3.23200	24
3.23567	24
3.23933	24
3.24300	24
3.24667	24
3.25033	24
3.25400	24
3.25767	24
3.26133	24
3.26500	24
3.26867	24
3.27233	24
3.27600	23
3.27967	23
3.28333	23
3.28700	23
3.29067	23
3.29433	23
3.29800	23
3.30167	23
3.30533	23
3.30900	23
3.31267	23
3.31633	23
3.32000	24
3.32367	24
3.32733	24
3.33100	24
3.33467	24
3.33833	24
3.34200	24
3.34567	24
3.34933	24
3.35300	24
3.35667	25
3.36033	25
3.36400	25
3.36767	25
3.37133	25
3.37500	25
3.37867	25
3.38233	25
3.38600	25
3.38967	26
3.39333	26
3.39700	26
3.40067	26
3.40433	26
3.40800	26
3.41167	26
3.41533	26
3.41900	26
3.42267	26
3.42633	26
3.43000	26
3.43367	26
3.43733	26
3.44100	27
3.44467	27
3.44833	27
3.45200	27
3.45567	27
3.45933	27
3.46300	27
3.46667	27
3.47033	27
3.47400	27
3.47767	27
3.48133	27
3.48500	27
3.48867	27
3.49233	27
3.49600	27
3.49967	28
3.50333	28
3.50700	28
3.51067	28
3.51433	28
3.51800	28
3.52167	27
3.52533	27
3.52900	27
3.53267	26
3.53633	26
3.54000	26
3.54367	27
3.54733	27
3.55100	27
3.55467	27
3.55833	27
3.56200	27
3.56567	27
3.56933	27
3.57300	27
3.57667	27
3.58033	27
3.58400	27
3.58767	27
3.59133	27
3.59500	27
3.59867	27
3.60233	27
3.60600	27
3.60967	27
3.61333	27
3.61700	27
3.62067	28
3.62433	28
3.62800	28
3.63167	28
3.63533	28
3.63900	28
3.64267	28
3.64633	28
3.65000	28
3.65367	28
3.65733	28
3.66100	28
3.66467	28
3.66833	29
3.67200	29
3.67567	29
3.67933	29
3.68300	29
3.68667	29
3.69033	29
3.69400	29
3.69767	29
3.70133	29
3.70500	29
3.70867	29
3.71233	29
3.71600	29
3.71967	29
3.72333	29
3.72700	29
3.73067	29
3.73433	29
3.73800	29
3.74167	29
3.74533	29
3.74900	29
3.75267	29
3.75633	29
3.76000	29
3.76367	29
3.76733	29
3.77100	29
3.77467	30
3.77833	30
3.78200	30
3.78567	30
3.78933	29
3.79300	29
3.79667	29
3.80033	29
3.80400	29
3.80767	29
3.81133	28
3.81500	28
3.81867	28
3.82233	28
3.82600	28
3.82967	28
3.83333	28
3.83700	28
3.84067	28
3.84433	28
3.84800	28
3.85167	28
3.85533	28
3.85900	28
3.86267	28
3.86633	28
3.87000	28
3.87367	28
3.87733	28
3.88100	28
3.88467	28
3.88833	28
3.89200	28
3.89567	28
3.89933	28
3.90300	28
3.90667	28
3.91033	27
3.91400	27
3.91767	27
3.92133	27
3.92500	27
3.92867	27
3.93233	27
3.93600	27
3.93967	28
3.94333	28
3.94700	28
3.95067	28
3.95433	27
3.95800	27
3.96167	27
3.96533	27
3.96900	27
3.97267	27
3.97633	27
3.98000	27
3.98367	27
3.98733	27
3.99100	27
3.99467	28
3.99833	28

[Chromatogram (Ch3)]
Interval(msec)	220
# of Points	1091
Start Time(min)	0.002
End Time(min)	3.998
R.Time (min)	Intensity
0.00167	-1
0.00533	-1
0.00900	-2
0.01267	-3
0.01633	-2
0.02000	-0
0.02367	-1
0.02733	-1
0.03100	-2
0.03467	-2
0.03833	-2
0.04200	-2
0.04567	-2
0.04933	-2
0.05300	-2
0.05667	-2
0.06033	-2
0.06400	-0
0.06767	-1
0.07133	-1
0.07500	-2
0.07867	-1
0.08233	0
0.08600	0
0.08967	2
0.09333	4
0.09700	4
0.10067	3
0.10433	4
0.10800	4
0.11167	6
0.11533	6
0.11900	5
0.12267	3
0.12633	1
0.13000	2
0.13367	5
0.13733	5
0.14100	4
0.14467	4
0.14833	4
0.15200	3
0.15567	3
0.15933	3
0.16300	5
0.16667	5
0.17033	7
0.17400	8
0.17767	10
0.18133	10
0.18500	10
0.18867	10
0.19233	9
0.19600	7
0.19967	6
0.20333	7
0.20700	9
0.21067	10
0.21433	10
0.21800	7
0.22167	8
0.22533	9
0.22900	9
0.23267	10
0.23633	13
0.24000	11
0.24367	8
0.24733	5
0.25100	4
0.25467	5
0.25833	6
0.26200	6
0.26567	8
0.26933	10
0.27300	11
0.27667	12
0.28033	11
0.28400	9
0.28767	8
0.29133	6
0.29500	6
0.29867	6
0.30233	7
0.30600	8
0.30967	9
0.31333	10
0.31700	11
0.32067	10
0.32433	7
0.32800	9
0.33167	11
0.33533	11
0.33900	9
0.34267	9
0.34633	9
0.35000	9
0.35367	9
0.35733	10
0.36100	13
0.36467	15
0.36833	17
0.37200	15
0.37567	14
0.37933	14
0.38300	12
0.38667	9
0.39033	7
0.39400	5
0.39767	4
0.40133	4
0.40500	5
0.40867	6
0.41233	10
0.41600	13
0.41967	16
0.42333	18
0.42700	18
0.43067	16
0.43433	16
0.43800	15
0.44167	13
0.44533	12
0.44900	11
0.45267	9
0.45633	9
0.46000	9
0.46367	11
0.46733	13
0.47100	15
0.47467	18
0.47833	18
0.48200	18
0.48567	16
0.48933	13
0.49300	10
0.49667	11
0.50033	12
0.50400	14
0.50767	16
0.51133	17
0.51500	18
0.51867	16
0.52233	15
0.52600	17
0.52967	17
0.53333	17
0.53700	16
0.54067	17
0.54433	18
0.54800	19
0.55167	21
0.55533	19
0.55900	18
0.56267	19
0.56633	20
0.57000	20
0.57367	19
0.57733	16
0.58100	14
0.58467	13
0.58833	12
0.59200	12
0.59567	11
0.59933	11
0.60300	12
0.60667	12
0.61033	15
0.61400	18
0.61767	19
0.62133	18
0.62500	16
0.62867	16
0.63233	17
0.63600	17
0.63967	17
0.64333	18
0.64700	18
0.65067	20
0.65433	21
0.65800	21
0.66167	19
0.66533	16
0.66900	15
0.67267	15
0.67633	15
0.68000	16
0.68367	15
0.68733	13
0.69100	14
0.69467	18
0.69833	21
0.70200	22
0.70567	22
0.70933	24
0.71300	22
0.71667	20
0.72033	18
0.72400	17
0.72767	17
0.73133	17
0.73500	17
0.73867	19
0.74233	22
0.74600	21
0.74967	21
0.75333	20
0.75700	18
0.76067	16
0.76433	16
0.76800	18
0.77167	20
0.77533	22
0.77900	24
0.78267	26
0.78633	26
0.79000	26
0.79367	24
0.79733	24
0.80100	23
0.80467	23
0.80833	22
0.81200	23
0.81567	24
0.81933	26
0.82300	28
0.82667	30
0.83033	29
0.83400	28
0.83767	29
0.84133	30
0.84500	31
0.84867	30
0.85233	28
0.85600	27
0.85967	25
0.86333	23
0.86700	21
0.87067	19
0.87433	18
0.87800	20
0.88167	22
0.88533	23
0.88900	23
0.89267	23
0.89633	24
0.90000	26
0.90367	25
0.90733	24
0.91100	26
0.91467	27
0.91833	29
0.92200	30
0.92567	30
0.92933	29
0.93300	29
0.93667	29
0.94033	28
0.94400	27
0.94767	28
0.95133	29
0.95500	30
0.95867	31
0.96233	29
0.96600	29
0.96967	30
0.97333	29
0.97700	28
0.98067	25
0.98433	24
0.98800	25
0.99167	27
0.99533	29
0.99900	30
1.00267	29
1.00633	29
1.01000	29
1.01367	28
1.01733	26
1.02100	25
1.02467	25
1.02833	25
1.03200	24
1.03567	24
1.03933	23
1.04300	23
1.04667	24
1.05033	26
1.05400	27
1.05767	27
1.06133	27
1.06500	26
1.06867	25
1.07233	26
1.07600	28
1.07967	30
1.08333	32
1.08700	32
1.09067	32
1.09433	32
1.09800	35
1.10167	34
1.10533	34
1.10900	32
1.11267	30
1.11633	29
1.12000	28
1.12367	27
1.12733	28
1.13100	30
1.13467	31
1.13833	31
1.14200	31
1.14567	32
1.14933	33
1.15300	34
1.15667	35
1.16033	36
1.16400	35
1.16767	32
1.17133	30
1.17500	28
1.17867	27
1.18233	28
1.18600	29
1.18967	31
1.19333	29
1.19700	25
1.20067	25
1.20433	25
1.20800	26
1.21167	28
1.21533	28
1.21900	30
1.22267	32
1.22633	34
1.23000	34
1.23367	32
1.23733	32
1.24100	32
1.24467	31
1.24833	30
1.25200	32
1.25567	33
1.25933	34
1.26300	34
1.26667	33
1.27033	32
1.27400	30
1.27767	30
1.28133	33
1.28500	35
1.28867	37
1.29233	37
1.29600	36
1.29967	35
1.30333	36
1.30700	37
1.31067	38
1.31433	37
1.31800	35
1.32167	36
1.32533	35
1.32900	33
1.33267	34
1.33633	32
1.34000	28
1.34367	27
1.34733	29
1.35100	32
1.35467	35
1.35833	33
1.36200	33
1.36567	33
1.36933	32
1.37300	31
1.37667	31
1.38033	30
1.38400	27
1.38767	26
1.39133	25
1.39500	25
1.39867	25
1.40233	25
1.40600	24
1.40967	27
1.41333	31
1.41700	34
1.42067	35
1.42433	34
1.42800	34
1.43167	33
1.43533	31
1.43900	29
1.44267	28
1.44633	26
1.45000	25
1.45367	26
1.45733	27
1.46100	30
1.46467	31
1.46833	33
1.47200	33
1.47567	30
1.47933	29
1.48300	30
1.48667	29
1.49033	29
1.49400	29
1.49767	29
1.50133	29
1.50500	29
1.50867	27
1.51233	25
1.51600	26
1.51967	27
1.52333	27
1.52700	27
1.53067	29
1.53433	30
1.53800	31
1.54167	32
1.54533	31
1.54900	32
1.55267	30
1.55633	30
1.56000	31
1.56367	33
1.56733	35
1.57100	33
1.57467	32
1.57833	32
1.58200	32
1.58567	31
1.58933	31
1.59300	29
1.59667	27
1.60033	27
1.60400	29
1.60767	31
1.61133	32
1.61500	32
1.61867	32
1.62233	32
1.62600	32
1.62967	32
1.63333	31
1.63700	31
1.64067	32
1.64433	32
1.64800	32
1.65167	33
1.65533	32
1.65900	33
1.66267	35
1.66633	38
1.67000	41
1.67367	41
1.67733	38
1.68100	36
1.68467	35
1.68833	38
1.69200	39
1.69567	39
1.69933	38
1.70300	38
1.70667	39
1.71033	38
1.71400	37
1.71767	36
1.72133	37
1.72500	38
1.72867	37
1.73233	38
1.73600	38
1.73967	40
1.74333	42
1.74700	45
1.75067	45
1.75433	44
1.75800	43
1.76167	43
1.76533	44
1.76900	45
1.77267	48
1.77633	50
1.78000	50
1.78367	51
1.78733	51
1.79100	49
1.79467	48
1.79833	48
1.80200	49
1.80567	50
1.80933	52
1.81300	54
1.81667	56
1.82033	57
1.82400	58
1.82767	60
1.83133	60
1.83500	56
1.83867	55
1.84233	55
1.84600	56
1.84967	57
1.85333	55
1.85700	56
1.86067	57
1.86433	57
1.86800	56
1.87167	56
1.87533	56
1.87900	58
1.88267	59
1.88633	60
1.89000	63
1.89367	62
1.89733	61
1.90100	62
1.90467	61
1.90833	60
1.91200	60
1.91567	61
1.91933	63
1.92300	67
1.92667	66
1.93033	66
1.93400	66
1.93767	66
1.94133	68
1.94500	69
1.94867	71
1.95233	72
1.95600	73
1.95967	73
1.96333	73
1.96700	72
1.97067	73
1.97433	73
1.97800	75
1.98167	78
1.98533	79
1.98900	80
1.99267	81
1.99633	82
2.00000	81
2.00367	82
2.00733	84
2.01100	84
2.01467	84
2.01833	84
2.02200	85
2.02567	87
2.02933	89
2.03300	91
2.03667	93
2.04033	96
2.04400	96
2.04767	94
2.05133	96
2.05500	97
2.05867	98
2.06233	97
2.06600	97
2.06967	96
2.07333	95
2.07700	97
2.08067	98
2.08433	102
2.08800	105
2.09167	109
2.09533	110
2.09900	109
2.10267	107
2.10633	108
2.11000	108
2.11367	108
2.11733	108
2.12100	109
2.12467	108
2.12833	110
2.13200	112
2.13567	110
2.13933	109
2.14300	107
2.14667	106
2.15033	107
2.15400	111
2.15767	116
2.16133	120
2.16500	120
2.16867	119
2.17233	121
2.17600	122
2.17967	122
2.18333	122
2.18700	122
2.19067	124
2.19433	124
2.19800	123
2.20167	123
2.20533	124
2.20900	126
2.21267	128
2.21633	127
2.22000	127
2.22367	128
2.22733	129
2.23100	132
2.23467	136
2.23833	137
2.24200	135
2.24567	133
2.24933	132
2.25300	132
2.25667	132
2.26033	133
2.26400	134
2.26767	135
2.27133	135
2.27500	136
2.27867	139
2.28233	143
2.28600	146
2.28967	147
2.29333	148
2.29700	148
2.30067	149
2.30433	148
2.30800	146
2.31167	146
2.31533	144
2.31900	143
2.32267	143
2.32633	142
2.33000	143
2.33367	145
2.33733	148
2.34100	150
2.34467	152
2.34833	151
2.35200	150
2.35567	151
2.35933	151
2.36300	151
2.36667	148
2.37033	146
2.37400	146
2.37767	146
2.38133	147
2.38500	147
2.38867	146
2.39233	146
2.39600	144
2.39967	144
2.40333	145
2.40700	145
2.41067	146
2.41433	146
2.41800	148
2.42167	148
2.42533	148
2.42900	150
2.43267	153
2.43633	156
2.44000	161
2.44367	199
2.44733	275
2.45100	349
2.45467	403
2.45833	423
2.46200	413
2.46567	395
2.46933	380
2.47300	367
2.47667	348
2.48033	323
2.48400	294
2.48767	266
2.49133	244
2.49500	226
2.49867	213
2.50233	204
2.50600	203
2.50967	209
2.51333	215
2.51700	220
2.52067	221
2.52433	217
2.52800	209
2.53167	198
2.53533	187
2.53900	176
2.54267	164
2.54633	154
2.55000	146
2.55367	139
2.55733	134
2.56100	128
2.56467	123
2.56833	119
2.57200	118
2.57567	119
2.57933	119
2.58300	121
2.58667	126
2.59033	130
2.59400	137
2.59767	144
2.60133	151
2.60500	158
2.60867	164
2.61233	168
2.61600	171
2.61967	171
2.62333	168
2.62700	163
2.63067	156
2.63433	146
2.63800	137
2.64167	128
2.64533	118
2.64900	111
2.65267	103
2.65633	94
2.66000	87
2.66367	80
2.66733	77
2.67100	75
2.67467	73
2.67833	73
2.68200	73
2.68567	71
2.68933	69
2.69300	68
2.69667	69
2.70033	71
2.70400	73
2.70767	74
2.71133	75
2.71500	75
2.71867	76
2.72233	77
2.72600	78
2.72967	79
2.73333	79
2.73700	80
2.74067	80
2.74433	80
2.74800	79
2.75167	83
2.75533	88
2.75900	92
2.76267	92
2.76633	93
2.77000	93
2.77367	95
2.77733	98
2.78100	101
2.78467	104
2.78833	105
2.79200	106
2.79567	108
2.79933	111
2.80300	117
2.80667	122
2.81033	124
2.81400	126
2.81767	127
2.82133	129
2.82500	130
2.82867	131
2.83233	135
2.83600	145
2.83967	168
2.84333	215
2.84700	307
2.85067	464
2.85433	708
2.85800	1054
2.86167	1497
2.86533	2018
2.86900	2583
2.87267	3150
2.87633	3671
2.88000	4099
2.88367	4405
2.88733	4575
2.89100	4609
2.89467	4520
2.89833	4330
2.90200	4069
2.90567	3764
2.90933	3435
2.91300	3103
2.91667	2780
2.92033	2473
2.92400	2191
2.92767	1934
2.93133	1701
2.93500	1497
2.93867	1315
2.94233	1153
2.94600	1012
2.94967	889
2.95333	779
2.95700	682
2.96067	600
2.96433	530
2.96800	471
2.97167	420
2.97533	376
2.97900	337
2.98267	303
2.98633	276
2.99000	253
2.99367	230
2.99733	209
3.00100	191
3.00467	176
3.00833	164
3.01200	156
3.01567	149
3.01933	146
3.02300	144
3.02667	139
3.03033	132
3.03400	126
3.03767	123
3.04133	120
3.04500	116
3.04867	104
3.05233	82
3.05600	62
3.05967	54
3.06333	62
3.06700	83
3.07067	111
3.07433	142
3.07800	173
3.08167	205
3.08533	235
3.08900	263
3.09267	293
3.09633	322
3.10000	348
3.10367	373
3.10733	393
3.11100	413
3.11467	430
3.11833	445
3.12200	456
3.12567	466
3.12933	475
3.13300	483
3.13667	488
3.14033	494
3.14400	499
3.14767	506
3.15133	512
3.15500	516
3.15867	519
3.16233	520
3.16600	524
3.16967	529
3.17333	536
3.17700	542
3.18067	547
3.18433	551
3.18800	556
3.19167	559
3.19533	559
3.19900	561
3.20267	566
3.20633	569
3.21000	572
3.21367	574
3.21733	577
3.22100	579
3.22467	579
3.22833	580
3.23200	582
3.23567	585
3.23933	587
3.24300	590
3.24667	592
3.25033	594
3.25400	595
3.25767	598
3.26133	601
3.26500	604
3.26867	604
3.27233	602
3.27600	600
3.27967	598
3.28333	597
3.28700	595
3.29067	593
3.29433	591
3.29800	590
3.30167	588
3.30533	586
3.30900	583
3.31267	582
3.31633	580
3.32000	578
3.32367	577
3.32733	575
3.33100	573
3.33467	572
3.33833	569
3.34200	565
3.34567	561
3.34933	559
3.35300	558
3.35667	557
3.36033	554
3.36400	549
3.36767	545
3.37133	541
3.37500	537
3.37867	535
3.38233	536
3.38600	537
3.38967	538
3.39333	537
3.39700	536
3.40067	537
3.40433	536
3.40800	533
3.41167	531
3.41533	528
3.41900	526
3.42267	525
3.42633	525
3.43000	524
3.43367	522
3.43733	523
3.44100	524
3.44467	524
3.44833	523
3.45200	520
3.45567	517
3.45933	517
3.46300	517
3.46667	514
3.47033	513
3.47400	510
3.47767	509
3.48133	508
3.48500	506
3.48867	506
3.49233	505
3.49600	502
3.49967	499
3.50333	498
3.50700	499
3.51067	499
3.51433	497
3.51800	494
3.52167	489
3.52533	485
3.52900	483
3.53267	482
3.53633	481
3.54000	479
3.54367	478
3.54733	475
3.55100	473
3.55467	472
3.55833	470
3.56200	467
3.56567	465
3.56933	464
3.57300	464
3.57667	464
3.58033	463
3.58400	463
3.58767	463
3.59133	462
3.59500	462
3.59867	462
3.60233	462
3.60600	460
3.60967	457
3.61333	456
3.61700	456
3.62067	454
3.62433	450
3.62800	447
3.63167	445
3.63533	442
3.63900	440
3.64267	440
3.64633	439
3.65000	437
3.65367	434
3.65733	432
3.66100	430
3.66467	430
3.66833	431
3.67200	431
3.67567	429
3.67933	430
3.68300	431
3.68667	431
3.69033	429
3.69400	426
3.69767	424
3.70133	422
3.70500	422
3.70867	420
3.71233	417
3.71600	415
3.71967	412
3.72333	410
3.72700	409
3.73067	410
3.73433	409
3.73800	409
3.74167	409
3.74533	408
3.74900	407
3.75267	406
3.75633	404
3.76000	402
3.76367	400
3.76733	398
3.77100	396
3.77467	395
3.77833	395
3.78200	395
3.78567	396
3.78933	397
3.79300	397
3.79667	394
3.80033	392
3.80400	394
3.80767	396
3.81133	394
3.81500	393
3.81867	391
3.82233	390
3.82600	391
3.82967	392
3.83333	391
3.83700	390
3.84067	390
3.84433	388
3.84800	385
3.85167	382
3.85533	380
3.85900	378
3.86267	378
3.86633	380
3.87000	381
3.87367	380
3.87733	380
3.88100	381
3.88467	382
3.88833	381
3.89200	379
3.89567	376
3.89933	373
3.90300	371
3.90667	371
3.91033	373
3.91400	374
3.91767	373
3.92133	372
3.92500	374
3.92867	374
3.93233	372
3.93600	370
3.93967	368
3.94333	367
3.94700	368
3.95067	370
3.95433	370
3.95800	369
3.96167	367
3.96533	365
3.96900	363
3.97267	360
3.97633	359
3.98000	358
3.98367	360
3.98733	359
3.99100	358
3.99467	357
3.99833	356

[Status Trace (Column Oven Temperature)]
Interval(msec)	1000
# of Points	240
Start Time(min)	0.009
End Time(min)	3.992
Intensity Units	
Intensity Multiplier	1
R.Time (min)	Intensity
0.00905	35.02
0.02572	35.02
0.04238	35.02
0.05905	35.02
0.07572	35.01
0.09238	35.01
0.10905	35.00
0.12572	35.00
0.14238	35.00
0.15905	35.01
0.17572	35.01
0.19238	35.01
0.20905	35.02
0.22572	35.03
0.24238	35.03
0.25905	35.04
0.27572	35.04
0.29238	35.04
0.30905	35.04
0.32572	35.05
0.34238	35.04
0.35905	35.05
0.37572	35.05
0.39238	35.05
0.40905	35.04
0.42572	35.04
0.44238	35.04
0.45905	35.04
0.47572	35.04
0.49238	35.04
0.50905	35.04
0.52572	35.04
0.54238	35.03
0.55905	35.01
0.57572	34.99
0.59238	34.99
0.60905	34.98
0.62572	34.97
0.64238	34.97
0.65905	34.97
0.67572	34.99
0.69238	35.00
0.70905	35.02
0.72572	35.03
0.74238	35.04
0.75905	35.05
0.77572	35.05
0.79238	35.04
0.80905	35.02
0.82572	35.01
0.84238	35.01
0.85905	35.01
0.87572	35.01
0.89238	35.01
0.90905	35.02
0.92572	35.04
0.94238	35.04
0.95905	35.04
0.97572	35.03
0.99238	35.01
1.00905	34.98
1.02572	34.98
1.04238	34.97
1.05905	34.98
1.07572	34.98
1.09238	34.98
1.10905	34.98
1.12572	34.98
1.14238	34.98
1.15905	34.98
1.17572	34.99
1.19238	35.00
1.20905	34.99
1.22572	34.98
1.24238	34.97
1.25905	34.97
1.27572	34.97
1.29238	34.97
1.30905	34.98
1.32572	34.97
1.34238	34.97
1.35905	34.97
1.37572	34.97
1.39238	34.97
1.40905	34.97
1.42572	34.97
1.44238	34.97
1.45905	34.97
1.47572	34.99
1.49238	34.99
1.50905	35.00
1.52572	35.01
1.54238	35.00
1.55905	34.99
1.57572	34.99
1.59238	35.01
1.60905	35.07
1.62572	35.20
1.64238	35.38
1.65905	35.63
1.67572	35.97
1.69238	36.33
1.70905	36.69
1.72572	37.03
1.74238	37.36
1.75905	37.68
1.77572	38.01
1.79238	38.36
1.80905	38.68
1.82572	39.02
1.84238	39.35
1.85905	39.69
1.87572	40.01
1.89238	40.34
1.90905	40.66
1.92572	40.99
1.94238	41.31
1.95905	41.63
1.97572	41.95
1.99238	42.28
2.00905	42.61
2.02572	42.93
2.04238	43.27
2.05905	43.58
2.07572	43.91
2.09238	44.25
2.10905	44.57
2.12572	44.89
2.14238	45.22
2.15905	45.53
2.17572	45.86
2.19238	46.21
2.20905	46.52
2.22572	46.85
2.24238	47.18
2.25905	47.47
2.27572	47.86
2.29238	48.20
2.30905	48.52
2.32572	48.86
2.34238	49.17
2.35905	49.43
2.37572	49.62
2.39238	49.66
2.40905	49.65
2.42572	49.66
2.44238	49.68
2.45905	49.70
2.47572	49.69
2.49238	49.72
2.50905	49.72
2.52572	49.73
2.54238	49.75
2.55905	49.75
2.57572	49.77
2.59238	49.79
2.60905	49.81
2.62572	49.81
2.64238	49.81
2.65905	49.82
2.67572	49.84
2.69238	49.84
2.70905	49.85
2.72572	49.86
2.74238	49.86
2.75905	49.85
2.77572	49.85
2.79238	49.86
2.80905	49.88
2.82572	49.90
2.84238	49.91
2.85905	49.93
2.87572	49.95
2.89238	49.96
2.90905	49.97
2.92572	49.96
2.94238	49.97
2.95905	49.96
2.97572	49.94
2.99238	49.93
3.00905	49.93
3.02572	49.94
3.04238	49.96
3.05905	49.98
3.07572	49.99
3.09238	50.02
3.10905	50.02
3.12572	50.03
3.14238	50.02
3.15905	50.03
3.17572	50.03
3.19238	50.03
3.20905	50.02
3.22572	50.02
3.24238	50.02
3.25905	50.02
3.27572	50.03
3.29238	50.04
3.30905	50.06
3.32572	50.07
3.34238	50.08
3.35905	50.08
3.37572	50.08
3.39238	50.08
3.40905	50.08
3.42572	50.08
3.44238	50.09
3.45905	50.09
3.47572	50.09
3.49238	50.09
3.50905	50.09
3.52572	50.09
3.54238	50.09
3.55905	50.10
3.57572	50.09
3.59238	50.10
3.60905	50.11
3.62572	50.10
3.64238	50.10
3.65905	50.09
3.67572	50.07
3.69238	50.07
3.70905	50.08
3.72572	50.07
3.74238	50.07
3.75905	50.05
3.77572	50.04
3.79238	50.03
3.80905	50.03
3.82572	50.02
3.84238	50.02
3.85905	50.02
3.87572	50.02
3.89238	50.03
3.90905	50.03
3.92572	50.04
3.94238	50.05
3.95905	50.05
3.97572	50.05
3.99238	50.04

[Status Trace (Injection Unit Temperature)]
Interval(msec)	1000
# of Points	240
Start Time(min)	0.009
End Time(min)	3.992
Intensity Units	
Intensity Multiplier	1
R.Time (min)	Intensity
0.00905	99.98
0.02572	99.98
0.04238	99.98
0.05905	99.98
0.07572	99.98
0.09238	99.98
0.10905	99.98
0.12572	99.98
0.14238	99.98
0.15905	99.99
0.17572	99.98
0.19238	99.98
0.20905	99.98
0.22572	99.98
0.24238	99.98
0.25905	99.98
0.27572	99.98
0.29238	99.98
0.30905	99.99
0.32572	99.98
0.34238	99.98
0.35905	99.98
0.37572	99.98
0.39238	99.99
0.40905	99.98
0.42572	99.99
0.44238	99.98
0.45905	99.98
0.47572	99.98
0.49238	99.98
0.50905	99.98
0.52572	99.98
0.54238	99.98
0.55905	99.98
0.57572	99.98
0.59238	99.98
0.60905	99.98
0.62572	99.98
0.64238	99.98
0.65905	99.98
0.67572	99.99
0.69238	99.99
0.70905	99.98
0.72572	99.98
0.74238	99.98
0.75905	99.98
0.77572	99.98
0.79238	99.97
0.80905	99.99
0.82572	99.98
0.84238	99.99
0.85905	99.98
0.87572	99.98
0.89238	99.98
0.90905	99.98
0.92572	99.98
0.94238	99.98
0.95905	99.99
0.97572	99.98
0.99238	99.99
1.00905	99.98
1.02572	99.98
1.04238	99.98
1.05905	99.98
1.07572	99.98
1.09238	99.99
1.10905	99.99
1.12572	99.99
1.14238	99.99
1.15905	99.99
1.17572	99.98
1.19238	99.99
1.20905	99.99
1.22572	99.99
1.24238	99.99
1.25905	99.99
1.27572	99.99
1.29238	99.98
1.30905	99.99
1.32572	99.99
1.34238	99.99
1.35905	99.99
1.37572	99.99
1.39238	99.98
1.40905	99.99
1.42572	99.99
1.44238	99.98
1.45905	99.99
1.47572	99.99
1.49238	99.99
1.50905	99.99
1.52572	99.98
1.54238	99.99
1.55905	99.99
1.57572	99.99
1.59238	99.98
1.60905	99.99
1.62572	99.98
1.64238	99.99
1.65905	99.98
1.67572	99.99
1.69238	99.99
1.70905	99.99
1.72572	99.99
1.74238	99.99
1.75905	99.98
1.77572	99.99
1.79238	99.99
1.80905	99.99
1.82572	99.99
1.84238	99.98
1.85905	99.98
1.87572	99.98
1.89238	99.98
1.90905	99.98
1.92572	99.98
1.94238	99.98
1.95905	99.98
1.97572	99.98
1.99238	99.98
2.00905	99.97
2.02572	99.97
2.04238	99.97
2.05905	99.97
2.07572	99.97
2.09238	99.98
2.10905	99.98
2.12572	99.97
2.14238	99.97
2.15905	99.97
2.17572	99.97
2.19238	99.97
2.20905	99.97
2.22572	99.97
2.24238	99.97
2.25905	99.97
2.27572	99.97
2.29238	99.97
2.30905	99.97
2.32572	99.97
2.34238	99.97
2.35905	99.96
2.37572	99.97
2.39238	99.96
2.40905	99.97
2.42572	99.96
2.44238	99.97
2.45905	99.97
2.47572	99.97
2.49238	99.97
2.50905	99.97
2.52572	99.96
2.54238	99.97
2.55905	99.97
2.57572	99.97
2.59238	99.97
2.60905	99.97
2.62572	99.97
2.64238	99.97
2.65905	99.98
2.67572	99.98
2.69238	99.98
2.70905	99.98
2.72572	99.98
2.74238	99.98
2.75905	99.99
2.77572	99.99
2.79238	99.98
2.80905	99.99
2.82572	100.00
2.84238	99.99
2.85905	99.99
2.87572	100.00
2.89238	100.00
2.90905	99.99
2.92572	100.00
2.94238	100.00
2.95905	100.01
2.97572	100.01
2.99238	100.00
3.00905	100.01
3.02572	100.01
3.04238	100.01
3.05905	100.02
3.07572	100.01
3.09238	100.02
3.10905	100.02
3.12572	100.02
3.14238	100.02
3.15905	100.02
3.17572	100.02
3.19238	100.02
3.20905	100.03
3.22572	100.02
3.24238	100.02
3.25905	100.03
3.27572	100.03
3.29238	100.03
3.30905	100.03
3.32572	100.03
3.34238	100.03
3.35905	100.03
3.37572	100.04
3.39238	100.03
3.40905	100.04
3.42572	100.04
3.44238	100.04
3.45905	100.04
3.47572	100.04
3.49238	100.04
3.50905	100.04
3.52572	100.04
3.54238	100.04
3.55905	100.04
3.57572	100.04
3.59238	100.05
3.60905	100.05
3.62572	100.04
3.64238	100.05
3.65905	100.05
3.67572	100.05
3.69238	100.05
3.70905	100.05
3.72572	100.05
3.74238	100.05
3.75905	100.05
3.77572	100.05
3.79238	100.04
3.80905	100.05
3.82572	100.05
3.84238	100.05
3.85905	100.05
3.87572	100.05
3.89238	100.05
3.90905	100.05
3.92572	100.05
3.94238	100.05
3.95905	100.05
3.97572	100.05
3.99238	100.05

[Status Trace (Carrier Gas Pressure)]
Interval(msec)	1000
# of Points	240
Start Time(min)	0.009
End Time(min)	3.992
Intensity Units	
Intensity Multiplier	1
R.Time (min)	Intensity
0.00905	58.00
0.02572	55.29
0.04238	57.32
0.05905	59.52
0.07572	59.19
0.09238	58.02
0.10905	57.99
0.12572	58.01
0.14238	58.01
0.15905	58.00
0.17572	58.00
0.19238	58.00
0.20905	58.00
0.22572	58.00
0.24238	58.00
0.25905	58.00
0.27572	58.00
0.29238	58.00
0.30905	58.00
0.32572	58.00
0.34238	58.00
0.35905	58.00
0.37572	58.00
0.39238	58.00
0.40905	58.00
0.42572	58.00
0.44238	58.00
0.45905	58.00
0.47572	58.00
0.49238	58.00
0.50905	58.00
0.52572	58.00
0.54238	58.00
0.55905	58.00
0.57572	58.00
0.59238	58.00
0.60905	58.00
0.62572	58.00
0.64238	58.00
0.65905	58.00
0.67572	58.00
0.69238	58.00
0.70905	58.00
0.72572	58.00
0.74238	58.00
0.75905	58.00
0.77572	58.00
0.79238	58.00
0.80905	58.00
0.82572	58.00
0.84238	58.00
0.85905	58.00
0.87572	58.00
0.89238	58.00
0.90905	58.00
0.92572	58.00
0.94238	58.00
0.95905	58.00
0.97572	58.00
0.99238	58.00
1.00905	58.00
1.02572	58.00
1.04238	58.00
1.05905	58.00
1.07572	58.00
1.09238	58.00
1.10905	58.00
1.12572	58.00
1.14238	58.00
1.15905	58.00
1.17572	58.00
1.19238	58.00
1.20905	58.00
1.22572	58.00
1.24238	58.00
1.25905	58.00
1.27572	58.00
1.29238	58.00
1.30905	58.00
1.32572	58.00
1.34238	58.00
1.35905	58.00
1.37572	58.00
1.39238	58.00
1.40905	58.00
1.42572	58.00
1.44238	58.00
1.45905	58.00
1.47572	58.00
1.49238	58.00
1.50905	58.00
1.52572	58.00
1.54238	58.00
1.55905	58.00
1.57572	58.00
1.59238	58.00
1.60905	58.00
1.62572	58.00
1.64238	58.00
1.65905	58.00
1.67572	58.01
1.69238	58.00
1.70905	58.00
1.72572	58.00
1.74238	58.00
1.75905	58.00
1.77572	58.00
1.79238	58.00
1.80905	58.00
1.82572	58.00
1.84238	58.00
1.85905	58.00
1.87572	58.00
1.89238	58.00
1.90905	58.00
1.92572	58.00
1.94238	58.00
1.95905	58.00
1.97572	58.00
1.99238	58.00
2.00905	58.00
2.02572	58.00
2.04238	58.00
2.05905	58.00
2.07572	58.00
2.09238	58.00
2.10905	58.00
2.12572	58.00
2.14238	58.00
2.15905	58.00
2.17572	58.00
2.19238	58.00
2.20905	58.00
2.22572	58.00
2.24238	58.00
2.25905	58.00
2.27572	58.00
2.29238	58.00
2.30905	58.00
2.32572	58.00
2.34238	58.00
2.35905	58.00
2.37572	58.00
2.39238	57.99
2.40905	57.99
2.42572	58.00
2.44238	58.00
2.45905	58.00
2.47572	58.00
2.49238	58.00
2.50905	58.00
2.52572	57.98
2.54238	58.00
2.55905	58.00
2.57572	58.00
2.59238	58.00
2.60905	58.00
2.62572	58.00
2.64238	58.00
2.65905	58.00
2.67572	58.00
2.69238	58.00
2.70905	58.00
2.72572	58.00
2.74238	58.00
2.75905	58.00
2.77572	58.00
2.79238	58.00
2.80905	58.00
2.82572	58.00
2.84238	58.00
2.85905	58.00
2.87572	58.00
2.89238	58.00
2.90905	58.00
2.92572	58.00
2.94238	58.00
2.95905	58.00
2.97572	58.00
2.99238	58.00
3.00905	58.00
3.02572	58.00
3.04238	58.00
3.05905	58.00
3.07572	58.00
3.09238	58.00
3.10905	58.00
3.12572	58.00
3.14238	58.00
3.15905	58.00
3.17572	58.00
3.19238	58.00
3.20905	58.00
3.22572	58.00
3.24238	58.00
3.25905	58.00
3.27572	58.00
3.29238	58.00
3.30905	58.00
3.32572	58.00
3.34238	58.00
3.35905	58.00
3.37572	58.00
3.39238	58.00
3.40905	58.00
3.42572	58.00
3.44238	58.00
3.45905	58.00
3.47572	58.00
3.49238	58.00
3.50905	58.00
3.52572	58.00
3.54238	58.00
3.55905	58.00
3.57572	58.00
3.59238	58.00
3.60905	58.00
3.62572	58.00
3.64238	58.00
3.65905	58.00
3.67572	58.00
3.69238	58.00
3.70905	58.00
3.72572	58.00
3.74238	58.00
3.75905	58.00
3.77572	58.00
3.79238	58.00
3.80905	58.00
3.82572	58.00
3.84238	58.00
3.85905	58.00
3.87572	58.00
3.89238	58.00
3.90905	58.00
3.92572	58.00
3.94238	58.00
3.95905	58.00
3.97572	58.00
3.99238	58.00

[Status Trace (Carrier Gas Flow)]
Interval(msec)	1000
# of Points	240
Start Time(min)	0.009
End Time(min)	3.992
Intensity Units	
Intensity Multiplier	1
R.Time (min)	Intensity
0.00905	34.52
0.02572	34.53
0.04238	34.55
0.05905	34.55
0.07572	34.50
0.09238	34.53
0.10905	34.53
0.12572	34.51
0.14238	34.51
0.15905	34.51
0.17572	34.52
0.19238	34.52
0.20905	34.52
0.22572	34.52
0.24238	34.52
0.25905	34.52
0.27572	34.52
0.29238	34.52
0.30905	34.52
0.32572	34.52
0.34238	34.52
0.35905	34.52
0.37572	34.52
0.39238	34.52
0.40905	34.52
0.42572	34.52
0.44238	34.52
0.45905	34.52
0.47572	34.52
0.49238	34.52
0.50905	34.52
0.52572	34.52
0.54238	34.52
0.55905	34.51
0.57572	34.53
0.59238	34.52
0.60905	34.52
0.62572	34.52
0.64238	34.52
0.65905	34.52
0.67572	34.51
0.69238	34.52
0.70905	34.52
0.72572	34.52
0.74238	34.52
0.75905	34.52
0.77572	34.52
0.79238	34.51
0.80905	34.51
0.82572	34.53
0.84238	34.52
0.85905	34.51
0.87572	34.51
0.89238	34.51
0.90905	34.53
0.92572	34.52
0.94238	34.51
0.95905	34.52
0.97572	34.52
0.99238	34.51
1.00905	34.52
1.02572	34.52
1.04238	34.52
1.05905	34.52
1.07572	34.53
1.09238	34.51
1.10905	34.53
1.12572	34.52
1.14238	34.52
1.15905	34.52
1.17572	34.52
1.19238	34.51
1.20905	34.51
1.22572	34.53
1.24238	34.52
1.25905	34.51
1.27572	34.53
1.29238	34.52
1.30905	34.52
1.32572	34.51
1.34238	34.52
1.35905	34.52
1.37572	34.52
1.39238	34.52
1.40905	34.51
1.42572	34.51
1.44238	34.52
1.45905	34.52
1.47572	34.52
1.49238	34.52
1.50905	34.52
1.52572	34.52
1.54238	34.52
1.55905	34.52
1.57572	34.52
1.59238	34.51
1.60905	34.52
1.62572	34.52
1.64238	34.52
1.65905	34.52
1.67572	34.52
1.69238	34.52
1.70905	34.52
1.72572	34.52
1.74238	34.52
1.75905	34.52
1.77572	34.52
1.79238	34.52
1.80905	34.52
1.82572	34.52
1.84238	34.52
1.85905	34.52
1.87572	34.52
1.89238	34.52
1.90905	34.52
1.92572	34.52
1.94238	34.52
1.95905	34.52
1.97572	34.52
1.99238	34.52
2.00905	34.52
2.02572	34.52
2.04238	34.51
2.05905	34.52
2.07572	34.52
2.09238	34.52
2.10905	34.52
2.12572	34.52
2.14238	34.52
2.15905	34.52
2.17572	34.52
2.19238	34.52
2.20905	34.52
2.22572	34.52
2.24238	34.52
2.25905	34.52
2.27572	34.52
2.29238	34.52
2.30905	34.51
2.32572	34.52
2.34238	34.52
2.35905	34.52
2.37572	34.52
2.39238	34.52
2.40905	34.52
2.42572	34.52
2.44238	34.51
2.45905	34.52
2.47572	34.52
2.49238	34.52
2.50905	34.50
2.52572	34.52
2.54238	34.53
2.55905	34.52
2.57572	34.53
2.59238	34.52
2.60905	34.51
2.62572	34.51
2.64238	34.52
2.65905	34.51
2.67572	34.52
2.69238	34.52
2.70905	34.52
2.72572	34.52
2.74238	34.52
2.75905	34.51
2.77572	34.52
2.79238	34.53
2.80905	34.51
2.82572	34.52
2.84238	34.52
2.85905	34.53
2.87572	34.52
2.89238	34.52
2.90905	34.52
2.92572	34.52
2.94238	34.52
2.95905	34.52
2.97572	34.52
2.99238	34.52
3.00905	34.52
3.02572	34.52
3.04238	34.52
3.05905	34.52
3.07572	34.51
3.09238	34.52
3.10905	34.52
3.12572	34.51
3.14238	34.52
3.15905	34.52
3.17572	34.52
3.19238	34.52
3.20905	34.51
3.22572	34.52
3.24238	34.52
3.25905	34.53
3.27572	34.52
3.29238	34.52
3.30905	34.51
3.32572	34.52
3.34238	34.52
3.35905	34.53
3.37572	34.51
3.39238	34.52
3.40905	34.52
3.42572	34.51
3.44238	34.52
3.45905	34.51
3.47572	34.51
3.49238	34.52
3.50905	34.52
3.52572	34.52
3.54238	34.52
3.55905	34.52
3.57572	34.53
3.59238	34.52
3.60905	34.52
3.62572	34.52
3.64238	34.52
3.65905	34.53
3.67572	34.52
3.69238	34.51
3.70905	34.52
3.72572	34.51
3.74238	34.52
3.75905	34.52
3.77572	34.53
3.79238	34.52
3.80905	34.51
3.82572	34.53
3.84238	34.51
3.85905	34.51
3.87572	34.51
3.89238	34.52
3.90905	34.52
3.92572	34.51
3.94238	34.52
3.95905	34.52
3.97572	34.52
3.99238	34.51

[Status Trace (Column Flow)]
Interval(msec)	1000
# of Points	240
Start Time(min)	0.009
End Time(min)	3.992
Intensity Units	
Intensity Multiplier	1
R.Time (min)	Intensity
0.00905	5.52
0.02572	5.21
0.04238	5.44
0.05905	5.70
0.07572	5.66
0.09238	5.52
0.10905	5.52
0.12572	5.52
0.14238	5.52
0.15905	5.52
0.17572	5.52
0.19238	5.52
0.20905	5.52
0.22572	5.52
0.24238	5.52
0.25905	5.52
0.27572	5.52
0.29238	5.52
0.30905	5.52
0.32572	5.52
0.34238	5.52
0.35905	5.52
0.37572	5.52
0.39238	5.52
0.40905	5.52
0.42572	5.52
0.44238	5.52
0.45905	5.52
0.47572	5.52
0.49238	5.52
0.50905	5.52
0.52572	5.52
0.54238	5.52
0.55905	5.52
0.57572	5.52
0.59238	5.52
0.60905	5.52
0.62572	5.52
0.64238	5.52
0.65905	5.52
0.67572	5.52
0.69238	5.52
0.70905	5.52
0.72572	5.52
0.74238	5.52
0.75905	5.52
0.77572	5.52
0.79238	5.52
0.80905	5.52
0.82572	5.52
0.84238	5.52
0.85905	5.52
0.87572	5.52
0.89238	5.52
0.90905	5.52
0.92572	5.52
0.94238	5.52
0.95905	5.52
0.97572	5.52
0.99238	5.52
1.00905	5.52
1.02572	5.52
1.04238	5.52
1.05905	5.52
1.07572	5.52
1.09238	5.52
1.10905	5.52
1.12572	5.52
1.14238	5.52
1.15905	5.52
1.17572	5.52
1.19238	5.52
1.20905	5.52
1.22572	5.52
1.24238	5.52
1.25905	5.52
1.27572	5.52
1.29238	5.52
1.30905	5.52
1.32572	5.52
1.34238	5.52
1.35905	5.52
1.37572	5.52
1.39238	5.52
1.40905	5.52
1.42572	5.52
1.44238	5.52
1.45905	5.52
1.47572	5.52
1.49238	5.52
1.50905	5.52
1.52572	5.52
1.54238	5.52
1.55905	5.52
1.57572	5.52
1.59238	5.52
1.60905	5.52
1.62572	5.52
1.64238	5.51
1.65905	5.50
1.67572	5.49
1.69238	5.48
1.70905	5.47
1.72572	5.46
1.74238	5.45
1.75905	5.44
1.77572	5.43
1.79238	5.42
1.80905	5.41
1.82572	5.40
1.84238	5.39
1.85905	5.38
1.87572	5.37
1.89238	5.36
1.90905	5.35
1.92572	5.34
1.94238	5.33
1.95905	5.32
1.97572	5.31
1.99238	5.30
2.00905	5.29
2.02572	5.28
2.04238	5.27
2.05905	5.26
2.07572	5.25
2.09238	5.24
2.10905	5.23
2.12572	5.22
2.14238	5.21
2.15905	5.20
2.17572	5.19
2.19238	5.19
2.20905	5.18
2.22572	5.17
2.24238	5.16
2.25905	5.15
2.27572	5.14
2.29238	5.13
2.30905	5.12
2.32572	5.11
2.34238	5.10
2.35905	5.09
2.37572	5.09
2.39238	5.09
2.40905	5.09
2.42572	5.09
2.44238	5.09
2.45905	5.09
2.47572	5.09
2.49238	5.09
2.50905	5.09
2.52572	5.08
2.54238	5.09
2.55905	5.09
2.57572	5.08
2.59238	5.08
2.60905	5.08
2.62572	5.08
2.64238	5.08
2.65905	5.08
2.67572	5.08
2.69238	5.08
2.70905	5.08
2.72572	5.08
2.74238	5.08
2.75905	5.08
2.77572	5.08
2.79238	5.08
2.80905	5.08
2.82572	5.08
2.84238	5.08
2.85905	5.08
2.87572	5.08
2.89238	5.08
2.90905	5.08
2.92572	5.08
2.94238	5.08
2.95905	5.08
2.97572	5.08
2.99238	5.08
3.00905	5.08
3.02572	5.08
3.04238	5.08
3.05905	5.08
3.07572	5.08
3.09238	5.08
3.10905	5.08
3.12572	5.08
3.14238	5.08
3.15905	5.08
3.17572	5.08
3.19238	5.08
3.20905	5.08
3.22572	5.08
3.24238	5.08
3.25905	5.08
3.27572	5.08
3.29238	5.08
3.30905	5.08
3.32572	5.08
3.34238	5.08
3.35905	5.08
3.37572	5.08
3.39238	5.08
3.40905	5.08
3.42572	5.08
3.44238	5.08
3.45905	5.08
3.47572	5.08
3.49238	5.08
3.50905	5.08
3.52572	5.08
3.54238	5.08
3.55905	5.08
3.57572	5.08
3.59238	5.08
3.60905	5.08
3.62572	5.08
3.64238	5.08
3.65905	5.08
3.67572	5.08
3.69238	5.08
3.70905	5.08
3.72572	5.08
3.74238	5.08
3.75905	5.08
3.77572	5.08
3.79238	5.08
3.80905	5.08
3.82572	5.08
3.84238	5.08
3.85905	5.08
3.87572	5.08
3.89238	5.08
3.90905	5.08
3.92572	5.08
3.94238	5.08
3.95905	5.08
3.97572	5.08
3.99238	5.08

[Status Trace (Linear Velocity)]
Interval(msec)	1000
# of Points	240
Start Time(min)	0.009
End Time(min)	3.992
Intensity Units	
Intensity Multiplier	1
R.Time (min)	Intensity
0.00905	39.02
0.02572	37.24
0.04238	38.57
0.05905	40.01
0.07572	39.80
0.09238	39.03
0.10905	39.01
0.12572	39.02
0.14238	39.02
0.15905	39.02
0.17572	39.02
0.19238	39.02
0.20905	39.02
0.22572	39.01
0.24238	39.01
0.25905	39.01
0.27572	39.01
0.29238	39.01
0.30905	39.01
0.32572	39.01
0.34238	39.01
0.35905	39.01
0.37572	39.01
0.39238	39.01
0.40905	39.01
0.42572	39.01
0.44238	39.01
0.45905	39.01
0.47572	39.01
0.49238	39.01
0.50905	39.01
0.52572	39.01
0.54238	39.01
0.55905	39.02
0.57572	39.02
0.59238	39.02
0.60905	39.02
0.62572	39.02
0.64238	39.02
0.65905	39.02
0.67572	39.02
0.69238	39.02
0.70905	39.02
0.72572	39.01
0.74238	39.01
0.75905	39.01
0.77572	39.01
0.79238	39.01
0.80905	39.01
0.82572	39.02
0.84238	39.02
0.85905	39.02
0.87572	39.02
0.89238	39.02
0.90905	39.01
0.92572	39.01
0.94238	39.01
0.95905	39.01
0.97572	39.01
0.99238	39.02
1.00905	39.02
1.02572	39.02
1.04238	39.02
1.05905	39.02
1.07572	39.02
1.09238	39.02
1.10905	39.02
1.12572	39.02
1.14238	39.02
1.15905	39.02
1.17572	39.02
1.19238	39.02
1.20905	39.02
1.22572	39.02
1.24238	39.02
1.25905	39.02
1.27572	39.02
1.29238	39.02
1.30905	39.02
1.32572	39.02
1.34238	39.02
1.35905	39.02
1.37572	39.02
1.39238	39.02
1.40905	39.02
1.42572	39.02
1.44238	39.02
1.45905	39.02
1.47572	39.02
1.49238	39.02
1.50905	39.02
1.52572	39.02
1.54238	39.02
1.55905	39.02
1.57572	39.02
1.59238	39.02
1.60905	39.01
1.62572	39.00
1.64238	38.98
1.65905	38.96
1.67572	38.93
1.69238	38.89
1.70905	38.86
1.72572	38.82
1.74238	38.79
1.75905	38.76
1.77572	38.73
1.79238	38.70
1.80905	38.67
1.82572	38.63
1.84238	38.60
1.85905	38.57
1.87572	38.54
1.89238	38.51
1.90905	38.48
1.92572	38.45
1.94238	38.42
1.95905	38.39
1.97572	38.36
1.99238	38.33
2.00905	38.30
2.02572	38.27
2.04238	38.24
2.05905	38.21
2.07572	38.18
2.09238	38.15
2.10905	38.12
2.12572	38.09
2.14238	38.06
2.15905	38.03
2.17572	38.00
2.19238	37.97
2.20905	37.94
2.22572	37.91
2.24238	37.88
2.25905	37.86
2.27572	37.83
2.29238	37.79
2.30905	37.76
2.32572	37.73
2.34238	37.71
2.35905	37.68
2.37572	37.66
2.39238	37.66
2.40905	37.66
2.42572	37.66
2.44238	37.66
2.45905	37.66
2.47572	37.66
2.49238	37.66
2.50905	37.65
2.52572	37.65
2.54238	37.65
2.55905	37.66
2.57572	37.65
2.59238	37.65
2.60905	37.65
2.62572	37.65
2.64238	37.65
2.65905	37.65
2.67572	37.65
2.69238	37.65
2.70905	37.65
2.72572	37.65
2.74238	37.64
2.75905	37.65
2.77572	37.65
2.79238	37.65
2.80905	37.64
2.82572	37.64
2.84238	37.64
2.85905	37.64
2.87572	37.64
2.89238	37.64
2.90905	37.63
2.92572	37.64
2.94238	37.64
2.95905	37.64
2.97572	37.64
2.99238	37.64
3.00905	37.64
3.02572	37.64
3.04238	37.64
3.05905	37.63
3.07572	37.63
3.09238	37.63
3.10905	37.63
3.12572	37.63
3.14238	37.63
3.15905	37.63
3.17572	37.63
3.19238	37.63
3.20905	37.63
3.22572	37.63
3.24238	37.63
3.25905	37.63
3.27572	37.63
3.29238	37.63
3.30905	37.63
3.32572	37.63
3.34238	37.63
3.35905	37.63
3.37572	37.63
3.39238	37.63
3.40905	37.63
3.42572	37.63
3.44238	37.63
3.45905	37.62
3.47572	37.62
3.49238	37.62
3.50905	37.62
3.52572	37.62
3.54238	37.62
3.55905	37.62
3.57572	37.62
3.59238	37.62
3.60905	37.62
3.62572	37.62
3.64238	37.62
3.65905	37.62
3.67572	37.63
3.69238	37.63
3.70905	37.63
3.72572	37.63
3.74238	37.63
3.75905	37.63
3.77572	37.63
3.79238	37.63
3.80905	37.63
3.82572	37.63
3.84238	37.63
3.85905	37.63
3.87572	37.63
3.89238	37.63
3.90905	37.63
3.92572	37.63
3.94238	37.63
3.95905	37.63
3.97572	37.63
3.99238	37.63

