[Header]
Application Name	LabSolutions
Version	5.110
Data File Name	C:\Users\User\Desktop\Junior\UIC Prairie Sampling\3.23.23\032323_029.gcd
Output Date	5/24/2023
Output Time	10:27:37 AM

[File Information]
Type	Data File
Generated	5/23/2023 6:37:36 PM
Generated by	System Administrator
Modified	5/23/2023 6:44:30 PM
Modified by	System Administrator

[Sample Information]
Operator Name	System Administrator
Acquired	5/23/2023 6:40:27 PM
Sample Type	0:Unknown
Level	0
Sample Name	029
Sample ID	029
ISTD Amount1	1
ISTD Amount2	1
ISTD Amount3	1
ISTD Amount4	1
ISTD Amount5	1
ISTD Amount6	1
ISTD Amount7	1
ISTD Amount8	1
ISTD Amount9	1
ISTD Amount10	1
ISTD Amount11	1
ISTD Amount12	1
ISTD Amount13	1
ISTD Amount14	1
ISTD Amount15	1
ISTD Amount16	1
ISTD Amount17	1
ISTD Amount18	1
ISTD Amount19	1
ISTD Amount20	1
ISTD Amount21	1
ISTD Amount22	1
ISTD Amount23	1
ISTD Amount24	1
ISTD Amount25	1
ISTD Amount26	1
ISTD Amount27	1
ISTD Amount28	1
ISTD Amount29	1
ISTD Amount30	1
ISTD Amount31	1
ISTD Amount32	1
Sample Amount	1
Dilution Factor	1
Vial#	28
Injection Volume	1
Injection Count	1
Bar Code	

[Original Files]
Data File	C:\Users\User\Desktop\GC Analyses\Jack\Nachusa Grasslands Sampling\20220924\t2\032323_029.gcd
Method File	C:\LabSolutions\Data\GHG_4min_2022\ghg3_togas_w_acet_4 min_new_int.gcm
Batch File	C:\LabSolutions\Data\AutoSamplerTesting\032323.gcb
Report Format File	c:\LabSolutions\System\DEFAULT.lsr

[File Description]


[Configuration]
Instrument Name	C0B7VH3-Instrument1
Instrument #	1
Line #	1
# of Detectors	3
Detector ID	DET#1	DET#2	DET#3
Detector Name	FID	PTCD	ECD
# of Channels	1	1	1

[Peak Table(Ch1)]
# of Peaks	3
Peak#	R.Time	I.Time	F.Time	Area	Height	A/H	Conc.	Mark	ID#	Name	k'	Plate #	Plate Ht.	Tailing	Resolution	Sep.Factor	Area Ratio	Height Ratio	Conc. %	Norm Conc.
1	1.476	1.439	1.531	8081	3907	2.069	0.000	   	1	CO	0.000	9535	15.732	1.180	0.000	0.000	0	0	0.000	0.000
2	1.564	1.531	1.622	4511	2232	2.021	21.992	 V 	2	CH4	0.060	11112	13.498	1.261	1.469	0.000	0	0	10.094	10.094
3	1.993	1.945	2.359	1016351	486008	2.091	195.869	   	3	CO2	0.350	17405	8.618	1.301	7.165	5.875	0	0	89.906	89.906

[Peak Table(Ch2)]
# of Peaks	0

[Peak Table(Ch3)]
# of Peaks	5
Peak#	R.Time	I.Time	F.Time	Area	Height	A/H	Conc.	Mark	ID#	Name	k'	Plate #	Plate Ht.	Tailing	Resolution	Sep.Factor	Area Ratio	Height Ratio	Conc. %	Norm Conc.
1	2.458	2.396	2.502	639	255	2.503	0.000	   			0.000	17786	8.434	0.000	0.000	0.000	0	0	0.000	0.000
2	2.517	2.502	2.565	265	107	2.469	0.000	 V 			0.024	6702	22.382	0.000	0.596	0.000	0	0	0.000	0.000
3	2.616	2.565	2.675	295	90	3.279	0.000	 V 			0.064	10500	14.285	0.000	0.880	2.688	0	0	0.000	0.000
4	2.887	2.730	3.034	16175	4408	3.669	0.239	   	1	N2O	0.175	13851	10.830	1.514	2.710	2.721	0	0	100.000	100.000
5	3.239	3.100	3.925	11534	467	24.689	0.000	   			0.318	321	466.914	2.962	0.857	1.821	0	0	0.000	0.000

[Compound Results(Ch1)]
# of IDs	6
ID#	Name	R.Time	Area	Height	Conc.	Curve	3rd	2nd	1st	Constant	Area Ratio	Height Ratio	Conc. %	Norm Conc.
1	CO	1.476	8081	3907	0.000	Linear	0.000000e+00	0.000000e+00	0.000000e+00	0.000000e+00	0	0	0.000	0.000
2	CH4	1.564	4511	2232	21.992	Linear	0.000000e+00	0.000000e+00	2.051179e+002	0.000000e+00	0	0	10.094	10.094
3	CO2	1.993	1016351	486008	195.869	Linear	0.000000e+00	0.000000e+00	5.188919e+003	0.000000e+00	0	0	89.906	89.906
4	Ethylene	0.000	0	0	0.000	Linear	0.000000e+00	0.000000e+00	0.000000e+00	0.000000e+00	0	0	0.000	0.000
5	Acetylene	0.000	0	0	0.000	Linear	0.000000e+00	0.000000e+00	0.000000e+00	0.000000e+00	0	0	0.000	0.000
6	Ethane	0.000	0	0	0.000	Linear	0.000000e+00	0.000000e+00	0.000000e+00	0.000000e+00	0	0	0.000	0.000

[Compound Results(Ch2)]
# of IDs	5
ID#	Name	R.Time	Area	Height	Conc.	Curve	3rd	2nd	1st	Constant	Area Ratio	Height Ratio	Conc. %	Norm Conc.
1	Hydrogen	0.000	0	0	0.000	Linear	0.000000e+00	0.000000e+00	0.000000e+00	0.000000e+00	0	0	0.000	0.000
2	Oxygen	0.000	0	0	0.000	Linear	0.000000e+00	0.000000e+00	0.000000e+00	0.000000e+00	0	0	0.000	0.000
3	Nitrogen	0.000	0	0	0.000	Linear	0.000000e+00	0.000000e+00	0.000000e+00	0.000000e+00	0	0	0.000	0.000
4	Methane	0.000	0	0	0.000	Linear	0.000000e+00	0.000000e+00	0.000000e+00	0.000000e+00	0	0	0.000	0.000
5	Carbon Monoxide	0.000	0	0	0.000	Linear	0.000000e+00	0.000000e+00	0.000000e+00	0.000000e+00	0	0	0.000	0.000

[Compound Results(Ch3)]
# of IDs	2
ID#	Name	R.Time	Area	Height	Conc.	Curve	3rd	2nd	1st	Constant	Area Ratio	Height Ratio	Conc. %	Norm Conc.
1	N2O	2.887	16175	4408	0.239	Linear	0.000000e+00	0.000000e+00	6.759880e+004	0.000000e+00	0	0	100.000	100.000
2	SF6	0.000	0	0	0.000	Linear	0.000000e+00	0.000000e+00	0.000000e+00	0.000000e+00	0	0	0.000	0.000

[Group Results(Ch1)]
# of Groups	0

[Group Results(Ch2)]
# of Groups	0

[Group Results(Ch3)]
# of Groups	0

[Chromatogram (Ch1)]
Interval(msec)	220
# of Points	1091
Start Time(min)	0.002
End Time(min)	3.998
R.Time (min)	Intensity
0.00167	3
0.00533	4
0.00900	4
0.01267	5
0.01633	6
0.02000	6
0.02367	7
0.02733	11
0.03100	17
0.03467	22
0.03833	25
0.04200	28
0.04567	25
0.04933	21
0.05300	18
0.05667	18
0.06033	20
0.06400	19
0.06767	14
0.07133	9
0.07500	10
0.07867	13
0.08233	13
0.08600	9
0.08967	3
0.09333	-1
0.09700	-1
0.10067	2
0.10433	7
0.10800	10
0.11167	8
0.11533	5
0.11900	5
0.12267	6
0.12633	5
0.13000	4
0.13367	3
0.13733	2
0.14100	5
0.14467	13
0.14833	17
0.15200	15
0.15567	10
0.15933	2
0.16300	-4
0.16667	-2
0.17033	4
0.17400	10
0.17767	12
0.18133	11
0.18500	9
0.18867	6
0.19233	4
0.19600	5
0.19967	7
0.20333	7
0.20700	5
0.21067	3
0.21433	0
0.21800	-1
0.22167	2
0.22533	7
0.22900	14
0.23267	21
0.23633	23
0.24000	19
0.24367	13
0.24733	6
0.25100	4
0.25467	8
0.25833	7
0.26200	1
0.26567	-5
0.26933	-4
0.27300	0
0.27667	5
0.28033	12
0.28400	20
0.28767	25
0.29133	26
0.29500	25
0.29867	19
0.30233	11
0.30600	5
0.30967	2
0.31333	-1
0.31700	-5
0.32067	-9
0.32433	-15
0.32800	-18
0.33167	-14
0.33533	-7
0.33900	-2
0.34267	-1
0.34633	2
0.35000	9
0.35367	14
0.35733	13
0.36100	6
0.36467	-1
0.36833	-5
0.37200	-6
0.37567	-6
0.37933	-5
0.38300	-4
0.38667	-4
0.39033	-5
0.39400	-3
0.39767	-1
0.40133	2
0.40500	5
0.40867	9
0.41233	11
0.41600	10
0.41967	8
0.42333	6
0.42700	2
0.43067	-3
0.43433	-5
0.43800	-4
0.44167	3
0.44533	10
0.44900	14
0.45267	15
0.45633	13
0.46000	7
0.46367	3
0.46733	-0
0.47100	-1
0.47467	-1
0.47833	0
0.48200	2
0.48567	1
0.48933	-3
0.49300	-6
0.49667	-5
0.50033	-3
0.50400	-1
0.50767	2
0.51133	2
0.51500	-1
0.51867	-1
0.52233	5
0.52600	14
0.52967	18
0.53333	15
0.53700	12
0.54067	13
0.54433	19
0.54800	22
0.55167	20
0.55533	18
0.55900	20
0.56267	20
0.56633	16
0.57000	11
0.57367	7
0.57733	3
0.58100	1
0.58467	2
0.58833	-0
0.59200	-3
0.59567	-3
0.59933	-2
0.60300	3
0.60667	7
0.61033	9
0.61400	9
0.61767	3
0.62133	-1
0.62500	-2
0.62867	-3
0.63233	-2
0.63600	-2
0.63967	-4
0.64333	-6
0.64700	-7
0.65067	-8
0.65433	-11
0.65800	-15
0.66167	-15
0.66533	-15
0.66900	-17
0.67267	-20
0.67633	-20
0.68000	-17
0.68367	-9
0.68733	-1
0.69100	8
0.69467	14
0.69833	14
0.70200	11
0.70567	8
0.70933	4
0.71300	-2
0.71667	-9
0.72033	-13
0.72400	-14
0.72767	-10
0.73133	-2
0.73500	4
0.73867	7
0.74233	6
0.74600	3
0.74967	-2
0.75333	-8
0.75700	-15
0.76067	-21
0.76433	-25
0.76800	-22
0.77167	-12
0.77533	-3
0.77900	-0
0.78267	-5
0.78633	-12
0.79000	-18
0.79367	-22
0.79733	-24
0.80100	-25
0.80467	-24
0.80833	-21
0.81200	-18
0.81567	-18
0.81933	-19
0.82300	-18
0.82667	-17
0.83033	-12
0.83400	-7
0.83767	2
0.84133	11
0.84500	18
0.84867	20
0.85233	19
0.85600	14
0.85967	9
0.86333	6
0.86700	3
0.87067	0
0.87433	-2
0.87800	-5
0.88167	-9
0.88533	-12
0.88900	-13
0.89267	-15
0.89633	-15
0.90000	-13
0.90367	-16
0.90733	-23
0.91100	-34
0.91467	-45
0.91833	-53
0.92200	-53
0.92567	-47
0.92933	-40
0.93300	-33
0.93667	-27
0.94033	-17
0.94400	-4
0.94767	10
0.95133	22
0.95500	25
0.95867	18
0.96233	7
0.96600	-4
0.96967	-17
0.97333	-26
0.97700	-32
0.98067	-31
0.98433	-24
0.98800	-13
0.99167	-2
0.99533	1
0.99900	-5
1.00267	-10
1.00633	-12
1.01000	-7
1.01367	-1
1.01733	4
1.02100	3
1.02467	-1
1.02833	-3
1.03200	-1
1.03567	5
1.03933	12
1.04300	18
1.04667	18
1.05033	14
1.05400	5
1.05767	-6
1.06133	-16
1.06500	-24
1.06867	-28
1.07233	-27
1.07600	-24
1.07967	-21
1.08333	-18
1.08700	-18
1.09067	-18
1.09433	-19
1.09800	-16
1.10167	-10
1.10533	-5
1.10900	-3
1.11267	-1
1.11633	2
1.12000	5
1.12367	5
1.12733	2
1.13100	-2
1.13467	-1
1.13833	4
1.14200	6
1.14567	6
1.14933	4
1.15300	-0
1.15667	-4
1.16033	-7
1.16400	-9
1.16767	-11
1.17133	-10
1.17500	-9
1.17867	-9
1.18233	-12
1.18600	-14
1.18967	-13
1.19333	-6
1.19700	4
1.20067	7
1.20433	5
1.20800	-0
1.21167	-6
1.21533	-10
1.21900	-13
1.22267	-14
1.22633	-14
1.23000	-15
1.23367	-18
1.23733	-19
1.24100	-17
1.24467	-15
1.24833	-15
1.25200	-15
1.25567	-15
1.25933	-14
1.26300	-12
1.26667	-11
1.27033	-13
1.27400	-18
1.27767	-23
1.28133	-25
1.28500	-26
1.28867	-23
1.29233	-18
1.29600	-13
1.29967	-7
1.30333	-3
1.30700	-1
1.31067	-5
1.31433	-12
1.31800	-18
1.32167	-22
1.32533	-26
1.32900	-29
1.33267	-28
1.33633	-23
1.34000	-14
1.34367	-3
1.34733	3
1.35100	2
1.35467	-2
1.35833	-5
1.36200	-7
1.36567	-13
1.36933	-20
1.37300	-25
1.37667	-27
1.38033	-25
1.38400	-23
1.38767	-23
1.39133	-26
1.39500	-26
1.39867	-20
1.40233	-14
1.40600	-11
1.40967	-10
1.41333	-10
1.41700	-13
1.42067	-16
1.42433	-19
1.42800	-26
1.43167	-33
1.43533	-31
1.43900	-8
1.44267	46
1.44633	158
1.45000	446
1.45367	1013
1.45733	1764
1.46100	2520
1.46467	3157
1.46833	3622
1.47200	3881
1.47567	3889
1.47933	3623
1.48300	3133
1.48667	2531
1.49033	1932
1.49400	1412
1.49767	1001
1.50133	697
1.50500	482
1.50867	329
1.51233	222
1.51600	148
1.51967	97
1.52333	62
1.52700	40
1.53067	32
1.53433	39
1.53800	92
1.54167	255
1.54533	568
1.54900	985
1.55267	1409
1.55633	1773
1.56000	2042
1.56367	2190
1.56733	2187
1.57100	2017
1.57467	1713
1.57833	1348
1.58200	994
1.58567	695
1.58933	466
1.59300	301
1.59667	188
1.60033	112
1.60400	62
1.60767	27
1.61133	-2
1.61500	-27
1.61867	-45
1.62233	-57
1.62600	-65
1.62967	-62
1.63333	-53
1.63700	-45
1.64067	-42
1.64433	-44
1.64800	-48
1.65167	-54
1.65533	-58
1.65900	-58
1.66267	-57
1.66633	-56
1.67000	-51
1.67367	-42
1.67733	-32
1.68100	-29
1.68467	-30
1.68833	-33
1.69200	-34
1.69567	-34
1.69933	-33
1.70300	-35
1.70667	-37
1.71033	-41
1.71400	-44
1.71767	-48
1.72133	-51
1.72500	-51
1.72867	-49
1.73233	-47
1.73600	-45
1.73967	-47
1.74333	-49
1.74700	-48
1.75067	-49
1.75433	-48
1.75800	-46
1.76167	-42
1.76533	-41
1.76900	-42
1.77267	-43
1.77633	-44
1.78000	-40
1.78367	-37
1.78733	-38
1.79100	-43
1.79467	-47
1.79833	-44
1.80200	-34
1.80567	-22
1.80933	-12
1.81300	-9
1.81667	-13
1.82033	-20
1.82400	-31
1.82767	-48
1.83133	-67
1.83500	-80
1.83867	-85
1.84233	-84
1.84600	-79
1.84967	-68
1.85333	-52
1.85700	-38
1.86067	-31
1.86433	-31
1.86800	-32
1.87167	-32
1.87533	-34
1.87900	-37
1.88267	-40
1.88633	-43
1.89000	-48
1.89367	-51
1.89733	-50
1.90100	-44
1.90467	-34
1.90833	-23
1.91200	-21
1.91567	-25
1.91933	-29
1.92300	-30
1.92667	-30
1.93033	-33
1.93400	-38
1.93767	-41
1.94133	-40
1.94500	-36
1.94867	-22
1.95233	62
1.95600	532
1.95967	2670
1.96333	10093
1.96700	29744
1.97067	70147
1.97433	135677
1.97800	221226
1.98167	313275
1.98533	396059
1.98900	456611
1.99267	486007
1.99633	480299
2.00000	441982
2.00367	379979
2.00733	307091
2.01100	235495
2.01467	173320
2.01833	123899
2.02200	87011
2.02567	60657
2.02933	42367
2.03300	29895
2.03667	21464
2.04033	15772
2.04400	11910
2.04767	9262
2.05133	7416
2.05500	6100
2.05867	5140
2.06233	4419
2.06600	3859
2.06967	3418
2.07333	3063
2.07700	2768
2.08067	2520
2.08433	2312
2.08800	2137
2.09167	1986
2.09533	1849
2.09900	1727
2.10267	1618
2.10633	1523
2.11000	1439
2.11367	1363
2.11733	1297
2.12100	1235
2.12467	1174
2.12833	1118
2.13200	1068
2.13567	1021
2.13933	977
2.14300	935
2.14667	895
2.15033	861
2.15400	831
2.15767	800
2.16133	768
2.16500	737
2.16867	710
2.17233	689
2.17600	669
2.17967	651
2.18333	633
2.18700	613
2.19067	593
2.19433	575
2.19800	561
2.20167	549
2.20533	540
2.20900	530
2.21267	517
2.21633	504
2.22000	494
2.22367	486
2.22733	477
2.23100	467
2.23467	457
2.23833	450
2.24200	441
2.24567	427
2.24933	409
2.25300	392
2.25667	383
2.26033	377
2.26400	369
2.26767	363
2.27133	360
2.27500	358
2.27867	360
2.28233	364
2.28600	365
2.28967	363
2.29333	365
2.29700	366
2.30067	360
2.30433	352
2.30800	348
2.31167	347
2.31533	345
2.31900	343
2.32267	338
2.32633	331
2.33000	323
2.33367	313
2.33733	303
2.34100	294
2.34467	290
2.34833	290
2.35200	287
2.35567	282
2.35933	276
2.36300	274
2.36667	272
2.37033	273
2.37400	279
2.37767	286
2.38133	289
2.38500	285
2.38867	280
2.39233	277
2.39600	278
2.39967	276
2.40333	270
2.40700	262
2.41067	257
2.41433	255
2.41800	260
2.42167	267
2.42533	270
2.42900	271
2.43267	269
2.43633	271
2.44000	275
2.44367	277
2.44733	274
2.45100	270
2.45467	265
2.45833	260
2.46200	255
2.46567	251
2.46933	252
2.47300	255
2.47667	253
2.48033	248
2.48400	241
2.48767	238
2.49133	239
2.49500	243
2.49867	246
2.50233	245
2.50600	246
2.50967	248
2.51333	249
2.51700	249
2.52067	249
2.52433	250
2.52800	254
2.53167	258
2.53533	264
2.53900	269
2.54267	272
2.54633	271
2.55000	266
2.55367	262
2.55733	259
2.56100	253
2.56467	246
2.56833	244
2.57200	246
2.57567	251
2.57933	258
2.58300	267
2.58667	272
2.59033	274
2.59400	275
2.59767	277
2.60133	279
2.60500	279
2.60867	278
2.61233	279
2.61600	281
2.61967	282
2.62333	280
2.62700	276
2.63067	270
2.63433	265
2.63800	263
2.64167	266
2.64533	265
2.64900	261
2.65267	261
2.65633	266
2.66000	272
2.66367	278
2.66733	283
2.67100	288
2.67467	295
2.67833	301
2.68200	304
2.68567	303
2.68933	301
2.69300	301
2.69667	303
2.70033	302
2.70400	299
2.70767	295
2.71133	291
2.71500	288
2.71867	285
2.72233	283
2.72600	287
2.72967	298
2.73333	310
2.73700	318
2.74067	319
2.74433	318
2.74800	317
2.75167	315
2.75533	311
2.75900	307
2.76267	308
2.76633	311
2.77000	312
2.77367	308
2.77733	300
2.78100	294
2.78467	294
2.78833	299
2.79200	301
2.79567	304
2.79933	307
2.80300	309
2.80667	308
2.81033	306
2.81400	304
2.81767	303
2.82133	303
2.82500	305
2.82867	311
2.83233	317
2.83600	323
2.83967	328
2.84333	331
2.84700	332
2.85067	334
2.85433	336
2.85800	337
2.86167	337
2.86533	335
2.86900	332
2.87267	329
2.87633	328
2.88000	327
2.88367	324
2.88733	323
2.89100	325
2.89467	330
2.89833	336
2.90200	340
2.90567	339
2.90933	337
2.91300	337
2.91667	337
2.92033	340
2.92400	346
2.92767	355
2.93133	364
2.93500	369
2.93867	372
2.94233	372
2.94600	365
2.94967	357
2.95333	352
2.95700	353
2.96067	359
2.96433	365
2.96800	362
2.97167	353
2.97533	341
2.97900	330
2.98267	319
2.98633	312
2.99000	313
2.99367	318
2.99733	320
3.00100	321
3.00467	323
3.00833	324
3.01200	330
3.01567	339
3.01933	348
3.02300	354
3.02667	358
3.03033	361
3.03400	365
3.03767	369
3.04133	373
3.04500	376
3.04867	378
3.05233	381
3.05600	383
3.05967	380
3.06333	373
3.06700	367
3.07067	365
3.07433	363
3.07800	360
3.08167	359
3.08533	359
3.08900	357
3.09267	356
3.09633	359
3.10000	368
3.10367	378
3.10733	388
3.11100	396
3.11467	401
3.11833	401
3.12200	396
3.12567	389
3.12933	378
3.13300	365
3.13667	353
3.14033	344
3.14400	339
3.14767	338
3.15133	340
3.15500	342
3.15867	346
3.16233	351
3.16600	357
3.16967	363
3.17333	372
3.17700	375
3.18067	374
3.18433	370
3.18800	369
3.19167	370
3.19533	371
3.19900	370
3.20267	367
3.20633	363
3.21000	357
3.21367	354
3.21733	359
3.22100	366
3.22467	372
3.22833	377
3.23200	375
3.23567	367
3.23933	360
3.24300	355
3.24667	350
3.25033	345
3.25400	343
3.25767	349
3.26133	363
3.26500	377
3.26867	384
3.27233	382
3.27600	374
3.27967	364
3.28333	353
3.28700	343
3.29067	339
3.29433	339
3.29800	338
3.30167	337
3.30533	333
3.30900	331
3.31267	335
3.31633	337
3.32000	340
3.32367	342
3.32733	348
3.33100	356
3.33467	363
3.33833	367
3.34200	367
3.34567	364
3.34933	360
3.35300	359
3.35667	357
3.36033	354
3.36400	346
3.36767	336
3.37133	331
3.37500	331
3.37867	333
3.38233	336
3.38600	342
3.38967	344
3.39333	345
3.39700	346
3.40067	346
3.40433	347
3.40800	352
3.41167	356
3.41533	353
3.41900	346
3.42267	340
3.42633	335
3.43000	331
3.43367	331
3.43733	333
3.44100	333
3.44467	334
3.44833	340
3.45200	354
3.45567	365
3.45933	369
3.46300	365
3.46667	355
3.47033	344
3.47400	337
3.47767	335
3.48133	336
3.48500	338
3.48867	341
3.49233	344
3.49600	342
3.49967	341
3.50333	338
3.50700	335
3.51067	332
3.51433	331
3.51800	328
3.52167	327
3.52533	330
3.52900	333
3.53267	335
3.53633	337
3.54000	340
3.54367	340
3.54733	337
3.55100	331
3.55467	325
3.55833	322
3.56200	322
3.56567	319
3.56933	314
3.57300	310
3.57667	310
3.58033	315
3.58400	320
3.58767	323
3.59133	325
3.59500	324
3.59867	318
3.60233	314
3.60600	315
3.60967	321
3.61333	327
3.61700	331
3.62067	330
3.62433	324
3.62800	315
3.63167	305
3.63533	300
3.63900	297
3.64267	294
3.64633	290
3.65000	288
3.65367	289
3.65733	291
3.66100	294
3.66467	297
3.66833	301
3.67200	304
3.67567	307
3.67933	313
3.68300	318
3.68667	320
3.69033	321
3.69400	321
3.69767	321
3.70133	322
3.70500	325
3.70867	326
3.71233	327
3.71600	328
3.71967	323
3.72333	312
3.72700	296
3.73067	282
3.73433	274
3.73800	273
3.74167	282
3.74533	294
3.74900	300
3.75267	297
3.75633	291
3.76000	286
3.76367	284
3.76733	284
3.77100	285
3.77467	284
3.77833	285
3.78200	289
3.78567	293
3.78933	296
3.79300	297
3.79667	295
3.80033	294
3.80400	294
3.80767	292
3.81133	289
3.81500	288
3.81867	288
3.82233	291
3.82600	297
3.82967	298
3.83333	298
3.83700	297
3.84067	294
3.84433	290
3.84800	286
3.85167	285
3.85533	288
3.85900	293
3.86267	297
3.86633	296
3.87000	296
3.87367	294
3.87733	293
3.88100	293
3.88467	293
3.88833	295
3.89200	295
3.89567	291
3.89933	287
3.90300	284
3.90667	283
3.91033	281
3.91400	280
3.91767	277
3.92133	277
3.92500	277
3.92867	279
3.93233	282
3.93600	284
3.93967	283
3.94333	280
3.94700	276
3.95067	271
3.95433	270
3.95800	273
3.96167	277
3.96533	279
3.96900	280
3.97267	279
3.97633	275
3.98000	270
3.98367	266
3.98733	266
3.99100	273
3.99467	283
3.99833	291

[Chromatogram (Ch2)]
Interval(msec)	220
# of Points	1091
Start Time(min)	0.002
End Time(min)	3.998
R.Time (min)	Intensity
0.00167	1
0.00533	1
0.00900	1
0.01267	1
0.01633	0
0.02000	0
0.02367	-0
0.02733	-1
0.03100	-1
0.03467	-1
0.03833	-0
0.04200	-0
0.04567	-0
0.04933	0
0.05300	0
0.05667	0
0.06033	0
0.06400	0
0.06767	0
0.07133	-0
0.07500	-0
0.07867	-1
0.08233	-1
0.08600	-1
0.08967	-1
0.09333	-1
0.09700	-1
0.10067	-0
0.10433	-0
0.10800	0
0.11167	0
0.11533	1
0.11900	1
0.12267	2
0.12633	2
0.13000	2
0.13367	2
0.13733	2
0.14100	3
0.14467	3
0.14833	3
0.15200	3
0.15567	3
0.15933	3
0.16300	2
0.16667	2
0.17033	1
0.17400	1
0.17767	0
0.18133	-0
0.18500	-1
0.18867	-1
0.19233	-1
0.19600	-1
0.19967	-1
0.20333	-1
0.20700	-1
0.21067	-1
0.21433	-1
0.21800	-1
0.22167	-1
0.22533	-1
0.22900	-2
0.23267	-2
0.23633	-2
0.24000	-3
0.24367	-3
0.24733	-3
0.25100	-3
0.25467	-3
0.25833	-2
0.26200	-2
0.26567	-2
0.26933	-1
0.27300	-1
0.27667	-0
0.28033	-0
0.28400	0
0.28767	1
0.29133	1
0.29500	2
0.29867	2
0.30233	2
0.30600	2
0.30967	2
0.31333	3
0.31700	3
0.32067	3
0.32433	3
0.32800	2
0.33167	3
0.33533	3
0.33900	3
0.34267	3
0.34633	3
0.35000	3
0.35367	4
0.35733	4
0.36100	4
0.36467	4
0.36833	4
0.37200	4
0.37567	3
0.37933	3
0.38300	3
0.38667	2
0.39033	2
0.39400	2
0.39767	2
0.40133	2
0.40500	2
0.40867	2
0.41233	2
0.41600	2
0.41967	2
0.42333	1
0.42700	1
0.43067	1
0.43433	1
0.43800	1
0.44167	1
0.44533	1
0.44900	0
0.45267	-0
0.45633	-0
0.46000	0
0.46367	0
0.46733	0
0.47100	0
0.47467	1
0.47833	1
0.48200	1
0.48567	1
0.48933	1
0.49300	1
0.49667	1
0.50033	1
0.50400	1
0.50767	1
0.51133	1
0.51500	1
0.51867	1
0.52233	1
0.52600	1
0.52967	2
0.53333	2
0.53700	2
0.54067	2
0.54433	2
0.54800	2
0.55167	2
0.55533	2
0.55900	2
0.56267	2
0.56633	2
0.57000	2
0.57367	2
0.57733	2
0.58100	2
0.58467	2
0.58833	1
0.59200	1
0.59567	1
0.59933	1
0.60300	1
0.60667	0
0.61033	0
0.61400	0
0.61767	0
0.62133	1
0.62500	1
0.62867	1
0.63233	1
0.63600	1
0.63967	1
0.64333	1
0.64700	1
0.65067	1
0.65433	1
0.65800	1
0.66167	1
0.66533	0
0.66900	0
0.67267	-0
0.67633	-0
0.68000	-1
0.68367	-1
0.68733	-2
0.69100	-2
0.69467	-2
0.69833	-2
0.70200	-2
0.70567	-2
0.70933	-2
0.71300	-2
0.71667	-3
0.72033	-3
0.72400	-3
0.72767	-3
0.73133	-2
0.73500	-2
0.73867	-2
0.74233	-2
0.74600	-2
0.74967	-2
0.75333	-1
0.75700	-1
0.76067	-1
0.76433	-1
0.76800	-1
0.77167	-1
0.77533	-1
0.77900	-1
0.78267	-0
0.78633	-0
0.79000	0
0.79367	0
0.79733	1
0.80100	1
0.80467	1
0.80833	1
0.81200	1
0.81567	1
0.81933	0
0.82300	0
0.82667	0
0.83033	-0
0.83400	-1
0.83767	-1
0.84133	-1
0.84500	-1
0.84867	-1
0.85233	-1
0.85600	-0
0.85967	0
0.86333	0
0.86700	0
0.87067	0
0.87433	0
0.87800	0
0.88167	0
0.88533	1
0.88900	1
0.89267	1
0.89633	1
0.90000	1
0.90367	2
0.90733	2
0.91100	2
0.91467	2
0.91833	2
0.92200	2
0.92567	2
0.92933	2
0.93300	2
0.93667	1
0.94033	1
0.94400	0
0.94767	-0
0.95133	-1
0.95500	-2
0.95867	-2
0.96233	-2
0.96600	-3
0.96967	-3
0.97333	-3
0.97700	-3
0.98067	-3
0.98433	-3
0.98800	-3
0.99167	-3
0.99533	-3
0.99900	-3
1.00267	-3
1.00633	-4
1.01000	-4
1.01367	-4
1.01733	-4
1.02100	-3
1.02467	-3
1.02833	-3
1.03200	-3
1.03567	-2
1.03933	-2
1.04300	-2
1.04667	-2
1.05033	-2
1.05400	-2
1.05767	-1
1.06133	-1
1.06500	-0
1.06867	0
1.07233	1
1.07600	2
1.07967	2
1.08333	2
1.08700	2
1.09067	3
1.09433	3
1.09800	3
1.10167	3
1.10533	3
1.10900	3
1.11267	3
1.11633	3
1.12000	3
1.12367	3
1.12733	3
1.13100	2
1.13467	2
1.13833	2
1.14200	2
1.14567	2
1.14933	2
1.15300	2
1.15667	2
1.16033	2
1.16400	1
1.16767	1
1.17133	0
1.17500	0
1.17867	0
1.18233	-0
1.18600	-0
1.18967	-0
1.19333	-1
1.19700	-1
1.20067	-2
1.20433	-2
1.20800	-3
1.21167	-4
1.21533	-4
1.21900	-4
1.22267	-5
1.22633	-5
1.23000	-5
1.23367	-5
1.23733	-5
1.24100	-5
1.24467	-5
1.24833	-5
1.25200	-5
1.25567	-5
1.25933	-5
1.26300	-4
1.26667	-4
1.27033	-3
1.27400	-2
1.27767	-2
1.28133	-1
1.28500	-0
1.28867	0
1.29233	0
1.29600	1
1.29967	1
1.30333	1
1.30700	2
1.31067	2
1.31433	2
1.31800	2
1.32167	1
1.32533	1
1.32900	0
1.33267	0
1.33633	0
1.34000	0
1.34367	0
1.34733	1
1.35100	1
1.35467	1
1.35833	1
1.36200	1
1.36567	1
1.36933	1
1.37300	1
1.37667	1
1.38033	1
1.38400	1
1.38767	1
1.39133	1
1.39500	0
1.39867	0
1.40233	0
1.40600	-0
1.40967	-1
1.41333	-1
1.41700	-1
1.42067	-1
1.42433	-1
1.42800	-1
1.43167	-0
1.43533	-0
1.43900	-0
1.44267	-0
1.44633	-0
1.45000	-1
1.45367	-1
1.45733	-1
1.46100	-2
1.46467	-2
1.46833	-1
1.47200	-1
1.47567	-1
1.47933	-1
1.48300	-0
1.48667	-0
1.49033	-0
1.49400	0
1.49767	0
1.50133	1
1.50500	1
1.50867	1
1.51233	1
1.51600	1
1.51967	0
1.52333	0
1.52700	0
1.53067	0
1.53433	-0
1.53800	-0
1.54167	-0
1.54533	-0
1.54900	-0
1.55267	-0
1.55633	-0
1.56000	-0
1.56367	-0
1.56733	-0
1.57100	-0
1.57467	-0
1.57833	-0
1.58200	-0
1.58567	-1
1.58933	-1
1.59300	-1
1.59667	-2
1.60033	-3
1.60400	-4
1.60767	-6
1.61133	-7
1.61500	-9
1.61867	-12
1.62233	-14
1.62600	-17
1.62967	-20
1.63333	-23
1.63700	-26
1.64067	-30
1.64433	-33
1.64800	-37
1.65167	-40
1.65533	-44
1.65900	-47
1.66267	-51
1.66633	-56
1.67000	-60
1.67367	-65
1.67733	-70
1.68100	-74
1.68467	-79
1.68833	-83
1.69200	-86
1.69567	-89
1.69933	-91
1.70300	-92
1.70667	-94
1.71033	-95
1.71400	-95
1.71767	-96
1.72133	-97
1.72500	-98
1.72867	-99
1.73233	-100
1.73600	-100
1.73967	-101
1.74333	-101
1.74700	-101
1.75067	-100
1.75433	-100
1.75800	-100
1.76167	-101
1.76533	-101
1.76900	-101
1.77267	-102
1.77633	-102
1.78000	-102
1.78367	-102
1.78733	-103
1.79100	-103
1.79467	-104
1.79833	-104
1.80200	-104
1.80567	-104
1.80933	-104
1.81300	-104
1.81667	-103
1.82033	-103
1.82400	-103
1.82767	-103
1.83133	-104
1.83500	-104
1.83867	-105
1.84233	-105
1.84600	-105
1.84967	-105
1.85333	-105
1.85700	-105
1.86067	-105
1.86433	-105
1.86800	-105
1.87167	-105
1.87533	-105
1.87900	-105
1.88267	-105
1.88633	-104
1.89000	-104
1.89367	-103
1.89733	-103
1.90100	-102
1.90467	-102
1.90833	-101
1.91200	-101
1.91567	-101
1.91933	-100
1.92300	-100
1.92667	-100
1.93033	-100
1.93400	-100
1.93767	-100
1.94133	-100
1.94500	-99
1.94867	-99
1.95233	-98
1.95600	-98
1.95967	-98
1.96333	-98
1.96700	-98
1.97067	-98
1.97433	-98
1.97800	-98
1.98167	-98
1.98533	-98
1.98900	-98
1.99267	-98
1.99633	-98
2.00000	-98
2.00367	-98
2.00733	-97
2.01100	-97
2.01467	-96
2.01833	-96
2.02200	-95
2.02567	-95
2.02933	-94
2.03300	-94
2.03667	-94
2.04033	-94
2.04400	-94
2.04767	-93
2.05133	-93
2.05500	-93
2.05867	-93
2.06233	-92
2.06600	-92
2.06967	-91
2.07333	-90
2.07700	-90
2.08067	-89
2.08433	-90
2.08800	-90
2.09167	-90
2.09533	-90
2.09900	-89
2.10267	-88
2.10633	-88
2.11000	-87
2.11367	-87
2.11733	-87
2.12100	-87
2.12467	-87
2.12833	-87
2.13200	-87
2.13567	-87
2.13933	-86
2.14300	-86
2.14667	-86
2.15033	-86
2.15400	-86
2.15767	-85
2.16133	-85
2.16500	-85
2.16867	-84
2.17233	-83
2.17600	-82
2.17967	-81
2.18333	-81
2.18700	-80
2.19067	-79
2.19433	-79
2.19800	-79
2.20167	-79
2.20533	-80
2.20900	-81
2.21267	-82
2.21633	-82
2.22000	-82
2.22367	-81
2.22733	-81
2.23100	-80
2.23467	-80
2.23833	-79
2.24200	-79
2.24567	-79
2.24933	-79
2.25300	-79
2.25667	-78
2.26033	-78
2.26400	-77
2.26767	-77
2.27133	-76
2.27500	-76
2.27867	-75
2.28233	-75
2.28600	-74
2.28967	-74
2.29333	-74
2.29700	-74
2.30067	-75
2.30433	-76
2.30800	-77
2.31167	-78
2.31533	-78
2.31900	-78
2.32267	-77
2.32633	-76
2.33000	-75
2.33367	-74
2.33733	-73
2.34100	-72
2.34467	-72
2.34833	-71
2.35200	-70
2.35567	-69
2.35933	-68
2.36300	-66
2.36667	-64
2.37033	-61
2.37400	-58
2.37767	-55
2.38133	-51
2.38500	-47
2.38867	-43
2.39233	-39
2.39600	-34
2.39967	-29
2.40333	-24
2.40700	-20
2.41067	-16
2.41433	-13
2.41800	-10
2.42167	-8
2.42533	-6
2.42900	-5
2.43267	-3
2.43633	-2
2.44000	-1
2.44367	0
2.44733	2
2.45100	3
2.45467	4
2.45833	6
2.46200	7
2.46567	8
2.46933	9
2.47300	10
2.47667	11
2.48033	11
2.48400	11
2.48767	12
2.49133	12
2.49500	13
2.49867	13
2.50233	13
2.50600	14
2.50967	13
2.51333	12
2.51700	12
2.52067	11
2.52433	9
2.52800	8
2.53167	8
2.53533	7
2.53900	7
2.54267	7
2.54633	8
2.55000	9
2.55367	9
2.55733	10
2.56100	10
2.56467	11
2.56833	11
2.57200	12
2.57567	13
2.57933	13
2.58300	14
2.58667	14
2.59033	14
2.59400	14
2.59767	14
2.60133	14
2.60500	13
2.60867	13
2.61233	13
2.61600	14
2.61967	14
2.62333	15
2.62700	16
2.63067	17
2.63433	17
2.63800	18
2.64167	18
2.64533	18
2.64900	19
2.65267	19
2.65633	20
2.66000	20
2.66367	20
2.66733	20
2.67100	21
2.67467	21
2.67833	21
2.68200	21
2.68567	21
2.68933	21
2.69300	21
2.69667	21
2.70033	22
2.70400	22
2.70767	22
2.71133	23
2.71500	23
2.71867	23
2.72233	24
2.72600	24
2.72967	24
2.73333	25
2.73700	25
2.74067	26
2.74433	26
2.74800	25
2.75167	25
2.75533	25
2.75900	24
2.76267	24
2.76633	24
2.77000	24
2.77367	24
2.77733	24
2.78100	24
2.78467	24
2.78833	25
2.79200	25
2.79567	26
2.79933	26
2.80300	26
2.80667	27
2.81033	27
2.81400	27
2.81767	27
2.82133	27
2.82500	27
2.82867	27
2.83233	27
2.83600	27
2.83967	27
2.84333	27
2.84700	27
2.85067	27
2.85433	26
2.85800	24
2.86167	21
2.86533	15
2.86900	5
2.87267	-8
2.87633	-26
2.88000	-48
2.88367	-76
2.88733	-109
2.89100	-147
2.89467	-190
2.89833	-238
2.90200	-289
2.90567	-344
2.90933	-402
2.91300	-462
2.91667	-524
2.92033	-585
2.92400	-647
2.92767	-708
2.93133	-768
2.93500	-824
2.93867	-877
2.94233	-929
2.94600	-985
2.94967	-1040
2.95333	-1087
2.95700	-1114
2.96067	-1116
2.96433	-1093
2.96800	-1048
2.97167	-985
2.97533	-912
2.97900	-832
2.98267	-750
2.98633	-670
2.99000	-593
2.99367	-521
2.99733	-455
3.00100	-395
3.00467	-341
3.00833	-294
3.01200	-252
3.01567	-215
3.01933	-183
3.02300	-155
3.02667	-131
3.03033	-110
3.03400	-92
3.03767	-77
3.04133	-64
3.04500	-53
3.04867	-43
3.05233	-35
3.05600	-28
3.05967	-22
3.06333	-17
3.06700	-13
3.07067	-9
3.07433	-6
3.07800	-3
3.08167	-1
3.08533	2
3.08900	4
3.09267	5
3.09633	7
3.10000	8
3.10367	9
3.10733	10
3.11100	11
3.11467	11
3.11833	12
3.12200	12
3.12567	13
3.12933	13
3.13300	14
3.13667	14
3.14033	14
3.14400	14
3.14767	14
3.15133	15
3.15500	15
3.15867	15
3.16233	15
3.16600	16
3.16967	16
3.17333	16
3.17700	16
3.18067	16
3.18433	16
3.18800	17
3.19167	17
3.19533	17
3.19900	17
3.20267	18
3.20633	18
3.21000	18
3.21367	19
3.21733	19
3.22100	20
3.22467	20
3.22833	20
3.23200	21
3.23567	21
3.23933	21
3.24300	21
3.24667	21
3.25033	21
3.25400	21
3.25767	22
3.26133	22
3.26500	22
3.26867	22
3.27233	22
3.27600	23
3.27967	23
3.28333	24
3.28700	24
3.29067	25
3.29433	25
3.29800	25
3.30167	25
3.30533	25
3.30900	26
3.31267	25
3.31633	26
3.32000	26
3.32367	26
3.32733	26
3.33100	26
3.33467	26
3.33833	26
3.34200	26
3.34567	25
3.34933	25
3.35300	25
3.35667	25
3.36033	25
3.36400	25
3.36767	26
3.37133	26
3.37500	26
3.37867	26
3.38233	26
3.38600	26
3.38967	26
3.39333	26
3.39700	26
3.40067	26
3.40433	26
3.40800	26
3.41167	26
3.41533	26
3.41900	26
3.42267	26
3.42633	26
3.43000	26
3.43367	26
3.43733	26
3.44100	26
3.44467	26
3.44833	25
3.45200	25
3.45567	26
3.45933	26
3.46300	26
3.46667	26
3.47033	26
3.47400	26
3.47767	26
3.48133	26
3.48500	26
3.48867	26
3.49233	26
3.49600	26
3.49967	26
3.50333	26
3.50700	26
3.51067	26
3.51433	26
3.51800	26
3.52167	26
3.52533	26
3.52900	26
3.53267	26
3.53633	26
3.54000	26
3.54367	26
3.54733	26
3.55100	26
3.55467	26
3.55833	26
3.56200	26
3.56567	26
3.56933	26
3.57300	26
3.57667	26
3.58033	26
3.58400	26
3.58767	26
3.59133	26
3.59500	26
3.59867	26
3.60233	26
3.60600	25
3.60967	25
3.61333	25
3.61700	25
3.62067	25
3.62433	25
3.62800	25
3.63167	25
3.63533	25
3.63900	25
3.64267	25
3.64633	25
3.65000	25
3.65367	25
3.65733	25
3.66100	26
3.66467	26
3.66833	26
3.67200	26
3.67567	26
3.67933	26
3.68300	26
3.68667	26
3.69033	26
3.69400	26
3.69767	26
3.70133	26
3.70500	26
3.70867	26
3.71233	26
3.71600	26
3.71967	26
3.72333	26
3.72700	26
3.73067	26
3.73433	26
3.73800	26
3.74167	26
3.74533	26
3.74900	26
3.75267	26
3.75633	26
3.76000	26
3.76367	26
3.76733	25
3.77100	25
3.77467	25
3.77833	25
3.78200	25
3.78567	25
3.78933	25
3.79300	25
3.79667	26
3.80033	26
3.80400	26
3.80767	26
3.81133	26
3.81500	26
3.81867	26
3.82233	26
3.82600	27
3.82967	27
3.83333	26
3.83700	26
3.84067	26
3.84433	26
3.84800	26
3.85167	26
3.85533	26
3.85900	26
3.86267	26
3.86633	26
3.87000	26
3.87367	26
3.87733	26
3.88100	25
3.88467	25
3.88833	25
3.89200	25
3.89567	25
3.89933	25
3.90300	25
3.90667	25
3.91033	25
3.91400	25
3.91767	26
3.92133	26
3.92500	26
3.92867	26
3.93233	26
3.93600	26
3.93967	25
3.94333	25
3.94700	25
3.95067	25
3.95433	25
3.95800	25
3.96167	25
3.96533	26
3.96900	26
3.97267	26
3.97633	26
3.98000	26
3.98367	26
3.98733	26
3.99100	26
3.99467	26
3.99833	26

[Chromatogram (Ch3)]
Interval(msec)	220
# of Points	1091
Start Time(min)	0.002
End Time(min)	3.998
R.Time (min)	Intensity
0.00167	-0
0.00533	-1
0.00900	-2
0.01267	-5
0.01633	-5
0.02000	-4
0.02367	-2
0.02733	-1
0.03100	-1
0.03467	-2
0.03833	-1
0.04200	-1
0.04567	-3
0.04933	-3
0.05300	-3
0.05667	-2
0.06033	-1
0.06400	-1
0.06767	-2
0.07133	-2
0.07500	-1
0.07867	0
0.08233	-1
0.08600	-0
0.08967	3
0.09333	3
0.09700	3
0.10067	2
0.10433	3
0.10800	3
0.11167	3
0.11533	4
0.11900	2
0.12267	-1
0.12633	-2
0.13000	-1
0.13367	1
0.13733	4
0.14100	6
0.14467	6
0.14833	6
0.15200	5
0.15567	3
0.15933	2
0.16300	1
0.16667	4
0.17033	7
0.17400	7
0.17767	7
0.18133	6
0.18500	3
0.18867	4
0.19233	5
0.19600	4
0.19967	5
0.20333	8
0.20700	8
0.21067	8
0.21433	9
0.21800	9
0.22167	10
0.22533	12
0.22900	13
0.23267	12
0.23633	12
0.24000	12
0.24367	11
0.24733	10
0.25100	9
0.25467	9
0.25833	9
0.26200	8
0.26567	8
0.26933	7
0.27300	9
0.27667	11
0.28033	10
0.28400	7
0.28767	6
0.29133	7
0.29500	8
0.29867	8
0.30233	10
0.30600	12
0.30967	13
0.31333	14
0.31700	13
0.32067	13
0.32433	11
0.32800	8
0.33167	5
0.33533	3
0.33900	5
0.34267	8
0.34633	10
0.35000	12
0.35367	14
0.35733	14
0.36100	13
0.36467	11
0.36833	14
0.37200	14
0.37567	11
0.37933	9
0.38300	7
0.38667	7
0.39033	9
0.39400	10
0.39767	9
0.40133	10
0.40500	11
0.40867	14
0.41233	15
0.41600	15
0.41967	15
0.42333	15
0.42700	13
0.43067	14
0.43433	14
0.43800	14
0.44167	12
0.44533	11
0.44900	12
0.45267	14
0.45633	16
0.46000	18
0.46367	19
0.46733	18
0.47100	16
0.47467	15
0.47833	14
0.48200	16
0.48567	17
0.48933	19
0.49300	21
0.49667	22
0.50033	22
0.50400	19
0.50767	19
0.51133	18
0.51500	16
0.51867	15
0.52233	14
0.52600	12
0.52967	11
0.53333	12
0.53700	13
0.54067	11
0.54433	11
0.54800	12
0.55167	12
0.55533	12
0.55900	14
0.56267	17
0.56633	19
0.57000	18
0.57367	17
0.57733	17
0.58100	17
0.58467	17
0.58833	17
0.59200	17
0.59567	15
0.59933	16
0.60300	16
0.60667	18
0.61033	20
0.61400	20
0.61767	22
0.62133	22
0.62500	21
0.62867	20
0.63233	20
0.63600	21
0.63967	21
0.64333	22
0.64700	24
0.65067	23
0.65433	22
0.65800	22
0.66167	20
0.66533	21
0.66900	22
0.67267	21
0.67633	21
0.68000	18
0.68367	17
0.68733	17
0.69100	18
0.69467	20
0.69833	21
0.70200	22
0.70567	22
0.70933	23
0.71300	22
0.71667	20
0.72033	20
0.72400	18
0.72767	18
0.73133	17
0.73500	15
0.73867	14
0.74233	15
0.74600	17
0.74967	18
0.75333	19
0.75700	22
0.76067	21
0.76433	20
0.76800	20
0.77167	19
0.77533	18
0.77900	17
0.78267	18
0.78633	19
0.79000	21
0.79367	22
0.79733	22
0.80100	23
0.80467	24
0.80833	23
0.81200	21
0.81567	23
0.81933	25
0.82300	24
0.82667	23
0.83033	22
0.83400	23
0.83767	26
0.84133	27
0.84500	28
0.84867	28
0.85233	28
0.85600	28
0.85967	30
0.86333	28
0.86700	25
0.87067	24
0.87433	23
0.87800	23
0.88167	23
0.88533	21
0.88900	23
0.89267	26
0.89633	27
0.90000	26
0.90367	26
0.90733	26
0.91100	26
0.91467	26
0.91833	27
0.92200	25
0.92567	24
0.92933	25
0.93300	27
0.93667	28
0.94033	28
0.94400	27
0.94767	28
0.95133	27
0.95500	25
0.95867	23
0.96233	22
0.96600	23
0.96967	24
0.97333	24
0.97700	23
0.98067	22
0.98433	21
0.98800	21
0.99167	24
0.99533	25
0.99900	25
1.00267	25
1.00633	28
1.01000	28
1.01367	26
1.01733	25
1.02100	23
1.02467	23
1.02833	23
1.03200	22
1.03567	22
1.03933	23
1.04300	24
1.04667	25
1.05033	24
1.05400	24
1.05767	27
1.06133	29
1.06500	29
1.06867	27
1.07233	25
1.07600	24
1.07967	23
1.08333	21
1.08700	20
1.09067	20
1.09433	20
1.09800	22
1.10167	25
1.10533	25
1.10900	25
1.11267	24
1.11633	22
1.12000	21
1.12367	21
1.12733	20
1.13100	19
1.13467	19
1.13833	20
1.14200	20
1.14567	21
1.14933	24
1.15300	25
1.15667	25
1.16033	27
1.16400	27
1.16767	26
1.17133	26
1.17500	27
1.17867	25
1.18233	22
1.18600	21
1.18967	20
1.19333	22
1.19700	23
1.20067	23
1.20433	21
1.20800	22
1.21167	24
1.21533	25
1.21900	24
1.22267	22
1.22633	21
1.23000	21
1.23367	24
1.23733	29
1.24100	31
1.24467	30
1.24833	29
1.25200	28
1.25567	25
1.25933	23
1.26300	22
1.26667	21
1.27033	21
1.27400	22
1.27767	24
1.28133	25
1.28500	27
1.28867	27
1.29233	25
1.29600	25
1.29967	25
1.30333	24
1.30700	24
1.31067	24
1.31433	24
1.31800	23
1.32167	22
1.32533	22
1.32900	23
1.33267	24
1.33633	24
1.34000	23
1.34367	23
1.34733	21
1.35100	18
1.35467	17
1.35833	18
1.36200	20
1.36567	23
1.36933	24
1.37300	23
1.37667	24
1.38033	25
1.38400	26
1.38767	27
1.39133	25
1.39500	24
1.39867	24
1.40233	24
1.40600	24
1.40967	24
1.41333	24
1.41700	25
1.42067	25
1.42433	25
1.42800	26
1.43167	25
1.43533	25
1.43900	26
1.44267	26
1.44633	26
1.45000	26
1.45367	26
1.45733	24
1.46100	24
1.46467	26
1.46833	28
1.47200	28
1.47567	28
1.47933	29
1.48300	28
1.48667	28
1.49033	28
1.49400	26
1.49767	23
1.50133	22
1.50500	22
1.50867	22
1.51233	22
1.51600	21
1.51967	21
1.52333	21
1.52700	20
1.53067	19
1.53433	21
1.53800	25
1.54167	28
1.54533	29
1.54900	29
1.55267	27
1.55633	25
1.56000	26
1.56367	25
1.56733	24
1.57100	26
1.57467	30
1.57833	32
1.58200	31
1.58567	27
1.58933	22
1.59300	21
1.59667	21
1.60033	22
1.60400	23
1.60767	26
1.61133	29
1.61500	31
1.61867	31
1.62233	30
1.62600	28
1.62967	27
1.63333	29
1.63700	31
1.64067	33
1.64433	36
1.64800	37
1.65167	36
1.65533	38
1.65900	37
1.66267	35
1.66633	34
1.67000	34
1.67367	34
1.67733	33
1.68100	33
1.68467	33
1.68833	33
1.69200	32
1.69567	33
1.69933	35
1.70300	39
1.70667	41
1.71033	41
1.71400	39
1.71767	39
1.72133	38
1.72500	37
1.72867	36
1.73233	40
1.73600	41
1.73967	40
1.74333	40
1.74700	42
1.75067	43
1.75433	44
1.75800	46
1.76167	48
1.76533	49
1.76900	47
1.77267	46
1.77633	43
1.78000	41
1.78367	42
1.78733	44
1.79100	44
1.79467	43
1.79833	41
1.80200	43
1.80567	45
1.80933	46
1.81300	48
1.81667	48
1.82033	49
1.82400	49
1.82767	51
1.83133	51
1.83500	50
1.83867	50
1.84233	49
1.84600	50
1.84967	50
1.85333	49
1.85700	48
1.86067	49
1.86433	52
1.86800	55
1.87167	56
1.87533	59
1.87900	60
1.88267	58
1.88633	58
1.89000	59
1.89367	59
1.89733	60
1.90100	61
1.90467	61
1.90833	63
1.91200	64
1.91567	66
1.91933	70
1.92300	71
1.92667	71
1.93033	70
1.93400	70
1.93767	71
1.94133	70
1.94500	70
1.94867	70
1.95233	68
1.95600	68
1.95967	67
1.96333	68
1.96700	69
1.97067	70
1.97433	74
1.97800	78
1.98167	79
1.98533	78
1.98900	77
1.99267	78
1.99633	79
2.00000	83
2.00367	87
2.00733	90
2.01100	92
2.01467	89
2.01833	86
2.02200	85
2.02567	87
2.02933	90
2.03300	91
2.03667	91
2.04033	92
2.04400	93
2.04767	95
2.05133	97
2.05500	100
2.05867	102
2.06233	99
2.06600	99
2.06967	99
2.07333	99
2.07700	100
2.08067	104
2.08433	108
2.08800	111
2.09167	112
2.09533	113
2.09900	113
2.10267	111
2.10633	108
2.11000	109
2.11367	111
2.11733	112
2.12100	113
2.12467	114
2.12833	114
2.13200	116
2.13567	117
2.13933	116
2.14300	116
2.14667	116
2.15033	119
2.15400	119
2.15767	119
2.16133	119
2.16500	120
2.16867	119
2.17233	117
2.17600	117
2.17967	118
2.18333	120
2.18700	123
2.19067	124
2.19433	126
2.19800	130
2.20167	131
2.20533	129
2.20900	128
2.21267	128
2.21633	129
2.22000	132
2.22367	135
2.22733	138
2.23100	139
2.23467	142
2.23833	144
2.24200	145
2.24567	146
2.24933	145
2.25300	143
2.25667	141
2.26033	141
2.26400	143
2.26767	143
2.27133	142
2.27500	142
2.27867	143
2.28233	144
2.28600	144
2.28967	144
2.29333	147
2.29700	151
2.30067	155
2.30433	158
2.30800	157
2.31167	158
2.31533	158
2.31900	158
2.32267	159
2.32633	160
2.33000	161
2.33367	163
2.33733	164
2.34100	165
2.34467	163
2.34833	163
2.35200	164
2.35567	165
2.35933	166
2.36300	165
2.36667	162
2.37033	158
2.37400	156
2.37767	156
2.38133	160
2.38500	160
2.38867	158
2.39233	155
2.39600	156
2.39967	158
2.40333	160
2.40700	162
2.41067	163
2.41433	161
2.41800	159
2.42167	159
2.42533	161
2.42900	161
2.43267	161
2.43633	160
2.44000	163
2.44367	199
2.44733	268
2.45100	337
2.45467	385
2.45833	402
2.46200	397
2.46567	389
2.46933	381
2.47300	368
2.47667	347
2.48033	320
2.48400	295
2.48767	270
2.49133	251
2.49500	238
2.49867	231
2.50233	230
2.50600	235
2.50967	241
2.51333	245
2.51700	246
2.52067	243
2.52433	235
2.52800	225
2.53167	215
2.53533	204
2.53900	195
2.54267	187
2.54633	179
2.55000	174
2.55367	169
2.55733	166
2.56100	164
2.56467	162
2.56833	161
2.57200	163
2.57567	165
2.57933	167
2.58300	171
2.58667	178
2.59033	184
2.59400	189
2.59767	194
2.60133	200
2.60500	205
2.60867	210
2.61233	215
2.61600	214
2.61967	210
2.62333	202
2.62700	194
2.63067	184
2.63433	175
2.63800	166
2.64167	156
2.64533	149
2.64900	140
2.65267	129
2.65633	124
2.66000	120
2.66367	118
2.66733	118
2.67100	117
2.67467	116
2.67833	113
2.68200	111
2.68567	109
2.68933	109
2.69300	113
2.69667	116
2.70033	118
2.70400	122
2.70767	125
2.71133	128
2.71500	130
2.71867	132
2.72233	132
2.72600	132
2.72967	132
2.73333	134
2.73700	137
2.74067	139
2.74433	139
2.74800	139
2.75167	142
2.75533	147
2.75900	149
2.76267	151
2.76633	154
2.77000	157
2.77367	158
2.77733	159
2.78100	160
2.78467	162
2.78833	165
2.79200	169
2.79567	172
2.79933	175
2.80300	176
2.80667	177
2.81033	178
2.81400	180
2.81767	180
2.82133	183
2.82500	186
2.82867	188
2.83233	195
2.83600	214
2.83967	256
2.84333	341
2.84700	489
2.85067	721
2.85433	1049
2.85800	1473
2.86167	1979
2.86533	2532
2.86900	3088
2.87267	3603
2.87633	4033
2.88000	4346
2.88367	4526
2.88733	4569
2.89100	4488
2.89467	4310
2.89833	4061
2.90200	3764
2.90567	3446
2.90933	3124
2.91300	2807
2.91667	2506
2.92033	2224
2.92400	1964
2.92767	1732
2.93133	1526
2.93500	1345
2.93867	1190
2.94233	1054
2.94600	934
2.94967	829
2.95333	737
2.95700	657
2.96067	589
2.96433	528
2.96800	475
2.97167	431
2.97533	393
2.97900	363
2.98267	337
2.98633	314
2.99000	293
2.99367	275
2.99733	258
3.00100	241
3.00467	232
3.00833	225
3.01200	218
3.01567	211
3.01933	206
3.02300	200
3.02667	194
3.03033	191
3.03400	188
3.03767	185
3.04133	184
3.04500	185
3.04867	185
3.05233	183
3.05600	182
3.05967	182
3.06333	181
3.06700	179
3.07067	179
3.07433	179
3.07800	182
3.08167	184
3.08533	183
3.08900	177
3.09267	168
3.09633	164
3.10000	167
3.10367	176
3.10733	191
3.11100	206
3.11467	222
3.11833	243
3.12200	270
3.12567	301
3.12933	335
3.13300	371
3.13667	405
3.14033	435
3.14400	464
3.14767	488
3.15133	509
3.15500	528
3.15867	544
3.16233	559
3.16600	570
3.16967	580
3.17333	590
3.17700	602
3.18067	615
3.18433	625
3.18800	631
3.19167	637
3.19533	643
3.19900	643
3.20267	645
3.20633	650
3.21000	656
3.21367	662
3.21733	665
3.22100	667
3.22467	671
3.22833	673
3.23200	674
3.23567	677
3.23933	681
3.24300	681
3.24667	681
3.25033	682
3.25400	683
3.25767	683
3.26133	683
3.26500	683
3.26867	683
3.27233	682
3.27600	681
3.27967	681
3.28333	680
3.28700	677
3.29067	673
3.29433	669
3.29800	664
3.30167	660
3.30533	660
3.30900	658
3.31267	656
3.31633	653
3.32000	650
3.32367	646
3.32733	645
3.33100	642
3.33467	636
3.33833	634
3.34200	632
3.34567	632
3.34933	633
3.35300	633
3.35667	630
3.36033	627
3.36400	624
3.36767	621
3.37133	620
3.37500	617
3.37867	613
3.38233	612
3.38600	612
3.38967	610
3.39333	607
3.39700	605
3.40067	605
3.40433	607
3.40800	607
3.41167	606
3.41533	604
3.41900	602
3.42267	600
3.42633	598
3.43000	595
3.43367	591
3.43733	587
3.44100	585
3.44467	583
3.44833	583
3.45200	583
3.45567	582
3.45933	579
3.46300	576
3.46667	575
3.47033	573
3.47400	572
3.47767	572
3.48133	571
3.48500	569
3.48867	567
3.49233	564
3.49600	561
3.49967	558
3.50333	558
3.50700	556
3.51067	553
3.51433	551
3.51800	550
3.52167	549
3.52533	548
3.52900	548
3.53267	548
3.53633	546
3.54000	545
3.54367	543
3.54733	542
3.55100	541
3.55467	538
3.55833	534
3.56200	531
3.56567	530
3.56933	528
3.57300	527
3.57667	526
3.58033	525
3.58400	523
3.58767	520
3.59133	518
3.59500	519
3.59867	519
3.60233	517
3.60600	515
3.60967	512
3.61333	511
3.61700	513
3.62067	516
3.62433	515
3.62800	514
3.63167	513
3.63533	512
3.63900	510
3.64267	509
3.64633	508
3.65000	507
3.65367	504
3.65733	500
3.66100	499
3.66467	501
3.66833	501
3.67200	500
3.67567	499
3.67933	498
3.68300	497
3.68667	497
3.69033	496
3.69400	494
3.69767	493
3.70133	493
3.70500	492
3.70867	489
3.71233	487
3.71600	488
3.71967	488
3.72333	487
3.72700	487
3.73067	484
3.73433	480
3.73800	477
3.74167	475
3.74533	474
3.74900	476
3.75267	476
3.75633	476
3.76000	477
3.76367	478
3.76733	482
3.77100	483
3.77467	483
3.77833	481
3.78200	479
3.78567	478
3.78933	476
3.79300	475
3.79667	473
3.80033	470
3.80400	468
3.80767	466
3.81133	467
3.81500	467
3.81867	465
3.82233	465
3.82600	465
3.82967	465
3.83333	465
3.83700	463
3.84067	461
3.84433	457
3.84800	455
3.85167	454
3.85533	454
3.85900	455
3.86267	454
3.86633	455
3.87000	455
3.87367	456
3.87733	456
3.88100	454
3.88467	454
3.88833	453
3.89200	453
3.89567	455
3.89933	457
3.90300	457
3.90667	455
3.91033	450
3.91400	448
3.91767	447
3.92133	445
3.92500	443
3.92867	443
3.93233	443
3.93600	449
3.93967	451
3.94333	448
3.94700	445
3.95067	443
3.95433	442
3.95800	438
3.96167	438
3.96533	439
3.96900	439
3.97267	439
3.97633	437
3.98000	435
3.98367	433
3.98733	431
3.99100	429
3.99467	429
3.99833	427

[Status Trace (Column Oven Temperature)]
Interval(msec)	1000
# of Points	240
Start Time(min)	0.004
End Time(min)	3.987
Intensity Units	
Intensity Multiplier	1
R.Time (min)	Intensity
0.00398	35.06
0.02065	35.06
0.03732	35.06
0.05398	35.05
0.07065	35.06
0.08732	35.06
0.10398	35.05
0.12065	35.04
0.13732	35.03
0.15398	35.02
0.17065	35.03
0.18732	35.03
0.20398	35.04
0.22065	35.05
0.23732	35.05
0.25398	35.07
0.27065	35.07
0.28732	35.06
0.30398	35.04
0.32065	35.03
0.33732	35.01
0.35398	35.00
0.37065	34.99
0.38732	35.00
0.40398	34.99
0.42065	34.98
0.43732	34.99
0.45398	35.00
0.47065	35.00
0.48732	35.00
0.50398	34.99
0.52065	34.99
0.53732	34.99
0.55398	34.98
0.57065	34.98
0.58732	34.98
0.60398	34.97
0.62065	34.97
0.63732	34.97
0.65398	34.96
0.67065	34.97
0.68732	34.99
0.70398	35.00
0.72065	35.01
0.73732	35.01
0.75398	35.01
0.77065	35.00
0.78732	35.00
0.80398	35.00
0.82065	35.00
0.83732	35.00
0.85398	35.00
0.87065	34.99
0.88732	35.00
0.90398	34.98
0.92065	34.97
0.93732	34.99
0.95398	35.00
0.97065	35.01
0.98732	35.02
1.00398	35.04
1.02065	35.04
1.03732	35.04
1.05398	35.04
1.07065	35.02
1.08732	35.00
1.10398	34.99
1.12065	34.98
1.13732	34.97
1.15398	34.98
1.17065	34.97
1.18732	34.98
1.20398	35.01
1.22065	35.03
1.23732	35.05
1.25398	35.05
1.27065	35.05
1.28732	35.04
1.30398	35.03
1.32065	35.03
1.33732	35.03
1.35398	35.03
1.37065	35.03
1.38732	35.02
1.40398	35.02
1.42065	35.01
1.43732	35.01
1.45398	35.01
1.47065	35.00
1.48732	34.99
1.50398	34.98
1.52065	34.98
1.53732	34.97
1.55398	34.97
1.57065	34.97
1.58732	34.99
1.60398	35.03
1.62065	35.14
1.63732	35.31
1.65398	35.54
1.67065	35.87
1.68732	36.24
1.70398	36.58
1.72065	36.93
1.73732	37.26
1.75398	37.58
1.77065	37.92
1.78732	38.26
1.80398	38.58
1.82065	38.90
1.83732	39.25
1.85398	39.57
1.87065	39.91
1.88732	40.24
1.90398	40.56
1.92065	40.87
1.93732	41.21
1.95398	41.52
1.97065	41.86
1.98732	42.18
2.00398	42.51
2.02065	42.83
2.03732	43.15
2.05398	43.48
2.07065	43.79
2.08732	44.13
2.10398	44.44
2.12065	44.78
2.13732	45.10
2.15398	45.43
2.17065	45.75
2.18732	46.06
2.20398	46.42
2.22065	46.75
2.23732	47.06
2.25398	47.41
2.27065	47.74
2.28732	48.05
2.30398	48.44
2.32065	48.77
2.33732	49.09
2.35398	49.39
2.37065	49.57
2.38732	49.65
2.40398	49.63
2.42065	49.64
2.43732	49.66
2.45398	49.66
2.47065	49.67
2.48732	49.68
2.50398	49.69
2.52065	49.72
2.53732	49.73
2.55398	49.75
2.57065	49.78
2.58732	49.79
2.60398	49.82
2.62065	49.82
2.63732	49.83
2.65398	49.83
2.67065	49.83
2.68732	49.85
2.70398	49.86
2.72065	49.86
2.73732	49.84
2.75398	49.87
2.77065	49.88
2.78732	49.89
2.80398	49.87
2.82065	49.86
2.83732	49.86
2.85398	49.85
2.87065	49.85
2.88732	49.87
2.90398	49.88
2.92065	49.89
2.93732	49.91
2.95398	49.93
2.97065	49.95
2.98732	49.97
3.00398	49.98
3.02065	49.99
3.03732	49.99
3.05398	50.00
3.07065	50.01
3.08732	50.02
3.10398	50.03
3.12065	50.04
3.13732	50.05
3.15398	50.06
3.17065	50.08
3.18732	50.09
3.20398	50.09
3.22065	50.09
3.23732	50.10
3.25398	50.11
3.27065	50.11
3.28732	50.10
3.30398	50.08
3.32065	50.07
3.33732	50.06
3.35398	50.06
3.37065	50.05
3.38732	50.05
3.40398	50.05
3.42065	50.06
3.43732	50.06
3.45398	50.05
3.47065	50.05
3.48732	50.04
3.50398	50.05
3.52065	50.05
3.53732	50.04
3.55398	50.04
3.57065	50.04
3.58732	50.05
3.60398	50.05
3.62065	50.05
3.63732	50.05
3.65398	50.05
3.67065	50.05
3.68732	50.05
3.70398	50.06
3.72065	50.06
3.73732	50.06
3.75398	50.06
3.77065	50.06
3.78732	50.06
3.80398	50.07
3.82065	50.07
3.83732	50.07
3.85398	50.07
3.87065	50.08
3.88732	50.07
3.90398	50.07
3.92065	50.07
3.93732	50.07
3.95398	50.07
3.97065	50.05
3.98732	50.05

[Status Trace (Injection Unit Temperature)]
Interval(msec)	1000
# of Points	240
Start Time(min)	0.004
End Time(min)	3.987
Intensity Units	
Intensity Multiplier	1
R.Time (min)	Intensity
0.00398	99.98
0.02065	99.98
0.03732	99.99
0.05398	99.98
0.07065	99.99
0.08732	99.99
0.10398	99.98
0.12065	99.99
0.13732	99.99
0.15398	99.99
0.17065	99.99
0.18732	99.98
0.20398	99.98
0.22065	99.98
0.23732	99.98
0.25398	99.99
0.27065	99.99
0.28732	99.98
0.30398	99.98
0.32065	99.98
0.33732	99.98
0.35398	99.99
0.37065	99.98
0.38732	99.98
0.40398	99.98
0.42065	99.98
0.43732	99.98
0.45398	99.98
0.47065	99.98
0.48732	99.98
0.50398	99.97
0.52065	99.98
0.53732	99.98
0.55398	99.98
0.57065	99.98
0.58732	99.98
0.60398	99.98
0.62065	99.98
0.63732	99.98
0.65398	99.98
0.67065	99.98
0.68732	99.98
0.70398	99.97
0.72065	99.98
0.73732	99.98
0.75398	99.98
0.77065	99.97
0.78732	99.98
0.80398	99.98
0.82065	99.98
0.83732	99.98
0.85398	99.98
0.87065	99.98
0.88732	99.98
0.90398	99.98
0.92065	99.98
0.93732	99.98
0.95398	99.98
0.97065	99.98
0.98732	99.98
1.00398	99.98
1.02065	99.98
1.03732	99.98
1.05398	99.97
1.07065	99.98
1.08732	99.98
1.10398	99.98
1.12065	99.98
1.13732	99.98
1.15398	99.98
1.17065	99.98
1.18732	99.98
1.20398	99.98
1.22065	99.98
1.23732	99.98
1.25398	99.98
1.27065	99.98
1.28732	99.99
1.30398	99.99
1.32065	99.97
1.33732	99.98
1.35398	99.99
1.37065	99.98
1.38732	99.99
1.40398	99.99
1.42065	99.99
1.43732	99.99
1.45398	99.99
1.47065	99.99
1.48732	99.99
1.50398	99.99
1.52065	99.99
1.53732	99.99
1.55398	99.99
1.57065	99.99
1.58732	99.99
1.60398	99.99
1.62065	99.99
1.63732	99.99
1.65398	99.99
1.67065	99.99
1.68732	99.99
1.70398	99.99
1.72065	99.99
1.73732	100.00
1.75398	100.00
1.77065	99.99
1.78732	99.99
1.80398	99.99
1.82065	100.00
1.83732	99.99
1.85398	99.99
1.87065	99.99
1.88732	99.99
1.90398	99.99
1.92065	99.99
1.93732	99.99
1.95398	99.99
1.97065	99.98
1.98732	99.98
2.00398	99.98
2.02065	99.98
2.03732	99.98
2.05398	99.98
2.07065	99.98
2.08732	99.98
2.10398	99.98
2.12065	99.98
2.13732	99.97
2.15398	99.97
2.17065	99.97
2.18732	99.97
2.20398	99.96
2.22065	99.97
2.23732	99.96
2.25398	99.96
2.27065	99.96
2.28732	99.96
2.30398	99.96
2.32065	99.96
2.33732	99.96
2.35398	99.96
2.37065	99.96
2.38732	99.96
2.40398	99.96
2.42065	99.96
2.43732	99.96
2.45398	99.96
2.47065	99.96
2.48732	99.96
2.50398	99.96
2.52065	99.95
2.53732	99.96
2.55398	99.96
2.57065	99.96
2.58732	99.96
2.60398	99.97
2.62065	99.96
2.63732	99.97
2.65398	99.97
2.67065	99.97
2.68732	99.97
2.70398	99.97
2.72065	99.98
2.73732	99.98
2.75398	99.98
2.77065	99.98
2.78732	99.98
2.80398	99.99
2.82065	99.98
2.83732	99.98
2.85398	99.99
2.87065	99.99
2.88732	99.99
2.90398	100.00
2.92065	100.00
2.93732	100.00
2.95398	100.00
2.97065	100.01
2.98732	100.01
3.00398	100.01
3.02065	100.01
3.03732	100.01
3.05398	100.02
3.07065	100.02
3.08732	100.02
3.10398	100.02
3.12065	100.02
3.13732	100.02
3.15398	100.02
3.17065	100.02
3.18732	100.02
3.20398	100.03
3.22065	100.03
3.23732	100.03
3.25398	100.03
3.27065	100.03
3.28732	100.03
3.30398	100.03
3.32065	100.04
3.33732	100.03
3.35398	100.04
3.37065	100.04
3.38732	100.04
3.40398	100.04
3.42065	100.04
3.43732	100.04
3.45398	100.04
3.47065	100.04
3.48732	100.04
3.50398	100.04
3.52065	100.04
3.53732	100.04
3.55398	100.05
3.57065	100.05
3.58732	100.05
3.60398	100.05
3.62065	100.05
3.63732	100.05
3.65398	100.05
3.67065	100.05
3.68732	100.04
3.70398	100.05
3.72065	100.05
3.73732	100.05
3.75398	100.05
3.77065	100.05
3.78732	100.05
3.80398	100.05
3.82065	100.05
3.83732	100.05
3.85398	100.05
3.87065	100.05
3.88732	100.05
3.90398	100.05
3.92065	100.05
3.93732	100.05
3.95398	100.05
3.97065	100.05
3.98732	100.05

[Status Trace (Carrier Gas Pressure)]
Interval(msec)	1000
# of Points	240
Start Time(min)	0.004
End Time(min)	3.987
Intensity Units	
Intensity Multiplier	1
R.Time (min)	Intensity
0.00398	58.00
0.02065	55.93
0.03732	56.56
0.05398	58.88
0.07065	59.65
0.08732	58.17
0.10398	57.98
0.12065	58.01
0.13732	58.01
0.15398	58.01
0.17065	58.00
0.18732	58.00
0.20398	58.00
0.22065	58.00
0.23732	58.00
0.25398	58.00
0.27065	58.00
0.28732	58.00
0.30398	58.00
0.32065	58.00
0.33732	58.00
0.35398	58.00
0.37065	58.00
0.38732	58.00
0.40398	58.00
0.42065	58.00
0.43732	58.00
0.45398	58.00
0.47065	58.00
0.48732	58.00
0.50398	58.00
0.52065	58.00
0.53732	58.00
0.55398	58.00
0.57065	58.00
0.58732	58.00
0.60398	58.00
0.62065	58.00
0.63732	58.00
0.65398	58.00
0.67065	58.00
0.68732	58.00
0.70398	58.00
0.72065	58.00
0.73732	58.00
0.75398	58.00
0.77065	58.00
0.78732	58.00
0.80398	58.00
0.82065	58.00
0.83732	58.00
0.85398	58.00
0.87065	58.00
0.88732	58.00
0.90398	58.00
0.92065	58.00
0.93732	58.00
0.95398	58.00
0.97065	58.00
0.98732	58.00
1.00398	58.00
1.02065	58.00
1.03732	58.00
1.05398	58.00
1.07065	58.00
1.08732	58.00
1.10398	58.00
1.12065	58.00
1.13732	58.00
1.15398	58.00
1.17065	58.00
1.18732	58.00
1.20398	58.00
1.22065	58.00
1.23732	58.00
1.25398	58.00
1.27065	58.00
1.28732	58.00
1.30398	58.00
1.32065	58.00
1.33732	58.00
1.35398	58.00
1.37065	58.00
1.38732	58.00
1.40398	58.00
1.42065	58.00
1.43732	58.00
1.45398	58.00
1.47065	58.00
1.48732	58.00
1.50398	58.00
1.52065	58.00
1.53732	58.00
1.55398	58.00
1.57065	58.00
1.58732	58.00
1.60398	58.00
1.62065	58.00
1.63732	58.00
1.65398	58.00
1.67065	58.01
1.68732	58.01
1.70398	58.00
1.72065	58.00
1.73732	58.00
1.75398	58.00
1.77065	58.00
1.78732	58.00
1.80398	58.00
1.82065	58.00
1.83732	58.00
1.85398	58.00
1.87065	58.00
1.88732	58.00
1.90398	58.00
1.92065	58.00
1.93732	58.00
1.95398	58.00
1.97065	58.00
1.98732	58.00
2.00398	58.00
2.02065	58.00
2.03732	58.00
2.05398	58.00
2.07065	58.00
2.08732	58.00
2.10398	58.00
2.12065	58.00
2.13732	58.00
2.15398	58.00
2.17065	58.00
2.18732	58.00
2.20398	58.00
2.22065	58.00
2.23732	58.00
2.25398	58.00
2.27065	58.00
2.28732	58.00
2.30398	58.00
2.32065	58.00
2.33732	58.00
2.35398	58.00
2.37065	58.00
2.38732	57.99
2.40398	57.99
2.42065	58.00
2.43732	58.00
2.45398	58.00
2.47065	58.00
2.48732	58.00
2.50398	57.98
2.52065	57.99
2.53732	57.99
2.55398	58.00
2.57065	58.00
2.58732	58.00
2.60398	58.00
2.62065	58.00
2.63732	58.00
2.65398	58.00
2.67065	58.00
2.68732	58.00
2.70398	58.00
2.72065	58.00
2.73732	58.00
2.75398	58.00
2.77065	58.00
2.78732	58.00
2.80398	58.00
2.82065	58.00
2.83732	58.00
2.85398	58.00
2.87065	58.00
2.88732	58.00
2.90398	58.00
2.92065	58.00
2.93732	58.00
2.95398	58.00
2.97065	58.00
2.98732	58.00
3.00398	58.00
3.02065	58.00
3.03732	58.00
3.05398	58.00
3.07065	58.00
3.08732	58.00
3.10398	58.00
3.12065	58.00
3.13732	58.00
3.15398	58.00
3.17065	58.00
3.18732	58.00
3.20398	58.00
3.22065	58.00
3.23732	58.00
3.25398	58.00
3.27065	58.00
3.28732	58.00
3.30398	58.00
3.32065	58.00
3.33732	58.00
3.35398	58.00
3.37065	58.00
3.38732	58.00
3.40398	58.00
3.42065	58.00
3.43732	58.00
3.45398	58.00
3.47065	58.00
3.48732	58.00
3.50398	58.00
3.52065	58.00
3.53732	58.00
3.55398	58.00
3.57065	58.00
3.58732	58.00
3.60398	58.00
3.62065	58.00
3.63732	58.00
3.65398	58.00
3.67065	58.00
3.68732	58.00
3.70398	58.00
3.72065	58.00
3.73732	58.00
3.75398	58.00
3.77065	58.00
3.78732	58.00
3.80398	58.00
3.82065	58.00
3.83732	58.00
3.85398	58.00
3.87065	58.00
3.88732	58.00
3.90398	58.00
3.92065	58.00
3.93732	58.00
3.95398	58.00
3.97065	58.00
3.98732	58.00

[Status Trace (Carrier Gas Flow)]
Interval(msec)	1000
# of Points	240
Start Time(min)	0.004
End Time(min)	3.987
Intensity Units	
Intensity Multiplier	1
R.Time (min)	Intensity
0.00398	34.52
0.02065	34.57
0.03732	34.54
0.05398	34.55
0.07065	34.49
0.08732	34.52
0.10398	34.52
0.12065	34.51
0.13732	34.53
0.15398	34.53
0.17065	34.52
0.18732	34.52
0.20398	34.52
0.22065	34.51
0.23732	34.52
0.25398	34.52
0.27065	34.53
0.28732	34.52
0.30398	34.52
0.32065	34.52
0.33732	34.52
0.35398	34.52
0.37065	34.51
0.38732	34.52
0.40398	34.52
0.42065	34.52
0.43732	34.52
0.45398	34.52
0.47065	34.52
0.48732	34.52
0.50398	34.52
0.52065	34.52
0.53732	34.52
0.55398	34.52
0.57065	34.52
0.58732	34.52
0.60398	34.52
0.62065	34.52
0.63732	34.52
0.65398	34.52
0.67065	34.52
0.68732	34.52
0.70398	34.52
0.72065	34.52
0.73732	34.52
0.75398	34.52
0.77065	34.52
0.78732	34.52
0.80398	34.52
0.82065	34.52
0.83732	34.51
0.85398	34.52
0.87065	34.52
0.88732	34.51
0.90398	34.52
0.92065	34.52
0.93732	34.52
0.95398	34.52
0.97065	34.52
0.98732	34.52
1.00398	34.52
1.02065	34.52
1.03732	34.52
1.05398	34.52
1.07065	34.52
1.08732	34.52
1.10398	34.53
1.12065	34.52
1.13732	34.51
1.15398	34.52
1.17065	34.52
1.18732	34.52
1.20398	34.51
1.22065	34.52
1.23732	34.52
1.25398	34.52
1.27065	34.51
1.28732	34.52
1.30398	34.52
1.32065	34.53
1.33732	34.51
1.35398	34.52
1.37065	34.52
1.38732	34.52
1.40398	34.52
1.42065	34.51
1.43732	34.51
1.45398	34.51
1.47065	34.52
1.48732	34.51
1.50398	34.52
1.52065	34.52
1.53732	34.53
1.55398	34.52
1.57065	34.51
1.58732	34.51
1.60398	34.52
1.62065	34.52
1.63732	34.52
1.65398	34.51
1.67065	34.52
1.68732	34.52
1.70398	34.51
1.72065	34.52
1.73732	34.52
1.75398	34.52
1.77065	34.52
1.78732	34.52
1.80398	34.52
1.82065	34.52
1.83732	34.52
1.85398	34.51
1.87065	34.52
1.88732	34.51
1.90398	34.52
1.92065	34.51
1.93732	34.52
1.95398	34.51
1.97065	34.51
1.98732	34.52
2.00398	34.52
2.02065	34.52
2.03732	34.52
2.05398	34.52
2.07065	34.52
2.08732	34.52
2.10398	34.52
2.12065	34.52
2.13732	34.52
2.15398	34.52
2.17065	34.51
2.18732	34.52
2.20398	34.52
2.22065	34.51
2.23732	34.52
2.25398	34.52
2.27065	34.52
2.28732	34.52
2.30398	34.52
2.32065	34.52
2.33732	34.51
2.35398	34.52
2.37065	34.52
2.38732	34.52
2.40398	34.52
2.42065	34.52
2.43732	34.52
2.45398	34.52
2.47065	34.52
2.48732	34.53
2.50398	34.62
2.52065	34.52
2.53732	34.52
2.55398	34.52
2.57065	34.52
2.58732	34.52
2.60398	34.51
2.62065	34.52
2.63732	34.51
2.65398	34.52
2.67065	34.52
2.68732	34.52
2.70398	34.52
2.72065	34.52
2.73732	34.53
2.75398	34.52
2.77065	34.52
2.78732	34.52
2.80398	34.52
2.82065	34.53
2.83732	34.52
2.85398	34.53
2.87065	34.51
2.88732	34.51
2.90398	34.51
2.92065	34.52
2.93732	34.53
2.95398	34.53
2.97065	34.52
2.98732	34.52
3.00398	34.52
3.02065	34.52
3.03732	34.51
3.05398	34.51
3.07065	34.51
3.08732	34.51
3.10398	34.52
3.12065	34.51
3.13732	34.51
3.15398	34.52
3.17065	34.52
3.18732	34.52
3.20398	34.51
3.22065	34.51
3.23732	34.51
3.25398	34.52
3.27065	34.52
3.28732	34.52
3.30398	34.52
3.32065	34.51
3.33732	34.51
3.35398	34.52
3.37065	34.52
3.38732	34.52
3.40398	34.51
3.42065	34.51
3.43732	34.52
3.45398	34.52
3.47065	34.51
3.48732	34.52
3.50398	34.52
3.52065	34.52
3.53732	34.52
3.55398	34.52
3.57065	34.52
3.58732	34.52
3.60398	34.52
3.62065	34.52
3.63732	34.52
3.65398	34.52
3.67065	34.51
3.68732	34.52
3.70398	34.52
3.72065	34.52
3.73732	34.52
3.75398	34.52
3.77065	34.52
3.78732	34.52
3.80398	34.52
3.82065	34.52
3.83732	34.52
3.85398	34.51
3.87065	34.52
3.88732	34.52
3.90398	34.52
3.92065	34.52
3.93732	34.52
3.95398	34.52
3.97065	34.52
3.98732	34.52

[Status Trace (Column Flow)]
Interval(msec)	1000
# of Points	240
Start Time(min)	0.004
End Time(min)	3.987
Intensity Units	
Intensity Multiplier	1
R.Time (min)	Intensity
0.00398	5.51
0.02065	5.27
0.03732	5.35
0.05398	5.62
0.07065	5.71
0.08732	5.53
0.10398	5.51
0.12065	5.52
0.13732	5.52
0.15398	5.52
0.17065	5.52
0.18732	5.52
0.20398	5.51
0.22065	5.51
0.23732	5.51
0.25398	5.51
0.27065	5.51
0.28732	5.51
0.30398	5.51
0.32065	5.52
0.33732	5.52
0.35398	5.52
0.37065	5.52
0.38732	5.52
0.40398	5.52
0.42065	5.52
0.43732	5.52
0.45398	5.52
0.47065	5.52
0.48732	5.52
0.50398	5.52
0.52065	5.52
0.53732	5.52
0.55398	5.52
0.57065	5.52
0.58732	5.52
0.60398	5.52
0.62065	5.52
0.63732	5.52
0.65398	5.52
0.67065	5.52
0.68732	5.52
0.70398	5.52
0.72065	5.52
0.73732	5.52
0.75398	5.52
0.77065	5.52
0.78732	5.52
0.80398	5.52
0.82065	5.52
0.83732	5.52
0.85398	5.52
0.87065	5.52
0.88732	5.52
0.90398	5.52
0.92065	5.52
0.93732	5.52
0.95398	5.52
0.97065	5.52
0.98732	5.52
1.00398	5.51
1.02065	5.51
1.03732	5.51
1.05398	5.51
1.07065	5.52
1.08732	5.52
1.10398	5.52
1.12065	5.52
1.13732	5.52
1.15398	5.52
1.17065	5.52
1.18732	5.52
1.20398	5.52
1.22065	5.51
1.23732	5.51
1.25398	5.51
1.27065	5.51
1.28732	5.51
1.30398	5.51
1.32065	5.51
1.33732	5.51
1.35398	5.51
1.37065	5.51
1.38732	5.52
1.40398	5.52
1.42065	5.52
1.43732	5.52
1.45398	5.52
1.47065	5.52
1.48732	5.52
1.50398	5.52
1.52065	5.52
1.53732	5.52
1.55398	5.52
1.57065	5.52
1.58732	5.52
1.60398	5.51
1.62065	5.51
1.63732	5.51
1.65398	5.50
1.67065	5.49
1.68732	5.48
1.70398	5.47
1.72065	5.46
1.73732	5.45
1.75398	5.44
1.77065	5.43
1.78732	5.41
1.80398	5.40
1.82065	5.39
1.83732	5.38
1.85398	5.37
1.87065	5.36
1.88732	5.35
1.90398	5.34
1.92065	5.34
1.93732	5.33
1.95398	5.32
1.97065	5.31
1.98732	5.30
2.00398	5.29
2.02065	5.28
2.03732	5.27
2.05398	5.26
2.07065	5.25
2.08732	5.24
2.10398	5.23
2.12065	5.22
2.13732	5.21
2.15398	5.20
2.17065	5.19
2.18732	5.18
2.20398	5.17
2.22065	5.16
2.23732	5.16
2.25398	5.15
2.27065	5.14
2.28732	5.13
2.30398	5.12
2.32065	5.11
2.33732	5.10
2.35398	5.09
2.37065	5.08
2.38732	5.08
2.40398	5.08
2.42065	5.08
2.43732	5.08
2.45398	5.08
2.47065	5.08
2.48732	5.08
2.50398	5.08
2.52065	5.08
2.53732	5.08
2.55398	5.08
2.57065	5.08
2.58732	5.08
2.60398	5.08
2.62065	5.08
2.63732	5.08
2.65398	5.08
2.67065	5.08
2.68732	5.08
2.70398	5.08
2.72065	5.08
2.73732	5.08
2.75398	5.08
2.77065	5.08
2.78732	5.08
2.80398	5.08
2.82065	5.08
2.83732	5.08
2.85398	5.08
2.87065	5.08
2.88732	5.08
2.90398	5.08
2.92065	5.08
2.93732	5.08
2.95398	5.08
2.97065	5.07
2.98732	5.07
3.00398	5.07
3.02065	5.07
3.03732	5.07
3.05398	5.07
3.07065	5.07
3.08732	5.07
3.10398	5.07
3.12065	5.07
3.13732	5.07
3.15398	5.07
3.17065	5.07
3.18732	5.07
3.20398	5.07
3.22065	5.07
3.23732	5.07
3.25398	5.07
3.27065	5.07
3.28732	5.07
3.30398	5.07
3.32065	5.07
3.33732	5.07
3.35398	5.07
3.37065	5.07
3.38732	5.07
3.40398	5.07
3.42065	5.07
3.43732	5.07
3.45398	5.07
3.47065	5.07
3.48732	5.07
3.50398	5.07
3.52065	5.07
3.53732	5.07
3.55398	5.07
3.57065	5.07
3.58732	5.07
3.60398	5.07
3.62065	5.07
3.63732	5.07
3.65398	5.07
3.67065	5.07
3.68732	5.07
3.70398	5.07
3.72065	5.07
3.73732	5.07
3.75398	5.07
3.77065	5.07
3.78732	5.07
3.80398	5.07
3.82065	5.07
3.83732	5.07
3.85398	5.07
3.87065	5.07
3.88732	5.07
3.90398	5.07
3.92065	5.07
3.93732	5.07
3.95398	5.07
3.97065	5.07
3.98732	5.07

[Status Trace (Linear Velocity)]
Interval(msec)	1000
# of Points	240
Start Time(min)	0.004
End Time(min)	3.987
Intensity Units	
Intensity Multiplier	1
R.Time (min)	Intensity
0.00398	39.01
0.02065	37.65
0.03732	38.06
0.05398	39.59
0.07065	40.09
0.08732	39.12
0.10398	38.99
0.12065	39.02
0.13732	39.02
0.15398	39.02
0.17065	39.02
0.18732	39.01
0.20398	39.01
0.22065	39.01
0.23732	39.01
0.25398	39.01
0.27065	39.01
0.28732	39.01
0.30398	39.01
0.32065	39.01
0.33732	39.01
0.35398	39.01
0.37065	39.02
0.38732	39.02
0.40398	39.02
0.42065	39.02
0.43732	39.02
0.45398	39.02
0.47065	39.02
0.48732	39.02
0.50398	39.02
0.52065	39.02
0.53732	39.02
0.55398	39.02
0.57065	39.02
0.58732	39.02
0.60398	39.02
0.62065	39.02
0.63732	39.02
0.65398	39.02
0.67065	39.02
0.68732	39.02
0.70398	39.02
0.72065	39.01
0.73732	39.01
0.75398	39.01
0.77065	39.01
0.78732	39.02
0.80398	39.02
0.82065	39.02
0.83732	39.02
0.85398	39.02
0.87065	39.02
0.88732	39.02
0.90398	39.02
0.92065	39.02
0.93732	39.02
0.95398	39.02
0.97065	39.01
0.98732	39.01
1.00398	39.01
1.02065	39.01
1.03732	39.01
1.05398	39.01
1.07065	39.01
1.08732	39.02
1.10398	39.02
1.12065	39.02
1.13732	39.02
1.15398	39.02
1.17065	39.02
1.18732	39.02
1.20398	39.02
1.22065	39.01
1.23732	39.01
1.25398	39.01
1.27065	39.01
1.28732	39.01
1.30398	39.01
1.32065	39.01
1.33732	39.01
1.35398	39.01
1.37065	39.01
1.38732	39.01
1.40398	39.01
1.42065	39.01
1.43732	39.01
1.45398	39.01
1.47065	39.01
1.48732	39.02
1.50398	39.02
1.52065	39.02
1.53732	39.02
1.55398	39.02
1.57065	39.02
1.58732	39.02
1.60398	39.01
1.62065	39.00
1.63732	38.99
1.65398	38.97
1.67065	38.94
1.68732	38.90
1.70398	38.86
1.72065	38.83
1.73732	38.80
1.75398	38.77
1.77065	38.74
1.78732	38.70
1.80398	38.67
1.82065	38.64
1.83732	38.61
1.85398	38.58
1.87065	38.55
1.88732	38.52
1.90398	38.49
1.92065	38.46
1.93732	38.43
1.95398	38.40
1.97065	38.37
1.98732	38.34
2.00398	38.31
2.02065	38.28
2.03732	38.25
2.05398	38.22
2.07065	38.19
2.08732	38.16
2.10398	38.13
2.12065	38.10
2.13732	38.07
2.15398	38.04
2.17065	38.01
2.18732	37.98
2.20398	37.95
2.22065	37.92
2.23732	37.89
2.25398	37.86
2.27065	37.83
2.28732	37.80
2.30398	37.77
2.32065	37.74
2.33732	37.71
2.35398	37.69
2.37065	37.67
2.38732	37.66
2.40398	37.66
2.42065	37.66
2.43732	37.66
2.45398	37.66
2.47065	37.66
2.48732	37.66
2.50398	37.65
2.52065	37.65
2.53732	37.65
2.55398	37.65
2.57065	37.65
2.58732	37.65
2.60398	37.65
2.62065	37.65
2.63732	37.65
2.65398	37.65
2.67065	37.65
2.68732	37.64
2.70398	37.64
2.72065	37.64
2.73732	37.64
2.75398	37.64
2.77065	37.64
2.78732	37.64
2.80398	37.64
2.82065	37.64
2.83732	37.64
2.85398	37.64
2.87065	37.64
2.88732	37.64
2.90398	37.64
2.92065	37.64
2.93732	37.64
2.95398	37.64
2.97065	37.64
2.98732	37.63
3.00398	37.63
3.02065	37.63
3.03732	37.63
3.05398	37.63
3.07065	37.63
3.08732	37.63
3.10398	37.63
3.12065	37.63
3.13732	37.63
3.15398	37.63
3.17065	37.62
3.18732	37.62
3.20398	37.62
3.22065	37.62
3.23732	37.62
3.25398	37.62
3.27065	37.62
3.28732	37.62
3.30398	37.62
3.32065	37.62
3.33732	37.63
3.35398	37.63
3.37065	37.63
3.38732	37.63
3.40398	37.63
3.42065	37.63
3.43732	37.63
3.45398	37.63
3.47065	37.63
3.48732	37.63
3.50398	37.63
3.52065	37.63
3.53732	37.63
3.55398	37.63
3.57065	37.63
3.58732	37.63
3.60398	37.63
3.62065	37.63
3.63732	37.63
3.65398	37.63
3.67065	37.63
3.68732	37.63
3.70398	37.63
3.72065	37.63
3.73732	37.63
3.75398	37.63
3.77065	37.63
3.78732	37.63
3.80398	37.63
3.82065	37.63
3.83732	37.63
3.85398	37.63
3.87065	37.62
3.88732	37.62
3.90398	37.63
3.92065	37.63
3.93732	37.63
3.95398	37.63
3.97065	37.63
3.98732	37.63

