[Header]
Application Name	LabSolutions
Version	5.110
Data File Name	C:\Users\User\Desktop\Junior\UIC Prairie Sampling\3.23.23\032323_024.gcd
Output Date	5/24/2023
Output Time	10:27:36 AM

[File Information]
Type	Data File
Generated	5/23/2023 6:02:53 PM
Generated by	System Administrator
Modified	5/23/2023 6:09:45 PM
Modified by	System Administrator

[Sample Information]
Operator Name	System Administrator
Acquired	5/23/2023 6:05:44 PM
Sample Type	0:Unknown
Level	0
Sample Name	024
Sample ID	024
ISTD Amount1	1
ISTD Amount2	1
ISTD Amount3	1
ISTD Amount4	1
ISTD Amount5	1
ISTD Amount6	1
ISTD Amount7	1
ISTD Amount8	1
ISTD Amount9	1
ISTD Amount10	1
ISTD Amount11	1
ISTD Amount12	1
ISTD Amount13	1
ISTD Amount14	1
ISTD Amount15	1
ISTD Amount16	1
ISTD Amount17	1
ISTD Amount18	1
ISTD Amount19	1
ISTD Amount20	1
ISTD Amount21	1
ISTD Amount22	1
ISTD Amount23	1
ISTD Amount24	1
ISTD Amount25	1
ISTD Amount26	1
ISTD Amount27	1
ISTD Amount28	1
ISTD Amount29	1
ISTD Amount30	1
ISTD Amount31	1
ISTD Amount32	1
Sample Amount	1
Dilution Factor	1
Vial#	23
Injection Volume	1
Injection Count	1
Bar Code	

[Original Files]
Data File	C:\Users\User\Desktop\GC Analyses\Jack\Nachusa Grasslands Sampling\20220924\t2\032323_024.gcd
Method File	C:\LabSolutions\Data\GHG_4min_2022\ghg3_togas_w_acet_4 min_new_int.gcm
Batch File	C:\LabSolutions\Data\AutoSamplerTesting\032323.gcb
Report Format File	c:\LabSolutions\System\DEFAULT.lsr

[File Description]


[Configuration]
Instrument Name	C0B7VH3-Instrument1
Instrument #	1
Line #	1
# of Detectors	3
Detector ID	DET#1	DET#2	DET#3
Detector Name	FID	PTCD	ECD
# of Channels	1	1	1

[Peak Table(Ch1)]
# of Peaks	3
Peak#	R.Time	I.Time	F.Time	Area	Height	A/H	Conc.	Mark	ID#	Name	k'	Plate #	Plate Ht.	Tailing	Resolution	Sep.Factor	Area Ratio	Height Ratio	Conc. %	Norm Conc.
1	1.490	1.472	1.527	422	177	2.384	0.000	   	1	CO	0.000	4744	31.618	0.000	0.000	0.000	0	0	0.000	0.000
2	1.564	1.527	1.644	5250	2548	2.060	25.597	 V 	2	CH4	0.049	10861	13.811	1.235	1.001	0.000	0	0	12.608	12.608
3	1.993	1.945	2.323	920650	440247	2.091	177.426	   	3	CO2	0.337	17434	8.604	1.304	7.127	6.850	0	0	87.392	87.392

[Peak Table(Ch2)]
# of Peaks	0

[Peak Table(Ch3)]
# of Peaks	4
Peak#	R.Time	I.Time	F.Time	Area	Height	A/H	Conc.	Mark	ID#	Name	k'	Plate #	Plate Ht.	Tailing	Resolution	Sep.Factor	Area Ratio	Height Ratio	Conc. %	Norm Conc.
1	2.458	2.429	2.565	902	243	3.717	0.000	   			0.000	15546	9.649	0.000	0.000	0.000	0	0	0.000	0.000
2	2.609	2.565	2.664	275	83	3.301	0.000	 V 			0.061	11395	13.163	0.000	1.702	0.000	0	0	0.000	0.000
3	2.887	2.825	2.994	15810	4419	3.578	0.234	   	1	N2O	0.175	14094	10.643	1.494	2.858	2.854	0	0	100.000	100.000
4	3.177	2.994	3.995	15253	473	32.260	0.000	 V 	2	SF6	0.292	266	564.811	0.000	0.661	1.675	0	0	0.000	0.000

[Compound Results(Ch1)]
# of IDs	6
ID#	Name	R.Time	Area	Height	Conc.	Curve	3rd	2nd	1st	Constant	Area Ratio	Height Ratio	Conc. %	Norm Conc.
1	CO	1.490	422	177	0.000	Linear	0.000000e+00	0.000000e+00	0.000000e+00	0.000000e+00	0	0	0.000	0.000
2	CH4	1.564	5250	2548	25.597	Linear	0.000000e+00	0.000000e+00	2.051179e+002	0.000000e+00	0	0	12.608	12.608
3	CO2	1.993	920650	440247	177.426	Linear	0.000000e+00	0.000000e+00	5.188919e+003	0.000000e+00	0	0	87.392	87.392
4	Ethylene	0.000	0	0	0.000	Linear	0.000000e+00	0.000000e+00	0.000000e+00	0.000000e+00	0	0	0.000	0.000
5	Acetylene	0.000	0	0	0.000	Linear	0.000000e+00	0.000000e+00	0.000000e+00	0.000000e+00	0	0	0.000	0.000
6	Ethane	0.000	0	0	0.000	Linear	0.000000e+00	0.000000e+00	0.000000e+00	0.000000e+00	0	0	0.000	0.000

[Compound Results(Ch2)]
# of IDs	5
ID#	Name	R.Time	Area	Height	Conc.	Curve	3rd	2nd	1st	Constant	Area Ratio	Height Ratio	Conc. %	Norm Conc.
1	Hydrogen	0.000	0	0	0.000	Linear	0.000000e+00	0.000000e+00	0.000000e+00	0.000000e+00	0	0	0.000	0.000
2	Oxygen	0.000	0	0	0.000	Linear	0.000000e+00	0.000000e+00	0.000000e+00	0.000000e+00	0	0	0.000	0.000
3	Nitrogen	0.000	0	0	0.000	Linear	0.000000e+00	0.000000e+00	0.000000e+00	0.000000e+00	0	0	0.000	0.000
4	Methane	0.000	0	0	0.000	Linear	0.000000e+00	0.000000e+00	0.000000e+00	0.000000e+00	0	0	0.000	0.000
5	Carbon Monoxide	0.000	0	0	0.000	Linear	0.000000e+00	0.000000e+00	0.000000e+00	0.000000e+00	0	0	0.000	0.000

[Compound Results(Ch3)]
# of IDs	2
ID#	Name	R.Time	Area	Height	Conc.	Curve	3rd	2nd	1st	Constant	Area Ratio	Height Ratio	Conc. %	Norm Conc.
1	N2O	2.887	15810	4419	0.234	Linear	0.000000e+00	0.000000e+00	6.759880e+004	0.000000e+00	0	0	100.000	100.000
2	SF6	3.177	15253	473	0.000	Linear	0.000000e+00	0.000000e+00	0.000000e+00	0.000000e+00	0	0	0.000	0.000

[Group Results(Ch1)]
# of Groups	0

[Group Results(Ch2)]
# of Groups	0

[Group Results(Ch3)]
# of Groups	0

[Chromatogram (Ch1)]
Interval(msec)	220
# of Points	1091
Start Time(min)	0.002
End Time(min)	3.998
R.Time (min)	Intensity
0.00167	-14
0.00533	-16
0.00900	-15
0.01267	-12
0.01633	-10
0.02000	-9
0.02367	-10
0.02733	-9
0.03100	-5
0.03467	3
0.03833	13
0.04200	22
0.04567	29
0.04933	30
0.05300	29
0.05667	28
0.06033	24
0.06400	17
0.06767	6
0.07133	-1
0.07500	-5
0.07867	-7
0.08233	-7
0.08600	-5
0.08967	-2
0.09333	0
0.09700	4
0.10067	8
0.10433	10
0.10800	7
0.11167	-0
0.11533	-7
0.11900	-6
0.12267	2
0.12633	10
0.13000	12
0.13367	10
0.13733	8
0.14100	8
0.14467	9
0.14833	12
0.15200	18
0.15567	22
0.15933	24
0.16300	20
0.16667	16
0.17033	11
0.17400	2
0.17767	-8
0.18133	-13
0.18500	-16
0.18867	-14
0.19233	-10
0.19600	-7
0.19967	-4
0.20333	1
0.20700	6
0.21067	5
0.21433	0
0.21800	-4
0.22167	-5
0.22533	-1
0.22900	6
0.23267	9
0.23633	10
0.24000	5
0.24367	-4
0.24733	-10
0.25100	-8
0.25467	-1
0.25833	4
0.26200	6
0.26567	6
0.26933	5
0.27300	7
0.27667	13
0.28033	17
0.28400	17
0.28767	13
0.29133	8
0.29500	1
0.29867	-5
0.30233	-7
0.30600	-4
0.30967	4
0.31333	11
0.31700	10
0.32067	3
0.32433	-4
0.32800	-10
0.33167	-12
0.33533	-10
0.33900	-0
0.34267	8
0.34633	7
0.35000	2
0.35367	-3
0.35733	-3
0.36100	-3
0.36467	-5
0.36833	-8
0.37200	-9
0.37567	-7
0.37933	-4
0.38300	-2
0.38667	3
0.39033	10
0.39400	14
0.39767	14
0.40133	12
0.40500	12
0.40867	11
0.41233	9
0.41600	7
0.41967	7
0.42333	8
0.42700	7
0.43067	2
0.43433	-5
0.43800	-9
0.44167	-12
0.44533	-16
0.44900	-19
0.45267	-20
0.45633	-18
0.46000	-15
0.46367	-8
0.46733	0
0.47100	6
0.47467	8
0.47833	10
0.48200	12
0.48567	13
0.48933	9
0.49300	5
0.49667	0
0.50033	-3
0.50400	-2
0.50767	3
0.51133	8
0.51500	14
0.51867	19
0.52233	20
0.52600	19
0.52967	18
0.53333	17
0.53700	10
0.54067	5
0.54433	-1
0.54800	-8
0.55167	-14
0.55533	-18
0.55900	-17
0.56267	-14
0.56633	-12
0.57000	-8
0.57367	-1
0.57733	5
0.58100	9
0.58467	13
0.58833	17
0.59200	21
0.59567	25
0.59933	30
0.60300	29
0.60667	20
0.61033	10
0.61400	3
0.61767	1
0.62133	1
0.62500	-2
0.62867	-1
0.63233	4
0.63600	9
0.63967	11
0.64333	11
0.64700	12
0.65067	14
0.65433	15
0.65800	15
0.66167	15
0.66533	13
0.66900	8
0.67267	2
0.67633	-1
0.68000	1
0.68367	7
0.68733	16
0.69100	22
0.69467	25
0.69833	22
0.70200	17
0.70567	11
0.70933	3
0.71300	-3
0.71667	-7
0.72033	-7
0.72400	-3
0.72767	-2
0.73133	-5
0.73500	-8
0.73867	-9
0.74233	-6
0.74600	-2
0.74967	1
0.75333	-1
0.75700	-5
0.76067	-10
0.76433	-12
0.76800	-10
0.77167	-7
0.77533	-2
0.77900	5
0.78267	10
0.78633	11
0.79000	8
0.79367	4
0.79733	1
0.80100	-0
0.80467	1
0.80833	4
0.81200	11
0.81567	17
0.81933	16
0.82300	8
0.82667	-4
0.83033	-13
0.83400	-14
0.83767	-11
0.84133	-9
0.84500	-8
0.84867	-10
0.85233	-15
0.85600	-17
0.85967	-15
0.86333	-8
0.86700	-0
0.87067	1
0.87433	-6
0.87800	-15
0.88167	-20
0.88533	-20
0.88900	-18
0.89267	-15
0.89633	-15
0.90000	-14
0.90367	-12
0.90733	-13
0.91100	-18
0.91467	-22
0.91833	-22
0.92200	-17
0.92567	-10
0.92933	-4
0.93300	-2
0.93667	-0
0.94033	-1
0.94400	-5
0.94767	-14
0.95133	-24
0.95500	-31
0.95867	-32
0.96233	-28
0.96600	-25
0.96967	-23
0.97333	-21
0.97700	-22
0.98067	-21
0.98433	-20
0.98800	-22
0.99167	-22
0.99533	-24
0.99900	-26
1.00267	-24
1.00633	-22
1.01000	-17
1.01367	-11
1.01733	-6
1.02100	-6
1.02467	-7
1.02833	-6
1.03200	-2
1.03567	1
1.03933	2
1.04300	-4
1.04667	-12
1.05033	-19
1.05400	-23
1.05767	-25
1.06133	-22
1.06500	-19
1.06867	-18
1.07233	-20
1.07600	-26
1.07967	-29
1.08333	-27
1.08700	-22
1.09067	-17
1.09433	-15
1.09800	-17
1.10167	-19
1.10533	-21
1.10900	-22
1.11267	-22
1.11633	-21
1.12000	-20
1.12367	-22
1.12733	-27
1.13100	-33
1.13467	-39
1.13833	-40
1.14200	-37
1.14567	-36
1.14933	-38
1.15300	-40
1.15667	-37
1.16033	-33
1.16400	-31
1.16767	-27
1.17133	-23
1.17500	-18
1.17867	-12
1.18233	-3
1.18600	7
1.18967	9
1.19333	6
1.19700	1
1.20067	-6
1.20433	-15
1.20800	-25
1.21167	-32
1.21533	-33
1.21900	-30
1.22267	-24
1.22633	-17
1.23000	-19
1.23367	-25
1.23733	-31
1.24100	-33
1.24467	-31
1.24833	-32
1.25200	-36
1.25567	-37
1.25933	-38
1.26300	-37
1.26667	-36
1.27033	-31
1.27400	-27
1.27767	-24
1.28133	-23
1.28500	-22
1.28867	-22
1.29233	-25
1.29600	-32
1.29967	-40
1.30333	-46
1.30700	-47
1.31067	-42
1.31433	-37
1.31800	-33
1.32167	-31
1.32533	-30
1.32900	-30
1.33267	-31
1.33633	-30
1.34000	-29
1.34367	-27
1.34733	-24
1.35100	-22
1.35467	-24
1.35833	-27
1.36200	-30
1.36567	-35
1.36933	-39
1.37300	-40
1.37667	-38
1.38033	-33
1.38400	-31
1.38767	-30
1.39133	-29
1.39500	-30
1.39867	-34
1.40233	-40
1.40600	-46
1.40967	-51
1.41333	-55
1.41700	-57
1.42067	-56
1.42433	-56
1.42800	-52
1.43167	-46
1.43533	-36
1.43900	-16
1.44267	20
1.44633	34
1.45000	-2
1.45367	-66
1.45733	-129
1.46100	-184
1.46467	-222
1.46833	-230
1.47200	-200
1.47567	-146
1.47933	-88
1.48300	-42
1.48667	-18
1.49033	-9
1.49400	-9
1.49767	-13
1.50133	-20
1.50500	-28
1.50867	-39
1.51233	-50
1.51600	-57
1.51967	-60
1.52333	-61
1.52700	-63
1.53067	-64
1.53433	-52
1.53800	15
1.54167	210
1.54533	583
1.54900	1087
1.55267	1602
1.55633	2020
1.56000	2296
1.56367	2418
1.56733	2378
1.57100	2172
1.57467	1832
1.57833	1433
1.58200	1051
1.58567	728
1.58933	480
1.59300	301
1.59667	176
1.60033	90
1.60400	34
1.60767	-2
1.61133	-22
1.61500	-34
1.61867	-45
1.62233	-53
1.62600	-60
1.62967	-66
1.63333	-69
1.63700	-69
1.64067	-68
1.64433	-69
1.64800	-70
1.65167	-69
1.65533	-65
1.65900	-62
1.66267	-61
1.66633	-63
1.67000	-68
1.67367	-73
1.67733	-78
1.68100	-80
1.68467	-77
1.68833	-77
1.69200	-82
1.69567	-89
1.69933	-95
1.70300	-94
1.70667	-87
1.71033	-79
1.71400	-73
1.71767	-69
1.72133	-67
1.72500	-69
1.72867	-72
1.73233	-76
1.73600	-79
1.73967	-78
1.74333	-73
1.74700	-69
1.75067	-68
1.75433	-70
1.75800	-75
1.76167	-78
1.76533	-79
1.76900	-81
1.77267	-81
1.77633	-78
1.78000	-74
1.78367	-71
1.78733	-70
1.79100	-71
1.79467	-73
1.79833	-74
1.80200	-76
1.80567	-73
1.80933	-68
1.81300	-63
1.81667	-62
1.82033	-66
1.82400	-72
1.82767	-74
1.83133	-70
1.83500	-64
1.83867	-58
1.84233	-58
1.84600	-60
1.84967	-58
1.85333	-55
1.85700	-52
1.86067	-52
1.86433	-56
1.86800	-61
1.87167	-63
1.87533	-64
1.87900	-66
1.88267	-68
1.88633	-69
1.89000	-71
1.89367	-70
1.89733	-67
1.90100	-61
1.90467	-55
1.90833	-51
1.91200	-50
1.91567	-51
1.91933	-53
1.92300	-60
1.92667	-67
1.93033	-74
1.93400	-78
1.93767	-78
1.94133	-74
1.94500	-68
1.94867	-55
1.95233	23
1.95600	445
1.95967	2358
1.96333	8999
1.96700	26600
1.97067	62804
1.97433	121619
1.97800	198702
1.98167	282024
1.98533	357379
1.98900	412815
1.99267	440217
1.99633	435816
2.00000	401575
2.00367	345531
2.00733	279404
2.01100	214357
2.01467	157832
2.01833	112870
2.02200	79290
2.02567	55287
2.02933	38624
2.03300	27263
2.03667	19584
2.04033	14397
2.04400	10871
2.04767	8447
2.05133	6752
2.05500	5541
2.05867	4658
2.06233	3998
2.06600	3495
2.06967	3096
2.07333	2774
2.07700	2507
2.08067	2283
2.08433	2093
2.08800	1927
2.09167	1778
2.09533	1646
2.09900	1532
2.10267	1434
2.10633	1350
2.11000	1277
2.11367	1218
2.11733	1165
2.12100	1106
2.12467	1048
2.12833	995
2.13200	947
2.13567	901
2.13933	860
2.14300	822
2.14667	787
2.15033	754
2.15400	723
2.15767	696
2.16133	672
2.16500	652
2.16867	637
2.17233	621
2.17600	601
2.17967	577
2.18333	557
2.18700	539
2.19067	521
2.19433	503
2.19800	489
2.20167	478
2.20533	467
2.20900	455
2.21267	442
2.21633	431
2.22000	423
2.22367	412
2.22733	399
2.23100	388
2.23467	380
2.23833	375
2.24200	371
2.24567	365
2.24933	360
2.25300	354
2.25667	347
2.26033	340
2.26400	332
2.26767	326
2.27133	322
2.27500	320
2.27867	319
2.28233	318
2.28600	317
2.28967	315
2.29333	310
2.29700	305
2.30067	299
2.30433	292
2.30800	284
2.31167	270
2.31533	254
2.31900	241
2.32267	234
2.32633	235
2.33000	242
2.33367	245
2.33733	244
2.34100	243
2.34467	244
2.34833	245
2.35200	246
2.35567	249
2.35933	253
2.36300	254
2.36667	253
2.37033	248
2.37400	239
2.37767	232
2.38133	229
2.38500	225
2.38867	222
2.39233	222
2.39600	225
2.39967	230
2.40333	237
2.40700	242
2.41067	243
2.41433	237
2.41800	227
2.42167	221
2.42533	220
2.42900	219
2.43267	220
2.43633	222
2.44000	223
2.44367	225
2.44733	224
2.45100	223
2.45467	221
2.45833	221
2.46200	221
2.46567	218
2.46933	220
2.47300	221
2.47667	220
2.48033	219
2.48400	217
2.48767	216
2.49133	216
2.49500	219
2.49867	225
2.50233	232
2.50600	234
2.50967	228
2.51333	219
2.51700	215
2.52067	215
2.52433	217
2.52800	219
2.53167	220
2.53533	220
2.53900	221
2.54267	220
2.54633	222
2.55000	225
2.55367	225
2.55733	222
2.56100	219
2.56467	217
2.56833	217
2.57200	218
2.57567	221
2.57933	225
2.58300	229
2.58667	230
2.59033	232
2.59400	233
2.59767	235
2.60133	239
2.60500	246
2.60867	253
2.61233	254
2.61600	249
2.61967	242
2.62333	237
2.62700	233
2.63067	234
2.63433	238
2.63800	243
2.64167	244
2.64533	241
2.64900	239
2.65267	236
2.65633	235
2.66000	241
2.66367	250
2.66733	254
2.67100	255
2.67467	249
2.67833	245
2.68200	244
2.68567	248
2.68933	253
2.69300	255
2.69667	256
2.70033	257
2.70400	259
2.70767	259
2.71133	254
2.71500	248
2.71867	244
2.72233	243
2.72600	245
2.72967	248
2.73333	254
2.73700	263
2.74067	273
2.74433	277
2.74800	275
2.75167	272
2.75533	270
2.75900	270
2.76267	271
2.76633	271
2.77000	273
2.77367	277
2.77733	285
2.78100	294
2.78467	299
2.78833	298
2.79200	293
2.79567	290
2.79933	288
2.80300	289
2.80667	293
2.81033	298
2.81400	301
2.81767	305
2.82133	308
2.82500	310
2.82867	313
2.83233	312
2.83600	311
2.83967	312
2.84333	312
2.84700	308
2.85067	301
2.85433	296
2.85800	295
2.86167	296
2.86533	296
2.86900	296
2.87267	299
2.87633	305
2.88000	308
2.88367	308
2.88733	307
2.89100	311
2.89467	321
2.89833	331
2.90200	336
2.90567	339
2.90933	337
2.91300	331
2.91667	325
2.92033	320
2.92400	316
2.92767	312
2.93133	309
2.93500	307
2.93867	306
2.94233	309
2.94600	315
2.94967	323
2.95333	331
2.95700	336
2.96067	338
2.96433	335
2.96800	332
2.97167	333
2.97533	338
2.97900	343
2.98267	350
2.98633	357
2.99000	360
2.99367	359
2.99733	356
3.00100	357
3.00467	360
3.00833	355
3.01200	342
3.01567	333
3.01933	331
3.02300	333
3.02667	337
3.03033	340
3.03400	341
3.03767	338
3.04133	331
3.04500	324
3.04867	316
3.05233	314
3.05600	318
3.05967	329
3.06333	339
3.06700	343
3.07067	345
3.07433	347
3.07800	346
3.08167	342
3.08533	335
3.08900	326
3.09267	315
3.09633	308
3.10000	306
3.10367	310
3.10733	317
3.11100	324
3.11467	335
3.11833	346
3.12200	353
3.12567	354
3.12933	352
3.13300	349
3.13667	344
3.14033	340
3.14400	339
3.14767	344
3.15133	349
3.15500	347
3.15867	341
3.16233	334
3.16600	330
3.16967	331
3.17333	329
3.17700	324
3.18067	320
3.18433	314
3.18800	311
3.19167	314
3.19533	323
3.19900	331
3.20267	335
3.20633	336
3.21000	332
3.21367	328
3.21733	330
3.22100	336
3.22467	342
3.22833	345
3.23200	345
3.23567	345
3.23933	350
3.24300	358
3.24667	359
3.25033	350
3.25400	336
3.25767	322
3.26133	313
3.26500	307
3.26867	300
3.27233	298
3.27600	299
3.27967	299
3.28333	299
3.28700	303
3.29067	311
3.29433	322
3.29800	332
3.30167	338
3.30533	341
3.30900	341
3.31267	335
3.31633	326
3.32000	320
3.32367	320
3.32733	323
3.33100	327
3.33467	330
3.33833	330
3.34200	327
3.34567	322
3.34933	318
3.35300	315
3.35667	312
3.36033	307
3.36400	303
3.36767	302
3.37133	301
3.37500	299
3.37867	296
3.38233	294
3.38600	297
3.38967	303
3.39333	314
3.39700	324
3.40067	330
3.40433	332
3.40800	333
3.41167	337
3.41533	345
3.41900	351
3.42267	351
3.42633	344
3.43000	334
3.43367	324
3.43733	314
3.44100	307
3.44467	299
3.44833	291
3.45200	285
3.45567	283
3.45933	286
3.46300	293
3.46667	303
3.47033	309
3.47400	310
3.47767	310
3.48133	308
3.48500	308
3.48867	310
3.49233	318
3.49600	325
3.49967	329
3.50333	328
3.50700	323
3.51067	317
3.51433	311
3.51800	306
3.52167	303
3.52533	301
3.52900	300
3.53267	298
3.53633	298
3.54000	299
3.54367	299
3.54733	299
3.55100	297
3.55467	290
3.55833	287
3.56200	289
3.56567	293
3.56933	297
3.57300	299
3.57667	300
3.58033	299
3.58400	297
3.58767	297
3.59133	297
3.59500	293
3.59867	288
3.60233	285
3.60600	283
3.60967	283
3.61333	284
3.61700	283
3.62067	278
3.62433	272
3.62800	268
3.63167	268
3.63533	271
3.63900	277
3.64267	281
3.64633	278
3.65000	277
3.65367	279
3.65733	281
3.66100	283
3.66467	283
3.66833	282
3.67200	283
3.67567	283
3.67933	282
3.68300	278
3.68667	274
3.69033	273
3.69400	274
3.69767	274
3.70133	274
3.70500	272
3.70867	269
3.71233	265
3.71600	260
3.71967	257
3.72333	256
3.72700	256
3.73067	258
3.73433	263
3.73800	268
3.74167	267
3.74533	263
3.74900	262
3.75267	263
3.75633	265
3.76000	266
3.76367	262
3.76733	260
3.77100	260
3.77467	264
3.77833	267
3.78200	268
3.78567	264
3.78933	258
3.79300	250
3.79667	244
3.80033	242
3.80400	244
3.80767	250
3.81133	258
3.81500	262
3.81867	260
3.82233	258
3.82600	259
3.82967	260
3.83333	264
3.83700	270
3.84067	274
3.84433	275
3.84800	274
3.85167	272
3.85533	272
3.85900	271
3.86267	268
3.86633	265
3.87000	262
3.87367	258
3.87733	253
3.88100	248
3.88467	241
3.88833	236
3.89200	234
3.89567	236
3.89933	240
3.90300	240
3.90667	239
3.91033	239
3.91400	236
3.91767	235
3.92133	238
3.92500	242
3.92867	244
3.93233	245
3.93600	243
3.93967	241
3.94333	240
3.94700	239
3.95067	237
3.95433	236
3.95800	236
3.96167	234
3.96533	235
3.96900	239
3.97267	242
3.97633	244
3.98000	244
3.98367	239
3.98733	234
3.99100	232
3.99467	234
3.99833	237

[Chromatogram (Ch2)]
Interval(msec)	220
# of Points	1091
Start Time(min)	0.002
End Time(min)	3.998
R.Time (min)	Intensity
0.00167	1
0.00533	1
0.00900	1
0.01267	1
0.01633	1
0.02000	1
0.02367	1
0.02733	1
0.03100	1
0.03467	1
0.03833	1
0.04200	1
0.04567	1
0.04933	1
0.05300	0
0.05667	0
0.06033	0
0.06400	-0
0.06767	-1
0.07133	-1
0.07500	-1
0.07867	-1
0.08233	-2
0.08600	-2
0.08967	-2
0.09333	-2
0.09700	-2
0.10067	-2
0.10433	-2
0.10800	-2
0.11167	-2
0.11533	-2
0.11900	-1
0.12267	-1
0.12633	-1
0.13000	-1
0.13367	-1
0.13733	-1
0.14100	-1
0.14467	-1
0.14833	-1
0.15200	-2
0.15567	-2
0.15933	-2
0.16300	-2
0.16667	-2
0.17033	-2
0.17400	-2
0.17767	-2
0.18133	-2
0.18500	-1
0.18867	-1
0.19233	-1
0.19600	-1
0.19967	-1
0.20333	-0
0.20700	-0
0.21067	-0
0.21433	0
0.21800	0
0.22167	0
0.22533	1
0.22900	1
0.23267	1
0.23633	1
0.24000	1
0.24367	1
0.24733	1
0.25100	1
0.25467	1
0.25833	1
0.26200	0
0.26567	0
0.26933	-0
0.27300	-1
0.27667	-1
0.28033	-1
0.28400	-2
0.28767	-2
0.29133	-2
0.29500	-2
0.29867	-2
0.30233	-2
0.30600	-3
0.30967	-3
0.31333	-2
0.31700	-2
0.32067	-2
0.32433	-2
0.32800	-2
0.33167	-2
0.33533	-2
0.33900	-2
0.34267	-2
0.34633	-2
0.35000	-3
0.35367	-3
0.35733	-3
0.36100	-3
0.36467	-3
0.36833	-4
0.37200	-4
0.37567	-4
0.37933	-4
0.38300	-4
0.38667	-5
0.39033	-5
0.39400	-5
0.39767	-5
0.40133	-5
0.40500	-5
0.40867	-5
0.41233	-5
0.41600	-5
0.41967	-5
0.42333	-5
0.42700	-4
0.43067	-4
0.43433	-4
0.43800	-4
0.44167	-3
0.44533	-3
0.44900	-3
0.45267	-3
0.45633	-2
0.46000	-2
0.46367	-2
0.46733	-2
0.47100	-3
0.47467	-3
0.47833	-3
0.48200	-3
0.48567	-3
0.48933	-2
0.49300	-2
0.49667	-3
0.50033	-3
0.50400	-3
0.50767	-3
0.51133	-3
0.51500	-3
0.51867	-3
0.52233	-3
0.52600	-3
0.52967	-3
0.53333	-3
0.53700	-3
0.54067	-3
0.54433	-3
0.54800	-4
0.55167	-4
0.55533	-4
0.55900	-4
0.56267	-4
0.56633	-4
0.57000	-4
0.57367	-4
0.57733	-5
0.58100	-5
0.58467	-5
0.58833	-5
0.59200	-5
0.59567	-5
0.59933	-5
0.60300	-4
0.60667	-4
0.61033	-4
0.61400	-4
0.61767	-4
0.62133	-4
0.62500	-4
0.62867	-4
0.63233	-4
0.63600	-4
0.63967	-4
0.64333	-4
0.64700	-4
0.65067	-4
0.65433	-4
0.65800	-4
0.66167	-4
0.66533	-4
0.66900	-5
0.67267	-5
0.67633	-5
0.68000	-5
0.68367	-5
0.68733	-5
0.69100	-4
0.69467	-4
0.69833	-4
0.70200	-4
0.70567	-4
0.70933	-4
0.71300	-5
0.71667	-5
0.72033	-5
0.72400	-5
0.72767	-5
0.73133	-5
0.73500	-5
0.73867	-5
0.74233	-4
0.74600	-4
0.74967	-4
0.75333	-4
0.75700	-4
0.76067	-4
0.76433	-4
0.76800	-3
0.77167	-4
0.77533	-4
0.77900	-4
0.78267	-4
0.78633	-4
0.79000	-4
0.79367	-4
0.79733	-4
0.80100	-4
0.80467	-4
0.80833	-4
0.81200	-4
0.81567	-4
0.81933	-4
0.82300	-4
0.82667	-3
0.83033	-3
0.83400	-3
0.83767	-3
0.84133	-4
0.84500	-4
0.84867	-4
0.85233	-4
0.85600	-4
0.85967	-4
0.86333	-4
0.86700	-3
0.87067	-3
0.87433	-3
0.87800	-3
0.88167	-3
0.88533	-4
0.88900	-4
0.89267	-4
0.89633	-4
0.90000	-4
0.90367	-4
0.90733	-4
0.91100	-4
0.91467	-4
0.91833	-4
0.92200	-4
0.92567	-4
0.92933	-4
0.93300	-4
0.93667	-4
0.94033	-4
0.94400	-4
0.94767	-4
0.95133	-4
0.95500	-4
0.95867	-4
0.96233	-4
0.96600	-4
0.96967	-4
0.97333	-4
0.97700	-4
0.98067	-4
0.98433	-4
0.98800	-4
0.99167	-4
0.99533	-4
0.99900	-4
1.00267	-4
1.00633	-4
1.01000	-5
1.01367	-5
1.01733	-5
1.02100	-4
1.02467	-4
1.02833	-4
1.03200	-4
1.03567	-4
1.03933	-4
1.04300	-4
1.04667	-5
1.05033	-5
1.05400	-5
1.05767	-5
1.06133	-6
1.06500	-6
1.06867	-6
1.07233	-6
1.07600	-6
1.07967	-5
1.08333	-5
1.08700	-5
1.09067	-5
1.09433	-5
1.09800	-4
1.10167	-4
1.10533	-4
1.10900	-4
1.11267	-4
1.11633	-5
1.12000	-5
1.12367	-5
1.12733	-5
1.13100	-5
1.13467	-5
1.13833	-5
1.14200	-5
1.14567	-5
1.14933	-5
1.15300	-5
1.15667	-5
1.16033	-5
1.16400	-5
1.16767	-5
1.17133	-5
1.17500	-5
1.17867	-5
1.18233	-5
1.18600	-5
1.18967	-5
1.19333	-5
1.19700	-5
1.20067	-5
1.20433	-5
1.20800	-5
1.21167	-5
1.21533	-5
1.21900	-5
1.22267	-5
1.22633	-5
1.23000	-5
1.23367	-5
1.23733	-5
1.24100	-5
1.24467	-5
1.24833	-4
1.25200	-4
1.25567	-3
1.25933	-3
1.26300	-2
1.26667	-2
1.27033	-2
1.27400	-2
1.27767	-2
1.28133	-2
1.28500	-2
1.28867	-2
1.29233	-2
1.29600	-2
1.29967	-2
1.30333	-2
1.30700	-2
1.31067	-3
1.31433	-3
1.31800	-3
1.32167	-3
1.32533	-4
1.32900	-4
1.33267	-4
1.33633	-4
1.34000	-4
1.34367	-4
1.34733	-4
1.35100	-4
1.35467	-4
1.35833	-4
1.36200	-4
1.36567	-4
1.36933	-4
1.37300	-4
1.37667	-4
1.38033	-4
1.38400	-4
1.38767	-4
1.39133	-4
1.39500	-4
1.39867	-4
1.40233	-4
1.40600	-4
1.40967	-5
1.41333	-5
1.41700	-5
1.42067	-5
1.42433	-5
1.42800	-5
1.43167	-5
1.43533	-5
1.43900	-5
1.44267	-5
1.44633	-5
1.45000	-5
1.45367	-5
1.45733	-5
1.46100	-5
1.46467	-5
1.46833	-5
1.47200	-5
1.47567	-5
1.47933	-5
1.48300	-6
1.48667	-6
1.49033	-6
1.49400	-6
1.49767	-6
1.50133	-6
1.50500	-6
1.50867	-6
1.51233	-6
1.51600	-6
1.51967	-6
1.52333	-6
1.52700	-6
1.53067	-5
1.53433	-5
1.53800	-5
1.54167	-4
1.54533	-4
1.54900	-4
1.55267	-4
1.55633	-5
1.56000	-5
1.56367	-5
1.56733	-5
1.57100	-5
1.57467	-5
1.57833	-5
1.58200	-5
1.58567	-4
1.58933	-4
1.59300	-5
1.59667	-6
1.60033	-7
1.60400	-8
1.60767	-10
1.61133	-12
1.61500	-14
1.61867	-16
1.62233	-18
1.62600	-21
1.62967	-24
1.63333	-28
1.63700	-31
1.64067	-34
1.64433	-37
1.64800	-41
1.65167	-44
1.65533	-47
1.65900	-51
1.66267	-55
1.66633	-58
1.67000	-62
1.67367	-67
1.67733	-71
1.68100	-76
1.68467	-81
1.68833	-85
1.69200	-88
1.69567	-91
1.69933	-94
1.70300	-96
1.70667	-97
1.71033	-99
1.71400	-100
1.71767	-100
1.72133	-101
1.72500	-101
1.72867	-101
1.73233	-101
1.73600	-101
1.73967	-101
1.74333	-101
1.74700	-101
1.75067	-101
1.75433	-102
1.75800	-103
1.76167	-104
1.76533	-105
1.76900	-106
1.77267	-107
1.77633	-109
1.78000	-109
1.78367	-110
1.78733	-110
1.79100	-110
1.79467	-110
1.79833	-110
1.80200	-109
1.80567	-109
1.80933	-109
1.81300	-108
1.81667	-108
1.82033	-109
1.82400	-109
1.82767	-110
1.83133	-110
1.83500	-110
1.83867	-110
1.84233	-110
1.84600	-109
1.84967	-109
1.85333	-108
1.85700	-108
1.86067	-107
1.86433	-107
1.86800	-107
1.87167	-108
1.87533	-108
1.87900	-108
1.88267	-108
1.88633	-109
1.89000	-109
1.89367	-109
1.89733	-109
1.90100	-108
1.90467	-108
1.90833	-108
1.91200	-107
1.91567	-106
1.91933	-105
1.92300	-105
1.92667	-105
1.93033	-105
1.93400	-105
1.93767	-105
1.94133	-104
1.94500	-104
1.94867	-104
1.95233	-104
1.95600	-104
1.95967	-104
1.96333	-104
1.96700	-103
1.97067	-103
1.97433	-103
1.97800	-103
1.98167	-103
1.98533	-103
1.98900	-102
1.99267	-102
1.99633	-101
2.00000	-101
2.00367	-100
2.00733	-100
2.01100	-100
2.01467	-99
2.01833	-100
2.02200	-100
2.02567	-100
2.02933	-100
2.03300	-100
2.03667	-100
2.04033	-100
2.04400	-99
2.04767	-99
2.05133	-98
2.05500	-97
2.05867	-96
2.06233	-96
2.06600	-95
2.06967	-95
2.07333	-95
2.07700	-95
2.08067	-95
2.08433	-95
2.08800	-95
2.09167	-94
2.09533	-94
2.09900	-94
2.10267	-93
2.10633	-93
2.11000	-92
2.11367	-92
2.11733	-92
2.12100	-91
2.12467	-91
2.12833	-91
2.13200	-91
2.13567	-91
2.13933	-90
2.14300	-90
2.14667	-90
2.15033	-89
2.15400	-89
2.15767	-88
2.16133	-88
2.16500	-87
2.16867	-87
2.17233	-86
2.17600	-85
2.17967	-85
2.18333	-84
2.18700	-84
2.19067	-84
2.19433	-85
2.19800	-85
2.20167	-86
2.20533	-86
2.20900	-86
2.21267	-85
2.21633	-85
2.22000	-85
2.22367	-84
2.22733	-84
2.23100	-83
2.23467	-83
2.23833	-82
2.24200	-82
2.24567	-82
2.24933	-81
2.25300	-81
2.25667	-81
2.26033	-80
2.26400	-79
2.26767	-79
2.27133	-78
2.27500	-78
2.27867	-78
2.28233	-78
2.28600	-79
2.28967	-80
2.29333	-81
2.29700	-82
2.30067	-82
2.30433	-82
2.30800	-81
2.31167	-80
2.31533	-78
2.31900	-77
2.32267	-76
2.32633	-75
2.33000	-75
2.33367	-75
2.33733	-75
2.34100	-75
2.34467	-75
2.34833	-75
2.35200	-74
2.35567	-73
2.35933	-72
2.36300	-71
2.36667	-68
2.37033	-66
2.37400	-63
2.37767	-59
2.38133	-55
2.38500	-51
2.38867	-47
2.39233	-43
2.39600	-38
2.39967	-34
2.40333	-29
2.40700	-25
2.41067	-21
2.41433	-18
2.41800	-15
2.42167	-13
2.42533	-11
2.42900	-9
2.43267	-7
2.43633	-6
2.44000	-4
2.44367	-3
2.44733	-2
2.45100	-0
2.45467	1
2.45833	2
2.46200	3
2.46567	4
2.46933	5
2.47300	6
2.47667	6
2.48033	6
2.48400	7
2.48767	7
2.49133	8
2.49500	8
2.49867	8
2.50233	8
2.50600	8
2.50967	8
2.51333	7
2.51700	7
2.52067	6
2.52433	6
2.52800	6
2.53167	5
2.53533	5
2.53900	5
2.54267	5
2.54633	5
2.55000	5
2.55367	5
2.55733	6
2.56100	7
2.56467	8
2.56833	8
2.57200	9
2.57567	10
2.57933	10
2.58300	11
2.58667	11
2.59033	12
2.59400	12
2.59767	12
2.60133	12
2.60500	12
2.60867	12
2.61233	13
2.61600	14
2.61967	14
2.62333	14
2.62700	14
2.63067	14
2.63433	15
2.63800	15
2.64167	16
2.64533	16
2.64900	17
2.65267	17
2.65633	17
2.66000	18
2.66367	18
2.66733	18
2.67100	18
2.67467	19
2.67833	19
2.68200	19
2.68567	19
2.68933	19
2.69300	20
2.69667	20
2.70033	20
2.70400	20
2.70767	21
2.71133	21
2.71500	22
2.71867	22
2.72233	22
2.72600	22
2.72967	22
2.73333	22
2.73700	22
2.74067	22
2.74433	21
2.74800	21
2.75167	21
2.75533	21
2.75900	21
2.76267	21
2.76633	22
2.77000	22
2.77367	23
2.77733	23
2.78100	23
2.78467	24
2.78833	24
2.79200	24
2.79567	24
2.79933	25
2.80300	25
2.80667	25
2.81033	25
2.81400	26
2.81767	26
2.82133	26
2.82500	26
2.82867	27
2.83233	26
2.83600	26
2.83967	26
2.84333	25
2.84700	25
2.85067	24
2.85433	22
2.85800	20
2.86167	16
2.86533	9
2.86900	-0
2.87267	-14
2.87633	-32
2.88000	-55
2.88367	-83
2.88733	-117
2.89100	-156
2.89467	-199
2.89833	-247
2.90200	-299
2.90567	-355
2.90933	-413
2.91300	-472
2.91667	-534
2.92033	-596
2.92400	-657
2.92767	-718
2.93133	-777
2.93500	-833
2.93867	-886
2.94233	-938
2.94600	-994
2.94967	-1048
2.95333	-1093
2.95700	-1119
2.96067	-1119
2.96433	-1094
2.96800	-1047
2.97167	-983
2.97533	-909
2.97900	-828
2.98267	-746
2.98633	-666
2.99000	-589
2.99367	-518
2.99733	-452
3.00100	-393
3.00467	-339
3.00833	-292
3.01200	-250
3.01567	-214
3.01933	-182
3.02300	-155
3.02667	-131
3.03033	-110
3.03400	-93
3.03767	-78
3.04133	-65
3.04500	-54
3.04867	-45
3.05233	-37
3.05600	-30
3.05967	-24
3.06333	-19
3.06700	-15
3.07067	-11
3.07433	-8
3.07800	-5
3.08167	-3
3.08533	-1
3.08900	1
3.09267	3
3.09633	4
3.10000	5
3.10367	6
3.10733	7
3.11100	8
3.11467	9
3.11833	10
3.12200	11
3.12567	12
3.12933	12
3.13300	13
3.13667	13
3.14033	14
3.14400	14
3.14767	15
3.15133	15
3.15500	15
3.15867	16
3.16233	16
3.16600	16
3.16967	17
3.17333	17
3.17700	17
3.18067	17
3.18433	18
3.18800	18
3.19167	18
3.19533	18
3.19900	18
3.20267	18
3.20633	18
3.21000	18
3.21367	18
3.21733	18
3.22100	18
3.22467	19
3.22833	19
3.23200	19
3.23567	19
3.23933	20
3.24300	20
3.24667	20
3.25033	20
3.25400	20
3.25767	21
3.26133	21
3.26500	21
3.26867	21
3.27233	21
3.27600	21
3.27967	21
3.28333	22
3.28700	22
3.29067	23
3.29433	23
3.29800	23
3.30167	23
3.30533	23
3.30900	23
3.31267	23
3.31633	23
3.32000	23
3.32367	23
3.32733	23
3.33100	23
3.33467	23
3.33833	23
3.34200	23
3.34567	23
3.34933	23
3.35300	23
3.35667	23
3.36033	23
3.36400	24
3.36767	23
3.37133	23
3.37500	23
3.37867	23
3.38233	23
3.38600	23
3.38967	23
3.39333	23
3.39700	23
3.40067	24
3.40433	24
3.40800	24
3.41167	24
3.41533	24
3.41900	24
3.42267	24
3.42633	24
3.43000	24
3.43367	24
3.43733	24
3.44100	24
3.44467	24
3.44833	24
3.45200	24
3.45567	24
3.45933	24
3.46300	24
3.46667	24
3.47033	24
3.47400	23
3.47767	23
3.48133	24
3.48500	24
3.48867	24
3.49233	24
3.49600	25
3.49967	25
3.50333	25
3.50700	25
3.51067	25
3.51433	25
3.51800	25
3.52167	25
3.52533	25
3.52900	25
3.53267	26
3.53633	26
3.54000	26
3.54367	26
3.54733	26
3.55100	25
3.55467	25
3.55833	25
3.56200	25
3.56567	24
3.56933	24
3.57300	25
3.57667	25
3.58033	25
3.58400	25
3.58767	25
3.59133	25
3.59500	25
3.59867	25
3.60233	25
3.60600	25
3.60967	25
3.61333	25
3.61700	25
3.62067	25
3.62433	25
3.62800	25
3.63167	25
3.63533	25
3.63900	25
3.64267	26
3.64633	26
3.65000	26
3.65367	26
3.65733	26
3.66100	26
3.66467	25
3.66833	25
3.67200	25
3.67567	25
3.67933	24
3.68300	24
3.68667	24
3.69033	24
3.69400	24
3.69767	23
3.70133	23
3.70500	23
3.70867	23
3.71233	23
3.71600	23
3.71967	23
3.72333	24
3.72700	24
3.73067	24
3.73433	24
3.73800	24
3.74167	24
3.74533	24
3.74900	24
3.75267	24
3.75633	25
3.76000	25
3.76367	25
3.76733	25
3.77100	25
3.77467	25
3.77833	25
3.78200	25
3.78567	25
3.78933	25
3.79300	25
3.79667	25
3.80033	25
3.80400	25
3.80767	25
3.81133	25
3.81500	25
3.81867	25
3.82233	26
3.82600	26
3.82967	25
3.83333	25
3.83700	25
3.84067	25
3.84433	25
3.84800	25
3.85167	25
3.85533	25
3.85900	25
3.86267	25
3.86633	25
3.87000	25
3.87367	25
3.87733	24
3.88100	24
3.88467	24
3.88833	24
3.89200	25
3.89567	25
3.89933	25
3.90300	25
3.90667	25
3.91033	25
3.91400	25
3.91767	25
3.92133	25
3.92500	25
3.92867	25
3.93233	25
3.93600	25
3.93967	25
3.94333	25
3.94700	25
3.95067	26
3.95433	26
3.95800	26
3.96167	26
3.96533	26
3.96900	26
3.97267	26
3.97633	26
3.98000	26
3.98367	26
3.98733	26
3.99100	26
3.99467	26
3.99833	26

[Chromatogram (Ch3)]
Interval(msec)	220
# of Points	1091
Start Time(min)	0.002
End Time(min)	3.998
R.Time (min)	Intensity
0.00167	1
0.00533	2
0.00900	4
0.01267	2
0.01633	1
0.02000	1
0.02367	2
0.02733	3
0.03100	3
0.03467	3
0.03833	5
0.04200	6
0.04567	6
0.04933	6
0.05300	8
0.05667	8
0.06033	7
0.06400	5
0.06767	5
0.07133	5
0.07500	5
0.07867	7
0.08233	9
0.08600	8
0.08967	5
0.09333	3
0.09700	-1
0.10067	-3
0.10433	-0
0.10800	3
0.11167	4
0.11533	3
0.11900	3
0.12267	2
0.12633	1
0.13000	1
0.13367	1
0.13733	1
0.14100	2
0.14467	1
0.14833	-0
0.15200	-1
0.15567	-2
0.15933	-1
0.16300	1
0.16667	2
0.17033	1
0.17400	-2
0.17767	-2
0.18133	0
0.18500	1
0.18867	0
0.19233	-1
0.19600	-1
0.19967	1
0.20333	1
0.20700	-1
0.21067	-2
0.21433	-2
0.21800	2
0.22167	4
0.22533	3
0.22900	3
0.23267	3
0.23633	4
0.24000	6
0.24367	7
0.24733	7
0.25100	3
0.25467	1
0.25833	1
0.26200	3
0.26567	3
0.26933	6
0.27300	9
0.27667	9
0.28033	7
0.28400	7
0.28767	7
0.29133	5
0.29500	3
0.29867	2
0.30233	4
0.30600	7
0.30967	9
0.31333	11
0.31700	11
0.32067	11
0.32433	8
0.32800	6
0.33167	7
0.33533	8
0.33900	10
0.34267	11
0.34633	9
0.35000	7
0.35367	8
0.35733	6
0.36100	5
0.36467	7
0.36833	8
0.37200	10
0.37567	11
0.37933	12
0.38300	12
0.38667	11
0.39033	9
0.39400	7
0.39767	8
0.40133	9
0.40500	9
0.40867	7
0.41233	5
0.41600	5
0.41967	7
0.42333	9
0.42700	9
0.43067	6
0.43433	6
0.43800	7
0.44167	9
0.44533	11
0.44900	13
0.45267	14
0.45633	13
0.46000	12
0.46367	13
0.46733	11
0.47100	10
0.47467	11
0.47833	10
0.48200	10
0.48567	10
0.48933	9
0.49300	8
0.49667	10
0.50033	12
0.50400	15
0.50767	14
0.51133	12
0.51500	9
0.51867	6
0.52233	6
0.52600	8
0.52967	9
0.53333	9
0.53700	5
0.54067	3
0.54433	5
0.54800	6
0.55167	7
0.55533	8
0.55900	8
0.56267	8
0.56633	8
0.57000	10
0.57367	12
0.57733	10
0.58100	9
0.58467	9
0.58833	9
0.59200	11
0.59567	12
0.59933	13
0.60300	14
0.60667	15
0.61033	14
0.61400	15
0.61767	14
0.62133	13
0.62500	14
0.62867	13
0.63233	12
0.63600	13
0.63967	15
0.64333	14
0.64700	14
0.65067	12
0.65433	11
0.65800	14
0.66167	16
0.66533	18
0.66900	18
0.67267	16
0.67633	15
0.68000	14
0.68367	12
0.68733	11
0.69100	11
0.69467	10
0.69833	9
0.70200	8
0.70567	6
0.70933	6
0.71300	6
0.71667	8
0.72033	9
0.72400	12
0.72767	17
0.73133	19
0.73500	18
0.73867	15
0.74233	14
0.74600	13
0.74967	13
0.75333	13
0.75700	13
0.76067	12
0.76433	11
0.76800	12
0.77167	14
0.77533	15
0.77900	17
0.78267	17
0.78633	16
0.79000	15
0.79367	14
0.79733	15
0.80100	17
0.80467	19
0.80833	18
0.81200	16
0.81567	14
0.81933	11
0.82300	10
0.82667	8
0.83033	8
0.83400	9
0.83767	10
0.84133	12
0.84500	13
0.84867	14
0.85233	15
0.85600	18
0.85967	18
0.86333	17
0.86700	16
0.87067	15
0.87433	15
0.87800	15
0.88167	15
0.88533	16
0.88900	17
0.89267	16
0.89633	15
0.90000	15
0.90367	15
0.90733	15
0.91100	14
0.91467	13
0.91833	14
0.92200	14
0.92567	15
0.92933	18
0.93300	22
0.93667	23
0.94033	22
0.94400	20
0.94767	19
0.95133	20
0.95500	22
0.95867	23
0.96233	22
0.96600	19
0.96967	16
0.97333	16
0.97700	17
0.98067	17
0.98433	17
0.98800	18
0.99167	18
0.99533	18
0.99900	18
1.00267	18
1.00633	18
1.01000	19
1.01367	20
1.01733	20
1.02100	17
1.02467	17
1.02833	18
1.03200	18
1.03567	18
1.03933	17
1.04300	16
1.04667	17
1.05033	18
1.05400	19
1.05767	20
1.06133	20
1.06500	19
1.06867	18
1.07233	18
1.07600	18
1.07967	18
1.08333	17
1.08700	18
1.09067	18
1.09433	15
1.09800	15
1.10167	16
1.10533	18
1.10900	19
1.11267	20
1.11633	20
1.12000	20
1.12367	19
1.12733	18
1.13100	17
1.13467	16
1.13833	16
1.14200	16
1.14567	17
1.14933	16
1.15300	16
1.15667	16
1.16033	18
1.16400	21
1.16767	22
1.17133	22
1.17500	21
1.17867	20
1.18233	20
1.18600	21
1.18967	21
1.19333	18
1.19700	16
1.20067	15
1.20433	16
1.20800	17
1.21167	19
1.21533	19
1.21900	19
1.22267	20
1.22633	20
1.23000	20
1.23367	21
1.23733	20
1.24100	17
1.24467	16
1.24833	13
1.25200	13
1.25567	13
1.25933	14
1.26300	16
1.26667	17
1.27033	15
1.27400	13
1.27767	14
1.28133	15
1.28500	16
1.28867	17
1.29233	16
1.29600	16
1.29967	16
1.30333	16
1.30700	18
1.31067	19
1.31433	20
1.31800	20
1.32167	19
1.32533	19
1.32900	19
1.33267	20
1.33633	17
1.34000	16
1.34367	15
1.34733	15
1.35100	13
1.35467	13
1.35833	12
1.36200	10
1.36567	10
1.36933	11
1.37300	11
1.37667	13
1.38033	15
1.38400	16
1.38767	17
1.39133	19
1.39500	22
1.39867	21
1.40233	19
1.40600	18
1.40967	16
1.41333	15
1.41700	14
1.42067	13
1.42433	13
1.42800	14
1.43167	14
1.43533	15
1.43900	15
1.44267	17
1.44633	19
1.45000	20
1.45367	20
1.45733	18
1.46100	18
1.46467	16
1.46833	16
1.47200	16
1.47567	15
1.47933	15
1.48300	16
1.48667	16
1.49033	15
1.49400	14
1.49767	14
1.50133	13
1.50500	13
1.50867	12
1.51233	13
1.51600	14
1.51967	14
1.52333	16
1.52700	16
1.53067	17
1.53433	17
1.53800	17
1.54167	17
1.54533	17
1.54900	16
1.55267	14
1.55633	15
1.56000	15
1.56367	14
1.56733	16
1.57100	16
1.57467	14
1.57833	14
1.58200	13
1.58567	14
1.58933	14
1.59300	16
1.59667	18
1.60033	17
1.60400	17
1.60767	15
1.61133	13
1.61500	12
1.61867	12
1.62233	12
1.62600	12
1.62967	14
1.63333	14
1.63700	16
1.64067	19
1.64433	21
1.64800	22
1.65167	22
1.65533	23
1.65900	25
1.66267	24
1.66633	22
1.67000	22
1.67367	24
1.67733	25
1.68100	25
1.68467	27
1.68833	28
1.69200	28
1.69567	25
1.69933	23
1.70300	21
1.70667	20
1.71033	21
1.71400	23
1.71767	25
1.72133	27
1.72500	26
1.72867	25
1.73233	24
1.73600	24
1.73967	22
1.74333	21
1.74700	25
1.75067	28
1.75433	28
1.75800	27
1.76167	28
1.76533	29
1.76900	30
1.77267	30
1.77633	30
1.78000	32
1.78367	36
1.78733	37
1.79100	38
1.79467	38
1.79833	39
1.80200	39
1.80567	39
1.80933	39
1.81300	40
1.81667	41
1.82033	41
1.82400	40
1.82767	40
1.83133	39
1.83500	39
1.83867	41
1.84233	43
1.84600	42
1.84967	42
1.85333	42
1.85700	42
1.86067	42
1.86433	43
1.86800	44
1.87167	46
1.87533	47
1.87900	47
1.88267	47
1.88633	47
1.89000	48
1.89367	51
1.89733	55
1.90100	57
1.90467	56
1.90833	54
1.91200	53
1.91567	54
1.91933	55
1.92300	53
1.92667	53
1.93033	56
1.93400	60
1.93767	61
1.94133	61
1.94500	61
1.94867	63
1.95233	63
1.95600	61
1.95967	60
1.96333	63
1.96700	65
1.97067	67
1.97433	68
1.97800	68
1.98167	68
1.98533	68
1.98900	68
1.99267	70
1.99633	72
2.00000	76
2.00367	79
2.00733	80
2.01100	80
2.01467	79
2.01833	78
2.02200	80
2.02567	81
2.02933	82
2.03300	83
2.03667	83
2.04033	83
2.04400	82
2.04767	83
2.05133	85
2.05500	87
2.05867	87
2.06233	89
2.06600	91
2.06967	91
2.07333	92
2.07700	94
2.08067	93
2.08433	95
2.08800	94
2.09167	94
2.09533	94
2.09900	97
2.10267	99
2.10633	99
2.11000	103
2.11367	106
2.11733	107
2.12100	107
2.12467	106
2.12833	106
2.13200	105
2.13567	104
2.13933	103
2.14300	105
2.14667	106
2.15033	105
2.15400	106
2.15767	107
2.16133	107
2.16500	109
2.16867	112
2.17233	114
2.17600	115
2.17967	115
2.18333	118
2.18700	121
2.19067	122
2.19433	124
2.19800	126
2.20167	126
2.20533	127
2.20900	129
2.21267	129
2.21633	128
2.22000	127
2.22367	127
2.22733	129
2.23100	130
2.23467	130
2.23833	129
2.24200	131
2.24567	132
2.24933	133
2.25300	131
2.25667	132
2.26033	135
2.26400	136
2.26767	135
2.27133	135
2.27500	138
2.27867	140
2.28233	141
2.28600	142
2.28967	144
2.29333	145
2.29700	147
2.30067	148
2.30433	150
2.30800	150
2.31167	151
2.31533	148
2.31900	146
2.32267	145
2.32633	147
2.33000	149
2.33367	151
2.33733	155
2.34100	157
2.34467	158
2.34833	160
2.35200	160
2.35567	160
2.35933	159
2.36300	157
2.36667	156
2.37033	156
2.37400	156
2.37767	155
2.38133	154
2.38500	153
2.38867	152
2.39233	152
2.39600	155
2.39967	157
2.40333	156
2.40700	152
2.41067	151
2.41433	152
2.41800	151
2.42167	151
2.42533	152
2.42900	153
2.43267	154
2.43633	156
2.44000	159
2.44367	192
2.44733	258
2.45100	325
2.45467	375
2.45833	394
2.46200	392
2.46567	387
2.46933	382
2.47300	372
2.47667	354
2.48033	333
2.48400	310
2.48767	288
2.49133	271
2.49500	259
2.49867	253
2.50233	255
2.50600	259
2.50967	262
2.51333	262
2.51700	261
2.52067	256
2.52433	250
2.52800	241
2.53167	230
2.53533	218
2.53900	205
2.54267	197
2.54633	189
2.55000	184
2.55367	182
2.55733	180
2.56100	176
2.56467	175
2.56833	176
2.57200	177
2.57567	177
2.57933	180
2.58300	182
2.58667	188
2.59033	194
2.59400	200
2.59767	207
2.60133	214
2.60500	221
2.60867	223
2.61233	223
2.61600	219
2.61967	215
2.62333	208
2.62700	201
2.63067	194
2.63433	186
2.63800	178
2.64167	167
2.64533	158
2.64900	151
2.65267	146
2.65633	142
2.66000	139
2.66367	136
2.66733	133
2.67100	131
2.67467	131
2.67833	132
2.68200	132
2.68567	132
2.68933	132
2.69300	133
2.69667	134
2.70033	135
2.70400	137
2.70767	140
2.71133	141
2.71500	144
2.71867	148
2.72233	148
2.72600	147
2.72967	148
2.73333	151
2.73700	154
2.74067	156
2.74433	158
2.74800	159
2.75167	159
2.75533	159
2.75900	159
2.76267	160
2.76633	164
2.77000	168
2.77367	172
2.77733	175
2.78100	177
2.78467	177
2.78833	181
2.79200	185
2.79567	188
2.79933	192
2.80300	194
2.80667	196
2.81033	195
2.81400	194
2.81767	194
2.82133	193
2.82500	195
2.82867	198
2.83233	207
2.83600	228
2.83967	272
2.84333	357
2.84700	504
2.85067	734
2.85433	1060
2.85800	1482
2.86167	1988
2.86533	2546
2.86900	3110
2.87267	3635
2.87633	4073
2.88000	4394
2.88367	4579
2.88733	4627
2.89100	4551
2.89467	4375
2.89833	4125
2.90200	3828
2.90567	3505
2.90933	3173
2.91300	2849
2.91667	2545
2.92033	2265
2.92400	2008
2.92767	1776
2.93133	1567
2.93500	1381
2.93867	1219
2.94233	1077
2.94600	953
2.94967	846
2.95333	754
2.95700	675
2.96067	606
2.96433	547
2.96800	495
2.97167	447
2.97533	406
2.97900	375
2.98267	354
2.98633	343
2.99000	337
2.99367	338
2.99733	349
3.00100	370
3.00467	398
3.00833	428
3.01200	459
3.01567	490
3.01933	519
3.02300	547
3.02667	572
3.03033	595
3.03400	614
3.03767	630
3.04133	643
3.04500	652
3.04867	661
3.05233	669
3.05600	675
3.05967	679
3.06333	682
3.06700	688
3.07067	692
3.07433	693
3.07800	695
3.08167	698
3.08533	700
3.08900	701
3.09267	702
3.09633	703
3.10000	703
3.10367	707
3.10733	713
3.11100	716
3.11467	719
3.11833	719
3.12200	719
3.12567	722
3.12933	726
3.13300	730
3.13667	733
3.14033	734
3.14400	733
3.14767	730
3.15133	729
3.15500	731
3.15867	731
3.16233	732
3.16600	736
3.16967	738
3.17333	741
3.17700	742
3.18067	742
3.18433	741
3.18800	739
3.19167	738
3.19533	739
3.19900	741
3.20267	743
3.20633	745
3.21000	746
3.21367	747
3.21733	750
3.22100	750
3.22467	748
3.22833	746
3.23200	746
3.23567	745
3.23933	743
3.24300	742
3.24667	741
3.25033	740
3.25400	739
3.25767	738
3.26133	735
3.26500	731
3.26867	729
3.27233	728
3.27600	725
3.27967	723
3.28333	720
3.28700	718
3.29067	715
3.29433	713
3.29800	710
3.30167	708
3.30533	708
3.30900	708
3.31267	709
3.31633	707
3.32000	701
3.32367	696
3.32733	694
3.33100	691
3.33467	687
3.33833	682
3.34200	680
3.34567	676
3.34933	672
3.35300	670
3.35667	668
3.36033	668
3.36400	666
3.36767	664
3.37133	660
3.37500	659
3.37867	657
3.38233	654
3.38600	653
3.38967	651
3.39333	649
3.39700	645
3.40067	640
3.40433	636
3.40800	634
3.41167	632
3.41533	631
3.41900	630
3.42267	633
3.42633	632
3.43000	632
3.43367	631
3.43733	630
3.44100	628
3.44467	625
3.44833	620
3.45200	616
3.45567	614
3.45933	613
3.46300	613
3.46667	614
3.47033	611
3.47400	607
3.47767	604
3.48133	601
3.48500	599
3.48867	599
3.49233	599
3.49600	598
3.49967	597
3.50333	594
3.50700	590
3.51067	585
3.51433	582
3.51800	580
3.52167	579
3.52533	578
3.52900	576
3.53267	573
3.53633	573
3.54000	571
3.54367	568
3.54733	566
3.55100	563
3.55467	560
3.55833	558
3.56200	556
3.56567	556
3.56933	556
3.57300	557
3.57667	556
3.58033	554
3.58400	553
3.58767	553
3.59133	552
3.59500	551
3.59867	552
3.60233	553
3.60600	552
3.60967	551
3.61333	549
3.61700	546
3.62067	542
3.62433	539
3.62800	537
3.63167	537
3.63533	538
3.63900	538
3.64267	536
3.64633	535
3.65000	534
3.65367	532
3.65733	529
3.66100	529
3.66467	527
3.66833	525
3.67200	525
3.67567	526
3.67933	527
3.68300	526
3.68667	522
3.69033	520
3.69400	517
3.69767	515
3.70133	514
3.70500	515
3.70867	515
3.71233	515
3.71600	515
3.71967	514
3.72333	513
3.72700	510
3.73067	508
3.73433	507
3.73800	505
3.74167	503
3.74533	500
3.74900	498
3.75267	498
3.75633	498
3.76000	496
3.76367	494
3.76733	495
3.77100	498
3.77467	500
3.77833	500
3.78200	499
3.78567	500
3.78933	501
3.79300	501
3.79667	499
3.80033	496
3.80400	493
3.80767	489
3.81133	488
3.81500	488
3.81867	490
3.82233	490
3.82600	489
3.82967	485
3.83333	481
3.83700	479
3.84067	480
3.84433	483
3.84800	482
3.85167	481
3.85533	480
3.85900	479
3.86267	478
3.86633	476
3.87000	474
3.87367	474
3.87733	473
3.88100	472
3.88467	469
3.88833	465
3.89200	463
3.89567	460
3.89933	458
3.90300	458
3.90667	459
3.91033	461
3.91400	463
3.91767	463
3.92133	465
3.92500	464
3.92867	462
3.93233	459
3.93600	459
3.93967	457
3.94333	453
3.94700	451
3.95067	450
3.95433	451
3.95800	451
3.96167	451
3.96533	448
3.96900	445
3.97267	444
3.97633	442
3.98000	443
3.98367	445
3.98733	447
3.99100	446
3.99467	443
3.99833	439

[Status Trace (Column Oven Temperature)]
Interval(msec)	1000
# of Points	240
Start Time(min)	0.003
End Time(min)	3.986
Intensity Units	
Intensity Multiplier	1
R.Time (min)	Intensity
0.00270	35.06
0.01937	35.05
0.03603	35.03
0.05270	35.03
0.06937	35.04
0.08603	35.04
0.10270	35.04
0.11937	35.05
0.13603	35.04
0.15270	35.03
0.16937	35.03
0.18603	35.03
0.20270	35.02
0.21937	35.00
0.23603	34.98
0.25270	34.97
0.26937	34.96
0.28603	34.96
0.30270	34.96
0.31937	34.97
0.33603	34.96
0.35270	34.97
0.36937	34.98
0.38603	34.99
0.40270	34.99
0.41937	34.99
0.43603	34.99
0.45270	34.98
0.46937	34.98
0.48603	34.98
0.50270	34.99
0.51937	34.99
0.53603	34.98
0.55270	34.98
0.56937	34.99
0.58603	35.00
0.60270	35.00
0.61937	34.99
0.63603	34.98
0.65270	34.98
0.66937	34.98
0.68603	34.99
0.70270	34.99
0.71937	35.00
0.73603	35.00
0.75270	35.00
0.76937	35.00
0.78603	35.00
0.80270	35.01
0.81937	35.00
0.83603	35.00
0.85270	35.00
0.86937	34.99
0.88603	35.00
0.90270	35.00
0.91937	34.99
0.93603	34.99
0.95270	34.99
0.96937	34.99
0.98603	34.99
1.00270	34.98
1.01937	34.99
1.03603	35.00
1.05270	35.01
1.06937	35.01
1.08603	35.01
1.10270	35.02
1.11937	35.01
1.13603	35.02
1.15270	35.02
1.16937	35.01
1.18603	35.02
1.20270	35.03
1.21937	35.04
1.23603	35.04
1.25270	35.02
1.26937	35.00
1.28603	34.99
1.30270	34.98
1.31937	34.98
1.33603	34.99
1.35270	34.98
1.36937	34.99
1.38603	34.99
1.40270	34.99
1.41937	35.00
1.43603	35.01
1.45270	35.00
1.46937	35.01
1.48603	35.01
1.50270	35.02
1.51937	35.01
1.53603	35.00
1.55270	35.00
1.56937	35.00
1.58603	34.99
1.60270	35.02
1.61937	35.13
1.63603	35.30
1.65270	35.52
1.66937	35.82
1.68603	36.20
1.70270	36.56
1.71937	36.90
1.73603	37.21
1.75270	37.54
1.76937	37.88
1.78603	38.22
1.80270	38.55
1.81937	38.89
1.83603	39.22
1.85270	39.54
1.86937	39.87
1.88603	40.21
1.90270	40.54
1.91937	40.85
1.93603	41.19
1.95270	41.50
1.96937	41.82
1.98603	42.17
2.00270	42.47
2.01937	42.82
2.03603	43.14
2.05270	43.44
2.06937	43.78
2.08603	44.11
2.10270	44.42
2.11937	44.74
2.13603	45.06
2.15270	45.39
2.16937	45.71
2.18603	46.03
2.20270	46.37
2.21937	46.72
2.23603	47.04
2.25270	47.38
2.26937	47.69
2.28603	48.04
2.30270	48.39
2.31937	48.69
2.33603	49.04
2.35270	49.35
2.36937	49.56
2.38603	49.63
2.40270	49.63
2.41937	49.63
2.43603	49.66
2.45270	49.65
2.46937	49.67
2.48603	49.69
2.50270	49.71
2.51937	49.72
2.53603	49.73
2.55270	49.75
2.56937	49.77
2.58603	49.77
2.60270	49.79
2.61937	49.81
2.63603	49.82
2.65270	49.83
2.66937	49.83
2.68603	49.85
2.70270	49.85
2.71937	49.84
2.73603	49.86
2.75270	49.88
2.76937	49.88
2.78603	49.87
2.80270	49.87
2.81937	49.85
2.83603	49.85
2.85270	49.88
2.86937	49.89
2.88603	49.91
2.90270	49.92
2.91937	49.92
2.93603	49.93
2.95270	49.95
2.96937	49.96
2.98603	49.96
3.00270	49.96
3.01937	49.96
3.03603	49.97
3.05270	49.98
3.06937	50.00
3.08603	50.01
3.10270	50.02
3.11937	50.02
3.13603	50.03
3.15270	50.03
3.16937	50.03
3.18603	50.03
3.20270	50.03
3.21937	50.04
3.23603	50.04
3.25270	50.04
3.26937	50.06
3.28603	50.06
3.30270	50.06
3.31937	50.07
3.33603	50.07
3.35270	50.08
3.36937	50.09
3.38603	50.09
3.40270	50.09
3.41937	50.10
3.43603	50.10
3.45270	50.10
3.46937	50.10
3.48603	50.10
3.50270	50.09
3.51937	50.08
3.53603	50.08
3.55270	50.08
3.56937	50.08
3.58603	50.08
3.60270	50.08
3.61937	50.07
3.63603	50.06
3.65270	50.06
3.66937	50.06
3.68603	50.07
3.70270	50.08
3.71937	50.08
3.73603	50.08
3.75270	50.08
3.76937	50.08
3.78603	50.08
3.80270	50.07
3.81937	50.06
3.83603	50.06
3.85270	50.07
3.86937	50.07
3.88603	50.08
3.90270	50.07
3.91937	50.07
3.93603	50.06
3.95270	50.05
3.96937	50.05
3.98603	50.04

[Status Trace (Injection Unit Temperature)]
Interval(msec)	1000
# of Points	240
Start Time(min)	0.003
End Time(min)	3.986
Intensity Units	
Intensity Multiplier	1
R.Time (min)	Intensity
0.00270	99.98
0.01937	99.98
0.03603	99.98
0.05270	99.98
0.06937	99.98
0.08603	99.98
0.10270	99.98
0.11937	99.98
0.13603	99.98
0.15270	99.98
0.16937	99.98
0.18603	99.98
0.20270	99.99
0.21937	99.99
0.23603	99.99
0.25270	99.98
0.26937	99.98
0.28603	99.98
0.30270	99.99
0.31937	99.98
0.33603	99.98
0.35270	99.99
0.36937	99.99
0.38603	99.99
0.40270	99.99
0.41937	99.98
0.43603	99.99
0.45270	99.99
0.46937	99.99
0.48603	99.98
0.50270	99.98
0.51937	99.98
0.53603	99.98
0.55270	99.98
0.56937	99.98
0.58603	99.98
0.60270	99.98
0.61937	99.98
0.63603	99.98
0.65270	99.98
0.66937	99.98
0.68603	99.98
0.70270	99.98
0.71937	99.98
0.73603	99.97
0.75270	99.98
0.76937	99.98
0.78603	99.98
0.80270	99.98
0.81937	99.98
0.83603	99.98
0.85270	99.98
0.86937	99.98
0.88603	99.98
0.90270	99.98
0.91937	99.98
0.93603	99.98
0.95270	99.98
0.96937	99.97
0.98603	99.98
1.00270	99.97
1.01937	99.98
1.03603	99.98
1.05270	99.98
1.06937	99.98
1.08603	99.98
1.10270	99.98
1.11937	99.98
1.13603	99.98
1.15270	99.99
1.16937	99.98
1.18603	99.98
1.20270	99.98
1.21937	99.98
1.23603	99.98
1.25270	99.98
1.26937	99.98
1.28603	99.99
1.30270	99.98
1.31937	99.98
1.33603	99.98
1.35270	99.98
1.36937	99.99
1.38603	99.99
1.40270	99.98
1.41937	99.98
1.43603	99.98
1.45270	99.99
1.46937	99.99
1.48603	99.99
1.50270	99.99
1.51937	99.99
1.53603	99.99
1.55270	99.99
1.56937	99.99
1.58603	99.98
1.60270	99.99
1.61937	99.99
1.63603	99.98
1.65270	99.99
1.66937	99.99
1.68603	99.99
1.70270	99.99
1.71937	99.98
1.73603	99.98
1.75270	99.99
1.76937	99.98
1.78603	99.99
1.80270	99.99
1.81937	99.98
1.83603	99.98
1.85270	99.99
1.86937	99.99
1.88603	99.98
1.90270	99.98
1.91937	99.98
1.93603	99.98
1.95270	99.98
1.96937	99.98
1.98603	99.98
2.00270	99.98
2.01937	99.98
2.03603	99.97
2.05270	99.98
2.06937	99.97
2.08603	99.97
2.10270	99.97
2.11937	99.97
2.13603	99.97
2.15270	99.97
2.16937	99.97
2.18603	99.97
2.20270	99.97
2.21937	99.96
2.23603	99.96
2.25270	99.96
2.26937	99.96
2.28603	99.96
2.30270	99.96
2.31937	99.96
2.33603	99.96
2.35270	99.96
2.36937	99.96
2.38603	99.96
2.40270	99.96
2.41937	99.96
2.43603	99.96
2.45270	99.96
2.46937	99.96
2.48603	99.96
2.50270	99.96
2.51937	99.96
2.53603	99.96
2.55270	99.97
2.56937	99.96
2.58603	99.97
2.60270	99.97
2.61937	99.97
2.63603	99.97
2.65270	99.97
2.66937	99.97
2.68603	99.97
2.70270	99.98
2.71937	99.97
2.73603	99.98
2.75270	99.98
2.76937	99.98
2.78603	99.98
2.80270	99.99
2.81937	99.99
2.83603	99.99
2.85270	99.99
2.86937	99.99
2.88603	100.00
2.90270	100.00
2.91937	100.00
2.93603	100.00
2.95270	100.01
2.96937	100.01
2.98603	100.01
3.00270	100.01
3.01937	100.01
3.03603	100.01
3.05270	100.01
3.06937	100.01
3.08603	100.02
3.10270	100.02
3.11937	100.02
3.13603	100.02
3.15270	100.02
3.16937	100.03
3.18603	100.03
3.20270	100.03
3.21937	100.03
3.23603	100.03
3.25270	100.03
3.26937	100.04
3.28603	100.03
3.30270	100.04
3.31937	100.04
3.33603	100.04
3.35270	100.04
3.36937	100.04
3.38603	100.04
3.40270	100.04
3.41937	100.04
3.43603	100.04
3.45270	100.04
3.46937	100.05
3.48603	100.04
3.50270	100.05
3.51937	100.05
3.53603	100.05
3.55270	100.05
3.56937	100.05
3.58603	100.05
3.60270	100.05
3.61937	100.05
3.63603	100.05
3.65270	100.05
3.66937	100.05
3.68603	100.05
3.70270	100.05
3.71937	100.05
3.73603	100.05
3.75270	100.05
3.76937	100.05
3.78603	100.05
3.80270	100.05
3.81937	100.05
3.83603	100.05
3.85270	100.05
3.86937	100.05
3.88603	100.05
3.90270	100.05
3.91937	100.05
3.93603	100.05
3.95270	100.05
3.96937	100.05
3.98603	100.05

[Status Trace (Carrier Gas Pressure)]
Interval(msec)	1000
# of Points	240
Start Time(min)	0.003
End Time(min)	3.986
Intensity Units	
Intensity Multiplier	1
R.Time (min)	Intensity
0.00270	58.00
0.01937	56.27
0.03603	56.40
0.05270	58.74
0.06937	59.79
0.08603	58.21
0.10270	57.97
0.11937	58.01
0.13603	58.01
0.15270	58.01
0.16937	58.00
0.18603	58.00
0.20270	58.00
0.21937	58.00
0.23603	58.00
0.25270	58.00
0.26937	58.00
0.28603	58.00
0.30270	58.00
0.31937	58.00
0.33603	58.00
0.35270	58.00
0.36937	58.00
0.38603	58.00
0.40270	58.00
0.41937	58.00
0.43603	58.00
0.45270	58.00
0.46937	58.00
0.48603	58.00
0.50270	58.00
0.51937	58.00
0.53603	58.00
0.55270	58.00
0.56937	58.00
0.58603	58.00
0.60270	58.00
0.61937	58.00
0.63603	58.00
0.65270	58.00
0.66937	58.00
0.68603	58.00
0.70270	58.00
0.71937	58.00
0.73603	58.00
0.75270	58.00
0.76937	58.00
0.78603	58.00
0.80270	58.00
0.81937	58.00
0.83603	58.00
0.85270	58.00
0.86937	58.00
0.88603	58.00
0.90270	58.00
0.91937	58.00
0.93603	58.00
0.95270	58.00
0.96937	58.00
0.98603	58.00
1.00270	58.00
1.01937	58.00
1.03603	58.00
1.05270	58.00
1.06937	58.00
1.08603	58.00
1.10270	58.00
1.11937	58.00
1.13603	58.00
1.15270	58.00
1.16937	58.00
1.18603	58.00
1.20270	58.00
1.21937	58.00
1.23603	58.00
1.25270	58.00
1.26937	58.00
1.28603	58.00
1.30270	58.00
1.31937	58.00
1.33603	58.00
1.35270	58.00
1.36937	58.00
1.38603	58.00
1.40270	58.00
1.41937	58.00
1.43603	58.00
1.45270	58.00
1.46937	58.00
1.48603	58.00
1.50270	58.00
1.51937	58.00
1.53603	58.00
1.55270	58.00
1.56937	58.00
1.58603	58.00
1.60270	58.00
1.61937	58.00
1.63603	58.00
1.65270	58.00
1.66937	58.01
1.68603	58.01
1.70270	58.00
1.71937	58.00
1.73603	58.00
1.75270	58.00
1.76937	58.00
1.78603	58.00
1.80270	58.00
1.81937	58.00
1.83603	58.00
1.85270	58.00
1.86937	58.00
1.88603	58.00
1.90270	58.00
1.91937	58.00
1.93603	58.00
1.95270	58.00
1.96937	58.00
1.98603	58.00
2.00270	58.00
2.01937	58.00
2.03603	58.00
2.05270	58.00
2.06937	58.00
2.08603	58.00
2.10270	58.00
2.11937	58.00
2.13603	58.00
2.15270	58.00
2.16937	58.00
2.18603	58.00
2.20270	58.00
2.21937	58.00
2.23603	58.00
2.25270	58.00
2.26937	58.00
2.28603	58.00
2.30270	58.00
2.31937	58.00
2.33603	58.00
2.35270	58.00
2.36937	58.00
2.38603	57.99
2.40270	57.99
2.41937	58.00
2.43603	58.00
2.45270	58.00
2.46937	58.00
2.48603	58.00
2.50270	57.96
2.51937	58.03
2.53603	57.99
2.55270	58.00
2.56937	58.00
2.58603	58.00
2.60270	58.00
2.61937	58.00
2.63603	58.00
2.65270	58.00
2.66937	58.00
2.68603	58.00
2.70270	58.00
2.71937	58.00
2.73603	58.00
2.75270	58.00
2.76937	58.00
2.78603	58.00
2.80270	58.00
2.81937	58.00
2.83603	58.00
2.85270	58.00
2.86937	58.00
2.88603	58.00
2.90270	58.00
2.91937	58.00
2.93603	58.00
2.95270	58.00
2.96937	58.00
2.98603	58.00
3.00270	58.00
3.01937	58.00
3.03603	58.00
3.05270	58.00
3.06937	58.00
3.08603	58.00
3.10270	58.00
3.11937	58.00
3.13603	58.00
3.15270	58.00
3.16937	58.00
3.18603	58.00
3.20270	58.00
3.21937	58.00
3.23603	58.00
3.25270	58.00
3.26937	58.00
3.28603	58.00
3.30270	58.00
3.31937	58.00
3.33603	58.00
3.35270	58.00
3.36937	58.00
3.38603	58.00
3.40270	58.00
3.41937	58.00
3.43603	58.00
3.45270	58.00
3.46937	58.00
3.48603	58.00
3.50270	58.00
3.51937	58.00
3.53603	58.00
3.55270	58.00
3.56937	58.00
3.58603	58.00
3.60270	58.00
3.61937	58.00
3.63603	58.00
3.65270	58.00
3.66937	58.00
3.68603	58.00
3.70270	58.00
3.71937	58.00
3.73603	58.00
3.75270	58.00
3.76937	58.00
3.78603	58.00
3.80270	58.00
3.81937	58.00
3.83603	58.00
3.85270	58.00
3.86937	58.00
3.88603	58.00
3.90270	58.00
3.91937	58.00
3.93603	58.00
3.95270	58.00
3.96937	58.00
3.98603	58.00

[Status Trace (Carrier Gas Flow)]
Interval(msec)	1000
# of Points	240
Start Time(min)	0.003
End Time(min)	3.986
Intensity Units	
Intensity Multiplier	1
R.Time (min)	Intensity
0.00270	34.52
0.01937	34.58
0.03603	34.54
0.05270	34.54
0.06937	34.50
0.08603	34.51
0.10270	34.51
0.11937	34.52
0.13603	34.52
0.15270	34.52
0.16937	34.52
0.18603	34.52
0.20270	34.52
0.21937	34.51
0.23603	34.51
0.25270	34.53
0.26937	34.52
0.28603	34.51
0.30270	34.52
0.31937	34.52
0.33603	34.52
0.35270	34.52
0.36937	34.52
0.38603	34.52
0.40270	34.52
0.41937	34.51
0.43603	34.52
0.45270	34.52
0.46937	34.52
0.48603	34.52
0.50270	34.52
0.51937	34.52
0.53603	34.52
0.55270	34.52
0.56937	34.52
0.58603	34.52
0.60270	34.52
0.61937	34.52
0.63603	34.52
0.65270	34.52
0.66937	34.52
0.68603	34.52
0.70270	34.52
0.71937	34.52
0.73603	34.51
0.75270	34.52
0.76937	34.52
0.78603	34.52
0.80270	34.52
0.81937	34.52
0.83603	34.52
0.85270	34.52
0.86937	34.52
0.88603	34.52
0.90270	34.52
0.91937	34.52
0.93603	34.52
0.95270	34.52
0.96937	34.52
0.98603	34.52
1.00270	34.52
1.01937	34.52
1.03603	34.51
1.05270	34.51
1.06937	34.52
1.08603	34.52
1.10270	34.52
1.11937	34.52
1.13603	34.52
1.15270	34.52
1.16937	34.52
1.18603	34.51
1.20270	34.52
1.21937	34.52
1.23603	34.52
1.25270	34.52
1.26937	34.52
1.28603	34.52
1.30270	34.52
1.31937	34.52
1.33603	34.52
1.35270	34.52
1.36937	34.51
1.38603	34.52
1.40270	34.52
1.41937	34.52
1.43603	34.53
1.45270	34.52
1.46937	34.53
1.48603	34.52
1.50270	34.52
1.51937	34.52
1.53603	34.52
1.55270	34.52
1.56937	34.53
1.58603	34.52
1.60270	34.53
1.61937	34.52
1.63603	34.52
1.65270	34.52
1.66937	34.52
1.68603	34.52
1.70270	34.52
1.71937	34.52
1.73603	34.52
1.75270	34.51
1.76937	34.52
1.78603	34.52
1.80270	34.52
1.81937	34.52
1.83603	34.51
1.85270	34.52
1.86937	34.51
1.88603	34.52
1.90270	34.52
1.91937	34.51
1.93603	34.52
1.95270	34.52
1.96937	34.51
1.98603	34.51
2.00270	34.52
2.01937	34.52
2.03603	34.52
2.05270	34.52
2.06937	34.52
2.08603	34.52
2.10270	34.52
2.11937	34.52
2.13603	34.51
2.15270	34.52
2.16937	34.51
2.18603	34.52
2.20270	34.52
2.21937	34.52
2.23603	34.52
2.25270	34.52
2.26937	34.52
2.28603	34.52
2.30270	34.52
2.31937	34.53
2.33603	34.52
2.35270	34.52
2.36937	34.52
2.38603	34.52
2.40270	34.51
2.41937	34.51
2.43603	34.52
2.45270	34.53
2.46937	34.52
2.48603	34.51
2.50270	34.69
2.51937	34.52
2.53603	34.51
2.55270	34.52
2.56937	34.52
2.58603	34.52
2.60270	34.52
2.61937	34.52
2.63603	34.52
2.65270	34.52
2.66937	34.51
2.68603	34.52
2.70270	34.52
2.71937	34.52
2.73603	34.52
2.75270	34.52
2.76937	34.52
2.78603	34.52
2.80270	34.52
2.81937	34.52
2.83603	34.52
2.85270	34.52
2.86937	34.52
2.88603	34.52
2.90270	34.53
2.91937	34.52
2.93603	34.52
2.95270	34.52
2.96937	34.52
2.98603	34.52
3.00270	34.52
3.01937	34.52
3.03603	34.52
3.05270	34.52
3.06937	34.52
3.08603	34.52
3.10270	34.52
3.11937	34.51
3.13603	34.52
3.15270	34.52
3.16937	34.52
3.18603	34.52
3.20270	34.52
3.21937	34.52
3.23603	34.51
3.25270	34.52
3.26937	34.52
3.28603	34.52
3.30270	34.52
3.31937	34.52
3.33603	34.52
3.35270	34.52
3.36937	34.51
3.38603	34.52
3.40270	34.52
3.41937	34.52
3.43603	34.52
3.45270	34.52
3.46937	34.52
3.48603	34.52
3.50270	34.52
3.51937	34.52
3.53603	34.52
3.55270	34.51
3.56937	34.52
3.58603	34.52
3.60270	34.52
3.61937	34.52
3.63603	34.52
3.65270	34.52
3.66937	34.51
3.68603	34.52
3.70270	34.52
3.71937	34.52
3.73603	34.52
3.75270	34.52
3.76937	34.52
3.78603	34.52
3.80270	34.52
3.81937	34.52
3.83603	34.52
3.85270	34.52
3.86937	34.52
3.88603	34.52
3.90270	34.52
3.91937	34.51
3.93603	34.52
3.95270	34.52
3.96937	34.52
3.98603	34.51

[Status Trace (Column Flow)]
Interval(msec)	1000
# of Points	240
Start Time(min)	0.003
End Time(min)	3.986
Intensity Units	
Intensity Multiplier	1
R.Time (min)	Intensity
0.00270	5.51
0.01937	5.31
0.03603	5.33
0.05270	5.60
0.06937	5.72
0.08603	5.54
0.10270	5.51
0.11937	5.52
0.13603	5.52
0.15270	5.52
0.16937	5.52
0.18603	5.52
0.20270	5.52
0.21937	5.52
0.23603	5.52
0.25270	5.52
0.26937	5.52
0.28603	5.52
0.30270	5.52
0.31937	5.52
0.33603	5.52
0.35270	5.52
0.36937	5.52
0.38603	5.52
0.40270	5.52
0.41937	5.52
0.43603	5.52
0.45270	5.52
0.46937	5.52
0.48603	5.52
0.50270	5.52
0.51937	5.52
0.53603	5.52
0.55270	5.52
0.56937	5.52
0.58603	5.52
0.60270	5.52
0.61937	5.52
0.63603	5.52
0.65270	5.52
0.66937	5.52
0.68603	5.52
0.70270	5.52
0.71937	5.52
0.73603	5.52
0.75270	5.52
0.76937	5.52
0.78603	5.52
0.80270	5.52
0.81937	5.52
0.83603	5.52
0.85270	5.52
0.86937	5.52
0.88603	5.52
0.90270	5.52
0.91937	5.52
0.93603	5.52
0.95270	5.52
0.96937	5.52
0.98603	5.52
1.00270	5.52
1.01937	5.52
1.03603	5.52
1.05270	5.52
1.06937	5.52
1.08603	5.52
1.10270	5.52
1.11937	5.52
1.13603	5.52
1.15270	5.52
1.16937	5.52
1.18603	5.52
1.20270	5.51
1.21937	5.51
1.23603	5.51
1.25270	5.51
1.26937	5.52
1.28603	5.52
1.30270	5.52
1.31937	5.52
1.33603	5.52
1.35270	5.52
1.36937	5.52
1.38603	5.52
1.40270	5.52
1.41937	5.52
1.43603	5.52
1.45270	5.52
1.46937	5.52
1.48603	5.52
1.50270	5.52
1.51937	5.52
1.53603	5.52
1.55270	5.52
1.56937	5.52
1.58603	5.52
1.60270	5.52
1.61937	5.51
1.63603	5.51
1.65270	5.50
1.66937	5.49
1.68603	5.48
1.70270	5.47
1.71937	5.46
1.73603	5.45
1.75270	5.44
1.76937	5.43
1.78603	5.42
1.80270	5.41
1.81937	5.40
1.83603	5.39
1.85270	5.38
1.86937	5.37
1.88603	5.36
1.90270	5.35
1.91937	5.34
1.93603	5.33
1.95270	5.32
1.96937	5.31
1.98603	5.30
2.00270	5.29
2.01937	5.28
2.03603	5.27
2.05270	5.26
2.06937	5.25
2.08603	5.24
2.10270	5.23
2.11937	5.22
2.13603	5.21
2.15270	5.20
2.16937	5.19
2.18603	5.18
2.20270	5.17
2.21937	5.16
2.23603	5.16
2.25270	5.15
2.26937	5.14
2.28603	5.13
2.30270	5.12
2.31937	5.11
2.33603	5.10
2.35270	5.09
2.36937	5.08
2.38603	5.08
2.40270	5.08
2.41937	5.08
2.43603	5.08
2.45270	5.08
2.46937	5.08
2.48603	5.08
2.50270	5.08
2.51937	5.08
2.53603	5.08
2.55270	5.08
2.56937	5.08
2.58603	5.08
2.60270	5.08
2.61937	5.08
2.63603	5.08
2.65270	5.08
2.66937	5.08
2.68603	5.08
2.70270	5.08
2.71937	5.08
2.73603	5.08
2.75270	5.08
2.76937	5.08
2.78603	5.08
2.80270	5.08
2.81937	5.08
2.83603	5.08
2.85270	5.08
2.86937	5.08
2.88603	5.08
2.90270	5.08
2.91937	5.08
2.93603	5.07
2.95270	5.07
2.96937	5.07
2.98603	5.07
3.00270	5.07
3.01937	5.07
3.03603	5.07
3.05270	5.07
3.06937	5.07
3.08603	5.07
3.10270	5.07
3.11937	5.07
3.13603	5.07
3.15270	5.07
3.16937	5.07
3.18603	5.07
3.20270	5.07
3.21937	5.07
3.23603	5.07
3.25270	5.07
3.26937	5.07
3.28603	5.07
3.30270	5.07
3.31937	5.07
3.33603	5.07
3.35270	5.07
3.36937	5.07
3.38603	5.07
3.40270	5.07
3.41937	5.07
3.43603	5.07
3.45270	5.07
3.46937	5.07
3.48603	5.07
3.50270	5.07
3.51937	5.07
3.53603	5.07
3.55270	5.07
3.56937	5.07
3.58603	5.07
3.60270	5.07
3.61937	5.07
3.63603	5.07
3.65270	5.07
3.66937	5.07
3.68603	5.07
3.70270	5.07
3.71937	5.07
3.73603	5.07
3.75270	5.07
3.76937	5.07
3.78603	5.07
3.80270	5.07
3.81937	5.07
3.83603	5.07
3.85270	5.07
3.86937	5.07
3.88603	5.07
3.90270	5.07
3.91937	5.07
3.93603	5.07
3.95270	5.07
3.96937	5.07
3.98603	5.07

[Status Trace (Linear Velocity)]
Interval(msec)	1000
# of Points	240
Start Time(min)	0.003
End Time(min)	3.986
Intensity Units	
Intensity Multiplier	1
R.Time (min)	Intensity
0.00270	39.01
0.01937	37.88
0.03603	37.96
0.05270	39.50
0.06937	40.19
0.08603	39.15
0.10270	38.99
0.11937	39.01
0.13603	39.02
0.15270	39.02
0.16937	39.01
0.18603	39.01
0.20270	39.01
0.21937	39.02
0.23603	39.02
0.25270	39.02
0.26937	39.02
0.28603	39.02
0.30270	39.02
0.31937	39.02
0.33603	39.02
0.35270	39.02
0.36937	39.02
0.38603	39.02
0.40270	39.02
0.41937	39.02
0.43603	39.02
0.45270	39.02
0.46937	39.02
0.48603	39.02
0.50270	39.02
0.51937	39.02
0.53603	39.02
0.55270	39.02
0.56937	39.02
0.58603	39.02
0.60270	39.01
0.61937	39.02
0.63603	39.02
0.65270	39.02
0.66937	39.02
0.68603	39.02
0.70270	39.02
0.71937	39.02
0.73603	39.01
0.75270	39.02
0.76937	39.02
0.78603	39.02
0.80270	39.01
0.81937	39.02
0.83603	39.01
0.85270	39.02
0.86937	39.02
0.88603	39.02
0.90270	39.02
0.91937	39.02
0.93603	39.02
0.95270	39.02
0.96937	39.02
0.98603	39.02
1.00270	39.02
1.01937	39.02
1.03603	39.02
1.05270	39.01
1.06937	39.01
1.08603	39.01
1.10270	39.01
1.11937	39.01
1.13603	39.01
1.15270	39.01
1.16937	39.01
1.18603	39.01
1.20270	39.01
1.21937	39.01
1.23603	39.01
1.25270	39.01
1.26937	39.01
1.28603	39.02
1.30270	39.02
1.31937	39.02
1.33603	39.02
1.35270	39.02
1.36937	39.02
1.38603	39.02
1.40270	39.02
1.41937	39.02
1.43603	39.01
1.45270	39.01
1.46937	39.01
1.48603	39.01
1.50270	39.01
1.51937	39.01
1.53603	39.02
1.55270	39.02
1.56937	39.02
1.58603	39.02
1.60270	39.01
1.61937	39.01
1.63603	38.99
1.65270	38.97
1.66937	38.94
1.68603	38.90
1.70270	38.87
1.71937	38.83
1.73603	38.80
1.75270	38.77
1.76937	38.74
1.78603	38.71
1.80270	38.68
1.81937	38.65
1.83603	38.61
1.85270	38.58
1.86937	38.55
1.88603	38.52
1.90270	38.49
1.91937	38.46
1.93603	38.43
1.95270	38.40
1.96937	38.37
1.98603	38.34
2.00270	38.31
2.01937	38.28
2.03603	38.25
2.05270	38.22
2.06937	38.19
2.08603	38.16
2.10270	38.13
2.11937	38.10
2.13603	38.07
2.15270	38.04
2.16937	38.01
2.18603	37.99
2.20270	37.96
2.21937	37.92
2.23603	37.89
2.25270	37.86
2.26937	37.84
2.28603	37.81
2.30270	37.77
2.31937	37.75
2.33603	37.72
2.35270	37.69
2.36937	37.67
2.38603	37.66
2.40270	37.66
2.41937	37.66
2.43603	37.66
2.45270	37.66
2.46937	37.66
2.48603	37.66
2.50270	37.63
2.51937	37.67
2.53603	37.65
2.55270	37.65
2.56937	37.65
2.58603	37.65
2.60270	37.65
2.61937	37.65
2.63603	37.65
2.65270	37.65
2.66937	37.65
2.68603	37.64
2.70270	37.64
2.71937	37.64
2.73603	37.64
2.75270	37.64
2.76937	37.64
2.78603	37.64
2.80270	37.64
2.81937	37.64
2.83603	37.64
2.85270	37.64
2.86937	37.64
2.88603	37.64
2.90270	37.64
2.91937	37.64
2.93603	37.64
2.95270	37.64
2.96937	37.64
2.98603	37.63
3.00270	37.63
3.01937	37.63
3.03603	37.63
3.05270	37.63
3.06937	37.63
3.08603	37.63
3.10270	37.63
3.11937	37.63
3.13603	37.63
3.15270	37.63
3.16937	37.63
3.18603	37.63
3.20270	37.63
3.21937	37.63
3.23603	37.63
3.25270	37.63
3.26937	37.63
3.28603	37.63
3.30270	37.63
3.31937	37.62
3.33603	37.63
3.35270	37.62
3.36937	37.62
3.38603	37.62
3.40270	37.62
3.41937	37.62
3.43603	37.62
3.45270	37.62
3.46937	37.62
3.48603	37.62
3.50270	37.62
3.51937	37.62
3.53603	37.62
3.55270	37.62
3.56937	37.62
3.58603	37.62
3.60270	37.62
3.61937	37.63
3.63603	37.63
3.65270	37.63
3.66937	37.63
3.68603	37.63
3.70270	37.62
3.71937	37.62
3.73603	37.62
3.75270	37.62
3.76937	37.62
3.78603	37.62
3.80270	37.62
3.81937	37.63
3.83603	37.63
3.85270	37.62
3.86937	37.63
3.88603	37.62
3.90270	37.63
3.91937	37.63
3.93603	37.63
3.95270	37.63
3.96937	37.63
3.98603	37.63

