[Header]
Application Name	LabSolutions
Version	5.110
Data File Name	C:\Users\User\Desktop\Junior\UIC Prairie Sampling\3.23.23\032323_073.gcd
Output Date	5/24/2023
Output Time	10:27:40 AM

[File Information]
Type	Data File
Generated	5/23/2023 11:45:03 PM
Generated by	System Administrator
Modified	5/23/2023 11:51:57 PM
Modified by	System Administrator

[Sample Information]
Operator Name	System Administrator
Acquired	5/23/2023 11:47:56 PM
Sample Type	0:Unknown
Level	0
Sample Name	073
Sample ID	073
ISTD Amount1	1
ISTD Amount2	1
ISTD Amount3	1
ISTD Amount4	1
ISTD Amount5	1
ISTD Amount6	1
ISTD Amount7	1
ISTD Amount8	1
ISTD Amount9	1
ISTD Amount10	1
ISTD Amount11	1
ISTD Amount12	1
ISTD Amount13	1
ISTD Amount14	1
ISTD Amount15	1
ISTD Amount16	1
ISTD Amount17	1
ISTD Amount18	1
ISTD Amount19	1
ISTD Amount20	1
ISTD Amount21	1
ISTD Amount22	1
ISTD Amount23	1
ISTD Amount24	1
ISTD Amount25	1
ISTD Amount26	1
ISTD Amount27	1
ISTD Amount28	1
ISTD Amount29	1
ISTD Amount30	1
ISTD Amount31	1
ISTD Amount32	1
Sample Amount	1
Dilution Factor	1
Vial#	72
Injection Volume	1
Injection Count	1
Bar Code	

[Original Files]
Data File	C:\Users\User\Desktop\GC Analyses\Jack\Nachusa Grasslands Sampling\20220924\t2\032323_073.gcd
Method File	C:\LabSolutions\Data\GHG_4min_2022\ghg3_togas_w_acet_4 min_new_int.gcm
Batch File	C:\LabSolutions\Data\AutoSamplerTesting\032323.gcb
Report Format File	c:\LabSolutions\System\DEFAULT.lsr

[File Description]


[Configuration]
Instrument Name	C0B7VH3-Instrument1
Instrument #	1
Line #	1
# of Detectors	3
Detector ID	DET#1	DET#2	DET#3
Detector Name	FID	PTCD	ECD
# of Channels	1	1	1

[Peak Table(Ch1)]
# of Peaks	3
Peak#	R.Time	I.Time	F.Time	Area	Height	A/H	Conc.	Mark	ID#	Name	k'	Plate #	Plate Ht.	Tailing	Resolution	Sep.Factor	Area Ratio	Height Ratio	Conc. %	Norm Conc.
1	1.490	1.472	1.531	426	184	2.312	0.000	   	1	CO	0.000	7570	19.815	0.000	0.000	0.000	0	0	0.000	0.000
2	1.564	1.531	1.644	4736	2296	2.063	23.092	 V 	2	CH4	0.049	10765	13.934	1.240	1.139	0.000	0	0	11.623	11.623
3	1.993	1.945	2.326	911045	436930	2.085	175.575	   	3	CO2	0.337	17319	8.661	1.272	7.100	6.850	0	0	88.377	88.377

[Peak Table(Ch2)]
# of Peaks	0

[Peak Table(Ch3)]
# of Peaks	5
Peak#	R.Time	I.Time	F.Time	Area	Height	A/H	Conc.	Mark	ID#	Name	k'	Plate #	Plate Ht.	Tailing	Resolution	Sep.Factor	Area Ratio	Height Ratio	Conc. %	Norm Conc.
1	2.458	2.400	2.506	715	281	2.545	0.000	   			0.000	16837	8.909	0.000	0.000	0.000	0	0	0.000	0.000
2	2.517	2.506	2.572	192	91	2.109	0.000	 V 			0.024	7047	21.286	0.000	0.600	0.000	0	0	0.000	0.000
3	2.623	2.572	2.667	203	73	2.798	0.000	 V 			0.067	17313	8.664	0.000	1.065	2.813	0	0	0.000	0.000
4	2.891	2.766	3.874	28070	4530	6.196	0.415	S  	1	N2O	0.176	14043	10.681	7.173	3.019	2.622	0	0	100.000	100.000
5	3.258	3.133	3.591	1019	69	14.755	0.000	T  			0.325	1734	86.528	1.787	1.786	1.847	0	0	0.000	0.000

[Compound Results(Ch1)]
# of IDs	6
ID#	Name	R.Time	Area	Height	Conc.	Curve	3rd	2nd	1st	Constant	Area Ratio	Height Ratio	Conc. %	Norm Conc.
1	CO	1.490	426	184	0.000	Linear	0.000000e+00	0.000000e+00	0.000000e+00	0.000000e+00	0	0	0.000	0.000
2	CH4	1.564	4736	2296	23.092	Linear	0.000000e+00	0.000000e+00	2.051179e+002	0.000000e+00	0	0	11.623	11.623
3	CO2	1.993	911045	436930	175.575	Linear	0.000000e+00	0.000000e+00	5.188919e+003	0.000000e+00	0	0	88.377	88.377
4	Ethylene	0.000	0	0	0.000	Linear	0.000000e+00	0.000000e+00	0.000000e+00	0.000000e+00	0	0	0.000	0.000
5	Acetylene	0.000	0	0	0.000	Linear	0.000000e+00	0.000000e+00	0.000000e+00	0.000000e+00	0	0	0.000	0.000
6	Ethane	0.000	0	0	0.000	Linear	0.000000e+00	0.000000e+00	0.000000e+00	0.000000e+00	0	0	0.000	0.000

[Compound Results(Ch2)]
# of IDs	5
ID#	Name	R.Time	Area	Height	Conc.	Curve	3rd	2nd	1st	Constant	Area Ratio	Height Ratio	Conc. %	Norm Conc.
1	Hydrogen	0.000	0	0	0.000	Linear	0.000000e+00	0.000000e+00	0.000000e+00	0.000000e+00	0	0	0.000	0.000
2	Oxygen	0.000	0	0	0.000	Linear	0.000000e+00	0.000000e+00	0.000000e+00	0.000000e+00	0	0	0.000	0.000
3	Nitrogen	0.000	0	0	0.000	Linear	0.000000e+00	0.000000e+00	0.000000e+00	0.000000e+00	0	0	0.000	0.000
4	Methane	0.000	0	0	0.000	Linear	0.000000e+00	0.000000e+00	0.000000e+00	0.000000e+00	0	0	0.000	0.000
5	Carbon Monoxide	0.000	0	0	0.000	Linear	0.000000e+00	0.000000e+00	0.000000e+00	0.000000e+00	0	0	0.000	0.000

[Compound Results(Ch3)]
# of IDs	2
ID#	Name	R.Time	Area	Height	Conc.	Curve	3rd	2nd	1st	Constant	Area Ratio	Height Ratio	Conc. %	Norm Conc.
1	N2O	2.891	28070	4530	0.415	Linear	0.000000e+00	0.000000e+00	6.759880e+004	0.000000e+00	0	0	100.000	100.000
2	SF6	0.000	0	0	0.000	Linear	0.000000e+00	0.000000e+00	0.000000e+00	0.000000e+00	0	0	0.000	0.000

[Group Results(Ch1)]
# of Groups	0

[Group Results(Ch2)]
# of Groups	0

[Group Results(Ch3)]
# of Groups	0

[Chromatogram (Ch1)]
Interval(msec)	220
# of Points	1091
Start Time(min)	0.002
End Time(min)	3.998
R.Time (min)	Intensity
0.00167	15
0.00533	11
0.00900	5
0.01267	0
0.01633	-3
0.02000	-3
0.02367	-2
0.02733	1
0.03100	0
0.03467	-2
0.03833	-5
0.04200	-9
0.04567	-10
0.04933	-8
0.05300	-3
0.05667	3
0.06033	5
0.06400	2
0.06767	-3
0.07133	-7
0.07500	-11
0.07867	-14
0.08233	-15
0.08600	-9
0.08967	-0
0.09333	9
0.09700	16
0.10067	16
0.10433	9
0.10800	-4
0.11167	-19
0.11533	-30
0.11900	-33
0.12267	-32
0.12633	-28
0.13000	-23
0.13367	-21
0.13733	-24
0.14100	-25
0.14467	-26
0.14833	-22
0.15200	-15
0.15567	-8
0.15933	-3
0.16300	1
0.16667	2
0.17033	5
0.17400	6
0.17767	5
0.18133	3
0.18500	1
0.18867	-1
0.19233	-7
0.19600	-11
0.19967	-14
0.20333	-12
0.20700	-6
0.21067	0
0.21433	1
0.21800	-4
0.22167	-12
0.22533	-18
0.22900	-23
0.23267	-27
0.23633	-29
0.24000	-30
0.24367	-26
0.24733	-24
0.25100	-24
0.25467	-24
0.25833	-21
0.26200	-15
0.26567	-10
0.26933	-5
0.27300	-1
0.27667	5
0.28033	9
0.28400	9
0.28767	4
0.29133	-2
0.29500	-3
0.29867	-6
0.30233	-8
0.30600	-5
0.30967	0
0.31333	3
0.31700	3
0.32067	0
0.32433	-4
0.32800	-10
0.33167	-14
0.33533	-17
0.33900	-18
0.34267	-18
0.34633	-19
0.35000	-23
0.35367	-27
0.35733	-30
0.36100	-27
0.36467	-19
0.36833	-16
0.37200	-17
0.37567	-16
0.37933	-17
0.38300	-17
0.38667	-20
0.39033	-22
0.39400	-22
0.39767	-21
0.40133	-21
0.40500	-23
0.40867	-24
0.41233	-17
0.41600	-3
0.41967	11
0.42333	20
0.42700	15
0.43067	1
0.43433	-13
0.43800	-24
0.44167	-29
0.44533	-30
0.44900	-27
0.45267	-23
0.45633	-22
0.46000	-24
0.46367	-30
0.46733	-30
0.47100	-27
0.47467	-24
0.47833	-21
0.48200	-20
0.48567	-21
0.48933	-24
0.49300	-25
0.49667	-23
0.50033	-21
0.50400	-19
0.50767	-16
0.51133	-10
0.51500	1
0.51867	12
0.52233	19
0.52600	16
0.52967	5
0.53333	-6
0.53700	-11
0.54067	-9
0.54433	-2
0.54800	2
0.55167	-0
0.55533	-3
0.55900	-7
0.56267	-10
0.56633	-12
0.57000	-10
0.57367	-2
0.57733	6
0.58100	8
0.58467	5
0.58833	-0
0.59200	-3
0.59567	-7
0.59933	-10
0.60300	-11
0.60667	-10
0.61033	-7
0.61400	-7
0.61767	-11
0.62133	-16
0.62500	-20
0.62867	-22
0.63233	-20
0.63600	-16
0.63967	-10
0.64333	-5
0.64700	-4
0.65067	-3
0.65433	-1
0.65800	-2
0.66167	-6
0.66533	-14
0.66900	-20
0.67267	-22
0.67633	-22
0.68000	-14
0.68367	1
0.68733	14
0.69100	20
0.69467	16
0.69833	2
0.70200	-10
0.70567	-14
0.70933	-14
0.71300	-15
0.71667	-21
0.72033	-31
0.72400	-37
0.72767	-38
0.73133	-34
0.73500	-28
0.73867	-21
0.74233	-19
0.74600	-24
0.74967	-28
0.75333	-28
0.75700	-25
0.76067	-20
0.76433	-16
0.76800	-18
0.77167	-23
0.77533	-28
0.77900	-30
0.78267	-29
0.78633	-24
0.79000	-18
0.79367	-15
0.79733	-14
0.80100	-16
0.80467	-16
0.80833	-15
0.81200	-14
0.81567	-10
0.81933	-8
0.82300	-13
0.82667	-20
0.83033	-26
0.83400	-32
0.83767	-36
0.84133	-37
0.84500	-32
0.84867	-24
0.85233	-17
0.85600	-8
0.85967	-3
0.86333	0
0.86700	3
0.87067	1
0.87433	-4
0.87800	-6
0.88167	-11
0.88533	-21
0.88900	-31
0.89267	-38
0.89633	-45
0.90000	-50
0.90367	-53
0.90733	-55
0.91100	-53
0.91467	-46
0.91833	-37
0.92200	-34
0.92567	-38
0.92933	-44
0.93300	-47
0.93667	-44
0.94033	-38
0.94400	-35
0.94767	-34
0.95133	-29
0.95500	-19
0.95867	-10
0.96233	-2
0.96600	1
0.96967	-2
0.97333	-11
0.97700	-21
0.98067	-29
0.98433	-33
0.98800	-33
0.99167	-32
0.99533	-27
0.99900	-25
1.00267	-23
1.00633	-22
1.01000	-21
1.01367	-20
1.01733	-19
1.02100	-22
1.02467	-29
1.02833	-33
1.03200	-33
1.03567	-37
1.03933	-42
1.04300	-44
1.04667	-40
1.05033	-31
1.05400	-23
1.05767	-21
1.06133	-23
1.06500	-32
1.06867	-42
1.07233	-48
1.07600	-49
1.07967	-47
1.08333	-49
1.08700	-53
1.09067	-58
1.09433	-57
1.09800	-52
1.10167	-43
1.10533	-33
1.10900	-27
1.11267	-24
1.11633	-24
1.12000	-25
1.12367	-25
1.12733	-26
1.13100	-29
1.13467	-29
1.13833	-22
1.14200	-15
1.14567	-11
1.14933	-14
1.15300	-25
1.15667	-37
1.16033	-45
1.16400	-48
1.16767	-47
1.17133	-42
1.17500	-40
1.17867	-43
1.18233	-45
1.18600	-44
1.18967	-41
1.19333	-40
1.19700	-45
1.20067	-54
1.20433	-63
1.20800	-69
1.21167	-74
1.21533	-75
1.21900	-74
1.22267	-73
1.22633	-73
1.23000	-73
1.23367	-71
1.23733	-68
1.24100	-61
1.24467	-51
1.24833	-41
1.25200	-32
1.25567	-24
1.25933	-19
1.26300	-23
1.26667	-30
1.27033	-37
1.27400	-45
1.27767	-52
1.28133	-57
1.28500	-60
1.28867	-64
1.29233	-66
1.29600	-63
1.29967	-57
1.30333	-52
1.30700	-49
1.31067	-46
1.31433	-37
1.31800	-27
1.32167	-24
1.32533	-32
1.32900	-45
1.33267	-53
1.33633	-53
1.34000	-50
1.34367	-49
1.34733	-49
1.35100	-50
1.35467	-51
1.35833	-55
1.36200	-57
1.36567	-55
1.36933	-53
1.37300	-53
1.37667	-51
1.38033	-47
1.38400	-47
1.38767	-50
1.39133	-54
1.39500	-59
1.39867	-60
1.40233	-61
1.40600	-62
1.40967	-63
1.41333	-62
1.41700	-62
1.42067	-61
1.42433	-57
1.42800	-51
1.43167	-45
1.43533	-33
1.43900	-9
1.44267	20
1.44633	8
1.45000	-53
1.45367	-125
1.45733	-186
1.46100	-234
1.46467	-259
1.46833	-251
1.47200	-209
1.47567	-151
1.47933	-91
1.48300	-46
1.48667	-19
1.49033	-13
1.49400	-17
1.49767	-30
1.50133	-47
1.50500	-61
1.50867	-70
1.51233	-75
1.51600	-78
1.51967	-80
1.52333	-82
1.52700	-88
1.53067	-94
1.53433	-85
1.53800	-15
1.54167	179
1.54533	523
1.54900	962
1.55267	1396
1.55633	1759
1.56000	2016
1.56367	2148
1.56733	2130
1.57100	1948
1.57467	1634
1.57833	1265
1.58200	919
1.58567	636
1.58933	418
1.59300	252
1.59667	130
1.60033	47
1.60400	-3
1.60767	-30
1.61133	-45
1.61500	-57
1.61867	-71
1.62233	-82
1.62600	-92
1.62967	-97
1.63333	-97
1.63700	-95
1.64067	-94
1.64433	-96
1.64800	-99
1.65167	-100
1.65533	-100
1.65900	-97
1.66267	-94
1.66633	-94
1.67000	-92
1.67367	-90
1.67733	-91
1.68100	-99
1.68467	-109
1.68833	-116
1.69200	-117
1.69567	-118
1.69933	-119
1.70300	-115
1.70667	-108
1.71033	-96
1.71400	-84
1.71767	-77
1.72133	-77
1.72500	-82
1.72867	-86
1.73233	-87
1.73600	-86
1.73967	-85
1.74333	-84
1.74700	-87
1.75067	-91
1.75433	-95
1.75800	-96
1.76167	-93
1.76533	-86
1.76900	-79
1.77267	-77
1.77633	-83
1.78000	-92
1.78367	-97
1.78733	-94
1.79100	-87
1.79467	-84
1.79833	-82
1.80200	-81
1.80567	-82
1.80933	-82
1.81300	-78
1.81667	-74
1.82033	-77
1.82400	-84
1.82767	-90
1.83133	-95
1.83500	-96
1.83867	-94
1.84233	-93
1.84600	-96
1.84967	-99
1.85333	-101
1.85700	-101
1.86067	-100
1.86433	-95
1.86800	-91
1.87167	-88
1.87533	-84
1.87900	-76
1.88267	-67
1.88633	-60
1.89000	-55
1.89367	-55
1.89733	-58
1.90100	-66
1.90467	-75
1.90833	-82
1.91200	-88
1.91567	-89
1.91933	-88
1.92300	-86
1.92667	-85
1.93033	-84
1.93400	-86
1.93767	-87
1.94133	-83
1.94500	-77
1.94867	-60
1.95233	41
1.95600	587
1.95967	2962
1.96333	10846
1.96700	30854
1.97067	70358
1.97433	132145
1.97800	210436
1.98167	292601
1.98533	364682
1.98900	415239
1.99267	436888
1.99633	426999
2.00000	388759
2.00367	330931
2.00733	265154
2.01100	201922
2.01467	147852
2.01833	105345
2.02200	73867
2.02567	51496
2.02933	36020
2.03300	25488
2.03667	18376
2.04033	13572
2.04400	10310
2.04767	8068
2.05133	6497
2.05500	5372
2.05867	4546
2.06233	3919
2.06600	3431
2.06967	3046
2.07333	2731
2.07700	2469
2.08067	2248
2.08433	2061
2.08800	1898
2.09167	1756
2.09533	1634
2.09900	1534
2.10267	1452
2.10633	1378
2.11000	1303
2.11367	1225
2.11733	1151
2.12100	1083
2.12467	1021
2.12833	966
2.13200	915
2.13567	870
2.13933	829
2.14300	797
2.14667	770
2.15033	742
2.15400	715
2.15767	688
2.16133	660
2.16500	630
2.16867	602
2.17233	580
2.17600	563
2.17967	547
2.18333	531
2.18700	516
2.19067	503
2.19433	490
2.19800	480
2.20167	469
2.20533	456
2.20900	446
2.21267	434
2.21633	419
2.22000	406
2.22367	398
2.22733	391
2.23100	380
2.23467	365
2.23833	348
2.24200	332
2.24567	319
2.24933	309
2.25300	301
2.25667	296
2.26033	292
2.26400	289
2.26767	290
2.27133	289
2.27500	285
2.27867	284
2.28233	287
2.28600	290
2.28967	287
2.29333	274
2.29700	254
2.30067	235
2.30433	222
2.30800	214
2.31167	206
2.31533	202
2.31900	202
2.32267	202
2.32633	202
2.33000	206
2.33367	209
2.33733	206
2.34100	201
2.34467	200
2.34833	197
2.35200	192
2.35567	184
2.35933	174
2.36300	165
2.36667	161
2.37033	163
2.37400	170
2.37767	180
2.38133	189
2.38500	194
2.38867	190
2.39233	181
2.39600	178
2.39967	179
2.40333	176
2.40700	166
2.41067	154
2.41433	146
2.41800	143
2.42167	143
2.42533	144
2.42900	144
2.43267	144
2.43633	147
2.44000	149
2.44367	151
2.44733	155
2.45100	162
2.45467	168
2.45833	167
2.46200	160
2.46567	151
2.46933	141
2.47300	131
2.47667	125
2.48033	123
2.48400	121
2.48767	125
2.49133	134
2.49500	141
2.49867	141
2.50233	131
2.50600	118
2.50967	107
2.51333	99
2.51700	95
2.52067	90
2.52433	90
2.52800	94
2.53167	95
2.53533	94
2.53900	96
2.54267	101
2.54633	106
2.55000	108
2.55367	110
2.55733	111
2.56100	113
2.56467	116
2.56833	119
2.57200	121
2.57567	119
2.57933	113
2.58300	107
2.58667	102
2.59033	98
2.59400	97
2.59767	100
2.60133	106
2.60500	110
2.60867	111
2.61233	113
2.61600	114
2.61967	116
2.62333	118
2.62700	123
2.63067	128
2.63433	130
2.63800	127
2.64167	122
2.64533	117
2.64900	114
2.65267	110
2.65633	105
2.66000	104
2.66367	106
2.66733	110
2.67100	116
2.67467	118
2.67833	116
2.68200	115
2.68567	116
2.68933	116
2.69300	118
2.69667	122
2.70033	125
2.70400	129
2.70767	133
2.71133	137
2.71500	138
2.71867	135
2.72233	130
2.72600	124
2.72967	122
2.73333	122
2.73700	121
2.74067	120
2.74433	118
2.74800	113
2.75167	110
2.75533	109
2.75900	109
2.76267	110
2.76633	114
2.77000	119
2.77367	122
2.77733	122
2.78100	122
2.78467	123
2.78833	124
2.79200	121
2.79567	115
2.79933	112
2.80300	109
2.80667	105
2.81033	104
2.81400	108
2.81767	112
2.82133	111
2.82500	109
2.82867	105
2.83233	103
2.83600	103
2.83967	103
2.84333	105
2.84700	111
2.85067	116
2.85433	121
2.85800	122
2.86167	120
2.86533	119
2.86900	119
2.87267	119
2.87633	121
2.88000	124
2.88367	125
2.88733	126
2.89100	132
2.89467	137
2.89833	136
2.90200	130
2.90567	124
2.90933	119
2.91300	115
2.91667	112
2.92033	111
2.92400	111
2.92767	113
2.93133	116
2.93500	120
2.93867	122
2.94233	119
2.94600	112
2.94967	106
2.95333	104
2.95700	105
2.96067	112
2.96433	118
2.96800	119
2.97167	117
2.97533	117
2.97900	117
2.98267	116
2.98633	113
2.99000	114
2.99367	119
2.99733	124
3.00100	129
3.00467	133
3.00833	132
3.01200	131
3.01567	130
3.01933	128
3.02300	126
3.02667	130
3.03033	136
3.03400	140
3.03767	138
3.04133	130
3.04500	119
3.04867	109
3.05233	101
3.05600	98
3.05967	99
3.06333	103
3.06700	106
3.07067	109
3.07433	111
3.07800	112
3.08167	111
3.08533	111
3.08900	109
3.09267	107
3.09633	101
3.10000	97
3.10367	97
3.10733	99
3.11100	102
3.11467	104
3.11833	104
3.12200	103
3.12567	105
3.12933	108
3.13300	112
3.13667	118
3.14033	124
3.14400	126
3.14767	127
3.15133	131
3.15500	135
3.15867	132
3.16233	125
3.16600	122
3.16967	119
3.17333	117
3.17700	114
3.18067	109
3.18433	104
3.18800	99
3.19167	95
3.19533	93
3.19900	94
3.20267	97
3.20633	102
3.21000	107
3.21367	109
3.21733	108
3.22100	106
3.22467	105
3.22833	107
3.23200	109
3.23567	108
3.23933	109
3.24300	110
3.24667	109
3.25033	109
3.25400	110
3.25767	109
3.26133	106
3.26500	102
3.26867	98
3.27233	98
3.27600	97
3.27967	96
3.28333	95
3.28700	97
3.29067	100
3.29433	103
3.29800	104
3.30167	105
3.30533	104
3.30900	104
3.31267	106
3.31633	109
3.32000	111
3.32367	113
3.32733	117
3.33100	118
3.33467	116
3.33833	112
3.34200	107
3.34567	102
3.34933	98
3.35300	98
3.35667	103
3.36033	111
3.36400	122
3.36767	130
3.37133	131
3.37500	125
3.37867	119
3.38233	115
3.38600	111
3.38967	108
3.39333	105
3.39700	102
3.40067	98
3.40433	93
3.40800	90
3.41167	89
3.41533	89
3.41900	86
3.42267	85
3.42633	84
3.43000	85
3.43367	86
3.43733	86
3.44100	86
3.44467	87
3.44833	85
3.45200	82
3.45567	79
3.45933	79
3.46300	80
3.46667	79
3.47033	80
3.47400	84
3.47767	90
3.48133	94
3.48500	94
3.48867	94
3.49233	96
3.49600	100
3.49967	103
3.50333	103
3.50700	102
3.51067	101
3.51433	101
3.51800	100
3.52167	94
3.52533	87
3.52900	82
3.53267	81
3.53633	82
3.54000	81
3.54367	82
3.54733	85
3.55100	90
3.55467	92
3.55833	89
3.56200	82
3.56567	78
3.56933	77
3.57300	75
3.57667	74
3.58033	76
3.58400	78
3.58767	85
3.59133	94
3.59500	98
3.59867	94
3.60233	81
3.60600	69
3.60967	61
3.61333	58
3.61700	57
3.62067	59
3.62433	64
3.62800	71
3.63167	76
3.63533	79
3.63900	82
3.64267	85
3.64633	89
3.65000	89
3.65367	83
3.65733	77
3.66100	74
3.66467	73
3.66833	73
3.67200	75
3.67567	76
3.67933	72
3.68300	66
3.68667	62
3.69033	65
3.69400	70
3.69767	71
3.70133	69
3.70500	66
3.70867	63
3.71233	61
3.71600	63
3.71967	70
3.72333	79
3.72700	86
3.73067	93
3.73433	98
3.73800	97
3.74167	91
3.74533	83
3.74900	72
3.75267	64
3.75633	63
3.76000	66
3.76367	67
3.76733	66
3.77100	66
3.77467	68
3.77833	69
3.78200	72
3.78567	78
3.78933	84
3.79300	81
3.79667	75
3.80033	69
3.80400	66
3.80767	63
3.81133	63
3.81500	67
3.81867	71
3.82233	71
3.82600	68
3.82967	66
3.83333	69
3.83700	71
3.84067	73
3.84433	75
3.84800	77
3.85167	78
3.85533	78
3.85900	74
3.86267	68
3.86633	66
3.87000	68
3.87367	70
3.87733	71
3.88100	70
3.88467	68
3.88833	64
3.89200	59
3.89567	56
3.89933	58
3.90300	63
3.90667	63
3.91033	60
3.91400	58
3.91767	56
3.92133	54
3.92500	54
3.92867	57
3.93233	58
3.93600	58
3.93967	59
3.94333	61
3.94700	64
3.95067	70
3.95433	76
3.95800	79
3.96167	78
3.96533	76
3.96900	74
3.97267	73
3.97633	69
3.98000	64
3.98367	59
3.98733	54
3.99100	54
3.99467	56
3.99833	58

[Chromatogram (Ch2)]
Interval(msec)	220
# of Points	1091
Start Time(min)	0.002
End Time(min)	3.998
R.Time (min)	Intensity
0.00167	-1
0.00533	-1
0.00900	-1
0.01267	-1
0.01633	-1
0.02000	-1
0.02367	-1
0.02733	-1
0.03100	-1
0.03467	-1
0.03833	-1
0.04200	-0
0.04567	-0
0.04933	-0
0.05300	-0
0.05667	-0
0.06033	0
0.06400	0
0.06767	0
0.07133	0
0.07500	-0
0.07867	-0
0.08233	-0
0.08600	0
0.08967	0
0.09333	0
0.09700	0
0.10067	0
0.10433	0
0.10800	0
0.11167	0
0.11533	0
0.11900	0
0.12267	0
0.12633	0
0.13000	-0
0.13367	-0
0.13733	-1
0.14100	-1
0.14467	-1
0.14833	-1
0.15200	-1
0.15567	-0
0.15933	-0
0.16300	-0
0.16667	-0
0.17033	-0
0.17400	-0
0.17767	0
0.18133	0
0.18500	0
0.18867	-0
0.19233	-0
0.19600	-0
0.19967	-0
0.20333	-0
0.20700	-0
0.21067	0
0.21433	0
0.21800	-0
0.22167	-0
0.22533	-1
0.22900	-1
0.23267	-1
0.23633	-1
0.24000	-2
0.24367	-2
0.24733	-2
0.25100	-3
0.25467	-3
0.25833	-3
0.26200	-3
0.26567	-3
0.26933	-3
0.27300	-3
0.27667	-3
0.28033	-3
0.28400	-3
0.28767	-3
0.29133	-3
0.29500	-3
0.29867	-2
0.30233	-2
0.30600	-2
0.30967	-2
0.31333	-2
0.31700	-1
0.32067	-1
0.32433	-1
0.32800	-1
0.33167	-1
0.33533	-1
0.33900	-1
0.34267	-1
0.34633	-0
0.35000	-0
0.35367	-0
0.35733	0
0.36100	0
0.36467	1
0.36833	1
0.37200	1
0.37567	1
0.37933	1
0.38300	2
0.38667	2
0.39033	2
0.39400	2
0.39767	2
0.40133	2
0.40500	2
0.40867	2
0.41233	2
0.41600	2
0.41967	2
0.42333	2
0.42700	1
0.43067	1
0.43433	1
0.43800	1
0.44167	1
0.44533	0
0.44900	0
0.45267	0
0.45633	0
0.46000	0
0.46367	0
0.46733	0
0.47100	0
0.47467	0
0.47833	0
0.48200	0
0.48567	0
0.48933	0
0.49300	1
0.49667	1
0.50033	1
0.50400	0
0.50767	0
0.51133	0
0.51500	0
0.51867	0
0.52233	0
0.52600	-0
0.52967	-0
0.53333	-0
0.53700	-0
0.54067	-1
0.54433	-1
0.54800	-1
0.55167	-2
0.55533	-2
0.55900	-2
0.56267	-2
0.56633	-2
0.57000	-2
0.57367	-3
0.57733	-3
0.58100	-3
0.58467	-3
0.58833	-3
0.59200	-3
0.59567	-3
0.59933	-3
0.60300	-3
0.60667	-3
0.61033	-3
0.61400	-2
0.61767	-2
0.62133	-2
0.62500	-2
0.62867	-2
0.63233	-2
0.63600	-1
0.63967	-1
0.64333	-1
0.64700	-1
0.65067	-1
0.65433	-1
0.65800	-1
0.66167	-1
0.66533	-2
0.66900	-2
0.67267	-2
0.67633	-2
0.68000	-2
0.68367	-2
0.68733	-2
0.69100	-2
0.69467	-2
0.69833	-2
0.70200	-2
0.70567	-2
0.70933	-3
0.71300	-3
0.71667	-3
0.72033	-3
0.72400	-3
0.72767	-3
0.73133	-3
0.73500	-3
0.73867	-2
0.74233	-2
0.74600	-2
0.74967	-2
0.75333	-2
0.75700	-2
0.76067	-2
0.76433	-2
0.76800	-2
0.77167	-2
0.77533	-2
0.77900	-1
0.78267	-1
0.78633	-1
0.79000	-1
0.79367	-1
0.79733	-1
0.80100	-1
0.80467	-1
0.80833	-1
0.81200	-1
0.81567	-1
0.81933	-1
0.82300	-1
0.82667	-1
0.83033	-0
0.83400	-0
0.83767	-0
0.84133	0
0.84500	0
0.84867	0
0.85233	-0
0.85600	-0
0.85967	-1
0.86333	-1
0.86700	-1
0.87067	-1
0.87433	-1
0.87800	-1
0.88167	-2
0.88533	-2
0.88900	-2
0.89267	-2
0.89633	-2
0.90000	-3
0.90367	-3
0.90733	-3
0.91100	-3
0.91467	-3
0.91833	-3
0.92200	-3
0.92567	-3
0.92933	-4
0.93300	-4
0.93667	-4
0.94033	-4
0.94400	-4
0.94767	-4
0.95133	-5
0.95500	-5
0.95867	-5
0.96233	-5
0.96600	-5
0.96967	-5
0.97333	-5
0.97700	-6
0.98067	-6
0.98433	-6
0.98800	-6
0.99167	-6
0.99533	-6
0.99900	-6
1.00267	-6
1.00633	-6
1.01000	-6
1.01367	-6
1.01733	-5
1.02100	-4
1.02467	-4
1.02833	-3
1.03200	-2
1.03567	-2
1.03933	-1
1.04300	-1
1.04667	-0
1.05033	-0
1.05400	0
1.05767	0
1.06133	-0
1.06500	-0
1.06867	-0
1.07233	-1
1.07600	-1
1.07967	-1
1.08333	-1
1.08700	-1
1.09067	-1
1.09433	-1
1.09800	-1
1.10167	-0
1.10533	-0
1.10900	0
1.11267	0
1.11633	0
1.12000	0
1.12367	0
1.12733	0
1.13100	0
1.13467	0
1.13833	0
1.14200	0
1.14567	0
1.14933	0
1.15300	0
1.15667	-0
1.16033	-0
1.16400	-0
1.16767	-1
1.17133	-1
1.17500	-1
1.17867	-1
1.18233	-2
1.18600	-2
1.18967	-2
1.19333	-2
1.19700	-2
1.20067	-2
1.20433	-2
1.20800	-1
1.21167	-1
1.21533	-1
1.21900	-1
1.22267	-2
1.22633	-2
1.23000	-2
1.23367	-2
1.23733	-2
1.24100	-2
1.24467	-2
1.24833	-2
1.25200	-2
1.25567	-2
1.25933	-2
1.26300	-2
1.26667	-2
1.27033	-2
1.27400	-2
1.27767	-2
1.28133	-2
1.28500	-2
1.28867	-2
1.29233	-2
1.29600	-2
1.29967	-2
1.30333	-2
1.30700	-2
1.31067	-2
1.31433	-2
1.31800	-3
1.32167	-3
1.32533	-3
1.32900	-3
1.33267	-3
1.33633	-3
1.34000	-3
1.34367	-3
1.34733	-4
1.35100	-3
1.35467	-3
1.35833	-3
1.36200	-3
1.36567	-3
1.36933	-3
1.37300	-3
1.37667	-3
1.38033	-3
1.38400	-3
1.38767	-3
1.39133	-3
1.39500	-4
1.39867	-4
1.40233	-4
1.40600	-4
1.40967	-4
1.41333	-4
1.41700	-4
1.42067	-4
1.42433	-4
1.42800	-4
1.43167	-4
1.43533	-4
1.43900	-4
1.44267	-3
1.44633	-3
1.45000	-3
1.45367	-3
1.45733	-3
1.46100	-3
1.46467	-3
1.46833	-3
1.47200	-3
1.47567	-4
1.47933	-4
1.48300	-4
1.48667	-4
1.49033	-4
1.49400	-4
1.49767	-3
1.50133	-3
1.50500	-3
1.50867	-3
1.51233	-3
1.51600	-3
1.51967	-3
1.52333	-3
1.52700	-3
1.53067	-3
1.53433	-3
1.53800	-3
1.54167	-3
1.54533	-3
1.54900	-3
1.55267	-3
1.55633	-3
1.56000	-3
1.56367	-3
1.56733	-4
1.57100	-4
1.57467	-4
1.57833	-5
1.58200	-5
1.58567	-5
1.58933	-5
1.59300	-6
1.59667	-7
1.60033	-8
1.60400	-9
1.60767	-11
1.61133	-12
1.61500	-14
1.61867	-16
1.62233	-19
1.62600	-21
1.62967	-24
1.63333	-27
1.63700	-29
1.64067	-32
1.64433	-36
1.64800	-39
1.65167	-42
1.65533	-45
1.65900	-48
1.66267	-52
1.66633	-55
1.67000	-59
1.67367	-63
1.67733	-67
1.68100	-72
1.68467	-76
1.68833	-80
1.69200	-84
1.69567	-87
1.69933	-90
1.70300	-92
1.70667	-94
1.71033	-96
1.71400	-97
1.71767	-98
1.72133	-99
1.72500	-99
1.72867	-100
1.73233	-100
1.73600	-100
1.73967	-100
1.74333	-100
1.74700	-100
1.75067	-100
1.75433	-100
1.75800	-100
1.76167	-100
1.76533	-101
1.76900	-102
1.77267	-103
1.77633	-104
1.78000	-104
1.78367	-105
1.78733	-106
1.79100	-107
1.79467	-107
1.79833	-107
1.80200	-108
1.80567	-108
1.80933	-107
1.81300	-107
1.81667	-107
1.82033	-107
1.82400	-107
1.82767	-106
1.83133	-106
1.83500	-106
1.83867	-106
1.84233	-106
1.84600	-106
1.84967	-106
1.85333	-106
1.85700	-106
1.86067	-107
1.86433	-107
1.86800	-107
1.87167	-107
1.87533	-107
1.87900	-107
1.88267	-107
1.88633	-106
1.89000	-105
1.89367	-104
1.89733	-103
1.90100	-102
1.90467	-102
1.90833	-102
1.91200	-102
1.91567	-102
1.91933	-102
1.92300	-102
1.92667	-102
1.93033	-102
1.93400	-102
1.93767	-103
1.94133	-103
1.94500	-103
1.94867	-103
1.95233	-103
1.95600	-103
1.95967	-103
1.96333	-103
1.96700	-102
1.97067	-102
1.97433	-101
1.97800	-101
1.98167	-100
1.98533	-100
1.98900	-100
1.99267	-100
1.99633	-100
2.00000	-100
2.00367	-100
2.00733	-100
2.01100	-100
2.01467	-101
2.01833	-101
2.02200	-101
2.02567	-101
2.02933	-101
2.03300	-100
2.03667	-100
2.04033	-99
2.04400	-98
2.04767	-97
2.05133	-96
2.05500	-95
2.05867	-94
2.06233	-93
2.06600	-93
2.06967	-92
2.07333	-92
2.07700	-92
2.08067	-92
2.08433	-93
2.08800	-93
2.09167	-93
2.09533	-93
2.09900	-92
2.10267	-92
2.10633	-91
2.11000	-91
2.11367	-90
2.11733	-90
2.12100	-89
2.12467	-89
2.12833	-89
2.13200	-88
2.13567	-88
2.13933	-88
2.14300	-87
2.14667	-86
2.15033	-85
2.15400	-85
2.15767	-85
2.16133	-85
2.16500	-84
2.16867	-84
2.17233	-84
2.17600	-84
2.17967	-84
2.18333	-84
2.18700	-84
2.19067	-83
2.19433	-83
2.19800	-82
2.20167	-81
2.20533	-81
2.20900	-81
2.21267	-82
2.21633	-82
2.22000	-82
2.22367	-82
2.22733	-82
2.23100	-82
2.23467	-81
2.23833	-81
2.24200	-81
2.24567	-81
2.24933	-80
2.25300	-80
2.25667	-80
2.26033	-80
2.26400	-79
2.26767	-79
2.27133	-78
2.27500	-78
2.27867	-77
2.28233	-77
2.28600	-78
2.28967	-78
2.29333	-79
2.29700	-79
2.30067	-78
2.30433	-78
2.30800	-77
2.31167	-76
2.31533	-76
2.31900	-75
2.32267	-75
2.32633	-74
2.33000	-73
2.33367	-73
2.33733	-72
2.34100	-72
2.34467	-71
2.34833	-70
2.35200	-69
2.35567	-68
2.35933	-67
2.36300	-66
2.36667	-65
2.37033	-63
2.37400	-61
2.37767	-58
2.38133	-55
2.38500	-52
2.38867	-49
2.39233	-45
2.39600	-40
2.39967	-36
2.40333	-31
2.40700	-27
2.41067	-22
2.41433	-19
2.41800	-15
2.42167	-12
2.42533	-10
2.42900	-7
2.43267	-6
2.43633	-4
2.44000	-2
2.44367	-0
2.44733	1
2.45100	3
2.45467	4
2.45833	5
2.46200	6
2.46567	7
2.46933	7
2.47300	8
2.47667	8
2.48033	9
2.48400	9
2.48767	9
2.49133	10
2.49500	10
2.49867	11
2.50233	11
2.50600	11
2.50967	11
2.51333	10
2.51700	10
2.52067	9
2.52433	9
2.52800	8
2.53167	8
2.53533	8
2.53900	7
2.54267	7
2.54633	7
2.55000	8
2.55367	8
2.55733	9
2.56100	10
2.56467	11
2.56833	12
2.57200	13
2.57567	14
2.57933	14
2.58300	14
2.58667	14
2.59033	14
2.59400	14
2.59767	15
2.60133	15
2.60500	16
2.60867	16
2.61233	16
2.61600	17
2.61967	17
2.62333	17
2.62700	18
2.63067	18
2.63433	18
2.63800	19
2.64167	19
2.64533	19
2.64900	20
2.65267	20
2.65633	20
2.66000	21
2.66367	21
2.66733	21
2.67100	22
2.67467	22
2.67833	22
2.68200	22
2.68567	21
2.68933	21
2.69300	21
2.69667	21
2.70033	21
2.70400	20
2.70767	21
2.71133	21
2.71500	21
2.71867	22
2.72233	22
2.72600	23
2.72967	24
2.73333	24
2.73700	25
2.74067	26
2.74433	27
2.74800	27
2.75167	28
2.75533	28
2.75900	27
2.76267	27
2.76633	27
2.77000	26
2.77367	26
2.77733	25
2.78100	25
2.78467	25
2.78833	25
2.79200	25
2.79567	25
2.79933	25
2.80300	25
2.80667	26
2.81033	26
2.81400	26
2.81767	27
2.82133	27
2.82500	27
2.82867	27
2.83233	27
2.83600	28
2.83967	28
2.84333	28
2.84700	28
2.85067	28
2.85433	27
2.85800	27
2.86167	26
2.86533	24
2.86900	19
2.87267	12
2.87633	1
2.88000	-14
2.88367	-33
2.88733	-58
2.89100	-87
2.89467	-122
2.89833	-162
2.90200	-207
2.90567	-256
2.90933	-309
2.91300	-365
2.91667	-423
2.92033	-484
2.92400	-545
2.92767	-607
2.93133	-669
2.93500	-729
2.93867	-787
2.94233	-842
2.94600	-895
2.94967	-948
2.95333	-1004
2.95700	-1058
2.96067	-1100
2.96433	-1120
2.96800	-1114
2.97167	-1084
2.97533	-1033
2.97900	-967
2.98267	-890
2.98633	-809
2.99000	-727
2.99367	-648
2.99733	-572
3.00100	-501
3.00467	-437
3.00833	-379
3.01200	-327
3.01567	-281
3.01933	-241
3.02300	-206
3.02667	-175
3.03033	-149
3.03400	-126
3.03767	-106
3.04133	-88
3.04500	-73
3.04867	-61
3.05233	-50
3.05600	-40
3.05967	-32
3.06333	-25
3.06700	-19
3.07067	-14
3.07433	-10
3.07800	-6
3.08167	-3
3.08533	-0
3.08900	2
3.09267	4
3.09633	6
3.10000	8
3.10367	9
3.10733	10
3.11100	11
3.11467	12
3.11833	13
3.12200	14
3.12567	14
3.12933	15
3.13300	15
3.13667	16
3.14033	16
3.14400	17
3.14767	17
3.15133	17
3.15500	17
3.15867	18
3.16233	18
3.16600	18
3.16967	18
3.17333	19
3.17700	19
3.18067	19
3.18433	19
3.18800	19
3.19167	19
3.19533	19
3.19900	19
3.20267	19
3.20633	19
3.21000	19
3.21367	20
3.21733	20
3.22100	20
3.22467	20
3.22833	20
3.23200	20
3.23567	20
3.23933	21
3.24300	21
3.24667	21
3.25033	21
3.25400	22
3.25767	22
3.26133	22
3.26500	22
3.26867	22
3.27233	22
3.27600	22
3.27967	22
3.28333	22
3.28700	22
3.29067	23
3.29433	23
3.29800	23
3.30167	23
3.30533	23
3.30900	23
3.31267	23
3.31633	23
3.32000	23
3.32367	24
3.32733	24
3.33100	24
3.33467	24
3.33833	24
3.34200	24
3.34567	24
3.34933	25
3.35300	25
3.35667	25
3.36033	25
3.36400	25
3.36767	25
3.37133	25
3.37500	25
3.37867	25
3.38233	25
3.38600	25
3.38967	25
3.39333	26
3.39700	26
3.40067	26
3.40433	26
3.40800	26
3.41167	26
3.41533	26
3.41900	25
3.42267	25
3.42633	25
3.43000	25
3.43367	25
3.43733	25
3.44100	25
3.44467	25
3.44833	26
3.45200	26
3.45567	26
3.45933	27
3.46300	27
3.46667	27
3.47033	27
3.47400	27
3.47767	27
3.48133	27
3.48500	27
3.48867	28
3.49233	28
3.49600	27
3.49967	27
3.50333	27
3.50700	27
3.51067	27
3.51433	27
3.51800	27
3.52167	27
3.52533	27
3.52900	27
3.53267	27
3.53633	27
3.54000	27
3.54367	27
3.54733	27
3.55100	27
3.55467	27
3.55833	27
3.56200	27
3.56567	27
3.56933	27
3.57300	27
3.57667	27
3.58033	27
3.58400	27
3.58767	27
3.59133	27
3.59500	27
3.59867	26
3.60233	26
3.60600	26
3.60967	26
3.61333	26
3.61700	26
3.62067	26
3.62433	26
3.62800	26
3.63167	26
3.63533	27
3.63900	27
3.64267	27
3.64633	27
3.65000	27
3.65367	28
3.65733	28
3.66100	28
3.66467	28
3.66833	28
3.67200	28
3.67567	28
3.67933	29
3.68300	29
3.68667	29
3.69033	29
3.69400	29
3.69767	29
3.70133	29
3.70500	29
3.70867	28
3.71233	28
3.71600	28
3.71967	28
3.72333	28
3.72700	28
3.73067	28
3.73433	28
3.73800	28
3.74167	28
3.74533	28
3.74900	28
3.75267	28
3.75633	28
3.76000	28
3.76367	28
3.76733	28
3.77100	28
3.77467	28
3.77833	28
3.78200	28
3.78567	28
3.78933	28
3.79300	28
3.79667	28
3.80033	28
3.80400	28
3.80767	28
3.81133	28
3.81500	28
3.81867	27
3.82233	27
3.82600	27
3.82967	27
3.83333	27
3.83700	27
3.84067	27
3.84433	27
3.84800	26
3.85167	26
3.85533	26
3.85900	26
3.86267	26
3.86633	26
3.87000	26
3.87367	26
3.87733	26
3.88100	26
3.88467	26
3.88833	26
3.89200	26
3.89567	26
3.89933	26
3.90300	26
3.90667	26
3.91033	26
3.91400	26
3.91767	26
3.92133	26
3.92500	27
3.92867	27
3.93233	28
3.93600	28
3.93967	28
3.94333	28
3.94700	28
3.95067	28
3.95433	28
3.95800	28
3.96167	28
3.96533	28
3.96900	28
3.97267	28
3.97633	28
3.98000	28
3.98367	27
3.98733	27
3.99100	27
3.99467	27
3.99833	27

[Chromatogram (Ch3)]
Interval(msec)	220
# of Points	1091
Start Time(min)	0.002
End Time(min)	3.998
R.Time (min)	Intensity
0.00167	1
0.00533	2
0.00900	1
0.01267	2
0.01633	4
0.02000	4
0.02367	1
0.02733	0
0.03100	-1
0.03467	-2
0.03833	-2
0.04200	-1
0.04567	-1
0.04933	-1
0.05300	-2
0.05667	-1
0.06033	-2
0.06400	-1
0.06767	1
0.07133	2
0.07500	3
0.07867	3
0.08233	1
0.08600	0
0.08967	2
0.09333	3
0.09700	2
0.10067	1
0.10433	1
0.10800	1
0.11167	2
0.11533	4
0.11900	6
0.12267	6
0.12633	4
0.13000	1
0.13367	-3
0.13733	-3
0.14100	-3
0.14467	-2
0.14833	1
0.15200	3
0.15567	5
0.15933	5
0.16300	5
0.16667	5
0.17033	5
0.17400	6
0.17767	6
0.18133	6
0.18500	5
0.18867	3
0.19233	3
0.19600	3
0.19967	4
0.20333	6
0.20700	6
0.21067	7
0.21433	7
0.21800	7
0.22167	6
0.22533	4
0.22900	3
0.23267	6
0.23633	8
0.24000	10
0.24367	9
0.24733	9
0.25100	7
0.25467	8
0.25833	8
0.26200	7
0.26567	5
0.26933	5
0.27300	7
0.27667	6
0.28033	5
0.28400	7
0.28767	7
0.29133	7
0.29500	8
0.29867	7
0.30233	5
0.30600	5
0.30967	5
0.31333	6
0.31700	7
0.32067	8
0.32433	8
0.32800	10
0.33167	11
0.33533	10
0.33900	7
0.34267	6
0.34633	7
0.35000	7
0.35367	7
0.35733	5
0.36100	3
0.36467	2
0.36833	2
0.37200	3
0.37567	3
0.37933	4
0.38300	4
0.38667	4
0.39033	3
0.39400	3
0.39767	2
0.40133	2
0.40500	3
0.40867	4
0.41233	7
0.41600	8
0.41967	8
0.42333	9
0.42700	9
0.43067	7
0.43433	7
0.43800	7
0.44167	8
0.44533	9
0.44900	8
0.45267	6
0.45633	4
0.46000	3
0.46367	2
0.46733	4
0.47100	9
0.47467	11
0.47833	11
0.48200	10
0.48567	9
0.48933	8
0.49300	8
0.49667	8
0.50033	10
0.50400	11
0.50767	11
0.51133	10
0.51500	9
0.51867	10
0.52233	11
0.52600	12
0.52967	13
0.53333	13
0.53700	10
0.54067	7
0.54433	5
0.54800	5
0.55167	8
0.55533	10
0.55900	12
0.56267	15
0.56633	17
0.57000	16
0.57367	15
0.57733	16
0.58100	15
0.58467	14
0.58833	15
0.59200	16
0.59567	16
0.59933	16
0.60300	15
0.60667	17
0.61033	18
0.61400	17
0.61767	16
0.62133	15
0.62500	15
0.62867	16
0.63233	17
0.63600	19
0.63967	22
0.64333	22
0.64700	21
0.65067	20
0.65433	19
0.65800	19
0.66167	20
0.66533	21
0.66900	20
0.67267	18
0.67633	16
0.68000	14
0.68367	14
0.68733	14
0.69100	14
0.69467	13
0.69833	13
0.70200	13
0.70567	15
0.70933	17
0.71300	17
0.71667	18
0.72033	20
0.72400	22
0.72767	25
0.73133	25
0.73500	26
0.73867	26
0.74233	22
0.74600	20
0.74967	18
0.75333	18
0.75700	19
0.76067	20
0.76433	22
0.76800	21
0.77167	20
0.77533	18
0.77900	19
0.78267	19
0.78633	19
0.79000	18
0.79367	18
0.79733	18
0.80100	17
0.80467	17
0.80833	17
0.81200	18
0.81567	19
0.81933	18
0.82300	18
0.82667	17
0.83033	16
0.83400	16
0.83767	18
0.84133	19
0.84500	18
0.84867	18
0.85233	20
0.85600	20
0.85967	19
0.86333	18
0.86700	17
0.87067	18
0.87433	21
0.87800	23
0.88167	22
0.88533	22
0.88900	22
0.89267	22
0.89633	23
0.90000	24
0.90367	26
0.90733	25
0.91100	24
0.91467	24
0.91833	26
0.92200	28
0.92567	28
0.92933	27
0.93300	24
0.93667	21
0.94033	20
0.94400	19
0.94767	19
0.95133	21
0.95500	21
0.95867	21
0.96233	22
0.96600	21
0.96967	21
0.97333	20
0.97700	21
0.98067	22
0.98433	22
0.98800	22
0.99167	23
0.99533	24
0.99900	23
1.00267	24
1.00633	24
1.01000	26
1.01367	27
1.01733	26
1.02100	24
1.02467	25
1.02833	26
1.03200	27
1.03567	27
1.03933	25
1.04300	24
1.04667	22
1.05033	21
1.05400	20
1.05767	19
1.06133	18
1.06500	19
1.06867	21
1.07233	22
1.07600	23
1.07967	25
1.08333	26
1.08700	26
1.09067	25
1.09433	24
1.09800	25
1.10167	25
1.10533	25
1.10900	26
1.11267	28
1.11633	28
1.12000	29
1.12367	28
1.12733	28
1.13100	27
1.13467	27
1.13833	27
1.14200	26
1.14567	26
1.14933	29
1.15300	29
1.15667	28
1.16033	26
1.16400	24
1.16767	21
1.17133	19
1.17500	19
1.17867	20
1.18233	21
1.18600	23
1.18967	25
1.19333	25
1.19700	23
1.20067	22
1.20433	23
1.20800	24
1.21167	26
1.21533	26
1.21900	26
1.22267	27
1.22633	26
1.23000	25
1.23367	24
1.23733	24
1.24100	26
1.24467	26
1.24833	26
1.25200	25
1.25567	24
1.25933	24
1.26300	23
1.26667	21
1.27033	21
1.27400	22
1.27767	22
1.28133	23
1.28500	25
1.28867	27
1.29233	27
1.29600	25
1.29967	25
1.30333	25
1.30700	26
1.31067	24
1.31433	22
1.31800	21
1.32167	22
1.32533	23
1.32900	23
1.33267	24
1.33633	24
1.34000	24
1.34367	24
1.34733	24
1.35100	23
1.35467	21
1.35833	21
1.36200	22
1.36567	23
1.36933	24
1.37300	26
1.37667	28
1.38033	28
1.38400	28
1.38767	28
1.39133	29
1.39500	29
1.39867	27
1.40233	26
1.40600	25
1.40967	25
1.41333	24
1.41700	24
1.42067	24
1.42433	22
1.42800	21
1.43167	19
1.43533	19
1.43900	20
1.44267	21
1.44633	22
1.45000	22
1.45367	21
1.45733	20
1.46100	20
1.46467	20
1.46833	21
1.47200	23
1.47567	24
1.47933	24
1.48300	22
1.48667	19
1.49033	18
1.49400	18
1.49767	18
1.50133	20
1.50500	21
1.50867	22
1.51233	23
1.51600	24
1.51967	25
1.52333	27
1.52700	27
1.53067	27
1.53433	27
1.53800	26
1.54167	25
1.54533	26
1.54900	25
1.55267	24
1.55633	22
1.56000	23
1.56367	26
1.56733	27
1.57100	27
1.57467	25
1.57833	24
1.58200	25
1.58567	24
1.58933	25
1.59300	25
1.59667	25
1.60033	25
1.60400	25
1.60767	25
1.61133	25
1.61500	25
1.61867	26
1.62233	26
1.62600	25
1.62967	25
1.63333	28
1.63700	27
1.64067	28
1.64433	30
1.64800	29
1.65167	29
1.65533	31
1.65900	33
1.66267	33
1.66633	33
1.67000	31
1.67367	29
1.67733	28
1.68100	29
1.68467	31
1.68833	33
1.69200	33
1.69567	32
1.69933	32
1.70300	32
1.70667	30
1.71033	30
1.71400	32
1.71767	35
1.72133	36
1.72500	35
1.72867	35
1.73233	36
1.73600	35
1.73967	36
1.74333	37
1.74700	37
1.75067	36
1.75433	36
1.75800	37
1.76167	36
1.76533	33
1.76900	34
1.77267	34
1.77633	35
1.78000	36
1.78367	38
1.78733	39
1.79100	40
1.79467	40
1.79833	39
1.80200	40
1.80567	41
1.80933	40
1.81300	38
1.81667	38
1.82033	40
1.82400	42
1.82767	44
1.83133	46
1.83500	47
1.83867	48
1.84233	49
1.84600	48
1.84967	46
1.85333	46
1.85700	47
1.86067	48
1.86433	49
1.86800	51
1.87167	52
1.87533	53
1.87900	53
1.88267	52
1.88633	54
1.89000	57
1.89367	59
1.89733	61
1.90100	60
1.90467	59
1.90833	58
1.91200	57
1.91567	58
1.91933	58
1.92300	60
1.92667	61
1.93033	61
1.93400	61
1.93767	62
1.94133	62
1.94500	62
1.94867	63
1.95233	64
1.95600	64
1.95967	66
1.96333	66
1.96700	68
1.97067	69
1.97433	68
1.97800	68
1.98167	67
1.98533	68
1.98900	68
1.99267	70
1.99633	73
2.00000	74
2.00367	74
2.00733	77
2.01100	80
2.01467	83
2.01833	84
2.02200	85
2.02567	84
2.02933	84
2.03300	85
2.03667	86
2.04033	86
2.04400	89
2.04767	91
2.05133	91
2.05500	91
2.05867	92
2.06233	95
2.06600	96
2.06967	97
2.07333	99
2.07700	100
2.08067	99
2.08433	99
2.08800	98
2.09167	98
2.09533	98
2.09900	98
2.10267	98
2.10633	97
2.11000	101
2.11367	105
2.11733	108
2.12100	113
2.12467	114
2.12833	115
2.13200	115
2.13567	117
2.13933	119
2.14300	118
2.14667	115
2.15033	113
2.15400	112
2.15767	112
2.16133	112
2.16500	113
2.16867	114
2.17233	115
2.17600	118
2.17967	119
2.18333	118
2.18700	118
2.19067	121
2.19433	124
2.19800	124
2.20167	125
2.20533	124
2.20900	124
2.21267	125
2.21633	126
2.22000	127
2.22367	128
2.22733	127
2.23100	127
2.23467	128
2.23833	129
2.24200	128
2.24567	128
2.24933	129
2.25300	130
2.25667	130
2.26033	132
2.26400	132
2.26767	133
2.27133	136
2.27500	138
2.27867	139
2.28233	139
2.28600	139
2.28967	141
2.29333	142
2.29700	141
2.30067	141
2.30433	143
2.30800	144
2.31167	144
2.31533	146
2.31900	147
2.32267	147
2.32633	148
2.33000	147
2.33367	147
2.33733	149
2.34100	150
2.34467	150
2.34833	150
2.35200	149
2.35567	147
2.35933	150
2.36300	153
2.36667	155
2.37033	156
2.37400	157
2.37767	158
2.38133	157
2.38500	152
2.38867	148
2.39233	146
2.39600	144
2.39967	145
2.40333	146
2.40700	148
2.41067	150
2.41433	153
2.41800	156
2.42167	157
2.42533	158
2.42900	157
2.43267	155
2.43633	153
2.44000	157
2.44367	195
2.44733	269
2.45100	340
2.45467	390
2.45833	405
2.46200	395
2.46567	377
2.46933	362
2.47300	347
2.47667	327
2.48033	304
2.48400	279
2.48767	252
2.49133	228
2.49500	207
2.49867	194
2.50233	187
2.50600	186
2.50967	189
2.51333	193
2.51700	195
2.52067	193
2.52433	188
2.52800	179
2.53167	166
2.53533	152
2.53900	141
2.54267	130
2.54633	120
2.55000	113
2.55367	108
2.55733	104
2.56100	101
2.56467	99
2.56833	97
2.57200	95
2.57567	94
2.57933	92
2.58300	93
2.58667	93
2.59033	95
2.59400	100
2.59767	107
2.60133	114
2.60500	120
2.60867	128
2.61233	135
2.61600	140
2.61967	141
2.62333	140
2.62700	136
2.63067	131
2.63433	122
2.63800	113
2.64167	105
2.64533	95
2.64900	85
2.65267	75
2.65633	67
2.66000	60
2.66367	56
2.66733	52
2.67100	49
2.67467	48
2.67833	48
2.68200	47
2.68567	46
2.68933	45
2.69300	45
2.69667	46
2.70033	46
2.70400	46
2.70767	47
2.71133	48
2.71500	49
2.71867	49
2.72233	52
2.72600	54
2.72967	54
2.73333	54
2.73700	54
2.74067	55
2.74433	56
2.74800	58
2.75167	58
2.75533	58
2.75900	57
2.76267	59
2.76633	63
2.77000	66
2.77367	69
2.77733	71
2.78100	73
2.78467	75
2.78833	80
2.79200	82
2.79567	85
2.79933	87
2.80300	90
2.80667	94
2.81033	96
2.81400	97
2.81767	100
2.82133	104
2.82500	105
2.82867	105
2.83233	106
2.83600	116
2.83967	141
2.84333	192
2.84700	285
2.85067	445
2.85433	694
2.85800	1044
2.86167	1493
2.86533	2021
2.86900	2593
2.87267	3163
2.87633	3687
2.88000	4119
2.88367	4427
2.88733	4595
2.89100	4627
2.89467	4533
2.89833	4341
2.90200	4076
2.90567	3764
2.90933	3433
2.91300	3098
2.91667	2771
2.92033	2463
2.92400	2179
2.92767	1917
2.93133	1681
2.93500	1467
2.93867	1256
2.94233	1063
2.94600	906
2.94967	789
2.95333	704
2.95700	642
2.96067	594
2.96433	556
2.96800	529
2.97167	514
2.97533	510
2.97900	512
2.98267	515
2.98633	520
2.99000	525
2.99367	530
2.99733	533
3.00100	534
3.00467	535
3.00833	537
3.01200	539
3.01567	542
3.01933	543
3.02300	546
3.02667	546
3.03033	545
3.03400	544
3.03767	545
3.04133	547
3.04500	545
3.04867	543
3.05233	542
3.05600	540
3.05967	540
3.06333	541
3.06700	541
3.07067	541
3.07433	542
3.07800	541
3.08167	539
3.08533	538
3.08900	538
3.09267	538
3.09633	539
3.10000	539
3.10367	540
3.10733	542
3.11100	541
3.11467	539
3.11833	537
3.12200	536
3.12567	537
3.12933	539
3.13300	542
3.13667	545
3.14033	547
3.14400	548
3.14767	547
3.15133	547
3.15500	549
3.15867	550
3.16233	554
3.16600	555
3.16967	557
3.17333	561
3.17700	565
3.18067	569
3.18433	571
3.18800	573
3.19167	575
3.19533	576
3.19900	577
3.20267	579
3.20633	577
3.21000	576
3.21367	577
3.21733	580
3.22100	581
3.22467	583
3.22833	583
3.23200	583
3.23567	582
3.23933	581
3.24300	580
3.24667	577
3.25033	576
3.25400	577
3.25767	576
3.26133	572
3.26500	570
3.26867	569
3.27233	568
3.27600	567
3.27967	566
3.28333	566
3.28700	566
3.29067	566
3.29433	564
3.29800	562
3.30167	562
3.30533	559
3.30900	556
3.31267	553
3.31633	549
3.32000	547
3.32367	544
3.32733	543
3.33100	540
3.33467	537
3.33833	536
3.34200	536
3.34567	535
3.34933	534
3.35300	532
3.35667	527
3.36033	524
3.36400	523
3.36767	521
3.37133	518
3.37500	513
3.37867	512
3.38233	511
3.38600	511
3.38967	511
3.39333	510
3.39700	510
3.40067	511
3.40433	512
3.40800	510
3.41167	509
3.41533	507
3.41900	504
3.42267	504
3.42633	502
3.43000	498
3.43367	496
3.43733	492
3.44100	489
3.44467	489
3.44833	487
3.45200	485
3.45567	484
3.45933	484
3.46300	484
3.46667	480
3.47033	476
3.47400	470
3.47767	465
3.48133	463
3.48500	462
3.48867	462
3.49233	461
3.49600	460
3.49967	457
3.50333	455
3.50700	453
3.51067	449
3.51433	445
3.51800	443
3.52167	439
3.52533	438
3.52900	437
3.53267	436
3.53633	435
3.54000	434
3.54367	435
3.54733	436
3.55100	435
3.55467	433
3.55833	429
3.56200	427
3.56567	425
3.56933	424
3.57300	423
3.57667	422
3.58033	421
3.58400	418
3.58767	416
3.59133	414
3.59500	414
3.59867	415
3.60233	413
3.60600	412
3.60967	413
3.61333	415
3.61700	415
3.62067	414
3.62433	411
3.62800	408
3.63167	406
3.63533	404
3.63900	404
3.64267	403
3.64633	403
3.65000	402
3.65367	399
3.65733	398
3.66100	395
3.66467	392
3.66833	391
3.67200	390
3.67567	390
3.67933	391
3.68300	391
3.68667	389
3.69033	388
3.69400	386
3.69767	384
3.70133	383
3.70500	386
3.70867	386
3.71233	384
3.71600	383
3.71967	382
3.72333	381
3.72700	379
3.73067	379
3.73433	380
3.73800	380
3.74167	378
3.74533	374
3.74900	372
3.75267	372
3.75633	373
3.76000	373
3.76367	371
3.76733	370
3.77100	368
3.77467	367
3.77833	368
3.78200	367
3.78567	366
3.78933	367
3.79300	365
3.79667	362
3.80033	361
3.80400	360
3.80767	361
3.81133	361
3.81500	361
3.81867	360
3.82233	359
3.82600	358
3.82967	357
3.83333	356
3.83700	355
3.84067	354
3.84433	355
3.84800	354
3.85167	353
3.85533	353
3.85900	353
3.86267	355
3.86633	357
3.87000	356
3.87367	356
3.87733	358
3.88100	355
3.88467	352
3.88833	348
3.89200	346
3.89567	343
3.89933	340
3.90300	340
3.90667	341
3.91033	342
3.91400	344
3.91767	346
3.92133	347
3.92500	346
3.92867	345
3.93233	341
3.93600	337
3.93967	336
3.94333	333
3.94700	333
3.95067	335
3.95433	335
3.95800	335
3.96167	335
3.96533	332
3.96900	332
3.97267	330
3.97633	328
3.98000	327
3.98367	327
3.98733	327
3.99100	327
3.99467	329
3.99833	329

[Status Trace (Column Oven Temperature)]
Interval(msec)	1000
# of Points	240
Start Time(min)	0.007
End Time(min)	3.991
Intensity Units	
Intensity Multiplier	1
R.Time (min)	Intensity
0.00748	35.02
0.02415	35.03
0.04082	35.03
0.05748	35.02
0.07415	35.02
0.09082	35.01
0.10748	35.02
0.12415	35.03
0.14082	35.03
0.15748	35.03
0.17415	35.03
0.19082	35.02
0.20748	35.02
0.22415	35.02
0.24082	35.04
0.25748	35.05
0.27415	35.06
0.29082	35.07
0.30748	35.06
0.32415	35.06
0.34082	35.05
0.35748	35.05
0.37415	35.03
0.39082	35.02
0.40748	35.01
0.42415	35.00
0.44082	35.00
0.45748	34.99
0.47415	34.99
0.49082	34.98
0.50748	34.98
0.52415	34.98
0.54082	34.98
0.55748	34.99
0.57415	34.98
0.59082	34.99
0.60748	35.00
0.62415	34.99
0.64082	34.99
0.65748	34.98
0.67415	34.98
0.69082	34.99
0.70748	34.99
0.72415	34.99
0.74082	35.00
0.75748	35.00
0.77415	35.00
0.79082	34.99
0.80748	34.98
0.82415	34.98
0.84082	34.98
0.85748	34.99
0.87415	34.98
0.89082	34.98
0.90748	34.99
0.92415	35.00
0.94082	35.01
0.95748	35.03
0.97415	35.04
0.99082	35.04
1.00748	35.05
1.02415	35.04
1.04082	35.02
1.05748	35.02
1.07415	35.01
1.09082	34.99
1.10748	34.99
1.12415	34.98
1.14082	34.99
1.15748	34.98
1.17415	34.98
1.19082	34.99
1.20748	34.99
1.22415	34.99
1.24082	34.98
1.25748	34.97
1.27415	34.97
1.29082	34.98
1.30748	34.98
1.32415	34.97
1.34082	34.98
1.35748	34.98
1.37415	34.98
1.39082	34.99
1.40748	35.00
1.42415	34.99
1.44082	34.99
1.45748	35.00
1.47415	35.00
1.49082	35.00
1.50748	35.00
1.52415	34.99
1.54082	34.98
1.55748	34.98
1.57415	35.00
1.59082	35.02
1.60748	35.08
1.62415	35.20
1.64082	35.38
1.65748	35.62
1.67415	35.94
1.69082	36.30
1.70748	36.66
1.72415	37.00
1.74082	37.32
1.75748	37.64
1.77415	37.98
1.79082	38.33
1.80748	38.65
1.82415	38.99
1.84082	39.32
1.85748	39.65
1.87415	39.99
1.89082	40.30
1.90748	40.62
1.92415	40.94
1.94082	41.28
1.95748	41.63
1.97415	41.94
1.99082	42.27
2.00748	42.61
2.02415	42.97
2.04082	43.27
2.05748	43.58
2.07415	43.90
2.09082	44.24
2.10748	44.56
2.12415	44.89
2.14082	45.21
2.15748	45.54
2.17415	45.86
2.19082	46.20
2.20748	46.50
2.22415	46.83
2.24082	47.17
2.25748	47.50
2.27415	47.82
2.29082	48.17
2.30748	48.49
2.32415	48.81
2.34082	49.13
2.35748	49.42
2.37415	49.63
2.39082	49.69
2.40748	49.68
2.42415	49.70
2.44082	49.70
2.45748	49.70
2.47415	49.72
2.49082	49.74
2.50748	49.75
2.52415	49.76
2.54082	49.78
2.55748	49.79
2.57415	49.79
2.59082	49.81
2.60748	49.82
2.62415	49.82
2.64082	49.83
2.65748	49.84
2.67415	49.84
2.69082	49.85
2.70748	49.86
2.72415	49.86
2.74082	49.84
2.75748	49.85
2.77415	49.87
2.79082	49.88
2.80748	49.88
2.82415	49.88
2.84082	49.88
2.85748	49.88
2.87415	49.87
2.89082	49.88
2.90748	49.88
2.92415	49.89
2.94082	49.91
2.95748	49.94
2.97415	49.95
2.99082	49.97
3.00748	49.98
3.02415	49.99
3.04082	49.99
3.05748	50.00
3.07415	50.00
3.09082	50.00
3.10748	50.00
3.12415	50.01
3.14082	50.01
3.15748	50.03
3.17415	50.03
3.19082	50.04
3.20748	50.04
3.22415	50.05
3.24082	50.05
3.25748	50.06
3.27415	50.07
3.29082	50.08
3.30748	50.09
3.32415	50.08
3.34082	50.08
3.35748	50.09
3.37415	50.09
3.39082	50.08
3.40748	50.09
3.42415	50.10
3.44082	50.10
3.45748	50.09
3.47415	50.09
3.49082	50.09
3.50748	50.08
3.52415	50.08
3.54082	50.08
3.55748	50.09
3.57415	50.10
3.59082	50.10
3.60748	50.09
3.62415	50.10
3.64082	50.09
3.65748	50.10
3.67415	50.09
3.69082	50.08
3.70748	50.08
3.72415	50.07
3.74082	50.08
3.75748	50.08
3.77415	50.07
3.79082	50.07
3.80748	50.07
3.82415	50.07
3.84082	50.07
3.85748	50.08
3.87415	50.08
3.89082	50.08
3.90748	50.08
3.92415	50.07
3.94082	50.06
3.95748	50.06
3.97415	50.05
3.99082	50.05

[Status Trace (Injection Unit Temperature)]
Interval(msec)	1000
# of Points	240
Start Time(min)	0.007
End Time(min)	3.991
Intensity Units	
Intensity Multiplier	1
R.Time (min)	Intensity
0.00748	99.98
0.02415	99.98
0.04082	99.98
0.05748	99.98
0.07415	99.98
0.09082	99.98
0.10748	99.99
0.12415	99.98
0.14082	99.99
0.15748	99.98
0.17415	99.98
0.19082	99.98
0.20748	99.99
0.22415	99.98
0.24082	99.98
0.25748	99.98
0.27415	99.98
0.29082	99.98
0.30748	99.98
0.32415	99.99
0.34082	99.99
0.35748	99.98
0.37415	99.99
0.39082	99.99
0.40748	99.98
0.42415	99.98
0.44082	99.99
0.45748	99.98
0.47415	99.98
0.49082	99.98
0.50748	99.98
0.52415	99.98
0.54082	99.98
0.55748	99.98
0.57415	99.98
0.59082	99.98
0.60748	99.98
0.62415	99.98
0.64082	99.98
0.65748	99.98
0.67415	99.98
0.69082	99.98
0.70748	99.98
0.72415	99.99
0.74082	99.98
0.75748	99.98
0.77415	99.98
0.79082	99.98
0.80748	99.98
0.82415	99.98
0.84082	99.98
0.85748	99.98
0.87415	99.98
0.89082	99.98
0.90748	99.98
0.92415	99.98
0.94082	99.98
0.95748	99.98
0.97415	99.98
0.99082	99.98
1.00748	99.98
1.02415	99.98
1.04082	99.98
1.05748	99.98
1.07415	99.98
1.09082	99.98
1.10748	99.98
1.12415	99.98
1.14082	99.98
1.15748	99.98
1.17415	99.98
1.19082	99.98
1.20748	99.98
1.22415	99.97
1.24082	99.98
1.25748	99.98
1.27415	99.98
1.29082	99.98
1.30748	99.98
1.32415	99.98
1.34082	99.98
1.35748	99.98
1.37415	99.98
1.39082	99.98
1.40748	99.98
1.42415	99.98
1.44082	99.98
1.45748	99.98
1.47415	99.98
1.49082	99.98
1.50748	99.98
1.52415	99.99
1.54082	99.99
1.55748	99.98
1.57415	99.98
1.59082	99.99
1.60748	99.99
1.62415	99.99
1.64082	99.99
1.65748	99.99
1.67415	99.99
1.69082	99.99
1.70748	99.99
1.72415	99.99
1.74082	99.99
1.75748	99.98
1.77415	99.99
1.79082	99.99
1.80748	99.99
1.82415	99.98
1.84082	99.99
1.85748	99.98
1.87415	99.98
1.89082	99.98
1.90748	99.98
1.92415	99.98
1.94082	99.98
1.95748	99.98
1.97415	99.98
1.99082	99.98
2.00748	99.98
2.02415	99.98
2.04082	99.98
2.05748	99.98
2.07415	99.98
2.09082	99.98
2.10748	99.98
2.12415	99.97
2.14082	99.97
2.15748	99.97
2.17415	99.97
2.19082	99.97
2.20748	99.97
2.22415	99.97
2.24082	99.97
2.25748	99.97
2.27415	99.96
2.29082	99.96
2.30748	99.96
2.32415	99.96
2.34082	99.96
2.35748	99.96
2.37415	99.96
2.39082	99.96
2.40748	99.96
2.42415	99.96
2.44082	99.96
2.45748	99.96
2.47415	99.96
2.49082	99.97
2.50748	99.96
2.52415	99.96
2.54082	99.96
2.55748	99.97
2.57415	99.96
2.59082	99.97
2.60748	99.97
2.62415	99.97
2.64082	99.97
2.65748	99.97
2.67415	99.98
2.69082	99.98
2.70748	99.98
2.72415	99.98
2.74082	99.98
2.75748	99.99
2.77415	99.98
2.79082	99.99
2.80748	99.99
2.82415	100.00
2.84082	99.99
2.85748	100.00
2.87415	100.00
2.89082	100.00
2.90748	100.00
2.92415	100.01
2.94082	100.00
2.95748	100.01
2.97415	100.01
2.99082	100.01
3.00748	100.01
3.02415	100.02
3.04082	100.02
3.05748	100.02
3.07415	100.02
3.09082	100.02
3.10748	100.02
3.12415	100.03
3.14082	100.02
3.15748	100.03
3.17415	100.03
3.19082	100.03
3.20748	100.03
3.22415	100.04
3.24082	100.03
3.25748	100.04
3.27415	100.04
3.29082	100.04
3.30748	100.04
3.32415	100.03
3.34082	100.04
3.35748	100.04
3.37415	100.04
3.39082	100.04
3.40748	100.04
3.42415	100.04
3.44082	100.04
3.45748	100.04
3.47415	100.04
3.49082	100.04
3.50748	100.04
3.52415	100.04
3.54082	100.05
3.55748	100.05
3.57415	100.04
3.59082	100.04
3.60748	100.05
3.62415	100.05
3.64082	100.04
3.65748	100.05
3.67415	100.05
3.69082	100.05
3.70748	100.05
3.72415	100.05
3.74082	100.05
3.75748	100.05
3.77415	100.05
3.79082	100.05
3.80748	100.05
3.82415	100.05
3.84082	100.05
3.85748	100.05
3.87415	100.05
3.89082	100.05
3.90748	100.05
3.92415	100.05
3.94082	100.05
3.95748	100.05
3.97415	100.05
3.99082	100.05

[Status Trace (Carrier Gas Pressure)]
Interval(msec)	1000
# of Points	240
Start Time(min)	0.007
End Time(min)	3.991
Intensity Units	
Intensity Multiplier	1
R.Time (min)	Intensity
0.00748	58.00
0.02415	55.44
0.04082	57.15
0.05748	59.27
0.07415	59.33
0.09082	58.04
0.10748	57.98
0.12415	58.01
0.14082	58.01
0.15748	58.00
0.17415	58.00
0.19082	58.00
0.20748	58.00
0.22415	58.00
0.24082	58.00
0.25748	58.00
0.27415	58.00
0.29082	58.00
0.30748	58.00
0.32415	58.00
0.34082	58.00
0.35748	58.00
0.37415	58.00
0.39082	58.00
0.40748	58.00
0.42415	58.00
0.44082	58.00
0.45748	58.00
0.47415	58.00
0.49082	58.00
0.50748	58.00
0.52415	58.00
0.54082	58.00
0.55748	58.00
0.57415	58.00
0.59082	58.00
0.60748	58.00
0.62415	58.00
0.64082	58.00
0.65748	58.00
0.67415	58.00
0.69082	58.00
0.70748	58.00
0.72415	58.00
0.74082	58.00
0.75748	58.00
0.77415	58.00
0.79082	58.00
0.80748	58.00
0.82415	58.00
0.84082	58.00
0.85748	58.00
0.87415	58.00
0.89082	58.00
0.90748	58.00
0.92415	58.00
0.94082	58.00
0.95748	58.00
0.97415	58.00
0.99082	58.00
1.00748	58.00
1.02415	58.00
1.04082	58.00
1.05748	58.00
1.07415	58.00
1.09082	58.00
1.10748	58.00
1.12415	58.00
1.14082	58.00
1.15748	58.00
1.17415	58.00
1.19082	58.00
1.20748	58.00
1.22415	58.00
1.24082	58.00
1.25748	58.00
1.27415	58.00
1.29082	58.00
1.30748	58.00
1.32415	58.00
1.34082	58.00
1.35748	58.00
1.37415	58.00
1.39082	58.00
1.40748	58.00
1.42415	58.00
1.44082	58.00
1.45748	58.00
1.47415	58.00
1.49082	58.00
1.50748	58.00
1.52415	58.00
1.54082	58.00
1.55748	58.00
1.57415	58.00
1.59082	58.00
1.60748	58.00
1.62415	58.00
1.64082	58.00
1.65748	58.00
1.67415	58.01
1.69082	58.00
1.70748	58.00
1.72415	58.00
1.74082	58.00
1.75748	58.00
1.77415	58.00
1.79082	58.00
1.80748	58.00
1.82415	58.00
1.84082	58.00
1.85748	58.00
1.87415	58.00
1.89082	58.00
1.90748	58.00
1.92415	58.00
1.94082	58.00
1.95748	58.00
1.97415	58.00
1.99082	58.00
2.00748	58.00
2.02415	58.00
2.04082	58.00
2.05748	58.00
2.07415	58.00
2.09082	58.00
2.10748	58.00
2.12415	58.00
2.14082	58.00
2.15748	58.00
2.17415	58.00
2.19082	58.00
2.20748	58.00
2.22415	58.00
2.24082	58.00
2.25748	58.00
2.27415	58.00
2.29082	58.00
2.30748	58.00
2.32415	58.00
2.34082	58.00
2.35748	58.00
2.37415	58.00
2.39082	57.99
2.40748	57.99
2.42415	58.00
2.44082	58.00
2.45748	58.00
2.47415	58.00
2.49082	58.00
2.50748	57.99
2.52415	57.99
2.54082	58.00
2.55748	58.00
2.57415	58.00
2.59082	58.00
2.60748	58.00
2.62415	58.00
2.64082	58.00
2.65748	58.00
2.67415	58.00
2.69082	58.00
2.70748	58.00
2.72415	58.00
2.74082	58.00
2.75748	58.00
2.77415	58.00
2.79082	58.00
2.80748	58.00
2.82415	58.00
2.84082	58.00
2.85748	58.00
2.87415	58.00
2.89082	58.00
2.90748	58.00
2.92415	58.00
2.94082	58.00
2.95748	58.00
2.97415	58.00
2.99082	58.00
3.00748	58.00
3.02415	58.00
3.04082	58.00
3.05748	58.00
3.07415	58.00
3.09082	58.00
3.10748	58.00
3.12415	58.00
3.14082	58.00
3.15748	58.00
3.17415	58.00
3.19082	58.00
3.20748	58.00
3.22415	58.00
3.24082	58.00
3.25748	58.00
3.27415	58.00
3.29082	58.00
3.30748	58.00
3.32415	58.00
3.34082	58.00
3.35748	58.00
3.37415	58.00
3.39082	58.00
3.40748	58.00
3.42415	58.00
3.44082	58.00
3.45748	58.00
3.47415	58.00
3.49082	58.00
3.50748	58.00
3.52415	58.00
3.54082	58.00
3.55748	58.00
3.57415	58.00
3.59082	58.00
3.60748	58.00
3.62415	58.00
3.64082	58.00
3.65748	58.00
3.67415	58.00
3.69082	58.00
3.70748	58.00
3.72415	58.00
3.74082	58.00
3.75748	58.00
3.77415	58.00
3.79082	58.00
3.80748	58.00
3.82415	58.00
3.84082	58.00
3.85748	58.00
3.87415	58.00
3.89082	58.00
3.90748	58.00
3.92415	58.00
3.94082	58.00
3.95748	58.00
3.97415	58.00
3.99082	58.00

[Status Trace (Carrier Gas Flow)]
Interval(msec)	1000
# of Points	240
Start Time(min)	0.007
End Time(min)	3.991
Intensity Units	
Intensity Multiplier	1
R.Time (min)	Intensity
0.00748	34.52
0.02415	34.54
0.04082	34.55
0.05748	34.55
0.07415	34.50
0.09082	34.52
0.10748	34.52
0.12415	34.51
0.14082	34.53
0.15748	34.52
0.17415	34.52
0.19082	34.52
0.20748	34.52
0.22415	34.53
0.24082	34.52
0.25748	34.51
0.27415	34.52
0.29082	34.52
0.30748	34.53
0.32415	34.51
0.34082	34.52
0.35748	34.51
0.37415	34.52
0.39082	34.53
0.40748	34.52
0.42415	34.52
0.44082	34.52
0.45748	34.52
0.47415	34.52
0.49082	34.52
0.50748	34.52
0.52415	34.52
0.54082	34.51
0.55748	34.52
0.57415	34.52
0.59082	34.52
0.60748	34.51
0.62415	34.52
0.64082	34.52
0.65748	34.52
0.67415	34.52
0.69082	34.52
0.70748	34.52
0.72415	34.52
0.74082	34.52
0.75748	34.52
0.77415	34.52
0.79082	34.52
0.80748	34.52
0.82415	34.52
0.84082	34.52
0.85748	34.51
0.87415	34.52
0.89082	34.52
0.90748	34.52
0.92415	34.51
0.94082	34.52
0.95748	34.52
0.97415	34.52
0.99082	34.51
1.00748	34.52
1.02415	34.52
1.04082	34.52
1.05748	34.52
1.07415	34.52
1.09082	34.51
1.10748	34.52
1.12415	34.52
1.14082	34.52
1.15748	34.51
1.17415	34.52
1.19082	34.52
1.20748	34.52
1.22415	34.51
1.24082	34.52
1.25748	34.52
1.27415	34.52
1.29082	34.52
1.30748	34.52
1.32415	34.52
1.34082	34.52
1.35748	34.52
1.37415	34.52
1.39082	34.51
1.40748	34.52
1.42415	34.52
1.44082	34.51
1.45748	34.51
1.47415	34.53
1.49082	34.52
1.50748	34.51
1.52415	34.52
1.54082	34.52
1.55748	34.51
1.57415	34.51
1.59082	34.52
1.60748	34.52
1.62415	34.52
1.64082	34.52
1.65748	34.52
1.67415	34.53
1.69082	34.52
1.70748	34.52
1.72415	34.51
1.74082	34.52
1.75748	34.52
1.77415	34.52
1.79082	34.53
1.80748	34.52
1.82415	34.52
1.84082	34.52
1.85748	34.52
1.87415	34.52
1.89082	34.52
1.90748	34.51
1.92415	34.52
1.94082	34.52
1.95748	34.52
1.97415	34.52
1.99082	34.51
2.00748	34.52
2.02415	34.53
2.04082	34.51
2.05748	34.52
2.07415	34.52
2.09082	34.52
2.10748	34.51
2.12415	34.50
2.14082	34.51
2.15748	34.52
2.17415	34.51
2.19082	34.52
2.20748	34.51
2.22415	34.51
2.24082	34.52
2.25748	34.52
2.27415	34.52
2.29082	34.52
2.30748	34.52
2.32415	34.52
2.34082	34.51
2.35748	34.51
2.37415	34.51
2.39082	34.52
2.40748	34.52
2.42415	34.52
2.44082	34.53
2.45748	34.52
2.47415	34.52
2.49082	34.52
2.50748	34.32
2.52415	34.52
2.54082	34.51
2.55748	34.53
2.57415	34.52
2.59082	34.52
2.60748	34.52
2.62415	34.52
2.64082	34.51
2.65748	34.52
2.67415	34.52
2.69082	34.52
2.70748	34.52
2.72415	34.53
2.74082	34.52
2.75748	34.51
2.77415	34.52
2.79082	34.53
2.80748	34.51
2.82415	34.52
2.84082	34.52
2.85748	34.52
2.87415	34.51
2.89082	34.52
2.90748	34.52
2.92415	34.51
2.94082	34.52
2.95748	34.52
2.97415	34.52
2.99082	34.51
3.00748	34.51
3.02415	34.52
3.04082	34.52
3.05748	34.52
3.07415	34.52
3.09082	34.52
3.10748	34.52
3.12415	34.52
3.14082	34.52
3.15748	34.52
3.17415	34.52
3.19082	34.52
3.20748	34.52
3.22415	34.52
3.24082	34.51
3.25748	34.53
3.27415	34.51
3.29082	34.52
3.30748	34.52
3.32415	34.52
3.34082	34.52
3.35748	34.51
3.37415	34.52
3.39082	34.52
3.40748	34.52
3.42415	34.52
3.44082	34.51
3.45748	34.52
3.47415	34.51
3.49082	34.52
3.50748	34.52
3.52415	34.52
3.54082	34.52
3.55748	34.52
3.57415	34.52
3.59082	34.52
3.60748	34.53
3.62415	34.52
3.64082	34.52
3.65748	34.51
3.67415	34.53
3.69082	34.52
3.70748	34.51
3.72415	34.52
3.74082	34.51
3.75748	34.52
3.77415	34.52
3.79082	34.52
3.80748	34.52
3.82415	34.51
3.84082	34.52
3.85748	34.52
3.87415	34.52
3.89082	34.51
3.90748	34.51
3.92415	34.53
3.94082	34.51
3.95748	34.52
3.97415	34.52
3.99082	34.53

[Status Trace (Column Flow)]
Interval(msec)	1000
# of Points	240
Start Time(min)	0.007
End Time(min)	3.991
Intensity Units	
Intensity Multiplier	1
R.Time (min)	Intensity
0.00748	5.52
0.02415	5.22
0.04082	5.42
0.05748	5.67
0.07415	5.67
0.09082	5.53
0.10748	5.52
0.12415	5.52
0.14082	5.52
0.15748	5.52
0.17415	5.52
0.19082	5.52
0.20748	5.52
0.22415	5.52
0.24082	5.52
0.25748	5.52
0.27415	5.52
0.29082	5.52
0.30748	5.52
0.32415	5.52
0.34082	5.52
0.35748	5.52
0.37415	5.52
0.39082	5.52
0.40748	5.52
0.42415	5.52
0.44082	5.52
0.45748	5.52
0.47415	5.52
0.49082	5.52
0.50748	5.52
0.52415	5.52
0.54082	5.52
0.55748	5.52
0.57415	5.52
0.59082	5.52
0.60748	5.52
0.62415	5.52
0.64082	5.52
0.65748	5.52
0.67415	5.52
0.69082	5.52
0.70748	5.52
0.72415	5.52
0.74082	5.52
0.75748	5.52
0.77415	5.52
0.79082	5.52
0.80748	5.52
0.82415	5.52
0.84082	5.52
0.85748	5.52
0.87415	5.52
0.89082	5.52
0.90748	5.52
0.92415	5.52
0.94082	5.52
0.95748	5.52
0.97415	5.52
0.99082	5.52
1.00748	5.52
1.02415	5.52
1.04082	5.52
1.05748	5.52
1.07415	5.52
1.09082	5.52
1.10748	5.52
1.12415	5.52
1.14082	5.52
1.15748	5.52
1.17415	5.52
1.19082	5.52
1.20748	5.52
1.22415	5.52
1.24082	5.52
1.25748	5.52
1.27415	5.52
1.29082	5.52
1.30748	5.52
1.32415	5.52
1.34082	5.52
1.35748	5.52
1.37415	5.52
1.39082	5.52
1.40748	5.52
1.42415	5.52
1.44082	5.52
1.45748	5.52
1.47415	5.52
1.49082	5.52
1.50748	5.52
1.52415	5.52
1.54082	5.52
1.55748	5.52
1.57415	5.52
1.59082	5.52
1.60748	5.52
1.62415	5.51
1.64082	5.51
1.65748	5.50
1.67415	5.49
1.69082	5.48
1.70748	5.47
1.72415	5.46
1.74082	5.45
1.75748	5.44
1.77415	5.43
1.79082	5.42
1.80748	5.41
1.82415	5.40
1.84082	5.39
1.85748	5.38
1.87415	5.37
1.89082	5.36
1.90748	5.35
1.92415	5.34
1.94082	5.33
1.95748	5.32
1.97415	5.31
1.99082	5.30
2.00748	5.29
2.02415	5.28
2.04082	5.27
2.05748	5.26
2.07415	5.25
2.09082	5.24
2.10748	5.23
2.12415	5.22
2.14082	5.21
2.15748	5.20
2.17415	5.19
2.19082	5.18
2.20748	5.18
2.22415	5.17
2.24082	5.16
2.25748	5.15
2.27415	5.14
2.29082	5.13
2.30748	5.12
2.32415	5.11
2.34082	5.10
2.35748	5.09
2.37415	5.09
2.39082	5.08
2.40748	5.09
2.42415	5.09
2.44082	5.09
2.45748	5.09
2.47415	5.08
2.49082	5.08
2.50748	5.08
2.52415	5.08
2.54082	5.08
2.55748	5.08
2.57415	5.08
2.59082	5.08
2.60748	5.08
2.62415	5.08
2.64082	5.08
2.65748	5.08
2.67415	5.08
2.69082	5.08
2.70748	5.08
2.72415	5.08
2.74082	5.08
2.75748	5.08
2.77415	5.08
2.79082	5.08
2.80748	5.08
2.82415	5.08
2.84082	5.08
2.85748	5.08
2.87415	5.08
2.89082	5.08
2.90748	5.08
2.92415	5.08
2.94082	5.08
2.95748	5.08
2.97415	5.08
2.99082	5.08
3.00748	5.08
3.02415	5.08
3.04082	5.08
3.05748	5.08
3.07415	5.08
3.09082	5.08
3.10748	5.08
3.12415	5.08
3.14082	5.08
3.15748	5.08
3.17415	5.08
3.19082	5.08
3.20748	5.08
3.22415	5.08
3.24082	5.08
3.25748	5.08
3.27415	5.08
3.29082	5.07
3.30748	5.07
3.32415	5.07
3.34082	5.07
3.35748	5.07
3.37415	5.07
3.39082	5.07
3.40748	5.07
3.42415	5.07
3.44082	5.07
3.45748	5.07
3.47415	5.07
3.49082	5.07
3.50748	5.07
3.52415	5.08
3.54082	5.07
3.55748	5.07
3.57415	5.07
3.59082	5.07
3.60748	5.07
3.62415	5.07
3.64082	5.07
3.65748	5.07
3.67415	5.07
3.69082	5.08
3.70748	5.08
3.72415	5.08
3.74082	5.08
3.75748	5.08
3.77415	5.08
3.79082	5.08
3.80748	5.08
3.82415	5.08
3.84082	5.08
3.85748	5.08
3.87415	5.08
3.89082	5.08
3.90748	5.08
3.92415	5.08
3.94082	5.08
3.95748	5.08
3.97415	5.08
3.99082	5.08

[Status Trace (Linear Velocity)]
Interval(msec)	1000
# of Points	240
Start Time(min)	0.007
End Time(min)	3.991
Intensity Units	
Intensity Multiplier	1
R.Time (min)	Intensity
0.00748	39.01
0.02415	37.34
0.04082	38.46
0.05748	39.84
0.07415	39.88
0.09082	39.04
0.10748	39.00
0.12415	39.02
0.14082	39.02
0.15748	39.02
0.17415	39.02
0.19082	39.02
0.20748	39.02
0.22415	39.02
0.24082	39.01
0.25748	39.01
0.27415	39.01
0.29082	39.01
0.30748	39.01
0.32415	39.01
0.34082	39.01
0.35748	39.01
0.37415	39.01
0.39082	39.01
0.40748	39.02
0.42415	39.02
0.44082	39.02
0.45748	39.02
0.47415	39.02
0.49082	39.02
0.50748	39.02
0.52415	39.02
0.54082	39.02
0.55748	39.02
0.57415	39.02
0.59082	39.02
0.60748	39.02
0.62415	39.02
0.64082	39.02
0.65748	39.02
0.67415	39.02
0.69082	39.02
0.70748	39.02
0.72415	39.02
0.74082	39.02
0.75748	39.02
0.77415	39.02
0.79082	39.02
0.80748	39.02
0.82415	39.02
0.84082	39.02
0.85748	39.02
0.87415	39.02
0.89082	39.02
0.90748	39.02
0.92415	39.02
0.94082	39.02
0.95748	39.01
0.97415	39.01
0.99082	39.01
1.00748	39.01
1.02415	39.01
1.04082	39.01
1.05748	39.01
1.07415	39.02
1.09082	39.02
1.10748	39.02
1.12415	39.02
1.14082	39.02
1.15748	39.02
1.17415	39.02
1.19082	39.02
1.20748	39.02
1.22415	39.02
1.24082	39.02
1.25748	39.02
1.27415	39.02
1.29082	39.02
1.30748	39.02
1.32415	39.02
1.34082	39.02
1.35748	39.02
1.37415	39.02
1.39082	39.02
1.40748	39.02
1.42415	39.02
1.44082	39.02
1.45748	39.02
1.47415	39.02
1.49082	39.02
1.50748	39.02
1.52415	39.02
1.54082	39.02
1.55748	39.02
1.57415	39.02
1.59082	39.01
1.60748	39.01
1.62415	39.00
1.64082	38.98
1.65748	38.96
1.67415	38.93
1.69082	38.89
1.70748	38.86
1.72415	38.82
1.74082	38.79
1.75748	38.76
1.77415	38.73
1.79082	38.70
1.80748	38.67
1.82415	38.64
1.84082	38.61
1.85748	38.57
1.87415	38.54
1.89082	38.51
1.90748	38.48
1.92415	38.45
1.94082	38.42
1.95748	38.39
1.97415	38.36
1.99082	38.33
2.00748	38.30
2.02415	38.27
2.04082	38.24
2.05748	38.21
2.07415	38.18
2.09082	38.15
2.10748	38.12
2.12415	38.09
2.14082	38.06
2.15748	38.03
2.17415	38.00
2.19082	37.97
2.20748	37.94
2.22415	37.92
2.24082	37.88
2.25748	37.85
2.27415	37.83
2.29082	37.79
2.30748	37.77
2.32415	37.74
2.34082	37.71
2.35748	37.68
2.37415	37.66
2.39082	37.65
2.40748	37.66
2.42415	37.66
2.44082	37.66
2.45748	37.66
2.47415	37.66
2.49082	37.66
2.50748	37.65
2.52415	37.65
2.54082	37.65
2.55748	37.65
2.57415	37.65
2.59082	37.65
2.60748	37.65
2.62415	37.65
2.64082	37.65
2.65748	37.65
2.67415	37.65
2.69082	37.65
2.70748	37.64
2.72415	37.64
2.74082	37.65
2.75748	37.65
2.77415	37.64
2.79082	37.64
2.80748	37.64
2.82415	37.64
2.84082	37.64
2.85748	37.64
2.87415	37.64
2.89082	37.64
2.90748	37.64
2.92415	37.64
2.94082	37.64
2.95748	37.64
2.97415	37.64
2.99082	37.63
3.00748	37.63
3.02415	37.63
3.04082	37.63
3.05748	37.63
3.07415	37.63
3.09082	37.63
3.10748	37.63
3.12415	37.63
3.14082	37.63
3.15748	37.63
3.17415	37.63
3.19082	37.63
3.20748	37.63
3.22415	37.63
3.24082	37.63
3.25748	37.63
3.27415	37.63
3.29082	37.63
3.30748	37.62
3.32415	37.63
3.34082	37.63
3.35748	37.62
3.37415	37.62
3.39082	37.62
3.40748	37.62
3.42415	37.62
3.44082	37.62
3.45748	37.62
3.47415	37.62
3.49082	37.62
3.50748	37.62
3.52415	37.63
3.54082	37.63
3.55748	37.62
3.57415	37.62
3.59082	37.62
3.60748	37.62
3.62415	37.62
3.64082	37.62
3.65748	37.62
3.67415	37.62
3.69082	37.63
3.70748	37.63
3.72415	37.63
3.74082	37.63
3.75748	37.63
3.77415	37.63
3.79082	37.63
3.80748	37.63
3.82415	37.63
3.84082	37.63
3.85748	37.63
3.87415	37.63
3.89082	37.63
3.90748	37.63
3.92415	37.63
3.94082	37.63
3.95748	37.63
3.97415	37.63
3.99082	37.63

