[Header]
Application Name	LabSolutions
Version	5.110
Data File Name	C:\Users\User\Desktop\Junior\UIC Prairie Sampling\3.23.23\032323_085.gcd
Output Date	5/24/2023
Output Time	10:27:41 AM

[File Information]
Type	Data File
Generated	5/24/2023 1:09:13 AM
Generated by	System Administrator
Modified	5/24/2023 1:16:09 AM
Modified by	System Administrator

[Sample Information]
Operator Name	System Administrator
Acquired	5/24/2023 1:12:08 AM
Sample Type	0:Unknown
Level	0
Sample Name	085
Sample ID	085
ISTD Amount1	1
ISTD Amount2	1
ISTD Amount3	1
ISTD Amount4	1
ISTD Amount5	1
ISTD Amount6	1
ISTD Amount7	1
ISTD Amount8	1
ISTD Amount9	1
ISTD Amount10	1
ISTD Amount11	1
ISTD Amount12	1
ISTD Amount13	1
ISTD Amount14	1
ISTD Amount15	1
ISTD Amount16	1
ISTD Amount17	1
ISTD Amount18	1
ISTD Amount19	1
ISTD Amount20	1
ISTD Amount21	1
ISTD Amount22	1
ISTD Amount23	1
ISTD Amount24	1
ISTD Amount25	1
ISTD Amount26	1
ISTD Amount27	1
ISTD Amount28	1
ISTD Amount29	1
ISTD Amount30	1
ISTD Amount31	1
ISTD Amount32	1
Sample Amount	1
Dilution Factor	1
Vial#	84
Injection Volume	1
Injection Count	1
Bar Code	

[Original Files]
Data File	C:\Users\User\Desktop\GC Analyses\Jack\Nachusa Grasslands Sampling\20220924\t2\032323_085.gcd
Method File	C:\LabSolutions\Data\GHG_4min_2022\ghg3_togas_w_acet_4 min_new_int.gcm
Batch File	C:\LabSolutions\Data\AutoSamplerTesting\032323.gcb
Report Format File	c:\LabSolutions\System\DEFAULT.lsr

[File Description]


[Configuration]
Instrument Name	C0B7VH3-Instrument1
Instrument #	1
Line #	1
# of Detectors	3
Detector ID	DET#1	DET#2	DET#3
Detector Name	FID	PTCD	ECD
# of Channels	1	1	1

[Peak Table(Ch1)]
# of Peaks	3
Peak#	R.Time	I.Time	F.Time	Area	Height	A/H	Conc.	Mark	ID#	Name	k'	Plate #	Plate Ht.	Tailing	Resolution	Sep.Factor	Area Ratio	Height Ratio	Conc. %	Norm Conc.
1	1.472	1.432	1.531	8309	4033	2.060	0.000	   	1	CO	0.000	9456	15.863	1.330	0.000	0.000	0	0	0.000	0.000
2	1.564	1.531	1.619	4311	2200	1.959	21.019	 V 	2	CH4	0.062	11412	13.144	1.202	1.539	0.000	0	0	7.995	7.995
3	1.993	1.945	2.370	1255114	602589	2.083	241.884	   	3	CO2	0.354	17224	8.709	1.255	7.193	5.680	0	0	92.005	92.005

[Peak Table(Ch2)]
# of Peaks	0

[Peak Table(Ch3)]
# of Peaks	5
Peak#	R.Time	I.Time	F.Time	Area	Height	A/H	Conc.	Mark	ID#	Name	k'	Plate #	Plate Ht.	Tailing	Resolution	Sep.Factor	Area Ratio	Height Ratio	Conc. %	Norm Conc.
1	2.458	2.392	2.510	763	281	2.718	0.000	   			0.000	15033	9.978	0.000	0.000	0.000	0	0	0.000	0.000
2	2.521	2.510	2.565	244	112	2.173	0.000	 V 			0.025	5805	25.839	0.000	0.587	0.000	0	0	0.000	0.000
3	2.620	2.565	2.675	332	89	3.714	0.000	 V 			0.066	9853	15.224	0.000	0.832	2.588	0	0	0.000	0.000
4	2.891	2.777	3.012	16365	4499	3.638	0.242	   	1	N2O	0.176	14000	10.714	1.484	2.669	2.682	0	0	100.000	100.000
5	3.236	3.016	3.995	12949	408	31.722	0.000	   			0.316	288	521.557	2.184	0.801	1.797	0	0	0.000	0.000

[Compound Results(Ch1)]
# of IDs	6
ID#	Name	R.Time	Area	Height	Conc.	Curve	3rd	2nd	1st	Constant	Area Ratio	Height Ratio	Conc. %	Norm Conc.
1	CO	1.472	8309	4033	0.000	Linear	0.000000e+00	0.000000e+00	0.000000e+00	0.000000e+00	0	0	0.000	0.000
2	CH4	1.564	4311	2200	21.019	Linear	0.000000e+00	0.000000e+00	2.051179e+002	0.000000e+00	0	0	7.995	7.995
3	CO2	1.993	1255114	602589	241.884	Linear	0.000000e+00	0.000000e+00	5.188919e+003	0.000000e+00	0	0	92.005	92.005
4	Ethylene	0.000	0	0	0.000	Linear	0.000000e+00	0.000000e+00	0.000000e+00	0.000000e+00	0	0	0.000	0.000
5	Acetylene	0.000	0	0	0.000	Linear	0.000000e+00	0.000000e+00	0.000000e+00	0.000000e+00	0	0	0.000	0.000
6	Ethane	0.000	0	0	0.000	Linear	0.000000e+00	0.000000e+00	0.000000e+00	0.000000e+00	0	0	0.000	0.000

[Compound Results(Ch2)]
# of IDs	5
ID#	Name	R.Time	Area	Height	Conc.	Curve	3rd	2nd	1st	Constant	Area Ratio	Height Ratio	Conc. %	Norm Conc.
1	Hydrogen	0.000	0	0	0.000	Linear	0.000000e+00	0.000000e+00	0.000000e+00	0.000000e+00	0	0	0.000	0.000
2	Oxygen	0.000	0	0	0.000	Linear	0.000000e+00	0.000000e+00	0.000000e+00	0.000000e+00	0	0	0.000	0.000
3	Nitrogen	0.000	0	0	0.000	Linear	0.000000e+00	0.000000e+00	0.000000e+00	0.000000e+00	0	0	0.000	0.000
4	Methane	0.000	0	0	0.000	Linear	0.000000e+00	0.000000e+00	0.000000e+00	0.000000e+00	0	0	0.000	0.000
5	Carbon Monoxide	0.000	0	0	0.000	Linear	0.000000e+00	0.000000e+00	0.000000e+00	0.000000e+00	0	0	0.000	0.000

[Compound Results(Ch3)]
# of IDs	2
ID#	Name	R.Time	Area	Height	Conc.	Curve	3rd	2nd	1st	Constant	Area Ratio	Height Ratio	Conc. %	Norm Conc.
1	N2O	2.891	16365	4499	0.242	Linear	0.000000e+00	0.000000e+00	6.759880e+004	0.000000e+00	0	0	100.000	100.000
2	SF6	0.000	0	0	0.000	Linear	0.000000e+00	0.000000e+00	0.000000e+00	0.000000e+00	0	0	0.000	0.000

[Group Results(Ch1)]
# of Groups	0

[Group Results(Ch2)]
# of Groups	0

[Group Results(Ch3)]
# of Groups	0

[Chromatogram (Ch1)]
Interval(msec)	220
# of Points	1091
Start Time(min)	0.002
End Time(min)	3.998
R.Time (min)	Intensity
0.00167	-14
0.00533	-11
0.00900	-6
0.01267	-1
0.01633	0
0.02000	-2
0.02367	-6
0.02733	-8
0.03100	-9
0.03467	-12
0.03833	-16
0.04200	-18
0.04567	-17
0.04933	-17
0.05300	-18
0.05667	-17
0.06033	-12
0.06400	-6
0.06767	-4
0.07133	-6
0.07500	-5
0.07867	-5
0.08233	-7
0.08600	-11
0.08967	-14
0.09333	-15
0.09700	-11
0.10067	-6
0.10433	-2
0.10800	4
0.11167	11
0.11533	14
0.11900	7
0.12267	-7
0.12633	-22
0.13000	-35
0.13367	-41
0.13733	-40
0.14100	-38
0.14467	-35
0.14833	-27
0.15200	-24
0.15567	-22
0.15933	-21
0.16300	-19
0.16667	-13
0.17033	-11
0.17400	-13
0.17767	-15
0.18133	-16
0.18500	-17
0.18867	-19
0.19233	-17
0.19600	-12
0.19967	-10
0.20333	-13
0.20700	-20
0.21067	-26
0.21433	-31
0.21800	-36
0.22167	-37
0.22533	-36
0.22900	-36
0.23267	-34
0.23633	-29
0.24000	-22
0.24367	-16
0.24733	-16
0.25100	-20
0.25467	-25
0.25833	-30
0.26200	-31
0.26567	-31
0.26933	-31
0.27300	-27
0.27667	-20
0.28033	-16
0.28400	-15
0.28767	-16
0.29133	-14
0.29500	-13
0.29867	-16
0.30233	-19
0.30600	-20
0.30967	-22
0.31333	-23
0.31700	-21
0.32067	-17
0.32433	-15
0.32800	-16
0.33167	-21
0.33533	-27
0.33900	-31
0.34267	-31
0.34633	-28
0.35000	-25
0.35367	-24
0.35733	-24
0.36100	-26
0.36467	-30
0.36833	-32
0.37200	-32
0.37567	-29
0.37933	-27
0.38300	-26
0.38667	-26
0.39033	-25
0.39400	-23
0.39767	-20
0.40133	-15
0.40500	-10
0.40867	-7
0.41233	-6
0.41600	-10
0.41967	-16
0.42333	-20
0.42700	-19
0.43067	-16
0.43433	-16
0.43800	-19
0.44167	-20
0.44533	-17
0.44900	-14
0.45267	-15
0.45633	-21
0.46000	-25
0.46367	-26
0.46733	-27
0.47100	-26
0.47467	-21
0.47833	-15
0.48200	-17
0.48567	-24
0.48933	-32
0.49300	-34
0.49667	-28
0.50033	-24
0.50400	-25
0.50767	-30
0.51133	-40
0.51500	-50
0.51867	-59
0.52233	-66
0.52600	-71
0.52967	-75
0.53333	-77
0.53700	-78
0.54067	-76
0.54433	-71
0.54800	-64
0.55167	-59
0.55533	-52
0.55900	-44
0.56267	-35
0.56633	-31
0.57000	-33
0.57367	-36
0.57733	-30
0.58100	-23
0.58467	-23
0.58833	-25
0.59200	-26
0.59567	-28
0.59933	-29
0.60300	-28
0.60667	-27
0.61033	-26
0.61400	-25
0.61767	-22
0.62133	-20
0.62500	-18
0.62867	-17
0.63233	-15
0.63600	-13
0.63967	-12
0.64333	-12
0.64700	-14
0.65067	-16
0.65433	-16
0.65800	-17
0.66167	-17
0.66533	-16
0.66900	-16
0.67267	-19
0.67633	-24
0.68000	-28
0.68367	-30
0.68733	-28
0.69100	-25
0.69467	-20
0.69833	-16
0.70200	-14
0.70567	-16
0.70933	-22
0.71300	-31
0.71667	-36
0.72033	-38
0.72400	-39
0.72767	-38
0.73133	-33
0.73500	-30
0.73867	-30
0.74233	-30
0.74600	-30
0.74967	-30
0.75333	-28
0.75700	-24
0.76067	-20
0.76433	-23
0.76800	-29
0.77167	-33
0.77533	-36
0.77900	-37
0.78267	-31
0.78633	-20
0.79000	-15
0.79367	-16
0.79733	-19
0.80100	-23
0.80467	-26
0.80833	-28
0.81200	-30
0.81567	-33
0.81933	-37
0.82300	-41
0.82667	-41
0.83033	-39
0.83400	-37
0.83767	-39
0.84133	-42
0.84500	-42
0.84867	-39
0.85233	-34
0.85600	-33
0.85967	-35
0.86333	-36
0.86700	-36
0.87067	-34
0.87433	-31
0.87800	-28
0.88167	-27
0.88533	-30
0.88900	-37
0.89267	-45
0.89633	-52
0.90000	-55
0.90367	-55
0.90733	-53
0.91100	-51
0.91467	-47
0.91833	-39
0.92200	-33
0.92567	-31
0.92933	-34
0.93300	-39
0.93667	-46
0.94033	-51
0.94400	-52
0.94767	-49
0.95133	-45
0.95500	-39
0.95867	-33
0.96233	-25
0.96600	-24
0.96967	-33
0.97333	-47
0.97700	-59
0.98067	-65
0.98433	-66
0.98800	-64
0.99167	-63
0.99533	-63
0.99900	-64
1.00267	-63
1.00633	-60
1.01000	-57
1.01367	-57
1.01733	-54
1.02100	-50
1.02467	-47
1.02833	-40
1.03200	-26
1.03567	-13
1.03933	-7
1.04300	-4
1.04667	-4
1.05033	-9
1.05400	-20
1.05767	-34
1.06133	-42
1.06500	-47
1.06867	-55
1.07233	-65
1.07600	-74
1.07967	-76
1.08333	-72
1.08700	-64
1.09067	-55
1.09433	-51
1.09800	-52
1.10167	-55
1.10533	-51
1.10900	-46
1.11267	-43
1.11633	-38
1.12000	-32
1.12367	-32
1.12733	-39
1.13100	-50
1.13467	-56
1.13833	-57
1.14200	-60
1.14567	-64
1.14933	-65
1.15300	-60
1.15667	-52
1.16033	-48
1.16400	-48
1.16767	-49
1.17133	-49
1.17500	-50
1.17867	-48
1.18233	-44
1.18600	-40
1.18967	-42
1.19333	-49
1.19700	-54
1.20067	-55
1.20433	-59
1.20800	-64
1.21167	-67
1.21533	-66
1.21900	-59
1.22267	-54
1.22633	-57
1.23000	-64
1.23367	-73
1.23733	-76
1.24100	-76
1.24467	-75
1.24833	-75
1.25200	-78
1.25567	-80
1.25933	-79
1.26300	-74
1.26667	-66
1.27033	-57
1.27400	-50
1.27767	-44
1.28133	-40
1.28500	-39
1.28867	-42
1.29233	-48
1.29600	-53
1.29967	-57
1.30333	-59
1.30700	-59
1.31067	-57
1.31433	-54
1.31800	-50
1.32167	-51
1.32533	-54
1.32900	-56
1.33267	-55
1.33633	-53
1.34000	-50
1.34367	-49
1.34733	-49
1.35100	-50
1.35467	-55
1.35833	-63
1.36200	-71
1.36567	-78
1.36933	-82
1.37300	-79
1.37667	-74
1.38033	-71
1.38400	-68
1.38767	-66
1.39133	-68
1.39500	-69
1.39867	-69
1.40233	-69
1.40600	-71
1.40967	-75
1.41333	-79
1.41700	-81
1.42067	-84
1.42433	-88
1.42800	-89
1.43167	-85
1.43533	-74
1.43900	-50
1.44267	-4
1.44633	104
1.45000	426
1.45367	1046
1.45733	1833
1.46100	2602
1.46467	3248
1.46833	3713
1.47200	3951
1.47567	3917
1.47933	3605
1.48300	3080
1.48667	2461
1.49033	1860
1.49400	1343
1.49767	937
1.50133	634
1.50500	417
1.50867	265
1.51233	160
1.51600	89
1.51967	42
1.52333	10
1.52700	-13
1.53067	-25
1.53433	-19
1.53800	44
1.54167	229
1.54533	559
1.54900	979
1.55267	1400
1.55633	1753
1.56000	2001
1.56367	2122
1.56733	2087
1.57100	1888
1.57467	1568
1.57833	1202
1.58200	857
1.58567	572
1.58933	358
1.59300	207
1.59667	107
1.60033	40
1.60400	-6
1.60767	-36
1.61133	-56
1.61500	-69
1.61867	-75
1.62233	-78
1.62600	-77
1.62967	-76
1.63333	-78
1.63700	-79
1.64067	-75
1.64433	-70
1.64800	-71
1.65167	-74
1.65533	-72
1.65900	-69
1.66267	-68
1.66633	-72
1.67000	-81
1.67367	-91
1.67733	-99
1.68100	-104
1.68467	-104
1.68833	-102
1.69200	-103
1.69567	-106
1.69933	-105
1.70300	-100
1.70667	-94
1.71033	-90
1.71400	-88
1.71767	-86
1.72133	-89
1.72500	-96
1.72867	-100
1.73233	-100
1.73600	-97
1.73967	-92
1.74333	-85
1.74700	-82
1.75067	-85
1.75433	-88
1.75800	-91
1.76167	-93
1.76533	-96
1.76900	-99
1.77267	-101
1.77633	-104
1.78000	-106
1.78367	-105
1.78733	-100
1.79100	-93
1.79467	-90
1.79833	-92
1.80200	-97
1.80567	-101
1.80933	-103
1.81300	-107
1.81667	-113
1.82033	-117
1.82400	-117
1.82767	-113
1.83133	-107
1.83500	-104
1.83867	-103
1.84233	-102
1.84600	-105
1.84967	-111
1.85333	-114
1.85700	-112
1.86067	-111
1.86433	-112
1.86800	-110
1.87167	-108
1.87533	-105
1.87900	-101
1.88267	-97
1.88633	-94
1.89000	-92
1.89367	-93
1.89733	-92
1.90100	-91
1.90467	-91
1.90833	-91
1.91200	-91
1.91567	-90
1.91933	-94
1.92300	-96
1.92667	-95
1.93033	-92
1.93400	-92
1.93767	-95
1.94133	-98
1.94500	-96
1.94867	-73
1.95233	79
1.95600	918
1.95967	4537
1.96333	16373
1.96700	46025
1.97067	103735
1.97433	192404
1.97800	302513
1.98167	415541
1.98533	512103
1.98900	577480
1.99267	602529
1.99633	584309
2.00000	528007
2.00367	446406
2.00733	355603
2.01100	269542
2.01467	196664
2.01833	139762
2.02200	97828
2.02567	68131
2.02933	47639
2.03300	33712
2.03667	24310
2.04033	17964
2.04400	13649
2.04767	10676
2.05133	8592
2.05500	7100
2.05867	6002
2.06233	5173
2.06600	4533
2.06967	4029
2.07333	3623
2.07700	3290
2.08067	3010
2.08433	2771
2.08800	2561
2.09167	2374
2.09533	2205
2.09900	2053
2.10267	1916
2.10633	1797
2.11000	1692
2.11367	1600
2.11733	1517
2.12100	1444
2.12467	1376
2.12833	1308
2.13200	1243
2.13567	1182
2.13933	1124
2.14300	1073
2.14667	1032
2.15033	1002
2.15400	972
2.15767	939
2.16133	907
2.16500	877
2.16867	849
2.17233	821
2.17600	794
2.17967	766
2.18333	738
2.18700	712
2.19067	688
2.19433	666
2.19800	646
2.20167	628
2.20533	612
2.20900	594
2.21267	576
2.21633	556
2.22000	535
2.22367	516
2.22733	502
2.23100	492
2.23467	488
2.23833	487
2.24200	484
2.24567	478
2.24933	465
2.25300	445
2.25667	423
2.26033	404
2.26400	388
2.26767	375
2.27133	365
2.27500	357
2.27867	358
2.28233	366
2.28600	372
2.28967	369
2.29333	357
2.29700	341
2.30067	325
2.30433	312
2.30800	300
2.31167	289
2.31533	278
2.31900	269
2.32267	262
2.32633	257
2.33000	252
2.33367	251
2.33733	258
2.34100	263
2.34467	266
2.34833	265
2.35200	259
2.35567	252
2.35933	246
2.36300	239
2.36667	234
2.37033	230
2.37400	229
2.37767	230
2.38133	238
2.38500	244
2.38867	247
2.39233	240
2.39600	226
2.39967	213
2.40333	202
2.40700	192
2.41067	182
2.41433	175
2.41800	170
2.42167	166
2.42533	165
2.42900	167
2.43267	172
2.43633	176
2.44000	178
2.44367	179
2.44733	180
2.45100	175
2.45467	168
2.45833	165
2.46200	164
2.46567	165
2.46933	166
2.47300	167
2.47667	166
2.48033	167
2.48400	169
2.48767	170
2.49133	170
2.49500	168
2.49867	166
2.50233	164
2.50600	163
2.50967	162
2.51333	163
2.51700	164
2.52067	164
2.52433	161
2.52800	156
2.53167	151
2.53533	146
2.53900	142
2.54267	142
2.54633	143
2.55000	146
2.55367	148
2.55733	150
2.56100	149
2.56467	149
2.56833	150
2.57200	147
2.57567	142
2.57933	136
2.58300	138
2.58667	147
2.59033	157
2.59400	160
2.59767	158
2.60133	149
2.60500	136
2.60867	124
2.61233	115
2.61600	113
2.61967	117
2.62333	121
2.62700	122
2.63067	124
2.63433	127
2.63800	129
2.64167	130
2.64533	127
2.64900	123
2.65267	121
2.65633	120
2.66000	119
2.66367	120
2.66733	124
2.67100	134
2.67467	148
2.67833	157
2.68200	157
2.68567	158
2.68933	155
2.69300	146
2.69667	136
2.70033	128
2.70400	118
2.70767	110
2.71133	107
2.71500	110
2.71867	112
2.72233	110
2.72600	106
2.72967	104
2.73333	105
2.73700	113
2.74067	123
2.74433	134
2.74800	140
2.75167	140
2.75533	139
2.75900	141
2.76267	146
2.76633	147
2.77000	144
2.77367	137
2.77733	127
2.78100	120
2.78467	118
2.78833	116
2.79200	118
2.79567	123
2.79933	127
2.80300	130
2.80667	133
2.81033	135
2.81400	137
2.81767	138
2.82133	136
2.82500	131
2.82867	126
2.83233	124
2.83600	124
2.83967	124
2.84333	125
2.84700	126
2.85067	129
2.85433	137
2.85800	143
2.86167	146
2.86533	145
2.86900	138
2.87267	130
2.87633	126
2.88000	125
2.88367	121
2.88733	115
2.89100	115
2.89467	121
2.89833	123
2.90200	127
2.90567	133
2.90933	136
2.91300	137
2.91667	137
2.92033	135
2.92400	132
2.92767	133
2.93133	135
2.93500	136
2.93867	135
2.94233	131
2.94600	128
2.94967	129
2.95333	136
2.95700	142
2.96067	143
2.96433	142
2.96800	142
2.97167	145
2.97533	150
2.97900	157
2.98267	164
2.98633	165
2.99000	161
2.99367	149
2.99733	132
3.00100	119
3.00467	114
3.00833	115
3.01200	117
3.01567	119
3.01933	118
3.02300	119
3.02667	121
3.03033	124
3.03400	124
3.03767	128
3.04133	135
3.04500	137
3.04867	134
3.05233	129
3.05600	124
3.05967	119
3.06333	118
3.06700	116
3.07067	114
3.07433	115
3.07800	118
3.08167	121
3.08533	123
3.08900	126
3.09267	130
3.09633	132
3.10000	132
3.10367	131
3.10733	132
3.11100	132
3.11467	131
3.11833	129
3.12200	127
3.12567	128
3.12933	129
3.13300	127
3.13667	125
3.14033	125
3.14400	128
3.14767	134
3.15133	139
3.15500	141
3.15867	140
3.16233	138
3.16600	135
3.16967	135
3.17333	134
3.17700	133
3.18067	129
3.18433	125
3.18800	125
3.19167	128
3.19533	134
3.19900	136
3.20267	131
3.20633	122
3.21000	114
3.21367	109
3.21733	105
3.22100	103
3.22467	104
3.22833	111
3.23200	121
3.23567	127
3.23933	127
3.24300	128
3.24667	129
3.25033	127
3.25400	126
3.25767	126
3.26133	125
3.26500	121
3.26867	113
3.27233	108
3.27600	105
3.27967	104
3.28333	105
3.28700	106
3.29067	107
3.29433	108
3.29800	107
3.30167	107
3.30533	110
3.30900	113
3.31267	119
3.31633	126
3.32000	133
3.32367	139
3.32733	139
3.33100	131
3.33467	122
3.33833	114
3.34200	112
3.34567	116
3.34933	120
3.35300	119
3.35667	114
3.36033	108
3.36400	106
3.36767	106
3.37133	104
3.37500	103
3.37867	102
3.38233	102
3.38600	100
3.38967	100
3.39333	100
3.39700	100
3.40067	98
3.40433	99
3.40800	101
3.41167	104
3.41533	105
3.41900	104
3.42267	100
3.42633	103
3.43000	114
3.43367	123
3.43733	126
3.44100	123
3.44467	119
3.44833	113
3.45200	106
3.45567	102
3.45933	101
3.46300	102
3.46667	104
3.47033	105
3.47400	104
3.47767	99
3.48133	94
3.48500	91
3.48867	87
3.49233	88
3.49600	92
3.49967	95
3.50333	94
3.50700	92
3.51067	88
3.51433	87
3.51800	93
3.52167	100
3.52533	102
3.52900	102
3.53267	103
3.53633	105
3.54000	105
3.54367	104
3.54733	105
3.55100	102
3.55467	97
3.55833	98
3.56200	100
3.56567	98
3.56933	94
3.57300	90
3.57667	87
3.58033	84
3.58400	85
3.58767	89
3.59133	93
3.59500	98
3.59867	103
3.60233	105
3.60600	103
3.60967	99
3.61333	94
3.61700	88
3.62067	81
3.62433	75
3.62800	73
3.63167	74
3.63533	77
3.63900	78
3.64267	79
3.64633	81
3.65000	83
3.65367	85
3.65733	88
3.66100	89
3.66467	88
3.66833	85
3.67200	85
3.67567	88
3.67933	93
3.68300	97
3.68667	99
3.69033	99
3.69400	99
3.69767	98
3.70133	94
3.70500	91
3.70867	88
3.71233	85
3.71600	81
3.71967	78
3.72333	76
3.72700	73
3.73067	69
3.73433	65
3.73800	64
3.74167	67
3.74533	75
3.74900	80
3.75267	80
3.75633	79
3.76000	79
3.76367	79
3.76733	81
3.77100	89
3.77467	96
3.77833	96
3.78200	94
3.78567	92
3.78933	84
3.79300	74
3.79667	66
3.80033	64
3.80400	66
3.80767	70
3.81133	75
3.81500	83
3.81867	92
3.82233	99
3.82600	102
3.82967	98
3.83333	87
3.83700	75
3.84067	65
3.84433	56
3.84800	52
3.85167	54
3.85533	62
3.85900	74
3.86267	85
3.86633	91
3.87000	91
3.87367	87
3.87733	80
3.88100	78
3.88467	80
3.88833	79
3.89200	74
3.89567	70
3.89933	68
3.90300	67
3.90667	66
3.91033	64
3.91400	65
3.91767	66
3.92133	67
3.92500	68
3.92867	71
3.93233	76
3.93600	81
3.93967	81
3.94333	76
3.94700	70
3.95067	70
3.95433	73
3.95800	74
3.96167	71
3.96533	68
3.96900	67
3.97267	64
3.97633	61
3.98000	59
3.98367	59
3.98733	60
3.99100	62
3.99467	64
3.99833	71

[Chromatogram (Ch2)]
Interval(msec)	220
# of Points	1091
Start Time(min)	0.002
End Time(min)	3.998
R.Time (min)	Intensity
0.00167	0
0.00533	0
0.00900	0
0.01267	0
0.01633	-0
0.02000	-0
0.02367	-1
0.02733	-1
0.03100	-1
0.03467	-1
0.03833	-1
0.04200	-1
0.04567	-1
0.04933	-1
0.05300	-1
0.05667	-1
0.06033	-1
0.06400	-1
0.06767	-1
0.07133	-1
0.07500	-1
0.07867	-1
0.08233	-1
0.08600	-0
0.08967	-0
0.09333	0
0.09700	0
0.10067	0
0.10433	0
0.10800	0
0.11167	1
0.11533	1
0.11900	1
0.12267	1
0.12633	0
0.13000	0
0.13367	-0
0.13733	-0
0.14100	-0
0.14467	-0
0.14833	-0
0.15200	-0
0.15567	-0
0.15933	-0
0.16300	-0
0.16667	-0
0.17033	-0
0.17400	-0
0.17767	-0
0.18133	-1
0.18500	-1
0.18867	-1
0.19233	-0
0.19600	-0
0.19967	0
0.20333	0
0.20700	0
0.21067	0
0.21433	0
0.21800	1
0.22167	1
0.22533	1
0.22900	1
0.23267	2
0.23633	2
0.24000	2
0.24367	2
0.24733	3
0.25100	3
0.25467	2
0.25833	2
0.26200	2
0.26567	2
0.26933	1
0.27300	1
0.27667	1
0.28033	0
0.28400	0
0.28767	-0
0.29133	-0
0.29500	-0
0.29867	-1
0.30233	-1
0.30600	-0
0.30967	-0
0.31333	-0
0.31700	0
0.32067	0
0.32433	-0
0.32800	-0
0.33167	-1
0.33533	-1
0.33900	-1
0.34267	-1
0.34633	-1
0.35000	-1
0.35367	-1
0.35733	-1
0.36100	-1
0.36467	-0
0.36833	-0
0.37200	-0
0.37567	-0
0.37933	-0
0.38300	0
0.38667	0
0.39033	0
0.39400	0
0.39767	0
0.40133	0
0.40500	0
0.40867	0
0.41233	0
0.41600	1
0.41967	1
0.42333	1
0.42700	1
0.43067	1
0.43433	1
0.43800	0
0.44167	0
0.44533	0
0.44900	0
0.45267	-0
0.45633	-0
0.46000	-1
0.46367	-1
0.46733	-1
0.47100	-1
0.47467	-1
0.47833	-1
0.48200	-1
0.48567	-1
0.48933	-1
0.49300	-1
0.49667	-1
0.50033	-1
0.50400	-1
0.50767	-1
0.51133	-0
0.51500	-0
0.51867	-0
0.52233	-0
0.52600	-1
0.52967	-1
0.53333	-1
0.53700	-2
0.54067	-2
0.54433	-2
0.54800	-2
0.55167	-2
0.55533	-2
0.55900	-2
0.56267	-2
0.56633	-2
0.57000	-2
0.57367	-3
0.57733	-3
0.58100	-3
0.58467	-3
0.58833	-3
0.59200	-3
0.59567	-3
0.59933	-2
0.60300	-3
0.60667	-3
0.61033	-3
0.61400	-3
0.61767	-3
0.62133	-3
0.62500	-3
0.62867	-3
0.63233	-3
0.63600	-3
0.63967	-3
0.64333	-2
0.64700	-2
0.65067	-2
0.65433	-1
0.65800	-1
0.66167	-1
0.66533	-0
0.66900	-0
0.67267	0
0.67633	0
0.68000	0
0.68367	1
0.68733	1
0.69100	1
0.69467	0
0.69833	0
0.70200	-0
0.70567	-0
0.70933	-0
0.71300	-0
0.71667	-1
0.72033	-1
0.72400	-1
0.72767	-1
0.73133	-1
0.73500	-1
0.73867	-1
0.74233	-1
0.74600	-1
0.74967	-1
0.75333	-1
0.75700	-1
0.76067	-1
0.76433	-0
0.76800	-0
0.77167	-0
0.77533	-0
0.77900	-1
0.78267	-1
0.78633	-1
0.79000	-2
0.79367	-2
0.79733	-2
0.80100	-2
0.80467	-2
0.80833	-2
0.81200	-2
0.81567	-2
0.81933	-2
0.82300	-2
0.82667	-2
0.83033	-2
0.83400	-2
0.83767	-1
0.84133	-1
0.84500	-1
0.84867	-1
0.85233	-1
0.85600	-1
0.85967	-1
0.86333	-2
0.86700	-2
0.87067	-2
0.87433	-2
0.87800	-2
0.88167	-2
0.88533	-1
0.88900	-1
0.89267	-1
0.89633	-1
0.90000	-1
0.90367	-1
0.90733	-1
0.91100	-1
0.91467	-1
0.91833	-1
0.92200	-1
0.92567	-1
0.92933	-1
0.93300	-2
0.93667	-2
0.94033	-2
0.94400	-2
0.94767	-2
0.95133	-2
0.95500	-2
0.95867	-2
0.96233	-2
0.96600	-2
0.96967	-1
0.97333	-1
0.97700	-1
0.98067	-1
0.98433	-1
0.98800	-1
0.99167	-1
0.99533	-2
0.99900	-2
1.00267	-2
1.00633	-2
1.01000	-2
1.01367	-2
1.01733	-2
1.02100	-2
1.02467	-2
1.02833	-3
1.03200	-3
1.03567	-3
1.03933	-3
1.04300	-3
1.04667	-3
1.05033	-3
1.05400	-3
1.05767	-3
1.06133	-3
1.06500	-3
1.06867	-3
1.07233	-3
1.07600	-3
1.07967	-3
1.08333	-4
1.08700	-4
1.09067	-4
1.09433	-4
1.09800	-4
1.10167	-4
1.10533	-4
1.10900	-4
1.11267	-3
1.11633	-3
1.12000	-3
1.12367	-3
1.12733	-2
1.13100	-2
1.13467	-2
1.13833	-2
1.14200	-2
1.14567	-2
1.14933	-2
1.15300	-2
1.15667	-2
1.16033	-1
1.16400	-1
1.16767	-1
1.17133	-1
1.17500	-1
1.17867	-1
1.18233	-1
1.18600	-1
1.18967	-1
1.19333	-1
1.19700	-1
1.20067	-1
1.20433	-1
1.20800	-1
1.21167	-1
1.21533	-1
1.21900	-2
1.22267	-2
1.22633	-2
1.23000	-2
1.23367	-2
1.23733	-2
1.24100	-2
1.24467	-2
1.24833	-2
1.25200	-2
1.25567	-2
1.25933	-2
1.26300	-2
1.26667	-2
1.27033	-2
1.27400	-1
1.27767	-1
1.28133	-1
1.28500	-1
1.28867	-1
1.29233	-1
1.29600	-1
1.29967	-1
1.30333	-2
1.30700	-2
1.31067	-2
1.31433	-2
1.31800	-2
1.32167	-2
1.32533	-2
1.32900	-2
1.33267	-2
1.33633	-2
1.34000	-2
1.34367	-2
1.34733	-2
1.35100	-2
1.35467	-2
1.35833	-2
1.36200	-2
1.36567	-2
1.36933	-2
1.37300	-2
1.37667	-2
1.38033	-2
1.38400	-2
1.38767	-2
1.39133	-2
1.39500	-2
1.39867	-2
1.40233	-2
1.40600	-3
1.40967	-3
1.41333	-3
1.41700	-3
1.42067	-3
1.42433	-3
1.42800	-3
1.43167	-3
1.43533	-3
1.43900	-3
1.44267	-3
1.44633	-3
1.45000	-3
1.45367	-3
1.45733	-3
1.46100	-3
1.46467	-4
1.46833	-4
1.47200	-4
1.47567	-4
1.47933	-4
1.48300	-3
1.48667	-3
1.49033	-3
1.49400	-3
1.49767	-3
1.50133	-3
1.50500	-3
1.50867	-3
1.51233	-3
1.51600	-3
1.51967	-3
1.52333	-3
1.52700	-2
1.53067	-2
1.53433	-2
1.53800	-1
1.54167	-1
1.54533	-1
1.54900	-1
1.55267	-1
1.55633	-2
1.56000	-2
1.56367	-2
1.56733	-2
1.57100	-3
1.57467	-3
1.57833	-3
1.58200	-3
1.58567	-3
1.58933	-4
1.59300	-5
1.59667	-6
1.60033	-7
1.60400	-8
1.60767	-10
1.61133	-12
1.61500	-14
1.61867	-16
1.62233	-18
1.62600	-21
1.62967	-24
1.63333	-27
1.63700	-30
1.64067	-33
1.64433	-36
1.64800	-39
1.65167	-42
1.65533	-45
1.65900	-49
1.66267	-52
1.66633	-55
1.67000	-59
1.67367	-63
1.67733	-68
1.68100	-72
1.68467	-76
1.68833	-80
1.69200	-84
1.69567	-88
1.69933	-90
1.70300	-92
1.70667	-94
1.71033	-96
1.71400	-98
1.71767	-99
1.72133	-100
1.72500	-101
1.72867	-101
1.73233	-101
1.73600	-101
1.73967	-101
1.74333	-101
1.74700	-101
1.75067	-102
1.75433	-102
1.75800	-103
1.76167	-104
1.76533	-104
1.76900	-105
1.77267	-105
1.77633	-105
1.78000	-104
1.78367	-104
1.78733	-103
1.79100	-103
1.79467	-102
1.79833	-101
1.80200	-101
1.80567	-101
1.80933	-102
1.81300	-103
1.81667	-104
1.82033	-105
1.82400	-105
1.82767	-105
1.83133	-105
1.83500	-105
1.83867	-105
1.84233	-105
1.84600	-105
1.84967	-105
1.85333	-106
1.85700	-106
1.86067	-106
1.86433	-106
1.86800	-106
1.87167	-106
1.87533	-105
1.87900	-105
1.88267	-105
1.88633	-106
1.89000	-106
1.89367	-106
1.89733	-105
1.90100	-105
1.90467	-105
1.90833	-104
1.91200	-104
1.91567	-103
1.91933	-103
1.92300	-103
1.92667	-103
1.93033	-104
1.93400	-104
1.93767	-104
1.94133	-104
1.94500	-104
1.94867	-104
1.95233	-104
1.95600	-103
1.95967	-103
1.96333	-102
1.96700	-101
1.97067	-101
1.97433	-100
1.97800	-100
1.98167	-100
1.98533	-100
1.98900	-100
1.99267	-100
1.99633	-100
2.00000	-100
2.00367	-100
2.00733	-99
2.01100	-99
2.01467	-98
2.01833	-98
2.02200	-97
2.02567	-97
2.02933	-96
2.03300	-96
2.03667	-95
2.04033	-95
2.04400	-95
2.04767	-94
2.05133	-95
2.05500	-95
2.05867	-95
2.06233	-95
2.06600	-94
2.06967	-94
2.07333	-94
2.07700	-94
2.08067	-93
2.08433	-93
2.08800	-93
2.09167	-94
2.09533	-94
2.09900	-93
2.10267	-93
2.10633	-92
2.11000	-92
2.11367	-91
2.11733	-91
2.12100	-90
2.12467	-90
2.12833	-90
2.13200	-89
2.13567	-89
2.13933	-88
2.14300	-87
2.14667	-87
2.15033	-86
2.15400	-86
2.15767	-85
2.16133	-85
2.16500	-84
2.16867	-84
2.17233	-84
2.17600	-84
2.17967	-85
2.18333	-84
2.18700	-84
2.19067	-84
2.19433	-84
2.19800	-84
2.20167	-84
2.20533	-84
2.20900	-84
2.21267	-84
2.21633	-84
2.22000	-83
2.22367	-82
2.22733	-81
2.23100	-80
2.23467	-79
2.23833	-78
2.24200	-78
2.24567	-77
2.24933	-77
2.25300	-77
2.25667	-77
2.26033	-77
2.26400	-76
2.26767	-76
2.27133	-76
2.27500	-76
2.27867	-77
2.28233	-77
2.28600	-77
2.28967	-78
2.29333	-78
2.29700	-78
2.30067	-78
2.30433	-78
2.30800	-77
2.31167	-76
2.31533	-75
2.31900	-74
2.32267	-73
2.32633	-73
2.33000	-73
2.33367	-73
2.33733	-72
2.34100	-72
2.34467	-71
2.34833	-70
2.35200	-70
2.35567	-70
2.35933	-69
2.36300	-68
2.36667	-66
2.37033	-64
2.37400	-61
2.37767	-58
2.38133	-54
2.38500	-50
2.38867	-46
2.39233	-42
2.39600	-37
2.39967	-33
2.40333	-29
2.40700	-25
2.41067	-22
2.41433	-18
2.41800	-15
2.42167	-12
2.42533	-10
2.42900	-7
2.43267	-5
2.43633	-3
2.44000	-2
2.44367	-0
2.44733	1
2.45100	2
2.45467	4
2.45833	5
2.46200	6
2.46567	7
2.46933	8
2.47300	9
2.47667	9
2.48033	10
2.48400	10
2.48767	11
2.49133	11
2.49500	12
2.49867	12
2.50233	12
2.50600	12
2.50967	12
2.51333	11
2.51700	11
2.52067	11
2.52433	10
2.52800	10
2.53167	10
2.53533	10
2.53900	9
2.54267	9
2.54633	9
2.55000	10
2.55367	10
2.55733	11
2.56100	11
2.56467	12
2.56833	13
2.57200	13
2.57567	14
2.57933	14
2.58300	15
2.58667	16
2.59033	17
2.59400	17
2.59767	18
2.60133	18
2.60500	17
2.60867	17
2.61233	17
2.61600	17
2.61967	17
2.62333	17
2.62700	17
2.63067	17
2.63433	17
2.63800	17
2.64167	18
2.64533	18
2.64900	18
2.65267	18
2.65633	19
2.66000	19
2.66367	19
2.66733	19
2.67100	20
2.67467	20
2.67833	20
2.68200	20
2.68567	20
2.68933	21
2.69300	21
2.69667	22
2.70033	22
2.70400	22
2.70767	23
2.71133	23
2.71500	23
2.71867	23
2.72233	24
2.72600	24
2.72967	24
2.73333	23
2.73700	23
2.74067	23
2.74433	23
2.74800	24
2.75167	24
2.75533	24
2.75900	25
2.76267	25
2.76633	26
2.77000	26
2.77367	27
2.77733	27
2.78100	28
2.78467	29
2.78833	29
2.79200	30
2.79567	30
2.79933	30
2.80300	30
2.80667	29
2.81033	29
2.81400	28
2.81767	27
2.82133	27
2.82500	26
2.82867	26
2.83233	25
2.83600	25
2.83967	25
2.84333	25
2.84700	25
2.85067	25
2.85433	26
2.85800	25
2.86167	24
2.86533	22
2.86900	17
2.87267	10
2.87633	-1
2.88000	-17
2.88367	-37
2.88733	-62
2.89100	-93
2.89467	-128
2.89833	-169
2.90200	-214
2.90567	-263
2.90933	-317
2.91300	-373
2.91667	-431
2.92033	-492
2.92400	-553
2.92767	-614
2.93133	-675
2.93500	-735
2.93867	-793
2.94233	-847
2.94600	-899
2.94967	-952
2.95333	-1008
2.95700	-1060
2.96067	-1098
2.96433	-1114
2.96800	-1105
2.97167	-1071
2.97533	-1018
2.97900	-950
2.98267	-873
2.98633	-792
2.99000	-711
2.99367	-632
2.99733	-557
3.00100	-488
3.00467	-425
3.00833	-369
3.01200	-318
3.01567	-273
3.01933	-234
3.02300	-199
3.02667	-169
3.03033	-143
3.03400	-121
3.03767	-101
3.04133	-85
3.04500	-70
3.04867	-58
3.05233	-48
3.05600	-39
3.05967	-31
3.06333	-24
3.06700	-19
3.07067	-14
3.07433	-10
3.07800	-6
3.08167	-3
3.08533	-1
3.08900	1
3.09267	3
3.09633	5
3.10000	6
3.10367	8
3.10733	9
3.11100	10
3.11467	11
3.11833	12
3.12200	12
3.12567	12
3.12933	13
3.13300	13
3.13667	14
3.14033	14
3.14400	14
3.14767	15
3.15133	15
3.15500	15
3.15867	16
3.16233	16
3.16600	17
3.16967	17
3.17333	17
3.17700	18
3.18067	18
3.18433	19
3.18800	19
3.19167	19
3.19533	19
3.19900	19
3.20267	19
3.20633	20
3.21000	20
3.21367	20
3.21733	21
3.22100	21
3.22467	21
3.22833	22
3.23200	22
3.23567	22
3.23933	22
3.24300	22
3.24667	23
3.25033	23
3.25400	23
3.25767	23
3.26133	24
3.26500	24
3.26867	24
3.27233	24
3.27600	24
3.27967	24
3.28333	24
3.28700	24
3.29067	24
3.29433	24
3.29800	24
3.30167	24
3.30533	24
3.30900	24
3.31267	24
3.31633	24
3.32000	24
3.32367	24
3.32733	24
3.33100	24
3.33467	24
3.33833	24
3.34200	24
3.34567	24
3.34933	24
3.35300	24
3.35667	24
3.36033	24
3.36400	24
3.36767	24
3.37133	24
3.37500	25
3.37867	25
3.38233	25
3.38600	25
3.38967	25
3.39333	26
3.39700	26
3.40067	27
3.40433	27
3.40800	27
3.41167	28
3.41533	28
3.41900	28
3.42267	28
3.42633	28
3.43000	28
3.43367	28
3.43733	29
3.44100	29
3.44467	29
3.44833	29
3.45200	28
3.45567	28
3.45933	28
3.46300	28
3.46667	28
3.47033	29
3.47400	28
3.47767	28
3.48133	28
3.48500	28
3.48867	28
3.49233	27
3.49600	27
3.49967	27
3.50333	27
3.50700	27
3.51067	27
3.51433	27
3.51800	27
3.52167	27
3.52533	27
3.52900	27
3.53267	27
3.53633	26
3.54000	26
3.54367	26
3.54733	26
3.55100	26
3.55467	26
3.55833	26
3.56200	26
3.56567	26
3.56933	27
3.57300	27
3.57667	27
3.58033	27
3.58400	27
3.58767	26
3.59133	26
3.59500	26
3.59867	26
3.60233	26
3.60600	26
3.60967	26
3.61333	26
3.61700	26
3.62067	27
3.62433	27
3.62800	27
3.63167	27
3.63533	27
3.63900	27
3.64267	27
3.64633	28
3.65000	28
3.65367	28
3.65733	27
3.66100	27
3.66467	27
3.66833	27
3.67200	28
3.67567	28
3.67933	28
3.68300	28
3.68667	28
3.69033	28
3.69400	28
3.69767	28
3.70133	28
3.70500	27
3.70867	27
3.71233	27
3.71600	27
3.71967	28
3.72333	28
3.72700	28
3.73067	28
3.73433	28
3.73800	28
3.74167	28
3.74533	28
3.74900	28
3.75267	28
3.75633	28
3.76000	28
3.76367	28
3.76733	28
3.77100	28
3.77467	28
3.77833	28
3.78200	28
3.78567	28
3.78933	29
3.79300	29
3.79667	29
3.80033	29
3.80400	28
3.80767	28
3.81133	28
3.81500	28
3.81867	28
3.82233	28
3.82600	28
3.82967	28
3.83333	28
3.83700	28
3.84067	28
3.84433	28
3.84800	28
3.85167	28
3.85533	28
3.85900	29
3.86267	29
3.86633	29
3.87000	29
3.87367	28
3.87733	28
3.88100	28
3.88467	28
3.88833	28
3.89200	27
3.89567	27
3.89933	27
3.90300	26
3.90667	26
3.91033	26
3.91400	26
3.91767	26
3.92133	26
3.92500	26
3.92867	27
3.93233	27
3.93600	27
3.93967	27
3.94333	27
3.94700	27
3.95067	27
3.95433	27
3.95800	26
3.96167	26
3.96533	26
3.96900	26
3.97267	26
3.97633	27
3.98000	27
3.98367	27
3.98733	27
3.99100	27
3.99467	27
3.99833	27

[Chromatogram (Ch3)]
Interval(msec)	220
# of Points	1091
Start Time(min)	0.002
End Time(min)	3.998
R.Time (min)	Intensity
0.00167	1
0.00533	1
0.00900	1
0.01267	0
0.01633	0
0.02000	-1
0.02367	-2
0.02733	-3
0.03100	-5
0.03467	-6
0.03833	-6
0.04200	-4
0.04567	-1
0.04933	-0
0.05300	0
0.05667	0
0.06033	-1
0.06400	-2
0.06767	-1
0.07133	-0
0.07500	-1
0.07867	1
0.08233	3
0.08600	4
0.08967	3
0.09333	1
0.09700	-0
0.10067	0
0.10433	2
0.10800	2
0.11167	2
0.11533	0
0.11900	-0
0.12267	-0
0.12633	-0
0.13000	-2
0.13367	-2
0.13733	-5
0.14100	-6
0.14467	-6
0.14833	-3
0.15200	1
0.15567	3
0.15933	6
0.16300	7
0.16667	7
0.17033	6
0.17400	4
0.17767	2
0.18133	3
0.18500	2
0.18867	1
0.19233	2
0.19600	3
0.19967	3
0.20333	3
0.20700	3
0.21067	4
0.21433	4
0.21800	3
0.22167	2
0.22533	3
0.22900	4
0.23267	4
0.23633	2
0.24000	-1
0.24367	-0
0.24733	-0
0.25100	-1
0.25467	0
0.25833	2
0.26200	4
0.26567	5
0.26933	5
0.27300	4
0.27667	5
0.28033	5
0.28400	5
0.28767	6
0.29133	8
0.29500	10
0.29867	12
0.30233	14
0.30600	14
0.30967	13
0.31333	12
0.31700	11
0.32067	12
0.32433	12
0.32800	12
0.33167	12
0.33533	10
0.33900	8
0.34267	6
0.34633	5
0.35000	5
0.35367	4
0.35733	6
0.36100	6
0.36467	6
0.36833	5
0.37200	5
0.37567	6
0.37933	6
0.38300	6
0.38667	5
0.39033	6
0.39400	7
0.39767	9
0.40133	8
0.40500	8
0.40867	9
0.41233	10
0.41600	9
0.41967	8
0.42333	8
0.42700	9
0.43067	10
0.43433	11
0.43800	11
0.44167	9
0.44533	7
0.44900	5
0.45267	7
0.45633	8
0.46000	9
0.46367	10
0.46733	11
0.47100	12
0.47467	11
0.47833	10
0.48200	10
0.48567	11
0.48933	12
0.49300	11
0.49667	12
0.50033	11
0.50400	10
0.50767	9
0.51133	11
0.51500	11
0.51867	10
0.52233	7
0.52600	6
0.52967	6
0.53333	8
0.53700	9
0.54067	9
0.54433	10
0.54800	12
0.55167	12
0.55533	12
0.55900	11
0.56267	9
0.56633	7
0.57000	7
0.57367	9
0.57733	9
0.58100	8
0.58467	7
0.58833	6
0.59200	6
0.59567	8
0.59933	12
0.60300	13
0.60667	13
0.61033	13
0.61400	14
0.61767	14
0.62133	14
0.62500	16
0.62867	16
0.63233	17
0.63600	17
0.63967	18
0.64333	19
0.64700	18
0.65067	16
0.65433	16
0.65800	17
0.66167	17
0.66533	17
0.66900	16
0.67267	15
0.67633	14
0.68000	15
0.68367	15
0.68733	14
0.69100	13
0.69467	12
0.69833	12
0.70200	14
0.70567	16
0.70933	16
0.71300	14
0.71667	12
0.72033	13
0.72400	16
0.72767	18
0.73133	21
0.73500	23
0.73867	22
0.74233	22
0.74600	23
0.74967	22
0.75333	20
0.75700	18
0.76067	18
0.76433	18
0.76800	17
0.77167	18
0.77533	19
0.77900	20
0.78267	19
0.78633	19
0.79000	19
0.79367	19
0.79733	22
0.80100	23
0.80467	24
0.80833	23
0.81200	21
0.81567	20
0.81933	22
0.82300	25
0.82667	24
0.83033	23
0.83400	26
0.83767	27
0.84133	24
0.84500	23
0.84867	24
0.85233	23
0.85600	21
0.85967	19
0.86333	18
0.86700	17
0.87067	16
0.87433	14
0.87800	14
0.88167	15
0.88533	14
0.88900	13
0.89267	15
0.89633	14
0.90000	14
0.90367	14
0.90733	14
0.91100	17
0.91467	19
0.91833	18
0.92200	17
0.92567	18
0.92933	20
0.93300	19
0.93667	20
0.94033	22
0.94400	23
0.94767	23
0.95133	23
0.95500	23
0.95867	22
0.96233	20
0.96600	19
0.96967	16
0.97333	15
0.97700	15
0.98067	16
0.98433	16
0.98800	19
0.99167	19
0.99533	20
0.99900	20
1.00267	20
1.00633	22
1.01000	23
1.01367	23
1.01733	23
1.02100	23
1.02467	22
1.02833	22
1.03200	24
1.03567	25
1.03933	22
1.04300	19
1.04667	19
1.05033	20
1.05400	22
1.05767	24
1.06133	25
1.06500	24
1.06867	22
1.07233	21
1.07600	20
1.07967	19
1.08333	20
1.08700	20
1.09067	21
1.09433	23
1.09800	24
1.10167	25
1.10533	25
1.10900	24
1.11267	23
1.11633	24
1.12000	25
1.12367	25
1.12733	25
1.13100	25
1.13467	24
1.13833	23
1.14200	22
1.14567	22
1.14933	23
1.15300	23
1.15667	22
1.16033	19
1.16400	19
1.16767	22
1.17133	23
1.17500	23
1.17867	24
1.18233	24
1.18600	24
1.18967	26
1.19333	28
1.19700	26
1.20067	24
1.20433	23
1.20800	22
1.21167	20
1.21533	20
1.21900	20
1.22267	21
1.22633	20
1.23000	21
1.23367	22
1.23733	21
1.24100	22
1.24467	23
1.24833	21
1.25200	20
1.25567	20
1.25933	20
1.26300	19
1.26667	19
1.27033	18
1.27400	18
1.27767	20
1.28133	22
1.28500	22
1.28867	22
1.29233	22
1.29600	23
1.29967	23
1.30333	22
1.30700	22
1.31067	21
1.31433	19
1.31800	18
1.32167	19
1.32533	20
1.32900	21
1.33267	23
1.33633	24
1.34000	26
1.34367	28
1.34733	28
1.35100	30
1.35467	31
1.35833	29
1.36200	26
1.36567	25
1.36933	26
1.37300	26
1.37667	25
1.38033	23
1.38400	22
1.38767	22
1.39133	22
1.39500	22
1.39867	22
1.40233	23
1.40600	24
1.40967	25
1.41333	26
1.41700	27
1.42067	29
1.42433	29
1.42800	28
1.43167	26
1.43533	24
1.43900	24
1.44267	24
1.44633	24
1.45000	22
1.45367	22
1.45733	24
1.46100	25
1.46467	25
1.46833	23
1.47200	22
1.47567	22
1.47933	24
1.48300	27
1.48667	29
1.49033	28
1.49400	25
1.49767	23
1.50133	23
1.50500	23
1.50867	22
1.51233	21
1.51600	20
1.51967	18
1.52333	20
1.52700	22
1.53067	23
1.53433	23
1.53800	24
1.54167	24
1.54533	23
1.54900	23
1.55267	23
1.55633	24
1.56000	25
1.56367	26
1.56733	26
1.57100	26
1.57467	27
1.57833	30
1.58200	31
1.58567	32
1.58933	31
1.59300	30
1.59667	28
1.60033	28
1.60400	27
1.60767	25
1.61133	25
1.61500	26
1.61867	27
1.62233	28
1.62600	28
1.62967	28
1.63333	27
1.63700	26
1.64067	27
1.64433	27
1.64800	28
1.65167	28
1.65533	30
1.65900	29
1.66267	29
1.66633	31
1.67000	32
1.67367	32
1.67733	33
1.68100	33
1.68467	34
1.68833	36
1.69200	37
1.69567	38
1.69933	39
1.70300	39
1.70667	37
1.71033	35
1.71400	36
1.71767	38
1.72133	39
1.72500	41
1.72867	40
1.73233	40
1.73600	42
1.73967	45
1.74333	47
1.74700	45
1.75067	43
1.75433	40
1.75800	37
1.76167	36
1.76533	35
1.76900	36
1.77267	38
1.77633	40
1.78000	43
1.78367	45
1.78733	45
1.79100	45
1.79467	43
1.79833	44
1.80200	44
1.80567	44
1.80933	44
1.81300	46
1.81667	47
1.82033	48
1.82400	46
1.82767	46
1.83133	46
1.83500	45
1.83867	45
1.84233	46
1.84600	48
1.84967	48
1.85333	46
1.85700	46
1.86067	50
1.86433	51
1.86800	53
1.87167	54
1.87533	54
1.87900	54
1.88267	57
1.88633	58
1.89000	61
1.89367	64
1.89733	67
1.90100	67
1.90467	66
1.90833	65
1.91200	63
1.91567	64
1.91933	65
1.92300	66
1.92667	66
1.93033	65
1.93400	65
1.93767	67
1.94133	69
1.94500	71
1.94867	71
1.95233	71
1.95600	71
1.95967	71
1.96333	72
1.96700	72
1.97067	71
1.97433	72
1.97800	72
1.98167	71
1.98533	72
1.98900	73
1.99267	77
1.99633	80
2.00000	82
2.00367	84
2.00733	83
2.01100	83
2.01467	83
2.01833	81
2.02200	81
2.02567	82
2.02933	84
2.03300	83
2.03667	83
2.04033	83
2.04400	83
2.04767	84
2.05133	87
2.05500	90
2.05867	90
2.06233	89
2.06600	90
2.06967	91
2.07333	93
2.07700	96
2.08067	99
2.08433	100
2.08800	102
2.09167	102
2.09533	101
2.09900	102
2.10267	103
2.10633	103
2.11000	104
2.11367	104
2.11733	106
2.12100	107
2.12467	109
2.12833	111
2.13200	111
2.13567	108
2.13933	107
2.14300	109
2.14667	109
2.15033	109
2.15400	110
2.15767	110
2.16133	111
2.16500	112
2.16867	112
2.17233	112
2.17600	112
2.17967	112
2.18333	113
2.18700	115
2.19067	117
2.19433	116
2.19800	117
2.20167	118
2.20533	119
2.20900	120
2.21267	123
2.21633	124
2.22000	123
2.22367	123
2.22733	122
2.23100	123
2.23467	126
2.23833	127
2.24200	128
2.24567	128
2.24933	131
2.25300	133
2.25667	132
2.26033	132
2.26400	134
2.26767	135
2.27133	137
2.27500	138
2.27867	137
2.28233	136
2.28600	137
2.28967	139
2.29333	140
2.29700	139
2.30067	139
2.30433	139
2.30800	139
2.31167	139
2.31533	139
2.31900	140
2.32267	144
2.32633	149
2.33000	151
2.33367	150
2.33733	149
2.34100	148
2.34467	150
2.34833	152
2.35200	149
2.35567	146
2.35933	146
2.36300	148
2.36667	150
2.37033	151
2.37400	148
2.37767	145
2.38133	143
2.38500	142
2.38867	139
2.39233	139
2.39600	141
2.39967	145
2.40333	149
2.40700	149
2.41067	149
2.41433	147
2.41800	145
2.42167	144
2.42533	146
2.42900	147
2.43267	147
2.43633	148
2.44000	153
2.44367	192
2.44733	267
2.45100	339
2.45467	389
2.45833	407
2.46200	398
2.46567	383
2.46933	369
2.47300	358
2.47667	342
2.48033	319
2.48400	294
2.48767	271
2.49133	251
2.49500	236
2.49867	224
2.50233	217
2.50600	214
2.50967	215
2.51333	219
2.51700	224
2.52067	227
2.52433	224
2.52800	217
2.53167	206
2.53533	195
2.53900	184
2.54267	172
2.54633	161
2.55000	151
2.55367	144
2.55733	141
2.56100	138
2.56467	135
2.56833	135
2.57200	137
2.57567	138
2.57933	138
2.58300	141
2.58667	146
2.59033	152
2.59400	155
2.59767	160
2.60133	166
2.60500	173
2.60867	177
2.61233	181
2.61600	183
2.61967	185
2.62333	184
2.62700	181
2.63067	177
2.63433	168
2.63800	158
2.64167	146
2.64533	134
2.64900	125
2.65267	119
2.65633	112
2.66000	104
2.66367	98
2.66733	93
2.67100	89
2.67467	84
2.67833	82
2.68200	81
2.68567	80
2.68933	80
2.69300	80
2.69667	81
2.70033	85
2.70400	89
2.70767	90
2.71133	90
2.71500	90
2.71867	89
2.72233	89
2.72600	91
2.72967	92
2.73333	93
2.73700	93
2.74067	95
2.74433	95
2.74800	97
2.75167	99
2.75533	101
2.75900	101
2.76267	101
2.76633	104
2.77000	105
2.77367	105
2.77733	105
2.78100	107
2.78467	110
2.78833	112
2.79200	114
2.79567	116
2.79933	119
2.80300	122
2.80667	125
2.81033	128
2.81400	130
2.81767	132
2.82133	135
2.82500	137
2.82867	140
2.83233	144
2.83600	156
2.83967	181
2.84333	234
2.84700	331
2.85067	493
2.85433	745
2.85800	1094
2.86167	1542
2.86533	2067
2.86900	2635
2.87267	3203
2.87633	3723
2.88000	4146
2.88367	4442
2.88733	4602
2.89100	4623
2.89467	4521
2.89833	4323
2.90200	4057
2.90567	3748
2.90933	3421
2.91300	3088
2.91667	2765
2.92033	2462
2.92400	2180
2.92767	1922
2.93133	1691
2.93500	1487
2.93867	1307
2.94233	1149
2.94600	1010
2.94967	889
2.95333	782
2.95700	690
2.96067	610
2.96433	542
2.96800	484
2.97167	432
2.97533	384
2.97900	342
2.98267	310
2.98633	283
2.99000	261
2.99367	242
2.99733	226
3.00100	206
3.00467	180
3.00833	157
3.01200	144
3.01567	145
3.01933	155
3.02300	167
3.02667	180
3.03033	195
3.03400	214
3.03767	239
3.04133	268
3.04500	297
3.04867	325
3.05233	355
3.05600	382
3.05967	406
3.06333	426
3.06700	441
3.07067	455
3.07433	467
3.07800	475
3.08167	482
3.08533	489
3.08900	496
3.09267	501
3.09633	507
3.10000	513
3.10367	518
3.10733	522
3.11100	524
3.11467	527
3.11833	531
3.12200	533
3.12567	536
3.12933	540
3.13300	543
3.13667	543
3.14033	542
3.14400	545
3.14767	548
3.15133	550
3.15500	552
3.15867	555
3.16233	558
3.16600	561
3.16967	563
3.17333	567
3.17700	572
3.18067	574
3.18433	576
3.18800	577
3.19167	580
3.19533	582
3.19900	582
3.20267	584
3.20633	587
3.21000	588
3.21367	586
3.21733	587
3.22100	590
3.22467	594
3.22833	596
3.23200	599
3.23567	601
3.23933	600
3.24300	601
3.24667	602
3.25033	600
3.25400	598
3.25767	599
3.26133	600
3.26500	600
3.26867	599
3.27233	597
3.27600	597
3.27967	597
3.28333	595
3.28700	593
3.29067	590
3.29433	590
3.29800	592
3.30167	590
3.30533	588
3.30900	586
3.31267	585
3.31633	584
3.32000	582
3.32367	580
3.32733	576
3.33100	572
3.33467	569
3.33833	566
3.34200	565
3.34567	565
3.34933	565
3.35300	562
3.35667	559
3.36033	558
3.36400	558
3.36767	555
3.37133	553
3.37500	552
3.37867	550
3.38233	550
3.38600	548
3.38967	544
3.39333	542
3.39700	543
3.40067	543
3.40433	541
3.40800	540
3.41167	538
3.41533	537
3.41900	536
3.42267	535
3.42633	534
3.43000	531
3.43367	530
3.43733	530
3.44100	529
3.44467	525
3.44833	521
3.45200	517
3.45567	514
3.45933	512
3.46300	513
3.46667	514
3.47033	514
3.47400	515
3.47767	514
3.48133	511
3.48500	511
3.48867	510
3.49233	509
3.49600	506
3.49967	504
3.50333	502
3.50700	499
3.51067	495
3.51433	492
3.51800	491
3.52167	492
3.52533	492
3.52900	492
3.53267	488
3.53633	484
3.54000	481
3.54367	478
3.54733	476
3.55100	475
3.55467	473
3.55833	470
3.56200	468
3.56567	467
3.56933	467
3.57300	465
3.57667	466
3.58033	468
3.58400	470
3.58767	472
3.59133	472
3.59500	470
3.59867	468
3.60233	466
3.60600	465
3.60967	462
3.61333	461
3.61700	460
3.62067	460
3.62433	457
3.62800	453
3.63167	450
3.63533	450
3.63900	449
3.64267	446
3.64633	446
3.65000	446
3.65367	443
3.65733	441
3.66100	440
3.66467	439
3.66833	438
3.67200	436
3.67567	434
3.67933	433
3.68300	432
3.68667	431
3.69033	431
3.69400	431
3.69767	429
3.70133	427
3.70500	425
3.70867	424
3.71233	420
3.71600	417
3.71967	416
3.72333	416
3.72700	415
3.73067	415
3.73433	415
3.73800	414
3.74167	414
3.74533	414
3.74900	414
3.75267	413
3.75633	412
3.76000	411
3.76367	410
3.76733	408
3.77100	406
3.77467	403
3.77833	400
3.78200	399
3.78567	400
3.78933	402
3.79300	402
3.79667	401
3.80033	401
3.80400	403
3.80767	401
3.81133	400
3.81500	400
3.81867	400
3.82233	399
3.82600	396
3.82967	394
3.83333	393
3.83700	392
3.84067	392
3.84433	391
3.84800	391
3.85167	390
3.85533	390
3.85900	391
3.86267	390
3.86633	389
3.87000	386
3.87367	383
3.87733	383
3.88100	384
3.88467	384
3.88833	383
3.89200	382
3.89567	382
3.89933	379
3.90300	376
3.90667	376
3.91033	377
3.91400	378
3.91767	377
3.92133	377
3.92500	378
3.92867	377
3.93233	375
3.93600	375
3.93967	373
3.94333	373
3.94700	372
3.95067	369
3.95433	367
3.95800	366
3.96167	366
3.96533	364
3.96900	364
3.97267	365
3.97633	366
3.98000	365
3.98367	364
3.98733	362
3.99100	360
3.99467	357
3.99833	354

[Status Trace (Column Oven Temperature)]
Interval(msec)	1000
# of Points	240
Start Time(min)	0.003
End Time(min)	3.986
Intensity Units	
Intensity Multiplier	1
R.Time (min)	Intensity
0.00253	35.04
0.01920	35.05
0.03587	35.05
0.05253	35.04
0.06920	35.04
0.08587	35.05
0.10253	35.04
0.11920	35.04
0.13587	35.05
0.15253	35.05
0.16920	35.05
0.18587	35.05
0.20253	35.04
0.21920	35.03
0.23587	35.01
0.25253	35.01
0.26920	35.01
0.28587	35.01
0.30253	35.01
0.31920	35.00
0.33587	35.01
0.35253	35.01
0.36920	35.01
0.38587	35.00
0.40253	35.00
0.41920	35.00
0.43587	34.99
0.45253	34.99
0.46920	34.98
0.48587	34.99
0.50253	34.99
0.51920	34.98
0.53587	34.99
0.55253	35.00
0.56920	35.00
0.58587	35.00
0.60253	35.02
0.61920	35.02
0.63587	35.03
0.65253	35.03
0.66920	35.01
0.68587	35.01
0.70253	35.01
0.71920	35.00
0.73587	35.00
0.75253	34.99
0.76920	34.99
0.78587	35.00
0.80253	35.00
0.81920	35.00
0.83587	34.99
0.85253	35.00
0.86920	35.01
0.88587	35.01
0.90253	35.00
0.91920	35.00
0.93587	35.01
0.95253	35.00
0.96920	35.00
0.98587	35.00
1.00253	35.00
1.01920	35.01
1.03587	35.02
1.05253	35.03
1.06920	35.03
1.08587	35.04
1.10253	35.05
1.11920	35.04
1.13587	35.03
1.15253	35.02
1.16920	35.01
1.18587	35.00
1.20253	35.00
1.21920	35.00
1.23587	35.01
1.25253	35.01
1.26920	35.00
1.28587	34.99
1.30253	35.00
1.31920	35.00
1.33587	35.00
1.35253	34.99
1.36920	34.99
1.38587	34.99
1.40253	34.98
1.41920	34.98
1.43587	34.99
1.45253	34.99
1.46920	34.99
1.48587	35.00
1.50253	35.00
1.51920	35.00
1.53587	34.99
1.55253	34.98
1.56920	34.98
1.58587	34.99
1.60253	35.04
1.61920	35.16
1.63587	35.33
1.65253	35.55
1.66920	35.83
1.68587	36.19
1.70253	36.56
1.71920	36.90
1.73587	37.22
1.75253	37.56
1.76920	37.90
1.78587	38.21
1.80253	38.53
1.81920	38.88
1.83587	39.20
1.85253	39.54
1.86920	39.86
1.88587	40.21
1.90253	40.53
1.91920	40.85
1.93587	41.18
1.95253	41.50
1.96920	41.83
1.98587	42.16
2.00253	42.49
2.01920	42.82
2.03587	43.13
2.05253	43.46
2.06920	43.79
2.08587	44.13
2.10253	44.45
2.11920	44.78
2.13587	45.10
2.15253	45.41
2.16920	45.75
2.18587	46.07
2.20253	46.41
2.21920	46.73
2.23587	47.03
2.25253	47.36
2.26920	47.69
2.28587	48.04
2.30253	48.38
2.31920	48.70
2.33587	49.02
2.35253	49.35
2.36920	49.58
2.38587	49.66
2.40253	49.66
2.41920	49.66
2.43587	49.67
2.45253	49.68
2.46920	49.69
2.48587	49.70
2.50253	49.72
2.51920	49.73
2.53587	49.74
2.55253	49.76
2.56920	49.77
2.58587	49.77
2.60253	49.78
2.61920	49.79
2.63587	49.81
2.65253	49.81
2.66920	49.82
2.68587	49.84
2.70253	49.85
2.71920	49.85
2.73587	49.88
2.75253	49.88
2.76920	49.87
2.78587	49.86
2.80253	49.85
2.81920	49.87
2.83587	49.90
2.85253	49.90
2.86920	49.90
2.88587	49.91
2.90253	49.91
2.91920	49.91
2.93587	49.92
2.95253	49.94
2.96920	49.95
2.98587	49.96
3.00253	49.97
3.01920	49.97
3.03587	49.98
3.05253	49.99
3.06920	50.00
3.08587	50.01
3.10253	50.01
3.11920	50.03
3.13587	50.06
3.15253	50.06
3.16920	50.07
3.18587	50.08
3.20253	50.08
3.21920	50.08
3.23587	50.08
3.25253	50.07
3.26920	50.07
3.28587	50.08
3.30253	50.08
3.31920	50.09
3.33587	50.10
3.35253	50.11
3.36920	50.11
3.38587	50.10
3.40253	50.08
3.41920	50.07
3.43587	50.06
3.45253	50.05
3.46920	50.05
3.48587	50.04
3.50253	50.04
3.51920	50.04
3.53587	50.05
3.55253	50.05
3.56920	50.05
3.58587	50.06
3.60253	50.06
3.61920	50.06
3.63587	50.06
3.65253	50.05
3.66920	50.05
3.68587	50.05
3.70253	50.06
3.71920	50.06
3.73587	50.06
3.75253	50.06
3.76920	50.06
3.78587	50.06
3.80253	50.06
3.81920	50.06
3.83587	50.06
3.85253	50.06
3.86920	50.05
3.88587	50.05
3.90253	50.06
3.91920	50.06
3.93587	50.07
3.95253	50.07
3.96920	50.09
3.98587	50.10

[Status Trace (Injection Unit Temperature)]
Interval(msec)	1000
# of Points	240
Start Time(min)	0.003
End Time(min)	3.986
Intensity Units	
Intensity Multiplier	1
R.Time (min)	Intensity
0.00253	99.98
0.01920	99.98
0.03587	99.98
0.05253	99.98
0.06920	99.98
0.08587	99.98
0.10253	99.98
0.11920	99.98
0.13587	99.98
0.15253	99.98
0.16920	99.98
0.18587	99.98
0.20253	99.98
0.21920	99.98
0.23587	99.98
0.25253	99.98
0.26920	99.99
0.28587	99.98
0.30253	99.98
0.31920	99.98
0.33587	99.98
0.35253	99.98
0.36920	99.99
0.38587	99.98
0.40253	99.98
0.41920	99.98
0.43587	99.99
0.45253	99.98
0.46920	99.98
0.48587	99.98
0.50253	99.99
0.51920	99.98
0.53587	99.99
0.55253	99.99
0.56920	99.98
0.58587	99.98
0.60253	99.98
0.61920	99.98
0.63587	99.98
0.65253	99.98
0.66920	99.99
0.68587	99.98
0.70253	99.98
0.71920	99.99
0.73587	99.98
0.75253	99.98
0.76920	99.98
0.78587	99.98
0.80253	99.99
0.81920	99.98
0.83587	99.98
0.85253	99.98
0.86920	99.98
0.88587	99.98
0.90253	99.98
0.91920	99.98
0.93587	99.98
0.95253	99.98
0.96920	99.99
0.98587	99.99
1.00253	99.98
1.01920	99.98
1.03587	99.98
1.05253	99.98
1.06920	99.98
1.08587	99.98
1.10253	99.98
1.11920	99.98
1.13587	99.98
1.15253	99.98
1.16920	99.98
1.18587	99.98
1.20253	99.99
1.21920	99.98
1.23587	99.98
1.25253	99.98
1.26920	99.98
1.28587	99.98
1.30253	99.98
1.31920	99.98
1.33587	99.99
1.35253	99.99
1.36920	99.99
1.38587	99.99
1.40253	99.99
1.41920	99.98
1.43587	99.98
1.45253	99.99
1.46920	99.98
1.48587	99.99
1.50253	99.99
1.51920	99.98
1.53587	99.99
1.55253	99.98
1.56920	99.99
1.58587	99.99
1.60253	99.99
1.61920	99.99
1.63587	99.98
1.65253	99.98
1.66920	99.98
1.68587	99.99
1.70253	99.98
1.71920	99.98
1.73587	99.99
1.75253	99.99
1.76920	99.99
1.78587	99.98
1.80253	99.98
1.81920	99.98
1.83587	99.98
1.85253	99.98
1.86920	99.98
1.88587	99.98
1.90253	99.98
1.91920	99.98
1.93587	99.98
1.95253	99.97
1.96920	99.97
1.98587	99.97
2.00253	99.97
2.01920	99.97
2.03587	99.97
2.05253	99.97
2.06920	99.97
2.08587	99.97
2.10253	99.97
2.11920	99.96
2.13587	99.96
2.15253	99.96
2.16920	99.96
2.18587	99.96
2.20253	99.96
2.21920	99.96
2.23587	99.96
2.25253	99.96
2.26920	99.95
2.28587	99.96
2.30253	99.96
2.31920	99.96
2.33587	99.96
2.35253	99.96
2.36920	99.96
2.38587	99.96
2.40253	99.96
2.41920	99.96
2.43587	99.96
2.45253	99.96
2.46920	99.96
2.48587	99.97
2.50253	99.96
2.51920	99.96
2.53587	99.97
2.55253	99.97
2.56920	99.97
2.58587	99.97
2.60253	99.97
2.61920	99.97
2.63587	99.97
2.65253	99.98
2.66920	99.98
2.68587	99.98
2.70253	99.98
2.71920	99.98
2.73587	99.99
2.75253	99.99
2.76920	99.99
2.78587	99.99
2.80253	100.00
2.81920	100.00
2.83587	99.99
2.85253	100.00
2.86920	100.00
2.88587	100.00
2.90253	100.00
2.91920	100.00
2.93587	100.01
2.95253	100.00
2.96920	100.01
2.98587	100.01
3.00253	100.01
3.01920	100.01
3.03587	100.02
3.05253	100.01
3.06920	100.01
3.08587	100.02
3.10253	100.02
3.11920	100.02
3.13587	100.02
3.15253	100.02
3.16920	100.02
3.18587	100.02
3.20253	100.03
3.21920	100.03
3.23587	100.03
3.25253	100.02
3.26920	100.03
3.28587	100.03
3.30253	100.03
3.31920	100.03
3.33587	100.03
3.35253	100.03
3.36920	100.03
3.38587	100.04
3.40253	100.03
3.41920	100.04
3.43587	100.03
3.45253	100.04
3.46920	100.03
3.48587	100.04
3.50253	100.04
3.51920	100.03
3.53587	100.04
3.55253	100.04
3.56920	100.04
3.58587	100.03
3.60253	100.04
3.61920	100.04
3.63587	100.04
3.65253	100.04
3.66920	100.04
3.68587	100.04
3.70253	100.03
3.71920	100.04
3.73587	100.04
3.75253	100.04
3.76920	100.04
3.78587	100.04
3.80253	100.04
3.81920	100.04
3.83587	100.04
3.85253	100.04
3.86920	100.04
3.88587	100.04
3.90253	100.04
3.91920	100.04
3.93587	100.04
3.95253	100.04
3.96920	100.04
3.98587	100.04

[Status Trace (Carrier Gas Pressure)]
Interval(msec)	1000
# of Points	240
Start Time(min)	0.003
End Time(min)	3.986
Intensity Units	
Intensity Multiplier	1
R.Time (min)	Intensity
0.00253	58.00
0.01920	56.31
0.03587	56.38
0.05253	58.72
0.06920	59.80
0.08587	58.22
0.10253	57.97
0.11920	58.01
0.13587	58.01
0.15253	58.01
0.16920	58.00
0.18587	58.00
0.20253	58.00
0.21920	58.00
0.23587	58.00
0.25253	58.00
0.26920	58.00
0.28587	58.00
0.30253	58.00
0.31920	58.00
0.33587	58.00
0.35253	58.00
0.36920	58.00
0.38587	58.00
0.40253	58.00
0.41920	58.00
0.43587	58.00
0.45253	58.00
0.46920	58.00
0.48587	58.00
0.50253	58.00
0.51920	58.00
0.53587	58.00
0.55253	58.00
0.56920	58.00
0.58587	58.00
0.60253	58.00
0.61920	58.00
0.63587	58.00
0.65253	58.00
0.66920	58.00
0.68587	58.00
0.70253	58.00
0.71920	58.00
0.73587	58.00
0.75253	58.00
0.76920	58.00
0.78587	58.00
0.80253	58.00
0.81920	58.00
0.83587	58.00
0.85253	58.00
0.86920	58.00
0.88587	58.00
0.90253	58.00
0.91920	58.00
0.93587	58.00
0.95253	58.00
0.96920	58.00
0.98587	58.00
1.00253	58.00
1.01920	58.00
1.03587	58.00
1.05253	58.00
1.06920	58.00
1.08587	58.00
1.10253	58.00
1.11920	58.00
1.13587	58.00
1.15253	58.00
1.16920	58.00
1.18587	58.00
1.20253	58.00
1.21920	58.00
1.23587	58.00
1.25253	58.00
1.26920	58.00
1.28587	58.00
1.30253	58.00
1.31920	58.00
1.33587	58.00
1.35253	58.00
1.36920	58.00
1.38587	58.00
1.40253	58.00
1.41920	58.00
1.43587	58.00
1.45253	58.00
1.46920	58.00
1.48587	58.00
1.50253	58.00
1.51920	58.00
1.53587	58.00
1.55253	58.00
1.56920	58.00
1.58587	58.00
1.60253	58.00
1.61920	58.00
1.63587	58.00
1.65253	58.00
1.66920	58.00
1.68587	58.01
1.70253	58.00
1.71920	58.00
1.73587	58.00
1.75253	58.00
1.76920	58.00
1.78587	58.00
1.80253	58.00
1.81920	58.00
1.83587	58.00
1.85253	58.00
1.86920	58.00
1.88587	58.00
1.90253	58.00
1.91920	58.00
1.93587	58.00
1.95253	58.00
1.96920	58.00
1.98587	58.00
2.00253	58.00
2.01920	58.00
2.03587	58.00
2.05253	58.00
2.06920	58.00
2.08587	58.00
2.10253	58.00
2.11920	58.00
2.13587	58.00
2.15253	58.00
2.16920	58.00
2.18587	58.00
2.20253	58.00
2.21920	58.00
2.23587	58.00
2.25253	58.00
2.26920	58.00
2.28587	58.00
2.30253	58.00
2.31920	58.00
2.33587	58.00
2.35253	58.00
2.36920	58.00
2.38587	57.99
2.40253	57.99
2.41920	58.00
2.43587	58.00
2.45253	58.00
2.46920	58.00
2.48587	58.00
2.50253	57.96
2.51920	58.02
2.53587	57.99
2.55253	58.00
2.56920	58.00
2.58587	58.00
2.60253	58.00
2.61920	58.00
2.63587	58.00
2.65253	58.00
2.66920	58.00
2.68587	58.00
2.70253	58.00
2.71920	58.00
2.73587	58.00
2.75253	58.00
2.76920	58.00
2.78587	58.00
2.80253	58.00
2.81920	58.00
2.83587	58.00
2.85253	58.00
2.86920	58.00
2.88587	58.00
2.90253	58.00
2.91920	58.00
2.93587	58.00
2.95253	58.00
2.96920	58.00
2.98587	58.00
3.00253	58.00
3.01920	58.00
3.03587	58.00
3.05253	58.00
3.06920	58.00
3.08587	58.00
3.10253	58.00
3.11920	58.00
3.13587	58.00
3.15253	58.00
3.16920	58.00
3.18587	58.00
3.20253	58.00
3.21920	58.00
3.23587	58.00
3.25253	58.00
3.26920	58.00
3.28587	58.00
3.30253	58.00
3.31920	58.00
3.33587	58.00
3.35253	58.00
3.36920	58.00
3.38587	58.00
3.40253	58.00
3.41920	58.00
3.43587	58.00
3.45253	58.00
3.46920	58.00
3.48587	58.00
3.50253	58.00
3.51920	58.00
3.53587	58.00
3.55253	58.00
3.56920	58.00
3.58587	58.00
3.60253	58.00
3.61920	58.00
3.63587	58.00
3.65253	58.00
3.66920	58.00
3.68587	58.00
3.70253	58.00
3.71920	58.00
3.73587	58.00
3.75253	58.00
3.76920	58.00
3.78587	58.00
3.80253	58.00
3.81920	58.00
3.83587	58.00
3.85253	58.00
3.86920	58.00
3.88587	58.00
3.90253	58.00
3.91920	58.00
3.93587	58.00
3.95253	58.00
3.96920	58.00
3.98587	58.00

[Status Trace (Carrier Gas Flow)]
Interval(msec)	1000
# of Points	240
Start Time(min)	0.003
End Time(min)	3.986
Intensity Units	
Intensity Multiplier	1
R.Time (min)	Intensity
0.00253	34.51
0.01920	34.54
0.03587	34.55
0.05253	34.55
0.06920	34.49
0.08587	34.52
0.10253	34.52
0.11920	34.51
0.13587	34.52
0.15253	34.52
0.16920	34.52
0.18587	34.52
0.20253	34.52
0.21920	34.52
0.23587	34.52
0.25253	34.51
0.26920	34.52
0.28587	34.52
0.30253	34.52
0.31920	34.53
0.33587	34.53
0.35253	34.52
0.36920	34.52
0.38587	34.52
0.40253	34.51
0.41920	34.51
0.43587	34.51
0.45253	34.51
0.46920	34.51
0.48587	34.51
0.50253	34.51
0.51920	34.51
0.53587	34.53
0.55253	34.51
0.56920	34.52
0.58587	34.52
0.60253	34.51
0.61920	34.52
0.63587	34.53
0.65253	34.53
0.66920	34.52
0.68587	34.51
0.70253	34.53
0.71920	34.52
0.73587	34.51
0.75253	34.52
0.76920	34.52
0.78587	34.52
0.80253	34.53
0.81920	34.53
0.83587	34.53
0.85253	34.53
0.86920	34.52
0.88587	34.51
0.90253	34.52
0.91920	34.52
0.93587	34.52
0.95253	34.52
0.96920	34.52
0.98587	34.52
1.00253	34.51
1.01920	34.52
1.03587	34.52
1.05253	34.52
1.06920	34.52
1.08587	34.52
1.10253	34.52
1.11920	34.52
1.13587	34.52
1.15253	34.52
1.16920	34.52
1.18587	34.52
1.20253	34.52
1.21920	34.52
1.23587	34.52
1.25253	34.52
1.26920	34.52
1.28587	34.52
1.30253	34.51
1.31920	34.52
1.33587	34.52
1.35253	34.52
1.36920	34.52
1.38587	34.52
1.40253	34.52
1.41920	34.52
1.43587	34.52
1.45253	34.52
1.46920	34.52
1.48587	34.52
1.50253	34.52
1.51920	34.52
1.53587	34.51
1.55253	34.51
1.56920	34.52
1.58587	34.52
1.60253	34.52
1.61920	34.52
1.63587	34.52
1.65253	34.52
1.66920	34.52
1.68587	34.52
1.70253	34.52
1.71920	34.51
1.73587	34.52
1.75253	34.53
1.76920	34.52
1.78587	34.52
1.80253	34.51
1.81920	34.52
1.83587	34.51
1.85253	34.51
1.86920	34.52
1.88587	34.52
1.90253	34.53
1.91920	34.52
1.93587	34.52
1.95253	34.52
1.96920	34.51
1.98587	34.51
2.00253	34.51
2.01920	34.51
2.03587	34.52
2.05253	34.52
2.06920	34.52
2.08587	34.51
2.10253	34.52
2.11920	34.52
2.13587	34.52
2.15253	34.52
2.16920	34.52
2.18587	34.53
2.20253	34.52
2.21920	34.52
2.23587	34.52
2.25253	34.52
2.26920	34.52
2.28587	34.51
2.30253	34.51
2.31920	34.51
2.33587	34.52
2.35253	34.51
2.36920	34.52
2.38587	34.52
2.40253	34.52
2.41920	34.51
2.43587	34.53
2.45253	34.52
2.46920	34.51
2.48587	34.52
2.50253	34.67
2.51920	34.52
2.53587	34.52
2.55253	34.52
2.56920	34.52
2.58587	34.51
2.60253	34.52
2.61920	34.52
2.63587	34.52
2.65253	34.51
2.66920	34.52
2.68587	34.52
2.70253	34.52
2.71920	34.52
2.73587	34.52
2.75253	34.52
2.76920	34.51
2.78587	34.52
2.80253	34.52
2.81920	34.52
2.83587	34.52
2.85253	34.52
2.86920	34.52
2.88587	34.52
2.90253	34.52
2.91920	34.52
2.93587	34.52
2.95253	34.51
2.96920	34.52
2.98587	34.52
3.00253	34.52
3.01920	34.52
3.03587	34.52
3.05253	34.52
3.06920	34.51
3.08587	34.52
3.10253	34.52
3.11920	34.52
3.13587	34.52
3.15253	34.52
3.16920	34.52
3.18587	34.51
3.20253	34.52
3.21920	34.52
3.23587	34.52
3.25253	34.52
3.26920	34.52
3.28587	34.52
3.30253	34.52
3.31920	34.52
3.33587	34.52
3.35253	34.52
3.36920	34.52
3.38587	34.52
3.40253	34.52
3.41920	34.52
3.43587	34.52
3.45253	34.52
3.46920	34.52
3.48587	34.52
3.50253	34.52
3.51920	34.52
3.53587	34.52
3.55253	34.52
3.56920	34.52
3.58587	34.52
3.60253	34.52
3.61920	34.52
3.63587	34.51
3.65253	34.52
3.66920	34.52
3.68587	34.52
3.70253	34.52
3.71920	34.52
3.73587	34.52
3.75253	34.52
3.76920	34.52
3.78587	34.52
3.80253	34.52
3.81920	34.52
3.83587	34.52
3.85253	34.52
3.86920	34.51
3.88587	34.52
3.90253	34.52
3.91920	34.52
3.93587	34.52
3.95253	34.51
3.96920	34.52
3.98587	34.52

[Status Trace (Column Flow)]
Interval(msec)	1000
# of Points	240
Start Time(min)	0.003
End Time(min)	3.986
Intensity Units	
Intensity Multiplier	1
R.Time (min)	Intensity
0.00253	5.52
0.01920	5.32
0.03587	5.33
0.05253	5.60
0.06920	5.73
0.08587	5.54
0.10253	5.52
0.11920	5.52
0.13587	5.52
0.15253	5.52
0.16920	5.52
0.18587	5.52
0.20253	5.52
0.21920	5.52
0.23587	5.52
0.25253	5.52
0.26920	5.52
0.28587	5.52
0.30253	5.52
0.31920	5.52
0.33587	5.52
0.35253	5.52
0.36920	5.52
0.38587	5.52
0.40253	5.52
0.41920	5.52
0.43587	5.52
0.45253	5.52
0.46920	5.52
0.48587	5.52
0.50253	5.52
0.51920	5.52
0.53587	5.52
0.55253	5.52
0.56920	5.52
0.58587	5.52
0.60253	5.52
0.61920	5.52
0.63587	5.52
0.65253	5.52
0.66920	5.52
0.68587	5.52
0.70253	5.52
0.71920	5.52
0.73587	5.52
0.75253	5.52
0.76920	5.52
0.78587	5.52
0.80253	5.52
0.81920	5.52
0.83587	5.52
0.85253	5.52
0.86920	5.52
0.88587	5.52
0.90253	5.52
0.91920	5.52
0.93587	5.52
0.95253	5.52
0.96920	5.52
0.98587	5.52
1.00253	5.52
1.01920	5.52
1.03587	5.52
1.05253	5.52
1.06920	5.52
1.08587	5.52
1.10253	5.52
1.11920	5.52
1.13587	5.52
1.15253	5.52
1.16920	5.52
1.18587	5.52
1.20253	5.52
1.21920	5.52
1.23587	5.52
1.25253	5.52
1.26920	5.52
1.28587	5.52
1.30253	5.52
1.31920	5.52
1.33587	5.52
1.35253	5.52
1.36920	5.52
1.38587	5.52
1.40253	5.52
1.41920	5.52
1.43587	5.52
1.45253	5.52
1.46920	5.52
1.48587	5.52
1.50253	5.52
1.51920	5.52
1.53587	5.52
1.55253	5.52
1.56920	5.52
1.58587	5.52
1.60253	5.52
1.61920	5.52
1.63587	5.51
1.65253	5.50
1.66920	5.50
1.68587	5.48
1.70253	5.47
1.71920	5.46
1.73587	5.45
1.75253	5.44
1.76920	5.43
1.78587	5.42
1.80253	5.41
1.81920	5.40
1.83587	5.39
1.85253	5.38
1.86920	5.37
1.88587	5.36
1.90253	5.35
1.91920	5.34
1.93587	5.33
1.95253	5.32
1.96920	5.31
1.98587	5.30
2.00253	5.29
2.01920	5.28
2.03587	5.27
2.05253	5.26
2.06920	5.25
2.08587	5.24
2.10253	5.23
2.11920	5.23
2.13587	5.22
2.15253	5.21
2.16920	5.20
2.18587	5.19
2.20253	5.18
2.21920	5.17
2.23587	5.16
2.25253	5.15
2.26920	5.14
2.28587	5.13
2.30253	5.12
2.31920	5.11
2.33587	5.11
2.35253	5.10
2.36920	5.09
2.38587	5.09
2.40253	5.09
2.41920	5.09
2.43587	5.09
2.45253	5.09
2.46920	5.09
2.48587	5.09
2.50253	5.08
2.51920	5.09
2.53587	5.08
2.55253	5.08
2.56920	5.08
2.58587	5.08
2.60253	5.08
2.61920	5.08
2.63587	5.08
2.65253	5.08
2.66920	5.08
2.68587	5.08
2.70253	5.08
2.71920	5.08
2.73587	5.08
2.75253	5.08
2.76920	5.08
2.78587	5.08
2.80253	5.08
2.81920	5.08
2.83587	5.08
2.85253	5.08
2.86920	5.08
2.88587	5.08
2.90253	5.08
2.91920	5.08
2.93587	5.08
2.95253	5.08
2.96920	5.08
2.98587	5.08
3.00253	5.08
3.01920	5.08
3.03587	5.08
3.05253	5.08
3.06920	5.08
3.08587	5.08
3.10253	5.08
3.11920	5.08
3.13587	5.08
3.15253	5.08
3.16920	5.08
3.18587	5.08
3.20253	5.08
3.21920	5.08
3.23587	5.08
3.25253	5.08
3.26920	5.08
3.28587	5.08
3.30253	5.08
3.31920	5.08
3.33587	5.08
3.35253	5.07
3.36920	5.07
3.38587	5.08
3.40253	5.08
3.41920	5.08
3.43587	5.08
3.45253	5.08
3.46920	5.08
3.48587	5.08
3.50253	5.08
3.51920	5.08
3.53587	5.08
3.55253	5.08
3.56920	5.08
3.58587	5.08
3.60253	5.08
3.61920	5.08
3.63587	5.08
3.65253	5.08
3.66920	5.08
3.68587	5.08
3.70253	5.08
3.71920	5.08
3.73587	5.08
3.75253	5.08
3.76920	5.08
3.78587	5.08
3.80253	5.08
3.81920	5.08
3.83587	5.08
3.85253	5.08
3.86920	5.08
3.88587	5.08
3.90253	5.08
3.91920	5.08
3.93587	5.08
3.95253	5.08
3.96920	5.08
3.98587	5.07

[Status Trace (Linear Velocity)]
Interval(msec)	1000
# of Points	240
Start Time(min)	0.003
End Time(min)	3.986
Intensity Units	
Intensity Multiplier	1
R.Time (min)	Intensity
0.00253	39.01
0.01920	37.90
0.03587	37.95
0.05253	39.49
0.06920	40.19
0.08587	39.16
0.10253	39.00
0.11920	39.02
0.13587	39.02
0.15253	39.01
0.16920	39.01
0.18587	39.01
0.20253	39.01
0.21920	39.01
0.23587	39.02
0.25253	39.02
0.26920	39.02
0.28587	39.02
0.30253	39.02
0.31920	39.02
0.33587	39.02
0.35253	39.01
0.36920	39.01
0.38587	39.02
0.40253	39.02
0.41920	39.02
0.43587	39.02
0.45253	39.02
0.46920	39.02
0.48587	39.02
0.50253	39.02
0.51920	39.02
0.53587	39.02
0.55253	39.02
0.56920	39.02
0.58587	39.02
0.60253	39.01
0.61920	39.01
0.63587	39.01
0.65253	39.01
0.66920	39.02
0.68587	39.02
0.70253	39.02
0.71920	39.02
0.73587	39.02
0.75253	39.02
0.76920	39.02
0.78587	39.02
0.80253	39.02
0.81920	39.02
0.83587	39.02
0.85253	39.02
0.86920	39.02
0.88587	39.02
0.90253	39.02
0.91920	39.02
0.93587	39.02
0.95253	39.02
0.96920	39.02
0.98587	39.02
1.00253	39.02
1.01920	39.02
1.03587	39.02
1.05253	39.01
1.06920	39.01
1.08587	39.01
1.10253	39.01
1.11920	39.01
1.13587	39.01
1.15253	39.01
1.16920	39.02
1.18587	39.02
1.20253	39.02
1.21920	39.02
1.23587	39.02
1.25253	39.02
1.26920	39.02
1.28587	39.02
1.30253	39.02
1.31920	39.02
1.33587	39.02
1.35253	39.02
1.36920	39.02
1.38587	39.02
1.40253	39.02
1.41920	39.02
1.43587	39.02
1.45253	39.02
1.46920	39.02
1.48587	39.02
1.50253	39.02
1.51920	39.02
1.53587	39.02
1.55253	39.02
1.56920	39.02
1.58587	39.02
1.60253	39.01
1.61920	39.00
1.63587	38.99
1.65253	38.97
1.66920	38.94
1.68587	38.91
1.70253	38.87
1.71920	38.83
1.73587	38.80
1.75253	38.77
1.76920	38.74
1.78587	38.71
1.80253	38.68
1.81920	38.65
1.83587	38.62
1.85253	38.58
1.86920	38.55
1.88587	38.52
1.90253	38.49
1.91920	38.46
1.93587	38.43
1.95253	38.40
1.96920	38.37
1.98587	38.34
2.00253	38.31
2.01920	38.28
2.03587	38.25
2.05253	38.22
2.06920	38.19
2.08587	38.16
2.10253	38.13
2.11920	38.10
2.13587	38.07
2.15253	38.04
2.16920	38.01
2.18587	37.98
2.20253	37.95
2.21920	37.92
2.23587	37.90
2.25253	37.87
2.26920	37.84
2.28587	37.81
2.30253	37.78
2.31920	37.75
2.33587	37.72
2.35253	37.69
2.36920	37.67
2.38587	37.66
2.40253	37.66
2.41920	37.66
2.43587	37.66
2.45253	37.66
2.46920	37.66
2.48587	37.66
2.50253	37.63
2.51920	37.67
2.53587	37.65
2.55253	37.65
2.56920	37.65
2.58587	37.65
2.60253	37.65
2.61920	37.65
2.63587	37.65
2.65253	37.65
2.66920	37.65
2.68587	37.65
2.70253	37.65
2.71920	37.65
2.73587	37.64
2.75253	37.64
2.76920	37.64
2.78587	37.64
2.80253	37.65
2.81920	37.64
2.83587	37.64
2.85253	37.64
2.86920	37.64
2.88587	37.64
2.90253	37.64
2.91920	37.64
2.93587	37.64
2.95253	37.64
2.96920	37.64
2.98587	37.64
3.00253	37.64
3.01920	37.63
3.03587	37.63
3.05253	37.63
3.06920	37.63
3.08587	37.63
3.10253	37.63
3.11920	37.63
3.13587	37.63
3.15253	37.63
3.16920	37.63
3.18587	37.63
3.20253	37.62
3.21920	37.63
3.23587	37.63
3.25253	37.63
3.26920	37.63
3.28587	37.63
3.30253	37.62
3.31920	37.62
3.33587	37.62
3.35253	37.62
3.36920	37.62
3.38587	37.62
3.40253	37.62
3.41920	37.63
3.43587	37.63
3.45253	37.63
3.46920	37.63
3.48587	37.63
3.50253	37.63
3.51920	37.63
3.53587	37.63
3.55253	37.63
3.56920	37.63
3.58587	37.63
3.60253	37.63
3.61920	37.63
3.63587	37.63
3.65253	37.63
3.66920	37.63
3.68587	37.63
3.70253	37.63
3.71920	37.63
3.73587	37.63
3.75253	37.63
3.76920	37.63
3.78587	37.63
3.80253	37.63
3.81920	37.63
3.83587	37.63
3.85253	37.63
3.86920	37.63
3.88587	37.63
3.90253	37.63
3.91920	37.63
3.93587	37.63
3.95253	37.63
3.96920	37.62
3.98587	37.62

