[Header]
Application Name	LabSolutions
Version	5.110
Data File Name	C:\Users\User\Desktop\Junior\UIC Prairie Sampling\3.23.23\032323_003.gcd
Output Date	5/24/2023
Output Time	10:27:35 AM

[File Information]
Type	Data File
Generated	5/23/2023 3:37:11 PM
Generated by	System Administrator
Modified	5/23/2023 3:43:39 PM
Modified by	System Administrator

[Sample Information]
Operator Name	System Administrator
Acquired	5/23/2023 3:39:38 PM
Sample Type	0:Unknown
Level	0
Sample Name	003
Sample ID	003
ISTD Amount1	1
ISTD Amount2	1
ISTD Amount3	1
ISTD Amount4	1
ISTD Amount5	1
ISTD Amount6	1
ISTD Amount7	1
ISTD Amount8	1
ISTD Amount9	1
ISTD Amount10	1
ISTD Amount11	1
ISTD Amount12	1
ISTD Amount13	1
ISTD Amount14	1
ISTD Amount15	1
ISTD Amount16	1
ISTD Amount17	1
ISTD Amount18	1
ISTD Amount19	1
ISTD Amount20	1
ISTD Amount21	1
ISTD Amount22	1
ISTD Amount23	1
ISTD Amount24	1
ISTD Amount25	1
ISTD Amount26	1
ISTD Amount27	1
ISTD Amount28	1
ISTD Amount29	1
ISTD Amount30	1
ISTD Amount31	1
ISTD Amount32	1
Sample Amount	1
Dilution Factor	1
Vial#	2
Injection Volume	1
Injection Count	1
Bar Code	

[Original Files]
Data File	C:\Users\User\Desktop\GC Analyses\Jack\Nachusa Grasslands Sampling\20220924\t2\032323_003.gcd
Method File	C:\LabSolutions\Data\GHG_4min_2022\ghg3_togas_w_acet_4 min_new_int.gcm
Batch File	C:\LabSolutions\Data\AutoSamplerTesting\032323.gcb
Report Format File	c:\LabSolutions\System\DEFAULT.lsr

[File Description]


[Configuration]
Instrument Name	C0B7VH3-Instrument1
Instrument #	1
Line #	1
# of Detectors	3
Detector ID	DET#1	DET#2	DET#3
Detector Name	FID	PTCD	ECD
# of Channels	1	1	1

[Peak Table(Ch1)]
# of Peaks	3
Peak#	R.Time	I.Time	F.Time	Area	Height	A/H	Conc.	Mark	ID#	Name	k'	Plate #	Plate Ht.	Tailing	Resolution	Sep.Factor	Area Ratio	Height Ratio	Conc. %	Norm Conc.
1	1.479	1.421	1.523	1262	515	2.452	0.000	   	1	CO	0.000	6383	23.501	0.906	0.000	0.000	0	0	0.000	0.000
2	1.567	1.534	1.637	19867	10086	1.970	96.856	   	2	CH4	0.059	11557	12.979	1.144	1.329	0.000	0	0	19.689	19.689
3	1.993	1.949	2.411	2050067	976636	2.099	395.086	   	3	CO2	0.347	17329	8.656	1.325	7.156	5.833	0	0	80.311	80.311

[Peak Table(Ch2)]
# of Peaks	0

[Peak Table(Ch3)]
# of Peaks	6
Peak#	R.Time	I.Time	F.Time	Area	Height	A/H	Conc.	Mark	ID#	Name	k'	Plate #	Plate Ht.	Tailing	Resolution	Sep.Factor	Area Ratio	Height Ratio	Conc. %	Norm Conc.
1	2.466	2.385	2.495	596	232	2.565	0.000	   			0.000	15639	9.592	0.000	0.000	0.000	0	0	0.000	0.000
2	2.506	2.495	2.546	249	119	2.088	0.000	 V 			0.016	4069	36.867	0.000	0.342	0.000	0	0	0.000	0.000
3	2.594	2.546	2.653	364	98	3.720	0.000	 V 			0.052	8936	16.787	0.000	0.659	3.182	0	0	0.000	0.000
4	2.774	2.678	2.825	382	66	5.767	0.006	   	1	N2O	0.125	3397	44.154	0.000	1.197	2.400	0	0	0.732	0.732
5	2.891	2.825	3.082	51826	13585	3.815	0.767	 V 	1	N2O	0.173	13157	11.401	1.574	0.806	1.381	0	0	99.268	99.268
6	3.148	3.082	3.478	1375	92	14.879	0.000	 V 	2	SF6	0.277	343	437.620	0.000	0.657	1.603	0	0	0.000	0.000

[Compound Results(Ch1)]
# of IDs	6
ID#	Name	R.Time	Area	Height	Conc.	Curve	3rd	2nd	1st	Constant	Area Ratio	Height Ratio	Conc. %	Norm Conc.
1	CO	1.479	1262	515	0.000	Linear	0.000000e+00	0.000000e+00	0.000000e+00	0.000000e+00	0	0	0.000	0.000
2	CH4	1.567	19867	10086	96.856	Linear	0.000000e+00	0.000000e+00	2.051179e+002	0.000000e+00	0	0	19.689	19.689
3	CO2	1.993	2050067	976636	395.086	Linear	0.000000e+00	0.000000e+00	5.188919e+003	0.000000e+00	0	0	80.311	80.311
4	Ethylene	0.000	0	0	0.000	Linear	0.000000e+00	0.000000e+00	0.000000e+00	0.000000e+00	0	0	0.000	0.000
5	Acetylene	0.000	0	0	0.000	Linear	0.000000e+00	0.000000e+00	0.000000e+00	0.000000e+00	0	0	0.000	0.000
6	Ethane	0.000	0	0	0.000	Linear	0.000000e+00	0.000000e+00	0.000000e+00	0.000000e+00	0	0	0.000	0.000

[Compound Results(Ch2)]
# of IDs	5
ID#	Name	R.Time	Area	Height	Conc.	Curve	3rd	2nd	1st	Constant	Area Ratio	Height Ratio	Conc. %	Norm Conc.
1	Hydrogen	0.000	0	0	0.000	Linear	0.000000e+00	0.000000e+00	0.000000e+00	0.000000e+00	0	0	0.000	0.000
2	Oxygen	0.000	0	0	0.000	Linear	0.000000e+00	0.000000e+00	0.000000e+00	0.000000e+00	0	0	0.000	0.000
3	Nitrogen	0.000	0	0	0.000	Linear	0.000000e+00	0.000000e+00	0.000000e+00	0.000000e+00	0	0	0.000	0.000
4	Methane	0.000	0	0	0.000	Linear	0.000000e+00	0.000000e+00	0.000000e+00	0.000000e+00	0	0	0.000	0.000
5	Carbon Monoxide	0.000	0	0	0.000	Linear	0.000000e+00	0.000000e+00	0.000000e+00	0.000000e+00	0	0	0.000	0.000

[Compound Results(Ch3)]
# of IDs	2
ID#	Name	R.Time	Area	Height	Conc.	Curve	3rd	2nd	1st	Constant	Area Ratio	Height Ratio	Conc. %	Norm Conc.
1	N2O	2.891	52208	13652	0.772	Linear	0.000000e+00	0.000000e+00	6.759880e+004	0.000000e+00	0	0	100.000	100.000
2	SF6	3.148	1375	92	0.000	Linear	0.000000e+00	0.000000e+00	0.000000e+00	0.000000e+00	0	0	0.000	0.000

[Group Results(Ch1)]
# of Groups	0

[Group Results(Ch2)]
# of Groups	0

[Group Results(Ch3)]
# of Groups	0

[Chromatogram (Ch1)]
Interval(msec)	220
# of Points	1091
Start Time(min)	0.002
End Time(min)	3.998
R.Time (min)	Intensity
0.00167	-13
0.00533	-10
0.00900	-7
0.01267	-7
0.01633	-7
0.02000	-5
0.02367	-2
0.02733	2
0.03100	5
0.03467	7
0.03833	12
0.04200	15
0.04567	13
0.04933	7
0.05300	-3
0.05667	-13
0.06033	-20
0.06400	-24
0.06767	-23
0.07133	-15
0.07500	-6
0.07867	0
0.08233	3
0.08600	2
0.08967	-0
0.09333	-1
0.09700	-1
0.10067	1
0.10433	6
0.10800	9
0.11167	9
0.11533	4
0.11900	-6
0.12267	-17
0.12633	-25
0.13000	-29
0.13367	-29
0.13733	-25
0.14100	-19
0.14467	-13
0.14833	-6
0.15200	-2
0.15567	3
0.15933	6
0.16300	5
0.16667	2
0.17033	-4
0.17400	-9
0.17767	-13
0.18133	-14
0.18500	-14
0.18867	-16
0.19233	-16
0.19600	-14
0.19967	-9
0.20333	-3
0.20700	-0
0.21067	1
0.21433	4
0.21800	6
0.22167	4
0.22533	-1
0.22900	-4
0.23267	-9
0.23633	-13
0.24000	-18
0.24367	-20
0.24733	-15
0.25100	-10
0.25467	-10
0.25833	-14
0.26200	-18
0.26567	-19
0.26933	-19
0.27300	-19
0.27667	-17
0.28033	-14
0.28400	-14
0.28767	-13
0.29133	-10
0.29500	-4
0.29867	6
0.30233	13
0.30600	14
0.30967	12
0.31333	7
0.31700	2
0.32067	-4
0.32433	-7
0.32800	-8
0.33167	-8
0.33533	-6
0.33900	-3
0.34267	-4
0.34633	-9
0.35000	-13
0.35367	-15
0.35733	-16
0.36100	-17
0.36467	-19
0.36833	-22
0.37200	-26
0.37567	-25
0.37933	-21
0.38300	-18
0.38667	-15
0.39033	-10
0.39400	-4
0.39767	-0
0.40133	1
0.40500	-2
0.40867	-6
0.41233	-7
0.41600	-4
0.41967	1
0.42333	7
0.42700	12
0.43067	14
0.43433	12
0.43800	8
0.44167	4
0.44533	0
0.44900	-2
0.45267	-2
0.45633	-2
0.46000	-3
0.46367	-3
0.46733	-2
0.47100	-0
0.47467	5
0.47833	12
0.48200	18
0.48567	22
0.48933	22
0.49300	18
0.49667	12
0.50033	7
0.50400	6
0.50767	9
0.51133	9
0.51500	6
0.51867	2
0.52233	1
0.52600	-0
0.52967	-3
0.53333	-6
0.53700	-6
0.54067	-3
0.54433	-1
0.54800	-0
0.55167	-1
0.55533	-3
0.55900	-5
0.56267	-5
0.56633	1
0.57000	10
0.57367	19
0.57733	23
0.58100	24
0.58467	20
0.58833	8
0.59200	-4
0.59567	-9
0.59933	-8
0.60300	-5
0.60667	-4
0.61033	-8
0.61400	-13
0.61767	-14
0.62133	-10
0.62500	-4
0.62867	2
0.63233	6
0.63600	13
0.63967	24
0.64333	35
0.64700	41
0.65067	42
0.65433	35
0.65800	19
0.66167	-1
0.66533	-16
0.66900	-29
0.67267	-43
0.67633	-55
0.68000	-61
0.68367	-62
0.68733	-58
0.69100	-54
0.69467	-50
0.69833	-46
0.70200	-38
0.70567	-28
0.70933	-15
0.71300	-6
0.71667	-1
0.72033	1
0.72400	2
0.72767	2
0.73133	1
0.73500	-3
0.73867	-8
0.74233	-13
0.74600	-15
0.74967	-13
0.75333	-10
0.75700	-9
0.76067	-8
0.76433	-6
0.76800	-2
0.77167	4
0.77533	9
0.77900	9
0.78267	8
0.78633	7
0.79000	6
0.79367	3
0.79733	2
0.80100	2
0.80467	5
0.80833	8
0.81200	10
0.81567	9
0.81933	6
0.82300	-1
0.82667	-8
0.83033	-12
0.83400	-15
0.83767	-18
0.84133	-18
0.84500	-14
0.84867	-11
0.85233	-8
0.85600	-7
0.85967	-8
0.86333	-8
0.86700	-3
0.87067	0
0.87433	-3
0.87800	-8
0.88167	-10
0.88533	-11
0.88900	-12
0.89267	-13
0.89633	-13
0.90000	-11
0.90367	-7
0.90733	-2
0.91100	3
0.91467	6
0.91833	7
0.92200	4
0.92567	-2
0.92933	-13
0.93300	-23
0.93667	-26
0.94033	-21
0.94400	-19
0.94767	-20
0.95133	-22
0.95500	-24
0.95867	-23
0.96233	-21
0.96600	-18
0.96967	-15
0.97333	-13
0.97700	-11
0.98067	-7
0.98433	-2
0.98800	1
0.99167	1
0.99533	-1
0.99900	-4
1.00267	-7
1.00633	-12
1.01000	-15
1.01367	-15
1.01733	-16
1.02100	-17
1.02467	-16
1.02833	-13
1.03200	-7
1.03567	-3
1.03933	-5
1.04300	-14
1.04667	-25
1.05033	-34
1.05400	-35
1.05767	-34
1.06133	-36
1.06500	-36
1.06867	-38
1.07233	-40
1.07600	-41
1.07967	-38
1.08333	-30
1.08700	-16
1.09067	-4
1.09433	-1
1.09800	-5
1.10167	-13
1.10533	-19
1.10900	-22
1.11267	-21
1.11633	-16
1.12000	-8
1.12367	-1
1.12733	2
1.13100	2
1.13467	1
1.13833	1
1.14200	-1
1.14567	-5
1.14933	-11
1.15300	-14
1.15667	-18
1.16033	-21
1.16400	-23
1.16767	-25
1.17133	-29
1.17500	-33
1.17867	-34
1.18233	-33
1.18600	-33
1.18967	-33
1.19333	-32
1.19700	-31
1.20067	-27
1.20433	-20
1.20800	-14
1.21167	-14
1.21533	-18
1.21900	-19
1.22267	-16
1.22633	-11
1.23000	-5
1.23367	1
1.23733	6
1.24100	7
1.24467	-1
1.24833	-11
1.25200	-18
1.25567	-23
1.25933	-28
1.26300	-31
1.26667	-31
1.27033	-33
1.27400	-35
1.27767	-38
1.28133	-36
1.28500	-29
1.28867	-22
1.29233	-19
1.29600	-18
1.29967	-23
1.30333	-30
1.30700	-36
1.31067	-35
1.31433	-29
1.31800	-23
1.32167	-18
1.32533	-16
1.32900	-16
1.33267	-16
1.33633	-14
1.34000	-15
1.34367	-19
1.34733	-24
1.35100	-26
1.35467	-30
1.35833	-32
1.36200	-30
1.36567	-27
1.36933	-24
1.37300	-21
1.37667	-22
1.38033	-23
1.38400	-27
1.38767	-30
1.39133	-31
1.39500	-31
1.39867	-31
1.40233	-31
1.40600	-31
1.40967	-32
1.41333	-34
1.41700	-33
1.42067	-29
1.42433	-23
1.42800	-19
1.43167	-22
1.43533	-23
1.43900	-2
1.44267	54
1.44633	127
1.45000	176
1.45367	221
1.45733	275
1.46100	323
1.46467	361
1.46833	396
1.47200	433
1.47567	466
1.47933	474
1.48300	445
1.48667	380
1.49033	295
1.49400	206
1.49767	131
1.50133	72
1.50500	30
1.50867	-1
1.51233	-20
1.51600	-31
1.51967	-40
1.52333	-49
1.52700	-62
1.53067	-69
1.53433	-33
1.53800	190
1.54167	878
1.54533	2235
1.54900	4110
1.55267	6093
1.55633	7824
1.56000	9132
1.56367	9918
1.56733	10049
1.57100	9425
1.57467	8142
1.57833	6505
1.58200	4864
1.58567	3456
1.58933	2362
1.59300	1569
1.59667	1017
1.60033	649
1.60400	410
1.60767	254
1.61133	152
1.61500	85
1.61867	37
1.62233	2
1.62600	-21
1.62967	-34
1.63333	-42
1.63700	-45
1.64067	-52
1.64433	-62
1.64800	-70
1.65167	-74
1.65533	-70
1.65900	-64
1.66267	-59
1.66633	-57
1.67000	-57
1.67367	-55
1.67733	-53
1.68100	-53
1.68467	-59
1.68833	-68
1.69200	-79
1.69567	-87
1.69933	-88
1.70300	-85
1.70667	-76
1.71033	-68
1.71400	-66
1.71767	-67
1.72133	-68
1.72500	-67
1.72867	-63
1.73233	-60
1.73600	-59
1.73967	-59
1.74333	-60
1.74700	-62
1.75067	-60
1.75433	-57
1.75800	-55
1.76167	-57
1.76533	-58
1.76900	-57
1.77267	-61
1.77633	-69
1.78000	-77
1.78367	-80
1.78733	-79
1.79100	-75
1.79467	-71
1.79833	-68
1.80200	-65
1.80567	-65
1.80933	-68
1.81300	-66
1.81667	-63
1.82033	-61
1.82400	-61
1.82767	-66
1.83133	-72
1.83500	-74
1.83867	-73
1.84233	-72
1.84600	-71
1.84967	-69
1.85333	-68
1.85700	-66
1.86067	-67
1.86433	-67
1.86800	-64
1.87167	-58
1.87533	-54
1.87900	-54
1.88267	-57
1.88633	-61
1.89000	-65
1.89367	-67
1.89733	-69
1.90100	-70
1.90467	-73
1.90833	-76
1.91200	-76
1.91567	-72
1.91933	-67
1.92300	-63
1.92667	-60
1.93033	-57
1.93400	-53
1.93767	-48
1.94133	-41
1.94500	-38
1.94867	-23
1.95233	90
1.95600	809
1.95967	4329
1.96333	17250
1.96700	53323
1.97067	130819
1.97433	260541
1.97800	433277
1.98167	621001
1.98533	790661
1.98900	914926
1.99267	976655
1.99633	969013
2.00000	896883
2.00367	776842
2.00733	632954
2.01100	489070
2.01467	362104
2.01833	259816
2.02200	182708
2.02567	127252
2.02933	88615
2.03300	62219
2.03667	44373
2.04033	32342
2.04400	24202
2.04767	18642
2.05133	14781
2.05500	12040
2.05867	10049
2.06233	8565
2.06600	7429
2.06967	6539
2.07333	5829
2.07700	5257
2.08067	4788
2.08433	4394
2.08800	4049
2.09167	3739
2.09533	3463
2.09900	3217
2.10267	3001
2.10633	2815
2.11000	2652
2.11367	2503
2.11733	2362
2.12100	2230
2.12467	2110
2.12833	2000
2.13200	1903
2.13567	1821
2.13933	1750
2.14300	1683
2.14667	1622
2.15033	1568
2.15400	1511
2.15767	1450
2.16133	1391
2.16500	1334
2.16867	1277
2.17233	1221
2.17600	1170
2.17967	1127
2.18333	1093
2.18700	1064
2.19067	1036
2.19433	1007
2.19800	979
2.20167	958
2.20533	939
2.20900	920
2.21267	896
2.21633	868
2.22000	842
2.22367	818
2.22733	797
2.23100	778
2.23467	756
2.23833	735
2.24200	717
2.24567	699
2.24933	682
2.25300	662
2.25667	639
2.26033	617
2.26400	605
2.26767	602
2.27133	602
2.27500	599
2.27867	592
2.28233	579
2.28600	564
2.28967	552
2.29333	545
2.29700	541
2.30067	539
2.30433	537
2.30800	537
2.31167	537
2.31533	537
2.31900	534
2.32267	528
2.32633	520
2.33000	506
2.33367	493
2.33733	483
2.34100	472
2.34467	459
2.34833	448
2.35200	442
2.35567	437
2.35933	432
2.36300	429
2.36667	426
2.37033	425
2.37400	427
2.37767	431
2.38133	434
2.38500	433
2.38867	430
2.39233	426
2.39600	425
2.39967	427
2.40333	429
2.40700	428
2.41067	426
2.41433	422
2.41800	417
2.42167	412
2.42533	409
2.42900	404
2.43267	401
2.43633	400
2.44000	397
2.44367	390
2.44733	384
2.45100	380
2.45467	375
2.45833	371
2.46200	368
2.46567	367
2.46933	370
2.47300	377
2.47667	391
2.48033	401
2.48400	404
2.48767	398
2.49133	387
2.49500	373
2.49867	362
2.50233	354
2.50600	351
2.50967	349
2.51333	348
2.51700	343
2.52067	339
2.52433	336
2.52800	335
2.53167	336
2.53533	338
2.53900	340
2.54267	340
2.54633	342
2.55000	344
2.55367	348
2.55733	349
2.56100	350
2.56467	350
2.56833	352
2.57200	353
2.57567	352
2.57933	348
2.58300	345
2.58667	341
2.59033	340
2.59400	341
2.59767	343
2.60133	345
2.60500	345
2.60867	341
2.61233	338
2.61600	335
2.61967	335
2.62333	338
2.62700	341
2.63067	344
2.63433	345
2.63800	343
2.64167	341
2.64533	339
2.64900	337
2.65267	336
2.65633	337
2.66000	340
2.66367	343
2.66733	344
2.67100	344
2.67467	346
2.67833	350
2.68200	354
2.68567	359
2.68933	365
2.69300	368
2.69667	368
2.70033	362
2.70400	354
2.70767	346
2.71133	340
2.71500	336
2.71867	333
2.72233	337
2.72600	342
2.72967	346
2.73333	350
2.73700	355
2.74067	358
2.74433	356
2.74800	350
2.75167	346
2.75533	344
2.75900	342
2.76267	340
2.76633	341
2.77000	346
2.77367	352
2.77733	358
2.78100	362
2.78467	365
2.78833	367
2.79200	370
2.79567	373
2.79933	375
2.80300	374
2.80667	373
2.81033	373
2.81400	375
2.81767	376
2.82133	374
2.82500	369
2.82867	363
2.83233	358
2.83600	354
2.83967	353
2.84333	355
2.84700	356
2.85067	357
2.85433	361
2.85800	365
2.86167	368
2.86533	369
2.86900	369
2.87267	372
2.87633	375
2.88000	377
2.88367	376
2.88733	372
2.89100	365
2.89467	359
2.89833	358
2.90200	361
2.90567	365
2.90933	368
2.91300	372
2.91667	375
2.92033	376
2.92400	375
2.92767	371
2.93133	368
2.93500	364
2.93867	360
2.94233	362
2.94600	367
2.94967	373
2.95333	376
2.95700	377
2.96067	379
2.96433	378
2.96800	376
2.97167	371
2.97533	366
2.97900	362
2.98267	363
2.98633	368
2.99000	373
2.99367	377
2.99733	378
3.00100	378
3.00467	378
3.00833	381
3.01200	386
3.01567	390
3.01933	389
3.02300	383
3.02667	375
3.03033	367
3.03400	362
3.03767	359
3.04133	359
3.04500	363
3.04867	364
3.05233	364
3.05600	363
3.05967	362
3.06333	363
3.06700	367
3.07067	372
3.07433	374
3.07800	372
3.08167	370
3.08533	370
3.08900	370
3.09267	366
3.09633	362
3.10000	361
3.10367	358
3.10733	352
3.11100	350
3.11467	352
3.11833	358
3.12200	366
3.12567	373
3.12933	376
3.13300	373
3.13667	368
3.14033	364
3.14400	362
3.14767	364
3.15133	367
3.15500	366
3.15867	365
3.16233	362
3.16600	357
3.16967	353
3.17333	354
3.17700	357
3.18067	361
3.18433	364
3.18800	367
3.19167	366
3.19533	362
3.19900	360
3.20267	361
3.20633	360
3.21000	358
3.21367	358
3.21733	359
3.22100	362
3.22467	365
3.22833	365
3.23200	364
3.23567	364
3.23933	366
3.24300	369
3.24667	373
3.25033	375
3.25400	370
3.25767	360
3.26133	350
3.26500	344
3.26867	337
3.27233	333
3.27600	334
3.27967	338
3.28333	342
3.28700	343
3.29067	344
3.29433	343
3.29800	344
3.30167	346
3.30533	348
3.30900	351
3.31267	357
3.31633	359
3.32000	358
3.32367	355
3.32733	353
3.33100	349
3.33467	345
3.33833	347
3.34200	350
3.34567	353
3.34933	355
3.35300	354
3.35667	349
3.36033	345
3.36400	344
3.36767	347
3.37133	348
3.37500	346
3.37867	339
3.38233	330
3.38600	326
3.38967	325
3.39333	322
3.39700	322
3.40067	324
3.40433	324
3.40800	321
3.41167	320
3.41533	323
3.41900	330
3.42267	337
3.42633	337
3.43000	333
3.43367	329
3.43733	329
3.44100	333
3.44467	336
3.44833	336
3.45200	337
3.45567	338
3.45933	340
3.46300	340
3.46667	337
3.47033	330
3.47400	321
3.47767	312
3.48133	309
3.48500	315
3.48867	324
3.49233	331
3.49600	329
3.49967	322
3.50333	315
3.50700	313
3.51067	315
3.51433	318
3.51800	320
3.52167	319
3.52533	316
3.52900	314
3.53267	312
3.53633	311
3.54000	312
3.54367	314
3.54733	314
3.55100	313
3.55467	316
3.55833	322
3.56200	324
3.56567	319
3.56933	312
3.57300	307
3.57667	304
3.58033	303
3.58400	302
3.58767	301
3.59133	301
3.59500	304
3.59867	305
3.60233	306
3.60600	303
3.60967	296
3.61333	289
3.61700	286
3.62067	290
3.62433	294
3.62800	298
3.63167	302
3.63533	310
3.63900	320
3.64267	328
3.64633	330
3.65000	323
3.65367	310
3.65733	296
3.66100	285
3.66467	280
3.66833	277
3.67200	276
3.67567	279
3.67933	284
3.68300	288
3.68667	292
3.69033	296
3.69400	298
3.69767	296
3.70133	292
3.70500	289
3.70867	290
3.71233	292
3.71600	294
3.71967	297
3.72333	300
3.72700	298
3.73067	293
3.73433	288
3.73800	284
3.74167	283
3.74533	283
3.74900	284
3.75267	285
3.75633	288
3.76000	291
3.76367	291
3.76733	289
3.77100	288
3.77467	288
3.77833	292
3.78200	297
3.78567	302
3.78933	303
3.79300	299
3.79667	296
3.80033	292
3.80400	294
3.80767	302
3.81133	309
3.81500	314
3.81867	316
3.82233	314
3.82600	307
3.82967	297
3.83333	289
3.83700	283
3.84067	278
3.84433	274
3.84800	273
3.85167	275
3.85533	277
3.85900	278
3.86267	281
3.86633	285
3.87000	285
3.87367	284
3.87733	281
3.88100	277
3.88467	269
3.88833	263
3.89200	260
3.89567	260
3.89933	261
3.90300	259
3.90667	256
3.91033	261
3.91400	267
3.91767	272
3.92133	274
3.92500	277
3.92867	278
3.93233	275
3.93600	272
3.93967	274
3.94333	277
3.94700	280
3.95067	280
3.95433	279
3.95800	280
3.96167	281
3.96533	281
3.96900	280
3.97267	279
3.97633	277
3.98000	274
3.98367	269
3.98733	268
3.99100	267
3.99467	266
3.99833	266

[Chromatogram (Ch2)]
Interval(msec)	220
# of Points	1091
Start Time(min)	0.002
End Time(min)	3.998
R.Time (min)	Intensity
0.00167	1
0.00533	1
0.00900	1
0.01267	1
0.01633	1
0.02000	1
0.02367	2
0.02733	2
0.03100	2
0.03467	2
0.03833	2
0.04200	2
0.04567	1
0.04933	1
0.05300	1
0.05667	0
0.06033	0
0.06400	0
0.06767	1
0.07133	1
0.07500	1
0.07867	1
0.08233	1
0.08600	2
0.08967	2
0.09333	2
0.09700	2
0.10067	2
0.10433	2
0.10800	2
0.11167	1
0.11533	1
0.11900	1
0.12267	1
0.12633	1
0.13000	0
0.13367	-0
0.13733	-0
0.14100	-0
0.14467	-0
0.14833	-0
0.15200	0
0.15567	0
0.15933	1
0.16300	1
0.16667	1
0.17033	1
0.17400	1
0.17767	1
0.18133	1
0.18500	1
0.18867	1
0.19233	1
0.19600	1
0.19967	1
0.20333	1
0.20700	1
0.21067	1
0.21433	0
0.21800	0
0.22167	0
0.22533	0
0.22900	0
0.23267	-0
0.23633	0
0.24000	0
0.24367	0
0.24733	0
0.25100	1
0.25467	1
0.25833	1
0.26200	1
0.26567	2
0.26933	2
0.27300	2
0.27667	3
0.28033	3
0.28400	3
0.28767	3
0.29133	3
0.29500	3
0.29867	3
0.30233	3
0.30600	2
0.30967	2
0.31333	1
0.31700	1
0.32067	0
0.32433	-0
0.32800	-1
0.33167	-1
0.33533	-1
0.33900	-2
0.34267	-2
0.34633	-2
0.35000	-2
0.35367	-2
0.35733	-2
0.36100	-3
0.36467	-3
0.36833	-3
0.37200	-3
0.37567	-3
0.37933	-3
0.38300	-3
0.38667	-3
0.39033	-2
0.39400	-2
0.39767	-2
0.40133	-2
0.40500	-2
0.40867	-2
0.41233	-2
0.41600	-2
0.41967	-2
0.42333	-2
0.42700	-2
0.43067	-3
0.43433	-3
0.43800	-3
0.44167	-4
0.44533	-4
0.44900	-4
0.45267	-4
0.45633	-4
0.46000	-4
0.46367	-4
0.46733	-4
0.47100	-4
0.47467	-4
0.47833	-4
0.48200	-4
0.48567	-4
0.48933	-4
0.49300	-5
0.49667	-5
0.50033	-5
0.50400	-5
0.50767	-5
0.51133	-5
0.51500	-4
0.51867	-4
0.52233	-4
0.52600	-4
0.52967	-3
0.53333	-3
0.53700	-3
0.54067	-2
0.54433	-2
0.54800	-1
0.55167	-0
0.55533	0
0.55900	1
0.56267	1
0.56633	2
0.57000	2
0.57367	2
0.57733	1
0.58100	1
0.58467	1
0.58833	1
0.59200	1
0.59567	1
0.59933	1
0.60300	1
0.60667	0
0.61033	0
0.61400	0
0.61767	0
0.62133	0
0.62500	0
0.62867	0
0.63233	0
0.63600	1
0.63967	1
0.64333	1
0.64700	1
0.65067	1
0.65433	1
0.65800	1
0.66167	1
0.66533	1
0.66900	1
0.67267	1
0.67633	1
0.68000	1
0.68367	1
0.68733	2
0.69100	2
0.69467	2
0.69833	2
0.70200	3
0.70567	3
0.70933	3
0.71300	3
0.71667	3
0.72033	3
0.72400	3
0.72767	2
0.73133	2
0.73500	2
0.73867	1
0.74233	1
0.74600	0
0.74967	0
0.75333	-0
0.75700	-1
0.76067	-1
0.76433	-1
0.76800	-1
0.77167	-1
0.77533	-1
0.77900	-2
0.78267	-2
0.78633	-2
0.79000	-2
0.79367	-2
0.79733	-2
0.80100	-2
0.80467	-2
0.80833	-1
0.81200	-1
0.81567	-1
0.81933	-0
0.82300	0
0.82667	1
0.83033	1
0.83400	1
0.83767	1
0.84133	1
0.84500	1
0.84867	1
0.85233	1
0.85600	1
0.85967	1
0.86333	1
0.86700	1
0.87067	1
0.87433	1
0.87800	1
0.88167	1
0.88533	1
0.88900	1
0.89267	1
0.89633	1
0.90000	1
0.90367	1
0.90733	1
0.91100	1
0.91467	0
0.91833	-0
0.92200	-0
0.92567	-0
0.92933	-1
0.93300	-1
0.93667	-1
0.94033	-1
0.94400	-2
0.94767	-2
0.95133	-3
0.95500	-3
0.95867	-4
0.96233	-4
0.96600	-4
0.96967	-4
0.97333	-4
0.97700	-4
0.98067	-4
0.98433	-4
0.98800	-3
0.99167	-3
0.99533	-3
0.99900	-3
1.00267	-2
1.00633	-2
1.01000	-1
1.01367	-1
1.01733	-1
1.02100	-1
1.02467	-1
1.02833	-1
1.03200	-1
1.03567	-1
1.03933	-1
1.04300	-1
1.04667	-1
1.05033	-2
1.05400	-2
1.05767	-2
1.06133	-2
1.06500	-2
1.06867	-2
1.07233	-2
1.07600	-1
1.07967	-1
1.08333	-1
1.08700	-1
1.09067	-0
1.09433	-0
1.09800	-0
1.10167	0
1.10533	0
1.10900	0
1.11267	0
1.11633	-0
1.12000	-0
1.12367	-1
1.12733	-1
1.13100	-1
1.13467	-1
1.13833	-1
1.14200	-1
1.14567	-2
1.14933	-2
1.15300	-2
1.15667	-2
1.16033	-2
1.16400	-2
1.16767	-1
1.17133	-1
1.17500	-1
1.17867	-1
1.18233	-1
1.18600	-1
1.18967	-1
1.19333	-1
1.19700	-1
1.20067	-1
1.20433	-1
1.20800	-1
1.21167	-1
1.21533	-1
1.21900	-1
1.22267	-1
1.22633	-1
1.23000	-1
1.23367	-1
1.23733	-1
1.24100	-1
1.24467	-1
1.24833	-2
1.25200	-2
1.25567	-2
1.25933	-1
1.26300	-1
1.26667	-1
1.27033	-1
1.27400	-1
1.27767	-1
1.28133	-2
1.28500	-2
1.28867	-2
1.29233	-2
1.29600	-2
1.29967	-2
1.30333	-2
1.30700	-2
1.31067	-2
1.31433	-2
1.31800	-3
1.32167	-3
1.32533	-3
1.32900	-3
1.33267	-3
1.33633	-2
1.34000	-2
1.34367	-2
1.34733	-2
1.35100	-2
1.35467	-3
1.35833	-3
1.36200	-3
1.36567	-3
1.36933	-3
1.37300	-4
1.37667	-4
1.38033	-4
1.38400	-4
1.38767	-4
1.39133	-4
1.39500	-4
1.39867	-4
1.40233	-3
1.40600	-3
1.40967	-2
1.41333	-2
1.41700	-1
1.42067	-1
1.42433	-1
1.42800	-1
1.43167	-1
1.43533	-1
1.43900	-1
1.44267	-2
1.44633	-2
1.45000	-2
1.45367	-3
1.45733	-3
1.46100	-3
1.46467	-2
1.46833	-2
1.47200	-2
1.47567	-2
1.47933	-2
1.48300	-2
1.48667	-2
1.49033	-2
1.49400	-2
1.49767	-2
1.50133	-2
1.50500	-2
1.50867	-2
1.51233	-1
1.51600	-1
1.51967	-1
1.52333	-1
1.52700	-1
1.53067	-2
1.53433	-2
1.53800	-2
1.54167	-2
1.54533	-2
1.54900	-1
1.55267	-1
1.55633	-1
1.56000	-1
1.56367	-0
1.56733	-0
1.57100	-0
1.57467	0
1.57833	0
1.58200	0
1.58567	0
1.58933	0
1.59300	0
1.59667	-0
1.60033	-1
1.60400	-2
1.60767	-4
1.61133	-5
1.61500	-8
1.61867	-10
1.62233	-13
1.62600	-16
1.62967	-19
1.63333	-22
1.63700	-25
1.64067	-28
1.64433	-32
1.64800	-36
1.65167	-39
1.65533	-43
1.65900	-48
1.66267	-52
1.66633	-57
1.67000	-62
1.67367	-67
1.67733	-72
1.68100	-77
1.68467	-81
1.68833	-85
1.69200	-88
1.69567	-90
1.69933	-92
1.70300	-93
1.70667	-94
1.71033	-95
1.71400	-95
1.71767	-96
1.72133	-96
1.72500	-97
1.72867	-98
1.73233	-99
1.73600	-100
1.73967	-100
1.74333	-101
1.74700	-102
1.75067	-102
1.75433	-102
1.75800	-102
1.76167	-102
1.76533	-102
1.76900	-103
1.77267	-103
1.77633	-103
1.78000	-103
1.78367	-103
1.78733	-103
1.79100	-103
1.79467	-103
1.79833	-103
1.80200	-104
1.80567	-105
1.80933	-106
1.81300	-106
1.81667	-107
1.82033	-107
1.82400	-107
1.82767	-107
1.83133	-106
1.83500	-106
1.83867	-106
1.84233	-106
1.84600	-106
1.84967	-106
1.85333	-106
1.85700	-106
1.86067	-106
1.86433	-106
1.86800	-106
1.87167	-105
1.87533	-105
1.87900	-105
1.88267	-104
1.88633	-104
1.89000	-105
1.89367	-105
1.89733	-105
1.90100	-105
1.90467	-106
1.90833	-106
1.91200	-106
1.91567	-106
1.91933	-105
1.92300	-104
1.92667	-104
1.93033	-103
1.93400	-102
1.93767	-102
1.94133	-101
1.94500	-101
1.94867	-101
1.95233	-101
1.95600	-101
1.95967	-101
1.96333	-100
1.96700	-100
1.97067	-100
1.97433	-100
1.97800	-100
1.98167	-100
1.98533	-101
1.98900	-101
1.99267	-100
1.99633	-100
2.00000	-99
2.00367	-99
2.00733	-98
2.01100	-98
2.01467	-98
2.01833	-97
2.02200	-97
2.02567	-97
2.02933	-97
2.03300	-96
2.03667	-96
2.04033	-95
2.04400	-95
2.04767	-94
2.05133	-94
2.05500	-93
2.05867	-93
2.06233	-93
2.06600	-92
2.06967	-92
2.07333	-92
2.07700	-92
2.08067	-92
2.08433	-93
2.08800	-93
2.09167	-92
2.09533	-92
2.09900	-92
2.10267	-91
2.10633	-90
2.11000	-89
2.11367	-88
2.11733	-88
2.12100	-88
2.12467	-88
2.12833	-88
2.13200	-89
2.13567	-89
2.13933	-89
2.14300	-88
2.14667	-88
2.15033	-88
2.15400	-88
2.15767	-87
2.16133	-87
2.16500	-87
2.16867	-87
2.17233	-86
2.17600	-86
2.17967	-85
2.18333	-84
2.18700	-84
2.19067	-83
2.19433	-83
2.19800	-83
2.20167	-82
2.20533	-82
2.20900	-81
2.21267	-81
2.21633	-80
2.22000	-80
2.22367	-80
2.22733	-80
2.23100	-80
2.23467	-80
2.23833	-80
2.24200	-80
2.24567	-79
2.24933	-79
2.25300	-79
2.25667	-78
2.26033	-78
2.26400	-78
2.26767	-77
2.27133	-77
2.27500	-77
2.27867	-77
2.28233	-76
2.28600	-76
2.28967	-76
2.29333	-75
2.29700	-75
2.30067	-75
2.30433	-75
2.30800	-74
2.31167	-74
2.31533	-73
2.31900	-73
2.32267	-73
2.32633	-73
2.33000	-74
2.33367	-74
2.33733	-74
2.34100	-74
2.34467	-74
2.34833	-73
2.35200	-72
2.35567	-71
2.35933	-69
2.36300	-68
2.36667	-65
2.37033	-62
2.37400	-59
2.37767	-55
2.38133	-51
2.38500	-46
2.38867	-42
2.39233	-38
2.39600	-34
2.39967	-29
2.40333	-25
2.40700	-21
2.41067	-17
2.41433	-14
2.41800	-11
2.42167	-9
2.42533	-7
2.42900	-6
2.43267	-4
2.43633	-3
2.44000	-1
2.44367	0
2.44733	2
2.45100	3
2.45467	5
2.45833	6
2.46200	7
2.46567	8
2.46933	9
2.47300	9
2.47667	10
2.48033	10
2.48400	10
2.48767	10
2.49133	10
2.49500	10
2.49867	10
2.50233	10
2.50600	10
2.50967	9
2.51333	8
2.51700	8
2.52067	7
2.52433	7
2.52800	6
2.53167	7
2.53533	7
2.53900	7
2.54267	7
2.54633	8
2.55000	8
2.55367	9
2.55733	10
2.56100	11
2.56467	11
2.56833	12
2.57200	13
2.57567	14
2.57933	15
2.58300	15
2.58667	16
2.59033	16
2.59400	15
2.59767	15
2.60133	15
2.60500	15
2.60867	15
2.61233	15
2.61600	15
2.61967	16
2.62333	16
2.62700	17
2.63067	18
2.63433	18
2.63800	19
2.64167	19
2.64533	19
2.64900	19
2.65267	20
2.65633	20
2.66000	19
2.66367	19
2.66733	19
2.67100	19
2.67467	19
2.67833	18
2.68200	18
2.68567	19
2.68933	19
2.69300	20
2.69667	21
2.70033	21
2.70400	22
2.70767	23
2.71133	24
2.71500	25
2.71867	25
2.72233	26
2.72600	26
2.72967	26
2.73333	26
2.73700	25
2.74067	25
2.74433	25
2.74800	24
2.75167	24
2.75533	24
2.75900	24
2.76267	24
2.76633	24
2.77000	24
2.77367	24
2.77733	24
2.78100	24
2.78467	25
2.78833	25
2.79200	25
2.79567	25
2.79933	25
2.80300	25
2.80667	26
2.81033	26
2.81400	26
2.81767	26
2.82133	26
2.82500	26
2.82867	26
2.83233	26
2.83600	26
2.83967	26
2.84333	25
2.84700	25
2.85067	24
2.85433	23
2.85800	19
2.86167	13
2.86533	5
2.86900	-8
2.87267	-26
2.87633	-49
2.88000	-78
2.88367	-114
2.88733	-156
2.89100	-204
2.89467	-259
2.89833	-320
2.90200	-386
2.90567	-458
2.90933	-534
2.91300	-615
2.91667	-700
2.92033	-788
2.92400	-880
2.92767	-975
2.93133	-1072
2.93500	-1171
2.93867	-1273
2.94233	-1376
2.94600	-1470
2.94967	-1543
2.95333	-1582
2.95700	-1583
2.96067	-1546
2.96433	-1478
2.96800	-1387
2.97167	-1281
2.97533	-1167
2.97900	-1052
2.98267	-939
2.98633	-831
2.99000	-731
2.99367	-639
2.99733	-556
3.00100	-482
3.00467	-416
3.00833	-359
3.01200	-308
3.01567	-264
3.01933	-225
3.02300	-192
3.02667	-163
3.03033	-138
3.03400	-117
3.03767	-99
3.04133	-84
3.04500	-71
3.04867	-60
3.05233	-50
3.05600	-42
3.05967	-35
3.06333	-29
3.06700	-23
3.07067	-19
3.07433	-15
3.07800	-12
3.08167	-9
3.08533	-6
3.08900	-4
3.09267	-2
3.09633	-0
3.10000	1
3.10367	3
3.10733	4
3.11100	5
3.11467	6
3.11833	8
3.12200	8
3.12567	9
3.12933	10
3.13300	10
3.13667	11
3.14033	12
3.14400	12
3.14767	13
3.15133	13
3.15500	13
3.15867	14
3.16233	14
3.16600	14
3.16967	15
3.17333	15
3.17700	15
3.18067	16
3.18433	16
3.18800	16
3.19167	16
3.19533	16
3.19900	16
3.20267	17
3.20633	17
3.21000	17
3.21367	17
3.21733	18
3.22100	18
3.22467	18
3.22833	18
3.23200	18
3.23567	18
3.23933	18
3.24300	18
3.24667	19
3.25033	19
3.25400	19
3.25767	19
3.26133	19
3.26500	19
3.26867	19
3.27233	20
3.27600	20
3.27967	21
3.28333	22
3.28700	23
3.29067	23
3.29433	24
3.29800	24
3.30167	25
3.30533	25
3.30900	26
3.31267	26
3.31633	26
3.32000	26
3.32367	27
3.32733	27
3.33100	27
3.33467	27
3.33833	27
3.34200	26
3.34567	26
3.34933	26
3.35300	26
3.35667	26
3.36033	26
3.36400	26
3.36767	26
3.37133	25
3.37500	25
3.37867	25
3.38233	25
3.38600	25
3.38967	25
3.39333	25
3.39700	25
3.40067	25
3.40433	25
3.40800	25
3.41167	25
3.41533	25
3.41900	25
3.42267	25
3.42633	25
3.43000	24
3.43367	24
3.43733	25
3.44100	25
3.44467	25
3.44833	25
3.45200	25
3.45567	25
3.45933	25
3.46300	25
3.46667	25
3.47033	25
3.47400	25
3.47767	25
3.48133	25
3.48500	25
3.48867	25
3.49233	25
3.49600	25
3.49967	25
3.50333	25
3.50700	25
3.51067	25
3.51433	25
3.51800	25
3.52167	25
3.52533	25
3.52900	25
3.53267	25
3.53633	25
3.54000	25
3.54367	25
3.54733	25
3.55100	24
3.55467	24
3.55833	24
3.56200	24
3.56567	24
3.56933	24
3.57300	24
3.57667	24
3.58033	24
3.58400	24
3.58767	24
3.59133	23
3.59500	23
3.59867	23
3.60233	23
3.60600	23
3.60967	23
3.61333	23
3.61700	23
3.62067	23
3.62433	24
3.62800	24
3.63167	24
3.63533	24
3.63900	24
3.64267	24
3.64633	24
3.65000	24
3.65367	24
3.65733	24
3.66100	24
3.66467	24
3.66833	24
3.67200	25
3.67567	25
3.67933	25
3.68300	24
3.68667	25
3.69033	25
3.69400	25
3.69767	25
3.70133	25
3.70500	25
3.70867	26
3.71233	26
3.71600	26
3.71967	26
3.72333	26
3.72700	26
3.73067	26
3.73433	26
3.73800	26
3.74167	26
3.74533	26
3.74900	26
3.75267	26
3.75633	26
3.76000	25
3.76367	25
3.76733	25
3.77100	25
3.77467	25
3.77833	25
3.78200	24
3.78567	24
3.78933	24
3.79300	24
3.79667	24
3.80033	24
3.80400	24
3.80767	24
3.81133	24
3.81500	24
3.81867	24
3.82233	24
3.82600	24
3.82967	23
3.83333	23
3.83700	24
3.84067	24
3.84433	24
3.84800	24
3.85167	24
3.85533	24
3.85900	24
3.86267	24
3.86633	24
3.87000	24
3.87367	24
3.87733	24
3.88100	24
3.88467	23
3.88833	23
3.89200	23
3.89567	23
3.89933	23
3.90300	23
3.90667	23
3.91033	23
3.91400	24
3.91767	24
3.92133	24
3.92500	24
3.92867	24
3.93233	25
3.93600	25
3.93967	25
3.94333	25
3.94700	25
3.95067	25
3.95433	25
3.95800	25
3.96167	25
3.96533	25
3.96900	25
3.97267	25
3.97633	25
3.98000	25
3.98367	25
3.98733	25
3.99100	25
3.99467	25
3.99833	25

[Chromatogram (Ch3)]
Interval(msec)	220
# of Points	1091
Start Time(min)	0.002
End Time(min)	3.998
R.Time (min)	Intensity
0.00167	0
0.00533	1
0.00900	-0
0.01267	-0
0.01633	-1
0.02000	-2
0.02367	1
0.02733	4
0.03100	6
0.03467	8
0.03833	9
0.04200	6
0.04567	2
0.04933	0
0.05300	-0
0.05667	0
0.06033	1
0.06400	1
0.06767	3
0.07133	5
0.07500	4
0.07867	3
0.08233	4
0.08600	3
0.08967	3
0.09333	3
0.09700	3
0.10067	4
0.10433	4
0.10800	4
0.11167	4
0.11533	5
0.11900	7
0.12267	8
0.12633	8
0.13000	8
0.13367	6
0.13733	5
0.14100	5
0.14467	6
0.14833	6
0.15200	6
0.15567	6
0.15933	5
0.16300	6
0.16667	5
0.17033	3
0.17400	1
0.17767	1
0.18133	4
0.18500	6
0.18867	8
0.19233	7
0.19600	7
0.19967	7
0.20333	6
0.20700	4
0.21067	4
0.21433	5
0.21800	7
0.22167	4
0.22533	5
0.22900	6
0.23267	7
0.23633	4
0.24000	4
0.24367	4
0.24733	6
0.25100	6
0.25467	5
0.25833	6
0.26200	7
0.26567	7
0.26933	7
0.27300	6
0.27667	7
0.28033	8
0.28400	10
0.28767	9
0.29133	8
0.29500	6
0.29867	4
0.30233	5
0.30600	7
0.30967	9
0.31333	10
0.31700	8
0.32067	8
0.32433	8
0.32800	6
0.33167	5
0.33533	3
0.33900	3
0.34267	3
0.34633	4
0.35000	5
0.35367	6
0.35733	7
0.36100	9
0.36467	11
0.36833	13
0.37200	13
0.37567	15
0.37933	15
0.38300	12
0.38667	9
0.39033	6
0.39400	5
0.39767	4
0.40133	4
0.40500	4
0.40867	6
0.41233	8
0.41600	9
0.41967	10
0.42333	10
0.42700	9
0.43067	9
0.43433	11
0.43800	15
0.44167	17
0.44533	16
0.44900	15
0.45267	13
0.45633	12
0.46000	11
0.46367	10
0.46733	11
0.47100	13
0.47467	13
0.47833	13
0.48200	15
0.48567	15
0.48933	16
0.49300	14
0.49667	14
0.50033	14
0.50400	14
0.50767	14
0.51133	15
0.51500	15
0.51867	14
0.52233	12
0.52600	12
0.52967	12
0.53333	10
0.53700	10
0.54067	13
0.54433	16
0.54800	17
0.55167	17
0.55533	15
0.55900	16
0.56267	15
0.56633	16
0.57000	15
0.57367	14
0.57733	14
0.58100	13
0.58467	13
0.58833	13
0.59200	11
0.59567	9
0.59933	8
0.60300	6
0.60667	7
0.61033	10
0.61400	13
0.61767	15
0.62133	15
0.62500	16
0.62867	17
0.63233	16
0.63600	15
0.63967	13
0.64333	13
0.64700	14
0.65067	15
0.65433	16
0.65800	15
0.66167	13
0.66533	13
0.66900	13
0.67267	13
0.67633	12
0.68000	14
0.68367	17
0.68733	17
0.69100	15
0.69467	13
0.69833	14
0.70200	16
0.70567	18
0.70933	18
0.71300	18
0.71667	17
0.72033	14
0.72400	12
0.72767	9
0.73133	9
0.73500	9
0.73867	10
0.74233	12
0.74600	14
0.74967	13
0.75333	12
0.75700	12
0.76067	13
0.76433	10
0.76800	9
0.77167	7
0.77533	7
0.77900	10
0.78267	13
0.78633	16
0.79000	17
0.79367	17
0.79733	16
0.80100	15
0.80467	15
0.80833	15
0.81200	15
0.81567	16
0.81933	16
0.82300	15
0.82667	15
0.83033	17
0.83400	18
0.83767	19
0.84133	20
0.84500	24
0.84867	26
0.85233	26
0.85600	25
0.85967	22
0.86333	19
0.86700	20
0.87067	19
0.87433	17
0.87800	18
0.88167	20
0.88533	22
0.88900	22
0.89267	19
0.89633	19
0.90000	21
0.90367	22
0.90733	21
0.91100	20
0.91467	18
0.91833	16
0.92200	15
0.92567	17
0.92933	17
0.93300	17
0.93667	19
0.94033	19
0.94400	19
0.94767	18
0.95133	17
0.95500	16
0.95867	16
0.96233	15
0.96600	16
0.96967	18
0.97333	20
0.97700	21
0.98067	20
0.98433	19
0.98800	19
0.99167	19
0.99533	17
0.99900	19
1.00267	20
1.00633	21
1.01000	20
1.01367	20
1.01733	21
1.02100	21
1.02467	19
1.02833	17
1.03200	18
1.03567	18
1.03933	18
1.04300	20
1.04667	18
1.05033	17
1.05400	16
1.05767	18
1.06133	19
1.06500	20
1.06867	19
1.07233	17
1.07600	16
1.07967	17
1.08333	19
1.08700	21
1.09067	21
1.09433	21
1.09800	22
1.10167	22
1.10533	24
1.10900	26
1.11267	28
1.11633	27
1.12000	25
1.12367	20
1.12733	17
1.13100	18
1.13467	19
1.13833	19
1.14200	20
1.14567	20
1.14933	20
1.15300	20
1.15667	19
1.16033	18
1.16400	18
1.16767	19
1.17133	20
1.17500	21
1.17867	22
1.18233	22
1.18600	20
1.18967	20
1.19333	19
1.19700	21
1.20067	19
1.20433	17
1.20800	18
1.21167	17
1.21533	16
1.21900	14
1.22267	16
1.22633	17
1.23000	16
1.23367	14
1.23733	11
1.24100	11
1.24467	11
1.24833	10
1.25200	10
1.25567	11
1.25933	11
1.26300	14
1.26667	17
1.27033	19
1.27400	19
1.27767	18
1.28133	17
1.28500	18
1.28867	20
1.29233	22
1.29600	21
1.29967	19
1.30333	19
1.30700	19
1.31067	18
1.31433	16
1.31800	15
1.32167	13
1.32533	12
1.32900	13
1.33267	14
1.33633	16
1.34000	18
1.34367	20
1.34733	23
1.35100	24
1.35467	22
1.35833	19
1.36200	17
1.36567	16
1.36933	17
1.37300	18
1.37667	19
1.38033	19
1.38400	17
1.38767	16
1.39133	15
1.39500	13
1.39867	12
1.40233	11
1.40600	14
1.40967	16
1.41333	17
1.41700	14
1.42067	12
1.42433	12
1.42800	12
1.43167	13
1.43533	12
1.43900	11
1.44267	10
1.44633	10
1.45000	10
1.45367	11
1.45733	13
1.46100	11
1.46467	11
1.46833	11
1.47200	9
1.47567	7
1.47933	6
1.48300	7
1.48667	6
1.49033	7
1.49400	9
1.49767	12
1.50133	14
1.50500	12
1.50867	11
1.51233	12
1.51600	12
1.51967	13
1.52333	14
1.52700	14
1.53067	15
1.53433	15
1.53800	14
1.54167	13
1.54533	14
1.54900	14
1.55267	13
1.55633	11
1.56000	9
1.56367	7
1.56733	7
1.57100	11
1.57467	13
1.57833	14
1.58200	13
1.58567	12
1.58933	12
1.59300	12
1.59667	12
1.60033	14
1.60400	15
1.60767	14
1.61133	12
1.61500	10
1.61867	10
1.62233	11
1.62600	10
1.62967	10
1.63333	9
1.63700	9
1.64067	12
1.64433	16
1.64800	18
1.65167	19
1.65533	17
1.65900	18
1.66267	19
1.66633	20
1.67000	22
1.67367	25
1.67733	29
1.68100	32
1.68467	32
1.68833	30
1.69200	29
1.69567	27
1.69933	25
1.70300	25
1.70667	27
1.71033	28
1.71400	30
1.71767	31
1.72133	31
1.72500	29
1.72867	28
1.73233	28
1.73600	30
1.73967	30
1.74333	29
1.74700	29
1.75067	32
1.75433	34
1.75800	33
1.76167	35
1.76533	37
1.76900	36
1.77267	35
1.77633	36
1.78000	37
1.78367	39
1.78733	41
1.79100	41
1.79467	41
1.79833	41
1.80200	41
1.80567	41
1.80933	41
1.81300	40
1.81667	42
1.82033	43
1.82400	43
1.82767	41
1.83133	40
1.83500	41
1.83867	42
1.84233	41
1.84600	39
1.84967	39
1.85333	40
1.85700	42
1.86067	43
1.86433	45
1.86800	48
1.87167	50
1.87533	51
1.87900	52
1.88267	51
1.88633	51
1.89000	51
1.89367	51
1.89733	51
1.90100	51
1.90467	55
1.90833	59
1.91200	59
1.91567	58
1.91933	59
1.92300	59
1.92667	58
1.93033	61
1.93400	64
1.93767	65
1.94133	64
1.94500	66
1.94867	67
1.95233	68
1.95600	66
1.95967	65
1.96333	64
1.96700	65
1.97067	65
1.97433	65
1.97800	68
1.98167	70
1.98533	71
1.98900	72
1.99267	72
1.99633	73
2.00000	73
2.00367	72
2.00733	73
2.01100	73
2.01467	75
2.01833	77
2.02200	78
2.02567	80
2.02933	81
2.03300	84
2.03667	86
2.04033	88
2.04400	90
2.04767	92
2.05133	92
2.05500	93
2.05867	94
2.06233	93
2.06600	92
2.06967	89
2.07333	89
2.07700	91
2.08067	95
2.08433	98
2.08800	100
2.09167	104
2.09533	108
2.09900	109
2.10267	108
2.10633	109
2.11000	108
2.11367	108
2.11733	108
2.12100	109
2.12467	110
2.12833	111
2.13200	111
2.13567	112
2.13933	113
2.14300	115
2.14667	118
2.15033	120
2.15400	121
2.15767	122
2.16133	122
2.16500	124
2.16867	126
2.17233	127
2.17600	128
2.17967	129
2.18333	127
2.18700	127
2.19067	128
2.19433	132
2.19800	133
2.20167	133
2.20533	134
2.20900	136
2.21267	136
2.21633	137
2.22000	137
2.22367	138
2.22733	139
2.23100	139
2.23467	141
2.23833	143
2.24200	146
2.24567	149
2.24933	152
2.25300	153
2.25667	151
2.26033	150
2.26400	151
2.26767	153
2.27133	158
2.27500	161
2.27867	162
2.28233	163
2.28600	165
2.28967	167
2.29333	169
2.29700	171
2.30067	169
2.30433	169
2.30800	169
2.31167	169
2.31533	170
2.31900	172
2.32267	174
2.32633	176
2.33000	176
2.33367	176
2.33733	177
2.34100	178
2.34467	179
2.34833	181
2.35200	183
2.35567	185
2.35933	187
2.36300	188
2.36667	189
2.37033	188
2.37400	187
2.37767	186
2.38133	183
2.38500	181
2.38867	180
2.39233	180
2.39600	181
2.39967	182
2.40333	185
2.40700	188
2.41067	189
2.41433	189
2.41800	189
2.42167	188
2.42533	188
2.42900	188
2.43267	188
2.43633	190
2.44000	192
2.44367	216
2.44733	273
2.45100	334
2.45467	374
2.45833	386
2.46200	385
2.46567	384
2.46933	376
2.47300	359
2.47667	334
2.48033	307
2.48400	283
2.48767	263
2.49133	253
2.49500	249
2.49867	252
2.50233	256
2.50600	257
2.50967	252
2.51333	244
2.51700	234
2.52067	222
2.52433	207
2.52800	193
2.53167	180
2.53533	169
2.53900	160
2.54267	156
2.54633	154
2.55000	155
2.55367	156
2.55733	158
2.56100	161
2.56467	167
2.56833	173
2.57200	180
2.57567	187
2.57933	193
2.58300	198
2.58667	201
2.59033	203
2.59400	204
2.59767	202
2.60133	197
2.60500	189
2.60867	184
2.61233	178
2.61600	168
2.61967	159
2.62333	149
2.62700	139
2.63067	131
2.63433	122
2.63800	112
2.64167	104
2.64533	96
2.64900	90
2.65267	85
2.65633	81
2.66000	78
2.66367	80
2.66733	79
2.67100	79
2.67467	80
2.67833	82
2.68200	85
2.68567	86
2.68933	89
2.69300	92
2.69667	95
2.70033	98
2.70400	102
2.70767	107
2.71133	112
2.71500	117
2.71867	120
2.72233	121
2.72600	124
2.72967	125
2.73333	127
2.73700	130
2.74067	136
2.74433	142
2.74800	146
2.75167	150
2.75533	151
2.75900	153
2.76267	155
2.76633	157
2.77000	157
2.77367	159
2.77733	158
2.78100	157
2.78467	157
2.78833	156
2.79200	155
2.79567	155
2.79933	154
2.80300	155
2.80667	155
2.81033	154
2.81400	151
2.81767	148
2.82133	146
2.82500	144
2.82867	147
2.83233	160
2.83600	195
2.83967	274
2.84333	441
2.84700	755
2.85067	1277
2.85433	2061
2.85800	3128
2.86167	4462
2.86533	6009
2.86900	7679
2.87267	9342
2.87633	10868
2.88000	12130
2.88367	13042
2.88733	13563
2.89100	13691
2.89467	13461
2.89833	12940
2.90200	12207
2.90567	11332
2.90933	10382
2.91300	9411
2.91667	8461
2.92033	7560
2.92400	6719
2.92767	5944
2.93133	5242
2.93500	4611
2.93867	4047
2.94233	3549
2.94600	3109
2.94967	2720
2.95333	2381
2.95700	2083
2.96067	1825
2.96433	1599
2.96800	1404
2.97167	1235
2.97533	1088
2.97900	964
2.98267	859
2.98633	765
2.99000	682
2.99367	612
2.99733	550
3.00100	495
3.00467	450
3.00833	414
3.01200	382
3.01567	354
3.01933	331
3.02300	310
3.02667	291
3.03033	276
3.03400	264
3.03767	256
3.04133	248
3.04500	244
3.04867	239
3.05233	233
3.05600	227
3.05967	222
3.06333	219
3.06700	216
3.07067	213
3.07433	212
3.07800	211
3.08167	211
3.08533	211
3.08900	213
3.09267	215
3.09633	216
3.10000	216
3.10367	214
3.10733	213
3.11100	214
3.11467	217
3.11833	217
3.12200	217
3.12567	218
3.12933	220
3.13300	220
3.13667	220
3.14033	222
3.14400	226
3.14767	226
3.15133	227
3.15500	226
3.15867	225
3.16233	224
3.16600	224
3.16967	225
3.17333	228
3.17700	228
3.18067	227
3.18433	226
3.18800	225
3.19167	224
3.19533	224
3.19900	225
3.20267	228
3.20633	230
3.21000	232
3.21367	231
3.21733	229
3.22100	229
3.22467	227
3.22833	224
3.23200	224
3.23567	224
3.23933	223
3.24300	222
3.24667	223
3.25033	225
3.25400	226
3.25767	224
3.26133	222
3.26500	221
3.26867	220
3.27233	220
3.27600	221
3.27967	222
3.28333	220
3.28700	216
3.29067	213
3.29433	211
3.29800	212
3.30167	213
3.30533	212
3.30900	213
3.31267	214
3.31633	213
3.32000	208
3.32367	204
3.32733	200
3.33100	199
3.33467	203
3.33833	206
3.34200	206
3.34567	202
3.34933	198
3.35300	193
3.35667	190
3.36033	189
3.36400	188
3.36767	186
3.37133	183
3.37500	183
3.37867	187
3.38233	189
3.38600	188
3.38967	185
3.39333	181
3.39700	179
3.40067	181
3.40433	181
3.40800	181
3.41167	181
3.41533	180
3.41900	180
3.42267	179
3.42633	177
3.43000	175
3.43367	175
3.43733	173
3.44100	173
3.44467	175
3.44833	175
3.45200	176
3.45567	176
3.45933	173
3.46300	171
3.46667	170
3.47033	171
3.47400	171
3.47767	170
3.48133	170
3.48500	170
3.48867	171
3.49233	172
3.49600	172
3.49967	176
3.50333	185
3.50700	198
3.51067	215
3.51433	232
3.51800	252
3.52167	275
3.52533	303
3.52900	331
3.53267	359
3.53633	391
3.54000	420
3.54367	450
3.54733	477
3.55100	502
3.55467	525
3.55833	542
3.56200	557
3.56567	572
3.56933	585
3.57300	595
3.57667	602
3.58033	607
3.58400	612
3.58767	619
3.59133	625
3.59500	629
3.59867	631
3.60233	633
3.60600	636
3.60967	638
3.61333	639
3.61700	637
3.62067	636
3.62433	637
3.62800	638
3.63167	640
3.63533	642
3.63900	643
3.64267	643
3.64633	642
3.65000	640
3.65367	641
3.65733	641
3.66100	641
3.66467	639
3.66833	638
3.67200	640
3.67567	643
3.67933	644
3.68300	644
3.68667	646
3.69033	648
3.69400	646
3.69767	644
3.70133	646
3.70500	644
3.70867	641
3.71233	640
3.71600	639
3.71967	639
3.72333	641
3.72700	644
3.73067	644
3.73433	645
3.73800	645
3.74167	645
3.74533	644
3.74900	643
3.75267	642
3.75633	640
3.76000	639
3.76367	639
3.76733	639
3.77100	637
3.77467	636
3.77833	636
3.78200	634
3.78567	635
3.78933	637
3.79300	637
3.79667	634
3.80033	634
3.80400	632
3.80767	629
3.81133	624
3.81500	621
3.81867	621
3.82233	621
3.82600	622
3.82967	622
3.83333	620
3.83700	619
3.84067	618
3.84433	617
3.84800	616
3.85167	615
3.85533	616
3.85900	616
3.86267	617
3.86633	619
3.87000	619
3.87367	618
3.87733	614
3.88100	613
3.88467	613
3.88833	614
3.89200	614
3.89567	615
3.89933	617
3.90300	618
3.90667	619
3.91033	621
3.91400	620
3.91767	617
3.92133	612
3.92500	609
3.92867	609
3.93233	606
3.93600	602
3.93967	600
3.94333	599
3.94700	595
3.95067	591
3.95433	589
3.95800	587
3.96167	586
3.96533	588
3.96900	589
3.97267	587
3.97633	585
3.98000	584
3.98367	583
3.98733	581
3.99100	577
3.99467	574
3.99833	571

[Status Trace (Column Oven Temperature)]
Interval(msec)	1000
# of Points	240
Start Time(min)	0.012
End Time(min)	3.995
Intensity Units	
Intensity Multiplier	1
R.Time (min)	Intensity
0.01153	35.05
0.02820	35.04
0.04487	35.03
0.06153	35.03
0.07820	35.03
0.09487	35.02
0.11153	35.03
0.12820	35.03
0.14487	35.04
0.16153	35.03
0.17820	35.02
0.19487	35.02
0.21153	35.01
0.22820	35.01
0.24487	35.01
0.26153	35.00
0.27820	34.99
0.29487	34.98
0.31153	34.98
0.32820	34.99
0.34487	34.99
0.36153	35.00
0.37820	35.01
0.39487	35.00
0.41153	35.01
0.42820	35.02
0.44487	35.03
0.46153	35.05
0.47820	35.06
0.49487	35.08
0.51153	35.09
0.52820	35.08
0.54487	35.07
0.56153	35.06
0.57820	35.05
0.59487	35.04
0.61153	35.04
0.62820	35.03
0.64487	35.03
0.66153	35.02
0.67820	35.01
0.69487	34.99
0.71153	34.99
0.72820	34.98
0.74487	34.99
0.76153	35.00
0.77820	35.01
0.79487	35.01
0.81153	34.99
0.82820	34.98
0.84487	34.97
0.86153	34.97
0.87820	34.96
0.89487	34.96
0.91153	34.97
0.92820	34.97
0.94487	34.98
0.96153	34.99
0.97820	35.00
0.99487	35.00
1.01153	34.99
1.02820	34.99
1.04487	34.99
1.06153	35.00
1.07820	34.99
1.09487	34.98
1.11153	34.98
1.12820	34.98
1.14487	34.99
1.16153	34.98
1.17820	34.98
1.19487	34.98
1.21153	34.97
1.22820	34.97
1.24487	34.96
1.26153	34.96
1.27820	34.96
1.29487	34.96
1.31153	34.96
1.32820	34.97
1.34487	34.97
1.36153	34.98
1.37820	34.99
1.39487	34.99
1.41153	34.98
1.42820	34.98
1.44487	34.98
1.46153	34.99
1.47820	35.00
1.49487	34.99
1.51153	34.99
1.52820	34.99
1.54487	35.00
1.56153	34.99
1.57820	34.97
1.59487	34.99
1.61153	35.05
1.62820	35.18
1.64487	35.37
1.66153	35.66
1.67820	36.02
1.69487	36.37
1.71153	36.71
1.72820	37.05
1.74487	37.39
1.76153	37.72
1.77820	38.05
1.79487	38.37
1.81153	38.72
1.82820	39.05
1.84487	39.38
1.86153	39.71
1.87820	40.04
1.89487	40.36
1.91153	40.70
1.92820	41.03
1.94487	41.35
1.96153	41.67
1.97820	42.01
1.99487	42.33
2.01153	42.66
2.02820	42.99
2.04487	43.31
2.06153	43.63
2.07820	43.98
2.09487	44.32
2.11153	44.62
2.12820	44.96
2.14487	45.29
2.16153	45.61
2.17820	45.93
2.19487	46.25
2.21153	46.57
2.22820	46.91
2.24487	47.23
2.26153	47.56
2.27820	47.89
2.29487	48.21
2.31153	48.53
2.32820	48.89
2.34487	49.21
2.36153	49.47
2.37820	49.59
2.39487	49.62
2.41153	49.61
2.42820	49.63
2.44487	49.64
2.46153	49.64
2.47820	49.66
2.49487	49.67
2.51153	49.70
2.52820	49.72
2.54487	49.73
2.56153	49.75
2.57820	49.75
2.59487	49.78
2.61153	49.81
2.62820	49.81
2.64487	49.82
2.66153	49.84
2.67820	49.86
2.69487	49.86
2.71153	49.84
2.72820	49.83
2.74487	49.86
2.76153	49.87
2.77820	49.86
2.79487	49.87
2.81153	49.87
2.82820	49.87
2.84487	49.87
2.86153	49.90
2.87820	49.90
2.89487	49.91
2.91153	49.92
2.92820	49.94
2.94487	49.94
2.96153	49.96
2.97820	49.97
2.99487	49.98
3.01153	49.99
3.02820	50.00
3.04487	50.02
3.06153	50.02
3.07820	50.03
3.09487	50.05
3.11153	50.06
3.12820	50.05
3.14487	50.06
3.16153	50.07
3.17820	50.07
3.19487	50.08
3.21153	50.09
3.22820	50.10
3.24487	50.11
3.26153	50.12
3.27820	50.11
3.29487	50.09
3.31153	50.07
3.32820	50.06
3.34487	50.05
3.36153	50.04
3.37820	50.03
3.39487	50.03
3.41153	50.03
3.42820	50.02
3.44487	50.02
3.46153	50.02
3.47820	50.02
3.49487	50.03
3.51153	50.02
3.52820	50.02
3.54487	50.02
3.56153	50.03
3.57820	50.04
3.59487	50.05
3.61153	50.06
3.62820	50.07
3.64487	50.07
3.66153	50.07
3.67820	50.07
3.69487	50.06
3.71153	50.06
3.72820	50.05
3.74487	50.05
3.76153	50.06
3.77820	50.07
3.79487	50.08
3.81153	50.07
3.82820	50.08
3.84487	50.07
3.86153	50.07
3.87820	50.08
3.89487	50.09
3.91153	50.10
3.92820	50.09
3.94487	50.09
3.96153	50.08
3.97820	50.08
3.99487	50.08

[Status Trace (Injection Unit Temperature)]
Interval(msec)	1000
# of Points	240
Start Time(min)	0.012
End Time(min)	3.995
Intensity Units	
Intensity Multiplier	1
R.Time (min)	Intensity
0.01153	99.98
0.02820	99.97
0.04487	99.97
0.06153	99.98
0.07820	99.98
0.09487	99.98
0.11153	99.97
0.12820	99.98
0.14487	99.98
0.16153	99.98
0.17820	99.97
0.19487	99.98
0.21153	99.97
0.22820	99.97
0.24487	99.98
0.26153	99.98
0.27820	99.97
0.29487	99.98
0.31153	99.98
0.32820	99.97
0.34487	99.98
0.36153	99.98
0.37820	99.98
0.39487	99.98
0.41153	99.98
0.42820	99.98
0.44487	99.98
0.46153	99.98
0.47820	99.98
0.49487	99.98
0.51153	99.97
0.52820	99.98
0.54487	99.98
0.56153	99.98
0.57820	99.98
0.59487	99.98
0.61153	99.98
0.62820	99.98
0.64487	99.98
0.66153	99.98
0.67820	99.98
0.69487	99.98
0.71153	99.99
0.72820	99.98
0.74487	99.99
0.76153	99.98
0.77820	99.98
0.79487	99.99
0.81153	99.98
0.82820	99.98
0.84487	99.98
0.86153	99.98
0.87820	99.98
0.89487	99.98
0.91153	99.98
0.92820	99.98
0.94487	99.98
0.96153	99.98
0.97820	99.98
0.99487	99.98
1.01153	99.98
1.02820	99.98
1.04487	99.98
1.06153	99.98
1.07820	99.98
1.09487	99.98
1.11153	99.98
1.12820	99.98
1.14487	99.98
1.16153	99.98
1.17820	99.98
1.19487	99.98
1.21153	99.98
1.22820	99.98
1.24487	99.98
1.26153	99.98
1.27820	99.98
1.29487	99.98
1.31153	99.98
1.32820	99.98
1.34487	99.98
1.36153	99.98
1.37820	99.98
1.39487	99.98
1.41153	99.98
1.42820	99.98
1.44487	99.98
1.46153	99.98
1.47820	99.98
1.49487	99.98
1.51153	99.98
1.52820	99.98
1.54487	99.98
1.56153	99.98
1.57820	99.98
1.59487	99.98
1.61153	99.98
1.62820	99.98
1.64487	99.98
1.66153	99.98
1.67820	99.98
1.69487	99.98
1.71153	99.98
1.72820	99.98
1.74487	99.98
1.76153	99.98
1.77820	99.98
1.79487	99.98
1.81153	99.98
1.82820	99.98
1.84487	99.98
1.86153	99.98
1.87820	99.98
1.89487	99.98
1.91153	99.98
1.92820	99.98
1.94487	99.98
1.96153	99.97
1.97820	99.97
1.99487	99.98
2.01153	99.97
2.02820	99.98
2.04487	99.97
2.06153	99.97
2.07820	99.97
2.09487	99.98
2.11153	99.97
2.12820	99.97
2.14487	99.97
2.16153	99.97
2.17820	99.97
2.19487	99.97
2.21153	99.97
2.22820	99.97
2.24487	99.97
2.26153	99.97
2.27820	99.97
2.29487	99.97
2.31153	99.96
2.32820	99.96
2.34487	99.97
2.36153	99.97
2.37820	99.96
2.39487	99.97
2.41153	99.96
2.42820	99.97
2.44487	99.97
2.46153	99.97
2.47820	99.96
2.49487	99.97
2.51153	99.97
2.52820	99.97
2.54487	99.97
2.56153	99.97
2.57820	99.97
2.59487	99.97
2.61153	99.97
2.62820	99.97
2.64487	99.98
2.66153	99.98
2.67820	99.97
2.69487	99.98
2.71153	99.98
2.72820	99.98
2.74487	99.98
2.76153	99.98
2.77820	99.98
2.79487	99.98
2.81153	99.98
2.82820	99.99
2.84487	99.99
2.86153	99.99
2.87820	99.99
2.89487	99.99
2.91153	99.99
2.92820	100.00
2.94487	100.00
2.96153	99.99
2.97820	100.00
2.99487	100.00
3.01153	100.00
3.02820	100.00
3.04487	100.00
3.06153	100.00
3.07820	100.01
3.09487	100.01
3.11153	100.01
3.12820	100.01
3.14487	100.01
3.16153	100.01
3.17820	100.01
3.19487	100.01
3.21153	100.01
3.22820	100.01
3.24487	100.02
3.26153	100.01
3.27820	100.02
3.29487	100.02
3.31153	100.02
3.32820	100.02
3.34487	100.02
3.36153	100.02
3.37820	100.02
3.39487	100.02
3.41153	100.03
3.42820	100.02
3.44487	100.03
3.46153	100.03
3.47820	100.03
3.49487	100.03
3.51153	100.03
3.52820	100.03
3.54487	100.03
3.56153	100.03
3.57820	100.03
3.59487	100.03
3.61153	100.03
3.62820	100.03
3.64487	100.04
3.66153	100.04
3.67820	100.04
3.69487	100.04
3.71153	100.04
3.72820	100.04
3.74487	100.04
3.76153	100.04
3.77820	100.04
3.79487	100.04
3.81153	100.05
3.82820	100.04
3.84487	100.04
3.86153	100.04
3.87820	100.04
3.89487	100.05
3.91153	100.05
3.92820	100.05
3.94487	100.05
3.96153	100.05
3.97820	100.05
3.99487	100.05

[Status Trace (Carrier Gas Pressure)]
Interval(msec)	1000
# of Points	240
Start Time(min)	0.012
End Time(min)	3.995
Intensity Units	
Intensity Multiplier	1
R.Time (min)	Intensity
0.01153	58.00
0.02820	55.02
0.04487	57.68
0.06153	59.76
0.07820	58.85
0.09487	57.99
0.11153	58.00
0.12820	58.01
0.14487	58.01
0.16153	58.00
0.17820	58.00
0.19487	58.00
0.21153	58.00
0.22820	58.00
0.24487	58.00
0.26153	58.00
0.27820	58.00
0.29487	58.00
0.31153	58.00
0.32820	58.00
0.34487	58.00
0.36153	58.00
0.37820	58.00
0.39487	58.00
0.41153	58.00
0.42820	58.00
0.44487	58.00
0.46153	58.00
0.47820	58.00
0.49487	58.00
0.51153	58.00
0.52820	58.00
0.54487	58.00
0.56153	58.00
0.57820	58.00
0.59487	58.00
0.61153	58.00
0.62820	58.00
0.64487	58.00
0.66153	58.00
0.67820	58.00
0.69487	58.00
0.71153	58.00
0.72820	58.00
0.74487	58.00
0.76153	58.00
0.77820	58.00
0.79487	58.00
0.81153	58.00
0.82820	58.00
0.84487	58.00
0.86153	58.00
0.87820	58.00
0.89487	58.00
0.91153	58.00
0.92820	58.00
0.94487	58.00
0.96153	58.00
0.97820	58.00
0.99487	58.00
1.01153	58.00
1.02820	58.00
1.04487	58.00
1.06153	58.00
1.07820	58.00
1.09487	58.00
1.11153	58.00
1.12820	58.00
1.14487	58.00
1.16153	58.00
1.17820	58.00
1.19487	58.00
1.21153	58.00
1.22820	58.00
1.24487	58.00
1.26153	58.00
1.27820	58.00
1.29487	58.00
1.31153	58.00
1.32820	58.00
1.34487	58.00
1.36153	58.00
1.37820	58.00
1.39487	58.00
1.41153	58.00
1.42820	58.00
1.44487	58.00
1.46153	58.00
1.47820	58.00
1.49487	58.00
1.51153	58.00
1.52820	58.00
1.54487	58.00
1.56153	58.00
1.57820	58.00
1.59487	58.00
1.61153	58.00
1.62820	58.00
1.64487	58.01
1.66153	58.01
1.67820	58.01
1.69487	58.00
1.71153	58.00
1.72820	58.00
1.74487	58.00
1.76153	58.00
1.77820	58.00
1.79487	58.00
1.81153	58.00
1.82820	58.00
1.84487	58.00
1.86153	58.00
1.87820	58.00
1.89487	58.00
1.91153	58.00
1.92820	58.00
1.94487	58.00
1.96153	58.00
1.97820	58.00
1.99487	58.00
2.01153	58.00
2.02820	58.00
2.04487	58.00
2.06153	58.00
2.07820	58.00
2.09487	58.00
2.11153	58.00
2.12820	58.00
2.14487	58.00
2.16153	58.00
2.17820	58.00
2.19487	58.00
2.21153	58.00
2.22820	58.00
2.24487	58.00
2.26153	58.00
2.27820	58.00
2.29487	58.00
2.31153	58.00
2.32820	58.00
2.34487	58.00
2.36153	58.00
2.37820	57.99
2.39487	57.99
2.41153	57.99
2.42820	58.00
2.44487	58.00
2.46153	58.00
2.47820	58.00
2.49487	58.00
2.51153	57.99
2.52820	57.98
2.54487	58.00
2.56153	58.00
2.57820	58.00
2.59487	58.00
2.61153	58.00
2.62820	58.00
2.64487	58.00
2.66153	58.00
2.67820	58.00
2.69487	58.00
2.71153	58.00
2.72820	58.00
2.74487	58.00
2.76153	58.00
2.77820	58.00
2.79487	58.00
2.81153	58.00
2.82820	58.00
2.84487	58.00
2.86153	58.00
2.87820	58.00
2.89487	58.00
2.91153	58.00
2.92820	58.00
2.94487	58.00
2.96153	58.00
2.97820	58.00
2.99487	58.00
3.01153	58.00
3.02820	58.00
3.04487	58.00
3.06153	58.00
3.07820	58.00
3.09487	58.00
3.11153	58.00
3.12820	58.00
3.14487	58.00
3.16153	58.00
3.17820	58.00
3.19487	58.00
3.21153	58.00
3.22820	58.00
3.24487	58.00
3.26153	58.00
3.27820	58.00
3.29487	58.00
3.31153	58.00
3.32820	58.00
3.34487	58.00
3.36153	58.00
3.37820	58.00
3.39487	58.00
3.41153	58.00
3.42820	58.00
3.44487	58.00
3.46153	58.00
3.47820	58.00
3.49487	58.00
3.51153	58.00
3.52820	58.00
3.54487	58.00
3.56153	58.00
3.57820	58.00
3.59487	58.00
3.61153	58.00
3.62820	58.00
3.64487	58.00
3.66153	58.00
3.67820	58.00
3.69487	58.00
3.71153	58.00
3.72820	58.00
3.74487	58.00
3.76153	58.00
3.77820	58.00
3.79487	58.00
3.81153	58.00
3.82820	58.00
3.84487	58.00
3.86153	58.00
3.87820	58.00
3.89487	58.00
3.91153	58.00
3.92820	58.00
3.94487	58.00
3.96153	58.00
3.97820	58.00
3.99487	58.00

[Status Trace (Carrier Gas Flow)]
Interval(msec)	1000
# of Points	240
Start Time(min)	0.012
End Time(min)	3.995
Intensity Units	
Intensity Multiplier	1
R.Time (min)	Intensity
0.01153	34.53
0.02820	34.54
0.04487	34.55
0.06153	34.53
0.07820	34.50
0.09487	34.52
0.11153	34.52
0.12820	34.52
0.14487	34.52
0.16153	34.52
0.17820	34.53
0.19487	34.52
0.21153	34.51
0.22820	34.52
0.24487	34.52
0.26153	34.52
0.27820	34.52
0.29487	34.52
0.31153	34.52
0.32820	34.52
0.34487	34.52
0.36153	34.52
0.37820	34.52
0.39487	34.52
0.41153	34.52
0.42820	34.53
0.44487	34.52
0.46153	34.52
0.47820	34.52
0.49487	34.52
0.51153	34.52
0.52820	34.52
0.54487	34.52
0.56153	34.52
0.57820	34.52
0.59487	34.51
0.61153	34.52
0.62820	34.52
0.64487	34.51
0.66153	34.52
0.67820	34.52
0.69487	34.52
0.71153	34.52
0.72820	34.52
0.74487	34.52
0.76153	34.52
0.77820	34.52
0.79487	34.52
0.81153	34.52
0.82820	34.52
0.84487	34.52
0.86153	34.52
0.87820	34.52
0.89487	34.52
0.91153	34.52
0.92820	34.52
0.94487	34.52
0.96153	34.52
0.97820	34.52
0.99487	34.52
1.01153	34.52
1.02820	34.52
1.04487	34.52
1.06153	34.52
1.07820	34.52
1.09487	34.51
1.11153	34.52
1.12820	34.52
1.14487	34.52
1.16153	34.52
1.17820	34.52
1.19487	34.52
1.21153	34.52
1.22820	34.51
1.24487	34.52
1.26153	34.52
1.27820	34.52
1.29487	34.52
1.31153	34.52
1.32820	34.52
1.34487	34.52
1.36153	34.52
1.37820	34.52
1.39487	34.52
1.41153	34.51
1.42820	34.52
1.44487	34.52
1.46153	34.53
1.47820	34.52
1.49487	34.52
1.51153	34.52
1.52820	34.52
1.54487	34.52
1.56153	34.52
1.57820	34.52
1.59487	34.51
1.61153	34.52
1.62820	34.52
1.64487	34.53
1.66153	34.52
1.67820	34.52
1.69487	34.52
1.71153	34.52
1.72820	34.52
1.74487	34.52
1.76153	34.52
1.77820	34.52
1.79487	34.52
1.81153	34.52
1.82820	34.52
1.84487	34.52
1.86153	34.52
1.87820	34.52
1.89487	34.52
1.91153	34.53
1.92820	34.52
1.94487	34.52
1.96153	34.52
1.97820	34.51
1.99487	34.52
2.01153	34.52
2.02820	34.52
2.04487	34.52
2.06153	34.51
2.07820	34.52
2.09487	34.53
2.11153	34.52
2.12820	34.52
2.14487	34.52
2.16153	34.52
2.17820	34.51
2.19487	34.52
2.21153	34.52
2.22820	34.52
2.24487	34.51
2.26153	34.51
2.27820	34.52
2.29487	34.52
2.31153	34.52
2.32820	34.52
2.34487	34.52
2.36153	34.52
2.37820	34.52
2.39487	34.52
2.41153	34.52
2.42820	34.52
2.44487	34.52
2.46153	34.52
2.47820	34.52
2.49487	34.52
2.51153	34.51
2.52820	34.52
2.54487	34.52
2.56153	34.51
2.57820	34.52
2.59487	34.52
2.61153	34.52
2.62820	34.52
2.64487	34.52
2.66153	34.52
2.67820	34.52
2.69487	34.52
2.71153	34.52
2.72820	34.52
2.74487	34.52
2.76153	34.52
2.77820	34.52
2.79487	34.52
2.81153	34.52
2.82820	34.52
2.84487	34.52
2.86153	34.52
2.87820	34.52
2.89487	34.52
2.91153	34.52
2.92820	34.52
2.94487	34.51
2.96153	34.52
2.97820	34.53
2.99487	34.52
3.01153	34.52
3.02820	34.52
3.04487	34.52
3.06153	34.52
3.07820	34.52
3.09487	34.51
3.11153	34.52
3.12820	34.52
3.14487	34.51
3.16153	34.51
3.17820	34.52
3.19487	34.51
3.21153	34.52
3.22820	34.52
3.24487	34.52
3.26153	34.51
3.27820	34.52
3.29487	34.52
3.31153	34.52
3.32820	34.52
3.34487	34.51
3.36153	34.52
3.37820	34.52
3.39487	34.52
3.41153	34.52
3.42820	34.52
3.44487	34.52
3.46153	34.52
3.47820	34.52
3.49487	34.53
3.51153	34.52
3.52820	34.52
3.54487	34.52
3.56153	34.53
3.57820	34.52
3.59487	34.52
3.61153	34.52
3.62820	34.52
3.64487	34.52
3.66153	34.52
3.67820	34.52
3.69487	34.52
3.71153	34.52
3.72820	34.52
3.74487	34.52
3.76153	34.52
3.77820	34.52
3.79487	34.52
3.81153	34.52
3.82820	34.52
3.84487	34.52
3.86153	34.51
3.87820	34.52
3.89487	34.52
3.91153	34.52
3.92820	34.52
3.94487	34.52
3.96153	34.52
3.97820	34.52
3.99487	34.53

[Status Trace (Column Flow)]
Interval(msec)	1000
# of Points	240
Start Time(min)	0.012
End Time(min)	3.995
Intensity Units	
Intensity Multiplier	1
R.Time (min)	Intensity
0.01153	5.52
0.02820	5.17
0.04487	5.48
0.06153	5.72
0.07820	5.62
0.09487	5.52
0.11153	5.52
0.12820	5.52
0.14487	5.52
0.16153	5.52
0.17820	5.52
0.19487	5.52
0.21153	5.52
0.22820	5.52
0.24487	5.52
0.26153	5.52
0.27820	5.52
0.29487	5.52
0.31153	5.52
0.32820	5.52
0.34487	5.52
0.36153	5.52
0.37820	5.52
0.39487	5.52
0.41153	5.52
0.42820	5.52
0.44487	5.52
0.46153	5.52
0.47820	5.52
0.49487	5.52
0.51153	5.52
0.52820	5.52
0.54487	5.52
0.56153	5.52
0.57820	5.52
0.59487	5.52
0.61153	5.52
0.62820	5.52
0.64487	5.52
0.66153	5.52
0.67820	5.52
0.69487	5.52
0.71153	5.52
0.72820	5.52
0.74487	5.52
0.76153	5.52
0.77820	5.52
0.79487	5.52
0.81153	5.52
0.82820	5.52
0.84487	5.52
0.86153	5.52
0.87820	5.52
0.89487	5.52
0.91153	5.52
0.92820	5.52
0.94487	5.52
0.96153	5.52
0.97820	5.52
0.99487	5.52
1.01153	5.52
1.02820	5.52
1.04487	5.52
1.06153	5.52
1.07820	5.52
1.09487	5.52
1.11153	5.52
1.12820	5.52
1.14487	5.52
1.16153	5.52
1.17820	5.52
1.19487	5.52
1.21153	5.52
1.22820	5.52
1.24487	5.52
1.26153	5.52
1.27820	5.52
1.29487	5.52
1.31153	5.52
1.32820	5.52
1.34487	5.52
1.36153	5.52
1.37820	5.52
1.39487	5.52
1.41153	5.52
1.42820	5.52
1.44487	5.52
1.46153	5.52
1.47820	5.52
1.49487	5.52
1.51153	5.52
1.52820	5.52
1.54487	5.52
1.56153	5.52
1.57820	5.52
1.59487	5.52
1.61153	5.52
1.62820	5.51
1.64487	5.51
1.66153	5.50
1.67820	5.49
1.69487	5.48
1.71153	5.47
1.72820	5.46
1.74487	5.44
1.76153	5.43
1.77820	5.42
1.79487	5.41
1.81153	5.40
1.82820	5.39
1.84487	5.38
1.86153	5.37
1.87820	5.36
1.89487	5.35
1.91153	5.34
1.92820	5.33
1.94487	5.32
1.96153	5.31
1.97820	5.31
1.99487	5.30
2.01153	5.29
2.02820	5.28
2.04487	5.27
2.06153	5.26
2.07820	5.25
2.09487	5.24
2.11153	5.23
2.12820	5.22
2.14487	5.21
2.16153	5.20
2.17820	5.19
2.19487	5.18
2.21153	5.17
2.22820	5.16
2.24487	5.15
2.26153	5.14
2.27820	5.14
2.29487	5.13
2.31153	5.12
2.32820	5.11
2.34487	5.10
2.36153	5.09
2.37820	5.09
2.39487	5.09
2.41153	5.09
2.42820	5.09
2.44487	5.09
2.46153	5.09
2.47820	5.09
2.49487	5.09
2.51153	5.08
2.52820	5.08
2.54487	5.08
2.56153	5.08
2.57820	5.08
2.59487	5.08
2.61153	5.08
2.62820	5.08
2.64487	5.08
2.66153	5.08
2.67820	5.08
2.69487	5.08
2.71153	5.08
2.72820	5.08
2.74487	5.08
2.76153	5.08
2.77820	5.08
2.79487	5.08
2.81153	5.08
2.82820	5.08
2.84487	5.08
2.86153	5.08
2.87820	5.08
2.89487	5.08
2.91153	5.08
2.92820	5.08
2.94487	5.08
2.96153	5.08
2.97820	5.08
2.99487	5.08
3.01153	5.08
3.02820	5.08
3.04487	5.08
3.06153	5.08
3.07820	5.08
3.09487	5.08
3.11153	5.07
3.12820	5.07
3.14487	5.07
3.16153	5.07
3.17820	5.07
3.19487	5.07
3.21153	5.07
3.22820	5.07
3.24487	5.07
3.26153	5.07
3.27820	5.07
3.29487	5.07
3.31153	5.07
3.32820	5.07
3.34487	5.07
3.36153	5.08
3.37820	5.08
3.39487	5.08
3.41153	5.08
3.42820	5.08
3.44487	5.08
3.46153	5.08
3.47820	5.08
3.49487	5.08
3.51153	5.08
3.52820	5.08
3.54487	5.08
3.56153	5.08
3.57820	5.08
3.59487	5.07
3.61153	5.07
3.62820	5.07
3.64487	5.07
3.66153	5.07
3.67820	5.07
3.69487	5.07
3.71153	5.07
3.72820	5.07
3.74487	5.07
3.76153	5.07
3.77820	5.07
3.79487	5.07
3.81153	5.07
3.82820	5.07
3.84487	5.07
3.86153	5.07
3.87820	5.07
3.89487	5.07
3.91153	5.07
3.92820	5.07
3.94487	5.07
3.96153	5.07
3.97820	5.07
3.99487	5.07

[Status Trace (Linear Velocity)]
Interval(msec)	1000
# of Points	240
Start Time(min)	0.012
End Time(min)	3.995
Intensity Units	
Intensity Multiplier	1
R.Time (min)	Intensity
0.01153	39.01
0.02820	37.06
0.04487	38.81
0.06153	40.16
0.07820	39.57
0.09487	39.01
0.11153	39.01
0.12820	39.02
0.14487	39.02
0.16153	39.02
0.17820	39.02
0.19487	39.02
0.21153	39.02
0.22820	39.02
0.24487	39.02
0.26153	39.02
0.27820	39.02
0.29487	39.02
0.31153	39.02
0.32820	39.02
0.34487	39.02
0.36153	39.02
0.37820	39.02
0.39487	39.02
0.41153	39.02
0.42820	39.01
0.44487	39.01
0.46153	39.01
0.47820	39.01
0.49487	39.01
0.51153	39.01
0.52820	39.01
0.54487	39.01
0.56153	39.01
0.57820	39.01
0.59487	39.01
0.61153	39.01
0.62820	39.01
0.64487	39.01
0.66153	39.01
0.67820	39.01
0.69487	39.02
0.71153	39.02
0.72820	39.02
0.74487	39.02
0.76153	39.02
0.77820	39.02
0.79487	39.02
0.81153	39.02
0.82820	39.02
0.84487	39.02
0.86153	39.02
0.87820	39.02
0.89487	39.02
0.91153	39.02
0.92820	39.02
0.94487	39.02
0.96153	39.02
0.97820	39.02
0.99487	39.02
1.01153	39.02
1.02820	39.02
1.04487	39.02
1.06153	39.02
1.07820	39.02
1.09487	39.02
1.11153	39.02
1.12820	39.02
1.14487	39.02
1.16153	39.02
1.17820	39.02
1.19487	39.02
1.21153	39.02
1.22820	39.02
1.24487	39.02
1.26153	39.02
1.27820	39.02
1.29487	39.02
1.31153	39.02
1.32820	39.02
1.34487	39.02
1.36153	39.02
1.37820	39.02
1.39487	39.02
1.41153	39.02
1.42820	39.02
1.44487	39.02
1.46153	39.02
1.47820	39.02
1.49487	39.02
1.51153	39.02
1.52820	39.02
1.54487	39.02
1.56153	39.02
1.57820	39.02
1.59487	39.02
1.61153	39.01
1.62820	39.00
1.64487	38.98
1.66153	38.96
1.67820	38.92
1.69487	38.88
1.71153	38.85
1.72820	38.82
1.74487	38.79
1.76153	38.76
1.77820	38.73
1.79487	38.69
1.81153	38.66
1.82820	38.63
1.84487	38.60
1.86153	38.57
1.87820	38.54
1.89487	38.51
1.91153	38.48
1.92820	38.45
1.94487	38.42
1.96153	38.39
1.97820	38.36
1.99487	38.32
2.01153	38.29
2.02820	38.26
2.04487	38.23
2.06153	38.21
2.07820	38.17
2.09487	38.14
2.11153	38.11
2.12820	38.08
2.14487	38.05
2.16153	38.02
2.17820	38.00
2.19487	37.97
2.21153	37.94
2.22820	37.91
2.24487	37.88
2.26153	37.85
2.27820	37.82
2.29487	37.79
2.31153	37.76
2.32820	37.73
2.34487	37.70
2.36153	37.68
2.37820	37.66
2.39487	37.66
2.41153	37.66
2.42820	37.66
2.44487	37.66
2.46153	37.66
2.47820	37.66
2.49487	37.66
2.51153	37.65
2.52820	37.65
2.54487	37.66
2.56153	37.66
2.57820	37.65
2.59487	37.65
2.61153	37.65
2.62820	37.65
2.64487	37.65
2.66153	37.65
2.67820	37.64
2.69487	37.64
2.71153	37.65
2.72820	37.65
2.74487	37.65
2.76153	37.64
2.77820	37.64
2.79487	37.64
2.81153	37.64
2.82820	37.64
2.84487	37.64
2.86153	37.64
2.87820	37.64
2.89487	37.64
2.91153	37.64
2.92820	37.64
2.94487	37.64
2.96153	37.64
2.97820	37.63
2.99487	37.63
3.01153	37.63
3.02820	37.63
3.04487	37.63
3.06153	37.63
3.07820	37.63
3.09487	37.63
3.11153	37.63
3.12820	37.63
3.14487	37.63
3.16153	37.63
3.17820	37.63
3.19487	37.62
3.21153	37.62
3.22820	37.62
3.24487	37.62
3.26153	37.62
3.27820	37.62
3.29487	37.62
3.31153	37.63
3.32820	37.63
3.34487	37.63
3.36153	37.63
3.37820	37.63
3.39487	37.63
3.41153	37.63
3.42820	37.63
3.44487	37.63
3.46153	37.63
3.47820	37.63
3.49487	37.63
3.51153	37.63
3.52820	37.63
3.54487	37.63
3.56153	37.63
3.57820	37.63
3.59487	37.63
3.61153	37.63
3.62820	37.63
3.64487	37.63
3.66153	37.63
3.67820	37.63
3.69487	37.63
3.71153	37.63
3.72820	37.63
3.74487	37.63
3.76153	37.63
3.77820	37.63
3.79487	37.63
3.81153	37.63
3.82820	37.63
3.84487	37.63
3.86153	37.63
3.87820	37.63
3.89487	37.62
3.91153	37.62
3.92820	37.62
3.94487	37.62
3.96153	37.62
3.97820	37.63
3.99487	37.63

