[Header]
Application Name	LabSolutions
Version	5.110
Data File Name	C:\Users\User\Desktop\Junior\UIC Prairie Sampling\3.23.23\032323_013.gcd
Output Date	5/24/2023
Output Time	10:27:36 AM

[File Information]
Type	Data File
Generated	5/23/2023 4:45:48 PM
Generated by	System Administrator
Modified	5/23/2023 4:52:43 PM
Modified by	System Administrator

[Sample Information]
Operator Name	System Administrator
Acquired	5/23/2023 4:48:42 PM
Sample Type	0:Unknown
Level	0
Sample Name	013
Sample ID	013
ISTD Amount1	1
ISTD Amount2	1
ISTD Amount3	1
ISTD Amount4	1
ISTD Amount5	1
ISTD Amount6	1
ISTD Amount7	1
ISTD Amount8	1
ISTD Amount9	1
ISTD Amount10	1
ISTD Amount11	1
ISTD Amount12	1
ISTD Amount13	1
ISTD Amount14	1
ISTD Amount15	1
ISTD Amount16	1
ISTD Amount17	1
ISTD Amount18	1
ISTD Amount19	1
ISTD Amount20	1
ISTD Amount21	1
ISTD Amount22	1
ISTD Amount23	1
ISTD Amount24	1
ISTD Amount25	1
ISTD Amount26	1
ISTD Amount27	1
ISTD Amount28	1
ISTD Amount29	1
ISTD Amount30	1
ISTD Amount31	1
ISTD Amount32	1
Sample Amount	1
Dilution Factor	1
Vial#	12
Injection Volume	1
Injection Count	1
Bar Code	

[Original Files]
Data File	C:\Users\User\Desktop\GC Analyses\Jack\Nachusa Grasslands Sampling\20220924\t2\032323_013.gcd
Method File	C:\LabSolutions\Data\GHG_4min_2022\ghg3_togas_w_acet_4 min_new_int.gcm
Batch File	C:\LabSolutions\Data\AutoSamplerTesting\032323.gcb
Report Format File	c:\LabSolutions\System\DEFAULT.lsr

[File Description]


[Configuration]
Instrument Name	C0B7VH3-Instrument1
Instrument #	1
Line #	1
# of Detectors	3
Detector ID	DET#1	DET#2	DET#3
Detector Name	FID	PTCD	ECD
# of Channels	1	1	1

[Peak Table(Ch1)]
# of Peaks	3
Peak#	R.Time	I.Time	F.Time	Area	Height	A/H	Conc.	Mark	ID#	Name	k'	Plate #	Plate Ht.	Tailing	Resolution	Sep.Factor	Area Ratio	Height Ratio	Conc. %	Norm Conc.
1	1.476	1.421	1.531	8285	3944	2.101	0.000	   	1	CO	0.000	9328	16.081	1.126	0.000	0.000	0	0	0.000	0.000
2	1.567	1.531	1.626	4420	2226	1.986	21.551	 V 	2	CH4	0.062	11472	13.075	1.111	1.532	0.000	0	0	10.355	10.355
3	1.993	1.945	2.345	968126	463181	2.090	186.576	   	3	CO2	0.350	17472	8.585	1.310	7.158	5.640	0	0	89.645	89.645

[Peak Table(Ch2)]
# of Peaks	0

[Peak Table(Ch3)]
# of Peaks	3
Peak#	R.Time	I.Time	F.Time	Area	Height	A/H	Conc.	Mark	ID#	Name	k'	Plate #	Plate Ht.	Tailing	Resolution	Sep.Factor	Area Ratio	Height Ratio	Conc. %	Norm Conc.
1	2.466	2.440	2.565	1025	261	3.922	0.000	   			0.000	14097	10.640	0.000	0.000	0.000	0	0	0.000	0.000
2	2.605	2.565	2.660	327	98	3.347	0.000	 V 			0.057	9501	15.787	0.000	1.467	0.000	0	0	0.000	0.000
3	2.887	2.832	3.925	32946	4277	7.703	0.487	   	1	N2O	0.171	14265	10.516	8.138	2.773	3.026	0	0	100.000	100.000

[Compound Results(Ch1)]
# of IDs	6
ID#	Name	R.Time	Area	Height	Conc.	Curve	3rd	2nd	1st	Constant	Area Ratio	Height Ratio	Conc. %	Norm Conc.
1	CO	1.476	8285	3944	0.000	Linear	0.000000e+00	0.000000e+00	0.000000e+00	0.000000e+00	0	0	0.000	0.000
2	CH4	1.567	4420	2226	21.551	Linear	0.000000e+00	0.000000e+00	2.051179e+002	0.000000e+00	0	0	10.355	10.355
3	CO2	1.993	968126	463181	186.576	Linear	0.000000e+00	0.000000e+00	5.188919e+003	0.000000e+00	0	0	89.645	89.645
4	Ethylene	0.000	0	0	0.000	Linear	0.000000e+00	0.000000e+00	0.000000e+00	0.000000e+00	0	0	0.000	0.000
5	Acetylene	0.000	0	0	0.000	Linear	0.000000e+00	0.000000e+00	0.000000e+00	0.000000e+00	0	0	0.000	0.000
6	Ethane	0.000	0	0	0.000	Linear	0.000000e+00	0.000000e+00	0.000000e+00	0.000000e+00	0	0	0.000	0.000

[Compound Results(Ch2)]
# of IDs	5
ID#	Name	R.Time	Area	Height	Conc.	Curve	3rd	2nd	1st	Constant	Area Ratio	Height Ratio	Conc. %	Norm Conc.
1	Hydrogen	0.000	0	0	0.000	Linear	0.000000e+00	0.000000e+00	0.000000e+00	0.000000e+00	0	0	0.000	0.000
2	Oxygen	0.000	0	0	0.000	Linear	0.000000e+00	0.000000e+00	0.000000e+00	0.000000e+00	0	0	0.000	0.000
3	Nitrogen	0.000	0	0	0.000	Linear	0.000000e+00	0.000000e+00	0.000000e+00	0.000000e+00	0	0	0.000	0.000
4	Methane	0.000	0	0	0.000	Linear	0.000000e+00	0.000000e+00	0.000000e+00	0.000000e+00	0	0	0.000	0.000
5	Carbon Monoxide	0.000	0	0	0.000	Linear	0.000000e+00	0.000000e+00	0.000000e+00	0.000000e+00	0	0	0.000	0.000

[Compound Results(Ch3)]
# of IDs	2
ID#	Name	R.Time	Area	Height	Conc.	Curve	3rd	2nd	1st	Constant	Area Ratio	Height Ratio	Conc. %	Norm Conc.
1	N2O	2.887	32946	4277	0.487	Linear	0.000000e+00	0.000000e+00	6.759880e+004	0.000000e+00	0	0	100.000	100.000
2	SF6	0.000	0	0	0.000	Linear	0.000000e+00	0.000000e+00	0.000000e+00	0.000000e+00	0	0	0.000	0.000

[Group Results(Ch1)]
# of Groups	0

[Group Results(Ch2)]
# of Groups	0

[Group Results(Ch3)]
# of Groups	0

[Chromatogram (Ch1)]
Interval(msec)	220
# of Points	1091
Start Time(min)	0.002
End Time(min)	3.998
R.Time (min)	Intensity
0.00167	13
0.00533	13
0.00900	8
0.01267	6
0.01633	9
0.02000	11
0.02367	12
0.02733	14
0.03100	15
0.03467	16
0.03833	16
0.04200	13
0.04567	14
0.04933	15
0.05300	13
0.05667	12
0.06033	14
0.06400	18
0.06767	22
0.07133	18
0.07500	11
0.07867	6
0.08233	3
0.08600	1
0.08967	2
0.09333	4
0.09700	6
0.10067	10
0.10433	11
0.10800	8
0.11167	3
0.11533	1
0.11900	2
0.12267	4
0.12633	4
0.13000	2
0.13367	0
0.13733	3
0.14100	5
0.14467	5
0.14833	7
0.15200	12
0.15567	16
0.15933	18
0.16300	20
0.16667	19
0.17033	19
0.17400	18
0.17767	16
0.18133	14
0.18500	12
0.18867	15
0.19233	16
0.19600	16
0.19967	14
0.20333	9
0.20700	8
0.21067	8
0.21433	10
0.21800	13
0.22167	16
0.22533	15
0.22900	16
0.23267	18
0.23633	20
0.24000	22
0.24367	22
0.24733	21
0.25100	16
0.25467	9
0.25833	7
0.26200	9
0.26567	9
0.26933	4
0.27300	-1
0.27667	0
0.28033	9
0.28400	19
0.28767	22
0.29133	19
0.29500	17
0.29867	17
0.30233	20
0.30600	21
0.30967	19
0.31333	18
0.31700	17
0.32067	18
0.32433	21
0.32800	24
0.33167	28
0.33533	30
0.33900	28
0.34267	24
0.34633	25
0.35000	27
0.35367	26
0.35733	20
0.36100	12
0.36467	3
0.36833	-4
0.37200	-7
0.37567	-7
0.37933	-4
0.38300	2
0.38667	8
0.39033	12
0.39400	12
0.39767	10
0.40133	9
0.40500	17
0.40867	28
0.41233	34
0.41600	37
0.41967	32
0.42333	22
0.42700	13
0.43067	8
0.43433	7
0.43800	6
0.44167	6
0.44533	5
0.44900	2
0.45267	1
0.45633	1
0.46000	2
0.46367	1
0.46733	-1
0.47100	-0
0.47467	2
0.47833	4
0.48200	7
0.48567	11
0.48933	16
0.49300	18
0.49667	16
0.50033	14
0.50400	13
0.50767	13
0.51133	12
0.51500	12
0.51867	13
0.52233	16
0.52600	21
0.52967	27
0.53333	32
0.53700	32
0.54067	29
0.54433	26
0.54800	22
0.55167	17
0.55533	7
0.55900	-1
0.56267	-5
0.56633	-7
0.57000	-5
0.57367	-4
0.57733	-3
0.58100	-4
0.58467	2
0.58833	10
0.59200	12
0.59567	8
0.59933	3
0.60300	-1
0.60667	-1
0.61033	2
0.61400	7
0.61767	10
0.62133	10
0.62500	7
0.62867	3
0.63233	1
0.63600	2
0.63967	5
0.64333	9
0.64700	9
0.65067	5
0.65433	1
0.65800	3
0.66167	12
0.66533	17
0.66900	17
0.67267	13
0.67633	12
0.68000	14
0.68367	16
0.68733	18
0.69100	20
0.69467	20
0.69833	19
0.70200	15
0.70567	9
0.70933	2
0.71300	-3
0.71667	-5
0.72033	-4
0.72400	-4
0.72767	-4
0.73133	-4
0.73500	-5
0.73867	-5
0.74233	-4
0.74600	-6
0.74967	-11
0.75333	-13
0.75700	-12
0.76067	-8
0.76433	-3
0.76800	3
0.77167	7
0.77533	10
0.77900	16
0.78267	22
0.78633	25
0.79000	25
0.79367	23
0.79733	20
0.80100	19
0.80467	15
0.80833	11
0.81200	7
0.81567	1
0.81933	-6
0.82300	-10
0.82667	-13
0.83033	-13
0.83400	-10
0.83767	-7
0.84133	-7
0.84500	-11
0.84867	-13
0.85233	-13
0.85600	-11
0.85967	-3
0.86333	10
0.86700	17
0.87067	21
0.87433	23
0.87800	20
0.88167	11
0.88533	-1
0.88900	-12
0.89267	-19
0.89633	-22
0.90000	-22
0.90367	-15
0.90733	-5
0.91100	2
0.91467	5
0.91833	6
0.92200	12
0.92567	15
0.92933	14
0.93300	11
0.93667	5
0.94033	0
0.94400	-0
0.94767	1
0.95133	0
0.95500	-2
0.95867	-3
0.96233	-1
0.96600	0
0.96967	1
0.97333	3
0.97700	3
0.98067	1
0.98433	-3
0.98800	-3
0.99167	-1
0.99533	3
0.99900	6
1.00267	8
1.00633	9
1.01000	8
1.01367	5
1.01733	1
1.02100	1
1.02467	0
1.02833	-6
1.03200	-9
1.03567	-9
1.03933	-11
1.04300	-13
1.04667	-11
1.05033	-8
1.05400	-7
1.05767	-8
1.06133	-10
1.06500	-12
1.06867	-13
1.07233	-12
1.07600	-6
1.07967	1
1.08333	4
1.08700	4
1.09067	3
1.09433	-3
1.09800	-10
1.10167	-12
1.10533	-8
1.10900	-3
1.11267	1
1.11633	3
1.12000	2
1.12367	0
1.12733	-1
1.13100	2
1.13467	2
1.13833	-3
1.14200	-7
1.14567	-12
1.14933	-15
1.15300	-15
1.15667	-15
1.16033	-14
1.16400	-12
1.16767	-12
1.17133	-10
1.17500	-11
1.17867	-14
1.18233	-20
1.18600	-25
1.18967	-28
1.19333	-25
1.19700	-16
1.20067	-10
1.20433	-10
1.20800	-10
1.21167	-9
1.21533	-7
1.21900	-5
1.22267	-4
1.22633	-3
1.23000	-2
1.23367	-2
1.23733	-6
1.24100	-10
1.24467	-16
1.24833	-23
1.25200	-33
1.25567	-44
1.25933	-52
1.26300	-53
1.26667	-47
1.27033	-37
1.27400	-26
1.27767	-16
1.28133	-6
1.28500	1
1.28867	2
1.29233	-2
1.29600	-9
1.29967	-16
1.30333	-21
1.30700	-26
1.31067	-27
1.31433	-24
1.31800	-20
1.32167	-20
1.32533	-20
1.32900	-22
1.33267	-24
1.33633	-26
1.34000	-26
1.34367	-25
1.34733	-23
1.35100	-23
1.35467	-26
1.35833	-30
1.36200	-35
1.36567	-39
1.36933	-41
1.37300	-42
1.37667	-42
1.38033	-41
1.38400	-37
1.38767	-29
1.39133	-20
1.39500	-14
1.39867	-13
1.40233	-20
1.40600	-30
1.40967	-45
1.41333	-59
1.41700	-65
1.42067	-62
1.42433	-53
1.42800	-41
1.43167	-30
1.43533	-15
1.43900	13
1.44267	73
1.44633	191
1.45000	476
1.45367	1026
1.45733	1764
1.46100	2514
1.46467	3151
1.46833	3617
1.47200	3875
1.47567	3884
1.47933	3626
1.48300	3144
1.48667	2543
1.49033	1939
1.49400	1408
1.49767	987
1.50133	675
1.50500	451
1.50867	293
1.51233	183
1.51600	107
1.51967	58
1.52333	25
1.52700	-1
1.53067	-22
1.53433	-22
1.53800	31
1.54167	190
1.54533	497
1.54900	912
1.55267	1344
1.55633	1719
1.56000	1999
1.56367	2158
1.56733	2168
1.57100	2009
1.57467	1710
1.57833	1342
1.58200	986
1.58567	685
1.58933	451
1.59300	282
1.59667	163
1.60033	84
1.60400	36
1.60767	7
1.61133	-12
1.61500	-25
1.61867	-32
1.62233	-43
1.62600	-56
1.62967	-63
1.63333	-62
1.63700	-58
1.64067	-53
1.64433	-50
1.64800	-52
1.65167	-58
1.65533	-62
1.65900	-62
1.66267	-59
1.66633	-58
1.67000	-60
1.67367	-63
1.67733	-66
1.68100	-68
1.68467	-68
1.68833	-69
1.69200	-72
1.69567	-74
1.69933	-76
1.70300	-76
1.70667	-75
1.71033	-74
1.71400	-75
1.71767	-74
1.72133	-76
1.72500	-77
1.72867	-76
1.73233	-71
1.73600	-65
1.73967	-62
1.74333	-64
1.74700	-67
1.75067	-67
1.75433	-64
1.75800	-60
1.76167	-58
1.76533	-58
1.76900	-61
1.77267	-67
1.77633	-76
1.78000	-84
1.78367	-89
1.78733	-88
1.79100	-84
1.79467	-81
1.79833	-76
1.80200	-71
1.80567	-67
1.80933	-64
1.81300	-62
1.81667	-63
1.82033	-63
1.82400	-61
1.82767	-61
1.83133	-59
1.83500	-53
1.83867	-46
1.84233	-42
1.84600	-46
1.84967	-55
1.85333	-64
1.85700	-69
1.86067	-72
1.86433	-73
1.86800	-73
1.87167	-66
1.87533	-57
1.87900	-49
1.88267	-45
1.88633	-47
1.89000	-53
1.89367	-60
1.89733	-66
1.90100	-71
1.90467	-73
1.90833	-68
1.91200	-61
1.91567	-55
1.91933	-49
1.92300	-47
1.92667	-47
1.93033	-49
1.93400	-50
1.93767	-49
1.94133	-48
1.94500	-45
1.94867	-28
1.95233	54
1.95600	476
1.95967	2397
1.96333	9126
1.96700	27100
1.97067	64377
1.97433	125508
1.97800	206380
1.98167	294530
1.98533	374615
1.98900	433675
1.99267	463172
1.99633	459166
2.00000	423669
2.00367	365121
2.00733	295740
2.01100	227238
2.01467	167505
2.01833	119876
2.02200	84246
2.02567	58745
2.02933	41023
2.03300	28926
2.03667	20744
2.04033	15217
2.04400	11462
2.04767	8887
2.05133	7091
2.05500	5811
2.05867	4877
2.06233	4177
2.06600	3638
2.06967	3217
2.07333	2876
2.07700	2594
2.08067	2357
2.08433	2160
2.08800	1995
2.09167	1848
2.09533	1718
2.09900	1606
2.10267	1508
2.10633	1420
2.11000	1338
2.11367	1262
2.11733	1188
2.12100	1117
2.12467	1054
2.12833	1002
2.13200	958
2.13567	918
2.13933	880
2.14300	845
2.14667	814
2.15033	783
2.15400	753
2.15767	725
2.16133	701
2.16500	679
2.16867	661
2.17233	648
2.17600	637
2.17967	624
2.18333	608
2.18700	587
2.19067	561
2.19433	535
2.19800	514
2.20167	500
2.20533	486
2.20900	473
2.21267	463
2.21633	452
2.22000	437
2.22367	422
2.22733	409
2.23100	398
2.23467	392
2.23833	389
2.24200	385
2.24567	375
2.24933	362
2.25300	352
2.25667	345
2.26033	338
2.26400	333
2.26767	330
2.27133	329
2.27500	326
2.27867	322
2.28233	319
2.28600	313
2.28967	305
2.29333	295
2.29700	287
2.30067	284
2.30433	283
2.30800	284
2.31167	282
2.31533	280
2.31900	278
2.32267	277
2.32633	275
2.33000	273
2.33367	269
2.33733	264
2.34100	257
2.34467	250
2.34833	246
2.35200	243
2.35567	242
2.35933	244
2.36300	249
2.36667	252
2.37033	255
2.37400	257
2.37767	258
2.38133	256
2.38500	248
2.38867	238
2.39233	230
2.39600	226
2.39967	226
2.40333	226
2.40700	222
2.41067	220
2.41433	220
2.41800	223
2.42167	229
2.42533	236
2.42900	238
2.43267	236
2.43633	234
2.44000	231
2.44367	226
2.44733	216
2.45100	209
2.45467	206
2.45833	207
2.46200	210
2.46567	212
2.46933	214
2.47300	214
2.47667	213
2.48033	214
2.48400	218
2.48767	221
2.49133	226
2.49500	231
2.49867	233
2.50233	231
2.50600	225
2.50967	217
2.51333	214
2.51700	216
2.52067	222
2.52433	230
2.52800	236
2.53167	239
2.53533	239
2.53900	236
2.54267	230
2.54633	226
2.55000	224
2.55367	225
2.55733	228
2.56100	231
2.56467	235
2.56833	236
2.57200	233
2.57567	228
2.57933	226
2.58300	228
2.58667	233
2.59033	235
2.59400	233
2.59767	231
2.60133	232
2.60500	237
2.60867	245
2.61233	251
2.61600	254
2.61967	254
2.62333	253
2.62700	253
2.63067	253
2.63433	251
2.63800	248
2.64167	246
2.64533	247
2.64900	244
2.65267	238
2.65633	236
2.66000	238
2.66367	240
2.66733	242
2.67100	244
2.67467	245
2.67833	246
2.68200	249
2.68567	256
2.68933	261
2.69300	259
2.69667	255
2.70033	251
2.70400	246
2.70767	244
2.71133	245
2.71500	248
2.71867	251
2.72233	251
2.72600	250
2.72967	253
2.73333	257
2.73700	260
2.74067	266
2.74433	273
2.74800	277
2.75167	283
2.75533	290
2.75900	294
2.76267	295
2.76633	293
2.77000	291
2.77367	290
2.77733	289
2.78100	286
2.78467	282
2.78833	278
2.79200	277
2.79567	275
2.79933	273
2.80300	272
2.80667	274
2.81033	280
2.81400	284
2.81767	286
2.82133	288
2.82500	291
2.82867	290
2.83233	284
2.83600	280
2.83967	278
2.84333	280
2.84700	284
2.85067	285
2.85433	286
2.85800	285
2.86167	283
2.86533	282
2.86900	284
2.87267	285
2.87633	285
2.88000	286
2.88367	293
2.88733	298
2.89100	302
2.89467	306
2.89833	310
2.90200	316
2.90567	322
2.90933	327
2.91300	332
2.91667	335
2.92033	332
2.92400	325
2.92767	317
2.93133	310
2.93500	304
2.93867	299
2.94233	294
2.94600	292
2.94967	291
2.95333	295
2.95700	302
2.96067	312
2.96433	322
2.96800	331
2.97167	335
2.97533	336
2.97900	334
2.98267	329
2.98633	322
2.99000	318
2.99367	315
2.99733	314
3.00100	313
3.00467	312
3.00833	315
3.01200	319
3.01567	323
3.01933	327
3.02300	329
3.02667	328
3.03033	327
3.03400	328
3.03767	333
3.04133	341
3.04500	347
3.04867	348
3.05233	343
3.05600	337
3.05967	329
3.06333	323
3.06700	323
3.07067	328
3.07433	329
3.07800	327
3.08167	323
3.08533	322
3.08900	325
3.09267	325
3.09633	321
3.10000	314
3.10367	307
3.10733	303
3.11100	303
3.11467	310
3.11833	321
3.12200	332
3.12567	342
3.12933	347
3.13300	345
3.13667	338
3.14033	329
3.14400	319
3.14767	310
3.15133	305
3.15500	303
3.15867	306
3.16233	309
3.16600	313
3.16967	314
3.17333	312
3.17700	311
3.18067	312
3.18433	315
3.18800	316
3.19167	316
3.19533	317
3.19900	318
3.20267	318
3.20633	318
3.21000	320
3.21367	324
3.21733	328
3.22100	332
3.22467	339
3.22833	345
3.23200	344
3.23567	340
3.23933	332
3.24300	325
3.24667	322
3.25033	320
3.25400	318
3.25767	317
3.26133	316
3.26500	314
3.26867	309
3.27233	302
3.27600	296
3.27967	295
3.28333	295
3.28700	295
3.29067	301
3.29433	312
3.29800	320
3.30167	323
3.30533	321
3.30900	317
3.31267	317
3.31633	323
3.32000	328
3.32367	333
3.32733	338
3.33100	340
3.33467	336
3.33833	329
3.34200	319
3.34567	309
3.34933	302
3.35300	297
3.35667	295
3.36033	295
3.36400	296
3.36767	298
3.37133	299
3.37500	298
3.37867	296
3.38233	296
3.38600	295
3.38967	295
3.39333	296
3.39700	298
3.40067	298
3.40433	297
3.40800	299
3.41167	303
3.41533	305
3.41900	304
3.42267	307
3.42633	313
3.43000	318
3.43367	323
3.43733	325
3.44100	321
3.44467	316
3.44833	310
3.45200	300
3.45567	291
3.45933	287
3.46300	288
3.46667	294
3.47033	303
3.47400	311
3.47767	314
3.48133	311
3.48500	305
3.48867	298
3.49233	294
3.49600	292
3.49967	292
3.50333	297
3.50700	304
3.51067	307
3.51433	305
3.51800	301
3.52167	296
3.52533	291
3.52900	288
3.53267	288
3.53633	288
3.54000	290
3.54367	290
3.54733	285
3.55100	280
3.55467	280
3.55833	284
3.56200	290
3.56567	293
3.56933	294
3.57300	295
3.57667	298
3.58033	297
3.58400	292
3.58767	286
3.59133	279
3.59500	273
3.59867	268
3.60233	270
3.60600	273
3.60967	276
3.61333	281
3.61700	289
3.62067	296
3.62433	295
3.62800	288
3.63167	284
3.63533	286
3.63900	290
3.64267	293
3.64633	293
3.65000	289
3.65367	285
3.65733	281
3.66100	276
3.66467	274
3.66833	277
3.67200	280
3.67567	280
3.67933	279
3.68300	280
3.68667	283
3.69033	287
3.69400	290
3.69767	290
3.70133	285
3.70500	276
3.70867	265
3.71233	260
3.71600	260
3.71967	263
3.72333	269
3.72700	269
3.73067	265
3.73433	261
3.73800	260
3.74167	262
3.74533	266
3.74900	271
3.75267	273
3.75633	273
3.76000	269
3.76367	265
3.76733	262
3.77100	258
3.77467	256
3.77833	255
3.78200	257
3.78567	259
3.78933	259
3.79300	261
3.79667	265
3.80033	270
3.80400	272
3.80767	267
3.81133	259
3.81500	255
3.81867	254
3.82233	254
3.82600	253
3.82967	249
3.83333	247
3.83700	249
3.84067	251
3.84433	256
3.84800	268
3.85167	279
3.85533	286
3.85900	284
3.86267	274
3.86633	259
3.87000	245
3.87367	236
3.87733	233
3.88100	237
3.88467	244
3.88833	249
3.89200	252
3.89567	253
3.89933	255
3.90300	255
3.90667	253
3.91033	251
3.91400	250
3.91767	249
3.92133	249
3.92500	250
3.92867	251
3.93233	249
3.93600	248
3.93967	249
3.94333	249
3.94700	247
3.95067	245
3.95433	239
3.95800	231
3.96167	228
3.96533	232
3.96900	237
3.97267	241
3.97633	246
3.98000	247
3.98367	242
3.98733	236
3.99100	234
3.99467	238
3.99833	243

[Chromatogram (Ch2)]
Interval(msec)	220
# of Points	1091
Start Time(min)	0.002
End Time(min)	3.998
R.Time (min)	Intensity
0.00167	-1
0.00533	-1
0.00900	-1
0.01267	-1
0.01633	-1
0.02000	-1
0.02367	-0
0.02733	-0
0.03100	0
0.03467	0
0.03833	1
0.04200	1
0.04567	2
0.04933	2
0.05300	2
0.05667	2
0.06033	2
0.06400	2
0.06767	2
0.07133	2
0.07500	2
0.07867	2
0.08233	2
0.08600	2
0.08967	2
0.09333	2
0.09700	2
0.10067	1
0.10433	1
0.10800	1
0.11167	1
0.11533	1
0.11900	1
0.12267	1
0.12633	1
0.13000	1
0.13367	1
0.13733	1
0.14100	0
0.14467	0
0.14833	0
0.15200	-0
0.15567	-0
0.15933	-0
0.16300	-0
0.16667	-0
0.17033	-0
0.17400	-0
0.17767	-0
0.18133	-0
0.18500	-0
0.18867	-0
0.19233	-0
0.19600	-0
0.19967	-1
0.20333	-0
0.20700	-0
0.21067	-0
0.21433	-0
0.21800	-0
0.22167	-1
0.22533	-1
0.22900	-0
0.23267	-0
0.23633	0
0.24000	0
0.24367	0
0.24733	0
0.25100	0
0.25467	-0
0.25833	-0
0.26200	-0
0.26567	-1
0.26933	-1
0.27300	-1
0.27667	-1
0.28033	-1
0.28400	-1
0.28767	-1
0.29133	-1
0.29500	-1
0.29867	-1
0.30233	-1
0.30600	-1
0.30967	-0
0.31333	0
0.31700	0
0.32067	1
0.32433	1
0.32800	1
0.33167	1
0.33533	1
0.33900	1
0.34267	1
0.34633	1
0.35000	1
0.35367	1
0.35733	1
0.36100	1
0.36467	1
0.36833	1
0.37200	2
0.37567	2
0.37933	2
0.38300	2
0.38667	2
0.39033	2
0.39400	2
0.39767	2
0.40133	2
0.40500	2
0.40867	2
0.41233	2
0.41600	2
0.41967	2
0.42333	2
0.42700	2
0.43067	2
0.43433	2
0.43800	2
0.44167	2
0.44533	1
0.44900	1
0.45267	1
0.45633	0
0.46000	0
0.46367	-0
0.46733	-1
0.47100	-1
0.47467	-1
0.47833	-1
0.48200	-1
0.48567	-2
0.48933	-2
0.49300	-2
0.49667	-2
0.50033	-2
0.50400	-2
0.50767	-2
0.51133	-2
0.51500	-2
0.51867	-3
0.52233	-3
0.52600	-3
0.52967	-3
0.53333	-2
0.53700	-2
0.54067	-2
0.54433	-2
0.54800	-1
0.55167	-1
0.55533	-1
0.55900	-0
0.56267	0
0.56633	0
0.57000	1
0.57367	1
0.57733	1
0.58100	1
0.58467	1
0.58833	0
0.59200	0
0.59567	0
0.59933	0
0.60300	0
0.60667	0
0.61033	0
0.61400	1
0.61767	1
0.62133	1
0.62500	1
0.62867	1
0.63233	1
0.63600	1
0.63967	0
0.64333	0
0.64700	-0
0.65067	-0
0.65433	-1
0.65800	-1
0.66167	-1
0.66533	-1
0.66900	-1
0.67267	-1
0.67633	-1
0.68000	-1
0.68367	-1
0.68733	-0
0.69100	-0
0.69467	-0
0.69833	-0
0.70200	-0
0.70567	0
0.70933	0
0.71300	0
0.71667	0
0.72033	0
0.72400	0
0.72767	0
0.73133	0
0.73500	0
0.73867	0
0.74233	0
0.74600	0
0.74967	0
0.75333	0
0.75700	-0
0.76067	0
0.76433	0
0.76800	0
0.77167	1
0.77533	1
0.77900	1
0.78267	1
0.78633	1
0.79000	1
0.79367	1
0.79733	0
0.80100	0
0.80467	0
0.80833	0
0.81200	1
0.81567	1
0.81933	1
0.82300	1
0.82667	1
0.83033	0
0.83400	0
0.83767	-0
0.84133	-0
0.84500	-1
0.84867	-1
0.85233	-1
0.85600	-1
0.85967	-1
0.86333	-1
0.86700	-1
0.87067	-1
0.87433	-1
0.87800	-1
0.88167	-1
0.88533	-1
0.88900	-1
0.89267	-1
0.89633	-1
0.90000	-1
0.90367	-1
0.90733	-1
0.91100	-1
0.91467	-1
0.91833	-1
0.92200	-1
0.92567	-1
0.92933	-1
0.93300	-1
0.93667	-1
0.94033	-1
0.94400	-1
0.94767	-1
0.95133	-1
0.95500	-1
0.95867	-1
0.96233	-1
0.96600	-2
0.96967	-2
0.97333	-2
0.97700	-2
0.98067	-2
0.98433	-2
0.98800	-2
0.99167	-2
0.99533	-2
0.99900	-2
1.00267	-1
1.00633	-1
1.01000	-1
1.01367	-1
1.01733	-1
1.02100	-1
1.02467	-2
1.02833	-2
1.03200	-2
1.03567	-1
1.03933	-1
1.04300	-1
1.04667	-1
1.05033	-1
1.05400	-1
1.05767	-1
1.06133	-1
1.06500	-1
1.06867	-1
1.07233	-1
1.07600	-1
1.07967	-1
1.08333	-1
1.08700	-1
1.09067	-2
1.09433	-2
1.09800	-2
1.10167	-2
1.10533	-2
1.10900	-2
1.11267	-2
1.11633	-2
1.12000	-1
1.12367	-1
1.12733	-1
1.13100	-1
1.13467	-1
1.13833	-1
1.14200	-1
1.14567	-0
1.14933	-0
1.15300	-0
1.15667	-0
1.16033	-1
1.16400	-1
1.16767	-1
1.17133	-2
1.17500	-2
1.17867	-2
1.18233	-3
1.18600	-3
1.18967	-3
1.19333	-3
1.19700	-3
1.20067	-3
1.20433	-3
1.20800	-2
1.21167	-2
1.21533	-2
1.21900	-2
1.22267	-2
1.22633	-2
1.23000	-2
1.23367	-2
1.23733	-2
1.24100	-2
1.24467	-1
1.24833	-1
1.25200	-1
1.25567	-1
1.25933	-1
1.26300	-1
1.26667	-1
1.27033	-1
1.27400	-1
1.27767	-2
1.28133	-2
1.28500	-2
1.28867	-2
1.29233	-2
1.29600	-2
1.29967	-1
1.30333	-1
1.30700	-1
1.31067	-1
1.31433	-1
1.31800	-1
1.32167	-1
1.32533	-1
1.32900	-1
1.33267	-1
1.33633	-1
1.34000	-1
1.34367	-1
1.34733	-1
1.35100	-1
1.35467	-1
1.35833	-1
1.36200	-0
1.36567	-0
1.36933	-0
1.37300	-0
1.37667	-1
1.38033	-1
1.38400	-1
1.38767	-1
1.39133	-1
1.39500	-1
1.39867	-1
1.40233	-2
1.40600	-2
1.40967	-2
1.41333	-2
1.41700	-1
1.42067	-1
1.42433	-1
1.42800	-1
1.43167	-2
1.43533	-2
1.43900	-2
1.44267	-1
1.44633	-1
1.45000	-2
1.45367	-2
1.45733	-2
1.46100	-2
1.46467	-2
1.46833	-2
1.47200	-2
1.47567	-2
1.47933	-2
1.48300	-2
1.48667	-3
1.49033	-3
1.49400	-3
1.49767	-4
1.50133	-4
1.50500	-4
1.50867	-4
1.51233	-4
1.51600	-4
1.51967	-3
1.52333	-3
1.52700	-3
1.53067	-3
1.53433	-2
1.53800	-2
1.54167	-2
1.54533	-2
1.54900	-3
1.55267	-3
1.55633	-3
1.56000	-3
1.56367	-3
1.56733	-3
1.57100	-3
1.57467	-3
1.57833	-3
1.58200	-3
1.58567	-3
1.58933	-3
1.59300	-3
1.59667	-3
1.60033	-4
1.60400	-6
1.60767	-7
1.61133	-8
1.61500	-10
1.61867	-12
1.62233	-14
1.62600	-17
1.62967	-19
1.63333	-22
1.63700	-25
1.64067	-28
1.64433	-32
1.64800	-35
1.65167	-39
1.65533	-42
1.65900	-46
1.66267	-49
1.66633	-53
1.67000	-58
1.67367	-62
1.67733	-67
1.68100	-71
1.68467	-76
1.68833	-80
1.69200	-84
1.69567	-87
1.69933	-89
1.70300	-91
1.70667	-93
1.71033	-94
1.71400	-95
1.71767	-96
1.72133	-97
1.72500	-97
1.72867	-98
1.73233	-98
1.73600	-99
1.73967	-99
1.74333	-99
1.74700	-100
1.75067	-100
1.75433	-101
1.75800	-101
1.76167	-101
1.76533	-102
1.76900	-103
1.77267	-103
1.77633	-103
1.78000	-104
1.78367	-105
1.78733	-105
1.79100	-107
1.79467	-108
1.79833	-109
1.80200	-109
1.80567	-109
1.80933	-109
1.81300	-108
1.81667	-107
1.82033	-106
1.82400	-105
1.82767	-104
1.83133	-104
1.83500	-104
1.83867	-104
1.84233	-104
1.84600	-104
1.84967	-105
1.85333	-105
1.85700	-105
1.86067	-105
1.86433	-105
1.86800	-105
1.87167	-105
1.87533	-105
1.87900	-105
1.88267	-104
1.88633	-104
1.89000	-104
1.89367	-103
1.89733	-103
1.90100	-102
1.90467	-102
1.90833	-102
1.91200	-102
1.91567	-101
1.91933	-101
1.92300	-102
1.92667	-102
1.93033	-102
1.93400	-102
1.93767	-101
1.94133	-101
1.94500	-101
1.94867	-101
1.95233	-101
1.95600	-101
1.95967	-101
1.96333	-101
1.96700	-101
1.97067	-100
1.97433	-100
1.97800	-100
1.98167	-100
1.98533	-100
1.98900	-100
1.99267	-100
1.99633	-99
2.00000	-99
2.00367	-98
2.00733	-97
2.01100	-97
2.01467	-97
2.01833	-96
2.02200	-96
2.02567	-96
2.02933	-95
2.03300	-95
2.03667	-94
2.04033	-94
2.04400	-94
2.04767	-93
2.05133	-92
2.05500	-92
2.05867	-91
2.06233	-91
2.06600	-92
2.06967	-92
2.07333	-92
2.07700	-91
2.08067	-91
2.08433	-90
2.08800	-89
2.09167	-89
2.09533	-88
2.09900	-88
2.10267	-88
2.10633	-88
2.11000	-88
2.11367	-89
2.11733	-89
2.12100	-89
2.12467	-89
2.12833	-88
2.13200	-88
2.13567	-88
2.13933	-87
2.14300	-87
2.14667	-86
2.15033	-86
2.15400	-86
2.15767	-87
2.16133	-87
2.16500	-87
2.16867	-87
2.17233	-86
2.17600	-85
2.17967	-85
2.18333	-84
2.18700	-84
2.19067	-84
2.19433	-83
2.19800	-83
2.20167	-82
2.20533	-82
2.20900	-82
2.21267	-82
2.21633	-83
2.22000	-84
2.22367	-86
2.22733	-87
2.23100	-87
2.23467	-87
2.23833	-87
2.24200	-86
2.24567	-85
2.24933	-83
2.25300	-82
2.25667	-81
2.26033	-80
2.26400	-79
2.26767	-78
2.27133	-78
2.27500	-77
2.27867	-77
2.28233	-77
2.28600	-77
2.28967	-77
2.29333	-77
2.29700	-77
2.30067	-76
2.30433	-76
2.30800	-75
2.31167	-75
2.31533	-74
2.31900	-74
2.32267	-74
2.32633	-73
2.33000	-73
2.33367	-72
2.33733	-71
2.34100	-70
2.34467	-69
2.34833	-68
2.35200	-68
2.35567	-67
2.35933	-67
2.36300	-66
2.36667	-64
2.37033	-63
2.37400	-60
2.37767	-58
2.38133	-54
2.38500	-51
2.38867	-47
2.39233	-43
2.39600	-38
2.39967	-34
2.40333	-30
2.40700	-25
2.41067	-21
2.41433	-17
2.41800	-14
2.42167	-11
2.42533	-9
2.42900	-7
2.43267	-5
2.43633	-3
2.44000	-1
2.44367	1
2.44733	3
2.45100	5
2.45467	6
2.45833	7
2.46200	7
2.46567	8
2.46933	8
2.47300	9
2.47667	9
2.48033	10
2.48400	10
2.48767	11
2.49133	11
2.49500	12
2.49867	12
2.50233	13
2.50600	13
2.50967	12
2.51333	12
2.51700	11
2.52067	10
2.52433	9
2.52800	9
2.53167	8
2.53533	8
2.53900	8
2.54267	9
2.54633	9
2.55000	10
2.55367	10
2.55733	11
2.56100	12
2.56467	12
2.56833	13
2.57200	14
2.57567	14
2.57933	15
2.58300	15
2.58667	15
2.59033	15
2.59400	16
2.59767	16
2.60133	16
2.60500	17
2.60867	17
2.61233	17
2.61600	18
2.61967	18
2.62333	18
2.62700	18
2.63067	18
2.63433	18
2.63800	18
2.64167	18
2.64533	19
2.64900	19
2.65267	20
2.65633	20
2.66000	21
2.66367	21
2.66733	21
2.67100	21
2.67467	21
2.67833	22
2.68200	22
2.68567	22
2.68933	23
2.69300	23
2.69667	23
2.70033	23
2.70400	23
2.70767	23
2.71133	22
2.71500	22
2.71867	22
2.72233	23
2.72600	23
2.72967	24
2.73333	24
2.73700	25
2.74067	25
2.74433	26
2.74800	26
2.75167	27
2.75533	27
2.75900	28
2.76267	28
2.76633	28
2.77000	29
2.77367	29
2.77733	29
2.78100	29
2.78467	28
2.78833	28
2.79200	28
2.79567	27
2.79933	26
2.80300	26
2.80667	26
2.81033	26
2.81400	26
2.81767	26
2.82133	26
2.82500	26
2.82867	26
2.83233	26
2.83600	26
2.83967	26
2.84333	26
2.84700	27
2.85067	27
2.85433	26
2.85800	24
2.86167	20
2.86533	14
2.86900	5
2.87267	-8
2.87633	-26
2.88000	-48
2.88367	-76
2.88733	-109
2.89100	-148
2.89467	-191
2.89833	-239
2.90200	-290
2.90567	-345
2.90933	-403
2.91300	-463
2.91667	-525
2.92033	-587
2.92400	-649
2.92767	-709
2.93133	-768
2.93500	-824
2.93867	-877
2.94233	-929
2.94600	-984
2.94967	-1039
2.95333	-1085
2.95700	-1112
2.96067	-1114
2.96433	-1091
2.96800	-1046
2.97167	-984
2.97533	-910
2.97900	-830
2.98267	-749
2.98633	-668
2.99000	-591
2.99367	-520
2.99733	-454
3.00100	-394
3.00467	-341
3.00833	-293
3.01200	-251
3.01567	-214
3.01933	-182
3.02300	-154
3.02667	-130
3.03033	-110
3.03400	-92
3.03767	-77
3.04133	-63
3.04500	-52
3.04867	-43
3.05233	-34
3.05600	-27
3.05967	-21
3.06333	-16
3.06700	-11
3.07067	-7
3.07433	-4
3.07800	-1
3.08167	1
3.08533	3
3.08900	5
3.09267	7
3.09633	8
3.10000	9
3.10367	10
3.10733	10
3.11100	11
3.11467	12
3.11833	13
3.12200	13
3.12567	13
3.12933	14
3.13300	15
3.13667	15
3.14033	15
3.14400	16
3.14767	16
3.15133	16
3.15500	16
3.15867	17
3.16233	17
3.16600	17
3.16967	17
3.17333	18
3.17700	18
3.18067	19
3.18433	19
3.18800	19
3.19167	20
3.19533	20
3.19900	21
3.20267	21
3.20633	21
3.21000	21
3.21367	21
3.21733	22
3.22100	22
3.22467	22
3.22833	22
3.23200	22
3.23567	23
3.23933	23
3.24300	23
3.24667	24
3.25033	24
3.25400	24
3.25767	24
3.26133	24
3.26500	24
3.26867	25
3.27233	25
3.27600	25
3.27967	25
3.28333	25
3.28700	25
3.29067	25
3.29433	25
3.29800	24
3.30167	24
3.30533	24
3.30900	23
3.31267	23
3.31633	23
3.32000	23
3.32367	23
3.32733	23
3.33100	24
3.33467	24
3.33833	24
3.34200	25
3.34567	25
3.34933	25
3.35300	26
3.35667	26
3.36033	26
3.36400	27
3.36767	27
3.37133	27
3.37500	27
3.37867	28
3.38233	28
3.38600	28
3.38967	28
3.39333	29
3.39700	29
3.40067	29
3.40433	29
3.40800	29
3.41167	30
3.41533	30
3.41900	30
3.42267	30
3.42633	30
3.43000	30
3.43367	30
3.43733	30
3.44100	30
3.44467	30
3.44833	30
3.45200	29
3.45567	29
3.45933	29
3.46300	29
3.46667	29
3.47033	29
3.47400	29
3.47767	29
3.48133	29
3.48500	29
3.48867	29
3.49233	29
3.49600	28
3.49967	28
3.50333	28
3.50700	28
3.51067	28
3.51433	28
3.51800	28
3.52167	28
3.52533	28
3.52900	28
3.53267	28
3.53633	28
3.54000	28
3.54367	27
3.54733	27
3.55100	27
3.55467	27
3.55833	27
3.56200	27
3.56567	27
3.56933	27
3.57300	27
3.57667	27
3.58033	27
3.58400	27
3.58767	26
3.59133	26
3.59500	26
3.59867	26
3.60233	26
3.60600	26
3.60967	26
3.61333	27
3.61700	27
3.62067	27
3.62433	27
3.62800	27
3.63167	27
3.63533	27
3.63900	27
3.64267	27
3.64633	27
3.65000	27
3.65367	27
3.65733	27
3.66100	27
3.66467	27
3.66833	27
3.67200	27
3.67567	27
3.67933	27
3.68300	27
3.68667	27
3.69033	27
3.69400	27
3.69767	27
3.70133	27
3.70500	27
3.70867	27
3.71233	27
3.71600	27
3.71967	27
3.72333	27
3.72700	27
3.73067	26
3.73433	26
3.73800	26
3.74167	26
3.74533	26
3.74900	27
3.75267	27
3.75633	26
3.76000	26
3.76367	26
3.76733	26
3.77100	26
3.77467	26
3.77833	26
3.78200	26
3.78567	26
3.78933	26
3.79300	26
3.79667	26
3.80033	26
3.80400	25
3.80767	25
3.81133	25
3.81500	25
3.81867	25
3.82233	25
3.82600	25
3.82967	25
3.83333	25
3.83700	25
3.84067	25
3.84433	25
3.84800	25
3.85167	25
3.85533	25
3.85900	25
3.86267	25
3.86633	25
3.87000	25
3.87367	25
3.87733	25
3.88100	25
3.88467	25
3.88833	26
3.89200	26
3.89567	26
3.89933	26
3.90300	26
3.90667	26
3.91033	26
3.91400	26
3.91767	26
3.92133	26
3.92500	26
3.92867	26
3.93233	26
3.93600	26
3.93967	26
3.94333	26
3.94700	26
3.95067	26
3.95433	26
3.95800	26
3.96167	26
3.96533	26
3.96900	26
3.97267	26
3.97633	26
3.98000	26
3.98367	26
3.98733	26
3.99100	26
3.99467	26
3.99833	26

[Chromatogram (Ch3)]
Interval(msec)	220
# of Points	1091
Start Time(min)	0.002
End Time(min)	3.998
R.Time (min)	Intensity
0.00167	-0
0.00533	-1
0.00900	-2
0.01267	-2
0.01633	-3
0.02000	-2
0.02367	0
0.02733	2
0.03100	3
0.03467	4
0.03833	4
0.04200	4
0.04567	3
0.04933	2
0.05300	-1
0.05667	-2
0.06033	-3
0.06400	-3
0.06767	-1
0.07133	-1
0.07500	-2
0.07867	-5
0.08233	-7
0.08600	-8
0.08967	-5
0.09333	-3
0.09700	-2
0.10067	-2
0.10433	-2
0.10800	-2
0.11167	-4
0.11533	-4
0.11900	-3
0.12267	-4
0.12633	-5
0.13000	-3
0.13367	-0
0.13733	1
0.14100	1
0.14467	4
0.14833	6
0.15200	6
0.15567	5
0.15933	4
0.16300	2
0.16667	0
0.17033	-0
0.17400	1
0.17767	1
0.18133	-0
0.18500	0
0.18867	-1
0.19233	-1
0.19600	-1
0.19967	-2
0.20333	-0
0.20700	4
0.21067	6
0.21433	4
0.21800	4
0.22167	3
0.22533	3
0.22900	4
0.23267	4
0.23633	4
0.24000	5
0.24367	5
0.24733	5
0.25100	3
0.25467	4
0.25833	6
0.26200	7
0.26567	5
0.26933	3
0.27300	3
0.27667	4
0.28033	3
0.28400	2
0.28767	3
0.29133	5
0.29500	6
0.29867	7
0.30233	9
0.30600	11
0.30967	11
0.31333	10
0.31700	9
0.32067	8
0.32433	7
0.32800	7
0.33167	7
0.33533	6
0.33900	4
0.34267	3
0.34633	1
0.35000	1
0.35367	1
0.35733	2
0.36100	3
0.36467	6
0.36833	7
0.37200	8
0.37567	7
0.37933	6
0.38300	4
0.38667	2
0.39033	0
0.39400	3
0.39767	5
0.40133	5
0.40500	4
0.40867	3
0.41233	5
0.41600	7
0.41967	6
0.42333	4
0.42700	3
0.43067	5
0.43433	8
0.43800	10
0.44167	12
0.44533	12
0.44900	11
0.45267	9
0.45633	4
0.46000	1
0.46367	-1
0.46733	1
0.47100	1
0.47467	1
0.47833	2
0.48200	2
0.48567	4
0.48933	6
0.49300	6
0.49667	7
0.50033	9
0.50400	9
0.50767	6
0.51133	5
0.51500	3
0.51867	1
0.52233	2
0.52600	3
0.52967	3
0.53333	3
0.53700	3
0.54067	3
0.54433	5
0.54800	6
0.55167	8
0.55533	9
0.55900	9
0.56267	8
0.56633	6
0.57000	5
0.57367	5
0.57733	8
0.58100	8
0.58467	5
0.58833	4
0.59200	3
0.59567	0
0.59933	-0
0.60300	-1
0.60667	-1
0.61033	2
0.61400	7
0.61767	10
0.62133	9
0.62500	9
0.62867	9
0.63233	9
0.63600	11
0.63967	12
0.64333	12
0.64700	12
0.65067	11
0.65433	11
0.65800	8
0.66167	7
0.66533	7
0.66900	6
0.67267	6
0.67633	7
0.68000	7
0.68367	7
0.68733	6
0.69100	7
0.69467	6
0.69833	6
0.70200	4
0.70567	6
0.70933	7
0.71300	9
0.71667	10
0.72033	11
0.72400	11
0.72767	12
0.73133	12
0.73500	14
0.73867	12
0.74233	11
0.74600	12
0.74967	13
0.75333	13
0.75700	12
0.76067	12
0.76433	12
0.76800	10
0.77167	8
0.77533	7
0.77900	8
0.78267	8
0.78633	7
0.79000	7
0.79367	8
0.79733	8
0.80100	9
0.80467	10
0.80833	9
0.81200	8
0.81567	9
0.81933	11
0.82300	9
0.82667	9
0.83033	9
0.83400	9
0.83767	11
0.84133	11
0.84500	10
0.84867	9
0.85233	7
0.85600	7
0.85967	9
0.86333	11
0.86700	11
0.87067	11
0.87433	8
0.87800	5
0.88167	4
0.88533	3
0.88900	5
0.89267	7
0.89633	8
0.90000	9
0.90367	8
0.90733	9
0.91100	10
0.91467	11
0.91833	11
0.92200	13
0.92567	14
0.92933	14
0.93300	13
0.93667	12
0.94033	12
0.94400	12
0.94767	10
0.95133	10
0.95500	12
0.95867	11
0.96233	10
0.96600	10
0.96967	12
0.97333	14
0.97700	13
0.98067	12
0.98433	11
0.98800	9
0.99167	8
0.99533	8
0.99900	9
1.00267	8
1.00633	7
1.01000	7
1.01367	6
1.01733	5
1.02100	4
1.02467	6
1.02833	9
1.03200	13
1.03567	15
1.03933	18
1.04300	17
1.04667	16
1.05033	16
1.05400	15
1.05767	15
1.06133	14
1.06500	12
1.06867	11
1.07233	13
1.07600	13
1.07967	14
1.08333	13
1.08700	11
1.09067	10
1.09433	10
1.09800	11
1.10167	13
1.10533	13
1.10900	10
1.11267	8
1.11633	8
1.12000	8
1.12367	7
1.12733	6
1.13100	5
1.13467	4
1.13833	6
1.14200	8
1.14567	8
1.14933	8
1.15300	9
1.15667	10
1.16033	9
1.16400	9
1.16767	9
1.17133	11
1.17500	12
1.17867	13
1.18233	12
1.18600	10
1.18967	9
1.19333	9
1.19700	7
1.20067	5
1.20433	4
1.20800	5
1.21167	6
1.21533	6
1.21900	6
1.22267	7
1.22633	8
1.23000	9
1.23367	7
1.23733	6
1.24100	5
1.24467	5
1.24833	6
1.25200	7
1.25567	8
1.25933	8
1.26300	7
1.26667	5
1.27033	5
1.27400	5
1.27767	6
1.28133	6
1.28500	9
1.28867	12
1.29233	14
1.29600	14
1.29967	12
1.30333	11
1.30700	12
1.31067	13
1.31433	12
1.31800	9
1.32167	8
1.32533	7
1.32900	8
1.33267	9
1.33633	10
1.34000	10
1.34367	11
1.34733	12
1.35100	13
1.35467	12
1.35833	13
1.36200	14
1.36567	14
1.36933	14
1.37300	11
1.37667	7
1.38033	4
1.38400	4
1.38767	4
1.39133	4
1.39500	5
1.39867	8
1.40233	12
1.40600	14
1.40967	14
1.41333	13
1.41700	12
1.42067	11
1.42433	11
1.42800	11
1.43167	8
1.43533	6
1.43900	5
1.44267	6
1.44633	8
1.45000	9
1.45367	10
1.45733	9
1.46100	8
1.46467	5
1.46833	3
1.47200	1
1.47567	2
1.47933	3
1.48300	8
1.48667	11
1.49033	12
1.49400	9
1.49767	6
1.50133	6
1.50500	7
1.50867	6
1.51233	6
1.51600	5
1.51967	5
1.52333	5
1.52700	4
1.53067	4
1.53433	3
1.53800	3
1.54167	3
1.54533	3
1.54900	4
1.55267	5
1.55633	6
1.56000	7
1.56367	7
1.56733	6
1.57100	4
1.57467	2
1.57833	2
1.58200	1
1.58567	2
1.58933	4
1.59300	4
1.59667	5
1.60033	4
1.60400	4
1.60767	4
1.61133	4
1.61500	4
1.61867	4
1.62233	5
1.62600	7
1.62967	9
1.63333	10
1.63700	10
1.64067	12
1.64433	13
1.64800	13
1.65167	10
1.65533	9
1.65900	11
1.66267	11
1.66633	11
1.67000	11
1.67367	13
1.67733	15
1.68100	16
1.68467	15
1.68833	15
1.69200	15
1.69567	15
1.69933	17
1.70300	19
1.70667	19
1.71033	19
1.71400	21
1.71767	22
1.72133	22
1.72500	24
1.72867	25
1.73233	22
1.73600	20
1.73967	17
1.74333	16
1.74700	18
1.75067	20
1.75433	22
1.75800	24
1.76167	26
1.76533	27
1.76900	26
1.77267	26
1.77633	27
1.78000	27
1.78367	27
1.78733	29
1.79100	29
1.79467	29
1.79833	30
1.80200	30
1.80567	32
1.80933	35
1.81300	37
1.81667	34
1.82033	34
1.82400	34
1.82767	33
1.83133	34
1.83500	35
1.83867	38
1.84233	40
1.84600	40
1.84967	40
1.85333	40
1.85700	39
1.86067	39
1.86433	39
1.86800	39
1.87167	42
1.87533	45
1.87900	46
1.88267	48
1.88633	48
1.89000	48
1.89367	49
1.89733	54
1.90100	57
1.90467	58
1.90833	57
1.91200	56
1.91567	54
1.91933	53
1.92300	56
1.92667	58
1.93033	59
1.93400	58
1.93767	57
1.94133	55
1.94500	55
1.94867	57
1.95233	59
1.95600	60
1.95967	62
1.96333	61
1.96700	61
1.97067	62
1.97433	64
1.97800	67
1.98167	68
1.98533	68
1.98900	68
1.99267	69
1.99633	69
2.00000	69
2.00367	69
2.00733	70
2.01100	73
2.01467	76
2.01833	77
2.02200	77
2.02567	79
2.02933	81
2.03300	83
2.03667	86
2.04033	87
2.04400	87
2.04767	85
2.05133	85
2.05500	87
2.05867	88
2.06233	88
2.06600	88
2.06967	90
2.07333	92
2.07700	93
2.08067	95
2.08433	96
2.08800	97
2.09167	98
2.09533	98
2.09900	99
2.10267	100
2.10633	101
2.11000	103
2.11367	105
2.11733	106
2.12100	107
2.12467	109
2.12833	108
2.13200	107
2.13567	105
2.13933	105
2.14300	108
2.14667	112
2.15033	114
2.15400	115
2.15767	117
2.16133	119
2.16500	119
2.16867	118
2.17233	118
2.17600	118
2.17967	118
2.18333	118
2.18700	119
2.19067	122
2.19433	123
2.19800	124
2.20167	126
2.20533	127
2.20900	129
2.21267	130
2.21633	129
2.22000	128
2.22367	127
2.22733	127
2.23100	129
2.23467	129
2.23833	129
2.24200	129
2.24567	131
2.24933	133
2.25300	134
2.25667	134
2.26033	133
2.26400	134
2.26767	137
2.27133	140
2.27500	143
2.27867	145
2.28233	146
2.28600	146
2.28967	146
2.29333	148
2.29700	149
2.30067	148
2.30433	150
2.30800	152
2.31167	151
2.31533	148
2.31900	148
2.32267	149
2.32633	151
2.33000	154
2.33367	157
2.33733	160
2.34100	157
2.34467	156
2.34833	156
2.35200	156
2.35567	158
2.35933	159
2.36300	158
2.36667	158
2.37033	159
2.37400	159
2.37767	159
2.38133	161
2.38500	160
2.38867	159
2.39233	158
2.39600	158
2.39967	160
2.40333	161
2.40700	163
2.41067	164
2.41433	163
2.41800	161
2.42167	160
2.42533	160
2.42900	160
2.43267	160
2.43633	159
2.44000	159
2.44367	193
2.44733	265
2.45100	339
2.45467	392
2.45833	413
2.46200	417
2.46567	421
2.46933	419
2.47300	408
2.47667	388
2.48033	365
2.48400	343
2.48767	323
2.49133	310
2.49500	303
2.49867	298
2.50233	298
2.50600	301
2.50967	305
2.51333	304
2.51700	298
2.52067	288
2.52433	278
2.52800	264
2.53167	251
2.53533	241
2.53900	231
2.54267	222
2.54633	216
2.55000	212
2.55367	210
2.55733	207
2.56100	207
2.56467	206
2.56833	207
2.57200	209
2.57567	216
2.57933	224
2.58300	232
2.58667	240
2.59033	248
2.59400	254
2.59767	257
2.60133	260
2.60500	261
2.60867	258
2.61233	252
2.61600	244
2.61967	235
2.62333	227
2.62700	219
2.63067	212
2.63433	205
2.63800	197
2.64167	190
2.64533	183
2.64900	177
2.65267	173
2.65633	169
2.66000	165
2.66367	162
2.66733	160
2.67100	160
2.67467	161
2.67833	163
2.68200	163
2.68567	162
2.68933	164
2.69300	168
2.69667	171
2.70033	174
2.70400	175
2.70767	176
2.71133	177
2.71500	178
2.71867	178
2.72233	177
2.72600	178
2.72967	181
2.73333	184
2.73700	186
2.74067	187
2.74433	190
2.74800	192
2.75167	195
2.75533	199
2.75900	203
2.76267	206
2.76633	210
2.77000	215
2.77367	219
2.77733	222
2.78100	226
2.78467	226
2.78833	226
2.79200	226
2.79567	225
2.79933	228
2.80300	228
2.80667	229
2.81033	231
2.81400	232
2.81767	231
2.82133	230
2.82500	230
2.82867	230
2.83233	233
2.83600	244
2.83967	278
2.84333	351
2.84700	482
2.85067	689
2.85433	988
2.85800	1384
2.86167	1864
2.86533	2400
2.86900	2952
2.87267	3474
2.87633	3919
2.88000	4251
2.88367	4454
2.88733	4523
2.89100	4471
2.89467	4315
2.89833	4080
2.90200	3792
2.90567	3478
2.90933	3158
2.91300	2839
2.91667	2534
2.92033	2262
2.92400	2025
2.92767	1818
2.93133	1643
2.93500	1496
2.93867	1379
2.94233	1287
2.94600	1211
2.94967	1147
2.95333	1093
2.95700	1050
2.96067	1015
2.96433	985
2.96800	960
2.97167	941
2.97533	925
2.97900	911
2.98267	900
2.98633	891
2.99000	883
2.99367	874
2.99733	866
3.00100	861
3.00467	858
3.00833	854
3.01200	850
3.01567	846
3.01933	843
3.02300	840
3.02667	838
3.03033	836
3.03400	836
3.03767	836
3.04133	838
3.04500	839
3.04867	838
3.05233	835
3.05600	834
3.05967	834
3.06333	836
3.06700	837
3.07067	837
3.07433	839
3.07800	840
3.08167	840
3.08533	842
3.08900	842
3.09267	842
3.09633	842
3.10000	840
3.10367	839
3.10733	841
3.11100	843
3.11467	847
3.11833	848
3.12200	847
3.12567	848
3.12933	851
3.13300	853
3.13667	853
3.14033	851
3.14400	850
3.14767	851
3.15133	850
3.15500	850
3.15867	852
3.16233	851
3.16600	849
3.16967	848
3.17333	847
3.17700	846
3.18067	844
3.18433	843
3.18800	844
3.19167	844
3.19533	843
3.19900	842
3.20267	840
3.20633	837
3.21000	835
3.21367	835
3.21733	835
3.22100	832
3.22467	828
3.22833	826
3.23200	824
3.23567	821
3.23933	819
3.24300	818
3.24667	815
3.25033	810
3.25400	808
3.25767	805
3.26133	804
3.26500	801
3.26867	797
3.27233	793
3.27600	788
3.27967	784
3.28333	782
3.28700	779
3.29067	774
3.29433	769
3.29800	765
3.30167	761
3.30533	759
3.30900	755
3.31267	751
3.31633	745
3.32000	738
3.32367	735
3.32733	732
3.33100	732
3.33467	732
3.33833	731
3.34200	727
3.34567	724
3.34933	718
3.35300	713
3.35667	710
3.36033	709
3.36400	705
3.36767	701
3.37133	698
3.37500	695
3.37867	692
3.38233	688
3.38600	683
3.38967	678
3.39333	675
3.39700	673
3.40067	672
3.40433	671
3.40800	668
3.41167	666
3.41533	666
3.41900	664
3.42267	660
3.42633	657
3.43000	656
3.43367	655
3.43733	654
3.44100	655
3.44467	653
3.44833	650
3.45200	649
3.45567	648
3.45933	646
3.46300	644
3.46667	645
3.47033	644
3.47400	641
3.47767	638
3.48133	634
3.48500	630
3.48867	624
3.49233	620
3.49600	618
3.49967	617
3.50333	614
3.50700	613
3.51067	611
3.51433	609
3.51800	608
3.52167	607
3.52533	608
3.52900	610
3.53267	610
3.53633	608
3.54000	608
3.54367	605
3.54733	601
3.55100	598
3.55467	597
3.55833	597
3.56200	595
3.56567	591
3.56933	588
3.57300	586
3.57667	584
3.58033	583
3.58400	585
3.58767	583
3.59133	582
3.59500	582
3.59867	582
3.60233	582
3.60600	581
3.60967	578
3.61333	580
3.61700	580
3.62067	577
3.62433	577
3.62800	579
3.63167	578
3.63533	575
3.63900	574
3.64267	574
3.64633	573
3.65000	571
3.65367	570
3.65733	570
3.66100	569
3.66467	568
3.66833	566
3.67200	563
3.67567	560
3.67933	559
3.68300	559
3.68667	560
3.69033	561
3.69400	561
3.69767	559
3.70133	558
3.70500	556
3.70867	553
3.71233	551
3.71600	551
3.71967	553
3.72333	555
3.72700	555
3.73067	554
3.73433	552
3.73800	551
3.74167	550
3.74533	550
3.74900	549
3.75267	549
3.75633	550
3.76000	548
3.76367	544
3.76733	541
3.77100	538
3.77467	535
3.77833	533
3.78200	534
3.78567	535
3.78933	535
3.79300	534
3.79667	531
3.80033	530
3.80400	529
3.80767	529
3.81133	530
3.81500	531
3.81867	529
3.82233	527
3.82600	527
3.82967	525
3.83333	520
3.83700	517
3.84067	514
3.84433	514
3.84800	517
3.85167	518
3.85533	519
3.85900	520
3.86267	520
3.86633	520
3.87000	517
3.87367	514
3.87733	514
3.88100	514
3.88467	512
3.88833	510
3.89200	506
3.89567	505
3.89933	507
3.90300	508
3.90667	505
3.91033	504
3.91400	501
3.91767	497
3.92133	492
3.92500	490
3.92867	490
3.93233	492
3.93600	493
3.93967	492
3.94333	491
3.94700	492
3.95067	493
3.95433	492
3.95800	490
3.96167	490
3.96533	488
3.96900	485
3.97267	484
3.97633	484
3.98000	482
3.98367	481
3.98733	479
3.99100	479
3.99467	478
3.99833	473

[Status Trace (Column Oven Temperature)]
Interval(msec)	1000
# of Points	240
Start Time(min)	0.013
End Time(min)	3.996
Intensity Units	
Intensity Multiplier	1
R.Time (min)	Intensity
0.01298	35.03
0.02965	35.02
0.04632	35.02
0.06298	35.02
0.07965	35.02
0.09632	35.02
0.11298	35.04
0.12965	35.04
0.14632	35.03
0.16298	35.02
0.17965	35.03
0.19632	35.02
0.21298	35.02
0.22965	35.02
0.24632	35.02
0.26298	35.03
0.27965	35.03
0.29632	35.02
0.31298	35.02
0.32965	35.02
0.34632	35.01
0.36298	35.00
0.37965	35.00
0.39632	34.98
0.41298	34.98
0.42965	34.98
0.44632	34.98
0.46298	34.98
0.47965	34.99
0.49632	35.00
0.51298	35.00
0.52965	35.01
0.54632	35.02
0.56298	35.02
0.57965	35.02
0.59632	35.01
0.61298	35.01
0.62965	35.00
0.64632	35.00
0.66298	35.00
0.67965	35.01
0.69632	35.02
0.71298	35.01
0.72965	35.01
0.74632	35.00
0.76298	34.98
0.77965	34.98
0.79632	34.98
0.81298	34.98
0.82965	34.97
0.84632	34.98
0.86298	34.98
0.87965	34.98
0.89632	34.99
0.91298	34.99
0.92965	35.00
0.94632	35.01
0.96298	35.00
0.97965	35.00
0.99632	35.00
1.01298	34.99
1.02965	34.98
1.04632	34.97
1.06298	34.97
1.07965	34.98
1.09632	34.99
1.11298	35.00
1.12965	35.00
1.14632	34.99
1.16298	35.00
1.17965	35.00
1.19632	34.99
1.21298	34.99
1.22965	35.00
1.24632	34.99
1.26298	34.99
1.27965	34.98
1.29632	34.98
1.31298	34.99
1.32965	34.99
1.34632	34.99
1.36298	34.98
1.37965	34.98
1.39632	34.98
1.41298	34.98
1.42965	34.98
1.44632	34.99
1.46298	34.99
1.47965	34.99
1.49632	35.00
1.51298	35.00
1.52965	35.00
1.54632	35.01
1.56298	35.00
1.57965	35.01
1.59632	35.02
1.61298	35.10
1.62965	35.23
1.64632	35.43
1.66298	35.69
1.67965	36.04
1.69632	36.40
1.71298	36.74
1.72965	37.09
1.74632	37.42
1.76298	37.75
1.77965	38.08
1.79632	38.44
1.81298	38.75
1.82965	39.08
1.84632	39.42
1.86298	39.75
1.87965	40.06
1.89632	40.39
1.91298	40.72
1.92965	41.03
1.94632	41.36
1.96298	41.69
1.97965	42.01
1.99632	42.34
2.01298	42.66
2.02965	42.99
2.04632	43.31
2.06298	43.65
2.07965	43.95
2.09632	44.27
2.11298	44.61
2.12965	44.93
2.14632	45.24
2.16298	45.59
2.17965	45.92
2.19632	46.23
2.21298	46.58
2.22965	46.97
2.24632	47.28
2.26298	47.61
2.27965	47.95
2.29632	48.28
2.31298	48.60
2.32965	48.91
2.34632	49.21
2.36298	49.52
2.37965	49.67
2.39632	49.71
2.41298	49.69
2.42965	49.72
2.44632	49.70
2.46298	49.71
2.47965	49.73
2.49632	49.72
2.51298	49.74
2.52965	49.74
2.54632	49.76
2.56298	49.77
2.57965	49.79
2.59632	49.80
2.61298	49.80
2.62965	49.82
2.64632	49.82
2.66298	49.83
2.67965	49.84
2.69632	49.85
2.71298	49.87
2.72965	49.87
2.74632	49.86
2.76298	49.85
2.77965	49.86
2.79632	49.89
2.81298	49.91
2.82965	49.91
2.84632	49.90
2.86298	49.90
2.87965	49.91
2.89632	49.91
2.91298	49.92
2.92965	49.93
2.94632	49.94
2.96298	49.95
2.97965	49.96
2.99632	49.97
3.01298	49.97
3.02965	49.97
3.04632	49.98
3.06298	49.98
3.07965	49.99
3.09632	50.00
3.11298	50.02
3.12965	50.03
3.14632	50.05
3.16298	50.05
3.17965	50.06
3.19632	50.07
3.21298	50.07
3.22965	50.08
3.24632	50.08
3.26298	50.08
3.27965	50.09
3.29632	50.10
3.31298	50.11
3.32965	50.11
3.34632	50.11
3.36298	50.09
3.37965	50.08
3.39632	50.07
3.41298	50.05
3.42965	50.04
3.44632	50.03
3.46298	50.03
3.47965	50.02
3.49632	50.01
3.51298	50.01
3.52965	50.01
3.54632	50.01
3.56298	50.02
3.57965	50.02
3.59632	50.02
3.61298	50.02
3.62965	50.03
3.64632	50.02
3.66298	50.02
3.67965	50.02
3.69632	50.03
3.71298	50.04
3.72965	50.04
3.74632	50.04
3.76298	50.03
3.77965	50.03
3.79632	50.04
3.81298	50.04
3.82965	50.05
3.84632	50.06
3.86298	50.06
3.87965	50.06
3.89632	50.05
3.91298	50.05
3.92965	50.07
3.94632	50.06
3.96298	50.07
3.97965	50.08
3.99632	50.08

[Status Trace (Injection Unit Temperature)]
Interval(msec)	1000
# of Points	240
Start Time(min)	0.013
End Time(min)	3.996
Intensity Units	
Intensity Multiplier	1
R.Time (min)	Intensity
0.01298	99.98
0.02965	99.97
0.04632	99.98
0.06298	99.98
0.07965	99.98
0.09632	99.98
0.11298	99.98
0.12965	99.98
0.14632	99.98
0.16298	99.98
0.17965	99.98
0.19632	99.98
0.21298	99.98
0.22965	99.98
0.24632	99.98
0.26298	99.98
0.27965	99.98
0.29632	99.98
0.31298	99.98
0.32965	99.98
0.34632	99.98
0.36298	99.98
0.37965	99.98
0.39632	99.98
0.41298	99.98
0.42965	99.98
0.44632	99.98
0.46298	99.98
0.47965	99.98
0.49632	99.98
0.51298	99.98
0.52965	99.98
0.54632	99.98
0.56298	99.98
0.57965	99.99
0.59632	99.98
0.61298	99.98
0.62965	99.99
0.64632	99.98
0.66298	99.98
0.67965	99.99
0.69632	99.98
0.71298	99.98
0.72965	99.98
0.74632	99.98
0.76298	99.98
0.77965	99.98
0.79632	99.98
0.81298	99.98
0.82965	99.98
0.84632	99.98
0.86298	99.98
0.87965	99.98
0.89632	99.98
0.91298	99.98
0.92965	99.98
0.94632	99.98
0.96298	99.98
0.97965	99.98
0.99632	99.98
1.01298	99.98
1.02965	99.98
1.04632	99.98
1.06298	99.98
1.07965	99.98
1.09632	99.98
1.11298	99.98
1.12965	99.98
1.14632	99.98
1.16298	99.98
1.17965	99.98
1.19632	99.98
1.21298	99.98
1.22965	99.98
1.24632	99.98
1.26298	99.98
1.27965	99.98
1.29632	99.98
1.31298	99.97
1.32965	99.98
1.34632	99.98
1.36298	99.98
1.37965	99.98
1.39632	99.98
1.41298	99.98
1.42965	99.98
1.44632	99.98
1.46298	99.98
1.47965	99.98
1.49632	99.98
1.51298	99.98
1.52965	99.99
1.54632	99.99
1.56298	99.99
1.57965	99.98
1.59632	99.99
1.61298	99.99
1.62965	99.99
1.64632	99.98
1.66298	99.99
1.67965	99.99
1.69632	99.99
1.71298	99.99
1.72965	99.99
1.74632	99.99
1.76298	99.98
1.77965	99.98
1.79632	99.99
1.81298	99.99
1.82965	99.99
1.84632	99.98
1.86298	99.98
1.87965	99.98
1.89632	99.98
1.91298	99.98
1.92965	99.98
1.94632	99.98
1.96298	99.98
1.97965	99.98
1.99632	99.98
2.01298	99.98
2.02965	99.97
2.04632	99.97
2.06298	99.98
2.07965	99.97
2.09632	99.98
2.11298	99.97
2.12965	99.97
2.14632	99.97
2.16298	99.97
2.17965	99.97
2.19632	99.97
2.21298	99.97
2.22965	99.97
2.24632	99.97
2.26298	99.97
2.27965	99.96
2.29632	99.97
2.31298	99.97
2.32965	99.97
2.34632	99.97
2.36298	99.96
2.37965	99.96
2.39632	99.97
2.41298	99.97
2.42965	99.97
2.44632	99.97
2.46298	99.97
2.47965	99.97
2.49632	99.97
2.51298	99.97
2.52965	99.97
2.54632	99.97
2.56298	99.97
2.57965	99.97
2.59632	99.97
2.61298	99.97
2.62965	99.97
2.64632	99.97
2.66298	99.98
2.67965	99.98
2.69632	99.98
2.71298	99.98
2.72965	99.99
2.74632	99.98
2.76298	99.99
2.77965	99.99
2.79632	99.99
2.81298	99.99
2.82965	99.99
2.84632	99.99
2.86298	100.00
2.87965	100.00
2.89632	100.00
2.91298	100.00
2.92965	100.00
2.94632	100.00
2.96298	100.00
2.97965	100.01
2.99632	100.01
3.01298	100.01
3.02965	100.01
3.04632	100.01
3.06298	100.01
3.07965	100.01
3.09632	100.01
3.11298	100.01
3.12965	100.02
3.14632	100.02
3.16298	100.02
3.17965	100.02
3.19632	100.02
3.21298	100.02
3.22965	100.02
3.24632	100.02
3.26298	100.02
3.27965	100.02
3.29632	100.02
3.31298	100.02
3.32965	100.03
3.34632	100.03
3.36298	100.03
3.37965	100.03
3.39632	100.03
3.41298	100.03
3.42965	100.03
3.44632	100.03
3.46298	100.03
3.47965	100.03
3.49632	100.03
3.51298	100.03
3.52965	100.03
3.54632	100.03
3.56298	100.04
3.57965	100.04
3.59632	100.04
3.61298	100.04
3.62965	100.04
3.64632	100.04
3.66298	100.04
3.67965	100.04
3.69632	100.04
3.71298	100.04
3.72965	100.04
3.74632	100.04
3.76298	100.05
3.77965	100.05
3.79632	100.05
3.81298	100.04
3.82965	100.05
3.84632	100.05
3.86298	100.05
3.87965	100.05
3.89632	100.05
3.91298	100.05
3.92965	100.05
3.94632	100.05
3.96298	100.05
3.97965	100.05
3.99632	100.05

[Status Trace (Carrier Gas Pressure)]
Interval(msec)	1000
# of Points	240
Start Time(min)	0.013
End Time(min)	3.996
Intensity Units	
Intensity Multiplier	1
R.Time (min)	Intensity
0.01298	57.95
0.02965	55.29
0.04632	57.83
0.06298	59.82
0.07965	58.64
0.09632	57.98
0.11298	58.00
0.12965	58.01
0.14632	58.01
0.16298	58.00
0.17965	58.00
0.19632	58.00
0.21298	58.00
0.22965	58.00
0.24632	58.00
0.26298	58.00
0.27965	58.00
0.29632	58.00
0.31298	58.00
0.32965	58.00
0.34632	58.00
0.36298	58.00
0.37965	58.00
0.39632	58.00
0.41298	58.00
0.42965	58.00
0.44632	58.00
0.46298	58.00
0.47965	58.00
0.49632	58.00
0.51298	58.00
0.52965	58.00
0.54632	58.00
0.56298	58.00
0.57965	58.00
0.59632	58.00
0.61298	58.00
0.62965	58.00
0.64632	58.00
0.66298	58.00
0.67965	58.00
0.69632	58.00
0.71298	58.00
0.72965	58.00
0.74632	58.00
0.76298	58.00
0.77965	58.00
0.79632	58.00
0.81298	58.00
0.82965	58.00
0.84632	58.00
0.86298	58.00
0.87965	58.00
0.89632	58.00
0.91298	58.00
0.92965	58.00
0.94632	58.00
0.96298	58.00
0.97965	58.00
0.99632	58.00
1.01298	58.00
1.02965	58.00
1.04632	58.00
1.06298	58.00
1.07965	58.00
1.09632	58.00
1.11298	58.00
1.12965	58.00
1.14632	58.00
1.16298	58.00
1.17965	58.00
1.19632	58.00
1.21298	58.00
1.22965	58.00
1.24632	58.00
1.26298	58.00
1.27965	58.00
1.29632	58.00
1.31298	58.00
1.32965	58.00
1.34632	58.00
1.36298	58.00
1.37965	58.00
1.39632	58.00
1.41298	58.00
1.42965	58.00
1.44632	58.00
1.46298	58.00
1.47965	58.00
1.49632	58.00
1.51298	58.00
1.52965	58.00
1.54632	58.00
1.56298	58.00
1.57965	58.00
1.59632	58.00
1.61298	58.00
1.62965	58.00
1.64632	58.00
1.66298	58.01
1.67965	58.01
1.69632	58.00
1.71298	58.00
1.72965	58.00
1.74632	58.00
1.76298	58.00
1.77965	58.00
1.79632	58.00
1.81298	58.00
1.82965	58.00
1.84632	58.00
1.86298	58.00
1.87965	58.00
1.89632	58.00
1.91298	58.00
1.92965	58.00
1.94632	58.00
1.96298	58.00
1.97965	58.00
1.99632	58.00
2.01298	58.00
2.02965	58.00
2.04632	58.00
2.06298	58.00
2.07965	58.00
2.09632	58.00
2.11298	58.00
2.12965	58.00
2.14632	58.00
2.16298	58.00
2.17965	58.00
2.19632	58.00
2.21298	58.00
2.22965	58.00
2.24632	58.00
2.26298	58.00
2.27965	58.00
2.29632	58.00
2.31298	58.00
2.32965	58.00
2.34632	58.00
2.36298	58.00
2.37965	57.99
2.39632	57.99
2.41298	58.00
2.42965	58.00
2.44632	58.00
2.46298	58.00
2.47965	58.00
2.49632	58.00
2.51298	57.99
2.52965	57.99
2.54632	58.00
2.56298	58.00
2.57965	58.00
2.59632	58.00
2.61298	58.00
2.62965	58.00
2.64632	58.00
2.66298	58.00
2.67965	58.00
2.69632	58.00
2.71298	58.00
2.72965	58.00
2.74632	58.00
2.76298	58.00
2.77965	58.00
2.79632	58.00
2.81298	58.00
2.82965	58.00
2.84632	58.00
2.86298	58.00
2.87965	58.00
2.89632	58.00
2.91298	58.00
2.92965	58.00
2.94632	58.00
2.96298	58.00
2.97965	58.00
2.99632	58.00
3.01298	58.00
3.02965	58.00
3.04632	58.00
3.06298	58.00
3.07965	58.00
3.09632	58.00
3.11298	58.00
3.12965	58.00
3.14632	58.00
3.16298	58.00
3.17965	58.00
3.19632	58.00
3.21298	58.00
3.22965	58.00
3.24632	58.00
3.26298	58.00
3.27965	58.00
3.29632	58.00
3.31298	58.00
3.32965	58.00
3.34632	58.00
3.36298	58.00
3.37965	58.00
3.39632	58.00
3.41298	58.00
3.42965	58.00
3.44632	58.00
3.46298	58.00
3.47965	58.00
3.49632	58.00
3.51298	58.00
3.52965	58.00
3.54632	58.00
3.56298	58.00
3.57965	58.00
3.59632	58.00
3.61298	58.00
3.62965	58.00
3.64632	58.00
3.66298	58.00
3.67965	58.00
3.69632	58.00
3.71298	58.00
3.72965	58.00
3.74632	58.00
3.76298	58.00
3.77965	58.00
3.79632	58.00
3.81298	58.00
3.82965	58.00
3.84632	58.00
3.86298	58.00
3.87965	58.00
3.89632	58.00
3.91298	58.00
3.92965	58.00
3.94632	58.00
3.96298	58.00
3.97965	58.00
3.99632	58.00

[Status Trace (Carrier Gas Flow)]
Interval(msec)	1000
# of Points	240
Start Time(min)	0.013
End Time(min)	3.996
Intensity Units	
Intensity Multiplier	1
R.Time (min)	Intensity
0.01298	34.69
0.02965	34.54
0.04632	34.55
0.06298	34.51
0.07965	34.51
0.09632	34.52
0.11298	34.52
0.12965	34.52
0.14632	34.52
0.16298	34.52
0.17965	34.52
0.19632	34.52
0.21298	34.52
0.22965	34.52
0.24632	34.53
0.26298	34.51
0.27965	34.51
0.29632	34.52
0.31298	34.51
0.32965	34.52
0.34632	34.52
0.36298	34.52
0.37965	34.52
0.39632	34.52
0.41298	34.53
0.42965	34.52
0.44632	34.52
0.46298	34.52
0.47965	34.51
0.49632	34.52
0.51298	34.52
0.52965	34.51
0.54632	34.52
0.56298	34.53
0.57965	34.53
0.59632	34.51
0.61298	34.51
0.62965	34.52
0.64632	34.52
0.66298	34.52
0.67965	34.52
0.69632	34.52
0.71298	34.52
0.72965	34.52
0.74632	34.52
0.76298	34.52
0.77965	34.52
0.79632	34.52
0.81298	34.52
0.82965	34.53
0.84632	34.52
0.86298	34.53
0.87965	34.52
0.89632	34.52
0.91298	34.52
0.92965	34.52
0.94632	34.53
0.96298	34.52
0.97965	34.51
0.99632	34.52
1.01298	34.52
1.02965	34.52
1.04632	34.52
1.06298	34.52
1.07965	34.52
1.09632	34.52
1.11298	34.52
1.12965	34.52
1.14632	34.52
1.16298	34.52
1.17965	34.52
1.19632	34.52
1.21298	34.52
1.22965	34.51
1.24632	34.52
1.26298	34.52
1.27965	34.51
1.29632	34.52
1.31298	34.52
1.32965	34.52
1.34632	34.52
1.36298	34.52
1.37965	34.52
1.39632	34.52
1.41298	34.52
1.42965	34.52
1.44632	34.52
1.46298	34.52
1.47965	34.52
1.49632	34.52
1.51298	34.52
1.52965	34.52
1.54632	34.52
1.56298	34.52
1.57965	34.52
1.59632	34.52
1.61298	34.52
1.62965	34.52
1.64632	34.52
1.66298	34.52
1.67965	34.52
1.69632	34.52
1.71298	34.52
1.72965	34.52
1.74632	34.52
1.76298	34.52
1.77965	34.52
1.79632	34.52
1.81298	34.52
1.82965	34.52
1.84632	34.52
1.86298	34.52
1.87965	34.52
1.89632	34.52
1.91298	34.52
1.92965	34.52
1.94632	34.52
1.96298	34.52
1.97965	34.52
1.99632	34.52
2.01298	34.51
2.02965	34.52
2.04632	34.52
2.06298	34.52
2.07965	34.52
2.09632	34.52
2.11298	34.52
2.12965	34.52
2.14632	34.52
2.16298	34.52
2.17965	34.52
2.19632	34.52
2.21298	34.52
2.22965	34.52
2.24632	34.52
2.26298	34.51
2.27965	34.52
2.29632	34.52
2.31298	34.52
2.32965	34.52
2.34632	34.52
2.36298	34.52
2.37965	34.52
2.39632	34.52
2.41298	34.52
2.42965	34.52
2.44632	34.52
2.46298	34.52
2.47965	34.52
2.49632	34.52
2.51298	34.51
2.52965	34.52
2.54632	34.52
2.56298	34.52
2.57965	34.52
2.59632	34.52
2.61298	34.52
2.62965	34.52
2.64632	34.52
2.66298	34.52
2.67965	34.51
2.69632	34.51
2.71298	34.52
2.72965	34.52
2.74632	34.52
2.76298	34.52
2.77965	34.52
2.79632	34.52
2.81298	34.52
2.82965	34.52
2.84632	34.52
2.86298	34.52
2.87965	34.52
2.89632	34.53
2.91298	34.52
2.92965	34.52
2.94632	34.51
2.96298	34.52
2.97965	34.52
2.99632	34.51
3.01298	34.52
3.02965	34.52
3.04632	34.52
3.06298	34.51
3.07965	34.52
3.09632	34.52
3.11298	34.52
3.12965	34.52
3.14632	34.52
3.16298	34.52
3.17965	34.52
3.19632	34.52
3.21298	34.52
3.22965	34.52
3.24632	34.52
3.26298	34.52
3.27965	34.52
3.29632	34.52
3.31298	34.51
3.32965	34.52
3.34632	34.53
3.36298	34.52
3.37965	34.52
3.39632	34.52
3.41298	34.52
3.42965	34.52
3.44632	34.52
3.46298	34.52
3.47965	34.52
3.49632	34.52
3.51298	34.52
3.52965	34.52
3.54632	34.52
3.56298	34.52
3.57965	34.52
3.59632	34.52
3.61298	34.52
3.62965	34.52
3.64632	34.52
3.66298	34.52
3.67965	34.52
3.69632	34.52
3.71298	34.52
3.72965	34.51
3.74632	34.51
3.76298	34.52
3.77965	34.52
3.79632	34.52
3.81298	34.51
3.82965	34.51
3.84632	34.52
3.86298	34.52
3.87965	34.51
3.89632	34.52
3.91298	34.52
3.92965	34.52
3.94632	34.52
3.96298	34.52
3.97965	34.52
3.99632	34.52

[Status Trace (Column Flow)]
Interval(msec)	1000
# of Points	240
Start Time(min)	0.013
End Time(min)	3.996
Intensity Units	
Intensity Multiplier	1
R.Time (min)	Intensity
0.01298	5.51
0.02965	5.20
0.04632	5.50
0.06298	5.73
0.07965	5.59
0.09632	5.52
0.11298	5.52
0.12965	5.52
0.14632	5.52
0.16298	5.52
0.17965	5.52
0.19632	5.52
0.21298	5.52
0.22965	5.52
0.24632	5.52
0.26298	5.52
0.27965	5.52
0.29632	5.52
0.31298	5.52
0.32965	5.52
0.34632	5.52
0.36298	5.52
0.37965	5.52
0.39632	5.52
0.41298	5.52
0.42965	5.52
0.44632	5.52
0.46298	5.52
0.47965	5.52
0.49632	5.52
0.51298	5.52
0.52965	5.52
0.54632	5.52
0.56298	5.52
0.57965	5.52
0.59632	5.52
0.61298	5.52
0.62965	5.52
0.64632	5.52
0.66298	5.52
0.67965	5.52
0.69632	5.52
0.71298	5.52
0.72965	5.52
0.74632	5.52
0.76298	5.52
0.77965	5.52
0.79632	5.52
0.81298	5.52
0.82965	5.52
0.84632	5.52
0.86298	5.52
0.87965	5.52
0.89632	5.52
0.91298	5.52
0.92965	5.52
0.94632	5.52
0.96298	5.52
0.97965	5.52
0.99632	5.52
1.01298	5.52
1.02965	5.52
1.04632	5.52
1.06298	5.52
1.07965	5.52
1.09632	5.52
1.11298	5.52
1.12965	5.52
1.14632	5.52
1.16298	5.52
1.17965	5.52
1.19632	5.52
1.21298	5.52
1.22965	5.52
1.24632	5.52
1.26298	5.52
1.27965	5.52
1.29632	5.52
1.31298	5.52
1.32965	5.52
1.34632	5.52
1.36298	5.52
1.37965	5.52
1.39632	5.52
1.41298	5.52
1.42965	5.52
1.44632	5.52
1.46298	5.52
1.47965	5.52
1.49632	5.52
1.51298	5.52
1.52965	5.52
1.54632	5.52
1.56298	5.52
1.57965	5.52
1.59632	5.52
1.61298	5.51
1.62965	5.51
1.64632	5.50
1.66298	5.50
1.67965	5.49
1.69632	5.47
1.71298	5.46
1.72965	5.45
1.74632	5.44
1.76298	5.43
1.77965	5.42
1.79632	5.41
1.81298	5.40
1.82965	5.39
1.84632	5.38
1.86298	5.37
1.87965	5.36
1.89632	5.35
1.91298	5.34
1.92965	5.33
1.94632	5.32
1.96298	5.31
1.97965	5.30
1.99632	5.29
2.01298	5.28
2.02965	5.27
2.04632	5.27
2.06298	5.26
2.07965	5.25
2.09632	5.24
2.11298	5.23
2.12965	5.22
2.14632	5.21
2.16298	5.20
2.17965	5.19
2.19632	5.18
2.21298	5.17
2.22965	5.16
2.24632	5.15
2.26298	5.14
2.27965	5.13
2.29632	5.12
2.31298	5.11
2.32965	5.11
2.34632	5.10
2.36298	5.09
2.37965	5.08
2.39632	5.08
2.41298	5.08
2.42965	5.08
2.44632	5.08
2.46298	5.08
2.47965	5.08
2.49632	5.08
2.51298	5.08
2.52965	5.08
2.54632	5.08
2.56298	5.08
2.57965	5.08
2.59632	5.08
2.61298	5.08
2.62965	5.08
2.64632	5.08
2.66298	5.08
2.67965	5.08
2.69632	5.08
2.71298	5.08
2.72965	5.08
2.74632	5.08
2.76298	5.08
2.77965	5.08
2.79632	5.08
2.81298	5.08
2.82965	5.08
2.84632	5.08
2.86298	5.08
2.87965	5.08
2.89632	5.08
2.91298	5.08
2.92965	5.08
2.94632	5.08
2.96298	5.08
2.97965	5.08
2.99632	5.08
3.01298	5.08
3.02965	5.08
3.04632	5.07
3.06298	5.07
3.07965	5.07
3.09632	5.07
3.11298	5.07
3.12965	5.07
3.14632	5.07
3.16298	5.07
3.17965	5.07
3.19632	5.07
3.21298	5.07
3.22965	5.07
3.24632	5.07
3.26298	5.07
3.27965	5.07
3.29632	5.07
3.31298	5.07
3.32965	5.07
3.34632	5.07
3.36298	5.07
3.37965	5.07
3.39632	5.07
3.41298	5.07
3.42965	5.07
3.44632	5.07
3.46298	5.07
3.47965	5.07
3.49632	5.07
3.51298	5.07
3.52965	5.07
3.54632	5.07
3.56298	5.07
3.57965	5.07
3.59632	5.07
3.61298	5.07
3.62965	5.07
3.64632	5.07
3.66298	5.07
3.67965	5.07
3.69632	5.07
3.71298	5.07
3.72965	5.07
3.74632	5.07
3.76298	5.07
3.77965	5.07
3.79632	5.07
3.81298	5.07
3.82965	5.07
3.84632	5.07
3.86298	5.07
3.87965	5.07
3.89632	5.07
3.91298	5.07
3.92965	5.07
3.94632	5.07
3.96298	5.07
3.97965	5.07
3.99632	5.07

[Status Trace (Linear Velocity)]
Interval(msec)	1000
# of Points	240
Start Time(min)	0.013
End Time(min)	3.996
Intensity Units	
Intensity Multiplier	1
R.Time (min)	Intensity
0.01298	38.98
0.02965	37.23
0.04632	38.90
0.06298	40.20
0.07965	39.44
0.09632	39.00
0.11298	39.01
0.12965	39.02
0.14632	39.02
0.16298	39.02
0.17965	39.02
0.19632	39.01
0.21298	39.02
0.22965	39.01
0.24632	39.01
0.26298	39.01
0.27965	39.01
0.29632	39.01
0.31298	39.01
0.32965	39.01
0.34632	39.01
0.36298	39.01
0.37965	39.02
0.39632	39.02
0.41298	39.02
0.42965	39.02
0.44632	39.02
0.46298	39.02
0.47965	39.02
0.49632	39.02
0.51298	39.02
0.52965	39.01
0.54632	39.01
0.56298	39.01
0.57965	39.01
0.59632	39.02
0.61298	39.01
0.62965	39.02
0.64632	39.02
0.66298	39.02
0.67965	39.02
0.69632	39.01
0.71298	39.01
0.72965	39.01
0.74632	39.02
0.76298	39.02
0.77965	39.02
0.79632	39.02
0.81298	39.02
0.82965	39.02
0.84632	39.02
0.86298	39.02
0.87965	39.02
0.89632	39.02
0.91298	39.02
0.92965	39.02
0.94632	39.02
0.96298	39.02
0.97965	39.02
0.99632	39.02
1.01298	39.02
1.02965	39.02
1.04632	39.02
1.06298	39.02
1.07965	39.02
1.09632	39.02
1.11298	39.02
1.12965	39.02
1.14632	39.02
1.16298	39.02
1.17965	39.02
1.19632	39.02
1.21298	39.02
1.22965	39.02
1.24632	39.02
1.26298	39.02
1.27965	39.02
1.29632	39.02
1.31298	39.02
1.32965	39.02
1.34632	39.02
1.36298	39.02
1.37965	39.02
1.39632	39.02
1.41298	39.02
1.42965	39.02
1.44632	39.02
1.46298	39.02
1.47965	39.02
1.49632	39.02
1.51298	39.02
1.52965	39.02
1.54632	39.02
1.56298	39.02
1.57965	39.02
1.59632	39.01
1.61298	39.01
1.62965	39.00
1.64632	38.98
1.66298	38.95
1.67965	38.92
1.69632	38.88
1.71298	38.85
1.72965	38.82
1.74632	38.79
1.76298	38.75
1.77965	38.72
1.79632	38.69
1.81298	38.66
1.82965	38.63
1.84632	38.60
1.86298	38.56
1.87965	38.54
1.89632	38.50
1.91298	38.47
1.92965	38.44
1.94632	38.41
1.96298	38.38
1.97965	38.35
1.99632	38.32
2.01298	38.29
2.02965	38.26
2.04632	38.23
2.06298	38.20
2.07965	38.18
2.09632	38.15
2.11298	38.12
2.12965	38.09
2.14632	38.06
2.16298	38.03
2.17965	38.00
2.19632	37.97
2.21298	37.94
2.22965	37.90
2.24632	37.87
2.26298	37.84
2.27965	37.81
2.29632	37.78
2.31298	37.76
2.32965	37.73
2.34632	37.70
2.36298	37.67
2.37965	37.66
2.39632	37.65
2.41298	37.66
2.42965	37.66
2.44632	37.66
2.46298	37.66
2.47965	37.65
2.49632	37.65
2.51298	37.65
2.52965	37.65
2.54632	37.65
2.56298	37.65
2.57965	37.65
2.59632	37.65
2.61298	37.65
2.62965	37.65
2.64632	37.65
2.66298	37.65
2.67965	37.65
2.69632	37.65
2.71298	37.64
2.72965	37.64
2.74632	37.64
2.76298	37.65
2.77965	37.64
2.79632	37.64
2.81298	37.64
2.82965	37.64
2.84632	37.64
2.86298	37.64
2.87965	37.64
2.89632	37.64
2.91298	37.64
2.92965	37.64
2.94632	37.64
2.96298	37.64
2.97965	37.63
2.99632	37.63
3.01298	37.63
3.02965	37.63
3.04632	37.63
3.06298	37.63
3.07965	37.63
3.09632	37.63
3.11298	37.63
3.12965	37.63
3.14632	37.63
3.16298	37.63
3.17965	37.63
3.19632	37.63
3.21298	37.63
3.22965	37.62
3.24632	37.62
3.26298	37.62
3.27965	37.62
3.29632	37.62
3.31298	37.62
3.32965	37.62
3.34632	37.62
3.36298	37.62
3.37965	37.62
3.39632	37.63
3.41298	37.63
3.42965	37.63
3.44632	37.63
3.46298	37.63
3.47965	37.63
3.49632	37.63
3.51298	37.63
3.52965	37.63
3.54632	37.63
3.56298	37.63
3.57965	37.63
3.59632	37.63
3.61298	37.63
3.62965	37.63
3.64632	37.63
3.66298	37.63
3.67965	37.63
3.69632	37.63
3.71298	37.63
3.72965	37.63
3.74632	37.63
3.76298	37.63
3.77965	37.63
3.79632	37.63
3.81298	37.63
3.82965	37.63
3.84632	37.63
3.86298	37.63
3.87965	37.63
3.89632	37.63
3.91298	37.63
3.92965	37.63
3.94632	37.63
3.96298	37.63
3.97965	37.62
3.99632	37.62

