[Header]
Application Name	LabSolutions
Version	5.110
Data File Name	C:\Users\User\Desktop\GC Analyses\Jack\UIC Prairie Sampling\10.19.22\221019_037.gcd
Output Date	1/4/2023
Output Time	2:27:26 PM

[File Information]
Type	Data File
Generated	12/6/2022 11:04:52 AM
Generated by	System Administrator
Modified	12/6/2022 11:09:15 AM
Modified by	System Administrator

[Sample Information]
Operator Name	System Administrator
Acquired	12/6/2022 11:05:14 AM
Sample Type	1:Standard
Level	1
Sample Name	221019_UICPrairie
Sample ID	221019_UICPrairie
ISTD Amount1	1
ISTD Amount2	1
ISTD Amount3	1
ISTD Amount4	1
ISTD Amount5	1
ISTD Amount6	1
ISTD Amount7	1
ISTD Amount8	1
ISTD Amount9	1
ISTD Amount10	1
ISTD Amount11	1
ISTD Amount12	1
ISTD Amount13	1
ISTD Amount14	1
ISTD Amount15	1
ISTD Amount16	1
ISTD Amount17	1
ISTD Amount18	1
ISTD Amount19	1
ISTD Amount20	1
ISTD Amount21	1
ISTD Amount22	1
ISTD Amount23	1
ISTD Amount24	1
ISTD Amount25	1
ISTD Amount26	1
ISTD Amount27	1
ISTD Amount28	1
ISTD Amount29	1
ISTD Amount30	1
ISTD Amount31	1
ISTD Amount32	1
Sample Amount	1
Dilution Factor	1
Vial#	1
Injection Volume	1
Injection Count	1
Bar Code	

[Original Files]
Data File	C:\Users\User\Desktop\GC Analyses\Jack\UIC Prairie Sampling\10.19.22\221019_037.gcd
Method File	C:\LabSolutions\Data\GHG_4min_2022\ghg3_togas_w_acet_4 min_new_int.gcm
Batch File	
Report Format File	c:\LabSolutions\System\DEFAULT.lsr

[File Description]


[Configuration]
Instrument Name	C0B7VH3-Instrument1
Instrument #	1
Line #	1
# of Detectors	3
Detector ID	DET#1	DET#2	DET#3
Detector Name	FID	PTCD	ECD
# of Channels	1	1	1

[Peak Table(Ch1)]
# of Peaks	3
Peak#	R.Time	I.Time	F.Time	Area	Height	A/H	Conc.	Mark	ID#	Name	k'	Plate #	Plate Ht.	Tailing	Resolution	Sep.Factor	Area Ratio	Height Ratio	Conc. %	Norm Conc.
1	1.476	1.439	1.538	9272	3979	2.330	100.000	   	1	CO	0.000	7922	18.934	1.283	0.000	0.000	0	0	16.667	16.667
2	1.571	1.538	1.619	4576	2287	2.001	100.000	 V 	2	CH4	0.065	11167	13.433	1.026	1.516	0.000	0	0	16.667	16.667
3	2.000	1.949	2.535	1096051	512213	2.140	400.000	   	3	CO2	0.355	17361	8.640	1.198	7.139	5.500	0	0	66.667	66.667

[Peak Table(Ch2)]
# of Peaks	0

[Peak Table(Ch3)]
# of Peaks	5
Peak#	R.Time	I.Time	F.Time	Area	Height	A/H	Conc.	Mark	ID#	Name	k'	Plate #	Plate Ht.	Tailing	Resolution	Sep.Factor	Area Ratio	Height Ratio	Conc. %	Norm Conc.
1	2.458	2.235	2.499	2527	474	5.331	0.000	   			0.000	7902	18.982	0.000	0.000	0.000	0	0	0.000	0.000
2	2.513	2.499	2.554	833	296	2.814	0.000	 V 			0.022	1950	76.914	0.000	0.325	0.000	0	0	0.000	0.000
3	2.605	2.554	2.653	1170	298	3.933	0.000	 V 			0.060	6024	24.899	0.000	0.507	2.667	0	0	0.000	0.000
4	2.884	2.796	3.056	26825	5776	4.644	1.000	   	1	N2O	0.173	11510	13.033	0.000	2.305	2.900	0	0	100.000	100.000
5	3.107	3.056	3.932	14090	574	24.543	0.000	 V 			0.264	69	2185.165	0.000	0.278	1.526	0	0	0.000	0.000

[Compound Results(Ch1)]
# of IDs	6
ID#	Name	R.Time	Area	Height	Conc.	Curve	3rd	2nd	1st	Constant	Area Ratio	Height Ratio	Conc. %	Norm Conc.
1	CO	1.476	9272	3979	100.000	Linear	0.000000e+00	0.000000e+00	9.272222e+001	0.000000e+00	0	0	16.667	16.667
2	CH4	1.571	4576	2287	100.000	Linear	0.000000e+00	0.000000e+00	4.576371e+001	0.000000e+00	0	0	16.667	16.667
3	CO2	2.000	1096051	512213	400.000	Linear	0.000000e+00	0.000000e+00	2.740127e+003	0.000000e+00	0	0	66.667	66.667
4	Ethylene	0.000	0	0	0.000	Linear	0.000000e+00	0.000000e+00	0.000000e+00	0.000000e+00	0	0	0.000	0.000
5	Acetylene	0.000	0	0	0.000	Linear	0.000000e+00	0.000000e+00	0.000000e+00	0.000000e+00	0	0	0.000	0.000
6	Ethane	0.000	0	0	0.000	Linear	0.000000e+00	0.000000e+00	0.000000e+00	0.000000e+00	0	0	0.000	0.000

[Compound Results(Ch2)]
# of IDs	5
ID#	Name	R.Time	Area	Height	Conc.	Curve	3rd	2nd	1st	Constant	Area Ratio	Height Ratio	Conc. %	Norm Conc.
1	Hydrogen	0.000	0	0	0.000	Linear	0.000000e+00	0.000000e+00	0.000000e+00	0.000000e+00	0	0	0.000	0.000
2	Oxygen	0.000	0	0	0.000	Linear	0.000000e+00	0.000000e+00	0.000000e+00	0.000000e+00	0	0	0.000	0.000
3	Nitrogen	0.000	0	0	0.000	Linear	0.000000e+00	0.000000e+00	0.000000e+00	0.000000e+00	0	0	0.000	0.000
4	Methane	0.000	0	0	0.000	Linear	0.000000e+00	0.000000e+00	0.000000e+00	0.000000e+00	0	0	0.000	0.000
5	Carbon Monoxide	0.000	0	0	0.000	Linear	0.000000e+00	0.000000e+00	0.000000e+00	0.000000e+00	0	0	0.000	0.000

[Compound Results(Ch3)]
# of IDs	2
ID#	Name	R.Time	Area	Height	Conc.	Curve	3rd	2nd	1st	Constant	Area Ratio	Height Ratio	Conc. %	Norm Conc.
1	N2O	2.884	26825	5776	1.000	Linear	0.000000e+00	0.000000e+00	2.682545e+004	0.000000e+00	0	0	100.000	100.000
2	SF6	0.000	0	0	0.000	Linear	0.000000e+00	0.000000e+00	0.000000e+00	0.000000e+00	0	0	0.000	0.000

[Group Results(Ch1)]
# of Groups	0

[Group Results(Ch2)]
# of Groups	0

[Group Results(Ch3)]
# of Groups	0

[Chromatogram (Ch1)]
Interval(msec)	220
# of Points	1091
Start Time(min)	0.002
End Time(min)	3.998
R.Time (min)	Intensity
0.00167	16
0.00533	18
0.00900	21
0.01267	24
0.01633	25
0.02000	22
0.02367	17
0.02733	10
0.03100	5
0.03467	2
0.03833	-1
0.04200	-1
0.04567	-0
0.04933	3
0.05300	5
0.05667	2
0.06033	-2
0.06400	-4
0.06767	-4
0.07133	-1
0.07500	3
0.07867	4
0.08233	4
0.08600	6
0.08967	4
0.09333	4
0.09700	6
0.10067	6
0.10433	2
0.10800	-3
0.11167	-5
0.11533	-4
0.11900	-2
0.12267	-3
0.12633	-5
0.13000	-5
0.13367	-4
0.13733	-2
0.14100	-3
0.14467	-7
0.14833	-13
0.15200	-19
0.15567	-23
0.15933	-24
0.16300	-25
0.16667	-23
0.17033	-17
0.17400	-9
0.17767	-4
0.18133	1
0.18500	3
0.18867	2
0.19233	-0
0.19600	-1
0.19967	-3
0.20333	-7
0.20700	-12
0.21067	-19
0.21433	-23
0.21800	-25
0.22167	-22
0.22533	-19
0.22900	-17
0.23267	-18
0.23633	-19
0.24000	-13
0.24367	-7
0.24733	-4
0.25100	-2
0.25467	1
0.25833	4
0.26200	6
0.26567	6
0.26933	4
0.27300	2
0.27667	-1
0.28033	-8
0.28400	-18
0.28767	-26
0.29133	-31
0.29500	-30
0.29867	-26
0.30233	-20
0.30600	-13
0.30967	-7
0.31333	-5
0.31700	-7
0.32067	-12
0.32433	-17
0.32800	-19
0.33167	-18
0.33533	-17
0.33900	-11
0.34267	-2
0.34633	2
0.35000	0
0.35367	-6
0.35733	-10
0.36100	-11
0.36467	-9
0.36833	-8
0.37200	-9
0.37567	-11
0.37933	-15
0.38300	-18
0.38667	-20
0.39033	-21
0.39400	-22
0.39767	-24
0.40133	-32
0.40500	-37
0.40867	-38
0.41233	-33
0.41600	-27
0.41967	-21
0.42333	-18
0.42700	-15
0.43067	-12
0.43433	-12
0.43800	-11
0.44167	-10
0.44533	-12
0.44900	-12
0.45267	-13
0.45633	-11
0.46000	-4
0.46367	6
0.46733	12
0.47100	8
0.47467	-2
0.47833	-12
0.48200	-24
0.48567	-37
0.48933	-50
0.49300	-59
0.49667	-63
0.50033	-64
0.50400	-62
0.50767	-60
0.51133	-56
0.51500	-49
0.51867	-36
0.52233	-21
0.52600	-8
0.52967	-2
0.53333	-0
0.53700	-1
0.54067	-3
0.54433	-5
0.54800	-5
0.55167	-9
0.55533	-20
0.55900	-38
0.56267	-56
0.56633	-67
0.57000	-72
0.57367	-72
0.57733	-68
0.58100	-63
0.58467	-55
0.58833	-43
0.59200	-31
0.59567	-27
0.59933	-25
0.60300	-22
0.60667	-21
0.61033	-23
0.61400	-24
0.61767	-24
0.62133	-23
0.62500	-24
0.62867	-26
0.63233	-26
0.63600	-23
0.63967	-21
0.64333	-19
0.64700	-19
0.65067	-20
0.65433	-21
0.65800	-23
0.66167	-23
0.66533	-23
0.66900	-22
0.67267	-18
0.67633	-18
0.68000	-21
0.68367	-25
0.68733	-30
0.69100	-35
0.69467	-39
0.69833	-42
0.70200	-44
0.70567	-46
0.70933	-49
0.71300	-51
0.71667	-49
0.72033	-43
0.72400	-33
0.72767	-26
0.73133	-22
0.73500	-22
0.73867	-25
0.74233	-29
0.74600	-33
0.74967	-34
0.75333	-33
0.75700	-30
0.76067	-24
0.76433	-20
0.76800	-14
0.77167	-3
0.77533	2
0.77900	2
0.78267	-5
0.78633	-15
0.79000	-23
0.79367	-33
0.79733	-43
0.80100	-49
0.80467	-52
0.80833	-54
0.81200	-55
0.81567	-55
0.81933	-53
0.82300	-47
0.82667	-41
0.83033	-41
0.83400	-40
0.83767	-36
0.84133	-27
0.84500	-17
0.84867	-11
0.85233	-11
0.85600	-14
0.85967	-20
0.86333	-30
0.86700	-41
0.87067	-49
0.87433	-52
0.87800	-53
0.88167	-51
0.88533	-48
0.88900	-46
0.89267	-48
0.89633	-48
0.90000	-48
0.90367	-46
0.90733	-42
0.91100	-40
0.91467	-42
0.91833	-46
0.92200	-48
0.92567	-51
0.92933	-53
0.93300	-51
0.93667	-48
0.94033	-44
0.94400	-42
0.94767	-43
0.95133	-47
0.95500	-53
0.95867	-59
0.96233	-62
0.96600	-62
0.96967	-59
0.97333	-53
0.97700	-47
0.98067	-44
0.98433	-43
0.98800	-44
0.99167	-47
0.99533	-51
0.99900	-55
1.00267	-58
1.00633	-58
1.01000	-53
1.01367	-49
1.01733	-47
1.02100	-50
1.02467	-56
1.02833	-64
1.03200	-69
1.03567	-70
1.03933	-67
1.04300	-62
1.04667	-56
1.05033	-49
1.05400	-44
1.05767	-43
1.06133	-49
1.06500	-60
1.06867	-68
1.07233	-68
1.07600	-68
1.07967	-68
1.08333	-67
1.08700	-70
1.09067	-74
1.09433	-76
1.09800	-74
1.10167	-69
1.10533	-63
1.10900	-57
1.11267	-55
1.11633	-56
1.12000	-59
1.12367	-60
1.12733	-60
1.13100	-64
1.13467	-69
1.13833	-70
1.14200	-68
1.14567	-65
1.14933	-61
1.15300	-59
1.15667	-60
1.16033	-63
1.16400	-68
1.16767	-72
1.17133	-71
1.17500	-68
1.17867	-67
1.18233	-69
1.18600	-68
1.18967	-69
1.19333	-74
1.19700	-78
1.20067	-81
1.20433	-79
1.20800	-74
1.21167	-67
1.21533	-60
1.21900	-57
1.22267	-60
1.22633	-68
1.23000	-75
1.23367	-82
1.23733	-88
1.24100	-89
1.24467	-86
1.24833	-82
1.25200	-76
1.25567	-71
1.25933	-68
1.26300	-68
1.26667	-68
1.27033	-67
1.27400	-67
1.27767	-70
1.28133	-71
1.28500	-74
1.28867	-78
1.29233	-78
1.29600	-76
1.29967	-71
1.30333	-67
1.30700	-66
1.31067	-64
1.31433	-61
1.31800	-59
1.32167	-62
1.32533	-67
1.32900	-71
1.33267	-77
1.33633	-81
1.34000	-82
1.34367	-81
1.34733	-80
1.35100	-79
1.35467	-76
1.35833	-69
1.36200	-60
1.36567	-57
1.36933	-58
1.37300	-63
1.37667	-68
1.38033	-73
1.38400	-78
1.38767	-83
1.39133	-86
1.39500	-87
1.39867	-90
1.40233	-94
1.40600	-96
1.40967	-93
1.41333	-87
1.41700	-83
1.42067	-84
1.42433	-88
1.42800	-92
1.43167	-94
1.43533	-94
1.43900	-75
1.44267	18
1.44633	232
1.45000	542
1.45367	972
1.45733	1556
1.46100	2225
1.46467	2856
1.46833	3369
1.47200	3729
1.47567	3908
1.47933	3876
1.48300	3618
1.48667	3170
1.49033	2621
1.49400	2066
1.49767	1570
1.50133	1163
1.50500	848
1.50867	612
1.51233	441
1.51600	315
1.51967	219
1.52333	150
1.52700	102
1.53067	70
1.53433	52
1.53800	52
1.54167	100
1.54533	257
1.54900	560
1.55267	971
1.55633	1403
1.56000	1777
1.56367	2057
1.56733	2218
1.57100	2229
1.57467	2070
1.57833	1766
1.58200	1394
1.58567	1024
1.58933	708
1.59300	467
1.59667	298
1.60033	177
1.60400	89
1.60767	27
1.61133	-14
1.61500	-39
1.61867	-52
1.62233	-57
1.62600	-58
1.62967	-58
1.63333	-59
1.63700	-61
1.64067	-67
1.64433	-74
1.64800	-79
1.65167	-83
1.65533	-84
1.65900	-82
1.66267	-83
1.66633	-83
1.67000	-81
1.67367	-80
1.67733	-80
1.68100	-81
1.68467	-84
1.68833	-87
1.69200	-85
1.69567	-81
1.69933	-78
1.70300	-79
1.70667	-85
1.71033	-87
1.71400	-88
1.71767	-86
1.72133	-81
1.72500	-76
1.72867	-75
1.73233	-80
1.73600	-88
1.73967	-97
1.74333	-101
1.74700	-104
1.75067	-107
1.75433	-110
1.75800	-111
1.76167	-111
1.76533	-110
1.76900	-109
1.77267	-106
1.77633	-99
1.78000	-92
1.78367	-86
1.78733	-82
1.79100	-82
1.79467	-83
1.79833	-86
1.80200	-92
1.80567	-97
1.80933	-102
1.81300	-108
1.81667	-113
1.82033	-114
1.82400	-111
1.82767	-104
1.83133	-97
1.83500	-93
1.83867	-93
1.84233	-99
1.84600	-106
1.84967	-109
1.85333	-107
1.85700	-101
1.86067	-93
1.86433	-88
1.86800	-88
1.87167	-94
1.87533	-103
1.87900	-111
1.88267	-117
1.88633	-123
1.89000	-127
1.89367	-126
1.89733	-117
1.90100	-108
1.90467	-100
1.90833	-96
1.91200	-94
1.91567	-96
1.91933	-95
1.92300	-89
1.92667	-85
1.93033	-85
1.93400	-83
1.93767	-78
1.94133	-74
1.94500	-70
1.94867	-65
1.95233	-54
1.95600	12
1.95967	387
1.96333	2142
1.96700	8490
1.97067	26039
1.97433	63734
1.97800	127566
1.98167	214449
1.98533	311521
1.98900	402038
1.99267	471562
1.99633	510033
2.00000	512179
2.00367	479049
2.00733	418666
2.01100	343869
2.01467	267835
2.01833	200047
2.02200	145006
2.02567	103216
2.02933	72933
2.03300	51656
2.03667	36989
2.04033	26974
2.04400	20147
2.04767	15467
2.05133	12218
2.05500	9924
2.05867	8272
2.06233	7059
2.06600	6146
2.06967	5442
2.07333	4889
2.07700	4441
2.08067	4065
2.08433	3741
2.08800	3463
2.09167	3221
2.09533	3014
2.09900	2834
2.10267	2676
2.10633	2537
2.11000	2410
2.11367	2290
2.11733	2178
2.12100	2076
2.12467	1984
2.12833	1900
2.13200	1821
2.13567	1748
2.13933	1683
2.14300	1624
2.14667	1570
2.15033	1519
2.15400	1472
2.15767	1426
2.16133	1380
2.16500	1334
2.16867	1290
2.17233	1248
2.17600	1209
2.17967	1174
2.18333	1144
2.18700	1115
2.19067	1086
2.19433	1056
2.19800	1027
2.20167	1003
2.20533	983
2.20900	961
2.21267	934
2.21633	907
2.22000	881
2.22367	856
2.22733	834
2.23100	817
2.23467	802
2.23833	787
2.24200	773
2.24567	759
2.24933	746
2.25300	736
2.25667	723
2.26033	708
2.26400	691
2.26767	671
2.27133	653
2.27500	638
2.27867	626
2.28233	615
2.28600	603
2.28967	588
2.29333	577
2.29700	570
2.30067	562
2.30433	553
2.30800	543
2.31167	533
2.31533	526
2.31900	522
2.32267	519
2.32633	512
2.33000	505
2.33367	501
2.33733	493
2.34100	483
2.34467	474
2.34833	470
2.35200	467
2.35567	462
2.35933	453
2.36300	444
2.36667	435
2.37033	429
2.37400	422
2.37767	416
2.38133	410
2.38500	405
2.38867	402
2.39233	403
2.39600	408
2.39967	410
2.40333	409
2.40700	403
2.41067	393
2.41433	381
2.41800	372
2.42167	367
2.42533	365
2.42900	362
2.43267	357
2.43633	350
2.44000	344
2.44367	338
2.44733	338
2.45100	342
2.45467	346
2.45833	345
2.46200	340
2.46567	334
2.46933	330
2.47300	328
2.47667	324
2.48033	316
2.48400	311
2.48767	309
2.49133	311
2.49500	311
2.49867	311
2.50233	308
2.50600	304
2.50967	296
2.51333	288
2.51700	285
2.52067	286
2.52433	292
2.52800	297
2.53167	298
2.53533	294
2.53900	290
2.54267	284
2.54633	279
2.55000	274
2.55367	270
2.55733	269
2.56100	271
2.56467	273
2.56833	271
2.57200	264
2.57567	254
2.57933	246
2.58300	244
2.58667	245
2.59033	247
2.59400	248
2.59767	246
2.60133	239
2.60500	234
2.60867	229
2.61233	225
2.61600	224
2.61967	226
2.62333	227
2.62700	227
2.63067	226
2.63433	226
2.63800	229
2.64167	232
2.64533	235
2.64900	236
2.65267	233
2.65633	225
2.66000	217
2.66367	211
2.66733	206
2.67100	202
2.67467	197
2.67833	192
2.68200	189
2.68567	192
2.68933	196
2.69300	199
2.69667	202
2.70033	203
2.70400	204
2.70767	203
2.71133	200
2.71500	197
2.71867	195
2.72233	193
2.72600	188
2.72967	182
2.73333	177
2.73700	177
2.74067	177
2.74433	175
2.74800	172
2.75167	169
2.75533	168
2.75900	168
2.76267	167
2.76633	169
2.77000	175
2.77367	182
2.77733	185
2.78100	187
2.78467	188
2.78833	186
2.79200	184
2.79567	178
2.79933	166
2.80300	154
2.80667	144
2.81033	138
2.81400	134
2.81767	133
2.82133	132
2.82500	134
2.82867	138
2.83233	147
2.83600	155
2.83967	159
2.84333	156
2.84700	150
2.85067	146
2.85433	144
2.85800	143
2.86167	141
2.86533	142
2.86900	144
2.87267	145
2.87633	143
2.88000	141
2.88367	136
2.88733	130
2.89100	126
2.89467	124
2.89833	123
2.90200	123
2.90567	124
2.90933	126
2.91300	129
2.91667	132
2.92033	132
2.92400	129
2.92767	124
2.93133	120
2.93500	116
2.93867	119
2.94233	122
2.94600	125
2.94967	127
2.95333	128
2.95700	129
2.96067	128
2.96433	124
2.96800	120
2.97167	117
2.97533	118
2.97900	123
2.98267	129
2.98633	132
2.99000	133
2.99367	133
2.99733	131
3.00100	128
3.00467	125
3.00833	123
3.01200	124
3.01567	126
3.01933	125
3.02300	122
3.02667	116
3.03033	108
3.03400	100
3.03767	96
3.04133	94
3.04500	93
3.04867	93
3.05233	95
3.05600	97
3.05967	95
3.06333	90
3.06700	86
3.07067	84
3.07433	82
3.07800	80
3.08167	77
3.08533	78
3.08900	79
3.09267	78
3.09633	76
3.10000	72
3.10367	71
3.10733	74
3.11100	76
3.11467	79
3.11833	80
3.12200	79
3.12567	78
3.12933	80
3.13300	82
3.13667	82
3.14033	80
3.14400	79
3.14767	78
3.15133	75
3.15500	70
3.15867	65
3.16233	59
3.16600	56
3.16967	54
3.17333	54
3.17700	58
3.18067	63
3.18433	66
3.18800	67
3.19167	71
3.19533	74
3.19900	78
3.20267	82
3.20633	87
3.21000	90
3.21367	91
3.21733	86
3.22100	76
3.22467	66
3.22833	63
3.23200	62
3.23567	64
3.23933	68
3.24300	71
3.24667	74
3.25033	75
3.25400	76
3.25767	74
3.26133	68
3.26500	61
3.26867	53
3.27233	45
3.27600	39
3.27967	34
3.28333	31
3.28700	34
3.29067	41
3.29433	48
3.29800	50
3.30167	49
3.30533	48
3.30900	51
3.31267	52
3.31633	48
3.32000	43
3.32367	43
3.32733	45
3.33100	45
3.33467	46
3.33833	50
3.34200	54
3.34567	56
3.34933	57
3.35300	54
3.35667	49
3.36033	44
3.36400	44
3.36767	45
3.37133	46
3.37500	49
3.37867	48
3.38233	42
3.38600	36
3.38967	32
3.39333	31
3.39700	32
3.40067	35
3.40433	35
3.40800	35
3.41167	36
3.41533	37
3.41900	37
3.42267	37
3.42633	40
3.43000	44
3.43367	48
3.43733	48
3.44100	46
3.44467	43
3.44833	42
3.45200	43
3.45567	42
3.45933	42
3.46300	43
3.46667	45
3.47033	47
3.47400	49
3.47767	49
3.48133	47
3.48500	45
3.48867	41
3.49233	35
3.49600	29
3.49967	25
3.50333	29
3.50700	37
3.51067	44
3.51433	47
3.51800	48
3.52167	44
3.52533	38
3.52900	32
3.53267	28
3.53633	27
3.54000	25
3.54367	22
3.54733	21
3.55100	23
3.55467	27
3.55833	34
3.56200	38
3.56567	37
3.56933	36
3.57300	34
3.57667	32
3.58033	30
3.58400	28
3.58767	27
3.59133	30
3.59500	35
3.59867	39
3.60233	39
3.60600	36
3.60967	31
3.61333	25
3.61700	19
3.62067	14
3.62433	10
3.62800	8
3.63167	8
3.63533	10
3.63900	14
3.64267	15
3.64633	11
3.65000	10
3.65367	12
3.65733	18
3.66100	25
3.66467	32
3.66833	37
3.67200	39
3.67567	37
3.67933	35
3.68300	33
3.68667	30
3.69033	24
3.69400	16
3.69767	9
3.70133	3
3.70500	-0
3.70867	-1
3.71233	1
3.71600	5
3.71967	9
3.72333	12
3.72700	13
3.73067	14
3.73433	15
3.73800	15
3.74167	18
3.74533	23
3.74900	27
3.75267	30
3.75633	31
3.76000	29
3.76367	24
3.76733	21
3.77100	19
3.77467	17
3.77833	18
3.78200	20
3.78567	20
3.78933	18
3.79300	14
3.79667	11
3.80033	11
3.80400	11
3.80767	11
3.81133	10
3.81500	10
3.81867	9
3.82233	6
3.82600	2
3.82967	0
3.83333	3
3.83700	10
3.84067	17
3.84433	22
3.84800	25
3.85167	27
3.85533	26
3.85900	21
3.86267	14
3.86633	8
3.87000	6
3.87367	6
3.87733	5
3.88100	5
3.88467	6
3.88833	9
3.89200	14
3.89567	18
3.89933	20
3.90300	20
3.90667	18
3.91033	12
3.91400	6
3.91767	2
3.92133	-3
3.92500	-7
3.92867	-9
3.93233	-8
3.93600	-8
3.93967	-6
3.94333	-2
3.94700	4
3.95067	9
3.95433	13
3.95800	16
3.96167	21
3.96533	26
3.96900	26
3.97267	24
3.97633	20
3.98000	19
3.98367	17
3.98733	15
3.99100	13
3.99467	10
3.99833	7

[Chromatogram (Ch2)]
Interval(msec)	220
# of Points	1091
Start Time(min)	0.002
End Time(min)	3.998
R.Time (min)	Intensity
0.00167	0
0.00533	0
0.00900	0
0.01267	0
0.01633	0
0.02000	1
0.02367	1
0.02733	1
0.03100	1
0.03467	1
0.03833	1
0.04200	1
0.04567	1
0.04933	1
0.05300	1
0.05667	2
0.06033	2
0.06400	2
0.06767	2
0.07133	2
0.07500	2
0.07867	2
0.08233	2
0.08600	2
0.08967	2
0.09333	2
0.09700	2
0.10067	3
0.10433	3
0.10800	3
0.11167	3
0.11533	3
0.11900	3
0.12267	2
0.12633	2
0.13000	3
0.13367	3
0.13733	3
0.14100	3
0.14467	3
0.14833	3
0.15200	3
0.15567	3
0.15933	4
0.16300	3
0.16667	3
0.17033	3
0.17400	3
0.17767	3
0.18133	2
0.18500	2
0.18867	2
0.19233	3
0.19600	3
0.19967	3
0.20333	3
0.20700	3
0.21067	3
0.21433	3
0.21800	3
0.22167	3
0.22533	3
0.22900	3
0.23267	3
0.23633	3
0.24000	3
0.24367	3
0.24733	2
0.25100	2
0.25467	2
0.25833	2
0.26200	2
0.26567	2
0.26933	2
0.27300	2
0.27667	2
0.28033	2
0.28400	2
0.28767	2
0.29133	2
0.29500	2
0.29867	2
0.30233	2
0.30600	2
0.30967	2
0.31333	2
0.31700	2
0.32067	2
0.32433	2
0.32800	2
0.33167	2
0.33533	2
0.33900	1
0.34267	1
0.34633	1
0.35000	1
0.35367	1
0.35733	0
0.36100	0
0.36467	0
0.36833	0
0.37200	0
0.37567	-0
0.37933	-0
0.38300	-0
0.38667	-0
0.39033	-0
0.39400	-0
0.39767	-0
0.40133	-1
0.40500	-1
0.40867	-1
0.41233	-1
0.41600	-1
0.41967	-1
0.42333	-1
0.42700	-1
0.43067	-1
0.43433	-1
0.43800	-1
0.44167	-1
0.44533	-1
0.44900	-1
0.45267	-1
0.45633	-1
0.46000	-1
0.46367	-1
0.46733	-1
0.47100	-1
0.47467	-0
0.47833	-0
0.48200	0
0.48567	0
0.48933	0
0.49300	1
0.49667	1
0.50033	1
0.50400	1
0.50767	1
0.51133	1
0.51500	1
0.51867	1
0.52233	1
0.52600	1
0.52967	1
0.53333	1
0.53700	1
0.54067	1
0.54433	2
0.54800	2
0.55167	2
0.55533	2
0.55900	2
0.56267	1
0.56633	1
0.57000	1
0.57367	1
0.57733	1
0.58100	0
0.58467	0
0.58833	0
0.59200	-0
0.59567	-0
0.59933	-0
0.60300	-0
0.60667	-1
0.61033	-1
0.61400	-1
0.61767	-1
0.62133	-0
0.62500	-0
0.62867	-0
0.63233	-0
0.63600	-0
0.63967	-0
0.64333	-0
0.64700	-0
0.65067	-0
0.65433	-0
0.65800	-0
0.66167	-1
0.66533	-1
0.66900	-1
0.67267	-1
0.67633	-1
0.68000	-1
0.68367	-1
0.68733	-1
0.69100	-1
0.69467	-1
0.69833	-1
0.70200	-1
0.70567	-1
0.70933	-1
0.71300	-1
0.71667	-2
0.72033	-2
0.72400	-2
0.72767	-1
0.73133	-1
0.73500	-1
0.73867	-1
0.74233	-1
0.74600	-1
0.74967	-1
0.75333	-0
0.75700	-0
0.76067	-0
0.76433	-0
0.76800	-1
0.77167	-1
0.77533	-1
0.77900	-0
0.78267	-0
0.78633	-0
0.79000	-1
0.79367	-1
0.79733	-1
0.80100	-1
0.80467	-1
0.80833	-1
0.81200	-1
0.81567	-1
0.81933	-1
0.82300	-1
0.82667	-1
0.83033	-1
0.83400	-1
0.83767	-1
0.84133	-1
0.84500	-1
0.84867	-1
0.85233	-1
0.85600	-1
0.85967	-1
0.86333	-2
0.86700	-2
0.87067	-2
0.87433	-2
0.87800	-2
0.88167	-3
0.88533	-3
0.88900	-3
0.89267	-3
0.89633	-3
0.90000	-3
0.90367	-3
0.90733	-3
0.91100	-3
0.91467	-2
0.91833	-2
0.92200	-2
0.92567	-2
0.92933	-3
0.93300	-3
0.93667	-2
0.94033	-2
0.94400	-2
0.94767	-2
0.95133	-2
0.95500	-2
0.95867	-2
0.96233	-2
0.96600	-1
0.96967	-1
0.97333	-1
0.97700	-1
0.98067	-1
0.98433	-1
0.98800	-1
0.99167	-1
0.99533	-1
0.99900	-1
1.00267	-1
1.00633	-1
1.01000	-1
1.01367	-1
1.01733	-0
1.02100	-0
1.02467	-0
1.02833	-0
1.03200	-0
1.03567	-0
1.03933	-0
1.04300	-1
1.04667	-1
1.05033	-1
1.05400	-1
1.05767	-1
1.06133	-1
1.06500	-1
1.06867	-1
1.07233	-1
1.07600	-2
1.07967	-2
1.08333	-1
1.08700	-1
1.09067	-1
1.09433	-2
1.09800	-2
1.10167	-2
1.10533	-2
1.10900	-2
1.11267	-2
1.11633	-2
1.12000	-2
1.12367	-2
1.12733	-2
1.13100	-2
1.13467	-2
1.13833	-1
1.14200	-1
1.14567	-2
1.14933	-2
1.15300	-2
1.15667	-2
1.16033	-2
1.16400	-1
1.16767	-1
1.17133	-1
1.17500	-1
1.17867	-1
1.18233	-1
1.18600	-1
1.18967	-1
1.19333	-1
1.19700	-1
1.20067	-1
1.20433	-2
1.20800	-2
1.21167	-2
1.21533	-2
1.21900	-2
1.22267	-2
1.22633	-2
1.23000	-2
1.23367	-2
1.23733	-2
1.24100	-2
1.24467	-2
1.24833	-2
1.25200	-2
1.25567	-2
1.25933	-2
1.26300	-2
1.26667	-2
1.27033	-2
1.27400	-2
1.27767	-2
1.28133	-2
1.28500	-2
1.28867	-2
1.29233	-2
1.29600	-3
1.29967	-3
1.30333	-3
1.30700	-3
1.31067	-3
1.31433	-4
1.31800	-3
1.32167	-3
1.32533	-3
1.32900	-3
1.33267	-3
1.33633	-2
1.34000	-2
1.34367	-2
1.34733	-2
1.35100	-1
1.35467	-1
1.35833	-1
1.36200	-1
1.36567	-2
1.36933	-2
1.37300	-2
1.37667	-2
1.38033	-2
1.38400	-3
1.38767	-3
1.39133	-3
1.39500	-3
1.39867	-3
1.40233	-3
1.40600	-3
1.40967	-3
1.41333	-3
1.41700	-3
1.42067	-2
1.42433	-2
1.42800	-2
1.43167	-2
1.43533	-2
1.43900	-2
1.44267	-2
1.44633	-2
1.45000	-2
1.45367	-2
1.45733	-2
1.46100	-2
1.46467	-2
1.46833	-2
1.47200	-2
1.47567	-2
1.47933	-2
1.48300	-1
1.48667	-1
1.49033	-1
1.49400	-1
1.49767	-1
1.50133	-1
1.50500	-1
1.50867	-1
1.51233	-1
1.51600	-2
1.51967	-2
1.52333	-2
1.52700	-2
1.53067	-3
1.53433	-3
1.53800	-3
1.54167	-3
1.54533	-3
1.54900	-3
1.55267	-4
1.55633	-4
1.56000	-4
1.56367	-4
1.56733	-4
1.57100	-3
1.57467	-3
1.57833	-3
1.58200	-3
1.58567	-3
1.58933	-3
1.59300	-4
1.59667	-4
1.60033	-5
1.60400	-6
1.60767	-7
1.61133	-9
1.61500	-11
1.61867	-13
1.62233	-15
1.62600	-18
1.62967	-21
1.63333	-25
1.63700	-28
1.64067	-32
1.64433	-36
1.64800	-40
1.65167	-43
1.65533	-47
1.65900	-50
1.66267	-54
1.66633	-58
1.67000	-62
1.67367	-66
1.67733	-71
1.68100	-76
1.68467	-81
1.68833	-86
1.69200	-90
1.69567	-94
1.69933	-98
1.70300	-101
1.70667	-103
1.71033	-105
1.71400	-107
1.71767	-108
1.72133	-110
1.72500	-110
1.72867	-111
1.73233	-112
1.73600	-112
1.73967	-112
1.74333	-112
1.74700	-112
1.75067	-112
1.75433	-111
1.75800	-111
1.76167	-111
1.76533	-111
1.76900	-111
1.77267	-112
1.77633	-113
1.78000	-114
1.78367	-115
1.78733	-116
1.79100	-116
1.79467	-117
1.79833	-117
1.80200	-117
1.80567	-118
1.80933	-118
1.81300	-118
1.81667	-118
1.82033	-118
1.82400	-118
1.82767	-119
1.83133	-119
1.83500	-119
1.83867	-119
1.84233	-119
1.84600	-119
1.84967	-119
1.85333	-119
1.85700	-119
1.86067	-119
1.86433	-119
1.86800	-119
1.87167	-119
1.87533	-119
1.87900	-119
1.88267	-118
1.88633	-118
1.89000	-118
1.89367	-117
1.89733	-117
1.90100	-117
1.90467	-117
1.90833	-117
1.91200	-117
1.91567	-117
1.91933	-117
1.92300	-116
1.92667	-116
1.93033	-116
1.93400	-117
1.93767	-117
1.94133	-117
1.94500	-117
1.94867	-116
1.95233	-116
1.95600	-116
1.95967	-116
1.96333	-116
1.96700	-116
1.97067	-116
1.97433	-116
1.97800	-116
1.98167	-116
1.98533	-115
1.98900	-115
1.99267	-114
1.99633	-113
2.00000	-113
2.00367	-112
2.00733	-111
2.01100	-111
2.01467	-111
2.01833	-111
2.02200	-110
2.02567	-110
2.02933	-109
2.03300	-109
2.03667	-108
2.04033	-107
2.04400	-107
2.04767	-107
2.05133	-106
2.05500	-106
2.05867	-106
2.06233	-105
2.06600	-105
2.06967	-104
2.07333	-104
2.07700	-104
2.08067	-104
2.08433	-104
2.08800	-104
2.09167	-104
2.09533	-104
2.09900	-104
2.10267	-104
2.10633	-104
2.11000	-104
2.11367	-103
2.11733	-103
2.12100	-102
2.12467	-101
2.12833	-100
2.13200	-99
2.13567	-99
2.13933	-99
2.14300	-100
2.14667	-101
2.15033	-101
2.15400	-101
2.15767	-101
2.16133	-100
2.16500	-100
2.16867	-99
2.17233	-98
2.17600	-97
2.17967	-96
2.18333	-96
2.18700	-95
2.19067	-95
2.19433	-95
2.19800	-94
2.20167	-94
2.20533	-94
2.20900	-94
2.21267	-94
2.21633	-94
2.22000	-94
2.22367	-94
2.22733	-94
2.23100	-94
2.23467	-95
2.23833	-94
2.24200	-94
2.24567	-93
2.24933	-92
2.25300	-91
2.25667	-90
2.26033	-90
2.26400	-90
2.26767	-90
2.27133	-90
2.27500	-90
2.27867	-89
2.28233	-89
2.28600	-88
2.28967	-87
2.29333	-87
2.29700	-86
2.30067	-86
2.30433	-85
2.30800	-85
2.31167	-85
2.31533	-85
2.31900	-85
2.32267	-84
2.32633	-84
2.33000	-83
2.33367	-83
2.33733	-83
2.34100	-83
2.34467	-83
2.34833	-84
2.35200	-84
2.35567	-83
2.35933	-83
2.36300	-81
2.36667	-80
2.37033	-78
2.37400	-76
2.37767	-73
2.38133	-70
2.38500	-66
2.38867	-62
2.39233	-58
2.39600	-54
2.39967	-49
2.40333	-45
2.40700	-42
2.41067	-38
2.41433	-34
2.41800	-31
2.42167	-28
2.42533	-25
2.42900	-22
2.43267	-20
2.43633	-17
2.44000	-14
2.44367	-12
2.44733	-10
2.45100	-8
2.45467	-6
2.45833	-5
2.46200	-3
2.46567	-2
2.46933	-1
2.47300	0
2.47667	2
2.48033	3
2.48400	4
2.48767	5
2.49133	6
2.49500	6
2.49867	7
2.50233	8
2.50600	8
2.50967	9
2.51333	10
2.51700	11
2.52067	12
2.52433	12
2.52800	13
2.53167	13
2.53533	13
2.53900	13
2.54267	14
2.54633	14
2.55000	14
2.55367	14
2.55733	15
2.56100	15
2.56467	15
2.56833	16
2.57200	16
2.57567	16
2.57933	17
2.58300	17
2.58667	17
2.59033	17
2.59400	17
2.59767	17
2.60133	17
2.60500	17
2.60867	17
2.61233	16
2.61600	16
2.61967	16
2.62333	16
2.62700	17
2.63067	18
2.63433	18
2.63800	19
2.64167	19
2.64533	20
2.64900	20
2.65267	20
2.65633	21
2.66000	21
2.66367	22
2.66733	22
2.67100	23
2.67467	24
2.67833	24
2.68200	24
2.68567	24
2.68933	24
2.69300	24
2.69667	24
2.70033	24
2.70400	24
2.70767	24
2.71133	23
2.71500	23
2.71867	23
2.72233	24
2.72600	24
2.72967	24
2.73333	25
2.73700	25
2.74067	26
2.74433	26
2.74800	26
2.75167	27
2.75533	27
2.75900	27
2.76267	26
2.76633	26
2.77000	25
2.77367	24
2.77733	24
2.78100	24
2.78467	24
2.78833	24
2.79200	24
2.79567	24
2.79933	24
2.80300	25
2.80667	25
2.81033	25
2.81400	25
2.81767	26
2.82133	26
2.82500	26
2.82867	27
2.83233	27
2.83600	28
2.83967	28
2.84333	29
2.84700	28
2.85067	28
2.85433	27
2.85800	24
2.86167	20
2.86533	14
2.86900	5
2.87267	-8
2.87633	-24
2.88000	-44
2.88367	-67
2.88733	-95
2.89100	-127
2.89467	-162
2.89833	-201
2.90200	-243
2.90567	-287
2.90933	-334
2.91300	-382
2.91667	-432
2.92033	-482
2.92400	-533
2.92767	-585
2.93133	-636
2.93500	-687
2.93867	-737
2.94233	-786
2.94600	-836
2.94967	-889
2.95333	-948
2.95700	-1009
2.96067	-1063
2.96433	-1100
2.96800	-1111
2.97167	-1095
2.97533	-1055
2.97900	-997
2.98267	-926
2.98633	-848
2.99000	-767
2.99367	-686
2.99733	-609
3.00100	-536
3.00467	-468
3.00833	-407
3.01200	-353
3.01567	-304
3.01933	-261
3.02300	-223
3.02667	-189
3.03033	-161
3.03400	-135
3.03767	-114
3.04133	-95
3.04500	-79
3.04867	-66
3.05233	-54
3.05600	-44
3.05967	-36
3.06333	-28
3.06700	-22
3.07067	-17
3.07433	-12
3.07800	-8
3.08167	-5
3.08533	-2
3.08900	1
3.09267	3
3.09633	5
3.10000	6
3.10367	8
3.10733	9
3.11100	10
3.11467	11
3.11833	12
3.12200	13
3.12567	14
3.12933	14
3.13300	15
3.13667	15
3.14033	16
3.14400	16
3.14767	17
3.15133	17
3.15500	18
3.15867	18
3.16233	18
3.16600	18
3.16967	18
3.17333	19
3.17700	19
3.18067	19
3.18433	19
3.18800	20
3.19167	20
3.19533	20
3.19900	20
3.20267	20
3.20633	20
3.21000	21
3.21367	21
3.21733	21
3.22100	21
3.22467	21
3.22833	22
3.23200	22
3.23567	22
3.23933	22
3.24300	22
3.24667	22
3.25033	22
3.25400	22
3.25767	22
3.26133	23
3.26500	23
3.26867	23
3.27233	23
3.27600	23
3.27967	23
3.28333	23
3.28700	23
3.29067	23
3.29433	23
3.29800	24
3.30167	24
3.30533	24
3.30900	23
3.31267	23
3.31633	24
3.32000	24
3.32367	24
3.32733	24
3.33100	25
3.33467	25
3.33833	25
3.34200	25
3.34567	26
3.34933	26
3.35300	27
3.35667	27
3.36033	28
3.36400	28
3.36767	28
3.37133	28
3.37500	28
3.37867	29
3.38233	29
3.38600	29
3.38967	29
3.39333	29
3.39700	29
3.40067	29
3.40433	29
3.40800	29
3.41167	29
3.41533	29
3.41900	29
3.42267	29
3.42633	29
3.43000	29
3.43367	29
3.43733	29
3.44100	29
3.44467	29
3.44833	29
3.45200	29
3.45567	29
3.45933	29
3.46300	29
3.46667	29
3.47033	29
3.47400	29
3.47767	29
3.48133	29
3.48500	29
3.48867	29
3.49233	29
3.49600	28
3.49967	28
3.50333	28
3.50700	28
3.51067	28
3.51433	28
3.51800	27
3.52167	27
3.52533	27
3.52900	27
3.53267	26
3.53633	26
3.54000	26
3.54367	26
3.54733	26
3.55100	26
3.55467	26
3.55833	26
3.56200	26
3.56567	26
3.56933	27
3.57300	27
3.57667	27
3.58033	27
3.58400	27
3.58767	27
3.59133	27
3.59500	27
3.59867	27
3.60233	26
3.60600	26
3.60967	26
3.61333	26
3.61700	26
3.62067	25
3.62433	25
3.62800	25
3.63167	26
3.63533	26
3.63900	26
3.64267	26
3.64633	27
3.65000	27
3.65367	27
3.65733	28
3.66100	28
3.66467	28
3.66833	28
3.67200	28
3.67567	28
3.67933	28
3.68300	28
3.68667	28
3.69033	28
3.69400	28
3.69767	28
3.70133	28
3.70500	28
3.70867	28
3.71233	28
3.71600	28
3.71967	28
3.72333	28
3.72700	28
3.73067	28
3.73433	28
3.73800	28
3.74167	28
3.74533	28
3.74900	28
3.75267	28
3.75633	28
3.76000	28
3.76367	28
3.76733	28
3.77100	28
3.77467	28
3.77833	28
3.78200	28
3.78567	28
3.78933	28
3.79300	28
3.79667	28
3.80033	28
3.80400	28
3.80767	27
3.81133	27
3.81500	27
3.81867	27
3.82233	27
3.82600	27
3.82967	26
3.83333	26
3.83700	26
3.84067	27
3.84433	27
3.84800	27
3.85167	27
3.85533	27
3.85900	27
3.86267	27
3.86633	27
3.87000	27
3.87367	27
3.87733	27
3.88100	27
3.88467	27
3.88833	27
3.89200	26
3.89567	26
3.89933	26
3.90300	26
3.90667	26
3.91033	26
3.91400	26
3.91767	27
3.92133	27
3.92500	27
3.92867	27
3.93233	27
3.93600	28
3.93967	28
3.94333	28
3.94700	28
3.95067	28
3.95433	28
3.95800	28
3.96167	28
3.96533	28
3.96900	29
3.97267	29
3.97633	29
3.98000	29
3.98367	28
3.98733	28
3.99100	28
3.99467	28
3.99833	28

[Chromatogram (Ch3)]
Interval(msec)	220
# of Points	1091
Start Time(min)	0.002
End Time(min)	3.998
R.Time (min)	Intensity
0.00167	-0
0.00533	-1
0.00900	-2
0.01267	1
0.01633	6
0.02000	7
0.02367	5
0.02733	3
0.03100	4
0.03467	4
0.03833	4
0.04200	5
0.04567	7
0.04933	7
0.05300	6
0.05667	7
0.06033	7
0.06400	8
0.06767	8
0.07133	7
0.07500	7
0.07867	8
0.08233	9
0.08600	8
0.08967	6
0.09333	5
0.09700	4
0.10067	5
0.10433	7
0.10800	8
0.11167	6
0.11533	6
0.11900	5
0.12267	5
0.12633	3
0.13000	2
0.13367	3
0.13733	4
0.14100	4
0.14467	5
0.14833	7
0.15200	7
0.15567	8
0.15933	8
0.16300	8
0.16667	7
0.17033	6
0.17400	6
0.17767	5
0.18133	4
0.18500	4
0.18867	5
0.19233	6
0.19600	8
0.19967	9
0.20333	10
0.20700	11
0.21067	11
0.21433	12
0.21800	12
0.22167	11
0.22533	11
0.22900	8
0.23267	6
0.23633	5
0.24000	8
0.24367	10
0.24733	11
0.25100	12
0.25467	14
0.25833	11
0.26200	9
0.26567	8
0.26933	7
0.27300	9
0.27667	9
0.28033	11
0.28400	10
0.28767	10
0.29133	11
0.29500	11
0.29867	10
0.30233	10
0.30600	8
0.30967	9
0.31333	11
0.31700	12
0.32067	14
0.32433	14
0.32800	13
0.33167	12
0.33533	9
0.33900	9
0.34267	9
0.34633	9
0.35000	10
0.35367	11
0.35733	12
0.36100	11
0.36467	9
0.36833	11
0.37200	13
0.37567	14
0.37933	16
0.38300	16
0.38667	17
0.39033	17
0.39400	15
0.39767	12
0.40133	11
0.40500	12
0.40867	12
0.41233	10
0.41600	10
0.41967	12
0.42333	16
0.42700	18
0.43067	17
0.43433	14
0.43800	14
0.44167	14
0.44533	14
0.44900	14
0.45267	13
0.45633	14
0.46000	14
0.46367	12
0.46733	11
0.47100	8
0.47467	8
0.47833	11
0.48200	14
0.48567	14
0.48933	14
0.49300	15
0.49667	17
0.50033	19
0.50400	18
0.50767	17
0.51133	16
0.51500	17
0.51867	16
0.52233	16
0.52600	17
0.52967	19
0.53333	19
0.53700	18
0.54067	18
0.54433	17
0.54800	16
0.55167	15
0.55533	15
0.55900	13
0.56267	13
0.56633	14
0.57000	15
0.57367	17
0.57733	19
0.58100	19
0.58467	20
0.58833	20
0.59200	18
0.59567	17
0.59933	16
0.60300	16
0.60667	16
0.61033	16
0.61400	15
0.61767	13
0.62133	11
0.62500	9
0.62867	8
0.63233	7
0.63600	7
0.63967	7
0.64333	9
0.64700	10
0.65067	12
0.65433	14
0.65800	14
0.66167	12
0.66533	12
0.66900	11
0.67267	11
0.67633	9
0.68000	8
0.68367	9
0.68733	11
0.69100	11
0.69467	9
0.69833	9
0.70200	10
0.70567	11
0.70933	12
0.71300	14
0.71667	14
0.72033	10
0.72400	9
0.72767	8
0.73133	7
0.73500	9
0.73867	11
0.74233	14
0.74600	15
0.74967	15
0.75333	16
0.75700	15
0.76067	13
0.76433	13
0.76800	15
0.77167	15
0.77533	13
0.77900	11
0.78267	11
0.78633	10
0.79000	9
0.79367	7
0.79733	7
0.80100	9
0.80467	11
0.80833	11
0.81200	11
0.81567	11
0.81933	10
0.82300	9
0.82667	9
0.83033	9
0.83400	10
0.83767	9
0.84133	9
0.84500	8
0.84867	7
0.85233	8
0.85600	8
0.85967	9
0.86333	11
0.86700	14
0.87067	16
0.87433	17
0.87800	16
0.88167	14
0.88533	11
0.88900	9
0.89267	9
0.89633	11
0.90000	14
0.90367	15
0.90733	13
0.91100	10
0.91467	12
0.91833	13
0.92200	15
0.92567	16
0.92933	16
0.93300	14
0.93667	15
0.94033	13
0.94400	10
0.94767	9
0.95133	9
0.95500	9
0.95867	10
0.96233	12
0.96600	13
0.96967	14
0.97333	13
0.97700	12
0.98067	13
0.98433	15
0.98800	16
0.99167	16
0.99533	14
0.99900	13
1.00267	14
1.00633	14
1.01000	13
1.01367	12
1.01733	13
1.02100	13
1.02467	11
1.02833	8
1.03200	6
1.03567	7
1.03933	7
1.04300	6
1.04667	5
1.05033	6
1.05400	8
1.05767	8
1.06133	8
1.06500	8
1.06867	6
1.07233	6
1.07600	6
1.07967	5
1.08333	5
1.08700	8
1.09067	11
1.09433	14
1.09800	12
1.10167	9
1.10533	9
1.10900	10
1.11267	8
1.11633	5
1.12000	5
1.12367	6
1.12733	4
1.13100	2
1.13467	3
1.13833	3
1.14200	5
1.14567	6
1.14933	6
1.15300	8
1.15667	8
1.16033	7
1.16400	8
1.16767	8
1.17133	5
1.17500	6
1.17867	7
1.18233	8
1.18600	7
1.18967	5
1.19333	3
1.19700	1
1.20067	0
1.20433	4
1.20800	5
1.21167	5
1.21533	6
1.21900	4
1.22267	2
1.22633	2
1.23000	2
1.23367	0
1.23733	0
1.24100	3
1.24467	6
1.24833	6
1.25200	8
1.25567	10
1.25933	9
1.26300	10
1.26667	9
1.27033	9
1.27400	7
1.27767	2
1.28133	-1
1.28500	-3
1.28867	-1
1.29233	1
1.29600	3
1.29967	3
1.30333	5
1.30700	7
1.31067	6
1.31433	4
1.31800	3
1.32167	4
1.32533	6
1.32900	7
1.33267	4
1.33633	3
1.34000	5
1.34367	6
1.34733	5
1.35100	2
1.35467	-2
1.35833	-2
1.36200	-1
1.36567	-0
1.36933	-1
1.37300	-0
1.37667	2
1.38033	2
1.38400	4
1.38767	5
1.39133	6
1.39500	7
1.39867	6
1.40233	4
1.40600	4
1.40967	3
1.41333	3
1.41700	2
1.42067	0
1.42433	3
1.42800	6
1.43167	8
1.43533	8
1.43900	5
1.44267	1
1.44633	-1
1.45000	-0
1.45367	0
1.45733	2
1.46100	-0
1.46467	-2
1.46833	-3
1.47200	-3
1.47567	-3
1.47933	-2
1.48300	-3
1.48667	-4
1.49033	-1
1.49400	0
1.49767	1
1.50133	-0
1.50500	-3
1.50867	-3
1.51233	-3
1.51600	-4
1.51967	-4
1.52333	-3
1.52700	-5
1.53067	-7
1.53433	-9
1.53800	-12
1.54167	-10
1.54533	-9
1.54900	-9
1.55267	-8
1.55633	-6
1.56000	-4
1.56367	-4
1.56733	-3
1.57100	-0
1.57467	-1
1.57833	-2
1.58200	-3
1.58567	-3
1.58933	-3
1.59300	-3
1.59667	-2
1.60033	-1
1.60400	0
1.60767	1
1.61133	2
1.61500	3
1.61867	2
1.62233	1
1.62600	3
1.62967	5
1.63333	5
1.63700	4
1.64067	2
1.64433	1
1.64800	1
1.65167	1
1.65533	-1
1.65900	-2
1.66267	-0
1.66633	1
1.67000	1
1.67367	1
1.67733	3
1.68100	4
1.68467	4
1.68833	4
1.69200	5
1.69567	6
1.69933	7
1.70300	9
1.70667	9
1.71033	8
1.71400	11
1.71767	12
1.72133	13
1.72500	13
1.72867	12
1.73233	11
1.73600	10
1.73967	9
1.74333	8
1.74700	8
1.75067	10
1.75433	9
1.75800	9
1.76167	10
1.76533	9
1.76900	9
1.77267	10
1.77633	9
1.78000	7
1.78367	5
1.78733	7
1.79100	11
1.79467	14
1.79833	16
1.80200	16
1.80567	14
1.80933	14
1.81300	15
1.81667	15
1.82033	16
1.82400	18
1.82767	20
1.83133	19
1.83500	19
1.83867	18
1.84233	18
1.84600	18
1.84967	18
1.85333	19
1.85700	19
1.86067	17
1.86433	16
1.86800	18
1.87167	21
1.87533	22
1.87900	22
1.88267	23
1.88633	21
1.89000	21
1.89367	20
1.89733	20
1.90100	21
1.90467	22
1.90833	21
1.91200	21
1.91567	21
1.91933	23
1.92300	25
1.92667	28
1.93033	29
1.93400	28
1.93767	27
1.94133	28
1.94500	28
1.94867	29
1.95233	28
1.95600	28
1.95967	31
1.96333	35
1.96700	35
1.97067	35
1.97433	33
1.97800	34
1.98167	37
1.98533	39
1.98900	40
1.99267	41
1.99633	41
2.00000	43
2.00367	46
2.00733	47
2.01100	46
2.01467	42
2.01833	40
2.02200	42
2.02567	45
2.02933	47
2.03300	47
2.03667	47
2.04033	50
2.04400	51
2.04767	51
2.05133	48
2.05500	47
2.05867	47
2.06233	47
2.06600	48
2.06967	52
2.07333	56
2.07700	59
2.08067	57
2.08433	55
2.08800	54
2.09167	54
2.09533	57
2.09900	61
2.10267	65
2.10633	67
2.11000	69
2.11367	68
2.11733	69
2.12100	71
2.12467	72
2.12833	71
2.13200	72
2.13567	73
2.13933	75
2.14300	76
2.14667	77
2.15033	78
2.15400	79
2.15767	79
2.16133	76
2.16500	75
2.16867	75
2.17233	75
2.17600	77
2.17967	79
2.18333	79
2.18700	79
2.19067	80
2.19433	84
2.19800	88
2.20167	90
2.20533	90
2.20900	88
2.21267	88
2.21633	90
2.22000	92
2.22367	92
2.22733	91
2.23100	90
2.23467	91
2.23833	92
2.24200	91
2.24567	92
2.24933	94
2.25300	96
2.25667	96
2.26033	96
2.26400	98
2.26767	99
2.27133	100
2.27500	100
2.27867	100
2.28233	101
2.28600	102
2.28967	103
2.29333	105
2.29700	108
2.30067	110
2.30433	109
2.30800	108
2.31167	106
2.31533	106
2.31900	108
2.32267	109
2.32633	112
2.33000	115
2.33367	114
2.33733	115
2.34100	116
2.34467	117
2.34833	118
2.35200	119
2.35567	119
2.35933	121
2.36300	124
2.36667	127
2.37033	130
2.37400	132
2.37767	134
2.38133	137
2.38500	134
2.38867	131
2.39233	129
2.39600	130
2.39967	132
2.40333	136
2.40700	143
2.41067	149
2.41433	151
2.41800	151
2.42167	152
2.42533	153
2.42900	154
2.43267	155
2.43633	156
2.44000	156
2.44367	185
2.44733	258
2.45100	340
2.45467	394
2.45833	407
2.46200	391
2.46567	375
2.46933	362
2.47300	342
2.47667	312
2.48033	278
2.48400	245
2.48767	215
2.49133	192
2.49500	177
2.49867	170
2.50233	173
2.50600	178
2.50967	185
2.51333	190
2.51700	187
2.52067	178
2.52433	164
2.52800	145
2.53167	124
2.53533	105
2.53900	91
2.54267	81
2.54633	73
2.55000	67
2.55367	62
2.55733	60
2.56100	59
2.56467	58
2.56833	58
2.57200	60
2.57567	60
2.57933	63
2.58300	69
2.58667	78
2.59033	90
2.59400	104
2.59767	115
2.60133	123
2.60500	126
2.60867	123
2.61233	111
2.61600	93
2.61967	65
2.62333	31
2.62700	-5
2.63067	-42
2.63433	-79
2.63800	-114
2.64167	-145
2.64533	-169
2.64900	-190
2.65267	-205
2.65633	-211
2.66000	-215
2.66367	-214
2.66733	-210
2.67100	-205
2.67467	-197
2.67833	-189
2.68200	-183
2.68567	-174
2.68933	-164
2.69300	-157
2.69667	-148
2.70033	-140
2.70400	-133
2.70767	-125
2.71133	-115
2.71500	-107
2.71867	-99
2.72233	-90
2.72600	-84
2.72967	-77
2.73333	-72
2.73700	-67
2.74067	-65
2.74433	-59
2.74800	-51
2.75167	-43
2.75533	-33
2.75900	-26
2.76267	-17
2.76633	-9
2.77000	-2
2.77367	5
2.77733	10
2.78100	16
2.78467	24
2.78833	23
2.79200	9
2.79567	-0
2.79933	11
2.80300	38
2.80667	77
2.81033	123
2.81400	169
2.81767	214
2.82133	257
2.82500	300
2.82867	344
2.83233	396
2.83600	471
2.83967	586
2.84333	765
2.84700	1028
2.85067	1398
2.85433	1880
2.85800	2459
2.86167	3104
2.86533	3774
2.86900	4414
2.87267	4968
2.87633	5396
2.88000	5675
2.88367	5793
2.88733	5763
2.89100	5604
2.89467	5344
2.89833	5015
2.90200	4648
2.90567	4267
2.90933	3890
2.91300	3525
2.91667	3183
2.92033	2869
2.92400	2583
2.92767	2326
2.93133	2095
2.93500	1891
2.93867	1713
2.94233	1559
2.94600	1425
2.94967	1307
2.95333	1207
2.95700	1119
2.96067	1043
2.96433	977
2.96800	919
2.97167	868
2.97533	827
2.97900	789
2.98267	757
2.98633	733
2.99000	712
2.99367	697
2.99733	684
3.00100	670
3.00467	657
3.00833	646
3.01200	638
3.01567	632
3.01933	627
3.02300	623
3.02667	620
3.03033	620
3.03400	620
3.03767	618
3.04133	617
3.04500	616
3.04867	613
3.05233	612
3.05600	613
3.05967	616
3.06333	620
3.06700	621
3.07067	621
3.07433	620
3.07800	619
3.08167	620
3.08533	620
3.08900	619
3.09267	622
3.09633	626
3.10000	629
3.10367	633
3.10733	635
3.11100	634
3.11467	634
3.11833	635
3.12200	636
3.12567	637
3.12933	636
3.13300	634
3.13667	635
3.14033	636
3.14400	637
3.14767	638
3.15133	638
3.15500	637
3.15867	636
3.16233	636
3.16600	636
3.16967	633
3.17333	632
3.17700	632
3.18067	631
3.18433	630
3.18800	629
3.19167	627
3.19533	625
3.19900	623
3.20267	619
3.20633	614
3.21000	607
3.21367	602
3.21733	600
3.22100	600
3.22467	599
3.22833	596
3.23200	593
3.23567	591
3.23933	589
3.24300	587
3.24667	584
3.25033	581
3.25400	579
3.25767	577
3.26133	571
3.26500	568
3.26867	562
3.27233	556
3.27600	550
3.27967	546
3.28333	541
3.28700	537
3.29067	532
3.29433	527
3.29800	524
3.30167	520
3.30533	516
3.30900	511
3.31267	509
3.31633	506
3.32000	501
3.32367	495
3.32733	491
3.33100	488
3.33467	484
3.33833	480
3.34200	473
3.34567	468
3.34933	464
3.35300	462
3.35667	462
3.36033	460
3.36400	456
3.36767	456
3.37133	455
3.37500	452
3.37867	446
3.38233	442
3.38600	437
3.38967	433
3.39333	430
3.39700	428
3.40067	426
3.40433	424
3.40800	421
3.41167	419
3.41533	417
3.41900	417
3.42267	415
3.42633	411
3.43000	407
3.43367	402
3.43733	397
3.44100	393
3.44467	388
3.44833	385
3.45200	382
3.45567	379
3.45933	375
3.46300	373
3.46667	372
3.47033	370
3.47400	367
3.47767	365
3.48133	364
3.48500	362
3.48867	359
3.49233	356
3.49600	355
3.49967	355
3.50333	355
3.50700	355
3.51067	353
3.51433	352
3.51800	351
3.52167	349
3.52533	346
3.52900	342
3.53267	337
3.53633	333
3.54000	330
3.54367	329
3.54733	329
3.55100	327
3.55467	326
3.55833	329
3.56200	328
3.56567	324
3.56933	321
3.57300	316
3.57667	314
3.58033	312
3.58400	312
3.58767	313
3.59133	312
3.59500	310
3.59867	307
3.60233	304
3.60600	303
3.60967	301
3.61333	299
3.61700	297
3.62067	296
3.62433	293
3.62800	291
3.63167	291
3.63533	292
3.63900	291
3.64267	291
3.64633	291
3.65000	289
3.65367	287
3.65733	287
3.66100	286
3.66467	285
3.66833	284
3.67200	283
3.67567	282
3.67933	282
3.68300	281
3.68667	280
3.69033	278
3.69400	274
3.69767	272
3.70133	271
3.70500	271
3.70867	271
3.71233	269
3.71600	269
3.71967	268
3.72333	268
3.72700	267
3.73067	265
3.73433	264
3.73800	262
3.74167	262
3.74533	262
3.74900	262
3.75267	261
3.75633	259
3.76000	257
3.76367	256
3.76733	255
3.77100	254
3.77467	256
3.77833	255
3.78200	254
3.78567	256
3.78933	259
3.79300	259
3.79667	260
3.80033	259
3.80400	258
3.80767	256
3.81133	254
3.81500	253
3.81867	253
3.82233	253
3.82600	251
3.82967	249
3.83333	247
3.83700	246
3.84067	244
3.84433	242
3.84800	240
3.85167	240
3.85533	241
3.85900	240
3.86267	239
3.86633	240
3.87000	239
3.87367	239
3.87733	240
3.88100	242
3.88467	242
3.88833	242
3.89200	240
3.89567	239
3.89933	237
3.90300	236
3.90667	235
3.91033	232
3.91400	231
3.91767	228
3.92133	224
3.92500	222
3.92867	222
3.93233	222
3.93600	222
3.93967	224
3.94333	225
3.94700	225
3.95067	225
3.95433	223
3.95800	223
3.96167	224
3.96533	223
3.96900	222
3.97267	219
3.97633	218
3.98000	217
3.98367	215
3.98733	214
3.99100	212
3.99467	209
3.99833	206

[Status Trace (Column Oven Temperature)]
Interval(msec)	1000
# of Points	240
Start Time(min)	0.002
End Time(min)	3.985
Intensity Units	
Intensity Multiplier	1
R.Time (min)	Intensity
0.00178	35.05
0.01845	35.05
0.03512	35.05
0.05178	35.04
0.06845	35.04
0.08512	35.03
0.10178	35.02
0.11845	35.02
0.13512	35.02
0.15178	35.01
0.16845	34.99
0.18512	35.00
0.20178	34.99
0.21845	34.99
0.23512	34.99
0.25178	34.99
0.26845	34.99
0.28512	34.99
0.30178	34.98
0.31845	34.98
0.33512	34.98
0.35178	34.98
0.36845	34.97
0.38512	34.98
0.40178	34.98
0.41845	34.99
0.43512	34.98
0.45178	35.00
0.46845	34.99
0.48512	34.99
0.50178	34.99
0.51845	34.98
0.53512	34.98
0.55178	34.98
0.56845	34.98
0.58512	34.98
0.60178	34.99
0.61845	34.99
0.63512	34.98
0.65178	34.98
0.66845	34.98
0.68512	34.98
0.70178	34.99
0.71845	34.99
0.73512	35.00
0.75178	35.00
0.76845	35.00
0.78512	34.99
0.80178	35.00
0.81845	35.00
0.83512	34.99
0.85178	34.99
0.86845	35.00
0.88512	35.00
0.90178	35.01
0.91845	35.01
0.93512	35.01
0.95178	35.01
0.96845	35.01
0.98512	35.00
1.00178	35.00
1.01845	34.99
1.03512	34.99
1.05178	34.99
1.06845	34.99
1.08512	35.00
1.10178	34.99
1.11845	34.99
1.13512	34.99
1.15178	34.98
1.16845	34.99
1.18512	34.99
1.20178	35.00
1.21845	34.99
1.23512	34.99
1.25178	34.99
1.26845	35.00
1.28512	35.00
1.30178	35.00
1.31845	35.00
1.33512	35.00
1.35178	35.00
1.36845	35.00
1.38512	34.99
1.40178	34.98
1.41845	34.99
1.43512	35.00
1.45178	34.99
1.46845	35.00
1.48512	34.99
1.50178	34.99
1.51845	34.98
1.53512	34.99
1.55178	34.99
1.56845	34.99
1.58512	34.99
1.60178	35.03
1.61845	35.13
1.63512	35.30
1.65178	35.53
1.66845	35.83
1.68512	36.20
1.70178	36.57
1.71845	36.91
1.73512	37.24
1.75178	37.55
1.76845	37.87
1.78512	38.21
1.80178	38.55
1.81845	38.88
1.83512	39.21
1.85178	39.54
1.86845	39.87
1.88512	40.19
1.90178	40.54
1.91845	40.86
1.93512	41.19
1.95178	41.52
1.96845	41.85
1.98512	42.18
2.00178	42.49
2.01845	42.82
2.03512	43.14
2.05178	43.47
2.06845	43.79
2.08512	44.11
2.10178	44.46
2.11845	44.75
2.13512	45.09
2.15178	45.42
2.16845	45.74
2.18512	46.06
2.20178	46.38
2.21845	46.72
2.23512	47.05
2.25178	47.37
2.26845	47.73
2.28512	48.04
2.30178	48.37
2.31845	48.70
2.33512	49.03
2.35178	49.36
2.36845	49.58
2.38512	49.67
2.40178	49.67
2.41845	49.68
2.43512	49.68
2.45178	49.68
2.46845	49.69
2.48512	49.71
2.50178	49.72
2.51845	49.72
2.53512	49.75
2.55178	49.76
2.56845	49.77
2.58512	49.79
2.60178	49.80
2.61845	49.82
2.63512	49.82
2.65178	49.84
2.66845	49.84
2.68512	49.84
2.70178	49.85
2.71845	49.86
2.73512	49.85
2.75178	49.85
2.76845	49.89
2.78512	49.90
2.80178	49.91
2.81845	49.91
2.83512	49.90
2.85178	49.89
2.86845	49.89
2.88512	49.89
2.90178	49.90
2.91845	49.92
2.93512	49.93
2.95178	49.94
2.96845	49.95
2.98512	49.96
3.00178	49.97
3.01845	49.98
3.03512	49.98
3.05178	49.99
3.06845	50.00
3.08512	50.01
3.10178	50.01
3.11845	50.03
3.13512	50.04
3.15178	50.05
3.16845	50.05
3.18512	50.06
3.20178	50.06
3.21845	50.07
3.23512	50.08
3.25178	50.08
3.26845	50.10
3.28512	50.10
3.30178	50.10
3.31845	50.11
3.33512	50.11
3.35178	50.09
3.36845	50.08
3.38512	50.06
3.40178	50.05
3.41845	50.05
3.43512	50.04
3.45178	50.02
3.46845	50.02
3.48512	50.03
3.50178	50.03
3.51845	50.04
3.53512	50.04
3.55178	50.05
3.56845	50.05
3.58512	50.05
3.60178	50.06
3.61845	50.07
3.63512	50.07
3.65178	50.07
3.66845	50.06
3.68512	50.05
3.70178	50.04
3.71845	50.04
3.73512	50.04
3.75178	50.04
3.76845	50.04
3.78512	50.04
3.80178	50.05
3.81845	50.05
3.83512	50.06
3.85178	50.06
3.86845	50.06
3.88512	50.07
3.90178	50.07
3.91845	50.07
3.93512	50.08
3.95178	50.07
3.96845	50.07
3.98512	50.07

[Status Trace (Injection Unit Temperature)]
Interval(msec)	1000
# of Points	240
Start Time(min)	0.002
End Time(min)	3.985
Intensity Units	
Intensity Multiplier	1
R.Time (min)	Intensity
0.00178	99.99
0.01845	99.99
0.03512	99.99
0.05178	99.99
0.06845	99.99
0.08512	99.98
0.10178	99.99
0.11845	99.99
0.13512	99.99
0.15178	99.99
0.16845	99.98
0.18512	99.99
0.20178	99.98
0.21845	99.99
0.23512	99.98
0.25178	99.99
0.26845	99.99
0.28512	99.99
0.30178	99.99
0.31845	99.98
0.33512	99.98
0.35178	99.99
0.36845	99.98
0.38512	99.99
0.40178	99.98
0.41845	99.98
0.43512	99.98
0.45178	99.99
0.46845	99.98
0.48512	99.98
0.50178	99.98
0.51845	99.98
0.53512	99.98
0.55178	99.98
0.56845	99.98
0.58512	99.98
0.60178	99.98
0.61845	99.98
0.63512	99.98
0.65178	99.98
0.66845	99.98
0.68512	99.98
0.70178	99.98
0.71845	99.98
0.73512	99.98
0.75178	99.98
0.76845	99.98
0.78512	99.98
0.80178	99.98
0.81845	99.98
0.83512	99.98
0.85178	99.98
0.86845	99.98
0.88512	99.99
0.90178	99.98
0.91845	99.98
0.93512	99.98
0.95178	99.98
0.96845	99.98
0.98512	99.99
1.00178	99.99
1.01845	99.99
1.03512	99.99
1.05178	99.99
1.06845	99.99
1.08512	99.99
1.10178	99.99
1.11845	99.99
1.13512	99.99
1.15178	99.99
1.16845	99.99
1.18512	99.99
1.20178	99.98
1.21845	99.99
1.23512	99.99
1.25178	99.99
1.26845	99.99
1.28512	99.99
1.30178	99.99
1.31845	99.99
1.33512	99.99
1.35178	99.99
1.36845	99.99
1.38512	99.98
1.40178	99.99
1.41845	99.99
1.43512	99.99
1.45178	99.99
1.46845	99.99
1.48512	99.99
1.50178	99.99
1.51845	99.99
1.53512	99.99
1.55178	99.99
1.56845	99.99
1.58512	99.99
1.60178	99.99
1.61845	99.99
1.63512	99.99
1.65178	99.99
1.66845	99.99
1.68512	99.99
1.70178	99.99
1.71845	99.99
1.73512	99.99
1.75178	99.99
1.76845	99.99
1.78512	99.99
1.80178	99.99
1.81845	99.98
1.83512	99.98
1.85178	99.98
1.86845	99.99
1.88512	99.98
1.90178	99.98
1.91845	99.98
1.93512	99.98
1.95178	99.98
1.96845	99.98
1.98512	99.98
2.00178	99.98
2.01845	99.98
2.03512	99.98
2.05178	99.97
2.06845	99.97
2.08512	99.98
2.10178	99.97
2.11845	99.97
2.13512	99.97
2.15178	99.97
2.16845	99.97
2.18512	99.97
2.20178	99.97
2.21845	99.97
2.23512	99.97
2.25178	99.97
2.26845	99.96
2.28512	99.97
2.30178	99.97
2.31845	99.97
2.33512	99.98
2.35178	99.97
2.36845	99.97
2.38512	99.97
2.40178	99.97
2.41845	99.97
2.43512	99.98
2.45178	99.98
2.46845	99.98
2.48512	99.98
2.50178	99.98
2.51845	99.98
2.53512	99.98
2.55178	99.98
2.56845	99.98
2.58512	99.98
2.60178	99.98
2.61845	99.98
2.63512	99.98
2.65178	99.99
2.66845	99.98
2.68512	99.99
2.70178	99.99
2.71845	99.99
2.73512	99.99
2.75178	99.99
2.76845	100.00
2.78512	99.99
2.80178	100.00
2.81845	100.00
2.83512	100.00
2.85178	100.00
2.86845	100.00
2.88512	100.00
2.90178	100.01
2.91845	100.01
2.93512	100.01
2.95178	100.01
2.96845	100.01
2.98512	100.01
3.00178	100.01
3.01845	100.01
3.03512	100.01
3.05178	100.02
3.06845	100.02
3.08512	100.02
3.10178	100.02
3.11845	100.02
3.13512	100.02
3.15178	100.02
3.16845	100.02
3.18512	100.02
3.20178	100.02
3.21845	100.02
3.23512	100.03
3.25178	100.03
3.26845	100.03
3.28512	100.03
3.30178	100.03
3.31845	100.03
3.33512	100.03
3.35178	100.03
3.36845	100.03
3.38512	100.03
3.40178	100.03
3.41845	100.03
3.43512	100.03
3.45178	100.03
3.46845	100.03
3.48512	100.03
3.50178	100.03
3.51845	100.03
3.53512	100.03
3.55178	100.04
3.56845	100.04
3.58512	100.04
3.60178	100.04
3.61845	100.04
3.63512	100.04
3.65178	100.03
3.66845	100.04
3.68512	100.04
3.70178	100.04
3.71845	100.04
3.73512	100.04
3.75178	100.04
3.76845	100.04
3.78512	100.04
3.80178	100.05
3.81845	100.04
3.83512	100.05
3.85178	100.05
3.86845	100.04
3.88512	100.05
3.90178	100.05
3.91845	100.05
3.93512	100.05
3.95178	100.05
3.96845	100.04
3.98512	100.05

[Status Trace (Carrier Gas Pressure)]
Interval(msec)	1000
# of Points	240
Start Time(min)	0.002
End Time(min)	3.985
Intensity Units	
Intensity Multiplier	1
R.Time (min)	Intensity
0.00178	58.00
0.01845	56.45
0.03512	56.21
0.05178	58.37
0.06845	59.91
0.08512	58.37
0.10178	57.97
0.11845	58.00
0.13512	58.01
0.15178	58.01
0.16845	58.00
0.18512	58.00
0.20178	58.00
0.21845	58.00
0.23512	58.00
0.25178	58.00
0.26845	58.00
0.28512	58.00
0.30178	58.00
0.31845	58.00
0.33512	58.00
0.35178	58.00
0.36845	58.00
0.38512	58.00
0.40178	58.00
0.41845	58.00
0.43512	58.00
0.45178	58.00
0.46845	58.00
0.48512	58.00
0.50178	58.00
0.51845	58.00
0.53512	58.00
0.55178	58.00
0.56845	58.00
0.58512	58.00
0.60178	58.00
0.61845	58.00
0.63512	58.00
0.65178	58.00
0.66845	58.00
0.68512	58.00
0.70178	58.00
0.71845	58.00
0.73512	58.00
0.75178	58.00
0.76845	58.00
0.78512	58.00
0.80178	58.00
0.81845	58.00
0.83512	58.00
0.85178	58.00
0.86845	58.00
0.88512	58.00
0.90178	58.00
0.91845	58.00
0.93512	58.00
0.95178	58.00
0.96845	58.00
0.98512	58.00
1.00178	58.00
1.01845	58.00
1.03512	58.00
1.05178	58.00
1.06845	58.00
1.08512	58.00
1.10178	58.00
1.11845	58.00
1.13512	58.00
1.15178	58.00
1.16845	58.00
1.18512	58.00
1.20178	58.00
1.21845	58.00
1.23512	58.00
1.25178	58.00
1.26845	58.00
1.28512	58.00
1.30178	58.00
1.31845	58.00
1.33512	58.00
1.35178	58.00
1.36845	58.00
1.38512	58.00
1.40178	58.00
1.41845	58.00
1.43512	58.00
1.45178	58.00
1.46845	58.00
1.48512	58.00
1.50178	58.00
1.51845	58.00
1.53512	58.00
1.55178	58.00
1.56845	58.00
1.58512	58.00
1.60178	58.00
1.61845	58.00
1.63512	58.00
1.65178	58.00
1.66845	58.01
1.68512	58.01
1.70178	58.00
1.71845	58.00
1.73512	58.00
1.75178	58.00
1.76845	58.00
1.78512	58.00
1.80178	58.00
1.81845	58.00
1.83512	58.00
1.85178	58.00
1.86845	58.00
1.88512	58.00
1.90178	58.00
1.91845	58.00
1.93512	58.00
1.95178	58.00
1.96845	58.00
1.98512	58.00
2.00178	58.00
2.01845	58.00
2.03512	58.00
2.05178	58.00
2.06845	58.00
2.08512	58.00
2.10178	58.00
2.11845	58.00
2.13512	58.00
2.15178	58.00
2.16845	58.00
2.18512	58.00
2.20178	58.00
2.21845	58.00
2.23512	58.00
2.25178	58.00
2.26845	58.00
2.28512	58.00
2.30178	58.00
2.31845	58.00
2.33512	58.00
2.35178	58.00
2.36845	58.00
2.38512	57.99
2.40178	57.99
2.41845	58.00
2.43512	58.00
2.45178	58.00
2.46845	58.00
2.48512	58.00
2.50178	58.00
2.51845	58.00
2.53512	57.99
2.55178	58.00
2.56845	58.00
2.58512	58.00
2.60178	58.00
2.61845	58.00
2.63512	58.00
2.65178	58.00
2.66845	58.00
2.68512	58.00
2.70178	58.00
2.71845	58.00
2.73512	58.00
2.75178	58.00
2.76845	58.00
2.78512	58.00
2.80178	58.00
2.81845	58.00
2.83512	58.00
2.85178	58.00
2.86845	58.00
2.88512	58.00
2.90178	58.00
2.91845	58.00
2.93512	58.00
2.95178	58.00
2.96845	58.00
2.98512	58.00
3.00178	58.00
3.01845	58.00
3.03512	58.00
3.05178	58.00
3.06845	58.00
3.08512	58.00
3.10178	58.00
3.11845	58.00
3.13512	58.00
3.15178	58.00
3.16845	58.00
3.18512	58.00
3.20178	58.00
3.21845	58.00
3.23512	58.00
3.25178	58.00
3.26845	58.00
3.28512	58.00
3.30178	58.00
3.31845	58.00
3.33512	58.00
3.35178	58.00
3.36845	58.00
3.38512	58.00
3.40178	58.00
3.41845	58.00
3.43512	58.00
3.45178	58.00
3.46845	58.00
3.48512	58.00
3.50178	58.00
3.51845	58.00
3.53512	58.00
3.55178	58.00
3.56845	58.00
3.58512	58.00
3.60178	58.00
3.61845	58.00
3.63512	58.00
3.65178	58.00
3.66845	58.00
3.68512	58.00
3.70178	58.00
3.71845	58.00
3.73512	58.00
3.75178	58.00
3.76845	58.00
3.78512	58.00
3.80178	58.00
3.81845	58.00
3.83512	58.00
3.85178	58.00
3.86845	58.00
3.88512	58.00
3.90178	58.00
3.91845	58.00
3.93512	58.00
3.95178	58.00
3.96845	58.00
3.98512	58.00

[Status Trace (Carrier Gas Flow)]
Interval(msec)	1000
# of Points	240
Start Time(min)	0.002
End Time(min)	3.985
Intensity Units	
Intensity Multiplier	1
R.Time (min)	Intensity
0.00178	34.52
0.01845	34.37
0.03512	34.54
0.05178	34.55
0.06845	34.49
0.08512	34.52
0.10178	34.52
0.11845	34.52
0.13512	34.52
0.15178	34.52
0.16845	34.52
0.18512	34.52
0.20178	34.52
0.21845	34.52
0.23512	34.52
0.25178	34.52
0.26845	34.52
0.28512	34.52
0.30178	34.52
0.31845	34.52
0.33512	34.52
0.35178	34.52
0.36845	34.52
0.38512	34.52
0.40178	34.52
0.41845	34.52
0.43512	34.52
0.45178	34.52
0.46845	34.52
0.48512	34.52
0.50178	34.52
0.51845	34.52
0.53512	34.52
0.55178	34.52
0.56845	34.52
0.58512	34.52
0.60178	34.52
0.61845	34.52
0.63512	34.52
0.65178	34.52
0.66845	34.52
0.68512	34.52
0.70178	34.52
0.71845	34.52
0.73512	34.52
0.75178	34.52
0.76845	34.52
0.78512	34.52
0.80178	34.52
0.81845	34.52
0.83512	34.52
0.85178	34.52
0.86845	34.52
0.88512	34.52
0.90178	34.52
0.91845	34.52
0.93512	34.52
0.95178	34.52
0.96845	34.52
0.98512	34.52
1.00178	34.52
1.01845	34.52
1.03512	34.52
1.05178	34.52
1.06845	34.52
1.08512	34.52
1.10178	34.52
1.11845	34.52
1.13512	34.52
1.15178	34.52
1.16845	34.52
1.18512	34.52
1.20178	34.52
1.21845	34.52
1.23512	34.52
1.25178	34.52
1.26845	34.52
1.28512	34.52
1.30178	34.52
1.31845	34.52
1.33512	34.52
1.35178	34.51
1.36845	34.52
1.38512	34.51
1.40178	34.52
1.41845	34.51
1.43512	34.51
1.45178	34.52
1.46845	34.52
1.48512	34.53
1.50178	34.51
1.51845	34.52
1.53512	34.53
1.55178	34.52
1.56845	34.51
1.58512	34.52
1.60178	34.53
1.61845	34.52
1.63512	34.52
1.65178	34.52
1.66845	34.52
1.68512	34.52
1.70178	34.52
1.71845	34.52
1.73512	34.52
1.75178	34.52
1.76845	34.52
1.78512	34.52
1.80178	34.52
1.81845	34.52
1.83512	34.52
1.85178	34.52
1.86845	34.52
1.88512	34.52
1.90178	34.52
1.91845	34.52
1.93512	34.52
1.95178	34.52
1.96845	34.52
1.98512	34.52
2.00178	34.52
2.01845	34.52
2.03512	34.52
2.05178	34.52
2.06845	34.52
2.08512	34.52
2.10178	34.52
2.11845	34.52
2.13512	34.52
2.15178	34.52
2.16845	34.52
2.18512	34.52
2.20178	34.52
2.21845	34.52
2.23512	34.52
2.25178	34.52
2.26845	34.52
2.28512	34.52
2.30178	34.52
2.31845	34.52
2.33512	34.52
2.35178	34.52
2.36845	34.52
2.38512	34.55
2.40178	34.52
2.41845	34.52
2.43512	34.52
2.45178	34.52
2.46845	34.52
2.48512	34.52
2.50178	34.52
2.51845	34.52
2.53512	34.52
2.55178	34.52
2.56845	34.52
2.58512	34.52
2.60178	34.52
2.61845	34.52
2.63512	34.52
2.65178	34.52
2.66845	34.52
2.68512	34.52
2.70178	34.52
2.71845	34.52
2.73512	34.52
2.75178	34.52
2.76845	34.52
2.78512	34.52
2.80178	34.52
2.81845	34.52
2.83512	34.52
2.85178	34.52
2.86845	34.52
2.88512	34.52
2.90178	34.52
2.91845	34.52
2.93512	34.52
2.95178	34.52
2.96845	34.52
2.98512	34.52
3.00178	34.52
3.01845	34.52
3.03512	34.52
3.05178	34.52
3.06845	34.52
3.08512	34.52
3.10178	34.52
3.11845	34.52
3.13512	34.52
3.15178	34.52
3.16845	34.52
3.18512	34.52
3.20178	34.52
3.21845	34.52
3.23512	34.52
3.25178	34.52
3.26845	34.52
3.28512	34.52
3.30178	34.52
3.31845	34.52
3.33512	34.52
3.35178	34.52
3.36845	34.52
3.38512	34.52
3.40178	34.52
3.41845	34.52
3.43512	34.52
3.45178	34.52
3.46845	34.52
3.48512	34.52
3.50178	34.52
3.51845	34.52
3.53512	34.52
3.55178	34.52
3.56845	34.52
3.58512	34.52
3.60178	34.52
3.61845	34.52
3.63512	34.52
3.65178	34.52
3.66845	34.52
3.68512	34.52
3.70178	34.52
3.71845	34.52
3.73512	34.52
3.75178	34.52
3.76845	34.52
3.78512	34.52
3.80178	34.52
3.81845	34.52
3.83512	34.52
3.85178	34.52
3.86845	34.52
3.88512	34.52
3.90178	34.52
3.91845	34.52
3.93512	34.52
3.95178	34.52
3.96845	34.52
3.98512	34.52

[Status Trace (Column Flow)]
Interval(msec)	1000
# of Points	240
Start Time(min)	0.002
End Time(min)	3.985
Intensity Units	
Intensity Multiplier	1
R.Time (min)	Intensity
0.00178	5.51
0.01845	5.33
0.03512	5.30
0.05178	5.55
0.06845	5.73
0.08512	5.55
0.10178	5.50
0.11845	5.51
0.13512	5.51
0.15178	5.51
0.16845	5.51
0.18512	5.51
0.20178	5.51
0.21845	5.51
0.23512	5.51
0.25178	5.51
0.26845	5.51
0.28512	5.51
0.30178	5.51
0.31845	5.51
0.33512	5.51
0.35178	5.51
0.36845	5.51
0.38512	5.51
0.40178	5.51
0.41845	5.51
0.43512	5.51
0.45178	5.51
0.46845	5.51
0.48512	5.51
0.50178	5.51
0.51845	5.51
0.53512	5.51
0.55178	5.51
0.56845	5.51
0.58512	5.51
0.60178	5.51
0.61845	5.51
0.63512	5.51
0.65178	5.51
0.66845	5.51
0.68512	5.51
0.70178	5.51
0.71845	5.51
0.73512	5.51
0.75178	5.51
0.76845	5.51
0.78512	5.51
0.80178	5.51
0.81845	5.51
0.83512	5.51
0.85178	5.51
0.86845	5.51
0.88512	5.51
0.90178	5.51
0.91845	5.51
0.93512	5.51
0.95178	5.51
0.96845	5.51
0.98512	5.51
1.00178	5.51
1.01845	5.51
1.03512	5.51
1.05178	5.51
1.06845	5.51
1.08512	5.51
1.10178	5.51
1.11845	5.51
1.13512	5.51
1.15178	5.51
1.16845	5.51
1.18512	5.51
1.20178	5.51
1.21845	5.51
1.23512	5.51
1.25178	5.51
1.26845	5.51
1.28512	5.51
1.30178	5.51
1.31845	5.51
1.33512	5.51
1.35178	5.51
1.36845	5.51
1.38512	5.51
1.40178	5.51
1.41845	5.51
1.43512	5.51
1.45178	5.51
1.46845	5.51
1.48512	5.51
1.50178	5.51
1.51845	5.51
1.53512	5.51
1.55178	5.51
1.56845	5.51
1.58512	5.51
1.60178	5.51
1.61845	5.50
1.63512	5.50
1.65178	5.49
1.66845	5.48
1.68512	5.47
1.70178	5.46
1.71845	5.45
1.73512	5.44
1.75178	5.43
1.76845	5.42
1.78512	5.41
1.80178	5.40
1.81845	5.39
1.83512	5.38
1.85178	5.37
1.86845	5.36
1.88512	5.35
1.90178	5.34
1.91845	5.33
1.93512	5.32
1.95178	5.31
1.96845	5.30
1.98512	5.29
2.00178	5.28
2.01845	5.27
2.03512	5.26
2.05178	5.25
2.06845	5.24
2.08512	5.23
2.10178	5.22
2.11845	5.21
2.13512	5.20
2.15178	5.19
2.16845	5.19
2.18512	5.18
2.20178	5.17
2.21845	5.16
2.23512	5.15
2.25178	5.14
2.26845	5.13
2.28512	5.12
2.30178	5.11
2.31845	5.10
2.33512	5.09
2.35178	5.08
2.36845	5.08
2.38512	5.07
2.40178	5.07
2.41845	5.07
2.43512	5.07
2.45178	5.07
2.46845	5.07
2.48512	5.07
2.50178	5.07
2.51845	5.07
2.53512	5.07
2.55178	5.07
2.56845	5.07
2.58512	5.07
2.60178	5.07
2.61845	5.07
2.63512	5.07
2.65178	5.07
2.66845	5.07
2.68512	5.07
2.70178	5.07
2.71845	5.07
2.73512	5.07
2.75178	5.07
2.76845	5.07
2.78512	5.07
2.80178	5.07
2.81845	5.07
2.83512	5.07
2.85178	5.07
2.86845	5.07
2.88512	5.07
2.90178	5.07
2.91845	5.07
2.93512	5.07
2.95178	5.07
2.96845	5.07
2.98512	5.07
3.00178	5.07
3.01845	5.07
3.03512	5.07
3.05178	5.07
3.06845	5.07
3.08512	5.06
3.10178	5.06
3.11845	5.06
3.13512	5.06
3.15178	5.06
3.16845	5.06
3.18512	5.06
3.20178	5.06
3.21845	5.06
3.23512	5.06
3.25178	5.06
3.26845	5.06
3.28512	5.06
3.30178	5.06
3.31845	5.06
3.33512	5.06
3.35178	5.06
3.36845	5.06
3.38512	5.06
3.40178	5.06
3.41845	5.06
3.43512	5.06
3.45178	5.06
3.46845	5.06
3.48512	5.06
3.50178	5.06
3.51845	5.06
3.53512	5.06
3.55178	5.06
3.56845	5.06
3.58512	5.06
3.60178	5.06
3.61845	5.06
3.63512	5.06
3.65178	5.06
3.66845	5.06
3.68512	5.06
3.70178	5.06
3.71845	5.06
3.73512	5.06
3.75178	5.06
3.76845	5.06
3.78512	5.06
3.80178	5.06
3.81845	5.06
3.83512	5.06
3.85178	5.06
3.86845	5.06
3.88512	5.06
3.90178	5.06
3.91845	5.06
3.93512	5.06
3.95178	5.06
3.96845	5.06
3.98512	5.06

[Status Trace (Linear Velocity)]
Interval(msec)	1000
# of Points	240
Start Time(min)	0.002
End Time(min)	3.985
Intensity Units	
Intensity Multiplier	1
R.Time (min)	Intensity
0.00178	39.01
0.01845	37.99
0.03512	37.83
0.05178	39.25
0.06845	40.26
0.08512	39.26
0.10178	38.99
0.11845	39.01
0.13512	39.02
0.15178	39.02
0.16845	39.02
0.18512	39.02
0.20178	39.02
0.21845	39.02
0.23512	39.02
0.25178	39.02
0.26845	39.02
0.28512	39.02
0.30178	39.02
0.31845	39.02
0.33512	39.02
0.35178	39.02
0.36845	39.01
0.38512	39.02
0.40178	39.02
0.41845	39.02
0.43512	39.01
0.45178	39.01
0.46845	39.01
0.48512	39.01
0.50178	39.01
0.51845	39.02
0.53512	39.02
0.55178	39.02
0.56845	39.02
0.58512	39.02
0.60178	39.01
0.61845	39.01
0.63512	39.02
0.65178	39.02
0.66845	39.02
0.68512	39.02
0.70178	39.01
0.71845	39.01
0.73512	39.01
0.75178	39.01
0.76845	39.01
0.78512	39.01
0.80178	39.01
0.81845	39.01
0.83512	39.01
0.85178	39.01
0.86845	39.01
0.88512	39.01
0.90178	39.01
0.91845	39.01
0.93512	39.01
0.95178	39.01
0.96845	39.01
0.98512	39.01
1.00178	39.01
1.01845	39.01
1.03512	39.01
1.05178	39.01
1.06845	39.01
1.08512	39.01
1.10178	39.01
1.11845	39.01
1.13512	39.01
1.15178	39.01
1.16845	39.01
1.18512	39.01
1.20178	39.01
1.21845	39.01
1.23512	39.01
1.25178	39.01
1.26845	39.01
1.28512	39.01
1.30178	39.01
1.31845	39.01
1.33512	39.01
1.35178	39.01
1.36845	39.01
1.38512	39.01
1.40178	39.01
1.41845	39.01
1.43512	39.01
1.45178	39.01
1.46845	39.01
1.48512	39.01
1.50178	39.01
1.51845	39.02
1.53512	39.01
1.55178	39.01
1.56845	39.01
1.58512	39.01
1.60178	39.01
1.61845	39.00
1.63512	38.99
1.65178	38.97
1.66845	38.94
1.68512	38.90
1.70178	38.87
1.71845	38.83
1.73512	38.80
1.75178	38.77
1.76845	38.74
1.78512	38.71
1.80178	38.68
1.81845	38.65
1.83512	38.61
1.85178	38.59
1.86845	38.55
1.88512	38.52
1.90178	38.49
1.91845	38.46
1.93512	38.43
1.95178	38.40
1.96845	38.37
1.98512	38.34
2.00178	38.31
2.01845	38.28
2.03512	38.25
2.05178	38.22
2.06845	38.19
2.08512	38.16
2.10178	38.13
2.11845	38.10
2.13512	38.07
2.15178	38.04
2.16845	38.01
2.18512	37.98
2.20178	37.96
2.21845	37.92
2.23512	37.89
2.25178	37.87
2.26845	37.84
2.28512	37.80
2.30178	37.78
2.31845	37.75
2.33512	37.72
2.35178	37.69
2.36845	37.66
2.38512	37.65
2.40178	37.65
2.41845	37.66
2.43512	37.66
2.45178	37.66
2.46845	37.66
2.48512	37.65
2.50178	37.65
2.51845	37.65
2.53512	37.65
2.55178	37.65
2.56845	37.65
2.58512	37.65
2.60178	37.65
2.61845	37.65
2.63512	37.64
2.65178	37.64
2.66845	37.64
2.68512	37.64
2.70178	37.64
2.71845	37.64
2.73512	37.64
2.75178	37.64
2.76845	37.64
2.78512	37.64
2.80178	37.64
2.81845	37.64
2.83512	37.64
2.85178	37.64
2.86845	37.64
2.88512	37.64
2.90178	37.64
2.91845	37.64
2.93512	37.63
2.95178	37.63
2.96845	37.63
2.98512	37.63
3.00178	37.63
3.01845	37.63
3.03512	37.63
3.05178	37.63
3.06845	37.63
3.08512	37.63
3.10178	37.63
3.11845	37.63
3.13512	37.63
3.15178	37.62
3.16845	37.63
3.18512	37.62
3.20178	37.62
3.21845	37.62
3.23512	37.62
3.25178	37.62
3.26845	37.62
3.28512	37.62
3.30178	37.62
3.31845	37.62
3.33512	37.62
3.35178	37.62
3.36845	37.62
3.38512	37.62
3.40178	37.62
3.41845	37.63
3.43512	37.63
3.45178	37.63
3.46845	37.63
3.48512	37.63
3.50178	37.63
3.51845	37.63
3.53512	37.63
3.55178	37.63
3.56845	37.62
3.58512	37.62
3.60178	37.62
3.61845	37.62
3.63512	37.62
3.65178	37.62
3.66845	37.62
3.68512	37.62
3.70178	37.63
3.71845	37.63
3.73512	37.63
3.75178	37.63
3.76845	37.63
3.78512	37.63
3.80178	37.62
3.81845	37.62
3.83512	37.62
3.85178	37.62
3.86845	37.62
3.88512	37.62
3.90178	37.62
3.91845	37.62
3.93512	37.62
3.95178	37.62
3.96845	37.62
3.98512	37.62

