[Header]
Application Name	LabSolutions
Version	5.110
Data File Name	C:\Users\User\Desktop\GC Analyses\Jack\UIC Prairie Sampling\10.19.22\221019_056.gcd
Output Date	1/4/2023
Output Time	2:27:24 PM

[File Information]
Type	Data File
Generated	12/7/2022 12:16:42 PM
Generated by	System Administrator
Modified	12/7/2022 12:21:02 PM
Modified by	System Administrator

[Sample Information]
Operator Name	System Administrator
Acquired	12/7/2022 12:17:02 PM
Sample Type	1:Standard
Level	1
Sample Name	221019_UICPrairie
Sample ID	221019_UICPrairie
ISTD Amount1	1
ISTD Amount2	1
ISTD Amount3	1
ISTD Amount4	1
ISTD Amount5	1
ISTD Amount6	1
ISTD Amount7	1
ISTD Amount8	1
ISTD Amount9	1
ISTD Amount10	1
ISTD Amount11	1
ISTD Amount12	1
ISTD Amount13	1
ISTD Amount14	1
ISTD Amount15	1
ISTD Amount16	1
ISTD Amount17	1
ISTD Amount18	1
ISTD Amount19	1
ISTD Amount20	1
ISTD Amount21	1
ISTD Amount22	1
ISTD Amount23	1
ISTD Amount24	1
ISTD Amount25	1
ISTD Amount26	1
ISTD Amount27	1
ISTD Amount28	1
ISTD Amount29	1
ISTD Amount30	1
ISTD Amount31	1
ISTD Amount32	1
Sample Amount	1
Dilution Factor	1
Vial#	1
Injection Volume	1
Injection Count	1
Bar Code	

[Original Files]
Data File	C:\Users\User\Desktop\GC Analyses\Jack\UIC Prairie Sampling\10.19.22\221019_056.gcd
Method File	C:\LabSolutions\Data\GHG_4min_2022\ghg3_togas_w_acet_4 min_new_int.gcm
Batch File	
Report Format File	c:\LabSolutions\System\DEFAULT.lsr

[File Description]


[Configuration]
Instrument Name	C0B7VH3-Instrument1
Instrument #	1
Line #	1
# of Detectors	3
Detector ID	DET#1	DET#2	DET#3
Detector Name	FID	PTCD	ECD
# of Channels	1	1	1

[Peak Table(Ch1)]
# of Peaks	3
Peak#	R.Time	I.Time	F.Time	Area	Height	A/H	Conc.	Mark	ID#	Name	k'	Plate #	Plate Ht.	Tailing	Resolution	Sep.Factor	Area Ratio	Height Ratio	Conc. %	Norm Conc.
1	1.461	1.428	1.531	2897	842	3.442	100.000	   	1	CO	0.000	4451	33.704	0.000	0.000	0.000	0	0	16.667	16.667
2	1.567	1.531	1.652	21624	10831	1.996	100.000	 V 	2	CH4	0.073	11439	13.113	1.207	1.454	0.000	0	0	16.667	16.667
3	1.996	1.945	2.653	2157002	1001026	2.155	400.000	   	3	CO2	0.366	16914	8.868	1.251	7.149	5.034	0	0	66.667	66.667

[Peak Table(Ch2)]
# of Peaks	0

[Peak Table(Ch3)]
# of Peaks	5
Peak#	R.Time	I.Time	F.Time	Area	Height	A/H	Conc.	Mark	ID#	Name	k'	Plate #	Plate Ht.	Tailing	Resolution	Sep.Factor	Area Ratio	Height Ratio	Conc. %	Norm Conc.
1	2.458	2.352	2.495	1437	396	3.629	0.000	   			0.000	8824	17.000	0.000	0.000	0.000	0	0	0.000	0.000
2	2.513	2.495	2.554	851	280	3.038	0.000	 V 			0.022	2128	70.489	0.000	0.341	0.000	0	0	0.000	0.000
3	2.601	2.554	2.649	1240	338	3.668	0.000	 V 			0.058	6113	24.537	0.000	0.501	2.600	0	0	0.000	0.000
4	2.880	2.667	3.151	67781	16536	4.099	1.000	   	1	N2O	0.172	12465	12.034	1.647	2.359	2.949	0	0	100.000	100.000
5	3.272	3.151	3.995	13703	560	24.481	0.000	 V 			0.331	310	484.360	0.000	0.926	1.930	0	0	0.000	0.000

[Compound Results(Ch1)]
# of IDs	6
ID#	Name	R.Time	Area	Height	Conc.	Curve	3rd	2nd	1st	Constant	Area Ratio	Height Ratio	Conc. %	Norm Conc.
1	CO	1.461	2897	842	100.000	Linear	0.000000e+00	0.000000e+00	2.896776e+001	0.000000e+00	0	0	16.667	16.667
2	CH4	1.567	21624	10831	100.000	Linear	0.000000e+00	0.000000e+00	2.162369e+002	0.000000e+00	0	0	16.667	16.667
3	CO2	1.996	2157002	1001026	400.000	Linear	0.000000e+00	0.000000e+00	5.392506e+003	0.000000e+00	0	0	66.667	66.667
4	Ethylene	0.000	0	0	0.000	Linear	0.000000e+00	0.000000e+00	0.000000e+00	0.000000e+00	0	0	0.000	0.000
5	Acetylene	0.000	0	0	0.000	Linear	0.000000e+00	0.000000e+00	0.000000e+00	0.000000e+00	0	0	0.000	0.000
6	Ethane	0.000	0	0	0.000	Linear	0.000000e+00	0.000000e+00	0.000000e+00	0.000000e+00	0	0	0.000	0.000

[Compound Results(Ch2)]
# of IDs	5
ID#	Name	R.Time	Area	Height	Conc.	Curve	3rd	2nd	1st	Constant	Area Ratio	Height Ratio	Conc. %	Norm Conc.
1	Hydrogen	0.000	0	0	0.000	Linear	0.000000e+00	0.000000e+00	0.000000e+00	0.000000e+00	0	0	0.000	0.000
2	Oxygen	0.000	0	0	0.000	Linear	0.000000e+00	0.000000e+00	0.000000e+00	0.000000e+00	0	0	0.000	0.000
3	Nitrogen	0.000	0	0	0.000	Linear	0.000000e+00	0.000000e+00	0.000000e+00	0.000000e+00	0	0	0.000	0.000
4	Methane	0.000	0	0	0.000	Linear	0.000000e+00	0.000000e+00	0.000000e+00	0.000000e+00	0	0	0.000	0.000
5	Carbon Monoxide	0.000	0	0	0.000	Linear	0.000000e+00	0.000000e+00	0.000000e+00	0.000000e+00	0	0	0.000	0.000

[Compound Results(Ch3)]
# of IDs	2
ID#	Name	R.Time	Area	Height	Conc.	Curve	3rd	2nd	1st	Constant	Area Ratio	Height Ratio	Conc. %	Norm Conc.
1	N2O	2.880	67781	16536	1.000	Linear	0.000000e+00	0.000000e+00	6.778100e+004	0.000000e+00	0	0	100.000	100.000
2	SF6	0.000	0	0	0.000	Linear	0.000000e+00	0.000000e+00	0.000000e+00	0.000000e+00	0	0	0.000	0.000

[Group Results(Ch1)]
# of Groups	0

[Group Results(Ch2)]
# of Groups	0

[Group Results(Ch3)]
# of Groups	0

[Chromatogram (Ch1)]
Interval(msec)	220
# of Points	1091
Start Time(min)	0.002
End Time(min)	3.998
R.Time (min)	Intensity
0.00167	-23
0.00533	-25
0.00900	-25
0.01267	-23
0.01633	-16
0.02000	-7
0.02367	-1
0.02733	0
0.03100	-5
0.03467	-15
0.03833	-22
0.04200	-26
0.04567	-31
0.04933	-35
0.05300	-41
0.05667	-41
0.06033	-36
0.06400	-32
0.06767	-29
0.07133	-26
0.07500	-22
0.07867	-21
0.08233	-21
0.08600	-22
0.08967	-21
0.09333	-19
0.09700	-19
0.10067	-20
0.10433	-22
0.10800	-25
0.11167	-30
0.11533	-33
0.11900	-32
0.12267	-32
0.12633	-32
0.13000	-32
0.13367	-33
0.13733	-35
0.14100	-34
0.14467	-33
0.14833	-33
0.15200	-32
0.15567	-28
0.15933	-26
0.16300	-30
0.16667	-37
0.17033	-42
0.17400	-45
0.17767	-48
0.18133	-47
0.18500	-43
0.18867	-36
0.19233	-28
0.19600	-21
0.19967	-17
0.20333	-18
0.20700	-22
0.21067	-29
0.21433	-36
0.21800	-41
0.22167	-47
0.22533	-50
0.22900	-51
0.23267	-53
0.23633	-55
0.24000	-59
0.24367	-64
0.24733	-67
0.25100	-66
0.25467	-59
0.25833	-53
0.26200	-45
0.26567	-38
0.26933	-36
0.27300	-41
0.27667	-49
0.28033	-58
0.28400	-65
0.28767	-67
0.29133	-65
0.29500	-62
0.29867	-54
0.30233	-46
0.30600	-41
0.30967	-40
0.31333	-39
0.31700	-38
0.32067	-37
0.32433	-37
0.32800	-38
0.33167	-38
0.33533	-35
0.33900	-33
0.34267	-33
0.34633	-34
0.35000	-36
0.35367	-37
0.35733	-34
0.36100	-35
0.36467	-37
0.36833	-42
0.37200	-50
0.37567	-60
0.37933	-68
0.38300	-72
0.38667	-72
0.39033	-68
0.39400	-64
0.39767	-61
0.40133	-58
0.40500	-56
0.40867	-60
0.41233	-63
0.41600	-67
0.41967	-70
0.42333	-70
0.42700	-64
0.43067	-57
0.43433	-49
0.43800	-41
0.44167	-39
0.44533	-41
0.44900	-43
0.45267	-44
0.45633	-41
0.46000	-35
0.46367	-32
0.46733	-32
0.47100	-31
0.47467	-32
0.47833	-40
0.48200	-48
0.48567	-55
0.48933	-61
0.49300	-65
0.49667	-70
0.50033	-75
0.50400	-77
0.50767	-75
0.51133	-71
0.51500	-68
0.51867	-68
0.52233	-72
0.52600	-77
0.52967	-81
0.53333	-77
0.53700	-68
0.54067	-58
0.54433	-54
0.54800	-54
0.55167	-54
0.55533	-54
0.55900	-51
0.56267	-49
0.56633	-49
0.57000	-53
0.57367	-61
0.57733	-68
0.58100	-70
0.58467	-67
0.58833	-62
0.59200	-57
0.59567	-55
0.59933	-56
0.60300	-59
0.60667	-62
0.61033	-62
0.61400	-60
0.61767	-59
0.62133	-60
0.62500	-65
0.62867	-73
0.63233	-79
0.63600	-82
0.63967	-80
0.64333	-77
0.64700	-78
0.65067	-83
0.65433	-84
0.65800	-80
0.66167	-74
0.66533	-71
0.66900	-71
0.67267	-74
0.67633	-79
0.68000	-84
0.68367	-87
0.68733	-89
0.69100	-89
0.69467	-87
0.69833	-82
0.70200	-77
0.70567	-71
0.70933	-64
0.71300	-59
0.71667	-58
0.72033	-63
0.72400	-74
0.72767	-86
0.73133	-96
0.73500	-99
0.73867	-97
0.74233	-93
0.74600	-89
0.74967	-85
0.75333	-78
0.75700	-73
0.76067	-70
0.76433	-69
0.76800	-71
0.77167	-73
0.77533	-75
0.77900	-74
0.78267	-67
0.78633	-54
0.79000	-43
0.79367	-36
0.79733	-35
0.80100	-39
0.80467	-43
0.80833	-46
0.81200	-49
0.81567	-51
0.81933	-50
0.82300	-47
0.82667	-47
0.83033	-51
0.83400	-58
0.83767	-59
0.84133	-58
0.84500	-59
0.84867	-62
0.85233	-64
0.85600	-62
0.85967	-60
0.86333	-59
0.86700	-61
0.87067	-62
0.87433	-62
0.87800	-63
0.88167	-61
0.88533	-57
0.88900	-53
0.89267	-51
0.89633	-50
0.90000	-51
0.90367	-53
0.90733	-57
0.91100	-61
0.91467	-63
0.91833	-60
0.92200	-55
0.92567	-52
0.92933	-49
0.93300	-45
0.93667	-46
0.94033	-47
0.94400	-46
0.94767	-45
0.95133	-43
0.95500	-43
0.95867	-38
0.96233	-33
0.96600	-33
0.96967	-39
0.97333	-47
0.97700	-55
0.98067	-62
0.98433	-66
0.98800	-70
0.99167	-76
0.99533	-80
0.99900	-79
1.00267	-77
1.00633	-78
1.01000	-78
1.01367	-76
1.01733	-73
1.02100	-68
1.02467	-63
1.02833	-60
1.03200	-57
1.03567	-57
1.03933	-59
1.04300	-62
1.04667	-67
1.05033	-71
1.05400	-72
1.05767	-69
1.06133	-62
1.06500	-58
1.06867	-60
1.07233	-63
1.07600	-65
1.07967	-67
1.08333	-68
1.08700	-67
1.09067	-63
1.09433	-58
1.09800	-50
1.10167	-41
1.10533	-36
1.10900	-33
1.11267	-34
1.11633	-39
1.12000	-47
1.12367	-53
1.12733	-59
1.13100	-65
1.13467	-70
1.13833	-73
1.14200	-77
1.14567	-81
1.14933	-83
1.15300	-82
1.15667	-82
1.16033	-82
1.16400	-82
1.16767	-78
1.17133	-71
1.17500	-65
1.17867	-64
1.18233	-69
1.18600	-76
1.18967	-83
1.19333	-89
1.19700	-87
1.20067	-83
1.20433	-79
1.20800	-77
1.21167	-78
1.21533	-79
1.21900	-77
1.22267	-71
1.22633	-66
1.23000	-62
1.23367	-60
1.23733	-61
1.24100	-67
1.24467	-76
1.24833	-84
1.25200	-87
1.25567	-84
1.25933	-78
1.26300	-69
1.26667	-63
1.27033	-61
1.27400	-63
1.27767	-68
1.28133	-73
1.28500	-80
1.28867	-85
1.29233	-89
1.29600	-90
1.29967	-90
1.30333	-92
1.30700	-94
1.31067	-94
1.31433	-90
1.31800	-85
1.32167	-81
1.32533	-78
1.32900	-76
1.33267	-76
1.33633	-73
1.34000	-70
1.34367	-72
1.34733	-76
1.35100	-82
1.35467	-88
1.35833	-94
1.36200	-105
1.36567	-115
1.36933	-120
1.37300	-122
1.37667	-121
1.38033	-119
1.38400	-120
1.38767	-121
1.39133	-122
1.39500	-121
1.39867	-114
1.40233	-109
1.40600	-106
1.40967	-106
1.41333	-107
1.41700	-107
1.42067	-105
1.42433	-103
1.42800	-101
1.43167	-97
1.43533	-89
1.43900	-53
1.44267	71
1.44633	281
1.45000	491
1.45367	639
1.45733	717
1.46100	743
1.46467	741
1.46833	732
1.47200	725
1.47567	725
1.47933	724
1.48300	709
1.48667	670
1.49033	606
1.49400	523
1.49767	431
1.50133	343
1.50500	266
1.50867	200
1.51233	144
1.51600	100
1.51967	68
1.52333	44
1.52700	26
1.53067	13
1.53433	24
1.53800	143
1.54167	593
1.54533	1684
1.54900	3444
1.55267	5538
1.55633	7535
1.56000	9152
1.56367	10257
1.56733	10739
1.57100	10459
1.57467	9405
1.57833	7809
1.58200	6041
1.58567	4410
1.58933	3081
1.59300	2079
1.59667	1361
1.60033	865
1.60400	528
1.60767	308
1.61133	170
1.61500	86
1.61867	31
1.62233	-3
1.62600	-24
1.62967	-39
1.63333	-51
1.63700	-60
1.64067	-71
1.64433	-79
1.64800	-85
1.65167	-87
1.65533	-90
1.65900	-98
1.66267	-108
1.66633	-114
1.67000	-118
1.67367	-122
1.67733	-124
1.68100	-125
1.68467	-124
1.68833	-119
1.69200	-112
1.69567	-105
1.69933	-100
1.70300	-99
1.70667	-99
1.71033	-99
1.71400	-102
1.71767	-110
1.72133	-119
1.72500	-124
1.72867	-126
1.73233	-125
1.73600	-123
1.73967	-121
1.74333	-118
1.74700	-115
1.75067	-114
1.75433	-116
1.75800	-121
1.76167	-124
1.76533	-114
1.76900	-104
1.77267	-100
1.77633	-101
1.78000	-105
1.78367	-108
1.78733	-110
1.79100	-112
1.79467	-110
1.79833	-105
1.80200	-101
1.80567	-101
1.80933	-105
1.81300	-111
1.81667	-114
1.82033	-117
1.82400	-121
1.82767	-123
1.83133	-120
1.83500	-115
1.83867	-111
1.84233	-108
1.84600	-108
1.84967	-110
1.85333	-111
1.85700	-112
1.86067	-111
1.86433	-107
1.86800	-104
1.87167	-103
1.87533	-102
1.87900	-104
1.88267	-109
1.88633	-114
1.89000	-117
1.89367	-116
1.89733	-113
1.90100	-107
1.90467	-103
1.90833	-103
1.91200	-106
1.91567	-109
1.91933	-112
1.92300	-113
1.92667	-111
1.93033	-105
1.93400	-96
1.93767	-89
1.94133	-84
1.94500	-79
1.94867	-65
1.95233	1
1.95600	384
1.95967	2384
1.96333	10482
1.96700	35481
1.97067	94895
1.97433	204495
1.97800	363663
1.98167	550656
1.98533	733414
1.98900	881991
1.99267	975039
1.99633	1000982
2.00000	958652
2.00367	859159
2.00733	723634
2.01100	576643
2.01467	438848
2.01833	322515
2.02200	231555
2.02567	164238
2.02933	116266
2.03300	82907
2.03667	60031
2.04033	44426
2.04400	33758
2.04767	26402
2.05133	21263
2.05500	17603
2.05867	14929
2.06233	12925
2.06600	11390
2.06967	10187
2.07333	9220
2.07700	8422
2.08067	7751
2.08433	7182
2.08800	6693
2.09167	6268
2.09533	5894
2.09900	5556
2.10267	5255
2.10633	4984
2.11000	4736
2.11367	4513
2.11733	4311
2.12100	4124
2.12467	3952
2.12833	3796
2.13200	3650
2.13567	3516
2.13933	3390
2.14300	3269
2.14667	3155
2.15033	3048
2.15400	2946
2.15767	2850
2.16133	2762
2.16500	2683
2.16867	2608
2.17233	2536
2.17600	2465
2.17967	2394
2.18333	2323
2.18700	2258
2.19067	2201
2.19433	2152
2.19800	2105
2.20167	2057
2.20533	2011
2.20900	1963
2.21267	1913
2.21633	1864
2.22000	1816
2.22367	1773
2.22733	1730
2.23100	1688
2.23467	1650
2.23833	1618
2.24200	1592
2.24567	1568
2.24933	1544
2.25300	1518
2.25667	1491
2.26033	1464
2.26400	1439
2.26767	1416
2.27133	1393
2.27500	1369
2.27867	1342
2.28233	1316
2.28600	1291
2.28967	1265
2.29333	1239
2.29700	1215
2.30067	1194
2.30433	1172
2.30800	1153
2.31167	1136
2.31533	1122
2.31900	1107
2.32267	1088
2.32633	1071
2.33000	1058
2.33367	1048
2.33733	1037
2.34100	1024
2.34467	1009
2.34833	993
2.35200	978
2.35567	965
2.35933	955
2.36300	944
2.36667	930
2.37033	917
2.37400	908
2.37767	899
2.38133	891
2.38500	883
2.38867	871
2.39233	859
2.39600	848
2.39967	838
2.40333	828
2.40700	819
2.41067	811
2.41433	802
2.41800	791
2.42167	782
2.42533	772
2.42900	764
2.43267	757
2.43633	750
2.44000	741
2.44367	733
2.44733	727
2.45100	722
2.45467	718
2.45833	710
2.46200	698
2.46567	685
2.46933	675
2.47300	665
2.47667	653
2.48033	642
2.48400	636
2.48767	633
2.49133	628
2.49500	623
2.49867	620
2.50233	619
2.50600	618
2.50967	612
2.51333	601
2.51700	588
2.52067	575
2.52433	565
2.52800	559
2.53167	558
2.53533	557
2.53900	556
2.54267	554
2.54633	552
2.55000	549
2.55367	548
2.55733	548
2.56100	543
2.56467	532
2.56833	518
2.57200	507
2.57567	496
2.57933	485
2.58300	476
2.58667	470
2.59033	464
2.59400	461
2.59767	459
2.60133	456
2.60500	449
2.60867	444
2.61233	444
2.61600	447
2.61967	447
2.62333	443
2.62700	437
2.63067	434
2.63433	431
2.63800	427
2.64167	423
2.64533	420
2.64900	417
2.65267	413
2.65633	407
2.66000	399
2.66367	392
2.66733	388
2.67100	388
2.67467	388
2.67833	385
2.68200	380
2.68567	375
2.68933	373
2.69300	369
2.69667	363
2.70033	356
2.70400	349
2.70767	345
2.71133	344
2.71500	345
2.71867	343
2.72233	340
2.72600	335
2.72967	331
2.73333	327
2.73700	323
2.74067	318
2.74433	311
2.74800	309
2.75167	309
2.75533	312
2.75900	313
2.76267	313
2.76633	313
2.77000	316
2.77367	323
2.77733	330
2.78100	334
2.78467	333
2.78833	331
2.79200	326
2.79567	318
2.79933	305
2.80300	291
2.80667	282
2.81033	270
2.81400	267
2.81767	269
2.82133	273
2.82500	278
2.82867	279
2.83233	275
2.83600	268
2.83967	264
2.84333	262
2.84700	262
2.85067	267
2.85433	272
2.85800	273
2.86167	268
2.86533	264
2.86900	265
2.87267	267
2.87633	263
2.88000	256
2.88367	249
2.88733	242
2.89100	239
2.89467	240
2.89833	241
2.90200	235
2.90567	228
2.90933	224
2.91300	221
2.91667	216
2.92033	211
2.92400	209
2.92767	213
2.93133	219
2.93500	224
2.93867	227
2.94233	227
2.94600	223
2.94967	213
2.95333	204
2.95700	197
2.96067	192
2.96433	189
2.96800	190
2.97167	192
2.97533	194
2.97900	194
2.98267	199
2.98633	205
2.99000	211
2.99367	214
2.99733	214
3.00100	214
3.00467	214
3.00833	215
3.01200	215
3.01567	213
3.01933	208
3.02300	198
3.02667	188
3.03033	183
3.03400	179
3.03767	177
3.04133	174
3.04500	172
3.04867	174
3.05233	175
3.05600	173
3.05967	169
3.06333	165
3.06700	161
3.07067	157
3.07433	152
3.07800	145
3.08167	145
3.08533	151
3.08900	155
3.09267	153
3.09633	149
3.10000	145
3.10367	138
3.10733	133
3.11100	131
3.11467	131
3.11833	134
3.12200	135
3.12567	136
3.12933	135
3.13300	134
3.13667	131
3.14033	129
3.14400	126
3.14767	122
3.15133	121
3.15500	125
3.15867	126
3.16233	127
3.16600	125
3.16967	121
3.17333	118
3.17700	118
3.18067	122
3.18433	129
3.18800	135
3.19167	138
3.19533	135
3.19900	126
3.20267	116
3.20633	107
3.21000	99
3.21367	91
3.21733	91
3.22100	95
3.22467	99
3.22833	100
3.23200	100
3.23567	97
3.23933	88
3.24300	79
3.24667	72
3.25033	67
3.25400	60
3.25767	61
3.26133	73
3.26500	82
3.26867	89
3.27233	87
3.27600	83
3.27967	86
3.28333	87
3.28700	86
3.29067	88
3.29433	87
3.29800	89
3.30167	89
3.30533	85
3.30900	83
3.31267	81
3.31633	81
3.32000	86
3.32367	88
3.32733	83
3.33100	77
3.33467	75
3.33833	80
3.34200	83
3.34567	80
3.34933	74
3.35300	67
3.35667	64
3.36033	64
3.36400	65
3.36767	68
3.37133	71
3.37500	73
3.37867	72
3.38233	68
3.38600	64
3.38967	64
3.39333	67
3.39700	70
3.40067	68
3.40433	62
3.40800	55
3.41167	47
3.41533	40
3.41900	35
3.42267	32
3.42633	32
3.43000	39
3.43367	47
3.43733	54
3.44100	59
3.44467	61
3.44833	57
3.45200	49
3.45567	42
3.45933	39
3.46300	38
3.46667	37
3.47033	39
3.47400	43
3.47767	46
3.48133	49
3.48500	52
3.48867	56
3.49233	60
3.49600	66
3.49967	71
3.50333	76
3.50700	79
3.51067	76
3.51433	69
3.51800	60
3.52167	48
3.52533	36
3.52900	28
3.53267	23
3.53633	20
3.54000	18
3.54367	16
3.54733	13
3.55100	12
3.55467	13
3.55833	14
3.56200	18
3.56567	22
3.56933	27
3.57300	30
3.57667	30
3.58033	26
3.58400	17
3.58767	6
3.59133	-2
3.59500	-4
3.59867	-0
3.60233	4
3.60600	7
3.60967	7
3.61333	5
3.61700	1
3.62067	-3
3.62433	-5
3.62800	-5
3.63167	-5
3.63533	2
3.63900	11
3.64267	16
3.64633	19
3.65000	18
3.65367	15
3.65733	15
3.66100	16
3.66467	16
3.66833	13
3.67200	5
3.67567	1
3.67933	4
3.68300	9
3.68667	9
3.69033	4
3.69400	1
3.69767	-2
3.70133	-3
3.70500	-6
3.70867	-10
3.71233	-10
3.71600	-10
3.71967	-12
3.72333	-10
3.72700	-7
3.73067	-2
3.73433	-1
3.73800	-5
3.74167	-11
3.74533	-15
3.74900	-13
3.75267	-7
3.75633	-2
3.76000	-1
3.76367	-2
3.76733	-6
3.77100	-9
3.77467	-10
3.77833	-11
3.78200	-12
3.78567	-14
3.78933	-18
3.79300	-19
3.79667	-17
3.80033	-13
3.80400	-11
3.80767	-12
3.81133	-12
3.81500	-10
3.81867	-7
3.82233	-6
3.82600	-8
3.82967	-11
3.83333	-15
3.83700	-25
3.84067	-30
3.84433	-25
3.84800	-20
3.85167	-18
3.85533	-19
3.85900	-21
3.86267	-20
3.86633	-17
3.87000	-13
3.87367	-7
3.87733	-4
3.88100	-8
3.88467	-19
3.88833	-32
3.89200	-43
3.89567	-48
3.89933	-46
3.90300	-38
3.90667	-26
3.91033	-16
3.91400	-9
3.91767	-8
3.92133	-12
3.92500	-21
3.92867	-28
3.93233	-31
3.93600	-30
3.93967	-28
3.94333	-29
3.94700	-30
3.95067	-28
3.95433	-25
3.95800	-23
3.96167	-25
3.96533	-31
3.96900	-40
3.97267	-48
3.97633	-54
3.98000	-52
3.98367	-48
3.98733	-46
3.99100	-49
3.99467	-56
3.99833	-60

[Chromatogram (Ch2)]
Interval(msec)	220
# of Points	1091
Start Time(min)	0.002
End Time(min)	3.998
R.Time (min)	Intensity
0.00167	0
0.00533	0
0.00900	0
0.01267	0
0.01633	0
0.02000	0
0.02367	0
0.02733	-0
0.03100	-0
0.03467	-0
0.03833	-1
0.04200	-1
0.04567	-1
0.04933	-1
0.05300	-1
0.05667	-1
0.06033	-1
0.06400	-1
0.06767	-1
0.07133	-1
0.07500	-1
0.07867	-1
0.08233	-1
0.08600	-1
0.08967	-0
0.09333	-0
0.09700	-0
0.10067	0
0.10433	0
0.10800	0
0.11167	0
0.11533	0
0.11900	0
0.12267	1
0.12633	1
0.13000	1
0.13367	1
0.13733	1
0.14100	1
0.14467	0
0.14833	0
0.15200	-0
0.15567	-0
0.15933	-0
0.16300	-1
0.16667	-1
0.17033	-0
0.17400	-0
0.17767	-0
0.18133	-0
0.18500	-0
0.18867	-0
0.19233	-0
0.19600	-0
0.19967	-1
0.20333	-1
0.20700	-1
0.21067	-1
0.21433	-1
0.21800	-1
0.22167	-1
0.22533	-1
0.22900	-1
0.23267	-1
0.23633	-2
0.24000	-2
0.24367	-2
0.24733	-2
0.25100	-2
0.25467	-2
0.25833	-3
0.26200	-3
0.26567	-3
0.26933	-3
0.27300	-2
0.27667	-2
0.28033	-2
0.28400	-2
0.28767	-2
0.29133	-2
0.29500	-2
0.29867	-2
0.30233	-2
0.30600	-2
0.30967	-2
0.31333	-2
0.31700	-2
0.32067	-2
0.32433	-2
0.32800	-2
0.33167	-2
0.33533	-2
0.33900	-2
0.34267	-2
0.34633	-2
0.35000	-2
0.35367	-2
0.35733	-2
0.36100	-3
0.36467	-3
0.36833	-3
0.37200	-3
0.37567	-3
0.37933	-3
0.38300	-3
0.38667	-3
0.39033	-3
0.39400	-3
0.39767	-3
0.40133	-3
0.40500	-3
0.40867	-3
0.41233	-3
0.41600	-3
0.41967	-2
0.42333	-2
0.42700	-2
0.43067	-1
0.43433	-1
0.43800	-1
0.44167	-1
0.44533	-1
0.44900	-1
0.45267	-2
0.45633	-2
0.46000	-2
0.46367	-2
0.46733	-2
0.47100	-2
0.47467	-2
0.47833	-3
0.48200	-3
0.48567	-3
0.48933	-3
0.49300	-3
0.49667	-3
0.50033	-3
0.50400	-3
0.50767	-3
0.51133	-3
0.51500	-3
0.51867	-3
0.52233	-3
0.52600	-3
0.52967	-3
0.53333	-3
0.53700	-3
0.54067	-4
0.54433	-4
0.54800	-4
0.55167	-4
0.55533	-4
0.55900	-5
0.56267	-5
0.56633	-5
0.57000	-5
0.57367	-5
0.57733	-4
0.58100	-4
0.58467	-4
0.58833	-4
0.59200	-4
0.59567	-3
0.59933	-3
0.60300	-3
0.60667	-3
0.61033	-3
0.61400	-3
0.61767	-3
0.62133	-2
0.62500	-2
0.62867	-2
0.63233	-2
0.63600	-3
0.63967	-3
0.64333	-3
0.64700	-3
0.65067	-3
0.65433	-3
0.65800	-3
0.66167	-3
0.66533	-2
0.66900	-2
0.67267	-2
0.67633	-3
0.68000	-3
0.68367	-3
0.68733	-3
0.69100	-3
0.69467	-3
0.69833	-3
0.70200	-3
0.70567	-3
0.70933	-3
0.71300	-3
0.71667	-2
0.72033	-2
0.72400	-2
0.72767	-2
0.73133	-2
0.73500	-2
0.73867	-2
0.74233	-2
0.74600	-2
0.74967	-2
0.75333	-2
0.75700	-3
0.76067	-3
0.76433	-3
0.76800	-3
0.77167	-3
0.77533	-3
0.77900	-3
0.78267	-3
0.78633	-3
0.79000	-4
0.79367	-4
0.79733	-4
0.80100	-3
0.80467	-3
0.80833	-3
0.81200	-3
0.81567	-3
0.81933	-3
0.82300	-3
0.82667	-4
0.83033	-4
0.83400	-4
0.83767	-4
0.84133	-4
0.84500	-4
0.84867	-4
0.85233	-4
0.85600	-4
0.85967	-4
0.86333	-4
0.86700	-4
0.87067	-4
0.87433	-4
0.87800	-4
0.88167	-4
0.88533	-4
0.88900	-4
0.89267	-4
0.89633	-5
0.90000	-5
0.90367	-4
0.90733	-4
0.91100	-4
0.91467	-4
0.91833	-4
0.92200	-4
0.92567	-4
0.92933	-4
0.93300	-4
0.93667	-4
0.94033	-4
0.94400	-4
0.94767	-3
0.95133	-3
0.95500	-3
0.95867	-3
0.96233	-3
0.96600	-3
0.96967	-4
0.97333	-4
0.97700	-4
0.98067	-4
0.98433	-4
0.98800	-4
0.99167	-4
0.99533	-4
0.99900	-5
1.00267	-5
1.00633	-5
1.01000	-5
1.01367	-5
1.01733	-4
1.02100	-4
1.02467	-4
1.02833	-4
1.03200	-4
1.03567	-4
1.03933	-4
1.04300	-4
1.04667	-4
1.05033	-4
1.05400	-4
1.05767	-4
1.06133	-4
1.06500	-4
1.06867	-4
1.07233	-4
1.07600	-4
1.07967	-4
1.08333	-4
1.08700	-4
1.09067	-4
1.09433	-4
1.09800	-4
1.10167	-4
1.10533	-4
1.10900	-4
1.11267	-4
1.11633	-4
1.12000	-4
1.12367	-4
1.12733	-5
1.13100	-5
1.13467	-5
1.13833	-5
1.14200	-5
1.14567	-5
1.14933	-5
1.15300	-6
1.15667	-6
1.16033	-6
1.16400	-6
1.16767	-6
1.17133	-7
1.17500	-7
1.17867	-7
1.18233	-6
1.18600	-6
1.18967	-6
1.19333	-6
1.19700	-5
1.20067	-5
1.20433	-5
1.20800	-4
1.21167	-4
1.21533	-4
1.21900	-3
1.22267	-3
1.22633	-3
1.23000	-3
1.23367	-3
1.23733	-2
1.24100	-2
1.24467	-2
1.24833	-2
1.25200	-2
1.25567	-3
1.25933	-3
1.26300	-3
1.26667	-4
1.27033	-4
1.27400	-4
1.27767	-4
1.28133	-3
1.28500	-3
1.28867	-3
1.29233	-3
1.29600	-3
1.29967	-3
1.30333	-3
1.30700	-3
1.31067	-3
1.31433	-3
1.31800	-3
1.32167	-3
1.32533	-3
1.32900	-3
1.33267	-3
1.33633	-3
1.34000	-3
1.34367	-3
1.34733	-3
1.35100	-4
1.35467	-4
1.35833	-4
1.36200	-4
1.36567	-4
1.36933	-4
1.37300	-4
1.37667	-4
1.38033	-4
1.38400	-4
1.38767	-4
1.39133	-4
1.39500	-4
1.39867	-4
1.40233	-4
1.40600	-4
1.40967	-3
1.41333	-3
1.41700	-3
1.42067	-3
1.42433	-3
1.42800	-3
1.43167	-3
1.43533	-3
1.43900	-3
1.44267	-4
1.44633	-4
1.45000	-4
1.45367	-4
1.45733	-4
1.46100	-4
1.46467	-4
1.46833	-4
1.47200	-5
1.47567	-5
1.47933	-5
1.48300	-5
1.48667	-6
1.49033	-6
1.49400	-6
1.49767	-6
1.50133	-7
1.50500	-7
1.50867	-7
1.51233	-7
1.51600	-7
1.51967	-7
1.52333	-7
1.52700	-7
1.53067	-7
1.53433	-7
1.53800	-7
1.54167	-7
1.54533	-6
1.54900	-6
1.55267	-6
1.55633	-6
1.56000	-6
1.56367	-6
1.56733	-6
1.57100	-6
1.57467	-6
1.57833	-6
1.58200	-6
1.58567	-6
1.58933	-6
1.59300	-6
1.59667	-7
1.60033	-8
1.60400	-9
1.60767	-10
1.61133	-12
1.61500	-14
1.61867	-16
1.62233	-18
1.62600	-21
1.62967	-24
1.63333	-27
1.63700	-30
1.64067	-34
1.64433	-38
1.64800	-42
1.65167	-46
1.65533	-50
1.65900	-53
1.66267	-57
1.66633	-61
1.67000	-66
1.67367	-70
1.67733	-75
1.68100	-80
1.68467	-85
1.68833	-89
1.69200	-94
1.69567	-97
1.69933	-100
1.70300	-103
1.70667	-106
1.71033	-108
1.71400	-110
1.71767	-112
1.72133	-113
1.72500	-114
1.72867	-114
1.73233	-114
1.73600	-114
1.73967	-114
1.74333	-114
1.74700	-114
1.75067	-114
1.75433	-114
1.75800	-115
1.76167	-116
1.76533	-117
1.76900	-118
1.77267	-119
1.77633	-120
1.78000	-121
1.78367	-122
1.78733	-122
1.79100	-123
1.79467	-123
1.79833	-123
1.80200	-123
1.80567	-123
1.80933	-123
1.81300	-123
1.81667	-122
1.82033	-122
1.82400	-122
1.82767	-121
1.83133	-122
1.83500	-122
1.83867	-122
1.84233	-123
1.84600	-123
1.84967	-123
1.85333	-123
1.85700	-123
1.86067	-124
1.86433	-124
1.86800	-124
1.87167	-124
1.87533	-124
1.87900	-125
1.88267	-124
1.88633	-124
1.89000	-124
1.89367	-124
1.89733	-123
1.90100	-122
1.90467	-122
1.90833	-121
1.91200	-121
1.91567	-121
1.91933	-121
1.92300	-122
1.92667	-121
1.93033	-121
1.93400	-121
1.93767	-120
1.94133	-119
1.94500	-118
1.94867	-117
1.95233	-116
1.95600	-116
1.95967	-116
1.96333	-116
1.96700	-117
1.97067	-117
1.97433	-118
1.97800	-118
1.98167	-118
1.98533	-118
1.98900	-117
1.99267	-116
1.99633	-115
2.00000	-114
2.00367	-114
2.00733	-113
2.01100	-113
2.01467	-113
2.01833	-113
2.02200	-114
2.02567	-114
2.02933	-114
2.03300	-113
2.03667	-113
2.04033	-113
2.04400	-112
2.04767	-112
2.05133	-112
2.05500	-112
2.05867	-112
2.06233	-112
2.06600	-111
2.06967	-111
2.07333	-111
2.07700	-110
2.08067	-110
2.08433	-109
2.08800	-109
2.09167	-108
2.09533	-108
2.09900	-107
2.10267	-107
2.10633	-107
2.11000	-106
2.11367	-106
2.11733	-105
2.12100	-104
2.12467	-104
2.12833	-103
2.13200	-103
2.13567	-103
2.13933	-103
2.14300	-104
2.14667	-104
2.15033	-104
2.15400	-103
2.15767	-104
2.16133	-104
2.16500	-105
2.16867	-105
2.17233	-105
2.17600	-105
2.17967	-105
2.18333	-104
2.18700	-103
2.19067	-102
2.19433	-101
2.19800	-100
2.20167	-100
2.20533	-100
2.20900	-101
2.21267	-101
2.21633	-101
2.22000	-100
2.22367	-100
2.22733	-99
2.23100	-98
2.23467	-97
2.23833	-97
2.24200	-96
2.24567	-96
2.24933	-96
2.25300	-96
2.25667	-95
2.26033	-95
2.26400	-95
2.26767	-95
2.27133	-95
2.27500	-95
2.27867	-95
2.28233	-95
2.28600	-95
2.28967	-95
2.29333	-94
2.29700	-94
2.30067	-93
2.30433	-92
2.30800	-92
2.31167	-91
2.31533	-90
2.31900	-90
2.32267	-89
2.32633	-88
2.33000	-88
2.33367	-87
2.33733	-87
2.34100	-87
2.34467	-87
2.34833	-87
2.35200	-87
2.35567	-87
2.35933	-86
2.36300	-85
2.36667	-83
2.37033	-80
2.37400	-78
2.37767	-75
2.38133	-72
2.38500	-69
2.38867	-65
2.39233	-61
2.39600	-57
2.39967	-53
2.40333	-49
2.40700	-45
2.41067	-41
2.41433	-38
2.41800	-34
2.42167	-31
2.42533	-28
2.42900	-25
2.43267	-22
2.43633	-20
2.44000	-17
2.44367	-15
2.44733	-12
2.45100	-11
2.45467	-9
2.45833	-8
2.46200	-7
2.46567	-6
2.46933	-5
2.47300	-4
2.47667	-2
2.48033	-1
2.48400	1
2.48767	2
2.49133	2
2.49500	3
2.49867	3
2.50233	4
2.50600	4
2.50967	5
2.51333	6
2.51700	7
2.52067	7
2.52433	8
2.52800	8
2.53167	9
2.53533	10
2.53900	10
2.54267	11
2.54633	12
2.55000	12
2.55367	12
2.55733	12
2.56100	12
2.56467	12
2.56833	12
2.57200	13
2.57567	13
2.57933	14
2.58300	14
2.58667	14
2.59033	14
2.59400	14
2.59767	14
2.60133	15
2.60500	15
2.60867	16
2.61233	16
2.61600	17
2.61967	17
2.62333	16
2.62700	16
2.63067	16
2.63433	16
2.63800	17
2.64167	17
2.64533	18
2.64900	18
2.65267	19
2.65633	19
2.66000	19
2.66367	19
2.66733	19
2.67100	19
2.67467	19
2.67833	19
2.68200	19
2.68567	20
2.68933	20
2.69300	20
2.69667	20
2.70033	20
2.70400	21
2.70767	21
2.71133	21
2.71500	21
2.71867	20
2.72233	20
2.72600	20
2.72967	20
2.73333	20
2.73700	20
2.74067	20
2.74433	20
2.74800	21
2.75167	21
2.75533	21
2.75900	21
2.76267	22
2.76633	22
2.77000	23
2.77367	23
2.77733	24
2.78100	24
2.78467	24
2.78833	23
2.79200	23
2.79567	22
2.79933	22
2.80300	21
2.80667	21
2.81033	21
2.81400	21
2.81767	21
2.82133	21
2.82500	22
2.82867	22
2.83233	22
2.83600	23
2.83967	23
2.84333	22
2.84700	22
2.85067	20
2.85433	17
2.85800	13
2.86167	6
2.86533	-5
2.86900	-19
2.87267	-38
2.87633	-62
2.88000	-90
2.88367	-124
2.88733	-162
2.89100	-206
2.89467	-255
2.89833	-308
2.90200	-365
2.90567	-427
2.90933	-492
2.91300	-561
2.91667	-632
2.92033	-706
2.92400	-783
2.92767	-862
2.93133	-943
2.93500	-1026
2.93867	-1111
2.94233	-1197
2.94600	-1285
2.94967	-1374
2.95333	-1458
2.95700	-1524
2.96067	-1561
2.96433	-1564
2.96800	-1531
2.97167	-1467
2.97533	-1381
2.97900	-1279
2.98267	-1169
2.98633	-1056
2.99000	-945
2.99367	-839
2.99733	-739
3.00100	-648
3.00467	-565
3.00833	-491
3.01200	-425
3.01567	-366
3.01933	-315
3.02300	-270
3.02667	-231
3.03033	-198
3.03400	-168
3.03767	-143
3.04133	-122
3.04500	-103
3.04867	-88
3.05233	-74
3.05600	-62
3.05967	-52
3.06333	-43
3.06700	-36
3.07067	-29
3.07433	-24
3.07800	-19
3.08167	-15
3.08533	-12
3.08900	-9
3.09267	-6
3.09633	-4
3.10000	-2
3.10367	0
3.10733	2
3.11100	3
3.11467	4
3.11833	5
3.12200	6
3.12567	7
3.12933	7
3.13300	8
3.13667	9
3.14033	9
3.14400	10
3.14767	10
3.15133	11
3.15500	11
3.15867	12
3.16233	12
3.16600	12
3.16967	13
3.17333	13
3.17700	13
3.18067	14
3.18433	14
3.18800	14
3.19167	14
3.19533	15
3.19900	15
3.20267	15
3.20633	15
3.21000	15
3.21367	16
3.21733	16
3.22100	16
3.22467	16
3.22833	16
3.23200	17
3.23567	17
3.23933	17
3.24300	17
3.24667	18
3.25033	18
3.25400	18
3.25767	18
3.26133	18
3.26500	18
3.26867	18
3.27233	18
3.27600	18
3.27967	18
3.28333	18
3.28700	18
3.29067	19
3.29433	19
3.29800	19
3.30167	20
3.30533	20
3.30900	20
3.31267	21
3.31633	21
3.32000	22
3.32367	22
3.32733	23
3.33100	23
3.33467	23
3.33833	23
3.34200	24
3.34567	24
3.34933	24
3.35300	24
3.35667	24
3.36033	24
3.36400	24
3.36767	24
3.37133	24
3.37500	24
3.37867	24
3.38233	25
3.38600	25
3.38967	25
3.39333	25
3.39700	25
3.40067	25
3.40433	25
3.40800	25
3.41167	25
3.41533	25
3.41900	25
3.42267	25
3.42633	25
3.43000	25
3.43367	25
3.43733	25
3.44100	24
3.44467	24
3.44833	25
3.45200	25
3.45567	25
3.45933	25
3.46300	25
3.46667	25
3.47033	25
3.47400	25
3.47767	25
3.48133	25
3.48500	25
3.48867	25
3.49233	25
3.49600	25
3.49967	25
3.50333	25
3.50700	25
3.51067	25
3.51433	25
3.51800	25
3.52167	25
3.52533	25
3.52900	25
3.53267	25
3.53633	24
3.54000	24
3.54367	24
3.54733	24
3.55100	24
3.55467	24
3.55833	24
3.56200	24
3.56567	24
3.56933	24
3.57300	24
3.57667	24
3.58033	24
3.58400	23
3.58767	24
3.59133	24
3.59500	23
3.59867	23
3.60233	23
3.60600	23
3.60967	23
3.61333	23
3.61700	23
3.62067	23
3.62433	23
3.62800	23
3.63167	23
3.63533	23
3.63900	23
3.64267	24
3.64633	24
3.65000	24
3.65367	24
3.65733	24
3.66100	24
3.66467	25
3.66833	25
3.67200	25
3.67567	25
3.67933	25
3.68300	25
3.68667	25
3.69033	25
3.69400	25
3.69767	25
3.70133	25
3.70500	25
3.70867	25
3.71233	25
3.71600	24
3.71967	24
3.72333	24
3.72700	24
3.73067	24
3.73433	23
3.73800	23
3.74167	23
3.74533	23
3.74900	23
3.75267	23
3.75633	23
3.76000	22
3.76367	22
3.76733	22
3.77100	22
3.77467	22
3.77833	22
3.78200	23
3.78567	23
3.78933	24
3.79300	24
3.79667	24
3.80033	24
3.80400	24
3.80767	24
3.81133	24
3.81500	24
3.81867	24
3.82233	23
3.82600	23
3.82967	23
3.83333	23
3.83700	24
3.84067	24
3.84433	24
3.84800	24
3.85167	24
3.85533	24
3.85900	24
3.86267	24
3.86633	23
3.87000	23
3.87367	23
3.87733	23
3.88100	22
3.88467	23
3.88833	23
3.89200	23
3.89567	23
3.89933	23
3.90300	23
3.90667	23
3.91033	24
3.91400	24
3.91767	24
3.92133	24
3.92500	24
3.92867	24
3.93233	24
3.93600	25
3.93967	25
3.94333	25
3.94700	25
3.95067	25
3.95433	24
3.95800	24
3.96167	24
3.96533	24
3.96900	24
3.97267	24
3.97633	24
3.98000	24
3.98367	24
3.98733	24
3.99100	24
3.99467	24
3.99833	24

[Chromatogram (Ch3)]
Interval(msec)	220
# of Points	1091
Start Time(min)	0.002
End Time(min)	3.998
R.Time (min)	Intensity
0.00167	-1
0.00533	-1
0.00900	-0
0.01267	3
0.01633	4
0.02000	5
0.02367	6
0.02733	6
0.03100	5
0.03467	2
0.03833	2
0.04200	4
0.04567	6
0.04933	6
0.05300	4
0.05667	3
0.06033	2
0.06400	2
0.06767	3
0.07133	3
0.07500	1
0.07867	-0
0.08233	1
0.08600	4
0.08967	5
0.09333	5
0.09700	5
0.10067	5
0.10433	6
0.10800	7
0.11167	7
0.11533	5
0.11900	2
0.12267	2
0.12633	6
0.13000	7
0.13367	6
0.13733	8
0.14100	8
0.14467	8
0.14833	8
0.15200	9
0.15567	9
0.15933	6
0.16300	2
0.16667	2
0.17033	2
0.17400	2
0.17767	1
0.18133	2
0.18500	2
0.18867	2
0.19233	2
0.19600	3
0.19967	5
0.20333	8
0.20700	9
0.21067	10
0.21433	9
0.21800	9
0.22167	11
0.22533	12
0.22900	10
0.23267	7
0.23633	6
0.24000	7
0.24367	9
0.24733	10
0.25100	10
0.25467	9
0.25833	8
0.26200	8
0.26567	11
0.26933	11
0.27300	10
0.27667	11
0.28033	10
0.28400	8
0.28767	7
0.29133	5
0.29500	4
0.29867	8
0.30233	11
0.30600	11
0.30967	9
0.31333	7
0.31700	7
0.32067	8
0.32433	10
0.32800	12
0.33167	14
0.33533	13
0.33900	10
0.34267	10
0.34633	9
0.35000	9
0.35367	9
0.35733	10
0.36100	12
0.36467	13
0.36833	15
0.37200	17
0.37567	17
0.37933	15
0.38300	15
0.38667	17
0.39033	18
0.39400	16
0.39767	13
0.40133	10
0.40500	9
0.40867	10
0.41233	9
0.41600	12
0.41967	14
0.42333	12
0.42700	8
0.43067	6
0.43433	5
0.43800	8
0.44167	11
0.44533	13
0.44900	14
0.45267	13
0.45633	11
0.46000	9
0.46367	9
0.46733	10
0.47100	13
0.47467	13
0.47833	13
0.48200	15
0.48567	15
0.48933	14
0.49300	13
0.49667	12
0.50033	10
0.50400	10
0.50767	13
0.51133	16
0.51500	18
0.51867	17
0.52233	17
0.52600	16
0.52967	15
0.53333	15
0.53700	15
0.54067	16
0.54433	18
0.54800	19
0.55167	18
0.55533	17
0.55900	17
0.56267	18
0.56633	18
0.57000	17
0.57367	16
0.57733	13
0.58100	12
0.58467	11
0.58833	11
0.59200	12
0.59567	11
0.59933	9
0.60300	8
0.60667	9
0.61033	10
0.61400	9
0.61767	9
0.62133	10
0.62500	11
0.62867	12
0.63233	11
0.63600	9
0.63967	9
0.64333	8
0.64700	10
0.65067	13
0.65433	14
0.65800	16
0.66167	18
0.66533	17
0.66900	16
0.67267	16
0.67633	15
0.68000	16
0.68367	16
0.68733	17
0.69100	17
0.69467	14
0.69833	13
0.70200	13
0.70567	10
0.70933	9
0.71300	9
0.71667	9
0.72033	11
0.72400	12
0.72767	12
0.73133	10
0.73500	11
0.73867	14
0.74233	16
0.74600	15
0.74967	15
0.75333	14
0.75700	15
0.76067	14
0.76433	13
0.76800	14
0.77167	14
0.77533	11
0.77900	9
0.78267	8
0.78633	6
0.79000	3
0.79367	6
0.79733	8
0.80100	8
0.80467	7
0.80833	6
0.81200	6
0.81567	6
0.81933	5
0.82300	4
0.82667	5
0.83033	6
0.83400	7
0.83767	8
0.84133	8
0.84500	11
0.84867	15
0.85233	14
0.85600	13
0.85967	13
0.86333	10
0.86700	9
0.87067	9
0.87433	9
0.87800	8
0.88167	8
0.88533	8
0.88900	7
0.89267	7
0.89633	9
0.90000	10
0.90367	10
0.90733	10
0.91100	10
0.91467	11
0.91833	13
0.92200	15
0.92567	14
0.92933	11
0.93300	10
0.93667	11
0.94033	11
0.94400	10
0.94767	10
0.95133	6
0.95500	6
0.95867	6
0.96233	5
0.96600	4
0.96967	3
0.97333	5
0.97700	8
0.98067	11
0.98433	13
0.98800	13
0.99167	11
0.99533	10
0.99900	9
1.00267	9
1.00633	10
1.01000	10
1.01367	8
1.01733	5
1.02100	3
1.02467	0
1.02833	1
1.03200	3
1.03567	4
1.03933	7
1.04300	7
1.04667	7
1.05033	5
1.05400	4
1.05767	4
1.06133	4
1.06500	4
1.06867	2
1.07233	2
1.07600	2
1.07967	1
1.08333	2
1.08700	2
1.09067	4
1.09433	6
1.09800	8
1.10167	10
1.10533	10
1.10900	8
1.11267	9
1.11633	10
1.12000	9
1.12367	8
1.12733	9
1.13100	10
1.13467	9
1.13833	8
1.14200	8
1.14567	10
1.14933	11
1.15300	9
1.15667	4
1.16033	1
1.16400	1
1.16767	1
1.17133	2
1.17500	4
1.17867	6
1.18233	6
1.18600	6
1.18967	6
1.19333	6
1.19700	4
1.20067	2
1.20433	1
1.20800	1
1.21167	2
1.21533	3
1.21900	3
1.22267	1
1.22633	2
1.23000	2
1.23367	2
1.23733	2
1.24100	4
1.24467	5
1.24833	3
1.25200	-0
1.25567	-2
1.25933	-4
1.26300	-4
1.26667	-5
1.27033	-5
1.27400	-5
1.27767	-4
1.28133	-2
1.28500	-2
1.28867	-2
1.29233	-1
1.29600	1
1.29967	3
1.30333	5
1.30700	4
1.31067	3
1.31433	2
1.31800	2
1.32167	1
1.32533	0
1.32900	-0
1.33267	-2
1.33633	-5
1.34000	-7
1.34367	-8
1.34733	-7
1.35100	-5
1.35467	-2
1.35833	-0
1.36200	-1
1.36567	-2
1.36933	-3
1.37300	-4
1.37667	-6
1.38033	-6
1.38400	-2
1.38767	-1
1.39133	2
1.39500	4
1.39867	4
1.40233	6
1.40600	5
1.40967	3
1.41333	2
1.41700	0
1.42067	-1
1.42433	-3
1.42800	-5
1.43167	-7
1.43533	-10
1.43900	-9
1.44267	-8
1.44633	-7
1.45000	-7
1.45367	-7
1.45733	-6
1.46100	-4
1.46467	-4
1.46833	-5
1.47200	-6
1.47567	-4
1.47933	-4
1.48300	-4
1.48667	-5
1.49033	-5
1.49400	-5
1.49767	-6
1.50133	-7
1.50500	-6
1.50867	-6
1.51233	-6
1.51600	-7
1.51967	-7
1.52333	-7
1.52700	-9
1.53067	-9
1.53433	-8
1.53800	-9
1.54167	-9
1.54533	-8
1.54900	-6
1.55267	-6
1.55633	-5
1.56000	-5
1.56367	-5
1.56733	-3
1.57100	-3
1.57467	-4
1.57833	-5
1.58200	-4
1.58567	-5
1.58933	-7
1.59300	-7
1.59667	-6
1.60033	-4
1.60400	-4
1.60767	-6
1.61133	-4
1.61500	-1
1.61867	3
1.62233	4
1.62600	3
1.62967	3
1.63333	4
1.63700	4
1.64067	4
1.64433	5
1.64800	5
1.65167	5
1.65533	4
1.65900	3
1.66267	4
1.66633	4
1.67000	2
1.67367	2
1.67733	5
1.68100	6
1.68467	4
1.68833	2
1.69200	1
1.69567	1
1.69933	1
1.70300	4
1.70667	7
1.71033	7
1.71400	7
1.71767	11
1.72133	13
1.72500	15
1.72867	15
1.73233	14
1.73600	14
1.73967	15
1.74333	15
1.74700	15
1.75067	13
1.75433	11
1.75800	11
1.76167	14
1.76533	14
1.76900	14
1.77267	16
1.77633	14
1.78000	10
1.78367	9
1.78733	10
1.79100	10
1.79467	11
1.79833	13
1.80200	13
1.80567	11
1.80933	11
1.81300	13
1.81667	15
1.82033	17
1.82400	17
1.82767	16
1.83133	16
1.83500	16
1.83867	18
1.84233	19
1.84600	19
1.84967	19
1.85333	19
1.85700	19
1.86067	19
1.86433	21
1.86800	24
1.87167	25
1.87533	25
1.87900	24
1.88267	23
1.88633	23
1.89000	23
1.89367	25
1.89733	27
1.90100	30
1.90467	30
1.90833	29
1.91200	29
1.91567	28
1.91933	29
1.92300	29
1.92667	30
1.93033	32
1.93400	35
1.93767	37
1.94133	40
1.94500	41
1.94867	39
1.95233	38
1.95600	37
1.95967	37
1.96333	39
1.96700	40
1.97067	39
1.97433	39
1.97800	39
1.98167	38
1.98533	40
1.98900	42
1.99267	43
1.99633	43
2.00000	43
2.00367	41
2.00733	41
2.01100	45
2.01467	50
2.01833	52
2.02200	53
2.02567	51
2.02933	51
2.03300	54
2.03667	57
2.04033	59
2.04400	60
2.04767	57
2.05133	56
2.05500	57
2.05867	59
2.06233	60
2.06600	60
2.06967	60
2.07333	59
2.07700	57
2.08067	57
2.08433	61
2.08800	65
2.09167	67
2.09533	65
2.09900	63
2.10267	62
2.10633	62
2.11000	65
2.11367	68
2.11733	70
2.12100	72
2.12467	74
2.12833	74
2.13200	74
2.13567	74
2.13933	76
2.14300	76
2.14667	78
2.15033	80
2.15400	81
2.15767	82
2.16133	84
2.16500	86
2.16867	86
2.17233	84
2.17600	82
2.17967	83
2.18333	85
2.18700	88
2.19067	90
2.19433	89
2.19800	90
2.20167	91
2.20533	91
2.20900	92
2.21267	95
2.21633	95
2.22000	95
2.22367	99
2.22733	101
2.23100	103
2.23467	104
2.23833	104
2.24200	104
2.24567	104
2.24933	106
2.25300	108
2.25667	109
2.26033	110
2.26400	110
2.26767	109
2.27133	110
2.27500	113
2.27867	115
2.28233	118
2.28600	119
2.28967	117
2.29333	120
2.29700	121
2.30067	120
2.30433	120
2.30800	119
2.31167	120
2.31533	119
2.31900	120
2.32267	124
2.32633	126
2.33000	129
2.33367	130
2.33733	130
2.34100	133
2.34467	136
2.34833	135
2.35200	134
2.35567	135
2.35933	137
2.36300	142
2.36667	145
2.37033	145
2.37400	143
2.37767	143
2.38133	144
2.38500	141
2.38867	138
2.39233	139
2.39600	144
2.39967	149
2.40333	152
2.40700	152
2.41067	154
2.41433	156
2.41800	156
2.42167	157
2.42533	157
2.42900	161
2.43267	164
2.43633	164
2.44000	164
2.44367	191
2.44733	256
2.45100	328
2.45467	374
2.45833	379
2.46200	364
2.46567	351
2.46933	340
2.47300	323
2.47667	296
2.48033	263
2.48400	231
2.48767	202
2.49133	182
2.49500	170
2.49867	167
2.50233	169
2.50600	176
2.50967	184
2.51333	186
2.51700	179
2.52067	165
2.52433	146
2.52800	128
2.53167	112
2.53533	97
2.53900	85
2.54267	74
2.54633	66
2.55000	60
2.55367	54
2.55733	49
2.56100	47
2.56467	47
2.56833	51
2.57200	58
2.57567	66
2.57933	75
2.58300	82
2.58667	90
2.59033	101
2.59400	111
2.59767	117
2.60133	119
2.60500	113
2.60867	95
2.61233	68
2.61600	29
2.61967	-14
2.62333	-58
2.62700	-106
2.63067	-151
2.63433	-189
2.63800	-222
2.64167	-251
2.64533	-273
2.64900	-287
2.65267	-294
2.65633	-298
2.66000	-298
2.66367	-296
2.66733	-291
2.67100	-281
2.67467	-268
2.67833	-257
2.68200	-246
2.68567	-234
2.68933	-223
2.69300	-212
2.69667	-201
2.70033	-189
2.70400	-178
2.70767	-168
2.71133	-157
2.71500	-147
2.71867	-138
2.72233	-129
2.72600	-120
2.72967	-109
2.73333	-101
2.73700	-92
2.74067	-82
2.74433	-76
2.74800	-71
2.75167	-63
2.75533	-56
2.75900	-49
2.76267	-44
2.76633	-37
2.77000	-29
2.77367	-21
2.77733	-14
2.78100	-6
2.78467	0
2.78833	5
2.79200	8
2.79567	13
2.79933	19
2.80300	25
2.80667	29
2.81033	34
2.81400	39
2.81767	47
2.82133	61
2.82500	93
2.82867	164
2.83233	316
2.83600	611
2.83967	1121
2.84333	1911
2.84700	3027
2.85067	4471
2.85433	6197
2.85800	8113
2.86167	10095
2.86533	11998
2.86900	13682
2.87267	15015
2.87633	15909
2.88000	16337
2.88367	16318
2.88733	15903
2.89100	15175
2.89467	14229
2.89833	13149
2.90200	12009
2.90567	10862
2.90933	9747
2.91300	8690
2.91667	7707
2.92033	6803
2.92400	5984
2.92767	5248
2.93133	4593
2.93500	4011
2.93867	3498
2.94233	3047
2.94600	2647
2.94967	2299
2.95333	1995
2.95700	1730
2.96067	1499
2.96433	1297
2.96800	1120
2.97167	969
2.97533	838
2.97900	726
2.98267	630
2.98633	549
2.99000	479
2.99367	415
2.99733	361
3.00100	315
3.00467	274
3.00833	239
3.01200	211
3.01567	190
3.01933	172
3.02300	156
3.02667	141
3.03033	129
3.03400	119
3.03767	108
3.04133	97
3.04500	87
3.04867	79
3.05233	72
3.05600	66
3.05967	61
3.06333	56
3.06700	54
3.07067	54
3.07433	55
3.07800	56
3.08167	56
3.08533	57
3.08900	59
3.09267	59
3.09633	61
3.10000	59
3.10367	60
3.10733	59
3.11100	61
3.11467	64
3.11833	65
3.12200	64
3.12567	62
3.12933	60
3.13300	60
3.13667	61
3.14033	56
3.14400	40
3.14767	28
3.15133	27
3.15500	35
3.15867	45
3.16233	57
3.16600	71
3.16967	88
3.17333	106
3.17700	128
3.18067	154
3.18433	178
3.18800	200
3.19167	224
3.19533	250
3.19900	279
3.20267	307
3.20633	332
3.21000	354
3.21367	377
3.21733	398
3.22100	417
3.22467	430
3.22833	441
3.23200	454
3.23567	467
3.23933	480
3.24300	489
3.24667	496
3.25033	502
3.25400	508
3.25767	513
3.26133	518
3.26500	524
3.26867	530
3.27233	533
3.27600	535
3.27967	536
3.28333	536
3.28700	535
3.29067	534
3.29433	533
3.29800	533
3.30167	533
3.30533	533
3.30900	535
3.31267	535
3.31633	535
3.32000	535
3.32367	534
3.32733	534
3.33100	533
3.33467	532
3.33833	531
3.34200	530
3.34567	527
3.34933	523
3.35300	516
3.35667	511
3.36033	509
3.36400	506
3.36767	502
3.37133	500
3.37500	499
3.37867	496
3.38233	496
3.38600	495
3.38967	491
3.39333	489
3.39700	487
3.40067	484
3.40433	482
3.40800	478
3.41167	473
3.41533	471
3.41900	469
3.42267	466
3.42633	460
3.43000	457
3.43367	456
3.43733	455
3.44100	453
3.44467	452
3.44833	449
3.45200	445
3.45567	441
3.45933	438
3.46300	435
3.46667	432
3.47033	432
3.47400	433
3.47767	434
3.48133	434
3.48500	431
3.48867	425
3.49233	423
3.49600	424
3.49967	424
3.50333	421
3.50700	419
3.51067	418
3.51433	416
3.51800	415
3.52167	412
3.52533	412
3.52900	410
3.53267	407
3.53633	403
3.54000	400
3.54367	399
3.54733	400
3.55100	401
3.55467	400
3.55833	397
3.56200	393
3.56567	391
3.56933	390
3.57300	389
3.57667	390
3.58033	387
3.58400	381
3.58767	376
3.59133	372
3.59500	371
3.59867	370
3.60233	370
3.60600	371
3.60967	369
3.61333	367
3.61700	364
3.62067	362
3.62433	361
3.62800	361
3.63167	360
3.63533	360
3.63900	358
3.64267	357
3.64633	355
3.65000	352
3.65367	351
3.65733	350
3.66100	353
3.66467	355
3.66833	354
3.67200	350
3.67567	348
3.67933	348
3.68300	346
3.68667	342
3.69033	339
3.69400	335
3.69767	332
3.70133	332
3.70500	334
3.70867	335
3.71233	334
3.71600	334
3.71967	334
3.72333	333
3.72700	332
3.73067	329
3.73433	327
3.73800	327
3.74167	326
3.74533	322
3.74900	321
3.75267	322
3.75633	322
3.76000	322
3.76367	321
3.76733	321
3.77100	322
3.77467	322
3.77833	322
3.78200	322
3.78567	321
3.78933	320
3.79300	320
3.79667	320
3.80033	319
3.80400	318
3.80767	317
3.81133	317
3.81500	316
3.81867	313
3.82233	311
3.82600	309
3.82967	308
3.83333	308
3.83700	308
3.84067	307
3.84433	306
3.84800	305
3.85167	306
3.85533	309
3.85900	310
3.86267	312
3.86633	310
3.87000	308
3.87367	304
3.87733	301
3.88100	300
3.88467	300
3.88833	300
3.89200	302
3.89567	304
3.89933	305
3.90300	303
3.90667	301
3.91033	301
3.91400	303
3.91767	305
3.92133	304
3.92500	300
3.92867	298
3.93233	298
3.93600	297
3.93967	297
3.94333	297
3.94700	297
3.95067	296
3.95433	296
3.95800	295
3.96167	295
3.96533	294
3.96900	294
3.97267	295
3.97633	295
3.98000	294
3.98367	295
3.98733	293
3.99100	292
3.99467	290
3.99833	287

[Status Trace (Column Oven Temperature)]
Interval(msec)	1000
# of Points	240
Start Time(min)	0.008
End Time(min)	3.991
Intensity Units	
Intensity Multiplier	1
R.Time (min)	Intensity
0.00753	35.03
0.02420	35.02
0.04087	35.02
0.05753	35.02
0.07420	35.02
0.09087	35.02
0.10753	35.02
0.12420	35.02
0.14087	35.02
0.15753	35.01
0.17420	35.00
0.19087	35.00
0.20753	35.00
0.22420	35.00
0.24087	35.00
0.25753	35.00
0.27420	35.00
0.29087	35.00
0.30753	34.99
0.32420	35.00
0.34087	34.99
0.35753	34.99
0.37420	34.99
0.39087	35.00
0.40753	35.00
0.42420	35.00
0.44087	35.01
0.45753	35.00
0.47420	35.00
0.49087	34.98
0.50753	34.99
0.52420	35.00
0.54087	35.00
0.55753	35.01
0.57420	35.02
0.59087	35.01
0.60753	35.01
0.62420	35.00
0.64087	35.00
0.65753	35.00
0.67420	35.00
0.69087	34.99
0.70753	35.00
0.72420	34.99
0.74087	34.98
0.75753	34.98
0.77420	34.98
0.79087	35.00
0.80753	34.99
0.82420	35.00
0.84087	35.00
0.85753	35.00
0.87420	35.00
0.89087	35.00
0.90753	35.01
0.92420	35.00
0.94087	35.00
0.95753	35.00
0.97420	35.00
0.99087	35.01
1.00753	35.01
1.02420	35.02
1.04087	35.01
1.05753	35.01
1.07420	35.02
1.09087	35.02
1.10753	35.02
1.12420	35.02
1.14087	35.03
1.15753	35.03
1.17420	35.05
1.19087	35.04
1.20753	35.03
1.22420	35.01
1.24087	35.00
1.25753	35.00
1.27420	34.99
1.29087	34.99
1.30753	34.98
1.32420	34.98
1.34087	34.99
1.35753	34.99
1.37420	34.98
1.39087	34.99
1.40753	34.98
1.42420	34.98
1.44087	34.97
1.45753	34.98
1.47420	34.98
1.49087	34.99
1.50753	35.01
1.52420	35.00
1.54087	35.00
1.55753	35.00
1.57420	35.00
1.59087	35.01
1.60753	35.06
1.62420	35.19
1.64087	35.38
1.65753	35.63
1.67420	35.96
1.69087	36.33
1.70753	36.69
1.72420	37.01
1.74087	37.32
1.75753	37.66
1.77420	37.99
1.79087	38.33
1.80753	38.65
1.82420	38.98
1.84087	39.32
1.85753	39.65
1.87420	39.99
1.89087	40.31
1.90753	40.63
1.92420	40.97
1.94087	41.28
1.95753	41.60
1.97420	41.93
1.99087	42.24
2.00753	42.56
2.02420	42.90
2.04087	43.22
2.05753	43.55
2.07420	43.87
2.09087	44.19
2.10753	44.51
2.12420	44.82
2.14087	45.14
2.15753	45.49
2.17420	45.82
2.19087	46.14
2.20753	46.49
2.22420	46.82
2.24087	47.15
2.25753	47.47
2.27420	47.84
2.29087	48.17
2.30753	48.50
2.32420	48.81
2.34087	49.16
2.35753	49.43
2.37420	49.60
2.39087	49.66
2.40753	49.66
2.42420	49.66
2.44087	49.65
2.45753	49.69
2.47420	49.69
2.49087	49.70
2.50753	49.71
2.52420	49.74
2.54087	49.72
2.55753	49.75
2.57420	49.76
2.59087	49.79
2.60753	49.79
2.62420	49.81
2.64087	49.81
2.65753	49.83
2.67420	49.83
2.69087	49.83
2.70753	49.84
2.72420	49.86
2.74087	49.86
2.75753	49.85
2.77420	49.84
2.79087	49.87
2.80753	49.89
2.82420	49.89
2.84087	49.90
2.85753	49.90
2.87420	49.91
2.89087	49.92
2.90753	49.92
2.92420	49.93
2.94087	49.94
2.95753	49.96
2.97420	49.98
2.99087	49.98
3.00753	49.99
3.02420	50.00
3.04087	50.01
3.05753	50.01
3.07420	50.01
3.09087	50.02
3.10753	50.02
3.12420	50.03
3.14087	50.03
3.15753	50.04
3.17420	50.04
3.19087	50.05
3.20753	50.06
3.22420	50.07
3.24087	50.09
3.25753	50.10
3.27420	50.10
3.29087	50.11
3.30753	50.11
3.32420	50.09
3.34087	50.09
3.35753	50.08
3.37420	50.07
3.39087	50.05
3.40753	50.05
3.42420	50.05
3.44087	50.05
3.45753	50.06
3.47420	50.06
3.49087	50.05
3.50753	50.05
3.52420	50.04
3.54087	50.05
3.55753	50.04
3.57420	50.05
3.59087	50.05
3.60753	50.06
3.62420	50.07
3.64087	50.07
3.65753	50.06
3.67420	50.05
3.69087	50.05
3.70753	50.05
3.72420	50.05
3.74087	50.07
3.75753	50.08
3.77420	50.07
3.79087	50.07
3.80753	50.07
3.82420	50.07
3.84087	50.07
3.85753	50.07
3.87420	50.07
3.89087	50.07
3.90753	50.07
3.92420	50.06
3.94087	50.06
3.95753	50.07
3.97420	50.06
3.99087	50.06

[Status Trace (Injection Unit Temperature)]
Interval(msec)	1000
# of Points	240
Start Time(min)	0.008
End Time(min)	3.991
Intensity Units	
Intensity Multiplier	1
R.Time (min)	Intensity
0.00753	99.98
0.02420	99.98
0.04087	99.99
0.05753	99.99
0.07420	99.99
0.09087	99.99
0.10753	99.98
0.12420	99.98
0.14087	99.99
0.15753	99.98
0.17420	99.99
0.19087	99.99
0.20753	99.99
0.22420	99.98
0.24087	99.99
0.25753	99.99
0.27420	99.99
0.29087	99.99
0.30753	99.99
0.32420	99.98
0.34087	99.99
0.35753	99.99
0.37420	99.99
0.39087	99.99
0.40753	99.98
0.42420	99.99
0.44087	99.98
0.45753	99.98
0.47420	99.98
0.49087	99.98
0.50753	99.98
0.52420	99.98
0.54087	99.98
0.55753	99.98
0.57420	99.98
0.59087	99.98
0.60753	99.98
0.62420	99.98
0.64087	99.98
0.65753	99.98
0.67420	99.98
0.69087	99.98
0.70753	99.98
0.72420	99.98
0.74087	99.98
0.75753	99.98
0.77420	99.98
0.79087	99.98
0.80753	99.98
0.82420	99.98
0.84087	99.98
0.85753	99.98
0.87420	99.98
0.89087	99.98
0.90753	99.98
0.92420	99.98
0.94087	99.98
0.95753	99.98
0.97420	99.98
0.99087	99.98
1.00753	99.98
1.02420	99.99
1.04087	99.98
1.05753	99.98
1.07420	99.98
1.09087	99.98
1.10753	99.98
1.12420	99.98
1.14087	99.98
1.15753	99.98
1.17420	99.98
1.19087	99.99
1.20753	99.98
1.22420	99.98
1.24087	99.98
1.25753	99.98
1.27420	99.98
1.29087	99.98
1.30753	99.98
1.32420	99.98
1.34087	99.98
1.35753	99.99
1.37420	99.99
1.39087	99.98
1.40753	99.99
1.42420	99.99
1.44087	99.98
1.45753	99.99
1.47420	99.98
1.49087	99.99
1.50753	99.99
1.52420	99.99
1.54087	99.99
1.55753	99.99
1.57420	99.99
1.59087	99.99
1.60753	99.99
1.62420	99.99
1.64087	99.99
1.65753	99.99
1.67420	99.99
1.69087	99.99
1.70753	99.99
1.72420	99.99
1.74087	99.99
1.75753	99.98
1.77420	99.99
1.79087	99.99
1.80753	99.99
1.82420	99.98
1.84087	99.99
1.85753	99.98
1.87420	99.98
1.89087	99.98
1.90753	99.98
1.92420	99.98
1.94087	99.98
1.95753	99.98
1.97420	99.98
1.99087	99.97
2.00753	99.98
2.02420	99.97
2.04087	99.98
2.05753	99.97
2.07420	99.98
2.09087	99.97
2.10753	99.98
2.12420	99.97
2.14087	99.97
2.15753	99.97
2.17420	99.97
2.19087	99.97
2.20753	99.97
2.22420	99.97
2.24087	99.97
2.25753	99.97
2.27420	99.97
2.29087	99.97
2.30753	99.96
2.32420	99.97
2.34087	99.97
2.35753	99.96
2.37420	99.97
2.39087	99.97
2.40753	99.97
2.42420	99.97
2.44087	99.97
2.45753	99.97
2.47420	99.97
2.49087	99.97
2.50753	99.97
2.52420	99.97
2.54087	99.97
2.55753	99.98
2.57420	99.97
2.59087	99.97
2.60753	99.98
2.62420	99.98
2.64087	99.98
2.65753	99.98
2.67420	99.98
2.69087	99.99
2.70753	99.99
2.72420	99.99
2.74087	99.99
2.75753	99.99
2.77420	99.99
2.79087	99.99
2.80753	99.99
2.82420	99.99
2.84087	100.00
2.85753	100.00
2.87420	100.00
2.89087	100.00
2.90753	100.00
2.92420	100.00
2.94087	100.01
2.95753	100.01
2.97420	100.01
2.99087	100.01
3.00753	100.01
3.02420	100.01
3.04087	100.01
3.05753	100.02
3.07420	100.01
3.09087	100.02
3.10753	100.02
3.12420	100.02
3.14087	100.02
3.15753	100.02
3.17420	100.02
3.19087	100.03
3.20753	100.03
3.22420	100.03
3.24087	100.03
3.25753	100.03
3.27420	100.03
3.29087	100.03
3.30753	100.03
3.32420	100.03
3.34087	100.03
3.35753	100.04
3.37420	100.03
3.39087	100.04
3.40753	100.03
3.42420	100.04
3.44087	100.04
3.45753	100.04
3.47420	100.04
3.49087	100.04
3.50753	100.04
3.52420	100.04
3.54087	100.04
3.55753	100.04
3.57420	100.04
3.59087	100.04
3.60753	100.04
3.62420	100.05
3.64087	100.04
3.65753	100.05
3.67420	100.04
3.69087	100.04
3.70753	100.04
3.72420	100.05
3.74087	100.04
3.75753	100.05
3.77420	100.05
3.79087	100.05
3.80753	100.05
3.82420	100.04
3.84087	100.05
3.85753	100.05
3.87420	100.04
3.89087	100.05
3.90753	100.05
3.92420	100.05
3.94087	100.05
3.95753	100.05
3.97420	100.04
3.99087	100.05

[Status Trace (Carrier Gas Pressure)]
Interval(msec)	1000
# of Points	240
Start Time(min)	0.008
End Time(min)	3.991
Intensity Units	
Intensity Multiplier	1
R.Time (min)	Intensity
0.00753	58.00
0.02420	55.47
0.04087	57.02
0.05753	59.18
0.07420	59.60
0.09087	58.10
0.10753	57.98
0.12420	58.01
0.14087	58.01
0.15753	58.01
0.17420	58.00
0.19087	58.00
0.20753	58.00
0.22420	58.00
0.24087	58.00
0.25753	58.00
0.27420	58.00
0.29087	58.00
0.30753	58.00
0.32420	58.00
0.34087	58.00
0.35753	58.00
0.37420	58.00
0.39087	58.00
0.40753	58.00
0.42420	58.00
0.44087	58.00
0.45753	58.00
0.47420	58.00
0.49087	58.00
0.50753	58.00
0.52420	58.00
0.54087	58.00
0.55753	58.00
0.57420	58.00
0.59087	58.00
0.60753	58.00
0.62420	58.00
0.64087	58.00
0.65753	58.00
0.67420	58.00
0.69087	58.00
0.70753	58.00
0.72420	58.00
0.74087	58.00
0.75753	58.00
0.77420	58.00
0.79087	58.00
0.80753	58.00
0.82420	58.00
0.84087	58.00
0.85753	58.00
0.87420	58.00
0.89087	58.00
0.90753	58.00
0.92420	58.00
0.94087	58.00
0.95753	58.00
0.97420	58.00
0.99087	58.00
1.00753	58.00
1.02420	58.00
1.04087	58.00
1.05753	58.00
1.07420	58.00
1.09087	58.00
1.10753	58.00
1.12420	58.00
1.14087	58.00
1.15753	58.00
1.17420	58.00
1.19087	58.00
1.20753	58.00
1.22420	58.00
1.24087	58.00
1.25753	58.00
1.27420	58.00
1.29087	58.00
1.30753	58.00
1.32420	58.00
1.34087	58.00
1.35753	58.00
1.37420	58.00
1.39087	58.00
1.40753	58.00
1.42420	58.00
1.44087	58.00
1.45753	58.00
1.47420	58.00
1.49087	58.00
1.50753	58.00
1.52420	58.00
1.54087	58.00
1.55753	58.00
1.57420	58.00
1.59087	58.00
1.60753	58.00
1.62420	58.00
1.64087	58.01
1.65753	58.00
1.67420	58.01
1.69087	58.01
1.70753	58.00
1.72420	58.00
1.74087	58.00
1.75753	58.00
1.77420	58.00
1.79087	58.00
1.80753	58.00
1.82420	58.00
1.84087	58.00
1.85753	58.00
1.87420	58.00
1.89087	58.00
1.90753	58.00
1.92420	58.00
1.94087	58.00
1.95753	58.00
1.97420	58.00
1.99087	58.00
2.00753	58.00
2.02420	58.00
2.04087	58.00
2.05753	58.00
2.07420	58.00
2.09087	58.00
2.10753	58.00
2.12420	58.00
2.14087	58.00
2.15753	58.00
2.17420	58.00
2.19087	58.00
2.20753	58.00
2.22420	58.00
2.24087	58.00
2.25753	58.00
2.27420	58.00
2.29087	58.00
2.30753	58.00
2.32420	58.00
2.34087	58.00
2.35753	58.00
2.37420	57.99
2.39087	57.99
2.40753	57.99
2.42420	58.00
2.44087	58.00
2.45753	58.00
2.47420	58.00
2.49087	58.00
2.50753	57.99
2.52420	57.98
2.54087	58.00
2.55753	58.00
2.57420	58.00
2.59087	58.00
2.60753	58.00
2.62420	58.00
2.64087	58.00
2.65753	58.00
2.67420	58.00
2.69087	58.00
2.70753	58.00
2.72420	58.00
2.74087	58.00
2.75753	58.00
2.77420	58.00
2.79087	58.00
2.80753	58.00
2.82420	58.00
2.84087	58.00
2.85753	58.00
2.87420	58.00
2.89087	58.00
2.90753	58.00
2.92420	58.00
2.94087	58.00
2.95753	58.00
2.97420	58.00
2.99087	58.00
3.00753	58.00
3.02420	58.00
3.04087	58.00
3.05753	58.00
3.07420	58.00
3.09087	58.00
3.10753	58.00
3.12420	58.00
3.14087	58.00
3.15753	58.00
3.17420	58.00
3.19087	58.00
3.20753	58.00
3.22420	58.00
3.24087	58.00
3.25753	58.00
3.27420	58.00
3.29087	58.00
3.30753	58.00
3.32420	58.00
3.34087	58.00
3.35753	58.00
3.37420	58.00
3.39087	58.00
3.40753	58.00
3.42420	58.00
3.44087	58.00
3.45753	58.00
3.47420	58.00
3.49087	58.00
3.50753	58.00
3.52420	58.00
3.54087	58.00
3.55753	58.00
3.57420	58.00
3.59087	58.00
3.60753	58.00
3.62420	58.00
3.64087	58.00
3.65753	58.00
3.67420	58.00
3.69087	58.00
3.70753	58.00
3.72420	58.00
3.74087	58.00
3.75753	58.00
3.77420	58.00
3.79087	58.00
3.80753	58.00
3.82420	58.00
3.84087	58.00
3.85753	58.00
3.87420	58.00
3.89087	58.00
3.90753	58.00
3.92420	58.00
3.94087	58.00
3.95753	58.00
3.97420	58.00
3.99087	58.00

[Status Trace (Carrier Gas Flow)]
Interval(msec)	1000
# of Points	240
Start Time(min)	0.008
End Time(min)	3.991
Intensity Units	
Intensity Multiplier	1
R.Time (min)	Intensity
0.00753	34.52
0.02420	34.53
0.04087	34.54
0.05753	34.55
0.07420	34.50
0.09087	34.52
0.10753	34.52
0.12420	34.52
0.14087	34.52
0.15753	34.52
0.17420	34.52
0.19087	34.52
0.20753	34.52
0.22420	34.52
0.24087	34.52
0.25753	34.52
0.27420	34.52
0.29087	34.52
0.30753	34.52
0.32420	34.52
0.34087	34.52
0.35753	34.52
0.37420	34.52
0.39087	34.52
0.40753	34.52
0.42420	34.52
0.44087	34.52
0.45753	34.52
0.47420	34.52
0.49087	34.52
0.50753	34.52
0.52420	34.52
0.54087	34.52
0.55753	34.52
0.57420	34.52
0.59087	34.52
0.60753	34.52
0.62420	34.52
0.64087	34.52
0.65753	34.52
0.67420	34.52
0.69087	34.52
0.70753	34.52
0.72420	34.52
0.74087	34.52
0.75753	34.52
0.77420	34.52
0.79087	34.52
0.80753	34.52
0.82420	34.52
0.84087	34.52
0.85753	34.52
0.87420	34.52
0.89087	34.52
0.90753	34.52
0.92420	34.52
0.94087	34.52
0.95753	34.52
0.97420	34.52
0.99087	34.52
1.00753	34.52
1.02420	34.52
1.04087	34.52
1.05753	34.52
1.07420	34.52
1.09087	34.52
1.10753	34.52
1.12420	34.52
1.14087	34.52
1.15753	34.52
1.17420	34.52
1.19087	34.52
1.20753	34.52
1.22420	34.52
1.24087	34.52
1.25753	34.52
1.27420	34.52
1.29087	34.52
1.30753	34.52
1.32420	34.52
1.34087	34.52
1.35753	34.52
1.37420	34.52
1.39087	34.53
1.40753	34.52
1.42420	34.52
1.44087	34.52
1.45753	34.52
1.47420	34.52
1.49087	34.52
1.50753	34.52
1.52420	34.52
1.54087	34.52
1.55753	34.52
1.57420	34.52
1.59087	34.52
1.60753	34.52
1.62420	34.52
1.64087	34.52
1.65753	34.52
1.67420	34.52
1.69087	34.52
1.70753	34.52
1.72420	34.52
1.74087	34.52
1.75753	34.52
1.77420	34.52
1.79087	34.51
1.80753	34.52
1.82420	34.52
1.84087	34.52
1.85753	34.53
1.87420	34.53
1.89087	34.52
1.90753	34.52
1.92420	34.52
1.94087	34.51
1.95753	34.52
1.97420	34.51
1.99087	34.51
2.00753	34.52
2.02420	34.51
2.04087	34.51
2.05753	34.52
2.07420	34.52
2.09087	34.52
2.10753	34.52
2.12420	34.52
2.14087	34.52
2.15753	34.52
2.17420	34.52
2.19087	34.52
2.20753	34.52
2.22420	34.52
2.24087	34.52
2.25753	34.52
2.27420	34.52
2.29087	34.52
2.30753	34.52
2.32420	34.52
2.34087	34.52
2.35753	34.52
2.37420	34.52
2.39087	34.52
2.40753	34.52
2.42420	34.52
2.44087	34.52
2.45753	34.52
2.47420	34.52
2.49087	34.52
2.50753	34.38
2.52420	34.52
2.54087	34.51
2.55753	34.52
2.57420	34.51
2.59087	34.53
2.60753	34.53
2.62420	34.52
2.64087	34.52
2.65753	34.52
2.67420	34.52
2.69087	34.52
2.70753	34.52
2.72420	34.52
2.74087	34.52
2.75753	34.52
2.77420	34.52
2.79087	34.52
2.80753	34.52
2.82420	34.52
2.84087	34.52
2.85753	34.52
2.87420	34.52
2.89087	34.52
2.90753	34.52
2.92420	34.52
2.94087	34.52
2.95753	34.52
2.97420	34.52
2.99087	34.52
3.00753	34.52
3.02420	34.52
3.04087	34.52
3.05753	34.52
3.07420	34.52
3.09087	34.52
3.10753	34.52
3.12420	34.52
3.14087	34.52
3.15753	34.52
3.17420	34.52
3.19087	34.52
3.20753	34.52
3.22420	34.52
3.24087	34.52
3.25753	34.52
3.27420	34.52
3.29087	34.52
3.30753	34.52
3.32420	34.52
3.34087	34.52
3.35753	34.52
3.37420	34.52
3.39087	34.52
3.40753	34.52
3.42420	34.52
3.44087	34.52
3.45753	34.52
3.47420	34.52
3.49087	34.52
3.50753	34.52
3.52420	34.52
3.54087	34.51
3.55753	34.52
3.57420	34.52
3.59087	34.52
3.60753	34.53
3.62420	34.52
3.64087	34.52
3.65753	34.52
3.67420	34.52
3.69087	34.52
3.70753	34.52
3.72420	34.52
3.74087	34.52
3.75753	34.52
3.77420	34.52
3.79087	34.52
3.80753	34.52
3.82420	34.52
3.84087	34.53
3.85753	34.51
3.87420	34.53
3.89087	34.51
3.90753	34.52
3.92420	34.52
3.94087	34.52
3.95753	34.52
3.97420	34.52
3.99087	34.52

[Status Trace (Column Flow)]
Interval(msec)	1000
# of Points	240
Start Time(min)	0.008
End Time(min)	3.991
Intensity Units	
Intensity Multiplier	1
R.Time (min)	Intensity
0.00753	5.54
0.02420	5.25
0.04087	5.42
0.05753	5.68
0.07420	5.73
0.09087	5.55
0.10753	5.54
0.12420	5.54
0.14087	5.54
0.15753	5.54
0.17420	5.54
0.19087	5.54
0.20753	5.54
0.22420	5.54
0.24087	5.54
0.25753	5.54
0.27420	5.54
0.29087	5.54
0.30753	5.54
0.32420	5.54
0.34087	5.54
0.35753	5.54
0.37420	5.54
0.39087	5.54
0.40753	5.54
0.42420	5.54
0.44087	5.54
0.45753	5.54
0.47420	5.54
0.49087	5.54
0.50753	5.54
0.52420	5.54
0.54087	5.54
0.55753	5.54
0.57420	5.54
0.59087	5.54
0.60753	5.54
0.62420	5.54
0.64087	5.54
0.65753	5.54
0.67420	5.54
0.69087	5.54
0.70753	5.54
0.72420	5.54
0.74087	5.54
0.75753	5.54
0.77420	5.54
0.79087	5.54
0.80753	5.54
0.82420	5.54
0.84087	5.54
0.85753	5.54
0.87420	5.54
0.89087	5.54
0.90753	5.54
0.92420	5.54
0.94087	5.54
0.95753	5.54
0.97420	5.54
0.99087	5.54
1.00753	5.54
1.02420	5.54
1.04087	5.54
1.05753	5.54
1.07420	5.54
1.09087	5.54
1.10753	5.54
1.12420	5.54
1.14087	5.54
1.15753	5.54
1.17420	5.54
1.19087	5.54
1.20753	5.54
1.22420	5.54
1.24087	5.54
1.25753	5.54
1.27420	5.54
1.29087	5.54
1.30753	5.54
1.32420	5.54
1.34087	5.54
1.35753	5.54
1.37420	5.54
1.39087	5.54
1.40753	5.54
1.42420	5.54
1.44087	5.54
1.45753	5.54
1.47420	5.54
1.49087	5.54
1.50753	5.54
1.52420	5.54
1.54087	5.54
1.55753	5.54
1.57420	5.54
1.59087	5.54
1.60753	5.54
1.62420	5.54
1.64087	5.53
1.65753	5.52
1.67420	5.51
1.69087	5.50
1.70753	5.49
1.72420	5.48
1.74087	5.47
1.75753	5.46
1.77420	5.45
1.79087	5.44
1.80753	5.43
1.82420	5.42
1.84087	5.41
1.85753	5.40
1.87420	5.39
1.89087	5.38
1.90753	5.37
1.92420	5.36
1.94087	5.35
1.95753	5.34
1.97420	5.33
1.99087	5.32
2.00753	5.31
2.02420	5.30
2.04087	5.29
2.05753	5.28
2.07420	5.27
2.09087	5.26
2.10753	5.25
2.12420	5.24
2.14087	5.23
2.15753	5.22
2.17420	5.21
2.19087	5.20
2.20753	5.19
2.22420	5.19
2.24087	5.18
2.25753	5.17
2.27420	5.16
2.29087	5.15
2.30753	5.14
2.32420	5.13
2.34087	5.12
2.35753	5.11
2.37420	5.11
2.39087	5.10
2.40753	5.10
2.42420	5.11
2.44087	5.11
2.45753	5.10
2.47420	5.10
2.49087	5.10
2.50753	5.10
2.52420	5.10
2.54087	5.10
2.55753	5.10
2.57420	5.10
2.59087	5.10
2.60753	5.10
2.62420	5.10
2.64087	5.10
2.65753	5.10
2.67420	5.10
2.69087	5.10
2.70753	5.10
2.72420	5.10
2.74087	5.10
2.75753	5.10
2.77420	5.10
2.79087	5.10
2.80753	5.10
2.82420	5.10
2.84087	5.10
2.85753	5.10
2.87420	5.10
2.89087	5.10
2.90753	5.10
2.92420	5.10
2.94087	5.10
2.95753	5.10
2.97420	5.10
2.99087	5.10
3.00753	5.10
3.02420	5.10
3.04087	5.10
3.05753	5.10
3.07420	5.10
3.09087	5.10
3.10753	5.10
3.12420	5.10
3.14087	5.10
3.15753	5.09
3.17420	5.09
3.19087	5.09
3.20753	5.09
3.22420	5.09
3.24087	5.09
3.25753	5.09
3.27420	5.09
3.29087	5.09
3.30753	5.09
3.32420	5.09
3.34087	5.09
3.35753	5.09
3.37420	5.09
3.39087	5.09
3.40753	5.09
3.42420	5.09
3.44087	5.09
3.45753	5.09
3.47420	5.09
3.49087	5.09
3.50753	5.09
3.52420	5.09
3.54087	5.09
3.55753	5.09
3.57420	5.09
3.59087	5.09
3.60753	5.09
3.62420	5.09
3.64087	5.09
3.65753	5.09
3.67420	5.09
3.69087	5.09
3.70753	5.09
3.72420	5.09
3.74087	5.09
3.75753	5.09
3.77420	5.09
3.79087	5.09
3.80753	5.09
3.82420	5.09
3.84087	5.09
3.85753	5.09
3.87420	5.09
3.89087	5.09
3.90753	5.09
3.92420	5.09
3.94087	5.09
3.95753	5.09
3.97420	5.09
3.99087	5.09

[Status Trace (Linear Velocity)]
Interval(msec)	1000
# of Points	240
Start Time(min)	0.008
End Time(min)	3.991
Intensity Units	
Intensity Multiplier	1
R.Time (min)	Intensity
0.00753	39.02
0.02420	37.36
0.04087	38.37
0.05753	39.79
0.07420	40.07
0.09087	39.08
0.10753	39.01
0.12420	39.03
0.14087	39.03
0.15753	39.02
0.17420	39.02
0.19087	39.02
0.20753	39.02
0.22420	39.02
0.24087	39.02
0.25753	39.02
0.27420	39.02
0.29087	39.02
0.30753	39.02
0.32420	39.02
0.34087	39.02
0.35753	39.02
0.37420	39.02
0.39087	39.02
0.40753	39.02
0.42420	39.02
0.44087	39.02
0.45753	39.02
0.47420	39.02
0.49087	39.02
0.50753	39.02
0.52420	39.02
0.54087	39.02
0.55753	39.02
0.57420	39.02
0.59087	39.02
0.60753	39.02
0.62420	39.02
0.64087	39.02
0.65753	39.02
0.67420	39.02
0.69087	39.02
0.70753	39.02
0.72420	39.02
0.74087	39.02
0.75753	39.02
0.77420	39.02
0.79087	39.02
0.80753	39.02
0.82420	39.02
0.84087	39.02
0.85753	39.02
0.87420	39.02
0.89087	39.02
0.90753	39.02
0.92420	39.02
0.94087	39.02
0.95753	39.02
0.97420	39.02
0.99087	39.02
1.00753	39.02
1.02420	39.02
1.04087	39.02
1.05753	39.02
1.07420	39.02
1.09087	39.02
1.10753	39.02
1.12420	39.02
1.14087	39.02
1.15753	39.02
1.17420	39.02
1.19087	39.02
1.20753	39.02
1.22420	39.02
1.24087	39.02
1.25753	39.02
1.27420	39.02
1.29087	39.02
1.30753	39.02
1.32420	39.02
1.34087	39.02
1.35753	39.02
1.37420	39.02
1.39087	39.02
1.40753	39.02
1.42420	39.02
1.44087	39.02
1.45753	39.02
1.47420	39.02
1.49087	39.02
1.50753	39.02
1.52420	39.02
1.54087	39.02
1.55753	39.02
1.57420	39.02
1.59087	39.02
1.60753	39.02
1.62420	39.01
1.64087	38.99
1.65753	38.96
1.67420	38.94
1.69087	38.90
1.70753	38.86
1.72420	38.83
1.74087	38.80
1.75753	38.77
1.77420	38.74
1.79087	38.70
1.80753	38.67
1.82420	38.64
1.84087	38.61
1.85753	38.58
1.87420	38.55
1.89087	38.52
1.90753	38.49
1.92420	38.46
1.94087	38.43
1.95753	38.40
1.97420	38.37
1.99087	38.34
2.00753	38.31
2.02420	38.28
2.04087	38.25
2.05753	38.22
2.07420	38.19
2.09087	38.16
2.10753	38.13
2.12420	38.10
2.14087	38.07
2.15753	38.04
2.17420	38.01
2.19087	37.98
2.20753	37.95
2.22420	37.92
2.24087	37.89
2.25753	37.86
2.27420	37.83
2.29087	37.80
2.30753	37.77
2.32420	37.75
2.34087	37.71
2.35753	37.69
2.37420	37.67
2.39087	37.66
2.40753	37.66
2.42420	37.67
2.44087	37.67
2.45753	37.66
2.47420	37.66
2.49087	37.66
2.50753	37.66
2.52420	37.65
2.54087	37.66
2.55753	37.66
2.57420	37.66
2.59087	37.66
2.60753	37.66
2.62420	37.65
2.64087	37.65
2.65753	37.65
2.67420	37.65
2.69087	37.65
2.70753	37.65
2.72420	37.65
2.74087	37.65
2.75753	37.65
2.77420	37.65
2.79087	37.65
2.80753	37.65
2.82420	37.65
2.84087	37.65
2.85753	37.65
2.87420	37.64
2.89087	37.64
2.90753	37.64
2.92420	37.64
2.94087	37.64
2.95753	37.64
2.97420	37.64
2.99087	37.64
3.00753	37.64
3.02420	37.64
3.04087	37.64
3.05753	37.64
3.07420	37.64
3.09087	37.64
3.10753	37.64
3.12420	37.63
3.14087	37.63
3.15753	37.63
3.17420	37.63
3.19087	37.63
3.20753	37.63
3.22420	37.63
3.24087	37.63
3.25753	37.63
3.27420	37.63
3.29087	37.63
3.30753	37.63
3.32420	37.63
3.34087	37.63
3.35753	37.63
3.37420	37.63
3.39087	37.63
3.40753	37.63
3.42420	37.63
3.44087	37.63
3.45753	37.63
3.47420	37.63
3.49087	37.63
3.50753	37.63
3.52420	37.63
3.54087	37.63
3.55753	37.63
3.57420	37.63
3.59087	37.63
3.60753	37.63
3.62420	37.63
3.64087	37.63
3.65753	37.63
3.67420	37.63
3.69087	37.63
3.70753	37.63
3.72420	37.63
3.74087	37.63
3.75753	37.63
3.77420	37.63
3.79087	37.63
3.80753	37.63
3.82420	37.63
3.84087	37.63
3.85753	37.63
3.87420	37.63
3.89087	37.63
3.90753	37.63
3.92420	37.63
3.94087	37.63
3.95753	37.63
3.97420	37.63
3.99087	37.63

