[Header]
Application Name	LabSolutions
Version	5.110
Data File Name	C:\Users\User\Desktop\GC Analyses\Jack\UIC Prairie Sampling\10.19.22\221019_047.gcd
Output Date	1/4/2023
Output Time	2:27:25 PM

[File Information]
Type	Data File
Generated	12/6/2022 12:31:23 PM
Generated by	System Administrator
Modified	12/6/2022 12:35:36 PM
Modified by	System Administrator

[Sample Information]
Operator Name	System Administrator
Acquired	12/6/2022 12:31:36 PM
Sample Type	1:Standard
Level	1
Sample Name	221019_UICPrairie
Sample ID	221019_UICPrairie
ISTD Amount1	1
ISTD Amount2	1
ISTD Amount3	1
ISTD Amount4	1
ISTD Amount5	1
ISTD Amount6	1
ISTD Amount7	1
ISTD Amount8	1
ISTD Amount9	1
ISTD Amount10	1
ISTD Amount11	1
ISTD Amount12	1
ISTD Amount13	1
ISTD Amount14	1
ISTD Amount15	1
ISTD Amount16	1
ISTD Amount17	1
ISTD Amount18	1
ISTD Amount19	1
ISTD Amount20	1
ISTD Amount21	1
ISTD Amount22	1
ISTD Amount23	1
ISTD Amount24	1
ISTD Amount25	1
ISTD Amount26	1
ISTD Amount27	1
ISTD Amount28	1
ISTD Amount29	1
ISTD Amount30	1
ISTD Amount31	1
ISTD Amount32	1
Sample Amount	1
Dilution Factor	1
Vial#	1
Injection Volume	1
Injection Count	1
Bar Code	

[Original Files]
Data File	C:\Users\User\Desktop\GC Analyses\Jack\UIC Prairie Sampling\10.19.22\221019_047.gcd
Method File	C:\LabSolutions\Data\GHG_4min_2022\ghg3_togas_w_acet_4 min_new_int.gcm
Batch File	
Report Format File	c:\LabSolutions\System\DEFAULT.lsr

[File Description]


[Configuration]
Instrument Name	C0B7VH3-Instrument1
Instrument #	1
Line #	1
# of Detectors	3
Detector ID	DET#1	DET#2	DET#3
Detector Name	FID	PTCD	ECD
# of Channels	1	1	1

[Peak Table(Ch1)]
# of Peaks	3
Peak#	R.Time	I.Time	F.Time	Area	Height	A/H	Conc.	Mark	ID#	Name	k'	Plate #	Plate Ht.	Tailing	Resolution	Sep.Factor	Area Ratio	Height Ratio	Conc. %	Norm Conc.
1	1.465	1.435	1.531	2894	865	3.345	100.000	   	1	CO	0.000	4564	32.862	0.000	0.000	0.000	0	0	16.667	16.667
2	1.571	1.531	1.652	21175	10545	2.008	100.000	 V 	2	CH4	0.073	11415	13.141	1.126	1.461	0.000	0	0	16.667	16.667
3	1.996	1.949	2.671	2171471	1015189	2.139	400.000	   	3	CO2	0.363	17202	8.720	1.335	7.107	5.000	0	0	66.667	66.667

[Peak Table(Ch2)]
# of Peaks	0

[Peak Table(Ch3)]
# of Peaks	4
Peak#	R.Time	I.Time	F.Time	Area	Height	A/H	Conc.	Mark	ID#	Name	k'	Plate #	Plate Ht.	Tailing	Resolution	Sep.Factor	Area Ratio	Height Ratio	Conc. %	Norm Conc.
1	2.466	2.381	2.491	1095	403	2.719	0.000	   			0.000	9819	15.277	0.000	0.000	0.000	0	0	0.000	0.000
2	2.513	2.491	2.543	898	330	2.722	0.000	 V 			0.019	2110	71.104	0.000	0.299	0.000	0	0	0.000	0.000
3	2.598	2.543	2.653	1796	427	4.207	0.000	 V 			0.054	4742	31.629	0.000	0.456	2.769	0	0	0.000	0.000
4	2.884	2.664	3.793	79644	17673	4.507	1.000	   	1	N2O	0.170	12270	12.225	1.687	2.243	3.167	0	0	100.000	100.000

[Compound Results(Ch1)]
# of IDs	6
ID#	Name	R.Time	Area	Height	Conc.	Curve	3rd	2nd	1st	Constant	Area Ratio	Height Ratio	Conc. %	Norm Conc.
1	CO	1.465	2894	865	100.000	Linear	0.000000e+00	0.000000e+00	2.894168e+001	0.000000e+00	0	0	16.667	16.667
2	CH4	1.571	21175	10545	100.000	Linear	0.000000e+00	0.000000e+00	2.117531e+002	0.000000e+00	0	0	16.667	16.667
3	CO2	1.996	2171471	1015189	400.000	Linear	0.000000e+00	0.000000e+00	5.428677e+003	0.000000e+00	0	0	66.667	66.667
4	Ethylene	0.000	0	0	0.000	Linear	0.000000e+00	0.000000e+00	0.000000e+00	0.000000e+00	0	0	0.000	0.000
5	Acetylene	0.000	0	0	0.000	Linear	0.000000e+00	0.000000e+00	0.000000e+00	0.000000e+00	0	0	0.000	0.000
6	Ethane	0.000	0	0	0.000	Linear	0.000000e+00	0.000000e+00	0.000000e+00	0.000000e+00	0	0	0.000	0.000

[Compound Results(Ch2)]
# of IDs	5
ID#	Name	R.Time	Area	Height	Conc.	Curve	3rd	2nd	1st	Constant	Area Ratio	Height Ratio	Conc. %	Norm Conc.
1	Hydrogen	0.000	0	0	0.000	Linear	0.000000e+00	0.000000e+00	0.000000e+00	0.000000e+00	0	0	0.000	0.000
2	Oxygen	0.000	0	0	0.000	Linear	0.000000e+00	0.000000e+00	0.000000e+00	0.000000e+00	0	0	0.000	0.000
3	Nitrogen	0.000	0	0	0.000	Linear	0.000000e+00	0.000000e+00	0.000000e+00	0.000000e+00	0	0	0.000	0.000
4	Methane	0.000	0	0	0.000	Linear	0.000000e+00	0.000000e+00	0.000000e+00	0.000000e+00	0	0	0.000	0.000
5	Carbon Monoxide	0.000	0	0	0.000	Linear	0.000000e+00	0.000000e+00	0.000000e+00	0.000000e+00	0	0	0.000	0.000

[Compound Results(Ch3)]
# of IDs	2
ID#	Name	R.Time	Area	Height	Conc.	Curve	3rd	2nd	1st	Constant	Area Ratio	Height Ratio	Conc. %	Norm Conc.
1	N2O	2.884	79644	17673	1.000	Linear	0.000000e+00	0.000000e+00	7.964446e+004	0.000000e+00	0	0	100.000	100.000
2	SF6	0.000	0	0	0.000	Linear	0.000000e+00	0.000000e+00	0.000000e+00	0.000000e+00	0	0	0.000	0.000

[Group Results(Ch1)]
# of Groups	0

[Group Results(Ch2)]
# of Groups	0

[Group Results(Ch3)]
# of Groups	0

[Chromatogram (Ch1)]
Interval(msec)	220
# of Points	1091
Start Time(min)	0.002
End Time(min)	3.998
R.Time (min)	Intensity
0.00167	6
0.00533	4
0.00900	4
0.01267	4
0.01633	3
0.02000	3
0.02367	3
0.02733	3
0.03100	3
0.03467	2
0.03833	-1
0.04200	-7
0.04567	-14
0.04933	-18
0.05300	-18
0.05667	-17
0.06033	-16
0.06400	-17
0.06767	-18
0.07133	-16
0.07500	-15
0.07867	-16
0.08233	-17
0.08600	-16
0.08967	-13
0.09333	-10
0.09700	-11
0.10067	-12
0.10433	-11
0.10800	-8
0.11167	-4
0.11533	2
0.11900	11
0.12267	15
0.12633	14
0.13000	7
0.13367	-2
0.13733	-8
0.14100	-10
0.14467	-12
0.14833	-14
0.15200	-15
0.15567	-15
0.15933	-15
0.16300	-16
0.16667	-16
0.17033	-20
0.17400	-29
0.17767	-37
0.18133	-39
0.18500	-36
0.18867	-30
0.19233	-24
0.19600	-22
0.19967	-24
0.20333	-24
0.20700	-25
0.21067	-28
0.21433	-31
0.21800	-34
0.22167	-34
0.22533	-33
0.22900	-32
0.23267	-29
0.23633	-24
0.24000	-22
0.24367	-21
0.24733	-21
0.25100	-22
0.25467	-23
0.25833	-25
0.26200	-29
0.26567	-35
0.26933	-38
0.27300	-38
0.27667	-35
0.28033	-32
0.28400	-30
0.28767	-31
0.29133	-28
0.29500	-24
0.29867	-24
0.30233	-25
0.30600	-30
0.30967	-34
0.31333	-36
0.31700	-33
0.32067	-28
0.32433	-24
0.32800	-22
0.33167	-23
0.33533	-28
0.33900	-32
0.34267	-37
0.34633	-37
0.35000	-36
0.35367	-34
0.35733	-32
0.36100	-30
0.36467	-27
0.36833	-25
0.37200	-25
0.37567	-25
0.37933	-25
0.38300	-26
0.38667	-30
0.39033	-32
0.39400	-31
0.39767	-26
0.40133	-19
0.40500	-15
0.40867	-14
0.41233	-15
0.41600	-16
0.41967	-20
0.42333	-28
0.42700	-34
0.43067	-40
0.43433	-40
0.43800	-34
0.44167	-28
0.44533	-27
0.44900	-28
0.45267	-27
0.45633	-28
0.46000	-27
0.46367	-26
0.46733	-28
0.47100	-34
0.47467	-37
0.47833	-38
0.48200	-39
0.48567	-39
0.48933	-36
0.49300	-32
0.49667	-29
0.50033	-25
0.50400	-23
0.50767	-23
0.51133	-26
0.51500	-32
0.51867	-37
0.52233	-43
0.52600	-47
0.52967	-47
0.53333	-43
0.53700	-37
0.54067	-35
0.54433	-36
0.54800	-35
0.55167	-31
0.55533	-26
0.55900	-21
0.56267	-19
0.56633	-22
0.57000	-28
0.57367	-35
0.57733	-40
0.58100	-44
0.58467	-47
0.58833	-48
0.59200	-45
0.59567	-38
0.59933	-33
0.60300	-33
0.60667	-36
0.61033	-38
0.61400	-38
0.61767	-40
0.62133	-42
0.62500	-40
0.62867	-32
0.63233	-23
0.63600	-20
0.63967	-26
0.64333	-32
0.64700	-33
0.65067	-32
0.65433	-31
0.65800	-30
0.66167	-31
0.66533	-35
0.66900	-39
0.67267	-40
0.67633	-40
0.68000	-41
0.68367	-45
0.68733	-50
0.69100	-52
0.69467	-51
0.69833	-48
0.70200	-44
0.70567	-40
0.70933	-32
0.71300	-27
0.71667	-24
0.72033	-23
0.72400	-23
0.72767	-26
0.73133	-34
0.73500	-44
0.73867	-51
0.74233	-54
0.74600	-55
0.74967	-55
0.75333	-57
0.75700	-58
0.76067	-58
0.76433	-54
0.76800	-50
0.77167	-47
0.77533	-44
0.77900	-39
0.78267	-35
0.78633	-35
0.79000	-39
0.79367	-46
0.79733	-52
0.80100	-57
0.80467	-61
0.80833	-61
0.81200	-60
0.81567	-56
0.81933	-49
0.82300	-43
0.82667	-39
0.83033	-38
0.83400	-41
0.83767	-43
0.84133	-42
0.84500	-41
0.84867	-41
0.85233	-46
0.85600	-49
0.85967	-50
0.86333	-50
0.86700	-50
0.87067	-49
0.87433	-49
0.87800	-50
0.88167	-53
0.88533	-60
0.88900	-68
0.89267	-72
0.89633	-74
0.90000	-74
0.90367	-74
0.90733	-71
0.91100	-67
0.91467	-61
0.91833	-56
0.92200	-54
0.92567	-55
0.92933	-54
0.93300	-52
0.93667	-49
0.94033	-45
0.94400	-40
0.94767	-37
0.95133	-39
0.95500	-44
0.95867	-49
0.96233	-55
0.96600	-58
0.96967	-56
0.97333	-53
0.97700	-51
0.98067	-52
0.98433	-57
0.98800	-60
0.99167	-64
0.99533	-67
0.99900	-68
1.00267	-66
1.00633	-64
1.01000	-62
1.01367	-60
1.01733	-56
1.02100	-53
1.02467	-52
1.02833	-53
1.03200	-57
1.03567	-60
1.03933	-65
1.04300	-68
1.04667	-71
1.05033	-73
1.05400	-72
1.05767	-67
1.06133	-61
1.06500	-58
1.06867	-55
1.07233	-55
1.07600	-59
1.07967	-60
1.08333	-57
1.08700	-52
1.09067	-50
1.09433	-53
1.09800	-55
1.10167	-57
1.10533	-59
1.10900	-61
1.11267	-64
1.11633	-68
1.12000	-72
1.12367	-74
1.12733	-75
1.13100	-77
1.13467	-80
1.13833	-81
1.14200	-82
1.14567	-79
1.14933	-74
1.15300	-69
1.15667	-70
1.16033	-75
1.16400	-78
1.16767	-76
1.17133	-71
1.17500	-67
1.17867	-65
1.18233	-64
1.18600	-67
1.18967	-72
1.19333	-77
1.19700	-83
1.20067	-89
1.20433	-93
1.20800	-96
1.21167	-95
1.21533	-90
1.21900	-83
1.22267	-77
1.22633	-73
1.23000	-69
1.23367	-65
1.23733	-62
1.24100	-63
1.24467	-68
1.24833	-75
1.25200	-83
1.25567	-88
1.25933	-92
1.26300	-96
1.26667	-98
1.27033	-92
1.27400	-87
1.27767	-88
1.28133	-92
1.28500	-94
1.28867	-95
1.29233	-93
1.29600	-89
1.29967	-87
1.30333	-87
1.30700	-86
1.31067	-85
1.31433	-84
1.31800	-84
1.32167	-86
1.32533	-87
1.32900	-86
1.33267	-87
1.33633	-88
1.34000	-90
1.34367	-93
1.34733	-96
1.35100	-96
1.35467	-94
1.35833	-88
1.36200	-83
1.36567	-80
1.36933	-78
1.37300	-79
1.37667	-82
1.38033	-82
1.38400	-80
1.38767	-80
1.39133	-79
1.39500	-79
1.39867	-77
1.40233	-76
1.40600	-78
1.40967	-81
1.41333	-84
1.41700	-86
1.42067	-85
1.42433	-83
1.42800	-82
1.43167	-84
1.43533	-84
1.43900	-66
1.44267	26
1.44633	226
1.45000	459
1.45367	636
1.45733	736
1.46100	777
1.46467	781
1.46833	766
1.47200	745
1.47567	730
1.47933	721
1.48300	708
1.48667	676
1.49033	620
1.49400	545
1.49767	463
1.50133	384
1.50500	308
1.50867	240
1.51233	182
1.51600	136
1.51967	99
1.52333	66
1.52700	40
1.53067	21
1.53433	19
1.53800	75
1.54167	348
1.54533	1132
1.54900	2612
1.55267	4598
1.55633	6657
1.56000	8427
1.56367	9727
1.56733	10451
1.57100	10461
1.57467	9685
1.57833	8266
1.58200	6543
1.58567	4866
1.58933	3452
1.59300	2367
1.59667	1580
1.60033	1030
1.60400	657
1.60767	410
1.61133	251
1.61500	149
1.61867	82
1.62233	34
1.62600	-1
1.62967	-27
1.63333	-43
1.63700	-54
1.64067	-64
1.64433	-73
1.64800	-80
1.65167	-83
1.65533	-83
1.65900	-84
1.66267	-86
1.66633	-89
1.67000	-94
1.67367	-99
1.67733	-104
1.68100	-105
1.68467	-102
1.68833	-98
1.69200	-97
1.69567	-94
1.69933	-89
1.70300	-86
1.70667	-88
1.71033	-92
1.71400	-95
1.71767	-93
1.72133	-87
1.72500	-81
1.72867	-76
1.73233	-76
1.73600	-78
1.73967	-81
1.74333	-84
1.74700	-87
1.75067	-91
1.75433	-97
1.75800	-103
1.76167	-106
1.76533	-106
1.76900	-103
1.77267	-97
1.77633	-92
1.78000	-91
1.78367	-91
1.78733	-93
1.79100	-97
1.79467	-102
1.79833	-105
1.80200	-103
1.80567	-99
1.80933	-93
1.81300	-89
1.81667	-87
1.82033	-86
1.82400	-87
1.82767	-92
1.83133	-99
1.83500	-104
1.83867	-107
1.84233	-108
1.84600	-109
1.84967	-111
1.85333	-112
1.85700	-111
1.86067	-110
1.86433	-104
1.86800	-98
1.87167	-94
1.87533	-92
1.87900	-88
1.88267	-85
1.88633	-82
1.89000	-80
1.89367	-80
1.89733	-82
1.90100	-86
1.90467	-89
1.90833	-87
1.91200	-82
1.91567	-78
1.91933	-76
1.92300	-75
1.92667	-78
1.93033	-83
1.93400	-87
1.93767	-91
1.94133	-94
1.94500	-95
1.94867	-93
1.95233	-72
1.95600	64
1.95967	865
1.96333	4668
1.96700	18445
1.97067	56581
1.97433	138103
1.97800	274093
1.98167	454438
1.98533	649576
1.98900	824719
1.99267	952366
1.99633	1015124
2.00000	1006094
2.00367	930930
2.00733	807211
2.01100	659430
2.01467	511618
2.01833	380878
2.02200	275177
2.02567	195124
2.02933	137243
2.03300	96685
2.03667	68820
2.04033	49862
2.04400	36999
2.04767	28231
2.05133	22190
2.05500	17962
2.05867	14941
2.06233	12732
2.06600	11072
2.06967	9791
2.07333	8779
2.07700	7961
2.08067	7287
2.08433	6719
2.08800	6233
2.09167	5812
2.09533	5445
2.09900	5124
2.10267	4843
2.10633	4593
2.11000	4366
2.11367	4156
2.11733	3964
2.12100	3793
2.12467	3639
2.12833	3498
2.13200	3366
2.13567	3235
2.13933	3103
2.14300	2973
2.14667	2854
2.15033	2750
2.15400	2659
2.15767	2578
2.16133	2501
2.16500	2425
2.16867	2348
2.17233	2273
2.17600	2202
2.17967	2134
2.18333	2070
2.18700	2011
2.19067	1958
2.19433	1913
2.19800	1870
2.20167	1828
2.20533	1785
2.20900	1746
2.21267	1703
2.21633	1662
2.22000	1626
2.22367	1596
2.22733	1571
2.23100	1545
2.23467	1513
2.23833	1475
2.24200	1435
2.24567	1397
2.24933	1359
2.25300	1323
2.25667	1293
2.26033	1272
2.26400	1253
2.26767	1232
2.27133	1211
2.27500	1190
2.27867	1169
2.28233	1149
2.28600	1128
2.28967	1105
2.29333	1081
2.29700	1059
2.30067	1042
2.30433	1030
2.30800	1019
2.31167	1007
2.31533	996
2.31900	983
2.32267	969
2.32633	953
2.33000	935
2.33367	918
2.33733	903
2.34100	888
2.34467	873
2.34833	859
2.35200	849
2.35567	839
2.35933	828
2.36300	818
2.36667	810
2.37033	804
2.37400	797
2.37767	791
2.38133	784
2.38500	774
2.38867	761
2.39233	744
2.39600	725
2.39967	706
2.40333	692
2.40700	684
2.41067	678
2.41433	671
2.41800	665
2.42167	658
2.42533	648
2.42900	639
2.43267	634
2.43633	632
2.44000	629
2.44367	622
2.44733	619
2.45100	619
2.45467	617
2.45833	616
2.46200	613
2.46567	608
2.46933	598
2.47300	584
2.47667	569
2.48033	554
2.48400	540
2.48767	531
2.49133	524
2.49500	520
2.49867	518
2.50233	517
2.50600	517
2.50967	517
2.51333	514
2.51700	508
2.52067	502
2.52433	500
2.52800	501
2.53167	500
2.53533	498
2.53900	489
2.54267	477
2.54633	469
2.55000	464
2.55367	463
2.55733	464
2.56100	464
2.56467	460
2.56833	449
2.57200	438
2.57567	428
2.57933	424
2.58300	422
2.58667	422
2.59033	425
2.59400	427
2.59767	427
2.60133	420
2.60500	415
2.60867	409
2.61233	409
2.61600	407
2.61967	401
2.62333	393
2.62700	387
2.63067	384
2.63433	383
2.63800	379
2.64167	375
2.64533	370
2.64900	364
2.65267	359
2.65633	353
2.66000	347
2.66367	341
2.66733	336
2.67100	334
2.67467	335
2.67833	338
2.68200	340
2.68567	341
2.68933	342
2.69300	338
2.69667	328
2.70033	319
2.70400	314
2.70767	315
2.71133	319
2.71500	322
2.71867	327
2.72233	331
2.72600	333
2.72967	332
2.73333	329
2.73700	323
2.74067	317
2.74433	310
2.74800	304
2.75167	298
2.75533	291
2.75900	286
2.76267	282
2.76633	280
2.77000	278
2.77367	277
2.77733	278
2.78100	278
2.78467	278
2.78833	278
2.79200	278
2.79567	276
2.79933	271
2.80300	265
2.80667	262
2.81033	260
2.81400	257
2.81767	262
2.82133	264
2.82500	262
2.82867	255
2.83233	245
2.83600	232
2.83967	226
2.84333	222
2.84700	220
2.85067	224
2.85433	234
2.85800	247
2.86167	260
2.86533	270
2.86900	277
2.87267	277
2.87633	269
2.88000	260
2.88367	250
2.88733	241
2.89100	240
2.89467	239
2.89833	234
2.90200	225
2.90567	213
2.90933	204
2.91300	201
2.91667	204
2.92033	209
2.92400	215
2.92767	215
2.93133	212
2.93500	208
2.93867	205
2.94233	203
2.94600	202
2.94967	201
2.95333	201
2.95700	204
2.96067	208
2.96433	210
2.96800	212
2.97167	210
2.97533	207
2.97900	205
2.98267	207
2.98633	214
2.99000	220
2.99367	222
2.99733	221
3.00100	219
3.00467	218
3.00833	216
3.01200	211
3.01567	205
3.01933	199
3.02300	194
3.02667	192
3.03033	191
3.03400	190
3.03767	190
3.04133	188
3.04500	185
3.04867	181
3.05233	181
3.05600	184
3.05967	185
3.06333	185
3.06700	186
3.07067	189
3.07433	196
3.07800	200
3.08167	199
3.08533	192
3.08900	183
3.09267	173
3.09633	165
3.10000	160
3.10367	155
3.10733	151
3.11100	152
3.11467	157
3.11833	162
3.12200	164
3.12567	162
3.12933	159
3.13300	154
3.13667	148
3.14033	147
3.14400	149
3.14767	151
3.15133	155
3.15500	157
3.15867	155
3.16233	153
3.16600	152
3.16967	152
3.17333	151
3.17700	150
3.18067	151
3.18433	157
3.18800	163
3.19167	166
3.19533	167
3.19900	165
3.20267	161
3.20633	159
3.21000	157
3.21367	156
3.21733	156
3.22100	154
3.22467	149
3.22833	146
3.23200	142
3.23567	138
3.23933	133
3.24300	130
3.24667	129
3.25033	129
3.25400	132
3.25767	135
3.26133	135
3.26500	136
3.26867	138
3.27233	140
3.27600	142
3.27967	145
3.28333	142
3.28700	138
3.29067	137
3.29433	140
3.29800	144
3.30167	148
3.30533	146
3.30900	139
3.31267	129
3.31633	122
3.32000	119
3.32367	119
3.32733	121
3.33100	123
3.33467	122
3.33833	120
3.34200	120
3.34567	123
3.34933	123
3.35300	120
3.35667	116
3.36033	112
3.36400	109
3.36767	108
3.37133	108
3.37500	109
3.37867	109
3.38233	107
3.38600	107
3.38967	110
3.39333	116
3.39700	126
3.40067	133
3.40433	131
3.40800	127
3.41167	124
3.41533	122
3.41900	117
3.42267	114
3.42633	113
3.43000	112
3.43367	111
3.43733	108
3.44100	105
3.44467	100
3.44833	95
3.45200	89
3.45567	85
3.45933	84
3.46300	86
3.46667	88
3.47033	90
3.47400	90
3.47767	91
3.48133	94
3.48500	98
3.48867	100
3.49233	100
3.49600	99
3.49967	100
3.50333	104
3.50700	105
3.51067	102
3.51433	98
3.51800	94
3.52167	90
3.52533	89
3.52900	93
3.53267	98
3.53633	100
3.54000	100
3.54367	99
3.54733	98
3.55100	97
3.55467	97
3.55833	96
3.56200	92
3.56567	87
3.56933	81
3.57300	76
3.57667	74
3.58033	76
3.58400	80
3.58767	84
3.59133	87
3.59500	91
3.59867	93
3.60233	91
3.60600	86
3.60967	80
3.61333	78
3.61700	80
3.62067	85
3.62433	91
3.62800	96
3.63167	98
3.63533	95
3.63900	88
3.64267	79
3.64633	71
3.65000	64
3.65367	59
3.65733	54
3.66100	50
3.66467	46
3.66833	41
3.67200	39
3.67567	42
3.67933	46
3.68300	48
3.68667	53
3.69033	61
3.69400	69
3.69767	79
3.70133	89
3.70500	89
3.70867	83
3.71233	73
3.71600	61
3.71967	54
3.72333	57
3.72700	63
3.73067	70
3.73433	76
3.73800	79
3.74167	77
3.74533	76
3.74900	73
3.75267	66
3.75633	59
3.76000	53
3.76367	51
3.76733	52
3.77100	53
3.77467	53
3.77833	54
3.78200	55
3.78567	54
3.78933	52
3.79300	50
3.79667	48
3.80033	47
3.80400	44
3.80767	44
3.81133	48
3.81500	51
3.81867	56
3.82233	58
3.82600	61
3.82967	63
3.83333	66
3.83700	70
3.84067	73
3.84433	75
3.84800	72
3.85167	67
3.85533	60
3.85900	52
3.86267	48
3.86633	47
3.87000	45
3.87367	39
3.87733	32
3.88100	26
3.88467	23
3.88833	22
3.89200	22
3.89567	23
3.89933	27
3.90300	33
3.90667	40
3.91033	47
3.91400	50
3.91767	47
3.92133	46
3.92500	48
3.92867	50
3.93233	51
3.93600	52
3.93967	50
3.94333	48
3.94700	46
3.95067	44
3.95433	42
3.95800	40
3.96167	42
3.96533	46
3.96900	48
3.97267	46
3.97633	45
3.98000	43
3.98367	39
3.98733	36
3.99100	33
3.99467	31
3.99833	29

[Chromatogram (Ch2)]
Interval(msec)	220
# of Points	1091
Start Time(min)	0.002
End Time(min)	3.998
R.Time (min)	Intensity
0.00167	-1
0.00533	-1
0.00900	-1
0.01267	-0
0.01633	-0
0.02000	-0
0.02367	-0
0.02733	-0
0.03100	-0
0.03467	-0
0.03833	-0
0.04200	-1
0.04567	-1
0.04933	-1
0.05300	-1
0.05667	-1
0.06033	-2
0.06400	-2
0.06767	-2
0.07133	-2
0.07500	-2
0.07867	-2
0.08233	-2
0.08600	-2
0.08967	-1
0.09333	-1
0.09700	-1
0.10067	-1
0.10433	-0
0.10800	-0
0.11167	-0
0.11533	-0
0.11900	-0
0.12267	-0
0.12633	-1
0.13000	-1
0.13367	-1
0.13733	-1
0.14100	-1
0.14467	-1
0.14833	-1
0.15200	-1
0.15567	-1
0.15933	-1
0.16300	-1
0.16667	-1
0.17033	-2
0.17400	-2
0.17767	-2
0.18133	-2
0.18500	-2
0.18867	-2
0.19233	-2
0.19600	-2
0.19967	-1
0.20333	-1
0.20700	-1
0.21067	-1
0.21433	-1
0.21800	-1
0.22167	-1
0.22533	-1
0.22900	-1
0.23267	-2
0.23633	-2
0.24000	-2
0.24367	-2
0.24733	-2
0.25100	-2
0.25467	-2
0.25833	-2
0.26200	-2
0.26567	-2
0.26933	-2
0.27300	-2
0.27667	-2
0.28033	-2
0.28400	-2
0.28767	-2
0.29133	-2
0.29500	-2
0.29867	-2
0.30233	-3
0.30600	-3
0.30967	-3
0.31333	-3
0.31700	-3
0.32067	-3
0.32433	-3
0.32800	-3
0.33167	-3
0.33533	-3
0.33900	-3
0.34267	-3
0.34633	-2
0.35000	-2
0.35367	-2
0.35733	-2
0.36100	-2
0.36467	-1
0.36833	-1
0.37200	-1
0.37567	-1
0.37933	-2
0.38300	-2
0.38667	-2
0.39033	-2
0.39400	-2
0.39767	-2
0.40133	-2
0.40500	-2
0.40867	-2
0.41233	-2
0.41600	-2
0.41967	-2
0.42333	-3
0.42700	-3
0.43067	-3
0.43433	-3
0.43800	-3
0.44167	-3
0.44533	-3
0.44900	-3
0.45267	-3
0.45633	-3
0.46000	-2
0.46367	-2
0.46733	-2
0.47100	-2
0.47467	-2
0.47833	-2
0.48200	-2
0.48567	-2
0.48933	-2
0.49300	-2
0.49667	-2
0.50033	-2
0.50400	-2
0.50767	-3
0.51133	-3
0.51500	-3
0.51867	-3
0.52233	-3
0.52600	-4
0.52967	-4
0.53333	-4
0.53700	-3
0.54067	-3
0.54433	-3
0.54800	-3
0.55167	-3
0.55533	-3
0.55900	-3
0.56267	-3
0.56633	-3
0.57000	-3
0.57367	-3
0.57733	-3
0.58100	-3
0.58467	-3
0.58833	-3
0.59200	-3
0.59567	-2
0.59933	-2
0.60300	-1
0.60667	-1
0.61033	-2
0.61400	-2
0.61767	-2
0.62133	-2
0.62500	-2
0.62867	-2
0.63233	-2
0.63600	-1
0.63967	-1
0.64333	-1
0.64700	-1
0.65067	-1
0.65433	-1
0.65800	-1
0.66167	-1
0.66533	-1
0.66900	-1
0.67267	-1
0.67633	-2
0.68000	-2
0.68367	-2
0.68733	-2
0.69100	-2
0.69467	-2
0.69833	-3
0.70200	-3
0.70567	-3
0.70933	-3
0.71300	-3
0.71667	-3
0.72033	-3
0.72400	-3
0.72767	-3
0.73133	-2
0.73500	-2
0.73867	-2
0.74233	-2
0.74600	-1
0.74967	-1
0.75333	-1
0.75700	-2
0.76067	-2
0.76433	-1
0.76800	-1
0.77167	-1
0.77533	-1
0.77900	-0
0.78267	-0
0.78633	0
0.79000	0
0.79367	0
0.79733	1
0.80100	1
0.80467	1
0.80833	1
0.81200	0
0.81567	0
0.81933	0
0.82300	0
0.82667	-0
0.83033	-0
0.83400	-1
0.83767	-1
0.84133	-1
0.84500	-1
0.84867	-1
0.85233	-1
0.85600	-1
0.85967	-1
0.86333	-1
0.86700	-1
0.87067	-1
0.87433	-2
0.87800	-2
0.88167	-2
0.88533	-2
0.88900	-2
0.89267	-2
0.89633	-3
0.90000	-3
0.90367	-3
0.90733	-3
0.91100	-3
0.91467	-3
0.91833	-3
0.92200	-3
0.92567	-3
0.92933	-3
0.93300	-3
0.93667	-3
0.94033	-3
0.94400	-3
0.94767	-3
0.95133	-3
0.95500	-3
0.95867	-3
0.96233	-2
0.96600	-2
0.96967	-2
0.97333	-2
0.97700	-2
0.98067	-2
0.98433	-2
0.98800	-2
0.99167	-2
0.99533	-2
0.99900	-2
1.00267	-2
1.00633	-2
1.01000	-2
1.01367	-2
1.01733	-2
1.02100	-2
1.02467	-2
1.02833	-2
1.03200	-2
1.03567	-2
1.03933	-2
1.04300	-2
1.04667	-3
1.05033	-3
1.05400	-3
1.05767	-3
1.06133	-3
1.06500	-4
1.06867	-4
1.07233	-4
1.07600	-3
1.07967	-3
1.08333	-3
1.08700	-3
1.09067	-3
1.09433	-3
1.09800	-3
1.10167	-3
1.10533	-3
1.10900	-3
1.11267	-3
1.11633	-3
1.12000	-3
1.12367	-3
1.12733	-3
1.13100	-3
1.13467	-3
1.13833	-2
1.14200	-2
1.14567	-2
1.14933	-2
1.15300	-2
1.15667	-3
1.16033	-3
1.16400	-3
1.16767	-3
1.17133	-4
1.17500	-4
1.17867	-4
1.18233	-4
1.18600	-4
1.18967	-4
1.19333	-4
1.19700	-4
1.20067	-4
1.20433	-4
1.20800	-3
1.21167	-3
1.21533	-3
1.21900	-2
1.22267	-2
1.22633	-2
1.23000	-2
1.23367	-2
1.23733	-2
1.24100	-2
1.24467	-2
1.24833	-2
1.25200	-2
1.25567	-2
1.25933	-3
1.26300	-3
1.26667	-3
1.27033	-3
1.27400	-3
1.27767	-3
1.28133	-3
1.28500	-3
1.28867	-3
1.29233	-3
1.29600	-3
1.29967	-3
1.30333	-3
1.30700	-3
1.31067	-3
1.31433	-3
1.31800	-3
1.32167	-3
1.32533	-2
1.32900	-2
1.33267	-2
1.33633	-3
1.34000	-3
1.34367	-3
1.34733	-3
1.35100	-3
1.35467	-4
1.35833	-4
1.36200	-4
1.36567	-4
1.36933	-4
1.37300	-4
1.37667	-4
1.38033	-3
1.38400	-3
1.38767	-3
1.39133	-3
1.39500	-3
1.39867	-3
1.40233	-3
1.40600	-3
1.40967	-3
1.41333	-3
1.41700	-3
1.42067	-2
1.42433	-2
1.42800	-2
1.43167	-1
1.43533	-1
1.43900	-2
1.44267	-2
1.44633	-1
1.45000	-1
1.45367	-2
1.45733	-2
1.46100	-2
1.46467	-2
1.46833	-2
1.47200	-2
1.47567	-2
1.47933	-3
1.48300	-3
1.48667	-3
1.49033	-3
1.49400	-3
1.49767	-3
1.50133	-2
1.50500	-2
1.50867	-2
1.51233	-2
1.51600	-2
1.51967	-2
1.52333	-2
1.52700	-2
1.53067	-3
1.53433	-3
1.53800	-2
1.54167	-2
1.54533	-2
1.54900	-2
1.55267	-2
1.55633	-2
1.56000	-2
1.56367	-2
1.56733	-2
1.57100	-2
1.57467	-2
1.57833	-2
1.58200	-2
1.58567	-3
1.58933	-3
1.59300	-3
1.59667	-4
1.60033	-5
1.60400	-5
1.60767	-6
1.61133	-8
1.61500	-10
1.61867	-12
1.62233	-14
1.62600	-17
1.62967	-20
1.63333	-24
1.63700	-27
1.64067	-31
1.64433	-35
1.64800	-39
1.65167	-43
1.65533	-47
1.65900	-50
1.66267	-54
1.66633	-58
1.67000	-62
1.67367	-67
1.67733	-72
1.68100	-76
1.68467	-81
1.68833	-85
1.69200	-89
1.69567	-92
1.69933	-96
1.70300	-99
1.70667	-101
1.71033	-104
1.71400	-106
1.71767	-108
1.72133	-109
1.72500	-110
1.72867	-111
1.73233	-111
1.73600	-112
1.73967	-112
1.74333	-112
1.74700	-112
1.75067	-112
1.75433	-112
1.75800	-113
1.76167	-114
1.76533	-114
1.76900	-115
1.77267	-115
1.77633	-116
1.78000	-116
1.78367	-117
1.78733	-117
1.79100	-118
1.79467	-118
1.79833	-118
1.80200	-118
1.80567	-118
1.80933	-119
1.81300	-119
1.81667	-119
1.82033	-119
1.82400	-119
1.82767	-119
1.83133	-119
1.83500	-119
1.83867	-119
1.84233	-119
1.84600	-119
1.84967	-119
1.85333	-119
1.85700	-119
1.86067	-118
1.86433	-118
1.86800	-117
1.87167	-117
1.87533	-117
1.87900	-118
1.88267	-118
1.88633	-118
1.89000	-118
1.89367	-118
1.89733	-119
1.90100	-118
1.90467	-118
1.90833	-118
1.91200	-117
1.91567	-117
1.91933	-117
1.92300	-117
1.92667	-117
1.93033	-117
1.93400	-116
1.93767	-116
1.94133	-116
1.94500	-116
1.94867	-116
1.95233	-115
1.95600	-115
1.95967	-115
1.96333	-115
1.96700	-115
1.97067	-115
1.97433	-115
1.97800	-114
1.98167	-114
1.98533	-113
1.98900	-113
1.99267	-112
1.99633	-112
2.00000	-112
2.00367	-112
2.00733	-112
2.01100	-112
2.01467	-112
2.01833	-111
2.02200	-111
2.02567	-111
2.02933	-111
2.03300	-110
2.03667	-110
2.04033	-109
2.04400	-109
2.04767	-108
2.05133	-108
2.05500	-109
2.05867	-109
2.06233	-109
2.06600	-108
2.06967	-108
2.07333	-107
2.07700	-107
2.08067	-106
2.08433	-105
2.08800	-104
2.09167	-104
2.09533	-104
2.09900	-104
2.10267	-104
2.10633	-104
2.11000	-104
2.11367	-104
2.11733	-104
2.12100	-104
2.12467	-103
2.12833	-103
2.13200	-102
2.13567	-102
2.13933	-101
2.14300	-101
2.14667	-100
2.15033	-100
2.15400	-100
2.15767	-100
2.16133	-100
2.16500	-100
2.16867	-100
2.17233	-100
2.17600	-100
2.17967	-99
2.18333	-99
2.18700	-98
2.19067	-98
2.19433	-98
2.19800	-98
2.20167	-97
2.20533	-97
2.20900	-96
2.21267	-95
2.21633	-94
2.22000	-93
2.22367	-93
2.22733	-92
2.23100	-92
2.23467	-92
2.23833	-91
2.24200	-91
2.24567	-90
2.24933	-89
2.25300	-89
2.25667	-89
2.26033	-90
2.26400	-91
2.26767	-91
2.27133	-92
2.27500	-92
2.27867	-92
2.28233	-92
2.28600	-91
2.28967	-90
2.29333	-89
2.29700	-89
2.30067	-89
2.30433	-88
2.30800	-88
2.31167	-87
2.31533	-86
2.31900	-85
2.32267	-84
2.32633	-84
2.33000	-84
2.33367	-84
2.33733	-85
2.34100	-85
2.34467	-85
2.34833	-84
2.35200	-83
2.35567	-82
2.35933	-81
2.36300	-79
2.36667	-78
2.37033	-76
2.37400	-73
2.37767	-71
2.38133	-68
2.38500	-64
2.38867	-60
2.39233	-56
2.39600	-52
2.39967	-49
2.40333	-45
2.40700	-41
2.41067	-38
2.41433	-34
2.41800	-31
2.42167	-29
2.42533	-26
2.42900	-24
2.43267	-21
2.43633	-19
2.44000	-16
2.44367	-14
2.44733	-12
2.45100	-10
2.45467	-8
2.45833	-6
2.46200	-4
2.46567	-2
2.46933	-1
2.47300	-0
2.47667	1
2.48033	2
2.48400	2
2.48767	3
2.49133	4
2.49500	5
2.49867	6
2.50233	7
2.50600	9
2.50967	10
2.51333	11
2.51700	12
2.52067	12
2.52433	13
2.52800	13
2.53167	13
2.53533	13
2.53900	13
2.54267	14
2.54633	14
2.55000	14
2.55367	15
2.55733	15
2.56100	16
2.56467	16
2.56833	17
2.57200	17
2.57567	17
2.57933	18
2.58300	18
2.58667	19
2.59033	19
2.59400	18
2.59767	18
2.60133	17
2.60500	17
2.60867	17
2.61233	17
2.61600	18
2.61967	19
2.62333	19
2.62700	20
2.63067	20
2.63433	21
2.63800	21
2.64167	22
2.64533	22
2.64900	22
2.65267	22
2.65633	22
2.66000	22
2.66367	22
2.66733	22
2.67100	22
2.67467	22
2.67833	21
2.68200	21
2.68567	22
2.68933	22
2.69300	22
2.69667	22
2.70033	23
2.70400	23
2.70767	23
2.71133	24
2.71500	24
2.71867	24
2.72233	24
2.72600	23
2.72967	23
2.73333	23
2.73700	23
2.74067	23
2.74433	23
2.74800	23
2.75167	24
2.75533	24
2.75900	25
2.76267	25
2.76633	26
2.77000	26
2.77367	27
2.77733	27
2.78100	28
2.78467	28
2.78833	28
2.79200	28
2.79567	28
2.79933	28
2.80300	28
2.80667	27
2.81033	27
2.81400	26
2.81767	26
2.82133	26
2.82500	26
2.82867	25
2.83233	25
2.83600	26
2.83967	26
2.84333	26
2.84700	26
2.85067	26
2.85433	24
2.85800	21
2.86167	16
2.86533	9
2.86900	-2
2.87267	-17
2.87633	-37
2.88000	-61
2.88367	-91
2.88733	-125
2.89100	-165
2.89467	-210
2.89833	-260
2.90200	-315
2.90567	-373
2.90933	-436
2.91300	-503
2.91667	-572
2.92033	-645
2.92400	-721
2.92767	-799
2.93133	-879
2.93500	-961
2.93867	-1045
2.94233	-1130
2.94600	-1217
2.94967	-1306
2.95333	-1394
2.95700	-1474
2.96067	-1533
2.96433	-1561
2.96800	-1552
2.97167	-1510
2.97533	-1439
2.97900	-1347
2.98267	-1242
2.98633	-1130
2.99000	-1017
2.99367	-907
2.99733	-803
3.00100	-706
3.00467	-617
3.00833	-537
3.01200	-465
3.01567	-402
3.01933	-346
3.02300	-297
3.02667	-254
3.03033	-217
3.03400	-184
3.03767	-157
3.04133	-133
3.04500	-112
3.04867	-95
3.05233	-79
3.05600	-66
3.05967	-55
3.06333	-46
3.06700	-38
3.07067	-31
3.07433	-25
3.07800	-20
3.08167	-16
3.08533	-12
3.08900	-9
3.09267	-6
3.09633	-3
3.10000	-1
3.10367	1
3.10733	3
3.11100	4
3.11467	5
3.11833	6
3.12200	7
3.12567	8
3.12933	9
3.13300	10
3.13667	10
3.14033	11
3.14400	12
3.14767	13
3.15133	14
3.15500	14
3.15867	15
3.16233	15
3.16600	16
3.16967	16
3.17333	17
3.17700	17
3.18067	17
3.18433	18
3.18800	18
3.19167	18
3.19533	18
3.19900	18
3.20267	19
3.20633	19
3.21000	19
3.21367	20
3.21733	20
3.22100	20
3.22467	20
3.22833	21
3.23200	21
3.23567	21
3.23933	21
3.24300	21
3.24667	21
3.25033	21
3.25400	21
3.25767	21
3.26133	21
3.26500	21
3.26867	21
3.27233	21
3.27600	22
3.27967	22
3.28333	22
3.28700	22
3.29067	23
3.29433	23
3.29800	23
3.30167	23
3.30533	24
3.30900	24
3.31267	24
3.31633	24
3.32000	25
3.32367	25
3.32733	25
3.33100	25
3.33467	25
3.33833	25
3.34200	26
3.34567	26
3.34933	26
3.35300	27
3.35667	27
3.36033	27
3.36400	27
3.36767	27
3.37133	27
3.37500	27
3.37867	27
3.38233	27
3.38600	27
3.38967	27
3.39333	27
3.39700	27
3.40067	27
3.40433	27
3.40800	27
3.41167	27
3.41533	27
3.41900	27
3.42267	26
3.42633	26
3.43000	26
3.43367	26
3.43733	26
3.44100	26
3.44467	26
3.44833	26
3.45200	27
3.45567	27
3.45933	27
3.46300	27
3.46667	27
3.47033	27
3.47400	28
3.47767	28
3.48133	28
3.48500	28
3.48867	29
3.49233	29
3.49600	29
3.49967	29
3.50333	29
3.50700	30
3.51067	30
3.51433	30
3.51800	31
3.52167	31
3.52533	31
3.52900	31
3.53267	31
3.53633	31
3.54000	31
3.54367	31
3.54733	31
3.55100	30
3.55467	30
3.55833	30
3.56200	30
3.56567	30
3.56933	30
3.57300	30
3.57667	30
3.58033	30
3.58400	30
3.58767	30
3.59133	30
3.59500	30
3.59867	30
3.60233	30
3.60600	30
3.60967	30
3.61333	31
3.61700	31
3.62067	31
3.62433	31
3.62800	30
3.63167	31
3.63533	31
3.63900	31
3.64267	31
3.64633	31
3.65000	31
3.65367	30
3.65733	30
3.66100	30
3.66467	30
3.66833	30
3.67200	29
3.67567	29
3.67933	29
3.68300	29
3.68667	29
3.69033	29
3.69400	29
3.69767	29
3.70133	29
3.70500	29
3.70867	29
3.71233	29
3.71600	28
3.71967	28
3.72333	28
3.72700	28
3.73067	28
3.73433	28
3.73800	28
3.74167	28
3.74533	28
3.74900	28
3.75267	28
3.75633	29
3.76000	29
3.76367	29
3.76733	29
3.77100	29
3.77467	29
3.77833	28
3.78200	28
3.78567	28
3.78933	28
3.79300	28
3.79667	28
3.80033	28
3.80400	27
3.80767	27
3.81133	27
3.81500	27
3.81867	27
3.82233	27
3.82600	27
3.82967	27
3.83333	26
3.83700	26
3.84067	27
3.84433	27
3.84800	27
3.85167	27
3.85533	28
3.85900	28
3.86267	28
3.86633	27
3.87000	27
3.87367	28
3.87733	28
3.88100	28
3.88467	28
3.88833	28
3.89200	28
3.89567	28
3.89933	28
3.90300	28
3.90667	28
3.91033	29
3.91400	29
3.91767	29
3.92133	29
3.92500	29
3.92867	30
3.93233	30
3.93600	30
3.93967	30
3.94333	30
3.94700	29
3.95067	29
3.95433	29
3.95800	29
3.96167	29
3.96533	29
3.96900	29
3.97267	29
3.97633	29
3.98000	28
3.98367	28
3.98733	28
3.99100	28
3.99467	28
3.99833	27

[Chromatogram (Ch3)]
Interval(msec)	220
# of Points	1091
Start Time(min)	0.002
End Time(min)	3.998
R.Time (min)	Intensity
0.00167	-1
0.00533	0
0.00900	2
0.01267	1
0.01633	-0
0.02000	-2
0.02367	-2
0.02733	-2
0.03100	-3
0.03467	-4
0.03833	-2
0.04200	-1
0.04567	-2
0.04933	-2
0.05300	-0
0.05667	2
0.06033	1
0.06400	-1
0.06767	-3
0.07133	-4
0.07500	-3
0.07867	-3
0.08233	-5
0.08600	-7
0.08967	-5
0.09333	-4
0.09700	-4
0.10067	-5
0.10433	-6
0.10800	-6
0.11167	-5
0.11533	-4
0.11900	-4
0.12267	-6
0.12633	-8
0.13000	-7
0.13367	-4
0.13733	-3
0.14100	-3
0.14467	-3
0.14833	-3
0.15200	-4
0.15567	-4
0.15933	-6
0.16300	-8
0.16667	-10
0.17033	-11
0.17400	-10
0.17767	-8
0.18133	-6
0.18500	-7
0.18867	-6
0.19233	-6
0.19600	-4
0.19967	-1
0.20333	0
0.20700	1
0.21067	2
0.21433	3
0.21800	2
0.22167	0
0.22533	-3
0.22900	-6
0.23267	-7
0.23633	-6
0.24000	-5
0.24367	-3
0.24733	-1
0.25100	-2
0.25467	-6
0.25833	-9
0.26200	-9
0.26567	-9
0.26933	-9
0.27300	-9
0.27667	-7
0.28033	-5
0.28400	-3
0.28767	-4
0.29133	-5
0.29500	-4
0.29867	-4
0.30233	-3
0.30600	-4
0.30967	-5
0.31333	-4
0.31700	-2
0.32067	-0
0.32433	-1
0.32800	-3
0.33167	-5
0.33533	-4
0.33900	-3
0.34267	-4
0.34633	-4
0.35000	-4
0.35367	-3
0.35733	-2
0.36100	-3
0.36467	-1
0.36833	-1
0.37200	-1
0.37567	-1
0.37933	-1
0.38300	-0
0.38667	0
0.39033	-1
0.39400	-2
0.39767	-4
0.40133	-5
0.40500	-5
0.40867	-5
0.41233	-4
0.41600	-2
0.41967	-3
0.42333	-4
0.42700	-7
0.43067	-7
0.43433	-7
0.43800	-5
0.44167	-3
0.44533	-3
0.44900	-3
0.45267	-3
0.45633	-3
0.46000	-3
0.46367	-1
0.46733	0
0.47100	-2
0.47467	-4
0.47833	-6
0.48200	-6
0.48567	-5
0.48933	-4
0.49300	-5
0.49667	-4
0.50033	-1
0.50400	-2
0.50767	-3
0.51133	-5
0.51500	-5
0.51867	-6
0.52233	-5
0.52600	-5
0.52967	-2
0.53333	0
0.53700	-0
0.54067	-3
0.54433	-3
0.54800	-3
0.55167	-2
0.55533	-1
0.55900	-1
0.56267	-1
0.56633	1
0.57000	2
0.57367	1
0.57733	0
0.58100	-1
0.58467	-2
0.58833	-2
0.59200	-5
0.59567	-6
0.59933	-5
0.60300	-5
0.60667	-5
0.61033	-5
0.61400	-7
0.61767	-7
0.62133	-4
0.62500	-3
0.62867	-5
0.63233	-5
0.63600	-5
0.63967	-6
0.64333	-8
0.64700	-8
0.65067	-6
0.65433	-5
0.65800	-6
0.66167	-5
0.66533	-3
0.66900	-1
0.67267	-2
0.67633	-1
0.68000	-1
0.68367	-1
0.68733	-2
0.69100	-2
0.69467	-2
0.69833	-3
0.70200	-3
0.70567	-4
0.70933	-5
0.71300	-7
0.71667	-9
0.72033	-9
0.72400	-8
0.72767	-9
0.73133	-10
0.73500	-9
0.73867	-8
0.74233	-7
0.74600	-6
0.74967	-4
0.75333	-3
0.75700	-5
0.76067	-3
0.76433	-0
0.76800	1
0.77167	-0
0.77533	-2
0.77900	-3
0.78267	-3
0.78633	-6
0.79000	-6
0.79367	-7
0.79733	-7
0.80100	-6
0.80467	-5
0.80833	-5
0.81200	-2
0.81567	-1
0.81933	-2
0.82300	-2
0.82667	-1
0.83033	-3
0.83400	-4
0.83767	-2
0.84133	-0
0.84500	-0
0.84867	-0
0.85233	-2
0.85600	-4
0.85967	-3
0.86333	-4
0.86700	-6
0.87067	-6
0.87433	-5
0.87800	-6
0.88167	-6
0.88533	-7
0.88900	-8
0.89267	-8
0.89633	-5
0.90000	-3
0.90367	-4
0.90733	-4
0.91100	-4
0.91467	-6
0.91833	-7
0.92200	-7
0.92567	-6
0.92933	-5
0.93300	-4
0.93667	-3
0.94033	-1
0.94400	-1
0.94767	-2
0.95133	-0
0.95500	0
0.95867	1
0.96233	1
0.96600	-1
0.96967	-1
0.97333	-2
0.97700	-2
0.98067	-1
0.98433	0
0.98800	1
0.99167	-2
0.99533	-3
0.99900	-3
1.00267	-4
1.00633	-1
1.01000	0
1.01367	1
1.01733	-1
1.02100	-4
1.02467	-6
1.02833	-7
1.03200	-6
1.03567	-5
1.03933	-6
1.04300	-6
1.04667	-8
1.05033	-5
1.05400	-2
1.05767	-1
1.06133	0
1.06500	1
1.06867	1
1.07233	0
1.07600	-1
1.07967	-1
1.08333	-0
1.08700	-3
1.09067	-5
1.09433	-5
1.09800	-6
1.10167	-5
1.10533	-5
1.10900	-5
1.11267	-3
1.11633	-1
1.12000	0
1.12367	1
1.12733	0
1.13100	-1
1.13467	-3
1.13833	-2
1.14200	-2
1.14567	-2
1.14933	-3
1.15300	-5
1.15667	-5
1.16033	-5
1.16400	-4
1.16767	-4
1.17133	-3
1.17500	-3
1.17867	-3
1.18233	-4
1.18600	-3
1.18967	-4
1.19333	-5
1.19700	-7
1.20067	-8
1.20433	-9
1.20800	-8
1.21167	-7
1.21533	-6
1.21900	-6
1.22267	-9
1.22633	-12
1.23000	-11
1.23367	-11
1.23733	-9
1.24100	-6
1.24467	-5
1.24833	-4
1.25200	-3
1.25567	-3
1.25933	-5
1.26300	-6
1.26667	-5
1.27033	-3
1.27400	-4
1.27767	-6
1.28133	-8
1.28500	-8
1.28867	-7
1.29233	-8
1.29600	-7
1.29967	-7
1.30333	-6
1.30700	-5
1.31067	-2
1.31433	-1
1.31800	-3
1.32167	-5
1.32533	-5
1.32900	-6
1.33267	-5
1.33633	-4
1.34000	-6
1.34367	-6
1.34733	-3
1.35100	-3
1.35467	-4
1.35833	-5
1.36200	-5
1.36567	-3
1.36933	-4
1.37300	-7
1.37667	-9
1.38033	-8
1.38400	-8
1.38767	-8
1.39133	-9
1.39500	-10
1.39867	-8
1.40233	-6
1.40600	-4
1.40967	-1
1.41333	-1
1.41700	-2
1.42067	-0
1.42433	0
1.42800	0
1.43167	-2
1.43533	-3
1.43900	-3
1.44267	-3
1.44633	-4
1.45000	-5
1.45367	-5
1.45733	-4
1.46100	-5
1.46467	-7
1.46833	-8
1.47200	-10
1.47567	-11
1.47933	-10
1.48300	-10
1.48667	-8
1.49033	-8
1.49400	-7
1.49767	-7
1.50133	-8
1.50500	-8
1.50867	-6
1.51233	-5
1.51600	-5
1.51967	-6
1.52333	-10
1.52700	-11
1.53067	-11
1.53433	-11
1.53800	-10
1.54167	-10
1.54533	-10
1.54900	-10
1.55267	-10
1.55633	-11
1.56000	-10
1.56367	-8
1.56733	-6
1.57100	-7
1.57467	-8
1.57833	-10
1.58200	-11
1.58567	-11
1.58933	-9
1.59300	-8
1.59667	-6
1.60033	-5
1.60400	-4
1.60767	-3
1.61133	-3
1.61500	-5
1.61867	-6
1.62233	-7
1.62600	-6
1.62967	-6
1.63333	-7
1.63700	-8
1.64067	-6
1.64433	-5
1.64800	-4
1.65167	-1
1.65533	1
1.65900	1
1.66267	1
1.66633	3
1.67000	2
1.67367	2
1.67733	1
1.68100	-0
1.68467	0
1.68833	-1
1.69200	1
1.69567	3
1.69933	6
1.70300	9
1.70667	10
1.71033	9
1.71400	9
1.71767	11
1.72133	11
1.72500	10
1.72867	11
1.73233	11
1.73600	10
1.73967	11
1.74333	11
1.74700	12
1.75067	12
1.75433	11
1.75800	9
1.76167	9
1.76533	9
1.76900	11
1.77267	13
1.77633	13
1.78000	13
1.78367	15
1.78733	15
1.79100	13
1.79467	11
1.79833	12
1.80200	13
1.80567	13
1.80933	13
1.81300	12
1.81667	14
1.82033	15
1.82400	16
1.82767	16
1.83133	18
1.83500	18
1.83867	20
1.84233	22
1.84600	22
1.84967	21
1.85333	19
1.85700	17
1.86067	15
1.86433	15
1.86800	17
1.87167	20
1.87533	21
1.87900	19
1.88267	16
1.88633	16
1.89000	18
1.89367	19
1.89733	20
1.90100	21
1.90467	24
1.90833	24
1.91200	23
1.91567	23
1.91933	24
1.92300	27
1.92667	27
1.93033	26
1.93400	27
1.93767	28
1.94133	26
1.94500	25
1.94867	25
1.95233	26
1.95600	25
1.95967	25
1.96333	26
1.96700	25
1.97067	26
1.97433	28
1.97800	30
1.98167	30
1.98533	31
1.98900	33
1.99267	34
1.99633	37
2.00000	40
2.00367	40
2.00733	40
2.01100	42
2.01467	44
2.01833	42
2.02200	41
2.02567	43
2.02933	46
2.03300	47
2.03667	48
2.04033	52
2.04400	55
2.04767	54
2.05133	54
2.05500	57
2.05867	58
2.06233	58
2.06600	60
2.06967	60
2.07333	59
2.07700	58
2.08067	56
2.08433	55
2.08800	56
2.09167	57
2.09533	59
2.09900	59
2.10267	61
2.10633	64
2.11000	64
2.11367	63
2.11733	62
2.12100	64
2.12467	66
2.12833	68
2.13200	68
2.13567	67
2.13933	67
2.14300	68
2.14667	70
2.15033	70
2.15400	69
2.15767	70
2.16133	72
2.16500	72
2.16867	74
2.17233	75
2.17600	72
2.17967	72
2.18333	72
2.18700	75
2.19067	77
2.19433	78
2.19800	79
2.20167	81
2.20533	83
2.20900	85
2.21267	87
2.21633	87
2.22000	86
2.22367	86
2.22733	86
2.23100	87
2.23467	90
2.23833	93
2.24200	92
2.24567	93
2.24933	96
2.25300	99
2.25667	99
2.26033	98
2.26400	101
2.26767	100
2.27133	101
2.27500	103
2.27867	105
2.28233	106
2.28600	108
2.28967	109
2.29333	110
2.29700	112
2.30067	113
2.30433	114
2.30800	113
2.31167	111
2.31533	111
2.31900	113
2.32267	118
2.32633	120
2.33000	121
2.33367	122
2.33733	123
2.34100	124
2.34467	127
2.34833	129
2.35200	130
2.35567	133
2.35933	134
2.36300	135
2.36667	136
2.37033	136
2.37400	136
2.37767	138
2.38133	140
2.38500	140
2.38867	138
2.39233	139
2.39600	140
2.39967	141
2.40333	143
2.40700	147
2.41067	151
2.41433	153
2.41800	156
2.42167	159
2.42533	162
2.42900	167
2.43267	168
2.43633	168
2.44000	173
2.44367	208
2.44733	293
2.45100	389
2.45467	460
2.45833	485
2.46200	484
2.46567	481
2.46933	478
2.47300	462
2.47667	434
2.48033	401
2.48400	369
2.48767	345
2.49133	335
2.49500	334
2.49867	341
2.50233	353
2.50600	367
2.50967	376
2.51333	374
2.51700	365
2.52067	349
2.52433	331
2.52800	313
2.53167	297
2.53533	284
2.53900	276
2.54267	273
2.54633	272
2.55000	274
2.55367	281
2.55733	291
2.56100	301
2.56467	310
2.56833	320
2.57200	331
2.57567	346
2.57933	359
2.58300	373
2.58667	387
2.59033	398
2.59400	407
2.59767	410
2.60133	407
2.60500	393
2.60867	369
2.61233	338
2.61600	297
2.61967	249
2.62333	197
2.62700	147
2.63067	100
2.63433	57
2.63800	21
2.64167	-8
2.64533	-32
2.64900	-47
2.65267	-57
2.65633	-60
2.66000	-59
2.66367	-53
2.66733	-43
2.67100	-32
2.67467	-20
2.67833	-7
2.68200	8
2.68567	21
2.68933	34
2.69300	47
2.69667	60
2.70033	75
2.70400	88
2.70767	100
2.71133	115
2.71500	131
2.71867	145
2.72233	159
2.72600	171
2.72967	183
2.73333	196
2.73700	207
2.74067	218
2.74433	232
2.74800	247
2.75167	258
2.75533	268
2.75900	279
2.76267	289
2.76633	298
2.77000	305
2.77367	309
2.77733	313
2.78100	317
2.78467	320
2.78833	324
2.79200	330
2.79567	333
2.79933	337
2.80300	339
2.80667	340
2.81033	339
2.81400	337
2.81767	335
2.82133	336
2.82500	345
2.82867	374
2.83233	449
2.83600	614
2.83967	935
2.84333	1492
2.84700	2352
2.85067	3561
2.85433	5118
2.85800	6971
2.86167	9020
2.86533	11131
2.86900	13149
2.87267	14920
2.87633	16311
2.88000	17234
2.88367	17663
2.88733	17617
2.89100	17160
2.89467	16379
2.89833	15377
2.90200	14240
2.90567	13039
2.90933	11829
2.91300	10655
2.91667	9541
2.92033	8503
2.92400	7549
2.92767	6686
2.93133	5909
2.93500	5212
2.93867	4594
2.94233	4046
2.94600	3563
2.94967	3141
2.95333	2771
2.95700	2448
2.96067	2164
2.96433	1917
2.96800	1700
2.97167	1510
2.97533	1346
2.97900	1206
2.98267	1086
2.98633	983
2.99000	895
2.99367	818
2.99733	751
3.00100	693
3.00467	642
3.00833	598
3.01200	561
3.01567	528
3.01933	499
3.02300	475
3.02667	455
3.03033	437
3.03400	423
3.03767	412
3.04133	404
3.04500	396
3.04867	384
3.05233	376
3.05600	370
3.05967	365
3.06333	361
3.06700	357
3.07067	353
3.07433	352
3.07800	350
3.08167	349
3.08533	348
3.08900	347
3.09267	346
3.09633	344
3.10000	342
3.10367	343
3.10733	342
3.11100	340
3.11467	338
3.11833	338
3.12200	339
3.12567	339
3.12933	341
3.13300	340
3.13667	338
3.14033	338
3.14400	339
3.14767	340
3.15133	340
3.15500	338
3.15867	336
3.16233	335
3.16600	336
3.16967	336
3.17333	336
3.17700	336
3.18067	336
3.18433	335
3.18800	334
3.19167	334
3.19533	333
3.19900	333
3.20267	329
3.20633	328
3.21000	329
3.21367	331
3.21733	331
3.22100	330
3.22467	327
3.22833	324
3.23200	322
3.23567	322
3.23933	322
3.24300	320
3.24667	318
3.25033	316
3.25400	314
3.25767	311
3.26133	308
3.26500	304
3.26867	303
3.27233	301
3.27600	300
3.27967	299
3.28333	297
3.28700	294
3.29067	291
3.29433	288
3.29800	283
3.30167	277
3.30533	274
3.30900	273
3.31267	273
3.31633	269
3.32000	264
3.32367	260
3.32733	254
3.33100	248
3.33467	243
3.33833	241
3.34200	239
3.34567	238
3.34933	239
3.35300	238
3.35667	236
3.36033	234
3.36400	233
3.36767	230
3.37133	227
3.37500	224
3.37867	222
3.38233	221
3.38600	218
3.38967	215
3.39333	214
3.39700	212
3.40067	211
3.40433	211
3.40800	209
3.41167	208
3.41533	208
3.41900	203
3.42267	198
3.42633	197
3.43000	196
3.43367	196
3.43733	198
3.44100	198
3.44467	197
3.44833	196
3.45200	195
3.45567	194
3.45933	193
3.46300	194
3.46667	191
3.47033	188
3.47400	188
3.47767	190
3.48133	189
3.48500	188
3.48867	188
3.49233	188
3.49600	187
3.49967	186
3.50333	185
3.50700	183
3.51067	181
3.51433	181
3.51800	180
3.52167	178
3.52533	175
3.52900	174
3.53267	174
3.53633	172
3.54000	168
3.54367	167
3.54733	167
3.55100	166
3.55467	167
3.55833	167
3.56200	168
3.56567	172
3.56933	177
3.57300	177
3.57667	174
3.58033	170
3.58400	167
3.58767	167
3.59133	167
3.59500	169
3.59867	170
3.60233	170
3.60600	168
3.60967	169
3.61333	169
3.61700	168
3.62067	165
3.62433	163
3.62800	163
3.63167	165
3.63533	166
3.63900	167
3.64267	167
3.64633	166
3.65000	167
3.65367	167
3.65733	167
3.66100	169
3.66467	171
3.66833	171
3.67200	169
3.67567	169
3.67933	169
3.68300	167
3.68667	167
3.69033	170
3.69400	172
3.69767	171
3.70133	171
3.70500	171
3.70867	170
3.71233	170
3.71600	170
3.71967	171
3.72333	169
3.72700	167
3.73067	167
3.73433	167
3.73800	167
3.74167	165
3.74533	165
3.74900	166
3.75267	166
3.75633	166
3.76000	163
3.76367	163
3.76733	166
3.77100	166
3.77467	166
3.77833	167
3.78200	168
3.78567	169
3.78933	170
3.79300	168
3.79667	166
3.80033	166
3.80400	167
3.80767	171
3.81133	173
3.81500	172
3.81867	172
3.82233	171
3.82600	170
3.82967	170
3.83333	169
3.83700	169
3.84067	171
3.84433	173
3.84800	173
3.85167	173
3.85533	173
3.85900	173
3.86267	175
3.86633	174
3.87000	175
3.87367	175
3.87733	174
3.88100	173
3.88467	172
3.88833	172
3.89200	172
3.89567	170
3.89933	170
3.90300	173
3.90667	175
3.91033	175
3.91400	175
3.91767	175
3.92133	174
3.92500	176
3.92867	178
3.93233	178
3.93600	176
3.93967	173
3.94333	174
3.94700	176
3.95067	176
3.95433	177
3.95800	179
3.96167	182
3.96533	182
3.96900	182
3.97267	181
3.97633	181
3.98000	180
3.98367	178
3.98733	179
3.99100	180
3.99467	178
3.99833	177

[Status Trace (Column Oven Temperature)]
Interval(msec)	1000
# of Points	240
Start Time(min)	0.010
End Time(min)	3.993
Intensity Units	
Intensity Multiplier	1
R.Time (min)	Intensity
0.01012	34.99
0.02678	35.00
0.04345	35.00
0.06012	35.00
0.07678	35.00
0.09345	35.00
0.11012	34.99
0.12678	34.99
0.14345	34.99
0.16012	34.99
0.17678	34.98
0.19345	34.98
0.21012	34.99
0.22678	34.98
0.24345	34.98
0.26012	34.99
0.27678	34.99
0.29345	34.99
0.31012	34.99
0.32678	34.99
0.34345	34.99
0.36012	35.00
0.37678	34.99
0.39345	34.99
0.41012	35.00
0.42678	35.00
0.44345	35.00
0.46012	35.00
0.47678	35.00
0.49345	35.00
0.51012	35.01
0.52678	35.00
0.54345	35.00
0.56012	35.00
0.57678	35.00
0.59345	35.00
0.61012	35.00
0.62678	34.99
0.64345	34.99
0.66012	34.99
0.67678	34.99
0.69345	35.00
0.71012	35.00
0.72678	35.01
0.74345	35.00
0.76012	35.00
0.77678	34.99
0.79345	34.99
0.81012	34.98
0.82678	34.99
0.84345	34.99
0.86012	34.99
0.87678	34.98
0.89345	35.00
0.91012	34.99
0.92678	34.99
0.94345	34.99
0.96012	35.00
0.97678	34.99
0.99345	35.00
1.01012	34.99
1.02678	35.00
1.04345	34.99
1.06012	35.00
1.07678	35.00
1.09345	35.00
1.11012	35.00
1.12678	34.99
1.14345	34.99
1.16012	35.00
1.17678	35.00
1.19345	34.99
1.21012	34.99
1.22678	35.00
1.24345	34.99
1.26012	34.99
1.27678	35.00
1.29345	35.00
1.31012	35.00
1.32678	35.00
1.34345	35.00
1.36012	35.00
1.37678	35.00
1.39345	35.00
1.41012	35.00
1.42678	34.99
1.44345	35.00
1.46012	35.00
1.47678	35.00
1.49345	34.99
1.51012	34.99
1.52678	35.00
1.54345	34.99
1.56012	34.99
1.57678	35.00
1.59345	35.01
1.61012	35.07
1.62678	35.21
1.64345	35.41
1.66012	35.67
1.67678	36.01
1.69345	36.37
1.71012	36.73
1.72678	37.07
1.74345	37.39
1.76012	37.72
1.77678	38.06
1.79345	38.39
1.81012	38.72
1.82678	39.05
1.84345	39.39
1.86012	39.71
1.87678	40.03
1.89345	40.37
1.91012	40.70
1.92678	41.03
1.94345	41.34
1.96012	41.68
1.97678	42.00
1.99345	42.32
2.01012	42.65
2.02678	42.97
2.04345	43.30
2.06012	43.64
2.07678	43.94
2.09345	44.27
2.11012	44.60
2.12678	44.93
2.14345	45.26
2.16012	45.59
2.17678	45.90
2.19345	46.23
2.21012	46.54
2.22678	46.88
2.24345	47.20
2.26012	47.58
2.27678	47.90
2.29345	48.22
2.31012	48.54
2.32678	48.88
2.34345	49.22
2.36012	49.49
2.37678	49.63
2.39345	49.66
2.41012	49.65
2.42678	49.67
2.44345	49.68
2.46012	49.69
2.47678	49.70
2.49345	49.71
2.51012	49.70
2.52678	49.74
2.54345	49.75
2.56012	49.77
2.57678	49.77
2.59345	49.80
2.61012	49.82
2.62678	49.82
2.64345	49.82
2.66012	49.83
2.67678	49.85
2.69345	49.84
2.71012	49.84
2.72678	49.85
2.74345	49.87
2.76012	49.85
2.77678	49.85
2.79345	49.85
2.81012	49.87
2.82678	49.89
2.84345	49.89
2.86012	49.89
2.87678	49.88
2.89345	49.90
2.91012	49.91
2.92678	49.91
2.94345	49.92
2.96012	49.93
2.97678	49.94
2.99345	49.95
3.01012	49.97
3.02678	49.98
3.04345	49.98
3.06012	50.00
3.07678	50.01
3.09345	50.01
3.11012	50.01
3.12678	50.01
3.14345	50.00
3.16012	50.01
3.17678	50.02
3.19345	50.03
3.21012	50.04
3.22678	50.05
3.24345	50.06
3.26012	50.07
3.27678	50.07
3.29345	50.08
3.31012	50.09
3.32678	50.09
3.34345	50.09
3.36012	50.09
3.37678	50.09
3.39345	50.10
3.41012	50.11
3.42678	50.11
3.44345	50.12
3.46012	50.12
3.47678	50.10
3.49345	50.09
3.51012	50.07
3.52678	50.06
3.54345	50.05
3.56012	50.04
3.57678	50.02
3.59345	50.02
3.61012	50.02
3.62678	50.02
3.64345	50.01
3.66012	50.02
3.67678	50.02
3.69345	50.02
3.71012	50.03
3.72678	50.02
3.74345	50.03
3.76012	50.03
3.77678	50.03
3.79345	50.04
3.81012	50.05
3.82678	50.06
3.84345	50.07
3.86012	50.06
3.87678	50.06
3.89345	50.05
3.91012	50.04
3.92678	50.04
3.94345	50.03
3.96012	50.04
3.97678	50.04
3.99345	50.05

[Status Trace (Injection Unit Temperature)]
Interval(msec)	1000
# of Points	240
Start Time(min)	0.010
End Time(min)	3.993
Intensity Units	
Intensity Multiplier	1
R.Time (min)	Intensity
0.01012	99.99
0.02678	99.99
0.04345	99.99
0.06012	99.99
0.07678	99.99
0.09345	99.99
0.11012	99.99
0.12678	99.99
0.14345	99.99
0.16012	99.99
0.17678	99.99
0.19345	99.99
0.21012	99.99
0.22678	99.99
0.24345	99.99
0.26012	100.00
0.27678	99.99
0.29345	100.00
0.31012	99.99
0.32678	99.99
0.34345	100.00
0.36012	99.99
0.37678	99.99
0.39345	100.00
0.41012	100.00
0.42678	100.00
0.44345	99.99
0.46012	100.00
0.47678	100.00
0.49345	100.00
0.51012	100.00
0.52678	100.00
0.54345	100.00
0.56012	100.00
0.57678	99.99
0.59345	100.00
0.61012	100.00
0.62678	100.00
0.64345	100.00
0.66012	99.99
0.67678	100.00
0.69345	99.99
0.71012	100.00
0.72678	100.00
0.74345	99.99
0.76012	99.99
0.77678	99.99
0.79345	100.00
0.81012	99.99
0.82678	100.00
0.84345	100.00
0.86012	100.00
0.87678	100.00
0.89345	99.99
0.91012	99.99
0.92678	100.00
0.94345	100.00
0.96012	99.99
0.97678	100.00
0.99345	99.99
1.01012	99.99
1.02678	99.99
1.04345	99.99
1.06012	99.99
1.07678	99.99
1.09345	99.99
1.11012	99.99
1.12678	99.99
1.14345	99.99
1.16012	99.99
1.17678	99.99
1.19345	99.99
1.21012	99.99
1.22678	99.99
1.24345	99.99
1.26012	99.99
1.27678	99.99
1.29345	99.99
1.31012	99.99
1.32678	99.99
1.34345	99.99
1.36012	99.99
1.37678	99.99
1.39345	100.00
1.41012	99.99
1.42678	99.99
1.44345	99.99
1.46012	99.99
1.47678	100.00
1.49345	99.99
1.51012	99.99
1.52678	100.00
1.54345	99.99
1.56012	99.99
1.57678	100.00
1.59345	99.99
1.61012	100.00
1.62678	100.00
1.64345	99.99
1.66012	100.00
1.67678	100.00
1.69345	99.99
1.71012	99.99
1.72678	100.00
1.74345	100.00
1.76012	100.00
1.77678	99.99
1.79345	100.00
1.81012	100.00
1.82678	99.99
1.84345	99.99
1.86012	99.99
1.87678	99.99
1.89345	99.99
1.91012	99.99
1.92678	99.99
1.94345	99.99
1.96012	99.99
1.97678	99.99
1.99345	99.99
2.01012	99.99
2.02678	99.99
2.04345	99.98
2.06012	99.98
2.07678	99.98
2.09345	99.98
2.11012	99.98
2.12678	99.98
2.14345	99.98
2.16012	99.98
2.17678	99.98
2.19345	99.98
2.21012	99.98
2.22678	99.98
2.24345	99.98
2.26012	99.97
2.27678	99.98
2.29345	99.98
2.31012	99.98
2.32678	99.97
2.34345	99.97
2.36012	99.98
2.37678	99.98
2.39345	99.98
2.41012	99.97
2.42678	99.98
2.44345	99.98
2.46012	99.98
2.47678	99.97
2.49345	99.98
2.51012	99.97
2.52678	99.97
2.54345	99.98
2.56012	99.98
2.57678	99.98
2.59345	99.98
2.61012	99.98
2.62678	99.98
2.64345	99.98
2.66012	99.99
2.67678	99.98
2.69345	99.99
2.71012	99.99
2.72678	99.99
2.74345	99.99
2.76012	99.99
2.77678	99.99
2.79345	99.99
2.81012	100.00
2.82678	100.00
2.84345	100.00
2.86012	100.00
2.87678	100.00
2.89345	100.00
2.91012	100.00
2.92678	100.00
2.94345	100.01
2.96012	100.01
2.97678	100.01
2.99345	100.01
3.01012	100.01
3.02678	100.01
3.04345	100.01
3.06012	100.02
3.07678	100.02
3.09345	100.02
3.11012	100.02
3.12678	100.02
3.14345	100.02
3.16012	100.03
3.17678	100.03
3.19345	100.03
3.21012	100.03
3.22678	100.03
3.24345	100.03
3.26012	100.03
3.27678	100.04
3.29345	100.03
3.31012	100.04
3.32678	100.04
3.34345	100.04
3.36012	100.04
3.37678	100.04
3.39345	100.04
3.41012	100.04
3.42678	100.04
3.44345	100.05
3.46012	100.05
3.47678	100.05
3.49345	100.05
3.51012	100.05
3.52678	100.05
3.54345	100.05
3.56012	100.05
3.57678	100.05
3.59345	100.06
3.61012	100.05
3.62678	100.06
3.64345	100.06
3.66012	100.05
3.67678	100.06
3.69345	100.06
3.71012	100.06
3.72678	100.06
3.74345	100.06
3.76012	100.05
3.77678	100.06
3.79345	100.05
3.81012	100.06
3.82678	100.05
3.84345	100.06
3.86012	100.05
3.87678	100.06
3.89345	100.06
3.91012	100.05
3.92678	100.05
3.94345	100.05
3.96012	100.05
3.97678	100.05
3.99345	100.06

[Status Trace (Carrier Gas Pressure)]
Interval(msec)	1000
# of Points	240
Start Time(min)	0.010
End Time(min)	3.993
Intensity Units	
Intensity Multiplier	1
R.Time (min)	Intensity
0.01012	58.00
0.02678	55.09
0.04345	57.29
0.06012	59.42
0.07678	59.25
0.09345	58.04
0.11012	57.98
0.12678	58.01
0.14345	58.01
0.16012	58.01
0.17678	58.00
0.19345	58.00
0.21012	58.00
0.22678	58.00
0.24345	58.00
0.26012	58.00
0.27678	58.00
0.29345	58.00
0.31012	58.00
0.32678	58.00
0.34345	58.00
0.36012	58.00
0.37678	58.00
0.39345	58.00
0.41012	58.00
0.42678	58.00
0.44345	58.00
0.46012	58.00
0.47678	58.00
0.49345	58.00
0.51012	58.00
0.52678	58.00
0.54345	58.00
0.56012	58.00
0.57678	58.00
0.59345	58.00
0.61012	58.00
0.62678	58.00
0.64345	58.00
0.66012	58.00
0.67678	58.00
0.69345	58.00
0.71012	58.00
0.72678	58.00
0.74345	58.00
0.76012	58.00
0.77678	58.00
0.79345	58.00
0.81012	58.00
0.82678	58.00
0.84345	58.00
0.86012	58.00
0.87678	58.00
0.89345	58.00
0.91012	58.00
0.92678	58.00
0.94345	58.00
0.96012	58.00
0.97678	58.00
0.99345	58.00
1.01012	58.00
1.02678	58.00
1.04345	58.00
1.06012	58.00
1.07678	58.00
1.09345	58.00
1.11012	58.00
1.12678	58.00
1.14345	58.00
1.16012	58.00
1.17678	58.00
1.19345	58.00
1.21012	58.00
1.22678	58.00
1.24345	58.00
1.26012	58.00
1.27678	58.00
1.29345	58.00
1.31012	58.00
1.32678	58.00
1.34345	58.00
1.36012	58.00
1.37678	58.00
1.39345	58.00
1.41012	58.00
1.42678	58.00
1.44345	58.00
1.46012	58.00
1.47678	58.00
1.49345	58.00
1.51012	58.00
1.52678	58.00
1.54345	58.00
1.56012	58.00
1.57678	58.00
1.59345	58.00
1.61012	58.00
1.62678	58.00
1.64345	58.01
1.66012	58.00
1.67678	58.01
1.69345	58.00
1.71012	58.00
1.72678	58.00
1.74345	58.00
1.76012	58.00
1.77678	58.00
1.79345	58.00
1.81012	58.00
1.82678	58.00
1.84345	58.00
1.86012	58.00
1.87678	58.00
1.89345	58.00
1.91012	58.00
1.92678	58.00
1.94345	58.00
1.96012	58.00
1.97678	58.00
1.99345	58.00
2.01012	58.00
2.02678	58.00
2.04345	58.00
2.06012	58.00
2.07678	58.00
2.09345	58.00
2.11012	58.00
2.12678	58.00
2.14345	58.00
2.16012	58.00
2.17678	58.00
2.19345	58.00
2.21012	58.00
2.22678	58.00
2.24345	58.00
2.26012	58.00
2.27678	58.00
2.29345	58.00
2.31012	58.00
2.32678	58.00
2.34345	58.00
2.36012	58.00
2.37678	58.00
2.39345	57.99
2.41012	57.99
2.42678	58.00
2.44345	58.00
2.46012	58.00
2.47678	58.00
2.49345	58.00
2.51012	57.99
2.52678	57.98
2.54345	58.00
2.56012	58.00
2.57678	58.00
2.59345	58.00
2.61012	58.00
2.62678	58.00
2.64345	58.00
2.66012	58.00
2.67678	58.00
2.69345	58.00
2.71012	58.00
2.72678	58.00
2.74345	58.00
2.76012	58.00
2.77678	58.00
2.79345	58.00
2.81012	58.00
2.82678	58.00
2.84345	58.00
2.86012	58.00
2.87678	58.00
2.89345	58.00
2.91012	58.00
2.92678	58.00
2.94345	58.00
2.96012	58.00
2.97678	58.00
2.99345	58.00
3.01012	58.00
3.02678	58.00
3.04345	58.00
3.06012	58.00
3.07678	58.00
3.09345	58.00
3.11012	58.00
3.12678	58.00
3.14345	58.00
3.16012	58.00
3.17678	58.00
3.19345	58.00
3.21012	58.00
3.22678	58.00
3.24345	58.00
3.26012	58.00
3.27678	58.00
3.29345	58.00
3.31012	58.00
3.32678	58.00
3.34345	58.00
3.36012	58.00
3.37678	58.00
3.39345	58.00
3.41012	58.00
3.42678	58.00
3.44345	58.00
3.46012	58.00
3.47678	58.00
3.49345	58.00
3.51012	58.00
3.52678	58.00
3.54345	58.00
3.56012	58.00
3.57678	58.00
3.59345	58.00
3.61012	58.00
3.62678	58.00
3.64345	58.00
3.66012	58.00
3.67678	58.00
3.69345	58.00
3.71012	58.00
3.72678	58.00
3.74345	58.00
3.76012	58.00
3.77678	58.00
3.79345	58.00
3.81012	58.00
3.82678	58.00
3.84345	58.00
3.86012	58.00
3.87678	58.00
3.89345	58.00
3.91012	58.00
3.92678	58.00
3.94345	58.00
3.96012	58.00
3.97678	58.00
3.99345	58.00

[Status Trace (Carrier Gas Flow)]
Interval(msec)	1000
# of Points	240
Start Time(min)	0.010
End Time(min)	3.993
Intensity Units	
Intensity Multiplier	1
R.Time (min)	Intensity
0.01012	34.52
0.02678	34.52
0.04345	34.55
0.06012	34.54
0.07678	34.51
0.09345	34.52
0.11012	34.52
0.12678	34.52
0.14345	34.52
0.16012	34.52
0.17678	34.52
0.19345	34.52
0.21012	34.52
0.22678	34.52
0.24345	34.52
0.26012	34.52
0.27678	34.52
0.29345	34.52
0.31012	34.52
0.32678	34.52
0.34345	34.52
0.36012	34.52
0.37678	34.52
0.39345	34.52
0.41012	34.51
0.42678	34.52
0.44345	34.52
0.46012	34.52
0.47678	34.52
0.49345	34.52
0.51012	34.52
0.52678	34.52
0.54345	34.52
0.56012	34.52
0.57678	34.52
0.59345	34.52
0.61012	34.52
0.62678	34.52
0.64345	34.52
0.66012	34.52
0.67678	34.52
0.69345	34.52
0.71012	34.52
0.72678	34.52
0.74345	34.52
0.76012	34.52
0.77678	34.52
0.79345	34.52
0.81012	34.52
0.82678	34.52
0.84345	34.52
0.86012	34.52
0.87678	34.52
0.89345	34.52
0.91012	34.52
0.92678	34.52
0.94345	34.52
0.96012	34.52
0.97678	34.52
0.99345	34.52
1.01012	34.52
1.02678	34.52
1.04345	34.52
1.06012	34.51
1.07678	34.52
1.09345	34.52
1.11012	34.52
1.12678	34.52
1.14345	34.52
1.16012	34.52
1.17678	34.52
1.19345	34.52
1.21012	34.52
1.22678	34.52
1.24345	34.52
1.26012	34.52
1.27678	34.52
1.29345	34.52
1.31012	34.52
1.32678	34.52
1.34345	34.52
1.36012	34.52
1.37678	34.52
1.39345	34.51
1.41012	34.52
1.42678	34.52
1.44345	34.52
1.46012	34.52
1.47678	34.51
1.49345	34.52
1.51012	34.51
1.52678	34.52
1.54345	34.52
1.56012	34.52
1.57678	34.52
1.59345	34.52
1.61012	34.52
1.62678	34.52
1.64345	34.52
1.66012	34.52
1.67678	34.52
1.69345	34.52
1.71012	34.52
1.72678	34.52
1.74345	34.52
1.76012	34.52
1.77678	34.52
1.79345	34.51
1.81012	34.52
1.82678	34.52
1.84345	34.52
1.86012	34.52
1.87678	34.52
1.89345	34.52
1.91012	34.52
1.92678	34.52
1.94345	34.52
1.96012	34.52
1.97678	34.52
1.99345	34.52
2.01012	34.52
2.02678	34.52
2.04345	34.52
2.06012	34.52
2.07678	34.52
2.09345	34.52
2.11012	34.52
2.12678	34.52
2.14345	34.52
2.16012	34.52
2.17678	34.52
2.19345	34.52
2.21012	34.52
2.22678	34.52
2.24345	34.52
2.26012	34.52
2.27678	34.51
2.29345	34.52
2.31012	34.52
2.32678	34.51
2.34345	34.51
2.36012	34.52
2.37678	34.52
2.39345	34.52
2.41012	34.52
2.42678	34.52
2.44345	34.52
2.46012	34.52
2.47678	34.52
2.49345	34.52
2.51012	34.51
2.52678	34.52
2.54345	34.52
2.56012	34.53
2.57678	34.52
2.59345	34.52
2.61012	34.51
2.62678	34.52
2.64345	34.52
2.66012	34.51
2.67678	34.52
2.69345	34.52
2.71012	34.52
2.72678	34.52
2.74345	34.52
2.76012	34.52
2.77678	34.52
2.79345	34.52
2.81012	34.53
2.82678	34.52
2.84345	34.51
2.86012	34.52
2.87678	34.52
2.89345	34.51
2.91012	34.52
2.92678	34.52
2.94345	34.52
2.96012	34.52
2.97678	34.52
2.99345	34.52
3.01012	34.52
3.02678	34.52
3.04345	34.52
3.06012	34.52
3.07678	34.52
3.09345	34.52
3.11012	34.52
3.12678	34.52
3.14345	34.52
3.16012	34.52
3.17678	34.52
3.19345	34.52
3.21012	34.52
3.22678	34.52
3.24345	34.52
3.26012	34.52
3.27678	34.52
3.29345	34.52
3.31012	34.52
3.32678	34.52
3.34345	34.52
3.36012	34.52
3.37678	34.52
3.39345	34.52
3.41012	34.52
3.42678	34.52
3.44345	34.52
3.46012	34.52
3.47678	34.52
3.49345	34.52
3.51012	34.52
3.52678	34.52
3.54345	34.52
3.56012	34.52
3.57678	34.52
3.59345	34.52
3.61012	34.52
3.62678	34.52
3.64345	34.52
3.66012	34.52
3.67678	34.52
3.69345	34.52
3.71012	34.52
3.72678	34.52
3.74345	34.52
3.76012	34.52
3.77678	34.52
3.79345	34.52
3.81012	34.52
3.82678	34.52
3.84345	34.52
3.86012	34.52
3.87678	34.52
3.89345	34.52
3.91012	34.52
3.92678	34.52
3.94345	34.52
3.96012	34.52
3.97678	34.52
3.99345	34.52

[Status Trace (Column Flow)]
Interval(msec)	1000
# of Points	240
Start Time(min)	0.010
End Time(min)	3.993
Intensity Units	
Intensity Multiplier	1
R.Time (min)	Intensity
0.01012	5.51
0.02678	5.17
0.04345	5.42
0.06012	5.67
0.07678	5.65
0.09345	5.51
0.11012	5.50
0.12678	5.51
0.14345	5.51
0.16012	5.51
0.17678	5.51
0.19345	5.51
0.21012	5.51
0.22678	5.51
0.24345	5.51
0.26012	5.51
0.27678	5.51
0.29345	5.51
0.31012	5.51
0.32678	5.51
0.34345	5.51
0.36012	5.51
0.37678	5.51
0.39345	5.51
0.41012	5.51
0.42678	5.51
0.44345	5.51
0.46012	5.51
0.47678	5.51
0.49345	5.51
0.51012	5.51
0.52678	5.51
0.54345	5.51
0.56012	5.51
0.57678	5.51
0.59345	5.51
0.61012	5.51
0.62678	5.51
0.64345	5.51
0.66012	5.51
0.67678	5.51
0.69345	5.51
0.71012	5.51
0.72678	5.51
0.74345	5.51
0.76012	5.51
0.77678	5.51
0.79345	5.51
0.81012	5.51
0.82678	5.51
0.84345	5.51
0.86012	5.51
0.87678	5.51
0.89345	5.51
0.91012	5.51
0.92678	5.51
0.94345	5.51
0.96012	5.51
0.97678	5.51
0.99345	5.51
1.01012	5.51
1.02678	5.51
1.04345	5.51
1.06012	5.51
1.07678	5.51
1.09345	5.51
1.11012	5.51
1.12678	5.51
1.14345	5.51
1.16012	5.51
1.17678	5.51
1.19345	5.51
1.21012	5.51
1.22678	5.51
1.24345	5.51
1.26012	5.51
1.27678	5.51
1.29345	5.51
1.31012	5.51
1.32678	5.51
1.34345	5.51
1.36012	5.51
1.37678	5.51
1.39345	5.51
1.41012	5.51
1.42678	5.51
1.44345	5.51
1.46012	5.51
1.47678	5.51
1.49345	5.51
1.51012	5.51
1.52678	5.51
1.54345	5.51
1.56012	5.51
1.57678	5.51
1.59345	5.51
1.61012	5.50
1.62678	5.50
1.64345	5.49
1.66012	5.49
1.67678	5.47
1.69345	5.46
1.71012	5.45
1.72678	5.44
1.74345	5.43
1.76012	5.42
1.77678	5.41
1.79345	5.40
1.81012	5.39
1.82678	5.38
1.84345	5.37
1.86012	5.36
1.87678	5.35
1.89345	5.34
1.91012	5.33
1.92678	5.32
1.94345	5.31
1.96012	5.30
1.97678	5.29
1.99345	5.28
2.01012	5.27
2.02678	5.26
2.04345	5.25
2.06012	5.25
2.07678	5.23
2.09345	5.23
2.11012	5.22
2.12678	5.21
2.14345	5.20
2.16012	5.19
2.17678	5.18
2.19345	5.17
2.21012	5.16
2.22678	5.15
2.24345	5.14
2.26012	5.13
2.27678	5.12
2.29345	5.11
2.31012	5.10
2.32678	5.09
2.34345	5.09
2.36012	5.08
2.37678	5.07
2.39345	5.07
2.41012	5.07
2.42678	5.07
2.44345	5.07
2.46012	5.07
2.47678	5.07
2.49345	5.07
2.51012	5.07
2.52678	5.07
2.54345	5.07
2.56012	5.07
2.57678	5.07
2.59345	5.07
2.61012	5.07
2.62678	5.07
2.64345	5.07
2.66012	5.07
2.67678	5.07
2.69345	5.07
2.71012	5.07
2.72678	5.07
2.74345	5.07
2.76012	5.07
2.77678	5.07
2.79345	5.07
2.81012	5.07
2.82678	5.07
2.84345	5.07
2.86012	5.07
2.87678	5.07
2.89345	5.07
2.91012	5.07
2.92678	5.07
2.94345	5.07
2.96012	5.07
2.97678	5.07
2.99345	5.06
3.01012	5.06
3.02678	5.06
3.04345	5.06
3.06012	5.06
3.07678	5.06
3.09345	5.06
3.11012	5.06
3.12678	5.06
3.14345	5.06
3.16012	5.06
3.17678	5.06
3.19345	5.06
3.21012	5.06
3.22678	5.06
3.24345	5.06
3.26012	5.06
3.27678	5.06
3.29345	5.06
3.31012	5.06
3.32678	5.06
3.34345	5.06
3.36012	5.06
3.37678	5.06
3.39345	5.06
3.41012	5.06
3.42678	5.06
3.44345	5.06
3.46012	5.06
3.47678	5.06
3.49345	5.06
3.51012	5.06
3.52678	5.06
3.54345	5.06
3.56012	5.06
3.57678	5.06
3.59345	5.06
3.61012	5.06
3.62678	5.06
3.64345	5.06
3.66012	5.06
3.67678	5.06
3.69345	5.06
3.71012	5.06
3.72678	5.06
3.74345	5.06
3.76012	5.06
3.77678	5.06
3.79345	5.06
3.81012	5.06
3.82678	5.06
3.84345	5.06
3.86012	5.06
3.87678	5.06
3.89345	5.06
3.91012	5.06
3.92678	5.06
3.94345	5.06
3.96012	5.06
3.97678	5.06
3.99345	5.06

[Status Trace (Linear Velocity)]
Interval(msec)	1000
# of Points	240
Start Time(min)	0.010
End Time(min)	3.993
Intensity Units	
Intensity Multiplier	1
R.Time (min)	Intensity
0.01012	39.01
0.02678	37.11
0.04345	38.55
0.06012	39.94
0.07678	39.83
0.09345	39.04
0.11012	39.00
0.12678	39.02
0.14345	39.02
0.16012	39.02
0.17678	39.02
0.19345	39.02
0.21012	39.02
0.22678	39.02
0.24345	39.02
0.26012	39.02
0.27678	39.01
0.29345	39.01
0.31012	39.01
0.32678	39.02
0.34345	39.01
0.36012	39.01
0.37678	39.01
0.39345	39.01
0.41012	39.01
0.42678	39.01
0.44345	39.01
0.46012	39.01
0.47678	39.01
0.49345	39.01
0.51012	39.01
0.52678	39.01
0.54345	39.01
0.56012	39.01
0.57678	39.01
0.59345	39.01
0.61012	39.01
0.62678	39.01
0.64345	39.01
0.66012	39.01
0.67678	39.01
0.69345	39.01
0.71012	39.01
0.72678	39.01
0.74345	39.01
0.76012	39.01
0.77678	39.01
0.79345	39.01
0.81012	39.02
0.82678	39.01
0.84345	39.01
0.86012	39.01
0.87678	39.01
0.89345	39.01
0.91012	39.01
0.92678	39.01
0.94345	39.01
0.96012	39.01
0.97678	39.01
0.99345	39.01
1.01012	39.01
1.02678	39.01
1.04345	39.01
1.06012	39.01
1.07678	39.01
1.09345	39.01
1.11012	39.01
1.12678	39.01
1.14345	39.01
1.16012	39.01
1.17678	39.01
1.19345	39.01
1.21012	39.01
1.22678	39.01
1.24345	39.01
1.26012	39.01
1.27678	39.01
1.29345	39.01
1.31012	39.01
1.32678	39.01
1.34345	39.01
1.36012	39.01
1.37678	39.01
1.39345	39.01
1.41012	39.01
1.42678	39.01
1.44345	39.01
1.46012	39.01
1.47678	39.01
1.49345	39.01
1.51012	39.01
1.52678	39.01
1.54345	39.01
1.56012	39.01
1.57678	39.01
1.59345	39.01
1.61012	39.01
1.62678	39.00
1.64345	38.98
1.66012	38.95
1.67678	38.92
1.69345	38.89
1.71012	38.85
1.72678	38.82
1.74345	38.79
1.76012	38.76
1.77678	38.72
1.79345	38.69
1.81012	38.66
1.82678	38.63
1.84345	38.60
1.86012	38.57
1.87678	38.54
1.89345	38.51
1.91012	38.47
1.92678	38.44
1.94345	38.42
1.96012	38.39
1.97678	38.35
1.99345	38.32
2.01012	38.30
2.02678	38.26
2.04345	38.24
2.06012	38.20
2.07678	38.17
2.09345	38.15
2.11012	38.12
2.12678	38.08
2.14345	38.06
2.16012	38.03
2.17678	37.99
2.19345	37.97
2.21012	37.94
2.22678	37.91
2.24345	37.88
2.26012	37.85
2.27678	37.82
2.29345	37.79
2.31012	37.76
2.32678	37.73
2.34345	37.70
2.36012	37.67
2.37678	37.66
2.39345	37.65
2.41012	37.66
2.42678	37.66
2.44345	37.66
2.46012	37.66
2.47678	37.66
2.49345	37.65
2.51012	37.65
2.52678	37.64
2.54345	37.65
2.56012	37.65
2.57678	37.65
2.59345	37.65
2.61012	37.64
2.62678	37.64
2.64345	37.65
2.66012	37.64
2.67678	37.64
2.69345	37.64
2.71012	37.64
2.72678	37.64
2.74345	37.64
2.76012	37.64
2.77678	37.64
2.79345	37.64
2.81012	37.64
2.82678	37.64
2.84345	37.64
2.86012	37.64
2.87678	37.64
2.89345	37.64
2.91012	37.64
2.92678	37.64
2.94345	37.64
2.96012	37.64
2.97678	37.63
2.99345	37.63
3.01012	37.63
3.02678	37.63
3.04345	37.63
3.06012	37.63
3.07678	37.63
3.09345	37.63
3.11012	37.63
3.12678	37.63
3.14345	37.63
3.16012	37.63
3.17678	37.63
3.19345	37.63
3.21012	37.63
3.22678	37.62
3.24345	37.62
3.26012	37.62
3.27678	37.62
3.29345	37.62
3.31012	37.62
3.32678	37.62
3.34345	37.62
3.36012	37.62
3.37678	37.62
3.39345	37.62
3.41012	37.62
3.42678	37.62
3.44345	37.62
3.46012	37.62
3.47678	37.62
3.49345	37.62
3.51012	37.62
3.52678	37.62
3.54345	37.62
3.56012	37.63
3.57678	37.63
3.59345	37.63
3.61012	37.63
3.62678	37.63
3.64345	37.63
3.66012	37.63
3.67678	37.63
3.69345	37.63
3.71012	37.63
3.72678	37.63
3.74345	37.63
3.76012	37.63
3.77678	37.63
3.79345	37.63
3.81012	37.62
3.82678	37.62
3.84345	37.62
3.86012	37.62
3.87678	37.62
3.89345	37.62
3.91012	37.62
3.92678	37.63
3.94345	37.63
3.96012	37.63
3.97678	37.63
3.99345	37.62

