[Header]
Application Name	LabSolutions
Version	5.110
Data File Name	C:\Users\User\Desktop\GC Analyses\Jack\UIC Prairie Sampling\10.19.22\221019_007.gcd
Output Date	1/4/2023
Output Time	2:27:28 PM

[File Information]
Type	Data File
Generated	12/5/2022 1:20:22 PM
Generated by	System Administrator
Modified	12/5/2022 1:24:47 PM
Modified by	System Administrator

[Sample Information]
Operator Name	System Administrator
Acquired	12/5/2022 1:20:45 PM
Sample Type	1:Standard
Level	1
Sample Name	221019_UICPrairie
Sample ID	221019_UICPrairie
ISTD Amount1	1
ISTD Amount2	1
ISTD Amount3	1
ISTD Amount4	1
ISTD Amount5	1
ISTD Amount6	1
ISTD Amount7	1
ISTD Amount8	1
ISTD Amount9	1
ISTD Amount10	1
ISTD Amount11	1
ISTD Amount12	1
ISTD Amount13	1
ISTD Amount14	1
ISTD Amount15	1
ISTD Amount16	1
ISTD Amount17	1
ISTD Amount18	1
ISTD Amount19	1
ISTD Amount20	1
ISTD Amount21	1
ISTD Amount22	1
ISTD Amount23	1
ISTD Amount24	1
ISTD Amount25	1
ISTD Amount26	1
ISTD Amount27	1
ISTD Amount28	1
ISTD Amount29	1
ISTD Amount30	1
ISTD Amount31	1
ISTD Amount32	1
Sample Amount	1
Dilution Factor	1
Vial#	1
Injection Volume	1
Injection Count	1
Bar Code	

[Original Files]
Data File	C:\Users\User\Desktop\GC Analyses\Jack\UIC Prairie Sampling\10.19.22\221019_007.gcd
Method File	C:\LabSolutions\Data\GHG_4min_2022\ghg3_togas_w_acet_4 min_new_int.gcm
Batch File	
Report Format File	c:\LabSolutions\System\DEFAULT.lsr

[File Description]


[Configuration]
Instrument Name	C0B7VH3-Instrument1
Instrument #	1
Line #	1
# of Detectors	3
Detector ID	DET#1	DET#2	DET#3
Detector Name	FID	PTCD	ECD
# of Channels	1	1	1

[Peak Table(Ch1)]
# of Peaks	3
Peak#	R.Time	I.Time	F.Time	Area	Height	A/H	Conc.	Mark	ID#	Name	k'	Plate #	Plate Ht.	Tailing	Resolution	Sep.Factor	Area Ratio	Height Ratio	Conc. %	Norm Conc.
1	1.479	1.435	1.538	8627	3602	2.395	100.000	   	1	CO	0.000	7506	19.984	1.259	0.000	0.000	0	0	16.667	16.667
2	1.571	1.538	1.637	5348	2635	2.029	100.000	 V 	2	CH4	0.062	10812	13.873	1.117	1.424	0.000	0	0	16.667	16.667
3	2.000	1.952	2.389	1141202	540391	2.112	400.000	   	3	CO2	0.352	17427	8.607	1.314	7.089	5.680	0	0	66.667	66.667

[Peak Table(Ch2)]
# of Peaks	0

[Peak Table(Ch3)]
# of Peaks	5
Peak#	R.Time	I.Time	F.Time	Area	Height	A/H	Conc.	Mark	ID#	Name	k'	Plate #	Plate Ht.	Tailing	Resolution	Sep.Factor	Area Ratio	Height Ratio	Conc. %	Norm Conc.
1	2.458	2.341	2.499	1112	310	3.591	0.000	   			0.000	9826	15.266	0.000	0.000	0.000	0	0	0.000	0.000
2	2.517	2.499	2.550	524	195	2.684	0.000	 V 			0.024	2320	64.660	0.000	0.381	0.000	0	0	0.000	0.000
3	2.609	2.550	2.653	1031	248	4.164	0.000	 V 			0.061	4916	30.510	0.000	0.512	2.563	0	0	0.000	0.000
4	2.891	2.671	3.775	30591	5900	5.185	1.000	S  	1	N2O	0.176	12703	11.808	1.772	2.246	2.878	0	0	100.000	100.000
5	3.272	3.129	3.496	615	58	10.688	0.000	T  			0.331	2041	73.503	1.064	1.944	1.881	0	0	0.000	0.000

[Compound Results(Ch1)]
# of IDs	6
ID#	Name	R.Time	Area	Height	Conc.	Curve	3rd	2nd	1st	Constant	Area Ratio	Height Ratio	Conc. %	Norm Conc.
1	CO	1.479	8627	3602	100.000	Linear	0.000000e+00	0.000000e+00	8.627056e+001	0.000000e+00	0	0	16.667	16.667
2	CH4	1.571	5348	2635	100.000	Linear	0.000000e+00	0.000000e+00	5.347591e+001	0.000000e+00	0	0	16.667	16.667
3	CO2	2.000	1141202	540391	400.000	Linear	0.000000e+00	0.000000e+00	2.853005e+003	0.000000e+00	0	0	66.667	66.667
4	Ethylene	0.000	0	0	0.000	Linear	0.000000e+00	0.000000e+00	0.000000e+00	0.000000e+00	0	0	0.000	0.000
5	Acetylene	0.000	0	0	0.000	Linear	0.000000e+00	0.000000e+00	0.000000e+00	0.000000e+00	0	0	0.000	0.000
6	Ethane	0.000	0	0	0.000	Linear	0.000000e+00	0.000000e+00	0.000000e+00	0.000000e+00	0	0	0.000	0.000

[Compound Results(Ch2)]
# of IDs	5
ID#	Name	R.Time	Area	Height	Conc.	Curve	3rd	2nd	1st	Constant	Area Ratio	Height Ratio	Conc. %	Norm Conc.
1	Hydrogen	0.000	0	0	0.000	Linear	0.000000e+00	0.000000e+00	0.000000e+00	0.000000e+00	0	0	0.000	0.000
2	Oxygen	0.000	0	0	0.000	Linear	0.000000e+00	0.000000e+00	0.000000e+00	0.000000e+00	0	0	0.000	0.000
3	Nitrogen	0.000	0	0	0.000	Linear	0.000000e+00	0.000000e+00	0.000000e+00	0.000000e+00	0	0	0.000	0.000
4	Methane	0.000	0	0	0.000	Linear	0.000000e+00	0.000000e+00	0.000000e+00	0.000000e+00	0	0	0.000	0.000
5	Carbon Monoxide	0.000	0	0	0.000	Linear	0.000000e+00	0.000000e+00	0.000000e+00	0.000000e+00	0	0	0.000	0.000

[Compound Results(Ch3)]
# of IDs	2
ID#	Name	R.Time	Area	Height	Conc.	Curve	3rd	2nd	1st	Constant	Area Ratio	Height Ratio	Conc. %	Norm Conc.
1	N2O	2.891	30591	5900	1.000	Linear	0.000000e+00	0.000000e+00	3.059125e+004	0.000000e+00	0	0	100.000	100.000
2	SF6	0.000	0	0	0.000	Linear	0.000000e+00	0.000000e+00	0.000000e+00	0.000000e+00	0	0	0.000	0.000

[Group Results(Ch1)]
# of Groups	0

[Group Results(Ch2)]
# of Groups	0

[Group Results(Ch3)]
# of Groups	0

[Chromatogram (Ch1)]
Interval(msec)	220
# of Points	1091
Start Time(min)	0.002
End Time(min)	3.998
R.Time (min)	Intensity
0.00167	-13
0.00533	-14
0.00900	-14
0.01267	-17
0.01633	-22
0.02000	-24
0.02367	-26
0.02733	-28
0.03100	-27
0.03467	-19
0.03833	-8
0.04200	2
0.04567	7
0.04933	8
0.05300	4
0.05667	-5
0.06033	-16
0.06400	-28
0.06767	-39
0.07133	-46
0.07500	-46
0.07867	-40
0.08233	-32
0.08600	-27
0.08967	-25
0.09333	-23
0.09700	-19
0.10067	-18
0.10433	-19
0.10800	-21
0.11167	-23
0.11533	-22
0.11900	-21
0.12267	-18
0.12633	-17
0.13000	-18
0.13367	-19
0.13733	-21
0.14100	-23
0.14467	-23
0.14833	-22
0.15200	-17
0.15567	-11
0.15933	-7
0.16300	-7
0.16667	-6
0.17033	-8
0.17400	-17
0.17767	-31
0.18133	-41
0.18500	-46
0.18867	-46
0.19233	-41
0.19600	-35
0.19967	-29
0.20333	-26
0.20700	-24
0.21067	-21
0.21433	-17
0.21800	-14
0.22167	-12
0.22533	-12
0.22900	-12
0.23267	-13
0.23633	-19
0.24000	-30
0.24367	-40
0.24733	-43
0.25100	-41
0.25467	-38
0.25833	-33
0.26200	-29
0.26567	-28
0.26933	-28
0.27300	-27
0.27667	-24
0.28033	-21
0.28400	-22
0.28767	-25
0.29133	-27
0.29500	-25
0.29867	-18
0.30233	-10
0.30600	-3
0.30967	-1
0.31333	-7
0.31700	-17
0.32067	-29
0.32433	-38
0.32800	-44
0.33167	-48
0.33533	-50
0.33900	-50
0.34267	-47
0.34633	-43
0.35000	-38
0.35367	-35
0.35733	-33
0.36100	-30
0.36467	-24
0.36833	-16
0.37200	-11
0.37567	-9
0.37933	-12
0.38300	-19
0.38667	-27
0.39033	-35
0.39400	-39
0.39767	-42
0.40133	-43
0.40500	-41
0.40867	-39
0.41233	-39
0.41600	-40
0.41967	-41
0.42333	-43
0.42700	-43
0.43067	-38
0.43433	-31
0.43800	-22
0.44167	-12
0.44533	-5
0.44900	-8
0.45267	-15
0.45633	-21
0.46000	-25
0.46367	-29
0.46733	-31
0.47100	-32
0.47467	-35
0.47833	-40
0.48200	-43
0.48567	-43
0.48933	-45
0.49300	-47
0.49667	-45
0.50033	-39
0.50400	-32
0.50767	-24
0.51133	-14
0.51500	-6
0.51867	-7
0.52233	-16
0.52600	-27
0.52967	-35
0.53333	-41
0.53700	-46
0.54067	-49
0.54433	-51
0.54800	-53
0.55167	-55
0.55533	-57
0.55900	-58
0.56267	-56
0.56633	-52
0.57000	-49
0.57367	-49
0.57733	-48
0.58100	-47
0.58467	-49
0.58833	-51
0.59200	-49
0.59567	-44
0.59933	-38
0.60300	-33
0.60667	-34
0.61033	-37
0.61400	-41
0.61767	-43
0.62133	-40
0.62500	-37
0.62867	-35
0.63233	-31
0.63600	-29
0.63967	-30
0.64333	-33
0.64700	-37
0.65067	-41
0.65433	-46
0.65800	-48
0.66167	-49
0.66533	-50
0.66900	-53
0.67267	-55
0.67633	-54
0.68000	-52
0.68367	-50
0.68733	-48
0.69100	-46
0.69467	-43
0.69833	-41
0.70200	-40
0.70567	-39
0.70933	-35
0.71300	-27
0.71667	-21
0.72033	-19
0.72400	-20
0.72767	-26
0.73133	-34
0.73500	-40
0.73867	-46
0.74233	-48
0.74600	-47
0.74967	-43
0.75333	-39
0.75700	-40
0.76067	-38
0.76433	-32
0.76800	-27
0.77167	-30
0.77533	-37
0.77900	-44
0.78267	-48
0.78633	-47
0.79000	-45
0.79367	-45
0.79733	-45
0.80100	-43
0.80467	-41
0.80833	-42
0.81200	-44
0.81567	-46
0.81933	-49
0.82300	-53
0.82667	-56
0.83033	-58
0.83400	-56
0.83767	-49
0.84133	-41
0.84500	-32
0.84867	-28
0.85233	-26
0.85600	-27
0.85967	-28
0.86333	-34
0.86700	-44
0.87067	-56
0.87433	-63
0.87800	-65
0.88167	-66
0.88533	-69
0.88900	-74
0.89267	-76
0.89633	-72
0.90000	-67
0.90367	-63
0.90733	-61
0.91100	-60
0.91467	-62
0.91833	-63
0.92200	-61
0.92567	-57
0.92933	-52
0.93300	-46
0.93667	-42
0.94033	-44
0.94400	-46
0.94767	-50
0.95133	-58
0.95500	-62
0.95867	-60
0.96233	-57
0.96600	-58
0.96967	-60
0.97333	-60
0.97700	-57
0.98067	-55
0.98433	-54
0.98800	-53
0.99167	-52
0.99533	-53
0.99900	-58
1.00267	-61
1.00633	-63
1.01000	-61
1.01367	-60
1.01733	-58
1.02100	-55
1.02467	-51
1.02833	-50
1.03200	-51
1.03567	-51
1.03933	-51
1.04300	-54
1.04667	-58
1.05033	-59
1.05400	-56
1.05767	-52
1.06133	-50
1.06500	-52
1.06867	-54
1.07233	-57
1.07600	-60
1.07967	-63
1.08333	-65
1.08700	-66
1.09067	-65
1.09433	-65
1.09800	-65
1.10167	-69
1.10533	-75
1.10900	-80
1.11267	-81
1.11633	-79
1.12000	-77
1.12367	-74
1.12733	-72
1.13100	-67
1.13467	-60
1.13833	-57
1.14200	-60
1.14567	-64
1.14933	-65
1.15300	-63
1.15667	-63
1.16033	-64
1.16400	-66
1.16767	-68
1.17133	-67
1.17500	-63
1.17867	-59
1.18233	-55
1.18600	-52
1.18967	-52
1.19333	-56
1.19700	-60
1.20067	-65
1.20433	-72
1.20800	-77
1.21167	-79
1.21533	-82
1.21900	-78
1.22267	-71
1.22633	-66
1.23000	-67
1.23367	-72
1.23733	-77
1.24100	-79
1.24467	-83
1.24833	-83
1.25200	-78
1.25567	-74
1.25933	-70
1.26300	-68
1.26667	-67
1.27033	-66
1.27400	-67
1.27767	-69
1.28133	-69
1.28500	-68
1.28867	-67
1.29233	-66
1.29600	-65
1.29967	-65
1.30333	-66
1.30700	-69
1.31067	-72
1.31433	-72
1.31800	-71
1.32167	-73
1.32533	-74
1.32900	-76
1.33267	-75
1.33633	-72
1.34000	-70
1.34367	-70
1.34733	-70
1.35100	-70
1.35467	-75
1.35833	-81
1.36200	-85
1.36567	-85
1.36933	-81
1.37300	-80
1.37667	-84
1.38033	-87
1.38400	-85
1.38767	-79
1.39133	-74
1.39500	-72
1.39867	-71
1.40233	-70
1.40600	-71
1.40967	-74
1.41333	-77
1.41700	-78
1.42067	-80
1.42433	-83
1.42800	-84
1.43167	-81
1.43533	-74
1.43900	-62
1.44267	-20
1.44633	126
1.45000	395
1.45367	756
1.45733	1224
1.46100	1787
1.46467	2358
1.46833	2850
1.47200	3223
1.47567	3457
1.47933	3529
1.48300	3412
1.48667	3110
1.49033	2671
1.49400	2170
1.49767	1684
1.50133	1266
1.50500	933
1.50867	680
1.51233	495
1.51600	364
1.51967	270
1.52333	197
1.52700	144
1.53067	103
1.53433	72
1.53800	55
1.54167	66
1.54533	154
1.54900	388
1.55267	785
1.55633	1280
1.56000	1761
1.56367	2156
1.56733	2434
1.57100	2565
1.57467	2513
1.57833	2270
1.58200	1894
1.58567	1474
1.58933	1080
1.59300	752
1.59667	500
1.60033	314
1.60400	180
1.60767	88
1.61133	28
1.61500	-10
1.61867	-32
1.62233	-41
1.62600	-47
1.62967	-54
1.63333	-61
1.63700	-68
1.64067	-72
1.64433	-70
1.64800	-67
1.65167	-64
1.65533	-64
1.65900	-66
1.66267	-68
1.66633	-72
1.67000	-77
1.67367	-79
1.67733	-77
1.68100	-73
1.68467	-70
1.68833	-68
1.69200	-67
1.69567	-67
1.69933	-72
1.70300	-78
1.70667	-84
1.71033	-89
1.71400	-88
1.71767	-80
1.72133	-70
1.72500	-63
1.72867	-59
1.73233	-59
1.73600	-62
1.73967	-67
1.74333	-71
1.74700	-70
1.75067	-66
1.75433	-60
1.75800	-56
1.76167	-53
1.76533	-52
1.76900	-54
1.77267	-58
1.77633	-64
1.78000	-70
1.78367	-73
1.78733	-73
1.79100	-72
1.79467	-73
1.79833	-74
1.80200	-75
1.80567	-75
1.80933	-79
1.81300	-84
1.81667	-87
1.82033	-89
1.82400	-91
1.82767	-90
1.83133	-90
1.83500	-92
1.83867	-95
1.84233	-99
1.84600	-102
1.84967	-101
1.85333	-98
1.85700	-96
1.86067	-93
1.86433	-88
1.86800	-83
1.87167	-78
1.87533	-71
1.87900	-64
1.88267	-60
1.88633	-59
1.89000	-59
1.89367	-62
1.89733	-65
1.90100	-69
1.90467	-74
1.90833	-79
1.91200	-80
1.91567	-79
1.91933	-75
1.92300	-68
1.92667	-63
1.93033	-61
1.93400	-62
1.93767	-67
1.94133	-73
1.94500	-79
1.94867	-82
1.95233	-77
1.95600	-56
1.95967	46
1.96333	590
1.96700	3007
1.97067	11298
1.97433	33102
1.97800	77867
1.98167	150636
1.98533	245903
1.98900	348723
1.99267	441226
1.99633	508318
2.00000	540367
2.00367	533566
2.00733	490895
2.01100	422422
2.01467	342235
2.01833	263464
2.02200	194911
2.02567	140227
2.02933	99239
2.03300	69817
2.03667	49291
2.04033	35214
2.04400	25639
2.04767	19133
2.05133	14683
2.05500	11601
2.05867	9428
2.06233	7862
2.06600	6708
2.06967	5838
2.07333	5169
2.07700	4639
2.08067	4201
2.08433	3835
2.08800	3528
2.09167	3267
2.09533	3043
2.09900	2843
2.10267	2665
2.10633	2504
2.11000	2361
2.11367	2232
2.11733	2116
2.12100	2015
2.12467	1926
2.12833	1843
2.13200	1766
2.13567	1695
2.13933	1628
2.14300	1565
2.14667	1507
2.15033	1456
2.15400	1411
2.15767	1369
2.16133	1327
2.16500	1286
2.16867	1244
2.17233	1206
2.17600	1171
2.17967	1137
2.18333	1104
2.18700	1073
2.19067	1044
2.19433	1017
2.19800	988
2.20167	957
2.20533	924
2.20900	894
2.21267	868
2.21633	849
2.22000	833
2.22367	814
2.22733	793
2.23100	774
2.23467	759
2.23833	747
2.24200	738
2.24567	728
2.24933	716
2.25300	705
2.25667	694
2.26033	683
2.26400	672
2.26767	659
2.27133	645
2.27500	634
2.27867	624
2.28233	614
2.28600	605
2.28967	595
2.29333	581
2.29700	562
2.30067	546
2.30433	535
2.30800	526
2.31167	517
2.31533	508
2.31900	500
2.32267	489
2.32633	476
2.33000	467
2.33367	461
2.33733	460
2.34100	462
2.34467	463
2.34833	461
2.35200	454
2.35567	445
2.35933	437
2.36300	432
2.36667	432
2.37033	431
2.37400	428
2.37767	421
2.38133	416
2.38500	415
2.38867	415
2.39233	417
2.39600	419
2.39967	417
2.40333	409
2.40700	399
2.41067	390
2.41433	383
2.41800	378
2.42167	375
2.42533	371
2.42900	366
2.43267	361
2.43633	357
2.44000	352
2.44367	345
2.44733	338
2.45100	329
2.45467	318
2.45833	309
2.46200	303
2.46567	301
2.46933	302
2.47300	306
2.47667	312
2.48033	318
2.48400	320
2.48767	321
2.49133	319
2.49500	316
2.49867	313
2.50233	311
2.50600	307
2.50967	302
2.51333	299
2.51700	299
2.52067	299
2.52433	300
2.52800	301
2.53167	300
2.53533	297
2.53900	293
2.54267	284
2.54633	272
2.55000	262
2.55367	255
2.55733	256
2.56100	262
2.56467	268
2.56833	272
2.57200	274
2.57567	274
2.57933	271
2.58300	266
2.58667	265
2.59033	266
2.59400	266
2.59767	263
2.60133	256
2.60500	248
2.60867	242
2.61233	237
2.61600	234
2.61967	234
2.62333	236
2.62700	237
2.63067	235
2.63433	235
2.63800	237
2.64167	239
2.64533	240
2.64900	237
2.65267	232
2.65633	229
2.66000	228
2.66367	227
2.66733	223
2.67100	220
2.67467	216
2.67833	213
2.68200	214
2.68567	220
2.68933	226
2.69300	228
2.69667	224
2.70033	218
2.70400	212
2.70767	206
2.71133	201
2.71500	199
2.71867	199
2.72233	201
2.72600	200
2.72967	196
2.73333	187
2.73700	177
2.74067	168
2.74433	159
2.74800	154
2.75167	156
2.75533	162
2.75900	168
2.76267	173
2.76633	179
2.77000	183
2.77367	187
2.77733	192
2.78100	196
2.78467	198
2.78833	198
2.79200	198
2.79567	199
2.79933	199
2.80300	199
2.80667	198
2.81033	197
2.81400	195
2.81767	191
2.82133	186
2.82500	179
2.82867	173
2.83233	168
2.83600	165
2.83967	163
2.84333	168
2.84700	174
2.85067	177
2.85433	178
2.85800	176
2.86167	173
2.86533	168
2.86900	166
2.87267	165
2.87633	163
2.88000	162
2.88367	161
2.88733	158
2.89100	160
2.89467	165
2.89833	169
2.90200	170
2.90567	169
2.90933	166
2.91300	160
2.91667	150
2.92033	139
2.92400	133
2.92767	131
2.93133	132
2.93500	135
2.93867	141
2.94233	150
2.94600	158
2.94967	160
2.95333	162
2.95700	164
2.96067	165
2.96433	165
2.96800	166
2.97167	165
2.97533	160
2.97900	154
2.98267	151
2.98633	150
2.99000	152
2.99367	152
2.99733	151
3.00100	152
3.00467	153
3.00833	154
3.01200	153
3.01567	154
3.01933	157
3.02300	161
3.02667	161
3.03033	156
3.03400	146
3.03767	139
3.04133	136
3.04500	134
3.04867	132
3.05233	137
3.05600	143
3.05967	149
3.06333	154
3.06700	158
3.07067	159
3.07433	158
3.07800	153
3.08167	148
3.08533	143
3.08900	140
3.09267	136
3.09633	131
3.10000	128
3.10367	126
3.10733	123
3.11100	121
3.11467	121
3.11833	122
3.12200	123
3.12567	124
3.12933	126
3.13300	129
3.13667	137
3.14033	147
3.14400	155
3.14767	152
3.15133	141
3.15500	127
3.15867	115
3.16233	111
3.16600	115
3.16967	120
3.17333	122
3.17700	118
3.18067	111
3.18433	103
3.18800	99
3.19167	98
3.19533	99
3.19900	104
3.20267	116
3.20633	127
3.21000	133
3.21367	130
3.21733	124
3.22100	116
3.22467	109
3.22833	108
3.23200	110
3.23567	112
3.23933	113
3.24300	112
3.24667	111
3.25033	111
3.25400	111
3.25767	111
3.26133	113
3.26500	115
3.26867	114
3.27233	113
3.27600	113
3.27967	116
3.28333	117
3.28700	117
3.29067	117
3.29433	119
3.29800	123
3.30167	127
3.30533	126
3.30900	123
3.31267	117
3.31633	112
3.32000	109
3.32367	109
3.32733	111
3.33100	113
3.33467	115
3.33833	118
3.34200	122
3.34567	125
3.34933	121
3.35300	112
3.35667	101
3.36033	88
3.36400	78
3.36767	77
3.37133	80
3.37500	85
3.37867	91
3.38233	98
3.38600	103
3.38967	107
3.39333	110
3.39700	109
3.40067	105
3.40433	103
3.40800	105
3.41167	109
3.41533	111
3.41900	109
3.42267	108
3.42633	108
3.43000	105
3.43367	99
3.43733	92
3.44100	86
3.44467	83
3.44833	82
3.45200	83
3.45567	82
3.45933	79
3.46300	81
3.46667	87
3.47033	94
3.47400	99
3.47767	100
3.48133	97
3.48500	95
3.48867	97
3.49233	101
3.49600	106
3.49967	108
3.50333	107
3.50700	101
3.51067	94
3.51433	88
3.51800	85
3.52167	84
3.52533	87
3.52900	91
3.53267	93
3.53633	93
3.54000	94
3.54367	97
3.54733	100
3.55100	101
3.55467	101
3.55833	101
3.56200	100
3.56567	100
3.56933	100
3.57300	101
3.57667	101
3.58033	103
3.58400	102
3.58767	98
3.59133	93
3.59500	87
3.59867	84
3.60233	84
3.60600	87
3.60967	90
3.61333	92
3.61700	93
3.62067	95
3.62433	96
3.62800	93
3.63167	90
3.63533	89
3.63900	89
3.64267	90
3.64633	93
3.65000	98
3.65367	103
3.65733	106
3.66100	106
3.66467	105
3.66833	102
3.67200	98
3.67567	95
3.67933	90
3.68300	85
3.68667	80
3.69033	78
3.69400	77
3.69767	78
3.70133	83
3.70500	92
3.70867	103
3.71233	110
3.71600	110
3.71967	101
3.72333	88
3.72700	75
3.73067	68
3.73433	66
3.73800	69
3.74167	73
3.74533	76
3.74900	78
3.75267	77
3.75633	75
3.76000	76
3.76367	80
3.76733	82
3.77100	81
3.77467	79
3.77833	76
3.78200	74
3.78567	71
3.78933	72
3.79300	73
3.79667	71
3.80033	72
3.80400	73
3.80767	74
3.81133	75
3.81500	75
3.81867	76
3.82233	78
3.82600	82
3.82967	84
3.83333	83
3.83700	82
3.84067	81
3.84433	79
3.84800	75
3.85167	72
3.85533	67
3.85900	66
3.86267	68
3.86633	66
3.87000	65
3.87367	69
3.87733	74
3.88100	74
3.88467	70
3.88833	68
3.89200	67
3.89567	67
3.89933	68
3.90300	70
3.90667	69
3.91033	70
3.91400	74
3.91767	80
3.92133	86
3.92500	92
3.92867	94
3.93233	93
3.93600	91
3.93967	89
3.94333	87
3.94700	86
3.95067	83
3.95433	78
3.95800	74
3.96167	73
3.96533	72
3.96900	71
3.97267	68
3.97633	65
3.98000	64
3.98367	67
3.98733	70
3.99100	71
3.99467	72
3.99833	73

[Chromatogram (Ch2)]
Interval(msec)	220
# of Points	1091
Start Time(min)	0.002
End Time(min)	3.998
R.Time (min)	Intensity
0.00167	-0
0.00533	-0
0.00900	-0
0.01267	-0
0.01633	-1
0.02000	-1
0.02367	-1
0.02733	-1
0.03100	-2
0.03467	-2
0.03833	-2
0.04200	-2
0.04567	-2
0.04933	-2
0.05300	-2
0.05667	-2
0.06033	-3
0.06400	-3
0.06767	-3
0.07133	-3
0.07500	-3
0.07867	-3
0.08233	-3
0.08600	-2
0.08967	-2
0.09333	-2
0.09700	-1
0.10067	-1
0.10433	-0
0.10800	0
0.11167	1
0.11533	1
0.11900	1
0.12267	2
0.12633	2
0.13000	2
0.13367	2
0.13733	2
0.14100	2
0.14467	1
0.14833	1
0.15200	1
0.15567	1
0.15933	1
0.16300	1
0.16667	1
0.17033	1
0.17400	0
0.17767	1
0.18133	1
0.18500	0
0.18867	0
0.19233	0
0.19600	1
0.19967	1
0.20333	1
0.20700	1
0.21067	1
0.21433	1
0.21800	1
0.22167	1
0.22533	0
0.22900	0
0.23267	0
0.23633	-0
0.24000	-0
0.24367	-1
0.24733	-1
0.25100	-1
0.25467	-2
0.25833	-2
0.26200	-2
0.26567	-2
0.26933	-3
0.27300	-3
0.27667	-2
0.28033	-2
0.28400	-2
0.28767	-2
0.29133	-2
0.29500	-2
0.29867	-2
0.30233	-2
0.30600	-2
0.30967	-2
0.31333	-2
0.31700	-2
0.32067	-2
0.32433	-2
0.32800	-2
0.33167	-2
0.33533	-2
0.33900	-2
0.34267	-2
0.34633	-2
0.35000	-2
0.35367	-2
0.35733	-2
0.36100	-2
0.36467	-2
0.36833	-1
0.37200	-1
0.37567	-1
0.37933	-1
0.38300	-1
0.38667	-0
0.39033	-0
0.39400	-0
0.39767	-0
0.40133	-0
0.40500	-0
0.40867	-1
0.41233	-1
0.41600	-1
0.41967	-1
0.42333	-1
0.42700	-1
0.43067	-1
0.43433	-0
0.43800	-0
0.44167	-0
0.44533	-0
0.44900	-0
0.45267	-1
0.45633	-1
0.46000	-1
0.46367	-1
0.46733	-1
0.47100	-1
0.47467	-1
0.47833	-1
0.48200	-1
0.48567	-1
0.48933	-1
0.49300	-1
0.49667	-2
0.50033	-2
0.50400	-2
0.50767	-1
0.51133	-2
0.51500	-2
0.51867	-2
0.52233	-2
0.52600	-2
0.52967	-1
0.53333	-1
0.53700	-2
0.54067	-2
0.54433	-2
0.54800	-2
0.55167	-1
0.55533	-1
0.55900	-1
0.56267	-1
0.56633	-0
0.57000	0
0.57367	1
0.57733	1
0.58100	1
0.58467	2
0.58833	2
0.59200	2
0.59567	2
0.59933	2
0.60300	2
0.60667	2
0.61033	2
0.61400	1
0.61767	1
0.62133	1
0.62500	1
0.62867	1
0.63233	1
0.63600	0
0.63967	-0
0.64333	-1
0.64700	-1
0.65067	-1
0.65433	-1
0.65800	-1
0.66167	-1
0.66533	-1
0.66900	-0
0.67267	-0
0.67633	-0
0.68000	-0
0.68367	-0
0.68733	-0
0.69100	-0
0.69467	-0
0.69833	-0
0.70200	-1
0.70567	-1
0.70933	-1
0.71300	-1
0.71667	-1
0.72033	-1
0.72400	-1
0.72767	-2
0.73133	-2
0.73500	-2
0.73867	-2
0.74233	-2
0.74600	-2
0.74967	-1
0.75333	-1
0.75700	-1
0.76067	-0
0.76433	-0
0.76800	-0
0.77167	-0
0.77533	-0
0.77900	-0
0.78267	-0
0.78633	-0
0.79000	-0
0.79367	-0
0.79733	-0
0.80100	-0
0.80467	-0
0.80833	-0
0.81200	-1
0.81567	-1
0.81933	-1
0.82300	-1
0.82667	-1
0.83033	-1
0.83400	-1
0.83767	-2
0.84133	-2
0.84500	-2
0.84867	-2
0.85233	-2
0.85600	-2
0.85967	-2
0.86333	-2
0.86700	-3
0.87067	-3
0.87433	-3
0.87800	-3
0.88167	-3
0.88533	-3
0.88900	-3
0.89267	-3
0.89633	-2
0.90000	-2
0.90367	-2
0.90733	-2
0.91100	-1
0.91467	-1
0.91833	-1
0.92200	-1
0.92567	-1
0.92933	-1
0.93300	-0
0.93667	-0
0.94033	-0
0.94400	-0
0.94767	-0
0.95133	-0
0.95500	-0
0.95867	-0
0.96233	-1
0.96600	-1
0.96967	-1
0.97333	-1
0.97700	-1
0.98067	-1
0.98433	-1
0.98800	-1
0.99167	-1
0.99533	-1
0.99900	-1
1.00267	-1
1.00633	-2
1.01000	-2
1.01367	-2
1.01733	-2
1.02100	-2
1.02467	-1
1.02833	-1
1.03200	-1
1.03567	-1
1.03933	-1
1.04300	-1
1.04667	-1
1.05033	-1
1.05400	-1
1.05767	-1
1.06133	-1
1.06500	-1
1.06867	-1
1.07233	-1
1.07600	-1
1.07967	-1
1.08333	-1
1.08700	-1
1.09067	-1
1.09433	-1
1.09800	-1
1.10167	-1
1.10533	-1
1.10900	-1
1.11267	-1
1.11633	-1
1.12000	-1
1.12367	-1
1.12733	-1
1.13100	-1
1.13467	-2
1.13833	-2
1.14200	-2
1.14567	-2
1.14933	-2
1.15300	-2
1.15667	-2
1.16033	-1
1.16400	-1
1.16767	-0
1.17133	-0
1.17500	-0
1.17867	-0
1.18233	-0
1.18600	-0
1.18967	-0
1.19333	-0
1.19700	0
1.20067	-0
1.20433	-0
1.20800	-0
1.21167	-0
1.21533	-0
1.21900	-0
1.22267	-0
1.22633	-0
1.23000	-0
1.23367	-0
1.23733	-0
1.24100	-1
1.24467	-1
1.24833	-1
1.25200	-1
1.25567	-1
1.25933	-1
1.26300	-1
1.26667	-1
1.27033	-1
1.27400	-2
1.27767	-2
1.28133	-2
1.28500	-2
1.28867	-2
1.29233	-2
1.29600	-2
1.29967	-2
1.30333	-2
1.30700	-2
1.31067	-2
1.31433	-2
1.31800	-2
1.32167	-2
1.32533	-2
1.32900	-2
1.33267	-3
1.33633	-3
1.34000	-2
1.34367	-2
1.34733	-2
1.35100	-2
1.35467	-3
1.35833	-3
1.36200	-3
1.36567	-3
1.36933	-3
1.37300	-3
1.37667	-3
1.38033	-3
1.38400	-2
1.38767	-2
1.39133	-2
1.39500	-1
1.39867	-1
1.40233	-0
1.40600	-0
1.40967	-0
1.41333	0
1.41700	0
1.42067	0
1.42433	0
1.42800	-0
1.43167	-0
1.43533	-0
1.43900	-0
1.44267	-0
1.44633	-0
1.45000	-0
1.45367	-0
1.45733	-0
1.46100	-0
1.46467	-0
1.46833	0
1.47200	0
1.47567	0
1.47933	0
1.48300	0
1.48667	-0
1.49033	-0
1.49400	-0
1.49767	-0
1.50133	-0
1.50500	-0
1.50867	-0
1.51233	0
1.51600	0
1.51967	0
1.52333	1
1.52700	1
1.53067	1
1.53433	0
1.53800	0
1.54167	0
1.54533	0
1.54900	-0
1.55267	-0
1.55633	-1
1.56000	-1
1.56367	-1
1.56733	-1
1.57100	-1
1.57467	-1
1.57833	-1
1.58200	-1
1.58567	-1
1.58933	-1
1.59300	-2
1.59667	-2
1.60033	-3
1.60400	-4
1.60767	-5
1.61133	-6
1.61500	-8
1.61867	-10
1.62233	-13
1.62600	-16
1.62967	-19
1.63333	-22
1.63700	-25
1.64067	-29
1.64433	-32
1.64800	-36
1.65167	-39
1.65533	-43
1.65900	-47
1.66267	-51
1.66633	-55
1.67000	-60
1.67367	-65
1.67733	-70
1.68100	-75
1.68467	-80
1.68833	-85
1.69200	-89
1.69567	-93
1.69933	-96
1.70300	-99
1.70667	-101
1.71033	-103
1.71400	-104
1.71767	-105
1.72133	-106
1.72500	-106
1.72867	-107
1.73233	-107
1.73600	-106
1.73967	-106
1.74333	-106
1.74700	-106
1.75067	-106
1.75433	-106
1.75800	-106
1.76167	-107
1.76533	-108
1.76900	-109
1.77267	-110
1.77633	-111
1.78000	-113
1.78367	-114
1.78733	-115
1.79100	-116
1.79467	-116
1.79833	-117
1.80200	-117
1.80567	-117
1.80933	-117
1.81300	-117
1.81667	-118
1.82033	-118
1.82400	-117
1.82767	-117
1.83133	-117
1.83500	-117
1.83867	-117
1.84233	-117
1.84600	-117
1.84967	-117
1.85333	-117
1.85700	-117
1.86067	-117
1.86433	-118
1.86800	-118
1.87167	-117
1.87533	-117
1.87900	-117
1.88267	-117
1.88633	-117
1.89000	-117
1.89367	-117
1.89733	-116
1.90100	-116
1.90467	-116
1.90833	-116
1.91200	-116
1.91567	-116
1.91933	-116
1.92300	-117
1.92667	-117
1.93033	-117
1.93400	-117
1.93767	-116
1.94133	-116
1.94500	-116
1.94867	-115
1.95233	-115
1.95600	-115
1.95967	-114
1.96333	-114
1.96700	-113
1.97067	-112
1.97433	-112
1.97800	-112
1.98167	-111
1.98533	-111
1.98900	-110
1.99267	-110
1.99633	-110
2.00000	-109
2.00367	-109
2.00733	-109
2.01100	-108
2.01467	-108
2.01833	-108
2.02200	-107
2.02567	-107
2.02933	-107
2.03300	-107
2.03667	-107
2.04033	-107
2.04400	-107
2.04767	-107
2.05133	-106
2.05500	-106
2.05867	-105
2.06233	-105
2.06600	-105
2.06967	-104
2.07333	-104
2.07700	-103
2.08067	-103
2.08433	-103
2.08800	-103
2.09167	-103
2.09533	-103
2.09900	-102
2.10267	-102
2.10633	-102
2.11000	-101
2.11367	-101
2.11733	-101
2.12100	-101
2.12467	-100
2.12833	-100
2.13200	-100
2.13567	-100
2.13933	-100
2.14300	-100
2.14667	-99
2.15033	-99
2.15400	-99
2.15767	-98
2.16133	-98
2.16500	-97
2.16867	-97
2.17233	-96
2.17600	-95
2.17967	-95
2.18333	-95
2.18700	-94
2.19067	-94
2.19433	-94
2.19800	-93
2.20167	-93
2.20533	-93
2.20900	-93
2.21267	-93
2.21633	-93
2.22000	-93
2.22367	-93
2.22733	-93
2.23100	-92
2.23467	-92
2.23833	-91
2.24200	-91
2.24567	-90
2.24933	-90
2.25300	-90
2.25667	-89
2.26033	-88
2.26400	-88
2.26767	-87
2.27133	-87
2.27500	-86
2.27867	-86
2.28233	-86
2.28600	-87
2.28967	-87
2.29333	-87
2.29700	-87
2.30067	-86
2.30433	-86
2.30800	-85
2.31167	-85
2.31533	-84
2.31900	-83
2.32267	-83
2.32633	-82
2.33000	-81
2.33367	-80
2.33733	-79
2.34100	-79
2.34467	-78
2.34833	-77
2.35200	-76
2.35567	-75
2.35933	-74
2.36300	-72
2.36667	-70
2.37033	-68
2.37400	-66
2.37767	-64
2.38133	-61
2.38500	-58
2.38867	-55
2.39233	-51
2.39600	-48
2.39967	-44
2.40333	-41
2.40700	-37
2.41067	-34
2.41433	-31
2.41800	-28
2.42167	-25
2.42533	-23
2.42900	-20
2.43267	-17
2.43633	-15
2.44000	-12
2.44367	-10
2.44733	-8
2.45100	-7
2.45467	-5
2.45833	-4
2.46200	-3
2.46567	-2
2.46933	-1
2.47300	0
2.47667	1
2.48033	3
2.48400	4
2.48767	5
2.49133	6
2.49500	7
2.49867	8
2.50233	8
2.50600	9
2.50967	10
2.51333	10
2.51700	11
2.52067	11
2.52433	11
2.52800	12
2.53167	13
2.53533	13
2.53900	13
2.54267	14
2.54633	14
2.55000	15
2.55367	15
2.55733	15
2.56100	15
2.56467	15
2.56833	16
2.57200	16
2.57567	17
2.57933	17
2.58300	17
2.58667	17
2.59033	17
2.59400	17
2.59767	17
2.60133	17
2.60500	17
2.60867	18
2.61233	18
2.61600	18
2.61967	18
2.62333	19
2.62700	19
2.63067	20
2.63433	20
2.63800	20
2.64167	20
2.64533	20
2.64900	21
2.65267	21
2.65633	21
2.66000	21
2.66367	21
2.66733	22
2.67100	22
2.67467	22
2.67833	23
2.68200	23
2.68567	23
2.68933	23
2.69300	24
2.69667	24
2.70033	25
2.70400	25
2.70767	26
2.71133	26
2.71500	26
2.71867	27
2.72233	27
2.72600	26
2.72967	26
2.73333	26
2.73700	25
2.74067	25
2.74433	25
2.74800	25
2.75167	25
2.75533	26
2.75900	26
2.76267	26
2.76633	27
2.77000	27
2.77367	27
2.77733	28
2.78100	28
2.78467	29
2.78833	29
2.79200	30
2.79567	30
2.79933	30
2.80300	30
2.80667	29
2.81033	29
2.81400	28
2.81767	28
2.82133	28
2.82500	27
2.82867	27
2.83233	27
2.83600	27
2.83967	27
2.84333	27
2.84700	27
2.85067	27
2.85433	27
2.85800	27
2.86167	25
2.86533	23
2.86900	19
2.87267	13
2.87633	4
2.88000	-9
2.88367	-25
2.88733	-45
2.89100	-70
2.89467	-98
2.89833	-130
2.90200	-166
2.90567	-205
2.90933	-247
2.91300	-292
2.91667	-339
2.92033	-388
2.92400	-438
2.92767	-489
2.93133	-540
2.93500	-592
2.93867	-643
2.94233	-695
2.94600	-746
2.94967	-796
2.95333	-847
2.95700	-902
2.96067	-962
2.96433	-1024
2.96800	-1076
2.97167	-1109
2.97533	-1116
2.97900	-1096
2.98267	-1053
2.98633	-992
2.99000	-919
2.99367	-839
2.99733	-757
3.00100	-676
3.00467	-599
3.00833	-526
3.01200	-460
3.01567	-399
3.01933	-345
3.02300	-296
3.02667	-254
3.03033	-217
3.03400	-184
3.03767	-156
3.04133	-131
3.04500	-110
3.04867	-92
3.05233	-77
3.05600	-64
3.05967	-52
3.06333	-43
3.06700	-34
3.07067	-27
3.07433	-21
3.07800	-15
3.08167	-11
3.08533	-7
3.08900	-3
3.09267	-0
3.09633	2
3.10000	5
3.10367	7
3.10733	8
3.11100	10
3.11467	11
3.11833	12
3.12200	13
3.12567	14
3.12933	15
3.13300	15
3.13667	16
3.14033	16
3.14400	17
3.14767	17
3.15133	18
3.15500	18
3.15867	19
3.16233	19
3.16600	19
3.16967	20
3.17333	20
3.17700	21
3.18067	21
3.18433	21
3.18800	21
3.19167	21
3.19533	22
3.19900	22
3.20267	22
3.20633	22
3.21000	22
3.21367	23
3.21733	23
3.22100	23
3.22467	23
3.22833	23
3.23200	23
3.23567	23
3.23933	23
3.24300	24
3.24667	24
3.25033	24
3.25400	24
3.25767	24
3.26133	25
3.26500	25
3.26867	25
3.27233	25
3.27600	25
3.27967	25
3.28333	25
3.28700	25
3.29067	26
3.29433	26
3.29800	26
3.30167	26
3.30533	26
3.30900	26
3.31267	26
3.31633	26
3.32000	26
3.32367	27
3.32733	27
3.33100	27
3.33467	27
3.33833	27
3.34200	27
3.34567	27
3.34933	27
3.35300	27
3.35667	27
3.36033	27
3.36400	27
3.36767	27
3.37133	28
3.37500	28
3.37867	28
3.38233	28
3.38600	28
3.38967	28
3.39333	28
3.39700	29
3.40067	29
3.40433	29
3.40800	30
3.41167	30
3.41533	30
3.41900	30
3.42267	30
3.42633	31
3.43000	31
3.43367	31
3.43733	31
3.44100	31
3.44467	31
3.44833	32
3.45200	32
3.45567	32
3.45933	32
3.46300	32
3.46667	32
3.47033	32
3.47400	32
3.47767	32
3.48133	32
3.48500	32
3.48867	32
3.49233	32
3.49600	32
3.49967	32
3.50333	32
3.50700	31
3.51067	31
3.51433	31
3.51800	31
3.52167	31
3.52533	31
3.52900	31
3.53267	31
3.53633	31
3.54000	31
3.54367	31
3.54733	32
3.55100	32
3.55467	32
3.55833	32
3.56200	32
3.56567	32
3.56933	32
3.57300	32
3.57667	31
3.58033	31
3.58400	31
3.58767	30
3.59133	30
3.59500	30
3.59867	30
3.60233	30
3.60600	30
3.60967	30
3.61333	30
3.61700	30
3.62067	29
3.62433	29
3.62800	29
3.63167	29
3.63533	29
3.63900	29
3.64267	29
3.64633	29
3.65000	29
3.65367	30
3.65733	30
3.66100	30
3.66467	30
3.66833	30
3.67200	30
3.67567	30
3.67933	30
3.68300	30
3.68667	30
3.69033	30
3.69400	30
3.69767	30
3.70133	30
3.70500	30
3.70867	29
3.71233	29
3.71600	29
3.71967	29
3.72333	29
3.72700	29
3.73067	29
3.73433	28
3.73800	28
3.74167	28
3.74533	28
3.74900	28
3.75267	28
3.75633	28
3.76000	28
3.76367	28
3.76733	28
3.77100	28
3.77467	28
3.77833	28
3.78200	28
3.78567	28
3.78933	28
3.79300	28
3.79667	28
3.80033	28
3.80400	28
3.80767	28
3.81133	28
3.81500	28
3.81867	28
3.82233	29
3.82600	29
3.82967	29
3.83333	29
3.83700	29
3.84067	29
3.84433	29
3.84800	29
3.85167	29
3.85533	29
3.85900	29
3.86267	29
3.86633	29
3.87000	30
3.87367	30
3.87733	30
3.88100	30
3.88467	30
3.88833	30
3.89200	30
3.89567	30
3.89933	30
3.90300	30
3.90667	29
3.91033	29
3.91400	30
3.91767	30
3.92133	29
3.92500	29
3.92867	29
3.93233	29
3.93600	29
3.93967	29
3.94333	29
3.94700	29
3.95067	29
3.95433	29
3.95800	29
3.96167	29
3.96533	30
3.96900	30
3.97267	30
3.97633	29
3.98000	29
3.98367	29
3.98733	29
3.99100	29
3.99467	29
3.99833	29

[Chromatogram (Ch3)]
Interval(msec)	220
# of Points	1091
Start Time(min)	0.002
End Time(min)	3.998
R.Time (min)	Intensity
0.00167	0
0.00533	-1
0.00900	-1
0.01267	-2
0.01633	-3
0.02000	-3
0.02367	-1
0.02733	1
0.03100	3
0.03467	5
0.03833	6
0.04200	3
0.04567	-0
0.04933	-2
0.05300	-4
0.05667	-2
0.06033	-2
0.06400	-3
0.06767	-2
0.07133	0
0.07500	1
0.07867	3
0.08233	5
0.08600	5
0.08967	3
0.09333	1
0.09700	-0
0.10067	0
0.10433	1
0.10800	2
0.11167	2
0.11533	0
0.11900	-0
0.12267	0
0.12633	1
0.13000	2
0.13367	1
0.13733	2
0.14100	2
0.14467	2
0.14833	3
0.15200	3
0.15567	2
0.15933	1
0.16300	-1
0.16667	-1
0.17033	0
0.17400	-1
0.17767	-1
0.18133	-0
0.18500	2
0.18867	3
0.19233	3
0.19600	2
0.19967	3
0.20333	2
0.20700	0
0.21067	-1
0.21433	-1
0.21800	0
0.22167	-0
0.22533	-1
0.22900	-0
0.23267	2
0.23633	3
0.24000	5
0.24367	6
0.24733	5
0.25100	4
0.25467	1
0.25833	-0
0.26200	2
0.26567	4
0.26933	7
0.27300	9
0.27667	9
0.28033	7
0.28400	6
0.28767	4
0.29133	2
0.29500	0
0.29867	-1
0.30233	-2
0.30600	-1
0.30967	2
0.31333	1
0.31700	-2
0.32067	-3
0.32433	-3
0.32800	-3
0.33167	-3
0.33533	-2
0.33900	0
0.34267	3
0.34633	3
0.35000	1
0.35367	2
0.35733	3
0.36100	4
0.36467	4
0.36833	4
0.37200	4
0.37567	3
0.37933	3
0.38300	5
0.38667	5
0.39033	5
0.39400	3
0.39767	1
0.40133	1
0.40500	1
0.40867	2
0.41233	1
0.41600	1
0.41967	0
0.42333	0
0.42700	-1
0.43067	-4
0.43433	-3
0.43800	-3
0.44167	-1
0.44533	-0
0.44900	-1
0.45267	-3
0.45633	-2
0.46000	1
0.46367	2
0.46733	2
0.47100	1
0.47467	-1
0.47833	-3
0.48200	-4
0.48567	-4
0.48933	-4
0.49300	-3
0.49667	-1
0.50033	-1
0.50400	0
0.50767	2
0.51133	4
0.51500	4
0.51867	2
0.52233	-1
0.52600	-1
0.52967	-0
0.53333	-1
0.53700	-1
0.54067	-1
0.54433	-1
0.54800	-1
0.55167	0
0.55533	1
0.55900	2
0.56267	2
0.56633	2
0.57000	1
0.57367	-0
0.57733	-1
0.58100	-2
0.58467	-4
0.58833	-4
0.59200	-4
0.59567	-5
0.59933	-5
0.60300	-3
0.60667	1
0.61033	2
0.61400	3
0.61767	3
0.62133	2
0.62500	1
0.62867	1
0.63233	1
0.63600	3
0.63967	5
0.64333	7
0.64700	6
0.65067	3
0.65433	-1
0.65800	-2
0.66167	2
0.66533	3
0.66900	3
0.67267	2
0.67633	0
0.68000	-0
0.68367	0
0.68733	-1
0.69100	-2
0.69467	-5
0.69833	-5
0.70200	-6
0.70567	-6
0.70933	-6
0.71300	-7
0.71667	-8
0.72033	-6
0.72400	-2
0.72767	1
0.73133	2
0.73500	3
0.73867	1
0.74233	-3
0.74600	-5
0.74967	-6
0.75333	-5
0.75700	-5
0.76067	-6
0.76433	-5
0.76800	-3
0.77167	-2
0.77533	1
0.77900	3
0.78267	3
0.78633	3
0.79000	2
0.79367	1
0.79733	-0
0.80100	-0
0.80467	-0
0.80833	0
0.81200	-1
0.81567	-3
0.81933	-2
0.82300	-1
0.82667	0
0.83033	1
0.83400	3
0.83767	4
0.84133	4
0.84500	5
0.84867	5
0.85233	5
0.85600	3
0.85967	1
0.86333	2
0.86700	0
0.87067	0
0.87433	3
0.87800	3
0.88167	3
0.88533	4
0.88900	4
0.89267	2
0.89633	2
0.90000	1
0.90367	1
0.90733	2
0.91100	2
0.91467	4
0.91833	4
0.92200	3
0.92567	3
0.92933	6
0.93300	6
0.93667	4
0.94033	3
0.94400	3
0.94767	4
0.95133	2
0.95500	-0
0.95867	0
0.96233	0
0.96600	-0
0.96967	-1
0.97333	-2
0.97700	-2
0.98067	-1
0.98433	1
0.98800	3
0.99167	3
0.99533	3
0.99900	5
1.00267	6
1.00633	3
1.01000	3
1.01367	1
1.01733	0
1.02100	-0
1.02467	-2
1.02833	-0
1.03200	2
1.03567	5
1.03933	7
1.04300	6
1.04667	5
1.05033	2
1.05400	1
1.05767	3
1.06133	6
1.06500	6
1.06867	5
1.07233	3
1.07600	1
1.07967	-3
1.08333	-2
1.08700	0
1.09067	1
1.09433	0
1.09800	-2
1.10167	-3
1.10533	-3
1.10900	-2
1.11267	0
1.11633	2
1.12000	1
1.12367	0
1.12733	-0
1.13100	-1
1.13467	1
1.13833	3
1.14200	5
1.14567	5
1.14933	3
1.15300	2
1.15667	0
1.16033	1
1.16400	2
1.16767	3
1.17133	4
1.17500	6
1.17867	8
1.18233	6
1.18600	4
1.18967	4
1.19333	8
1.19700	8
1.20067	6
1.20433	3
1.20800	3
1.21167	4
1.21533	4
1.21900	1
1.22267	1
1.22633	3
1.23000	2
1.23367	1
1.23733	-0
1.24100	1
1.24467	4
1.24833	5
1.25200	4
1.25567	5
1.25933	7
1.26300	9
1.26667	8
1.27033	7
1.27400	7
1.27767	9
1.28133	7
1.28500	5
1.28867	3
1.29233	0
1.29600	1
1.29967	4
1.30333	6
1.30700	7
1.31067	8
1.31433	6
1.31800	6
1.32167	7
1.32533	7
1.32900	7
1.33267	7
1.33633	5
1.34000	6
1.34367	6
1.34733	8
1.35100	9
1.35467	6
1.35833	2
1.36200	3
1.36567	4
1.36933	6
1.37300	7
1.37667	7
1.38033	7
1.38400	7
1.38767	8
1.39133	8
1.39500	7
1.39867	9
1.40233	10
1.40600	10
1.40967	8
1.41333	7
1.41700	6
1.42067	4
1.42433	1
1.42800	-4
1.43167	-7
1.43533	-7
1.43900	-6
1.44267	-2
1.44633	1
1.45000	5
1.45367	6
1.45733	7
1.46100	7
1.46467	5
1.46833	5
1.47200	6
1.47567	6
1.47933	7
1.48300	7
1.48667	5
1.49033	4
1.49400	4
1.49767	7
1.50133	8
1.50500	8
1.50867	7
1.51233	5
1.51600	2
1.51967	2
1.52333	3
1.52700	3
1.53067	3
1.53433	3
1.53800	3
1.54167	2
1.54533	4
1.54900	5
1.55267	4
1.55633	5
1.56000	8
1.56367	9
1.56733	10
1.57100	11
1.57467	10
1.57833	10
1.58200	9
1.58567	8
1.58933	8
1.59300	6
1.59667	8
1.60033	9
1.60400	10
1.60767	9
1.61133	8
1.61500	8
1.61867	7
1.62233	7
1.62600	6
1.62967	7
1.63333	7
1.63700	5
1.64067	8
1.64433	10
1.64800	11
1.65167	10
1.65533	9
1.65900	10
1.66267	11
1.66633	13
1.67000	13
1.67367	13
1.67733	14
1.68100	17
1.68467	20
1.68833	22
1.69200	24
1.69567	23
1.69933	23
1.70300	24
1.70667	24
1.71033	23
1.71400	23
1.71767	24
1.72133	25
1.72500	23
1.72867	22
1.73233	23
1.73600	24
1.73967	24
1.74333	22
1.74700	20
1.75067	20
1.75433	20
1.75800	22
1.76167	24
1.76533	24
1.76900	24
1.77267	23
1.77633	25
1.78000	25
1.78367	27
1.78733	25
1.79100	27
1.79467	31
1.79833	33
1.80200	33
1.80567	32
1.80933	32
1.81300	35
1.81667	36
1.82033	37
1.82400	36
1.82767	34
1.83133	34
1.83500	35
1.83867	37
1.84233	38
1.84600	38
1.84967	36
1.85333	36
1.85700	38
1.86067	38
1.86433	38
1.86800	38
1.87167	39
1.87533	39
1.87900	40
1.88267	40
1.88633	41
1.89000	42
1.89367	43
1.89733	43
1.90100	42
1.90467	41
1.90833	43
1.91200	46
1.91567	49
1.91933	51
1.92300	52
1.92667	51
1.93033	50
1.93400	48
1.93767	50
1.94133	51
1.94500	51
1.94867	53
1.95233	53
1.95600	53
1.95967	54
1.96333	57
1.96700	58
1.97067	58
1.97433	60
1.97800	61
1.98167	59
1.98533	58
1.98900	58
1.99267	58
1.99633	57
2.00000	59
2.00367	63
2.00733	66
2.01100	69
2.01467	71
2.01833	74
2.02200	74
2.02567	72
2.02933	72
2.03300	74
2.03667	77
2.04033	79
2.04400	77
2.04767	76
2.05133	76
2.05500	76
2.05867	77
2.06233	77
2.06600	77
2.06967	79
2.07333	82
2.07700	83
2.08067	82
2.08433	83
2.08800	82
2.09167	82
2.09533	83
2.09900	87
2.10267	91
2.10633	95
2.11000	96
2.11367	96
2.11733	98
2.12100	98
2.12467	99
2.12833	99
2.13200	98
2.13567	100
2.13933	102
2.14300	106
2.14667	109
2.15033	108
2.15400	109
2.15767	109
2.16133	111
2.16500	114
2.16867	115
2.17233	116
2.17600	118
2.17967	119
2.18333	122
2.18700	124
2.19067	127
2.19433	128
2.19800	125
2.20167	124
2.20533	125
2.20900	126
2.21267	127
2.21633	128
2.22000	131
2.22367	134
2.22733	137
2.23100	139
2.23467	139
2.23833	142
2.24200	144
2.24567	146
2.24933	148
2.25300	148
2.25667	148
2.26033	149
2.26400	150
2.26767	152
2.27133	153
2.27500	156
2.27867	159
2.28233	162
2.28600	164
2.28967	166
2.29333	168
2.29700	170
2.30067	173
2.30433	174
2.30800	177
2.31167	180
2.31533	180
2.31900	180
2.32267	182
2.32633	186
2.33000	189
2.33367	190
2.33733	191
2.34100	191
2.34467	192
2.34833	193
2.35200	194
2.35567	194
2.35933	197
2.36300	200
2.36667	203
2.37033	204
2.37400	205
2.37767	206
2.38133	205
2.38500	204
2.38867	204
2.39233	205
2.39600	208
2.39967	210
2.40333	214
2.40700	218
2.41067	221
2.41433	224
2.41800	228
2.42167	232
2.42533	236
2.42900	240
2.43267	241
2.43633	243
2.44000	246
2.44367	267
2.44733	321
2.45100	381
2.45467	421
2.45833	432
2.46200	422
2.46567	409
2.46933	398
2.47300	384
2.47667	365
2.48033	338
2.48400	311
2.48767	288
2.49133	275
2.49500	268
2.49867	266
2.50233	268
2.50600	273
2.50967	278
2.51333	283
2.51700	283
2.52067	276
2.52433	265
2.52800	253
2.53167	243
2.53533	233
2.53900	224
2.54267	218
2.54633	211
2.55000	207
2.55367	208
2.55733	211
2.56100	215
2.56467	220
2.56833	222
2.57200	228
2.57567	234
2.57933	240
2.58300	247
2.58667	256
2.59033	263
2.59400	269
2.59767	273
2.60133	279
2.60500	282
2.60867	281
2.61233	271
2.61600	256
2.61967	239
2.62333	219
2.62700	192
2.63067	162
2.63433	128
2.63800	95
2.64167	67
2.64533	43
2.64900	22
2.65267	7
2.65633	-3
2.66000	-5
2.66367	-4
2.66733	-3
2.67100	-0
2.67467	6
2.67833	14
2.68200	21
2.68567	31
2.68933	39
2.69300	46
2.69667	56
2.70033	67
2.70400	75
2.70767	85
2.71133	93
2.71500	102
2.71867	110
2.72233	118
2.72600	126
2.72967	135
2.73333	144
2.73700	152
2.74067	159
2.74433	163
2.74800	168
2.75167	174
2.75533	181
2.75900	189
2.76267	195
2.76633	203
2.77000	211
2.77367	216
2.77733	219
2.78100	221
2.78467	227
2.78833	232
2.79200	236
2.79567	241
2.79933	246
2.80300	250
2.80667	256
2.81033	261
2.81400	263
2.81767	265
2.82133	265
2.82500	265
2.82867	265
2.83233	269
2.83600	280
2.83967	305
2.84333	357
2.84700	455
2.85067	629
2.85433	905
2.85800	1300
2.86167	1821
2.86533	2448
2.86900	3142
2.87267	3852
2.87633	4522
2.88000	5099
2.88367	5536
2.88733	5807
2.89100	5906
2.89467	5846
2.89833	5654
2.90200	5359
2.90567	4998
2.90933	4599
2.91300	4184
2.91667	3773
2.92033	3379
2.92400	3011
2.92767	2673
2.93133	2367
2.93500	2095
2.93867	1855
2.94233	1642
2.94600	1455
2.94967	1292
2.95333	1148
2.95700	1024
2.96067	915
2.96433	822
2.96800	745
2.97167	679
2.97533	619
2.97900	568
2.98267	525
2.98633	487
2.99000	451
2.99367	423
2.99733	398
3.00100	380
3.00467	367
3.00833	352
3.01200	336
3.01567	323
3.01933	314
3.02300	306
3.02667	298
3.03033	291
3.03400	286
3.03767	282
3.04133	280
3.04500	278
3.04867	274
3.05233	270
3.05600	267
3.05967	265
3.06333	267
3.06700	267
3.07067	263
3.07433	259
3.07800	256
3.08167	254
3.08533	254
3.08900	253
3.09267	254
3.09633	254
3.10000	252
3.10367	251
3.10733	248
3.11100	244
3.11467	241
3.11833	241
3.12200	242
3.12567	243
3.12933	244
3.13300	248
3.13667	250
3.14033	248
3.14400	245
3.14767	244
3.15133	242
3.15500	243
3.15867	243
3.16233	245
3.16600	249
3.16967	253
3.17333	254
3.17700	252
3.18067	250
3.18433	247
3.18800	245
3.19167	243
3.19533	243
3.19900	243
3.20267	244
3.20633	245
3.21000	246
3.21367	247
3.21733	248
3.22100	247
3.22467	245
3.22833	244
3.23200	245
3.23567	247
3.23933	247
3.24300	248
3.24667	247
3.25033	245
3.25400	244
3.25767	242
3.26133	243
3.26500	244
3.26867	243
3.27233	242
3.27600	240
3.27967	234
3.28333	229
3.28700	227
3.29067	228
3.29433	227
3.29800	226
3.30167	225
3.30533	224
3.30900	220
3.31267	215
3.31633	212
3.32000	211
3.32367	207
3.32733	203
3.33100	200
3.33467	198
3.33833	197
3.34200	194
3.34567	193
3.34933	189
3.35300	186
3.35667	184
3.36033	181
3.36400	178
3.36767	175
3.37133	172
3.37500	169
3.37867	165
3.38233	162
3.38600	160
3.38967	159
3.39333	155
3.39700	149
3.40067	146
3.40433	145
3.40800	142
3.41167	140
3.41533	138
3.41900	134
3.42267	130
3.42633	125
3.43000	121
3.43367	118
3.43733	118
3.44100	119
3.44467	119
3.44833	117
3.45200	116
3.45567	115
3.45933	114
3.46300	110
3.46667	105
3.47033	103
3.47400	100
3.47767	100
3.48133	100
3.48500	98
3.48867	96
3.49233	94
3.49600	90
3.49967	89
3.50333	89
3.50700	87
3.51067	85
3.51433	81
3.51800	77
3.52167	75
3.52533	74
3.52900	75
3.53267	75
3.53633	72
3.54000	72
3.54367	73
3.54733	71
3.55100	69
3.55467	67
3.55833	65
3.56200	63
3.56567	62
3.56933	63
3.57300	63
3.57667	62
3.58033	63
3.58400	64
3.58767	65
3.59133	66
3.59500	64
3.59867	60
3.60233	59
3.60600	60
3.60967	61
3.61333	61
3.61700	61
3.62067	60
3.62433	60
3.62800	59
3.63167	58
3.63533	55
3.63900	54
3.64267	54
3.64633	54
3.65000	53
3.65367	54
3.65733	53
3.66100	49
3.66467	47
3.66833	46
3.67200	46
3.67567	47
3.67933	46
3.68300	45
3.68667	44
3.69033	44
3.69400	44
3.69767	42
3.70133	42
3.70500	44
3.70867	44
3.71233	44
3.71600	43
3.71967	41
3.72333	39
3.72700	37
3.73067	35
3.73433	36
3.73800	36
3.74167	36
3.74533	35
3.74900	36
3.75267	37
3.75633	37
3.76000	38
3.76367	37
3.76733	35
3.77100	32
3.77467	29
3.77833	30
3.78200	31
3.78567	30
3.78933	30
3.79300	30
3.79667	31
3.80033	33
3.80400	31
3.80767	32
3.81133	35
3.81500	38
3.81867	39
3.82233	35
3.82600	33
3.82967	33
3.83333	33
3.83700	33
3.84067	32
3.84433	30
3.84800	29
3.85167	28
3.85533	27
3.85900	30
3.86267	31
3.86633	30
3.87000	29
3.87367	27
3.87733	25
3.88100	23
3.88467	24
3.88833	26
3.89200	28
3.89567	30
3.89933	31
3.90300	31
3.90667	32
3.91033	29
3.91400	28
3.91767	27
3.92133	27
3.92500	28
3.92867	28
3.93233	27
3.93600	28
3.93967	28
3.94333	27
3.94700	26
3.95067	27
3.95433	26
3.95800	27
3.96167	28
3.96533	28
3.96900	28
3.97267	26
3.97633	25
3.98000	25
3.98367	25
3.98733	27
3.99100	28
3.99467	29
3.99833	30

[Status Trace (Column Oven Temperature)]
Interval(msec)	1000
# of Points	240
Start Time(min)	0.001
End Time(min)	3.984
Intensity Units	
Intensity Multiplier	1
R.Time (min)	Intensity
0.00070	34.99
0.01737	35.00
0.03403	35.00
0.05070	35.01
0.06737	35.02
0.08403	35.03
0.10070	35.02
0.11737	35.02
0.13403	35.02
0.15070	35.01
0.16737	35.00
0.18403	35.00
0.20070	34.99
0.21737	34.98
0.23403	34.98
0.25070	34.98
0.26737	34.98
0.28403	34.99
0.30070	34.99
0.31737	35.00
0.33403	35.01
0.35070	35.02
0.36737	35.02
0.38403	35.01
0.40070	35.01
0.41737	35.00
0.43403	34.99
0.45070	35.00
0.46737	35.00
0.48403	35.01
0.50070	35.01
0.51737	35.02
0.53403	35.01
0.55070	35.01
0.56737	35.00
0.58403	34.99
0.60070	34.98
0.61737	34.98
0.63403	34.98
0.65070	34.98
0.66737	35.00
0.68403	35.01
0.70070	35.00
0.71737	35.01
0.73403	35.00
0.75070	35.00
0.76737	34.99
0.78403	34.98
0.80070	34.98
0.81737	34.99
0.83403	34.99
0.85070	35.00
0.86737	35.01
0.88403	35.00
0.90070	35.00
0.91737	34.99
0.93403	34.99
0.95070	34.99
0.96737	34.99
0.98403	34.99
1.00070	34.99
1.01737	34.99
1.03403	35.00
1.05070	35.00
1.06737	35.00
1.08403	35.00
1.10070	35.00
1.11737	35.00
1.13403	35.00
1.15070	34.99
1.16737	35.00
1.18403	34.99
1.20070	34.99
1.21737	34.99
1.23403	34.99
1.25070	34.99
1.26737	34.99
1.28403	35.00
1.30070	34.99
1.31737	34.99
1.33403	34.99
1.35070	35.01
1.36737	35.01
1.38403	35.02
1.40070	35.01
1.41737	35.00
1.43403	35.00
1.45070	35.00
1.46737	34.99
1.48403	34.99
1.50070	35.00
1.51737	34.99
1.53403	34.99
1.55070	34.99
1.56737	34.99
1.58403	35.00
1.60070	35.03
1.61737	35.12
1.63403	35.28
1.65070	35.50
1.66737	35.81
1.68403	36.19
1.70070	36.55
1.71737	36.88
1.73403	37.20
1.75070	37.51
1.76737	37.85
1.78403	38.18
1.80070	38.52
1.81737	38.84
1.83403	39.18
1.85070	39.50
1.86737	39.83
1.88403	40.16
1.90070	40.48
1.91737	40.82
1.93403	41.15
1.95070	41.47
1.96737	41.80
1.98403	42.11
2.00070	42.45
2.01737	42.77
2.03403	43.10
2.05070	43.43
2.06737	43.76
2.08403	44.09
2.10070	44.41
2.11737	44.74
2.13403	45.07
2.15070	45.41
2.16737	45.73
2.18403	46.06
2.20070	46.39
2.21737	46.71
2.23403	47.04
2.25070	47.35
2.26737	47.68
2.28403	48.03
2.30070	48.37
2.31737	48.69
2.33403	49.02
2.35070	49.31
2.36737	49.52
2.38403	49.60
2.40070	49.60
2.41737	49.62
2.43403	49.61
2.45070	49.64
2.46737	49.67
2.48403	49.68
2.50070	49.70
2.51737	49.71
2.53403	49.72
2.55070	49.74
2.56737	49.76
2.58403	49.78
2.60070	49.78
2.61737	49.79
2.63403	49.82
2.65070	49.83
2.66737	49.84
2.68403	49.85
2.70070	49.85
2.71737	49.85
2.73403	49.87
2.75070	49.86
2.76737	49.86
2.78403	49.85
2.80070	49.86
2.81737	49.88
2.83403	49.89
2.85070	49.90
2.86737	49.88
2.88403	49.89
2.90070	49.89
2.91737	49.89
2.93403	49.90
2.95070	49.92
2.96737	49.94
2.98403	49.96
3.00070	49.97
3.01737	49.98
3.03403	50.00
3.05070	50.01
3.06737	50.02
3.08403	50.03
3.10070	50.03
3.11737	50.04
3.13403	50.04
3.15070	50.04
3.16737	50.05
3.18403	50.06
3.20070	50.06
3.21737	50.07
3.23403	50.08
3.25070	50.09
3.26737	50.09
3.28403	50.09
3.30070	50.09
3.31737	50.09
3.33403	50.10
3.35070	50.11
3.36737	50.12
3.38403	50.12
3.40070	50.11
3.41737	50.09
3.43403	50.08
3.45070	50.07
3.46737	50.05
3.48403	50.05
3.50070	50.04
3.51737	50.03
3.53403	50.02
3.55070	50.02
3.56737	50.02
3.58403	50.02
3.60070	50.02
3.61737	50.02
3.63403	50.03
3.65070	50.03
3.66737	50.03
3.68403	50.03
3.70070	50.04
3.71737	50.04
3.73403	50.03
3.75070	50.04
3.76737	50.06
3.78403	50.05
3.80070	50.06
3.81737	50.05
3.83403	50.06
3.85070	50.05
3.86737	50.04
3.88403	50.04
3.90070	50.04
3.91737	50.05
3.93403	50.06
3.95070	50.06
3.96737	50.07
3.98403	50.07

[Status Trace (Injection Unit Temperature)]
Interval(msec)	1000
# of Points	240
Start Time(min)	0.001
End Time(min)	3.984
Intensity Units	
Intensity Multiplier	1
R.Time (min)	Intensity
0.00070	99.99
0.01737	100.00
0.03403	99.99
0.05070	99.99
0.06737	99.99
0.08403	99.99
0.10070	100.00
0.11737	99.99
0.13403	99.99
0.15070	99.99
0.16737	99.99
0.18403	99.99
0.20070	99.99
0.21737	99.99
0.23403	99.99
0.25070	99.99
0.26737	99.99
0.28403	99.99
0.30070	99.99
0.31737	99.99
0.33403	99.99
0.35070	99.99
0.36737	99.99
0.38403	99.99
0.40070	99.99
0.41737	99.99
0.43403	99.99
0.45070	99.99
0.46737	99.99
0.48403	99.99
0.50070	99.99
0.51737	99.99
0.53403	99.99
0.55070	99.99
0.56737	99.99
0.58403	99.99
0.60070	99.99
0.61737	99.99
0.63403	99.99
0.65070	99.99
0.66737	99.99
0.68403	100.00
0.70070	100.00
0.71737	100.00
0.73403	100.00
0.75070	99.99
0.76737	100.00
0.78403	100.00
0.80070	100.00
0.81737	100.00
0.83403	100.00
0.85070	99.99
0.86737	100.00
0.88403	99.99
0.90070	100.00
0.91737	100.00
0.93403	100.00
0.95070	100.00
0.96737	100.00
0.98403	100.00
1.00070	100.00
1.01737	100.00
1.03403	100.00
1.05070	100.00
1.06737	100.00
1.08403	100.00
1.10070	100.00
1.11737	100.00
1.13403	100.00
1.15070	100.00
1.16737	100.00
1.18403	100.00
1.20070	100.00
1.21737	100.00
1.23403	100.00
1.25070	100.00
1.26737	100.00
1.28403	100.00
1.30070	100.00
1.31737	100.00
1.33403	100.00
1.35070	100.01
1.36737	100.00
1.38403	100.00
1.40070	100.00
1.41737	100.00
1.43403	100.01
1.45070	100.00
1.46737	100.00
1.48403	100.01
1.50070	100.00
1.51737	100.00
1.53403	100.00
1.55070	100.00
1.56737	100.01
1.58403	100.00
1.60070	100.00
1.61737	100.00
1.63403	100.00
1.65070	100.00
1.66737	100.00
1.68403	100.00
1.70070	100.00
1.71737	100.00
1.73403	100.00
1.75070	100.00
1.76737	100.00
1.78403	100.00
1.80070	100.00
1.81737	100.00
1.83403	99.99
1.85070	99.99
1.86737	100.00
1.88403	99.99
1.90070	99.99
1.91737	99.99
1.93403	99.99
1.95070	99.98
1.96737	99.98
1.98403	99.99
2.00070	99.98
2.01737	99.99
2.03403	99.98
2.05070	99.98
2.06737	99.98
2.08403	99.98
2.10070	99.98
2.11737	99.98
2.13403	99.98
2.15070	99.98
2.16737	99.98
2.18403	99.98
2.20070	99.97
2.21737	99.97
2.23403	99.98
2.25070	99.98
2.26737	99.98
2.28403	99.97
2.30070	99.97
2.31737	99.98
2.33403	99.97
2.35070	99.97
2.36737	99.98
2.38403	99.97
2.40070	99.98
2.41737	99.97
2.43403	99.98
2.45070	99.98
2.46737	99.98
2.48403	99.98
2.50070	99.98
2.51737	99.98
2.53403	99.99
2.55070	99.98
2.56737	99.99
2.58403	99.99
2.60070	99.99
2.61737	99.99
2.63403	99.99
2.65070	99.99
2.66737	99.99
2.68403	100.00
2.70070	100.00
2.71737	100.00
2.73403	100.00
2.75070	100.00
2.76737	100.00
2.78403	100.00
2.80070	100.00
2.81737	100.00
2.83403	100.01
2.85070	100.01
2.86737	100.01
2.88403	100.01
2.90070	100.02
2.91737	100.01
2.93403	100.02
2.95070	100.02
2.96737	100.02
2.98403	100.02
3.00070	100.02
3.01737	100.03
3.03403	100.03
3.05070	100.03
3.06737	100.03
3.08403	100.03
3.10070	100.03
3.11737	100.03
3.13403	100.03
3.15070	100.03
3.16737	100.04
3.18403	100.04
3.20070	100.04
3.21737	100.04
3.23403	100.04
3.25070	100.04
3.26737	100.04
3.28403	100.04
3.30070	100.04
3.31737	100.04
3.33403	100.04
3.35070	100.05
3.36737	100.05
3.38403	100.05
3.40070	100.04
3.41737	100.05
3.43403	100.05
3.45070	100.05
3.46737	100.05
3.48403	100.05
3.50070	100.06
3.51737	100.06
3.53403	100.06
3.55070	100.05
3.56737	100.06
3.58403	100.06
3.60070	100.06
3.61737	100.06
3.63403	100.06
3.65070	100.06
3.66737	100.06
3.68403	100.06
3.70070	100.06
3.71737	100.06
3.73403	100.06
3.75070	100.06
3.76737	100.06
3.78403	100.06
3.80070	100.06
3.81737	100.06
3.83403	100.06
3.85070	100.06
3.86737	100.06
3.88403	100.06
3.90070	100.06
3.91737	100.06
3.93403	100.06
3.95070	100.05
3.96737	100.06
3.98403	100.05

[Status Trace (Carrier Gas Pressure)]
Interval(msec)	1000
# of Points	240
Start Time(min)	0.001
End Time(min)	3.984
Intensity Units	
Intensity Multiplier	1
R.Time (min)	Intensity
0.00070	58.00
0.01737	56.59
0.03403	55.96
0.05070	58.31
0.06737	59.91
0.08403	58.48
0.10070	57.97
0.11737	58.00
0.13403	58.01
0.15070	58.01
0.16737	58.00
0.18403	58.00
0.20070	58.00
0.21737	58.00
0.23403	58.00
0.25070	58.00
0.26737	58.00
0.28403	58.00
0.30070	58.00
0.31737	58.00
0.33403	58.00
0.35070	58.00
0.36737	58.00
0.38403	58.00
0.40070	58.00
0.41737	58.00
0.43403	58.00
0.45070	58.00
0.46737	58.00
0.48403	58.00
0.50070	58.00
0.51737	58.00
0.53403	58.00
0.55070	58.00
0.56737	58.00
0.58403	58.00
0.60070	58.00
0.61737	58.00
0.63403	58.00
0.65070	58.00
0.66737	58.00
0.68403	58.00
0.70070	58.00
0.71737	58.00
0.73403	58.00
0.75070	58.00
0.76737	58.00
0.78403	58.00
0.80070	58.00
0.81737	58.00
0.83403	58.00
0.85070	58.00
0.86737	58.00
0.88403	58.00
0.90070	58.00
0.91737	58.00
0.93403	58.00
0.95070	58.00
0.96737	58.00
0.98403	58.00
1.00070	58.00
1.01737	58.00
1.03403	58.00
1.05070	58.00
1.06737	58.00
1.08403	58.00
1.10070	58.00
1.11737	58.00
1.13403	58.00
1.15070	58.00
1.16737	58.00
1.18403	58.00
1.20070	58.00
1.21737	58.00
1.23403	58.00
1.25070	58.00
1.26737	58.00
1.28403	58.00
1.30070	58.00
1.31737	58.00
1.33403	58.00
1.35070	58.00
1.36737	58.00
1.38403	58.00
1.40070	58.00
1.41737	58.00
1.43403	58.00
1.45070	58.00
1.46737	58.00
1.48403	58.00
1.50070	58.00
1.51737	58.00
1.53403	58.00
1.55070	58.00
1.56737	58.00
1.58403	58.00
1.60070	58.00
1.61737	58.00
1.63403	58.00
1.65070	58.01
1.66737	58.01
1.68403	58.01
1.70070	58.00
1.71737	58.00
1.73403	58.00
1.75070	58.00
1.76737	58.00
1.78403	58.00
1.80070	58.00
1.81737	58.00
1.83403	58.00
1.85070	58.00
1.86737	58.00
1.88403	58.00
1.90070	58.00
1.91737	58.00
1.93403	58.00
1.95070	58.00
1.96737	58.00
1.98403	58.00
2.00070	58.00
2.01737	58.00
2.03403	58.00
2.05070	58.00
2.06737	58.00
2.08403	58.00
2.10070	58.00
2.11737	58.00
2.13403	58.00
2.15070	58.00
2.16737	58.00
2.18403	58.00
2.20070	58.00
2.21737	58.00
2.23403	58.00
2.25070	58.00
2.26737	58.00
2.28403	58.00
2.30070	58.00
2.31737	58.00
2.33403	58.00
2.35070	58.00
2.36737	58.00
2.38403	57.99
2.40070	57.99
2.41737	58.00
2.43403	58.00
2.45070	58.00
2.46737	58.00
2.48403	58.00
2.50070	58.00
2.51737	57.98
2.53403	57.99
2.55070	58.00
2.56737	58.00
2.58403	58.00
2.60070	58.00
2.61737	58.00
2.63403	58.00
2.65070	58.00
2.66737	58.00
2.68403	58.00
2.70070	58.00
2.71737	58.00
2.73403	58.00
2.75070	58.00
2.76737	58.00
2.78403	58.00
2.80070	58.00
2.81737	58.00
2.83403	58.00
2.85070	58.00
2.86737	58.00
2.88403	58.00
2.90070	58.00
2.91737	58.00
2.93403	58.00
2.95070	58.00
2.96737	58.00
2.98403	58.00
3.00070	58.00
3.01737	58.00
3.03403	58.00
3.05070	58.00
3.06737	58.00
3.08403	58.00
3.10070	58.00
3.11737	58.00
3.13403	58.00
3.15070	58.00
3.16737	58.00
3.18403	58.00
3.20070	58.00
3.21737	58.00
3.23403	58.00
3.25070	58.00
3.26737	58.00
3.28403	58.00
3.30070	58.00
3.31737	58.00
3.33403	58.00
3.35070	58.00
3.36737	58.00
3.38403	58.00
3.40070	58.00
3.41737	58.00
3.43403	58.00
3.45070	58.00
3.46737	58.00
3.48403	58.00
3.50070	58.00
3.51737	58.00
3.53403	58.00
3.55070	58.00
3.56737	58.00
3.58403	58.00
3.60070	58.00
3.61737	58.00
3.63403	58.00
3.65070	58.00
3.66737	58.00
3.68403	58.00
3.70070	58.00
3.71737	58.00
3.73403	58.00
3.75070	58.00
3.76737	58.00
3.78403	58.00
3.80070	58.00
3.81737	58.00
3.83403	58.00
3.85070	58.00
3.86737	58.00
3.88403	58.00
3.90070	58.00
3.91737	58.00
3.93403	58.00
3.95070	58.00
3.96737	58.00
3.98403	58.00

[Status Trace (Carrier Gas Flow)]
Interval(msec)	1000
# of Points	240
Start Time(min)	0.001
End Time(min)	3.984
Intensity Units	
Intensity Multiplier	1
R.Time (min)	Intensity
0.00070	34.52
0.01737	34.05
0.03403	34.54
0.05070	34.56
0.06737	34.50
0.08403	34.50
0.10070	34.52
0.11737	34.52
0.13403	34.52
0.15070	34.52
0.16737	34.52
0.18403	34.52
0.20070	34.52
0.21737	34.52
0.23403	34.52
0.25070	34.52
0.26737	34.52
0.28403	34.52
0.30070	34.52
0.31737	34.52
0.33403	34.52
0.35070	34.52
0.36737	34.52
0.38403	34.52
0.40070	34.52
0.41737	34.52
0.43403	34.52
0.45070	34.52
0.46737	34.52
0.48403	34.52
0.50070	34.52
0.51737	34.52
0.53403	34.52
0.55070	34.52
0.56737	34.52
0.58403	34.52
0.60070	34.52
0.61737	34.52
0.63403	34.52
0.65070	34.52
0.66737	34.52
0.68403	34.52
0.70070	34.52
0.71737	34.52
0.73403	34.52
0.75070	34.52
0.76737	34.52
0.78403	34.52
0.80070	34.52
0.81737	34.52
0.83403	34.52
0.85070	34.52
0.86737	34.52
0.88403	34.52
0.90070	34.52
0.91737	34.52
0.93403	34.52
0.95070	34.52
0.96737	34.52
0.98403	34.52
1.00070	34.52
1.01737	34.52
1.03403	34.52
1.05070	34.52
1.06737	34.52
1.08403	34.52
1.10070	34.52
1.11737	34.52
1.13403	34.52
1.15070	34.52
1.16737	34.52
1.18403	34.52
1.20070	34.52
1.21737	34.52
1.23403	34.52
1.25070	34.52
1.26737	34.52
1.28403	34.52
1.30070	34.52
1.31737	34.52
1.33403	34.52
1.35070	34.52
1.36737	34.52
1.38403	34.52
1.40070	34.52
1.41737	34.52
1.43403	34.52
1.45070	34.52
1.46737	34.52
1.48403	34.52
1.50070	34.52
1.51737	34.52
1.53403	34.52
1.55070	34.52
1.56737	34.52
1.58403	34.52
1.60070	34.52
1.61737	34.52
1.63403	34.52
1.65070	34.52
1.66737	34.52
1.68403	34.52
1.70070	34.52
1.71737	34.52
1.73403	34.52
1.75070	34.52
1.76737	34.52
1.78403	34.52
1.80070	34.52
1.81737	34.52
1.83403	34.52
1.85070	34.52
1.86737	34.52
1.88403	34.52
1.90070	34.52
1.91737	34.52
1.93403	34.52
1.95070	34.52
1.96737	34.52
1.98403	34.52
2.00070	34.52
2.01737	34.53
2.03403	34.52
2.05070	34.53
2.06737	34.51
2.08403	34.52
2.10070	34.51
2.11737	34.52
2.13403	34.52
2.15070	34.53
2.16737	34.52
2.18403	34.52
2.20070	34.52
2.21737	34.51
2.23403	34.52
2.25070	34.52
2.26737	34.52
2.28403	34.52
2.30070	34.52
2.31737	34.52
2.33403	34.52
2.35070	34.52
2.36737	34.52
2.38403	34.52
2.40070	34.52
2.41737	34.52
2.43403	34.52
2.45070	34.52
2.46737	34.52
2.48403	34.52
2.50070	34.52
2.51737	34.52
2.53403	34.52
2.55070	34.52
2.56737	34.53
2.58403	34.52
2.60070	34.52
2.61737	34.52
2.63403	34.52
2.65070	34.52
2.66737	34.52
2.68403	34.52
2.70070	34.52
2.71737	34.52
2.73403	34.52
2.75070	34.52
2.76737	34.52
2.78403	34.52
2.80070	34.52
2.81737	34.52
2.83403	34.52
2.85070	34.52
2.86737	34.52
2.88403	34.52
2.90070	34.52
2.91737	34.52
2.93403	34.52
2.95070	34.52
2.96737	34.52
2.98403	34.52
3.00070	34.52
3.01737	34.52
3.03403	34.52
3.05070	34.52
3.06737	34.52
3.08403	34.52
3.10070	34.52
3.11737	34.52
3.13403	34.52
3.15070	34.52
3.16737	34.52
3.18403	34.52
3.20070	34.52
3.21737	34.52
3.23403	34.52
3.25070	34.52
3.26737	34.52
3.28403	34.52
3.30070	34.52
3.31737	34.52
3.33403	34.52
3.35070	34.52
3.36737	34.52
3.38403	34.52
3.40070	34.52
3.41737	34.52
3.43403	34.52
3.45070	34.52
3.46737	34.52
3.48403	34.52
3.50070	34.52
3.51737	34.52
3.53403	34.52
3.55070	34.52
3.56737	34.52
3.58403	34.52
3.60070	34.52
3.61737	34.52
3.63403	34.52
3.65070	34.52
3.66737	34.52
3.68403	34.52
3.70070	34.52
3.71737	34.52
3.73403	34.52
3.75070	34.52
3.76737	34.52
3.78403	34.52
3.80070	34.52
3.81737	34.52
3.83403	34.52
3.85070	34.52
3.86737	34.51
3.88403	34.52
3.90070	34.52
3.91737	34.52
3.93403	34.51
3.95070	34.51
3.96737	34.53
3.98403	34.51

[Status Trace (Column Flow)]
Interval(msec)	1000
# of Points	240
Start Time(min)	0.001
End Time(min)	3.984
Intensity Units	
Intensity Multiplier	1
R.Time (min)	Intensity
0.00070	5.48
0.01737	5.32
0.03403	5.25
0.05070	5.52
0.06737	5.71
0.08403	5.54
0.10070	5.48
0.11737	5.48
0.13403	5.49
0.15070	5.49
0.16737	5.49
0.18403	5.49
0.20070	5.49
0.21737	5.49
0.23403	5.49
0.25070	5.49
0.26737	5.49
0.28403	5.48
0.30070	5.48
0.31737	5.48
0.33403	5.48
0.35070	5.48
0.36737	5.48
0.38403	5.48
0.40070	5.48
0.41737	5.48
0.43403	5.49
0.45070	5.48
0.46737	5.48
0.48403	5.48
0.50070	5.48
0.51737	5.48
0.53403	5.48
0.55070	5.48
0.56737	5.48
0.58403	5.49
0.60070	5.49
0.61737	5.49
0.63403	5.49
0.65070	5.49
0.66737	5.48
0.68403	5.48
0.70070	5.48
0.71737	5.48
0.73403	5.48
0.75070	5.48
0.76737	5.48
0.78403	5.49
0.80070	5.49
0.81737	5.48
0.83403	5.48
0.85070	5.48
0.86737	5.48
0.88403	5.48
0.90070	5.48
0.91737	5.48
0.93403	5.48
0.95070	5.48
0.96737	5.48
0.98403	5.48
1.00070	5.48
1.01737	5.48
1.03403	5.48
1.05070	5.48
1.06737	5.48
1.08403	5.48
1.10070	5.48
1.11737	5.48
1.13403	5.48
1.15070	5.48
1.16737	5.48
1.18403	5.48
1.20070	5.48
1.21737	5.48
1.23403	5.48
1.25070	5.49
1.26737	5.48
1.28403	5.48
1.30070	5.49
1.31737	5.48
1.33403	5.49
1.35070	5.48
1.36737	5.48
1.38403	5.48
1.40070	5.48
1.41737	5.48
1.43403	5.48
1.45070	5.48
1.46737	5.49
1.48403	5.48
1.50070	5.48
1.51737	5.49
1.53403	5.49
1.55070	5.49
1.56737	5.48
1.58403	5.48
1.60070	5.48
1.61737	5.48
1.63403	5.48
1.65070	5.47
1.66737	5.46
1.68403	5.45
1.70070	5.44
1.71737	5.43
1.73403	5.42
1.75070	5.41
1.76737	5.40
1.78403	5.39
1.80070	5.38
1.81737	5.37
1.83403	5.36
1.85070	5.35
1.86737	5.34
1.88403	5.33
1.90070	5.32
1.91737	5.31
1.93403	5.30
1.95070	5.29
1.96737	5.28
1.98403	5.27
2.00070	5.26
2.01737	5.25
2.03403	5.24
2.05070	5.23
2.06737	5.22
2.08403	5.21
2.10070	5.20
2.11737	5.19
2.13403	5.18
2.15070	5.17
2.16737	5.16
2.18403	5.16
2.20070	5.15
2.21737	5.14
2.23403	5.13
2.25070	5.12
2.26737	5.11
2.28403	5.10
2.30070	5.09
2.31737	5.08
2.33403	5.07
2.35070	5.06
2.36737	5.06
2.38403	5.05
2.40070	5.05
2.41737	5.05
2.43403	5.05
2.45070	5.05
2.46737	5.05
2.48403	5.05
2.50070	5.05
2.51737	5.05
2.53403	5.05
2.55070	5.05
2.56737	5.05
2.58403	5.05
2.60070	5.05
2.61737	5.05
2.63403	5.05
2.65070	5.05
2.66737	5.05
2.68403	5.05
2.70070	5.05
2.71737	5.05
2.73403	5.05
2.75070	5.05
2.76737	5.05
2.78403	5.05
2.80070	5.05
2.81737	5.05
2.83403	5.05
2.85070	5.05
2.86737	5.05
2.88403	5.05
2.90070	5.05
2.91737	5.05
2.93403	5.05
2.95070	5.05
2.96737	5.05
2.98403	5.05
3.00070	5.05
3.01737	5.04
3.03403	5.04
3.05070	5.04
3.06737	5.04
3.08403	5.04
3.10070	5.04
3.11737	5.04
3.13403	5.04
3.15070	5.04
3.16737	5.04
3.18403	5.04
3.20070	5.04
3.21737	5.04
3.23403	5.04
3.25070	5.04
3.26737	5.04
3.28403	5.04
3.30070	5.04
3.31737	5.04
3.33403	5.04
3.35070	5.04
3.36737	5.04
3.38403	5.04
3.40070	5.04
3.41737	5.04
3.43403	5.04
3.45070	5.04
3.46737	5.04
3.48403	5.04
3.50070	5.04
3.51737	5.04
3.53403	5.04
3.55070	5.04
3.56737	5.04
3.58403	5.04
3.60070	5.04
3.61737	5.04
3.63403	5.04
3.65070	5.04
3.66737	5.04
3.68403	5.04
3.70070	5.04
3.71737	5.04
3.73403	5.04
3.75070	5.04
3.76737	5.04
3.78403	5.04
3.80070	5.04
3.81737	5.04
3.83403	5.04
3.85070	5.04
3.86737	5.04
3.88403	5.04
3.90070	5.04
3.91737	5.04
3.93403	5.04
3.95070	5.04
3.96737	5.04
3.98403	5.04

[Status Trace (Linear Velocity)]
Interval(msec)	1000
# of Points	240
Start Time(min)	0.001
End Time(min)	3.984
Intensity Units	
Intensity Multiplier	1
R.Time (min)	Intensity
0.00070	39.01
0.01737	38.08
0.03403	37.67
0.05070	39.21
0.06737	40.26
0.08403	39.32
0.10070	38.99
0.11737	39.01
0.13403	39.01
0.15070	39.01
0.16737	39.01
0.18403	39.01
0.20070	39.01
0.21737	39.01
0.23403	39.01
0.25070	39.01
0.26737	39.01
0.28403	39.01
0.30070	39.01
0.31737	39.01
0.33403	39.01
0.35070	39.01
0.36737	39.01
0.38403	39.01
0.40070	39.01
0.41737	39.01
0.43403	39.01
0.45070	39.01
0.46737	39.01
0.48403	39.01
0.50070	39.01
0.51737	39.01
0.53403	39.01
0.55070	39.01
0.56737	39.01
0.58403	39.01
0.60070	39.01
0.61737	39.01
0.63403	39.01
0.65070	39.01
0.66737	39.01
0.68403	39.01
0.70070	39.01
0.71737	39.01
0.73403	39.01
0.75070	39.01
0.76737	39.01
0.78403	39.01
0.80070	39.01
0.81737	39.01
0.83403	39.01
0.85070	39.01
0.86737	39.01
0.88403	39.01
0.90070	39.01
0.91737	39.01
0.93403	39.01
0.95070	39.01
0.96737	39.01
0.98403	39.01
1.00070	39.01
1.01737	39.01
1.03403	39.01
1.05070	39.01
1.06737	39.01
1.08403	39.01
1.10070	39.01
1.11737	39.01
1.13403	39.01
1.15070	39.01
1.16737	39.01
1.18403	39.01
1.20070	39.01
1.21737	39.01
1.23403	39.01
1.25070	39.01
1.26737	39.01
1.28403	39.01
1.30070	39.01
1.31737	39.01
1.33403	39.01
1.35070	39.01
1.36737	39.01
1.38403	39.01
1.40070	39.01
1.41737	39.01
1.43403	39.01
1.45070	39.01
1.46737	39.01
1.48403	39.01
1.50070	39.01
1.51737	39.01
1.53403	39.01
1.55070	39.01
1.56737	39.01
1.58403	39.01
1.60070	39.01
1.61737	39.00
1.63403	38.99
1.65070	38.96
1.66737	38.93
1.68403	38.90
1.70070	38.86
1.71737	38.83
1.73403	38.80
1.75070	38.77
1.76737	38.74
1.78403	38.71
1.80070	38.67
1.81737	38.64
1.83403	38.61
1.85070	38.58
1.86737	38.55
1.88403	38.52
1.90070	38.49
1.91737	38.46
1.93403	38.43
1.95070	38.40
1.96737	38.37
1.98403	38.34
2.00070	38.31
2.01737	38.28
2.03403	38.25
2.05070	38.22
2.06737	38.19
2.08403	38.16
2.10070	38.13
2.11737	38.10
2.13403	38.07
2.15070	38.03
2.16737	38.01
2.18403	37.98
2.20070	37.95
2.21737	37.92
2.23403	37.89
2.25070	37.86
2.26737	37.83
2.28403	37.80
2.30070	37.77
2.31737	37.74
2.33403	37.71
2.35070	37.68
2.36737	37.67
2.38403	37.66
2.40070	37.65
2.41737	37.66
2.43403	37.66
2.45070	37.66
2.46737	37.65
2.48403	37.65
2.50070	37.65
2.51737	37.64
2.53403	37.64
2.55070	37.65
2.56737	37.65
2.58403	37.64
2.60070	37.64
2.61737	37.64
2.63403	37.64
2.65070	37.64
2.66737	37.64
2.68403	37.64
2.70070	37.64
2.71737	37.64
2.73403	37.64
2.75070	37.64
2.76737	37.64
2.78403	37.64
2.80070	37.64
2.81737	37.64
2.83403	37.63
2.85070	37.63
2.86737	37.63
2.88403	37.63
2.90070	37.63
2.91737	37.63
2.93403	37.63
2.95070	37.63
2.96737	37.63
2.98403	37.63
3.00070	37.63
3.01737	37.63
3.03403	37.62
3.05070	37.62
3.06737	37.62
3.08403	37.62
3.10070	37.62
3.11737	37.62
3.13403	37.62
3.15070	37.62
3.16737	37.62
3.18403	37.62
3.20070	37.62
3.21737	37.62
3.23403	37.62
3.25070	37.62
3.26737	37.62
3.28403	37.62
3.30070	37.62
3.31737	37.62
3.33403	37.62
3.35070	37.61
3.36737	37.61
3.38403	37.61
3.40070	37.61
3.41737	37.62
3.43403	37.62
3.45070	37.62
3.46737	37.62
3.48403	37.62
3.50070	37.62
3.51737	37.62
3.53403	37.62
3.55070	37.62
3.56737	37.62
3.58403	37.62
3.60070	37.62
3.61737	37.62
3.63403	37.62
3.65070	37.62
3.66737	37.62
3.68403	37.62
3.70070	37.62
3.71737	37.62
3.73403	37.62
3.75070	37.62
3.76737	37.62
3.78403	37.62
3.80070	37.62
3.81737	37.62
3.83403	37.62
3.85070	37.62
3.86737	37.62
3.88403	37.62
3.90070	37.62
3.91737	37.62
3.93403	37.62
3.95070	37.62
3.96737	37.62
3.98403	37.62

