[Header]
Application Name	LabSolutions
Version	5.110
Data File Name	C:\Users\User\Desktop\GC Analyses\Jack\UIC Prairie Sampling\10.19.22\221019_009.gcd
Output Date	1/4/2023
Output Time	2:27:28 PM

[File Information]
Type	Data File
Generated	12/5/2022 1:35:35 PM
Generated by	System Administrator
Modified	12/5/2022 1:39:55 PM
Modified by	System Administrator

[Sample Information]
Operator Name	System Administrator
Acquired	12/5/2022 1:35:53 PM
Sample Type	1:Standard
Level	1
Sample Name	221019_UICPrairie
Sample ID	221019_UICPrairie
ISTD Amount1	1
ISTD Amount2	1
ISTD Amount3	1
ISTD Amount4	1
ISTD Amount5	1
ISTD Amount6	1
ISTD Amount7	1
ISTD Amount8	1
ISTD Amount9	1
ISTD Amount10	1
ISTD Amount11	1
ISTD Amount12	1
ISTD Amount13	1
ISTD Amount14	1
ISTD Amount15	1
ISTD Amount16	1
ISTD Amount17	1
ISTD Amount18	1
ISTD Amount19	1
ISTD Amount20	1
ISTD Amount21	1
ISTD Amount22	1
ISTD Amount23	1
ISTD Amount24	1
ISTD Amount25	1
ISTD Amount26	1
ISTD Amount27	1
ISTD Amount28	1
ISTD Amount29	1
ISTD Amount30	1
ISTD Amount31	1
ISTD Amount32	1
Sample Amount	1
Dilution Factor	1
Vial#	1
Injection Volume	1
Injection Count	1
Bar Code	

[Original Files]
Data File	C:\Users\User\Desktop\GC Analyses\Jack\UIC Prairie Sampling\10.19.22\221019_009.gcd
Method File	C:\LabSolutions\Data\GHG_4min_2022\ghg3_togas_w_acet_4 min_new_int.gcm
Batch File	
Report Format File	c:\LabSolutions\System\DEFAULT.lsr

[File Description]


[Configuration]
Instrument Name	C0B7VH3-Instrument1
Instrument #	1
Line #	1
# of Detectors	3
Detector ID	DET#1	DET#2	DET#3
Detector Name	FID	PTCD	ECD
# of Channels	1	1	1

[Peak Table(Ch1)]
# of Peaks	3
Peak#	R.Time	I.Time	F.Time	Area	Height	A/H	Conc.	Mark	ID#	Name	k'	Plate #	Plate Ht.	Tailing	Resolution	Sep.Factor	Area Ratio	Height Ratio	Conc. %	Norm Conc.
1	1.479	1.439	1.538	10608	4645	2.284	100.000	   	1	CO	0.000	8191	18.314	1.269	0.000	0.000	0	0	16.667	16.667
2	1.571	1.538	1.633	4843	2374	2.040	100.000	 V 	2	CH4	0.062	10824	13.858	0.000	1.458	0.000	0	0	16.667	16.667
3	2.000	1.945	2.502	1248498	590967	2.113	400.000	   	3	CO2	0.352	17456	8.593	1.313	7.094	5.680	0	0	66.667	66.667

[Peak Table(Ch2)]
# of Peaks	0

[Peak Table(Ch3)]
# of Peaks	5
Peak#	R.Time	I.Time	F.Time	Area	Height	A/H	Conc.	Mark	ID#	Name	k'	Plate #	Plate Ht.	Tailing	Resolution	Sep.Factor	Area Ratio	Height Ratio	Conc. %	Norm Conc.
1	2.458	2.308	2.499	1619	376	4.300	0.000	   			0.000	7466	20.090	0.000	0.000	0.000	0	0	0.000	0.000
2	2.517	2.499	2.554	711	247	2.872	0.000	 V 			0.024	1613	93.019	0.000	0.322	0.000	0	0	0.000	0.000
3	2.612	2.554	2.660	1130	271	4.178	0.000	 V 			0.063	5200	28.844	0.000	0.482	2.625	0	0	0.000	0.000
4	2.891	2.675	3.056	25650	5294	4.845	1.000	   	1	N2O	0.176	11996	12.504	0.000	2.225	2.810	0	0	100.000	100.000
5	3.162	3.056	3.962	18837	674	27.946	0.000	 V 			0.286	12	12750.004	0.000	0.143	1.627	0	0	0.000	0.000

[Compound Results(Ch1)]
# of IDs	6
ID#	Name	R.Time	Area	Height	Conc.	Curve	3rd	2nd	1st	Constant	Area Ratio	Height Ratio	Conc. %	Norm Conc.
1	CO	1.479	10608	4645	100.000	Linear	0.000000e+00	0.000000e+00	1.060816e+002	0.000000e+00	0	0	16.667	16.667
2	CH4	1.571	4843	2374	100.000	Linear	0.000000e+00	0.000000e+00	4.842644e+001	0.000000e+00	0	0	16.667	16.667
3	CO2	2.000	1248498	590967	400.000	Linear	0.000000e+00	0.000000e+00	3.121244e+003	0.000000e+00	0	0	66.667	66.667
4	Ethylene	0.000	0	0	0.000	Linear	0.000000e+00	0.000000e+00	0.000000e+00	0.000000e+00	0	0	0.000	0.000
5	Acetylene	0.000	0	0	0.000	Linear	0.000000e+00	0.000000e+00	0.000000e+00	0.000000e+00	0	0	0.000	0.000
6	Ethane	0.000	0	0	0.000	Linear	0.000000e+00	0.000000e+00	0.000000e+00	0.000000e+00	0	0	0.000	0.000

[Compound Results(Ch2)]
# of IDs	5
ID#	Name	R.Time	Area	Height	Conc.	Curve	3rd	2nd	1st	Constant	Area Ratio	Height Ratio	Conc. %	Norm Conc.
1	Hydrogen	0.000	0	0	0.000	Linear	0.000000e+00	0.000000e+00	0.000000e+00	0.000000e+00	0	0	0.000	0.000
2	Oxygen	0.000	0	0	0.000	Linear	0.000000e+00	0.000000e+00	0.000000e+00	0.000000e+00	0	0	0.000	0.000
3	Nitrogen	0.000	0	0	0.000	Linear	0.000000e+00	0.000000e+00	0.000000e+00	0.000000e+00	0	0	0.000	0.000
4	Methane	0.000	0	0	0.000	Linear	0.000000e+00	0.000000e+00	0.000000e+00	0.000000e+00	0	0	0.000	0.000
5	Carbon Monoxide	0.000	0	0	0.000	Linear	0.000000e+00	0.000000e+00	0.000000e+00	0.000000e+00	0	0	0.000	0.000

[Compound Results(Ch3)]
# of IDs	2
ID#	Name	R.Time	Area	Height	Conc.	Curve	3rd	2nd	1st	Constant	Area Ratio	Height Ratio	Conc. %	Norm Conc.
1	N2O	2.891	25650	5294	1.000	Linear	0.000000e+00	0.000000e+00	2.564983e+004	0.000000e+00	0	0	100.000	100.000
2	SF6	0.000	0	0	0.000	Linear	0.000000e+00	0.000000e+00	0.000000e+00	0.000000e+00	0	0	0.000	0.000

[Group Results(Ch1)]
# of Groups	0

[Group Results(Ch2)]
# of Groups	0

[Group Results(Ch3)]
# of Groups	0

[Chromatogram (Ch1)]
Interval(msec)	220
# of Points	1091
Start Time(min)	0.002
End Time(min)	3.998
R.Time (min)	Intensity
0.00167	16
0.00533	10
0.00900	4
0.01267	-3
0.01633	-8
0.02000	-13
0.02367	-16
0.02733	-15
0.03100	-10
0.03467	-3
0.03833	5
0.04200	15
0.04567	23
0.04933	26
0.05300	25
0.05667	18
0.06033	9
0.06400	2
0.06767	-7
0.07133	-16
0.07500	-12
0.07867	-7
0.08233	-3
0.08600	-3
0.08967	-6
0.09333	-9
0.09700	-9
0.10067	-4
0.10433	0
0.10800	1
0.11167	-1
0.11533	-3
0.11900	-10
0.12267	-9
0.12633	21
0.13000	63
0.13367	94
0.13733	109
0.14100	109
0.14467	99
0.14833	87
0.15200	75
0.15567	63
0.15933	59
0.16300	59
0.16667	61
0.17033	62
0.17400	62
0.17767	60
0.18133	55
0.18500	52
0.18867	47
0.19233	41
0.19600	39
0.19967	37
0.20333	39
0.20700	44
0.21067	51
0.21433	55
0.21800	54
0.22167	49
0.22533	45
0.22900	44
0.23267	45
0.23633	44
0.24000	43
0.24367	42
0.24733	43
0.25100	46
0.25467	51
0.25833	59
0.26200	65
0.26567	67
0.26933	66
0.27300	62
0.27667	58
0.28033	52
0.28400	46
0.28767	42
0.29133	42
0.29500	44
0.29867	46
0.30233	48
0.30600	47
0.30967	45
0.31333	44
0.31700	45
0.32067	46
0.32433	48
0.32800	48
0.33167	48
0.33533	48
0.33900	51
0.34267	56
0.34633	57
0.35000	57
0.35367	55
0.35733	50
0.36100	45
0.36467	45
0.36833	49
0.37200	54
0.37567	57
0.37933	55
0.38300	51
0.38667	44
0.39033	34
0.39400	30
0.39767	35
0.40133	43
0.40500	51
0.40867	59
0.41233	65
0.41600	68
0.41967	67
0.42333	59
0.42700	46
0.43067	30
0.43433	16
0.43800	6
0.44167	3
0.44533	4
0.44900	9
0.45267	14
0.45633	18
0.46000	24
0.46367	29
0.46733	34
0.47100	37
0.47467	40
0.47833	41
0.48200	38
0.48567	32
0.48933	27
0.49300	25
0.49667	24
0.50033	24
0.50400	20
0.50767	18
0.51133	20
0.51500	22
0.51867	24
0.52233	24
0.52600	23
0.52967	20
0.53333	15
0.53700	11
0.54067	9
0.54433	11
0.54800	14
0.55167	18
0.55533	24
0.55900	26
0.56267	28
0.56633	28
0.57000	27
0.57367	27
0.57733	27
0.58100	26
0.58467	24
0.58833	20
0.59200	21
0.59567	25
0.59933	27
0.60300	24
0.60667	20
0.61033	16
0.61400	15
0.61767	16
0.62133	17
0.62500	17
0.62867	14
0.63233	12
0.63600	8
0.63967	4
0.64333	2
0.64700	2
0.65067	7
0.65433	14
0.65800	19
0.66167	20
0.66533	19
0.66900	12
0.67267	3
0.67633	-4
0.68000	-8
0.68367	-9
0.68733	-7
0.69100	-2
0.69467	3
0.69833	6
0.70200	3
0.70567	-2
0.70933	-4
0.71300	-3
0.71667	-2
0.72033	-0
0.72400	2
0.72767	0
0.73133	-4
0.73500	-9
0.73867	-12
0.74233	-9
0.74600	-6
0.74967	-4
0.75333	-3
0.75700	-1
0.76067	5
0.76433	7
0.76800	3
0.77167	-3
0.77533	-10
0.77900	-16
0.78267	-18
0.78633	-9
0.79000	3
0.79367	8
0.79733	6
0.80100	-0
0.80467	-7
0.80833	-9
0.81200	-10
0.81567	-12
0.81933	-16
0.82300	-19
0.82667	-21
0.83033	-22
0.83400	-21
0.83767	-21
0.84133	-18
0.84500	-14
0.84867	-9
0.85233	-9
0.85600	-10
0.85967	-9
0.86333	-7
0.86700	-5
0.87067	-4
0.87433	-7
0.87800	-10
0.88167	-11
0.88533	-12
0.88900	-10
0.89267	-4
0.89633	2
0.90000	4
0.90367	1
0.90733	2
0.91100	1
0.91467	-4
0.91833	-9
0.92200	-14
0.92567	-22
0.92933	-33
0.93300	-43
0.93667	-47
0.94033	-45
0.94400	-42
0.94767	-41
0.95133	-40
0.95500	-36
0.95867	-31
0.96233	-30
0.96600	-32
0.96967	-34
0.97333	-35
0.97700	-33
0.98067	-34
0.98433	-37
0.98800	-39
0.99167	-40
0.99533	-38
0.99900	-35
1.00267	-35
1.00633	-40
1.01000	-45
1.01367	-47
1.01733	-45
1.02100	-40
1.02467	-34
1.02833	-33
1.03200	-37
1.03567	-43
1.03933	-42
1.04300	-39
1.04667	-39
1.05033	-43
1.05400	-47
1.05767	-49
1.06133	-49
1.06500	-47
1.06867	-45
1.07233	-42
1.07600	-40
1.07967	-40
1.08333	-38
1.08700	-36
1.09067	-33
1.09433	-33
1.09800	-34
1.10167	-35
1.10533	-37
1.10900	-39
1.11267	-42
1.11633	-45
1.12000	-44
1.12367	-42
1.12733	-41
1.13100	-42
1.13467	-43
1.13833	-47
1.14200	-54
1.14567	-60
1.14933	-63
1.15300	-65
1.15667	-63
1.16033	-56
1.16400	-48
1.16767	-41
1.17133	-39
1.17500	-40
1.17867	-43
1.18233	-45
1.18600	-49
1.18967	-55
1.19333	-63
1.19700	-68
1.20067	-67
1.20433	-65
1.20800	-65
1.21167	-70
1.21533	-74
1.21900	-78
1.22267	-77
1.22633	-74
1.23000	-67
1.23367	-59
1.23733	-48
1.24100	-40
1.24467	-35
1.24833	-36
1.25200	-40
1.25567	-44
1.25933	-48
1.26300	-52
1.26667	-57
1.27033	-62
1.27400	-66
1.27767	-64
1.28133	-58
1.28500	-56
1.28867	-56
1.29233	-55
1.29600	-53
1.29967	-55
1.30333	-60
1.30700	-65
1.31067	-71
1.31433	-75
1.31800	-78
1.32167	-75
1.32533	-68
1.32900	-61
1.33267	-56
1.33633	-55
1.34000	-54
1.34367	-53
1.34733	-54
1.35100	-60
1.35467	-69
1.35833	-77
1.36200	-84
1.36567	-91
1.36933	-99
1.37300	-102
1.37667	-101
1.38033	-101
1.38400	-103
1.38767	-102
1.39133	-97
1.39500	-91
1.39867	-83
1.40233	-73
1.40600	-63
1.40967	-59
1.41333	-60
1.41700	-61
1.42067	-63
1.42433	-64
1.42800	-64
1.43167	-64
1.43533	-66
1.43900	-64
1.44267	-31
1.44633	97
1.45000	343
1.45367	714
1.45733	1276
1.46100	2026
1.46467	2830
1.46833	3545
1.47200	4098
1.47567	4453
1.47933	4574
1.48300	4426
1.48667	4014
1.49033	3415
1.49400	2749
1.49767	2122
1.50133	1588
1.50500	1165
1.50867	844
1.51233	613
1.51600	448
1.51967	330
1.52333	242
1.52700	174
1.53067	123
1.53433	87
1.53800	64
1.54167	64
1.54533	131
1.54900	332
1.55267	688
1.55633	1131
1.56000	1568
1.56367	1927
1.56733	2176
1.57100	2288
1.57467	2236
1.57833	2014
1.58200	1670
1.58567	1284
1.58933	930
1.59300	642
1.59667	423
1.60033	262
1.60400	150
1.60767	75
1.61133	26
1.61500	-10
1.61867	-39
1.62233	-63
1.62600	-80
1.62967	-90
1.63333	-96
1.63700	-99
1.64067	-99
1.64433	-99
1.64800	-98
1.65167	-95
1.65533	-91
1.65900	-89
1.66267	-85
1.66633	-82
1.67000	-82
1.67367	-85
1.67733	-91
1.68100	-101
1.68467	-109
1.68833	-113
1.69200	-112
1.69567	-108
1.69933	-104
1.70300	-101
1.70667	-96
1.71033	-92
1.71400	-88
1.71767	-88
1.72133	-94
1.72500	-102
1.72867	-110
1.73233	-116
1.73600	-119
1.73967	-119
1.74333	-117
1.74700	-112
1.75067	-105
1.75433	-98
1.75800	-95
1.76167	-96
1.76533	-98
1.76900	-102
1.77267	-102
1.77633	-100
1.78000	-97
1.78367	-94
1.78733	-93
1.79100	-93
1.79467	-92
1.79833	-91
1.80200	-92
1.80567	-98
1.80933	-105
1.81300	-113
1.81667	-117
1.82033	-119
1.82400	-119
1.82767	-116
1.83133	-112
1.83500	-106
1.83867	-101
1.84233	-96
1.84600	-94
1.84967	-95
1.85333	-96
1.85700	-94
1.86067	-89
1.86433	-83
1.86800	-77
1.87167	-73
1.87533	-75
1.87900	-82
1.88267	-92
1.88633	-103
1.89000	-111
1.89367	-117
1.89733	-118
1.90100	-114
1.90467	-107
1.90833	-98
1.91200	-91
1.91567	-90
1.91933	-91
1.92300	-92
1.92667	-97
1.93033	-104
1.93400	-110
1.93767	-112
1.94133	-110
1.94500	-107
1.94867	-99
1.95233	-89
1.95600	-69
1.95967	34
1.96333	609
1.96700	3214
1.97067	12217
1.97433	36019
1.97800	85009
1.98167	164631
1.98533	268841
1.98900	381160
1.99267	482136
1.99633	555723
2.00000	590900
2.00367	583251
2.00733	536316
2.01100	461207
2.01467	373358
2.01833	287206
2.02200	212311
2.02567	152616
2.02933	107902
2.03300	75824
2.03667	53461
2.04033	38133
2.04400	27714
2.04767	20636
2.05133	15797
2.05500	12450
2.05867	10098
2.06233	8412
2.06600	7176
2.06967	6247
2.07333	5532
2.07700	4958
2.08067	4480
2.08433	4077
2.08800	3736
2.09167	3447
2.09533	3201
2.09900	2989
2.10267	2802
2.10633	2636
2.11000	2488
2.11367	2357
2.11733	2241
2.12100	2138
2.12467	2042
2.12833	1952
2.13200	1870
2.13567	1795
2.13933	1726
2.14300	1661
2.14667	1599
2.15033	1544
2.15400	1494
2.15767	1452
2.16133	1411
2.16500	1365
2.16867	1319
2.17233	1275
2.17600	1237
2.17967	1203
2.18333	1170
2.18700	1135
2.19067	1099
2.19433	1063
2.19800	1029
2.20167	997
2.20533	969
2.20900	943
2.21267	918
2.21633	896
2.22000	876
2.22367	855
2.22733	834
2.23100	813
2.23467	792
2.23833	773
2.24200	755
2.24567	741
2.24933	731
2.25300	722
2.25667	710
2.26033	693
2.26400	678
2.26767	667
2.27133	657
2.27500	642
2.27867	624
2.28233	608
2.28600	595
2.28967	583
2.29333	569
2.29700	555
2.30067	542
2.30433	530
2.30800	522
2.31167	517
2.31533	517
2.31900	516
2.32267	510
2.32633	501
2.33000	492
2.33367	485
2.33733	478
2.34100	471
2.34467	463
2.34833	455
2.35200	446
2.35567	437
2.35933	428
2.36300	418
2.36667	409
2.37033	403
2.37400	400
2.37767	396
2.38133	392
2.38500	390
2.38867	388
2.39233	385
2.39600	381
2.39967	379
2.40333	378
2.40700	377
2.41067	373
2.41433	366
2.41800	358
2.42167	351
2.42533	347
2.42900	345
2.43267	346
2.43633	346
2.44000	342
2.44367	338
2.44733	326
2.45100	323
2.45467	329
2.45833	328
2.46200	323
2.46567	314
2.46933	304
2.47300	297
2.47667	292
2.48033	290
2.48400	288
2.48767	291
2.49133	294
2.49500	298
2.49867	302
2.50233	300
2.50600	294
2.50967	287
2.51333	282
2.51700	279
2.52067	278
2.52433	277
2.52800	277
2.53167	275
2.53533	273
2.53900	275
2.54267	276
2.54633	270
2.55000	260
2.55367	249
2.55733	240
2.56100	233
2.56467	229
2.56833	226
2.57200	223
2.57567	222
2.57933	222
2.58300	221
2.58667	218
2.59033	216
2.59400	214
2.59767	213
2.60133	214
2.60500	213
2.60867	212
2.61233	212
2.61600	216
2.61967	218
2.62333	216
2.62700	211
2.63067	205
2.63433	199
2.63800	193
2.64167	188
2.64533	184
2.64900	180
2.65267	176
2.65633	173
2.66000	170
2.66367	167
2.66733	165
2.67100	164
2.67467	168
2.67833	174
2.68200	180
2.68567	186
2.68933	187
2.69300	185
2.69667	181
2.70033	178
2.70400	176
2.70767	174
2.71133	169
2.71500	164
2.71867	161
2.72233	160
2.72600	157
2.72967	153
2.73333	151
2.73700	150
2.74067	150
2.74433	151
2.74800	151
2.75167	148
2.75533	143
2.75900	137
2.76267	132
2.76633	129
2.77000	130
2.77367	131
2.77733	131
2.78100	129
2.78467	131
2.78833	136
2.79200	141
2.79567	141
2.79933	139
2.80300	138
2.80667	138
2.81033	141
2.81400	145
2.81767	144
2.82133	140
2.82500	135
2.82867	129
2.83233	124
2.83600	122
2.83967	121
2.84333	119
2.84700	115
2.85067	111
2.85433	108
2.85800	104
2.86167	102
2.86533	105
2.86900	109
2.87267	113
2.87633	115
2.88000	114
2.88367	113
2.88733	116
2.89100	118
2.89467	118
2.89833	116
2.90200	113
2.90567	109
2.90933	104
2.91300	98
2.91667	94
2.92033	94
2.92400	98
2.92767	106
2.93133	113
2.93500	112
2.93867	104
2.94233	90
2.94600	76
2.94967	69
2.95333	68
2.95700	72
2.96067	77
2.96433	86
2.96800	97
2.97167	105
2.97533	108
2.97900	106
2.98267	103
2.98633	101
2.99000	99
2.99367	97
2.99733	95
3.00100	91
3.00467	85
3.00833	79
3.01200	76
3.01567	77
3.01933	81
3.02300	82
3.02667	80
3.03033	77
3.03400	74
3.03767	73
3.04133	76
3.04500	81
3.04867	87
3.05233	91
3.05600	93
3.05967	92
3.06333	89
3.06700	82
3.07067	73
3.07433	67
3.07800	65
3.08167	64
3.08533	59
3.08900	57
3.09267	59
3.09633	62
3.10000	63
3.10367	64
3.10733	65
3.11100	68
3.11467	69
3.11833	69
3.12200	67
3.12567	65
3.12933	66
3.13300	65
3.13667	63
3.14033	60
3.14400	59
3.14767	60
3.15133	64
3.15500	69
3.15867	72
3.16233	70
3.16600	64
3.16967	55
3.17333	47
3.17700	40
3.18067	35
3.18433	30
3.18800	27
3.19167	26
3.19533	30
3.19900	34
3.20267	37
3.20633	38
3.21000	37
3.21367	33
3.21733	27
3.22100	23
3.22467	22
3.22833	24
3.23200	31
3.23567	37
3.23933	40
3.24300	41
3.24667	43
3.25033	43
3.25400	39
3.25767	38
3.26133	41
3.26500	41
3.26867	38
3.27233	36
3.27600	33
3.27967	31
3.28333	33
3.28700	36
3.29067	35
3.29433	33
3.29800	29
3.30167	24
3.30533	20
3.30900	19
3.31267	20
3.31633	26
3.32000	33
3.32367	41
3.32733	47
3.33100	49
3.33467	45
3.33833	40
3.34200	34
3.34567	29
3.34933	23
3.35300	16
3.35667	11
3.36033	9
3.36400	11
3.36767	16
3.37133	21
3.37500	26
3.37867	28
3.38233	27
3.38600	24
3.38967	18
3.39333	16
3.39700	20
3.40067	25
3.40433	29
3.40800	34
3.41167	38
3.41533	34
3.41900	26
3.42267	21
3.42633	16
3.43000	12
3.43367	6
3.43733	1
3.44100	-1
3.44467	3
3.44833	13
3.45200	25
3.45567	32
3.45933	33
3.46300	30
3.46667	29
3.47033	29
3.47400	25
3.47767	19
3.48133	14
3.48500	7
3.48867	0
3.49233	-5
3.49600	-6
3.49967	-3
3.50333	5
3.50700	13
3.51067	20
3.51433	24
3.51800	26
3.52167	27
3.52533	26
3.52900	25
3.53267	23
3.53633	19
3.54000	15
3.54367	12
3.54733	8
3.55100	4
3.55467	0
3.55833	-2
3.56200	-1
3.56567	2
3.56933	5
3.57300	8
3.57667	7
3.58033	1
3.58400	-4
3.58767	-3
3.59133	2
3.59500	6
3.59867	7
3.60233	5
3.60600	2
3.60967	-1
3.61333	-4
3.61700	-6
3.62067	-5
3.62433	-2
3.62800	0
3.63167	-1
3.63533	-5
3.63900	-9
3.64267	-10
3.64633	-8
3.65000	-3
3.65367	2
3.65733	10
3.66100	15
3.66467	16
3.66833	13
3.67200	8
3.67567	2
3.67933	-3
3.68300	-8
3.68667	-12
3.69033	-12
3.69400	-14
3.69767	-16
3.70133	-19
3.70500	-19
3.70867	-19
3.71233	-20
3.71600	-18
3.71967	-15
3.72333	-13
3.72700	-13
3.73067	-15
3.73433	-15
3.73800	-15
3.74167	-13
3.74533	-12
3.74900	-12
3.75267	-14
3.75633	-14
3.76000	-12
3.76367	-9
3.76733	-6
3.77100	-3
3.77467	-3
3.77833	-5
3.78200	-7
3.78567	-9
3.78933	-8
3.79300	-5
3.79667	-1
3.80033	0
3.80400	-2
3.80767	-9
3.81133	-15
3.81500	-18
3.81867	-22
3.82233	-26
3.82600	-28
3.82967	-25
3.83333	-17
3.83700	-5
3.84067	2
3.84433	3
3.84800	-3
3.85167	-13
3.85533	-20
3.85900	-23
3.86267	-23
3.86633	-22
3.87000	-20
3.87367	-18
3.87733	-14
3.88100	-10
3.88467	-6
3.88833	-2
3.89200	2
3.89567	7
3.89933	9
3.90300	9
3.90667	7
3.91033	2
3.91400	-2
3.91767	-5
3.92133	-5
3.92500	-4
3.92867	-6
3.93233	-10
3.93600	-13
3.93967	-12
3.94333	-6
3.94700	4
3.95067	12
3.95433	15
3.95800	15
3.96167	13
3.96533	8
3.96900	2
3.97267	-4
3.97633	-9
3.98000	-13
3.98367	-14
3.98733	-14
3.99100	-19
3.99467	-23
3.99833	-23

[Chromatogram (Ch2)]
Interval(msec)	220
# of Points	1091
Start Time(min)	0.002
End Time(min)	3.998
R.Time (min)	Intensity
0.00167	-0
0.00533	-0
0.00900	-0
0.01267	-0
0.01633	-1
0.02000	-1
0.02367	-1
0.02733	-2
0.03100	-2
0.03467	-2
0.03833	-2
0.04200	-2
0.04567	-2
0.04933	-2
0.05300	-2
0.05667	-2
0.06033	-2
0.06400	-2
0.06767	-2
0.07133	-2
0.07500	-1
0.07867	-1
0.08233	-1
0.08600	-1
0.08967	-1
0.09333	-1
0.09700	-0
0.10067	-0
0.10433	-0
0.10800	-0
0.11167	-0
0.11533	-0
0.11900	-0
0.12267	0
0.12633	0
0.13000	0
0.13367	0
0.13733	0
0.14100	-0
0.14467	-0
0.14833	-0
0.15200	-1
0.15567	-1
0.15933	-1
0.16300	-1
0.16667	-1
0.17033	-1
0.17400	-1
0.17767	-1
0.18133	-1
0.18500	-1
0.18867	-1
0.19233	-1
0.19600	-1
0.19967	-1
0.20333	-1
0.20700	-0
0.21067	-0
0.21433	-0
0.21800	-0
0.22167	-0
0.22533	-0
0.22900	-0
0.23267	-1
0.23633	-1
0.24000	-1
0.24367	-1
0.24733	-1
0.25100	-1
0.25467	-1
0.25833	-1
0.26200	-2
0.26567	-2
0.26933	-2
0.27300	-2
0.27667	-2
0.28033	-1
0.28400	-1
0.28767	-1
0.29133	-1
0.29500	-0
0.29867	-0
0.30233	-0
0.30600	-0
0.30967	-0
0.31333	-1
0.31700	-1
0.32067	-1
0.32433	-1
0.32800	-2
0.33167	-2
0.33533	-2
0.33900	-2
0.34267	-3
0.34633	-3
0.35000	-3
0.35367	-4
0.35733	-4
0.36100	-4
0.36467	-4
0.36833	-4
0.37200	-4
0.37567	-4
0.37933	-4
0.38300	-4
0.38667	-4
0.39033	-4
0.39400	-4
0.39767	-4
0.40133	-3
0.40500	-3
0.40867	-3
0.41233	-3
0.41600	-3
0.41967	-3
0.42333	-3
0.42700	-3
0.43067	-3
0.43433	-3
0.43800	-3
0.44167	-3
0.44533	-4
0.44900	-4
0.45267	-4
0.45633	-4
0.46000	-3
0.46367	-3
0.46733	-4
0.47100	-4
0.47467	-4
0.47833	-4
0.48200	-3
0.48567	-3
0.48933	-3
0.49300	-3
0.49667	-3
0.50033	-2
0.50400	-2
0.50767	-2
0.51133	-2
0.51500	-2
0.51867	-2
0.52233	-2
0.52600	-2
0.52967	-2
0.53333	-2
0.53700	-2
0.54067	-2
0.54433	-2
0.54800	-2
0.55167	-2
0.55533	-2
0.55900	-2
0.56267	-2
0.56633	-2
0.57000	-2
0.57367	-2
0.57733	-3
0.58100	-3
0.58467	-3
0.58833	-3
0.59200	-2
0.59567	-3
0.59933	-3
0.60300	-3
0.60667	-3
0.61033	-2
0.61400	-2
0.61767	-2
0.62133	-2
0.62500	-2
0.62867	-2
0.63233	-2
0.63600	-2
0.63967	-2
0.64333	-2
0.64700	-2
0.65067	-2
0.65433	-2
0.65800	-2
0.66167	-3
0.66533	-3
0.66900	-3
0.67267	-3
0.67633	-3
0.68000	-3
0.68367	-3
0.68733	-4
0.69100	-4
0.69467	-4
0.69833	-4
0.70200	-4
0.70567	-4
0.70933	-4
0.71300	-4
0.71667	-4
0.72033	-3
0.72400	-3
0.72767	-3
0.73133	-3
0.73500	-3
0.73867	-4
0.74233	-4
0.74600	-4
0.74967	-4
0.75333	-4
0.75700	-4
0.76067	-4
0.76433	-4
0.76800	-4
0.77167	-4
0.77533	-4
0.77900	-4
0.78267	-3
0.78633	-3
0.79000	-3
0.79367	-3
0.79733	-3
0.80100	-3
0.80467	-3
0.80833	-3
0.81200	-2
0.81567	-2
0.81933	-2
0.82300	-2
0.82667	-2
0.83033	-2
0.83400	-2
0.83767	-2
0.84133	-2
0.84500	-2
0.84867	-2
0.85233	-2
0.85600	-2
0.85967	-2
0.86333	-2
0.86700	-2
0.87067	-2
0.87433	-2
0.87800	-2
0.88167	-2
0.88533	-2
0.88900	-2
0.89267	-2
0.89633	-2
0.90000	-2
0.90367	-3
0.90733	-3
0.91100	-3
0.91467	-3
0.91833	-3
0.92200	-3
0.92567	-3
0.92933	-3
0.93300	-3
0.93667	-3
0.94033	-4
0.94400	-4
0.94767	-4
0.95133	-4
0.95500	-4
0.95867	-4
0.96233	-4
0.96600	-4
0.96967	-4
0.97333	-3
0.97700	-3
0.98067	-3
0.98433	-3
0.98800	-3
0.99167	-3
0.99533	-2
0.99900	-2
1.00267	-2
1.00633	-2
1.01000	-2
1.01367	-2
1.01733	-2
1.02100	-2
1.02467	-2
1.02833	-2
1.03200	-2
1.03567	-2
1.03933	-3
1.04300	-3
1.04667	-3
1.05033	-4
1.05400	-4
1.05767	-4
1.06133	-4
1.06500	-4
1.06867	-5
1.07233	-5
1.07600	-5
1.07967	-5
1.08333	-4
1.08700	-4
1.09067	-4
1.09433	-4
1.09800	-4
1.10167	-4
1.10533	-4
1.10900	-3
1.11267	-3
1.11633	-3
1.12000	-3
1.12367	-3
1.12733	-4
1.13100	-4
1.13467	-4
1.13833	-4
1.14200	-4
1.14567	-4
1.14933	-5
1.15300	-5
1.15667	-5
1.16033	-5
1.16400	-5
1.16767	-5
1.17133	-5
1.17500	-5
1.17867	-5
1.18233	-5
1.18600	-5
1.18967	-5
1.19333	-5
1.19700	-5
1.20067	-5
1.20433	-5
1.20800	-5
1.21167	-4
1.21533	-4
1.21900	-4
1.22267	-4
1.22633	-4
1.23000	-4
1.23367	-4
1.23733	-4
1.24100	-3
1.24467	-3
1.24833	-3
1.25200	-3
1.25567	-3
1.25933	-3
1.26300	-3
1.26667	-3
1.27033	-3
1.27400	-3
1.27767	-3
1.28133	-3
1.28500	-3
1.28867	-3
1.29233	-3
1.29600	-3
1.29967	-3
1.30333	-3
1.30700	-3
1.31067	-4
1.31433	-4
1.31800	-4
1.32167	-4
1.32533	-4
1.32900	-4
1.33267	-4
1.33633	-4
1.34000	-4
1.34367	-4
1.34733	-5
1.35100	-5
1.35467	-5
1.35833	-5
1.36200	-6
1.36567	-6
1.36933	-6
1.37300	-6
1.37667	-7
1.38033	-7
1.38400	-7
1.38767	-7
1.39133	-7
1.39500	-6
1.39867	-6
1.40233	-6
1.40600	-6
1.40967	-6
1.41333	-5
1.41700	-5
1.42067	-5
1.42433	-5
1.42800	-5
1.43167	-5
1.43533	-5
1.43900	-5
1.44267	-6
1.44633	-5
1.45000	-5
1.45367	-6
1.45733	-6
1.46100	-6
1.46467	-6
1.46833	-6
1.47200	-6
1.47567	-6
1.47933	-5
1.48300	-5
1.48667	-5
1.49033	-5
1.49400	-5
1.49767	-5
1.50133	-5
1.50500	-5
1.50867	-5
1.51233	-5
1.51600	-5
1.51967	-5
1.52333	-4
1.52700	-4
1.53067	-4
1.53433	-4
1.53800	-3
1.54167	-3
1.54533	-3
1.54900	-3
1.55267	-3
1.55633	-3
1.56000	-3
1.56367	-3
1.56733	-3
1.57100	-2
1.57467	-2
1.57833	-2
1.58200	-3
1.58567	-3
1.58933	-3
1.59300	-3
1.59667	-4
1.60033	-4
1.60400	-5
1.60767	-7
1.61133	-8
1.61500	-10
1.61867	-13
1.62233	-15
1.62600	-18
1.62967	-21
1.63333	-25
1.63700	-28
1.64067	-32
1.64433	-36
1.64800	-40
1.65167	-43
1.65533	-47
1.65900	-51
1.66267	-55
1.66633	-59
1.67000	-64
1.67367	-68
1.67733	-73
1.68100	-78
1.68467	-83
1.68833	-88
1.69200	-92
1.69567	-96
1.69933	-99
1.70300	-102
1.70667	-104
1.71033	-106
1.71400	-108
1.71767	-109
1.72133	-110
1.72500	-111
1.72867	-111
1.73233	-111
1.73600	-112
1.73967	-112
1.74333	-113
1.74700	-114
1.75067	-115
1.75433	-115
1.75800	-116
1.76167	-117
1.76533	-117
1.76900	-117
1.77267	-118
1.77633	-118
1.78000	-118
1.78367	-118
1.78733	-118
1.79100	-118
1.79467	-119
1.79833	-119
1.80200	-120
1.80567	-120
1.80933	-120
1.81300	-120
1.81667	-120
1.82033	-120
1.82400	-120
1.82767	-120
1.83133	-121
1.83500	-121
1.83867	-121
1.84233	-121
1.84600	-121
1.84967	-121
1.85333	-121
1.85700	-121
1.86067	-121
1.86433	-121
1.86800	-121
1.87167	-121
1.87533	-121
1.87900	-121
1.88267	-121
1.88633	-122
1.89000	-122
1.89367	-123
1.89733	-122
1.90100	-122
1.90467	-121
1.90833	-120
1.91200	-120
1.91567	-119
1.91933	-119
1.92300	-118
1.92667	-118
1.93033	-117
1.93400	-117
1.93767	-117
1.94133	-117
1.94500	-117
1.94867	-117
1.95233	-118
1.95600	-118
1.95967	-118
1.96333	-119
1.96700	-119
1.97067	-119
1.97433	-119
1.97800	-118
1.98167	-118
1.98533	-118
1.98900	-118
1.99267	-118
1.99633	-117
2.00000	-117
2.00367	-116
2.00733	-116
2.01100	-115
2.01467	-114
2.01833	-113
2.02200	-112
2.02567	-112
2.02933	-111
2.03300	-111
2.03667	-111
2.04033	-111
2.04400	-111
2.04767	-111
2.05133	-111
2.05500	-111
2.05867	-111
2.06233	-111
2.06600	-111
2.06967	-111
2.07333	-110
2.07700	-110
2.08067	-109
2.08433	-109
2.08800	-108
2.09167	-108
2.09533	-107
2.09900	-106
2.10267	-106
2.10633	-105
2.11000	-104
2.11367	-103
2.11733	-103
2.12100	-102
2.12467	-102
2.12833	-102
2.13200	-102
2.13567	-102
2.13933	-101
2.14300	-101
2.14667	-101
2.15033	-101
2.15400	-100
2.15767	-100
2.16133	-100
2.16500	-100
2.16867	-100
2.17233	-100
2.17600	-100
2.17967	-100
2.18333	-100
2.18700	-99
2.19067	-99
2.19433	-99
2.19800	-98
2.20167	-98
2.20533	-99
2.20900	-99
2.21267	-99
2.21633	-99
2.22000	-99
2.22367	-99
2.22733	-99
2.23100	-99
2.23467	-99
2.23833	-98
2.24200	-98
2.24567	-97
2.24933	-97
2.25300	-96
2.25667	-96
2.26033	-96
2.26400	-95
2.26767	-95
2.27133	-94
2.27500	-93
2.27867	-93
2.28233	-92
2.28600	-91
2.28967	-90
2.29333	-89
2.29700	-88
2.30067	-88
2.30433	-88
2.30800	-89
2.31167	-90
2.31533	-91
2.31900	-91
2.32267	-91
2.32633	-90
2.33000	-90
2.33367	-89
2.33733	-88
2.34100	-87
2.34467	-86
2.34833	-85
2.35200	-84
2.35567	-82
2.35933	-81
2.36300	-79
2.36667	-78
2.37033	-76
2.37400	-73
2.37767	-71
2.38133	-68
2.38500	-65
2.38867	-62
2.39233	-59
2.39600	-56
2.39967	-52
2.40333	-48
2.40700	-44
2.41067	-40
2.41433	-37
2.41800	-33
2.42167	-30
2.42533	-27
2.42900	-24
2.43267	-22
2.43633	-19
2.44000	-17
2.44367	-16
2.44733	-15
2.45100	-13
2.45467	-12
2.45833	-10
2.46200	-9
2.46567	-8
2.46933	-6
2.47300	-5
2.47667	-4
2.48033	-3
2.48400	-2
2.48767	-0
2.49133	1
2.49500	2
2.49867	3
2.50233	4
2.50600	5
2.50967	6
2.51333	6
2.51700	7
2.52067	8
2.52433	8
2.52800	9
2.53167	10
2.53533	11
2.53900	12
2.54267	13
2.54633	13
2.55000	13
2.55367	13
2.55733	13
2.56100	12
2.56467	12
2.56833	11
2.57200	11
2.57567	12
2.57933	12
2.58300	12
2.58667	12
2.59033	12
2.59400	12
2.59767	12
2.60133	12
2.60500	12
2.60867	12
2.61233	12
2.61600	12
2.61967	12
2.62333	13
2.62700	13
2.63067	14
2.63433	14
2.63800	14
2.64167	15
2.64533	15
2.64900	16
2.65267	16
2.65633	17
2.66000	17
2.66367	17
2.66733	17
2.67100	18
2.67467	18
2.67833	18
2.68200	18
2.68567	18
2.68933	18
2.69300	18
2.69667	19
2.70033	19
2.70400	19
2.70767	19
2.71133	19
2.71500	19
2.71867	19
2.72233	19
2.72600	19
2.72967	19
2.73333	20
2.73700	20
2.74067	21
2.74433	21
2.74800	22
2.75167	23
2.75533	24
2.75900	24
2.76267	24
2.76633	24
2.77000	24
2.77367	24
2.77733	24
2.78100	23
2.78467	23
2.78833	22
2.79200	22
2.79567	22
2.79933	22
2.80300	22
2.80667	22
2.81033	23
2.81400	23
2.81767	23
2.82133	23
2.82500	23
2.82867	23
2.83233	23
2.83600	24
2.83967	24
2.84333	24
2.84700	24
2.85067	24
2.85433	24
2.85800	23
2.86167	22
2.86533	20
2.86900	16
2.87267	10
2.87633	1
2.88000	-11
2.88367	-27
2.88733	-47
2.89100	-70
2.89467	-97
2.89833	-128
2.90200	-163
2.90567	-201
2.90933	-243
2.91300	-286
2.91667	-333
2.92033	-381
2.92400	-430
2.92767	-480
2.93133	-531
2.93500	-581
2.93867	-632
2.94233	-683
2.94600	-732
2.94967	-782
2.95333	-831
2.95700	-884
2.96067	-942
2.96433	-1003
2.96800	-1058
2.97167	-1094
2.97533	-1106
2.97900	-1092
2.98267	-1053
2.98633	-996
2.99000	-926
2.99367	-848
2.99733	-768
3.00100	-687
3.00467	-610
3.00833	-538
3.01200	-471
3.01567	-410
3.01933	-355
3.02300	-306
3.02667	-263
3.03033	-225
3.03400	-192
3.03767	-164
3.04133	-139
3.04500	-118
3.04867	-99
3.05233	-83
3.05600	-70
3.05967	-58
3.06333	-48
3.06700	-39
3.07067	-32
3.07433	-26
3.07800	-20
3.08167	-16
3.08533	-12
3.08900	-8
3.09267	-6
3.09633	-3
3.10000	-1
3.10367	1
3.10733	2
3.11100	3
3.11467	5
3.11833	6
3.12200	7
3.12567	8
3.12933	9
3.13300	9
3.13667	10
3.14033	10
3.14400	11
3.14767	11
3.15133	11
3.15500	12
3.15867	12
3.16233	12
3.16600	13
3.16967	13
3.17333	13
3.17700	13
3.18067	14
3.18433	14
3.18800	14
3.19167	15
3.19533	15
3.19900	15
3.20267	16
3.20633	16
3.21000	17
3.21367	17
3.21733	18
3.22100	18
3.22467	18
3.22833	19
3.23200	19
3.23567	19
3.23933	19
3.24300	19
3.24667	20
3.25033	20
3.25400	20
3.25767	20
3.26133	20
3.26500	20
3.26867	20
3.27233	20
3.27600	20
3.27967	21
3.28333	21
3.28700	21
3.29067	21
3.29433	21
3.29800	21
3.30167	21
3.30533	21
3.30900	21
3.31267	21
3.31633	21
3.32000	21
3.32367	22
3.32733	22
3.33100	22
3.33467	22
3.33833	22
3.34200	22
3.34567	22
3.34933	22
3.35300	22
3.35667	22
3.36033	22
3.36400	22
3.36767	22
3.37133	22
3.37500	22
3.37867	22
3.38233	22
3.38600	22
3.38967	22
3.39333	22
3.39700	22
3.40067	22
3.40433	22
3.40800	23
3.41167	23
3.41533	23
3.41900	24
3.42267	24
3.42633	24
3.43000	24
3.43367	24
3.43733	24
3.44100	24
3.44467	24
3.44833	24
3.45200	25
3.45567	25
3.45933	25
3.46300	25
3.46667	25
3.47033	25
3.47400	25
3.47767	26
3.48133	26
3.48500	26
3.48867	26
3.49233	26
3.49600	26
3.49967	26
3.50333	26
3.50700	26
3.51067	26
3.51433	26
3.51800	25
3.52167	25
3.52533	25
3.52900	25
3.53267	25
3.53633	25
3.54000	25
3.54367	25
3.54733	25
3.55100	25
3.55467	25
3.55833	25
3.56200	25
3.56567	25
3.56933	25
3.57300	25
3.57667	24
3.58033	24
3.58400	24
3.58767	24
3.59133	24
3.59500	24
3.59867	24
3.60233	24
3.60600	25
3.60967	25
3.61333	25
3.61700	25
3.62067	25
3.62433	25
3.62800	25
3.63167	25
3.63533	25
3.63900	25
3.64267	25
3.64633	25
3.65000	25
3.65367	25
3.65733	25
3.66100	25
3.66467	25
3.66833	25
3.67200	25
3.67567	25
3.67933	25
3.68300	25
3.68667	24
3.69033	24
3.69400	24
3.69767	23
3.70133	23
3.70500	23
3.70867	23
3.71233	23
3.71600	23
3.71967	23
3.72333	24
3.72700	24
3.73067	24
3.73433	24
3.73800	24
3.74167	23
3.74533	23
3.74900	23
3.75267	23
3.75633	23
3.76000	23
3.76367	23
3.76733	23
3.77100	23
3.77467	23
3.77833	23
3.78200	23
3.78567	23
3.78933	23
3.79300	23
3.79667	23
3.80033	23
3.80400	23
3.80767	23
3.81133	23
3.81500	24
3.81867	24
3.82233	24
3.82600	25
3.82967	25
3.83333	25
3.83700	25
3.84067	25
3.84433	25
3.84800	25
3.85167	25
3.85533	25
3.85900	24
3.86267	24
3.86633	24
3.87000	24
3.87367	24
3.87733	23
3.88100	23
3.88467	23
3.88833	23
3.89200	24
3.89567	24
3.89933	24
3.90300	25
3.90667	25
3.91033	25
3.91400	25
3.91767	25
3.92133	25
3.92500	24
3.92867	24
3.93233	24
3.93600	24
3.93967	24
3.94333	24
3.94700	24
3.95067	24
3.95433	24
3.95800	24
3.96167	24
3.96533	24
3.96900	24
3.97267	24
3.97633	24
3.98000	23
3.98367	23
3.98733	23
3.99100	23
3.99467	23
3.99833	23

[Chromatogram (Ch3)]
Interval(msec)	220
# of Points	1091
Start Time(min)	0.002
End Time(min)	3.998
R.Time (min)	Intensity
0.00167	-0
0.00533	-0
0.00900	0
0.01267	0
0.01633	0
0.02000	-1
0.02367	-2
0.02733	-3
0.03100	-5
0.03467	-4
0.03833	-3
0.04200	-2
0.04567	-2
0.04933	-3
0.05300	-4
0.05667	-5
0.06033	-3
0.06400	-0
0.06767	2
0.07133	1
0.07500	0
0.07867	1
0.08233	2
0.08600	3
0.08967	5
0.09333	7
0.09700	7
0.10067	5
0.10433	3
0.10800	1
0.11167	2
0.11533	4
0.11900	5
0.12267	5
0.12633	4
0.13000	3
0.13367	4
0.13733	3
0.14100	2
0.14467	2
0.14833	1
0.15200	3
0.15567	3
0.15933	2
0.16300	1
0.16667	1
0.17033	-0
0.17400	3
0.17767	5
0.18133	4
0.18500	2
0.18867	0
0.19233	-1
0.19600	-1
0.19967	-0
0.20333	1
0.20700	4
0.21067	7
0.21433	7
0.21800	8
0.22167	7
0.22533	8
0.22900	8
0.23267	9
0.23633	10
0.24000	9
0.24367	8
0.24733	5
0.25100	1
0.25467	3
0.25833	6
0.26200	8
0.26567	7
0.26933	6
0.27300	6
0.27667	6
0.28033	6
0.28400	5
0.28767	3
0.29133	1
0.29500	1
0.29867	5
0.30233	7
0.30600	8
0.30967	9
0.31333	9
0.31700	8
0.32067	9
0.32433	9
0.32800	7
0.33167	3
0.33533	2
0.33900	4
0.34267	7
0.34633	9
0.35000	10
0.35367	9
0.35733	6
0.36100	4
0.36467	4
0.36833	6
0.37200	5
0.37567	5
0.37933	6
0.38300	8
0.38667	10
0.39033	12
0.39400	13
0.39767	14
0.40133	13
0.40500	13
0.40867	13
0.41233	11
0.41600	13
0.41967	15
0.42333	16
0.42700	14
0.43067	12
0.43433	10
0.43800	9
0.44167	7
0.44533	9
0.44900	11
0.45267	12
0.45633	13
0.46000	13
0.46367	15
0.46733	17
0.47100	16
0.47467	15
0.47833	16
0.48200	17
0.48567	17
0.48933	14
0.49300	13
0.49667	14
0.50033	16
0.50400	16
0.50767	16
0.51133	16
0.51500	14
0.51867	11
0.52233	8
0.52600	9
0.52967	12
0.53333	14
0.53700	15
0.54067	16
0.54433	18
0.54800	16
0.55167	14
0.55533	14
0.55900	15
0.56267	18
0.56633	21
0.57000	21
0.57367	19
0.57733	16
0.58100	15
0.58467	14
0.58833	13
0.59200	12
0.59567	12
0.59933	12
0.60300	14
0.60667	16
0.61033	16
0.61400	15
0.61767	15
0.62133	17
0.62500	18
0.62867	18
0.63233	18
0.63600	18
0.63967	18
0.64333	17
0.64700	16
0.65067	18
0.65433	18
0.65800	20
0.66167	21
0.66533	20
0.66900	20
0.67267	18
0.67633	17
0.68000	16
0.68367	13
0.68733	13
0.69100	14
0.69467	14
0.69833	16
0.70200	17
0.70567	18
0.70933	19
0.71300	18
0.71667	15
0.72033	15
0.72400	15
0.72767	14
0.73133	15
0.73500	16
0.73867	17
0.74233	18
0.74600	16
0.74967	17
0.75333	19
0.75700	22
0.76067	23
0.76433	24
0.76800	23
0.77167	23
0.77533	21
0.77900	18
0.78267	15
0.78633	11
0.79000	11
0.79367	15
0.79733	16
0.80100	15
0.80467	14
0.80833	13
0.81200	13
0.81567	14
0.81933	16
0.82300	19
0.82667	22
0.83033	23
0.83400	22
0.83767	20
0.84133	18
0.84500	16
0.84867	16
0.85233	15
0.85600	13
0.85967	13
0.86333	14
0.86700	14
0.87067	16
0.87433	17
0.87800	18
0.88167	17
0.88533	16
0.88900	15
0.89267	15
0.89633	14
0.90000	13
0.90367	15
0.90733	18
0.91100	19
0.91467	18
0.91833	17
0.92200	15
0.92567	14
0.92933	14
0.93300	14
0.93667	16
0.94033	17
0.94400	18
0.94767	18
0.95133	17
0.95500	18
0.95867	18
0.96233	18
0.96600	17
0.96967	18
0.97333	19
0.97700	22
0.98067	22
0.98433	22
0.98800	21
0.99167	18
0.99533	17
0.99900	16
1.00267	16
1.00633	15
1.01000	14
1.01367	14
1.01733	16
1.02100	15
1.02467	14
1.02833	16
1.03200	20
1.03567	21
1.03933	20
1.04300	21
1.04667	21
1.05033	22
1.05400	19
1.05767	17
1.06133	17
1.06500	17
1.06867	18
1.07233	18
1.07600	18
1.07967	14
1.08333	15
1.08700	16
1.09067	17
1.09433	18
1.09800	18
1.10167	17
1.10533	15
1.10900	17
1.11267	20
1.11633	19
1.12000	20
1.12367	20
1.12733	20
1.13100	20
1.13467	20
1.13833	19
1.14200	16
1.14567	13
1.14933	11
1.15300	12
1.15667	14
1.16033	17
1.16400	19
1.16767	20
1.17133	18
1.17500	16
1.17867	15
1.18233	17
1.18600	20
1.18967	20
1.19333	20
1.19700	20
1.20067	19
1.20433	21
1.20800	24
1.21167	23
1.21533	19
1.21900	15
1.22267	13
1.22633	12
1.23000	11
1.23367	14
1.23733	15
1.24100	16
1.24467	17
1.24833	16
1.25200	15
1.25567	14
1.25933	12
1.26300	12
1.26667	11
1.27033	9
1.27400	9
1.27767	12
1.28133	13
1.28500	15
1.28867	16
1.29233	18
1.29600	18
1.29967	21
1.30333	21
1.30700	16
1.31067	12
1.31433	10
1.31800	9
1.32167	11
1.32533	12
1.32900	13
1.33267	12
1.33633	11
1.34000	9
1.34367	8
1.34733	9
1.35100	11
1.35467	12
1.35833	10
1.36200	8
1.36567	7
1.36933	8
1.37300	8
1.37667	6
1.38033	7
1.38400	9
1.38767	12
1.39133	14
1.39500	14
1.39867	15
1.40233	15
1.40600	15
1.40967	15
1.41333	16
1.41700	16
1.42067	17
1.42433	16
1.42800	13
1.43167	14
1.43533	14
1.43900	14
1.44267	15
1.44633	16
1.45000	18
1.45367	20
1.45733	19
1.46100	15
1.46467	12
1.46833	12
1.47200	15
1.47567	16
1.47933	15
1.48300	14
1.48667	12
1.49033	14
1.49400	15
1.49767	15
1.50133	16
1.50500	14
1.50867	11
1.51233	10
1.51600	9
1.51967	8
1.52333	10
1.52700	11
1.53067	12
1.53433	13
1.53800	14
1.54167	17
1.54533	18
1.54900	18
1.55267	14
1.55633	13
1.56000	13
1.56367	14
1.56733	15
1.57100	14
1.57467	14
1.57833	13
1.58200	10
1.58567	7
1.58933	7
1.59300	7
1.59667	9
1.60033	11
1.60400	15
1.60767	18
1.61133	19
1.61500	19
1.61867	18
1.62233	17
1.62600	18
1.62967	19
1.63333	19
1.63700	19
1.64067	19
1.64433	18
1.64800	21
1.65167	22
1.65533	21
1.65900	21
1.66267	20
1.66633	19
1.67000	19
1.67367	19
1.67733	22
1.68100	24
1.68467	24
1.68833	24
1.69200	23
1.69567	23
1.69933	21
1.70300	21
1.70667	24
1.71033	26
1.71400	27
1.71767	26
1.72133	25
1.72500	25
1.72867	24
1.73233	24
1.73600	24
1.73967	25
1.74333	25
1.74700	26
1.75067	27
1.75433	27
1.75800	27
1.76167	25
1.76533	28
1.76900	32
1.77267	33
1.77633	33
1.78000	32
1.78367	31
1.78733	31
1.79100	31
1.79467	30
1.79833	28
1.80200	30
1.80567	31
1.80933	32
1.81300	31
1.81667	31
1.82033	33
1.82400	34
1.82767	33
1.83133	34
1.83500	36
1.83867	38
1.84233	38
1.84600	39
1.84967	39
1.85333	39
1.85700	40
1.86067	42
1.86433	43
1.86800	44
1.87167	44
1.87533	44
1.87900	43
1.88267	42
1.88633	41
1.89000	42
1.89367	42
1.89733	43
1.90100	43
1.90467	42
1.90833	44
1.91200	47
1.91567	47
1.91933	44
1.92300	44
1.92667	45
1.93033	45
1.93400	46
1.93767	47
1.94133	47
1.94500	48
1.94867	48
1.95233	50
1.95600	53
1.95967	54
1.96333	53
1.96700	53
1.97067	51
1.97433	52
1.97800	51
1.98167	50
1.98533	51
1.98900	52
1.99267	52
1.99633	53
2.00000	57
2.00367	60
2.00733	62
2.01100	64
2.01467	64
2.01833	64
2.02200	63
2.02567	65
2.02933	67
2.03300	69
2.03667	70
2.04033	72
2.04400	72
2.04767	69
2.05133	68
2.05500	70
2.05867	71
2.06233	73
2.06600	76
2.06967	77
2.07333	79
2.07700	79
2.08067	79
2.08433	78
2.08800	77
2.09167	77
2.09533	81
2.09900	83
2.10267	86
2.10633	88
2.11000	87
2.11367	85
2.11733	86
2.12100	87
2.12467	88
2.12833	89
2.13200	90
2.13567	92
2.13933	93
2.14300	95
2.14667	99
2.15033	101
2.15400	102
2.15767	102
2.16133	100
2.16500	101
2.16867	101
2.17233	101
2.17600	101
2.17967	102
2.18333	101
2.18700	102
2.19067	104
2.19433	107
2.19800	110
2.20167	110
2.20533	113
2.20900	116
2.21267	119
2.21633	117
2.22000	116
2.22367	116
2.22733	118
2.23100	118
2.23467	117
2.23833	118
2.24200	122
2.24567	124
2.24933	124
2.25300	125
2.25667	125
2.26033	126
2.26400	129
2.26767	129
2.27133	131
2.27500	133
2.27867	136
2.28233	137
2.28600	138
2.28967	139
2.29333	140
2.29700	141
2.30067	142
2.30433	142
2.30800	141
2.31167	141
2.31533	143
2.31900	142
2.32267	141
2.32633	139
2.33000	139
2.33367	143
2.33733	149
2.34100	151
2.34467	149
2.34833	150
2.35200	152
2.35567	153
2.35933	154
2.36300	157
2.36667	158
2.37033	160
2.37400	161
2.37767	162
2.38133	163
2.38500	163
2.38867	161
2.39233	159
2.39600	157
2.39967	159
2.40333	162
2.40700	164
2.41067	167
2.41433	169
2.41800	174
2.42167	175
2.42533	175
2.42900	174
2.43267	174
2.43633	176
2.44000	178
2.44367	200
2.44733	259
2.45100	327
2.45467	374
2.45833	385
2.46200	373
2.46567	357
2.46933	345
2.47300	329
2.47667	307
2.48033	282
2.48400	255
2.48767	232
2.49133	215
2.49500	199
2.49867	192
2.50233	194
2.50600	196
2.50967	199
2.51333	201
2.51700	204
2.52067	200
2.52433	189
2.52800	174
2.53167	158
2.53533	143
2.53900	129
2.54267	116
2.54633	107
2.55000	100
2.55367	96
2.55733	94
2.56100	93
2.56467	93
2.56833	92
2.57200	91
2.57567	92
2.57933	96
2.58300	102
2.58667	104
2.59033	107
2.59400	115
2.59767	123
2.60133	133
2.60500	142
2.60867	145
2.61233	143
2.61600	134
2.61967	117
2.62333	95
2.62700	67
2.63067	38
2.63433	4
2.63800	-33
2.64167	-66
2.64533	-93
2.64900	-119
2.65267	-142
2.65633	-159
2.66000	-170
2.66367	-175
2.66733	-178
2.67100	-176
2.67467	-170
2.67833	-160
2.68200	-149
2.68567	-139
2.68933	-129
2.69300	-121
2.69667	-113
2.70033	-103
2.70400	-93
2.70767	-86
2.71133	-81
2.71500	-74
2.71867	-69
2.72233	-62
2.72600	-55
2.72967	-48
2.73333	-42
2.73700	-36
2.74067	-31
2.74433	-26
2.74800	-24
2.75167	-21
2.75533	-18
2.75900	-16
2.76267	-14
2.76633	-9
2.77000	-4
2.77367	2
2.77733	9
2.78100	15
2.78467	19
2.78833	23
2.79200	30
2.79567	36
2.79933	40
2.80300	44
2.80667	48
2.81033	51
2.81400	54
2.81767	55
2.82133	56
2.82500	60
2.82867	64
2.83233	70
2.83600	81
2.83967	105
2.84333	155
2.84700	251
2.85067	416
2.85433	676
2.85800	1045
2.86167	1525
2.86533	2098
2.86900	2736
2.87267	3393
2.87633	4009
2.88000	4537
2.88367	4928
2.88733	5142
2.89100	5199
2.89467	5132
2.89833	4967
2.90200	4722
2.90567	4421
2.90933	4082
2.91300	3728
2.91667	3377
2.92033	3044
2.92400	2737
2.92767	2460
2.93133	2215
2.93500	2003
2.93867	1817
2.94233	1657
2.94600	1517
2.94967	1395
2.95333	1287
2.95700	1190
2.96067	1103
2.96433	1027
2.96800	959
2.97167	899
2.97533	847
2.97900	803
2.98267	765
2.98633	732
2.99000	706
2.99367	685
2.99733	666
3.00100	651
3.00467	642
3.00833	635
3.01200	629
3.01567	623
3.01933	621
3.02300	621
3.02667	620
3.03033	617
3.03400	616
3.03767	616
3.04133	614
3.04500	615
3.04867	615
3.05233	614
3.05600	615
3.05967	618
3.06333	621
3.06700	621
3.07067	621
3.07433	622
3.07800	624
3.08167	626
3.08533	627
3.08900	631
3.09267	633
3.09633	634
3.10000	635
3.10367	637
3.10733	639
3.11100	639
3.11467	639
3.11833	639
3.12200	641
3.12567	645
3.12933	650
3.13300	653
3.13667	655
3.14033	660
3.14400	663
3.14767	666
3.15133	668
3.15500	668
3.15867	671
3.16233	672
3.16600	671
3.16967	669
3.17333	670
3.17700	670
3.18067	670
3.18433	670
3.18800	670
3.19167	671
3.19533	675
3.19900	677
3.20267	678
3.20633	679
3.21000	678
3.21367	677
3.21733	676
3.22100	676
3.22467	675
3.22833	673
3.23200	671
3.23567	670
3.23933	667
3.24300	664
3.24667	662
3.25033	662
3.25400	660
3.25767	658
3.26133	657
3.26500	656
3.26867	654
3.27233	647
3.27600	643
3.27967	642
3.28333	640
3.28700	636
3.29067	633
3.29433	628
3.29800	624
3.30167	621
3.30533	619
3.30900	616
3.31267	612
3.31633	607
3.32000	601
3.32367	595
3.32733	592
3.33100	589
3.33467	588
3.33833	585
3.34200	581
3.34567	578
3.34933	577
3.35300	574
3.35667	571
3.36033	564
3.36400	556
3.36767	550
3.37133	546
3.37500	543
3.37867	541
3.38233	540
3.38600	536
3.38967	532
3.39333	527
3.39700	525
3.40067	521
3.40433	516
3.40800	512
3.41167	507
3.41533	502
3.41900	497
3.42267	495
3.42633	492
3.43000	489
3.43367	485
3.43733	481
3.44100	480
3.44467	478
3.44833	477
3.45200	476
3.45567	475
3.45933	471
3.46300	467
3.46667	464
3.47033	462
3.47400	458
3.47767	452
3.48133	449
3.48500	447
3.48867	448
3.49233	449
3.49600	448
3.49967	443
3.50333	438
3.50700	435
3.51067	435
3.51433	435
3.51800	433
3.52167	431
3.52533	428
3.52900	426
3.53267	423
3.53633	421
3.54000	418
3.54367	416
3.54733	415
3.55100	411
3.55467	408
3.55833	404
3.56200	400
3.56567	398
3.56933	397
3.57300	395
3.57667	394
3.58033	394
3.58400	394
3.58767	391
3.59133	388
3.59500	384
3.59867	380
3.60233	378
3.60600	377
3.60967	376
3.61333	377
3.61700	376
3.62067	371
3.62433	365
3.62800	360
3.63167	358
3.63533	355
3.63900	356
3.64267	358
3.64633	355
3.65000	353
3.65367	351
3.65733	350
3.66100	348
3.66467	347
3.66833	346
3.67200	349
3.67567	348
3.67933	345
3.68300	341
3.68667	340
3.69033	341
3.69400	341
3.69767	340
3.70133	339
3.70500	339
3.70867	338
3.71233	336
3.71600	334
3.71967	334
3.72333	332
3.72700	328
3.73067	326
3.73433	328
3.73800	328
3.74167	327
3.74533	327
3.74900	328
3.75267	326
3.75633	326
3.76000	324
3.76367	322
3.76733	321
3.77100	319
3.77467	316
3.77833	313
3.78200	313
3.78567	312
3.78933	312
3.79300	311
3.79667	311
3.80033	308
3.80400	306
3.80767	305
3.81133	304
3.81500	301
3.81867	299
3.82233	298
3.82600	298
3.82967	297
3.83333	296
3.83700	297
3.84067	295
3.84433	295
3.84800	297
3.85167	297
3.85533	297
3.85900	295
3.86267	294
3.86633	294
3.87000	294
3.87367	293
3.87733	290
3.88100	288
3.88467	288
3.88833	288
3.89200	287
3.89567	285
3.89933	282
3.90300	281
3.90667	279
3.91033	279
3.91400	279
3.91767	277
3.92133	278
3.92500	281
3.92867	279
3.93233	277
3.93600	276
3.93967	273
3.94333	271
3.94700	269
3.95067	269
3.95433	270
3.95800	272
3.96167	273
3.96533	275
3.96900	275
3.97267	273
3.97633	269
3.98000	267
3.98367	264
3.98733	263
3.99100	263
3.99467	262
3.99833	261

[Status Trace (Column Oven Temperature)]
Interval(msec)	1000
# of Points	240
Start Time(min)	0.002
End Time(min)	3.985
Intensity Units	
Intensity Multiplier	1
R.Time (min)	Intensity
0.00203	35.00
0.01870	35.00
0.03537	35.01
0.05203	35.02
0.06870	35.02
0.08537	35.01
0.10203	35.01
0.11870	35.01
0.13537	35.01
0.15203	35.01
0.16870	35.01
0.18537	35.01
0.20203	35.00
0.21870	35.00
0.23537	35.00
0.25203	35.00
0.26870	35.00
0.28537	35.00
0.30203	35.00
0.31870	35.00
0.33537	35.01
0.35203	35.01
0.36870	35.02
0.38537	35.01
0.40203	35.01
0.41870	35.01
0.43537	35.01
0.45203	35.01
0.46870	35.01
0.48537	35.01
0.50203	35.01
0.51870	35.01
0.53537	35.01
0.55203	35.01
0.56870	35.01
0.58537	35.01
0.60203	35.00
0.61870	34.99
0.63537	34.99
0.65203	34.99
0.66870	34.98
0.68537	34.99
0.70203	34.99
0.71870	35.00
0.73537	35.00
0.75203	35.02
0.76870	35.02
0.78537	35.02
0.80203	35.01
0.81870	35.00
0.83537	35.00
0.85203	35.00
0.86870	35.00
0.88537	35.00
0.90203	35.00
0.91870	35.00
0.93537	35.00
0.95203	35.00
0.96870	34.99
0.98537	34.99
1.00203	34.98
1.01870	34.98
1.03537	34.99
1.05203	35.00
1.06870	35.00
1.08537	34.99
1.10203	34.99
1.11870	34.98
1.13537	34.99
1.15203	34.99
1.16870	34.99
1.18537	34.99
1.20203	35.00
1.21870	35.00
1.23537	34.99
1.25203	34.98
1.26870	34.98
1.28537	34.98
1.30203	34.99
1.31870	34.99
1.33537	34.99
1.35203	34.99
1.36870	35.00
1.38537	35.00
1.40203	35.00
1.41870	35.00
1.43537	35.01
1.45203	35.01
1.46870	35.01
1.48537	35.02
1.50203	35.01
1.51870	35.02
1.53537	35.00
1.55203	35.00
1.56870	34.99
1.58537	35.00
1.60203	35.03
1.61870	35.13
1.63537	35.30
1.65203	35.52
1.66870	35.83
1.68537	36.21
1.70203	36.57
1.71870	36.90
1.73537	37.22
1.75203	37.57
1.76870	37.89
1.78537	38.21
1.80203	38.55
1.81870	38.88
1.83537	39.22
1.85203	39.54
1.86870	39.87
1.88537	40.20
1.90203	40.53
1.91870	40.85
1.93537	41.17
1.95203	41.52
1.96870	41.84
1.98537	42.18
2.00203	42.51
2.01870	42.82
2.03537	43.13
2.05203	43.47
2.06870	43.80
2.08537	44.13
2.10203	44.45
2.11870	44.77
2.13537	45.10
2.15203	45.42
2.16870	45.75
2.18537	46.06
2.20203	46.40
2.21870	46.73
2.23537	47.06
2.25203	47.39
2.26870	47.72
2.28537	48.03
2.30203	48.39
2.31870	48.74
2.33537	49.06
2.35203	49.35
2.36870	49.55
2.38537	49.65
2.40203	49.65
2.41870	49.65
2.43537	49.66
2.45203	49.68
2.46870	49.70
2.48537	49.70
2.50203	49.71
2.51870	49.73
2.53537	49.71
2.55203	49.74
2.56870	49.76
2.58537	49.77
2.60203	49.79
2.61870	49.80
2.63537	49.81
2.65203	49.82
2.66870	49.83
2.68537	49.84
2.70203	49.84
2.71870	49.86
2.73537	49.85
2.75203	49.84
2.76870	49.85
2.78537	49.87
2.80203	49.87
2.81870	49.87
2.83537	49.87
2.85203	49.87
2.86870	49.87
2.88537	49.87
2.90203	49.88
2.91870	49.88
2.93537	49.89
2.95203	49.90
2.96870	49.92
2.98537	49.94
3.00203	49.96
3.01870	49.97
3.03537	49.99
3.05203	50.00
3.06870	50.00
3.08537	50.01
3.10203	50.02
3.11870	50.03
3.13537	50.04
3.15203	50.05
3.16870	50.07
3.18537	50.07
3.20203	50.07
3.21870	50.08
3.23537	50.08
3.25203	50.07
3.26870	50.08
3.28537	50.07
3.30203	50.08
3.31870	50.08
3.33537	50.08
3.35203	50.09
3.36870	50.10
3.38537	50.10
3.40203	50.10
3.41870	50.10
3.43537	50.09
3.45203	50.08
3.46870	50.08
3.48537	50.07
3.50203	50.07
3.51870	50.08
3.53537	50.07
3.55203	50.07
3.56870	50.07
3.58537	50.06
3.60203	50.06
3.61870	50.05
3.63537	50.06
3.65203	50.05
3.66870	50.05
3.68537	50.06
3.70203	50.06
3.71870	50.05
3.73537	50.06
3.75203	50.05
3.76870	50.06
3.78537	50.06
3.80203	50.06
3.81870	50.06
3.83537	50.06
3.85203	50.06
3.86870	50.07
3.88537	50.06
3.90203	50.06
3.91870	50.05
3.93537	50.05
3.95203	50.05
3.96870	50.05
3.98537	50.06

[Status Trace (Injection Unit Temperature)]
Interval(msec)	1000
# of Points	240
Start Time(min)	0.002
End Time(min)	3.985
Intensity Units	
Intensity Multiplier	1
R.Time (min)	Intensity
0.00203	99.98
0.01870	99.98
0.03537	99.98
0.05203	99.98
0.06870	99.98
0.08537	99.98
0.10203	99.98
0.11870	99.98
0.13537	99.98
0.15203	99.98
0.16870	99.98
0.18537	99.98
0.20203	99.98
0.21870	99.98
0.23537	99.98
0.25203	99.98
0.26870	99.98
0.28537	99.98
0.30203	99.99
0.31870	99.98
0.33537	99.99
0.35203	99.98
0.36870	99.98
0.38537	99.99
0.40203	99.99
0.41870	99.99
0.43537	99.99
0.45203	99.99
0.46870	99.99
0.48537	99.99
0.50203	99.99
0.51870	99.98
0.53537	99.99
0.55203	99.99
0.56870	99.99
0.58537	99.99
0.60203	99.99
0.61870	99.99
0.63537	99.99
0.65203	99.99
0.66870	99.99
0.68537	99.99
0.70203	99.98
0.71870	99.99
0.73537	99.99
0.75203	99.99
0.76870	99.99
0.78537	99.98
0.80203	99.98
0.81870	99.98
0.83537	99.98
0.85203	99.99
0.86870	99.98
0.88537	99.98
0.90203	99.99
0.91870	99.98
0.93537	99.98
0.95203	99.98
0.96870	99.98
0.98537	99.98
1.00203	99.98
1.01870	99.98
1.03537	99.99
1.05203	99.98
1.06870	99.98
1.08537	99.98
1.10203	99.98
1.11870	99.98
1.13537	99.98
1.15203	99.98
1.16870	99.98
1.18537	99.98
1.20203	99.98
1.21870	99.99
1.23537	99.98
1.25203	99.98
1.26870	99.99
1.28537	99.99
1.30203	99.99
1.31870	99.99
1.33537	99.99
1.35203	99.99
1.36870	99.99
1.38537	99.99
1.40203	99.99
1.41870	99.99
1.43537	99.99
1.45203	99.99
1.46870	99.99
1.48537	99.99
1.50203	99.99
1.51870	99.99
1.53537	99.99
1.55203	99.99
1.56870	99.99
1.58537	99.99
1.60203	99.99
1.61870	99.99
1.63537	99.99
1.65203	99.99
1.66870	99.99
1.68537	99.99
1.70203	99.99
1.71870	99.99
1.73537	99.99
1.75203	99.99
1.76870	99.99
1.78537	99.99
1.80203	99.99
1.81870	99.99
1.83537	99.99
1.85203	99.99
1.86870	99.99
1.88537	99.99
1.90203	99.99
1.91870	99.98
1.93537	99.99
1.95203	99.99
1.96870	99.98
1.98537	99.98
2.00203	99.99
2.01870	99.98
2.03537	99.99
2.05203	99.98
2.06870	99.98
2.08537	99.98
2.10203	99.98
2.11870	99.98
2.13537	99.98
2.15203	99.98
2.16870	99.98
2.18537	99.98
2.20203	99.97
2.21870	99.97
2.23537	99.98
2.25203	99.98
2.26870	99.97
2.28537	99.97
2.30203	99.97
2.31870	99.97
2.33537	99.97
2.35203	99.97
2.36870	99.97
2.38537	99.97
2.40203	99.97
2.41870	99.97
2.43537	99.97
2.45203	99.97
2.46870	99.97
2.48537	99.97
2.50203	99.97
2.51870	99.97
2.53537	99.97
2.55203	99.98
2.56870	99.98
2.58537	99.98
2.60203	99.98
2.61870	99.98
2.63537	99.98
2.65203	99.98
2.66870	99.98
2.68537	99.98
2.70203	99.99
2.71870	99.99
2.73537	99.99
2.75203	99.99
2.76870	99.99
2.78537	99.99
2.80203	99.99
2.81870	100.00
2.83537	100.00
2.85203	100.00
2.86870	100.00
2.88537	100.00
2.90203	100.00
2.91870	100.00
2.93537	100.01
2.95203	100.01
2.96870	100.01
2.98537	100.01
3.00203	100.01
3.01870	100.01
3.03537	100.01
3.05203	100.01
3.06870	100.02
3.08537	100.01
3.10203	100.02
3.11870	100.02
3.13537	100.02
3.15203	100.02
3.16870	100.02
3.18537	100.02
3.20203	100.03
3.21870	100.03
3.23537	100.03
3.25203	100.03
3.26870	100.03
3.28537	100.03
3.30203	100.03
3.31870	100.03
3.33537	100.03
3.35203	100.03
3.36870	100.03
3.38537	100.03
3.40203	100.03
3.41870	100.03
3.43537	100.03
3.45203	100.04
3.46870	100.04
3.48537	100.04
3.50203	100.04
3.51870	100.04
3.53537	100.04
3.55203	100.04
3.56870	100.04
3.58537	100.04
3.60203	100.04
3.61870	100.04
3.63537	100.04
3.65203	100.03
3.66870	100.04
3.68537	100.04
3.70203	100.05
3.71870	100.04
3.73537	100.05
3.75203	100.04
3.76870	100.05
3.78537	100.05
3.80203	100.05
3.81870	100.05
3.83537	100.05
3.85203	100.04
3.86870	100.05
3.88537	100.05
3.90203	100.05
3.91870	100.04
3.93537	100.05
3.95203	100.05
3.96870	100.05
3.98537	100.05

[Status Trace (Carrier Gas Pressure)]
Interval(msec)	1000
# of Points	240
Start Time(min)	0.002
End Time(min)	3.985
Intensity Units	
Intensity Multiplier	1
R.Time (min)	Intensity
0.00203	58.00
0.01870	56.39
0.03537	56.27
0.05203	58.43
0.06870	59.90
0.08537	58.34
0.10203	57.97
0.11870	58.00
0.13537	58.01
0.15203	58.01
0.16870	58.00
0.18537	58.00
0.20203	58.00
0.21870	58.00
0.23537	58.00
0.25203	58.00
0.26870	58.00
0.28537	58.00
0.30203	58.00
0.31870	58.00
0.33537	58.00
0.35203	58.00
0.36870	58.00
0.38537	58.00
0.40203	58.00
0.41870	58.00
0.43537	58.00
0.45203	58.00
0.46870	58.00
0.48537	58.00
0.50203	58.00
0.51870	58.00
0.53537	58.00
0.55203	58.00
0.56870	58.00
0.58537	58.00
0.60203	58.00
0.61870	58.00
0.63537	58.00
0.65203	58.00
0.66870	58.00
0.68537	58.00
0.70203	58.00
0.71870	58.00
0.73537	58.00
0.75203	58.00
0.76870	58.00
0.78537	58.00
0.80203	58.00
0.81870	58.00
0.83537	58.00
0.85203	58.00
0.86870	58.00
0.88537	58.00
0.90203	58.00
0.91870	58.00
0.93537	58.00
0.95203	58.00
0.96870	58.00
0.98537	58.00
1.00203	58.00
1.01870	58.00
1.03537	58.00
1.05203	58.00
1.06870	58.00
1.08537	58.00
1.10203	58.00
1.11870	58.00
1.13537	58.00
1.15203	58.00
1.16870	58.00
1.18537	58.00
1.20203	58.00
1.21870	58.00
1.23537	58.00
1.25203	58.00
1.26870	58.00
1.28537	58.00
1.30203	58.00
1.31870	58.00
1.33537	58.00
1.35203	58.00
1.36870	58.00
1.38537	58.00
1.40203	58.00
1.41870	58.00
1.43537	58.00
1.45203	58.00
1.46870	58.00
1.48537	58.00
1.50203	58.00
1.51870	58.00
1.53537	58.00
1.55203	58.00
1.56870	58.00
1.58537	58.00
1.60203	58.00
1.61870	58.00
1.63537	58.00
1.65203	58.00
1.66870	58.01
1.68537	58.01
1.70203	58.00
1.71870	58.00
1.73537	58.00
1.75203	58.00
1.76870	58.00
1.78537	58.00
1.80203	58.00
1.81870	58.00
1.83537	58.00
1.85203	58.00
1.86870	58.00
1.88537	58.00
1.90203	58.00
1.91870	58.00
1.93537	58.00
1.95203	58.00
1.96870	58.00
1.98537	58.00
2.00203	58.00
2.01870	58.00
2.03537	58.00
2.05203	58.00
2.06870	58.00
2.08537	58.00
2.10203	58.00
2.11870	58.00
2.13537	58.00
2.15203	58.00
2.16870	58.00
2.18537	58.00
2.20203	58.00
2.21870	58.00
2.23537	58.00
2.25203	58.00
2.26870	58.00
2.28537	58.00
2.30203	58.00
2.31870	58.00
2.33537	58.00
2.35203	58.00
2.36870	58.00
2.38537	57.99
2.40203	57.99
2.41870	58.00
2.43537	58.00
2.45203	58.00
2.46870	58.00
2.48537	58.00
2.50203	58.00
2.51870	58.01
2.53537	57.99
2.55203	58.00
2.56870	58.00
2.58537	58.00
2.60203	58.00
2.61870	58.00
2.63537	58.00
2.65203	58.00
2.66870	58.00
2.68537	58.00
2.70203	58.00
2.71870	58.00
2.73537	58.00
2.75203	58.00
2.76870	58.00
2.78537	58.00
2.80203	58.00
2.81870	58.00
2.83537	58.00
2.85203	58.00
2.86870	58.00
2.88537	58.00
2.90203	58.00
2.91870	58.00
2.93537	58.00
2.95203	58.00
2.96870	58.00
2.98537	58.00
3.00203	58.00
3.01870	58.00
3.03537	58.00
3.05203	58.00
3.06870	58.00
3.08537	58.00
3.10203	58.00
3.11870	58.00
3.13537	58.00
3.15203	58.00
3.16870	58.00
3.18537	58.00
3.20203	58.00
3.21870	58.00
3.23537	58.00
3.25203	58.00
3.26870	58.00
3.28537	58.00
3.30203	58.00
3.31870	58.00
3.33537	58.00
3.35203	58.00
3.36870	58.00
3.38537	58.00
3.40203	58.00
3.41870	58.00
3.43537	58.00
3.45203	58.00
3.46870	58.00
3.48537	58.00
3.50203	58.00
3.51870	58.00
3.53537	58.00
3.55203	58.00
3.56870	58.00
3.58537	58.00
3.60203	58.00
3.61870	58.00
3.63537	58.00
3.65203	58.00
3.66870	58.00
3.68537	58.00
3.70203	58.00
3.71870	58.00
3.73537	58.00
3.75203	58.00
3.76870	58.00
3.78537	58.00
3.80203	58.00
3.81870	58.00
3.83537	58.00
3.85203	58.00
3.86870	58.00
3.88537	58.00
3.90203	58.00
3.91870	58.00
3.93537	58.00
3.95203	58.00
3.96870	58.00
3.98537	58.00

[Status Trace (Carrier Gas Flow)]
Interval(msec)	1000
# of Points	240
Start Time(min)	0.002
End Time(min)	3.985
Intensity Units	
Intensity Multiplier	1
R.Time (min)	Intensity
0.00203	34.52
0.01870	34.45
0.03537	34.55
0.05203	34.55
0.06870	34.49
0.08537	34.52
0.10203	34.52
0.11870	34.52
0.13537	34.52
0.15203	34.52
0.16870	34.52
0.18537	34.52
0.20203	34.52
0.21870	34.53
0.23537	34.52
0.25203	34.52
0.26870	34.52
0.28537	34.52
0.30203	34.52
0.31870	34.52
0.33537	34.52
0.35203	34.52
0.36870	34.52
0.38537	34.52
0.40203	34.52
0.41870	34.52
0.43537	34.52
0.45203	34.52
0.46870	34.52
0.48537	34.52
0.50203	34.52
0.51870	34.52
0.53537	34.52
0.55203	34.52
0.56870	34.52
0.58537	34.52
0.60203	34.52
0.61870	34.52
0.63537	34.52
0.65203	34.52
0.66870	34.52
0.68537	34.52
0.70203	34.52
0.71870	34.52
0.73537	34.52
0.75203	34.52
0.76870	34.52
0.78537	34.52
0.80203	34.52
0.81870	34.52
0.83537	34.52
0.85203	34.52
0.86870	34.52
0.88537	34.52
0.90203	34.52
0.91870	34.52
0.93537	34.52
0.95203	34.52
0.96870	34.52
0.98537	34.52
1.00203	34.52
1.01870	34.52
1.03537	34.52
1.05203	34.52
1.06870	34.52
1.08537	34.52
1.10203	34.52
1.11870	34.52
1.13537	34.52
1.15203	34.52
1.16870	34.51
1.18537	34.52
1.20203	34.52
1.21870	34.52
1.23537	34.52
1.25203	34.52
1.26870	34.52
1.28537	34.52
1.30203	34.52
1.31870	34.52
1.33537	34.52
1.35203	34.52
1.36870	34.52
1.38537	34.52
1.40203	34.52
1.41870	34.52
1.43537	34.52
1.45203	34.52
1.46870	34.52
1.48537	34.53
1.50203	34.52
1.51870	34.50
1.53537	34.52
1.55203	34.52
1.56870	34.52
1.58537	34.52
1.60203	34.52
1.61870	34.52
1.63537	34.52
1.65203	34.52
1.66870	34.52
1.68537	34.52
1.70203	34.52
1.71870	34.52
1.73537	34.52
1.75203	34.52
1.76870	34.52
1.78537	34.52
1.80203	34.52
1.81870	34.52
1.83537	34.52
1.85203	34.52
1.86870	34.52
1.88537	34.51
1.90203	34.52
1.91870	34.52
1.93537	34.52
1.95203	34.52
1.96870	34.52
1.98537	34.52
2.00203	34.52
2.01870	34.52
2.03537	34.52
2.05203	34.52
2.06870	34.52
2.08537	34.54
2.10203	34.52
2.11870	34.52
2.13537	34.52
2.15203	34.52
2.16870	34.52
2.18537	34.52
2.20203	34.52
2.21870	34.52
2.23537	34.51
2.25203	34.53
2.26870	34.52
2.28537	34.52
2.30203	34.52
2.31870	34.52
2.33537	34.52
2.35203	34.53
2.36870	34.52
2.38537	34.52
2.40203	34.52
2.41870	34.52
2.43537	34.52
2.45203	34.52
2.46870	34.52
2.48537	34.52
2.50203	34.52
2.51870	34.52
2.53537	34.52
2.55203	34.52
2.56870	34.52
2.58537	34.52
2.60203	34.52
2.61870	34.52
2.63537	34.52
2.65203	34.52
2.66870	34.52
2.68537	34.52
2.70203	34.52
2.71870	34.52
2.73537	34.52
2.75203	34.52
2.76870	34.52
2.78537	34.52
2.80203	34.52
2.81870	34.52
2.83537	34.52
2.85203	34.52
2.86870	34.52
2.88537	34.52
2.90203	34.52
2.91870	34.52
2.93537	34.52
2.95203	34.52
2.96870	34.52
2.98537	34.52
3.00203	34.52
3.01870	34.52
3.03537	34.52
3.05203	34.52
3.06870	34.52
3.08537	34.52
3.10203	34.52
3.11870	34.52
3.13537	34.52
3.15203	34.52
3.16870	34.52
3.18537	34.52
3.20203	34.52
3.21870	34.51
3.23537	34.52
3.25203	34.52
3.26870	34.52
3.28537	34.52
3.30203	34.52
3.31870	34.51
3.33537	34.53
3.35203	34.52
3.36870	34.52
3.38537	34.51
3.40203	34.51
3.41870	34.51
3.43537	34.52
3.45203	34.51
3.46870	34.52
3.48537	34.52
3.50203	34.52
3.51870	34.52
3.53537	34.52
3.55203	34.52
3.56870	34.52
3.58537	34.52
3.60203	34.52
3.61870	34.52
3.63537	34.52
3.65203	34.52
3.66870	34.52
3.68537	34.52
3.70203	34.52
3.71870	34.52
3.73537	34.52
3.75203	34.52
3.76870	34.52
3.78537	34.52
3.80203	34.52
3.81870	34.52
3.83537	34.52
3.85203	34.52
3.86870	34.52
3.88537	34.52
3.90203	34.52
3.91870	34.52
3.93537	34.52
3.95203	34.52
3.96870	34.52
3.98537	34.52

[Status Trace (Column Flow)]
Interval(msec)	1000
# of Points	240
Start Time(min)	0.002
End Time(min)	3.985
Intensity Units	
Intensity Multiplier	1
R.Time (min)	Intensity
0.00203	5.48
0.01870	5.30
0.03537	5.28
0.05203	5.53
0.06870	5.71
0.08537	5.52
0.10203	5.48
0.11870	5.48
0.13537	5.49
0.15203	5.48
0.16870	5.48
0.18537	5.48
0.20203	5.48
0.21870	5.48
0.23537	5.48
0.25203	5.48
0.26870	5.48
0.28537	5.48
0.30203	5.48
0.31870	5.48
0.33537	5.48
0.35203	5.48
0.36870	5.48
0.38537	5.48
0.40203	5.48
0.41870	5.48
0.43537	5.48
0.45203	5.48
0.46870	5.48
0.48537	5.48
0.50203	5.48
0.51870	5.48
0.53537	5.48
0.55203	5.48
0.56870	5.48
0.58537	5.48
0.60203	5.48
0.61870	5.48
0.63537	5.48
0.65203	5.48
0.66870	5.49
0.68537	5.48
0.70203	5.48
0.71870	5.48
0.73537	5.48
0.75203	5.48
0.76870	5.48
0.78537	5.48
0.80203	5.48
0.81870	5.48
0.83537	5.48
0.85203	5.48
0.86870	5.48
0.88537	5.48
0.90203	5.48
0.91870	5.48
0.93537	5.48
0.95203	5.48
0.96870	5.48
0.98537	5.48
1.00203	5.49
1.01870	5.48
1.03537	5.48
1.05203	5.48
1.06870	5.48
1.08537	5.48
1.10203	5.48
1.11870	5.48
1.13537	5.48
1.15203	5.48
1.16870	5.48
1.18537	5.48
1.20203	5.48
1.21870	5.48
1.23537	5.48
1.25203	5.48
1.26870	5.48
1.28537	5.48
1.30203	5.48
1.31870	5.48
1.33537	5.48
1.35203	5.48
1.36870	5.48
1.38537	5.48
1.40203	5.48
1.41870	5.48
1.43537	5.48
1.45203	5.48
1.46870	5.48
1.48537	5.48
1.50203	5.48
1.51870	5.48
1.53537	5.48
1.55203	5.48
1.56870	5.48
1.58537	5.48
1.60203	5.48
1.61870	5.48
1.63537	5.48
1.65203	5.47
1.66870	5.46
1.68537	5.45
1.70203	5.44
1.71870	5.43
1.73537	5.42
1.75203	5.41
1.76870	5.39
1.78537	5.38
1.80203	5.38
1.81870	5.36
1.83537	5.35
1.85203	5.35
1.86870	5.34
1.88537	5.33
1.90203	5.32
1.91870	5.31
1.93537	5.30
1.95203	5.29
1.96870	5.28
1.98537	5.27
2.00203	5.26
2.01870	5.25
2.03537	5.24
2.05203	5.23
2.06870	5.22
2.08537	5.21
2.10203	5.20
2.11870	5.19
2.13537	5.18
2.15203	5.17
2.16870	5.16
2.18537	5.15
2.20203	5.15
2.21870	5.14
2.23537	5.13
2.25203	5.12
2.26870	5.11
2.28537	5.10
2.30203	5.09
2.31870	5.08
2.33537	5.07
2.35203	5.06
2.36870	5.06
2.38537	5.05
2.40203	5.05
2.41870	5.05
2.43537	5.05
2.45203	5.05
2.46870	5.05
2.48537	5.05
2.50203	5.05
2.51870	5.05
2.53537	5.05
2.55203	5.05
2.56870	5.05
2.58537	5.05
2.60203	5.05
2.61870	5.05
2.63537	5.05
2.65203	5.05
2.66870	5.05
2.68537	5.05
2.70203	5.05
2.71870	5.05
2.73537	5.05
2.75203	5.05
2.76870	5.05
2.78537	5.05
2.80203	5.05
2.81870	5.05
2.83537	5.05
2.85203	5.05
2.86870	5.05
2.88537	5.05
2.90203	5.05
2.91870	5.05
2.93537	5.05
2.95203	5.05
2.96870	5.05
2.98537	5.05
3.00203	5.05
3.01870	5.04
3.03537	5.04
3.05203	5.04
3.06870	5.04
3.08537	5.04
3.10203	5.04
3.11870	5.04
3.13537	5.04
3.15203	5.04
3.16870	5.04
3.18537	5.04
3.20203	5.04
3.21870	5.04
3.23537	5.04
3.25203	5.04
3.26870	5.04
3.28537	5.04
3.30203	5.04
3.31870	5.04
3.33537	5.04
3.35203	5.04
3.36870	5.04
3.38537	5.04
3.40203	5.04
3.41870	5.04
3.43537	5.04
3.45203	5.04
3.46870	5.04
3.48537	5.04
3.50203	5.04
3.51870	5.04
3.53537	5.04
3.55203	5.04
3.56870	5.04
3.58537	5.04
3.60203	5.04
3.61870	5.04
3.63537	5.04
3.65203	5.04
3.66870	5.04
3.68537	5.04
3.70203	5.04
3.71870	5.04
3.73537	5.04
3.75203	5.04
3.76870	5.04
3.78537	5.04
3.80203	5.04
3.81870	5.04
3.83537	5.04
3.85203	5.04
3.86870	5.04
3.88537	5.04
3.90203	5.04
3.91870	5.04
3.93537	5.04
3.95203	5.04
3.96870	5.04
3.98537	5.04

[Status Trace (Linear Velocity)]
Interval(msec)	1000
# of Points	240
Start Time(min)	0.002
End Time(min)	3.985
Intensity Units	
Intensity Multiplier	1
R.Time (min)	Intensity
0.00203	39.01
0.01870	37.95
0.03537	37.87
0.05203	39.29
0.06870	40.25
0.08537	39.23
0.10203	38.99
0.11870	39.01
0.13537	39.01
0.15203	39.01
0.16870	39.01
0.18537	39.01
0.20203	39.01
0.21870	39.01
0.23537	39.01
0.25203	39.01
0.26870	39.01
0.28537	39.01
0.30203	39.01
0.31870	39.01
0.33537	39.01
0.35203	39.01
0.36870	39.00
0.38537	39.01
0.40203	39.01
0.41870	39.01
0.43537	39.01
0.45203	39.01
0.46870	39.01
0.48537	39.01
0.50203	39.01
0.51870	39.01
0.53537	39.01
0.55203	39.01
0.56870	39.01
0.58537	39.01
0.60203	39.01
0.61870	39.01
0.63537	39.01
0.65203	39.01
0.66870	39.01
0.68537	39.01
0.70203	39.01
0.71870	39.01
0.73537	39.01
0.75203	39.01
0.76870	39.01
0.78537	39.01
0.80203	39.01
0.81870	39.01
0.83537	39.01
0.85203	39.01
0.86870	39.01
0.88537	39.01
0.90203	39.01
0.91870	39.01
0.93537	39.01
0.95203	39.01
0.96870	39.01
0.98537	39.01
1.00203	39.01
1.01870	39.01
1.03537	39.01
1.05203	39.01
1.06870	39.01
1.08537	39.01
1.10203	39.01
1.11870	39.01
1.13537	39.01
1.15203	39.01
1.16870	39.01
1.18537	39.01
1.20203	39.01
1.21870	39.01
1.23537	39.01
1.25203	39.01
1.26870	39.01
1.28537	39.01
1.30203	39.01
1.31870	39.01
1.33537	39.01
1.35203	39.01
1.36870	39.01
1.38537	39.01
1.40203	39.01
1.41870	39.01
1.43537	39.01
1.45203	39.01
1.46870	39.01
1.48537	39.01
1.50203	39.01
1.51870	39.01
1.53537	39.01
1.55203	39.01
1.56870	39.01
1.58537	39.01
1.60203	39.01
1.61870	39.00
1.63537	38.98
1.65203	38.96
1.66870	38.93
1.68537	38.90
1.70203	38.86
1.71870	38.83
1.73537	38.80
1.75203	38.77
1.76870	38.73
1.78537	38.70
1.80203	38.67
1.81870	38.64
1.83537	38.61
1.85203	38.58
1.86870	38.55
1.88537	38.51
1.90203	38.49
1.91870	38.45
1.93537	38.42
1.95203	38.39
1.96870	38.36
1.98537	38.33
2.00203	38.30
2.01870	38.27
2.03537	38.24
2.05203	38.22
2.06870	38.18
2.08537	38.15
2.10203	38.12
2.11870	38.09
2.13537	38.06
2.15203	38.04
2.16870	38.00
2.18537	37.98
2.20203	37.95
2.21870	37.92
2.23537	37.89
2.25203	37.86
2.26870	37.83
2.28537	37.80
2.30203	37.77
2.31870	37.74
2.33537	37.71
2.35203	37.68
2.36870	37.66
2.38537	37.65
2.40203	37.65
2.41870	37.65
2.43537	37.65
2.45203	37.65
2.46870	37.65
2.48537	37.65
2.50203	37.65
2.51870	37.65
2.53537	37.64
2.55203	37.65
2.56870	37.65
2.58537	37.64
2.60203	37.64
2.61870	37.64
2.63537	37.64
2.65203	37.64
2.66870	37.64
2.68537	37.64
2.70203	37.64
2.71870	37.64
2.73537	37.64
2.75203	37.64
2.76870	37.64
2.78537	37.64
2.80203	37.64
2.81870	37.64
2.83537	37.64
2.85203	37.64
2.86870	37.64
2.88537	37.64
2.90203	37.64
2.91870	37.64
2.93537	37.63
2.95203	37.63
2.96870	37.63
2.98537	37.63
3.00203	37.63
3.01870	37.63
3.03537	37.63
3.05203	37.62
3.06870	37.62
3.08537	37.62
3.10203	37.62
3.11870	37.62
3.13537	37.62
3.15203	37.62
3.16870	37.62
3.18537	37.62
3.20203	37.62
3.21870	37.62
3.23537	37.62
3.25203	37.62
3.26870	37.62
3.28537	37.62
3.30203	37.62
3.31870	37.62
3.33537	37.62
3.35203	37.62
3.36870	37.62
3.38537	37.61
3.40203	37.61
3.41870	37.62
3.43537	37.62
3.45203	37.62
3.46870	37.62
3.48537	37.62
3.50203	37.62
3.51870	37.62
3.53537	37.62
3.55203	37.62
3.56870	37.62
3.58537	37.62
3.60203	37.62
3.61870	37.62
3.63537	37.62
3.65203	37.62
3.66870	37.62
3.68537	37.62
3.70203	37.62
3.71870	37.62
3.73537	37.62
3.75203	37.62
3.76870	37.62
3.78537	37.62
3.80203	37.62
3.81870	37.62
3.83537	37.62
3.85203	37.62
3.86870	37.62
3.88537	37.62
3.90203	37.62
3.91870	37.62
3.93537	37.62
3.95203	37.62
3.96870	37.62
3.98537	37.62

