[Header]
Application Name	LabSolutions
Version	5.110
Data File Name	C:\Users\User\Desktop\GC Analyses\Jack\UIC Prairie Sampling\10.19.22\221019_024.gcd
Output Date	1/4/2023
Output Time	2:27:27 PM

[File Information]
Type	Data File
Generated	12/5/2022 3:44:09 PM
Generated by	System Administrator
Modified	12/5/2022 3:48:36 PM
Modified by	System Administrator

[Sample Information]
Operator Name	System Administrator
Acquired	12/5/2022 3:44:35 PM
Sample Type	1:Standard
Level	1
Sample Name	221019_UICPrairie
Sample ID	221019_UICPrairie
ISTD Amount1	1
ISTD Amount2	1
ISTD Amount3	1
ISTD Amount4	1
ISTD Amount5	1
ISTD Amount6	1
ISTD Amount7	1
ISTD Amount8	1
ISTD Amount9	1
ISTD Amount10	1
ISTD Amount11	1
ISTD Amount12	1
ISTD Amount13	1
ISTD Amount14	1
ISTD Amount15	1
ISTD Amount16	1
ISTD Amount17	1
ISTD Amount18	1
ISTD Amount19	1
ISTD Amount20	1
ISTD Amount21	1
ISTD Amount22	1
ISTD Amount23	1
ISTD Amount24	1
ISTD Amount25	1
ISTD Amount26	1
ISTD Amount27	1
ISTD Amount28	1
ISTD Amount29	1
ISTD Amount30	1
ISTD Amount31	1
ISTD Amount32	1
Sample Amount	1
Dilution Factor	1
Vial#	1
Injection Volume	1
Injection Count	1
Bar Code	

[Original Files]
Data File	C:\Users\User\Desktop\GC Analyses\Jack\UIC Prairie Sampling\10.19.22\221019_024.gcd
Method File	C:\LabSolutions\Data\GHG_4min_2022\ghg3_togas_w_acet_4 min_new_int.gcm
Batch File	
Report Format File	c:\LabSolutions\System\DEFAULT.lsr

[File Description]


[Configuration]
Instrument Name	C0B7VH3-Instrument1
Instrument #	1
Line #	1
# of Detectors	3
Detector ID	DET#1	DET#2	DET#3
Detector Name	FID	PTCD	ECD
# of Channels	1	1	1

[Peak Table(Ch1)]
# of Peaks	3
Peak#	R.Time	I.Time	F.Time	Area	Height	A/H	Conc.	Mark	ID#	Name	k'	Plate #	Plate Ht.	Tailing	Resolution	Sep.Factor	Area Ratio	Height Ratio	Conc. %	Norm Conc.
1	1.479	1.428	1.542	10515	4558	2.307	100.000	   	1	CO	0.000	8100	18.520	1.275	0.000	0.000	0	0	16.667	16.667
2	1.571	1.542	1.644	4849	2391	2.028	100.000	 V 	2	CH4	0.062	10836	13.842	0.000	1.454	0.000	0	0	16.667	16.667
3	2.000	1.956	2.488	1076526	510613	2.108	400.000	   	3	CO2	0.352	17476	8.583	1.304	7.098	5.680	0	0	66.667	66.667

[Peak Table(Ch2)]
# of Peaks	0

[Peak Table(Ch3)]
# of Peaks	7
Peak#	R.Time	I.Time	F.Time	Area	Height	A/H	Conc.	Mark	ID#	Name	k'	Plate #	Plate Ht.	Tailing	Resolution	Sep.Factor	Area Ratio	Height Ratio	Conc. %	Norm Conc.
1	1.017	0.064	1.230	798	20	39.639	0.000	   			0.000	508	295.502	0.621	0.000	0.000	0	0	0.000	0.000
2	2.458	2.356	2.499	1245	372	3.346	0.000	   			1.416	9846	15.235	0.000	10.303	0.000	0	0	0.000	0.000
3	2.517	2.499	2.557	693	241	2.874	0.000	 V 			1.474	3651	41.089	0.000	0.442	1.041	0	0	0.000	0.000
4	2.616	2.557	2.656	983	250	3.934	0.000	 V 			1.571	6332	23.689	0.000	0.664	1.066	0	0	0.000	0.000
5	2.781	2.678	2.799	521	131	3.965	0.018	   	1	N2O	1.734	9154	16.386	0.594	1.332	1.103	0	0	1.779	1.779
6	2.891	2.799	3.063	28770	5809	4.952	0.982	 V 	1	N2O	1.842	10929	13.725	0.000	0.970	1.062	0	0	98.221	98.221
7	3.133	3.063	3.995	20598	737	27.954	0.000	 V 			2.080	22	6903.776	0.000	0.173	1.129	0	0	0.000	0.000

[Compound Results(Ch1)]
# of IDs	6
ID#	Name	R.Time	Area	Height	Conc.	Curve	3rd	2nd	1st	Constant	Area Ratio	Height Ratio	Conc. %	Norm Conc.
1	CO	1.479	10515	4558	100.000	Linear	0.000000e+00	0.000000e+00	1.051483e+002	0.000000e+00	0	0	16.667	16.667
2	CH4	1.571	4849	2391	100.000	Linear	0.000000e+00	0.000000e+00	4.848564e+001	0.000000e+00	0	0	16.667	16.667
3	CO2	2.000	1076526	510613	400.000	Linear	0.000000e+00	0.000000e+00	2.691316e+003	0.000000e+00	0	0	66.667	66.667
4	Ethylene	0.000	0	0	0.000	Linear	0.000000e+00	0.000000e+00	0.000000e+00	0.000000e+00	0	0	0.000	0.000
5	Acetylene	0.000	0	0	0.000	Linear	0.000000e+00	0.000000e+00	0.000000e+00	0.000000e+00	0	0	0.000	0.000
6	Ethane	0.000	0	0	0.000	Linear	0.000000e+00	0.000000e+00	0.000000e+00	0.000000e+00	0	0	0.000	0.000

[Compound Results(Ch2)]
# of IDs	5
ID#	Name	R.Time	Area	Height	Conc.	Curve	3rd	2nd	1st	Constant	Area Ratio	Height Ratio	Conc. %	Norm Conc.
1	Hydrogen	0.000	0	0	0.000	Linear	0.000000e+00	0.000000e+00	0.000000e+00	0.000000e+00	0	0	0.000	0.000
2	Oxygen	0.000	0	0	0.000	Linear	0.000000e+00	0.000000e+00	0.000000e+00	0.000000e+00	0	0	0.000	0.000
3	Nitrogen	0.000	0	0	0.000	Linear	0.000000e+00	0.000000e+00	0.000000e+00	0.000000e+00	0	0	0.000	0.000
4	Methane	0.000	0	0	0.000	Linear	0.000000e+00	0.000000e+00	0.000000e+00	0.000000e+00	0	0	0.000	0.000
5	Carbon Monoxide	0.000	0	0	0.000	Linear	0.000000e+00	0.000000e+00	0.000000e+00	0.000000e+00	0	0	0.000	0.000

[Compound Results(Ch3)]
# of IDs	2
ID#	Name	R.Time	Area	Height	Conc.	Curve	3rd	2nd	1st	Constant	Area Ratio	Height Ratio	Conc. %	Norm Conc.
1	N2O	2.891	29291	5941	1.000	Linear	0.000000e+00	0.000000e+00	2.929088e+004	0.000000e+00	0	0	100.000	100.000
2	SF6	0.000	0	0	0.000	Linear	0.000000e+00	0.000000e+00	0.000000e+00	0.000000e+00	0	0	0.000	0.000

[Group Results(Ch1)]
# of Groups	0

[Group Results(Ch2)]
# of Groups	0

[Group Results(Ch3)]
# of Groups	0

[Chromatogram (Ch1)]
Interval(msec)	220
# of Points	1091
Start Time(min)	0.002
End Time(min)	3.998
R.Time (min)	Intensity
0.00167	-17
0.00533	-18
0.00900	-16
0.01267	-14
0.01633	-15
0.02000	-18
0.02367	-22
0.02733	-27
0.03100	-29
0.03467	-26
0.03833	-24
0.04200	-25
0.04567	-28
0.04933	-32
0.05300	-36
0.05667	-36
0.06033	-34
0.06400	-35
0.06767	-35
0.07133	-32
0.07500	-27
0.07867	-25
0.08233	-27
0.08600	-28
0.08967	-27
0.09333	-26
0.09700	-26
0.10067	-26
0.10433	-24
0.10800	-21
0.11167	-19
0.11533	-16
0.11900	-19
0.12267	-21
0.12633	-18
0.13000	-13
0.13367	-11
0.13733	-14
0.14100	-19
0.14467	-23
0.14833	-22
0.15200	-20
0.15567	-18
0.15933	-16
0.16300	-15
0.16667	-19
0.17033	-21
0.17400	-22
0.17767	-24
0.18133	-28
0.18500	-30
0.18867	-35
0.19233	-40
0.19600	-42
0.19967	-44
0.20333	-48
0.20700	-53
0.21067	-55
0.21433	-52
0.21800	-49
0.22167	-45
0.22533	-41
0.22900	-34
0.23267	-28
0.23633	-27
0.24000	-27
0.24367	-28
0.24733	-26
0.25100	-22
0.25467	-17
0.25833	-16
0.26200	-17
0.26567	-16
0.26933	-16
0.27300	-17
0.27667	-20
0.28033	-25
0.28400	-26
0.28767	-26
0.29133	-25
0.29500	-26
0.29867	-28
0.30233	-31
0.30600	-34
0.30967	-38
0.31333	-42
0.31700	-45
0.32067	-42
0.32433	-39
0.32800	-35
0.33167	-32
0.33533	-30
0.33900	-32
0.34267	-34
0.34633	-38
0.35000	-44
0.35367	-50
0.35733	-52
0.36100	-54
0.36467	-54
0.36833	-55
0.37200	-55
0.37567	-53
0.37933	-50
0.38300	-47
0.38667	-45
0.39033	-45
0.39400	-49
0.39767	-51
0.40133	-49
0.40500	-47
0.40867	-47
0.41233	-48
0.41600	-49
0.41967	-49
0.42333	-46
0.42700	-44
0.43067	-43
0.43433	-43
0.43800	-43
0.44167	-41
0.44533	-39
0.44900	-40
0.45267	-40
0.45633	-39
0.46000	-34
0.46367	-30
0.46733	-29
0.47100	-31
0.47467	-33
0.47833	-28
0.48200	-21
0.48567	-19
0.48933	-22
0.49300	-29
0.49667	-36
0.50033	-42
0.50400	-46
0.50767	-48
0.51133	-51
0.51500	-54
0.51867	-55
0.52233	-54
0.52600	-50
0.52967	-45
0.53333	-45
0.53700	-44
0.54067	-41
0.54433	-38
0.54800	-38
0.55167	-41
0.55533	-42
0.55900	-39
0.56267	-32
0.56633	-25
0.57000	-27
0.57367	-36
0.57733	-48
0.58100	-57
0.58467	-60
0.58833	-60
0.59200	-57
0.59567	-52
0.59933	-48
0.60300	-45
0.60667	-47
0.61033	-51
0.61400	-54
0.61767	-53
0.62133	-47
0.62500	-43
0.62867	-41
0.63233	-40
0.63600	-44
0.63967	-50
0.64333	-55
0.64700	-54
0.65067	-50
0.65433	-48
0.65800	-50
0.66167	-54
0.66533	-57
0.66900	-56
0.67267	-52
0.67633	-47
0.68000	-43
0.68367	-39
0.68733	-38
0.69100	-42
0.69467	-47
0.69833	-52
0.70200	-53
0.70567	-51
0.70933	-50
0.71300	-49
0.71667	-48
0.72033	-52
0.72400	-57
0.72767	-61
0.73133	-63
0.73500	-64
0.73867	-64
0.74233	-62
0.74600	-59
0.74967	-57
0.75333	-56
0.75700	-56
0.76067	-54
0.76433	-53
0.76800	-51
0.77167	-48
0.77533	-42
0.77900	-38
0.78267	-37
0.78633	-42
0.79000	-48
0.79367	-51
0.79733	-54
0.80100	-55
0.80467	-55
0.80833	-53
0.81200	-47
0.81567	-42
0.81933	-41
0.82300	-41
0.82667	-44
0.83033	-49
0.83400	-54
0.83767	-63
0.84133	-70
0.84500	-73
0.84867	-70
0.85233	-63
0.85600	-57
0.85967	-54
0.86333	-55
0.86700	-57
0.87067	-62
0.87433	-71
0.87800	-78
0.88167	-76
0.88533	-70
0.88900	-68
0.89267	-71
0.89633	-76
0.90000	-81
0.90367	-82
0.90733	-79
0.91100	-75
0.91467	-72
0.91833	-70
0.92200	-66
0.92567	-65
0.92933	-65
0.93300	-69
0.93667	-74
0.94033	-77
0.94400	-79
0.94767	-79
0.95133	-77
0.95500	-74
0.95867	-71
0.96233	-70
0.96600	-70
0.96967	-73
0.97333	-76
0.97700	-78
0.98067	-81
0.98433	-83
0.98800	-86
0.99167	-89
0.99533	-87
0.99900	-83
1.00267	-78
1.00633	-74
1.01000	-66
1.01367	-60
1.01733	-58
1.02100	-59
1.02467	-62
1.02833	-65
1.03200	-67
1.03567	-67
1.03933	-69
1.04300	-79
1.04667	-91
1.05033	-98
1.05400	-100
1.05767	-100
1.06133	-100
1.06500	-97
1.06867	-93
1.07233	-92
1.07600	-93
1.07967	-94
1.08333	-92
1.08700	-88
1.09067	-86
1.09433	-86
1.09800	-88
1.10167	-90
1.10533	-91
1.10900	-92
1.11267	-93
1.11633	-92
1.12000	-91
1.12367	-92
1.12733	-92
1.13100	-92
1.13467	-90
1.13833	-88
1.14200	-82
1.14567	-74
1.14933	-66
1.15300	-63
1.15667	-64
1.16033	-68
1.16400	-72
1.16767	-76
1.17133	-81
1.17500	-87
1.17867	-94
1.18233	-97
1.18600	-97
1.18967	-96
1.19333	-99
1.19700	-102
1.20067	-101
1.20433	-99
1.20800	-94
1.21167	-88
1.21533	-84
1.21900	-81
1.22267	-81
1.22633	-80
1.23000	-78
1.23367	-76
1.23733	-74
1.24100	-72
1.24467	-71
1.24833	-72
1.25200	-77
1.25567	-83
1.25933	-90
1.26300	-96
1.26667	-101
1.27033	-102
1.27400	-100
1.27767	-100
1.28133	-101
1.28500	-102
1.28867	-98
1.29233	-93
1.29600	-89
1.29967	-86
1.30333	-83
1.30700	-83
1.31067	-84
1.31433	-85
1.31800	-84
1.32167	-85
1.32533	-85
1.32900	-84
1.33267	-83
1.33633	-85
1.34000	-87
1.34367	-89
1.34733	-91
1.35100	-95
1.35467	-97
1.35833	-97
1.36200	-96
1.36567	-93
1.36933	-92
1.37300	-90
1.37667	-86
1.38033	-85
1.38400	-87
1.38767	-91
1.39133	-96
1.39500	-95
1.39867	-91
1.40233	-87
1.40600	-89
1.40967	-95
1.41333	-102
1.41700	-111
1.42067	-119
1.42433	-122
1.42800	-115
1.43167	-104
1.43533	-100
1.43900	-97
1.44267	-64
1.44633	60
1.45000	298
1.45367	664
1.45733	1227
1.46100	1972
1.46467	2759
1.46833	3453
1.47200	3988
1.47567	4333
1.47933	4448
1.48300	4301
1.48667	3900
1.49033	3321
1.49400	2674
1.49767	2062
1.50133	1543
1.50500	1131
1.50867	815
1.51233	580
1.51600	409
1.51967	288
1.52333	205
1.52700	148
1.53067	107
1.53433	74
1.53800	48
1.54167	46
1.54533	121
1.54900	336
1.55267	705
1.55633	1158
1.56000	1594
1.56367	1946
1.56733	2186
1.57100	2291
1.57467	2231
1.57833	2004
1.58200	1656
1.58567	1268
1.58933	907
1.59300	609
1.59667	385
1.60033	224
1.60400	116
1.60767	48
1.61133	7
1.61500	-18
1.61867	-36
1.62233	-49
1.62600	-59
1.62967	-68
1.63333	-75
1.63700	-81
1.64067	-86
1.64433	-93
1.64800	-98
1.65167	-98
1.65533	-98
1.65900	-97
1.66267	-99
1.66633	-101
1.67000	-99
1.67367	-97
1.67733	-97
1.68100	-100
1.68467	-103
1.68833	-107
1.69200	-112
1.69567	-117
1.69933	-119
1.70300	-118
1.70667	-116
1.71033	-111
1.71400	-105
1.71767	-102
1.72133	-100
1.72500	-98
1.72867	-95
1.73233	-91
1.73600	-93
1.73967	-101
1.74333	-108
1.74700	-110
1.75067	-111
1.75433	-111
1.75800	-107
1.76167	-101
1.76533	-98
1.76900	-99
1.77267	-100
1.77633	-100
1.78000	-100
1.78367	-101
1.78733	-104
1.79100	-111
1.79467	-118
1.79833	-125
1.80200	-129
1.80567	-130
1.80933	-129
1.81300	-127
1.81667	-124
1.82033	-120
1.82400	-113
1.82767	-105
1.83133	-98
1.83500	-91
1.83867	-89
1.84233	-91
1.84600	-96
1.84967	-106
1.85333	-114
1.85700	-119
1.86067	-122
1.86433	-121
1.86800	-115
1.87167	-108
1.87533	-102
1.87900	-96
1.88267	-89
1.88633	-86
1.89000	-87
1.89367	-93
1.89733	-98
1.90100	-102
1.90467	-105
1.90833	-103
1.91200	-97
1.91567	-90
1.91933	-87
1.92300	-89
1.92667	-96
1.93033	-104
1.93400	-108
1.93767	-108
1.94133	-106
1.94500	-101
1.94867	-98
1.95233	-96
1.95600	-81
1.95967	15
1.96333	547
1.96700	2918
1.97067	11008
1.97433	32158
1.97800	75197
1.98167	144507
1.98533	234516
1.98900	331099
1.99267	417839
1.99633	480752
2.00000	510562
2.00367	503358
2.00733	462113
2.01100	396604
2.01467	320343
2.01833	245867
2.02200	181378
2.02567	130144
2.02933	91866
2.03300	64460
2.03667	45380
2.04033	32316
2.04400	23444
2.04767	17427
2.05133	13322
2.05500	10488
2.05867	8495
2.06233	7064
2.06600	6010
2.06967	5213
2.07333	4596
2.07700	4111
2.08067	3719
2.08433	3396
2.08800	3124
2.09167	2890
2.09533	2686
2.09900	2509
2.10267	2357
2.10633	2223
2.11000	2101
2.11367	1989
2.11733	1885
2.12100	1790
2.12467	1707
2.12833	1631
2.13200	1563
2.13567	1504
2.13933	1451
2.14300	1402
2.14667	1356
2.15033	1311
2.15400	1266
2.15767	1222
2.16133	1176
2.16500	1130
2.16867	1085
2.17233	1044
2.17600	1010
2.17967	979
2.18333	949
2.18700	923
2.19067	903
2.19433	881
2.19800	860
2.20167	839
2.20533	819
2.20900	803
2.21267	790
2.21633	776
2.22000	759
2.22367	740
2.22733	722
2.23100	702
2.23467	682
2.23833	663
2.24200	647
2.24567	636
2.24933	629
2.25300	622
2.25667	611
2.26033	594
2.26400	574
2.26767	555
2.27133	539
2.27500	529
2.27867	522
2.28233	516
2.28600	510
2.28967	506
2.29333	502
2.29700	497
2.30067	489
2.30433	483
2.30800	476
2.31167	470
2.31533	461
2.31900	453
2.32267	448
2.32633	445
2.33000	442
2.33367	434
2.33733	424
2.34100	415
2.34467	409
2.34833	404
2.35200	402
2.35567	401
2.35933	401
2.36300	398
2.36667	392
2.37033	385
2.37400	383
2.37767	388
2.38133	395
2.38500	399
2.38867	395
2.39233	386
2.39600	377
2.39967	370
2.40333	363
2.40700	353
2.41067	341
2.41433	331
2.41800	324
2.42167	319
2.42533	318
2.42900	320
2.43267	321
2.43633	326
2.44000	334
2.44367	340
2.44733	339
2.45100	330
2.45467	317
2.45833	308
2.46200	302
2.46567	296
2.46933	291
2.47300	288
2.47667	287
2.48033	284
2.48400	280
2.48767	277
2.49133	275
2.49500	273
2.49867	273
2.50233	274
2.50600	276
2.50967	276
2.51333	278
2.51700	281
2.52067	284
2.52433	285
2.52800	283
2.53167	280
2.53533	279
2.53900	278
2.54267	275
2.54633	275
2.55000	279
2.55367	281
2.55733	278
2.56100	269
2.56467	258
2.56833	249
2.57200	245
2.57567	245
2.57933	245
2.58300	239
2.58667	230
2.59033	220
2.59400	213
2.59767	209
2.60133	207
2.60500	207
2.60867	208
2.61233	210
2.61600	214
2.61967	220
2.62333	228
2.62700	234
2.63067	240
2.63433	243
2.63800	243
2.64167	240
2.64533	239
2.64900	241
2.65267	242
2.65633	240
2.66000	238
2.66367	236
2.66733	234
2.67100	230
2.67467	223
2.67833	216
2.68200	211
2.68567	208
2.68933	206
2.69300	203
2.69667	199
2.70033	197
2.70400	194
2.70767	192
2.71133	188
2.71500	188
2.71867	192
2.72233	196
2.72600	199
2.72967	204
2.73333	209
2.73700	212
2.74067	212
2.74433	212
2.74800	211
2.75167	208
2.75533	205
2.75900	202
2.76267	199
2.76633	197
2.77000	197
2.77367	197
2.77733	197
2.78100	200
2.78467	206
2.78833	209
2.79200	207
2.79567	201
2.79933	193
2.80300	191
2.80667	190
2.81033	189
2.81400	187
2.81767	185
2.82133	180
2.82500	174
2.82867	168
2.83233	166
2.83600	167
2.83967	167
2.84333	169
2.84700	172
2.85067	172
2.85433	173
2.85800	175
2.86167	178
2.86533	178
2.86900	177
2.87267	179
2.87633	184
2.88000	190
2.88367	191
2.88733	187
2.89100	179
2.89467	172
2.89833	166
2.90200	162
2.90567	160
2.90933	160
2.91300	160
2.91667	161
2.92033	162
2.92400	165
2.92767	167
2.93133	168
2.93500	170
2.93867	174
2.94233	174
2.94600	171
2.94967	168
2.95333	168
2.95700	166
2.96067	164
2.96433	162
2.96800	157
2.97167	151
2.97533	148
2.97900	150
2.98267	158
2.98633	166
2.99000	172
2.99367	176
2.99733	178
3.00100	180
3.00467	180
3.00833	173
3.01200	158
3.01567	144
3.01933	137
3.02300	138
3.02667	145
3.03033	153
3.03400	158
3.03767	159
3.04133	155
3.04500	148
3.04867	140
3.05233	134
3.05600	131
3.05967	128
3.06333	126
3.06700	127
3.07067	128
3.07433	128
3.07800	129
3.08167	132
3.08533	134
3.08900	134
3.09267	133
3.09633	132
3.10000	135
3.10367	140
3.10733	147
3.11100	152
3.11467	154
3.11833	153
3.12200	150
3.12567	148
3.12933	145
3.13300	138
3.13667	129
3.14033	120
3.14400	114
3.14767	111
3.15133	110
3.15500	118
3.15867	128
3.16233	132
3.16600	131
3.16967	127
3.17333	125
3.17700	126
3.18067	126
3.18433	124
3.18800	122
3.19167	120
3.19533	122
3.19900	126
3.20267	131
3.20633	136
3.21000	139
3.21367	138
3.21733	135
3.22100	130
3.22467	126
3.22833	125
3.23200	123
3.23567	123
3.23933	125
3.24300	128
3.24667	130
3.25033	131
3.25400	131
3.25767	130
3.26133	125
3.26500	119
3.26867	111
3.27233	107
3.27600	106
3.27967	108
3.28333	109
3.28700	108
3.29067	107
3.29433	107
3.29800	110
3.30167	116
3.30533	125
3.30900	132
3.31267	134
3.31633	130
3.32000	125
3.32367	120
3.32733	113
3.33100	104
3.33467	97
3.33833	96
3.34200	100
3.34567	105
3.34933	110
3.35300	116
3.35667	121
3.36033	121
3.36400	122
3.36767	127
3.37133	133
3.37500	136
3.37867	134
3.38233	126
3.38600	115
3.38967	102
3.39333	92
3.39700	90
3.40067	95
3.40433	101
3.40800	103
3.41167	102
3.41533	99
3.41900	96
3.42267	96
3.42633	97
3.43000	95
3.43367	96
3.43733	97
3.44100	100
3.44467	105
3.44833	109
3.45200	111
3.45567	111
3.45933	110
3.46300	109
3.46667	110
3.47033	113
3.47400	116
3.47767	115
3.48133	111
3.48500	110
3.48867	113
3.49233	114
3.49600	112
3.49967	108
3.50333	101
3.50700	95
3.51067	90
3.51433	90
3.51800	89
3.52167	86
3.52533	85
3.52900	87
3.53267	89
3.53633	89
3.54000	84
3.54367	75
3.54733	67
3.55100	63
3.55467	61
3.55833	62
3.56200	64
3.56567	67
3.56933	72
3.57300	78
3.57667	81
3.58033	83
3.58400	86
3.58767	89
3.59133	89
3.59500	87
3.59867	83
3.60233	82
3.60600	84
3.60967	87
3.61333	90
3.61700	90
3.62067	83
3.62433	72
3.62800	64
3.63167	61
3.63533	60
3.63900	62
3.64267	64
3.64633	62
3.65000	58
3.65367	56
3.65733	57
3.66100	61
3.66467	62
3.66833	62
3.67200	64
3.67567	68
3.67933	71
3.68300	72
3.68667	69
3.69033	63
3.69400	58
3.69767	56
3.70133	57
3.70500	60
3.70867	63
3.71233	64
3.71600	62
3.71967	60
3.72333	63
3.72700	67
3.73067	68
3.73433	66
3.73800	61
3.74167	57
3.74533	56
3.74900	55
3.75267	55
3.75633	56
3.76000	58
3.76367	59
3.76733	57
3.77100	54
3.77467	50
3.77833	45
3.78200	42
3.78567	42
3.78933	43
3.79300	46
3.79667	47
3.80033	46
3.80400	46
3.80767	47
3.81133	49
3.81500	51
3.81867	51
3.82233	52
3.82600	53
3.82967	49
3.83333	42
3.83700	36
3.84067	30
3.84433	24
3.84800	19
3.85167	20
3.85533	23
3.85900	23
3.86267	22
3.86633	22
3.87000	25
3.87367	29
3.87733	36
3.88100	44
3.88467	47
3.88833	48
3.89200	49
3.89567	50
3.89933	51
3.90300	50
3.90667	46
3.91033	42
3.91400	38
3.91767	37
3.92133	39
3.92500	43
3.92867	45
3.93233	46
3.93600	44
3.93967	41
3.94333	34
3.94700	22
3.95067	9
3.95433	1
3.95800	-2
3.96167	-1
3.96533	1
3.96900	5
3.97267	9
3.97633	14
3.98000	21
3.98367	24
3.98733	22
3.99100	17
3.99467	13
3.99833	13

[Chromatogram (Ch2)]
Interval(msec)	220
# of Points	1091
Start Time(min)	0.002
End Time(min)	3.998
R.Time (min)	Intensity
0.00167	0
0.00533	1
0.00900	1
0.01267	1
0.01633	1
0.02000	2
0.02367	2
0.02733	2
0.03100	2
0.03467	2
0.03833	2
0.04200	2
0.04567	2
0.04933	2
0.05300	2
0.05667	3
0.06033	3
0.06400	3
0.06767	3
0.07133	3
0.07500	3
0.07867	3
0.08233	2
0.08600	3
0.08967	3
0.09333	3
0.09700	3
0.10067	3
0.10433	3
0.10800	4
0.11167	4
0.11533	4
0.11900	4
0.12267	4
0.12633	4
0.13000	4
0.13367	4
0.13733	4
0.14100	4
0.14467	4
0.14833	4
0.15200	4
0.15567	3
0.15933	3
0.16300	3
0.16667	3
0.17033	3
0.17400	3
0.17767	3
0.18133	3
0.18500	2
0.18867	2
0.19233	2
0.19600	3
0.19967	3
0.20333	3
0.20700	3
0.21067	3
0.21433	3
0.21800	3
0.22167	3
0.22533	3
0.22900	3
0.23267	3
0.23633	3
0.24000	2
0.24367	2
0.24733	2
0.25100	2
0.25467	1
0.25833	1
0.26200	1
0.26567	1
0.26933	1
0.27300	1
0.27667	1
0.28033	1
0.28400	1
0.28767	1
0.29133	2
0.29500	2
0.29867	2
0.30233	1
0.30600	1
0.30967	1
0.31333	1
0.31700	1
0.32067	1
0.32433	1
0.32800	1
0.33167	1
0.33533	1
0.33900	1
0.34267	0
0.34633	0
0.35000	0
0.35367	0
0.35733	0
0.36100	0
0.36467	1
0.36833	1
0.37200	1
0.37567	1
0.37933	1
0.38300	2
0.38667	2
0.39033	2
0.39400	2
0.39767	2
0.40133	2
0.40500	2
0.40867	2
0.41233	1
0.41600	1
0.41967	1
0.42333	2
0.42700	2
0.43067	2
0.43433	2
0.43800	2
0.44167	2
0.44533	2
0.44900	2
0.45267	2
0.45633	2
0.46000	1
0.46367	1
0.46733	1
0.47100	1
0.47467	1
0.47833	1
0.48200	1
0.48567	1
0.48933	0
0.49300	0
0.49667	0
0.50033	0
0.50400	0
0.50767	0
0.51133	-0
0.51500	-0
0.51867	-1
0.52233	-1
0.52600	-1
0.52967	-1
0.53333	-0
0.53700	-0
0.54067	0
0.54433	0
0.54800	0
0.55167	0
0.55533	1
0.55900	1
0.56267	1
0.56633	1
0.57000	1
0.57367	1
0.57733	1
0.58100	1
0.58467	1
0.58833	1
0.59200	1
0.59567	1
0.59933	1
0.60300	1
0.60667	1
0.61033	1
0.61400	1
0.61767	2
0.62133	2
0.62500	2
0.62867	1
0.63233	1
0.63600	1
0.63967	1
0.64333	1
0.64700	1
0.65067	1
0.65433	0
0.65800	0
0.66167	0
0.66533	-0
0.66900	-1
0.67267	-1
0.67633	-1
0.68000	-1
0.68367	-1
0.68733	-1
0.69100	-1
0.69467	-1
0.69833	-1
0.70200	-0
0.70567	-0
0.70933	0
0.71300	0
0.71667	0
0.72033	0
0.72400	0
0.72767	0
0.73133	0
0.73500	0
0.73867	0
0.74233	0
0.74600	0
0.74967	0
0.75333	0
0.75700	0
0.76067	0
0.76433	1
0.76800	1
0.77167	0
0.77533	0
0.77900	0
0.78267	-0
0.78633	-1
0.79000	-1
0.79367	-1
0.79733	-1
0.80100	-2
0.80467	-2
0.80833	-2
0.81200	-2
0.81567	-2
0.81933	-2
0.82300	-2
0.82667	-1
0.83033	-1
0.83400	-1
0.83767	-1
0.84133	-1
0.84500	-1
0.84867	-0
0.85233	-0
0.85600	0
0.85967	0
0.86333	0
0.86700	0
0.87067	0
0.87433	-0
0.87800	-0
0.88167	-0
0.88533	-0
0.88900	0
0.89267	0
0.89633	0
0.90000	0
0.90367	0
0.90733	0
0.91100	0
0.91467	0
0.91833	0
0.92200	0
0.92567	0
0.92933	0
0.93300	0
0.93667	0
0.94033	0
0.94400	0
0.94767	0
0.95133	-0
0.95500	-0
0.95867	-0
0.96233	-0
0.96600	0
0.96967	0
0.97333	0
0.97700	1
0.98067	1
0.98433	1
0.98800	1
0.99167	1
0.99533	1
0.99900	1
1.00267	1
1.00633	1
1.01000	1
1.01367	1
1.01733	1
1.02100	1
1.02467	1
1.02833	1
1.03200	1
1.03567	1
1.03933	1
1.04300	1
1.04667	1
1.05033	1
1.05400	1
1.05767	1
1.06133	1
1.06500	1
1.06867	0
1.07233	0
1.07600	0
1.07967	0
1.08333	0
1.08700	0
1.09067	0
1.09433	0
1.09800	-0
1.10167	-0
1.10533	-0
1.10900	-0
1.11267	0
1.11633	1
1.12000	1
1.12367	1
1.12733	1
1.13100	1
1.13467	1
1.13833	1
1.14200	1
1.14567	1
1.14933	0
1.15300	0
1.15667	0
1.16033	1
1.16400	1
1.16767	1
1.17133	0
1.17500	0
1.17867	-0
1.18233	-0
1.18600	-1
1.18967	-1
1.19333	-1
1.19700	-1
1.20067	-1
1.20433	-1
1.20800	-1
1.21167	-2
1.21533	-2
1.21900	-2
1.22267	-2
1.22633	-2
1.23000	-2
1.23367	-3
1.23733	-3
1.24100	-3
1.24467	-3
1.24833	-3
1.25200	-3
1.25567	-4
1.25933	-3
1.26300	-3
1.26667	-3
1.27033	-3
1.27400	-2
1.27767	-2
1.28133	-2
1.28500	-1
1.28867	-1
1.29233	-0
1.29600	-0
1.29967	0
1.30333	0
1.30700	0
1.31067	0
1.31433	0
1.31800	0
1.32167	0
1.32533	0
1.32900	0
1.33267	0
1.33633	0
1.34000	0
1.34367	0
1.34733	0
1.35100	0
1.35467	0
1.35833	1
1.36200	1
1.36567	1
1.36933	1
1.37300	1
1.37667	1
1.38033	1
1.38400	2
1.38767	2
1.39133	2
1.39500	2
1.39867	2
1.40233	2
1.40600	2
1.40967	2
1.41333	2
1.41700	2
1.42067	2
1.42433	1
1.42800	1
1.43167	1
1.43533	1
1.43900	1
1.44267	1
1.44633	1
1.45000	1
1.45367	1
1.45733	1
1.46100	1
1.46467	1
1.46833	1
1.47200	1
1.47567	1
1.47933	1
1.48300	0
1.48667	0
1.49033	0
1.49400	0
1.49767	0
1.50133	0
1.50500	0
1.50867	1
1.51233	1
1.51600	1
1.51967	0
1.52333	0
1.52700	-0
1.53067	-1
1.53433	-1
1.53800	-0
1.54167	-0
1.54533	-0
1.54900	-1
1.55267	-1
1.55633	-1
1.56000	-1
1.56367	-1
1.56733	-1
1.57100	-2
1.57467	-2
1.57833	-2
1.58200	-3
1.58567	-3
1.58933	-3
1.59300	-4
1.59667	-5
1.60033	-5
1.60400	-6
1.60767	-7
1.61133	-9
1.61500	-10
1.61867	-12
1.62233	-14
1.62600	-16
1.62967	-19
1.63333	-22
1.63700	-25
1.64067	-28
1.64433	-32
1.64800	-35
1.65167	-39
1.65533	-43
1.65900	-47
1.66267	-51
1.66633	-55
1.67000	-59
1.67367	-64
1.67733	-69
1.68100	-74
1.68467	-79
1.68833	-83
1.69200	-87
1.69567	-91
1.69933	-94
1.70300	-96
1.70667	-98
1.71033	-100
1.71400	-102
1.71767	-103
1.72133	-104
1.72500	-105
1.72867	-106
1.73233	-107
1.73600	-108
1.73967	-109
1.74333	-110
1.74700	-110
1.75067	-110
1.75433	-110
1.75800	-110
1.76167	-110
1.76533	-111
1.76900	-111
1.77267	-112
1.77633	-113
1.78000	-114
1.78367	-114
1.78733	-115
1.79100	-116
1.79467	-116
1.79833	-117
1.80200	-117
1.80567	-117
1.80933	-116
1.81300	-116
1.81667	-115
1.82033	-114
1.82400	-114
1.82767	-113
1.83133	-113
1.83500	-113
1.83867	-113
1.84233	-113
1.84600	-114
1.84967	-115
1.85333	-115
1.85700	-116
1.86067	-116
1.86433	-117
1.86800	-117
1.87167	-117
1.87533	-117
1.87900	-117
1.88267	-117
1.88633	-117
1.89000	-116
1.89367	-116
1.89733	-116
1.90100	-116
1.90467	-116
1.90833	-116
1.91200	-116
1.91567	-115
1.91933	-115
1.92300	-115
1.92667	-115
1.93033	-115
1.93400	-115
1.93767	-115
1.94133	-115
1.94500	-115
1.94867	-115
1.95233	-115
1.95600	-114
1.95967	-114
1.96333	-113
1.96700	-113
1.97067	-112
1.97433	-111
1.97800	-111
1.98167	-110
1.98533	-110
1.98900	-110
1.99267	-109
1.99633	-109
2.00000	-109
2.00367	-108
2.00733	-108
2.01100	-108
2.01467	-108
2.01833	-108
2.02200	-107
2.02567	-107
2.02933	-107
2.03300	-106
2.03667	-106
2.04033	-106
2.04400	-106
2.04767	-106
2.05133	-107
2.05500	-107
2.05867	-107
2.06233	-106
2.06600	-106
2.06967	-106
2.07333	-106
2.07700	-106
2.08067	-105
2.08433	-105
2.08800	-104
2.09167	-104
2.09533	-103
2.09900	-103
2.10267	-103
2.10633	-102
2.11000	-102
2.11367	-102
2.11733	-101
2.12100	-101
2.12467	-100
2.12833	-99
2.13200	-99
2.13567	-99
2.13933	-99
2.14300	-99
2.14667	-99
2.15033	-98
2.15400	-98
2.15767	-97
2.16133	-97
2.16500	-96
2.16867	-96
2.17233	-96
2.17600	-95
2.17967	-95
2.18333	-95
2.18700	-94
2.19067	-94
2.19433	-94
2.19800	-94
2.20167	-93
2.20533	-93
2.20900	-93
2.21267	-93
2.21633	-92
2.22000	-91
2.22367	-90
2.22733	-89
2.23100	-89
2.23467	-88
2.23833	-88
2.24200	-88
2.24567	-88
2.24933	-88
2.25300	-88
2.25667	-88
2.26033	-88
2.26400	-88
2.26767	-88
2.27133	-88
2.27500	-87
2.27867	-87
2.28233	-86
2.28600	-86
2.28967	-86
2.29333	-85
2.29700	-85
2.30067	-84
2.30433	-84
2.30800	-84
2.31167	-84
2.31533	-84
2.31900	-84
2.32267	-84
2.32633	-83
2.33000	-83
2.33367	-82
2.33733	-81
2.34100	-80
2.34467	-79
2.34833	-78
2.35200	-77
2.35567	-76
2.35933	-76
2.36300	-75
2.36667	-75
2.37033	-74
2.37400	-72
2.37767	-70
2.38133	-68
2.38500	-65
2.38867	-62
2.39233	-59
2.39600	-55
2.39967	-51
2.40333	-47
2.40700	-43
2.41067	-39
2.41433	-35
2.41800	-32
2.42167	-29
2.42533	-26
2.42900	-24
2.43267	-21
2.43633	-19
2.44000	-16
2.44367	-13
2.44733	-11
2.45100	-9
2.45467	-7
2.45833	-6
2.46200	-4
2.46567	-3
2.46933	-2
2.47300	-1
2.47667	0
2.48033	2
2.48400	3
2.48767	4
2.49133	5
2.49500	6
2.49867	7
2.50233	8
2.50600	8
2.50967	9
2.51333	9
2.51700	9
2.52067	10
2.52433	10
2.52800	10
2.53167	11
2.53533	12
2.53900	13
2.54267	13
2.54633	14
2.55000	15
2.55367	16
2.55733	16
2.56100	17
2.56467	17
2.56833	18
2.57200	18
2.57567	18
2.57933	19
2.58300	19
2.58667	20
2.59033	20
2.59400	20
2.59767	20
2.60133	20
2.60500	20
2.60867	19
2.61233	19
2.61600	19
2.61967	19
2.62333	20
2.62700	20
2.63067	21
2.63433	21
2.63800	22
2.64167	22
2.64533	22
2.64900	22
2.65267	22
2.65633	22
2.66000	22
2.66367	22
2.66733	22
2.67100	21
2.67467	21
2.67833	21
2.68200	22
2.68567	22
2.68933	23
2.69300	23
2.69667	24
2.70033	24
2.70400	25
2.70767	25
2.71133	26
2.71500	26
2.71867	26
2.72233	26
2.72600	26
2.72967	26
2.73333	26
2.73700	26
2.74067	26
2.74433	26
2.74800	26
2.75167	26
2.75533	26
2.75900	26
2.76267	26
2.76633	26
2.77000	26
2.77367	26
2.77733	27
2.78100	27
2.78467	28
2.78833	28
2.79200	28
2.79567	28
2.79933	28
2.80300	28
2.80667	27
2.81033	26
2.81400	25
2.81767	25
2.82133	24
2.82500	24
2.82867	24
2.83233	24
2.83600	25
2.83967	25
2.84333	25
2.84700	26
2.85067	26
2.85433	26
2.85800	26
2.86167	25
2.86533	22
2.86900	18
2.87267	12
2.87633	3
2.88000	-10
2.88367	-26
2.88733	-46
2.89100	-69
2.89467	-97
2.89833	-129
2.90200	-164
2.90567	-202
2.90933	-244
2.91300	-288
2.91667	-335
2.92033	-383
2.92400	-432
2.92767	-482
2.93133	-533
2.93500	-584
2.93867	-635
2.94233	-685
2.94600	-735
2.94967	-784
2.95333	-834
2.95700	-888
2.96067	-947
2.96433	-1008
2.96800	-1060
2.97167	-1094
2.97533	-1103
2.97900	-1086
2.98267	-1045
2.98633	-986
2.99000	-914
2.99367	-836
2.99733	-755
3.00100	-675
3.00467	-599
3.00833	-527
3.01200	-460
3.01567	-400
3.01933	-345
3.02300	-297
3.02667	-254
3.03033	-217
3.03400	-185
3.03767	-156
3.04133	-132
3.04500	-111
3.04867	-92
3.05233	-76
3.05600	-63
3.05967	-51
3.06333	-41
3.06700	-33
3.07067	-25
3.07433	-19
3.07800	-14
3.08167	-9
3.08533	-6
3.08900	-3
3.09267	0
3.09633	3
3.10000	5
3.10367	7
3.10733	8
3.11100	9
3.11467	10
3.11833	11
3.12200	12
3.12567	13
3.12933	13
3.13300	14
3.13667	14
3.14033	15
3.14400	15
3.14767	16
3.15133	16
3.15500	17
3.15867	17
3.16233	17
3.16600	18
3.16967	18
3.17333	18
3.17700	19
3.18067	19
3.18433	19
3.18800	20
3.19167	20
3.19533	20
3.19900	20
3.20267	20
3.20633	21
3.21000	21
3.21367	21
3.21733	22
3.22100	22
3.22467	22
3.22833	23
3.23200	23
3.23567	23
3.23933	23
3.24300	23
3.24667	23
3.25033	24
3.25400	24
3.25767	24
3.26133	24
3.26500	24
3.26867	24
3.27233	24
3.27600	24
3.27967	25
3.28333	24
3.28700	24
3.29067	25
3.29433	24
3.29800	25
3.30167	25
3.30533	25
3.30900	25
3.31267	25
3.31633	25
3.32000	25
3.32367	26
3.32733	26
3.33100	26
3.33467	26
3.33833	26
3.34200	26
3.34567	26
3.34933	26
3.35300	26
3.35667	26
3.36033	26
3.36400	26
3.36767	26
3.37133	26
3.37500	26
3.37867	26
3.38233	26
3.38600	26
3.38967	26
3.39333	26
3.39700	26
3.40067	26
3.40433	26
3.40800	26
3.41167	26
3.41533	26
3.41900	27
3.42267	27
3.42633	27
3.43000	27
3.43367	27
3.43733	28
3.44100	28
3.44467	28
3.44833	28
3.45200	28
3.45567	28
3.45933	28
3.46300	28
3.46667	28
3.47033	28
3.47400	28
3.47767	28
3.48133	28
3.48500	28
3.48867	28
3.49233	28
3.49600	28
3.49967	28
3.50333	28
3.50700	29
3.51067	29
3.51433	29
3.51800	28
3.52167	28
3.52533	28
3.52900	28
3.53267	28
3.53633	28
3.54000	27
3.54367	27
3.54733	27
3.55100	27
3.55467	28
3.55833	28
3.56200	28
3.56567	28
3.56933	28
3.57300	28
3.57667	28
3.58033	28
3.58400	28
3.58767	28
3.59133	28
3.59500	28
3.59867	28
3.60233	28
3.60600	27
3.60967	27
3.61333	27
3.61700	27
3.62067	27
3.62433	27
3.62800	27
3.63167	27
3.63533	27
3.63900	27
3.64267	27
3.64633	28
3.65000	28
3.65367	28
3.65733	28
3.66100	28
3.66467	27
3.66833	27
3.67200	28
3.67567	28
3.67933	28
3.68300	28
3.68667	28
3.69033	28
3.69400	28
3.69767	28
3.70133	28
3.70500	28
3.70867	28
3.71233	28
3.71600	28
3.71967	28
3.72333	28
3.72700	28
3.73067	28
3.73433	28
3.73800	28
3.74167	29
3.74533	29
3.74900	29
3.75267	29
3.75633	29
3.76000	29
3.76367	29
3.76733	29
3.77100	29
3.77467	29
3.77833	29
3.78200	29
3.78567	29
3.78933	29
3.79300	29
3.79667	28
3.80033	28
3.80400	28
3.80767	28
3.81133	28
3.81500	28
3.81867	28
3.82233	28
3.82600	28
3.82967	28
3.83333	28
3.83700	28
3.84067	28
3.84433	28
3.84800	28
3.85167	28
3.85533	28
3.85900	28
3.86267	28
3.86633	28
3.87000	28
3.87367	28
3.87733	27
3.88100	27
3.88467	27
3.88833	27
3.89200	27
3.89567	27
3.89933	27
3.90300	27
3.90667	27
3.91033	27
3.91400	27
3.91767	27
3.92133	27
3.92500	28
3.92867	28
3.93233	28
3.93600	28
3.93967	28
3.94333	28
3.94700	29
3.95067	29
3.95433	28
3.95800	28
3.96167	28
3.96533	28
3.96900	28
3.97267	27
3.97633	27
3.98000	27
3.98367	27
3.98733	26
3.99100	26
3.99467	26
3.99833	27

[Chromatogram (Ch3)]
Interval(msec)	220
# of Points	1091
Start Time(min)	0.002
End Time(min)	3.998
R.Time (min)	Intensity
0.00167	0
0.00533	-0
0.00900	-1
0.01267	-4
0.01633	-7
0.02000	-9
0.02367	-11
0.02733	-10
0.03100	-10
0.03467	-9
0.03833	-8
0.04200	-6
0.04567	-5
0.04933	-6
0.05300	-7
0.05667	-7
0.06033	-7
0.06400	-5
0.06767	-4
0.07133	-4
0.07500	-4
0.07867	-4
0.08233	-3
0.08600	-2
0.08967	-0
0.09333	-1
0.09700	-2
0.10067	-2
0.10433	-0
0.10800	0
0.11167	3
0.11533	2
0.11900	1
0.12267	1
0.12633	1
0.13000	0
0.13367	-1
0.13733	-4
0.14100	-4
0.14467	-0
0.14833	4
0.15200	6
0.15567	5
0.15933	6
0.16300	6
0.16667	5
0.17033	6
0.17400	7
0.17767	9
0.18133	9
0.18500	8
0.18867	6
0.19233	5
0.19600	4
0.19967	6
0.20333	7
0.20700	7
0.21067	5
0.21433	4
0.21800	3
0.22167	6
0.22533	9
0.22900	9
0.23267	7
0.23633	7
0.24000	8
0.24367	7
0.24733	7
0.25100	9
0.25467	10
0.25833	9
0.26200	10
0.26567	11
0.26933	13
0.27300	12
0.27667	11
0.28033	11
0.28400	11
0.28767	10
0.29133	10
0.29500	10
0.29867	11
0.30233	10
0.30600	9
0.30967	10
0.31333	11
0.31700	12
0.32067	11
0.32433	12
0.32800	10
0.33167	8
0.33533	10
0.33900	13
0.34267	15
0.34633	16
0.35000	16
0.35367	16
0.35733	15
0.36100	12
0.36467	12
0.36833	13
0.37200	13
0.37567	12
0.37933	12
0.38300	13
0.38667	14
0.39033	15
0.39400	16
0.39767	15
0.40133	16
0.40500	17
0.40867	16
0.41233	16
0.41600	15
0.41967	14
0.42333	13
0.42700	14
0.43067	14
0.43433	15
0.43800	16
0.44167	15
0.44533	12
0.44900	10
0.45267	11
0.45633	11
0.46000	11
0.46367	9
0.46733	8
0.47100	10
0.47467	11
0.47833	11
0.48200	13
0.48567	13
0.48933	13
0.49300	15
0.49667	16
0.50033	18
0.50400	19
0.50767	20
0.51133	19
0.51500	19
0.51867	20
0.52233	19
0.52600	16
0.52967	15
0.53333	13
0.53700	10
0.54067	9
0.54433	12
0.54800	16
0.55167	19
0.55533	20
0.55900	21
0.56267	20
0.56633	22
0.57000	24
0.57367	22
0.57733	20
0.58100	19
0.58467	19
0.58833	18
0.59200	16
0.59567	16
0.59933	17
0.60300	17
0.60667	19
0.61033	22
0.61400	24
0.61767	23
0.62133	20
0.62500	18
0.62867	18
0.63233	17
0.63600	18
0.63967	20
0.64333	20
0.64700	20
0.65067	18
0.65433	17
0.65800	17
0.66167	19
0.66533	21
0.66900	21
0.67267	20
0.67633	20
0.68000	21
0.68367	21
0.68733	22
0.69100	21
0.69467	21
0.69833	19
0.70200	17
0.70567	16
0.70933	19
0.71300	22
0.71667	22
0.72033	22
0.72400	24
0.72767	25
0.73133	25
0.73500	23
0.73867	20
0.74233	19
0.74600	19
0.74967	19
0.75333	21
0.75700	21
0.76067	21
0.76433	23
0.76800	24
0.77167	26
0.77533	27
0.77900	26
0.78267	22
0.78633	20
0.79000	19
0.79367	20
0.79733	21
0.80100	20
0.80467	20
0.80833	19
0.81200	19
0.81567	18
0.81933	15
0.82300	16
0.82667	19
0.83033	21
0.83400	22
0.83767	22
0.84133	23
0.84500	22
0.84867	21
0.85233	19
0.85600	18
0.85967	18
0.86333	20
0.86700	21
0.87067	21
0.87433	21
0.87800	22
0.88167	22
0.88533	20
0.88900	18
0.89267	19
0.89633	21
0.90000	22
0.90367	22
0.90733	22
0.91100	23
0.91467	24
0.91833	26
0.92200	25
0.92567	25
0.92933	25
0.93300	25
0.93667	27
0.94033	27
0.94400	25
0.94767	24
0.95133	23
0.95500	23
0.95867	25
0.96233	27
0.96600	29
0.96967	28
0.97333	27
0.97700	27
0.98067	26
0.98433	24
0.98800	25
0.99167	25
0.99533	27
0.99900	27
1.00267	26
1.00633	28
1.01000	30
1.01367	32
1.01733	32
1.02100	30
1.02467	28
1.02833	27
1.03200	26
1.03567	26
1.03933	25
1.04300	24
1.04667	24
1.05033	25
1.05400	25
1.05767	24
1.06133	23
1.06500	24
1.06867	24
1.07233	24
1.07600	22
1.07967	21
1.08333	22
1.08700	23
1.09067	22
1.09433	22
1.09800	22
1.10167	21
1.10533	23
1.10900	21
1.11267	21
1.11633	23
1.12000	24
1.12367	25
1.12733	25
1.13100	26
1.13467	25
1.13833	21
1.14200	19
1.14567	18
1.14933	18
1.15300	21
1.15667	23
1.16033	23
1.16400	22
1.16767	22
1.17133	21
1.17500	21
1.17867	21
1.18233	22
1.18600	23
1.18967	24
1.19333	26
1.19700	28
1.20067	28
1.20433	28
1.20800	27
1.21167	26
1.21533	26
1.21900	23
1.22267	21
1.22633	19
1.23000	16
1.23367	13
1.23733	12
1.24100	13
1.24467	15
1.24833	16
1.25200	17
1.25567	16
1.25933	17
1.26300	19
1.26667	20
1.27033	18
1.27400	18
1.27767	19
1.28133	20
1.28500	21
1.28867	20
1.29233	19
1.29600	18
1.29967	16
1.30333	15
1.30700	13
1.31067	13
1.31433	14
1.31800	14
1.32167	14
1.32533	16
1.32900	18
1.33267	19
1.33633	18
1.34000	18
1.34367	16
1.34733	15
1.35100	17
1.35467	20
1.35833	23
1.36200	25
1.36567	25
1.36933	22
1.37300	21
1.37667	21
1.38033	20
1.38400	19
1.38767	19
1.39133	19
1.39500	20
1.39867	21
1.40233	21
1.40600	22
1.40967	21
1.41333	20
1.41700	19
1.42067	19
1.42433	18
1.42800	16
1.43167	16
1.43533	17
1.43900	17
1.44267	17
1.44633	16
1.45000	16
1.45367	17
1.45733	17
1.46100	18
1.46467	19
1.46833	20
1.47200	21
1.47567	22
1.47933	22
1.48300	20
1.48667	17
1.49033	17
1.49400	16
1.49767	16
1.50133	16
1.50500	16
1.50867	17
1.51233	19
1.51600	21
1.51967	21
1.52333	21
1.52700	20
1.53067	17
1.53433	13
1.53800	10
1.54167	9
1.54533	10
1.54900	10
1.55267	10
1.55633	12
1.56000	13
1.56367	14
1.56733	11
1.57100	9
1.57467	8
1.57833	7
1.58200	6
1.58567	8
1.58933	10
1.59300	12
1.59667	12
1.60033	12
1.60400	12
1.60767	15
1.61133	17
1.61500	18
1.61867	18
1.62233	14
1.62600	11
1.62967	11
1.63333	11
1.63700	14
1.64067	15
1.64433	12
1.64800	11
1.65167	13
1.65533	12
1.65900	11
1.66267	11
1.66633	9
1.67000	11
1.67367	13
1.67733	14
1.68100	16
1.68467	17
1.68833	18
1.69200	18
1.69567	19
1.69933	19
1.70300	19
1.70667	18
1.71033	16
1.71400	16
1.71767	17
1.72133	20
1.72500	22
1.72867	20
1.73233	21
1.73600	21
1.73967	20
1.74333	18
1.74700	18
1.75067	18
1.75433	22
1.75800	24
1.76167	24
1.76533	26
1.76900	27
1.77267	28
1.77633	27
1.78000	26
1.78367	26
1.78733	25
1.79100	25
1.79467	25
1.79833	28
1.80200	31
1.80567	32
1.80933	30
1.81300	29
1.81667	31
1.82033	33
1.82400	33
1.82767	33
1.83133	31
1.83500	30
1.83867	31
1.84233	34
1.84600	36
1.84967	37
1.85333	37
1.85700	37
1.86067	39
1.86433	40
1.86800	41
1.87167	41
1.87533	40
1.87900	39
1.88267	38
1.88633	39
1.89000	37
1.89367	38
1.89733	39
1.90100	38
1.90467	39
1.90833	41
1.91200	43
1.91567	45
1.91933	48
1.92300	50
1.92667	50
1.93033	51
1.93400	50
1.93767	49
1.94133	49
1.94500	49
1.94867	46
1.95233	45
1.95600	46
1.95967	48
1.96333	49
1.96700	51
1.97067	51
1.97433	51
1.97800	49
1.98167	48
1.98533	49
1.98900	50
1.99267	52
1.99633	53
2.00000	52
2.00367	53
2.00733	55
2.01100	56
2.01467	56
2.01833	57
2.02200	62
2.02567	63
2.02933	64
2.03300	66
2.03667	65
2.04033	64
2.04400	65
2.04767	65
2.05133	65
2.05500	63
2.05867	62
2.06233	63
2.06600	65
2.06967	68
2.07333	68
2.07700	69
2.08067	69
2.08433	71
2.08800	72
2.09167	73
2.09533	74
2.09900	77
2.10267	82
2.10633	83
2.11000	83
2.11367	83
2.11733	82
2.12100	81
2.12467	80
2.12833	79
2.13200	80
2.13567	81
2.13933	83
2.14300	86
2.14667	87
2.15033	86
2.15400	87
2.15767	90
2.16133	91
2.16500	90
2.16867	89
2.17233	88
2.17600	88
2.17967	90
2.18333	93
2.18700	95
2.19067	99
2.19433	100
2.19800	99
2.20167	99
2.20533	99
2.20900	100
2.21267	103
2.21633	104
2.22000	104
2.22367	104
2.22733	104
2.23100	107
2.23467	109
2.23833	112
2.24200	114
2.24567	115
2.24933	115
2.25300	115
2.25667	115
2.26033	119
2.26400	119
2.26767	119
2.27133	118
2.27500	120
2.27867	123
2.28233	124
2.28600	124
2.28967	123
2.29333	122
2.29700	125
2.30067	128
2.30433	127
2.30800	126
2.31167	127
2.31533	130
2.31900	131
2.32267	132
2.32633	133
2.33000	133
2.33367	136
2.33733	139
2.34100	143
2.34467	143
2.34833	141
2.35200	141
2.35567	142
2.35933	142
2.36300	142
2.36667	142
2.37033	144
2.37400	146
2.37767	149
2.38133	150
2.38500	149
2.38867	146
2.39233	144
2.39600	145
2.39967	146
2.40333	150
2.40700	154
2.41067	155
2.41433	155
2.41800	156
2.42167	157
2.42533	158
2.42900	161
2.43267	163
2.43633	163
2.44000	165
2.44367	193
2.44733	262
2.45100	336
2.45467	388
2.45833	406
2.46200	395
2.46567	377
2.46933	364
2.47300	349
2.47667	327
2.48033	297
2.48400	266
2.48767	236
2.49133	211
2.49500	197
2.49867	188
2.50233	186
2.50600	190
2.50967	200
2.51333	209
2.51700	212
2.52067	207
2.52433	196
2.52800	179
2.53167	158
2.53533	140
2.53900	123
2.54267	108
2.54633	96
2.55000	87
2.55367	82
2.55733	78
2.56100	75
2.56467	72
2.56833	70
2.57200	68
2.57567	67
2.57933	68
2.58300	73
2.58667	79
2.59033	87
2.59400	95
2.59767	102
2.60133	108
2.60500	115
2.60867	119
2.61233	120
2.61600	117
2.61967	105
2.62333	85
2.62700	59
2.63067	26
2.63433	-9
2.63800	-43
2.64167	-77
2.64533	-108
2.64900	-135
2.65267	-158
2.65633	-176
2.66000	-187
2.66367	-192
2.66733	-194
2.67100	-195
2.67467	-194
2.67833	-191
2.68200	-186
2.68567	-179
2.68933	-171
2.69300	-164
2.69667	-157
2.70033	-149
2.70400	-143
2.70767	-136
2.71133	-129
2.71500	-125
2.71867	-120
2.72233	-114
2.72600	-105
2.72967	-96
2.73333	-87
2.73700	-79
2.74067	-76
2.74433	-72
2.74800	-68
2.75167	-64
2.75533	-60
2.75900	-54
2.76267	-48
2.76633	-41
2.77000	-32
2.77367	-25
2.77733	-22
2.78100	-20
2.78467	-22
2.78833	-37
2.79200	-82
2.79567	-127
2.79933	-138
2.80300	-115
2.80667	-67
2.81033	-8
2.81400	57
2.81767	123
2.82133	189
2.82500	249
2.82867	307
2.83233	365
2.83600	424
2.83967	488
2.84333	569
2.84700	692
2.85067	880
2.85433	1155
2.85800	1533
2.86167	2018
2.86533	2596
2.86900	3232
2.87267	3878
2.87633	4480
2.88000	4997
2.88367	5385
2.88733	5622
2.89100	5701
2.89467	5637
2.89833	5452
2.90200	5180
2.90567	4848
2.90933	4484
2.91300	4111
2.91667	3743
2.92033	3389
2.92400	3060
2.92767	2762
2.93133	2495
2.93500	2254
2.93867	2038
2.94233	1847
2.94600	1682
2.94967	1537
2.95333	1411
2.95700	1301
2.96067	1206
2.96433	1125
2.96800	1056
2.97167	994
2.97533	941
2.97900	896
2.98267	859
2.98633	827
2.99000	799
2.99367	777
2.99733	758
3.00100	738
3.00467	722
3.00833	710
3.01200	699
3.01567	690
3.01933	681
3.02300	674
3.02667	672
3.03033	672
3.03400	671
3.03767	671
3.04133	673
3.04500	674
3.04867	673
3.05233	671
3.05600	671
3.05967	671
3.06333	672
3.06700	675
3.07067	678
3.07433	680
3.07800	682
3.08167	686
3.08533	689
3.08900	690
3.09267	693
3.09633	695
3.10000	695
3.10367	696
3.10733	701
3.11100	706
3.11467	712
3.11833	714
3.12200	715
3.12567	718
3.12933	720
3.13300	723
3.13667	722
3.14033	721
3.14400	723
3.14767	725
3.15133	726
3.15500	729
3.15867	730
3.16233	730
3.16600	731
3.16967	729
3.17333	728
3.17700	727
3.18067	726
3.18433	724
3.18800	722
3.19167	723
3.19533	724
3.19900	726
3.20267	727
3.20633	726
3.21000	726
3.21367	725
3.21733	725
3.22100	723
3.22467	720
3.22833	718
3.23200	718
3.23567	716
3.23933	713
3.24300	711
3.24667	709
3.25033	708
3.25400	705
3.25767	702
3.26133	696
3.26500	691
3.26867	689
3.27233	687
3.27600	685
3.27967	681
3.28333	676
3.28700	673
3.29067	668
3.29433	664
3.29800	661
3.30167	658
3.30533	654
3.30900	652
3.31267	650
3.31633	648
3.32000	646
3.32367	645
3.32733	642
3.33100	637
3.33467	631
3.33833	628
3.34200	626
3.34567	621
3.34933	616
3.35300	614
3.35667	612
3.36033	608
3.36400	605
3.36767	603
3.37133	599
3.37500	594
3.37867	589
3.38233	586
3.38600	587
3.38967	585
3.39333	582
3.39700	579
3.40067	574
3.40433	570
3.40800	567
3.41167	563
3.41533	561
3.41900	558
3.42267	556
3.42633	553
3.43000	550
3.43367	546
3.43733	542
3.44100	538
3.44467	534
3.44833	531
3.45200	529
3.45567	526
3.45933	522
3.46300	521
3.46667	520
3.47033	518
3.47400	516
3.47767	515
3.48133	515
3.48500	511
3.48867	506
3.49233	503
3.49600	499
3.49967	495
3.50333	494
3.50700	490
3.51067	485
3.51433	483
3.51800	483
3.52167	483
3.52533	480
3.52900	476
3.53267	473
3.53633	468
3.54000	464
3.54367	462
3.54733	460
3.55100	458
3.55467	455
3.55833	454
3.56200	452
3.56567	450
3.56933	447
3.57300	446
3.57667	441
3.58033	437
3.58400	435
3.58767	435
3.59133	436
3.59500	436
3.59867	436
3.60233	436
3.60600	436
3.60967	435
3.61333	435
3.61700	432
3.62067	430
3.62433	428
3.62800	423
3.63167	421
3.63533	422
3.63900	421
3.64267	417
3.64633	413
3.65000	410
3.65367	410
3.65733	409
3.66100	407
3.66467	406
3.66833	405
3.67200	405
3.67567	402
3.67933	401
3.68300	399
3.68667	399
3.69033	400
3.69400	398
3.69767	397
3.70133	395
3.70500	393
3.70867	391
3.71233	389
3.71600	388
3.71967	386
3.72333	387
3.72700	386
3.73067	380
3.73433	377
3.73800	375
3.74167	375
3.74533	375
3.74900	373
3.75267	372
3.75633	372
3.76000	375
3.76367	377
3.76733	377
3.77100	375
3.77467	371
3.77833	367
3.78200	365
3.78567	364
3.78933	362
3.79300	362
3.79667	363
3.80033	363
3.80400	361
3.80767	361
3.81133	360
3.81500	358
3.81867	358
3.82233	356
3.82600	352
3.82967	350
3.83333	349
3.83700	348
3.84067	349
3.84433	351
3.84800	353
3.85167	354
3.85533	352
3.85900	349
3.86267	348
3.86633	347
3.87000	346
3.87367	345
3.87733	343
3.88100	343
3.88467	343
3.88833	345
3.89200	346
3.89567	348
3.89933	348
3.90300	349
3.90667	348
3.91033	346
3.91400	343
3.91767	341
3.92133	337
3.92500	332
3.92867	329
3.93233	329
3.93600	330
3.93967	329
3.94333	326
3.94700	324
3.95067	324
3.95433	325
3.95800	327
3.96167	327
3.96533	325
3.96900	323
3.97267	323
3.97633	323
3.98000	323
3.98367	325
3.98733	326
3.99100	325
3.99467	322
3.99833	317

[Status Trace (Column Oven Temperature)]
Interval(msec)	1000
# of Points	240
Start Time(min)	0.006
End Time(min)	3.990
Intensity Units	
Intensity Multiplier	1
R.Time (min)	Intensity
0.00637	35.02
0.02303	35.02
0.03970	35.03
0.05637	35.03
0.07303	35.03
0.08970	35.02
0.10637	35.01
0.12303	35.01
0.13970	35.00
0.15637	35.00
0.17303	35.00
0.18970	35.00
0.20637	34.99
0.22303	34.99
0.23970	34.99
0.25637	34.99
0.27303	34.99
0.28970	34.99
0.30637	34.99
0.32303	34.99
0.33970	35.00
0.35637	35.00
0.37303	35.00
0.38970	34.99
0.40637	34.98
0.42303	34.98
0.43970	34.98
0.45637	34.98
0.47303	34.99
0.48970	34.99
0.50637	35.00
0.52303	35.00
0.53970	34.99
0.55637	34.99
0.57303	35.00
0.58970	34.99
0.60637	34.98
0.62303	34.98
0.63970	34.98
0.65637	35.00
0.67303	35.00
0.68970	35.00
0.70637	35.00
0.72303	35.00
0.73970	35.00
0.75637	35.00
0.77303	34.99
0.78970	34.99
0.80637	34.99
0.82303	34.99
0.83970	34.99
0.85637	35.00
0.87303	35.00
0.88970	35.00
0.90637	35.00
0.92303	35.00
0.93970	35.00
0.95637	35.00
0.97303	35.01
0.98970	35.01
1.00637	35.01
1.02303	35.01
1.03970	35.01
1.05637	35.01
1.07303	35.01
1.08970	35.00
1.10637	35.00
1.12303	35.00
1.13970	34.99
1.15637	34.99
1.17303	34.99
1.18970	34.99
1.20637	35.01
1.22303	35.03
1.23970	35.04
1.25637	35.04
1.27303	35.04
1.28970	35.03
1.30637	35.03
1.32303	35.03
1.33970	35.03
1.35637	35.02
1.37303	35.02
1.38970	35.01
1.40637	35.00
1.42303	34.99
1.43970	34.99
1.45637	34.98
1.47303	34.98
1.48970	34.98
1.50637	34.98
1.52303	34.98
1.53970	34.98
1.55637	34.98
1.57303	34.99
1.58970	35.01
1.60637	35.07
1.62303	35.18
1.63970	35.35
1.65637	35.60
1.67303	35.93
1.68970	36.30
1.70637	36.65
1.72303	36.98
1.73970	37.32
1.75637	37.64
1.77303	37.98
1.78970	38.32
1.80637	38.65
1.82303	38.96
1.83970	39.29
1.85637	39.63
1.87303	39.96
1.88970	40.28
1.90637	40.60
1.92303	40.94
1.93970	41.29
1.95637	41.61
1.97303	41.93
1.98970	42.25
2.00637	42.59
2.02303	42.90
2.03970	43.21
2.05637	43.54
2.07303	43.87
2.08970	44.19
2.10637	44.51
2.12303	44.84
2.13970	45.17
2.15637	45.49
2.17303	45.82
2.18970	46.15
2.20637	46.49
2.22303	46.81
2.23970	47.13
2.25637	47.47
2.27303	47.79
2.28970	48.12
2.30637	48.47
2.32303	48.80
2.33970	49.12
2.35637	49.41
2.37303	49.63
2.38970	49.72
2.40637	49.69
2.42303	49.71
2.43970	49.71
2.45637	49.73
2.47303	49.73
2.48970	49.74
2.50637	49.75
2.52303	49.77
2.53970	49.78
2.55637	49.81
2.57303	49.81
2.58970	49.80
2.60637	49.81
2.62303	49.83
2.63970	49.83
2.65637	49.84
2.67303	49.86
2.68970	49.85
2.70637	49.85
2.72303	49.85
2.73970	49.86
2.75637	49.85
2.77303	49.85
2.78970	49.84
2.80637	49.87
2.82303	49.90
2.83970	49.90
2.85637	49.90
2.87303	49.89
2.88970	49.90
2.90637	49.90
2.92303	49.90
2.93970	49.92
2.95637	49.94
2.97303	49.95
2.98970	49.96
3.00637	49.97
3.02303	49.97
3.03970	49.97
3.05637	49.98
3.07303	49.99
3.08970	50.00
3.10637	50.01
3.12303	50.02
3.13970	50.02
3.15637	50.02
3.17303	50.03
3.18970	50.04
3.20637	50.04
3.22303	50.04
3.23970	50.05
3.25637	50.07
3.27303	50.07
3.28970	50.08
3.30637	50.08
3.32303	50.09
3.33970	50.08
3.35637	50.09
3.37303	50.10
3.38970	50.10
3.40637	50.10
3.42303	50.09
3.43970	50.09
3.45637	50.08
3.47303	50.08
3.48970	50.08
3.50637	50.07
3.52303	50.08
3.53970	50.08
3.55637	50.08
3.57303	50.08
3.58970	50.08
3.60637	50.08
3.62303	50.09
3.63970	50.08
3.65637	50.08
3.67303	50.08
3.68970	50.08
3.70637	50.09
3.72303	50.09
3.73970	50.08
3.75637	50.08
3.77303	50.08
3.78970	50.08
3.80637	50.08
3.82303	50.07
3.83970	50.08
3.85637	50.08
3.87303	50.08
3.88970	50.08
3.90637	50.07
3.92303	50.07
3.93970	50.07
3.95637	50.08
3.97303	50.08
3.98970	50.09

[Status Trace (Injection Unit Temperature)]
Interval(msec)	1000
# of Points	240
Start Time(min)	0.006
End Time(min)	3.990
Intensity Units	
Intensity Multiplier	1
R.Time (min)	Intensity
0.00637	99.98
0.02303	99.99
0.03970	99.98
0.05637	99.99
0.07303	99.99
0.08970	99.99
0.10637	99.99
0.12303	99.99
0.13970	99.99
0.15637	99.99
0.17303	99.99
0.18970	99.99
0.20637	99.99
0.22303	99.99
0.23970	99.99
0.25637	99.99
0.27303	99.99
0.28970	99.99
0.30637	99.99
0.32303	99.98
0.33970	99.99
0.35637	99.99
0.37303	99.98
0.38970	99.98
0.40637	99.98
0.42303	99.98
0.43970	99.98
0.45637	99.98
0.47303	99.98
0.48970	99.98
0.50637	99.98
0.52303	99.98
0.53970	99.98
0.55637	99.98
0.57303	99.98
0.58970	99.98
0.60637	99.98
0.62303	99.98
0.63970	99.98
0.65637	99.98
0.67303	99.98
0.68970	99.98
0.70637	99.98
0.72303	99.98
0.73970	99.98
0.75637	99.98
0.77303	99.98
0.78970	99.98
0.80637	99.98
0.82303	99.98
0.83970	99.98
0.85637	99.98
0.87303	99.99
0.88970	99.99
0.90637	99.98
0.92303	99.98
0.93970	99.98
0.95637	99.98
0.97303	99.99
0.98970	99.98
1.00637	99.98
1.02303	99.99
1.03970	99.98
1.05637	99.99
1.07303	99.99
1.08970	99.99
1.10637	99.99
1.12303	99.99
1.13970	99.99
1.15637	99.99
1.17303	99.99
1.18970	99.99
1.20637	99.99
1.22303	99.99
1.23970	99.99
1.25637	99.99
1.27303	99.99
1.28970	99.99
1.30637	99.99
1.32303	99.99
1.33970	99.99
1.35637	99.99
1.37303	99.99
1.38970	99.99
1.40637	99.99
1.42303	99.99
1.43970	99.99
1.45637	99.99
1.47303	99.99
1.48970	99.99
1.50637	99.99
1.52303	99.99
1.53970	99.99
1.55637	99.99
1.57303	99.99
1.58970	99.98
1.60637	99.99
1.62303	99.99
1.63970	99.99
1.65637	99.99
1.67303	99.99
1.68970	99.99
1.70637	99.99
1.72303	99.99
1.73970	99.99
1.75637	99.99
1.77303	99.99
1.78970	99.99
1.80637	99.99
1.82303	99.99
1.83970	99.98
1.85637	99.98
1.87303	99.98
1.88970	99.98
1.90637	99.99
1.92303	99.98
1.93970	99.98
1.95637	99.98
1.97303	99.98
1.98970	99.98
2.00637	99.98
2.02303	99.97
2.03970	99.97
2.05637	99.97
2.07303	99.98
2.08970	99.98
2.10637	99.97
2.12303	99.98
2.13970	99.97
2.15637	99.97
2.17303	99.97
2.18970	99.97
2.20637	99.97
2.22303	99.97
2.23970	99.97
2.25637	99.97
2.27303	99.97
2.28970	99.97
2.30637	99.97
2.32303	99.97
2.33970	99.97
2.35637	99.97
2.37303	99.96
2.38970	99.97
2.40637	99.97
2.42303	99.97
2.43970	99.97
2.45637	99.97
2.47303	99.97
2.48970	99.97
2.50637	99.97
2.52303	99.97
2.53970	99.97
2.55637	99.97
2.57303	99.97
2.58970	99.98
2.60637	99.98
2.62303	99.98
2.63970	99.98
2.65637	99.98
2.67303	99.98
2.68970	99.98
2.70637	99.99
2.72303	99.99
2.73970	99.99
2.75637	99.99
2.77303	99.99
2.78970	99.99
2.80637	100.00
2.82303	100.00
2.83970	100.00
2.85637	100.00
2.87303	100.00
2.88970	100.01
2.90637	100.00
2.92303	100.01
2.93970	100.01
2.95637	100.01
2.97303	100.01
2.98970	100.02
3.00637	100.02
3.02303	100.02
3.03970	100.02
3.05637	100.02
3.07303	100.02
3.08970	100.02
3.10637	100.03
3.12303	100.03
3.13970	100.03
3.15637	100.03
3.17303	100.03
3.18970	100.03
3.20637	100.03
3.22303	100.03
3.23970	100.03
3.25637	100.03
3.27303	100.04
3.28970	100.04
3.30637	100.04
3.32303	100.04
3.33970	100.04
3.35637	100.04
3.37303	100.04
3.38970	100.04
3.40637	100.04
3.42303	100.04
3.43970	100.04
3.45637	100.04
3.47303	100.04
3.48970	100.05
3.50637	100.04
3.52303	100.04
3.53970	100.04
3.55637	100.04
3.57303	100.05
3.58970	100.05
3.60637	100.05
3.62303	100.05
3.63970	100.05
3.65637	100.05
3.67303	100.05
3.68970	100.05
3.70637	100.05
3.72303	100.05
3.73970	100.04
3.75637	100.05
3.77303	100.05
3.78970	100.05
3.80637	100.05
3.82303	100.05
3.83970	100.04
3.85637	100.04
3.87303	100.05
3.88970	100.05
3.90637	100.05
3.92303	100.05
3.93970	100.04
3.95637	100.05
3.97303	100.05
3.98970	100.05

[Status Trace (Carrier Gas Pressure)]
Interval(msec)	1000
# of Points	240
Start Time(min)	0.006
End Time(min)	3.990
Intensity Units	
Intensity Multiplier	1
R.Time (min)	Intensity
0.00637	58.00
0.02303	55.62
0.03970	56.89
0.05637	58.95
0.07303	59.67
0.08970	58.12
0.10637	57.97
0.12303	58.01
0.13970	58.01
0.15637	58.01
0.17303	58.00
0.18970	58.00
0.20637	58.00
0.22303	58.00
0.23970	58.00
0.25637	58.00
0.27303	58.00
0.28970	58.00
0.30637	58.00
0.32303	58.00
0.33970	58.00
0.35637	58.00
0.37303	58.00
0.38970	58.00
0.40637	58.00
0.42303	58.00
0.43970	58.00
0.45637	58.00
0.47303	58.00
0.48970	58.00
0.50637	58.00
0.52303	58.00
0.53970	58.00
0.55637	58.00
0.57303	58.00
0.58970	58.00
0.60637	58.00
0.62303	58.00
0.63970	58.00
0.65637	58.00
0.67303	58.00
0.68970	58.00
0.70637	58.00
0.72303	58.00
0.73970	58.00
0.75637	58.00
0.77303	58.00
0.78970	58.00
0.80637	58.00
0.82303	58.00
0.83970	58.00
0.85637	58.00
0.87303	58.00
0.88970	58.00
0.90637	58.00
0.92303	58.00
0.93970	58.00
0.95637	58.00
0.97303	58.00
0.98970	58.00
1.00637	58.00
1.02303	58.00
1.03970	58.00
1.05637	58.00
1.07303	58.00
1.08970	58.00
1.10637	58.00
1.12303	58.00
1.13970	58.00
1.15637	58.00
1.17303	58.00
1.18970	58.00
1.20637	58.00
1.22303	58.00
1.23970	58.00
1.25637	58.00
1.27303	58.00
1.28970	58.00
1.30637	58.00
1.32303	58.00
1.33970	58.00
1.35637	58.00
1.37303	58.00
1.38970	58.00
1.40637	58.00
1.42303	58.00
1.43970	58.00
1.45637	58.00
1.47303	58.00
1.48970	58.00
1.50637	58.00
1.52303	58.00
1.53970	58.00
1.55637	58.00
1.57303	58.00
1.58970	58.00
1.60637	58.00
1.62303	58.00
1.63970	58.01
1.65637	58.00
1.67303	58.01
1.68970	58.00
1.70637	58.00
1.72303	58.00
1.73970	58.00
1.75637	58.00
1.77303	58.00
1.78970	58.00
1.80637	58.00
1.82303	58.00
1.83970	58.00
1.85637	58.00
1.87303	58.00
1.88970	58.00
1.90637	58.00
1.92303	58.00
1.93970	58.00
1.95637	58.00
1.97303	58.00
1.98970	58.00
2.00637	58.00
2.02303	58.00
2.03970	58.00
2.05637	58.00
2.07303	58.00
2.08970	58.00
2.10637	58.00
2.12303	58.00
2.13970	58.00
2.15637	58.00
2.17303	58.00
2.18970	58.00
2.20637	58.00
2.22303	58.00
2.23970	58.00
2.25637	58.00
2.27303	58.00
2.28970	58.00
2.30637	58.00
2.32303	58.00
2.33970	58.00
2.35637	58.00
2.37303	58.00
2.38970	57.99
2.40637	57.99
2.42303	58.00
2.43970	58.00
2.45637	58.00
2.47303	58.00
2.48970	58.00
2.50637	57.99
2.52303	57.99
2.53970	58.00
2.55637	58.00
2.57303	58.00
2.58970	58.00
2.60637	58.00
2.62303	58.00
2.63970	58.00
2.65637	58.00
2.67303	58.00
2.68970	58.00
2.70637	58.00
2.72303	58.00
2.73970	58.00
2.75637	58.00
2.77303	58.00
2.78970	58.00
2.80637	58.00
2.82303	58.00
2.83970	58.00
2.85637	58.00
2.87303	58.00
2.88970	58.00
2.90637	58.00
2.92303	58.00
2.93970	58.00
2.95637	58.00
2.97303	58.00
2.98970	58.00
3.00637	58.00
3.02303	58.00
3.03970	58.00
3.05637	58.00
3.07303	58.00
3.08970	58.00
3.10637	58.00
3.12303	58.00
3.13970	58.00
3.15637	58.00
3.17303	58.00
3.18970	58.00
3.20637	58.00
3.22303	58.00
3.23970	58.00
3.25637	58.00
3.27303	58.00
3.28970	58.00
3.30637	58.00
3.32303	58.00
3.33970	58.00
3.35637	58.00
3.37303	58.00
3.38970	58.00
3.40637	58.00
3.42303	58.00
3.43970	58.00
3.45637	58.00
3.47303	58.00
3.48970	58.00
3.50637	58.00
3.52303	58.00
3.53970	58.00
3.55637	58.00
3.57303	58.00
3.58970	58.00
3.60637	58.00
3.62303	58.00
3.63970	58.00
3.65637	58.00
3.67303	58.00
3.68970	58.00
3.70637	58.00
3.72303	58.00
3.73970	58.00
3.75637	58.00
3.77303	58.00
3.78970	58.00
3.80637	58.00
3.82303	58.00
3.83970	58.00
3.85637	58.00
3.87303	58.00
3.88970	58.00
3.90637	58.00
3.92303	58.00
3.93970	58.00
3.95637	58.00
3.97303	58.00
3.98970	58.00

[Status Trace (Carrier Gas Flow)]
Interval(msec)	1000
# of Points	240
Start Time(min)	0.006
End Time(min)	3.990
Intensity Units	
Intensity Multiplier	1
R.Time (min)	Intensity
0.00637	34.52
0.02303	34.53
0.03970	34.54
0.05637	34.55
0.07303	34.49
0.08970	34.52
0.10637	34.52
0.12303	34.52
0.13970	34.52
0.15637	34.52
0.17303	34.52
0.18970	34.52
0.20637	34.52
0.22303	34.52
0.23970	34.52
0.25637	34.52
0.27303	34.52
0.28970	34.51
0.30637	34.52
0.32303	34.52
0.33970	34.52
0.35637	34.52
0.37303	34.52
0.38970	34.52
0.40637	34.51
0.42303	34.52
0.43970	34.52
0.45637	34.53
0.47303	34.52
0.48970	34.53
0.50637	34.52
0.52303	34.51
0.53970	34.52
0.55637	34.52
0.57303	34.52
0.58970	34.52
0.60637	34.52
0.62303	34.52
0.63970	34.52
0.65637	34.52
0.67303	34.52
0.68970	34.52
0.70637	34.52
0.72303	34.52
0.73970	34.52
0.75637	34.52
0.77303	34.52
0.78970	34.52
0.80637	34.52
0.82303	34.52
0.83970	34.52
0.85637	34.52
0.87303	34.52
0.88970	34.52
0.90637	34.52
0.92303	34.52
0.93970	34.52
0.95637	34.52
0.97303	34.52
0.98970	34.52
1.00637	34.52
1.02303	34.52
1.03970	34.52
1.05637	34.52
1.07303	34.52
1.08970	34.52
1.10637	34.52
1.12303	34.52
1.13970	34.52
1.15637	34.52
1.17303	34.52
1.18970	34.52
1.20637	34.52
1.22303	34.52
1.23970	34.52
1.25637	34.52
1.27303	34.52
1.28970	34.52
1.30637	34.52
1.32303	34.52
1.33970	34.52
1.35637	34.52
1.37303	34.52
1.38970	34.52
1.40637	34.52
1.42303	34.52
1.43970	34.52
1.45637	34.52
1.47303	34.52
1.48970	34.52
1.50637	34.52
1.52303	34.52
1.53970	34.52
1.55637	34.52
1.57303	34.52
1.58970	34.52
1.60637	34.52
1.62303	34.52
1.63970	34.52
1.65637	34.52
1.67303	34.52
1.68970	34.52
1.70637	34.52
1.72303	34.52
1.73970	34.52
1.75637	34.52
1.77303	34.52
1.78970	34.52
1.80637	34.52
1.82303	34.52
1.83970	34.52
1.85637	34.52
1.87303	34.52
1.88970	34.52
1.90637	34.52
1.92303	34.52
1.93970	34.52
1.95637	34.52
1.97303	34.52
1.98970	34.52
2.00637	34.52
2.02303	34.52
2.03970	34.52
2.05637	34.52
2.07303	34.52
2.08970	34.52
2.10637	34.52
2.12303	34.52
2.13970	34.52
2.15637	34.52
2.17303	34.52
2.18970	34.52
2.20637	34.52
2.22303	34.52
2.23970	34.52
2.25637	34.52
2.27303	34.52
2.28970	34.52
2.30637	34.52
2.32303	34.52
2.33970	34.52
2.35637	34.52
2.37303	34.52
2.38970	34.52
2.40637	34.52
2.42303	34.52
2.43970	34.52
2.45637	34.52
2.47303	34.52
2.48970	34.52
2.50637	34.52
2.52303	34.51
2.53970	34.51
2.55637	34.51
2.57303	34.52
2.58970	34.52
2.60637	34.52
2.62303	34.53
2.63970	34.53
2.65637	34.51
2.67303	34.52
2.68970	34.52
2.70637	34.52
2.72303	34.52
2.73970	34.52
2.75637	34.52
2.77303	34.52
2.78970	34.52
2.80637	34.52
2.82303	34.52
2.83970	34.51
2.85637	34.52
2.87303	34.52
2.88970	34.51
2.90637	34.52
2.92303	34.52
2.93970	34.52
2.95637	34.52
2.97303	34.52
2.98970	34.51
3.00637	34.52
3.02303	34.53
3.03970	34.52
3.05637	34.51
3.07303	34.51
3.08970	34.52
3.10637	34.52
3.12303	34.52
3.13970	34.52
3.15637	34.52
3.17303	34.52
3.18970	34.52
3.20637	34.52
3.22303	34.52
3.23970	34.52
3.25637	34.52
3.27303	34.52
3.28970	34.52
3.30637	34.52
3.32303	34.52
3.33970	34.52
3.35637	34.52
3.37303	34.52
3.38970	34.50
3.40637	34.52
3.42303	34.52
3.43970	34.51
3.45637	34.52
3.47303	34.52
3.48970	34.53
3.50637	34.52
3.52303	34.52
3.53970	34.51
3.55637	34.52
3.57303	34.51
3.58970	34.51
3.60637	34.51
3.62303	34.52
3.63970	34.51
3.65637	34.52
3.67303	34.51
3.68970	34.53
3.70637	34.52
3.72303	34.52
3.73970	34.52
3.75637	34.52
3.77303	34.51
3.78970	34.52
3.80637	34.52
3.82303	34.52
3.83970	34.52
3.85637	34.52
3.87303	34.52
3.88970	34.52
3.90637	34.52
3.92303	34.52
3.93970	34.52
3.95637	34.52
3.97303	34.51
3.98970	34.52

[Status Trace (Column Flow)]
Interval(msec)	1000
# of Points	240
Start Time(min)	0.006
End Time(min)	3.990
Intensity Units	
Intensity Multiplier	1
R.Time (min)	Intensity
0.00637	5.48
0.02303	5.21
0.03970	5.35
0.05637	5.59
0.07303	5.67
0.08970	5.49
0.10637	5.48
0.12303	5.48
0.13970	5.48
0.15637	5.48
0.17303	5.48
0.18970	5.48
0.20637	5.48
0.22303	5.48
0.23970	5.48
0.25637	5.48
0.27303	5.48
0.28970	5.48
0.30637	5.48
0.32303	5.48
0.33970	5.48
0.35637	5.48
0.37303	5.48
0.38970	5.48
0.40637	5.48
0.42303	5.48
0.43970	5.48
0.45637	5.48
0.47303	5.48
0.48970	5.48
0.50637	5.48
0.52303	5.48
0.53970	5.48
0.55637	5.48
0.57303	5.48
0.58970	5.48
0.60637	5.48
0.62303	5.48
0.63970	5.48
0.65637	5.48
0.67303	5.48
0.68970	5.48
0.70637	5.48
0.72303	5.48
0.73970	5.48
0.75637	5.48
0.77303	5.48
0.78970	5.48
0.80637	5.48
0.82303	5.48
0.83970	5.48
0.85637	5.48
0.87303	5.48
0.88970	5.48
0.90637	5.48
0.92303	5.48
0.93970	5.48
0.95637	5.48
0.97303	5.48
0.98970	5.48
1.00637	5.48
1.02303	5.48
1.03970	5.48
1.05637	5.48
1.07303	5.48
1.08970	5.48
1.10637	5.48
1.12303	5.48
1.13970	5.48
1.15637	5.48
1.17303	5.48
1.18970	5.48
1.20637	5.48
1.22303	5.48
1.23970	5.48
1.25637	5.48
1.27303	5.48
1.28970	5.48
1.30637	5.48
1.32303	5.48
1.33970	5.48
1.35637	5.48
1.37303	5.48
1.38970	5.48
1.40637	5.48
1.42303	5.48
1.43970	5.48
1.45637	5.48
1.47303	5.48
1.48970	5.48
1.50637	5.48
1.52303	5.48
1.53970	5.48
1.55637	5.48
1.57303	5.48
1.58970	5.48
1.60637	5.48
1.62303	5.48
1.63970	5.47
1.65637	5.46
1.67303	5.45
1.68970	5.44
1.70637	5.43
1.72303	5.42
1.73970	5.41
1.75637	5.40
1.77303	5.39
1.78970	5.38
1.80637	5.37
1.82303	5.36
1.83970	5.35
1.85637	5.34
1.87303	5.33
1.88970	5.32
1.90637	5.31
1.92303	5.30
1.93970	5.29
1.95637	5.28
1.97303	5.27
1.98970	5.26
2.00637	5.25
2.02303	5.24
2.03970	5.23
2.05637	5.22
2.07303	5.21
2.08970	5.20
2.10637	5.20
2.12303	5.19
2.13970	5.18
2.15637	5.17
2.17303	5.16
2.18970	5.15
2.20637	5.14
2.22303	5.13
2.23970	5.12
2.25637	5.11
2.27303	5.10
2.28970	5.09
2.30637	5.08
2.32303	5.07
2.33970	5.07
2.35637	5.06
2.37303	5.05
2.38970	5.05
2.40637	5.05
2.42303	5.05
2.43970	5.05
2.45637	5.05
2.47303	5.05
2.48970	5.05
2.50637	5.05
2.52303	5.05
2.53970	5.05
2.55637	5.05
2.57303	5.05
2.58970	5.05
2.60637	5.05
2.62303	5.05
2.63970	5.05
2.65637	5.05
2.67303	5.04
2.68970	5.04
2.70637	5.04
2.72303	5.05
2.73970	5.04
2.75637	5.04
2.77303	5.04
2.78970	5.05
2.80637	5.04
2.82303	5.04
2.83970	5.04
2.85637	5.04
2.87303	5.04
2.88970	5.04
2.90637	5.04
2.92303	5.04
2.93970	5.04
2.95637	5.04
2.97303	5.04
2.98970	5.04
3.00637	5.04
3.02303	5.04
3.03970	5.04
3.05637	5.04
3.07303	5.04
3.08970	5.04
3.10637	5.04
3.12303	5.04
3.13970	5.04
3.15637	5.04
3.17303	5.04
3.18970	5.04
3.20637	5.04
3.22303	5.04
3.23970	5.04
3.25637	5.04
3.27303	5.04
3.28970	5.04
3.30637	5.04
3.32303	5.04
3.33970	5.04
3.35637	5.04
3.37303	5.04
3.38970	5.04
3.40637	5.04
3.42303	5.04
3.43970	5.04
3.45637	5.04
3.47303	5.04
3.48970	5.04
3.50637	5.04
3.52303	5.04
3.53970	5.04
3.55637	5.04
3.57303	5.04
3.58970	5.04
3.60637	5.04
3.62303	5.04
3.63970	5.04
3.65637	5.04
3.67303	5.04
3.68970	5.04
3.70637	5.04
3.72303	5.04
3.73970	5.04
3.75637	5.04
3.77303	5.04
3.78970	5.04
3.80637	5.04
3.82303	5.04
3.83970	5.04
3.85637	5.04
3.87303	5.04
3.88970	5.04
3.90637	5.04
3.92303	5.04
3.93970	5.04
3.95637	5.04
3.97303	5.04
3.98970	5.04

[Status Trace (Linear Velocity)]
Interval(msec)	1000
# of Points	240
Start Time(min)	0.006
End Time(min)	3.990
Intensity Units	
Intensity Multiplier	1
R.Time (min)	Intensity
0.00637	39.00
0.02303	37.45
0.03970	38.28
0.05637	39.63
0.07303	40.10
0.08970	39.08
0.10637	38.99
0.12303	39.01
0.13970	39.01
0.15637	39.01
0.17303	39.01
0.18970	39.01
0.20637	39.01
0.22303	39.01
0.23970	39.01
0.25637	39.01
0.27303	39.01
0.28970	39.01
0.30637	39.01
0.32303	39.01
0.33970	39.01
0.35637	39.01
0.37303	39.01
0.38970	39.01
0.40637	39.01
0.42303	39.01
0.43970	39.01
0.45637	39.01
0.47303	39.01
0.48970	39.01
0.50637	39.01
0.52303	39.01
0.53970	39.01
0.55637	39.01
0.57303	39.01
0.58970	39.01
0.60637	39.01
0.62303	39.01
0.63970	39.01
0.65637	39.01
0.67303	39.01
0.68970	39.01
0.70637	39.01
0.72303	39.01
0.73970	39.01
0.75637	39.01
0.77303	39.01
0.78970	39.01
0.80637	39.01
0.82303	39.01
0.83970	39.01
0.85637	39.01
0.87303	39.01
0.88970	39.01
0.90637	39.01
0.92303	39.01
0.93970	39.01
0.95637	39.01
0.97303	39.01
0.98970	39.01
1.00637	39.01
1.02303	39.01
1.03970	39.01
1.05637	39.01
1.07303	39.01
1.08970	39.01
1.10637	39.01
1.12303	39.01
1.13970	39.01
1.15637	39.01
1.17303	39.01
1.18970	39.01
1.20637	39.01
1.22303	39.00
1.23970	39.00
1.25637	39.00
1.27303	39.00
1.28970	39.00
1.30637	39.00
1.32303	39.00
1.33970	39.00
1.35637	39.00
1.37303	39.01
1.38970	39.01
1.40637	39.01
1.42303	39.01
1.43970	39.01
1.45637	39.01
1.47303	39.01
1.48970	39.01
1.50637	39.01
1.52303	39.01
1.53970	39.01
1.55637	39.01
1.57303	39.01
1.58970	39.01
1.60637	39.00
1.62303	38.99
1.63970	38.98
1.65637	38.95
1.67303	38.92
1.68970	38.88
1.70637	38.85
1.72303	38.82
1.73970	38.79
1.75637	38.76
1.77303	38.72
1.78970	38.69
1.80637	38.66
1.82303	38.63
1.83970	38.60
1.85637	38.57
1.87303	38.54
1.88970	38.51
1.90637	38.48
1.92303	38.44
1.93970	38.41
1.95637	38.39
1.97303	38.35
1.98970	38.32
2.00637	38.29
2.02303	38.26
2.03970	38.23
2.05637	38.21
2.07303	38.17
2.08970	38.15
2.10637	38.12
2.12303	38.09
2.13970	38.06
2.15637	38.03
2.17303	38.00
2.18970	37.97
2.20637	37.94
2.22303	37.91
2.23970	37.88
2.25637	37.85
2.27303	37.82
2.28970	37.79
2.30637	37.76
2.32303	37.73
2.33970	37.70
2.35637	37.68
2.37303	37.65
2.38970	37.64
2.40637	37.64
2.42303	37.65
2.43970	37.65
2.45637	37.65
2.47303	37.65
2.48970	37.65
2.50637	37.64
2.52303	37.64
2.53970	37.64
2.55637	37.64
2.57303	37.64
2.58970	37.64
2.60637	37.64
2.62303	37.64
2.63970	37.64
2.65637	37.64
2.67303	37.64
2.68970	37.64
2.70637	37.64
2.72303	37.64
2.73970	37.64
2.75637	37.64
2.77303	37.64
2.78970	37.64
2.80637	37.64
2.82303	37.63
2.83970	37.63
2.85637	37.63
2.87303	37.63
2.88970	37.63
2.90637	37.63
2.92303	37.63
2.93970	37.63
2.95637	37.63
2.97303	37.63
2.98970	37.63
3.00637	37.63
3.02303	37.63
3.03970	37.63
3.05637	37.63
3.07303	37.62
3.08970	37.62
3.10637	37.62
3.12303	37.62
3.13970	37.62
3.15637	37.62
3.17303	37.62
3.18970	37.62
3.20637	37.62
3.22303	37.62
3.23970	37.62
3.25637	37.62
3.27303	37.62
3.28970	37.62
3.30637	37.62
3.32303	37.62
3.33970	37.62
3.35637	37.62
3.37303	37.61
3.38970	37.61
3.40637	37.61
3.42303	37.61
3.43970	37.62
3.45637	37.62
3.47303	37.62
3.48970	37.62
3.50637	37.62
3.52303	37.62
3.53970	37.62
3.55637	37.62
3.57303	37.62
3.58970	37.62
3.60637	37.62
3.62303	37.62
3.63970	37.62
3.65637	37.62
3.67303	37.62
3.68970	37.62
3.70637	37.62
3.72303	37.62
3.73970	37.62
3.75637	37.62
3.77303	37.62
3.78970	37.62
3.80637	37.62
3.82303	37.62
3.83970	37.62
3.85637	37.62
3.87303	37.62
3.88970	37.62
3.90637	37.62
3.92303	37.62
3.93970	37.62
3.95637	37.62
3.97303	37.62
3.98970	37.62

