[Header]
Application Name	LabSolutions
Version	5.110
Data File Name	C:\Users\User\Desktop\GC Analyses\Jack\UIC Prairie Sampling\10.19.22\221019_066.gcd
Output Date	1/4/2023
Output Time	2:27:24 PM

[File Information]
Type	Data File
Generated	12/7/2022 1:39:04 PM
Generated by	System Administrator
Modified	12/7/2022 1:43:25 PM
Modified by	System Administrator

[Sample Information]
Operator Name	System Administrator
Acquired	12/7/2022 1:39:24 PM
Sample Type	1:Standard
Level	1
Sample Name	221019_UICPrairie
Sample ID	221019_UICPrairie
ISTD Amount1	1
ISTD Amount2	1
ISTD Amount3	1
ISTD Amount4	1
ISTD Amount5	1
ISTD Amount6	1
ISTD Amount7	1
ISTD Amount8	1
ISTD Amount9	1
ISTD Amount10	1
ISTD Amount11	1
ISTD Amount12	1
ISTD Amount13	1
ISTD Amount14	1
ISTD Amount15	1
ISTD Amount16	1
ISTD Amount17	1
ISTD Amount18	1
ISTD Amount19	1
ISTD Amount20	1
ISTD Amount21	1
ISTD Amount22	1
ISTD Amount23	1
ISTD Amount24	1
ISTD Amount25	1
ISTD Amount26	1
ISTD Amount27	1
ISTD Amount28	1
ISTD Amount29	1
ISTD Amount30	1
ISTD Amount31	1
ISTD Amount32	1
Sample Amount	1
Dilution Factor	1
Vial#	1
Injection Volume	1
Injection Count	1
Bar Code	

[Original Files]
Data File	C:\Users\User\Desktop\GC Analyses\Jack\UIC Prairie Sampling\10.19.22\221019_066.gcd
Method File	C:\LabSolutions\Data\GHG_4min_2022\ghg3_togas_w_acet_4 min_new_int.gcm
Batch File	
Report Format File	c:\LabSolutions\System\DEFAULT.lsr

[File Description]


[Configuration]
Instrument Name	C0B7VH3-Instrument1
Instrument #	1
Line #	1
# of Detectors	3
Detector ID	DET#1	DET#2	DET#3
Detector Name	FID	PTCD	ECD
# of Channels	1	1	1

[Peak Table(Ch1)]
# of Peaks	3
Peak#	R.Time	I.Time	F.Time	Area	Height	A/H	Conc.	Mark	ID#	Name	k'	Plate #	Plate Ht.	Tailing	Resolution	Sep.Factor	Area Ratio	Height Ratio	Conc. %	Norm Conc.
1	1.476	1.435	1.534	10817	4687	2.308	100.000	   	1	CO	0.000	8019	18.706	1.304	0.000	0.000	0	0	16.667	16.667
2	1.567	1.534	1.637	4845	2386	2.031	100.000	 V 	2	CH4	0.062	10822	13.861	0.000	1.453	0.000	0	0	16.667	16.667
3	1.996	1.949	2.396	1134989	532528	2.131	400.000	   	3	CO2	0.353	17269	8.686	1.262	7.089	5.680	0	0	66.667	66.667

[Peak Table(Ch2)]
# of Peaks	0

[Peak Table(Ch3)]
# of Peaks	6
Peak#	R.Time	I.Time	F.Time	Area	Height	A/H	Conc.	Mark	ID#	Name	k'	Plate #	Plate Ht.	Tailing	Resolution	Sep.Factor	Area Ratio	Height Ratio	Conc. %	Norm Conc.
1	0.808	0.016	1.054	645	20	31.769	0.000	   			0.000	441	340.350	0.658	0.000	0.000	0	0	0.000	0.000
2	2.458	2.264	2.499	2329	484	4.808	0.000	   			2.041	9312	16.108	0.000	12.895	0.000	0	0	0.000	0.000
3	2.517	2.499	2.554	769	289	2.660	0.000	 V 			2.114	4041	37.121	0.000	0.451	1.036	0	0	0.000	0.000
4	2.605	2.554	2.653	1061	284	3.739	0.000	 V 			2.223	7009	21.402	0.000	0.622	1.052	0	0	0.000	0.000
5	2.880	2.667	3.049	26050	5424	4.802	1.000	   	1	N2O	2.563	13692	10.955	0.000	2.467	1.153	0	0	100.000	100.000
6	3.162	3.049	3.962	20647	768	26.886	0.000	 V 			2.912	11	13159.001	0.000	0.147	1.136	0	0	0.000	0.000

[Compound Results(Ch1)]
# of IDs	6
ID#	Name	R.Time	Area	Height	Conc.	Curve	3rd	2nd	1st	Constant	Area Ratio	Height Ratio	Conc. %	Norm Conc.
1	CO	1.476	10817	4687	100.000	Linear	0.000000e+00	0.000000e+00	1.081729e+002	0.000000e+00	0	0	16.667	16.667
2	CH4	1.567	4845	2386	100.000	Linear	0.000000e+00	0.000000e+00	4.845319e+001	0.000000e+00	0	0	16.667	16.667
3	CO2	1.996	1134989	532528	400.000	Linear	0.000000e+00	0.000000e+00	2.837473e+003	0.000000e+00	0	0	66.667	66.667
4	Ethylene	0.000	0	0	0.000	Linear	0.000000e+00	0.000000e+00	0.000000e+00	0.000000e+00	0	0	0.000	0.000
5	Acetylene	0.000	0	0	0.000	Linear	0.000000e+00	0.000000e+00	0.000000e+00	0.000000e+00	0	0	0.000	0.000
6	Ethane	0.000	0	0	0.000	Linear	0.000000e+00	0.000000e+00	0.000000e+00	0.000000e+00	0	0	0.000	0.000

[Compound Results(Ch2)]
# of IDs	5
ID#	Name	R.Time	Area	Height	Conc.	Curve	3rd	2nd	1st	Constant	Area Ratio	Height Ratio	Conc. %	Norm Conc.
1	Hydrogen	0.000	0	0	0.000	Linear	0.000000e+00	0.000000e+00	0.000000e+00	0.000000e+00	0	0	0.000	0.000
2	Oxygen	0.000	0	0	0.000	Linear	0.000000e+00	0.000000e+00	0.000000e+00	0.000000e+00	0	0	0.000	0.000
3	Nitrogen	0.000	0	0	0.000	Linear	0.000000e+00	0.000000e+00	0.000000e+00	0.000000e+00	0	0	0.000	0.000
4	Methane	0.000	0	0	0.000	Linear	0.000000e+00	0.000000e+00	0.000000e+00	0.000000e+00	0	0	0.000	0.000
5	Carbon Monoxide	0.000	0	0	0.000	Linear	0.000000e+00	0.000000e+00	0.000000e+00	0.000000e+00	0	0	0.000	0.000

[Compound Results(Ch3)]
# of IDs	2
ID#	Name	R.Time	Area	Height	Conc.	Curve	3rd	2nd	1st	Constant	Area Ratio	Height Ratio	Conc. %	Norm Conc.
1	N2O	2.880	26050	5424	1.000	Linear	0.000000e+00	0.000000e+00	2.604955e+004	0.000000e+00	0	0	100.000	100.000
2	SF6	0.000	0	0	0.000	Linear	0.000000e+00	0.000000e+00	0.000000e+00	0.000000e+00	0	0	0.000	0.000

[Group Results(Ch1)]
# of Groups	0

[Group Results(Ch2)]
# of Groups	0

[Group Results(Ch3)]
# of Groups	0

[Chromatogram (Ch1)]
Interval(msec)	220
# of Points	1091
Start Time(min)	0.002
End Time(min)	3.998
R.Time (min)	Intensity
0.00167	-28
0.00533	-32
0.00900	-33
0.01267	-29
0.01633	-22
0.02000	-16
0.02367	-14
0.02733	-13
0.03100	-13
0.03467	-15
0.03833	-20
0.04200	-25
0.04567	-26
0.04933	-25
0.05300	-22
0.05667	-18
0.06033	-10
0.06400	-4
0.06767	-2
0.07133	-4
0.07500	-7
0.07867	-12
0.08233	-21
0.08600	-32
0.08967	-38
0.09333	-39
0.09700	-35
0.10067	-29
0.10433	-24
0.10800	-21
0.11167	-20
0.11533	-22
0.11900	-29
0.12267	-37
0.12633	-41
0.13000	-39
0.13367	-33
0.13733	-29
0.14100	-28
0.14467	-28
0.14833	-31
0.15200	-38
0.15567	-43
0.15933	-41
0.16300	-35
0.16667	-30
0.17033	-32
0.17400	-36
0.17767	-39
0.18133	-43
0.18500	-46
0.18867	-48
0.19233	-47
0.19600	-47
0.19967	-48
0.20333	-48
0.20700	-45
0.21067	-43
0.21433	-44
0.21800	-47
0.22167	-51
0.22533	-53
0.22900	-52
0.23267	-51
0.23633	-53
0.24000	-58
0.24367	-65
0.24733	-67
0.25100	-67
0.25467	-68
0.25833	-71
0.26200	-76
0.26567	-78
0.26933	-75
0.27300	-67
0.27667	-59
0.28033	-53
0.28400	-49
0.28767	-44
0.29133	-40
0.29500	-41
0.29867	-46
0.30233	-53
0.30600	-62
0.30967	-71
0.31333	-78
0.31700	-81
0.32067	-81
0.32433	-79
0.32800	-77
0.33167	-75
0.33533	-69
0.33900	-62
0.34267	-56
0.34633	-55
0.35000	-58
0.35367	-62
0.35733	-63
0.36100	-59
0.36467	-56
0.36833	-57
0.37200	-59
0.37567	-58
0.37933	-59
0.38300	-62
0.38667	-63
0.39033	-61
0.39400	-58
0.39767	-57
0.40133	-58
0.40500	-60
0.40867	-63
0.41233	-67
0.41600	-67
0.41967	-69
0.42333	-73
0.42700	-77
0.43067	-82
0.43433	-85
0.43800	-84
0.44167	-80
0.44533	-78
0.44900	-78
0.45267	-78
0.45633	-76
0.46000	-74
0.46367	-75
0.46733	-76
0.47100	-76
0.47467	-72
0.47833	-67
0.48200	-62
0.48567	-61
0.48933	-63
0.49300	-65
0.49667	-68
0.50033	-73
0.50400	-79
0.50767	-81
0.51133	-77
0.51500	-74
0.51867	-76
0.52233	-80
0.52600	-83
0.52967	-88
0.53333	-94
0.53700	-100
0.54067	-103
0.54433	-101
0.54800	-96
0.55167	-94
0.55533	-95
0.55900	-96
0.56267	-96
0.56633	-95
0.57000	-96
0.57367	-98
0.57733	-101
0.58100	-103
0.58467	-103
0.58833	-104
0.59200	-104
0.59567	-108
0.59933	-112
0.60300	-110
0.60667	-103
0.61033	-93
0.61400	-85
0.61767	-83
0.62133	-88
0.62500	-94
0.62867	-96
0.63233	-96
0.63600	-100
0.63967	-106
0.64333	-110
0.64700	-111
0.65067	-112
0.65433	-111
0.65800	-108
0.66167	-107
0.66533	-107
0.66900	-110
0.67267	-117
0.67633	-121
0.68000	-118
0.68367	-114
0.68733	-112
0.69100	-111
0.69467	-110
0.69833	-107
0.70200	-101
0.70567	-95
0.70933	-92
0.71300	-95
0.71667	-99
0.72033	-101
0.72400	-104
0.72767	-104
0.73133	-103
0.73500	-105
0.73867	-109
0.74233	-114
0.74600	-119
0.74967	-121
0.75333	-122
0.75700	-122
0.76067	-124
0.76433	-124
0.76800	-122
0.77167	-121
0.77533	-121
0.77900	-122
0.78267	-124
0.78633	-121
0.79000	-111
0.79367	-103
0.79733	-102
0.80100	-105
0.80467	-110
0.80833	-114
0.81200	-117
0.81567	-116
0.81933	-112
0.82300	-106
0.82667	-102
0.83033	-100
0.83400	-101
0.83767	-106
0.84133	-112
0.84500	-117
0.84867	-120
0.85233	-120
0.85600	-120
0.85967	-122
0.86333	-127
0.86700	-131
0.87067	-131
0.87433	-128
0.87800	-128
0.88167	-131
0.88533	-135
0.88900	-135
0.89267	-134
0.89633	-133
0.90000	-132
0.90367	-130
0.90733	-128
0.91100	-125
0.91467	-123
0.91833	-126
0.92200	-130
0.92567	-133
0.92933	-135
0.93300	-134
0.93667	-132
0.94033	-128
0.94400	-125
0.94767	-128
0.95133	-132
0.95500	-137
0.95867	-140
0.96233	-140
0.96600	-140
0.96967	-136
0.97333	-134
0.97700	-131
0.98067	-129
0.98433	-127
0.98800	-121
0.99167	-113
0.99533	-109
0.99900	-111
1.00267	-115
1.00633	-122
1.01000	-129
1.01367	-133
1.01733	-136
1.02100	-140
1.02467	-142
1.02833	-140
1.03200	-135
1.03567	-129
1.03933	-129
1.04300	-132
1.04667	-141
1.05033	-150
1.05400	-154
1.05767	-157
1.06133	-156
1.06500	-153
1.06867	-150
1.07233	-145
1.07600	-144
1.07967	-149
1.08333	-153
1.08700	-154
1.09067	-149
1.09433	-146
1.09800	-147
1.10167	-149
1.10533	-151
1.10900	-148
1.11267	-139
1.11633	-130
1.12000	-129
1.12367	-134
1.12733	-142
1.13100	-153
1.13467	-157
1.13833	-152
1.14200	-150
1.14567	-152
1.14933	-158
1.15300	-163
1.15667	-166
1.16033	-166
1.16400	-163
1.16767	-160
1.17133	-159
1.17500	-159
1.17867	-160
1.18233	-159
1.18600	-158
1.18967	-160
1.19333	-162
1.19700	-162
1.20067	-158
1.20433	-151
1.20800	-147
1.21167	-144
1.21533	-144
1.21900	-148
1.22267	-154
1.22633	-161
1.23000	-167
1.23367	-171
1.23733	-173
1.24100	-170
1.24467	-161
1.24833	-151
1.25200	-145
1.25567	-145
1.25933	-150
1.26300	-153
1.26667	-156
1.27033	-159
1.27400	-164
1.27767	-165
1.28133	-163
1.28500	-161
1.28867	-158
1.29233	-157
1.29600	-155
1.29967	-154
1.30333	-156
1.30700	-159
1.31067	-160
1.31433	-156
1.31800	-153
1.32167	-151
1.32533	-152
1.32900	-156
1.33267	-162
1.33633	-167
1.34000	-170
1.34367	-169
1.34733	-165
1.35100	-164
1.35467	-169
1.35833	-171
1.36200	-167
1.36567	-159
1.36933	-153
1.37300	-150
1.37667	-151
1.38033	-152
1.38400	-153
1.38767	-158
1.39133	-161
1.39500	-162
1.39867	-160
1.40233	-157
1.40600	-155
1.40967	-157
1.41333	-161
1.41700	-165
1.42067	-169
1.42433	-170
1.42800	-174
1.43167	-180
1.43533	-181
1.43900	-150
1.44267	-30
1.44633	205
1.45000	562
1.45367	1118
1.45733	1867
1.46100	2675
1.46467	3402
1.46833	3974
1.47200	4356
1.47567	4511
1.47933	4399
1.48300	4021
1.48667	3447
1.49033	2790
1.49400	2157
1.49767	1612
1.50133	1173
1.50500	835
1.50867	582
1.51233	398
1.51600	268
1.51967	177
1.52333	110
1.52700	58
1.53067	19
1.53433	-6
1.53800	-1
1.54167	76
1.54533	289
1.54900	650
1.55267	1091
1.55633	1519
1.56000	1872
1.56367	2115
1.56733	2220
1.57100	2160
1.57467	1932
1.57833	1582
1.58200	1188
1.58567	825
1.58933	528
1.59300	303
1.59667	141
1.60033	33
1.60400	-33
1.60767	-71
1.61133	-93
1.61500	-107
1.61867	-119
1.62233	-130
1.62600	-140
1.62967	-148
1.63333	-154
1.63700	-158
1.64067	-160
1.64433	-163
1.64800	-168
1.65167	-173
1.65533	-179
1.65900	-183
1.66267	-186
1.66633	-187
1.67000	-189
1.67367	-193
1.67733	-200
1.68100	-203
1.68467	-205
1.68833	-204
1.69200	-198
1.69567	-190
1.69933	-180
1.70300	-173
1.70667	-171
1.71033	-174
1.71400	-181
1.71767	-187
1.72133	-190
1.72500	-192
1.72867	-194
1.73233	-196
1.73600	-199
1.73967	-201
1.74333	-203
1.74700	-200
1.75067	-196
1.75433	-194
1.75800	-192
1.76167	-190
1.76533	-184
1.76900	-179
1.77267	-176
1.77633	-177
1.78000	-180
1.78367	-184
1.78733	-188
1.79100	-191
1.79467	-192
1.79833	-192
1.80200	-189
1.80567	-183
1.80933	-177
1.81300	-175
1.81667	-177
1.82033	-181
1.82400	-187
1.82767	-188
1.83133	-186
1.83500	-185
1.83867	-185
1.84233	-185
1.84600	-187
1.84967	-192
1.85333	-198
1.85700	-199
1.86067	-196
1.86433	-192
1.86800	-190
1.87167	-189
1.87533	-189
1.87900	-190
1.88267	-186
1.88633	-182
1.89000	-180
1.89367	-178
1.89733	-178
1.90100	-180
1.90467	-183
1.90833	-188
1.91200	-195
1.91567	-201
1.91933	-203
1.92300	-201
1.92667	-197
1.93033	-194
1.93400	-192
1.93767	-191
1.94133	-191
1.94500	-187
1.94867	-176
1.95233	-136
1.95600	63
1.95967	1046
1.96333	5002
1.96700	17169
1.97067	46088
1.97433	100008
1.97800	180269
1.98167	277455
1.98533	375355
1.98900	457860
1.99267	512774
1.99633	532409
2.00000	514747
2.00367	464603
2.00733	393152
2.01100	314162
2.01467	239410
2.01833	176007
2.02200	126320
2.02567	89508
2.02933	63266
2.03300	45022
2.03667	32514
2.04033	23984
2.04400	18159
2.04767	14150
2.05133	11353
2.05500	9359
2.05867	7898
2.06233	6805
2.06600	5968
2.06967	5315
2.07333	4795
2.07700	4365
2.08067	4004
2.08433	3697
2.08800	3436
2.09167	3212
2.09533	3014
2.09900	2834
2.10267	2671
2.10633	2524
2.11000	2394
2.11367	2280
2.11733	2173
2.12100	2077
2.12467	1990
2.12833	1906
2.13200	1822
2.13567	1747
2.13933	1681
2.14300	1619
2.14667	1561
2.15033	1507
2.15400	1455
2.15767	1407
2.16133	1361
2.16500	1311
2.16867	1257
2.17233	1207
2.17600	1163
2.17967	1128
2.18333	1096
2.18700	1064
2.19067	1035
2.19433	1009
2.19800	986
2.20167	964
2.20533	940
2.20900	919
2.21267	898
2.21633	878
2.22000	858
2.22367	838
2.22733	815
2.23100	791
2.23467	770
2.23833	751
2.24200	729
2.24567	710
2.24933	695
2.25300	681
2.25667	671
2.26033	663
2.26400	654
2.26767	641
2.27133	625
2.27500	606
2.27867	587
2.28233	570
2.28600	559
2.28967	551
2.29333	547
2.29700	539
2.30067	529
2.30433	515
2.30800	500
2.31167	485
2.31533	473
2.31900	462
2.32267	447
2.32633	434
2.33000	424
2.33367	415
2.33733	409
2.34100	407
2.34467	406
2.34833	402
2.35200	395
2.35567	386
2.35933	379
2.36300	370
2.36667	363
2.37033	358
2.37400	355
2.37767	354
2.38133	353
2.38500	352
2.38867	353
2.39233	355
2.39600	357
2.39967	355
2.40333	347
2.40700	336
2.41067	327
2.41433	322
2.41800	318
2.42167	316
2.42533	309
2.42900	297
2.43267	286
2.43633	280
2.44000	279
2.44367	276
2.44733	270
2.45100	264
2.45467	257
2.45833	250
2.46200	243
2.46567	238
2.46933	235
2.47300	239
2.47667	246
2.48033	251
2.48400	253
2.48767	250
2.49133	244
2.49500	238
2.49867	232
2.50233	225
2.50600	217
2.50967	207
2.51333	200
2.51700	199
2.52067	202
2.52433	207
2.52800	212
2.53167	216
2.53533	218
2.53900	221
2.54267	221
2.54633	217
2.55000	210
2.55367	203
2.55733	196
2.56100	191
2.56467	187
2.56833	184
2.57200	180
2.57567	175
2.57933	170
2.58300	166
2.58667	164
2.59033	157
2.59400	149
2.59767	145
2.60133	144
2.60500	147
2.60867	150
2.61233	151
2.61600	152
2.61967	150
2.62333	147
2.62700	141
2.63067	134
2.63433	127
2.63800	125
2.64167	128
2.64533	128
2.64900	123
2.65267	117
2.65633	115
2.66000	113
2.66367	112
2.66733	109
2.67100	105
2.67467	100
2.67833	94
2.68200	89
2.68567	84
2.68933	82
2.69300	85
2.69667	90
2.70033	92
2.70400	95
2.70767	98
2.71133	101
2.71500	100
2.71867	100
2.72233	99
2.72600	96
2.72967	93
2.73333	90
2.73700	85
2.74067	81
2.74433	78
2.74800	76
2.75167	75
2.75533	74
2.75900	74
2.76267	75
2.76633	78
2.77000	81
2.77367	84
2.77733	82
2.78100	76
2.78467	71
2.78833	64
2.79200	53
2.79567	46
2.79933	46
2.80300	49
2.80667	52
2.81033	52
2.81400	51
2.81767	47
2.82133	44
2.82500	45
2.82867	44
2.83233	38
2.83600	29
2.83967	22
2.84333	17
2.84700	14
2.85067	13
2.85433	14
2.85800	18
2.86167	21
2.86533	24
2.86900	26
2.87267	27
2.87633	29
2.88000	29
2.88367	26
2.88733	21
2.89100	16
2.89467	7
2.89833	2
2.90200	4
2.90567	10
2.90933	15
2.91300	19
2.91667	23
2.92033	24
2.92400	21
2.92767	17
2.93133	11
2.93500	4
2.93867	-0
2.94233	1
2.94600	6
2.94967	12
2.95333	17
2.95700	18
2.96067	15
2.96433	7
2.96800	-3
2.97167	-9
2.97533	-10
2.97900	-7
2.98267	-5
2.98633	-4
2.99000	-3
2.99367	-3
2.99733	-4
3.00100	-7
3.00467	-7
3.00833	-0
3.01200	9
3.01567	14
3.01933	12
3.02300	5
3.02667	-2
3.03033	-11
3.03400	-16
3.03767	-17
3.04133	-15
3.04500	-15
3.04867	-16
3.05233	-15
3.05600	-14
3.05967	-14
3.06333	-16
3.06700	-19
3.07067	-25
3.07433	-30
3.07800	-34
3.08167	-35
3.08533	-34
3.08900	-33
3.09267	-33
3.09633	-33
3.10000	-35
3.10367	-36
3.10733	-35
3.11100	-31
3.11467	-28
3.11833	-29
3.12200	-31
3.12567	-35
3.12933	-38
3.13300	-38
3.13667	-38
3.14033	-38
3.14400	-34
3.14767	-26
3.15133	-16
3.15500	-12
3.15867	-14
3.16233	-18
3.16600	-26
3.16967	-35
3.17333	-41
3.17700	-44
3.18067	-47
3.18433	-53
3.18800	-58
3.19167	-64
3.19533	-65
3.19900	-61
3.20267	-53
3.20633	-45
3.21000	-39
3.21367	-38
3.21733	-39
3.22100	-44
3.22467	-52
3.22833	-59
3.23200	-59
3.23567	-56
3.23933	-55
3.24300	-55
3.24667	-54
3.25033	-52
3.25400	-50
3.25767	-50
3.26133	-55
3.26500	-61
3.26867	-66
3.27233	-70
3.27600	-73
3.27967	-71
3.28333	-69
3.28700	-67
3.29067	-66
3.29433	-68
3.29800	-71
3.30167	-77
3.30533	-85
3.30900	-90
3.31267	-92
3.31633	-89
3.32000	-79
3.32367	-67
3.32733	-59
3.33100	-57
3.33467	-56
3.33833	-56
3.34200	-60
3.34567	-66
3.34933	-73
3.35300	-80
3.35667	-82
3.36033	-83
3.36400	-86
3.36767	-89
3.37133	-91
3.37500	-90
3.37867	-88
3.38233	-86
3.38600	-83
3.38967	-79
3.39333	-79
3.39700	-83
3.40067	-89
3.40433	-93
3.40800	-92
3.41167	-89
3.41533	-86
3.41900	-86
3.42267	-87
3.42633	-87
3.43000	-84
3.43367	-77
3.43733	-70
3.44100	-67
3.44467	-66
3.44833	-67
3.45200	-70
3.45567	-71
3.45933	-71
3.46300	-72
3.46667	-74
3.47033	-77
3.47400	-85
3.47767	-97
3.48133	-107
3.48500	-111
3.48867	-111
3.49233	-110
3.49600	-109
3.49967	-107
3.50333	-103
3.50700	-102
3.51067	-103
3.51433	-104
3.51800	-100
3.52167	-93
3.52533	-87
3.52900	-84
3.53267	-87
3.53633	-91
3.54000	-93
3.54367	-97
3.54733	-103
3.55100	-109
3.55467	-113
3.55833	-117
3.56200	-120
3.56567	-121
3.56933	-118
3.57300	-115
3.57667	-112
3.58033	-107
3.58400	-105
3.58767	-108
3.59133	-111
3.59500	-111
3.59867	-112
3.60233	-116
3.60600	-119
3.60967	-124
3.61333	-124
3.61700	-120
3.62067	-117
3.62433	-115
3.62800	-111
3.63167	-109
3.63533	-111
3.63900	-113
3.64267	-115
3.64633	-117
3.65000	-115
3.65367	-108
3.65733	-99
3.66100	-91
3.66467	-85
3.66833	-84
3.67200	-89
3.67567	-97
3.67933	-106
3.68300	-115
3.68667	-121
3.69033	-125
3.69400	-127
3.69767	-128
3.70133	-128
3.70500	-128
3.70867	-125
3.71233	-121
3.71600	-118
3.71967	-112
3.72333	-109
3.72700	-110
3.73067	-112
3.73433	-113
3.73800	-115
3.74167	-119
3.74533	-122
3.74900	-120
3.75267	-115
3.75633	-115
3.76000	-119
3.76367	-122
3.76733	-122
3.77100	-120
3.77467	-120
3.77833	-124
3.78200	-129
3.78567	-129
3.78933	-127
3.79300	-125
3.79667	-125
3.80033	-125
3.80400	-122
3.80767	-115
3.81133	-106
3.81500	-103
3.81867	-107
3.82233	-114
3.82600	-120
3.82967	-123
3.83333	-124
3.83700	-123
3.84067	-119
3.84433	-116
3.84800	-117
3.85167	-122
3.85533	-130
3.85900	-138
3.86267	-141
3.86633	-140
3.87000	-136
3.87367	-134
3.87733	-135
3.88100	-140
3.88467	-145
3.88833	-146
3.89200	-139
3.89567	-129
3.89933	-118
3.90300	-108
3.90667	-104
3.91033	-107
3.91400	-114
3.91767	-123
3.92133	-132
3.92500	-141
3.92867	-148
3.93233	-150
3.93600	-146
3.93967	-138
3.94333	-133
3.94700	-133
3.95067	-139
3.95433	-149
3.95800	-158
3.96167	-162
3.96533	-162
3.96900	-161
3.97267	-155
3.97633	-145
3.98000	-135
3.98367	-129
3.98733	-128
3.99100	-130
3.99467	-133
3.99833	-136

[Chromatogram (Ch2)]
Interval(msec)	220
# of Points	1091
Start Time(min)	0.002
End Time(min)	3.998
R.Time (min)	Intensity
0.00167	0
0.00533	0
0.00900	1
0.01267	1
0.01633	1
0.02000	1
0.02367	1
0.02733	1
0.03100	2
0.03467	2
0.03833	2
0.04200	2
0.04567	2
0.04933	3
0.05300	3
0.05667	3
0.06033	3
0.06400	3
0.06767	3
0.07133	3
0.07500	3
0.07867	3
0.08233	3
0.08600	3
0.08967	3
0.09333	3
0.09700	3
0.10067	3
0.10433	3
0.10800	3
0.11167	3
0.11533	3
0.11900	3
0.12267	3
0.12633	3
0.13000	3
0.13367	3
0.13733	3
0.14100	3
0.14467	3
0.14833	3
0.15200	3
0.15567	3
0.15933	2
0.16300	2
0.16667	2
0.17033	2
0.17400	2
0.17767	2
0.18133	2
0.18500	2
0.18867	2
0.19233	2
0.19600	2
0.19967	2
0.20333	2
0.20700	2
0.21067	2
0.21433	2
0.21800	2
0.22167	2
0.22533	2
0.22900	2
0.23267	2
0.23633	2
0.24000	1
0.24367	1
0.24733	1
0.25100	1
0.25467	2
0.25833	2
0.26200	2
0.26567	2
0.26933	2
0.27300	1
0.27667	1
0.28033	1
0.28400	1
0.28767	1
0.29133	0
0.29500	0
0.29867	0
0.30233	0
0.30600	0
0.30967	-0
0.31333	-0
0.31700	-0
0.32067	-0
0.32433	-0
0.32800	-0
0.33167	-0
0.33533	0
0.33900	0
0.34267	0
0.34633	0
0.35000	0
0.35367	-0
0.35733	-0
0.36100	-1
0.36467	-1
0.36833	-1
0.37200	-1
0.37567	-1
0.37933	-2
0.38300	-2
0.38667	-2
0.39033	-2
0.39400	-1
0.39767	-1
0.40133	-1
0.40500	-0
0.40867	-0
0.41233	-0
0.41600	-0
0.41967	-1
0.42333	-1
0.42700	-1
0.43067	-1
0.43433	-1
0.43800	-0
0.44167	-0
0.44533	-0
0.44900	-0
0.45267	-0
0.45633	-0
0.46000	-0
0.46367	-0
0.46733	-1
0.47100	-1
0.47467	-1
0.47833	-1
0.48200	-1
0.48567	-1
0.48933	-1
0.49300	-1
0.49667	-1
0.50033	-1
0.50400	-1
0.50767	-1
0.51133	-0
0.51500	-0
0.51867	-0
0.52233	0
0.52600	0
0.52967	0
0.53333	1
0.53700	1
0.54067	1
0.54433	1
0.54800	1
0.55167	1
0.55533	1
0.55900	1
0.56267	1
0.56633	1
0.57000	1
0.57367	0
0.57733	0
0.58100	-0
0.58467	-0
0.58833	-1
0.59200	-1
0.59567	-1
0.59933	-1
0.60300	-1
0.60667	-1
0.61033	-1
0.61400	-1
0.61767	-1
0.62133	-1
0.62500	-1
0.62867	-0
0.63233	-1
0.63600	-1
0.63967	-1
0.64333	-1
0.64700	-0
0.65067	-0
0.65433	-0
0.65800	-0
0.66167	0
0.66533	0
0.66900	0
0.67267	0
0.67633	1
0.68000	1
0.68367	1
0.68733	1
0.69100	1
0.69467	1
0.69833	1
0.70200	1
0.70567	1
0.70933	1
0.71300	0
0.71667	0
0.72033	0
0.72400	0
0.72767	0
0.73133	-0
0.73500	-0
0.73867	-1
0.74233	-1
0.74600	-1
0.74967	-1
0.75333	-1
0.75700	-1
0.76067	-1
0.76433	-1
0.76800	-1
0.77167	-1
0.77533	-1
0.77900	-1
0.78267	-1
0.78633	-1
0.79000	-1
0.79367	-1
0.79733	-1
0.80100	-1
0.80467	-1
0.80833	-0
0.81200	-1
0.81567	-1
0.81933	-1
0.82300	-1
0.82667	-2
0.83033	-2
0.83400	-2
0.83767	-1
0.84133	-1
0.84500	-1
0.84867	-1
0.85233	-1
0.85600	-1
0.85967	-1
0.86333	-0
0.86700	-0
0.87067	-1
0.87433	-1
0.87800	-1
0.88167	-0
0.88533	-0
0.88900	-0
0.89267	-0
0.89633	-0
0.90000	-0
0.90367	-0
0.90733	-0
0.91100	-0
0.91467	-0
0.91833	-0
0.92200	-0
0.92567	-0
0.92933	-0
0.93300	0
0.93667	0
0.94033	0
0.94400	-0
0.94767	-0
0.95133	-1
0.95500	-1
0.95867	-1
0.96233	-1
0.96600	-1
0.96967	-1
0.97333	-1
0.97700	-1
0.98067	-1
0.98433	-1
0.98800	-1
0.99167	-1
0.99533	-1
0.99900	-1
1.00267	-1
1.00633	-1
1.01000	-1
1.01367	-1
1.01733	-1
1.02100	-1
1.02467	-1
1.02833	-1
1.03200	-1
1.03567	-0
1.03933	-0
1.04300	-0
1.04667	-1
1.05033	-1
1.05400	-1
1.05767	-1
1.06133	-1
1.06500	-1
1.06867	-1
1.07233	-1
1.07600	-1
1.07967	-1
1.08333	-1
1.08700	-0
1.09067	-0
1.09433	-0
1.09800	-0
1.10167	-1
1.10533	-1
1.10900	-1
1.11267	-1
1.11633	-1
1.12000	-1
1.12367	-1
1.12733	-1
1.13100	-1
1.13467	-1
1.13833	-1
1.14200	-1
1.14567	-1
1.14933	-1
1.15300	-2
1.15667	-2
1.16033	-2
1.16400	-2
1.16767	-2
1.17133	-2
1.17500	-2
1.17867	-1
1.18233	-1
1.18600	-1
1.18967	-1
1.19333	-0
1.19700	-0
1.20067	-0
1.20433	0
1.20800	0
1.21167	0
1.21533	0
1.21900	0
1.22267	0
1.22633	0
1.23000	-0
1.23367	-0
1.23733	-0
1.24100	-0
1.24467	-0
1.24833	-0
1.25200	-0
1.25567	-1
1.25933	-1
1.26300	-1
1.26667	-1
1.27033	-1
1.27400	-1
1.27767	-1
1.28133	-1
1.28500	-1
1.28867	-1
1.29233	-1
1.29600	-1
1.29967	-1
1.30333	-1
1.30700	-1
1.31067	-1
1.31433	-1
1.31800	-1
1.32167	-1
1.32533	-2
1.32900	-2
1.33267	-2
1.33633	-2
1.34000	-2
1.34367	-2
1.34733	-2
1.35100	-3
1.35467	-3
1.35833	-3
1.36200	-3
1.36567	-3
1.36933	-2
1.37300	-2
1.37667	-2
1.38033	-2
1.38400	-1
1.38767	-1
1.39133	-1
1.39500	-1
1.39867	-1
1.40233	-1
1.40600	-1
1.40967	-1
1.41333	-1
1.41700	-1
1.42067	-1
1.42433	-1
1.42800	-1
1.43167	-1
1.43533	-1
1.43900	-1
1.44267	-1
1.44633	-1
1.45000	-1
1.45367	-1
1.45733	-1
1.46100	-1
1.46467	-1
1.46833	-1
1.47200	-1
1.47567	-1
1.47933	-1
1.48300	-1
1.48667	-1
1.49033	-2
1.49400	-2
1.49767	-2
1.50133	-2
1.50500	-2
1.50867	-2
1.51233	-2
1.51600	-2
1.51967	-2
1.52333	-1
1.52700	-1
1.53067	-1
1.53433	-1
1.53800	-1
1.54167	-1
1.54533	-2
1.54900	-2
1.55267	-2
1.55633	-2
1.56000	-2
1.56367	-2
1.56733	-2
1.57100	-3
1.57467	-3
1.57833	-3
1.58200	-3
1.58567	-4
1.58933	-4
1.59300	-4
1.59667	-5
1.60033	-5
1.60400	-6
1.60767	-7
1.61133	-8
1.61500	-10
1.61867	-12
1.62233	-14
1.62600	-17
1.62967	-20
1.63333	-23
1.63700	-26
1.64067	-30
1.64433	-33
1.64800	-37
1.65167	-40
1.65533	-44
1.65900	-48
1.66267	-51
1.66633	-56
1.67000	-60
1.67367	-65
1.67733	-70
1.68100	-75
1.68467	-80
1.68833	-85
1.69200	-89
1.69567	-93
1.69933	-96
1.70300	-99
1.70667	-101
1.71033	-103
1.71400	-105
1.71767	-106
1.72133	-108
1.72500	-109
1.72867	-111
1.73233	-112
1.73600	-113
1.73967	-114
1.74333	-114
1.74700	-114
1.75067	-114
1.75433	-114
1.75800	-114
1.76167	-114
1.76533	-114
1.76900	-114
1.77267	-115
1.77633	-116
1.78000	-117
1.78367	-117
1.78733	-118
1.79100	-120
1.79467	-121
1.79833	-121
1.80200	-122
1.80567	-122
1.80933	-123
1.81300	-122
1.81667	-122
1.82033	-122
1.82400	-121
1.82767	-121
1.83133	-121
1.83500	-121
1.83867	-121
1.84233	-121
1.84600	-120
1.84967	-120
1.85333	-119
1.85700	-119
1.86067	-119
1.86433	-119
1.86800	-120
1.87167	-120
1.87533	-120
1.87900	-120
1.88267	-120
1.88633	-119
1.89000	-119
1.89367	-119
1.89733	-119
1.90100	-119
1.90467	-119
1.90833	-119
1.91200	-119
1.91567	-119
1.91933	-119
1.92300	-119
1.92667	-118
1.93033	-118
1.93400	-117
1.93767	-117
1.94133	-117
1.94500	-116
1.94867	-116
1.95233	-115
1.95600	-114
1.95967	-113
1.96333	-111
1.96700	-110
1.97067	-109
1.97433	-108
1.97800	-108
1.98167	-107
1.98533	-107
1.98900	-107
1.99267	-108
1.99633	-108
2.00000	-108
2.00367	-109
2.00733	-109
2.01100	-109
2.01467	-110
2.01833	-109
2.02200	-109
2.02567	-109
2.02933	-109
2.03300	-109
2.03667	-108
2.04033	-107
2.04400	-106
2.04767	-106
2.05133	-105
2.05500	-104
2.05867	-104
2.06233	-104
2.06600	-103
2.06967	-104
2.07333	-104
2.07700	-104
2.08067	-104
2.08433	-104
2.08800	-104
2.09167	-104
2.09533	-104
2.09900	-103
2.10267	-103
2.10633	-103
2.11000	-103
2.11367	-103
2.11733	-103
2.12100	-102
2.12467	-102
2.12833	-102
2.13200	-101
2.13567	-101
2.13933	-101
2.14300	-102
2.14667	-102
2.15033	-103
2.15400	-103
2.15767	-102
2.16133	-102
2.16500	-101
2.16867	-100
2.17233	-99
2.17600	-98
2.17967	-98
2.18333	-98
2.18700	-97
2.19067	-97
2.19433	-97
2.19800	-97
2.20167	-96
2.20533	-96
2.20900	-96
2.21267	-95
2.21633	-95
2.22000	-95
2.22367	-95
2.22733	-95
2.23100	-95
2.23467	-95
2.23833	-95
2.24200	-94
2.24567	-94
2.24933	-94
2.25300	-94
2.25667	-94
2.26033	-94
2.26400	-94
2.26767	-93
2.27133	-93
2.27500	-92
2.27867	-92
2.28233	-91
2.28600	-90
2.28967	-89
2.29333	-89
2.29700	-88
2.30067	-88
2.30433	-87
2.30800	-87
2.31167	-86
2.31533	-85
2.31900	-85
2.32267	-84
2.32633	-84
2.33000	-83
2.33367	-83
2.33733	-83
2.34100	-82
2.34467	-82
2.34833	-81
2.35200	-80
2.35567	-79
2.35933	-79
2.36300	-78
2.36667	-78
2.37033	-77
2.37400	-75
2.37767	-74
2.38133	-72
2.38500	-69
2.38867	-67
2.39233	-63
2.39600	-59
2.39967	-55
2.40333	-50
2.40700	-46
2.41067	-41
2.41433	-37
2.41800	-33
2.42167	-29
2.42533	-26
2.42900	-22
2.43267	-19
2.43633	-17
2.44000	-14
2.44367	-12
2.44733	-10
2.45100	-9
2.45467	-7
2.45833	-6
2.46200	-4
2.46567	-3
2.46933	-2
2.47300	-0
2.47667	1
2.48033	1
2.48400	2
2.48767	3
2.49133	3
2.49500	5
2.49867	6
2.50233	7
2.50600	9
2.50967	10
2.51333	11
2.51700	12
2.52067	13
2.52433	13
2.52800	13
2.53167	14
2.53533	14
2.53900	15
2.54267	15
2.54633	15
2.55000	16
2.55367	16
2.55733	16
2.56100	16
2.56467	16
2.56833	16
2.57200	16
2.57567	16
2.57933	16
2.58300	17
2.58667	17
2.59033	17
2.59400	17
2.59767	16
2.60133	16
2.60500	16
2.60867	17
2.61233	17
2.61600	18
2.61967	18
2.62333	19
2.62700	20
2.63067	20
2.63433	21
2.63800	21
2.64167	21
2.64533	21
2.64900	21
2.65267	21
2.65633	21
2.66000	21
2.66367	21
2.66733	22
2.67100	22
2.67467	22
2.67833	23
2.68200	23
2.68567	23
2.68933	23
2.69300	23
2.69667	24
2.70033	24
2.70400	24
2.70767	24
2.71133	24
2.71500	24
2.71867	23
2.72233	23
2.72600	24
2.72967	24
2.73333	25
2.73700	25
2.74067	25
2.74433	26
2.74800	27
2.75167	27
2.75533	28
2.75900	28
2.76267	29
2.76633	29
2.77000	30
2.77367	30
2.77733	30
2.78100	29
2.78467	29
2.78833	29
2.79200	28
2.79567	28
2.79933	27
2.80300	27
2.80667	26
2.81033	26
2.81400	26
2.81767	26
2.82133	26
2.82500	26
2.82867	26
2.83233	26
2.83600	26
2.83967	26
2.84333	26
2.84700	26
2.85067	25
2.85433	24
2.85800	21
2.86167	15
2.86533	8
2.86900	-3
2.87267	-17
2.87633	-35
2.88000	-57
2.88367	-84
2.88733	-114
2.89100	-147
2.89467	-185
2.89833	-225
2.90200	-268
2.90567	-314
2.90933	-362
2.91300	-411
2.91667	-462
2.92033	-513
2.92400	-564
2.92767	-616
2.93133	-667
2.93500	-718
2.93867	-768
2.94233	-818
2.94600	-869
2.94967	-924
2.95333	-985
2.95700	-1044
2.96067	-1091
2.96433	-1115
2.96800	-1113
2.97167	-1085
2.97533	-1035
2.97900	-970
2.98267	-895
2.98633	-814
2.99000	-732
2.99367	-653
2.99733	-577
3.00100	-506
3.00467	-442
3.00833	-383
3.01200	-331
3.01567	-284
3.01933	-243
3.02300	-208
3.02667	-176
3.03033	-149
3.03400	-125
3.03767	-105
3.04133	-88
3.04500	-73
3.04867	-60
3.05233	-49
3.05600	-40
3.05967	-32
3.06333	-25
3.06700	-20
3.07067	-15
3.07433	-10
3.07800	-7
3.08167	-3
3.08533	-1
3.08900	2
3.09267	4
3.09633	6
3.10000	7
3.10367	8
3.10733	10
3.11100	11
3.11467	12
3.11833	12
3.12200	13
3.12567	14
3.12933	15
3.13300	15
3.13667	15
3.14033	16
3.14400	16
3.14767	17
3.15133	17
3.15500	17
3.15867	18
3.16233	18
3.16600	18
3.16967	19
3.17333	19
3.17700	19
3.18067	20
3.18433	20
3.18800	20
3.19167	20
3.19533	21
3.19900	21
3.20267	21
3.20633	21
3.21000	22
3.21367	22
3.21733	23
3.22100	23
3.22467	23
3.22833	23
3.23200	24
3.23567	24
3.23933	24
3.24300	24
3.24667	24
3.25033	25
3.25400	25
3.25767	25
3.26133	25
3.26500	25
3.26867	25
3.27233	25
3.27600	25
3.27967	25
3.28333	25
3.28700	25
3.29067	25
3.29433	25
3.29800	25
3.30167	25
3.30533	25
3.30900	25
3.31267	25
3.31633	25
3.32000	25
3.32367	25
3.32733	25
3.33100	25
3.33467	26
3.33833	26
3.34200	26
3.34567	26
3.34933	26
3.35300	27
3.35667	27
3.36033	27
3.36400	28
3.36767	28
3.37133	28
3.37500	28
3.37867	28
3.38233	28
3.38600	29
3.38967	29
3.39333	30
3.39700	30
3.40067	30
3.40433	30
3.40800	30
3.41167	30
3.41533	30
3.41900	30
3.42267	30
3.42633	30
3.43000	30
3.43367	30
3.43733	30
3.44100	31
3.44467	31
3.44833	31
3.45200	31
3.45567	31
3.45933	31
3.46300	31
3.46667	30
3.47033	30
3.47400	30
3.47767	30
3.48133	29
3.48500	29
3.48867	29
3.49233	29
3.49600	29
3.49967	29
3.50333	29
3.50700	30
3.51067	30
3.51433	30
3.51800	30
3.52167	30
3.52533	30
3.52900	29
3.53267	29
3.53633	29
3.54000	30
3.54367	30
3.54733	30
3.55100	30
3.55467	30
3.55833	30
3.56200	30
3.56567	30
3.56933	30
3.57300	30
3.57667	30
3.58033	30
3.58400	30
3.58767	30
3.59133	30
3.59500	30
3.59867	30
3.60233	30
3.60600	30
3.60967	30
3.61333	30
3.61700	30
3.62067	30
3.62433	30
3.62800	30
3.63167	30
3.63533	30
3.63900	30
3.64267	30
3.64633	30
3.65000	30
3.65367	30
3.65733	30
3.66100	30
3.66467	30
3.66833	30
3.67200	30
3.67567	30
3.67933	30
3.68300	30
3.68667	30
3.69033	30
3.69400	30
3.69767	30
3.70133	30
3.70500	30
3.70867	30
3.71233	30
3.71600	30
3.71967	30
3.72333	29
3.72700	29
3.73067	29
3.73433	29
3.73800	29
3.74167	29
3.74533	29
3.74900	29
3.75267	29
3.75633	29
3.76000	29
3.76367	29
3.76733	29
3.77100	29
3.77467	29
3.77833	29
3.78200	29
3.78567	29
3.78933	29
3.79300	29
3.79667	28
3.80033	28
3.80400	28
3.80767	29
3.81133	29
3.81500	29
3.81867	29
3.82233	30
3.82600	30
3.82967	30
3.83333	30
3.83700	30
3.84067	30
3.84433	31
3.84800	31
3.85167	31
3.85533	31
3.85900	31
3.86267	31
3.86633	31
3.87000	31
3.87367	31
3.87733	30
3.88100	30
3.88467	30
3.88833	30
3.89200	30
3.89567	30
3.89933	30
3.90300	30
3.90667	30
3.91033	30
3.91400	30
3.91767	30
3.92133	30
3.92500	30
3.92867	30
3.93233	30
3.93600	30
3.93967	30
3.94333	30
3.94700	30
3.95067	30
3.95433	30
3.95800	30
3.96167	30
3.96533	30
3.96900	30
3.97267	30
3.97633	30
3.98000	30
3.98367	30
3.98733	30
3.99100	29
3.99467	29
3.99833	29

[Chromatogram (Ch3)]
Interval(msec)	220
# of Points	1091
Start Time(min)	0.002
End Time(min)	3.998
R.Time (min)	Intensity
0.00167	-0
0.00533	0
0.00900	1
0.01267	-1
0.01633	0
0.02000	1
0.02367	3
0.02733	3
0.03100	3
0.03467	2
0.03833	1
0.04200	1
0.04567	2
0.04933	4
0.05300	5
0.05667	6
0.06033	6
0.06400	6
0.06767	5
0.07133	3
0.07500	4
0.07867	3
0.08233	3
0.08600	4
0.08967	6
0.09333	8
0.09700	10
0.10067	10
0.10433	8
0.10800	6
0.11167	8
0.11533	10
0.11900	13
0.12267	14
0.12633	14
0.13000	13
0.13367	10
0.13733	8
0.14100	6
0.14467	6
0.14833	10
0.15200	13
0.15567	14
0.15933	15
0.16300	13
0.16667	10
0.17033	8
0.17400	7
0.17767	6
0.18133	8
0.18500	11
0.18867	12
0.19233	11
0.19600	11
0.19967	13
0.20333	13
0.20700	12
0.21067	12
0.21433	11
0.21800	11
0.22167	13
0.22533	13
0.22900	14
0.23267	15
0.23633	12
0.24000	11
0.24367	11
0.24733	10
0.25100	12
0.25467	14
0.25833	14
0.26200	14
0.26567	15
0.26933	17
0.27300	17
0.27667	18
0.28033	17
0.28400	17
0.28767	19
0.29133	20
0.29500	19
0.29867	19
0.30233	19
0.30600	18
0.30967	18
0.31333	19
0.31700	20
0.32067	21
0.32433	21
0.32800	22
0.33167	21
0.33533	20
0.33900	18
0.34267	15
0.34633	13
0.35000	14
0.35367	17
0.35733	19
0.36100	20
0.36467	20
0.36833	19
0.37200	19
0.37567	19
0.37933	18
0.38300	17
0.38667	18
0.39033	19
0.39400	19
0.39767	19
0.40133	18
0.40500	19
0.40867	21
0.41233	21
0.41600	21
0.41967	22
0.42333	21
0.42700	21
0.43067	23
0.43433	24
0.43800	23
0.44167	20
0.44533	19
0.44900	19
0.45267	19
0.45633	21
0.46000	21
0.46367	22
0.46733	21
0.47100	19
0.47467	18
0.47833	15
0.48200	14
0.48567	16
0.48933	19
0.49300	20
0.49667	19
0.50033	19
0.50400	18
0.50767	19
0.51133	20
0.51500	21
0.51867	23
0.52233	24
0.52600	25
0.52967	24
0.53333	26
0.53700	27
0.54067	26
0.54433	24
0.54800	26
0.55167	26
0.55533	25
0.55900	23
0.56267	22
0.56633	20
0.57000	18
0.57367	19
0.57733	19
0.58100	21
0.58467	24
0.58833	25
0.59200	26
0.59567	28
0.59933	28
0.60300	28
0.60667	26
0.61033	23
0.61400	23
0.61767	24
0.62133	26
0.62500	26
0.62867	24
0.63233	22
0.63600	25
0.63967	28
0.64333	28
0.64700	28
0.65067	29
0.65433	28
0.65800	28
0.66167	29
0.66533	28
0.66900	28
0.67267	27
0.67633	23
0.68000	22
0.68367	21
0.68733	21
0.69100	21
0.69467	21
0.69833	23
0.70200	25
0.70567	26
0.70933	28
0.71300	28
0.71667	27
0.72033	26
0.72400	27
0.72767	28
0.73133	29
0.73500	30
0.73867	30
0.74233	31
0.74600	32
0.74967	33
0.75333	34
0.75700	33
0.76067	31
0.76433	31
0.76800	31
0.77167	30
0.77533	28
0.77900	25
0.78267	26
0.78633	31
0.79000	32
0.79367	31
0.79733	31
0.80100	33
0.80467	35
0.80833	36
0.81200	35
0.81567	34
0.81933	33
0.82300	33
0.82667	31
0.83033	29
0.83400	28
0.83767	27
0.84133	29
0.84500	32
0.84867	33
0.85233	32
0.85600	30
0.85967	29
0.86333	27
0.86700	26
0.87067	24
0.87433	23
0.87800	22
0.88167	23
0.88533	25
0.88900	27
0.89267	27
0.89633	26
0.90000	25
0.90367	25
0.90733	24
0.91100	26
0.91467	27
0.91833	26
0.92200	26
0.92567	25
0.92933	25
0.93300	25
0.93667	26
0.94033	27
0.94400	27
0.94767	27
0.95133	27
0.95500	27
0.95867	26
0.96233	25
0.96600	25
0.96967	24
0.97333	22
0.97700	22
0.98067	24
0.98433	26
0.98800	27
0.99167	27
0.99533	28
0.99900	28
1.00267	26
1.00633	27
1.01000	27
1.01367	26
1.01733	26
1.02100	26
1.02467	25
1.02833	24
1.03200	22
1.03567	23
1.03933	26
1.04300	27
1.04667	24
1.05033	21
1.05400	20
1.05767	21
1.06133	22
1.06500	22
1.06867	25
1.07233	28
1.07600	28
1.07967	27
1.08333	26
1.08700	24
1.09067	22
1.09433	21
1.09800	20
1.10167	20
1.10533	21
1.10900	25
1.11267	25
1.11633	23
1.12000	23
1.12367	23
1.12733	21
1.13100	23
1.13467	25
1.13833	25
1.14200	23
1.14567	23
1.14933	24
1.15300	24
1.15667	22
1.16033	20
1.16400	20
1.16767	22
1.17133	24
1.17500	24
1.17867	24
1.18233	24
1.18600	26
1.18967	25
1.19333	25
1.19700	24
1.20067	24
1.20433	24
1.20800	23
1.21167	23
1.21533	25
1.21900	26
1.22267	26
1.22633	25
1.23000	22
1.23367	21
1.23733	22
1.24100	23
1.24467	23
1.24833	22
1.25200	23
1.25567	25
1.25933	26
1.26300	25
1.26667	27
1.27033	28
1.27400	27
1.27767	28
1.28133	27
1.28500	26
1.28867	27
1.29233	30
1.29600	29
1.29967	28
1.30333	28
1.30700	28
1.31067	26
1.31433	24
1.31800	24
1.32167	24
1.32533	23
1.32900	22
1.33267	21
1.33633	21
1.34000	22
1.34367	22
1.34733	21
1.35100	20
1.35467	20
1.35833	19
1.36200	18
1.36567	19
1.36933	20
1.37300	21
1.37667	22
1.38033	22
1.38400	22
1.38767	23
1.39133	23
1.39500	23
1.39867	25
1.40233	25
1.40600	23
1.40967	23
1.41333	23
1.41700	23
1.42067	21
1.42433	18
1.42800	17
1.43167	20
1.43533	22
1.43900	23
1.44267	22
1.44633	21
1.45000	22
1.45367	24
1.45733	24
1.46100	24
1.46467	25
1.46833	26
1.47200	26
1.47567	25
1.47933	26
1.48300	27
1.48667	24
1.49033	21
1.49400	23
1.49767	23
1.50133	23
1.50500	21
1.50867	21
1.51233	20
1.51600	21
1.51967	21
1.52333	21
1.52700	21
1.53067	19
1.53433	17
1.53800	17
1.54167	18
1.54533	21
1.54900	22
1.55267	23
1.55633	24
1.56000	23
1.56367	21
1.56733	18
1.57100	17
1.57467	21
1.57833	24
1.58200	25
1.58567	26
1.58933	24
1.59300	24
1.59667	25
1.60033	23
1.60400	23
1.60767	22
1.61133	21
1.61500	20
1.61867	21
1.62233	20
1.62600	20
1.62967	23
1.63333	24
1.63700	25
1.64067	27
1.64433	27
1.64800	28
1.65167	27
1.65533	28
1.65900	30
1.66267	30
1.66633	28
1.67000	29
1.67367	31
1.67733	33
1.68100	32
1.68467	32
1.68833	31
1.69200	31
1.69567	30
1.69933	31
1.70300	35
1.70667	37
1.71033	39
1.71400	40
1.71767	41
1.72133	40
1.72500	39
1.72867	38
1.73233	37
1.73600	33
1.73967	30
1.74333	32
1.74700	34
1.75067	34
1.75433	36
1.75800	38
1.76167	39
1.76533	42
1.76900	44
1.77267	47
1.77633	49
1.78000	48
1.78367	46
1.78733	44
1.79100	43
1.79467	44
1.79833	47
1.80200	48
1.80567	49
1.80933	50
1.81300	50
1.81667	49
1.82033	49
1.82400	49
1.82767	49
1.83133	49
1.83500	48
1.83867	46
1.84233	45
1.84600	44
1.84967	46
1.85333	48
1.85700	48
1.86067	47
1.86433	47
1.86800	50
1.87167	50
1.87533	50
1.87900	50
1.88267	51
1.88633	50
1.89000	50
1.89367	52
1.89733	55
1.90100	56
1.90467	55
1.90833	56
1.91200	57
1.91567	57
1.91933	55
1.92300	55
1.92667	54
1.93033	56
1.93400	58
1.93767	58
1.94133	61
1.94500	63
1.94867	63
1.95233	63
1.95600	61
1.95967	60
1.96333	60
1.96700	62
1.97067	61
1.97433	60
1.97800	60
1.98167	64
1.98533	68
1.98900	70
1.99267	69
1.99633	67
2.00000	66
2.00367	68
2.00733	70
2.01100	72
2.01467	72
2.01833	71
2.02200	71
2.02567	73
2.02933	77
2.03300	76
2.03667	75
2.04033	75
2.04400	77
2.04767	77
2.05133	76
2.05500	78
2.05867	80
2.06233	81
2.06600	83
2.06967	83
2.07333	83
2.07700	86
2.08067	88
2.08433	88
2.08800	89
2.09167	89
2.09533	90
2.09900	90
2.10267	91
2.10633	92
2.11000	95
2.11367	96
2.11733	95
2.12100	94
2.12467	97
2.12833	98
2.13200	96
2.13567	96
2.13933	99
2.14300	101
2.14667	102
2.15033	102
2.15400	104
2.15767	106
2.16133	109
2.16500	107
2.16867	102
2.17233	100
2.17600	102
2.17967	105
2.18333	107
2.18700	109
2.19067	109
2.19433	108
2.19800	108
2.20167	109
2.20533	108
2.20900	108
2.21267	111
2.21633	115
2.22000	121
2.22367	125
2.22733	126
2.23100	125
2.23467	125
2.23833	125
2.24200	126
2.24567	127
2.24933	128
2.25300	127
2.25667	127
2.26033	127
2.26400	127
2.26767	128
2.27133	128
2.27500	129
2.27867	129
2.28233	129
2.28600	132
2.28967	131
2.29333	134
2.29700	136
2.30067	135
2.30433	135
2.30800	135
2.31167	136
2.31533	138
2.31900	138
2.32267	138
2.32633	139
2.33000	142
2.33367	144
2.33733	146
2.34100	147
2.34467	147
2.34833	148
2.35200	149
2.35567	151
2.35933	150
2.36300	151
2.36667	152
2.37033	155
2.37400	157
2.37767	157
2.38133	159
2.38500	160
2.38867	158
2.39233	158
2.39600	162
2.39967	164
2.40333	165
2.40700	166
2.41067	168
2.41433	171
2.41800	173
2.42167	174
2.42533	177
2.42900	177
2.43267	178
2.43633	178
2.44000	180
2.44367	215
2.44733	294
2.45100	377
2.45467	433
2.45833	441
2.46200	420
2.46567	398
2.46933	382
2.47300	360
2.47667	329
2.48033	291
2.48400	251
2.48767	216
2.49133	188
2.49500	171
2.49867	165
2.50233	167
2.50600	177
2.50967	189
2.51333	197
2.51700	195
2.52067	183
2.52433	165
2.52800	140
2.53167	116
2.53533	96
2.53900	78
2.54267	62
2.54633	51
2.55000	44
2.55367	40
2.55733	40
2.56100	41
2.56467	42
2.56833	42
2.57200	43
2.57567	45
2.57933	51
2.58300	57
2.58667	65
2.59033	77
2.59400	91
2.59767	100
2.60133	108
2.60500	113
2.60867	110
2.61233	98
2.61600	73
2.61967	42
2.62333	6
2.62700	-32
2.63067	-70
2.63433	-108
2.63800	-140
2.64167	-167
2.64533	-188
2.64900	-202
2.65267	-213
2.65633	-217
2.66000	-219
2.66367	-218
2.66733	-213
2.67100	-208
2.67467	-201
2.67833	-195
2.68200	-188
2.68567	-178
2.68933	-166
2.69300	-155
2.69667	-150
2.70033	-144
2.70400	-136
2.70767	-128
2.71133	-121
2.71500	-112
2.71867	-106
2.72233	-99
2.72600	-92
2.72967	-86
2.73333	-81
2.73700	-72
2.74067	-66
2.74433	-59
2.74800	-55
2.75167	-49
2.75533	-41
2.75900	-33
2.76267	-25
2.76633	-17
2.77000	-8
2.77367	1
2.77733	10
2.78100	17
2.78467	23
2.78833	29
2.79200	36
2.79567	45
2.79933	52
2.80300	60
2.80667	66
2.81033	71
2.81400	77
2.81767	85
2.82133	93
2.82500	104
2.82867	127
2.83233	172
2.83600	259
2.83967	411
2.84333	655
2.84700	1009
2.85067	1474
2.85433	2033
2.85800	2662
2.86167	3317
2.86533	3944
2.86900	4490
2.87267	4915
2.87633	5190
2.88000	5306
2.88367	5266
2.88733	5078
2.89100	4764
2.89467	4343
2.89833	3896
2.90200	3480
2.90567	3116
2.90933	2801
2.91300	2529
2.91667	2292
2.92033	2081
2.92400	1897
2.92767	1736
2.93133	1596
2.93500	1475
2.93867	1368
2.94233	1275
2.94600	1193
2.94967	1119
2.95333	1053
2.95700	995
2.96067	943
2.96433	898
2.96800	860
2.97167	828
2.97533	804
2.97900	784
2.98267	765
2.98633	749
2.99000	734
2.99367	719
2.99733	709
3.00100	702
3.00467	698
3.00833	694
3.01200	692
3.01567	691
3.01933	690
3.02300	688
3.02667	686
3.03033	684
3.03400	684
3.03767	684
3.04133	682
3.04500	683
3.04867	685
3.05233	687
3.05600	690
3.05967	692
3.06333	693
3.06700	695
3.07067	697
3.07433	698
3.07800	701
3.08167	703
3.08533	705
3.08900	707
3.09267	709
3.09633	710
3.10000	712
3.10367	715
3.10733	721
3.11100	726
3.11467	731
3.11833	734
3.12200	737
3.12567	741
3.12933	746
3.13300	753
3.13667	757
3.14033	758
3.14400	757
3.14767	759
3.15133	764
3.15500	770
3.15867	774
3.16233	776
3.16600	776
3.16967	777
3.17333	777
3.17700	777
3.18067	776
3.18433	777
3.18800	777
3.19167	774
3.19533	774
3.19900	777
3.20267	781
3.20633	782
3.21000	779
3.21367	775
3.21733	770
3.22100	768
3.22467	766
3.22833	763
3.23200	757
3.23567	753
3.23933	748
3.24300	744
3.24667	741
3.25033	737
3.25400	731
3.25767	726
3.26133	721
3.26500	719
3.26867	717
3.27233	715
3.27600	712
3.27967	707
3.28333	705
3.28700	702
3.29067	696
3.29433	691
3.29800	687
3.30167	682
3.30533	676
3.30900	671
3.31267	669
3.31633	666
3.32000	660
3.32367	658
3.32733	656
3.33100	652
3.33467	648
3.33833	642
3.34200	639
3.34567	634
3.34933	628
3.35300	622
3.35667	619
3.36033	617
3.36400	615
3.36767	610
3.37133	606
3.37500	600
3.37867	594
3.38233	590
3.38600	588
3.38967	586
3.39333	583
3.39700	580
3.40067	575
3.40433	573
3.40800	571
3.41167	567
3.41533	562
3.41900	560
3.42267	558
3.42633	554
3.43000	548
3.43367	546
3.43733	545
3.44100	541
3.44467	538
3.44833	534
3.45200	529
3.45567	526
3.45933	524
3.46300	520
3.46667	518
3.47033	517
3.47400	515
3.47767	513
3.48133	512
3.48500	509
3.48867	505
3.49233	502
3.49600	499
3.49967	497
3.50333	494
3.50700	489
3.51067	488
3.51433	487
3.51800	485
3.52167	482
3.52533	481
3.52900	482
3.53267	483
3.53633	479
3.54000	474
3.54367	469
3.54733	464
3.55100	458
3.55467	454
3.55833	453
3.56200	453
3.56567	454
3.56933	454
3.57300	452
3.57667	449
3.58033	447
3.58400	443
3.58767	441
3.59133	442
3.59500	445
3.59867	447
3.60233	447
3.60600	446
3.60967	444
3.61333	441
3.61700	439
3.62067	437
3.62433	432
3.62800	430
3.63167	431
3.63533	430
3.63900	426
3.64267	422
3.64633	420
3.65000	419
3.65367	418
3.65733	417
3.66100	416
3.66467	416
3.66833	414
3.67200	413
3.67567	412
3.67933	411
3.68300	410
3.68667	411
3.69033	412
3.69400	413
3.69767	412
3.70133	410
3.70500	408
3.70867	409
3.71233	409
3.71600	406
3.71967	404
3.72333	403
3.72700	403
3.73067	404
3.73433	405
3.73800	404
3.74167	402
3.74533	401
3.74900	402
3.75267	403
3.75633	402
3.76000	399
3.76367	398
3.76733	397
3.77100	398
3.77467	399
3.77833	398
3.78200	397
3.78567	397
3.78933	396
3.79300	395
3.79667	393
3.80033	392
3.80400	392
3.80767	391
3.81133	391
3.81500	391
3.81867	391
3.82233	393
3.82600	391
3.82967	388
3.83333	385
3.83700	384
3.84067	385
3.84433	386
3.84800	387
3.85167	386
3.85533	385
3.85900	383
3.86267	384
3.86633	384
3.87000	384
3.87367	382
3.87733	377
3.88100	375
3.88467	376
3.88833	378
3.89200	379
3.89567	379
3.89933	380
3.90300	380
3.90667	378
3.91033	375
3.91400	373
3.91767	372
3.92133	372
3.92500	372
3.92867	369
3.93233	369
3.93600	370
3.93967	371
3.94333	371
3.94700	372
3.95067	373
3.95433	372
3.95800	369
3.96167	367
3.96533	363
3.96900	361
3.97267	362
3.97633	362
3.98000	363
3.98367	364
3.98733	365
3.99100	362
3.99467	360
3.99833	360

[Status Trace (Column Oven Temperature)]
Interval(msec)	1000
# of Points	240
Start Time(min)	0.010
End Time(min)	3.993
Intensity Units	
Intensity Multiplier	1
R.Time (min)	Intensity
0.00987	35.06
0.02653	35.05
0.04320	35.05
0.05987	35.05
0.07653	35.04
0.09320	35.04
0.10987	35.03
0.12653	35.03
0.14320	35.02
0.15987	35.02
0.17653	35.01
0.19320	35.01
0.20987	35.01
0.22653	35.01
0.24320	35.00
0.25987	35.00
0.27653	35.01
0.29320	35.01
0.30987	35.00
0.32653	35.00
0.34320	34.99
0.35987	35.01
0.37653	35.01
0.39320	35.00
0.40987	35.01
0.42653	35.01
0.44320	35.00
0.45987	35.00
0.47653	35.00
0.49320	35.01
0.50987	35.01
0.52653	35.01
0.54320	35.00
0.55987	35.00
0.57653	34.99
0.59320	35.00
0.60987	35.00
0.62653	35.00
0.64320	35.00
0.65987	34.99
0.67653	35.00
0.69320	34.99
0.70987	34.98
0.72653	34.99
0.74320	34.99
0.75987	34.99
0.77653	35.00
0.79320	35.00
0.80987	35.00
0.82653	34.99
0.84320	35.00
0.85987	35.00
0.87653	35.00
0.89320	35.00
0.90987	35.00
0.92653	35.00
0.94320	34.99
0.95987	35.00
0.97653	35.00
0.99320	35.00
1.00987	34.99
1.02653	34.99
1.04320	35.00
1.05987	35.00
1.07653	35.00
1.09320	35.00
1.10987	35.00
1.12653	35.00
1.14320	35.00
1.15987	35.01
1.17653	34.99
1.19320	35.00
1.20987	34.99
1.22653	34.99
1.24320	34.99
1.25987	35.00
1.27653	35.00
1.29320	35.00
1.30987	35.00
1.32653	34.99
1.34320	35.00
1.35987	35.01
1.37653	35.00
1.39320	35.00
1.40987	34.99
1.42653	34.99
1.44320	34.99
1.45987	34.98
1.47653	34.98
1.49320	34.98
1.50987	34.98
1.52653	34.99
1.54320	34.99
1.55987	35.00
1.57653	35.01
1.59320	35.02
1.60987	35.09
1.62653	35.22
1.64320	35.40
1.65987	35.65
1.67653	36.00
1.69320	36.36
1.70987	36.70
1.72653	37.06
1.74320	37.39
1.75987	37.71
1.77653	38.04
1.79320	38.39
1.80987	38.72
1.82653	39.05
1.84320	39.38
1.85987	39.70
1.87653	40.03
1.89320	40.36
1.90987	40.71
1.92653	41.02
1.94320	41.38
1.95987	41.67
1.97653	41.97
1.99320	42.28
2.00987	42.60
2.02653	42.93
2.04320	43.23
2.05987	43.56
2.07653	43.89
2.09320	44.21
2.10987	44.53
2.12653	44.85
2.14320	45.22
2.15987	45.54
2.17653	45.87
2.19320	46.20
2.20987	46.53
2.22653	46.86
2.24320	47.20
2.25987	47.55
2.27653	47.88
2.29320	48.20
2.30987	48.52
2.32653	48.88
2.34320	49.18
2.35987	49.48
2.37653	49.67
2.39320	49.74
2.40987	49.73
2.42653	49.73
2.44320	49.75
2.45987	49.75
2.47653	49.76
2.49320	49.76
2.50987	49.76
2.52653	49.78
2.54320	49.77
2.55987	49.80
2.57653	49.80
2.59320	49.82
2.60987	49.82
2.62653	49.82
2.64320	49.83
2.65987	49.83
2.67653	49.84
2.69320	49.85
2.70987	49.87
2.72653	49.88
2.74320	49.87
2.75987	49.84
2.77653	49.85
2.79320	49.87
2.80987	49.89
2.82653	49.90
2.84320	49.91
2.85987	49.91
2.87653	49.90
2.89320	49.90
2.90987	49.91
2.92653	49.93
2.94320	49.94
2.95987	49.95
2.97653	49.95
2.99320	49.96
3.00987	49.96
3.02653	49.97
3.04320	49.97
3.05987	49.99
3.07653	50.00
3.09320	50.00
3.10987	50.01
3.12653	50.03
3.14320	50.04
3.15987	50.04
3.17653	50.05
3.19320	50.06
3.20987	50.06
3.22653	50.07
3.24320	50.08
3.25987	50.07
3.27653	50.08
3.29320	50.09
3.30987	50.10
3.32653	50.10
3.34320	50.10
3.35987	50.10
3.37653	50.09
3.39320	50.08
3.40987	50.07
3.42653	50.06
3.44320	50.06
3.45987	50.05
3.47653	50.05
3.49320	50.05
3.50987	50.05
3.52653	50.07
3.54320	50.07
3.55987	50.06
3.57653	50.07
3.59320	50.07
3.60987	50.07
3.62653	50.07
3.64320	50.07
3.65987	50.07
3.67653	50.07
3.69320	50.07
3.70987	50.07
3.72653	50.08
3.74320	50.09
3.75987	50.10
3.77653	50.10
3.79320	50.10
3.80987	50.08
3.82653	50.07
3.84320	50.07
3.85987	50.05
3.87653	50.04
3.89320	50.04
3.90987	50.03
3.92653	50.03
3.94320	50.02
3.95987	50.02
3.97653	50.02
3.99320	50.03

[Status Trace (Injection Unit Temperature)]
Interval(msec)	1000
# of Points	240
Start Time(min)	0.010
End Time(min)	3.993
Intensity Units	
Intensity Multiplier	1
R.Time (min)	Intensity
0.00987	99.98
0.02653	99.98
0.04320	99.98
0.05987	99.98
0.07653	99.98
0.09320	99.98
0.10987	99.98
0.12653	99.99
0.14320	99.98
0.15987	99.98
0.17653	99.98
0.19320	99.98
0.20987	99.99
0.22653	99.98
0.24320	99.98
0.25987	99.98
0.27653	99.99
0.29320	99.98
0.30987	99.98
0.32653	99.98
0.34320	99.98
0.35987	99.99
0.37653	99.98
0.39320	99.99
0.40987	99.99
0.42653	99.99
0.44320	99.99
0.45987	99.98
0.47653	99.98
0.49320	99.99
0.50987	99.99
0.52653	99.98
0.54320	99.98
0.55987	99.98
0.57653	99.98
0.59320	99.98
0.60987	99.98
0.62653	99.99
0.64320	99.98
0.65987	99.98
0.67653	99.98
0.69320	99.98
0.70987	99.98
0.72653	99.98
0.74320	99.99
0.75987	99.99
0.77653	99.98
0.79320	99.98
0.80987	99.98
0.82653	99.99
0.84320	99.98
0.85987	99.99
0.87653	99.99
0.89320	99.99
0.90987	99.99
0.92653	99.99
0.94320	99.99
0.95987	99.99
0.97653	99.99
0.99320	99.99
1.00987	99.99
1.02653	99.99
1.04320	99.99
1.05987	99.99
1.07653	99.98
1.09320	99.99
1.10987	99.99
1.12653	99.98
1.14320	99.99
1.15987	99.98
1.17653	99.99
1.19320	99.99
1.20987	99.98
1.22653	99.98
1.24320	99.99
1.25987	99.99
1.27653	99.99
1.29320	99.99
1.30987	99.99
1.32653	99.99
1.34320	99.98
1.35987	99.99
1.37653	99.98
1.39320	99.99
1.40987	99.99
1.42653	99.99
1.44320	99.99
1.45987	99.98
1.47653	99.99
1.49320	99.99
1.50987	99.99
1.52653	99.99
1.54320	99.98
1.55987	99.99
1.57653	99.99
1.59320	99.99
1.60987	99.98
1.62653	99.98
1.64320	99.99
1.65987	99.99
1.67653	99.98
1.69320	99.98
1.70987	99.99
1.72653	99.98
1.74320	99.98
1.75987	99.98
1.77653	99.98
1.79320	99.98
1.80987	99.98
1.82653	99.98
1.84320	99.98
1.85987	99.98
1.87653	99.98
1.89320	99.98
1.90987	99.98
1.92653	99.98
1.94320	99.98
1.95987	99.98
1.97653	99.98
1.99320	99.98
2.00987	99.98
2.02653	99.98
2.04320	99.97
2.05987	99.97
2.07653	99.97
2.09320	99.97
2.10987	99.97
2.12653	99.97
2.14320	99.97
2.15987	99.97
2.17653	99.97
2.19320	99.97
2.20987	99.97
2.22653	99.97
2.24320	99.97
2.25987	99.97
2.27653	99.97
2.29320	99.97
2.30987	99.97
2.32653	99.97
2.34320	99.97
2.35987	99.97
2.37653	99.97
2.39320	99.97
2.40987	99.97
2.42653	99.97
2.44320	99.96
2.45987	99.97
2.47653	99.97
2.49320	99.97
2.50987	99.97
2.52653	99.97
2.54320	99.97
2.55987	99.97
2.57653	99.97
2.59320	99.97
2.60987	99.97
2.62653	99.98
2.64320	99.98
2.65987	99.98
2.67653	99.98
2.69320	99.98
2.70987	99.98
2.72653	99.98
2.74320	99.98
2.75987	99.99
2.77653	99.99
2.79320	99.99
2.80987	99.99
2.82653	99.99
2.84320	100.00
2.85987	100.00
2.87653	100.00
2.89320	100.00
2.90987	100.00
2.92653	100.00
2.94320	100.01
2.95987	100.01
2.97653	100.01
2.99320	100.01
3.00987	100.01
3.02653	100.01
3.04320	100.01
3.05987	100.01
3.07653	100.02
3.09320	100.02
3.10987	100.02
3.12653	100.02
3.14320	100.02
3.15987	100.02
3.17653	100.02
3.19320	100.03
3.20987	100.03
3.22653	100.03
3.24320	100.03
3.25987	100.03
3.27653	100.03
3.29320	100.03
3.30987	100.03
3.32653	100.03
3.34320	100.04
3.35987	100.04
3.37653	100.04
3.39320	100.04
3.40987	100.04
3.42653	100.04
3.44320	100.04
3.45987	100.04
3.47653	100.04
3.49320	100.04
3.50987	100.04
3.52653	100.04
3.54320	100.04
3.55987	100.04
3.57653	100.04
3.59320	100.04
3.60987	100.04
3.62653	100.04
3.64320	100.04
3.65987	100.04
3.67653	100.04
3.69320	100.04
3.70987	100.04
3.72653	100.04
3.74320	100.05
3.75987	100.05
3.77653	100.05
3.79320	100.05
3.80987	100.05
3.82653	100.05
3.84320	100.04
3.85987	100.05
3.87653	100.04
3.89320	100.05
3.90987	100.05
3.92653	100.05
3.94320	100.05
3.95987	100.05
3.97653	100.05
3.99320	100.05

[Status Trace (Carrier Gas Pressure)]
Interval(msec)	1000
# of Points	240
Start Time(min)	0.010
End Time(min)	3.993
Intensity Units	
Intensity Multiplier	1
R.Time (min)	Intensity
0.00987	58.00
0.02653	55.13
0.04320	57.36
0.05987	59.35
0.07653	59.34
0.09320	58.04
0.10987	57.98
0.12653	58.01
0.14320	58.01
0.15987	58.01
0.17653	58.00
0.19320	58.00
0.20987	58.00
0.22653	58.00
0.24320	58.00
0.25987	58.00
0.27653	58.00
0.29320	58.00
0.30987	58.00
0.32653	58.00
0.34320	58.00
0.35987	58.00
0.37653	58.00
0.39320	58.00
0.40987	58.00
0.42653	58.00
0.44320	58.00
0.45987	58.00
0.47653	58.00
0.49320	58.00
0.50987	58.00
0.52653	58.00
0.54320	58.00
0.55987	58.00
0.57653	58.00
0.59320	58.00
0.60987	58.00
0.62653	58.00
0.64320	58.00
0.65987	58.00
0.67653	58.00
0.69320	58.00
0.70987	58.00
0.72653	58.00
0.74320	58.00
0.75987	58.00
0.77653	58.00
0.79320	58.00
0.80987	58.00
0.82653	58.00
0.84320	58.00
0.85987	58.00
0.87653	58.00
0.89320	58.00
0.90987	58.00
0.92653	58.00
0.94320	58.00
0.95987	58.00
0.97653	58.00
0.99320	58.00
1.00987	58.00
1.02653	58.00
1.04320	58.00
1.05987	58.00
1.07653	58.00
1.09320	58.00
1.10987	58.00
1.12653	58.00
1.14320	58.00
1.15987	58.00
1.17653	58.00
1.19320	58.00
1.20987	58.00
1.22653	58.00
1.24320	58.00
1.25987	58.00
1.27653	58.00
1.29320	58.00
1.30987	58.00
1.32653	58.00
1.34320	58.00
1.35987	58.00
1.37653	58.00
1.39320	58.00
1.40987	58.00
1.42653	58.00
1.44320	58.00
1.45987	58.00
1.47653	58.00
1.49320	58.00
1.50987	58.00
1.52653	58.00
1.54320	58.00
1.55987	58.00
1.57653	58.00
1.59320	58.00
1.60987	58.00
1.62653	58.00
1.64320	58.00
1.65987	58.00
1.67653	58.01
1.69320	58.00
1.70987	58.00
1.72653	58.00
1.74320	58.00
1.75987	58.00
1.77653	58.00
1.79320	58.00
1.80987	58.00
1.82653	58.00
1.84320	58.00
1.85987	58.00
1.87653	58.00
1.89320	58.00
1.90987	58.00
1.92653	58.00
1.94320	58.00
1.95987	58.00
1.97653	58.00
1.99320	58.00
2.00987	58.00
2.02653	58.00
2.04320	58.00
2.05987	58.00
2.07653	58.00
2.09320	58.00
2.10987	58.00
2.12653	58.00
2.14320	58.00
2.15987	58.00
2.17653	58.00
2.19320	58.00
2.20987	58.00
2.22653	58.00
2.24320	58.00
2.25987	58.00
2.27653	58.00
2.29320	58.00
2.30987	58.00
2.32653	58.00
2.34320	58.00
2.35987	58.00
2.37653	58.00
2.39320	57.99
2.40987	57.99
2.42653	58.00
2.44320	58.00
2.45987	58.00
2.47653	58.00
2.49320	58.00
2.50987	57.99
2.52653	57.98
2.54320	58.00
2.55987	58.00
2.57653	58.00
2.59320	58.00
2.60987	58.00
2.62653	58.00
2.64320	58.00
2.65987	58.00
2.67653	58.00
2.69320	58.00
2.70987	58.00
2.72653	58.00
2.74320	58.00
2.75987	58.00
2.77653	58.00
2.79320	58.00
2.80987	58.00
2.82653	58.00
2.84320	58.00
2.85987	58.00
2.87653	58.00
2.89320	58.00
2.90987	58.00
2.92653	58.00
2.94320	58.00
2.95987	58.00
2.97653	58.00
2.99320	58.00
3.00987	58.00
3.02653	58.00
3.04320	58.00
3.05987	58.00
3.07653	58.00
3.09320	58.00
3.10987	58.00
3.12653	58.00
3.14320	58.00
3.15987	58.00
3.17653	58.00
3.19320	58.00
3.20987	58.00
3.22653	58.00
3.24320	58.00
3.25987	58.00
3.27653	58.00
3.29320	58.00
3.30987	58.00
3.32653	58.00
3.34320	58.00
3.35987	58.00
3.37653	58.00
3.39320	58.00
3.40987	58.00
3.42653	58.00
3.44320	58.00
3.45987	58.00
3.47653	58.00
3.49320	58.00
3.50987	58.00
3.52653	58.00
3.54320	58.00
3.55987	58.00
3.57653	58.00
3.59320	58.00
3.60987	58.00
3.62653	58.00
3.64320	58.00
3.65987	58.00
3.67653	58.00
3.69320	58.00
3.70987	58.00
3.72653	58.00
3.74320	58.00
3.75987	58.00
3.77653	58.00
3.79320	58.00
3.80987	58.00
3.82653	58.00
3.84320	58.00
3.85987	58.00
3.87653	58.00
3.89320	58.00
3.90987	58.00
3.92653	58.00
3.94320	58.00
3.95987	58.00
3.97653	58.00
3.99320	58.00

[Status Trace (Carrier Gas Flow)]
Interval(msec)	1000
# of Points	240
Start Time(min)	0.010
End Time(min)	3.993
Intensity Units	
Intensity Multiplier	1
R.Time (min)	Intensity
0.00987	34.52
0.02653	34.54
0.04320	34.55
0.05987	34.54
0.07653	34.50
0.09320	34.52
0.10987	34.52
0.12653	34.52
0.14320	34.52
0.15987	34.52
0.17653	34.52
0.19320	34.52
0.20987	34.52
0.22653	34.52
0.24320	34.52
0.25987	34.52
0.27653	34.52
0.29320	34.52
0.30987	34.52
0.32653	34.52
0.34320	34.52
0.35987	34.52
0.37653	34.52
0.39320	34.52
0.40987	34.52
0.42653	34.52
0.44320	34.52
0.45987	34.52
0.47653	34.52
0.49320	34.52
0.50987	34.52
0.52653	34.52
0.54320	34.52
0.55987	34.52
0.57653	34.52
0.59320	34.52
0.60987	34.52
0.62653	34.52
0.64320	34.52
0.65987	34.52
0.67653	34.52
0.69320	34.52
0.70987	34.52
0.72653	34.52
0.74320	34.52
0.75987	34.52
0.77653	34.52
0.79320	34.52
0.80987	34.52
0.82653	34.52
0.84320	34.52
0.85987	34.52
0.87653	34.51
0.89320	34.52
0.90987	34.52
0.92653	34.52
0.94320	34.52
0.95987	34.52
0.97653	34.52
0.99320	34.52
1.00987	34.51
1.02653	34.52
1.04320	34.52
1.05987	34.52
1.07653	34.52
1.09320	34.52
1.10987	34.52
1.12653	34.52
1.14320	34.52
1.15987	34.52
1.17653	34.52
1.19320	34.52
1.20987	34.52
1.22653	34.52
1.24320	34.52
1.25987	34.52
1.27653	34.51
1.29320	34.52
1.30987	34.52
1.32653	34.52
1.34320	34.52
1.35987	34.51
1.37653	34.52
1.39320	34.52
1.40987	34.52
1.42653	34.52
1.44320	34.52
1.45987	34.52
1.47653	34.52
1.49320	34.52
1.50987	34.52
1.52653	34.52
1.54320	34.52
1.55987	34.52
1.57653	34.52
1.59320	34.52
1.60987	34.52
1.62653	34.52
1.64320	34.52
1.65987	34.52
1.67653	34.52
1.69320	34.52
1.70987	34.52
1.72653	34.52
1.74320	34.52
1.75987	34.52
1.77653	34.52
1.79320	34.52
1.80987	34.52
1.82653	34.52
1.84320	34.52
1.85987	34.52
1.87653	34.52
1.89320	34.52
1.90987	34.52
1.92653	34.51
1.94320	34.52
1.95987	34.52
1.97653	34.52
1.99320	34.52
2.00987	34.52
2.02653	34.52
2.04320	34.52
2.05987	34.52
2.07653	34.52
2.09320	34.52
2.10987	34.52
2.12653	34.52
2.14320	34.52
2.15987	34.52
2.17653	34.52
2.19320	34.51
2.20987	34.52
2.22653	34.52
2.24320	34.52
2.25987	34.52
2.27653	34.52
2.29320	34.52
2.30987	34.52
2.32653	34.52
2.34320	34.52
2.35987	34.52
2.37653	34.52
2.39320	34.52
2.40987	34.52
2.42653	34.52
2.44320	34.52
2.45987	34.52
2.47653	34.52
2.49320	34.52
2.50987	34.51
2.52653	34.52
2.54320	34.52
2.55987	34.52
2.57653	34.52
2.59320	34.52
2.60987	34.52
2.62653	34.52
2.64320	34.52
2.65987	34.52
2.67653	34.52
2.69320	34.52
2.70987	34.52
2.72653	34.52
2.74320	34.52
2.75987	34.52
2.77653	34.52
2.79320	34.52
2.80987	34.52
2.82653	34.52
2.84320	34.52
2.85987	34.52
2.87653	34.52
2.89320	34.52
2.90987	34.52
2.92653	34.52
2.94320	34.52
2.95987	34.52
2.97653	34.52
2.99320	34.52
3.00987	34.52
3.02653	34.52
3.04320	34.52
3.05987	34.52
3.07653	34.52
3.09320	34.52
3.10987	34.52
3.12653	34.52
3.14320	34.52
3.15987	34.52
3.17653	34.52
3.19320	34.52
3.20987	34.52
3.22653	34.52
3.24320	34.52
3.25987	34.52
3.27653	34.52
3.29320	34.52
3.30987	34.52
3.32653	34.52
3.34320	34.52
3.35987	34.52
3.37653	34.51
3.39320	34.52
3.40987	34.52
3.42653	34.52
3.44320	34.52
3.45987	34.52
3.47653	34.52
3.49320	34.52
3.50987	34.52
3.52653	34.52
3.54320	34.52
3.55987	34.52
3.57653	34.52
3.59320	34.52
3.60987	34.52
3.62653	34.52
3.64320	34.52
3.65987	34.52
3.67653	34.52
3.69320	34.52
3.70987	34.52
3.72653	34.52
3.74320	34.52
3.75987	34.52
3.77653	34.52
3.79320	34.52
3.80987	34.52
3.82653	34.52
3.84320	34.52
3.85987	34.52
3.87653	34.52
3.89320	34.52
3.90987	34.52
3.92653	34.52
3.94320	34.52
3.95987	34.52
3.97653	34.52
3.99320	34.52

[Status Trace (Column Flow)]
Interval(msec)	1000
# of Points	240
Start Time(min)	0.010
End Time(min)	3.993
Intensity Units	
Intensity Multiplier	1
R.Time (min)	Intensity
0.00987	5.54
0.02653	5.21
0.04320	5.46
0.05987	5.70
0.07653	5.70
0.09320	5.54
0.10987	5.54
0.12653	5.54
0.14320	5.54
0.15987	5.54
0.17653	5.54
0.19320	5.54
0.20987	5.54
0.22653	5.54
0.24320	5.54
0.25987	5.54
0.27653	5.54
0.29320	5.54
0.30987	5.54
0.32653	5.54
0.34320	5.54
0.35987	5.54
0.37653	5.54
0.39320	5.54
0.40987	5.54
0.42653	5.54
0.44320	5.54
0.45987	5.54
0.47653	5.54
0.49320	5.54
0.50987	5.54
0.52653	5.54
0.54320	5.54
0.55987	5.54
0.57653	5.54
0.59320	5.54
0.60987	5.54
0.62653	5.54
0.64320	5.54
0.65987	5.54
0.67653	5.54
0.69320	5.54
0.70987	5.54
0.72653	5.54
0.74320	5.54
0.75987	5.54
0.77653	5.54
0.79320	5.54
0.80987	5.54
0.82653	5.54
0.84320	5.54
0.85987	5.54
0.87653	5.54
0.89320	5.54
0.90987	5.54
0.92653	5.54
0.94320	5.54
0.95987	5.54
0.97653	5.54
0.99320	5.54
1.00987	5.54
1.02653	5.54
1.04320	5.54
1.05987	5.54
1.07653	5.54
1.09320	5.54
1.10987	5.54
1.12653	5.54
1.14320	5.54
1.15987	5.54
1.17653	5.54
1.19320	5.54
1.20987	5.54
1.22653	5.54
1.24320	5.54
1.25987	5.54
1.27653	5.54
1.29320	5.54
1.30987	5.54
1.32653	5.54
1.34320	5.54
1.35987	5.54
1.37653	5.54
1.39320	5.54
1.40987	5.54
1.42653	5.54
1.44320	5.54
1.45987	5.54
1.47653	5.54
1.49320	5.54
1.50987	5.54
1.52653	5.54
1.54320	5.54
1.55987	5.54
1.57653	5.54
1.59320	5.54
1.60987	5.54
1.62653	5.53
1.64320	5.53
1.65987	5.52
1.67653	5.51
1.69320	5.50
1.70987	5.49
1.72653	5.48
1.74320	5.47
1.75987	5.46
1.77653	5.45
1.79320	5.43
1.80987	5.43
1.82653	5.41
1.84320	5.40
1.85987	5.40
1.87653	5.38
1.89320	5.37
1.90987	5.37
1.92653	5.35
1.94320	5.34
1.95987	5.34
1.97653	5.33
1.99320	5.32
2.00987	5.31
2.02653	5.30
2.04320	5.29
2.05987	5.28
2.07653	5.27
2.09320	5.26
2.10987	5.25
2.12653	5.24
2.14320	5.23
2.15987	5.22
2.17653	5.21
2.19320	5.20
2.20987	5.19
2.22653	5.18
2.24320	5.17
2.25987	5.17
2.27653	5.15
2.29320	5.15
2.30987	5.14
2.32653	5.13
2.34320	5.12
2.35987	5.11
2.37653	5.10
2.39320	5.10
2.40987	5.10
2.42653	5.10
2.44320	5.10
2.45987	5.10
2.47653	5.10
2.49320	5.10
2.50987	5.10
2.52653	5.10
2.54320	5.10
2.55987	5.10
2.57653	5.10
2.59320	5.10
2.60987	5.10
2.62653	5.10
2.64320	5.10
2.65987	5.10
2.67653	5.10
2.69320	5.10
2.70987	5.10
2.72653	5.10
2.74320	5.10
2.75987	5.10
2.77653	5.10
2.79320	5.10
2.80987	5.10
2.82653	5.10
2.84320	5.10
2.85987	5.10
2.87653	5.10
2.89320	5.10
2.90987	5.10
2.92653	5.10
2.94320	5.10
2.95987	5.10
2.97653	5.10
2.99320	5.10
3.00987	5.10
3.02653	5.10
3.04320	5.10
3.05987	5.10
3.07653	5.10
3.09320	5.10
3.10987	5.10
3.12653	5.09
3.14320	5.09
3.15987	5.09
3.17653	5.09
3.19320	5.09
3.20987	5.09
3.22653	5.09
3.24320	5.09
3.25987	5.09
3.27653	5.09
3.29320	5.09
3.30987	5.09
3.32653	5.09
3.34320	5.09
3.35987	5.09
3.37653	5.09
3.39320	5.09
3.40987	5.09
3.42653	5.09
3.44320	5.09
3.45987	5.09
3.47653	5.09
3.49320	5.09
3.50987	5.09
3.52653	5.09
3.54320	5.09
3.55987	5.09
3.57653	5.09
3.59320	5.09
3.60987	5.09
3.62653	5.09
3.64320	5.09
3.65987	5.09
3.67653	5.09
3.69320	5.09
3.70987	5.09
3.72653	5.09
3.74320	5.09
3.75987	5.09
3.77653	5.09
3.79320	5.09
3.80987	5.09
3.82653	5.09
3.84320	5.09
3.85987	5.09
3.87653	5.09
3.89320	5.09
3.90987	5.09
3.92653	5.09
3.94320	5.10
3.95987	5.10
3.97653	5.10
3.99320	5.10

[Status Trace (Linear Velocity)]
Interval(msec)	1000
# of Points	240
Start Time(min)	0.010
End Time(min)	3.993
Intensity Units	
Intensity Multiplier	1
R.Time (min)	Intensity
0.00987	39.02
0.02653	37.13
0.04320	38.60
0.05987	39.90
0.07653	39.89
0.09320	39.04
0.10987	39.01
0.12653	39.03
0.14320	39.02
0.15987	39.02
0.17653	39.02
0.19320	39.02
0.20987	39.02
0.22653	39.02
0.24320	39.02
0.25987	39.02
0.27653	39.02
0.29320	39.02
0.30987	39.02
0.32653	39.02
0.34320	39.02
0.35987	39.02
0.37653	39.02
0.39320	39.02
0.40987	39.02
0.42653	39.02
0.44320	39.02
0.45987	39.02
0.47653	39.02
0.49320	39.02
0.50987	39.02
0.52653	39.02
0.54320	39.02
0.55987	39.02
0.57653	39.02
0.59320	39.02
0.60987	39.02
0.62653	39.02
0.64320	39.02
0.65987	39.02
0.67653	39.02
0.69320	39.02
0.70987	39.02
0.72653	39.02
0.74320	39.02
0.75987	39.02
0.77653	39.02
0.79320	39.02
0.80987	39.02
0.82653	39.02
0.84320	39.02
0.85987	39.02
0.87653	39.02
0.89320	39.02
0.90987	39.02
0.92653	39.02
0.94320	39.02
0.95987	39.02
0.97653	39.02
0.99320	39.02
1.00987	39.02
1.02653	39.02
1.04320	39.02
1.05987	39.02
1.07653	39.02
1.09320	39.02
1.10987	39.02
1.12653	39.02
1.14320	39.02
1.15987	39.02
1.17653	39.02
1.19320	39.02
1.20987	39.02
1.22653	39.02
1.24320	39.02
1.25987	39.02
1.27653	39.02
1.29320	39.02
1.30987	39.02
1.32653	39.02
1.34320	39.02
1.35987	39.02
1.37653	39.02
1.39320	39.02
1.40987	39.02
1.42653	39.02
1.44320	39.02
1.45987	39.02
1.47653	39.02
1.49320	39.02
1.50987	39.02
1.52653	39.02
1.54320	39.02
1.55987	39.02
1.57653	39.02
1.59320	39.02
1.60987	39.02
1.62653	39.00
1.64320	38.99
1.65987	38.96
1.67653	38.93
1.69320	38.89
1.70987	38.86
1.72653	38.83
1.74320	38.79
1.75987	38.76
1.77653	38.73
1.79320	38.70
1.80987	38.67
1.82653	38.63
1.84320	38.60
1.85987	38.58
1.87653	38.54
1.89320	38.51
1.90987	38.48
1.92653	38.45
1.94320	38.42
1.95987	38.39
1.97653	38.36
1.99320	38.33
2.00987	38.31
2.02653	38.27
2.04320	38.25
2.05987	38.22
2.07653	38.19
2.09320	38.16
2.10987	38.13
2.12653	38.10
2.14320	38.07
2.15987	38.04
2.17653	38.01
2.19320	37.98
2.20987	37.95
2.22653	37.92
2.24320	37.89
2.25987	37.86
2.27653	37.82
2.29320	37.80
2.30987	37.77
2.32653	37.74
2.34320	37.71
2.35987	37.68
2.37653	37.66
2.39320	37.65
2.40987	37.66
2.42653	37.66
2.44320	37.66
2.45987	37.66
2.47653	37.66
2.49320	37.66
2.50987	37.65
2.52653	37.65
2.54320	37.66
2.55987	37.66
2.57653	37.65
2.59320	37.65
2.60987	37.65
2.62653	37.65
2.64320	37.65
2.65987	37.65
2.67653	37.65
2.69320	37.65
2.70987	37.65
2.72653	37.65
2.74320	37.65
2.75987	37.65
2.77653	37.65
2.79320	37.65
2.80987	37.65
2.82653	37.65
2.84320	37.64
2.85987	37.64
2.87653	37.65
2.89320	37.65
2.90987	37.64
2.92653	37.64
2.94320	37.64
2.95987	37.64
2.97653	37.64
2.99320	37.64
3.00987	37.64
3.02653	37.64
3.04320	37.64
3.05987	37.64
3.07653	37.64
3.09320	37.64
3.10987	37.64
3.12653	37.63
3.14320	37.63
3.15987	37.63
3.17653	37.63
3.19320	37.63
3.20987	37.63
3.22653	37.63
3.24320	37.63
3.25987	37.63
3.27653	37.63
3.29320	37.63
3.30987	37.63
3.32653	37.63
3.34320	37.63
3.35987	37.63
3.37653	37.63
3.39320	37.63
3.40987	37.63
3.42653	37.63
3.44320	37.63
3.45987	37.63
3.47653	37.63
3.49320	37.63
3.50987	37.63
3.52653	37.63
3.54320	37.63
3.55987	37.63
3.57653	37.63
3.59320	37.63
3.60987	37.63
3.62653	37.63
3.64320	37.63
3.65987	37.63
3.67653	37.63
3.69320	37.63
3.70987	37.63
3.72653	37.63
3.74320	37.63
3.75987	37.63
3.77653	37.63
3.79320	37.63
3.80987	37.63
3.82653	37.63
3.84320	37.63
3.85987	37.63
3.87653	37.63
3.89320	37.63
3.90987	37.63
3.92653	37.63
3.94320	37.63
3.95987	37.64
3.97653	37.64
3.99320	37.63

