[Header]
Application Name	LabSolutions
Version	5.110
Data File Name	C:\Users\User\Desktop\GC Analyses\Jack\UIC Prairie Sampling\10.19.22\221019_005.gcd
Output Date	1/4/2023
Output Time	2:27:28 PM

[File Information]
Type	Data File
Generated	12/5/2022 1:00:31 PM
Generated by	System Administrator
Modified	12/5/2022 1:04:52 PM
Modified by	System Administrator

[Sample Information]
Operator Name	System Administrator
Acquired	12/5/2022 1:00:52 PM
Sample Type	1:Standard
Level	1
Sample Name	221019_UICPrairie
Sample ID	221019_UICPrairie
ISTD Amount1	1
ISTD Amount2	1
ISTD Amount3	1
ISTD Amount4	1
ISTD Amount5	1
ISTD Amount6	1
ISTD Amount7	1
ISTD Amount8	1
ISTD Amount9	1
ISTD Amount10	1
ISTD Amount11	1
ISTD Amount12	1
ISTD Amount13	1
ISTD Amount14	1
ISTD Amount15	1
ISTD Amount16	1
ISTD Amount17	1
ISTD Amount18	1
ISTD Amount19	1
ISTD Amount20	1
ISTD Amount21	1
ISTD Amount22	1
ISTD Amount23	1
ISTD Amount24	1
ISTD Amount25	1
ISTD Amount26	1
ISTD Amount27	1
ISTD Amount28	1
ISTD Amount29	1
ISTD Amount30	1
ISTD Amount31	1
ISTD Amount32	1
Sample Amount	1
Dilution Factor	1
Vial#	1
Injection Volume	1
Injection Count	1
Bar Code	

[Original Files]
Data File	C:\Users\User\Desktop\GC Analyses\Jack\UIC Prairie Sampling\10.19.22\221019_005.gcd
Method File	C:\LabSolutions\Data\GHG_4min_2022\ghg3_togas_w_acet_4 min_new_int.gcm
Batch File	
Report Format File	c:\LabSolutions\System\DEFAULT.lsr

[File Description]


[Configuration]
Instrument Name	C0B7VH3-Instrument1
Instrument #	1
Line #	1
# of Detectors	3
Detector ID	DET#1	DET#2	DET#3
Detector Name	FID	PTCD	ECD
# of Channels	1	1	1

[Peak Table(Ch1)]
# of Peaks	3
Peak#	R.Time	I.Time	F.Time	Area	Height	A/H	Conc.	Mark	ID#	Name	k'	Plate #	Plate Ht.	Tailing	Resolution	Sep.Factor	Area Ratio	Height Ratio	Conc. %	Norm Conc.
1	1.468	1.421	1.534	3292	989	3.330	100.000	   	1	CO	0.000	4573	32.799	0.000	0.000	0.000	0	0	16.667	16.667
2	1.571	1.534	1.659	20806	10457	1.990	100.000	 V 	2	CH4	0.070	11293	13.283	1.226	1.407	0.000	0	0	16.667	16.667
3	2.000	1.952	2.649	2118847	998525	2.122	400.000	   	3	CO2	0.362	17256	8.693	1.303	7.148	5.179	0	0	66.667	66.667

[Peak Table(Ch2)]
# of Peaks	0

[Peak Table(Ch3)]
# of Peaks	5
Peak#	R.Time	I.Time	F.Time	Area	Height	A/H	Conc.	Mark	ID#	Name	k'	Plate #	Plate Ht.	Tailing	Resolution	Sep.Factor	Area Ratio	Height Ratio	Conc. %	Norm Conc.
1	2.458	2.341	2.499	1387	349	3.970	0.000	   			0.000	6430	23.330	0.000	0.000	0.000	0	0	0.000	0.000
2	2.517	2.499	2.554	765	258	2.962	0.000	 V 			0.024	1561	96.099	0.000	0.311	0.000	0	0	0.000	0.000
3	2.612	2.554	2.656	1292	316	4.094	0.000	 V 			0.063	4876	30.766	0.000	0.471	2.625	0	0	0.000	0.000
4	2.891	2.671	3.137	70787	17485	4.048	1.000	   	1	N2O	0.176	12556	11.946	1.623	2.204	2.810	0	0	100.000	100.000
5	3.269	3.137	3.995	12035	463	26.003	0.000	 V 			0.330	278	540.418	0.000	0.851	1.873	0	0	0.000	0.000

[Compound Results(Ch1)]
# of IDs	6
ID#	Name	R.Time	Area	Height	Conc.	Curve	3rd	2nd	1st	Constant	Area Ratio	Height Ratio	Conc. %	Norm Conc.
1	CO	1.468	3292	989	100.000	Linear	0.000000e+00	0.000000e+00	3.292231e+001	0.000000e+00	0	0	16.667	16.667
2	CH4	1.571	20806	10457	100.000	Linear	0.000000e+00	0.000000e+00	2.080625e+002	0.000000e+00	0	0	16.667	16.667
3	CO2	2.000	2118847	998525	400.000	Linear	0.000000e+00	0.000000e+00	5.297117e+003	0.000000e+00	0	0	66.667	66.667
4	Ethylene	0.000	0	0	0.000	Linear	0.000000e+00	0.000000e+00	0.000000e+00	0.000000e+00	0	0	0.000	0.000
5	Acetylene	0.000	0	0	0.000	Linear	0.000000e+00	0.000000e+00	0.000000e+00	0.000000e+00	0	0	0.000	0.000
6	Ethane	0.000	0	0	0.000	Linear	0.000000e+00	0.000000e+00	0.000000e+00	0.000000e+00	0	0	0.000	0.000

[Compound Results(Ch2)]
# of IDs	5
ID#	Name	R.Time	Area	Height	Conc.	Curve	3rd	2nd	1st	Constant	Area Ratio	Height Ratio	Conc. %	Norm Conc.
1	Hydrogen	0.000	0	0	0.000	Linear	0.000000e+00	0.000000e+00	0.000000e+00	0.000000e+00	0	0	0.000	0.000
2	Oxygen	0.000	0	0	0.000	Linear	0.000000e+00	0.000000e+00	0.000000e+00	0.000000e+00	0	0	0.000	0.000
3	Nitrogen	0.000	0	0	0.000	Linear	0.000000e+00	0.000000e+00	0.000000e+00	0.000000e+00	0	0	0.000	0.000
4	Methane	0.000	0	0	0.000	Linear	0.000000e+00	0.000000e+00	0.000000e+00	0.000000e+00	0	0	0.000	0.000
5	Carbon Monoxide	0.000	0	0	0.000	Linear	0.000000e+00	0.000000e+00	0.000000e+00	0.000000e+00	0	0	0.000	0.000

[Compound Results(Ch3)]
# of IDs	2
ID#	Name	R.Time	Area	Height	Conc.	Curve	3rd	2nd	1st	Constant	Area Ratio	Height Ratio	Conc. %	Norm Conc.
1	N2O	2.891	70787	17485	1.000	Linear	0.000000e+00	0.000000e+00	7.078744e+004	0.000000e+00	0	0	100.000	100.000
2	SF6	0.000	0	0	0.000	Linear	0.000000e+00	0.000000e+00	0.000000e+00	0.000000e+00	0	0	0.000	0.000

[Group Results(Ch1)]
# of Groups	0

[Group Results(Ch2)]
# of Groups	0

[Group Results(Ch3)]
# of Groups	0

[Chromatogram (Ch1)]
Interval(msec)	220
# of Points	1091
Start Time(min)	0.002
End Time(min)	3.998
R.Time (min)	Intensity
0.00167	-3
0.00533	-6
0.00900	-8
0.01267	-8
0.01633	-6
0.02000	-1
0.02367	3
0.02733	5
0.03100	7
0.03467	8
0.03833	4
0.04200	-3
0.04567	-10
0.04933	-14
0.05300	-14
0.05667	-12
0.06033	-12
0.06400	-16
0.06767	-22
0.07133	-26
0.07500	-26
0.07867	-21
0.08233	-17
0.08600	-16
0.08967	-16
0.09333	-16
0.09700	-13
0.10067	-6
0.10433	0
0.10800	3
0.11167	3
0.11533	4
0.11900	4
0.12267	2
0.12633	-7
0.13000	-19
0.13367	-30
0.13733	-34
0.14100	-28
0.14467	-16
0.14833	-10
0.15200	-12
0.15567	-14
0.15933	-14
0.16300	-12
0.16667	-9
0.17033	-9
0.17400	-14
0.17767	-21
0.18133	-25
0.18500	-30
0.18867	-35
0.19233	-39
0.19600	-38
0.19967	-37
0.20333	-35
0.20700	-33
0.21067	-30
0.21433	-27
0.21800	-25
0.22167	-26
0.22533	-28
0.22900	-31
0.23267	-31
0.23633	-26
0.24000	-23
0.24367	-25
0.24733	-29
0.25100	-31
0.25467	-27
0.25833	-22
0.26200	-18
0.26567	-15
0.26933	-14
0.27300	-18
0.27667	-22
0.28033	-25
0.28400	-26
0.28767	-24
0.29133	-21
0.29500	-21
0.29867	-22
0.30233	-22
0.30600	-21
0.30967	-18
0.31333	-14
0.31700	-13
0.32067	-16
0.32433	-21
0.32800	-29
0.33167	-35
0.33533	-39
0.33900	-36
0.34267	-29
0.34633	-26
0.35000	-26
0.35367	-27
0.35733	-32
0.36100	-38
0.36467	-43
0.36833	-46
0.37200	-47
0.37567	-47
0.37933	-52
0.38300	-56
0.38667	-56
0.39033	-54
0.39400	-50
0.39767	-41
0.40133	-31
0.40500	-23
0.40867	-18
0.41233	-17
0.41600	-20
0.41967	-24
0.42333	-25
0.42700	-27
0.43067	-30
0.43433	-33
0.43800	-37
0.44167	-41
0.44533	-44
0.44900	-42
0.45267	-37
0.45633	-31
0.46000	-27
0.46367	-26
0.46733	-26
0.47100	-27
0.47467	-29
0.47833	-30
0.48200	-33
0.48567	-39
0.48933	-46
0.49300	-51
0.49667	-52
0.50033	-51
0.50400	-46
0.50767	-40
0.51133	-35
0.51500	-29
0.51867	-21
0.52233	-17
0.52600	-17
0.52967	-18
0.53333	-18
0.53700	-17
0.54067	-21
0.54433	-30
0.54800	-37
0.55167	-39
0.55533	-38
0.55900	-40
0.56267	-45
0.56633	-49
0.57000	-53
0.57367	-55
0.57733	-57
0.58100	-59
0.58467	-59
0.58833	-58
0.59200	-54
0.59567	-47
0.59933	-40
0.60300	-31
0.60667	-25
0.61033	-22
0.61400	-22
0.61767	-27
0.62133	-34
0.62500	-42
0.62867	-49
0.63233	-53
0.63600	-53
0.63967	-51
0.64333	-52
0.64700	-54
0.65067	-57
0.65433	-60
0.65800	-60
0.66167	-61
0.66533	-59
0.66900	-53
0.67267	-46
0.67633	-41
0.68000	-43
0.68367	-49
0.68733	-55
0.69100	-56
0.69467	-52
0.69833	-49
0.70200	-47
0.70567	-45
0.70933	-44
0.71300	-47
0.71667	-51
0.72033	-54
0.72400	-55
0.72767	-57
0.73133	-61
0.73500	-65
0.73867	-66
0.74233	-64
0.74600	-61
0.74967	-60
0.75333	-62
0.75700	-63
0.76067	-64
0.76433	-66
0.76800	-69
0.77167	-73
0.77533	-74
0.77900	-72
0.78267	-72
0.78633	-71
0.79000	-69
0.79367	-67
0.79733	-66
0.80100	-64
0.80467	-61
0.80833	-58
0.81200	-59
0.81567	-59
0.81933	-60
0.82300	-65
0.82667	-70
0.83033	-73
0.83400	-75
0.83767	-77
0.84133	-76
0.84500	-71
0.84867	-67
0.85233	-67
0.85600	-73
0.85967	-80
0.86333	-85
0.86700	-90
0.87067	-90
0.87433	-85
0.87800	-78
0.88167	-74
0.88533	-72
0.88900	-66
0.89267	-61
0.89633	-58
0.90000	-54
0.90367	-55
0.90733	-58
0.91100	-62
0.91467	-69
0.91833	-78
0.92200	-85
0.92567	-87
0.92933	-86
0.93300	-88
0.93667	-91
0.94033	-93
0.94400	-90
0.94767	-85
0.95133	-81
0.95500	-78
0.95867	-75
0.96233	-73
0.96600	-72
0.96967	-73
0.97333	-73
0.97700	-74
0.98067	-79
0.98433	-90
0.98800	-98
0.99167	-101
0.99533	-95
0.99900	-87
1.00267	-81
1.00633	-76
1.01000	-73
1.01367	-73
1.01733	-75
1.02100	-79
1.02467	-83
1.02833	-83
1.03200	-82
1.03567	-81
1.03933	-82
1.04300	-87
1.04667	-94
1.05033	-98
1.05400	-97
1.05767	-95
1.06133	-91
1.06500	-90
1.06867	-90
1.07233	-90
1.07600	-87
1.07967	-83
1.08333	-80
1.08700	-79
1.09067	-83
1.09433	-86
1.09800	-89
1.10167	-91
1.10533	-93
1.10900	-94
1.11267	-95
1.11633	-97
1.12000	-101
1.12367	-107
1.12733	-108
1.13100	-107
1.13467	-104
1.13833	-102
1.14200	-103
1.14567	-107
1.14933	-110
1.15300	-111
1.15667	-108
1.16033	-102
1.16400	-94
1.16767	-91
1.17133	-93
1.17500	-96
1.17867	-98
1.18233	-99
1.18600	-97
1.18967	-95
1.19333	-92
1.19700	-92
1.20067	-94
1.20433	-98
1.20800	-100
1.21167	-100
1.21533	-101
1.21900	-104
1.22267	-107
1.22633	-110
1.23000	-113
1.23367	-116
1.23733	-113
1.24100	-107
1.24467	-106
1.24833	-108
1.25200	-111
1.25567	-112
1.25933	-111
1.26300	-107
1.26667	-101
1.27033	-98
1.27400	-102
1.27767	-102
1.28133	-103
1.28500	-103
1.28867	-103
1.29233	-104
1.29600	-106
1.29967	-110
1.30333	-111
1.30700	-110
1.31067	-110
1.31433	-109
1.31800	-106
1.32167	-103
1.32533	-104
1.32900	-108
1.33267	-111
1.33633	-112
1.34000	-110
1.34367	-106
1.34733	-101
1.35100	-97
1.35467	-95
1.35833	-92
1.36200	-91
1.36567	-90
1.36933	-93
1.37300	-97
1.37667	-99
1.38033	-101
1.38400	-101
1.38767	-100
1.39133	-101
1.39500	-101
1.39867	-99
1.40233	-99
1.40600	-101
1.40967	-102
1.41333	-102
1.41700	-100
1.42067	-95
1.42433	-80
1.42800	-65
1.43167	-55
1.43533	-50
1.43900	-43
1.44267	-10
1.44633	118
1.45000	348
1.45367	585
1.45733	759
1.46100	858
1.46467	897
1.46833	897
1.47200	882
1.47567	867
1.47933	854
1.48300	836
1.48667	801
1.49033	740
1.49400	655
1.49767	557
1.50133	457
1.50500	367
1.50867	290
1.51233	228
1.51600	174
1.51967	127
1.52333	89
1.52700	62
1.53067	45
1.53433	35
1.53800	42
1.54167	133
1.54533	514
1.54900	1483
1.55267	3120
1.55633	5136
1.56000	7100
1.56367	8721
1.56733	9853
1.57100	10374
1.57467	10151
1.57833	9167
1.58200	7637
1.58567	5922
1.58933	4334
1.59300	3032
1.59667	2047
1.60033	1344
1.60400	861
1.60767	539
1.61133	331
1.61500	198
1.61867	110
1.62233	51
1.62600	13
1.62967	-9
1.63333	-20
1.63700	-29
1.64067	-39
1.64433	-48
1.64800	-57
1.65167	-66
1.65533	-71
1.65900	-75
1.66267	-76
1.66633	-73
1.67000	-66
1.67367	-62
1.67733	-63
1.68100	-67
1.68467	-72
1.68833	-79
1.69200	-85
1.69567	-87
1.69933	-86
1.70300	-84
1.70667	-84
1.71033	-82
1.71400	-84
1.71767	-87
1.72133	-90
1.72500	-95
1.72867	-100
1.73233	-103
1.73600	-103
1.73967	-97
1.74333	-89
1.74700	-84
1.75067	-82
1.75433	-80
1.75800	-77
1.76167	-74
1.76533	-71
1.76900	-69
1.77267	-67
1.77633	-65
1.78000	-64
1.78367	-65
1.78733	-70
1.79100	-79
1.79467	-90
1.79833	-97
1.80200	-101
1.80567	-101
1.80933	-99
1.81300	-99
1.81667	-95
1.82033	-87
1.82400	-81
1.82767	-80
1.83133	-82
1.83500	-84
1.83867	-85
1.84233	-86
1.84600	-86
1.84967	-83
1.85333	-81
1.85700	-81
1.86067	-83
1.86433	-85
1.86800	-83
1.87167	-83
1.87533	-84
1.87900	-85
1.88267	-83
1.88633	-78
1.89000	-69
1.89367	-61
1.89733	-57
1.90100	-55
1.90467	-52
1.90833	-52
1.91200	-56
1.91567	-61
1.91933	-66
1.92300	-71
1.92667	-77
1.93033	-80
1.93400	-80
1.93767	-77
1.94133	-75
1.94500	-77
1.94867	-80
1.95233	-79
1.95600	-54
1.95967	113
1.96333	1095
1.96700	5624
1.97067	21452
1.97433	63767
1.97800	151179
1.98167	291998
1.98533	472859
1.98900	663616
1.99267	830797
1.99633	947731
2.00000	998474
2.00367	978657
2.00733	895836
2.01100	768653
2.01467	621834
2.01833	478390
2.02200	353723
2.02567	254253
2.02933	179658
2.03300	126101
2.03667	88760
2.04033	63188
2.04400	45829
2.04767	34060
2.05133	26039
2.05500	20512
2.05867	16633
2.06233	13853
2.06600	11809
2.06967	10265
2.07333	9071
2.07700	8126
2.08067	7358
2.08433	6730
2.08800	6204
2.09167	5753
2.09533	5360
2.09900	5017
2.10267	4714
2.10633	4447
2.11000	4210
2.11367	3998
2.11733	3809
2.12100	3635
2.12467	3475
2.12833	3324
2.13200	3182
2.13567	3053
2.13933	2929
2.14300	2814
2.14667	2705
2.15033	2604
2.15400	2510
2.15767	2424
2.16133	2343
2.16500	2266
2.16867	2191
2.17233	2120
2.17600	2053
2.17967	1988
2.18333	1926
2.18700	1868
2.19067	1816
2.19433	1772
2.19800	1731
2.20167	1690
2.20533	1648
2.20900	1609
2.21267	1572
2.21633	1537
2.22000	1503
2.22367	1468
2.22733	1432
2.23100	1395
2.23467	1362
2.23833	1332
2.24200	1300
2.24567	1270
2.24933	1241
2.25300	1212
2.25667	1183
2.26033	1157
2.26400	1135
2.26767	1114
2.27133	1095
2.27500	1079
2.27867	1064
2.28233	1048
2.28600	1031
2.28967	1014
2.29333	997
2.29700	982
2.30067	970
2.30433	957
2.30800	949
2.31167	941
2.31533	931
2.31900	917
2.32267	900
2.32633	881
2.33000	861
2.33367	844
2.33733	827
2.34100	809
2.34467	791
2.34833	777
2.35200	767
2.35567	757
2.35933	747
2.36300	737
2.36667	729
2.37033	724
2.37400	719
2.37767	716
2.38133	714
2.38500	710
2.38867	701
2.39233	686
2.39600	664
2.39967	643
2.40333	637
2.40700	632
2.41067	628
2.41433	624
2.41800	622
2.42167	618
2.42533	613
2.42900	606
2.43267	600
2.43633	599
2.44000	598
2.44367	593
2.44733	585
2.45100	576
2.45467	567
2.45833	556
2.46200	547
2.46567	538
2.46933	531
2.47300	525
2.47667	523
2.48033	526
2.48400	526
2.48767	522
2.49133	515
2.49500	506
2.49867	499
2.50233	493
2.50600	489
2.50967	483
2.51333	471
2.51700	455
2.52067	443
2.52433	441
2.52800	442
2.53167	441
2.53533	438
2.53900	437
2.54267	436
2.54633	436
2.55000	437
2.55367	434
2.55733	430
2.56100	426
2.56467	418
2.56833	406
2.57200	397
2.57567	391
2.57933	384
2.58300	374
2.58667	368
2.59033	369
2.59400	372
2.59767	373
2.60133	372
2.60500	368
2.60867	364
2.61233	360
2.61600	356
2.61967	352
2.62333	344
2.62700	338
2.63067	334
2.63433	335
2.63800	337
2.64167	337
2.64533	332
2.64900	326
2.65267	323
2.65633	326
2.66000	330
2.66367	332
2.66733	331
2.67100	326
2.67467	315
2.67833	303
2.68200	293
2.68567	284
2.68933	278
2.69300	278
2.69667	280
2.70033	279
2.70400	277
2.70767	275
2.71133	273
2.71500	276
2.71867	280
2.72233	285
2.72600	285
2.72967	282
2.73333	278
2.73700	272
2.74067	264
2.74433	258
2.74800	256
2.75167	257
2.75533	261
2.75900	260
2.76267	256
2.76633	253
2.77000	251
2.77367	249
2.77733	245
2.78100	240
2.78467	236
2.78833	233
2.79200	229
2.79567	225
2.79933	222
2.80300	223
2.80667	226
2.81033	228
2.81400	224
2.81767	221
2.82133	216
2.82500	215
2.82867	215
2.83233	217
2.83600	217
2.83967	215
2.84333	213
2.84700	212
2.85067	211
2.85433	212
2.85800	211
2.86167	210
2.86533	208
2.86900	203
2.87267	196
2.87633	188
2.88000	184
2.88367	186
2.88733	189
2.89100	190
2.89467	190
2.89833	189
2.90200	188
2.90567	186
2.90933	185
2.91300	181
2.91667	177
2.92033	175
2.92400	176
2.92767	175
2.93133	172
2.93500	168
2.93867	165
2.94233	165
2.94600	168
2.94967	169
2.95333	169
2.95700	164
2.96067	155
2.96433	149
2.96800	147
2.97167	148
2.97533	153
2.97900	156
2.98267	154
2.98633	152
2.99000	151
2.99367	150
2.99733	147
3.00100	143
3.00467	140
3.00833	138
3.01200	137
3.01567	136
3.01933	134
3.02300	133
3.02667	134
3.03033	137
3.03400	141
3.03767	143
3.04133	143
3.04500	139
3.04867	130
3.05233	119
3.05600	110
3.05967	106
3.06333	106
3.06700	108
3.07067	114
3.07433	123
3.07800	131
3.08167	134
3.08533	132
3.08900	128
3.09267	126
3.09633	128
3.10000	132
3.10367	131
3.10733	127
3.11100	122
3.11467	119
3.11833	115
3.12200	113
3.12567	114
3.12933	116
3.13300	122
3.13667	128
3.14033	129
3.14400	129
3.14767	125
3.15133	116
3.15500	105
3.15867	97
3.16233	90
3.16600	84
3.16967	79
3.17333	77
3.17700	79
3.18067	83
3.18433	87
3.18800	89
3.19167	92
3.19533	97
3.19900	106
3.20267	114
3.20633	117
3.21000	114
3.21367	110
3.21733	108
3.22100	103
3.22467	97
3.22833	94
3.23200	93
3.23567	94
3.23933	94
3.24300	91
3.24667	87
3.25033	83
3.25400	80
3.25767	77
3.26133	75
3.26500	73
3.26867	72
3.27233	73
3.27600	75
3.27967	77
3.28333	75
3.28700	71
3.29067	69
3.29433	72
3.29800	76
3.30167	79
3.30533	80
3.30900	79
3.31267	76
3.31633	73
3.32000	74
3.32367	79
3.32733	86
3.33100	95
3.33467	103
3.33833	104
3.34200	100
3.34567	90
3.34933	80
3.35300	72
3.35667	69
3.36033	68
3.36400	65
3.36767	61
3.37133	59
3.37500	59
3.37867	59
3.38233	62
3.38600	66
3.38967	70
3.39333	66
3.39700	60
3.40067	53
3.40433	51
3.40800	51
3.41167	52
3.41533	54
3.41900	57
3.42267	62
3.42633	65
3.43000	62
3.43367	57
3.43733	52
3.44100	50
3.44467	49
3.44833	47
3.45200	47
3.45567	46
3.45933	44
3.46300	44
3.46667	47
3.47033	49
3.47400	51
3.47767	51
3.48133	49
3.48500	49
3.48867	49
3.49233	48
3.49600	49
3.49967	54
3.50333	63
3.50700	71
3.51067	73
3.51433	70
3.51800	62
3.52167	55
3.52533	51
3.52900	50
3.53267	48
3.53633	48
3.54000	47
3.54367	46
3.54733	48
3.55100	49
3.55467	49
3.55833	49
3.56200	51
3.56567	52
3.56933	53
3.57300	51
3.57667	47
3.58033	40
3.58400	30
3.58767	22
3.59133	18
3.59500	21
3.59867	30
3.60233	37
3.60600	37
3.60967	33
3.61333	28
3.61700	26
3.62067	30
3.62433	36
3.62800	38
3.63167	37
3.63533	35
3.63900	33
3.64267	36
3.64633	41
3.65000	45
3.65367	49
3.65733	47
3.66100	40
3.66467	32
3.66833	25
3.67200	24
3.67567	26
3.67933	27
3.68300	28
3.68667	25
3.69033	21
3.69400	20
3.69767	22
3.70133	27
3.70500	30
3.70867	28
3.71233	25
3.71600	24
3.71967	23
3.72333	21
3.72700	20
3.73067	22
3.73433	28
3.73800	33
3.74167	39
3.74533	42
3.74900	42
3.75267	36
3.75633	27
3.76000	19
3.76367	12
3.76733	9
3.77100	11
3.77467	18
3.77833	26
3.78200	30
3.78567	31
3.78933	32
3.79300	35
3.79667	36
3.80033	32
3.80400	20
3.80767	9
3.81133	3
3.81500	3
3.81867	5
3.82233	6
3.82600	8
3.82967	10
3.83333	12
3.83700	16
3.84067	21
3.84433	24
3.84800	25
3.85167	23
3.85533	21
3.85900	19
3.86267	15
3.86633	11
3.87000	9
3.87367	8
3.87733	5
3.88100	-0
3.88467	-4
3.88833	-4
3.89200	-1
3.89567	5
3.89933	12
3.90300	13
3.90667	11
3.91033	10
3.91400	8
3.91767	4
3.92133	1
3.92500	-2
3.92867	-8
3.93233	-14
3.93600	-17
3.93967	-15
3.94333	-9
3.94700	-1
3.95067	5
3.95433	8
3.95800	6
3.96167	6
3.96533	9
3.96900	13
3.97267	14
3.97633	10
3.98000	5
3.98367	-2
3.98733	-8
3.99100	-9
3.99467	-5
3.99833	3

[Chromatogram (Ch2)]
Interval(msec)	220
# of Points	1091
Start Time(min)	0.002
End Time(min)	3.998
R.Time (min)	Intensity
0.00167	-0
0.00533	-0
0.00900	-0
0.01267	-1
0.01633	-1
0.02000	-1
0.02367	-1
0.02733	-1
0.03100	-1
0.03467	-1
0.03833	-1
0.04200	-1
0.04567	-1
0.04933	-1
0.05300	-1
0.05667	-1
0.06033	-1
0.06400	-1
0.06767	-2
0.07133	-2
0.07500	-2
0.07867	-2
0.08233	-2
0.08600	-2
0.08967	-2
0.09333	-2
0.09700	-2
0.10067	-2
0.10433	-2
0.10800	-2
0.11167	-2
0.11533	-1
0.11900	-1
0.12267	-2
0.12633	-2
0.13000	-2
0.13367	-2
0.13733	-2
0.14100	-2
0.14467	-2
0.14833	-2
0.15200	-2
0.15567	-2
0.15933	-2
0.16300	-2
0.16667	-1
0.17033	-1
0.17400	-1
0.17767	-1
0.18133	-0
0.18500	-0
0.18867	-0
0.19233	-0
0.19600	-0
0.19967	0
0.20333	0
0.20700	0
0.21067	0
0.21433	0
0.21800	-0
0.22167	-1
0.22533	-1
0.22900	-1
0.23267	-1
0.23633	-1
0.24000	-0
0.24367	-0
0.24733	-0
0.25100	-0
0.25467	-0
0.25833	-0
0.26200	-0
0.26567	-0
0.26933	-0
0.27300	-0
0.27667	0
0.28033	0
0.28400	0
0.28767	0
0.29133	0
0.29500	-0
0.29867	-0
0.30233	-1
0.30600	-1
0.30967	-1
0.31333	-1
0.31700	-1
0.32067	-1
0.32433	-1
0.32800	-1
0.33167	-1
0.33533	-1
0.33900	-1
0.34267	-1
0.34633	-2
0.35000	-2
0.35367	-2
0.35733	-2
0.36100	-3
0.36467	-3
0.36833	-3
0.37200	-3
0.37567	-3
0.37933	-3
0.38300	-3
0.38667	-3
0.39033	-3
0.39400	-3
0.39767	-3
0.40133	-2
0.40500	-2
0.40867	-2
0.41233	-2
0.41600	-2
0.41967	-2
0.42333	-2
0.42700	-2
0.43067	-2
0.43433	-2
0.43800	-2
0.44167	-2
0.44533	-2
0.44900	-2
0.45267	-3
0.45633	-3
0.46000	-3
0.46367	-3
0.46733	-3
0.47100	-3
0.47467	-2
0.47833	-2
0.48200	-2
0.48567	-2
0.48933	-1
0.49300	-1
0.49667	-1
0.50033	-1
0.50400	-1
0.50767	-1
0.51133	-1
0.51500	-1
0.51867	-1
0.52233	-1
0.52600	-1
0.52967	-1
0.53333	-1
0.53700	-1
0.54067	-1
0.54433	-1
0.54800	-1
0.55167	-1
0.55533	-1
0.55900	-1
0.56267	-2
0.56633	-2
0.57000	-2
0.57367	-2
0.57733	-2
0.58100	-2
0.58467	-2
0.58833	-2
0.59200	-2
0.59567	-2
0.59933	-2
0.60300	-2
0.60667	-2
0.61033	-2
0.61400	-2
0.61767	-2
0.62133	-2
0.62500	-2
0.62867	-2
0.63233	-2
0.63600	-2
0.63967	-2
0.64333	-2
0.64700	-2
0.65067	-2
0.65433	-1
0.65800	-1
0.66167	-1
0.66533	-1
0.66900	-2
0.67267	-2
0.67633	-2
0.68000	-2
0.68367	-2
0.68733	-2
0.69100	-3
0.69467	-3
0.69833	-3
0.70200	-3
0.70567	-3
0.70933	-3
0.71300	-3
0.71667	-3
0.72033	-3
0.72400	-2
0.72767	-2
0.73133	-2
0.73500	-2
0.73867	-2
0.74233	-2
0.74600	-2
0.74967	-2
0.75333	-2
0.75700	-2
0.76067	-2
0.76433	-2
0.76800	-2
0.77167	-2
0.77533	-2
0.77900	-2
0.78267	-2
0.78633	-2
0.79000	-2
0.79367	-1
0.79733	-1
0.80100	-1
0.80467	-1
0.80833	-1
0.81200	-1
0.81567	-1
0.81933	-1
0.82300	-1
0.82667	-1
0.83033	-1
0.83400	-1
0.83767	-1
0.84133	-1
0.84500	-1
0.84867	-1
0.85233	-1
0.85600	-1
0.85967	-1
0.86333	-1
0.86700	-1
0.87067	-1
0.87433	-1
0.87800	-1
0.88167	-1
0.88533	-1
0.88900	-1
0.89267	-1
0.89633	-1
0.90000	-1
0.90367	-1
0.90733	-2
0.91100	-2
0.91467	-2
0.91833	-2
0.92200	-3
0.92567	-3
0.92933	-3
0.93300	-3
0.93667	-3
0.94033	-3
0.94400	-3
0.94767	-3
0.95133	-3
0.95500	-2
0.95867	-2
0.96233	-2
0.96600	-2
0.96967	-2
0.97333	-2
0.97700	-2
0.98067	-2
0.98433	-2
0.98800	-2
0.99167	-2
0.99533	-2
0.99900	-2
1.00267	-2
1.00633	-2
1.01000	-2
1.01367	-2
1.01733	-2
1.02100	-2
1.02467	-2
1.02833	-2
1.03200	-3
1.03567	-3
1.03933	-3
1.04300	-3
1.04667	-2
1.05033	-2
1.05400	-2
1.05767	-2
1.06133	-2
1.06500	-3
1.06867	-3
1.07233	-3
1.07600	-4
1.07967	-4
1.08333	-4
1.08700	-4
1.09067	-4
1.09433	-4
1.09800	-4
1.10167	-4
1.10533	-4
1.10900	-4
1.11267	-4
1.11633	-3
1.12000	-3
1.12367	-3
1.12733	-3
1.13100	-2
1.13467	-2
1.13833	-2
1.14200	-2
1.14567	-2
1.14933	-2
1.15300	-2
1.15667	-2
1.16033	-2
1.16400	-2
1.16767	-2
1.17133	-2
1.17500	-2
1.17867	-2
1.18233	-2
1.18600	-2
1.18967	-2
1.19333	-2
1.19700	-2
1.20067	-2
1.20433	-2
1.20800	-2
1.21167	-3
1.21533	-2
1.21900	-2
1.22267	-2
1.22633	-2
1.23000	-2
1.23367	-2
1.23733	-2
1.24100	-2
1.24467	-2
1.24833	-1
1.25200	-1
1.25567	-1
1.25933	-1
1.26300	-1
1.26667	-1
1.27033	-1
1.27400	-1
1.27767	-1
1.28133	-1
1.28500	-2
1.28867	-2
1.29233	-2
1.29600	-2
1.29967	-2
1.30333	-2
1.30700	-3
1.31067	-3
1.31433	-3
1.31800	-3
1.32167	-3
1.32533	-3
1.32900	-3
1.33267	-3
1.33633	-3
1.34000	-3
1.34367	-3
1.34733	-3
1.35100	-3
1.35467	-2
1.35833	-2
1.36200	-2
1.36567	-2
1.36933	-2
1.37300	-2
1.37667	-2
1.38033	-2
1.38400	-2
1.38767	-2
1.39133	-2
1.39500	-2
1.39867	-2
1.40233	-2
1.40600	-2
1.40967	-2
1.41333	-2
1.41700	-2
1.42067	-2
1.42433	-2
1.42800	-2
1.43167	-2
1.43533	-2
1.43900	-2
1.44267	-2
1.44633	-2
1.45000	-2
1.45367	-2
1.45733	-2
1.46100	-2
1.46467	-2
1.46833	-2
1.47200	-2
1.47567	-2
1.47933	-2
1.48300	-2
1.48667	-2
1.49033	-2
1.49400	-2
1.49767	-2
1.50133	-2
1.50500	-2
1.50867	-2
1.51233	-2
1.51600	-2
1.51967	-2
1.52333	-2
1.52700	-2
1.53067	-2
1.53433	-2
1.53800	-2
1.54167	-3
1.54533	-3
1.54900	-3
1.55267	-3
1.55633	-3
1.56000	-2
1.56367	-2
1.56733	-3
1.57100	-3
1.57467	-3
1.57833	-3
1.58200	-3
1.58567	-4
1.58933	-4
1.59300	-4
1.59667	-5
1.60033	-6
1.60400	-7
1.60767	-8
1.61133	-10
1.61500	-12
1.61867	-14
1.62233	-17
1.62600	-20
1.62967	-23
1.63333	-26
1.63700	-29
1.64067	-33
1.64433	-36
1.64800	-39
1.65167	-42
1.65533	-46
1.65900	-49
1.66267	-53
1.66633	-57
1.67000	-61
1.67367	-66
1.67733	-71
1.68100	-76
1.68467	-81
1.68833	-86
1.69200	-90
1.69567	-94
1.69933	-97
1.70300	-100
1.70667	-103
1.71033	-104
1.71400	-106
1.71767	-107
1.72133	-108
1.72500	-108
1.72867	-109
1.73233	-109
1.73600	-109
1.73967	-109
1.74333	-110
1.74700	-111
1.75067	-112
1.75433	-114
1.75800	-115
1.76167	-116
1.76533	-116
1.76900	-116
1.77267	-117
1.77633	-117
1.78000	-117
1.78367	-117
1.78733	-117
1.79100	-118
1.79467	-118
1.79833	-119
1.80200	-119
1.80567	-119
1.80933	-119
1.81300	-119
1.81667	-119
1.82033	-119
1.82400	-120
1.82767	-121
1.83133	-121
1.83500	-121
1.83867	-121
1.84233	-121
1.84600	-121
1.84967	-120
1.85333	-120
1.85700	-120
1.86067	-120
1.86433	-120
1.86800	-120
1.87167	-120
1.87533	-120
1.87900	-119
1.88267	-119
1.88633	-119
1.89000	-119
1.89367	-119
1.89733	-119
1.90100	-118
1.90467	-118
1.90833	-118
1.91200	-117
1.91567	-117
1.91933	-117
1.92300	-117
1.92667	-116
1.93033	-116
1.93400	-116
1.93767	-116
1.94133	-116
1.94500	-116
1.94867	-116
1.95233	-115
1.95600	-115
1.95967	-115
1.96333	-114
1.96700	-114
1.97067	-114
1.97433	-114
1.97800	-114
1.98167	-114
1.98533	-114
1.98900	-113
1.99267	-113
1.99633	-113
2.00000	-113
2.00367	-113
2.00733	-113
2.01100	-113
2.01467	-113
2.01833	-113
2.02200	-113
2.02567	-113
2.02933	-113
2.03300	-112
2.03667	-111
2.04033	-111
2.04400	-110
2.04767	-110
2.05133	-109
2.05500	-109
2.05867	-108
2.06233	-108
2.06600	-107
2.06967	-106
2.07333	-106
2.07700	-106
2.08067	-106
2.08433	-106
2.08800	-106
2.09167	-105
2.09533	-105
2.09900	-105
2.10267	-105
2.10633	-105
2.11000	-105
2.11367	-104
2.11733	-103
2.12100	-103
2.12467	-102
2.12833	-102
2.13200	-101
2.13567	-100
2.13933	-100
2.14300	-99
2.14667	-98
2.15033	-98
2.15400	-98
2.15767	-98
2.16133	-98
2.16500	-98
2.16867	-97
2.17233	-97
2.17600	-97
2.17967	-97
2.18333	-97
2.18700	-98
2.19067	-98
2.19433	-98
2.19800	-98
2.20167	-97
2.20533	-97
2.20900	-97
2.21267	-97
2.21633	-96
2.22000	-96
2.22367	-94
2.22733	-93
2.23100	-92
2.23467	-91
2.23833	-91
2.24200	-91
2.24567	-91
2.24933	-92
2.25300	-92
2.25667	-92
2.26033	-92
2.26400	-92
2.26767	-92
2.27133	-93
2.27500	-93
2.27867	-92
2.28233	-92
2.28600	-91
2.28967	-90
2.29333	-89
2.29700	-88
2.30067	-87
2.30433	-86
2.30800	-86
2.31167	-86
2.31533	-87
2.31900	-87
2.32267	-88
2.32633	-88
2.33000	-88
2.33367	-88
2.33733	-87
2.34100	-87
2.34467	-86
2.34833	-85
2.35200	-85
2.35567	-84
2.35933	-82
2.36300	-81
2.36667	-79
2.37033	-77
2.37400	-75
2.37767	-72
2.38133	-69
2.38500	-66
2.38867	-62
2.39233	-59
2.39600	-55
2.39967	-51
2.40333	-47
2.40700	-43
2.41067	-39
2.41433	-36
2.41800	-32
2.42167	-29
2.42533	-27
2.42900	-24
2.43267	-22
2.43633	-20
2.44000	-18
2.44367	-16
2.44733	-14
2.45100	-12
2.45467	-10
2.45833	-8
2.46200	-7
2.46567	-5
2.46933	-3
2.47300	-2
2.47667	-1
2.48033	-1
2.48400	-1
2.48767	-0
2.49133	0
2.49500	1
2.49867	2
2.50233	3
2.50600	4
2.50967	5
2.51333	7
2.51700	8
2.52067	9
2.52433	10
2.52800	10
2.53167	10
2.53533	11
2.53900	11
2.54267	11
2.54633	12
2.55000	12
2.55367	12
2.55733	13
2.56100	13
2.56467	13
2.56833	13
2.57200	13
2.57567	14
2.57933	14
2.58300	15
2.58667	15
2.59033	16
2.59400	17
2.59767	18
2.60133	18
2.60500	19
2.60867	19
2.61233	19
2.61600	19
2.61967	19
2.62333	19
2.62700	19
2.63067	20
2.63433	20
2.63800	20
2.64167	20
2.64533	20
2.64900	20
2.65267	20
2.65633	21
2.66000	21
2.66367	21
2.66733	20
2.67100	20
2.67467	20
2.67833	20
2.68200	20
2.68567	20
2.68933	20
2.69300	20
2.69667	21
2.70033	21
2.70400	21
2.70767	21
2.71133	21
2.71500	21
2.71867	21
2.72233	21
2.72600	22
2.72967	22
2.73333	23
2.73700	23
2.74067	24
2.74433	24
2.74800	24
2.75167	25
2.75533	25
2.75900	25
2.76267	26
2.76633	26
2.77000	25
2.77367	25
2.77733	25
2.78100	25
2.78467	24
2.78833	24
2.79200	24
2.79567	24
2.79933	24
2.80300	24
2.80667	24
2.81033	24
2.81400	24
2.81767	24
2.82133	24
2.82500	25
2.82867	25
2.83233	25
2.83600	25
2.83967	25
2.84333	25
2.84700	25
2.85067	25
2.85433	25
2.85800	24
2.86167	22
2.86533	18
2.86900	13
2.87267	5
2.87633	-6
2.88000	-21
2.88367	-40
2.88733	-65
2.89100	-94
2.89467	-128
2.89833	-168
2.90200	-212
2.90567	-262
2.90933	-316
2.91300	-375
2.91667	-437
2.92033	-503
2.92400	-572
2.92767	-644
2.93133	-719
2.93500	-796
2.93867	-876
2.94233	-958
2.94600	-1042
2.94967	-1127
2.95333	-1214
2.95700	-1303
2.96067	-1391
2.96433	-1469
2.96800	-1524
2.97167	-1548
2.97533	-1535
2.97900	-1489
2.98267	-1416
2.98633	-1323
2.99000	-1217
2.99367	-1107
2.99733	-995
3.00100	-887
3.00467	-784
3.00833	-689
3.01200	-602
3.01567	-524
3.01933	-454
3.02300	-392
3.02667	-337
3.03033	-289
3.03400	-248
3.03767	-211
3.04133	-180
3.04500	-153
3.04867	-130
3.05233	-110
3.05600	-93
3.05967	-79
3.06333	-66
3.06700	-56
3.07067	-47
3.07433	-40
3.07800	-33
3.08167	-28
3.08533	-23
3.08900	-19
3.09267	-15
3.09633	-12
3.10000	-9
3.10367	-6
3.10733	-4
3.11100	-2
3.11467	0
3.11833	2
3.12200	3
3.12567	4
3.12933	6
3.13300	7
3.13667	7
3.14033	8
3.14400	9
3.14767	10
3.15133	11
3.15500	12
3.15867	12
3.16233	13
3.16600	13
3.16967	13
3.17333	14
3.17700	14
3.18067	14
3.18433	14
3.18800	14
3.19167	14
3.19533	14
3.19900	14
3.20267	15
3.20633	15
3.21000	15
3.21367	15
3.21733	16
3.22100	16
3.22467	16
3.22833	17
3.23200	17
3.23567	17
3.23933	17
3.24300	18
3.24667	18
3.25033	18
3.25400	18
3.25767	19
3.26133	19
3.26500	19
3.26867	19
3.27233	19
3.27600	20
3.27967	20
3.28333	20
3.28700	20
3.29067	20
3.29433	21
3.29800	21
3.30167	21
3.30533	21
3.30900	21
3.31267	21
3.31633	22
3.32000	22
3.32367	22
3.32733	22
3.33100	22
3.33467	22
3.33833	22
3.34200	22
3.34567	22
3.34933	22
3.35300	22
3.35667	22
3.36033	22
3.36400	22
3.36767	22
3.37133	22
3.37500	22
3.37867	22
3.38233	22
3.38600	22
3.38967	23
3.39333	23
3.39700	23
3.40067	23
3.40433	24
3.40800	24
3.41167	24
3.41533	24
3.41900	24
3.42267	24
3.42633	24
3.43000	25
3.43367	25
3.43733	26
3.44100	26
3.44467	26
3.44833	26
3.45200	27
3.45567	27
3.45933	27
3.46300	26
3.46667	26
3.47033	26
3.47400	26
3.47767	26
3.48133	26
3.48500	26
3.48867	26
3.49233	26
3.49600	26
3.49967	26
3.50333	26
3.50700	26
3.51067	26
3.51433	27
3.51800	27
3.52167	27
3.52533	27
3.52900	26
3.53267	26
3.53633	26
3.54000	26
3.54367	26
3.54733	26
3.55100	26
3.55467	26
3.55833	26
3.56200	25
3.56567	25
3.56933	24
3.57300	24
3.57667	24
3.58033	24
3.58400	24
3.58767	24
3.59133	24
3.59500	25
3.59867	25
3.60233	25
3.60600	25
3.60967	25
3.61333	25
3.61700	25
3.62067	25
3.62433	25
3.62800	25
3.63167	25
3.63533	25
3.63900	25
3.64267	25
3.64633	25
3.65000	25
3.65367	25
3.65733	25
3.66100	25
3.66467	25
3.66833	25
3.67200	25
3.67567	25
3.67933	25
3.68300	25
3.68667	25
3.69033	25
3.69400	25
3.69767	24
3.70133	24
3.70500	24
3.70867	24
3.71233	24
3.71600	24
3.71967	24
3.72333	24
3.72700	24
3.73067	24
3.73433	24
3.73800	24
3.74167	24
3.74533	24
3.74900	24
3.75267	25
3.75633	25
3.76000	25
3.76367	25
3.76733	25
3.77100	25
3.77467	25
3.77833	25
3.78200	25
3.78567	25
3.78933	25
3.79300	25
3.79667	25
3.80033	26
3.80400	26
3.80767	26
3.81133	26
3.81500	26
3.81867	26
3.82233	26
3.82600	25
3.82967	25
3.83333	25
3.83700	25
3.84067	26
3.84433	26
3.84800	26
3.85167	26
3.85533	26
3.85900	26
3.86267	26
3.86633	26
3.87000	25
3.87367	25
3.87733	25
3.88100	25
3.88467	25
3.88833	24
3.89200	24
3.89567	24
3.89933	24
3.90300	24
3.90667	24
3.91033	24
3.91400	24
3.91767	24
3.92133	24
3.92500	24
3.92867	24
3.93233	24
3.93600	24
3.93967	24
3.94333	24
3.94700	24
3.95067	24
3.95433	24
3.95800	24
3.96167	24
3.96533	24
3.96900	24
3.97267	24
3.97633	24
3.98000	24
3.98367	24
3.98733	24
3.99100	24
3.99467	24
3.99833	24

[Chromatogram (Ch3)]
Interval(msec)	220
# of Points	1091
Start Time(min)	0.002
End Time(min)	3.998
R.Time (min)	Intensity
0.00167	1
0.00533	5
0.00900	8
0.01267	10
0.01633	11
0.02000	12
0.02367	10
0.02733	10
0.03100	13
0.03467	13
0.03833	10
0.04200	7
0.04567	5
0.04933	3
0.05300	2
0.05667	4
0.06033	6
0.06400	8
0.06767	8
0.07133	5
0.07500	3
0.07867	3
0.08233	5
0.08600	7
0.08967	9
0.09333	9
0.09700	9
0.10067	9
0.10433	8
0.10800	8
0.11167	8
0.11533	9
0.11900	10
0.12267	9
0.12633	7
0.13000	6
0.13367	6
0.13733	7
0.14100	6
0.14467	8
0.14833	10
0.15200	11
0.15567	11
0.15933	12
0.16300	13
0.16667	14
0.17033	15
0.17400	16
0.17767	18
0.18133	20
0.18500	19
0.18867	15
0.19233	10
0.19600	9
0.19967	11
0.20333	13
0.20700	13
0.21067	15
0.21433	15
0.21800	16
0.22167	18
0.22533	18
0.22900	18
0.23267	17
0.23633	17
0.24000	17
0.24367	15
0.24733	14
0.25100	14
0.25467	15
0.25833	15
0.26200	15
0.26567	15
0.26933	14
0.27300	12
0.27667	12
0.28033	13
0.28400	14
0.28767	14
0.29133	13
0.29500	11
0.29867	12
0.30233	13
0.30600	14
0.30967	15
0.31333	18
0.31700	16
0.32067	18
0.32433	19
0.32800	21
0.33167	21
0.33533	18
0.33900	16
0.34267	14
0.34633	13
0.35000	13
0.35367	15
0.35733	16
0.36100	16
0.36467	18
0.36833	17
0.37200	13
0.37567	14
0.37933	17
0.38300	18
0.38667	19
0.39033	20
0.39400	19
0.39767	17
0.40133	17
0.40500	17
0.40867	16
0.41233	16
0.41600	17
0.41967	16
0.42333	16
0.42700	14
0.43067	13
0.43433	13
0.43800	13
0.44167	15
0.44533	15
0.44900	14
0.45267	14
0.45633	13
0.46000	12
0.46367	12
0.46733	11
0.47100	10
0.47467	9
0.47833	11
0.48200	13
0.48567	14
0.48933	13
0.49300	12
0.49667	13
0.50033	13
0.50400	14
0.50767	13
0.51133	14
0.51500	18
0.51867	21
0.52233	21
0.52600	20
0.52967	20
0.53333	20
0.53700	20
0.54067	21
0.54433	22
0.54800	23
0.55167	22
0.55533	23
0.55900	23
0.56267	22
0.56633	22
0.57000	23
0.57367	22
0.57733	21
0.58100	21
0.58467	19
0.58833	18
0.59200	17
0.59567	18
0.59933	17
0.60300	18
0.60667	20
0.61033	19
0.61400	15
0.61767	14
0.62133	13
0.62500	13
0.62867	15
0.63233	17
0.63600	19
0.63967	19
0.64333	19
0.64700	23
0.65067	27
0.65433	28
0.65800	28
0.66167	26
0.66533	24
0.66900	22
0.67267	21
0.67633	21
0.68000	20
0.68367	21
0.68733	21
0.69100	20
0.69467	20
0.69833	18
0.70200	16
0.70567	15
0.70933	15
0.71300	15
0.71667	14
0.72033	13
0.72400	12
0.72767	13
0.73133	14
0.73500	17
0.73867	19
0.74233	18
0.74600	18
0.74967	17
0.75333	16
0.75700	18
0.76067	19
0.76433	19
0.76800	19
0.77167	17
0.77533	15
0.77900	14
0.78267	13
0.78633	13
0.79000	14
0.79367	17
0.79733	17
0.80100	18
0.80467	17
0.80833	19
0.81200	20
0.81567	21
0.81933	21
0.82300	19
0.82667	19
0.83033	20
0.83400	21
0.83767	22
0.84133	22
0.84500	21
0.84867	19
0.85233	17
0.85600	16
0.85967	17
0.86333	18
0.86700	17
0.87067	15
0.87433	14
0.87800	13
0.88167	15
0.88533	17
0.88900	19
0.89267	19
0.89633	17
0.90000	15
0.90367	14
0.90733	15
0.91100	15
0.91467	18
0.91833	19
0.92200	18
0.92567	18
0.92933	20
0.93300	20
0.93667	22
0.94033	22
0.94400	21
0.94767	19
0.95133	19
0.95500	23
0.95867	24
0.96233	22
0.96600	17
0.96967	14
0.97333	14
0.97700	14
0.98067	16
0.98433	19
0.98800	20
0.99167	18
0.99533	19
0.99900	20
1.00267	21
1.00633	22
1.01000	22
1.01367	22
1.01733	21
1.02100	19
1.02467	17
1.02833	16
1.03200	15
1.03567	15
1.03933	15
1.04300	16
1.04667	15
1.05033	14
1.05400	14
1.05767	13
1.06133	11
1.06500	10
1.06867	12
1.07233	13
1.07600	15
1.07967	14
1.08333	16
1.08700	16
1.09067	19
1.09433	21
1.09800	22
1.10167	21
1.10533	20
1.10900	20
1.11267	20
1.11633	19
1.12000	17
1.12367	16
1.12733	15
1.13100	14
1.13467	14
1.13833	13
1.14200	11
1.14567	10
1.14933	10
1.15300	9
1.15667	9
1.16033	10
1.16400	9
1.16767	11
1.17133	11
1.17500	11
1.17867	12
1.18233	12
1.18600	13
1.18967	14
1.19333	11
1.19700	9
1.20067	10
1.20433	12
1.20800	13
1.21167	14
1.21533	14
1.21900	15
1.22267	17
1.22633	15
1.23000	14
1.23367	12
1.23733	13
1.24100	13
1.24467	12
1.24833	12
1.25200	11
1.25567	11
1.25933	10
1.26300	12
1.26667	15
1.27033	17
1.27400	19
1.27767	18
1.28133	16
1.28500	15
1.28867	15
1.29233	17
1.29600	17
1.29967	16
1.30333	15
1.30700	15
1.31067	15
1.31433	15
1.31800	16
1.32167	16
1.32533	16
1.32900	14
1.33267	12
1.33633	12
1.34000	12
1.34367	12
1.34733	13
1.35100	12
1.35467	12
1.35833	11
1.36200	11
1.36567	11
1.36933	11
1.37300	13
1.37667	14
1.38033	15
1.38400	15
1.38767	15
1.39133	14
1.39500	16
1.39867	18
1.40233	18
1.40600	16
1.40967	14
1.41333	15
1.41700	16
1.42067	15
1.42433	15
1.42800	14
1.43167	12
1.43533	12
1.43900	12
1.44267	11
1.44633	12
1.45000	12
1.45367	12
1.45733	13
1.46100	14
1.46467	14
1.46833	10
1.47200	7
1.47567	7
1.47933	10
1.48300	12
1.48667	14
1.49033	12
1.49400	10
1.49767	7
1.50133	8
1.50500	10
1.50867	13
1.51233	15
1.51600	16
1.51967	14
1.52333	13
1.52700	13
1.53067	11
1.53433	11
1.53800	13
1.54167	12
1.54533	12
1.54900	13
1.55267	11
1.55633	10
1.56000	10
1.56367	11
1.56733	12
1.57100	10
1.57467	10
1.57833	8
1.58200	9
1.58567	11
1.58933	11
1.59300	10
1.59667	10
1.60033	8
1.60400	7
1.60767	7
1.61133	7
1.61500	8
1.61867	8
1.62233	8
1.62600	9
1.62967	9
1.63333	11
1.63700	14
1.64067	15
1.64433	14
1.64800	13
1.65167	14
1.65533	12
1.65900	10
1.66267	11
1.66633	13
1.67000	14
1.67367	17
1.67733	17
1.68100	17
1.68467	17
1.68833	17
1.69200	18
1.69567	20
1.69933	22
1.70300	19
1.70667	15
1.71033	14
1.71400	15
1.71767	16
1.72133	18
1.72500	18
1.72867	17
1.73233	19
1.73600	22
1.73967	24
1.74333	25
1.74700	27
1.75067	27
1.75433	27
1.75800	27
1.76167	26
1.76533	25
1.76900	25
1.77267	26
1.77633	27
1.78000	28
1.78367	31
1.78733	35
1.79100	34
1.79467	34
1.79833	33
1.80200	32
1.80567	34
1.80933	34
1.81300	33
1.81667	33
1.82033	34
1.82400	35
1.82767	35
1.83133	37
1.83500	37
1.83867	38
1.84233	37
1.84600	38
1.84967	39
1.85333	39
1.85700	38
1.86067	37
1.86433	37
1.86800	36
1.87167	37
1.87533	38
1.87900	40
1.88267	40
1.88633	42
1.89000	44
1.89367	46
1.89733	47
1.90100	47
1.90467	46
1.90833	45
1.91200	44
1.91567	44
1.91933	44
1.92300	44
1.92667	45
1.93033	46
1.93400	45
1.93767	46
1.94133	50
1.94500	51
1.94867	52
1.95233	53
1.95600	52
1.95967	54
1.96333	54
1.96700	53
1.97067	53
1.97433	54
1.97800	56
1.98167	59
1.98533	59
1.98900	57
1.99267	58
1.99633	61
2.00000	62
2.00367	61
2.00733	60
2.01100	58
2.01467	58
2.01833	58
2.02200	58
2.02567	59
2.02933	63
2.03300	67
2.03667	71
2.04033	72
2.04400	71
2.04767	71
2.05133	73
2.05500	75
2.05867	76
2.06233	79
2.06600	80
2.06967	78
2.07333	75
2.07700	76
2.08067	78
2.08433	81
2.08800	83
2.09167	86
2.09533	87
2.09900	88
2.10267	87
2.10633	87
2.11000	86
2.11367	86
2.11733	85
2.12100	84
2.12467	85
2.12833	87
2.13200	88
2.13567	90
2.13933	92
2.14300	93
2.14667	94
2.15033	95
2.15400	95
2.15767	98
2.16133	98
2.16500	96
2.16867	95
2.17233	95
2.17600	95
2.17967	97
2.18333	97
2.18700	97
2.19067	96
2.19433	96
2.19800	97
2.20167	97
2.20533	99
2.20900	100
2.21267	100
2.21633	102
2.22000	104
2.22367	106
2.22733	104
2.23100	102
2.23467	102
2.23833	104
2.24200	108
2.24567	111
2.24933	113
2.25300	112
2.25667	111
2.26033	111
2.26400	110
2.26767	109
2.27133	109
2.27500	110
2.27867	112
2.28233	112
2.28600	114
2.28967	116
2.29333	120
2.29700	122
2.30067	126
2.30433	129
2.30800	130
2.31167	131
2.31533	131
2.31900	129
2.32267	126
2.32633	126
2.33000	129
2.33367	132
2.33733	135
2.34100	139
2.34467	141
2.34833	141
2.35200	140
2.35567	139
2.35933	138
2.36300	140
2.36667	142
2.37033	141
2.37400	142
2.37767	142
2.38133	144
2.38500	148
2.38867	150
2.39233	152
2.39600	154
2.39967	157
2.40333	157
2.40700	158
2.41067	160
2.41433	162
2.41800	164
2.42167	166
2.42533	169
2.42900	171
2.43267	170
2.43633	170
2.44000	171
2.44367	192
2.44733	246
2.45100	304
2.45467	344
2.45833	352
2.46200	339
2.46567	323
2.46933	312
2.47300	298
2.47667	279
2.48033	254
2.48400	229
2.48767	208
2.49133	191
2.49500	180
2.49867	175
2.50233	177
2.50600	179
2.50967	184
2.51333	191
2.51700	193
2.52067	186
2.52433	175
2.52800	164
2.53167	152
2.53533	140
2.53900	129
2.54267	119
2.54633	109
2.55000	102
2.55367	98
2.55733	94
2.56100	92
2.56467	94
2.56833	95
2.57200	95
2.57567	94
2.57933	96
2.58300	98
2.58667	101
2.59033	107
2.59400	115
2.59767	124
2.60133	132
2.60500	138
2.60867	141
2.61233	139
2.61600	128
2.61967	106
2.62333	73
2.62700	34
2.63067	-8
2.63433	-52
2.63800	-95
2.64167	-133
2.64533	-166
2.64900	-194
2.65267	-215
2.65633	-228
2.66000	-237
2.66367	-241
2.66733	-242
2.67100	-238
2.67467	-230
2.67833	-220
2.68200	-209
2.68567	-198
2.68933	-187
2.69300	-175
2.69667	-165
2.70033	-155
2.70400	-144
2.70767	-135
2.71133	-125
2.71500	-115
2.71867	-105
2.72233	-96
2.72600	-86
2.72967	-80
2.73333	-74
2.73700	-69
2.74067	-63
2.74433	-57
2.74800	-49
2.75167	-44
2.75533	-39
2.75900	-33
2.76267	-28
2.76633	-24
2.77000	-21
2.77367	-16
2.77733	-12
2.78100	-6
2.78467	1
2.78833	7
2.79200	13
2.79567	20
2.79933	23
2.80300	27
2.80667	34
2.81033	39
2.81400	42
2.81767	46
2.82133	52
2.82500	56
2.82867	63
2.83233	77
2.83600	112
2.83967	197
2.84333	381
2.84700	733
2.85067	1327
2.85433	2225
2.85800	3475
2.86167	5070
2.86533	6951
2.86900	9015
2.87267	11121
2.87633	13107
2.88000	14819
2.88367	16135
2.88733	16978
2.89100	17325
2.89467	17210
2.89833	16693
2.90200	15871
2.90567	14837
2.90933	13678
2.91300	12470
2.91667	11268
2.92033	10105
2.92400	9007
2.92767	7984
2.93133	7047
2.93500	6199
2.93867	5439
2.94233	4761
2.94600	4158
2.94967	3623
2.95333	3154
2.95700	2742
2.96067	2382
2.96433	2066
2.96800	1792
2.97167	1555
2.97533	1349
2.97900	1170
2.98267	1015
2.98633	881
2.99000	767
2.99367	667
2.99733	579
3.00100	503
3.00467	439
3.00833	384
3.01200	335
3.01567	295
3.01933	262
3.02300	233
3.02667	208
3.03033	186
3.03400	167
3.03767	152
3.04133	138
3.04500	125
3.04867	115
3.05233	106
3.05600	99
3.05967	93
3.06333	89
3.06700	82
3.07067	78
3.07433	75
3.07800	72
3.08167	67
3.08533	64
3.08900	64
3.09267	61
3.09633	62
3.10000	64
3.10367	64
3.10733	64
3.11100	63
3.11467	63
3.11833	64
3.12200	61
3.12567	57
3.12933	56
3.13300	56
3.13667	57
3.14033	59
3.14400	62
3.14767	67
3.15133	72
3.15500	78
3.15867	85
3.16233	96
3.16600	105
3.16967	114
3.17333	125
3.17700	137
3.18067	151
3.18433	164
3.18800	177
3.19167	190
3.19533	201
3.19900	213
3.20267	230
3.20633	248
3.21000	266
3.21367	286
3.21733	305
3.22100	323
3.22467	339
3.22833	351
3.23200	362
3.23567	371
3.23933	383
3.24300	393
3.24667	402
3.25033	411
3.25400	419
3.25767	424
3.26133	430
3.26500	435
3.26867	438
3.27233	438
3.27600	439
3.27967	440
3.28333	439
3.28700	436
3.29067	433
3.29433	431
3.29800	430
3.30167	427
3.30533	425
3.30900	425
3.31267	426
3.31633	424
3.32000	422
3.32367	420
3.32733	420
3.33100	422
3.33467	425
3.33833	427
3.34200	425
3.34567	425
3.34933	426
3.35300	426
3.35667	426
3.36033	428
3.36400	426
3.36767	425
3.37133	425
3.37500	423
3.37867	424
3.38233	423
3.38600	424
3.38967	422
3.39333	419
3.39700	418
3.40067	418
3.40433	420
3.40800	419
3.41167	418
3.41533	416
3.41900	413
3.42267	412
3.42633	412
3.43000	410
3.43367	406
3.43733	403
3.44100	403
3.44467	403
3.44833	402
3.45200	400
3.45567	395
3.45933	392
3.46300	392
3.46667	390
3.47033	388
3.47400	386
3.47767	385
3.48133	384
3.48500	385
3.48867	383
3.49233	379
3.49600	377
3.49967	375
3.50333	373
3.50700	372
3.51067	369
3.51433	364
3.51800	362
3.52167	360
3.52533	359
3.52900	357
3.53267	355
3.53633	354
3.54000	353
3.54367	355
3.54733	357
3.55100	357
3.55467	356
3.55833	355
3.56200	352
3.56567	349
3.56933	349
3.57300	349
3.57667	347
3.58033	346
3.58400	344
3.58767	340
3.59133	337
3.59500	336
3.59867	334
3.60233	333
3.60600	332
3.60967	330
3.61333	328
3.61700	327
3.62067	325
3.62433	321
3.62800	319
3.63167	320
3.63533	317
3.63900	315
3.64267	310
3.64633	307
3.65000	306
3.65367	305
3.65733	305
3.66100	305
3.66467	304
3.66833	302
3.67200	299
3.67567	297
3.67933	295
3.68300	292
3.68667	291
3.69033	292
3.69400	294
3.69767	296
3.70133	293
3.70500	291
3.70867	288
3.71233	287
3.71600	288
3.71967	288
3.72333	288
3.72700	286
3.73067	286
3.73433	285
3.73800	282
3.74167	279
3.74533	278
3.74900	277
3.75267	276
3.75633	274
3.76000	272
3.76367	272
3.76733	273
3.77100	271
3.77467	267
3.77833	266
3.78200	265
3.78567	264
3.78933	264
3.79300	263
3.79667	261
3.80033	260
3.80400	262
3.80767	263
3.81133	266
3.81500	268
3.81867	267
3.82233	267
3.82600	266
3.82967	263
3.83333	259
3.83700	256
3.84067	255
3.84433	255
3.84800	252
3.85167	253
3.85533	253
3.85900	251
3.86267	250
3.86633	249
3.87000	251
3.87367	251
3.87733	250
3.88100	250
3.88467	250
3.88833	248
3.89200	246
3.89567	244
3.89933	243
3.90300	244
3.90667	243
3.91033	245
3.91400	246
3.91767	246
3.92133	245
3.92500	242
3.92867	240
3.93233	238
3.93600	239
3.93967	239
3.94333	239
3.94700	236
3.95067	234
3.95433	234
3.95800	236
3.96167	235
3.96533	236
3.96900	237
3.97267	238
3.97633	239
3.98000	240
3.98367	239
3.98733	236
3.99100	234
3.99467	234
3.99833	233

[Status Trace (Column Oven Temperature)]
Interval(msec)	1000
# of Points	240
Start Time(min)	0.006
End Time(min)	3.990
Intensity Units	
Intensity Multiplier	1
R.Time (min)	Intensity
0.00620	35.00
0.02287	35.00
0.03953	35.00
0.05620	34.99
0.07287	35.00
0.08953	35.01
0.10620	35.01
0.12287	35.01
0.13953	35.02
0.15620	35.03
0.17287	35.02
0.18953	35.02
0.20620	35.01
0.22287	35.00
0.23953	34.99
0.25620	34.99
0.27287	34.98
0.28953	34.97
0.30620	34.97
0.32287	34.98
0.33953	34.99
0.35620	35.00
0.37287	34.99
0.38953	34.99
0.40620	35.00
0.42287	35.00
0.43953	35.02
0.45620	35.01
0.47287	35.02
0.48953	35.02
0.50620	35.01
0.52287	35.00
0.53953	34.99
0.55620	34.99
0.57287	34.99
0.58953	34.99
0.60620	35.00
0.62287	34.99
0.63953	34.99
0.65620	34.99
0.67287	34.98
0.68953	34.99
0.70620	34.99
0.72287	34.99
0.73953	34.98
0.75620	34.99
0.77287	34.99
0.78953	34.99
0.80620	34.99
0.82287	34.99
0.83953	34.99
0.85620	34.98
0.87287	34.98
0.88953	34.98
0.90620	34.99
0.92287	34.99
0.93953	34.98
0.95620	34.99
0.97287	35.01
0.98953	35.00
1.00620	34.99
1.02287	34.99
1.03953	34.99
1.05620	34.99
1.07287	34.99
1.08953	34.99
1.10620	34.99
1.12287	34.99
1.13953	35.00
1.15620	34.99
1.17287	34.99
1.18953	34.99
1.20620	34.99
1.22287	34.99
1.23953	34.98
1.25620	34.98
1.27287	34.99
1.28953	34.99
1.30620	35.00
1.32287	35.00
1.33953	35.00
1.35620	35.00
1.37287	35.00
1.38953	35.00
1.40620	35.00
1.42287	35.00
1.43953	35.00
1.45620	35.00
1.47287	34.99
1.48953	34.99
1.50620	34.98
1.52287	34.99
1.53953	35.00
1.55620	35.00
1.57287	35.00
1.58953	35.01
1.60620	35.07
1.62287	35.19
1.63953	35.37
1.65620	35.60
1.67287	35.92
1.68953	36.30
1.70620	36.65
1.72287	36.98
1.73953	37.31
1.75620	37.65
1.77287	37.97
1.78953	38.32
1.80620	38.64
1.82287	38.98
1.83953	39.31
1.85620	39.64
1.87287	39.96
1.88953	40.31
1.90620	40.63
1.92287	40.95
1.93953	41.28
1.95620	41.60
1.97287	41.93
1.98953	42.24
2.00620	42.56
2.02287	42.90
2.03953	43.22
2.05620	43.55
2.07287	43.86
2.08953	44.19
2.10620	44.52
2.12287	44.84
2.13953	45.15
2.15620	45.47
2.17287	45.78
2.18953	46.13
2.20620	46.48
2.22287	46.80
2.23953	47.12
2.25620	47.46
2.27287	47.79
2.28953	48.12
2.30620	48.46
2.32287	48.80
2.33953	49.13
2.35620	49.42
2.37287	49.63
2.38953	49.69
2.40620	49.68
2.42287	49.69
2.43953	49.71
2.45620	49.71
2.47287	49.73
2.48953	49.75
2.50620	49.74
2.52287	49.76
2.53953	49.77
2.55620	49.78
2.57287	49.81
2.58953	49.80
2.60620	49.81
2.62287	49.81
2.63953	49.82
2.65620	49.82
2.67287	49.84
2.68953	49.84
2.70620	49.86
2.72287	49.86
2.73953	49.85
2.75620	49.85
2.77287	49.86
2.78953	49.86
2.80620	49.86
2.82287	49.87
2.83953	49.87
2.85620	49.88
2.87287	49.89
2.88953	49.90
2.90620	49.91
2.92287	49.92
2.93953	49.93
2.95620	49.95
2.97287	49.96
2.98953	49.97
3.00620	49.98
3.02287	49.99
3.03953	50.00
3.05620	50.01
3.07287	50.03
3.08953	50.03
3.10620	50.03
3.12287	50.03
3.13953	50.04
3.15620	50.04
3.17287	50.05
3.18953	50.06
3.20620	50.07
3.22287	50.08
3.23953	50.09
3.25620	50.09
3.27287	50.10
3.28953	50.10
3.30620	50.09
3.32287	50.10
3.33953	50.10
3.35620	50.11
3.37287	50.11
3.38953	50.10
3.40620	50.09
3.42287	50.08
3.43953	50.07
3.45620	50.06
3.47287	50.05
3.48953	50.05
3.50620	50.04
3.52287	50.04
3.53953	50.04
3.55620	50.05
3.57287	50.04
3.58953	50.04
3.60620	50.04
3.62287	50.04
3.63953	50.04
3.65620	50.04
3.67287	50.04
3.68953	50.04
3.70620	50.05
3.72287	50.05
3.73953	50.05
3.75620	50.05
3.77287	50.05
3.78953	50.05
3.80620	50.04
3.82287	50.04
3.83953	50.06
3.85620	50.05
3.87287	50.05
3.88953	50.05
3.90620	50.05
3.92287	50.06
3.93953	50.06
3.95620	50.07
3.97287	50.07
3.98953	50.07

[Status Trace (Injection Unit Temperature)]
Interval(msec)	1000
# of Points	240
Start Time(min)	0.006
End Time(min)	3.990
Intensity Units	
Intensity Multiplier	1
R.Time (min)	Intensity
0.00620	99.98
0.02287	99.98
0.03953	99.98
0.05620	99.98
0.07287	99.98
0.08953	99.98
0.10620	99.98
0.12287	99.98
0.13953	99.98
0.15620	99.98
0.17287	99.98
0.18953	99.98
0.20620	99.98
0.22287	99.98
0.23953	99.98
0.25620	99.98
0.27287	99.98
0.28953	99.98
0.30620	99.98
0.32287	99.98
0.33953	99.98
0.35620	99.98
0.37287	99.98
0.38953	99.98
0.40620	99.98
0.42287	99.98
0.43953	99.99
0.45620	99.99
0.47287	99.99
0.48953	99.99
0.50620	99.98
0.52287	99.99
0.53953	99.99
0.55620	99.99
0.57287	99.99
0.58953	99.99
0.60620	99.99
0.62287	99.99
0.63953	99.99
0.65620	99.99
0.67287	99.99
0.68953	99.99
0.70620	99.99
0.72287	99.98
0.73953	99.99
0.75620	99.98
0.77287	99.98
0.78953	99.99
0.80620	99.98
0.82287	99.98
0.83953	99.98
0.85620	99.98
0.87287	99.98
0.88953	99.98
0.90620	99.98
0.92287	99.98
0.93953	99.98
0.95620	99.98
0.97287	99.98
0.98953	99.98
1.00620	99.98
1.02287	99.98
1.03953	99.98
1.05620	99.98
1.07287	99.98
1.08953	99.98
1.10620	99.98
1.12287	99.98
1.13953	99.98
1.15620	99.98
1.17287	99.98
1.18953	99.98
1.20620	99.98
1.22287	99.98
1.23953	99.98
1.25620	99.98
1.27287	99.98
1.28953	99.98
1.30620	99.98
1.32287	99.98
1.33953	99.98
1.35620	99.98
1.37287	99.98
1.38953	99.99
1.40620	99.98
1.42287	99.98
1.43953	99.99
1.45620	99.99
1.47287	99.99
1.48953	99.99
1.50620	99.99
1.52287	99.99
1.53953	99.99
1.55620	99.99
1.57287	99.99
1.58953	99.99
1.60620	99.99
1.62287	99.99
1.63953	99.99
1.65620	99.99
1.67287	99.99
1.68953	99.99
1.70620	99.99
1.72287	99.99
1.73953	99.99
1.75620	99.99
1.77287	99.99
1.78953	99.99
1.80620	99.99
1.82287	99.99
1.83953	99.99
1.85620	99.99
1.87287	99.99
1.88953	99.99
1.90620	99.99
1.92287	99.98
1.93953	99.98
1.95620	99.98
1.97287	99.98
1.98953	99.99
2.00620	99.98
2.02287	99.98
2.03953	99.98
2.05620	99.98
2.07287	99.98
2.08953	99.98
2.10620	99.98
2.12287	99.97
2.13953	99.98
2.15620	99.98
2.17287	99.97
2.18953	99.98
2.20620	99.97
2.22287	99.98
2.23953	99.97
2.25620	99.97
2.27287	99.97
2.28953	99.97
2.30620	99.97
2.32287	99.97
2.33953	99.97
2.35620	99.97
2.37287	99.97
2.38953	99.97
2.40620	99.97
2.42287	99.97
2.43953	99.97
2.45620	99.97
2.47287	99.97
2.48953	99.98
2.50620	99.97
2.52287	99.98
2.53953	99.98
2.55620	99.98
2.57287	99.98
2.58953	99.98
2.60620	99.98
2.62287	99.98
2.63953	99.98
2.65620	99.98
2.67287	99.99
2.68953	99.98
2.70620	99.99
2.72287	99.99
2.73953	99.99
2.75620	99.99
2.77287	99.99
2.78953	100.00
2.80620	100.00
2.82287	100.00
2.83953	100.00
2.85620	100.00
2.87287	100.00
2.88953	100.00
2.90620	100.01
2.92287	100.01
2.93953	100.01
2.95620	100.01
2.97287	100.01
2.98953	100.01
3.00620	100.01
3.02287	100.02
3.03953	100.01
3.05620	100.02
3.07287	100.02
3.08953	100.02
3.10620	100.02
3.12287	100.02
3.13953	100.02
3.15620	100.03
3.17287	100.02
3.18953	100.03
3.20620	100.03
3.22287	100.03
3.23953	100.03
3.25620	100.03
3.27287	100.03
3.28953	100.03
3.30620	100.03
3.32287	100.03
3.33953	100.03
3.35620	100.03
3.37287	100.04
3.38953	100.04
3.40620	100.04
3.42287	100.04
3.43953	100.04
3.45620	100.04
3.47287	100.04
3.48953	100.04
3.50620	100.04
3.52287	100.04
3.53953	100.04
3.55620	100.05
3.57287	100.05
3.58953	100.05
3.60620	100.05
3.62287	100.05
3.63953	100.05
3.65620	100.05
3.67287	100.05
3.68953	100.05
3.70620	100.05
3.72287	100.05
3.73953	100.05
3.75620	100.05
3.77287	100.05
3.78953	100.05
3.80620	100.05
3.82287	100.05
3.83953	100.05
3.85620	100.05
3.87287	100.05
3.88953	100.05
3.90620	100.05
3.92287	100.05
3.93953	100.05
3.95620	100.05
3.97287	100.05
3.98953	100.05

[Status Trace (Carrier Gas Pressure)]
Interval(msec)	1000
# of Points	240
Start Time(min)	0.006
End Time(min)	3.990
Intensity Units	
Intensity Multiplier	1
R.Time (min)	Intensity
0.00620	58.00
0.02287	55.61
0.03953	56.78
0.05620	58.99
0.07287	59.63
0.08953	58.15
0.10620	57.98
0.12287	58.01
0.13953	58.01
0.15620	58.01
0.17287	58.00
0.18953	58.00
0.20620	58.00
0.22287	58.00
0.23953	58.00
0.25620	58.00
0.27287	58.00
0.28953	58.00
0.30620	58.00
0.32287	58.00
0.33953	58.00
0.35620	58.00
0.37287	58.00
0.38953	58.00
0.40620	58.00
0.42287	58.00
0.43953	58.00
0.45620	58.00
0.47287	58.00
0.48953	58.00
0.50620	58.00
0.52287	58.00
0.53953	58.00
0.55620	58.00
0.57287	58.00
0.58953	58.00
0.60620	58.00
0.62287	58.00
0.63953	58.00
0.65620	58.00
0.67287	58.00
0.68953	58.00
0.70620	58.00
0.72287	58.00
0.73953	58.00
0.75620	58.00
0.77287	58.00
0.78953	58.00
0.80620	58.00
0.82287	58.00
0.83953	58.00
0.85620	58.00
0.87287	58.00
0.88953	58.00
0.90620	58.00
0.92287	58.00
0.93953	58.00
0.95620	58.00
0.97287	58.00
0.98953	58.00
1.00620	58.00
1.02287	58.00
1.03953	58.00
1.05620	58.00
1.07287	58.00
1.08953	58.00
1.10620	58.00
1.12287	58.00
1.13953	58.00
1.15620	58.00
1.17287	58.00
1.18953	58.00
1.20620	58.00
1.22287	58.00
1.23953	58.00
1.25620	58.00
1.27287	58.00
1.28953	58.00
1.30620	58.00
1.32287	58.00
1.33953	58.00
1.35620	58.00
1.37287	58.00
1.38953	58.00
1.40620	58.00
1.42287	58.00
1.43953	58.00
1.45620	58.00
1.47287	58.00
1.48953	58.00
1.50620	58.00
1.52287	58.00
1.53953	58.00
1.55620	58.00
1.57287	58.00
1.58953	58.00
1.60620	58.00
1.62287	58.00
1.63953	58.00
1.65620	58.00
1.67287	58.01
1.68953	58.01
1.70620	58.00
1.72287	58.00
1.73953	58.00
1.75620	58.00
1.77287	58.00
1.78953	58.00
1.80620	58.00
1.82287	58.00
1.83953	58.00
1.85620	58.00
1.87287	58.00
1.88953	58.00
1.90620	58.00
1.92287	58.00
1.93953	58.00
1.95620	58.00
1.97287	58.00
1.98953	58.00
2.00620	58.00
2.02287	58.00
2.03953	58.00
2.05620	58.00
2.07287	58.00
2.08953	58.00
2.10620	58.00
2.12287	58.00
2.13953	58.00
2.15620	58.00
2.17287	58.00
2.18953	58.00
2.20620	58.00
2.22287	58.00
2.23953	58.00
2.25620	58.00
2.27287	58.00
2.28953	58.00
2.30620	58.00
2.32287	58.00
2.33953	58.00
2.35620	58.00
2.37287	58.00
2.38953	57.99
2.40620	57.99
2.42287	58.00
2.43953	58.00
2.45620	58.00
2.47287	58.00
2.48953	58.00
2.50620	57.99
2.52287	57.98
2.53953	58.00
2.55620	58.00
2.57287	58.00
2.58953	58.00
2.60620	58.00
2.62287	58.00
2.63953	58.00
2.65620	58.00
2.67287	58.00
2.68953	58.00
2.70620	58.00
2.72287	58.00
2.73953	58.00
2.75620	58.00
2.77287	58.00
2.78953	58.00
2.80620	58.00
2.82287	58.00
2.83953	58.00
2.85620	58.00
2.87287	58.00
2.88953	58.00
2.90620	58.00
2.92287	58.00
2.93953	58.00
2.95620	58.00
2.97287	58.00
2.98953	58.00
3.00620	58.00
3.02287	58.00
3.03953	58.00
3.05620	58.00
3.07287	58.00
3.08953	58.00
3.10620	58.00
3.12287	58.00
3.13953	58.00
3.15620	58.00
3.17287	58.00
3.18953	58.00
3.20620	58.00
3.22287	58.00
3.23953	58.00
3.25620	58.00
3.27287	58.00
3.28953	58.00
3.30620	58.00
3.32287	58.00
3.33953	58.00
3.35620	58.00
3.37287	58.00
3.38953	58.00
3.40620	58.00
3.42287	58.00
3.43953	58.00
3.45620	58.00
3.47287	58.00
3.48953	58.00
3.50620	58.00
3.52287	58.00
3.53953	58.00
3.55620	58.00
3.57287	58.00
3.58953	58.00
3.60620	58.00
3.62287	58.00
3.63953	58.00
3.65620	58.00
3.67287	58.00
3.68953	58.00
3.70620	58.00
3.72287	58.00
3.73953	58.00
3.75620	58.00
3.77287	58.00
3.78953	58.00
3.80620	58.00
3.82287	58.00
3.83953	58.00
3.85620	58.00
3.87287	58.00
3.88953	58.00
3.90620	58.00
3.92287	58.00
3.93953	58.00
3.95620	58.00
3.97287	58.00
3.98953	58.00

[Status Trace (Carrier Gas Flow)]
Interval(msec)	1000
# of Points	240
Start Time(min)	0.006
End Time(min)	3.990
Intensity Units	
Intensity Multiplier	1
R.Time (min)	Intensity
0.00620	34.52
0.02287	34.54
0.03953	34.54
0.05620	34.55
0.07287	34.49
0.08953	34.52
0.10620	34.52
0.12287	34.52
0.13953	34.52
0.15620	34.52
0.17287	34.52
0.18953	34.52
0.20620	34.52
0.22287	34.52
0.23953	34.52
0.25620	34.52
0.27287	34.52
0.28953	34.52
0.30620	34.52
0.32287	34.52
0.33953	34.52
0.35620	34.52
0.37287	34.52
0.38953	34.52
0.40620	34.52
0.42287	34.52
0.43953	34.52
0.45620	34.52
0.47287	34.52
0.48953	34.52
0.50620	34.52
0.52287	34.52
0.53953	34.52
0.55620	34.52
0.57287	34.52
0.58953	34.52
0.60620	34.52
0.62287	34.52
0.63953	34.52
0.65620	34.52
0.67287	34.52
0.68953	34.52
0.70620	34.52
0.72287	34.52
0.73953	34.52
0.75620	34.52
0.77287	34.52
0.78953	34.52
0.80620	34.52
0.82287	34.52
0.83953	34.52
0.85620	34.52
0.87287	34.52
0.88953	34.52
0.90620	34.52
0.92287	34.52
0.93953	34.52
0.95620	34.52
0.97287	34.52
0.98953	34.52
1.00620	34.52
1.02287	34.52
1.03953	34.52
1.05620	34.52
1.07287	34.52
1.08953	34.52
1.10620	34.52
1.12287	34.52
1.13953	34.52
1.15620	34.52
1.17287	34.52
1.18953	34.53
1.20620	34.52
1.22287	34.52
1.23953	34.51
1.25620	34.53
1.27287	34.52
1.28953	34.52
1.30620	34.52
1.32287	34.52
1.33953	34.52
1.35620	34.52
1.37287	34.52
1.38953	34.53
1.40620	34.52
1.42287	34.51
1.43953	34.52
1.45620	34.52
1.47287	34.52
1.48953	34.52
1.50620	34.52
1.52287	34.51
1.53953	34.52
1.55620	34.53
1.57287	34.53
1.58953	34.53
1.60620	34.52
1.62287	34.53
1.63953	34.53
1.65620	34.51
1.67287	34.54
1.68953	34.53
1.70620	34.52
1.72287	34.52
1.73953	34.53
1.75620	34.52
1.77287	34.52
1.78953	34.52
1.80620	34.53
1.82287	34.52
1.83953	34.52
1.85620	34.52
1.87287	34.52
1.88953	34.52
1.90620	34.52
1.92287	34.52
1.93953	34.52
1.95620	34.52
1.97287	34.52
1.98953	34.52
2.00620	34.52
2.02287	34.52
2.03953	34.53
2.05620	34.52
2.07287	34.51
2.08953	34.52
2.10620	34.51
2.12287	34.52
2.13953	34.50
2.15620	34.52
2.17287	34.52
2.18953	34.51
2.20620	34.51
2.22287	34.51
2.23953	34.51
2.25620	34.52
2.27287	34.52
2.28953	34.51
2.30620	34.52
2.32287	34.51
2.33953	34.53
2.35620	34.53
2.37287	34.52
2.38953	34.52
2.40620	34.52
2.42287	34.52
2.43953	34.52
2.45620	34.52
2.47287	34.52
2.48953	34.52
2.50620	34.50
2.52287	34.52
2.53953	34.52
2.55620	34.52
2.57287	34.52
2.58953	34.52
2.60620	34.52
2.62287	34.52
2.63953	34.52
2.65620	34.52
2.67287	34.52
2.68953	34.52
2.70620	34.52
2.72287	34.52
2.73953	34.52
2.75620	34.52
2.77287	34.52
2.78953	34.52
2.80620	34.52
2.82287	34.52
2.83953	34.52
2.85620	34.52
2.87287	34.52
2.88953	34.52
2.90620	34.52
2.92287	34.52
2.93953	34.52
2.95620	34.52
2.97287	34.52
2.98953	34.52
3.00620	34.52
3.02287	34.52
3.03953	34.52
3.05620	34.52
3.07287	34.52
3.08953	34.52
3.10620	34.52
3.12287	34.52
3.13953	34.52
3.15620	34.52
3.17287	34.52
3.18953	34.52
3.20620	34.52
3.22287	34.52
3.23953	34.52
3.25620	34.52
3.27287	34.52
3.28953	34.52
3.30620	34.52
3.32287	34.52
3.33953	34.52
3.35620	34.52
3.37287	34.52
3.38953	34.52
3.40620	34.52
3.42287	34.52
3.43953	34.51
3.45620	34.52
3.47287	34.52
3.48953	34.52
3.50620	34.51
3.52287	34.52
3.53953	34.51
3.55620	34.52
3.57287	34.53
3.58953	34.53
3.60620	34.52
3.62287	34.51
3.63953	34.52
3.65620	34.52
3.67287	34.52
3.68953	34.52
3.70620	34.52
3.72287	34.52
3.73953	34.52
3.75620	34.52
3.77287	34.52
3.78953	34.52
3.80620	34.52
3.82287	34.52
3.83953	34.52
3.85620	34.52
3.87287	34.52
3.88953	34.52
3.90620	34.52
3.92287	34.52
3.93953	34.52
3.95620	34.52
3.97287	34.52
3.98953	34.52

[Status Trace (Column Flow)]
Interval(msec)	1000
# of Points	240
Start Time(min)	0.006
End Time(min)	3.990
Intensity Units	
Intensity Multiplier	1
R.Time (min)	Intensity
0.00620	5.48
0.02287	5.21
0.03953	5.34
0.05620	5.60
0.07287	5.67
0.08953	5.50
0.10620	5.48
0.12287	5.49
0.13953	5.48
0.15620	5.48
0.17287	5.48
0.18953	5.48
0.20620	5.48
0.22287	5.48
0.23953	5.48
0.25620	5.48
0.27287	5.48
0.28953	5.49
0.30620	5.49
0.32287	5.49
0.33953	5.48
0.35620	5.48
0.37287	5.48
0.38953	5.48
0.40620	5.48
0.42287	5.48
0.43953	5.48
0.45620	5.48
0.47287	5.48
0.48953	5.48
0.50620	5.48
0.52287	5.48
0.53953	5.48
0.55620	5.48
0.57287	5.48
0.58953	5.48
0.60620	5.48
0.62287	5.48
0.63953	5.48
0.65620	5.48
0.67287	5.48
0.68953	5.48
0.70620	5.48
0.72287	5.48
0.73953	5.48
0.75620	5.48
0.77287	5.48
0.78953	5.48
0.80620	5.48
0.82287	5.48
0.83953	5.48
0.85620	5.48
0.87287	5.48
0.88953	5.48
0.90620	5.48
0.92287	5.48
0.93953	5.48
0.95620	5.48
0.97287	5.48
0.98953	5.48
1.00620	5.48
1.02287	5.48
1.03953	5.48
1.05620	5.48
1.07287	5.48
1.08953	5.48
1.10620	5.48
1.12287	5.48
1.13953	5.48
1.15620	5.48
1.17287	5.48
1.18953	5.48
1.20620	5.48
1.22287	5.48
1.23953	5.48
1.25620	5.48
1.27287	5.48
1.28953	5.48
1.30620	5.48
1.32287	5.48
1.33953	5.48
1.35620	5.48
1.37287	5.48
1.38953	5.48
1.40620	5.48
1.42287	5.48
1.43953	5.48
1.45620	5.48
1.47287	5.48
1.48953	5.48
1.50620	5.48
1.52287	5.48
1.53953	5.48
1.55620	5.48
1.57287	5.48
1.58953	5.48
1.60620	5.48
1.62287	5.48
1.63953	5.47
1.65620	5.47
1.67287	5.46
1.68953	5.45
1.70620	5.43
1.72287	5.42
1.73953	5.41
1.75620	5.40
1.77287	5.39
1.78953	5.38
1.80620	5.37
1.82287	5.36
1.83953	5.35
1.85620	5.34
1.87287	5.33
1.88953	5.32
1.90620	5.31
1.92287	5.30
1.93953	5.29
1.95620	5.28
1.97287	5.27
1.98953	5.27
2.00620	5.25
2.02287	5.24
2.03953	5.24
2.05620	5.23
2.07287	5.22
2.08953	5.21
2.10620	5.20
2.12287	5.19
2.13953	5.18
2.15620	5.17
2.17287	5.16
2.18953	5.15
2.20620	5.14
2.22287	5.13
2.23953	5.13
2.25620	5.12
2.27287	5.11
2.28953	5.10
2.30620	5.09
2.32287	5.08
2.33953	5.07
2.35620	5.06
2.37287	5.05
2.38953	5.05
2.40620	5.05
2.42287	5.05
2.43953	5.05
2.45620	5.05
2.47287	5.05
2.48953	5.05
2.50620	5.05
2.52287	5.05
2.53953	5.05
2.55620	5.05
2.57287	5.05
2.58953	5.05
2.60620	5.05
2.62287	5.05
2.63953	5.05
2.65620	5.05
2.67287	5.05
2.68953	5.05
2.70620	5.05
2.72287	5.05
2.73953	5.05
2.75620	5.05
2.77287	5.05
2.78953	5.05
2.80620	5.05
2.82287	5.05
2.83953	5.05
2.85620	5.05
2.87287	5.05
2.88953	5.05
2.90620	5.05
2.92287	5.05
2.93953	5.05
2.95620	5.05
2.97287	5.05
2.98953	5.05
3.00620	5.04
3.02287	5.04
3.03953	5.04
3.05620	5.04
3.07287	5.04
3.08953	5.04
3.10620	5.04
3.12287	5.04
3.13953	5.04
3.15620	5.04
3.17287	5.04
3.18953	5.04
3.20620	5.04
3.22287	5.04
3.23953	5.04
3.25620	5.04
3.27287	5.04
3.28953	5.04
3.30620	5.04
3.32287	5.04
3.33953	5.04
3.35620	5.04
3.37287	5.04
3.38953	5.04
3.40620	5.04
3.42287	5.04
3.43953	5.04
3.45620	5.04
3.47287	5.04
3.48953	5.04
3.50620	5.04
3.52287	5.04
3.53953	5.04
3.55620	5.04
3.57287	5.04
3.58953	5.04
3.60620	5.04
3.62287	5.04
3.63953	5.04
3.65620	5.04
3.67287	5.04
3.68953	5.04
3.70620	5.04
3.72287	5.04
3.73953	5.04
3.75620	5.04
3.77287	5.04
3.78953	5.04
3.80620	5.04
3.82287	5.04
3.83953	5.04
3.85620	5.04
3.87287	5.04
3.88953	5.04
3.90620	5.04
3.92287	5.04
3.93953	5.04
3.95620	5.04
3.97287	5.04
3.98953	5.04

[Status Trace (Linear Velocity)]
Interval(msec)	1000
# of Points	240
Start Time(min)	0.006
End Time(min)	3.990
Intensity Units	
Intensity Multiplier	1
R.Time (min)	Intensity
0.00620	39.01
0.02287	37.44
0.03953	38.21
0.05620	39.65
0.07287	40.08
0.08953	39.10
0.10620	38.99
0.12287	39.01
0.13953	39.01
0.15620	39.01
0.17287	39.01
0.18953	39.01
0.20620	39.01
0.22287	39.01
0.23953	39.01
0.25620	39.01
0.27287	39.01
0.28953	39.01
0.30620	39.01
0.32287	39.01
0.33953	39.01
0.35620	39.01
0.37287	39.01
0.38953	39.01
0.40620	39.01
0.42287	39.01
0.43953	39.01
0.45620	39.01
0.47287	39.01
0.48953	39.01
0.50620	39.01
0.52287	39.01
0.53953	39.01
0.55620	39.01
0.57287	39.01
0.58953	39.01
0.60620	39.01
0.62287	39.01
0.63953	39.01
0.65620	39.01
0.67287	39.01
0.68953	39.01
0.70620	39.01
0.72287	39.01
0.73953	39.01
0.75620	39.01
0.77287	39.01
0.78953	39.01
0.80620	39.01
0.82287	39.01
0.83953	39.01
0.85620	39.01
0.87287	39.01
0.88953	39.01
0.90620	39.01
0.92287	39.01
0.93953	39.01
0.95620	39.01
0.97287	39.01
0.98953	39.01
1.00620	39.01
1.02287	39.01
1.03953	39.01
1.05620	39.01
1.07287	39.01
1.08953	39.01
1.10620	39.01
1.12287	39.01
1.13953	39.01
1.15620	39.01
1.17287	39.01
1.18953	39.01
1.20620	39.01
1.22287	39.01
1.23953	39.01
1.25620	39.01
1.27287	39.01
1.28953	39.01
1.30620	39.01
1.32287	39.01
1.33953	39.01
1.35620	39.01
1.37287	39.01
1.38953	39.01
1.40620	39.01
1.42287	39.01
1.43953	39.01
1.45620	39.01
1.47287	39.01
1.48953	39.01
1.50620	39.01
1.52287	39.01
1.53953	39.01
1.55620	39.01
1.57287	39.01
1.58953	39.01
1.60620	39.00
1.62287	38.99
1.63953	38.98
1.65620	38.95
1.67287	38.92
1.68953	38.89
1.70620	38.85
1.72287	38.82
1.73953	38.79
1.75620	38.76
1.77287	38.72
1.78953	38.70
1.80620	38.66
1.82287	38.63
1.83953	38.60
1.85620	38.57
1.87287	38.54
1.88953	38.51
1.90620	38.47
1.92287	38.44
1.93953	38.42
1.95620	38.38
1.97287	38.35
1.98953	38.33
2.00620	38.30
2.02287	38.26
2.03953	38.24
2.05620	38.20
2.07287	38.18
2.08953	38.15
2.10620	38.12
2.12287	38.09
2.13953	38.06
2.15620	38.03
2.17287	38.00
2.18953	37.97
2.20620	37.94
2.22287	37.91
2.23953	37.88
2.25620	37.85
2.27287	37.82
2.28953	37.79
2.30620	37.76
2.32287	37.73
2.33953	37.70
2.35620	37.67
2.37287	37.65
2.38953	37.65
2.40620	37.65
2.42287	37.65
2.43953	37.65
2.45620	37.65
2.47287	37.65
2.48953	37.65
2.50620	37.64
2.52287	37.63
2.53953	37.64
2.55620	37.64
2.57287	37.64
2.58953	37.64
2.60620	37.64
2.62287	37.64
2.63953	37.64
2.65620	37.64
2.67287	37.64
2.68953	37.64
2.70620	37.64
2.72287	37.64
2.73953	37.64
2.75620	37.64
2.77287	37.64
2.78953	37.64
2.80620	37.64
2.82287	37.64
2.83953	37.64
2.85620	37.64
2.87287	37.63
2.88953	37.63
2.90620	37.63
2.92287	37.63
2.93953	37.63
2.95620	37.63
2.97287	37.63
2.98953	37.63
3.00620	37.63
3.02287	37.62
3.03953	37.62
3.05620	37.62
3.07287	37.62
3.08953	37.62
3.10620	37.62
3.12287	37.62
3.13953	37.62
3.15620	37.62
3.17287	37.62
3.18953	37.62
3.20620	37.62
3.22287	37.62
3.23953	37.62
3.25620	37.62
3.27287	37.62
3.28953	37.62
3.30620	37.62
3.32287	37.62
3.33953	37.62
3.35620	37.61
3.37287	37.61
3.38953	37.62
3.40620	37.62
3.42287	37.62
3.43953	37.62
3.45620	37.62
3.47287	37.62
3.48953	37.62
3.50620	37.62
3.52287	37.62
3.53953	37.62
3.55620	37.62
3.57287	37.62
3.58953	37.62
3.60620	37.62
3.62287	37.62
3.63953	37.62
3.65620	37.62
3.67287	37.62
3.68953	37.62
3.70620	37.62
3.72287	37.62
3.73953	37.62
3.75620	37.62
3.77287	37.62
3.78953	37.62
3.80620	37.62
3.82287	37.62
3.83953	37.62
3.85620	37.62
3.87287	37.62
3.88953	37.62
3.90620	37.62
3.92287	37.62
3.93953	37.62
3.95620	37.62
3.97287	37.62
3.98953	37.62

