[Header]
Application Name	LabSolutions
Version	5.110
Data File Name	C:\Users\User\Desktop\GC Analyses\Jack\UIC Prairie Sampling\10.19.22\221019_086.gcd
Output Date	1/4/2023
Output Time	2:27:22 PM

[File Information]
Type	Data File
Generated	12/8/2022 11:54:42 AM
Generated by	System Administrator
Modified	12/8/2022 12:04:56 PM
Modified by	System Administrator

[Sample Information]
Operator Name	System Administrator
Acquired	12/8/2022 12:00:56 PM
Sample Type	1:Standard
Level	1
Sample Name	221019_UICPrairie
Sample ID	221019_UICPrairie
ISTD Amount1	1
ISTD Amount2	1
ISTD Amount3	1
ISTD Amount4	1
ISTD Amount5	1
ISTD Amount6	1
ISTD Amount7	1
ISTD Amount8	1
ISTD Amount9	1
ISTD Amount10	1
ISTD Amount11	1
ISTD Amount12	1
ISTD Amount13	1
ISTD Amount14	1
ISTD Amount15	1
ISTD Amount16	1
ISTD Amount17	1
ISTD Amount18	1
ISTD Amount19	1
ISTD Amount20	1
ISTD Amount21	1
ISTD Amount22	1
ISTD Amount23	1
ISTD Amount24	1
ISTD Amount25	1
ISTD Amount26	1
ISTD Amount27	1
ISTD Amount28	1
ISTD Amount29	1
ISTD Amount30	1
ISTD Amount31	1
ISTD Amount32	1
Sample Amount	1
Dilution Factor	1
Vial#	1
Injection Volume	1
Injection Count	1
Bar Code	

[Original Files]
Data File	C:\Users\User\Desktop\GC Analyses\Jack\UIC Prairie Sampling\10.19.22\221019_086.gcd
Method File	C:\LabSolutions\Data\GHG_4min_2022\ghg3_togas_w_acet_4 min_new_int.gcm
Batch File	
Report Format File	c:\LabSolutions\System\DEFAULT.lsr

[File Description]


[Configuration]
Instrument Name	C0B7VH3-Instrument1
Instrument #	1
Line #	1
# of Detectors	3
Detector ID	DET#1	DET#2	DET#3
Detector Name	FID	PTCD	ECD
# of Channels	1	1	1

[Peak Table(Ch1)]
# of Peaks	4
Peak#	R.Time	I.Time	F.Time	Area	Height	A/H	Conc.	Mark	ID#	Name	k'	Plate #	Plate Ht.	Tailing	Resolution	Sep.Factor	Area Ratio	Height Ratio	Conc. %	Norm Conc.
1	1.461	1.439	1.531	3124	1004	3.112	100.000	   	1	CO	0.000	4973	30.160	0.000	0.000	0.000	0	0	14.286	14.286
2	1.571	1.531	1.637	22238	10870	2.046	100.000	 V 	2	CH4	0.075	10969	13.675	1.103	1.540	0.000	0	0	14.286	14.286
3	1.996	1.949	2.715	2225523	1016452	2.190	400.000	   	3	CO2	0.366	16508	9.086	1.302	6.964	4.867	0	0	57.143	57.143
4	3.052	2.975	3.199	544	72	7.511	100.000	   	5	Acetylene	1.089	13406	11.189	1.427	12.601	2.973	0	0	14.286	14.286

[Peak Table(Ch2)]
# of Peaks	0

[Peak Table(Ch3)]
# of Peaks	4
Peak#	R.Time	I.Time	F.Time	Area	Height	A/H	Conc.	Mark	ID#	Name	k'	Plate #	Plate Ht.	Tailing	Resolution	Sep.Factor	Area Ratio	Height Ratio	Conc. %	Norm Conc.
1	2.466	2.088	2.491	3871	503	7.701	0.000	   			0.000	5480	27.373	0.000	0.000	0.000	0	0	0.000	0.000
2	2.506	2.491	2.543	1101	401	2.748	0.000	 V 			0.016	1276	117.554	0.000	0.195	0.000	0	0	0.000	0.000
3	2.590	2.543	2.645	1873	446	4.197	0.000	 V 			0.051	3705	40.490	0.000	0.374	3.091	0	0	0.000	0.000
4	2.884	2.656	3.569	73643	16828	4.376	1.000	   	1	N2O	0.170	12376	12.120	1.579	2.142	3.353	0	0	100.000	100.000

[Compound Results(Ch1)]
# of IDs	6
ID#	Name	R.Time	Area	Height	Conc.	Curve	3rd	2nd	1st	Constant	Area Ratio	Height Ratio	Conc. %	Norm Conc.
1	CO	1.461	3124	1004	100.000	Linear	0.000000e+00	0.000000e+00	3.124196e+001	0.000000e+00	0	0	14.286	14.286
2	CH4	1.571	22238	10870	100.000	Linear	0.000000e+00	0.000000e+00	2.223757e+002	0.000000e+00	0	0	14.286	14.286
3	CO2	1.996	2225523	1016452	400.000	Linear	0.000000e+00	0.000000e+00	5.563808e+003	0.000000e+00	0	0	57.143	57.143
4	Ethylene	0.000	0	0	0.000	Linear	0.000000e+00	0.000000e+00	0.000000e+00	0.000000e+00	0	0	0.000	0.000
5	Acetylene	3.052	544	72	100.000	Linear	0.000000e+00	0.000000e+00	5.444916e+000	0.000000e+00	0	0	14.286	14.286
6	Ethane	0.000	0	0	0.000	Linear	0.000000e+00	0.000000e+00	0.000000e+00	0.000000e+00	0	0	0.000	0.000

[Compound Results(Ch2)]
# of IDs	5
ID#	Name	R.Time	Area	Height	Conc.	Curve	3rd	2nd	1st	Constant	Area Ratio	Height Ratio	Conc. %	Norm Conc.
1	Hydrogen	0.000	0	0	0.000	Linear	0.000000e+00	0.000000e+00	0.000000e+00	0.000000e+00	0	0	0.000	0.000
2	Oxygen	0.000	0	0	0.000	Linear	0.000000e+00	0.000000e+00	0.000000e+00	0.000000e+00	0	0	0.000	0.000
3	Nitrogen	0.000	0	0	0.000	Linear	0.000000e+00	0.000000e+00	0.000000e+00	0.000000e+00	0	0	0.000	0.000
4	Methane	0.000	0	0	0.000	Linear	0.000000e+00	0.000000e+00	0.000000e+00	0.000000e+00	0	0	0.000	0.000
5	Carbon Monoxide	0.000	0	0	0.000	Linear	0.000000e+00	0.000000e+00	0.000000e+00	0.000000e+00	0	0	0.000	0.000

[Compound Results(Ch3)]
# of IDs	2
ID#	Name	R.Time	Area	Height	Conc.	Curve	3rd	2nd	1st	Constant	Area Ratio	Height Ratio	Conc. %	Norm Conc.
1	N2O	2.884	73643	16828	1.000	Linear	0.000000e+00	0.000000e+00	7.364336e+004	0.000000e+00	0	0	100.000	100.000
2	SF6	0.000	0	0	0.000	Linear	0.000000e+00	0.000000e+00	0.000000e+00	0.000000e+00	0	0	0.000	0.000

[Group Results(Ch1)]
# of Groups	0

[Group Results(Ch2)]
# of Groups	0

[Group Results(Ch3)]
# of Groups	0

[Chromatogram (Ch1)]
Interval(msec)	220
# of Points	1091
Start Time(min)	0.002
End Time(min)	3.998
R.Time (min)	Intensity
0.00167	-1
0.00533	-2
0.00900	-1
0.01267	3
0.01633	7
0.02000	7
0.02367	5
0.02733	2
0.03100	1
0.03467	2
0.03833	3
0.04200	4
0.04567	5
0.04933	5
0.05300	6
0.05667	8
0.06033	9
0.06400	7
0.06767	4
0.07133	-1
0.07500	-2
0.07867	1
0.08233	3
0.08600	3
0.08967	3
0.09333	4
0.09700	5
0.10067	2
0.10433	-3
0.10800	-9
0.11167	-14
0.11533	-15
0.11900	-14
0.12267	-12
0.12633	-12
0.13000	-12
0.13367	-13
0.13733	-14
0.14100	-15
0.14467	-15
0.14833	-14
0.15200	-13
0.15567	-9
0.15933	-4
0.16300	1
0.16667	5
0.17033	5
0.17400	3
0.17767	6
0.18133	9
0.18500	7
0.18867	1
0.19233	-5
0.19600	-9
0.19967	-10
0.20333	-6
0.20700	-3
0.21067	-1
0.21433	-0
0.21800	0
0.22167	3
0.22533	4
0.22900	2
0.23267	-1
0.23633	-4
0.24000	-7
0.24367	-8
0.24733	-8
0.25100	-7
0.25467	-6
0.25833	-4
0.26200	-1
0.26567	3
0.26933	4
0.27300	5
0.27667	8
0.28033	8
0.28400	7
0.28767	4
0.29133	-0
0.29500	-7
0.29867	-13
0.30233	-15
0.30600	-16
0.30967	-13
0.31333	-10
0.31700	-9
0.32067	-10
0.32433	-12
0.32800	-12
0.33167	-8
0.33533	-3
0.33900	-1
0.34267	-0
0.34633	-0
0.35000	-2
0.35367	-8
0.35733	-12
0.36100	-9
0.36467	-3
0.36833	3
0.37200	8
0.37567	10
0.37933	13
0.38300	12
0.38667	11
0.39033	10
0.39400	9
0.39767	9
0.40133	6
0.40500	2
0.40867	0
0.41233	-2
0.41600	-6
0.41967	-8
0.42333	-7
0.42700	-7
0.43067	-4
0.43433	3
0.43800	13
0.44167	23
0.44533	30
0.44900	28
0.45267	19
0.45633	9
0.46000	-2
0.46367	-9
0.46733	-9
0.47100	-5
0.47467	-3
0.47833	-7
0.48200	-15
0.48567	-21
0.48933	-24
0.49300	-25
0.49667	-25
0.50033	-23
0.50400	-17
0.50767	-8
0.51133	-2
0.51500	2
0.51867	2
0.52233	0
0.52600	-2
0.52967	-2
0.53333	1
0.53700	3
0.54067	3
0.54433	-0
0.54800	-4
0.55167	-4
0.55533	-4
0.55900	-1
0.56267	1
0.56633	3
0.57000	5
0.57367	7
0.57733	10
0.58100	11
0.58467	10
0.58833	8
0.59200	7
0.59567	8
0.59933	12
0.60300	11
0.60667	10
0.61033	8
0.61400	6
0.61767	4
0.62133	2
0.62500	-3
0.62867	-9
0.63233	-15
0.63600	-18
0.63967	-17
0.64333	-17
0.64700	-19
0.65067	-21
0.65433	-19
0.65800	-16
0.66167	-12
0.66533	-6
0.66900	-1
0.67267	2
0.67633	3
0.68000	4
0.68367	6
0.68733	7
0.69100	7
0.69467	7
0.69833	7
0.70200	7
0.70567	4
0.70933	-0
0.71300	-4
0.71667	-4
0.72033	-3
0.72400	-3
0.72767	-7
0.73133	-9
0.73500	-9
0.73867	-6
0.74233	-2
0.74600	-0
0.74967	2
0.75333	3
0.75700	2
0.76067	-0
0.76433	-1
0.76800	0
0.77167	3
0.77533	3
0.77900	2
0.78267	2
0.78633	1
0.79000	3
0.79367	3
0.79733	2
0.80100	4
0.80467	9
0.80833	14
0.81200	15
0.81567	16
0.81933	18
0.82300	18
0.82667	15
0.83033	15
0.83400	15
0.83767	13
0.84133	7
0.84500	2
0.84867	-1
0.85233	-1
0.85600	3
0.85967	5
0.86333	4
0.86700	2
0.87067	3
0.87433	6
0.87800	9
0.88167	11
0.88533	10
0.88900	9
0.89267	10
0.89633	13
0.90000	18
0.90367	19
0.90733	14
0.91100	9
0.91467	4
0.91833	1
0.92200	1
0.92567	4
0.92933	9
0.93300	13
0.93667	18
0.94033	20
0.94400	21
0.94767	19
0.95133	15
0.95500	12
0.95867	13
0.96233	13
0.96600	11
0.96967	10
0.97333	10
0.97700	9
0.98067	9
0.98433	9
0.98800	8
0.99167	6
0.99533	5
0.99900	7
1.00267	9
1.00633	9
1.01000	9
1.01367	12
1.01733	18
1.02100	23
1.02467	22
1.02833	21
1.03200	23
1.03567	27
1.03933	29
1.04300	27
1.04667	25
1.05033	23
1.05400	22
1.05767	18
1.06133	14
1.06500	14
1.06867	18
1.07233	20
1.07600	19
1.07967	16
1.08333	13
1.08700	15
1.09067	18
1.09433	24
1.09800	28
1.10167	29
1.10533	27
1.10900	25
1.11267	23
1.11633	22
1.12000	21
1.12367	19
1.12733	20
1.13100	22
1.13467	22
1.13833	23
1.14200	24
1.14567	23
1.14933	22
1.15300	20
1.15667	20
1.16033	22
1.16400	25
1.16767	26
1.17133	27
1.17500	27
1.17867	24
1.18233	19
1.18600	14
1.18967	12
1.19333	11
1.19700	13
1.20067	19
1.20433	26
1.20800	32
1.21167	36
1.21533	36
1.21900	33
1.22267	33
1.22633	34
1.23000	33
1.23367	30
1.23733	25
1.24100	21
1.24467	20
1.24833	20
1.25200	19
1.25567	19
1.25933	21
1.26300	26
1.26667	29
1.27033	28
1.27400	23
1.27767	18
1.28133	12
1.28500	5
1.28867	1
1.29233	-0
1.29600	4
1.29967	9
1.30333	12
1.30700	14
1.31067	15
1.31433	17
1.31800	24
1.32167	32
1.32533	36
1.32900	36
1.33267	36
1.33633	37
1.34000	38
1.34367	37
1.34733	34
1.35100	30
1.35467	23
1.35833	17
1.36200	16
1.36567	18
1.36933	24
1.37300	28
1.37667	30
1.38033	28
1.38400	20
1.38767	12
1.39133	8
1.39500	7
1.39867	8
1.40233	9
1.40600	10
1.40967	13
1.41333	16
1.41700	22
1.42067	28
1.42433	35
1.42800	40
1.43167	43
1.43533	43
1.43900	63
1.44267	170
1.44633	405
1.45000	682
1.45367	902
1.45733	1030
1.46100	1076
1.46467	1068
1.46833	1035
1.47200	1000
1.47567	969
1.47933	941
1.48300	908
1.48667	860
1.49033	792
1.49400	708
1.49767	620
1.50133	535
1.50500	461
1.50867	399
1.51233	350
1.51600	315
1.51967	291
1.52333	280
1.52700	275
1.53067	273
1.53433	282
1.53800	363
1.54167	701
1.54533	1600
1.54900	3198
1.55267	5241
1.55633	7288
1.56000	9012
1.56367	10270
1.56733	10972
1.57100	10986
1.57467	10225
1.57833	8811
1.58200	7063
1.58567	5334
1.58933	3856
1.59300	2708
1.59667	1870
1.60033	1286
1.60400	891
1.60767	630
1.61133	460
1.61500	349
1.61867	275
1.62233	221
1.62600	183
1.62967	158
1.63333	146
1.63700	142
1.64067	142
1.64433	142
1.64800	136
1.65167	127
1.65533	116
1.65900	106
1.66267	99
1.66633	94
1.67000	92
1.67367	92
1.67733	93
1.68100	91
1.68467	91
1.68833	94
1.69200	97
1.69567	96
1.69933	93
1.70300	89
1.70667	89
1.71033	88
1.71400	87
1.71767	86
1.72133	85
1.72500	80
1.72867	73
1.73233	69
1.73600	70
1.73967	69
1.74333	70
1.74700	72
1.75067	75
1.75433	74
1.75800	71
1.76167	68
1.76533	67
1.76900	70
1.77267	77
1.77633	85
1.78000	90
1.78367	91
1.78733	91
1.79100	90
1.79467	89
1.79833	88
1.80200	88
1.80567	87
1.80933	86
1.81300	83
1.81667	83
1.82033	86
1.82400	89
1.82767	91
1.83133	93
1.83500	94
1.83867	93
1.84233	93
1.84600	95
1.84967	96
1.85333	96
1.85700	94
1.86067	91
1.86433	90
1.86800	93
1.87167	97
1.87533	100
1.87900	100
1.88267	94
1.88633	86
1.89000	81
1.89367	81
1.89733	83
1.90100	82
1.90467	81
1.90833	83
1.91200	86
1.91567	90
1.91933	93
1.92300	94
1.92667	96
1.93033	99
1.93400	102
1.93767	105
1.94133	107
1.94500	106
1.94867	108
1.95233	139
1.95600	386
1.95967	1798
1.96333	7915
1.96700	27926
1.97067	78297
1.97433	176332
1.97800	326051
1.98167	510499
1.98533	698684
1.98900	859608
1.99267	970267
1.99633	1016598
2.00000	994715
2.00367	911646
2.00733	784782
2.01100	637975
2.01467	493912
2.01833	368035
2.02200	267027
2.02567	190823
2.02933	135760
2.03300	97094
2.03667	70408
2.04033	52133
2.04400	39616
2.04767	30983
2.05133	24948
2.05500	20651
2.05867	17524
2.06233	15193
2.06600	13411
2.06967	12012
2.07333	10884
2.07700	9961
2.08067	9194
2.08433	8540
2.08800	7977
2.09167	7488
2.09533	7059
2.09900	6677
2.10267	6334
2.10633	6026
2.11000	5745
2.11367	5487
2.11733	5250
2.12100	5032
2.12467	4830
2.12833	4641
2.13200	4464
2.13567	4302
2.13933	4153
2.14300	4013
2.14667	3882
2.15033	3758
2.15400	3644
2.15767	3539
2.16133	3442
2.16500	3350
2.16867	3262
2.17233	3177
2.17600	3093
2.17967	3011
2.18333	2933
2.18700	2859
2.19067	2792
2.19433	2728
2.19800	2668
2.20167	2610
2.20533	2554
2.20900	2498
2.21267	2445
2.21633	2400
2.22000	2360
2.22367	2321
2.22733	2279
2.23100	2235
2.23467	2191
2.23833	2148
2.24200	2104
2.24567	2062
2.24933	2023
2.25300	1985
2.25667	1947
2.26033	1909
2.26400	1875
2.26767	1846
2.27133	1824
2.27500	1804
2.27867	1784
2.28233	1763
2.28600	1742
2.28967	1718
2.29333	1692
2.29700	1666
2.30067	1641
2.30433	1618
2.30800	1595
2.31167	1570
2.31533	1545
2.31900	1526
2.32267	1510
2.32633	1492
2.33000	1471
2.33367	1449
2.33733	1431
2.34100	1416
2.34467	1405
2.34833	1394
2.35200	1381
2.35567	1369
2.35933	1357
2.36300	1343
2.36667	1328
2.37033	1315
2.37400	1304
2.37767	1291
2.38133	1277
2.38500	1264
2.38867	1253
2.39233	1241
2.39600	1229
2.39967	1218
2.40333	1212
2.40700	1207
2.41067	1200
2.41433	1191
2.41800	1181
2.42167	1172
2.42533	1161
2.42900	1151
2.43267	1141
2.43633	1130
2.44000	1121
2.44367	1108
2.44733	1096
2.45100	1088
2.45467	1080
2.45833	1071
2.46200	1063
2.46567	1054
2.46933	1047
2.47300	1041
2.47667	1034
2.48033	1026
2.48400	1019
2.48767	1014
2.49133	1011
2.49500	1004
2.49867	993
2.50233	981
2.50600	974
2.50967	970
2.51333	965
2.51700	961
2.52067	956
2.52433	948
2.52800	938
2.53167	928
2.53533	920
2.53900	913
2.54267	908
2.54633	904
2.55000	900
2.55367	897
2.55733	893
2.56100	889
2.56467	887
2.56833	885
2.57200	882
2.57567	876
2.57933	869
2.58300	863
2.58667	856
2.59033	850
2.59400	844
2.59767	840
2.60133	836
2.60500	831
2.60867	824
2.61233	816
2.61600	811
2.61967	805
2.62333	798
2.62700	793
2.63067	792
2.63433	789
2.63800	784
2.64167	777
2.64533	771
2.64900	765
2.65267	763
2.65633	764
2.66000	763
2.66367	762
2.66733	758
2.67100	752
2.67467	745
2.67833	741
2.68200	736
2.68567	733
2.68933	734
2.69300	738
2.69667	740
2.70033	739
2.70400	738
2.70767	736
2.71133	729
2.71500	722
2.71867	722
2.72233	728
2.72600	731
2.72967	728
2.73333	719
2.73700	708
2.74067	700
2.74433	696
2.74800	694
2.75167	693
2.75533	694
2.75900	695
2.76267	696
2.76633	699
2.77000	701
2.77367	700
2.77733	693
2.78100	681
2.78467	671
2.78833	663
2.79200	656
2.79567	654
2.79933	654
2.80300	658
2.80667	662
2.81033	664
2.81400	663
2.81767	659
2.82133	655
2.82500	649
2.82867	643
2.83233	637
2.83600	633
2.83967	633
2.84333	638
2.84700	644
2.85067	648
2.85433	650
2.85800	649
2.86167	648
2.86533	647
2.86900	641
2.87267	632
2.87633	624
2.88000	621
2.88367	619
2.88733	617
2.89100	617
2.89467	616
2.89833	616
2.90200	618
2.90567	622
2.90933	624
2.91300	625
2.91667	628
2.92033	630
2.92400	631
2.92767	630
2.93133	626
2.93500	621
2.93867	616
2.94233	614
2.94600	613
2.94967	611
2.95333	609
2.95700	604
2.96067	600
2.96433	603
2.96800	606
2.97167	608
2.97533	614
2.97900	625
2.98267	636
2.98633	646
2.99000	654
2.99367	660
2.99733	664
3.00100	665
3.00467	666
3.00833	666
3.01200	666
3.01567	668
3.01933	668
3.02300	668
3.02667	665
3.03033	663
3.03400	664
3.03767	670
3.04133	678
3.04500	686
3.04867	691
3.05233	692
3.05600	688
3.05967	678
3.06333	667
3.06700	659
3.07067	658
3.07433	664
3.07800	670
3.08167	672
3.08533	670
3.08900	668
3.09267	666
3.09633	666
3.10000	667
3.10367	667
3.10733	666
3.11100	668
3.11467	669
3.11833	665
3.12200	659
3.12567	655
3.12933	654
3.13300	654
3.13667	656
3.14033	660
3.14400	666
3.14767	668
3.15133	665
3.15500	662
3.15867	659
3.16233	656
3.16600	657
3.16967	661
3.17333	667
3.17700	669
3.18067	663
3.18433	652
3.18800	641
3.19167	634
3.19533	630
3.19900	629
3.20267	631
3.20633	632
3.21000	635
3.21367	640
3.21733	644
3.22100	645
3.22467	643
3.22833	640
3.23200	639
3.23567	637
3.23933	633
3.24300	626
3.24667	621
3.25033	619
3.25400	619
3.25767	620
3.26133	622
3.26500	625
3.26867	628
3.27233	632
3.27600	636
3.27967	639
3.28333	641
3.28700	641
3.29067	639
3.29433	637
3.29800	636
3.30167	637
3.30533	639
3.30900	640
3.31267	637
3.31633	634
3.32000	631
3.32367	628
3.32733	624
3.33100	619
3.33467	616
3.33833	617
3.34200	620
3.34567	623
3.34933	623
3.35300	619
3.35667	615
3.36033	611
3.36400	606
3.36767	603
3.37133	605
3.37500	610
3.37867	616
3.38233	615
3.38600	607
3.38967	599
3.39333	593
3.39700	595
3.40067	601
3.40433	605
3.40800	604
3.41167	602
3.41533	601
3.41900	600
3.42267	604
3.42633	610
3.43000	613
3.43367	609
3.43733	601
3.44100	595
3.44467	591
3.44833	589
3.45200	588
3.45567	588
3.45933	592
3.46300	599
3.46667	606
3.47033	611
3.47400	615
3.47767	619
3.48133	622
3.48500	621
3.48867	617
3.49233	615
3.49600	611
3.49967	607
3.50333	603
3.50700	601
3.51067	597
3.51433	590
3.51800	587
3.52167	587
3.52533	587
3.52900	588
3.53267	588
3.53633	588
3.54000	590
3.54367	594
3.54733	599
3.55100	599
3.55467	594
3.55833	587
3.56200	582
3.56567	579
3.56933	581
3.57300	587
3.57667	595
3.58033	601
3.58400	605
3.58767	605
3.59133	603
3.59500	603
3.59867	599
3.60233	590
3.60600	579
3.60967	573
3.61333	570
3.61700	569
3.62067	572
3.62433	576
3.62800	581
3.63167	586
3.63533	592
3.63900	597
3.64267	602
3.64633	604
3.65000	599
3.65367	591
3.65733	583
3.66100	578
3.66467	579
3.66833	583
3.67200	588
3.67567	596
3.67933	603
3.68300	605
3.68667	604
3.69033	603
3.69400	602
3.69767	601
3.70133	598
3.70500	595
3.70867	595
3.71233	601
3.71600	604
3.71967	606
3.72333	606
3.72700	608
3.73067	608
3.73433	606
3.73800	601
3.74167	593
3.74533	585
3.74900	579
3.75267	577
3.75633	579
3.76000	583
3.76367	590
3.76733	591
3.77100	587
3.77467	584
3.77833	584
3.78200	587
3.78567	590
3.78933	593
3.79300	597
3.79667	602
3.80033	605
3.80400	607
3.80767	607
3.81133	602
3.81500	593
3.81867	585
3.82233	582
3.82600	584
3.82967	586
3.83333	585
3.83700	586
3.84067	585
3.84433	582
3.84800	583
3.85167	586
3.85533	590
3.85900	595
3.86267	599
3.86633	601
3.87000	602
3.87367	602
3.87733	602
3.88100	605
3.88467	610
3.88833	612
3.89200	612
3.89567	612
3.89933	614
3.90300	616
3.90667	619
3.91033	621
3.91400	622
3.91767	620
3.92133	614
3.92500	609
3.92867	608
3.93233	608
3.93600	609
3.93967	612
3.94333	615
3.94700	618
3.95067	619
3.95433	620
3.95800	622
3.96167	625
3.96533	630
3.96900	634
3.97267	636
3.97633	633
3.98000	629
3.98367	624
3.98733	623
3.99100	628
3.99467	631
3.99833	630

[Chromatogram (Ch2)]
Interval(msec)	220
# of Points	1091
Start Time(min)	0.002
End Time(min)	3.998
R.Time (min)	Intensity
0.00167	-6
0.00533	-8
0.00900	-10
0.01267	-11
0.01633	-13
0.02000	-15
0.02367	-16
0.02733	-18
0.03100	-20
0.03467	-22
0.03833	-24
0.04200	-25
0.04567	-27
0.04933	-29
0.05300	-30
0.05667	-32
0.06033	-34
0.06400	-35
0.06767	-37
0.07133	-39
0.07500	-40
0.07867	-42
0.08233	-44
0.08600	-46
0.08967	-48
0.09333	-50
0.09700	-52
0.10067	-54
0.10433	-55
0.10800	-57
0.11167	-59
0.11533	-61
0.11900	-62
0.12267	-64
0.12633	-66
0.13000	-68
0.13367	-69
0.13733	-71
0.14100	-73
0.14467	-75
0.14833	-77
0.15200	-78
0.15567	-80
0.15933	-82
0.16300	-84
0.16667	-86
0.17033	-88
0.17400	-90
0.17767	-92
0.18133	-94
0.18500	-96
0.18867	-98
0.19233	-99
0.19600	-101
0.19967	-103
0.20333	-104
0.20700	-106
0.21067	-107
0.21433	-109
0.21800	-111
0.22167	-113
0.22533	-115
0.22900	-116
0.23267	-118
0.23633	-120
0.24000	-122
0.24367	-123
0.24733	-125
0.25100	-127
0.25467	-128
0.25833	-130
0.26200	-132
0.26567	-134
0.26933	-135
0.27300	-137
0.27667	-139
0.28033	-140
0.28400	-142
0.28767	-144
0.29133	-145
0.29500	-147
0.29867	-149
0.30233	-151
0.30600	-153
0.30967	-154
0.31333	-156
0.31700	-158
0.32067	-159
0.32433	-161
0.32800	-163
0.33167	-164
0.33533	-166
0.33900	-167
0.34267	-169
0.34633	-170
0.35000	-172
0.35367	-173
0.35733	-174
0.36100	-176
0.36467	-178
0.36833	-179
0.37200	-181
0.37567	-183
0.37933	-184
0.38300	-186
0.38667	-188
0.39033	-190
0.39400	-191
0.39767	-193
0.40133	-195
0.40500	-196
0.40867	-198
0.41233	-200
0.41600	-202
0.41967	-203
0.42333	-205
0.42700	-207
0.43067	-209
0.43433	-210
0.43800	-212
0.44167	-214
0.44533	-216
0.44900	-217
0.45267	-219
0.45633	-220
0.46000	-222
0.46367	-223
0.46733	-225
0.47100	-226
0.47467	-228
0.47833	-229
0.48200	-231
0.48567	-232
0.48933	-234
0.49300	-235
0.49667	-237
0.50033	-239
0.50400	-241
0.50767	-242
0.51133	-244
0.51500	-245
0.51867	-247
0.52233	-248
0.52600	-250
0.52967	-252
0.53333	-254
0.53700	-255
0.54067	-257
0.54433	-259
0.54800	-261
0.55167	-262
0.55533	-264
0.55900	-266
0.56267	-267
0.56633	-268
0.57000	-270
0.57367	-271
0.57733	-273
0.58100	-274
0.58467	-276
0.58833	-277
0.59200	-279
0.59567	-280
0.59933	-282
0.60300	-283
0.60667	-285
0.61033	-286
0.61400	-287
0.61767	-289
0.62133	-290
0.62500	-291
0.62867	-293
0.63233	-294
0.63600	-296
0.63967	-298
0.64333	-299
0.64700	-301
0.65067	-302
0.65433	-304
0.65800	-306
0.66167	-307
0.66533	-309
0.66900	-310
0.67267	-312
0.67633	-313
0.68000	-315
0.68367	-317
0.68733	-318
0.69100	-320
0.69467	-321
0.69833	-323
0.70200	-325
0.70567	-327
0.70933	-328
0.71300	-330
0.71667	-331
0.72033	-333
0.72400	-335
0.72767	-336
0.73133	-338
0.73500	-339
0.73867	-341
0.74233	-343
0.74600	-344
0.74967	-346
0.75333	-347
0.75700	-349
0.76067	-350
0.76433	-352
0.76800	-353
0.77167	-355
0.77533	-357
0.77900	-358
0.78267	-360
0.78633	-361
0.79000	-362
0.79367	-364
0.79733	-365
0.80100	-367
0.80467	-369
0.80833	-370
0.81200	-371
0.81567	-373
0.81933	-374
0.82300	-376
0.82667	-377
0.83033	-379
0.83400	-380
0.83767	-382
0.84133	-383
0.84500	-385
0.84867	-386
0.85233	-387
0.85600	-389
0.85967	-390
0.86333	-391
0.86700	-393
0.87067	-394
0.87433	-396
0.87800	-397
0.88167	-399
0.88533	-400
0.88900	-402
0.89267	-403
0.89633	-405
0.90000	-406
0.90367	-407
0.90733	-408
0.91100	-410
0.91467	-411
0.91833	-413
0.92200	-414
0.92567	-416
0.92933	-418
0.93300	-419
0.93667	-421
0.94033	-422
0.94400	-423
0.94767	-424
0.95133	-425
0.95500	-427
0.95867	-428
0.96233	-429
0.96600	-431
0.96967	-432
0.97333	-434
0.97700	-435
0.98067	-437
0.98433	-438
0.98800	-440
0.99167	-441
0.99533	-442
0.99900	-444
1.00267	-445
1.00633	-446
1.01000	-448
1.01367	-449
1.01733	-451
1.02100	-452
1.02467	-454
1.02833	-455
1.03200	-457
1.03567	-458
1.03933	-460
1.04300	-461
1.04667	-462
1.05033	-464
1.05400	-465
1.05767	-467
1.06133	-468
1.06500	-469
1.06867	-470
1.07233	-472
1.07600	-473
1.07967	-475
1.08333	-476
1.08700	-478
1.09067	-480
1.09433	-481
1.09800	-482
1.10167	-484
1.10533	-485
1.10900	-487
1.11267	-488
1.11633	-489
1.12000	-490
1.12367	-491
1.12733	-492
1.13100	-493
1.13467	-495
1.13833	-496
1.14200	-497
1.14567	-498
1.14933	-500
1.15300	-501
1.15667	-502
1.16033	-504
1.16400	-505
1.16767	-507
1.17133	-508
1.17500	-509
1.17867	-511
1.18233	-512
1.18600	-513
1.18967	-514
1.19333	-516
1.19700	-517
1.20067	-518
1.20433	-520
1.20800	-522
1.21167	-523
1.21533	-525
1.21900	-526
1.22267	-527
1.22633	-529
1.23000	-530
1.23367	-531
1.23733	-532
1.24100	-534
1.24467	-535
1.24833	-536
1.25200	-538
1.25567	-539
1.25933	-540
1.26300	-542
1.26667	-543
1.27033	-544
1.27400	-545
1.27767	-547
1.28133	-549
1.28500	-550
1.28867	-552
1.29233	-553
1.29600	-554
1.29967	-556
1.30333	-557
1.30700	-558
1.31067	-559
1.31433	-561
1.31800	-562
1.32167	-563
1.32533	-564
1.32900	-565
1.33267	-566
1.33633	-568
1.34000	-569
1.34367	-571
1.34733	-572
1.35100	-574
1.35467	-575
1.35833	-577
1.36200	-578
1.36567	-580
1.36933	-582
1.37300	-583
1.37667	-584
1.38033	-585
1.38400	-586
1.38767	-588
1.39133	-589
1.39500	-590
1.39867	-591
1.40233	-592
1.40600	-593
1.40967	-594
1.41333	-596
1.41700	-597
1.42067	-598
1.42433	-599
1.42800	-600
1.43167	-602
1.43533	-603
1.43900	-604
1.44267	-606
1.44633	-607
1.45000	-608
1.45367	-609
1.45733	-611
1.46100	-612
1.46467	-613
1.46833	-614
1.47200	-615
1.47567	-616
1.47933	-618
1.48300	-619
1.48667	-620
1.49033	-621
1.49400	-622
1.49767	-624
1.50133	-625
1.50500	-626
1.50867	-627
1.51233	-628
1.51600	-629
1.51967	-630
1.52333	-631
1.52700	-632
1.53067	-633
1.53433	-634
1.53800	-636
1.54167	-637
1.54533	-639
1.54900	-640
1.55267	-642
1.55633	-643
1.56000	-644
1.56367	-646
1.56733	-647
1.57100	-648
1.57467	-650
1.57833	-651
1.58200	-652
1.58567	-654
1.58933	-655
1.59300	-656
1.59667	-658
1.60033	-660
1.60400	-662
1.60767	-664
1.61133	-667
1.61500	-670
1.61867	-673
1.62233	-677
1.62600	-681
1.62967	-686
1.63333	-690
1.63700	-695
1.64067	-699
1.64433	-704
1.64800	-709
1.65167	-714
1.65533	-719
1.65900	-724
1.66267	-729
1.66633	-734
1.67000	-740
1.67367	-745
1.67733	-751
1.68100	-758
1.68467	-764
1.68833	-770
1.69200	-776
1.69567	-781
1.69933	-785
1.70300	-790
1.70667	-793
1.71033	-797
1.71400	-800
1.71767	-802
1.72133	-804
1.72500	-806
1.72867	-808
1.73233	-809
1.73600	-811
1.73967	-812
1.74333	-814
1.74700	-815
1.75067	-817
1.75433	-819
1.75800	-821
1.76167	-823
1.76533	-825
1.76900	-827
1.77267	-829
1.77633	-831
1.78000	-832
1.78367	-833
1.78733	-834
1.79100	-835
1.79467	-836
1.79833	-838
1.80200	-839
1.80567	-840
1.80933	-842
1.81300	-843
1.81667	-844
1.82033	-845
1.82400	-846
1.82767	-847
1.83133	-849
1.83500	-850
1.83867	-852
1.84233	-854
1.84600	-855
1.84967	-857
1.85333	-859
1.85700	-860
1.86067	-860
1.86433	-861
1.86800	-861
1.87167	-860
1.87533	-860
1.87900	-860
1.88267	-861
1.88633	-861
1.89000	-863
1.89367	-864
1.89733	-866
1.90100	-868
1.90467	-869
1.90833	-870
1.91200	-872
1.91567	-872
1.91933	-873
1.92300	-874
1.92667	-874
1.93033	-875
1.93400	-876
1.93767	-877
1.94133	-878
1.94500	-879
1.94867	-880
1.95233	-881
1.95600	-883
1.95967	-884
1.96333	-885
1.96700	-887
1.97067	-888
1.97433	-889
1.97800	-889
1.98167	-890
1.98533	-890
1.98900	-891
1.99267	-891
1.99633	-892
2.00000	-893
2.00367	-894
2.00733	-895
2.01100	-896
2.01467	-897
2.01833	-897
2.02200	-898
2.02567	-899
2.02933	-900
2.03300	-902
2.03667	-903
2.04033	-904
2.04400	-905
2.04767	-906
2.05133	-906
2.05500	-907
2.05867	-908
2.06233	-908
2.06600	-909
2.06967	-909
2.07333	-909
2.07700	-910
2.08067	-910
2.08433	-911
2.08800	-911
2.09167	-912
2.09533	-913
2.09900	-914
2.10267	-915
2.10633	-915
2.11000	-915
2.11367	-916
2.11733	-916
2.12100	-916
2.12467	-917
2.12833	-918
2.13200	-919
2.13567	-919
2.13933	-920
2.14300	-921
2.14667	-921
2.15033	-922
2.15400	-923
2.15767	-923
2.16133	-924
2.16500	-926
2.16867	-927
2.17233	-928
2.17600	-929
2.17967	-929
2.18333	-930
2.18700	-931
2.19067	-932
2.19433	-932
2.19800	-933
2.20167	-933
2.20533	-934
2.20900	-935
2.21267	-936
2.21633	-937
2.22000	-938
2.22367	-939
2.22733	-939
2.23100	-940
2.23467	-940
2.23833	-940
2.24200	-940
2.24567	-940
2.24933	-941
2.25300	-942
2.25667	-943
2.26033	-943
2.26400	-944
2.26767	-945
2.27133	-946
2.27500	-947
2.27867	-948
2.28233	-948
2.28600	-949
2.28967	-950
2.29333	-950
2.29700	-951
2.30067	-952
2.30433	-953
2.30800	-954
2.31167	-954
2.31533	-955
2.31900	-956
2.32267	-956
2.32633	-957
2.33000	-957
2.33367	-957
2.33733	-958
2.34100	-958
2.34467	-958
2.34833	-959
2.35200	-959
2.35567	-960
2.35933	-960
2.36300	-960
2.36667	-960
2.37033	-959
2.37400	-959
2.37767	-958
2.38133	-956
2.38500	-954
2.38867	-952
2.39233	-949
2.39600	-946
2.39967	-943
2.40333	-939
2.40700	-936
2.41067	-933
2.41433	-930
2.41800	-927
2.42167	-925
2.42533	-923
2.42900	-922
2.43267	-920
2.43633	-919
2.44000	-918
2.44367	-917
2.44733	-916
2.45100	-915
2.45467	-914
2.45833	-913
2.46200	-912
2.46567	-911
2.46933	-910
2.47300	-910
2.47667	-909
2.48033	-909
2.48400	-909
2.48767	-909
2.49133	-910
2.49500	-910
2.49867	-910
2.50233	-910
2.50600	-910
2.50967	-910
2.51333	-911
2.51700	-912
2.52067	-913
2.52433	-914
2.52800	-914
2.53167	-915
2.53533	-915
2.53900	-915
2.54267	-915
2.54633	-914
2.55000	-914
2.55367	-914
2.55733	-914
2.56100	-915
2.56467	-915
2.56833	-916
2.57200	-917
2.57567	-917
2.57933	-918
2.58300	-919
2.58667	-920
2.59033	-920
2.59400	-921
2.59767	-922
2.60133	-923
2.60500	-923
2.60867	-924
2.61233	-925
2.61600	-926
2.61967	-926
2.62333	-927
2.62700	-928
2.63067	-928
2.63433	-929
2.63800	-930
2.64167	-930
2.64533	-931
2.64900	-931
2.65267	-932
2.65633	-933
2.66000	-934
2.66367	-935
2.66733	-936
2.67100	-937
2.67467	-938
2.67833	-939
2.68200	-940
2.68567	-941
2.68933	-942
2.69300	-942
2.69667	-943
2.70033	-944
2.70400	-944
2.70767	-945
2.71133	-945
2.71500	-946
2.71867	-946
2.72233	-947
2.72600	-948
2.72967	-949
2.73333	-950
2.73700	-951
2.74067	-952
2.74433	-953
2.74800	-954
2.75167	-955
2.75533	-956
2.75900	-957
2.76267	-958
2.76633	-959
2.77000	-960
2.77367	-961
2.77733	-961
2.78100	-962
2.78467	-962
2.78833	-963
2.79200	-963
2.79567	-963
2.79933	-964
2.80300	-964
2.80667	-965
2.81033	-966
2.81400	-967
2.81767	-967
2.82133	-968
2.82500	-969
2.82867	-970
2.83233	-971
2.83600	-972
2.83967	-972
2.84333	-974
2.84700	-975
2.85067	-977
2.85433	-980
2.85800	-984
2.86167	-991
2.86533	-1001
2.86900	-1015
2.87267	-1033
2.87633	-1055
2.88000	-1083
2.88367	-1115
2.88733	-1153
2.89100	-1196
2.89467	-1243
2.89833	-1296
2.90200	-1353
2.90567	-1414
2.90933	-1479
2.91300	-1547
2.91667	-1619
2.92033	-1694
2.92400	-1771
2.92767	-1851
2.93133	-1933
2.93500	-2018
2.93867	-2104
2.94233	-2193
2.94600	-2282
2.94967	-2373
2.95333	-2462
2.95700	-2539
2.96067	-2590
2.96433	-2608
2.96800	-2589
2.97167	-2537
2.97533	-2459
2.97900	-2362
2.98267	-2255
2.98633	-2142
2.99000	-2030
2.99367	-1922
2.99733	-1820
3.00100	-1726
3.00467	-1640
3.00833	-1562
3.01200	-1493
3.01567	-1432
3.01933	-1379
3.02300	-1332
3.02667	-1291
3.03033	-1256
3.03400	-1226
3.03767	-1199
3.04133	-1177
3.04500	-1158
3.04867	-1142
3.05233	-1128
3.05600	-1117
3.05967	-1107
3.06333	-1099
3.06700	-1092
3.07067	-1086
3.07433	-1081
3.07800	-1076
3.08167	-1072
3.08533	-1069
3.08900	-1067
3.09267	-1065
3.09633	-1063
3.10000	-1062
3.10367	-1061
3.10733	-1060
3.11100	-1060
3.11467	-1059
3.11833	-1059
3.12200	-1059
3.12567	-1059
3.12933	-1059
3.13300	-1059
3.13667	-1059
3.14033	-1059
3.14400	-1059
3.14767	-1059
3.15133	-1060
3.15500	-1060
3.15867	-1060
3.16233	-1060
3.16600	-1061
3.16967	-1061
3.17333	-1061
3.17700	-1062
3.18067	-1062
3.18433	-1062
3.18800	-1063
3.19167	-1063
3.19533	-1064
3.19900	-1064
3.20267	-1065
3.20633	-1066
3.21000	-1066
3.21367	-1067
3.21733	-1067
3.22100	-1068
3.22467	-1068
3.22833	-1069
3.23200	-1069
3.23567	-1070
3.23933	-1071
3.24300	-1072
3.24667	-1072
3.25033	-1072
3.25400	-1073
3.25767	-1074
3.26133	-1074
3.26500	-1075
3.26867	-1076
3.27233	-1076
3.27600	-1077
3.27967	-1077
3.28333	-1078
3.28700	-1079
3.29067	-1080
3.29433	-1080
3.29800	-1081
3.30167	-1082
3.30533	-1083
3.30900	-1083
3.31267	-1084
3.31633	-1085
3.32000	-1085
3.32367	-1085
3.32733	-1086
3.33100	-1086
3.33467	-1086
3.33833	-1087
3.34200	-1087
3.34567	-1088
3.34933	-1088
3.35300	-1089
3.35667	-1090
3.36033	-1090
3.36400	-1091
3.36767	-1091
3.37133	-1092
3.37500	-1092
3.37867	-1093
3.38233	-1094
3.38600	-1094
3.38967	-1095
3.39333	-1096
3.39700	-1096
3.40067	-1097
3.40433	-1098
3.40800	-1098
3.41167	-1099
3.41533	-1100
3.41900	-1101
3.42267	-1101
3.42633	-1102
3.43000	-1103
3.43367	-1104
3.43733	-1104
3.44100	-1105
3.44467	-1106
3.44833	-1106
3.45200	-1107
3.45567	-1107
3.45933	-1108
3.46300	-1109
3.46667	-1109
3.47033	-1110
3.47400	-1111
3.47767	-1112
3.48133	-1113
3.48500	-1114
3.48867	-1115
3.49233	-1116
3.49600	-1116
3.49967	-1117
3.50333	-1118
3.50700	-1118
3.51067	-1119
3.51433	-1120
3.51800	-1121
3.52167	-1121
3.52533	-1122
3.52900	-1123
3.53267	-1123
3.53633	-1124
3.54000	-1125
3.54367	-1126
3.54733	-1127
3.55100	-1128
3.55467	-1129
3.55833	-1130
3.56200	-1130
3.56567	-1131
3.56933	-1132
3.57300	-1133
3.57667	-1133
3.58033	-1134
3.58400	-1135
3.58767	-1135
3.59133	-1136
3.59500	-1136
3.59867	-1137
3.60233	-1138
3.60600	-1138
3.60967	-1139
3.61333	-1140
3.61700	-1141
3.62067	-1141
3.62433	-1142
3.62800	-1143
3.63167	-1144
3.63533	-1144
3.63900	-1145
3.64267	-1146
3.64633	-1146
3.65000	-1147
3.65367	-1148
3.65733	-1148
3.66100	-1149
3.66467	-1150
3.66833	-1150
3.67200	-1151
3.67567	-1152
3.67933	-1152
3.68300	-1153
3.68667	-1154
3.69033	-1154
3.69400	-1155
3.69767	-1156
3.70133	-1157
3.70500	-1158
3.70867	-1159
3.71233	-1159
3.71600	-1160
3.71967	-1161
3.72333	-1162
3.72700	-1163
3.73067	-1164
3.73433	-1164
3.73800	-1165
3.74167	-1166
3.74533	-1166
3.74900	-1167
3.75267	-1168
3.75633	-1168
3.76000	-1169
3.76367	-1170
3.76733	-1171
3.77100	-1171
3.77467	-1172
3.77833	-1173
3.78200	-1173
3.78567	-1173
3.78933	-1174
3.79300	-1174
3.79667	-1175
3.80033	-1175
3.80400	-1176
3.80767	-1176
3.81133	-1177
3.81500	-1178
3.81867	-1179
3.82233	-1179
3.82600	-1180
3.82967	-1181
3.83333	-1182
3.83700	-1182
3.84067	-1183
3.84433	-1184
3.84800	-1184
3.85167	-1185
3.85533	-1186
3.85900	-1186
3.86267	-1187
3.86633	-1188
3.87000	-1189
3.87367	-1189
3.87733	-1190
3.88100	-1191
3.88467	-1191
3.88833	-1192
3.89200	-1193
3.89567	-1194
3.89933	-1194
3.90300	-1195
3.90667	-1196
3.91033	-1197
3.91400	-1198
3.91767	-1199
3.92133	-1200
3.92500	-1200
3.92867	-1201
3.93233	-1201
3.93600	-1202
3.93967	-1203
3.94333	-1203
3.94700	-1204
3.95067	-1204
3.95433	-1204
3.95800	-1205
3.96167	-1205
3.96533	-1206
3.96900	-1207
3.97267	-1207
3.97633	-1208
3.98000	-1208
3.98367	-1209
3.98733	-1209
3.99100	-1210
3.99467	-1210
3.99833	-1211

[Chromatogram (Ch3)]
Interval(msec)	220
# of Points	1091
Start Time(min)	0.002
End Time(min)	3.998
R.Time (min)	Intensity
0.00167	-1
0.00533	-2
0.00900	0
0.01267	2
0.01633	3
0.02000	2
0.02367	2
0.02733	-1
0.03100	-2
0.03467	-1
0.03833	-0
0.04200	1
0.04567	3
0.04933	2
0.05300	0
0.05667	0
0.06033	-0
0.06400	1
0.06767	1
0.07133	1
0.07500	-3
0.07867	-6
0.08233	-3
0.08600	-1
0.08967	-1
0.09333	-2
0.09700	-3
0.10067	-5
0.10433	-5
0.10800	-4
0.11167	-1
0.11533	-1
0.11900	-2
0.12267	-4
0.12633	-7
0.13000	-8
0.13367	-7
0.13733	-4
0.14100	-1
0.14467	-1
0.14833	-0
0.15200	-0
0.15567	-2
0.15933	-4
0.16300	-5
0.16667	-6
0.17033	-6
0.17400	-5
0.17767	-5
0.18133	-6
0.18500	-8
0.18867	-10
0.19233	-8
0.19600	-6
0.19967	-3
0.20333	-4
0.20700	-5
0.21067	-5
0.21433	-4
0.21800	-4
0.22167	-5
0.22533	-6
0.22900	-8
0.23267	-10
0.23633	-11
0.24000	-11
0.24367	-11
0.24733	-10
0.25100	-8
0.25467	-6
0.25833	-7
0.26200	-7
0.26567	-5
0.26933	-2
0.27300	0
0.27667	0
0.28033	-2
0.28400	-4
0.28767	-6
0.29133	-8
0.29500	-10
0.29867	-9
0.30233	-8
0.30600	-7
0.30967	-7
0.31333	-8
0.31700	-8
0.32067	-8
0.32433	-9
0.32800	-10
0.33167	-10
0.33533	-9
0.33900	-10
0.34267	-12
0.34633	-12
0.35000	-10
0.35367	-8
0.35733	-6
0.36100	-6
0.36467	-7
0.36833	-7
0.37200	-7
0.37567	-10
0.37933	-10
0.38300	-11
0.38667	-10
0.39033	-8
0.39400	-9
0.39767	-8
0.40133	-6
0.40500	-4
0.40867	-3
0.41233	-4
0.41600	-5
0.41967	-5
0.42333	-6
0.42700	-8
0.43067	-8
0.43433	-9
0.43800	-9
0.44167	-7
0.44533	-6
0.44900	-6
0.45267	-7
0.45633	-7
0.46000	-8
0.46367	-11
0.46733	-13
0.47100	-13
0.47467	-12
0.47833	-11
0.48200	-8
0.48567	-7
0.48933	-8
0.49300	-10
0.49667	-12
0.50033	-12
0.50400	-9
0.50767	-8
0.51133	-7
0.51500	-8
0.51867	-11
0.52233	-13
0.52600	-13
0.52967	-12
0.53333	-11
0.53700	-10
0.54067	-10
0.54433	-11
0.54800	-11
0.55167	-12
0.55533	-12
0.55900	-11
0.56267	-10
0.56633	-8
0.57000	-7
0.57367	-7
0.57733	-7
0.58100	-7
0.58467	-7
0.58833	-7
0.59200	-8
0.59567	-8
0.59933	-8
0.60300	-11
0.60667	-11
0.61033	-10
0.61400	-12
0.61767	-14
0.62133	-15
0.62500	-16
0.62867	-16
0.63233	-14
0.63600	-15
0.63967	-15
0.64333	-15
0.64700	-16
0.65067	-16
0.65433	-14
0.65800	-13
0.66167	-12
0.66533	-14
0.66900	-14
0.67267	-12
0.67633	-12
0.68000	-12
0.68367	-10
0.68733	-11
0.69100	-12
0.69467	-13
0.69833	-14
0.70200	-12
0.70567	-10
0.70933	-8
0.71300	-8
0.71667	-10
0.72033	-12
0.72400	-12
0.72767	-10
0.73133	-10
0.73500	-10
0.73867	-10
0.74233	-12
0.74600	-15
0.74967	-16
0.75333	-15
0.75700	-13
0.76067	-12
0.76433	-12
0.76800	-12
0.77167	-12
0.77533	-12
0.77900	-13
0.78267	-10
0.78633	-8
0.79000	-9
0.79367	-12
0.79733	-15
0.80100	-16
0.80467	-15
0.80833	-15
0.81200	-17
0.81567	-18
0.81933	-17
0.82300	-14
0.82667	-13
0.83033	-13
0.83400	-13
0.83767	-13
0.84133	-14
0.84500	-16
0.84867	-18
0.85233	-19
0.85600	-18
0.85967	-17
0.86333	-15
0.86700	-14
0.87067	-14
0.87433	-15
0.87800	-16
0.88167	-18
0.88533	-20
0.88900	-20
0.89267	-18
0.89633	-15
0.90000	-17
0.90367	-16
0.90733	-15
0.91100	-15
0.91467	-15
0.91833	-15
0.92200	-16
0.92567	-16
0.92933	-15
0.93300	-14
0.93667	-13
0.94033	-12
0.94400	-11
0.94767	-11
0.95133	-11
0.95500	-12
0.95867	-14
0.96233	-15
0.96600	-13
0.96967	-15
0.97333	-18
0.97700	-21
0.98067	-22
0.98433	-22
0.98800	-22
0.99167	-22
0.99533	-20
0.99900	-18
1.00267	-16
1.00633	-16
1.01000	-14
1.01367	-13
1.01733	-13
1.02100	-16
1.02467	-18
1.02833	-17
1.03200	-17
1.03567	-16
1.03933	-15
1.04300	-15
1.04667	-17
1.05033	-18
1.05400	-16
1.05767	-13
1.06133	-12
1.06500	-12
1.06867	-14
1.07233	-17
1.07600	-19
1.07967	-20
1.08333	-19
1.08700	-18
1.09067	-19
1.09433	-17
1.09800	-14
1.10167	-16
1.10533	-18
1.10900	-21
1.11267	-22
1.11633	-23
1.12000	-24
1.12367	-23
1.12733	-20
1.13100	-19
1.13467	-20
1.13833	-24
1.14200	-26
1.14567	-26
1.14933	-25
1.15300	-25
1.15667	-24
1.16033	-25
1.16400	-23
1.16767	-20
1.17133	-16
1.17500	-13
1.17867	-13
1.18233	-14
1.18600	-15
1.18967	-18
1.19333	-18
1.19700	-19
1.20067	-20
1.20433	-21
1.20800	-22
1.21167	-22
1.21533	-22
1.21900	-22
1.22267	-23
1.22633	-26
1.23000	-27
1.23367	-29
1.23733	-27
1.24100	-25
1.24467	-24
1.24833	-24
1.25200	-24
1.25567	-25
1.25933	-26
1.26300	-28
1.26667	-28
1.27033	-27
1.27400	-27
1.27767	-26
1.28133	-26
1.28500	-26
1.28867	-25
1.29233	-26
1.29600	-27
1.29967	-26
1.30333	-27
1.30700	-26
1.31067	-24
1.31433	-23
1.31800	-25
1.32167	-25
1.32533	-23
1.32900	-22
1.33267	-22
1.33633	-23
1.34000	-25
1.34367	-28
1.34733	-30
1.35100	-30
1.35467	-27
1.35833	-26
1.36200	-24
1.36567	-25
1.36933	-25
1.37300	-25
1.37667	-28
1.38033	-31
1.38400	-29
1.38767	-27
1.39133	-25
1.39500	-24
1.39867	-23
1.40233	-24
1.40600	-26
1.40967	-27
1.41333	-28
1.41700	-27
1.42067	-27
1.42433	-27
1.42800	-27
1.43167	-28
1.43533	-27
1.43900	-27
1.44267	-26
1.44633	-25
1.45000	-24
1.45367	-26
1.45733	-29
1.46100	-30
1.46467	-30
1.46833	-29
1.47200	-28
1.47567	-25
1.47933	-24
1.48300	-24
1.48667	-24
1.49033	-25
1.49400	-25
1.49767	-23
1.50133	-23
1.50500	-24
1.50867	-25
1.51233	-26
1.51600	-27
1.51967	-28
1.52333	-28
1.52700	-29
1.53067	-29
1.53433	-28
1.53800	-27
1.54167	-25
1.54533	-23
1.54900	-24
1.55267	-24
1.55633	-24
1.56000	-24
1.56367	-23
1.56733	-23
1.57100	-25
1.57467	-26
1.57833	-25
1.58200	-24
1.58567	-24
1.58933	-25
1.59300	-26
1.59667	-27
1.60033	-27
1.60400	-26
1.60767	-27
1.61133	-26
1.61500	-27
1.61867	-27
1.62233	-25
1.62600	-22
1.62967	-20
1.63333	-18
1.63700	-19
1.64067	-18
1.64433	-18
1.64800	-18
1.65167	-17
1.65533	-16
1.65900	-13
1.66267	-11
1.66633	-11
1.67000	-11
1.67367	-9
1.67733	-6
1.68100	-3
1.68467	-0
1.68833	0
1.69200	-2
1.69567	-3
1.69933	-2
1.70300	0
1.70667	2
1.71033	3
1.71400	1
1.71767	0
1.72133	3
1.72500	4
1.72867	8
1.73233	9
1.73600	9
1.73967	9
1.74333	10
1.74700	9
1.75067	9
1.75433	9
1.75800	11
1.76167	14
1.76533	16
1.76900	17
1.77267	17
1.77633	18
1.78000	19
1.78367	19
1.78733	21
1.79100	23
1.79467	25
1.79833	24
1.80200	23
1.80567	23
1.80933	23
1.81300	24
1.81667	23
1.82033	24
1.82400	27
1.82767	29
1.83133	29
1.83500	29
1.83867	27
1.84233	26
1.84600	28
1.84967	31
1.85333	32
1.85700	31
1.86067	30
1.86433	31
1.86800	32
1.87167	33
1.87533	33
1.87900	32
1.88267	33
1.88633	35
1.89000	35
1.89367	36
1.89733	37
1.90100	39
1.90467	40
1.90833	42
1.91200	42
1.91567	41
1.91933	41
1.92300	39
1.92667	37
1.93033	38
1.93400	40
1.93767	44
1.94133	46
1.94500	48
1.94867	49
1.95233	51
1.95600	53
1.95967	53
1.96333	54
1.96700	54
1.97067	51
1.97433	50
1.97800	52
1.98167	54
1.98533	57
1.98900	61
1.99267	64
1.99633	68
2.00000	71
2.00367	73
2.00733	76
2.01100	75
2.01467	74
2.01833	76
2.02200	79
2.02567	84
2.02933	88
2.03300	87
2.03667	88
2.04033	89
2.04400	88
2.04767	87
2.05133	86
2.05500	90
2.05867	94
2.06233	98
2.06600	100
2.06967	98
2.07333	98
2.07700	102
2.08067	104
2.08433	105
2.08800	106
2.09167	108
2.09533	110
2.09900	110
2.10267	110
2.10633	115
2.11000	118
2.11367	118
2.11733	118
2.12100	120
2.12467	121
2.12833	122
2.13200	123
2.13567	122
2.13933	122
2.14300	124
2.14667	128
2.15033	133
2.15400	137
2.15767	137
2.16133	135
2.16500	136
2.16867	137
2.17233	139
2.17600	141
2.17967	141
2.18333	143
2.18700	148
2.19067	151
2.19433	152
2.19800	154
2.20167	158
2.20533	164
2.20900	168
2.21267	168
2.21633	170
2.22000	169
2.22367	167
2.22733	166
2.23100	168
2.23467	171
2.23833	172
2.24200	171
2.24567	174
2.24933	178
2.25300	183
2.25667	187
2.26033	190
2.26400	190
2.26767	193
2.27133	199
2.27500	204
2.27867	206
2.28233	207
2.28600	208
2.28967	207
2.29333	209
2.29700	212
2.30067	214
2.30433	216
2.30800	219
2.31167	219
2.31533	219
2.31900	219
2.32267	219
2.32633	220
2.33000	222
2.33367	223
2.33733	226
2.34100	230
2.34467	233
2.34833	238
2.35200	245
2.35567	250
2.35933	252
2.36300	254
2.36667	255
2.37033	257
2.37400	259
2.37767	261
2.38133	261
2.38500	260
2.38867	260
2.39233	262
2.39600	264
2.39967	266
2.40333	268
2.40700	271
2.41067	275
2.41433	279
2.41800	282
2.42167	285
2.42533	287
2.42900	289
2.43267	292
2.43633	292
2.44000	295
2.44367	320
2.44733	386
2.45100	461
2.45467	511
2.45833	528
2.46200	532
2.46567	536
2.46933	529
2.47300	507
2.47667	477
2.48033	447
2.48400	420
2.48767	403
2.49133	396
2.49500	399
2.49867	410
2.50233	422
2.50600	426
2.50967	422
2.51333	413
2.51700	399
2.52067	381
2.52433	363
2.52800	350
2.53167	336
2.53533	327
2.53900	323
2.54267	322
2.54633	324
2.55000	330
2.55367	339
2.55733	349
2.56100	363
2.56467	380
2.56833	395
2.57200	409
2.57567	420
2.57933	432
2.58300	443
2.58667	451
2.59033	455
2.59400	450
2.59767	439
2.60133	422
2.60500	400
2.60867	370
2.61233	333
2.61600	288
2.61967	240
2.62333	190
2.62700	144
2.63067	102
2.63433	65
2.63800	36
2.64167	14
2.64533	-2
2.64900	-9
2.65267	-9
2.65633	-5
2.66000	2
2.66367	11
2.66733	22
2.67100	34
2.67467	47
2.67833	62
2.68200	76
2.68567	91
2.68933	103
2.69300	116
2.69667	128
2.70033	140
2.70400	151
2.70767	165
2.71133	177
2.71500	189
2.71867	202
2.72233	218
2.72600	233
2.72967	245
2.73333	256
2.73700	268
2.74067	281
2.74433	292
2.74800	298
2.75167	301
2.75533	305
2.75900	310
2.76267	316
2.76633	320
2.77000	320
2.77367	319
2.77733	320
2.78100	322
2.78467	325
2.78833	327
2.79200	325
2.79567	319
2.79933	313
2.80300	309
2.80667	305
2.81033	301
2.81400	300
2.81767	299
2.82133	302
2.82500	320
2.82867	376
2.83233	504
2.83600	759
2.83967	1213
2.84333	1937
2.84700	2979
2.85067	4358
2.85433	6037
2.85800	7942
2.86167	9946
2.86533	11908
2.86900	13677
2.87267	15125
2.87633	16158
2.88000	16724
2.88367	16828
2.88733	16521
2.89100	15875
2.89467	14979
2.89833	13922
2.90200	12782
2.90567	11617
2.90933	10469
2.91300	9372
2.91667	8348
2.92033	7407
2.92400	6554
2.92767	5784
2.93133	5094
2.93500	4477
2.93867	3932
2.94233	3454
2.94600	3034
2.94967	2667
2.95333	2347
2.95700	2066
2.96067	1818
2.96433	1603
2.96800	1420
2.97167	1264
2.97533	1127
2.97900	1007
2.98267	903
2.98633	815
2.99000	738
2.99367	669
2.99733	609
3.00100	558
3.00467	516
3.00833	483
3.01200	454
3.01567	426
3.01933	404
3.02300	387
3.02667	373
3.03033	359
3.03400	345
3.03767	334
3.04133	324
3.04500	316
3.04867	309
3.05233	304
3.05600	300
3.05967	298
3.06333	295
3.06700	289
3.07067	285
3.07433	285
3.07800	286
3.08167	284
3.08533	282
3.08900	282
3.09267	280
3.09633	278
3.10000	276
3.10367	276
3.10733	275
3.11100	273
3.11467	273
3.11833	274
3.12200	276
3.12567	276
3.12933	276
3.13300	277
3.13667	277
3.14033	276
3.14400	275
3.14767	275
3.15133	275
3.15500	273
3.15867	271
3.16233	269
3.16600	267
3.16967	264
3.17333	261
3.17700	256
3.18067	253
3.18433	252
3.18800	251
3.19167	249
3.19533	248
3.19900	248
3.20267	246
3.20633	241
3.21000	238
3.21367	234
3.21733	232
3.22100	230
3.22467	226
3.22833	222
3.23200	219
3.23567	214
3.23933	210
3.24300	207
3.24667	205
3.25033	200
3.25400	195
3.25767	189
3.26133	185
3.26500	180
3.26867	177
3.27233	174
3.27600	171
3.27967	170
3.28333	168
3.28700	164
3.29067	161
3.29433	158
3.29800	153
3.30167	151
3.30533	149
3.30900	147
3.31267	143
3.31633	136
3.32000	130
3.32367	125
3.32733	122
3.33100	116
3.33467	112
3.33833	108
3.34200	102
3.34567	99
3.34933	97
3.35300	93
3.35667	92
3.36033	91
3.36400	89
3.36767	86
3.37133	85
3.37500	83
3.37867	86
3.38233	84
3.38600	79
3.38967	74
3.39333	70
3.39700	68
3.40067	65
3.40433	63
3.40800	61
3.41167	61
3.41533	62
3.41900	61
3.42267	59
3.42633	54
3.43000	49
3.43367	47
3.43733	46
3.44100	47
3.44467	46
3.44833	43
3.45200	39
3.45567	38
3.45933	39
3.46300	41
3.46667	41
3.47033	41
3.47400	40
3.47767	39
3.48133	36
3.48500	33
3.48867	33
3.49233	33
3.49600	31
3.49967	31
3.50333	33
3.50700	33
3.51067	31
3.51433	28
3.51800	25
3.52167	23
3.52533	23
3.52900	23
3.53267	23
3.53633	25
3.54000	24
3.54367	22
3.54733	20
3.55100	18
3.55467	18
3.55833	19
3.56200	20
3.56567	20
3.56933	17
3.57300	14
3.57667	14
3.58033	15
3.58400	13
3.58767	11
3.59133	12
3.59500	12
3.59867	13
3.60233	13
3.60600	12
3.60967	14
3.61333	16
3.61700	18
3.62067	19
3.62433	20
3.62800	17
3.63167	13
3.63533	11
3.63900	9
3.64267	10
3.64633	13
3.65000	15
3.65367	13
3.65733	13
3.66100	11
3.66467	11
3.66833	11
3.67200	11
3.67567	12
3.67933	14
3.68300	14
3.68667	13
3.69033	14
3.69400	15
3.69767	17
3.70133	18
3.70500	20
3.70867	19
3.71233	18
3.71600	19
3.71967	18
3.72333	15
3.72700	14
3.73067	16
3.73433	20
3.73800	22
3.74167	23
3.74533	21
3.74900	21
3.75267	20
3.75633	19
3.76000	20
3.76367	18
3.76733	16
3.77100	13
3.77467	13
3.77833	16
3.78200	18
3.78567	22
3.78933	24
3.79300	26
3.79667	27
3.80033	25
3.80400	23
3.80767	20
3.81133	21
3.81500	25
3.81867	28
3.82233	27
3.82600	25
3.82967	24
3.83333	24
3.83700	25
3.84067	27
3.84433	29
3.84800	29
3.85167	29
3.85533	27
3.85900	26
3.86267	23
3.86633	24
3.87000	27
3.87367	29
3.87733	29
3.88100	30
3.88467	29
3.88833	31
3.89200	33
3.89567	35
3.89933	36
3.90300	37
3.90667	37
3.91033	36
3.91400	36
3.91767	38
3.92133	40
3.92500	41
3.92867	42
3.93233	43
3.93600	45
3.93967	44
3.94333	42
3.94700	42
3.95067	42
3.95433	45
3.95800	47
3.96167	49
3.96533	50
3.96900	49
3.97267	47
3.97633	47
3.98000	46
3.98367	44
3.98733	44
3.99100	45
3.99467	47
3.99833	47

[Status Trace (Column Oven Temperature)]
Interval(msec)	1000
# of Points	240
Start Time(min)	0.004
End Time(min)	3.987
Intensity Units	
Intensity Multiplier	1
R.Time (min)	Intensity
0.00382	35.01
0.02048	35.01
0.03715	35.01
0.05382	35.00
0.07048	35.00
0.08715	35.00
0.10382	35.00
0.12048	35.00
0.13715	35.00
0.15382	35.00
0.17048	34.99
0.18715	34.99
0.20382	34.99
0.22048	35.00
0.23715	35.00
0.25382	34.99
0.27048	35.00
0.28715	35.00
0.30382	35.01
0.32048	35.00
0.33715	35.00
0.35382	35.00
0.37048	35.00
0.38715	34.99
0.40382	34.99
0.42048	34.99
0.43715	34.99
0.45382	35.00
0.47048	35.00
0.48715	35.00
0.50382	35.01
0.52048	35.02
0.53715	35.02
0.55382	35.02
0.57048	35.02
0.58715	35.02
0.60382	35.01
0.62048	35.00
0.63715	35.00
0.65382	35.00
0.67048	34.99
0.68715	34.99
0.70382	35.00
0.72048	35.00
0.73715	35.00
0.75382	35.00
0.77048	35.00
0.78715	35.01
0.80382	35.01
0.82048	35.01
0.83715	35.01
0.85382	35.01
0.87048	35.01
0.88715	35.01
0.90382	35.01
0.92048	35.01
0.93715	35.01
0.95382	35.00
0.97048	35.00
0.98715	35.00
1.00382	34.99
1.02048	34.99
1.03715	34.99
1.05382	35.00
1.07048	35.00
1.08715	35.01
1.10382	35.02
1.12048	35.01
1.13715	35.00
1.15382	35.00
1.17048	35.00
1.18715	35.00
1.20382	35.01
1.22048	35.01
1.23715	35.00
1.25382	34.99
1.27048	34.99
1.28715	34.99
1.30382	34.99
1.32048	34.99
1.33715	35.00
1.35382	35.00
1.37048	35.00
1.38715	35.01
1.40382	35.01
1.42048	35.01
1.43715	35.01
1.45382	35.01
1.47048	35.01
1.48715	35.01
1.50382	35.00
1.52048	35.00
1.53715	35.00
1.55382	35.01
1.57048	35.01
1.58715	35.01
1.60382	35.06
1.62048	35.17
1.63715	35.34
1.65382	35.57
1.67048	35.87
1.68715	36.24
1.70382	36.62
1.72048	36.95
1.73715	37.26
1.75382	37.61
1.77048	37.94
1.78715	38.27
1.80382	38.61
1.82048	38.93
1.83715	39.29
1.85382	39.61
1.87048	39.91
1.88715	40.24
1.90382	40.57
1.92048	40.89
1.93715	41.22
1.95382	41.56
1.97048	41.90
1.98715	42.22
2.00382	42.54
2.02048	42.87
2.03715	43.21
2.05382	43.55
2.07048	43.86
2.08715	44.18
2.10382	44.51
2.12048	44.82
2.13715	45.14
2.15382	45.47
2.17048	45.80
2.18715	46.13
2.20382	46.46
2.22048	46.79
2.23715	47.11
2.25382	47.44
2.27048	47.77
2.28715	48.10
2.30382	48.43
2.32048	48.75
2.33715	49.08
2.35382	49.40
2.37048	49.64
2.38715	49.74
2.40382	49.74
2.42048	49.74
2.43715	49.75
2.45382	49.76
2.47048	49.77
2.48715	49.78
2.50382	49.79
2.52048	49.82
2.53715	49.81
2.55382	49.80
2.57048	49.82
2.58715	49.81
2.60382	49.81
2.62048	49.84
2.63715	49.84
2.65382	49.84
2.67048	49.85
2.68715	49.86
2.70382	49.85
2.72048	49.85
2.73715	49.85
2.75382	49.87
2.77048	49.88
2.78715	49.88
2.80382	49.86
2.82048	49.87
2.83715	49.86
2.85382	49.86
2.87048	49.87
2.88715	49.89
2.90382	49.90
2.92048	49.91
2.93715	49.93
2.95382	49.95
2.97048	49.95
2.98715	49.96
3.00382	49.97
3.02048	49.99
3.03715	50.00
3.05382	50.00
3.07048	50.01
3.08715	50.02
3.10382	50.03
3.12048	50.04
3.13715	50.05
3.15382	50.06
3.17048	50.06
3.18715	50.06
3.20382	50.07
3.22048	50.08
3.23715	50.09
3.25382	50.09
3.27048	50.09
3.28715	50.10
3.30382	50.12
3.32048	50.11
3.33715	50.09
3.35382	50.08
3.37048	50.07
3.38715	50.06
3.40382	50.05
3.42048	50.06
3.43715	50.04
3.45382	50.04
3.47048	50.04
3.48715	50.03
3.50382	50.03
3.52048	50.04
3.53715	50.03
3.55382	50.03
3.57048	50.03
3.58715	50.04
3.60382	50.05
3.62048	50.05
3.63715	50.04
3.65382	50.04
3.67048	50.04
3.68715	50.04
3.70382	50.04
3.72048	50.05
3.73715	50.06
3.75382	50.07
3.77048	50.08
3.78715	50.07
3.80382	50.06
3.82048	50.05
3.83715	50.06
3.85382	50.06
3.87048	50.06
3.88715	50.06
3.90382	50.07
3.92048	50.08
3.93715	50.08
3.95382	50.08
3.97048	50.08
3.98715	50.08

[Status Trace (Injection Unit Temperature)]
Interval(msec)	1000
# of Points	240
Start Time(min)	0.004
End Time(min)	3.987
Intensity Units	
Intensity Multiplier	1
R.Time (min)	Intensity
0.00382	100.01
0.02048	100.00
0.03715	100.00
0.05382	100.01
0.07048	100.00
0.08715	100.01
0.10382	100.01
0.12048	100.01
0.13715	100.01
0.15382	100.00
0.17048	100.01
0.18715	100.00
0.20382	100.00
0.22048	100.01
0.23715	100.01
0.25382	100.00
0.27048	100.01
0.28715	100.00
0.30382	100.01
0.32048	100.01
0.33715	100.01
0.35382	100.00
0.37048	100.01
0.38715	100.00
0.40382	100.01
0.42048	100.01
0.43715	100.01
0.45382	100.01
0.47048	100.01
0.48715	100.00
0.50382	100.01
0.52048	100.01
0.53715	100.00
0.55382	100.01
0.57048	100.01
0.58715	100.01
0.60382	100.00
0.62048	100.01
0.63715	100.01
0.65382	100.00
0.67048	100.01
0.68715	100.01
0.70382	100.01
0.72048	100.01
0.73715	100.01
0.75382	100.01
0.77048	100.00
0.78715	100.00
0.80382	100.01
0.82048	100.00
0.83715	100.01
0.85382	100.01
0.87048	100.00
0.88715	100.01
0.90382	100.01
0.92048	100.01
0.93715	100.01
0.95382	100.01
0.97048	100.01
0.98715	100.01
1.00382	100.01
1.02048	100.00
1.03715	100.01
1.05382	100.01
1.07048	100.01
1.08715	100.01
1.10382	100.01
1.12048	100.01
1.13715	100.01
1.15382	100.01
1.17048	100.01
1.18715	100.01
1.20382	100.01
1.22048	100.01
1.23715	100.01
1.25382	100.01
1.27048	100.01
1.28715	100.01
1.30382	100.01
1.32048	100.01
1.33715	100.01
1.35382	100.01
1.37048	100.01
1.38715	100.01
1.40382	100.01
1.42048	100.01
1.43715	100.01
1.45382	100.01
1.47048	100.01
1.48715	100.01
1.50382	100.00
1.52048	100.00
1.53715	100.01
1.55382	100.01
1.57048	100.01
1.58715	100.01
1.60382	100.01
1.62048	100.01
1.63715	100.01
1.65382	100.01
1.67048	100.01
1.68715	100.01
1.70382	100.00
1.72048	100.00
1.73715	100.00
1.75382	100.00
1.77048	100.00
1.78715	100.00
1.80382	100.00
1.82048	100.00
1.83715	99.99
1.85382	100.00
1.87048	100.00
1.88715	100.00
1.90382	100.00
1.92048	100.00
1.93715	99.99
1.95382	100.00
1.97048	100.00
1.98715	99.99
2.00382	99.99
2.02048	99.99
2.03715	99.99
2.05382	99.99
2.07048	99.99
2.08715	99.99
2.10382	99.99
2.12048	99.98
2.13715	99.99
2.15382	99.98
2.17048	99.99
2.18715	99.99
2.20382	99.98
2.22048	99.98
2.23715	99.98
2.25382	99.98
2.27048	99.98
2.28715	99.98
2.30382	99.99
2.32048	99.98
2.33715	99.98
2.35382	99.98
2.37048	99.98
2.38715	99.98
2.40382	99.98
2.42048	99.98
2.43715	99.98
2.45382	99.98
2.47048	99.98
2.48715	99.98
2.50382	99.98
2.52048	99.98
2.53715	99.98
2.55382	99.99
2.57048	99.99
2.58715	99.99
2.60382	99.99
2.62048	99.99
2.63715	99.99
2.65382	99.99
2.67048	99.99
2.68715	99.99
2.70382	100.00
2.72048	99.99
2.73715	100.00
2.75382	100.00
2.77048	100.00
2.78715	100.00
2.80382	100.00
2.82048	100.00
2.83715	100.01
2.85382	100.01
2.87048	100.01
2.88715	100.01
2.90382	100.01
2.92048	100.01
2.93715	100.01
2.95382	100.01
2.97048	100.01
2.98715	100.02
3.00382	100.02
3.02048	100.02
3.03715	100.02
3.05382	100.02
3.07048	100.02
3.08715	100.02
3.10382	100.03
3.12048	100.03
3.13715	100.03
3.15382	100.03
3.17048	100.03
3.18715	100.03
3.20382	100.03
3.22048	100.04
3.23715	100.04
3.25382	100.04
3.27048	100.04
3.28715	100.04
3.30382	100.04
3.32048	100.04
3.33715	100.05
3.35382	100.04
3.37048	100.04
3.38715	100.05
3.40382	100.04
3.42048	100.05
3.43715	100.05
3.45382	100.05
3.47048	100.05
3.48715	100.05
3.50382	100.05
3.52048	100.05
3.53715	100.05
3.55382	100.05
3.57048	100.05
3.58715	100.05
3.60382	100.05
3.62048	100.06
3.63715	100.06
3.65382	100.06
3.67048	100.06
3.68715	100.06
3.70382	100.05
3.72048	100.05
3.73715	100.06
3.75382	100.06
3.77048	100.06
3.78715	100.06
3.80382	100.05
3.82048	100.06
3.83715	100.06
3.85382	100.06
3.87048	100.05
3.88715	100.05
3.90382	100.06
3.92048	100.05
3.93715	100.06
3.95382	100.06
3.97048	100.05
3.98715	100.05

[Status Trace (Carrier Gas Pressure)]
Interval(msec)	1000
# of Points	240
Start Time(min)	0.004
End Time(min)	3.987
Intensity Units	
Intensity Multiplier	1
R.Time (min)	Intensity
0.00382	58.00
0.02048	56.08
0.03715	56.47
0.05382	58.68
0.07048	59.83
0.08715	58.25
0.10382	57.98
0.12048	58.01
0.13715	58.01
0.15382	58.01
0.17048	58.00
0.18715	58.00
0.20382	58.00
0.22048	58.00
0.23715	58.00
0.25382	58.00
0.27048	58.00
0.28715	58.00
0.30382	58.00
0.32048	58.00
0.33715	58.00
0.35382	58.00
0.37048	58.00
0.38715	58.00
0.40382	58.00
0.42048	58.00
0.43715	58.00
0.45382	58.00
0.47048	58.00
0.48715	58.00
0.50382	58.00
0.52048	58.00
0.53715	58.00
0.55382	58.00
0.57048	58.00
0.58715	58.00
0.60382	58.00
0.62048	58.00
0.63715	58.00
0.65382	58.00
0.67048	58.00
0.68715	58.00
0.70382	58.00
0.72048	58.00
0.73715	58.00
0.75382	58.00
0.77048	58.00
0.78715	58.00
0.80382	58.00
0.82048	58.00
0.83715	58.00
0.85382	58.00
0.87048	58.00
0.88715	58.00
0.90382	58.00
0.92048	58.00
0.93715	58.00
0.95382	58.00
0.97048	58.00
0.98715	58.00
1.00382	58.00
1.02048	58.00
1.03715	58.00
1.05382	58.00
1.07048	58.00
1.08715	58.00
1.10382	58.00
1.12048	58.00
1.13715	58.00
1.15382	58.00
1.17048	58.00
1.18715	58.00
1.20382	58.00
1.22048	58.00
1.23715	58.00
1.25382	58.00
1.27048	58.00
1.28715	58.00
1.30382	58.00
1.32048	58.00
1.33715	58.00
1.35382	58.00
1.37048	58.00
1.38715	58.00
1.40382	58.00
1.42048	58.00
1.43715	58.00
1.45382	58.00
1.47048	58.00
1.48715	58.00
1.50382	58.00
1.52048	58.00
1.53715	58.00
1.55382	58.00
1.57048	58.00
1.58715	58.00
1.60382	58.00
1.62048	58.00
1.63715	58.01
1.65382	58.00
1.67048	58.01
1.68715	58.01
1.70382	58.00
1.72048	58.00
1.73715	58.00
1.75382	58.00
1.77048	58.00
1.78715	58.00
1.80382	58.00
1.82048	58.00
1.83715	58.00
1.85382	58.00
1.87048	58.00
1.88715	58.00
1.90382	58.00
1.92048	58.00
1.93715	58.00
1.95382	58.00
1.97048	58.00
1.98715	58.00
2.00382	58.00
2.02048	58.00
2.03715	58.00
2.05382	58.00
2.07048	58.00
2.08715	58.00
2.10382	58.00
2.12048	58.00
2.13715	58.00
2.15382	58.00
2.17048	58.00
2.18715	58.00
2.20382	58.00
2.22048	58.00
2.23715	58.00
2.25382	58.00
2.27048	58.00
2.28715	58.00
2.30382	58.00
2.32048	58.00
2.33715	58.00
2.35382	58.00
2.37048	58.00
2.38715	57.99
2.40382	57.99
2.42048	58.00
2.43715	58.00
2.45382	58.00
2.47048	58.00
2.48715	58.00
2.50382	57.98
2.52048	57.99
2.53715	57.99
2.55382	58.00
2.57048	58.00
2.58715	58.00
2.60382	58.00
2.62048	58.00
2.63715	58.00
2.65382	58.00
2.67048	58.00
2.68715	58.00
2.70382	58.00
2.72048	58.00
2.73715	58.00
2.75382	58.00
2.77048	58.00
2.78715	58.00
2.80382	58.00
2.82048	58.00
2.83715	58.00
2.85382	58.00
2.87048	58.00
2.88715	58.00
2.90382	58.00
2.92048	58.00
2.93715	58.00
2.95382	58.00
2.97048	58.00
2.98715	58.00
3.00382	58.00
3.02048	58.00
3.03715	58.00
3.05382	58.00
3.07048	58.00
3.08715	58.00
3.10382	58.00
3.12048	58.00
3.13715	58.00
3.15382	58.00
3.17048	58.00
3.18715	58.00
3.20382	58.00
3.22048	58.00
3.23715	58.00
3.25382	58.00
3.27048	58.00
3.28715	58.00
3.30382	58.00
3.32048	58.00
3.33715	58.00
3.35382	58.00
3.37048	58.00
3.38715	58.00
3.40382	58.00
3.42048	58.00
3.43715	58.00
3.45382	58.00
3.47048	58.00
3.48715	58.00
3.50382	58.00
3.52048	58.00
3.53715	58.00
3.55382	58.00
3.57048	58.00
3.58715	58.00
3.60382	58.00
3.62048	58.00
3.63715	58.00
3.65382	58.00
3.67048	58.00
3.68715	58.00
3.70382	58.00
3.72048	58.00
3.73715	58.00
3.75382	58.00
3.77048	58.00
3.78715	58.00
3.80382	58.00
3.82048	58.00
3.83715	58.00
3.85382	58.00
3.87048	58.00
3.88715	58.00
3.90382	58.00
3.92048	58.00
3.93715	58.00
3.95382	58.00
3.97048	58.00
3.98715	58.00

[Status Trace (Carrier Gas Flow)]
Interval(msec)	1000
# of Points	240
Start Time(min)	0.004
End Time(min)	3.987
Intensity Units	
Intensity Multiplier	1
R.Time (min)	Intensity
0.00382	34.51
0.02048	34.61
0.03715	34.54
0.05382	34.55
0.07048	34.49
0.08715	34.51
0.10382	34.52
0.12048	34.52
0.13715	34.52
0.15382	34.52
0.17048	34.52
0.18715	34.52
0.20382	34.52
0.22048	34.52
0.23715	34.52
0.25382	34.52
0.27048	34.52
0.28715	34.52
0.30382	34.52
0.32048	34.52
0.33715	34.52
0.35382	34.52
0.37048	34.52
0.38715	34.52
0.40382	34.52
0.42048	34.52
0.43715	34.51
0.45382	34.52
0.47048	34.52
0.48715	34.52
0.50382	34.52
0.52048	34.52
0.53715	34.52
0.55382	34.52
0.57048	34.52
0.58715	34.52
0.60382	34.52
0.62048	34.52
0.63715	34.52
0.65382	34.52
0.67048	34.52
0.68715	34.52
0.70382	34.52
0.72048	34.52
0.73715	34.52
0.75382	34.52
0.77048	34.51
0.78715	34.51
0.80382	34.52
0.82048	34.52
0.83715	34.52
0.85382	34.52
0.87048	34.52
0.88715	34.52
0.90382	34.52
0.92048	34.52
0.93715	34.52
0.95382	34.52
0.97048	34.52
0.98715	34.52
1.00382	34.52
1.02048	34.52
1.03715	34.52
1.05382	34.52
1.07048	34.52
1.08715	34.52
1.10382	34.52
1.12048	34.52
1.13715	34.52
1.15382	34.51
1.17048	34.53
1.18715	34.52
1.20382	34.52
1.22048	34.52
1.23715	34.52
1.25382	34.52
1.27048	34.52
1.28715	34.52
1.30382	34.52
1.32048	34.52
1.33715	34.52
1.35382	34.52
1.37048	34.52
1.38715	34.52
1.40382	34.52
1.42048	34.52
1.43715	34.52
1.45382	34.52
1.47048	34.52
1.48715	34.52
1.50382	34.53
1.52048	34.52
1.53715	34.52
1.55382	34.52
1.57048	34.52
1.58715	34.52
1.60382	34.52
1.62048	34.52
1.63715	34.52
1.65382	34.52
1.67048	34.52
1.68715	34.52
1.70382	34.52
1.72048	34.52
1.73715	34.52
1.75382	34.52
1.77048	34.52
1.78715	34.52
1.80382	34.52
1.82048	34.52
1.83715	34.52
1.85382	34.52
1.87048	34.52
1.88715	34.52
1.90382	34.51
1.92048	34.52
1.93715	34.52
1.95382	34.52
1.97048	34.52
1.98715	34.52
2.00382	34.52
2.02048	34.52
2.03715	34.52
2.05382	34.52
2.07048	34.52
2.08715	34.52
2.10382	34.52
2.12048	34.52
2.13715	34.52
2.15382	34.52
2.17048	34.52
2.18715	34.52
2.20382	34.52
2.22048	34.52
2.23715	34.52
2.25382	34.52
2.27048	34.52
2.28715	34.52
2.30382	34.52
2.32048	34.52
2.33715	34.52
2.35382	34.52
2.37048	34.52
2.38715	34.57
2.40382	34.52
2.42048	34.52
2.43715	34.52
2.45382	34.52
2.47048	34.52
2.48715	34.52
2.50382	34.64
2.52048	34.52
2.53715	34.52
2.55382	34.52
2.57048	34.52
2.58715	34.52
2.60382	34.52
2.62048	34.52
2.63715	34.53
2.65382	34.52
2.67048	34.52
2.68715	34.52
2.70382	34.52
2.72048	34.52
2.73715	34.52
2.75382	34.52
2.77048	34.52
2.78715	34.52
2.80382	34.52
2.82048	34.52
2.83715	34.52
2.85382	34.52
2.87048	34.52
2.88715	34.52
2.90382	34.52
2.92048	34.52
2.93715	34.52
2.95382	34.52
2.97048	34.52
2.98715	34.52
3.00382	34.52
3.02048	34.52
3.03715	34.52
3.05382	34.53
3.07048	34.52
3.08715	34.52
3.10382	34.52
3.12048	34.52
3.13715	34.52
3.15382	34.52
3.17048	34.52
3.18715	34.52
3.20382	34.52
3.22048	34.52
3.23715	34.52
3.25382	34.52
3.27048	34.52
3.28715	34.52
3.30382	34.52
3.32048	34.52
3.33715	34.52
3.35382	34.52
3.37048	34.52
3.38715	34.51
3.40382	34.52
3.42048	34.52
3.43715	34.52
3.45382	34.52
3.47048	34.52
3.48715	34.52
3.50382	34.52
3.52048	34.52
3.53715	34.52
3.55382	34.52
3.57048	34.52
3.58715	34.52
3.60382	34.52
3.62048	34.52
3.63715	34.52
3.65382	34.52
3.67048	34.52
3.68715	34.52
3.70382	34.52
3.72048	34.52
3.73715	34.52
3.75382	34.52
3.77048	34.52
3.78715	34.52
3.80382	34.52
3.82048	34.52
3.83715	34.52
3.85382	34.52
3.87048	34.52
3.88715	34.52
3.90382	34.52
3.92048	34.52
3.93715	34.52
3.95382	34.52
3.97048	34.52
3.98715	34.52

[Status Trace (Column Flow)]
Interval(msec)	1000
# of Points	240
Start Time(min)	0.004
End Time(min)	3.987
Intensity Units	
Intensity Multiplier	1
R.Time (min)	Intensity
0.00382	5.55
0.02048	5.33
0.03715	5.38
0.05382	5.63
0.07048	5.77
0.08715	5.58
0.10382	5.55
0.12048	5.56
0.13715	5.56
0.15382	5.56
0.17048	5.56
0.18715	5.56
0.20382	5.56
0.22048	5.55
0.23715	5.55
0.25382	5.55
0.27048	5.55
0.28715	5.55
0.30382	5.55
0.32048	5.55
0.33715	5.55
0.35382	5.55
0.37048	5.55
0.38715	5.55
0.40382	5.55
0.42048	5.55
0.43715	5.55
0.45382	5.55
0.47048	5.55
0.48715	5.55
0.50382	5.55
0.52048	5.55
0.53715	5.55
0.55382	5.55
0.57048	5.55
0.58715	5.55
0.60382	5.55
0.62048	5.55
0.63715	5.55
0.65382	5.55
0.67048	5.55
0.68715	5.55
0.70382	5.55
0.72048	5.55
0.73715	5.55
0.75382	5.55
0.77048	5.55
0.78715	5.55
0.80382	5.55
0.82048	5.55
0.83715	5.55
0.85382	5.55
0.87048	5.55
0.88715	5.55
0.90382	5.55
0.92048	5.55
0.93715	5.55
0.95382	5.55
0.97048	5.55
0.98715	5.55
1.00382	5.55
1.02048	5.55
1.03715	5.55
1.05382	5.55
1.07048	5.55
1.08715	5.55
1.10382	5.55
1.12048	5.55
1.13715	5.55
1.15382	5.55
1.17048	5.55
1.18715	5.55
1.20382	5.55
1.22048	5.55
1.23715	5.55
1.25382	5.55
1.27048	5.55
1.28715	5.55
1.30382	5.55
1.32048	5.55
1.33715	5.55
1.35382	5.55
1.37048	5.55
1.38715	5.55
1.40382	5.55
1.42048	5.55
1.43715	5.55
1.45382	5.55
1.47048	5.55
1.48715	5.55
1.50382	5.55
1.52048	5.55
1.53715	5.55
1.55382	5.55
1.57048	5.55
1.58715	5.55
1.60382	5.55
1.62048	5.55
1.63715	5.54
1.65382	5.54
1.67048	5.53
1.68715	5.52
1.70382	5.50
1.72048	5.49
1.73715	5.48
1.75382	5.47
1.77048	5.46
1.78715	5.45
1.80382	5.44
1.82048	5.43
1.83715	5.42
1.85382	5.41
1.87048	5.40
1.88715	5.39
1.90382	5.38
1.92048	5.37
1.93715	5.36
1.95382	5.35
1.97048	5.34
1.98715	5.33
2.00382	5.32
2.02048	5.31
2.03715	5.30
2.05382	5.29
2.07048	5.29
2.08715	5.28
2.10382	5.27
2.12048	5.26
2.13715	5.25
2.15382	5.24
2.17048	5.23
2.18715	5.22
2.20382	5.21
2.22048	5.20
2.23715	5.19
2.25382	5.18
2.27048	5.17
2.28715	5.16
2.30382	5.15
2.32048	5.14
2.33715	5.14
2.35382	5.13
2.37048	5.12
2.38715	5.12
2.40382	5.11
2.42048	5.12
2.43715	5.12
2.45382	5.11
2.47048	5.11
2.48715	5.11
2.50382	5.11
2.52048	5.11
2.53715	5.11
2.55382	5.11
2.57048	5.11
2.58715	5.11
2.60382	5.11
2.62048	5.11
2.63715	5.11
2.65382	5.11
2.67048	5.11
2.68715	5.11
2.70382	5.11
2.72048	5.11
2.73715	5.11
2.75382	5.11
2.77048	5.11
2.78715	5.11
2.80382	5.11
2.82048	5.11
2.83715	5.11
2.85382	5.11
2.87048	5.11
2.88715	5.11
2.90382	5.11
2.92048	5.11
2.93715	5.11
2.95382	5.11
2.97048	5.11
2.98715	5.11
3.00382	5.11
3.02048	5.11
3.03715	5.11
3.05382	5.11
3.07048	5.11
3.08715	5.11
3.10382	5.11
3.12048	5.11
3.13715	5.11
3.15382	5.11
3.17048	5.11
3.18715	5.11
3.20382	5.11
3.22048	5.11
3.23715	5.11
3.25382	5.11
3.27048	5.11
3.28715	5.11
3.30382	5.11
3.32048	5.11
3.33715	5.11
3.35382	5.11
3.37048	5.11
3.38715	5.11
3.40382	5.11
3.42048	5.11
3.43715	5.11
3.45382	5.11
3.47048	5.11
3.48715	5.11
3.50382	5.11
3.52048	5.11
3.53715	5.11
3.55382	5.11
3.57048	5.11
3.58715	5.11
3.60382	5.11
3.62048	5.11
3.63715	5.11
3.65382	5.11
3.67048	5.11
3.68715	5.11
3.70382	5.11
3.72048	5.11
3.73715	5.11
3.75382	5.11
3.77048	5.11
3.78715	5.11
3.80382	5.11
3.82048	5.11
3.83715	5.11
3.85382	5.11
3.87048	5.11
3.88715	5.11
3.90382	5.11
3.92048	5.11
3.93715	5.11
3.95382	5.11
3.97048	5.11
3.98715	5.11

[Status Trace (Linear Velocity)]
Interval(msec)	1000
# of Points	240
Start Time(min)	0.004
End Time(min)	3.987
Intensity Units	
Intensity Multiplier	1
R.Time (min)	Intensity
0.00382	39.02
0.02048	37.76
0.03715	38.02
0.05382	39.47
0.07048	40.22
0.08715	39.19
0.10382	39.01
0.12048	39.03
0.13715	39.03
0.15382	39.03
0.17048	39.03
0.18715	39.03
0.20382	39.03
0.22048	39.03
0.23715	39.03
0.25382	39.03
0.27048	39.03
0.28715	39.02
0.30382	39.02
0.32048	39.03
0.33715	39.02
0.35382	39.02
0.37048	39.02
0.38715	39.03
0.40382	39.03
0.42048	39.03
0.43715	39.03
0.45382	39.03
0.47048	39.02
0.48715	39.03
0.50382	39.02
0.52048	39.02
0.53715	39.02
0.55382	39.02
0.57048	39.02
0.58715	39.02
0.60382	39.02
0.62048	39.02
0.63715	39.03
0.65382	39.02
0.67048	39.03
0.68715	39.03
0.70382	39.02
0.72048	39.02
0.73715	39.02
0.75382	39.02
0.77048	39.02
0.78715	39.02
0.80382	39.02
0.82048	39.02
0.83715	39.02
0.85382	39.02
0.87048	39.02
0.88715	39.02
0.90382	39.02
0.92048	39.02
0.93715	39.02
0.95382	39.02
0.97048	39.02
0.98715	39.03
1.00382	39.03
1.02048	39.03
1.03715	39.03
1.05382	39.02
1.07048	39.02
1.08715	39.02
1.10382	39.02
1.12048	39.02
1.13715	39.02
1.15382	39.02
1.17048	39.02
1.18715	39.02
1.20382	39.02
1.22048	39.02
1.23715	39.02
1.25382	39.03
1.27048	39.03
1.28715	39.03
1.30382	39.03
1.32048	39.03
1.33715	39.02
1.35382	39.02
1.37048	39.02
1.38715	39.02
1.40382	39.02
1.42048	39.02
1.43715	39.02
1.45382	39.02
1.47048	39.02
1.48715	39.02
1.50382	39.02
1.52048	39.02
1.53715	39.02
1.55382	39.02
1.57048	39.02
1.58715	39.02
1.60382	39.02
1.62048	39.01
1.63715	39.00
1.65382	38.97
1.67048	38.95
1.68715	38.91
1.70382	38.87
1.72048	38.84
1.73715	38.81
1.75382	38.78
1.77048	38.75
1.78715	38.72
1.80382	38.68
1.82048	38.65
1.83715	38.62
1.85382	38.59
1.87048	38.56
1.88715	38.53
1.90382	38.50
1.92048	38.47
1.93715	38.44
1.95382	38.40
1.97048	38.38
1.98715	38.35
2.00382	38.31
2.02048	38.29
2.03715	38.26
2.05382	38.22
2.07048	38.20
2.08715	38.17
2.10382	38.13
2.12048	38.11
2.13715	38.08
2.15382	38.05
2.17048	38.02
2.18715	37.99
2.20382	37.96
2.22048	37.93
2.23715	37.90
2.25382	37.87
2.27048	37.84
2.28715	37.81
2.30382	37.78
2.32048	37.75
2.33715	37.73
2.35382	37.69
2.37048	37.67
2.38715	37.66
2.40382	37.66
2.42048	37.66
2.43715	37.66
2.45382	37.66
2.47048	37.66
2.48715	37.66
2.50382	37.65
2.52048	37.65
2.53715	37.65
2.55382	37.66
2.57048	37.66
2.58715	37.66
2.60382	37.66
2.62048	37.65
2.63715	37.65
2.65382	37.65
2.67048	37.65
2.68715	37.65
2.70382	37.65
2.72048	37.65
2.73715	37.65
2.75382	37.65
2.77048	37.65
2.78715	37.65
2.80382	37.65
2.82048	37.65
2.83715	37.65
2.85382	37.65
2.87048	37.65
2.88715	37.65
2.90382	37.65
2.92048	37.65
2.93715	37.65
2.95382	37.64
2.97048	37.64
2.98715	37.64
3.00382	37.64
3.02048	37.64
3.03715	37.64
3.05382	37.64
3.07048	37.64
3.08715	37.64
3.10382	37.64
3.12048	37.64
3.13715	37.64
3.15382	37.64
3.17048	37.63
3.18715	37.64
3.20382	37.63
3.22048	37.63
3.23715	37.63
3.25382	37.63
3.27048	37.63
3.28715	37.63
3.30382	37.63
3.32048	37.63
3.33715	37.63
3.35382	37.63
3.37048	37.63
3.38715	37.64
3.40382	37.64
3.42048	37.64
3.43715	37.64
3.45382	37.64
3.47048	37.64
3.48715	37.64
3.50382	37.64
3.52048	37.64
3.53715	37.64
3.55382	37.64
3.57048	37.64
3.58715	37.64
3.60382	37.64
3.62048	37.64
3.63715	37.64
3.65382	37.64
3.67048	37.64
3.68715	37.64
3.70382	37.64
3.72048	37.64
3.73715	37.64
3.75382	37.63
3.77048	37.63
3.78715	37.63
3.80382	37.63
3.82048	37.64
3.83715	37.64
3.85382	37.63
3.87048	37.63
3.88715	37.63
3.90382	37.63
3.92048	37.63
3.93715	37.63
3.95382	37.63
3.97048	37.63
3.98715	37.63

