[Header]
Application Name	LabSolutions
Version	5.110
Data File Name	C:\Users\User\Desktop\GC Analyses\Jack\UIC Prairie Sampling\10.19.22\221019_039.gcd
Output Date	1/4/2023
Output Time	2:27:26 PM

[File Information]
Type	Data File
Generated	12/6/2022 11:20:11 AM
Generated by	System Administrator
Modified	12/6/2022 11:24:28 AM
Modified by	System Administrator

[Sample Information]
Operator Name	System Administrator
Acquired	12/6/2022 11:20:27 AM
Sample Type	1:Standard
Level	1
Sample Name	221019_UICPrairie
Sample ID	221019_UICPrairie
ISTD Amount1	1
ISTD Amount2	1
ISTD Amount3	1
ISTD Amount4	1
ISTD Amount5	1
ISTD Amount6	1
ISTD Amount7	1
ISTD Amount8	1
ISTD Amount9	1
ISTD Amount10	1
ISTD Amount11	1
ISTD Amount12	1
ISTD Amount13	1
ISTD Amount14	1
ISTD Amount15	1
ISTD Amount16	1
ISTD Amount17	1
ISTD Amount18	1
ISTD Amount19	1
ISTD Amount20	1
ISTD Amount21	1
ISTD Amount22	1
ISTD Amount23	1
ISTD Amount24	1
ISTD Amount25	1
ISTD Amount26	1
ISTD Amount27	1
ISTD Amount28	1
ISTD Amount29	1
ISTD Amount30	1
ISTD Amount31	1
ISTD Amount32	1
Sample Amount	1
Dilution Factor	1
Vial#	1
Injection Volume	1
Injection Count	1
Bar Code	

[Original Files]
Data File	C:\Users\User\Desktop\GC Analyses\Jack\UIC Prairie Sampling\10.19.22\221019_039.gcd
Method File	C:\LabSolutions\Data\GHG_4min_2022\ghg3_togas_w_acet_4 min_new_int.gcm
Batch File	
Report Format File	c:\LabSolutions\System\DEFAULT.lsr

[File Description]


[Configuration]
Instrument Name	C0B7VH3-Instrument1
Instrument #	1
Line #	1
# of Detectors	3
Detector ID	DET#1	DET#2	DET#3
Detector Name	FID	PTCD	ECD
# of Channels	1	1	1

[Peak Table(Ch1)]
# of Peaks	3
Peak#	R.Time	I.Time	F.Time	Area	Height	A/H	Conc.	Mark	ID#	Name	k'	Plate #	Plate Ht.	Tailing	Resolution	Sep.Factor	Area Ratio	Height Ratio	Conc. %	Norm Conc.
1	1.476	1.435	1.538	9580	4106	2.333	100.000	   	1	CO	0.000	7938	18.896	1.293	0.000	0.000	0	0	16.667	16.667
2	1.571	1.538	1.619	4280	2165	1.977	100.000	 V 	2	CH4	0.065	11370	13.193	0.000	1.523	0.000	0	0	16.667	16.667
3	2.000	1.952	2.620	1298418	606755	2.140	400.000	   	3	CO2	0.355	17408	8.617	1.200	7.176	5.500	0	0	66.667	66.667

[Peak Table(Ch2)]
# of Peaks	0

[Peak Table(Ch3)]
# of Peaks	5
Peak#	R.Time	I.Time	F.Time	Area	Height	A/H	Conc.	Mark	ID#	Name	k'	Plate #	Plate Ht.	Tailing	Resolution	Sep.Factor	Area Ratio	Height Ratio	Conc. %	Norm Conc.
1	2.462	2.304	2.499	1736	452	3.844	0.000	   			0.000	7125	21.052	0.000	0.000	0.000	0	0	0.000	0.000
2	2.513	2.499	2.561	1011	324	3.119	0.000	 V 			0.021	1370	109.452	0.000	0.264	0.000	0	0	0.000	0.000
3	2.605	2.561	2.653	1142	315	3.622	0.000	 V 			0.058	5694	26.341	0.000	0.448	2.786	0	0	0.000	0.000
4	2.884	2.675	3.074	21324	5343	3.991	1.000	   	1	N2O	0.171	13182	11.380	1.518	2.336	2.949	0	0	100.000	100.000
5	3.287	3.166	3.426	393	46	8.520	0.000	   			0.335	3557	42.175	1.164	2.514	1.957	0	0	0.000	0.000

[Compound Results(Ch1)]
# of IDs	6
ID#	Name	R.Time	Area	Height	Conc.	Curve	3rd	2nd	1st	Constant	Area Ratio	Height Ratio	Conc. %	Norm Conc.
1	CO	1.476	9580	4106	100.000	Linear	0.000000e+00	0.000000e+00	9.580253e+001	0.000000e+00	0	0	16.667	16.667
2	CH4	1.571	4280	2165	100.000	Linear	0.000000e+00	0.000000e+00	4.280337e+001	0.000000e+00	0	0	16.667	16.667
3	CO2	2.000	1298418	606755	400.000	Linear	0.000000e+00	0.000000e+00	3.246045e+003	0.000000e+00	0	0	66.667	66.667
4	Ethylene	0.000	0	0	0.000	Linear	0.000000e+00	0.000000e+00	0.000000e+00	0.000000e+00	0	0	0.000	0.000
5	Acetylene	0.000	0	0	0.000	Linear	0.000000e+00	0.000000e+00	0.000000e+00	0.000000e+00	0	0	0.000	0.000
6	Ethane	0.000	0	0	0.000	Linear	0.000000e+00	0.000000e+00	0.000000e+00	0.000000e+00	0	0	0.000	0.000

[Compound Results(Ch2)]
# of IDs	5
ID#	Name	R.Time	Area	Height	Conc.	Curve	3rd	2nd	1st	Constant	Area Ratio	Height Ratio	Conc. %	Norm Conc.
1	Hydrogen	0.000	0	0	0.000	Linear	0.000000e+00	0.000000e+00	0.000000e+00	0.000000e+00	0	0	0.000	0.000
2	Oxygen	0.000	0	0	0.000	Linear	0.000000e+00	0.000000e+00	0.000000e+00	0.000000e+00	0	0	0.000	0.000
3	Nitrogen	0.000	0	0	0.000	Linear	0.000000e+00	0.000000e+00	0.000000e+00	0.000000e+00	0	0	0.000	0.000
4	Methane	0.000	0	0	0.000	Linear	0.000000e+00	0.000000e+00	0.000000e+00	0.000000e+00	0	0	0.000	0.000
5	Carbon Monoxide	0.000	0	0	0.000	Linear	0.000000e+00	0.000000e+00	0.000000e+00	0.000000e+00	0	0	0.000	0.000

[Compound Results(Ch3)]
# of IDs	2
ID#	Name	R.Time	Area	Height	Conc.	Curve	3rd	2nd	1st	Constant	Area Ratio	Height Ratio	Conc. %	Norm Conc.
1	N2O	2.884	21324	5343	1.000	Linear	0.000000e+00	0.000000e+00	2.132377e+004	0.000000e+00	0	0	100.000	100.000
2	SF6	0.000	0	0	0.000	Linear	0.000000e+00	0.000000e+00	0.000000e+00	0.000000e+00	0	0	0.000	0.000

[Group Results(Ch1)]
# of Groups	0

[Group Results(Ch2)]
# of Groups	0

[Group Results(Ch3)]
# of Groups	0

[Chromatogram (Ch1)]
Interval(msec)	220
# of Points	1091
Start Time(min)	0.002
End Time(min)	3.998
R.Time (min)	Intensity
0.00167	-3
0.00533	-2
0.00900	-0
0.01267	4
0.01633	13
0.02000	19
0.02367	23
0.02733	24
0.03100	22
0.03467	15
0.03833	9
0.04200	0
0.04567	-7
0.04933	-10
0.05300	-5
0.05667	2
0.06033	7
0.06400	11
0.06767	12
0.07133	10
0.07500	3
0.07867	-7
0.08233	-16
0.08600	-24
0.08967	-26
0.09333	-21
0.09700	-15
0.10067	-9
0.10433	-6
0.10800	-6
0.11167	-9
0.11533	-12
0.11900	-15
0.12267	-17
0.12633	-21
0.13000	-25
0.13367	-28
0.13733	-28
0.14100	-25
0.14467	-19
0.14833	-16
0.15200	-14
0.15567	-13
0.15933	-13
0.16300	-13
0.16667	-13
0.17033	-13
0.17400	-13
0.17767	-12
0.18133	-9
0.18500	-7
0.18867	-10
0.19233	-17
0.19600	-25
0.19967	-32
0.20333	-36
0.20700	-38
0.21067	-37
0.21433	-33
0.21800	-30
0.22167	-30
0.22533	-30
0.22900	-27
0.23267	-22
0.23633	-18
0.24000	-16
0.24367	-15
0.24733	-18
0.25100	-22
0.25467	-26
0.25833	-29
0.26200	-28
0.26567	-22
0.26933	-18
0.27300	-19
0.27667	-20
0.28033	-18
0.28400	-15
0.28767	-14
0.29133	-13
0.29500	-15
0.29867	-19
0.30233	-25
0.30600	-32
0.30967	-36
0.31333	-40
0.31700	-42
0.32067	-42
0.32433	-44
0.32800	-45
0.33167	-46
0.33533	-48
0.33900	-47
0.34267	-46
0.34633	-46
0.35000	-47
0.35367	-49
0.35733	-46
0.36100	-37
0.36467	-30
0.36833	-26
0.37200	-29
0.37567	-35
0.37933	-41
0.38300	-47
0.38667	-49
0.39033	-48
0.39400	-45
0.39767	-39
0.40133	-35
0.40500	-34
0.40867	-34
0.41233	-32
0.41600	-30
0.41967	-29
0.42333	-32
0.42700	-36
0.43067	-38
0.43433	-36
0.43800	-36
0.44167	-40
0.44533	-46
0.44900	-54
0.45267	-60
0.45633	-64
0.46000	-65
0.46367	-65
0.46733	-60
0.47100	-53
0.47467	-47
0.47833	-43
0.48200	-41
0.48567	-40
0.48933	-41
0.49300	-44
0.49667	-45
0.50033	-42
0.50400	-41
0.50767	-42
0.51133	-44
0.51500	-45
0.51867	-46
0.52233	-48
0.52600	-50
0.52967	-56
0.53333	-62
0.53700	-66
0.54067	-69
0.54433	-72
0.54800	-73
0.55167	-71
0.55533	-69
0.55900	-69
0.56267	-71
0.56633	-71
0.57000	-68
0.57367	-63
0.57733	-57
0.58100	-50
0.58467	-44
0.58833	-40
0.59200	-42
0.59567	-47
0.59933	-53
0.60300	-57
0.60667	-61
0.61033	-65
0.61400	-65
0.61767	-64
0.62133	-65
0.62500	-68
0.62867	-71
0.63233	-74
0.63600	-75
0.63967	-76
0.64333	-77
0.64700	-74
0.65067	-70
0.65433	-68
0.65800	-66
0.66167	-64
0.66533	-62
0.66900	-61
0.67267	-59
0.67633	-58
0.68000	-60
0.68367	-61
0.68733	-63
0.69100	-65
0.69467	-66
0.69833	-65
0.70200	-61
0.70567	-60
0.70933	-60
0.71300	-57
0.71667	-54
0.72033	-53
0.72400	-56
0.72767	-60
0.73133	-65
0.73500	-70
0.73867	-76
0.74233	-82
0.74600	-85
0.74967	-85
0.75333	-84
0.75700	-78
0.76067	-70
0.76433	-63
0.76800	-60
0.77167	-60
0.77533	-65
0.77900	-70
0.78267	-76
0.78633	-81
0.79000	-83
0.79367	-78
0.79733	-68
0.80100	-58
0.80467	-53
0.80833	-53
0.81200	-60
0.81567	-70
0.81933	-79
0.82300	-83
0.82667	-83
0.83033	-79
0.83400	-69
0.83767	-58
0.84133	-51
0.84500	-50
0.84867	-57
0.85233	-69
0.85600	-85
0.85967	-99
0.86333	-109
0.86700	-115
0.87067	-117
0.87433	-115
0.87800	-109
0.88167	-102
0.88533	-98
0.88900	-98
0.89267	-102
0.89633	-104
0.90000	-104
0.90367	-102
0.90733	-98
0.91100	-92
0.91467	-89
0.91833	-89
0.92200	-91
0.92567	-94
0.92933	-95
0.93300	-95
0.93667	-92
0.94033	-90
0.94400	-88
0.94767	-84
0.95133	-81
0.95500	-78
0.95867	-81
0.96233	-90
0.96600	-98
0.96967	-102
0.97333	-101
0.97700	-100
0.98067	-98
0.98433	-97
0.98800	-95
0.99167	-89
0.99533	-81
0.99900	-75
1.00267	-74
1.00633	-77
1.01000	-82
1.01367	-86
1.01733	-88
1.02100	-87
1.02467	-83
1.02833	-82
1.03200	-86
1.03567	-90
1.03933	-90
1.04300	-85
1.04667	-79
1.05033	-79
1.05400	-84
1.05767	-95
1.06133	-104
1.06500	-107
1.06867	-101
1.07233	-93
1.07600	-89
1.07967	-90
1.08333	-94
1.08700	-99
1.09067	-103
1.09433	-102
1.09800	-102
1.10167	-105
1.10533	-107
1.10900	-105
1.11267	-104
1.11633	-106
1.12000	-106
1.12367	-103
1.12733	-97
1.13100	-91
1.13467	-88
1.13833	-90
1.14200	-95
1.14567	-102
1.14933	-108
1.15300	-110
1.15667	-110
1.16033	-112
1.16400	-112
1.16767	-112
1.17133	-110
1.17500	-106
1.17867	-104
1.18233	-102
1.18600	-101
1.18967	-103
1.19333	-105
1.19700	-108
1.20067	-111
1.20433	-109
1.20800	-102
1.21167	-96
1.21533	-91
1.21900	-91
1.22267	-95
1.22633	-102
1.23000	-109
1.23367	-114
1.23733	-117
1.24100	-119
1.24467	-121
1.24833	-122
1.25200	-123
1.25567	-127
1.25933	-132
1.26300	-136
1.26667	-138
1.27033	-136
1.27400	-131
1.27767	-121
1.28133	-112
1.28500	-110
1.28867	-111
1.29233	-115
1.29600	-118
1.29967	-119
1.30333	-121
1.30700	-122
1.31067	-121
1.31433	-119
1.31800	-118
1.32167	-118
1.32533	-120
1.32900	-123
1.33267	-124
1.33633	-125
1.34000	-123
1.34367	-122
1.34733	-119
1.35100	-116
1.35467	-117
1.35833	-120
1.36200	-122
1.36567	-121
1.36933	-120
1.37300	-123
1.37667	-128
1.38033	-132
1.38400	-134
1.38767	-133
1.39133	-129
1.39500	-126
1.39867	-124
1.40233	-123
1.40600	-121
1.40967	-119
1.41333	-116
1.41700	-114
1.42067	-115
1.42433	-117
1.42800	-117
1.43167	-116
1.43533	-112
1.43900	-90
1.44267	1
1.44633	206
1.45000	510
1.45367	946
1.45733	1551
1.46100	2248
1.46467	2906
1.46833	3442
1.47200	3815
1.47567	3999
1.47933	3963
1.48300	3694
1.48667	3234
1.49033	2668
1.49400	2093
1.49767	1585
1.50133	1172
1.50500	853
1.50867	613
1.51233	435
1.51600	304
1.51967	206
1.52333	132
1.52700	80
1.53067	44
1.53433	21
1.53800	13
1.54167	48
1.54533	184
1.54900	460
1.55267	846
1.55633	1258
1.56000	1620
1.56367	1893
1.56733	2054
1.57100	2068
1.57467	1916
1.57833	1624
1.58200	1266
1.58567	919
1.58933	625
1.59300	398
1.59667	231
1.60033	112
1.60400	30
1.60767	-25
1.61133	-60
1.61500	-80
1.61867	-91
1.62233	-96
1.62600	-98
1.62967	-100
1.63333	-104
1.63700	-110
1.64067	-116
1.64433	-120
1.64800	-120
1.65167	-116
1.65533	-111
1.65900	-109
1.66267	-113
1.66633	-121
1.67000	-132
1.67367	-143
1.67733	-148
1.68100	-150
1.68467	-150
1.68833	-148
1.69200	-144
1.69567	-137
1.69933	-129
1.70300	-129
1.70667	-134
1.71033	-140
1.71400	-144
1.71767	-145
1.72133	-143
1.72500	-142
1.72867	-143
1.73233	-144
1.73600	-140
1.73967	-137
1.74333	-136
1.74700	-139
1.75067	-142
1.75433	-145
1.75800	-149
1.76167	-150
1.76533	-144
1.76900	-137
1.77267	-134
1.77633	-136
1.78000	-143
1.78367	-148
1.78733	-148
1.79100	-146
1.79467	-144
1.79833	-145
1.80200	-145
1.80567	-145
1.80933	-147
1.81300	-150
1.81667	-151
1.82033	-150
1.82400	-150
1.82767	-149
1.83133	-148
1.83500	-147
1.83867	-142
1.84233	-136
1.84600	-133
1.84967	-135
1.85333	-138
1.85700	-143
1.86067	-149
1.86433	-152
1.86800	-150
1.87167	-144
1.87533	-138
1.87900	-134
1.88267	-133
1.88633	-131
1.89000	-132
1.89367	-136
1.89733	-140
1.90100	-144
1.90467	-148
1.90833	-152
1.91200	-153
1.91567	-150
1.91933	-140
1.92300	-128
1.92667	-119
1.93033	-117
1.93400	-120
1.93767	-127
1.94133	-135
1.94500	-142
1.94867	-146
1.95233	-137
1.95600	-65
1.95967	355
1.96333	2337
1.96700	9567
1.97067	29804
1.97433	73760
1.97800	148912
1.98167	251850
1.98533	367375
1.98900	475350
1.99267	558259
1.99633	604022
2.00000	606642
2.00367	567476
2.00733	496151
2.01100	407797
2.01467	317838
2.01833	237499
2.02200	172167
2.02567	122493
2.02933	86465
2.03300	61148
2.03667	43698
2.04033	31784
2.04400	23668
2.04767	18113
2.05133	14268
2.05500	11561
2.05867	9613
2.06233	8181
2.06600	7102
2.06967	6271
2.07333	5616
2.07700	5092
2.08067	4659
2.08433	4295
2.08800	3983
2.09167	3712
2.09533	3474
2.09900	3261
2.10267	3070
2.10633	2899
2.11000	2744
2.11367	2598
2.11733	2451
2.12100	2339
2.12467	2254
2.12833	2167
2.13200	2078
2.13567	1994
2.13933	1913
2.14300	1834
2.14667	1759
2.15033	1691
2.15400	1638
2.15767	1585
2.16133	1532
2.16500	1480
2.16867	1430
2.17233	1384
2.17600	1343
2.17967	1310
2.18333	1280
2.18700	1249
2.19067	1213
2.19433	1173
2.19800	1128
2.20167	1085
2.20533	1050
2.20900	1022
2.21267	1000
2.21633	982
2.22000	968
2.22367	953
2.22733	933
2.23100	913
2.23467	891
2.23833	869
2.24200	843
2.24567	816
2.24933	794
2.25300	779
2.25667	768
2.26033	756
2.26400	740
2.26767	723
2.27133	703
2.27500	681
2.27867	662
2.28233	648
2.28600	636
2.28967	624
2.29333	614
2.29700	604
2.30067	597
2.30433	590
2.30800	581
2.31167	567
2.31533	551
2.31900	535
2.32267	524
2.32633	516
2.33000	508
2.33367	504
2.33733	502
2.34100	500
2.34467	496
2.34833	492
2.35200	488
2.35567	481
2.35933	474
2.36300	465
2.36667	454
2.37033	441
2.37400	430
2.37767	423
2.38133	420
2.38500	421
2.38867	425
2.39233	428
2.39600	426
2.39967	417
2.40333	406
2.40700	395
2.41067	385
2.41433	380
2.41800	377
2.42167	370
2.42533	361
2.42900	352
2.43267	348
2.43633	351
2.44000	358
2.44367	362
2.44733	360
2.45100	353
2.45467	349
2.45833	343
2.46200	338
2.46567	334
2.46933	329
2.47300	324
2.47667	316
2.48033	307
2.48400	301
2.48767	297
2.49133	294
2.49500	289
2.49867	282
2.50233	277
2.50600	278
2.50967	280
2.51333	279
2.51700	271
2.52067	262
2.52433	255
2.52800	254
2.53167	257
2.53533	259
2.53900	258
2.54267	252
2.54633	243
2.55000	237
2.55367	235
2.55733	236
2.56100	237
2.56467	237
2.56833	235
2.57200	234
2.57567	232
2.57933	227
2.58300	224
2.58667	220
2.59033	216
2.59400	215
2.59767	213
2.60133	212
2.60500	210
2.60867	211
2.61233	213
2.61600	208
2.61967	202
2.62333	193
2.62700	185
2.63067	179
2.63433	178
2.63800	184
2.64167	192
2.64533	197
2.64900	202
2.65267	204
2.65633	202
2.66000	196
2.66367	191
2.66733	185
2.67100	180
2.67467	178
2.67833	177
2.68200	171
2.68567	162
2.68933	152
2.69300	145
2.69667	142
2.70033	140
2.70400	139
2.70767	139
2.71133	138
2.71500	136
2.71867	135
2.72233	137
2.72600	142
2.72967	146
2.73333	152
2.73700	157
2.74067	158
2.74433	155
2.74800	147
2.75167	138
2.75533	132
2.75900	128
2.76267	127
2.76633	124
2.77000	120
2.77367	119
2.77733	119
2.78100	118
2.78467	118
2.78833	122
2.79200	126
2.79567	128
2.79933	129
2.80300	130
2.80667	129
2.81033	127
2.81400	126
2.81767	126
2.82133	126
2.82500	120
2.82867	107
2.83233	93
2.83600	82
2.83967	81
2.84333	87
2.84700	94
2.85067	99
2.85433	98
2.85800	92
2.86167	85
2.86533	81
2.86900	79
2.87267	76
2.87633	73
2.88000	73
2.88367	73
2.88733	71
2.89100	69
2.89467	70
2.89833	70
2.90200	75
2.90567	79
2.90933	80
2.91300	80
2.91667	82
2.92033	84
2.92400	86
2.92767	90
2.93133	92
2.93500	94
2.93867	92
2.94233	89
2.94600	84
2.94967	78
2.95333	73
2.95700	66
2.96067	60
2.96433	55
2.96800	53
2.97167	53
2.97533	54
2.97900	54
2.98267	53
2.98633	57
2.99000	62
2.99367	65
2.99733	67
3.00100	69
3.00467	71
3.00833	75
3.01200	75
3.01567	75
3.01933	73
3.02300	68
3.02667	61
3.03033	60
3.03400	62
3.03767	62
3.04133	58
3.04500	52
3.04867	45
3.05233	39
3.05600	36
3.05967	34
3.06333	33
3.06700	30
3.07067	27
3.07433	26
3.07800	26
3.08167	32
3.08533	37
3.08900	40
3.09267	42
3.09633	42
3.10000	42
3.10367	43
3.10733	42
3.11100	40
3.11467	38
3.11833	35
3.12200	33
3.12567	33
3.12933	34
3.13300	33
3.13667	33
3.14033	31
3.14400	28
3.14767	22
3.15133	17
3.15500	15
3.15867	13
3.16233	13
3.16600	14
3.16967	15
3.17333	16
3.17700	15
3.18067	14
3.18433	12
3.18800	9
3.19167	5
3.19533	3
3.19900	4
3.20267	8
3.20633	13
3.21000	16
3.21367	16
3.21733	14
3.22100	13
3.22467	12
3.22833	10
3.23200	8
3.23567	7
3.23933	7
3.24300	8
3.24667	10
3.25033	11
3.25400	15
3.25767	18
3.26133	17
3.26500	16
3.26867	14
3.27233	7
3.27600	0
3.27967	-1
3.28333	-3
3.28700	-5
3.29067	-2
3.29433	0
3.29800	2
3.30167	3
3.30533	8
3.30900	18
3.31267	25
3.31633	25
3.32000	20
3.32367	11
3.32733	5
3.33100	0
3.33467	-6
3.33833	-12
3.34200	-16
3.34567	-18
3.34933	-15
3.35300	-9
3.35667	-4
3.36033	-5
3.36400	-10
3.36767	-13
3.37133	-14
3.37500	-11
3.37867	-8
3.38233	-8
3.38600	-9
3.38967	-10
3.39333	-14
3.39700	-17
3.40067	-18
3.40433	-17
3.40800	-15
3.41167	-9
3.41533	-3
3.41900	1
3.42267	5
3.42633	4
3.43000	2
3.43367	1
3.43733	-0
3.44100	-2
3.44467	-6
3.44833	-12
3.45200	-15
3.45567	-10
3.45933	-3
3.46300	1
3.46667	0
3.47033	-5
3.47400	-14
3.47767	-25
3.48133	-32
3.48500	-36
3.48867	-36
3.49233	-35
3.49600	-31
3.49967	-28
3.50333	-26
3.50700	-25
3.51067	-25
3.51433	-26
3.51800	-29
3.52167	-31
3.52533	-32
3.52900	-33
3.53267	-32
3.53633	-31
3.54000	-28
3.54367	-23
3.54733	-18
3.55100	-16
3.55467	-15
3.55833	-15
3.56200	-15
3.56567	-13
3.56933	-11
3.57300	-13
3.57667	-16
3.58033	-19
3.58400	-14
3.58767	-12
3.59133	-18
3.59500	-32
3.59867	-41
3.60233	-43
3.60600	-38
3.60967	-32
3.61333	-23
3.61700	-16
3.62067	-14
3.62433	-20
3.62800	-28
3.63167	-35
3.63533	-40
3.63900	-45
3.64267	-48
3.64633	-49
3.65000	-46
3.65367	-40
3.65733	-34
3.66100	-33
3.66467	-35
3.66833	-38
3.67200	-39
3.67567	-37
3.67933	-35
3.68300	-35
3.68667	-39
3.69033	-48
3.69400	-57
3.69767	-59
3.70133	-58
3.70500	-55
3.70867	-50
3.71233	-46
3.71600	-39
3.71967	-31
3.72333	-26
3.72700	-27
3.73067	-31
3.73433	-38
3.73800	-44
3.74167	-48
3.74533	-49
3.74900	-47
3.75267	-43
3.75633	-38
3.76000	-31
3.76367	-21
3.76733	-16
3.77100	-18
3.77467	-26
3.77833	-36
3.78200	-44
3.78567	-49
3.78933	-50
3.79300	-46
3.79667	-36
3.80033	-28
3.80400	-24
3.80767	-24
3.81133	-28
3.81500	-37
3.81867	-49
3.82233	-59
3.82600	-62
3.82967	-60
3.83333	-53
3.83700	-48
3.84067	-44
3.84433	-44
3.84800	-46
3.85167	-52
3.85533	-57
3.85900	-61
3.86267	-61
3.86633	-61
3.87000	-59
3.87367	-58
3.87733	-57
3.88100	-55
3.88467	-50
3.88833	-41
3.89200	-33
3.89567	-32
3.89933	-38
3.90300	-48
3.90667	-56
3.91033	-58
3.91400	-59
3.91767	-61
3.92133	-60
3.92500	-56
3.92867	-53
3.93233	-52
3.93600	-51
3.93967	-48
3.94333	-44
3.94700	-41
3.95067	-42
3.95433	-47
3.95800	-54
3.96167	-61
3.96533	-64
3.96900	-64
3.97267	-63
3.97633	-60
3.98000	-56
3.98367	-55
3.98733	-58
3.99100	-60
3.99467	-62
3.99833	-70

[Chromatogram (Ch2)]
Interval(msec)	220
# of Points	1091
Start Time(min)	0.002
End Time(min)	3.998
R.Time (min)	Intensity
0.00167	-0
0.00533	-1
0.00900	-1
0.01267	-0
0.01633	-0
0.02000	0
0.02367	0
0.02733	0
0.03100	1
0.03467	1
0.03833	1
0.04200	1
0.04567	1
0.04933	1
0.05300	1
0.05667	0
0.06033	0
0.06400	0
0.06767	0
0.07133	1
0.07500	1
0.07867	1
0.08233	1
0.08600	1
0.08967	1
0.09333	1
0.09700	1
0.10067	0
0.10433	0
0.10800	0
0.11167	0
0.11533	0
0.11900	0
0.12267	0
0.12633	0
0.13000	0
0.13367	0
0.13733	0
0.14100	-0
0.14467	-0
0.14833	-0
0.15200	-1
0.15567	-1
0.15933	-1
0.16300	-1
0.16667	-1
0.17033	-1
0.17400	-1
0.17767	-1
0.18133	-1
0.18500	-0
0.18867	-0
0.19233	-0
0.19600	-1
0.19967	-1
0.20333	-0
0.20700	-0
0.21067	-0
0.21433	-0
0.21800	-1
0.22167	-1
0.22533	-0
0.22900	-0
0.23267	-0
0.23633	-0
0.24000	-0
0.24367	-0
0.24733	0
0.25100	0
0.25467	0
0.25833	0
0.26200	0
0.26567	1
0.26933	1
0.27300	1
0.27667	1
0.28033	1
0.28400	1
0.28767	1
0.29133	1
0.29500	1
0.29867	1
0.30233	1
0.30600	1
0.30967	0
0.31333	1
0.31700	1
0.32067	1
0.32433	1
0.32800	1
0.33167	1
0.33533	1
0.33900	1
0.34267	1
0.34633	1
0.35000	1
0.35367	1
0.35733	1
0.36100	1
0.36467	1
0.36833	1
0.37200	0
0.37567	0
0.37933	-0
0.38300	-0
0.38667	-0
0.39033	-1
0.39400	-1
0.39767	-1
0.40133	-1
0.40500	-1
0.40867	-1
0.41233	-1
0.41600	-1
0.41967	-1
0.42333	-1
0.42700	-1
0.43067	-1
0.43433	-1
0.43800	-1
0.44167	-1
0.44533	-1
0.44900	-1
0.45267	-1
0.45633	-1
0.46000	-0
0.46367	-0
0.46733	0
0.47100	0
0.47467	0
0.47833	0
0.48200	0
0.48567	1
0.48933	0
0.49300	0
0.49667	0
0.50033	0
0.50400	0
0.50767	0
0.51133	0
0.51500	0
0.51867	0
0.52233	0
0.52600	1
0.52967	1
0.53333	1
0.53700	1
0.54067	1
0.54433	0
0.54800	0
0.55167	0
0.55533	0
0.55900	0
0.56267	0
0.56633	0
0.57000	0
0.57367	-0
0.57733	-0
0.58100	-0
0.58467	-0
0.58833	-0
0.59200	-0
0.59567	-0
0.59933	-0
0.60300	-0
0.60667	-0
0.61033	-0
0.61400	-0
0.61767	-1
0.62133	-1
0.62500	-1
0.62867	-1
0.63233	-1
0.63600	-1
0.63967	-1
0.64333	-1
0.64700	-1
0.65067	-1
0.65433	-1
0.65800	-1
0.66167	-1
0.66533	-1
0.66900	-1
0.67267	-1
0.67633	-1
0.68000	-1
0.68367	-1
0.68733	-1
0.69100	-1
0.69467	-1
0.69833	-1
0.70200	-1
0.70567	-1
0.70933	-2
0.71300	-2
0.71667	-2
0.72033	-1
0.72400	-1
0.72767	-1
0.73133	-1
0.73500	-1
0.73867	-1
0.74233	-1
0.74600	-1
0.74967	-0
0.75333	-0
0.75700	-0
0.76067	-0
0.76433	-0
0.76800	-0
0.77167	-0
0.77533	-0
0.77900	0
0.78267	-0
0.78633	-0
0.79000	-1
0.79367	-1
0.79733	-1
0.80100	-1
0.80467	-1
0.80833	-1
0.81200	-1
0.81567	-1
0.81933	-1
0.82300	-1
0.82667	-1
0.83033	-1
0.83400	-1
0.83767	-1
0.84133	-1
0.84500	-1
0.84867	-1
0.85233	-1
0.85600	-1
0.85967	-2
0.86333	-1
0.86700	-1
0.87067	-1
0.87433	-1
0.87800	-1
0.88167	-1
0.88533	-1
0.88900	-1
0.89267	-1
0.89633	-1
0.90000	-2
0.90367	-2
0.90733	-2
0.91100	-2
0.91467	-2
0.91833	-2
0.92200	-2
0.92567	-2
0.92933	-2
0.93300	-2
0.93667	-2
0.94033	-2
0.94400	-2
0.94767	-1
0.95133	-2
0.95500	-2
0.95867	-2
0.96233	-2
0.96600	-2
0.96967	-2
0.97333	-2
0.97700	-2
0.98067	-2
0.98433	-2
0.98800	-2
0.99167	-2
0.99533	-2
0.99900	-2
1.00267	-2
1.00633	-2
1.01000	-2
1.01367	-3
1.01733	-3
1.02100	-3
1.02467	-3
1.02833	-3
1.03200	-3
1.03567	-3
1.03933	-3
1.04300	-3
1.04667	-3
1.05033	-3
1.05400	-2
1.05767	-2
1.06133	-2
1.06500	-2
1.06867	-2
1.07233	-2
1.07600	-2
1.07967	-1
1.08333	-1
1.08700	-1
1.09067	-0
1.09433	-1
1.09800	-1
1.10167	-1
1.10533	-0
1.10900	-0
1.11267	-0
1.11633	-0
1.12000	-0
1.12367	0
1.12733	0
1.13100	0
1.13467	0
1.13833	0
1.14200	0
1.14567	0
1.14933	-0
1.15300	-0
1.15667	-1
1.16033	-1
1.16400	-1
1.16767	-1
1.17133	-2
1.17500	-2
1.17867	-2
1.18233	-2
1.18600	-2
1.18967	-2
1.19333	-2
1.19700	-2
1.20067	-2
1.20433	-2
1.20800	-2
1.21167	-2
1.21533	-2
1.21900	-2
1.22267	-2
1.22633	-2
1.23000	-2
1.23367	-2
1.23733	-2
1.24100	-2
1.24467	-1
1.24833	-1
1.25200	-1
1.25567	-1
1.25933	-1
1.26300	-1
1.26667	-1
1.27033	-1
1.27400	-1
1.27767	-1
1.28133	-1
1.28500	-1
1.28867	-1
1.29233	-1
1.29600	-1
1.29967	-1
1.30333	-2
1.30700	-2
1.31067	-2
1.31433	-2
1.31800	-2
1.32167	-1
1.32533	-1
1.32900	-1
1.33267	-1
1.33633	-1
1.34000	-1
1.34367	-1
1.34733	-2
1.35100	-2
1.35467	-2
1.35833	-2
1.36200	-2
1.36567	-2
1.36933	-2
1.37300	-2
1.37667	-2
1.38033	-2
1.38400	-2
1.38767	-3
1.39133	-3
1.39500	-3
1.39867	-3
1.40233	-3
1.40600	-3
1.40967	-3
1.41333	-3
1.41700	-3
1.42067	-3
1.42433	-2
1.42800	-2
1.43167	-3
1.43533	-3
1.43900	-3
1.44267	-3
1.44633	-2
1.45000	-3
1.45367	-3
1.45733	-3
1.46100	-3
1.46467	-3
1.46833	-3
1.47200	-3
1.47567	-3
1.47933	-3
1.48300	-3
1.48667	-4
1.49033	-4
1.49400	-4
1.49767	-4
1.50133	-3
1.50500	-3
1.50867	-3
1.51233	-3
1.51600	-3
1.51967	-3
1.52333	-2
1.52700	-2
1.53067	-2
1.53433	-2
1.53800	-2
1.54167	-2
1.54533	-2
1.54900	-3
1.55267	-3
1.55633	-3
1.56000	-4
1.56367	-4
1.56733	-4
1.57100	-4
1.57467	-4
1.57833	-4
1.58200	-4
1.58567	-4
1.58933	-4
1.59300	-4
1.59667	-5
1.60033	-5
1.60400	-6
1.60767	-7
1.61133	-8
1.61500	-10
1.61867	-12
1.62233	-14
1.62600	-16
1.62967	-19
1.63333	-22
1.63700	-25
1.64067	-29
1.64433	-32
1.64800	-36
1.65167	-39
1.65533	-43
1.65900	-47
1.66267	-51
1.66633	-55
1.67000	-60
1.67367	-65
1.67733	-70
1.68100	-75
1.68467	-80
1.68833	-85
1.69200	-89
1.69567	-93
1.69933	-96
1.70300	-99
1.70667	-101
1.71033	-103
1.71400	-105
1.71767	-106
1.72133	-107
1.72500	-108
1.72867	-108
1.73233	-109
1.73600	-110
1.73967	-110
1.74333	-111
1.74700	-112
1.75067	-112
1.75433	-113
1.75800	-113
1.76167	-113
1.76533	-113
1.76900	-114
1.77267	-115
1.77633	-115
1.78000	-116
1.78367	-117
1.78733	-117
1.79100	-117
1.79467	-117
1.79833	-117
1.80200	-116
1.80567	-115
1.80933	-115
1.81300	-114
1.81667	-114
1.82033	-115
1.82400	-115
1.82767	-116
1.83133	-116
1.83500	-116
1.83867	-117
1.84233	-117
1.84600	-117
1.84967	-116
1.85333	-116
1.85700	-116
1.86067	-116
1.86433	-117
1.86800	-117
1.87167	-117
1.87533	-118
1.87900	-118
1.88267	-119
1.88633	-119
1.89000	-119
1.89367	-119
1.89733	-119
1.90100	-119
1.90467	-119
1.90833	-119
1.91200	-119
1.91567	-119
1.91933	-119
1.92300	-119
1.92667	-118
1.93033	-118
1.93400	-117
1.93767	-116
1.94133	-115
1.94500	-114
1.94867	-113
1.95233	-113
1.95600	-113
1.95967	-112
1.96333	-113
1.96700	-113
1.97067	-113
1.97433	-113
1.97800	-113
1.98167	-113
1.98533	-114
1.98900	-114
1.99267	-114
1.99633	-113
2.00000	-113
2.00367	-113
2.00733	-112
2.01100	-112
2.01467	-111
2.01833	-111
2.02200	-111
2.02567	-110
2.02933	-110
2.03300	-109
2.03667	-108
2.04033	-108
2.04400	-108
2.04767	-107
2.05133	-107
2.05500	-107
2.05867	-107
2.06233	-107
2.06600	-107
2.06967	-107
2.07333	-107
2.07700	-107
2.08067	-107
2.08433	-107
2.08800	-107
2.09167	-106
2.09533	-106
2.09900	-105
2.10267	-105
2.10633	-104
2.11000	-104
2.11367	-103
2.11733	-102
2.12100	-101
2.12467	-100
2.12833	-99
2.13200	-98
2.13567	-98
2.13933	-98
2.14300	-98
2.14667	-99
2.15033	-99
2.15400	-99
2.15767	-100
2.16133	-99
2.16500	-99
2.16867	-98
2.17233	-98
2.17600	-98
2.17967	-97
2.18333	-97
2.18700	-97
2.19067	-97
2.19433	-97
2.19800	-97
2.20167	-97
2.20533	-97
2.20900	-97
2.21267	-96
2.21633	-96
2.22000	-96
2.22367	-96
2.22733	-96
2.23100	-95
2.23467	-95
2.23833	-94
2.24200	-92
2.24567	-92
2.24933	-91
2.25300	-91
2.25667	-90
2.26033	-90
2.26400	-90
2.26767	-91
2.27133	-91
2.27500	-91
2.27867	-91
2.28233	-91
2.28600	-91
2.28967	-90
2.29333	-90
2.29700	-89
2.30067	-89
2.30433	-89
2.30800	-88
2.31167	-88
2.31533	-88
2.31900	-87
2.32267	-87
2.32633	-86
2.33000	-85
2.33367	-84
2.33733	-83
2.34100	-82
2.34467	-82
2.34833	-81
2.35200	-80
2.35567	-80
2.35933	-79
2.36300	-78
2.36667	-76
2.37033	-75
2.37400	-73
2.37767	-70
2.38133	-67
2.38500	-64
2.38867	-61
2.39233	-57
2.39600	-53
2.39967	-49
2.40333	-46
2.40700	-42
2.41067	-38
2.41433	-34
2.41800	-30
2.42167	-27
2.42533	-24
2.42900	-21
2.43267	-19
2.43633	-17
2.44000	-15
2.44367	-13
2.44733	-11
2.45100	-9
2.45467	-7
2.45833	-5
2.46200	-4
2.46567	-2
2.46933	-1
2.47300	0
2.47667	1
2.48033	2
2.48400	2
2.48767	3
2.49133	4
2.49500	5
2.49867	6
2.50233	7
2.50600	8
2.50967	8
2.51333	9
2.51700	10
2.52067	10
2.52433	11
2.52800	12
2.53167	12
2.53533	13
2.53900	14
2.54267	14
2.54633	14
2.55000	14
2.55367	14
2.55733	15
2.56100	15
2.56467	16
2.56833	17
2.57200	17
2.57567	18
2.57933	18
2.58300	18
2.58667	17
2.59033	17
2.59400	16
2.59767	16
2.60133	16
2.60500	15
2.60867	16
2.61233	16
2.61600	16
2.61967	17
2.62333	17
2.62700	18
2.63067	19
2.63433	19
2.63800	19
2.64167	19
2.64533	19
2.64900	19
2.65267	19
2.65633	19
2.66000	19
2.66367	19
2.66733	20
2.67100	20
2.67467	21
2.67833	21
2.68200	21
2.68567	22
2.68933	22
2.69300	23
2.69667	23
2.70033	23
2.70400	24
2.70767	24
2.71133	24
2.71500	24
2.71867	24
2.72233	23
2.72600	23
2.72967	23
2.73333	22
2.73700	22
2.74067	22
2.74433	22
2.74800	22
2.75167	23
2.75533	23
2.75900	24
2.76267	24
2.76633	24
2.77000	25
2.77367	25
2.77733	26
2.78100	26
2.78467	27
2.78833	27
2.79200	27
2.79567	27
2.79933	27
2.80300	27
2.80667	27
2.81033	27
2.81400	27
2.81767	26
2.82133	26
2.82500	26
2.82867	26
2.83233	25
2.83600	25
2.83967	25
2.84333	25
2.84700	25
2.85067	25
2.85433	24
2.85800	22
2.86167	18
2.86533	12
2.86900	3
2.87267	-9
2.87633	-25
2.88000	-44
2.88367	-67
2.88733	-95
2.89100	-126
2.89467	-161
2.89833	-199
2.90200	-240
2.90567	-284
2.90933	-330
2.91300	-378
2.91667	-427
2.92033	-478
2.92400	-528
2.92767	-579
2.93133	-630
2.93500	-680
2.93867	-730
2.94233	-779
2.94600	-829
2.94967	-881
2.95333	-939
2.95700	-1001
2.96067	-1056
2.96433	-1095
2.96800	-1110
2.97167	-1098
2.97533	-1062
2.97900	-1006
2.98267	-937
2.98633	-859
2.99000	-778
2.99367	-698
2.99733	-620
3.00100	-546
3.00467	-478
3.00833	-416
3.01200	-361
3.01567	-311
3.01933	-267
3.02300	-228
3.02667	-194
3.03033	-165
3.03400	-139
3.03767	-117
3.04133	-98
3.04500	-82
3.04867	-68
3.05233	-55
3.05600	-45
3.05967	-36
3.06333	-29
3.06700	-23
3.07067	-17
3.07433	-13
3.07800	-9
3.08167	-6
3.08533	-3
3.08900	-0
3.09267	2
3.09633	4
3.10000	6
3.10367	7
3.10733	8
3.11100	9
3.11467	10
3.11833	11
3.12200	12
3.12567	12
3.12933	13
3.13300	13
3.13667	14
3.14033	14
3.14400	14
3.14767	15
3.15133	15
3.15500	15
3.15867	16
3.16233	16
3.16600	16
3.16967	17
3.17333	17
3.17700	18
3.18067	18
3.18433	18
3.18800	19
3.19167	19
3.19533	19
3.19900	19
3.20267	19
3.20633	20
3.21000	20
3.21367	20
3.21733	20
3.22100	21
3.22467	21
3.22833	21
3.23200	21
3.23567	21
3.23933	21
3.24300	22
3.24667	22
3.25033	22
3.25400	22
3.25767	22
3.26133	22
3.26500	22
3.26867	22
3.27233	22
3.27600	22
3.27967	22
3.28333	22
3.28700	21
3.29067	21
3.29433	21
3.29800	21
3.30167	21
3.30533	22
3.30900	22
3.31267	22
3.31633	22
3.32000	22
3.32367	23
3.32733	23
3.33100	24
3.33467	24
3.33833	25
3.34200	25
3.34567	25
3.34933	25
3.35300	26
3.35667	26
3.36033	26
3.36400	27
3.36767	27
3.37133	27
3.37500	27
3.37867	27
3.38233	28
3.38600	28
3.38967	28
3.39333	28
3.39700	29
3.40067	29
3.40433	29
3.40800	29
3.41167	29
3.41533	30
3.41900	30
3.42267	30
3.42633	29
3.43000	29
3.43367	29
3.43733	29
3.44100	29
3.44467	29
3.44833	29
3.45200	29
3.45567	29
3.45933	29
3.46300	29
3.46667	29
3.47033	29
3.47400	29
3.47767	29
3.48133	29
3.48500	29
3.48867	29
3.49233	29
3.49600	29
3.49967	29
3.50333	29
3.50700	29
3.51067	29
3.51433	29
3.51800	28
3.52167	28
3.52533	28
3.52900	28
3.53267	27
3.53633	27
3.54000	27
3.54367	27
3.54733	27
3.55100	27
3.55467	27
3.55833	27
3.56200	27
3.56567	26
3.56933	26
3.57300	26
3.57667	26
3.58033	26
3.58400	26
3.58767	26
3.59133	26
3.59500	26
3.59867	26
3.60233	26
3.60600	26
3.60967	26
3.61333	26
3.61700	26
3.62067	26
3.62433	26
3.62800	26
3.63167	26
3.63533	26
3.63900	26
3.64267	26
3.64633	26
3.65000	26
3.65367	25
3.65733	25
3.66100	25
3.66467	25
3.66833	25
3.67200	25
3.67567	25
3.67933	25
3.68300	25
3.68667	25
3.69033	26
3.69400	26
3.69767	26
3.70133	26
3.70500	26
3.70867	26
3.71233	26
3.71600	26
3.71967	26
3.72333	26
3.72700	26
3.73067	26
3.73433	26
3.73800	26
3.74167	26
3.74533	26
3.74900	26
3.75267	26
3.75633	26
3.76000	25
3.76367	25
3.76733	25
3.77100	26
3.77467	26
3.77833	26
3.78200	26
3.78567	26
3.78933	25
3.79300	25
3.79667	25
3.80033	25
3.80400	25
3.80767	24
3.81133	24
3.81500	24
3.81867	25
3.82233	25
3.82600	25
3.82967	25
3.83333	26
3.83700	26
3.84067	26
3.84433	26
3.84800	26
3.85167	26
3.85533	26
3.85900	26
3.86267	26
3.86633	26
3.87000	26
3.87367	26
3.87733	26
3.88100	26
3.88467	26
3.88833	27
3.89200	26
3.89567	26
3.89933	26
3.90300	26
3.90667	26
3.91033	26
3.91400	26
3.91767	26
3.92133	26
3.92500	26
3.92867	26
3.93233	26
3.93600	26
3.93967	26
3.94333	26
3.94700	26
3.95067	26
3.95433	26
3.95800	26
3.96167	26
3.96533	26
3.96900	26
3.97267	26
3.97633	26
3.98000	26
3.98367	26
3.98733	26
3.99100	25
3.99467	25
3.99833	25

[Chromatogram (Ch3)]
Interval(msec)	220
# of Points	1091
Start Time(min)	0.002
End Time(min)	3.998
R.Time (min)	Intensity
0.00167	0
0.00533	1
0.00900	1
0.01267	1
0.01633	2
0.02000	2
0.02367	2
0.02733	2
0.03100	-0
0.03467	-1
0.03833	1
0.04200	3
0.04567	4
0.04933	1
0.05300	-1
0.05667	-1
0.06033	-1
0.06400	-1
0.06767	0
0.07133	0
0.07500	1
0.07867	2
0.08233	2
0.08600	4
0.08967	7
0.09333	8
0.09700	8
0.10067	9
0.10433	9
0.10800	10
0.11167	12
0.11533	12
0.11900	12
0.12267	11
0.12633	9
0.13000	8
0.13367	7
0.13733	7
0.14100	9
0.14467	9
0.14833	6
0.15200	6
0.15567	7
0.15933	8
0.16300	7
0.16667	7
0.17033	6
0.17400	6
0.17767	7
0.18133	7
0.18500	7
0.18867	9
0.19233	10
0.19600	10
0.19967	11
0.20333	11
0.20700	10
0.21067	8
0.21433	10
0.21800	10
0.22167	10
0.22533	11
0.22900	12
0.23267	12
0.23633	13
0.24000	12
0.24367	12
0.24733	9
0.25100	7
0.25467	7
0.25833	7
0.26200	4
0.26567	6
0.26933	9
0.27300	11
0.27667	13
0.28033	13
0.28400	15
0.28767	17
0.29133	17
0.29500	14
0.29867	12
0.30233	13
0.30600	15
0.30967	16
0.31333	18
0.31700	18
0.32067	18
0.32433	19
0.32800	18
0.33167	15
0.33533	13
0.33900	11
0.34267	10
0.34633	11
0.35000	14
0.35367	16
0.35733	17
0.36100	16
0.36467	13
0.36833	13
0.37200	13
0.37567	14
0.37933	15
0.38300	14
0.38667	13
0.39033	13
0.39400	13
0.39767	14
0.40133	18
0.40500	17
0.40867	14
0.41233	12
0.41600	12
0.41967	11
0.42333	9
0.42700	10
0.43067	9
0.43433	8
0.43800	8
0.44167	8
0.44533	10
0.44900	10
0.45267	11
0.45633	13
0.46000	11
0.46367	11
0.46733	11
0.47100	13
0.47467	15
0.47833	17
0.48200	16
0.48567	15
0.48933	13
0.49300	11
0.49667	10
0.50033	9
0.50400	10
0.50767	10
0.51133	12
0.51500	13
0.51867	15
0.52233	15
0.52600	15
0.52967	16
0.53333	17
0.53700	18
0.54067	17
0.54433	18
0.54800	19
0.55167	18
0.55533	17
0.55900	17
0.56267	19
0.56633	21
0.57000	21
0.57367	22
0.57733	24
0.58100	24
0.58467	21
0.58833	22
0.59200	21
0.59567	16
0.59933	15
0.60300	16
0.60667	19
0.61033	22
0.61400	23
0.61767	21
0.62133	18
0.62500	18
0.62867	19
0.63233	20
0.63600	19
0.63967	18
0.64333	18
0.64700	19
0.65067	19
0.65433	20
0.65800	21
0.66167	21
0.66533	19
0.66900	18
0.67267	17
0.67633	18
0.68000	18
0.68367	19
0.68733	19
0.69100	17
0.69467	16
0.69833	17
0.70200	19
0.70567	21
0.70933	23
0.71300	24
0.71667	25
0.72033	25
0.72400	25
0.72767	26
0.73133	27
0.73500	26
0.73867	27
0.74233	27
0.74600	24
0.74967	21
0.75333	20
0.75700	21
0.76067	22
0.76433	22
0.76800	22
0.77167	23
0.77533	22
0.77900	20
0.78267	20
0.78633	21
0.79000	21
0.79367	22
0.79733	23
0.80100	25
0.80467	24
0.80833	24
0.81200	25
0.81567	24
0.81933	22
0.82300	19
0.82667	18
0.83033	19
0.83400	21
0.83767	20
0.84133	20
0.84500	20
0.84867	21
0.85233	19
0.85600	16
0.85967	15
0.86333	14
0.86700	16
0.87067	19
0.87433	21
0.87800	22
0.88167	19
0.88533	16
0.88900	16
0.89267	15
0.89633	15
0.90000	16
0.90367	18
0.90733	17
0.91100	15
0.91467	18
0.91833	21
0.92200	23
0.92567	22
0.92933	20
0.93300	20
0.93667	19
0.94033	18
0.94400	17
0.94767	17
0.95133	16
0.95500	15
0.95867	14
0.96233	14
0.96600	17
0.96967	18
0.97333	17
0.97700	17
0.98067	15
0.98433	14
0.98800	12
0.99167	10
0.99533	9
0.99900	9
1.00267	9
1.00633	11
1.01000	13
1.01367	14
1.01733	18
1.02100	19
1.02467	18
1.02833	18
1.03200	17
1.03567	15
1.03933	13
1.04300	11
1.04667	12
1.05033	14
1.05400	18
1.05767	18
1.06133	16
1.06500	14
1.06867	12
1.07233	13
1.07600	14
1.07967	16
1.08333	16
1.08700	13
1.09067	13
1.09433	13
1.09800	12
1.10167	11
1.10533	12
1.10900	13
1.11267	14
1.11633	15
1.12000	15
1.12367	14
1.12733	15
1.13100	15
1.13467	16
1.13833	15
1.14200	15
1.14567	14
1.14933	16
1.15300	16
1.15667	16
1.16033	14
1.16400	16
1.16767	20
1.17133	21
1.17500	21
1.17867	21
1.18233	20
1.18600	18
1.18967	16
1.19333	15
1.19700	16
1.20067	16
1.20433	17
1.20800	17
1.21167	16
1.21533	17
1.21900	14
1.22267	10
1.22633	8
1.23000	7
1.23367	5
1.23733	7
1.24100	9
1.24467	7
1.24833	8
1.25200	10
1.25567	8
1.25933	7
1.26300	9
1.26667	9
1.27033	8
1.27400	7
1.27767	5
1.28133	5
1.28500	10
1.28867	12
1.29233	12
1.29600	11
1.29967	11
1.30333	13
1.30700	13
1.31067	12
1.31433	13
1.31800	13
1.32167	13
1.32533	13
1.32900	11
1.33267	9
1.33633	8
1.34000	8
1.34367	8
1.34733	10
1.35100	10
1.35467	9
1.35833	6
1.36200	8
1.36567	8
1.36933	10
1.37300	11
1.37667	10
1.38033	14
1.38400	17
1.38767	18
1.39133	16
1.39500	17
1.39867	16
1.40233	14
1.40600	12
1.40967	11
1.41333	10
1.41700	8
1.42067	7
1.42433	9
1.42800	11
1.43167	13
1.43533	14
1.43900	16
1.44267	15
1.44633	13
1.45000	10
1.45367	9
1.45733	10
1.46100	11
1.46467	9
1.46833	6
1.47200	6
1.47567	8
1.47933	12
1.48300	14
1.48667	13
1.49033	12
1.49400	12
1.49767	13
1.50133	13
1.50500	16
1.50867	14
1.51233	12
1.51600	11
1.51967	8
1.52333	7
1.52700	6
1.53067	6
1.53433	7
1.53800	7
1.54167	8
1.54533	7
1.54900	7
1.55267	6
1.55633	6
1.56000	6
1.56367	7
1.56733	9
1.57100	10
1.57467	10
1.57833	8
1.58200	6
1.58567	5
1.58933	3
1.59300	1
1.59667	1
1.60033	5
1.60400	9
1.60767	9
1.61133	6
1.61500	5
1.61867	7
1.62233	9
1.62600	12
1.62967	14
1.63333	14
1.63700	15
1.64067	18
1.64433	18
1.64800	18
1.65167	17
1.65533	15
1.65900	14
1.66267	14
1.66633	15
1.67000	17
1.67367	17
1.67733	16
1.68100	16
1.68467	17
1.68833	18
1.69200	17
1.69567	15
1.69933	15
1.70300	16
1.70667	16
1.71033	16
1.71400	19
1.71767	22
1.72133	22
1.72500	20
1.72867	19
1.73233	20
1.73600	20
1.73967	22
1.74333	25
1.74700	28
1.75067	27
1.75433	25
1.75800	26
1.76167	27
1.76533	27
1.76900	24
1.77267	24
1.77633	24
1.78000	23
1.78367	22
1.78733	23
1.79100	21
1.79467	22
1.79833	24
1.80200	24
1.80567	26
1.80933	27
1.81300	27
1.81667	27
1.82033	29
1.82400	32
1.82767	32
1.83133	31
1.83500	33
1.83867	32
1.84233	32
1.84600	33
1.84967	35
1.85333	37
1.85700	35
1.86067	33
1.86433	33
1.86800	33
1.87167	31
1.87533	30
1.87900	32
1.88267	35
1.88633	36
1.89000	36
1.89367	36
1.89733	38
1.90100	38
1.90467	38
1.90833	40
1.91200	40
1.91567	39
1.91933	38
1.92300	38
1.92667	41
1.93033	40
1.93400	39
1.93767	40
1.94133	42
1.94500	44
1.94867	45
1.95233	46
1.95600	46
1.95967	46
1.96333	47
1.96700	49
1.97067	50
1.97433	51
1.97800	50
1.98167	52
1.98533	54
1.98900	56
1.99267	58
1.99633	59
2.00000	57
2.00367	54
2.00733	54
2.01100	58
2.01467	61
2.01833	60
2.02200	59
2.02567	60
2.02933	60
2.03300	62
2.03667	63
2.04033	62
2.04400	63
2.04767	64
2.05133	62
2.05500	61
2.05867	61
2.06233	63
2.06600	65
2.06967	66
2.07333	65
2.07700	65
2.08067	66
2.08433	69
2.08800	72
2.09167	75
2.09533	77
2.09900	76
2.10267	75
2.10633	74
2.11000	73
2.11367	73
2.11733	74
2.12100	74
2.12467	74
2.12833	77
2.13200	81
2.13567	86
2.13933	88
2.14300	90
2.14667	91
2.15033	90
2.15400	88
2.15767	85
2.16133	84
2.16500	85
2.16867	87
2.17233	88
2.17600	90
2.17967	92
2.18333	92
2.18700	91
2.19067	93
2.19433	94
2.19800	95
2.20167	97
2.20533	98
2.20900	99
2.21267	100
2.21633	100
2.22000	103
2.22367	105
2.22733	106
2.23100	106
2.23467	105
2.23833	107
2.24200	109
2.24567	111
2.24933	111
2.25300	110
2.25667	110
2.26033	110
2.26400	110
2.26767	112
2.27133	113
2.27500	116
2.27867	120
2.28233	121
2.28600	121
2.28967	121
2.29333	122
2.29700	124
2.30067	125
2.30433	128
2.30800	129
2.31167	130
2.31533	131
2.31900	130
2.32267	128
2.32633	126
2.33000	127
2.33367	131
2.33733	132
2.34100	132
2.34467	132
2.34833	131
2.35200	133
2.35567	135
2.35933	137
2.36300	139
2.36667	142
2.37033	144
2.37400	147
2.37767	148
2.38133	146
2.38500	143
2.38867	143
2.39233	144
2.39600	145
2.39967	147
2.40333	149
2.40700	151
2.41067	153
2.41433	155
2.41800	159
2.42167	162
2.42533	164
2.42900	165
2.43267	165
2.43633	164
2.44000	167
2.44367	200
2.44733	284
2.45100	380
2.45467	452
2.45833	479
2.46200	478
2.46567	473
2.46933	467
2.47300	456
2.47667	433
2.48033	402
2.48400	368
2.48767	338
2.49133	318
2.49500	307
2.49867	302
2.50233	303
2.50600	308
2.50967	314
2.51333	318
2.51700	315
2.52067	305
2.52433	289
2.52800	268
2.53167	249
2.53533	231
2.53900	215
2.54267	203
2.54633	194
2.55000	188
2.55367	184
2.55733	180
2.56100	178
2.56467	176
2.56833	175
2.57200	176
2.57567	179
2.57933	184
2.58300	195
2.58667	207
2.59033	219
2.59400	232
2.59767	241
2.60133	247
2.60500	250
2.60867	247
2.61233	235
2.61600	213
2.61967	183
2.62333	145
2.62700	104
2.63067	60
2.63433	20
2.63800	-14
2.64167	-44
2.64533	-67
2.64900	-84
2.65267	-96
2.65633	-106
2.66000	-109
2.66367	-107
2.66733	-105
2.67100	-102
2.67467	-97
2.67833	-88
2.68200	-79
2.68567	-70
2.68933	-62
2.69300	-54
2.69667	-46
2.70033	-37
2.70400	-28
2.70767	-20
2.71133	-11
2.71500	-2
2.71867	5
2.72233	11
2.72600	16
2.72967	22
2.73333	30
2.73700	39
2.74067	46
2.74433	51
2.74800	57
2.75167	64
2.75533	70
2.75900	76
2.76267	80
2.76633	85
2.77000	89
2.77367	96
2.77733	104
2.78100	111
2.78467	116
2.78833	124
2.79200	132
2.79567	140
2.79933	147
2.80300	154
2.80667	160
2.81033	165
2.81400	169
2.81767	173
2.82133	174
2.82500	176
2.82867	185
2.83233	205
2.83600	249
2.83967	335
2.84333	487
2.84700	729
2.85067	1078
2.85433	1540
2.85800	2100
2.86167	2732
2.86533	3389
2.86900	4017
2.87267	4565
2.87633	4990
2.88000	5264
2.88367	5381
2.88733	5349
2.89100	5191
2.89467	4935
2.89833	4609
2.90200	4243
2.90567	3859
2.90933	3476
2.91300	3109
2.91667	2762
2.92033	2443
2.92400	2156
2.92767	1896
2.93133	1663
2.93500	1458
2.93867	1281
2.94233	1128
2.94600	995
2.94967	878
2.95333	774
2.95700	683
2.96067	606
2.96433	540
2.96800	486
2.97167	440
2.97533	398
2.97900	361
2.98267	328
2.98633	300
2.99000	278
2.99367	261
2.99733	246
3.00100	231
3.00467	219
3.00833	211
3.01200	202
3.01567	195
3.01933	189
3.02300	182
3.02667	178
3.03033	177
3.03400	175
3.03767	175
3.04133	174
3.04500	172
3.04867	170
3.05233	167
3.05600	167
3.05967	164
3.06333	161
3.06700	159
3.07067	160
3.07433	161
3.07800	165
3.08167	168
3.08533	169
3.08900	169
3.09267	169
3.09633	167
3.10000	165
3.10367	163
3.10733	161
3.11100	164
3.11467	168
3.11833	169
3.12200	169
3.12567	169
3.12933	170
3.13300	171
3.13667	172
3.14033	175
3.14400	179
3.14767	180
3.15133	181
3.15500	182
3.15867	183
3.16233	186
3.16600	190
3.16967	193
3.17333	194
3.17700	194
3.18067	193
3.18433	194
3.18800	198
3.19167	202
3.19533	206
3.19900	208
3.20267	208
3.20633	209
3.21000	212
3.21367	215
3.21733	218
3.22100	221
3.22467	226
3.22833	230
3.23200	234
3.23567	234
3.23933	235
3.24300	236
3.24667	237
3.25033	236
3.25400	237
3.25767	240
3.26133	242
3.26500	242
3.26867	243
3.27233	246
3.27600	248
3.27967	247
3.28333	249
3.28700	250
3.29067	249
3.29433	247
3.29800	246
3.30167	246
3.30533	247
3.30900	247
3.31267	246
3.31633	244
3.32000	244
3.32367	245
3.32733	245
3.33100	246
3.33467	247
3.33833	246
3.34200	247
3.34567	247
3.34933	244
3.35300	241
3.35667	238
3.36033	237
3.36400	238
3.36767	237
3.37133	235
3.37500	232
3.37867	229
3.38233	227
3.38600	224
3.38967	221
3.39333	221
3.39700	223
3.40067	225
3.40433	224
3.40800	225
3.41167	226
3.41533	224
3.41900	223
3.42267	221
3.42633	219
3.43000	216
3.43367	214
3.43733	212
3.44100	212
3.44467	213
3.44833	212
3.45200	209
3.45567	206
3.45933	204
3.46300	202
3.46667	199
3.47033	197
3.47400	193
3.47767	189
3.48133	188
3.48500	189
3.48867	189
3.49233	190
3.49600	190
3.49967	192
3.50333	190
3.50700	183
3.51067	169
3.51433	159
3.51800	156
3.52167	158
3.52533	163
3.52900	167
3.53267	173
3.53633	178
3.54000	184
3.54367	190
3.54733	198
3.55100	207
3.55467	217
3.55833	226
3.56200	234
3.56567	245
3.56933	256
3.57300	264
3.57667	272
3.58033	280
3.58400	287
3.58767	293
3.59133	300
3.59500	306
3.59867	313
3.60233	322
3.60600	329
3.60967	336
3.61333	342
3.61700	345
3.62067	349
3.62433	348
3.62800	349
3.63167	348
3.63533	348
3.63900	348
3.64267	349
3.64633	353
3.65000	358
3.65367	358
3.65733	357
3.66100	356
3.66467	358
3.66833	360
3.67200	362
3.67567	362
3.67933	361
3.68300	357
3.68667	355
3.69033	353
3.69400	353
3.69767	353
3.70133	353
3.70500	354
3.70867	354
3.71233	350
3.71600	346
3.71967	345
3.72333	346
3.72700	348
3.73067	347
3.73433	346
3.73800	345
3.74167	346
3.74533	345
3.74900	342
3.75267	340
3.75633	340
3.76000	342
3.76367	344
3.76733	343
3.77100	342
3.77467	340
3.77833	341
3.78200	343
3.78567	347
3.78933	347
3.79300	343
3.79667	340
3.80033	338
3.80400	338
3.80767	338
3.81133	338
3.81500	339
3.81867	340
3.82233	342
3.82600	344
3.82967	345
3.83333	341
3.83700	339
3.84067	337
3.84433	333
3.84800	328
3.85167	327
3.85533	329
3.85900	330
3.86267	330
3.86633	330
3.87000	330
3.87367	331
3.87733	329
3.88100	326
3.88467	324
3.88833	324
3.89200	323
3.89567	321
3.89933	321
3.90300	322
3.90667	326
3.91033	328
3.91400	329
3.91767	328
3.92133	327
3.92500	323
3.92867	320
3.93233	320
3.93600	320
3.93967	321
3.94333	321
3.94700	321
3.95067	321
3.95433	322
3.95800	322
3.96167	320
3.96533	319
3.96900	317
3.97267	316
3.97633	318
3.98000	321
3.98367	322
3.98733	322
3.99100	321
3.99467	318
3.99833	315

[Status Trace (Column Oven Temperature)]
Interval(msec)	1000
# of Points	240
Start Time(min)	0.010
End Time(min)	3.994
Intensity Units	
Intensity Multiplier	1
R.Time (min)	Intensity
0.01028	35.02
0.02695	35.02
0.04362	35.01
0.06028	35.02
0.07695	35.01
0.09362	35.01
0.11028	35.01
0.12695	35.01
0.14362	35.01
0.16028	35.01
0.17695	35.01
0.19362	35.02
0.21028	35.02
0.22695	35.01
0.24362	35.02
0.26028	35.01
0.27695	35.01
0.29362	35.00
0.31028	35.00
0.32695	35.00
0.34362	35.00
0.36028	34.99
0.37695	34.99
0.39362	34.99
0.41028	35.00
0.42695	35.00
0.44362	35.00
0.46028	35.00
0.47695	35.00
0.49362	35.00
0.51028	35.00
0.52695	34.99
0.54362	35.00
0.56028	35.00
0.57695	35.00
0.59362	35.00
0.61028	35.00
0.62695	35.01
0.64362	35.01
0.66028	35.00
0.67695	35.00
0.69362	35.00
0.71028	34.99
0.72695	34.99
0.74362	35.00
0.76028	34.99
0.77695	35.00
0.79362	34.99
0.81028	34.99
0.82695	34.99
0.84362	34.99
0.86028	34.99
0.87695	34.99
0.89362	34.99
0.91028	35.00
0.92695	35.00
0.94362	35.00
0.96028	35.00
0.97695	35.00
0.99362	35.01
1.01028	35.01
1.02695	35.02
1.04362	35.01
1.06028	35.01
1.07695	35.00
1.09362	35.00
1.11028	34.99
1.12695	34.99
1.14362	34.99
1.16028	35.00
1.17695	35.00
1.19362	35.00
1.21028	35.00
1.22695	34.99
1.24362	35.00
1.26028	34.99
1.27695	34.99
1.29362	34.99
1.31028	34.98
1.32695	34.97
1.34362	34.98
1.36028	34.97
1.37695	34.98
1.39362	34.98
1.41028	34.99
1.42695	34.99
1.44362	35.00
1.46028	35.01
1.47695	35.00
1.49362	35.01
1.51028	35.02
1.52695	35.01
1.54362	35.01
1.56028	35.02
1.57695	35.02
1.59362	35.04
1.61028	35.11
1.62695	35.23
1.64362	35.42
1.66028	35.67
1.67695	36.01
1.69362	36.37
1.71028	36.72
1.72695	37.06
1.74362	37.39
1.76028	37.72
1.77695	38.07
1.79362	38.39
1.81028	38.71
1.82695	39.05
1.84362	39.37
1.86028	39.70
1.87695	40.03
1.89362	40.35
1.91028	40.69
1.92695	41.02
1.94362	41.33
1.96028	41.66
1.97695	41.99
1.99362	42.32
2.01028	42.65
2.02695	42.98
2.04362	43.29
2.06028	43.62
2.07695	43.95
2.09362	44.28
2.11028	44.60
2.12695	44.91
2.14362	45.24
2.16028	45.58
2.17695	45.89
2.19362	46.23
2.21028	46.56
2.22695	46.91
2.24362	47.20
2.26028	47.55
2.27695	47.89
2.29362	48.21
2.31028	48.57
2.32695	48.90
2.34362	49.20
2.36028	49.49
2.37695	49.64
2.39362	49.68
2.41028	49.66
2.42695	49.68
2.44362	49.69
2.46028	49.68
2.47695	49.71
2.49362	49.71
2.51028	49.72
2.52695	49.72
2.54362	49.76
2.56028	49.76
2.57695	49.77
2.59362	49.80
2.61028	49.80
2.62695	49.80
2.64362	49.84
2.66028	49.85
2.67695	49.85
2.69362	49.84
2.71028	49.85
2.72695	49.88
2.74362	49.88
2.76028	49.87
2.77695	49.86
2.79362	49.84
2.81028	49.86
2.82695	49.87
2.84362	49.88
2.86028	49.88
2.87695	49.89
2.89362	49.89
2.91028	49.89
2.92695	49.91
2.94362	49.92
2.96028	49.94
2.97695	49.95
2.99362	49.96
3.01028	49.98
3.02695	49.98
3.04362	49.98
3.06028	49.98
3.07695	49.99
3.09362	49.99
3.11028	50.00
3.12695	50.01
3.14362	50.02
3.16028	50.04
3.17695	50.04
3.19362	50.04
3.21028	50.05
3.22695	50.05
3.24362	50.06
3.26028	50.08
3.27695	50.09
3.29362	50.11
3.31028	50.12
3.32695	50.11
3.34362	50.10
3.36028	50.08
3.37695	50.07
3.39362	50.05
3.41028	50.03
3.42695	50.02
3.44362	50.02
3.46028	50.02
3.47695	50.00
3.49362	50.00
3.51028	49.99
3.52695	49.99
3.54362	50.00
3.56028	50.00
3.57695	50.00
3.59362	50.00
3.61028	50.00
3.62695	50.00
3.64362	50.00
3.66028	50.02
3.67695	50.02
3.69362	50.01
3.71028	50.01
3.72695	50.02
3.74362	50.03
3.76028	50.03
3.77695	50.04
3.79362	50.05
3.81028	50.05
3.82695	50.05
3.84362	50.05
3.86028	50.05
3.87695	50.05
3.89362	50.05
3.91028	50.06
3.92695	50.06
3.94362	50.06
3.96028	50.05
3.97695	50.05
3.99362	50.05

[Status Trace (Injection Unit Temperature)]
Interval(msec)	1000
# of Points	240
Start Time(min)	0.010
End Time(min)	3.994
Intensity Units	
Intensity Multiplier	1
R.Time (min)	Intensity
0.01028	99.98
0.02695	99.98
0.04362	99.98
0.06028	99.98
0.07695	99.99
0.09362	99.98
0.11028	99.98
0.12695	99.98
0.14362	99.98
0.16028	99.99
0.17695	99.98
0.19362	99.98
0.21028	99.98
0.22695	99.99
0.24362	99.99
0.26028	99.98
0.27695	99.98
0.29362	99.99
0.31028	99.98
0.32695	99.99
0.34362	99.98
0.36028	99.99
0.37695	99.98
0.39362	99.98
0.41028	99.98
0.42695	99.98
0.44362	99.98
0.46028	99.99
0.47695	99.98
0.49362	99.98
0.51028	99.98
0.52695	99.98
0.54362	99.98
0.56028	99.98
0.57695	99.98
0.59362	99.98
0.61028	99.98
0.62695	99.98
0.64362	99.98
0.66028	99.98
0.67695	99.98
0.69362	99.98
0.71028	99.98
0.72695	99.99
0.74362	99.98
0.76028	99.98
0.77695	99.98
0.79362	99.99
0.81028	99.98
0.82695	99.99
0.84362	99.99
0.86028	99.99
0.87695	99.99
0.89362	99.99
0.91028	99.99
0.92695	99.99
0.94362	99.99
0.96028	99.98
0.97695	99.99
0.99362	99.99
1.01028	99.99
1.02695	99.98
1.04362	99.99
1.06028	99.99
1.07695	99.99
1.09362	99.99
1.11028	99.99
1.12695	99.99
1.14362	99.98
1.16028	99.99
1.17695	99.98
1.19362	99.98
1.21028	99.99
1.22695	99.99
1.24362	99.99
1.26028	99.99
1.27695	99.99
1.29362	99.99
1.31028	99.99
1.32695	99.98
1.34362	99.99
1.36028	99.99
1.37695	99.99
1.39362	99.99
1.41028	99.99
1.42695	99.99
1.44362	99.99
1.46028	99.99
1.47695	99.99
1.49362	99.99
1.51028	99.99
1.52695	99.98
1.54362	99.99
1.56028	99.99
1.57695	99.98
1.59362	99.99
1.61028	99.99
1.62695	99.99
1.64362	99.99
1.66028	99.99
1.67695	99.99
1.69362	99.98
1.71028	99.99
1.72695	99.98
1.74362	99.99
1.76028	99.98
1.77695	99.98
1.79362	99.98
1.81028	99.98
1.82695	99.98
1.84362	99.98
1.86028	99.98
1.87695	99.97
1.89362	99.97
1.91028	99.98
1.92695	99.98
1.94362	99.97
1.96028	99.97
1.97695	99.97
1.99362	99.97
2.01028	99.97
2.02695	99.97
2.04362	99.97
2.06028	99.97
2.07695	99.97
2.09362	99.97
2.11028	99.97
2.12695	99.97
2.14362	99.96
2.16028	99.96
2.17695	99.96
2.19362	99.96
2.21028	99.96
2.22695	99.96
2.24362	99.97
2.26028	99.97
2.27695	99.97
2.29362	99.97
2.31028	99.97
2.32695	99.97
2.34362	99.97
2.36028	99.97
2.37695	99.97
2.39362	99.97
2.41028	99.97
2.42695	99.97
2.44362	99.98
2.46028	99.98
2.47695	99.97
2.49362	99.98
2.51028	99.98
2.52695	99.98
2.54362	99.98
2.56028	99.98
2.57695	99.98
2.59362	99.98
2.61028	99.98
2.62695	99.98
2.64362	99.99
2.66028	99.99
2.67695	99.99
2.69362	99.99
2.71028	99.99
2.72695	99.99
2.74362	99.99
2.76028	100.00
2.77695	100.00
2.79362	99.99
2.81028	99.99
2.82695	100.00
2.84362	100.00
2.86028	100.00
2.87695	100.00
2.89362	100.00
2.91028	100.00
2.92695	100.01
2.94362	100.00
2.96028	100.01
2.97695	100.01
2.99362	100.01
3.01028	100.01
3.02695	100.01
3.04362	100.01
3.06028	100.02
3.07695	100.01
3.09362	100.02
3.11028	100.02
3.12695	100.02
3.14362	100.02
3.16028	100.02
3.17695	100.02
3.19362	100.02
3.21028	100.03
3.22695	100.03
3.24362	100.03
3.26028	100.03
3.27695	100.03
3.29362	100.02
3.31028	100.02
3.32695	100.03
3.34362	100.03
3.36028	100.03
3.37695	100.03
3.39362	100.04
3.41028	100.04
3.42695	100.04
3.44362	100.04
3.46028	100.04
3.47695	100.03
3.49362	100.04
3.51028	100.04
3.52695	100.04
3.54362	100.04
3.56028	100.04
3.57695	100.05
3.59362	100.04
3.61028	100.04
3.62695	100.05
3.64362	100.04
3.66028	100.04
3.67695	100.05
3.69362	100.04
3.71028	100.04
3.72695	100.05
3.74362	100.05
3.76028	100.05
3.77695	100.05
3.79362	100.05
3.81028	100.05
3.82695	100.05
3.84362	100.05
3.86028	100.05
3.87695	100.05
3.89362	100.05
3.91028	100.05
3.92695	100.05
3.94362	100.05
3.96028	100.05
3.97695	100.05
3.99362	100.05

[Status Trace (Carrier Gas Pressure)]
Interval(msec)	1000
# of Points	240
Start Time(min)	0.010
End Time(min)	3.994
Intensity Units	
Intensity Multiplier	1
R.Time (min)	Intensity
0.01028	58.00
0.02695	55.15
0.04362	57.36
0.06028	59.47
0.07695	59.31
0.09362	58.03
0.11028	57.98
0.12695	58.01
0.14362	58.01
0.16028	58.00
0.17695	58.00
0.19362	58.00
0.21028	58.00
0.22695	58.00
0.24362	58.00
0.26028	58.00
0.27695	58.00
0.29362	58.00
0.31028	58.00
0.32695	58.00
0.34362	58.00
0.36028	58.00
0.37695	58.00
0.39362	58.00
0.41028	58.00
0.42695	58.00
0.44362	58.00
0.46028	58.00
0.47695	58.00
0.49362	58.00
0.51028	58.00
0.52695	58.00
0.54362	58.00
0.56028	58.00
0.57695	58.00
0.59362	58.00
0.61028	58.00
0.62695	58.00
0.64362	58.00
0.66028	58.00
0.67695	58.00
0.69362	58.00
0.71028	58.00
0.72695	58.00
0.74362	58.00
0.76028	58.00
0.77695	58.00
0.79362	58.00
0.81028	58.00
0.82695	58.00
0.84362	58.00
0.86028	58.00
0.87695	58.00
0.89362	58.00
0.91028	58.00
0.92695	58.00
0.94362	58.00
0.96028	58.00
0.97695	58.00
0.99362	58.00
1.01028	58.00
1.02695	58.00
1.04362	58.00
1.06028	58.00
1.07695	58.00
1.09362	58.00
1.11028	58.00
1.12695	58.00
1.14362	58.00
1.16028	58.00
1.17695	58.00
1.19362	58.00
1.21028	58.00
1.22695	58.00
1.24362	58.00
1.26028	58.00
1.27695	58.00
1.29362	58.00
1.31028	58.00
1.32695	58.00
1.34362	58.00
1.36028	58.00
1.37695	58.00
1.39362	58.00
1.41028	58.00
1.42695	58.00
1.44362	58.00
1.46028	58.00
1.47695	58.00
1.49362	58.00
1.51028	58.00
1.52695	58.00
1.54362	58.00
1.56028	58.00
1.57695	58.00
1.59362	58.00
1.61028	58.00
1.62695	58.00
1.64362	58.00
1.66028	58.00
1.67695	58.01
1.69362	58.00
1.71028	58.00
1.72695	58.00
1.74362	58.00
1.76028	58.00
1.77695	58.00
1.79362	58.00
1.81028	58.00
1.82695	58.00
1.84362	58.00
1.86028	58.00
1.87695	58.00
1.89362	58.00
1.91028	58.00
1.92695	58.00
1.94362	58.00
1.96028	58.00
1.97695	58.00
1.99362	58.00
2.01028	58.00
2.02695	58.00
2.04362	58.00
2.06028	58.00
2.07695	58.00
2.09362	58.00
2.11028	58.00
2.12695	58.00
2.14362	58.00
2.16028	58.00
2.17695	58.00
2.19362	58.00
2.21028	58.00
2.22695	58.00
2.24362	58.00
2.26028	58.00
2.27695	58.00
2.29362	58.00
2.31028	58.00
2.32695	58.00
2.34362	58.00
2.36028	58.00
2.37695	58.00
2.39362	57.99
2.41028	57.99
2.42695	58.00
2.44362	58.00
2.46028	58.00
2.47695	58.00
2.49362	58.00
2.51028	57.99
2.52695	57.98
2.54362	58.00
2.56028	58.00
2.57695	58.00
2.59362	58.00
2.61028	58.00
2.62695	58.00
2.64362	58.00
2.66028	58.00
2.67695	58.00
2.69362	58.00
2.71028	58.00
2.72695	58.00
2.74362	58.00
2.76028	58.00
2.77695	58.00
2.79362	58.00
2.81028	58.00
2.82695	58.00
2.84362	58.00
2.86028	58.00
2.87695	58.00
2.89362	58.00
2.91028	58.00
2.92695	58.00
2.94362	58.00
2.96028	58.00
2.97695	58.00
2.99362	58.00
3.01028	58.00
3.02695	58.00
3.04362	58.00
3.06028	58.00
3.07695	58.00
3.09362	58.00
3.11028	58.00
3.12695	58.00
3.14362	58.00
3.16028	58.00
3.17695	58.00
3.19362	58.00
3.21028	58.00
3.22695	58.00
3.24362	58.00
3.26028	58.00
3.27695	58.00
3.29362	58.00
3.31028	58.00
3.32695	58.00
3.34362	58.00
3.36028	58.00
3.37695	58.00
3.39362	58.00
3.41028	58.00
3.42695	58.00
3.44362	58.00
3.46028	58.00
3.47695	58.00
3.49362	58.00
3.51028	58.00
3.52695	58.00
3.54362	58.00
3.56028	58.00
3.57695	58.00
3.59362	58.00
3.61028	58.00
3.62695	58.00
3.64362	58.00
3.66028	58.00
3.67695	58.00
3.69362	58.00
3.71028	58.00
3.72695	58.00
3.74362	58.00
3.76028	58.00
3.77695	58.00
3.79362	58.00
3.81028	58.00
3.82695	58.00
3.84362	58.00
3.86028	58.00
3.87695	58.00
3.89362	58.00
3.91028	58.00
3.92695	58.00
3.94362	58.00
3.96028	58.00
3.97695	58.00
3.99362	58.00

[Status Trace (Carrier Gas Flow)]
Interval(msec)	1000
# of Points	240
Start Time(min)	0.010
End Time(min)	3.994
Intensity Units	
Intensity Multiplier	1
R.Time (min)	Intensity
0.01028	34.52
0.02695	34.54
0.04362	34.54
0.06028	34.54
0.07695	34.50
0.09362	34.52
0.11028	34.52
0.12695	34.52
0.14362	34.52
0.16028	34.52
0.17695	34.52
0.19362	34.52
0.21028	34.52
0.22695	34.52
0.24362	34.52
0.26028	34.52
0.27695	34.52
0.29362	34.52
0.31028	34.52
0.32695	34.52
0.34362	34.52
0.36028	34.52
0.37695	34.52
0.39362	34.52
0.41028	34.52
0.42695	34.52
0.44362	34.52
0.46028	34.52
0.47695	34.52
0.49362	34.52
0.51028	34.52
0.52695	34.52
0.54362	34.52
0.56028	34.52
0.57695	34.52
0.59362	34.52
0.61028	34.52
0.62695	34.52
0.64362	34.51
0.66028	34.52
0.67695	34.52
0.69362	34.52
0.71028	34.52
0.72695	34.52
0.74362	34.52
0.76028	34.53
0.77695	34.52
0.79362	34.52
0.81028	34.51
0.82695	34.53
0.84362	34.52
0.86028	34.52
0.87695	34.51
0.89362	34.52
0.91028	34.53
0.92695	34.52
0.94362	34.52
0.96028	34.52
0.97695	34.53
0.99362	34.52
1.01028	34.52
1.02695	34.52
1.04362	34.52
1.06028	34.52
1.07695	34.51
1.09362	34.52
1.11028	34.52
1.12695	34.52
1.14362	34.52
1.16028	34.52
1.17695	34.52
1.19362	34.52
1.21028	34.52
1.22695	34.52
1.24362	34.52
1.26028	34.52
1.27695	34.52
1.29362	34.52
1.31028	34.52
1.32695	34.52
1.34362	34.52
1.36028	34.52
1.37695	34.52
1.39362	34.52
1.41028	34.52
1.42695	34.52
1.44362	34.52
1.46028	34.52
1.47695	34.52
1.49362	34.52
1.51028	34.52
1.52695	34.52
1.54362	34.52
1.56028	34.52
1.57695	34.52
1.59362	34.52
1.61028	34.52
1.62695	34.52
1.64362	34.52
1.66028	34.52
1.67695	34.52
1.69362	34.52
1.71028	34.52
1.72695	34.52
1.74362	34.52
1.76028	34.52
1.77695	34.52
1.79362	34.52
1.81028	34.52
1.82695	34.52
1.84362	34.52
1.86028	34.52
1.87695	34.52
1.89362	34.52
1.91028	34.52
1.92695	34.52
1.94362	34.52
1.96028	34.52
1.97695	34.52
1.99362	34.52
2.01028	34.52
2.02695	34.52
2.04362	34.52
2.06028	34.52
2.07695	34.52
2.09362	34.52
2.11028	34.52
2.12695	34.52
2.14362	34.52
2.16028	34.52
2.17695	34.52
2.19362	34.52
2.21028	34.52
2.22695	34.52
2.24362	34.52
2.26028	34.52
2.27695	34.52
2.29362	34.52
2.31028	34.52
2.32695	34.52
2.34362	34.52
2.36028	34.52
2.37695	34.52
2.39362	34.52
2.41028	34.52
2.42695	34.52
2.44362	34.52
2.46028	34.52
2.47695	34.52
2.49362	34.52
2.51028	34.52
2.52695	34.52
2.54362	34.52
2.56028	34.52
2.57695	34.52
2.59362	34.51
2.61028	34.52
2.62695	34.52
2.64362	34.52
2.66028	34.51
2.67695	34.52
2.69362	34.52
2.71028	34.52
2.72695	34.52
2.74362	34.52
2.76028	34.52
2.77695	34.52
2.79362	34.51
2.81028	34.52
2.82695	34.52
2.84362	34.52
2.86028	34.51
2.87695	34.53
2.89362	34.52
2.91028	34.52
2.92695	34.52
2.94362	34.53
2.96028	34.52
2.97695	34.51
2.99362	34.52
3.01028	34.52
3.02695	34.53
3.04362	34.51
3.06028	34.51
3.07695	34.52
3.09362	34.52
3.11028	34.52
3.12695	34.52
3.14362	34.52
3.16028	34.52
3.17695	34.52
3.19362	34.52
3.21028	34.52
3.22695	34.52
3.24362	34.52
3.26028	34.52
3.27695	34.52
3.29362	34.52
3.31028	34.52
3.32695	34.52
3.34362	34.52
3.36028	34.52
3.37695	34.52
3.39362	34.52
3.41028	34.52
3.42695	34.52
3.44362	34.52
3.46028	34.52
3.47695	34.52
3.49362	34.52
3.51028	34.52
3.52695	34.52
3.54362	34.52
3.56028	34.52
3.57695	34.52
3.59362	34.52
3.61028	34.52
3.62695	34.52
3.64362	34.52
3.66028	34.52
3.67695	34.52
3.69362	34.52
3.71028	34.52
3.72695	34.52
3.74362	34.52
3.76028	34.52
3.77695	34.52
3.79362	34.52
3.81028	34.52
3.82695	34.52
3.84362	34.52
3.86028	34.52
3.87695	34.52
3.89362	34.52
3.91028	34.52
3.92695	34.52
3.94362	34.52
3.96028	34.52
3.97695	34.52
3.99362	34.52

[Status Trace (Column Flow)]
Interval(msec)	1000
# of Points	240
Start Time(min)	0.010
End Time(min)	3.994
Intensity Units	
Intensity Multiplier	1
R.Time (min)	Intensity
0.01028	5.51
0.02695	5.18
0.04362	5.43
0.06028	5.68
0.07695	5.66
0.09362	5.51
0.11028	5.51
0.12695	5.51
0.14362	5.51
0.16028	5.51
0.17695	5.51
0.19362	5.51
0.21028	5.51
0.22695	5.51
0.24362	5.51
0.26028	5.51
0.27695	5.51
0.29362	5.51
0.31028	5.51
0.32695	5.51
0.34362	5.51
0.36028	5.51
0.37695	5.51
0.39362	5.51
0.41028	5.51
0.42695	5.51
0.44362	5.51
0.46028	5.51
0.47695	5.51
0.49362	5.51
0.51028	5.51
0.52695	5.51
0.54362	5.51
0.56028	5.51
0.57695	5.51
0.59362	5.51
0.61028	5.51
0.62695	5.51
0.64362	5.51
0.66028	5.51
0.67695	5.51
0.69362	5.51
0.71028	5.51
0.72695	5.51
0.74362	5.51
0.76028	5.51
0.77695	5.51
0.79362	5.51
0.81028	5.51
0.82695	5.51
0.84362	5.51
0.86028	5.51
0.87695	5.51
0.89362	5.51
0.91028	5.51
0.92695	5.51
0.94362	5.51
0.96028	5.51
0.97695	5.51
0.99362	5.51
1.01028	5.51
1.02695	5.51
1.04362	5.51
1.06028	5.51
1.07695	5.51
1.09362	5.51
1.11028	5.51
1.12695	5.51
1.14362	5.51
1.16028	5.51
1.17695	5.51
1.19362	5.51
1.21028	5.51
1.22695	5.51
1.24362	5.51
1.26028	5.51
1.27695	5.51
1.29362	5.51
1.31028	5.51
1.32695	5.51
1.34362	5.51
1.36028	5.51
1.37695	5.51
1.39362	5.51
1.41028	5.51
1.42695	5.51
1.44362	5.51
1.46028	5.51
1.47695	5.51
1.49362	5.51
1.51028	5.51
1.52695	5.51
1.54362	5.51
1.56028	5.51
1.57695	5.51
1.59362	5.51
1.61028	5.50
1.62695	5.50
1.64362	5.50
1.66028	5.49
1.67695	5.48
1.69362	5.47
1.71028	5.45
1.72695	5.44
1.74362	5.43
1.76028	5.42
1.77695	5.41
1.79362	5.40
1.81028	5.39
1.82695	5.38
1.84362	5.37
1.86028	5.36
1.87695	5.35
1.89362	5.34
1.91028	5.33
1.92695	5.32
1.94362	5.31
1.96028	5.30
1.97695	5.29
1.99362	5.28
2.01028	5.27
2.02695	5.27
2.04362	5.26
2.06028	5.25
2.07695	5.24
2.09362	5.23
2.11028	5.22
2.12695	5.21
2.14362	5.20
2.16028	5.19
2.17695	5.18
2.19362	5.17
2.21028	5.16
2.22695	5.15
2.24362	5.14
2.26028	5.13
2.27695	5.12
2.29362	5.12
2.31028	5.10
2.32695	5.10
2.34362	5.09
2.36028	5.08
2.37695	5.07
2.39362	5.07
2.41028	5.07
2.42695	5.07
2.44362	5.07
2.46028	5.07
2.47695	5.07
2.49362	5.07
2.51028	5.07
2.52695	5.07
2.54362	5.07
2.56028	5.07
2.57695	5.07
2.59362	5.07
2.61028	5.07
2.62695	5.07
2.64362	5.07
2.66028	5.07
2.67695	5.07
2.69362	5.07
2.71028	5.07
2.72695	5.07
2.74362	5.07
2.76028	5.07
2.77695	5.07
2.79362	5.07
2.81028	5.07
2.82695	5.07
2.84362	5.07
2.86028	5.07
2.87695	5.07
2.89362	5.07
2.91028	5.07
2.92695	5.07
2.94362	5.07
2.96028	5.07
2.97695	5.07
2.99362	5.07
3.01028	5.07
3.02695	5.07
3.04362	5.07
3.06028	5.07
3.07695	5.07
3.09362	5.07
3.11028	5.06
3.12695	5.06
3.14362	5.06
3.16028	5.06
3.17695	5.06
3.19362	5.06
3.21028	5.06
3.22695	5.06
3.24362	5.06
3.26028	5.06
3.27695	5.06
3.29362	5.06
3.31028	5.06
3.32695	5.06
3.34362	5.06
3.36028	5.06
3.37695	5.06
3.39362	5.06
3.41028	5.06
3.42695	5.06
3.44362	5.06
3.46028	5.06
3.47695	5.06
3.49362	5.07
3.51028	5.06
3.52695	5.07
3.54362	5.06
3.56028	5.06
3.57695	5.06
3.59362	5.06
3.61028	5.06
3.62695	5.06
3.64362	5.06
3.66028	5.06
3.67695	5.06
3.69362	5.06
3.71028	5.06
3.72695	5.06
3.74362	5.06
3.76028	5.06
3.77695	5.06
3.79362	5.06
3.81028	5.06
3.82695	5.06
3.84362	5.06
3.86028	5.06
3.87695	5.06
3.89362	5.06
3.91028	5.06
3.92695	5.06
3.94362	5.06
3.96028	5.06
3.97695	5.06
3.99362	5.06

[Status Trace (Linear Velocity)]
Interval(msec)	1000
# of Points	240
Start Time(min)	0.010
End Time(min)	3.994
Intensity Units	
Intensity Multiplier	1
R.Time (min)	Intensity
0.01028	39.01
0.02695	37.14
0.04362	38.59
0.06028	39.98
0.07695	39.87
0.09362	39.03
0.11028	39.00
0.12695	39.02
0.14362	39.02
0.16028	39.02
0.17695	39.01
0.19362	39.01
0.21028	39.01
0.22695	39.01
0.24362	39.01
0.26028	39.01
0.27695	39.01
0.29362	39.01
0.31028	39.01
0.32695	39.01
0.34362	39.01
0.36028	39.01
0.37695	39.01
0.39362	39.01
0.41028	39.01
0.42695	39.01
0.44362	39.01
0.46028	39.01
0.47695	39.01
0.49362	39.01
0.51028	39.01
0.52695	39.01
0.54362	39.01
0.56028	39.01
0.57695	39.01
0.59362	39.01
0.61028	39.01
0.62695	39.01
0.64362	39.01
0.66028	39.01
0.67695	39.01
0.69362	39.01
0.71028	39.01
0.72695	39.01
0.74362	39.01
0.76028	39.01
0.77695	39.01
0.79362	39.02
0.81028	39.01
0.82695	39.01
0.84362	39.01
0.86028	39.01
0.87695	39.01
0.89362	39.01
0.91028	39.01
0.92695	39.01
0.94362	39.01
0.96028	39.01
0.97695	39.01
0.99362	39.01
1.01028	39.01
1.02695	39.01
1.04362	39.01
1.06028	39.01
1.07695	39.01
1.09362	39.01
1.11028	39.01
1.12695	39.01
1.14362	39.01
1.16028	39.01
1.17695	39.01
1.19362	39.01
1.21028	39.01
1.22695	39.01
1.24362	39.01
1.26028	39.01
1.27695	39.01
1.29362	39.01
1.31028	39.01
1.32695	39.02
1.34362	39.02
1.36028	39.02
1.37695	39.02
1.39362	39.02
1.41028	39.01
1.42695	39.01
1.44362	39.01
1.46028	39.01
1.47695	39.01
1.49362	39.01
1.51028	39.01
1.52695	39.01
1.54362	39.01
1.56028	39.01
1.57695	39.01
1.59362	39.01
1.61028	39.00
1.62695	38.99
1.64362	38.98
1.66028	38.95
1.67695	38.92
1.69362	38.89
1.71028	38.85
1.72695	38.82
1.74362	38.79
1.76028	38.75
1.77695	38.72
1.79362	38.69
1.81028	38.66
1.82695	38.63
1.84362	38.60
1.86028	38.57
1.87695	38.54
1.89362	38.51
1.91028	38.47
1.92695	38.45
1.94362	38.42
1.96028	38.38
1.97695	38.36
1.99362	38.33
2.01028	38.29
2.02695	38.27
2.04362	38.24
2.06028	38.20
2.07695	38.18
2.09362	38.15
2.11028	38.11
2.12695	38.09
2.14362	38.06
2.16028	38.02
2.17695	38.00
2.19362	37.97
2.21028	37.94
2.22695	37.91
2.24362	37.88
2.26028	37.85
2.27695	37.82
2.29362	37.79
2.31028	37.76
2.32695	37.73
2.34362	37.70
2.36028	37.67
2.37695	37.66
2.39362	37.65
2.41028	37.66
2.42695	37.66
2.44362	37.66
2.46028	37.66
2.47695	37.66
2.49362	37.65
2.51028	37.65
2.52695	37.64
2.54362	37.65
2.56028	37.65
2.57695	37.65
2.59362	37.65
2.61028	37.65
2.62695	37.65
2.64362	37.65
2.66028	37.64
2.67695	37.64
2.69362	37.64
2.71028	37.64
2.72695	37.64
2.74362	37.64
2.76028	37.64
2.77695	37.64
2.79362	37.64
2.81028	37.64
2.82695	37.64
2.84362	37.64
2.86028	37.64
2.87695	37.64
2.89362	37.64
2.91028	37.64
2.92695	37.64
2.94362	37.64
2.96028	37.63
2.97695	37.63
2.99362	37.63
3.01028	37.63
3.02695	37.63
3.04362	37.63
3.06028	37.63
3.07695	37.63
3.09362	37.63
3.11028	37.63
3.12695	37.63
3.14362	37.63
3.16028	37.63
3.17695	37.63
3.19362	37.63
3.21028	37.62
3.22695	37.63
3.24362	37.62
3.26028	37.62
3.27695	37.62
3.29362	37.62
3.31028	37.62
3.32695	37.62
3.34362	37.62
3.36028	37.62
3.37695	37.62
3.39362	37.62
3.41028	37.63
3.42695	37.63
3.44362	37.63
3.46028	37.63
3.47695	37.63
3.49362	37.63
3.51028	37.63
3.52695	37.63
3.54362	37.63
3.56028	37.63
3.57695	37.63
3.59362	37.63
3.61028	37.63
3.62695	37.63
3.64362	37.63
3.66028	37.63
3.67695	37.63
3.69362	37.63
3.71028	37.63
3.72695	37.63
3.74362	37.63
3.76028	37.63
3.77695	37.63
3.79362	37.62
3.81028	37.63
3.82695	37.62
3.84362	37.62
3.86028	37.63
3.87695	37.63
3.89362	37.62
3.91028	37.62
3.92695	37.62
3.94362	37.62
3.96028	37.62
3.97695	37.62
3.99362	37.62

