[Header]
Application Name	LabSolutions
Version	5.110
Data File Name	C:\Users\User\Desktop\GC Analyses\Jack\UIC Prairie Sampling\10.19.22\221019_101.gcd
Output Date	1/4/2023
Output Time	2:27:21 PM

[File Information]
Type	Data File
Generated	12/15/2022 11:34:03 AM
Generated by	System Administrator
Modified	12/15/2022 11:38:32 AM
Modified by	System Administrator

[Sample Information]
Operator Name	System Administrator
Acquired	12/15/2022 11:34:32 AM
Sample Type	1:Standard
Level	1
Sample Name	221019_UICPrairie
Sample ID	221019_UICPrairie
ISTD Amount1	1
ISTD Amount2	1
ISTD Amount3	1
ISTD Amount4	1
ISTD Amount5	1
ISTD Amount6	1
ISTD Amount7	1
ISTD Amount8	1
ISTD Amount9	1
ISTD Amount10	1
ISTD Amount11	1
ISTD Amount12	1
ISTD Amount13	1
ISTD Amount14	1
ISTD Amount15	1
ISTD Amount16	1
ISTD Amount17	1
ISTD Amount18	1
ISTD Amount19	1
ISTD Amount20	1
ISTD Amount21	1
ISTD Amount22	1
ISTD Amount23	1
ISTD Amount24	1
ISTD Amount25	1
ISTD Amount26	1
ISTD Amount27	1
ISTD Amount28	1
ISTD Amount29	1
ISTD Amount30	1
ISTD Amount31	1
ISTD Amount32	1
Sample Amount	1
Dilution Factor	1
Vial#	1
Injection Volume	1
Injection Count	1
Bar Code	

[Original Files]
Data File	C:\Users\User\Desktop\GC Analyses\Jack\UIC Prairie Sampling\10.19.22\221019_101.gcd
Method File	C:\LabSolutions\Data\GHG_4min_2022\ghg3_togas_w_acet_4 min_new_int.gcm
Batch File	
Report Format File	c:\LabSolutions\System\DEFAULT.lsr

[File Description]


[Configuration]
Instrument Name	C0B7VH3-Instrument1
Instrument #	1
Line #	1
# of Detectors	3
Detector ID	DET#1	DET#2	DET#3
Detector Name	FID	PTCD	ECD
# of Channels	1	1	1

[Peak Table(Ch1)]
# of Peaks	3
Peak#	R.Time	I.Time	F.Time	Area	Height	A/H	Conc.	Mark	ID#	Name	k'	Plate #	Plate Ht.	Tailing	Resolution	Sep.Factor	Area Ratio	Height Ratio	Conc. %	Norm Conc.
1	1.465	1.439	1.534	2650	797	3.323	100.000	   	1	CO	0.000	5140	29.182	0.000	0.000	0.000	0	0	16.667	16.667
2	1.571	1.534	1.641	19746	10058	1.963	100.000	 V 	2	CH4	0.073	11779	12.734	1.126	1.523	0.000	0	0	16.667	16.667
3	2.000	1.945	2.715	1959834	910671	2.152	400.000	   	3	CO2	0.365	17495	8.574	1.226	7.248	5.034	0	0	66.667	66.667

[Peak Table(Ch2)]
# of Peaks	0

[Peak Table(Ch3)]
# of Peaks	5
Peak#	R.Time	I.Time	F.Time	Area	Height	A/H	Conc.	Mark	ID#	Name	k'	Plate #	Plate Ht.	Tailing	Resolution	Sep.Factor	Area Ratio	Height Ratio	Conc. %	Norm Conc.
1	2.466	2.356	2.495	1403	403	3.485	0.000	   			0.000	6302	23.800	0.000	0.000	0.000	0	0	0.000	0.000
2	2.513	2.495	2.550	920	312	2.951	0.000	 V 			0.019	1343	111.666	0.000	0.239	0.000	0	0	0.000	0.000
3	2.601	2.550	2.653	1427	357	3.998	0.000	 V 			0.055	4557	32.913	0.000	0.411	2.846	0	0	0.000	0.000
4	2.884	2.667	3.159	65351	15915	4.106	1.000	   	1	N2O	0.170	12598	11.907	1.635	2.198	3.081	0	0	100.000	100.000
5	3.272	3.159	3.995	14409	565	25.523	0.000	 V 			0.327	341	439.332	0.000	0.958	1.930	0	0	0.000	0.000

[Compound Results(Ch1)]
# of IDs	6
ID#	Name	R.Time	Area	Height	Conc.	Curve	3rd	2nd	1st	Constant	Area Ratio	Height Ratio	Conc. %	Norm Conc.
1	CO	1.465	2650	797	100.000	Linear	0.000000e+00	0.000000e+00	2.650026e+001	0.000000e+00	0	0	16.667	16.667
2	CH4	1.571	19746	10058	100.000	Linear	0.000000e+00	0.000000e+00	1.974639e+002	0.000000e+00	0	0	16.667	16.667
3	CO2	2.000	1959834	910671	400.000	Linear	0.000000e+00	0.000000e+00	4.899586e+003	0.000000e+00	0	0	66.667	66.667
4	Ethylene	0.000	0	0	0.000	Linear	0.000000e+00	0.000000e+00	0.000000e+00	0.000000e+00	0	0	0.000	0.000
5	Acetylene	0.000	0	0	0.000	Linear	0.000000e+00	0.000000e+00	0.000000e+00	0.000000e+00	0	0	0.000	0.000
6	Ethane	0.000	0	0	0.000	Linear	0.000000e+00	0.000000e+00	0.000000e+00	0.000000e+00	0	0	0.000	0.000

[Compound Results(Ch2)]
# of IDs	5
ID#	Name	R.Time	Area	Height	Conc.	Curve	3rd	2nd	1st	Constant	Area Ratio	Height Ratio	Conc. %	Norm Conc.
1	Hydrogen	0.000	0	0	0.000	Linear	0.000000e+00	0.000000e+00	0.000000e+00	0.000000e+00	0	0	0.000	0.000
2	Oxygen	0.000	0	0	0.000	Linear	0.000000e+00	0.000000e+00	0.000000e+00	0.000000e+00	0	0	0.000	0.000
3	Nitrogen	0.000	0	0	0.000	Linear	0.000000e+00	0.000000e+00	0.000000e+00	0.000000e+00	0	0	0.000	0.000
4	Methane	0.000	0	0	0.000	Linear	0.000000e+00	0.000000e+00	0.000000e+00	0.000000e+00	0	0	0.000	0.000
5	Carbon Monoxide	0.000	0	0	0.000	Linear	0.000000e+00	0.000000e+00	0.000000e+00	0.000000e+00	0	0	0.000	0.000

[Compound Results(Ch3)]
# of IDs	2
ID#	Name	R.Time	Area	Height	Conc.	Curve	3rd	2nd	1st	Constant	Area Ratio	Height Ratio	Conc. %	Norm Conc.
1	N2O	2.884	65351	15915	1.000	Linear	0.000000e+00	0.000000e+00	6.535126e+004	0.000000e+00	0	0	100.000	100.000
2	SF6	0.000	0	0	0.000	Linear	0.000000e+00	0.000000e+00	0.000000e+00	0.000000e+00	0	0	0.000	0.000

[Group Results(Ch1)]
# of Groups	0

[Group Results(Ch2)]
# of Groups	0

[Group Results(Ch3)]
# of Groups	0

[Chromatogram (Ch1)]
Interval(msec)	220
# of Points	1091
Start Time(min)	0.002
End Time(min)	3.998
R.Time (min)	Intensity
0.00167	-5
0.00533	-2
0.00900	-0
0.01267	1
0.01633	4
0.02000	11
0.02367	18
0.02733	17
0.03100	12
0.03467	6
0.03833	4
0.04200	6
0.04567	11
0.04933	17
0.05300	23
0.05667	26
0.06033	26
0.06400	25
0.06767	22
0.07133	21
0.07500	21
0.07867	24
0.08233	24
0.08600	20
0.08967	14
0.09333	6
0.09700	-0
0.10067	-8
0.10433	-14
0.10800	-16
0.11167	-11
0.11533	-6
0.11900	-5
0.12267	-9
0.12633	-14
0.13000	-17
0.13367	-19
0.13733	-17
0.14100	-13
0.14467	-11
0.14833	-11
0.15200	-8
0.15567	-4
0.15933	-3
0.16300	-4
0.16667	-8
0.17033	-11
0.17400	-12
0.17767	-10
0.18133	-8
0.18500	-5
0.18867	0
0.19233	6
0.19600	9
0.19967	11
0.20333	10
0.20700	4
0.21067	-4
0.21433	-15
0.21800	-24
0.22167	-26
0.22533	-23
0.22900	-19
0.23267	-17
0.23633	-19
0.24000	-23
0.24367	-25
0.24733	-26
0.25100	-24
0.25467	-22
0.25833	-19
0.26200	-11
0.26567	-3
0.26933	1
0.27300	-2
0.27667	-7
0.28033	-9
0.28400	-8
0.28767	-3
0.29133	3
0.29500	9
0.29867	13
0.30233	13
0.30600	7
0.30967	-2
0.31333	-8
0.31700	-13
0.32067	-19
0.32433	-26
0.32800	-30
0.33167	-31
0.33533	-29
0.33900	-24
0.34267	-20
0.34633	-18
0.35000	-17
0.35367	-16
0.35733	-19
0.36100	-26
0.36467	-32
0.36833	-32
0.37200	-29
0.37567	-27
0.37933	-29
0.38300	-32
0.38667	-33
0.39033	-30
0.39400	-29
0.39767	-28
0.40133	-26
0.40500	-24
0.40867	-22
0.41233	-22
0.41600	-23
0.41967	-23
0.42333	-21
0.42700	-19
0.43067	-20
0.43433	-24
0.43800	-25
0.44167	-21
0.44533	-17
0.44900	-15
0.45267	-13
0.45633	-13
0.46000	-12
0.46367	-13
0.46733	-17
0.47100	-21
0.47467	-23
0.47833	-25
0.48200	-27
0.48567	-31
0.48933	-33
0.49300	-38
0.49667	-44
0.50033	-46
0.50400	-45
0.50767	-43
0.51133	-44
0.51500	-44
0.51867	-44
0.52233	-43
0.52600	-41
0.52967	-37
0.53333	-32
0.53700	-29
0.54067	-32
0.54433	-34
0.54800	-32
0.55167	-27
0.55533	-25
0.55900	-25
0.56267	-26
0.56633	-26
0.57000	-28
0.57367	-31
0.57733	-35
0.58100	-36
0.58467	-34
0.58833	-31
0.59200	-27
0.59567	-25
0.59933	-24
0.60300	-23
0.60667	-27
0.61033	-33
0.61400	-39
0.61767	-44
0.62133	-45
0.62500	-41
0.62867	-34
0.63233	-28
0.63600	-26
0.63967	-27
0.64333	-28
0.64700	-30
0.65067	-31
0.65433	-32
0.65800	-32
0.66167	-34
0.66533	-36
0.66900	-38
0.67267	-37
0.67633	-35
0.68000	-32
0.68367	-31
0.68733	-31
0.69100	-33
0.69467	-39
0.69833	-47
0.70200	-50
0.70567	-49
0.70933	-47
0.71300	-44
0.71667	-43
0.72033	-40
0.72400	-38
0.72767	-38
0.73133	-40
0.73500	-38
0.73867	-36
0.74233	-36
0.74600	-41
0.74967	-46
0.75333	-50
0.75700	-51
0.76067	-47
0.76433	-43
0.76800	-42
0.77167	-42
0.77533	-41
0.77900	-40
0.78267	-37
0.78633	-36
0.79000	-42
0.79367	-47
0.79733	-47
0.80100	-45
0.80467	-46
0.80833	-48
0.81200	-51
0.81567	-55
0.81933	-58
0.82300	-61
0.82667	-61
0.83033	-58
0.83400	-54
0.83767	-51
0.84133	-49
0.84500	-45
0.84867	-41
0.85233	-39
0.85600	-39
0.85967	-42
0.86333	-46
0.86700	-51
0.87067	-56
0.87433	-57
0.87800	-55
0.88167	-52
0.88533	-49
0.88900	-47
0.89267	-46
0.89633	-47
0.90000	-50
0.90367	-55
0.90733	-59
0.91100	-60
0.91467	-61
0.91833	-64
0.92200	-64
0.92567	-64
0.92933	-63
0.93300	-60
0.93667	-55
0.94033	-52
0.94400	-51
0.94767	-53
0.95133	-58
0.95500	-59
0.95867	-58
0.96233	-60
0.96600	-64
0.96967	-67
0.97333	-67
0.97700	-67
0.98067	-67
0.98433	-66
0.98800	-62
0.99167	-60
0.99533	-63
0.99900	-69
1.00267	-75
1.00633	-79
1.01000	-84
1.01367	-86
1.01733	-84
1.02100	-80
1.02467	-74
1.02833	-70
1.03200	-68
1.03567	-68
1.03933	-68
1.04300	-68
1.04667	-70
1.05033	-70
1.05400	-66
1.05767	-62
1.06133	-59
1.06500	-59
1.06867	-58
1.07233	-56
1.07600	-55
1.07967	-56
1.08333	-59
1.08700	-64
1.09067	-67
1.09433	-65
1.09800	-64
1.10167	-63
1.10533	-61
1.10900	-58
1.11267	-53
1.11633	-50
1.12000	-49
1.12367	-50
1.12733	-53
1.13100	-55
1.13467	-57
1.13833	-58
1.14200	-58
1.14567	-56
1.14933	-52
1.15300	-51
1.15667	-49
1.16033	-48
1.16400	-50
1.16767	-52
1.17133	-53
1.17500	-53
1.17867	-53
1.18233	-52
1.18600	-55
1.18967	-59
1.19333	-65
1.19700	-75
1.20067	-83
1.20433	-87
1.20800	-84
1.21167	-79
1.21533	-72
1.21900	-68
1.22267	-68
1.22633	-72
1.23000	-74
1.23367	-74
1.23733	-73
1.24100	-71
1.24467	-70
1.24833	-72
1.25200	-75
1.25567	-75
1.25933	-74
1.26300	-70
1.26667	-66
1.27033	-66
1.27400	-68
1.27767	-68
1.28133	-66
1.28500	-64
1.28867	-62
1.29233	-62
1.29600	-63
1.29967	-62
1.30333	-59
1.30700	-57
1.31067	-60
1.31433	-62
1.31800	-64
1.32167	-66
1.32533	-70
1.32900	-71
1.33267	-70
1.33633	-68
1.34000	-66
1.34367	-66
1.34733	-67
1.35100	-68
1.35467	-68
1.35833	-69
1.36200	-71
1.36567	-73
1.36933	-73
1.37300	-71
1.37667	-68
1.38033	-67
1.38400	-67
1.38767	-66
1.39133	-66
1.39500	-66
1.39867	-66
1.40233	-69
1.40600	-71
1.40967	-72
1.41333	-67
1.41700	-64
1.42067	-67
1.42433	-75
1.42800	-84
1.43167	-88
1.43533	-86
1.43900	-71
1.44267	1
1.44633	170
1.45000	379
1.45367	550
1.45733	661
1.46100	715
1.46467	728
1.46833	722
1.47200	714
1.47567	710
1.47933	707
1.48300	692
1.48667	655
1.49033	593
1.49400	514
1.49767	427
1.50133	342
1.50500	266
1.50867	203
1.51233	158
1.51600	126
1.51967	102
1.52333	81
1.52700	60
1.53067	40
1.53433	27
1.53800	59
1.54167	276
1.54533	959
1.54900	2317
1.55267	4200
1.55633	6198
1.56000	7946
1.56367	9249
1.56733	9981
1.57100	9997
1.57467	9231
1.57833	7842
1.58200	6175
1.58567	4567
1.58933	3219
1.59300	2190
1.59667	1454
1.60033	947
1.60400	606
1.60767	380
1.61133	227
1.61500	123
1.61867	52
1.62233	8
1.62600	-21
1.62967	-38
1.63333	-48
1.63700	-53
1.64067	-55
1.64433	-58
1.64800	-61
1.65167	-63
1.65533	-66
1.65900	-72
1.66267	-81
1.66633	-89
1.67000	-94
1.67367	-97
1.67733	-99
1.68100	-101
1.68467	-103
1.68833	-106
1.69200	-108
1.69567	-108
1.69933	-104
1.70300	-102
1.70667	-100
1.71033	-100
1.71400	-105
1.71767	-107
1.72133	-107
1.72500	-104
1.72867	-97
1.73233	-89
1.73600	-84
1.73967	-84
1.74333	-83
1.74700	-80
1.75067	-78
1.75433	-81
1.75800	-87
1.76167	-96
1.76533	-101
1.76900	-100
1.77267	-96
1.77633	-94
1.78000	-94
1.78367	-95
1.78733	-97
1.79100	-100
1.79467	-102
1.79833	-101
1.80200	-99
1.80567	-98
1.80933	-96
1.81300	-93
1.81667	-89
1.82033	-86
1.82400	-86
1.82767	-87
1.83133	-91
1.83500	-96
1.83867	-100
1.84233	-102
1.84600	-105
1.84967	-107
1.85333	-105
1.85700	-100
1.86067	-97
1.86433	-95
1.86800	-96
1.87167	-97
1.87533	-96
1.87900	-97
1.88267	-99
1.88633	-98
1.89000	-92
1.89367	-84
1.89733	-77
1.90100	-74
1.90467	-77
1.90833	-83
1.91200	-88
1.91567	-87
1.91933	-81
1.92300	-75
1.92667	-76
1.93033	-83
1.93400	-93
1.93767	-102
1.94133	-105
1.94500	-101
1.94867	-94
1.95233	-84
1.95600	-17
1.95967	421
1.96333	2691
1.96700	11623
1.97067	38294
1.97433	99622
1.97800	209192
1.98167	363410
1.98533	539452
1.98900	705696
1.99267	833909
1.99633	905103
2.00000	910609
2.00367	853328
2.00733	748073
2.01100	617126
2.01467	483109
2.01833	362774
2.02200	264442
2.02567	189348
2.02933	134661
2.03300	96085
2.03667	69392
2.04033	51096
2.04400	38570
2.04767	29952
2.05133	23957
2.05500	19715
2.05867	16645
2.06233	14368
2.06600	12631
2.06967	11269
2.07333	10174
2.07700	9279
2.08067	8537
2.08433	7907
2.08800	7363
2.09167	6887
2.09533	6469
2.09900	6099
2.10267	5768
2.10633	5468
2.11000	5194
2.11367	4946
2.11733	4722
2.12100	4518
2.12467	4327
2.12833	4150
2.13200	3991
2.13567	3845
2.13933	3706
2.14300	3574
2.14667	3449
2.15033	3332
2.15400	3221
2.15767	3119
2.16133	3024
2.16500	2933
2.16867	2846
2.17233	2759
2.17600	2681
2.17967	2608
2.18333	2539
2.18700	2472
2.19067	2408
2.19433	2348
2.19800	2291
2.20167	2232
2.20533	2169
2.20900	2111
2.21267	2060
2.21633	2013
2.22000	1968
2.22367	1924
2.22733	1881
2.23100	1840
2.23467	1802
2.23833	1768
2.24200	1732
2.24567	1695
2.24933	1659
2.25300	1628
2.25667	1601
2.26033	1576
2.26400	1549
2.26767	1524
2.27133	1497
2.27500	1467
2.27867	1436
2.28233	1407
2.28600	1384
2.28967	1367
2.29333	1350
2.29700	1329
2.30067	1304
2.30433	1279
2.30800	1257
2.31167	1236
2.31533	1215
2.31900	1196
2.32267	1176
2.32633	1158
2.33000	1139
2.33367	1120
2.33733	1103
2.34100	1086
2.34467	1071
2.34833	1057
2.35200	1045
2.35567	1034
2.35933	1026
2.36300	1015
2.36667	1003
2.37033	993
2.37400	986
2.37767	983
2.38133	979
2.38500	972
2.38867	956
2.39233	931
2.39600	903
2.39967	878
2.40333	860
2.40700	850
2.41067	843
2.41433	834
2.41800	823
2.42167	816
2.42533	813
2.42900	810
2.43267	803
2.43633	794
2.44000	784
2.44367	775
2.44733	768
2.45100	763
2.45467	755
2.45833	747
2.46200	741
2.46567	737
2.46933	731
2.47300	721
2.47667	708
2.48033	694
2.48400	683
2.48767	674
2.49133	668
2.49500	666
2.49867	665
2.50233	663
2.50600	658
2.50967	650
2.51333	642
2.51700	637
2.52067	634
2.52433	632
2.52800	625
2.53167	616
2.53533	608
2.53900	605
2.54267	605
2.54633	607
2.55000	607
2.55367	602
2.55733	591
2.56100	578
2.56467	568
2.56833	560
2.57200	556
2.57567	557
2.57933	557
2.58300	559
2.58667	561
2.59033	563
2.59400	563
2.59767	560
2.60133	551
2.60500	538
2.60867	523
2.61233	510
2.61600	501
2.61967	495
2.62333	490
2.62700	487
2.63067	489
2.63433	491
2.63800	491
2.64167	490
2.64533	488
2.64900	485
2.65267	483
2.65633	483
2.66000	485
2.66367	487
2.66733	488
2.67100	487
2.67467	484
2.67833	483
2.68200	481
2.68567	476
2.68933	467
2.69300	458
2.69667	450
2.70033	443
2.70400	438
2.70767	434
2.71133	434
2.71500	433
2.71867	431
2.72233	432
2.72600	436
2.72967	440
2.73333	439
2.73700	435
2.74067	432
2.74433	426
2.74800	421
2.75167	422
2.75533	429
2.75900	435
2.76267	435
2.76633	428
2.77000	419
2.77367	411
2.77733	407
2.78100	403
2.78467	400
2.78833	397
2.79200	398
2.79567	400
2.79933	402
2.80300	401
2.80667	397
2.81033	387
2.81400	374
2.81767	364
2.82133	356
2.82500	352
2.82867	354
2.83233	359
2.83600	363
2.83967	369
2.84333	375
2.84700	376
2.85067	366
2.85433	363
2.85800	364
2.86167	360
2.86533	358
2.86900	359
2.87267	364
2.87633	369
2.88000	368
2.88367	365
2.88733	361
2.89100	356
2.89467	349
2.89833	342
2.90200	339
2.90567	338
2.90933	340
2.91300	346
2.91667	355
2.92033	362
2.92400	364
2.92767	360
2.93133	352
2.93500	343
2.93867	332
2.94233	322
2.94600	314
2.94967	311
2.95333	312
2.95700	313
2.96067	314
2.96433	313
2.96800	311
2.97167	311
2.97533	314
2.97900	317
2.98267	318
2.98633	318
2.99000	320
2.99367	323
2.99733	327
3.00100	328
3.00467	329
3.00833	331
3.01200	333
3.01567	336
3.01933	340
3.02300	342
3.02667	340
3.03033	333
3.03400	326
3.03767	320
3.04133	316
3.04500	312
3.04867	306
3.05233	299
3.05600	291
3.05967	283
3.06333	277
3.06700	276
3.07067	278
3.07433	279
3.07800	280
3.08167	282
3.08533	283
3.08900	282
3.09267	283
3.09633	285
3.10000	287
3.10367	288
3.10733	289
3.11100	290
3.11467	286
3.11833	280
3.12200	275
3.12567	272
3.12933	269
3.13300	264
3.13667	259
3.14033	254
3.14400	252
3.14767	254
3.15133	260
3.15500	267
3.15867	274
3.16233	280
3.16600	279
3.16967	274
3.17333	270
3.17700	267
3.18067	265
3.18433	266
3.18800	267
3.19167	268
3.19533	268
3.19900	264
3.20267	255
3.20633	246
3.21000	240
3.21367	237
3.21733	240
3.22100	245
3.22467	248
3.22833	247
3.23200	240
3.23567	232
3.23933	229
3.24300	233
3.24667	242
3.25033	251
3.25400	255
3.25767	252
3.26133	243
3.26500	232
3.26867	224
3.27233	223
3.27600	227
3.27967	232
3.28333	234
3.28700	235
3.29067	235
3.29433	234
3.29800	234
3.30167	232
3.30533	228
3.30900	222
3.31267	216
3.31633	216
3.32000	215
3.32367	211
3.32733	205
3.33100	200
3.33467	199
3.33833	200
3.34200	197
3.34567	196
3.34933	199
3.35300	204
3.35667	206
3.36033	205
3.36400	204
3.36767	203
3.37133	203
3.37500	207
3.37867	214
3.38233	219
3.38600	221
3.38967	216
3.39333	208
3.39700	202
3.40067	199
3.40433	198
3.40800	196
3.41167	194
3.41533	194
3.41900	196
3.42267	198
3.42633	199
3.43000	198
3.43367	195
3.43733	188
3.44100	181
3.44467	179
3.44833	182
3.45200	185
3.45567	188
3.45933	189
3.46300	189
3.46667	184
3.47033	180
3.47400	176
3.47767	174
3.48133	175
3.48500	178
3.48867	184
3.49233	188
3.49600	191
3.49967	193
3.50333	192
3.50700	192
3.51067	197
3.51433	201
3.51800	204
3.52167	203
3.52533	197
3.52900	188
3.53267	178
3.53633	171
3.54000	166
3.54367	161
3.54733	159
3.55100	157
3.55467	157
3.55833	159
3.56200	162
3.56567	164
3.56933	169
3.57300	174
3.57667	178
3.58033	178
3.58400	176
3.58767	171
3.59133	165
3.59500	161
3.59867	160
3.60233	161
3.60600	163
3.60967	163
3.61333	163
3.61700	162
3.62067	159
3.62433	155
3.62800	150
3.63167	147
3.63533	150
3.63900	156
3.64267	164
3.64633	173
3.65000	181
3.65367	182
3.65733	177
3.66100	169
3.66467	162
3.66833	155
3.67200	151
3.67567	149
3.67933	148
3.68300	145
3.68667	143
3.69033	143
3.69400	144
3.69767	140
3.70133	138
3.70500	141
3.70867	145
3.71233	151
3.71600	157
3.71967	157
3.72333	151
3.72700	144
3.73067	140
3.73433	140
3.73800	143
3.74167	145
3.74533	143
3.74900	138
3.75267	132
3.75633	125
3.76000	118
3.76367	114
3.76733	114
3.77100	117
3.77467	123
3.77833	131
3.78200	138
3.78567	142
3.78933	144
3.79300	144
3.79667	143
3.80033	136
3.80400	125
3.80767	115
3.81133	111
3.81500	109
3.81867	110
3.82233	114
3.82600	121
3.82967	127
3.83333	130
3.83700	131
3.84067	130
3.84433	130
3.84800	132
3.85167	137
3.85533	143
3.85900	141
3.86267	135
3.86633	129
3.87000	124
3.87367	118
3.87733	113
3.88100	111
3.88467	116
3.88833	125
3.89200	130
3.89567	130
3.89933	126
3.90300	121
3.90667	115
3.91033	107
3.91400	100
3.91767	96
3.92133	96
3.92500	99
3.92867	101
3.93233	103
3.93600	103
3.93967	104
3.94333	104
3.94700	103
3.95067	103
3.95433	107
3.95800	114
3.96167	120
3.96533	119
3.96900	114
3.97267	108
3.97633	105
3.98000	107
3.98367	110
3.98733	110
3.99100	111
3.99467	111
3.99833	109

[Chromatogram (Ch2)]
Interval(msec)	220
# of Points	1091
Start Time(min)	0.002
End Time(min)	3.998
R.Time (min)	Intensity
0.00167	-0
0.00533	-0
0.00900	-0
0.01267	-0
0.01633	0
0.02000	0
0.02367	1
0.02733	1
0.03100	1
0.03467	1
0.03833	1
0.04200	1
0.04567	1
0.04933	1
0.05300	1
0.05667	1
0.06033	1
0.06400	1
0.06767	1
0.07133	1
0.07500	1
0.07867	1
0.08233	1
0.08600	1
0.08967	0
0.09333	0
0.09700	0
0.10067	0
0.10433	0
0.10800	0
0.11167	0
0.11533	0
0.11900	0
0.12267	0
0.12633	0
0.13000	0
0.13367	0
0.13733	-0
0.14100	-0
0.14467	-0
0.14833	-0
0.15200	0
0.15567	0
0.15933	0
0.16300	0
0.16667	0
0.17033	0
0.17400	0
0.17767	0
0.18133	0
0.18500	0
0.18867	1
0.19233	1
0.19600	1
0.19967	1
0.20333	1
0.20700	1
0.21067	1
0.21433	1
0.21800	1
0.22167	1
0.22533	1
0.22900	0
0.23267	0
0.23633	0
0.24000	-0
0.24367	-1
0.24733	-1
0.25100	-1
0.25467	-1
0.25833	-1
0.26200	-2
0.26567	-2
0.26933	-2
0.27300	-2
0.27667	-2
0.28033	-2
0.28400	-2
0.28767	-2
0.29133	-2
0.29500	-2
0.29867	-2
0.30233	-3
0.30600	-3
0.30967	-3
0.31333	-3
0.31700	-3
0.32067	-3
0.32433	-3
0.32800	-2
0.33167	-2
0.33533	-2
0.33900	-1
0.34267	-1
0.34633	-1
0.35000	-0
0.35367	-0
0.35733	-0
0.36100	-0
0.36467	-0
0.36833	-0
0.37200	-0
0.37567	-0
0.37933	-0
0.38300	-0
0.38667	-0
0.39033	-0
0.39400	-0
0.39767	-0
0.40133	-1
0.40500	-1
0.40867	-1
0.41233	-1
0.41600	-1
0.41967	-0
0.42333	-0
0.42700	-0
0.43067	-0
0.43433	-0
0.43800	-0
0.44167	-0
0.44533	0
0.44900	0
0.45267	0
0.45633	0
0.46000	0
0.46367	0
0.46733	-0
0.47100	-0
0.47467	-1
0.47833	-1
0.48200	-1
0.48567	-1
0.48933	-1
0.49300	-1
0.49667	-1
0.50033	-1
0.50400	-1
0.50767	-1
0.51133	-1
0.51500	-1
0.51867	-1
0.52233	-1
0.52600	-1
0.52967	-0
0.53333	-0
0.53700	-0
0.54067	0
0.54433	0
0.54800	0
0.55167	0
0.55533	-0
0.55900	-0
0.56267	-0
0.56633	-1
0.57000	-1
0.57367	-1
0.57733	-1
0.58100	-1
0.58467	-1
0.58833	-1
0.59200	-1
0.59567	-1
0.59933	-1
0.60300	-2
0.60667	-2
0.61033	-2
0.61400	-2
0.61767	-2
0.62133	-2
0.62500	-2
0.62867	-2
0.63233	-2
0.63600	-2
0.63967	-2
0.64333	-2
0.64700	-2
0.65067	-2
0.65433	-2
0.65800	-2
0.66167	-2
0.66533	-2
0.66900	-2
0.67267	-2
0.67633	-2
0.68000	-2
0.68367	-2
0.68733	-3
0.69100	-3
0.69467	-2
0.69833	-2
0.70200	-2
0.70567	-2
0.70933	-2
0.71300	-2
0.71667	-1
0.72033	-1
0.72400	-1
0.72767	-1
0.73133	-1
0.73500	-1
0.73867	-1
0.74233	-2
0.74600	-2
0.74967	-2
0.75333	-2
0.75700	-2
0.76067	-2
0.76433	-2
0.76800	-2
0.77167	-2
0.77533	-2
0.77900	-3
0.78267	-3
0.78633	-3
0.79000	-3
0.79367	-3
0.79733	-3
0.80100	-3
0.80467	-2
0.80833	-2
0.81200	-2
0.81567	-2
0.81933	-2
0.82300	-2
0.82667	-2
0.83033	-2
0.83400	-2
0.83767	-2
0.84133	-2
0.84500	-2
0.84867	-3
0.85233	-3
0.85600	-3
0.85967	-3
0.86333	-3
0.86700	-3
0.87067	-3
0.87433	-3
0.87800	-3
0.88167	-4
0.88533	-4
0.88900	-4
0.89267	-5
0.89633	-5
0.90000	-5
0.90367	-5
0.90733	-4
0.91100	-4
0.91467	-4
0.91833	-4
0.92200	-4
0.92567	-4
0.92933	-4
0.93300	-4
0.93667	-4
0.94033	-4
0.94400	-4
0.94767	-3
0.95133	-3
0.95500	-3
0.95867	-3
0.96233	-3
0.96600	-3
0.96967	-3
0.97333	-3
0.97700	-3
0.98067	-3
0.98433	-2
0.98800	-2
0.99167	-2
0.99533	-2
0.99900	-2
1.00267	-2
1.00633	-2
1.01000	-2
1.01367	-2
1.01733	-2
1.02100	-2
1.02467	-2
1.02833	-3
1.03200	-3
1.03567	-3
1.03933	-3
1.04300	-3
1.04667	-3
1.05033	-3
1.05400	-3
1.05767	-3
1.06133	-3
1.06500	-3
1.06867	-4
1.07233	-4
1.07600	-4
1.07967	-4
1.08333	-4
1.08700	-4
1.09067	-4
1.09433	-4
1.09800	-4
1.10167	-4
1.10533	-4
1.10900	-4
1.11267	-4
1.11633	-4
1.12000	-3
1.12367	-3
1.12733	-3
1.13100	-3
1.13467	-3
1.13833	-3
1.14200	-3
1.14567	-3
1.14933	-3
1.15300	-3
1.15667	-3
1.16033	-3
1.16400	-3
1.16767	-2
1.17133	-2
1.17500	-2
1.17867	-2
1.18233	-2
1.18600	-2
1.18967	-2
1.19333	-2
1.19700	-2
1.20067	-2
1.20433	-2
1.20800	-3
1.21167	-3
1.21533	-3
1.21900	-3
1.22267	-3
1.22633	-3
1.23000	-3
1.23367	-3
1.23733	-3
1.24100	-3
1.24467	-3
1.24833	-3
1.25200	-3
1.25567	-3
1.25933	-3
1.26300	-3
1.26667	-3
1.27033	-3
1.27400	-3
1.27767	-3
1.28133	-3
1.28500	-3
1.28867	-3
1.29233	-3
1.29600	-3
1.29967	-3
1.30333	-3
1.30700	-3
1.31067	-4
1.31433	-4
1.31800	-4
1.32167	-5
1.32533	-5
1.32900	-5
1.33267	-5
1.33633	-6
1.34000	-6
1.34367	-6
1.34733	-6
1.35100	-6
1.35467	-7
1.35833	-7
1.36200	-7
1.36567	-7
1.36933	-7
1.37300	-7
1.37667	-7
1.38033	-7
1.38400	-6
1.38767	-6
1.39133	-6
1.39500	-5
1.39867	-5
1.40233	-5
1.40600	-5
1.40967	-4
1.41333	-3
1.41700	-3
1.42067	-2
1.42433	-2
1.42800	-2
1.43167	-2
1.43533	-2
1.43900	-3
1.44267	-3
1.44633	-3
1.45000	-3
1.45367	-3
1.45733	-3
1.46100	-2
1.46467	-2
1.46833	-2
1.47200	-2
1.47567	-2
1.47933	-2
1.48300	-2
1.48667	-2
1.49033	-1
1.49400	-1
1.49767	-1
1.50133	-1
1.50500	-2
1.50867	-2
1.51233	-2
1.51600	-2
1.51967	-2
1.52333	-3
1.52700	-3
1.53067	-3
1.53433	-3
1.53800	-3
1.54167	-3
1.54533	-3
1.54900	-3
1.55267	-3
1.55633	-3
1.56000	-3
1.56367	-3
1.56733	-2
1.57100	-2
1.57467	-2
1.57833	-2
1.58200	-2
1.58567	-2
1.58933	-3
1.59300	-3
1.59667	-3
1.60033	-4
1.60400	-5
1.60767	-6
1.61133	-8
1.61500	-10
1.61867	-12
1.62233	-14
1.62600	-17
1.62967	-21
1.63333	-24
1.63700	-27
1.64067	-31
1.64433	-35
1.64800	-38
1.65167	-42
1.65533	-46
1.65900	-49
1.66267	-53
1.66633	-58
1.67000	-62
1.67367	-67
1.67733	-72
1.68100	-77
1.68467	-82
1.68833	-86
1.69200	-90
1.69567	-93
1.69933	-96
1.70300	-99
1.70667	-101
1.71033	-103
1.71400	-104
1.71767	-105
1.72133	-105
1.72500	-106
1.72867	-107
1.73233	-107
1.73600	-108
1.73967	-108
1.74333	-108
1.74700	-109
1.75067	-109
1.75433	-109
1.75800	-110
1.76167	-110
1.76533	-111
1.76900	-112
1.77267	-113
1.77633	-114
1.78000	-114
1.78367	-115
1.78733	-115
1.79100	-115
1.79467	-116
1.79833	-116
1.80200	-116
1.80567	-116
1.80933	-116
1.81300	-116
1.81667	-115
1.82033	-115
1.82400	-115
1.82767	-115
1.83133	-115
1.83500	-116
1.83867	-116
1.84233	-117
1.84600	-117
1.84967	-117
1.85333	-117
1.85700	-117
1.86067	-117
1.86433	-117
1.86800	-117
1.87167	-117
1.87533	-117
1.87900	-117
1.88267	-117
1.88633	-117
1.89000	-117
1.89367	-117
1.89733	-117
1.90100	-117
1.90467	-116
1.90833	-116
1.91200	-116
1.91567	-116
1.91933	-116
1.92300	-116
1.92667	-116
1.93033	-115
1.93400	-115
1.93767	-115
1.94133	-115
1.94500	-115
1.94867	-114
1.95233	-114
1.95600	-114
1.95967	-113
1.96333	-112
1.96700	-112
1.97067	-111
1.97433	-111
1.97800	-111
1.98167	-111
1.98533	-111
1.98900	-110
1.99267	-110
1.99633	-110
2.00000	-111
2.00367	-111
2.00733	-111
2.01100	-111
2.01467	-110
2.01833	-110
2.02200	-109
2.02567	-108
2.02933	-108
2.03300	-107
2.03667	-107
2.04033	-106
2.04400	-106
2.04767	-106
2.05133	-106
2.05500	-106
2.05867	-106
2.06233	-106
2.06600	-105
2.06967	-105
2.07333	-105
2.07700	-104
2.08067	-104
2.08433	-103
2.08800	-103
2.09167	-102
2.09533	-101
2.09900	-101
2.10267	-100
2.10633	-100
2.11000	-100
2.11367	-100
2.11733	-100
2.12100	-100
2.12467	-100
2.12833	-100
2.13200	-100
2.13567	-100
2.13933	-100
2.14300	-100
2.14667	-100
2.15033	-99
2.15400	-99
2.15767	-98
2.16133	-98
2.16500	-98
2.16867	-97
2.17233	-97
2.17600	-97
2.17967	-96
2.18333	-96
2.18700	-95
2.19067	-95
2.19433	-94
2.19800	-94
2.20167	-94
2.20533	-94
2.20900	-94
2.21267	-93
2.21633	-93
2.22000	-92
2.22367	-92
2.22733	-92
2.23100	-92
2.23467	-92
2.23833	-92
2.24200	-91
2.24567	-91
2.24933	-91
2.25300	-90
2.25667	-90
2.26033	-90
2.26400	-89
2.26767	-89
2.27133	-88
2.27500	-88
2.27867	-87
2.28233	-87
2.28600	-86
2.28967	-86
2.29333	-85
2.29700	-84
2.30067	-84
2.30433	-84
2.30800	-84
2.31167	-85
2.31533	-85
2.31900	-85
2.32267	-85
2.32633	-85
2.33000	-85
2.33367	-85
2.33733	-85
2.34100	-85
2.34467	-85
2.34833	-85
2.35200	-85
2.35567	-84
2.35933	-83
2.36300	-81
2.36667	-79
2.37033	-77
2.37400	-74
2.37767	-71
2.38133	-67
2.38500	-63
2.38867	-60
2.39233	-56
2.39600	-52
2.39967	-48
2.40333	-43
2.40700	-39
2.41067	-36
2.41433	-32
2.41800	-30
2.42167	-27
2.42533	-25
2.42900	-22
2.43267	-20
2.43633	-18
2.44000	-16
2.44367	-14
2.44733	-13
2.45100	-11
2.45467	-9
2.45833	-8
2.46200	-7
2.46567	-6
2.46933	-4
2.47300	-3
2.47667	-1
2.48033	-0
2.48400	1
2.48767	1
2.49133	2
2.49500	3
2.49867	4
2.50233	6
2.50600	7
2.50967	8
2.51333	9
2.51700	10
2.52067	10
2.52433	11
2.52800	12
2.53167	12
2.53533	12
2.53900	12
2.54267	12
2.54633	13
2.55000	13
2.55367	14
2.55733	14
2.56100	15
2.56467	15
2.56833	15
2.57200	15
2.57567	14
2.57933	14
2.58300	14
2.58667	14
2.59033	14
2.59400	14
2.59767	14
2.60133	15
2.60500	15
2.60867	16
2.61233	16
2.61600	16
2.61967	17
2.62333	17
2.62700	17
2.63067	16
2.63433	17
2.63800	17
2.64167	17
2.64533	17
2.64900	17
2.65267	18
2.65633	18
2.66000	18
2.66367	19
2.66733	19
2.67100	19
2.67467	20
2.67833	20
2.68200	20
2.68567	20
2.68933	19
2.69300	19
2.69667	19
2.70033	19
2.70400	19
2.70767	19
2.71133	20
2.71500	20
2.71867	20
2.72233	21
2.72600	21
2.72967	22
2.73333	22
2.73700	23
2.74067	24
2.74433	25
2.74800	25
2.75167	26
2.75533	26
2.75900	26
2.76267	25
2.76633	25
2.77000	24
2.77367	24
2.77733	23
2.78100	23
2.78467	23
2.78833	23
2.79200	23
2.79567	23
2.79933	23
2.80300	24
2.80667	24
2.81033	24
2.81400	25
2.81767	25
2.82133	25
2.82500	25
2.82867	25
2.83233	25
2.83600	25
2.83967	26
2.84333	25
2.84700	25
2.85067	23
2.85433	20
2.85800	16
2.86167	8
2.86533	-2
2.86900	-16
2.87267	-35
2.87633	-58
2.88000	-87
2.88367	-121
2.88733	-160
2.89100	-204
2.89467	-254
2.89833	-308
2.90200	-366
2.90567	-429
2.90933	-496
2.91300	-566
2.91667	-639
2.92033	-714
2.92400	-792
2.92767	-873
2.93133	-956
2.93500	-1041
2.93867	-1127
2.94233	-1215
2.94600	-1305
2.94967	-1392
2.95333	-1466
2.95700	-1514
2.96067	-1528
2.96433	-1506
2.96800	-1453
2.97167	-1374
2.97533	-1278
2.97900	-1171
2.98267	-1061
2.98633	-951
2.99000	-845
2.99367	-745
2.99733	-653
3.00100	-569
3.00467	-494
3.00833	-427
3.01200	-368
3.01567	-316
3.01933	-271
3.02300	-231
3.02667	-197
3.03033	-168
3.03400	-143
3.03767	-121
3.04133	-102
3.04500	-86
3.04867	-73
3.05233	-61
3.05600	-51
3.05967	-42
3.06333	-35
3.06700	-29
3.07067	-24
3.07433	-19
3.07800	-15
3.08167	-12
3.08533	-9
3.08900	-6
3.09267	-4
3.09633	-2
3.10000	-0
3.10367	1
3.10733	3
3.11100	4
3.11467	5
3.11833	6
3.12200	7
3.12567	8
3.12933	9
3.13300	9
3.13667	10
3.14033	10
3.14400	11
3.14767	11
3.15133	12
3.15500	12
3.15867	13
3.16233	13
3.16600	14
3.16967	14
3.17333	14
3.17700	14
3.18067	15
3.18433	15
3.18800	15
3.19167	15
3.19533	15
3.19900	15
3.20267	15
3.20633	15
3.21000	15
3.21367	15
3.21733	15
3.22100	16
3.22467	16
3.22833	16
3.23200	16
3.23567	17
3.23933	17
3.24300	17
3.24667	17
3.25033	18
3.25400	18
3.25767	18
3.26133	18
3.26500	18
3.26867	18
3.27233	18
3.27600	18
3.27967	19
3.28333	19
3.28700	19
3.29067	20
3.29433	20
3.29800	20
3.30167	20
3.30533	21
3.30900	21
3.31267	21
3.31633	21
3.32000	21
3.32367	21
3.32733	21
3.33100	21
3.33467	21
3.33833	21
3.34200	21
3.34567	21
3.34933	22
3.35300	22
3.35667	22
3.36033	22
3.36400	22
3.36767	22
3.37133	22
3.37500	22
3.37867	23
3.38233	23
3.38600	23
3.38967	23
3.39333	23
3.39700	23
3.40067	23
3.40433	24
3.40800	24
3.41167	24
3.41533	24
3.41900	24
3.42267	24
3.42633	24
3.43000	24
3.43367	24
3.43733	24
3.44100	24
3.44467	24
3.44833	24
3.45200	24
3.45567	24
3.45933	24
3.46300	24
3.46667	24
3.47033	24
3.47400	24
3.47767	24
3.48133	24
3.48500	24
3.48867	24
3.49233	24
3.49600	24
3.49967	24
3.50333	25
3.50700	25
3.51067	25
3.51433	25
3.51800	25
3.52167	24
3.52533	24
3.52900	24
3.53267	24
3.53633	24
3.54000	24
3.54367	23
3.54733	23
3.55100	23
3.55467	23
3.55833	23
3.56200	23
3.56567	23
3.56933	23
3.57300	23
3.57667	23
3.58033	23
3.58400	23
3.58767	23
3.59133	23
3.59500	23
3.59867	23
3.60233	23
3.60600	23
3.60967	24
3.61333	24
3.61700	24
3.62067	24
3.62433	24
3.62800	25
3.63167	25
3.63533	25
3.63900	24
3.64267	24
3.64633	24
3.65000	24
3.65367	24
3.65733	24
3.66100	24
3.66467	24
3.66833	24
3.67200	24
3.67567	24
3.67933	24
3.68300	24
3.68667	24
3.69033	24
3.69400	24
3.69767	24
3.70133	24
3.70500	24
3.70867	24
3.71233	24
3.71600	24
3.71967	24
3.72333	24
3.72700	24
3.73067	24
3.73433	24
3.73800	24
3.74167	24
3.74533	24
3.74900	24
3.75267	24
3.75633	24
3.76000	24
3.76367	24
3.76733	24
3.77100	24
3.77467	24
3.77833	24
3.78200	24
3.78567	24
3.78933	24
3.79300	24
3.79667	24
3.80033	24
3.80400	24
3.80767	25
3.81133	25
3.81500	25
3.81867	25
3.82233	25
3.82600	25
3.82967	25
3.83333	25
3.83700	25
3.84067	25
3.84433	25
3.84800	25
3.85167	25
3.85533	25
3.85900	24
3.86267	24
3.86633	24
3.87000	24
3.87367	24
3.87733	24
3.88100	24
3.88467	24
3.88833	24
3.89200	24
3.89567	25
3.89933	25
3.90300	25
3.90667	25
3.91033	25
3.91400	25
3.91767	25
3.92133	25
3.92500	25
3.92867	25
3.93233	25
3.93600	25
3.93967	25
3.94333	25
3.94700	25
3.95067	25
3.95433	25
3.95800	25
3.96167	25
3.96533	25
3.96900	25
3.97267	25
3.97633	25
3.98000	25
3.98367	25
3.98733	25
3.99100	25
3.99467	24
3.99833	24

[Chromatogram (Ch3)]
Interval(msec)	220
# of Points	1091
Start Time(min)	0.002
End Time(min)	3.998
R.Time (min)	Intensity
0.00167	1
0.00533	1
0.00900	-3
0.01267	-6
0.01633	-6
0.02000	-5
0.02367	-4
0.02733	-5
0.03100	-5
0.03467	-7
0.03833	-8
0.04200	-6
0.04567	-5
0.04933	-6
0.05300	-7
0.05667	-7
0.06033	-6
0.06400	-6
0.06767	-7
0.07133	-11
0.07500	-11
0.07867	-12
0.08233	-10
0.08600	-7
0.08967	-6
0.09333	-5
0.09700	-4
0.10067	-4
0.10433	-5
0.10800	-7
0.11167	-8
0.11533	-9
0.11900	-9
0.12267	-6
0.12633	-3
0.13000	0
0.13367	2
0.13733	1
0.14100	1
0.14467	-0
0.14833	-4
0.15200	-5
0.15567	-5
0.15933	-6
0.16300	-5
0.16667	-3
0.17033	-3
0.17400	-5
0.17767	-4
0.18133	-5
0.18500	-7
0.18867	-7
0.19233	-7
0.19600	-6
0.19967	-6
0.20333	-8
0.20700	-10
0.21067	-9
0.21433	-6
0.21800	-6
0.22167	-4
0.22533	-1
0.22900	-1
0.23267	-3
0.23633	-7
0.24000	-10
0.24367	-8
0.24733	-5
0.25100	-5
0.25467	-5
0.25833	-5
0.26200	-4
0.26567	-2
0.26933	-2
0.27300	-3
0.27667	-4
0.28033	-5
0.28400	-5
0.28767	-6
0.29133	-7
0.29500	-7
0.29867	-8
0.30233	-9
0.30600	-9
0.30967	-7
0.31333	-5
0.31700	-3
0.32067	-2
0.32433	-3
0.32800	-3
0.33167	-3
0.33533	-4
0.33900	-5
0.34267	-4
0.34633	-2
0.35000	-1
0.35367	-2
0.35733	-4
0.36100	-3
0.36467	-2
0.36833	-2
0.37200	-2
0.37567	-3
0.37933	-5
0.38300	-6
0.38667	-7
0.39033	-8
0.39400	-7
0.39767	-7
0.40133	-8
0.40500	-8
0.40867	-8
0.41233	-7
0.41600	-5
0.41967	-7
0.42333	-9
0.42700	-9
0.43067	-7
0.43433	-5
0.43800	-6
0.44167	-6
0.44533	-5
0.44900	-6
0.45267	-7
0.45633	-5
0.46000	-3
0.46367	-2
0.46733	-3
0.47100	-5
0.47467	-5
0.47833	-6
0.48200	-8
0.48567	-8
0.48933	-8
0.49300	-9
0.49667	-9
0.50033	-9
0.50400	-9
0.50767	-9
0.51133	-8
0.51500	-9
0.51867	-9
0.52233	-8
0.52600	-6
0.52967	-6
0.53333	-6
0.53700	-6
0.54067	-6
0.54433	-7
0.54800	-10
0.55167	-9
0.55533	-7
0.55900	-7
0.56267	-6
0.56633	-3
0.57000	1
0.57367	3
0.57733	1
0.58100	-3
0.58467	-6
0.58833	-7
0.59200	-7
0.59567	-9
0.59933	-12
0.60300	-13
0.60667	-11
0.61033	-6
0.61400	-6
0.61767	-8
0.62133	-8
0.62500	-5
0.62867	-1
0.63233	2
0.63600	2
0.63967	-0
0.64333	-1
0.64700	-3
0.65067	-4
0.65433	-3
0.65800	-3
0.66167	-2
0.66533	-3
0.66900	-5
0.67267	-8
0.67633	-8
0.68000	-8
0.68367	-8
0.68733	-8
0.69100	-8
0.69467	-9
0.69833	-10
0.70200	-11
0.70567	-10
0.70933	-10
0.71300	-9
0.71667	-10
0.72033	-11
0.72400	-10
0.72767	-8
0.73133	-8
0.73500	-9
0.73867	-9
0.74233	-7
0.74600	-8
0.74967	-7
0.75333	-6
0.75700	-5
0.76067	-4
0.76433	-6
0.76800	-10
0.77167	-11
0.77533	-13
0.77900	-12
0.78267	-9
0.78633	-8
0.79000	-7
0.79367	-9
0.79733	-10
0.80100	-8
0.80467	-8
0.80833	-10
0.81200	-10
0.81567	-12
0.81933	-14
0.82300	-15
0.82667	-13
0.83033	-9
0.83400	-8
0.83767	-8
0.84133	-8
0.84500	-6
0.84867	-3
0.85233	-4
0.85600	-5
0.85967	-3
0.86333	-3
0.86700	-3
0.87067	-4
0.87433	-8
0.87800	-9
0.88167	-10
0.88533	-10
0.88900	-10
0.89267	-12
0.89633	-13
0.90000	-15
0.90367	-14
0.90733	-12
0.91100	-12
0.91467	-13
0.91833	-13
0.92200	-13
0.92567	-13
0.92933	-18
0.93300	-19
0.93667	-16
0.94033	-13
0.94400	-13
0.94767	-10
0.95133	-9
0.95500	-10
0.95867	-10
0.96233	-11
0.96600	-13
0.96967	-13
0.97333	-13
0.97700	-12
0.98067	-11
0.98433	-9
0.98800	-8
0.99167	-9
0.99533	-11
0.99900	-12
1.00267	-12
1.00633	-11
1.01000	-8
1.01367	-5
1.01733	-5
1.02100	-5
1.02467	-7
1.02833	-9
1.03200	-8
1.03567	-8
1.03933	-9
1.04300	-10
1.04667	-13
1.05033	-16
1.05400	-17
1.05767	-19
1.06133	-17
1.06500	-13
1.06867	-8
1.07233	-6
1.07600	-7
1.07967	-8
1.08333	-11
1.08700	-13
1.09067	-15
1.09433	-16
1.09800	-15
1.10167	-13
1.10533	-11
1.10900	-11
1.11267	-14
1.11633	-17
1.12000	-19
1.12367	-20
1.12733	-21
1.13100	-23
1.13467	-24
1.13833	-24
1.14200	-20
1.14567	-17
1.14933	-16
1.15300	-15
1.15667	-14
1.16033	-14
1.16400	-14
1.16767	-15
1.17133	-14
1.17500	-15
1.17867	-13
1.18233	-11
1.18600	-10
1.18967	-9
1.19333	-8
1.19700	-7
1.20067	-8
1.20433	-9
1.20800	-10
1.21167	-11
1.21533	-13
1.21900	-13
1.22267	-16
1.22633	-15
1.23000	-14
1.23367	-13
1.23733	-14
1.24100	-15
1.24467	-17
1.24833	-15
1.25200	-14
1.25567	-13
1.25933	-13
1.26300	-14
1.26667	-16
1.27033	-17
1.27400	-17
1.27767	-18
1.28133	-17
1.28500	-15
1.28867	-18
1.29233	-19
1.29600	-19
1.29967	-17
1.30333	-18
1.30700	-18
1.31067	-18
1.31433	-19
1.31800	-17
1.32167	-13
1.32533	-10
1.32900	-9
1.33267	-9
1.33633	-11
1.34000	-12
1.34367	-13
1.34733	-12
1.35100	-10
1.35467	-9
1.35833	-10
1.36200	-11
1.36567	-14
1.36933	-17
1.37300	-18
1.37667	-16
1.38033	-14
1.38400	-13
1.38767	-14
1.39133	-14
1.39500	-13
1.39867	-13
1.40233	-14
1.40600	-17
1.40967	-19
1.41333	-19
1.41700	-19
1.42067	-17
1.42433	-16
1.42800	-18
1.43167	-22
1.43533	-23
1.43900	-22
1.44267	-19
1.44633	-19
1.45000	-20
1.45367	-21
1.45733	-20
1.46100	-18
1.46467	-18
1.46833	-17
1.47200	-15
1.47567	-13
1.47933	-12
1.48300	-14
1.48667	-16
1.49033	-17
1.49400	-19
1.49767	-20
1.50133	-19
1.50500	-18
1.50867	-18
1.51233	-17
1.51600	-15
1.51967	-15
1.52333	-17
1.52700	-16
1.53067	-16
1.53433	-17
1.53800	-20
1.54167	-21
1.54533	-20
1.54900	-18
1.55267	-18
1.55633	-19
1.56000	-21
1.56367	-21
1.56733	-19
1.57100	-16
1.57467	-14
1.57833	-13
1.58200	-14
1.58567	-14
1.58933	-13
1.59300	-15
1.59667	-18
1.60033	-18
1.60400	-19
1.60767	-19
1.61133	-17
1.61500	-15
1.61867	-15
1.62233	-17
1.62600	-14
1.62967	-11
1.63333	-13
1.63700	-13
1.64067	-13
1.64433	-13
1.64800	-12
1.65167	-12
1.65533	-11
1.65900	-11
1.66267	-12
1.66633	-13
1.67000	-12
1.67367	-9
1.67733	-6
1.68100	-4
1.68467	-3
1.68833	-5
1.69200	-8
1.69567	-8
1.69933	-6
1.70300	-6
1.70667	-6
1.71033	-9
1.71400	-9
1.71767	-10
1.72133	-12
1.72500	-11
1.72867	-9
1.73233	-9
1.73600	-11
1.73967	-11
1.74333	-10
1.74700	-7
1.75067	-3
1.75433	1
1.75800	3
1.76167	2
1.76533	-1
1.76900	-2
1.77267	-1
1.77633	2
1.78000	3
1.78367	1
1.78733	1
1.79100	3
1.79467	7
1.79833	9
1.80200	9
1.80567	8
1.80933	10
1.81300	12
1.81667	11
1.82033	8
1.82400	5
1.82767	4
1.83133	5
1.83500	6
1.83867	7
1.84233	7
1.84600	8
1.84967	13
1.85333	17
1.85700	19
1.86067	21
1.86433	20
1.86800	18
1.87167	18
1.87533	18
1.87900	18
1.88267	18
1.88633	17
1.89000	17
1.89367	19
1.89733	22
1.90100	22
1.90467	21
1.90833	20
1.91200	20
1.91567	21
1.91933	23
1.92300	23
1.92667	24
1.93033	26
1.93400	26
1.93767	28
1.94133	30
1.94500	32
1.94867	34
1.95233	34
1.95600	35
1.95967	36
1.96333	36
1.96700	36
1.97067	35
1.97433	35
1.97800	33
1.98167	32
1.98533	32
1.98900	32
1.99267	34
1.99633	35
2.00000	37
2.00367	39
2.00733	41
2.01100	43
2.01467	42
2.01833	41
2.02200	42
2.02567	44
2.02933	47
2.03300	50
2.03667	52
2.04033	52
2.04400	50
2.04767	49
2.05133	48
2.05500	49
2.05867	51
2.06233	53
2.06600	54
2.06967	53
2.07333	54
2.07700	56
2.08067	59
2.08433	61
2.08800	60
2.09167	61
2.09533	63
2.09900	64
2.10267	63
2.10633	61
2.11000	61
2.11367	62
2.11733	63
2.12100	65
2.12467	66
2.12833	69
2.13200	71
2.13567	71
2.13933	73
2.14300	77
2.14667	78
2.15033	77
2.15400	76
2.15767	77
2.16133	77
2.16500	77
2.16867	77
2.17233	79
2.17600	79
2.17967	79
2.18333	80
2.18700	82
2.19067	84
2.19433	84
2.19800	85
2.20167	87
2.20533	88
2.20900	90
2.21267	93
2.21633	94
2.22000	96
2.22367	97
2.22733	99
2.23100	99
2.23467	96
2.23833	94
2.24200	95
2.24567	98
2.24933	101
2.25300	102
2.25667	105
2.26033	108
2.26400	108
2.26767	108
2.27133	108
2.27500	109
2.27867	110
2.28233	111
2.28600	111
2.28967	114
2.29333	114
2.29700	113
2.30067	112
2.30433	110
2.30800	112
2.31167	115
2.31533	119
2.31900	120
2.32267	123
2.32633	124
2.33000	126
2.33367	130
2.33733	132
2.34100	132
2.34467	131
2.34833	129
2.35200	128
2.35567	131
2.35933	132
2.36300	133
2.36667	131
2.37033	130
2.37400	133
2.37767	135
2.38133	134
2.38500	134
2.38867	133
2.39233	132
2.39600	134
2.39967	138
2.40333	141
2.40700	146
2.41067	148
2.41433	147
2.41800	144
2.42167	143
2.42533	144
2.42900	145
2.43267	147
2.43633	151
2.44000	157
2.44367	188
2.44733	255
2.45100	329
2.45467	382
2.45833	398
2.46200	394
2.46567	391
2.46933	385
2.47300	369
2.47667	342
2.48033	311
2.48400	282
2.48767	257
2.49133	241
2.49500	233
2.49867	233
2.50233	236
2.50600	241
2.50967	243
2.51333	239
2.51700	229
2.52067	218
2.52433	203
2.52800	185
2.53167	167
2.53533	152
2.53900	139
2.54267	127
2.54633	120
2.55000	114
2.55367	111
2.55733	111
2.56100	112
2.56467	112
2.56833	112
2.57200	118
2.57567	124
2.57933	131
2.58300	139
2.58667	145
2.59033	152
2.59400	162
2.59767	168
2.60133	170
2.60500	165
2.60867	151
2.61233	128
2.61600	94
2.61967	51
2.62333	3
2.62700	-46
2.63067	-94
2.63433	-139
2.63800	-177
2.64167	-206
2.64533	-226
2.64900	-242
2.65267	-253
2.65633	-261
2.66000	-263
2.66367	-262
2.66733	-257
2.67100	-247
2.67467	-237
2.67833	-225
2.68200	-214
2.68567	-203
2.68933	-192
2.69300	-182
2.69667	-170
2.70033	-158
2.70400	-146
2.70767	-134
2.71133	-125
2.71500	-117
2.71867	-107
2.72233	-98
2.72600	-90
2.72967	-81
2.73333	-73
2.73700	-66
2.74067	-59
2.74433	-51
2.74800	-42
2.75167	-33
2.75533	-22
2.75900	-13
2.76267	-4
2.76633	4
2.77000	9
2.77367	13
2.77733	18
2.78100	24
2.78467	32
2.78833	41
2.79200	48
2.79567	53
2.79933	58
2.80300	62
2.80667	66
2.81033	69
2.81400	75
2.81767	81
2.82133	87
2.82500	100
2.82867	131
2.83233	201
2.83600	353
2.83967	647
2.84333	1158
2.84700	1953
2.85067	3070
2.85433	4512
2.85800	6228
2.86167	8119
2.86533	10057
2.86900	11887
2.87267	13464
2.87633	14672
2.88000	15444
2.88367	15755
2.88733	15633
2.89100	15150
2.89467	14396
2.89833	13454
2.90200	12398
2.90567	11298
2.90933	10200
2.91300	9142
2.91667	8144
2.92033	7218
2.92400	6368
2.92767	5602
2.93133	4917
2.93500	4305
2.93867	3764
2.94233	3287
2.94600	2867
2.94967	2497
2.95333	2173
2.95700	1891
2.96067	1645
2.96433	1432
2.96800	1246
2.97167	1085
2.97533	947
2.97900	826
2.98267	723
2.98633	635
2.99000	558
2.99367	494
2.99733	438
3.00100	391
3.00467	353
3.00833	320
3.01200	291
3.01567	265
3.01933	243
3.02300	224
3.02667	210
3.03033	196
3.03400	184
3.03767	174
3.04133	165
3.04500	159
3.04867	155
3.05233	151
3.05600	148
3.05967	144
3.06333	139
3.06700	136
3.07067	132
3.07433	130
3.07800	129
3.08167	128
3.08533	126
3.08900	127
3.09267	128
3.09633	129
3.10000	129
3.10367	131
3.10733	133
3.11100	131
3.11467	133
3.11833	134
3.12200	133
3.12567	134
3.12933	133
3.13300	135
3.13667	137
3.14033	136
3.14400	132
3.14767	128
3.15133	125
3.15500	122
3.15867	121
3.16233	126
3.16600	131
3.16967	141
3.17333	152
3.17700	166
3.18067	183
3.18433	202
3.18800	223
3.19167	245
3.19533	267
3.19900	291
3.20267	318
3.20633	345
3.21000	369
3.21367	396
3.21733	423
3.22100	446
3.22467	467
3.22833	485
3.23200	499
3.23567	511
3.23933	523
3.24300	535
3.24667	544
3.25033	550
3.25400	554
3.25767	558
3.26133	562
3.26500	567
3.26867	573
3.27233	576
3.27600	577
3.27967	577
3.28333	575
3.28700	575
3.29067	577
3.29433	579
3.29800	581
3.30167	582
3.30533	582
3.30900	583
3.31267	584
3.31633	585
3.32000	587
3.32367	588
3.32733	585
3.33100	584
3.33467	582
3.33833	579
3.34200	577
3.34567	572
3.34933	568
3.35300	567
3.35667	568
3.36033	567
3.36400	567
3.36767	565
3.37133	560
3.37500	556
3.37867	554
3.38233	552
3.38600	549
3.38967	545
3.39333	543
3.39700	542
3.40067	540
3.40433	538
3.40800	533
3.41167	530
3.41533	528
3.41900	528
3.42267	529
3.42633	528
3.43000	526
3.43367	525
3.43733	526
3.44100	526
3.44467	523
3.44833	519
3.45200	514
3.45567	511
3.45933	507
3.46300	504
3.46667	505
3.47033	506
3.47400	505
3.47767	502
3.48133	501
3.48500	500
3.48867	498
3.49233	499
3.49600	500
3.49967	499
3.50333	495
3.50700	491
3.51067	487
3.51433	484
3.51800	482
3.52167	479
3.52533	475
3.52900	472
3.53267	469
3.53633	468
3.54000	467
3.54367	464
3.54733	460
3.55100	458
3.55467	457
3.55833	455
3.56200	453
3.56567	451
3.56933	450
3.57300	447
3.57667	445
3.58033	443
3.58400	441
3.58767	442
3.59133	444
3.59500	445
3.59867	443
3.60233	440
3.60600	440
3.60967	439
3.61333	437
3.61700	434
3.62067	431
3.62433	427
3.62800	424
3.63167	423
3.63533	423
3.63900	422
3.64267	421
3.64633	419
3.65000	418
3.65367	416
3.65733	414
3.66100	410
3.66467	407
3.66833	409
3.67200	409
3.67567	407
3.67933	406
3.68300	405
3.68667	404
3.69033	401
3.69400	397
3.69767	393
3.70133	390
3.70500	390
3.70867	391
3.71233	392
3.71600	391
3.71967	392
3.72333	393
3.72700	393
3.73067	391
3.73433	387
3.73800	385
3.74167	384
3.74533	385
3.74900	386
3.75267	386
3.75633	383
3.76000	380
3.76367	380
3.76733	380
3.77100	381
3.77467	380
3.77833	378
3.78200	378
3.78567	377
3.78933	376
3.79300	376
3.79667	375
3.80033	374
3.80400	373
3.80767	374
3.81133	373
3.81500	368
3.81867	365
3.82233	366
3.82600	367
3.82967	367
3.83333	365
3.83700	363
3.84067	362
3.84433	361
3.84800	361
3.85167	362
3.85533	360
3.85900	358
3.86267	360
3.86633	360
3.87000	360
3.87367	362
3.87733	363
3.88100	361
3.88467	358
3.88833	358
3.89200	359
3.89567	357
3.89933	356
3.90300	356
3.90667	357
3.91033	356
3.91400	355
3.91767	353
3.92133	350
3.92500	349
3.92867	348
3.93233	350
3.93600	354
3.93967	356
3.94333	353
3.94700	351
3.95067	348
3.95433	348
3.95800	347
3.96167	347
3.96533	346
3.96900	342
3.97267	342
3.97633	343
3.98000	342
3.98367	341
3.98733	339
3.99100	336
3.99467	333
3.99833	329

[Status Trace (Column Oven Temperature)]
Interval(msec)	1000
# of Points	240
Start Time(min)	0.012
End Time(min)	3.996
Intensity Units	
Intensity Multiplier	1
R.Time (min)	Intensity
0.01218	35.02
0.02885	35.01
0.04552	35.00
0.06218	35.00
0.07885	35.00
0.09552	35.00
0.11218	35.00
0.12885	35.00
0.14552	35.00
0.16218	35.00
0.17885	35.01
0.19552	35.00
0.21218	34.99
0.22885	34.99
0.24552	35.01
0.26218	35.01
0.27885	35.02
0.29552	35.02
0.31218	35.02
0.32885	35.02
0.34552	35.02
0.36218	35.01
0.37885	35.01
0.39552	35.01
0.41218	35.00
0.42885	35.00
0.44552	34.99
0.46218	35.00
0.47885	34.99
0.49552	34.98
0.51218	34.99
0.52885	34.98
0.54552	34.98
0.56218	34.98
0.57885	34.98
0.59552	34.99
0.61218	35.00
0.62885	34.99
0.64552	35.00
0.66218	35.00
0.67885	35.01
0.69552	35.00
0.71218	34.99
0.72885	35.00
0.74552	34.99
0.76218	34.99
0.77885	34.98
0.79552	34.98
0.81218	34.98
0.82885	34.98
0.84552	34.99
0.86218	35.00
0.87885	34.99
0.89552	35.00
0.91218	34.99
0.92885	35.00
0.94552	35.01
0.96218	35.00
0.97885	35.00
0.99552	35.00
1.01218	34.99
1.02885	34.99
1.04552	34.99
1.06218	34.98
1.07885	34.99
1.09552	34.99
1.11218	34.99
1.12885	34.99
1.14552	35.00
1.16218	34.99
1.17885	34.99
1.19552	34.98
1.21218	34.99
1.22885	35.00
1.24552	35.01
1.26218	35.00
1.27885	35.00
1.29552	35.01
1.31218	35.01
1.32885	35.01
1.34552	35.03
1.36218	35.04
1.37885	35.04
1.39552	35.04
1.41218	35.03
1.42885	35.02
1.44552	35.01
1.46218	35.01
1.47885	35.00
1.49552	35.01
1.51218	35.00
1.52885	35.00
1.54552	34.99
1.56218	34.98
1.57885	34.99
1.59552	35.00
1.61218	35.07
1.62885	35.21
1.64552	35.41
1.66218	35.69
1.67885	36.05
1.69552	36.42
1.71218	36.76
1.72885	37.10
1.74552	37.43
1.76218	37.76
1.77885	38.09
1.79552	38.44
1.81218	38.74
1.82885	39.08
1.84552	39.41
1.86218	39.75
1.87885	40.08
1.89552	40.41
1.91218	40.73
1.92885	41.06
1.94552	41.40
1.96218	41.71
1.97885	42.04
1.99552	42.37
2.01218	42.70
2.02885	43.02
2.04552	43.36
2.06218	43.67
2.07885	44.00
2.09552	44.30
2.11218	44.63
2.12885	44.96
2.14552	45.28
2.16218	45.61
2.17885	45.94
2.19552	46.25
2.21218	46.58
2.22885	46.92
2.24552	47.25
2.26218	47.57
2.27885	47.90
2.29552	48.24
2.31218	48.57
2.32885	48.90
2.34552	49.26
2.36218	49.51
2.37885	49.65
2.39552	49.67
2.41218	49.67
2.42885	49.68
2.44552	49.68
2.46218	49.70
2.47885	49.71
2.49552	49.72
2.51218	49.71
2.52885	49.72
2.54552	49.73
2.56218	49.75
2.57885	49.78
2.59552	49.79
2.61218	49.80
2.62885	49.83
2.64552	49.84
2.66218	49.83
2.67885	49.84
2.69552	49.85
2.71218	49.86
2.72885	49.86
2.74552	49.84
2.76218	49.86
2.77885	49.87
2.79552	49.87
2.81218	49.86
2.82885	49.85
2.84552	49.86
2.86218	49.89
2.87885	49.90
2.89552	49.92
2.91218	49.94
2.92885	49.94
2.94552	49.95
2.96218	49.95
2.97885	49.94
2.99552	49.94
3.01218	49.95
3.02885	49.97
3.04552	49.98
3.06218	49.99
3.07885	49.99
3.09552	49.99
3.11218	50.00
3.12885	50.00
3.14552	50.02
3.16218	50.02
3.17885	50.03
3.19552	50.05
3.21218	50.05
3.22885	50.06
3.24552	50.06
3.26218	50.07
3.27885	50.08
3.29552	50.09
3.31218	50.10
3.32885	50.10
3.34552	50.11
3.36218	50.10
3.37885	50.09
3.39552	50.08
3.41218	50.08
3.42885	50.07
3.44552	50.06
3.46218	50.06
3.47885	50.06
3.49552	50.05
3.51218	50.06
3.52885	50.06
3.54552	50.06
3.56218	50.07
3.57885	50.08
3.59552	50.08
3.61218	50.09
3.62885	50.09
3.64552	50.09
3.66218	50.08
3.67885	50.08
3.69552	50.08
3.71218	50.09
3.72885	50.09
3.74552	50.09
3.76218	50.09
3.77885	50.10
3.79552	50.10
3.81218	50.09
3.82885	50.08
3.84552	50.07
3.86218	50.07
3.87885	50.08
3.89552	50.07
3.91218	50.06
3.92885	50.05
3.94552	50.05
3.96218	50.05
3.97885	50.04
3.99552	50.04

[Status Trace (Injection Unit Temperature)]
Interval(msec)	1000
# of Points	240
Start Time(min)	0.012
End Time(min)	3.996
Intensity Units	
Intensity Multiplier	1
R.Time (min)	Intensity
0.01218	99.99
0.02885	99.98
0.04552	99.98
0.06218	99.99
0.07885	99.99
0.09552	99.99
0.11218	99.99
0.12885	99.98
0.14552	99.99
0.16218	99.98
0.17885	99.99
0.19552	99.99
0.21218	99.98
0.22885	99.99
0.24552	99.98
0.26218	99.99
0.27885	99.99
0.29552	99.99
0.31218	99.98
0.32885	99.98
0.34552	99.98
0.36218	99.99
0.37885	99.98
0.39552	99.99
0.41218	99.99
0.42885	99.98
0.44552	99.98
0.46218	99.98
0.47885	99.98
0.49552	99.98
0.51218	99.98
0.52885	99.98
0.54552	99.99
0.56218	99.98
0.57885	99.98
0.59552	99.99
0.61218	99.99
0.62885	99.98
0.64552	99.98
0.66218	99.99
0.67885	99.99
0.69552	99.98
0.71218	99.98
0.72885	99.98
0.74552	99.98
0.76218	99.98
0.77885	99.99
0.79552	99.98
0.81218	99.98
0.82885	99.98
0.84552	99.98
0.86218	99.98
0.87885	99.98
0.89552	99.98
0.91218	99.98
0.92885	99.98
0.94552	99.99
0.96218	99.98
0.97885	99.98
0.99552	99.99
1.01218	99.99
1.02885	99.98
1.04552	99.99
1.06218	99.99
1.07885	99.99
1.09552	99.98
1.11218	99.98
1.12885	99.99
1.14552	99.98
1.16218	99.99
1.17885	99.98
1.19552	99.99
1.21218	99.99
1.22885	99.99
1.24552	99.99
1.26218	99.99
1.27885	99.99
1.29552	99.99
1.31218	99.99
1.32885	99.99
1.34552	99.99
1.36218	99.99
1.37885	99.99
1.39552	99.99
1.41218	99.99
1.42885	99.99
1.44552	99.99
1.46218	99.99
1.47885	99.99
1.49552	99.99
1.51218	99.99
1.52885	99.99
1.54552	99.99
1.56218	100.00
1.57885	99.99
1.59552	99.99
1.61218	99.99
1.62885	99.99
1.64552	99.99
1.66218	99.99
1.67885	99.99
1.69552	99.99
1.71218	99.99
1.72885	99.99
1.74552	99.99
1.76218	99.99
1.77885	99.99
1.79552	99.99
1.81218	99.99
1.82885	99.99
1.84552	99.99
1.86218	99.99
1.87885	99.99
1.89552	99.99
1.91218	99.99
1.92885	99.99
1.94552	99.99
1.96218	99.99
1.97885	99.99
1.99552	99.98
2.01218	99.98
2.02885	99.98
2.04552	99.98
2.06218	99.98
2.07885	99.98
2.09552	99.98
2.11218	99.97
2.12885	99.97
2.14552	99.98
2.16218	99.97
2.17885	99.97
2.19552	99.98
2.21218	99.97
2.22885	99.97
2.24552	99.97
2.26218	99.97
2.27885	99.97
2.29552	99.97
2.31218	99.97
2.32885	99.97
2.34552	99.97
2.36218	99.97
2.37885	99.96
2.39552	99.97
2.41218	99.97
2.42885	99.96
2.44552	99.97
2.46218	99.96
2.47885	99.96
2.49552	99.97
2.51218	99.97
2.52885	99.97
2.54552	99.96
2.56218	99.97
2.57885	99.97
2.59552	99.96
2.61218	99.97
2.62885	99.97
2.64552	99.97
2.66218	99.97
2.67885	99.98
2.69552	99.98
2.71218	99.98
2.72885	99.98
2.74552	99.99
2.76218	99.98
2.77885	99.99
2.79552	99.99
2.81218	99.99
2.82885	99.99
2.84552	99.99
2.86218	99.99
2.87885	99.99
2.89552	99.99
2.91218	100.00
2.92885	100.00
2.94552	100.00
2.96218	100.00
2.97885	100.01
2.99552	100.01
3.01218	100.01
3.02885	100.01
3.04552	100.01
3.06218	100.02
3.07885	100.01
3.09552	100.02
3.11218	100.02
3.12885	100.02
3.14552	100.02
3.16218	100.02
3.17885	100.02
3.19552	100.02
3.21218	100.03
3.22885	100.03
3.24552	100.03
3.26218	100.03
3.27885	100.03
3.29552	100.03
3.31218	100.03
3.32885	100.03
3.34552	100.03
3.36218	100.03
3.37885	100.03
3.39552	100.03
3.41218	100.03
3.42885	100.04
3.44552	100.04
3.46218	100.03
3.47885	100.04
3.49552	100.03
3.51218	100.04
3.52885	100.04
3.54552	100.04
3.56218	100.04
3.57885	100.04
3.59552	100.04
3.61218	100.04
3.62885	100.04
3.64552	100.04
3.66218	100.04
3.67885	100.04
3.69552	100.04
3.71218	100.04
3.72885	100.04
3.74552	100.04
3.76218	100.04
3.77885	100.04
3.79552	100.04
3.81218	100.05
3.82885	100.05
3.84552	100.05
3.86218	100.05
3.87885	100.05
3.89552	100.05
3.91218	100.05
3.92885	100.05
3.94552	100.05
3.96218	100.05
3.97885	100.05
3.99552	100.05

[Status Trace (Carrier Gas Pressure)]
Interval(msec)	1000
# of Points	240
Start Time(min)	0.012
End Time(min)	3.996
Intensity Units	
Intensity Multiplier	1
R.Time (min)	Intensity
0.01218	57.99
0.02885	54.94
0.04552	57.78
0.06218	59.72
0.07885	58.82
0.09552	57.98
0.11218	57.99
0.12885	58.01
0.14552	58.01
0.16218	58.00
0.17885	58.00
0.19552	58.00
0.21218	58.00
0.22885	58.00
0.24552	58.00
0.26218	58.00
0.27885	58.00
0.29552	58.00
0.31218	58.00
0.32885	58.00
0.34552	58.00
0.36218	58.00
0.37885	58.00
0.39552	58.00
0.41218	58.00
0.42885	58.00
0.44552	58.00
0.46218	58.00
0.47885	58.00
0.49552	58.00
0.51218	58.00
0.52885	58.00
0.54552	58.00
0.56218	58.00
0.57885	58.00
0.59552	58.00
0.61218	58.00
0.62885	58.00
0.64552	58.00
0.66218	58.00
0.67885	58.00
0.69552	58.00
0.71218	58.00
0.72885	58.00
0.74552	58.00
0.76218	58.00
0.77885	58.00
0.79552	58.00
0.81218	58.00
0.82885	58.00
0.84552	58.00
0.86218	58.00
0.87885	58.00
0.89552	58.00
0.91218	58.00
0.92885	58.00
0.94552	58.00
0.96218	58.00
0.97885	58.00
0.99552	58.00
1.01218	58.00
1.02885	58.00
1.04552	58.00
1.06218	58.00
1.07885	58.00
1.09552	58.00
1.11218	58.00
1.12885	58.00
1.14552	58.00
1.16218	58.00
1.17885	58.00
1.19552	58.00
1.21218	58.00
1.22885	58.00
1.24552	58.00
1.26218	58.00
1.27885	58.00
1.29552	58.00
1.31218	58.00
1.32885	58.00
1.34552	58.00
1.36218	58.00
1.37885	58.00
1.39552	58.00
1.41218	58.00
1.42885	58.00
1.44552	58.00
1.46218	58.00
1.47885	58.00
1.49552	58.00
1.51218	58.00
1.52885	58.00
1.54552	58.00
1.56218	58.00
1.57885	58.00
1.59552	58.00
1.61218	58.00
1.62885	58.00
1.64552	58.00
1.66218	58.01
1.67885	58.01
1.69552	58.00
1.71218	58.00
1.72885	58.00
1.74552	58.00
1.76218	58.00
1.77885	58.00
1.79552	58.00
1.81218	58.00
1.82885	58.00
1.84552	58.00
1.86218	58.00
1.87885	58.00
1.89552	58.00
1.91218	58.00
1.92885	58.00
1.94552	58.00
1.96218	58.00
1.97885	58.00
1.99552	58.00
2.01218	58.00
2.02885	58.00
2.04552	58.00
2.06218	58.00
2.07885	58.00
2.09552	58.00
2.11218	58.00
2.12885	58.00
2.14552	58.00
2.16218	58.00
2.17885	58.00
2.19552	58.00
2.21218	58.00
2.22885	58.00
2.24552	58.00
2.26218	58.00
2.27885	58.00
2.29552	58.00
2.31218	58.00
2.32885	58.00
2.34552	58.00
2.36218	58.00
2.37885	57.99
2.39552	57.99
2.41218	58.00
2.42885	58.00
2.44552	58.00
2.46218	58.00
2.47885	58.00
2.49552	58.00
2.51218	57.99
2.52885	57.98
2.54552	58.00
2.56218	58.00
2.57885	58.00
2.59552	58.00
2.61218	58.00
2.62885	58.00
2.64552	58.00
2.66218	58.00
2.67885	58.00
2.69552	58.00
2.71218	58.00
2.72885	58.00
2.74552	58.00
2.76218	58.00
2.77885	58.00
2.79552	58.00
2.81218	58.00
2.82885	58.00
2.84552	58.00
2.86218	58.00
2.87885	58.00
2.89552	58.00
2.91218	58.00
2.92885	58.00
2.94552	58.00
2.96218	58.00
2.97885	58.00
2.99552	58.00
3.01218	58.00
3.02885	58.00
3.04552	58.00
3.06218	58.00
3.07885	58.00
3.09552	58.00
3.11218	58.00
3.12885	58.00
3.14552	58.00
3.16218	58.00
3.17885	58.00
3.19552	58.00
3.21218	58.00
3.22885	58.00
3.24552	58.00
3.26218	58.00
3.27885	58.00
3.29552	58.00
3.31218	58.00
3.32885	58.00
3.34552	58.00
3.36218	58.00
3.37885	58.00
3.39552	58.00
3.41218	58.00
3.42885	58.00
3.44552	58.00
3.46218	58.00
3.47885	58.00
3.49552	58.00
3.51218	58.00
3.52885	58.00
3.54552	58.00
3.56218	58.00
3.57885	58.00
3.59552	58.00
3.61218	58.00
3.62885	58.00
3.64552	58.00
3.66218	58.00
3.67885	58.00
3.69552	58.00
3.71218	58.00
3.72885	58.00
3.74552	58.00
3.76218	58.00
3.77885	58.00
3.79552	58.00
3.81218	58.00
3.82885	58.00
3.84552	58.00
3.86218	58.00
3.87885	58.00
3.89552	58.00
3.91218	58.00
3.92885	58.00
3.94552	58.00
3.96218	58.00
3.97885	58.00
3.99552	58.00

[Status Trace (Carrier Gas Flow)]
Interval(msec)	1000
# of Points	240
Start Time(min)	0.012
End Time(min)	3.996
Intensity Units	
Intensity Multiplier	1
R.Time (min)	Intensity
0.01218	34.53
0.02885	34.54
0.04552	34.55
0.06218	34.52
0.07885	34.50
0.09552	34.52
0.11218	34.52
0.12885	34.52
0.14552	34.52
0.16218	34.52
0.17885	34.52
0.19552	34.52
0.21218	34.52
0.22885	34.52
0.24552	34.52
0.26218	34.52
0.27885	34.52
0.29552	34.52
0.31218	34.52
0.32885	34.52
0.34552	34.52
0.36218	34.52
0.37885	34.52
0.39552	34.52
0.41218	34.52
0.42885	34.52
0.44552	34.52
0.46218	34.52
0.47885	34.52
0.49552	34.52
0.51218	34.52
0.52885	34.52
0.54552	34.52
0.56218	34.52
0.57885	34.52
0.59552	34.52
0.61218	34.52
0.62885	34.52
0.64552	34.52
0.66218	34.52
0.67885	34.52
0.69552	34.52
0.71218	34.52
0.72885	34.52
0.74552	34.52
0.76218	34.52
0.77885	34.52
0.79552	34.52
0.81218	34.52
0.82885	34.52
0.84552	34.52
0.86218	34.52
0.87885	34.52
0.89552	34.52
0.91218	34.52
0.92885	34.52
0.94552	34.52
0.96218	34.52
0.97885	34.52
0.99552	34.52
1.01218	34.52
1.02885	34.52
1.04552	34.52
1.06218	34.52
1.07885	34.52
1.09552	34.52
1.11218	34.52
1.12885	34.52
1.14552	34.52
1.16218	34.53
1.17885	34.52
1.19552	34.53
1.21218	34.52
1.22885	34.51
1.24552	34.52
1.26218	34.52
1.27885	34.51
1.29552	34.52
1.31218	34.51
1.32885	34.51
1.34552	34.51
1.36218	34.53
1.37885	34.52
1.39552	34.52
1.41218	34.52
1.42885	34.53
1.44552	34.52
1.46218	34.52
1.47885	34.51
1.49552	34.52
1.51218	34.52
1.52885	34.51
1.54552	34.52
1.56218	34.52
1.57885	34.52
1.59552	34.52
1.61218	34.53
1.62885	34.52
1.64552	34.52
1.66218	34.51
1.67885	34.52
1.69552	34.52
1.71218	34.52
1.72885	34.52
1.74552	34.52
1.76218	34.52
1.77885	34.52
1.79552	34.52
1.81218	34.52
1.82885	34.52
1.84552	34.52
1.86218	34.52
1.87885	34.52
1.89552	34.52
1.91218	34.52
1.92885	34.52
1.94552	34.52
1.96218	34.52
1.97885	34.52
1.99552	34.52
2.01218	34.52
2.02885	34.52
2.04552	34.52
2.06218	34.52
2.07885	34.52
2.09552	34.52
2.11218	34.52
2.12885	34.52
2.14552	34.52
2.16218	34.52
2.17885	34.52
2.19552	34.52
2.21218	34.52
2.22885	34.52
2.24552	34.52
2.26218	34.52
2.27885	34.52
2.29552	34.52
2.31218	34.52
2.32885	34.52
2.34552	34.52
2.36218	34.52
2.37885	34.52
2.39552	34.52
2.41218	34.52
2.42885	34.52
2.44552	34.52
2.46218	34.52
2.47885	34.52
2.49552	34.52
2.51218	34.52
2.52885	34.52
2.54552	34.52
2.56218	34.52
2.57885	34.52
2.59552	34.52
2.61218	34.52
2.62885	34.52
2.64552	34.52
2.66218	34.52
2.67885	34.52
2.69552	34.52
2.71218	34.52
2.72885	34.52
2.74552	34.52
2.76218	34.52
2.77885	34.52
2.79552	34.52
2.81218	34.52
2.82885	34.52
2.84552	34.52
2.86218	34.52
2.87885	34.52
2.89552	34.52
2.91218	34.52
2.92885	34.52
2.94552	34.52
2.96218	34.52
2.97885	34.52
2.99552	34.52
3.01218	34.52
3.02885	34.52
3.04552	34.52
3.06218	34.52
3.07885	34.52
3.09552	34.52
3.11218	34.52
3.12885	34.52
3.14552	34.52
3.16218	34.53
3.17885	34.51
3.19552	34.52
3.21218	34.53
3.22885	34.52
3.24552	34.51
3.26218	34.52
3.27885	34.52
3.29552	34.52
3.31218	34.52
3.32885	34.52
3.34552	34.52
3.36218	34.52
3.37885	34.52
3.39552	34.52
3.41218	34.52
3.42885	34.52
3.44552	34.52
3.46218	34.52
3.47885	34.52
3.49552	34.52
3.51218	34.52
3.52885	34.52
3.54552	34.52
3.56218	34.52
3.57885	34.52
3.59552	34.52
3.61218	34.52
3.62885	34.52
3.64552	34.52
3.66218	34.52
3.67885	34.52
3.69552	34.52
3.71218	34.52
3.72885	34.52
3.74552	34.52
3.76218	34.52
3.77885	34.52
3.79552	34.52
3.81218	34.52
3.82885	34.52
3.84552	34.52
3.86218	34.52
3.87885	34.52
3.89552	34.52
3.91218	34.52
3.92885	34.52
3.94552	34.52
3.96218	34.52
3.97885	34.52
3.99552	34.52

[Status Trace (Column Flow)]
Interval(msec)	1000
# of Points	240
Start Time(min)	0.012
End Time(min)	3.996
Intensity Units	
Intensity Multiplier	1
R.Time (min)	Intensity
0.01218	5.45
0.02885	5.10
0.04552	5.42
0.06218	5.65
0.07885	5.54
0.09552	5.44
0.11218	5.45
0.12885	5.45
0.14552	5.45
0.16218	5.45
0.17885	5.45
0.19552	5.45
0.21218	5.45
0.22885	5.45
0.24552	5.45
0.26218	5.45
0.27885	5.45
0.29552	5.45
0.31218	5.45
0.32885	5.45
0.34552	5.45
0.36218	5.45
0.37885	5.45
0.39552	5.45
0.41218	5.45
0.42885	5.45
0.44552	5.45
0.46218	5.45
0.47885	5.45
0.49552	5.45
0.51218	5.45
0.52885	5.45
0.54552	5.45
0.56218	5.45
0.57885	5.45
0.59552	5.45
0.61218	5.45
0.62885	5.45
0.64552	5.45
0.66218	5.45
0.67885	5.45
0.69552	5.45
0.71218	5.45
0.72885	5.45
0.74552	5.45
0.76218	5.45
0.77885	5.45
0.79552	5.45
0.81218	5.45
0.82885	5.45
0.84552	5.45
0.86218	5.45
0.87885	5.45
0.89552	5.45
0.91218	5.45
0.92885	5.45
0.94552	5.45
0.96218	5.45
0.97885	5.45
0.99552	5.45
1.01218	5.45
1.02885	5.45
1.04552	5.45
1.06218	5.45
1.07885	5.45
1.09552	5.45
1.11218	5.45
1.12885	5.45
1.14552	5.45
1.16218	5.45
1.17885	5.45
1.19552	5.45
1.21218	5.45
1.22885	5.45
1.24552	5.45
1.26218	5.45
1.27885	5.45
1.29552	5.45
1.31218	5.45
1.32885	5.45
1.34552	5.45
1.36218	5.45
1.37885	5.44
1.39552	5.44
1.41218	5.45
1.42885	5.45
1.44552	5.45
1.46218	5.45
1.47885	5.45
1.49552	5.45
1.51218	5.45
1.52885	5.45
1.54552	5.45
1.56218	5.45
1.57885	5.45
1.59552	5.45
1.61218	5.44
1.62885	5.44
1.64552	5.43
1.66218	5.43
1.67885	5.41
1.69552	5.40
1.71218	5.39
1.72885	5.38
1.74552	5.37
1.76218	5.36
1.77885	5.35
1.79552	5.34
1.81218	5.33
1.82885	5.32
1.84552	5.31
1.86218	5.30
1.87885	5.29
1.89552	5.28
1.91218	5.27
1.92885	5.26
1.94552	5.25
1.96218	5.24
1.97885	5.23
1.99552	5.22
2.01218	5.22
2.02885	5.21
2.04552	5.20
2.06218	5.19
2.07885	5.18
2.09552	5.17
2.11218	5.16
2.12885	5.15
2.14552	5.14
2.16218	5.13
2.17885	5.12
2.19552	5.11
2.21218	5.10
2.22885	5.09
2.24552	5.08
2.26218	5.08
2.27885	5.07
2.29552	5.06
2.31218	5.05
2.32885	5.04
2.34552	5.03
2.36218	5.02
2.37885	5.02
2.39552	5.02
2.41218	5.02
2.42885	5.02
2.44552	5.02
2.46218	5.02
2.47885	5.02
2.49552	5.02
2.51218	5.02
2.52885	5.01
2.54552	5.02
2.56218	5.02
2.57885	5.02
2.59552	5.01
2.61218	5.01
2.62885	5.01
2.64552	5.01
2.66218	5.01
2.67885	5.01
2.69552	5.01
2.71218	5.01
2.72885	5.01
2.74552	5.01
2.76218	5.01
2.77885	5.01
2.79552	5.01
2.81218	5.01
2.82885	5.01
2.84552	5.01
2.86218	5.01
2.87885	5.01
2.89552	5.01
2.91218	5.01
2.92885	5.01
2.94552	5.01
2.96218	5.01
2.97885	5.01
2.99552	5.01
3.01218	5.01
3.02885	5.01
3.04552	5.01
3.06218	5.01
3.07885	5.01
3.09552	5.01
3.11218	5.01
3.12885	5.01
3.14552	5.01
3.16218	5.01
3.17885	5.01
3.19552	5.01
3.21218	5.01
3.22885	5.01
3.24552	5.01
3.26218	5.01
3.27885	5.01
3.29552	5.01
3.31218	5.01
3.32885	5.01
3.34552	5.01
3.36218	5.01
3.37885	5.01
3.39552	5.01
3.41218	5.01
3.42885	5.01
3.44552	5.01
3.46218	5.01
3.47885	5.01
3.49552	5.01
3.51218	5.01
3.52885	5.01
3.54552	5.01
3.56218	5.01
3.57885	5.01
3.59552	5.01
3.61218	5.01
3.62885	5.01
3.64552	5.01
3.66218	5.01
3.67885	5.01
3.69552	5.01
3.71218	5.01
3.72885	5.01
3.74552	5.01
3.76218	5.01
3.77885	5.01
3.79552	5.01
3.81218	5.01
3.82885	5.01
3.84552	5.01
3.86218	5.01
3.87885	5.01
3.89552	5.01
3.91218	5.01
3.92885	5.01
3.94552	5.01
3.96218	5.01
3.97885	5.01
3.99552	5.01

[Status Trace (Linear Velocity)]
Interval(msec)	1000
# of Points	240
Start Time(min)	0.012
End Time(min)	3.996
Intensity Units	
Intensity Multiplier	1
R.Time (min)	Intensity
0.01218	38.99
0.02885	36.99
0.04552	38.86
0.06218	40.12
0.07885	39.53
0.09552	38.99
0.11218	39.00
0.12885	39.01
0.14552	39.00
0.16218	39.00
0.17885	39.00
0.19552	39.00
0.21218	39.00
0.22885	39.00
0.24552	39.00
0.26218	39.00
0.27885	39.00
0.29552	39.00
0.31218	39.00
0.32885	39.00
0.34552	39.00
0.36218	39.00
0.37885	39.00
0.39552	39.00
0.41218	39.00
0.42885	39.00
0.44552	39.00
0.46218	39.00
0.47885	39.00
0.49552	39.00
0.51218	39.00
0.52885	39.00
0.54552	39.00
0.56218	39.00
0.57885	39.00
0.59552	39.00
0.61218	39.00
0.62885	39.00
0.64552	39.00
0.66218	39.00
0.67885	39.00
0.69552	39.00
0.71218	39.00
0.72885	39.00
0.74552	39.00
0.76218	39.00
0.77885	39.00
0.79552	39.00
0.81218	39.00
0.82885	39.00
0.84552	39.00
0.86218	39.00
0.87885	39.00
0.89552	39.00
0.91218	39.00
0.92885	39.00
0.94552	39.00
0.96218	39.00
0.97885	39.00
0.99552	39.00
1.01218	39.00
1.02885	39.00
1.04552	39.00
1.06218	39.00
1.07885	39.00
1.09552	39.00
1.11218	39.00
1.12885	39.00
1.14552	39.00
1.16218	39.00
1.17885	39.00
1.19552	39.00
1.21218	39.00
1.22885	39.00
1.24552	39.00
1.26218	39.00
1.27885	39.00
1.29552	39.00
1.31218	39.00
1.32885	39.00
1.34552	39.00
1.36218	39.00
1.37885	38.99
1.39552	38.99
1.41218	39.00
1.42885	39.00
1.44552	39.00
1.46218	39.00
1.47885	39.00
1.49552	39.00
1.51218	39.00
1.52885	39.00
1.54552	39.00
1.56218	39.00
1.57885	39.00
1.59552	39.00
1.61218	38.99
1.62885	38.98
1.64552	38.96
1.66218	38.94
1.67885	38.90
1.69552	38.86
1.71218	38.83
1.72885	38.80
1.74552	38.77
1.76218	38.74
1.77885	38.70
1.79552	38.67
1.81218	38.64
1.82885	38.61
1.84552	38.58
1.86218	38.55
1.87885	38.52
1.89552	38.49
1.91218	38.46
1.92885	38.43
1.94552	38.39
1.96218	38.37
1.97885	38.33
1.99552	38.30
2.01218	38.28
2.02885	38.24
2.04552	38.21
2.06218	38.19
2.07885	38.15
2.09552	38.13
2.11218	38.10
2.12885	38.07
2.14552	38.04
2.16218	38.01
2.17885	37.98
2.19552	37.95
2.21218	37.92
2.22885	37.89
2.24552	37.86
2.26218	37.83
2.27885	37.80
2.29552	37.77
2.31218	37.75
2.32885	37.71
2.34552	37.68
2.36218	37.66
2.37885	37.64
2.39552	37.64
2.41218	37.64
2.42885	37.64
2.44552	37.64
2.46218	37.64
2.47885	37.64
2.49552	37.64
2.51218	37.63
2.52885	37.63
2.54552	37.64
2.56218	37.64
2.57885	37.64
2.59552	37.63
2.61218	37.63
2.62885	37.63
2.64552	37.63
2.66218	37.63
2.67885	37.63
2.69552	37.63
2.71218	37.63
2.72885	37.63
2.74552	37.63
2.76218	37.63
2.77885	37.63
2.79552	37.63
2.81218	37.63
2.82885	37.63
2.84552	37.63
2.86218	37.63
2.87885	37.62
2.89552	37.62
2.91218	37.62
2.92885	37.62
2.94552	37.62
2.96218	37.62
2.97885	37.62
2.99552	37.62
3.01218	37.62
3.02885	37.62
3.04552	37.62
3.06218	37.62
3.07885	37.62
3.09552	37.62
3.11218	37.62
3.12885	37.61
3.14552	37.61
3.16218	37.61
3.17885	37.61
3.19552	37.61
3.21218	37.61
3.22885	37.61
3.24552	37.61
3.26218	37.61
3.27885	37.61
3.29552	37.61
3.31218	37.61
3.32885	37.61
3.34552	37.61
3.36218	37.61
3.37885	37.61
3.39552	37.61
3.41218	37.61
3.42885	37.61
3.44552	37.61
3.46218	37.61
3.47885	37.61
3.49552	37.61
3.51218	37.61
3.52885	37.61
3.54552	37.61
3.56218	37.61
3.57885	37.61
3.59552	37.61
3.61218	37.61
3.62885	37.61
3.64552	37.61
3.66218	37.61
3.67885	37.61
3.69552	37.61
3.71218	37.61
3.72885	37.61
3.74552	37.61
3.76218	37.61
3.77885	37.61
3.79552	37.61
3.81218	37.61
3.82885	37.61
3.84552	37.61
3.86218	37.61
3.87885	37.61
3.89552	37.61
3.91218	37.61
3.92885	37.61
3.94552	37.61
3.96218	37.61
3.97885	37.61
3.99552	37.61

