[Header]
Application Name	LabSolutions
Version	5.110
Data File Name	C:\Users\User\Desktop\GC Analyses\Jack\UIC Prairie Sampling\10.19.22\221019_027.gcd
Output Date	1/4/2023
Output Time	2:27:27 PM

[File Information]
Type	Data File
Generated	12/5/2022 4:09:37 PM
Generated by	System Administrator
Modified	12/5/2022 4:14:00 PM
Modified by	System Administrator

[Sample Information]
Operator Name	System Administrator
Acquired	12/5/2022 4:09:59 PM
Sample Type	1:Standard
Level	1
Sample Name	221019_UICPrairie
Sample ID	221019_UICPrairie
ISTD Amount1	1
ISTD Amount2	1
ISTD Amount3	1
ISTD Amount4	1
ISTD Amount5	1
ISTD Amount6	1
ISTD Amount7	1
ISTD Amount8	1
ISTD Amount9	1
ISTD Amount10	1
ISTD Amount11	1
ISTD Amount12	1
ISTD Amount13	1
ISTD Amount14	1
ISTD Amount15	1
ISTD Amount16	1
ISTD Amount17	1
ISTD Amount18	1
ISTD Amount19	1
ISTD Amount20	1
ISTD Amount21	1
ISTD Amount22	1
ISTD Amount23	1
ISTD Amount24	1
ISTD Amount25	1
ISTD Amount26	1
ISTD Amount27	1
ISTD Amount28	1
ISTD Amount29	1
ISTD Amount30	1
ISTD Amount31	1
ISTD Amount32	1
Sample Amount	1
Dilution Factor	1
Vial#	1
Injection Volume	1
Injection Count	1
Bar Code	

[Original Files]
Data File	C:\Users\User\Desktop\GC Analyses\Jack\UIC Prairie Sampling\10.19.22\221019_027.gcd
Method File	C:\LabSolutions\Data\GHG_4min_2022\ghg3_togas_w_acet_4 min_new_int.gcm
Batch File	
Report Format File	c:\LabSolutions\System\DEFAULT.lsr

[File Description]


[Configuration]
Instrument Name	C0B7VH3-Instrument1
Instrument #	1
Line #	1
# of Detectors	3
Detector ID	DET#1	DET#2	DET#3
Detector Name	FID	PTCD	ECD
# of Channels	1	1	1

[Peak Table(Ch1)]
# of Peaks	3
Peak#	R.Time	I.Time	F.Time	Area	Height	A/H	Conc.	Mark	ID#	Name	k'	Plate #	Plate Ht.	Tailing	Resolution	Sep.Factor	Area Ratio	Height Ratio	Conc. %	Norm Conc.
1	1.479	1.439	1.534	3047	898	3.394	100.000	   	1	CO	0.000	4844	30.963	0.000	0.000	0.000	0	0	16.667	16.667
2	1.571	1.534	1.659	19558	9867	1.982	100.000	 V 	2	CH4	0.062	11480	13.066	1.208	1.276	0.000	0	0	16.667	16.667
3	2.000	1.952	2.535	2003119	952728	2.103	400.000	   	3	CO2	0.352	17247	8.697	1.272	7.176	5.680	0	0	66.667	66.667

[Peak Table(Ch2)]
# of Peaks	0

[Peak Table(Ch3)]
# of Peaks	6
Peak#	R.Time	I.Time	F.Time	Area	Height	A/H	Conc.	Mark	ID#	Name	k'	Plate #	Plate Ht.	Tailing	Resolution	Sep.Factor	Area Ratio	Height Ratio	Conc. %	Norm Conc.
1	0.621	0.460	1.153	400	17	23.205	0.000	   			0.000	463	323.862	2.157	0.000	0.000	0	0	0.000	0.000
2	2.458	2.282	2.502	2143	451	4.748	0.000	   			2.957	6624	22.643	0.000	15.548	0.000	0	0	0.000	0.000
3	2.521	2.502	2.561	1028	334	3.081	0.000	 V 			3.057	1597	93.948	0.000	0.334	1.034	0	0	0.000	0.000
4	2.609	2.561	2.660	1397	352	3.970	0.000	 V 			3.198	4087	36.700	0.000	0.424	1.046	0	0	0.000	0.000
5	2.891	2.796	3.943	84111	16842	4.994	1.000	S  	1	N2O	3.653	12045	12.453	1.771	2.102	1.142	0	0	100.000	100.000
6	3.239	3.100	3.485	1052	82	12.777	0.000	T  			4.214	1159	129.385	1.369	1.434	1.153	0	0	0.000	0.000

[Compound Results(Ch1)]
# of IDs	6
ID#	Name	R.Time	Area	Height	Conc.	Curve	3rd	2nd	1st	Constant	Area Ratio	Height Ratio	Conc. %	Norm Conc.
1	CO	1.479	3047	898	100.000	Linear	0.000000e+00	0.000000e+00	3.046851e+001	0.000000e+00	0	0	16.667	16.667
2	CH4	1.571	19558	9867	100.000	Linear	0.000000e+00	0.000000e+00	1.955773e+002	0.000000e+00	0	0	16.667	16.667
3	CO2	2.000	2003119	952728	400.000	Linear	0.000000e+00	0.000000e+00	5.007797e+003	0.000000e+00	0	0	66.667	66.667
4	Ethylene	0.000	0	0	0.000	Linear	0.000000e+00	0.000000e+00	0.000000e+00	0.000000e+00	0	0	0.000	0.000
5	Acetylene	0.000	0	0	0.000	Linear	0.000000e+00	0.000000e+00	0.000000e+00	0.000000e+00	0	0	0.000	0.000
6	Ethane	0.000	0	0	0.000	Linear	0.000000e+00	0.000000e+00	0.000000e+00	0.000000e+00	0	0	0.000	0.000

[Compound Results(Ch2)]
# of IDs	5
ID#	Name	R.Time	Area	Height	Conc.	Curve	3rd	2nd	1st	Constant	Area Ratio	Height Ratio	Conc. %	Norm Conc.
1	Hydrogen	0.000	0	0	0.000	Linear	0.000000e+00	0.000000e+00	0.000000e+00	0.000000e+00	0	0	0.000	0.000
2	Oxygen	0.000	0	0	0.000	Linear	0.000000e+00	0.000000e+00	0.000000e+00	0.000000e+00	0	0	0.000	0.000
3	Nitrogen	0.000	0	0	0.000	Linear	0.000000e+00	0.000000e+00	0.000000e+00	0.000000e+00	0	0	0.000	0.000
4	Methane	0.000	0	0	0.000	Linear	0.000000e+00	0.000000e+00	0.000000e+00	0.000000e+00	0	0	0.000	0.000
5	Carbon Monoxide	0.000	0	0	0.000	Linear	0.000000e+00	0.000000e+00	0.000000e+00	0.000000e+00	0	0	0.000	0.000

[Compound Results(Ch3)]
# of IDs	2
ID#	Name	R.Time	Area	Height	Conc.	Curve	3rd	2nd	1st	Constant	Area Ratio	Height Ratio	Conc. %	Norm Conc.
1	N2O	2.891	84111	16842	1.000	Linear	0.000000e+00	0.000000e+00	8.411090e+004	0.000000e+00	0	0	100.000	100.000
2	SF6	0.000	0	0	0.000	Linear	0.000000e+00	0.000000e+00	0.000000e+00	0.000000e+00	0	0	0.000	0.000

[Group Results(Ch1)]
# of Groups	0

[Group Results(Ch2)]
# of Groups	0

[Group Results(Ch3)]
# of Groups	0

[Chromatogram (Ch1)]
Interval(msec)	220
# of Points	1091
Start Time(min)	0.002
End Time(min)	3.998
R.Time (min)	Intensity
0.00167	1
0.00533	5
0.00900	5
0.01267	4
0.01633	6
0.02000	9
0.02367	15
0.02733	19
0.03100	22
0.03467	26
0.03833	26
0.04200	22
0.04567	16
0.04933	9
0.05300	6
0.05667	6
0.06033	8
0.06400	8
0.06767	8
0.07133	13
0.07500	21
0.07867	28
0.08233	30
0.08600	24
0.08967	15
0.09333	7
0.09700	6
0.10067	8
0.10433	12
0.10800	14
0.11167	15
0.11533	15
0.11900	13
0.12267	8
0.12633	2
0.13000	0
0.13367	-1
0.13733	-1
0.14100	1
0.14467	6
0.14833	12
0.15200	20
0.15567	25
0.15933	24
0.16300	18
0.16667	10
0.17033	5
0.17400	5
0.17767	4
0.18133	3
0.18500	2
0.18867	1
0.19233	-0
0.19600	-4
0.19967	-8
0.20333	-10
0.20700	-8
0.21067	-3
0.21433	3
0.21800	5
0.22167	5
0.22533	2
0.22900	-1
0.23267	-4
0.23633	-6
0.24000	-4
0.24367	3
0.24733	8
0.25100	7
0.25467	3
0.25833	-5
0.26200	-14
0.26567	-20
0.26933	-16
0.27300	-9
0.27667	-2
0.28033	2
0.28400	4
0.28767	5
0.29133	4
0.29500	1
0.29867	-2
0.30233	-3
0.30600	-5
0.30967	-10
0.31333	-14
0.31700	-12
0.32067	-7
0.32433	-1
0.32800	3
0.33167	3
0.33533	3
0.33900	2
0.34267	-5
0.34633	-12
0.35000	-16
0.35367	-16
0.35733	-15
0.36100	-16
0.36467	-16
0.36833	-12
0.37200	-6
0.37567	-0
0.37933	2
0.38300	0
0.38667	-4
0.39033	-8
0.39400	-10
0.39767	-10
0.40133	-9
0.40500	-8
0.40867	-7
0.41233	-6
0.41600	-9
0.41967	-15
0.42333	-18
0.42700	-17
0.43067	-16
0.43433	-19
0.43800	-26
0.44167	-34
0.44533	-41
0.44900	-41
0.45267	-34
0.45633	-25
0.46000	-16
0.46367	-11
0.46733	-9
0.47100	-10
0.47467	-11
0.47833	-12
0.48200	-10
0.48567	-5
0.48933	2
0.49300	7
0.49667	11
0.50033	11
0.50400	7
0.50767	1
0.51133	-6
0.51500	-10
0.51867	-15
0.52233	-21
0.52600	-26
0.52967	-28
0.53333	-28
0.53700	-27
0.54067	-21
0.54433	-14
0.54800	-12
0.55167	-2
0.55533	2
0.55900	-4
0.56267	-16
0.56633	-28
0.57000	-37
0.57367	-41
0.57733	-41
0.58100	-40
0.58467	-36
0.58833	-29
0.59200	-21
0.59567	-14
0.59933	-9
0.60300	-7
0.60667	-9
0.61033	-12
0.61400	-15
0.61767	-19
0.62133	-24
0.62500	-30
0.62867	-33
0.63233	-37
0.63600	-42
0.63967	-45
0.64333	-43
0.64700	-39
0.65067	-36
0.65433	-35
0.65800	-31
0.66167	-24
0.66533	-17
0.66900	-14
0.67267	-14
0.67633	-15
0.68000	-16
0.68367	-17
0.68733	-18
0.69100	-19
0.69467	-18
0.69833	-17
0.70200	-16
0.70567	-16
0.70933	-16
0.71300	-16
0.71667	-15
0.72033	-16
0.72400	-19
0.72767	-19
0.73133	-16
0.73500	-12
0.73867	-9
0.74233	-10
0.74600	-15
0.74967	-18
0.75333	-22
0.75700	-30
0.76067	-39
0.76433	-45
0.76800	-49
0.77167	-47
0.77533	-39
0.77900	-33
0.78267	-32
0.78633	-30
0.79000	-27
0.79367	-25
0.79733	-25
0.80100	-26
0.80467	-27
0.80833	-28
0.81200	-28
0.81567	-29
0.81933	-31
0.82300	-31
0.82667	-30
0.83033	-28
0.83400	-27
0.83767	-28
0.84133	-29
0.84500	-28
0.84867	-25
0.85233	-24
0.85600	-25
0.85967	-27
0.86333	-32
0.86700	-37
0.87067	-37
0.87433	-35
0.87800	-33
0.88167	-33
0.88533	-33
0.88900	-34
0.89267	-36
0.89633	-36
0.90000	-34
0.90367	-33
0.90733	-36
0.91100	-41
0.91467	-45
0.91833	-44
0.92200	-40
0.92567	-33
0.92933	-26
0.93300	-24
0.93667	-24
0.94033	-25
0.94400	-27
0.94767	-31
0.95133	-36
0.95500	-39
0.95867	-39
0.96233	-42
0.96600	-45
0.96967	-49
0.97333	-53
0.97700	-57
0.98067	-60
0.98433	-62
0.98800	-65
0.99167	-66
0.99533	-66
0.99900	-66
1.00267	-64
1.00633	-56
1.01000	-45
1.01367	-36
1.01733	-30
1.02100	-29
1.02467	-32
1.02833	-41
1.03200	-52
1.03567	-60
1.03933	-64
1.04300	-64
1.04667	-65
1.05033	-65
1.05400	-63
1.05767	-59
1.06133	-56
1.06500	-53
1.06867	-51
1.07233	-48
1.07600	-47
1.07967	-50
1.08333	-54
1.08700	-54
1.09067	-49
1.09433	-43
1.09800	-39
1.10167	-41
1.10533	-47
1.10900	-53
1.11267	-55
1.11633	-54
1.12000	-51
1.12367	-46
1.12733	-43
1.13100	-41
1.13467	-37
1.13833	-32
1.14200	-29
1.14567	-30
1.14933	-34
1.15300	-43
1.15667	-54
1.16033	-62
1.16400	-66
1.16767	-65
1.17133	-60
1.17500	-51
1.17867	-42
1.18233	-38
1.18600	-40
1.18967	-44
1.19333	-48
1.19700	-52
1.20067	-57
1.20433	-59
1.20800	-61
1.21167	-67
1.21533	-72
1.21900	-75
1.22267	-72
1.22633	-68
1.23000	-65
1.23367	-63
1.23733	-58
1.24100	-55
1.24467	-53
1.24833	-52
1.25200	-52
1.25567	-54
1.25933	-56
1.26300	-61
1.26667	-60
1.27033	-57
1.27400	-58
1.27767	-63
1.28133	-69
1.28500	-73
1.28867	-74
1.29233	-73
1.29600	-71
1.29967	-71
1.30333	-72
1.30700	-74
1.31067	-74
1.31433	-72
1.31800	-70
1.32167	-66
1.32533	-64
1.32900	-66
1.33267	-70
1.33633	-73
1.34000	-73
1.34367	-70
1.34733	-67
1.35100	-66
1.35467	-65
1.35833	-62
1.36200	-59
1.36567	-57
1.36933	-57
1.37300	-58
1.37667	-63
1.38033	-68
1.38400	-75
1.38767	-78
1.39133	-77
1.39500	-73
1.39867	-66
1.40233	-60
1.40600	-57
1.40967	-57
1.41333	-59
1.41700	-60
1.42067	-64
1.42433	-70
1.42800	-76
1.43167	-80
1.43533	-83
1.43900	-79
1.44267	-41
1.44633	88
1.45000	300
1.45367	512
1.45733	667
1.46100	759
1.46467	801
1.46833	814
1.47200	814
1.47567	815
1.47933	819
1.48300	813
1.48667	785
1.49033	728
1.49400	650
1.49767	561
1.50133	467
1.50500	374
1.50867	292
1.51233	226
1.51600	174
1.51967	135
1.52333	106
1.52700	84
1.53067	65
1.53433	49
1.53800	48
1.54167	142
1.54533	542
1.54900	1519
1.55267	3117
1.55633	5035
1.56000	6869
1.56367	8354
1.56733	9366
1.57100	9787
1.57467	9486
1.57833	8474
1.58200	6986
1.58567	5367
1.58933	3895
1.59300	2706
1.59667	1821
1.60033	1193
1.60400	762
1.60767	478
1.61133	297
1.61500	179
1.61867	100
1.62233	47
1.62600	10
1.62967	-16
1.63333	-34
1.63700	-45
1.64067	-52
1.64433	-56
1.64800	-59
1.65167	-64
1.65533	-71
1.65900	-81
1.66267	-90
1.66633	-92
1.67000	-87
1.67367	-77
1.67733	-66
1.68100	-57
1.68467	-57
1.68833	-66
1.69200	-79
1.69567	-86
1.69933	-87
1.70300	-87
1.70667	-85
1.71033	-81
1.71400	-78
1.71767	-76
1.72133	-77
1.72500	-80
1.72867	-83
1.73233	-87
1.73600	-90
1.73967	-89
1.74333	-86
1.74700	-83
1.75067	-80
1.75433	-77
1.75800	-75
1.76167	-73
1.76533	-71
1.76900	-74
1.77267	-82
1.77633	-91
1.78000	-99
1.78367	-104
1.78733	-105
1.79100	-105
1.79467	-98
1.79833	-91
1.80200	-88
1.80567	-84
1.80933	-80
1.81300	-76
1.81667	-76
1.82033	-80
1.82400	-85
1.82767	-89
1.83133	-93
1.83500	-94
1.83867	-93
1.84233	-89
1.84600	-85
1.84967	-83
1.85333	-80
1.85700	-79
1.86067	-79
1.86433	-76
1.86800	-70
1.87167	-66
1.87533	-64
1.87900	-65
1.88267	-66
1.88633	-67
1.89000	-67
1.89367	-67
1.89733	-72
1.90100	-79
1.90467	-85
1.90833	-88
1.91200	-90
1.91567	-89
1.91933	-86
1.92300	-85
1.92667	-87
1.93033	-89
1.93400	-94
1.93767	-101
1.94133	-105
1.94500	-103
1.94867	-100
1.95233	-93
1.95600	-62
1.95967	145
1.96333	1322
1.96700	6530
1.97067	24038
1.97433	69202
1.97800	159098
1.98167	299283
1.98533	474870
1.98900	655837
1.99267	810350
1.99633	913946
2.00000	952673
2.00367	923802
2.00733	836372
2.01100	709878
2.01467	568601
2.01833	433740
2.02200	318513
2.02567	227734
2.02933	160279
2.03300	112166
2.03667	78773
2.04033	55979
2.04400	40540
2.04767	30085
2.05133	22962
2.05500	18049
2.05867	14603
2.06233	12135
2.06600	10320
2.06967	8950
2.07333	7895
2.07700	7063
2.08067	6397
2.08433	5851
2.08800	5392
2.09167	5000
2.09533	4661
2.09900	4367
2.10267	4111
2.10633	3881
2.11000	3668
2.11367	3470
2.11733	3291
2.12100	3129
2.12467	2986
2.12833	2856
2.13200	2734
2.13567	2621
2.13933	2518
2.14300	2425
2.14667	2339
2.15033	2260
2.15400	2186
2.15767	2116
2.16133	2046
2.16500	1977
2.16867	1909
2.17233	1848
2.17600	1792
2.17967	1739
2.18333	1685
2.18700	1634
2.19067	1587
2.19433	1544
2.19800	1503
2.20167	1463
2.20533	1422
2.20900	1382
2.21267	1345
2.21633	1314
2.22000	1287
2.22367	1260
2.22733	1231
2.23100	1201
2.23467	1173
2.23833	1148
2.24200	1127
2.24567	1103
2.24933	1080
2.25300	1057
2.25667	1034
2.26033	1013
2.26400	992
2.26767	972
2.27133	952
2.27500	931
2.27867	912
2.28233	893
2.28600	874
2.28967	857
2.29333	842
2.29700	828
2.30067	818
2.30433	809
2.30800	799
2.31167	787
2.31533	771
2.31900	756
2.32267	742
2.32633	729
2.33000	716
2.33367	704
2.33733	692
2.34100	679
2.34467	667
2.34833	658
2.35200	650
2.35567	643
2.35933	636
2.36300	630
2.36667	621
2.37033	613
2.37400	610
2.37767	607
2.38133	602
2.38500	595
2.38867	586
2.39233	576
2.39600	563
2.39967	551
2.40333	541
2.40700	530
2.41067	523
2.41433	516
2.41800	512
2.42167	513
2.42533	518
2.42900	521
2.43267	521
2.43633	518
2.44000	511
2.44367	502
2.44733	493
2.45100	482
2.45467	473
2.45833	462
2.46200	450
2.46567	440
2.46933	431
2.47300	428
2.47667	427
2.48033	425
2.48400	421
2.48767	413
2.49133	406
2.49500	398
2.49867	391
2.50233	391
2.50600	389
2.50967	387
2.51333	387
2.51700	386
2.52067	383
2.52433	383
2.52800	387
2.53167	387
2.53533	382
2.53900	377
2.54267	371
2.54633	362
2.55000	355
2.55367	349
2.55733	344
2.56100	342
2.56467	338
2.56833	334
2.57200	329
2.57567	322
2.57933	316
2.58300	311
2.58667	308
2.59033	306
2.59400	305
2.59767	304
2.60133	304
2.60500	302
2.60867	301
2.61233	298
2.61600	296
2.61967	295
2.62333	300
2.62700	305
2.63067	307
2.63433	304
2.63800	298
2.64167	293
2.64533	288
2.64900	281
2.65267	274
2.65633	269
2.66000	270
2.66367	275
2.66733	278
2.67100	275
2.67467	272
2.67833	269
2.68200	264
2.68567	262
2.68933	263
2.69300	266
2.69667	263
2.70033	256
2.70400	249
2.70767	244
2.71133	243
2.71500	245
2.71867	249
2.72233	250
2.72600	251
2.72967	251
2.73333	250
2.73700	248
2.74067	243
2.74433	235
2.74800	226
2.75167	222
2.75533	220
2.75900	219
2.76267	217
2.76633	216
2.77000	215
2.77367	213
2.77733	208
2.78100	204
2.78467	205
2.78833	210
2.79200	216
2.79567	219
2.79933	221
2.80300	222
2.80667	223
2.81033	221
2.81400	217
2.81767	211
2.82133	203
2.82500	193
2.82867	185
2.83233	181
2.83600	181
2.83967	180
2.84333	179
2.84700	178
2.85067	180
2.85433	182
2.85800	183
2.86167	184
2.86533	185
2.86900	188
2.87267	190
2.87633	185
2.88000	178
2.88367	172
2.88733	168
2.89100	167
2.89467	169
2.89833	165
2.90200	163
2.90567	176
2.90933	186
2.91300	191
2.91667	194
2.92033	195
2.92400	193
2.92767	181
2.93133	169
2.93500	161
2.93867	153
2.94233	145
2.94600	142
2.94967	138
2.95333	138
2.95700	140
2.96067	140
2.96433	142
2.96800	143
2.97167	141
2.97533	143
2.97900	145
2.98267	148
2.98633	153
2.99000	159
2.99367	164
2.99733	169
3.00100	170
3.00467	167
3.00833	162
3.01200	157
3.01567	151
3.01933	146
3.02300	143
3.02667	140
3.03033	133
3.03400	128
3.03767	126
3.04133	126
3.04500	127
3.04867	124
3.05233	125
3.05600	131
3.05967	132
3.06333	135
3.06700	136
3.07067	129
3.07433	122
3.07800	116
3.08167	114
3.08533	119
3.08900	125
3.09267	129
3.09633	126
3.10000	119
3.10367	106
3.10733	103
3.11100	107
3.11467	114
3.11833	117
3.12200	121
3.12567	124
3.12933	123
3.13300	122
3.13667	120
3.14033	117
3.14400	114
3.14767	111
3.15133	110
3.15500	110
3.15867	110
3.16233	113
3.16600	117
3.16967	121
3.17333	122
3.17700	121
3.18067	119
3.18433	116
3.18800	110
3.19167	103
3.19533	98
3.19900	93
3.20267	87
3.20633	84
3.21000	84
3.21367	88
3.21733	94
3.22100	98
3.22467	99
3.22833	100
3.23200	100
3.23567	101
3.23933	100
3.24300	94
3.24667	87
3.25033	81
3.25400	82
3.25767	88
3.26133	94
3.26500	97
3.26867	94
3.27233	87
3.27600	81
3.27967	78
3.28333	77
3.28700	75
3.29067	73
3.29433	72
3.29800	70
3.30167	66
3.30533	67
3.30900	71
3.31267	76
3.31633	76
3.32000	73
3.32367	69
3.32733	64
3.33100	62
3.33467	67
3.33833	75
3.34200	79
3.34567	78
3.34933	76
3.35300	76
3.35667	80
3.36033	85
3.36400	90
3.36767	88
3.37133	83
3.37500	75
3.37867	66
3.38233	62
3.38600	62
3.38967	62
3.39333	64
3.39700	64
3.40067	62
3.40433	63
3.40800	67
3.41167	70
3.41533	74
3.41900	73
3.42267	66
3.42633	56
3.43000	51
3.43367	53
3.43733	54
3.44100	50
3.44467	44
3.44833	42
3.45200	47
3.45567	54
3.45933	60
3.46300	63
3.46667	61
3.47033	60
3.47400	62
3.47767	67
3.48133	71
3.48500	71
3.48867	68
3.49233	65
3.49600	63
3.49967	60
3.50333	58
3.50700	57
3.51067	59
3.51433	59
3.51800	58
3.52167	52
3.52533	45
3.52900	38
3.53267	33
3.53633	32
3.54000	35
3.54367	37
3.54733	41
3.55100	42
3.55467	38
3.55833	35
3.56200	36
3.56567	37
3.56933	37
3.57300	38
3.57667	41
3.58033	44
3.58400	43
3.58767	41
3.59133	41
3.59500	43
3.59867	39
3.60233	34
3.60600	32
3.60967	34
3.61333	37
3.61700	38
3.62067	37
3.62433	38
3.62800	42
3.63167	48
3.63533	48
3.63900	46
3.64267	42
3.64633	37
3.65000	34
3.65367	35
3.65733	40
3.66100	44
3.66467	42
3.66833	39
3.67200	39
3.67567	41
3.67933	42
3.68300	37
3.68667	29
3.69033	23
3.69400	17
3.69767	11
3.70133	10
3.70500	14
3.70867	20
3.71233	27
3.71600	30
3.71967	30
3.72333	30
3.72700	29
3.73067	28
3.73433	29
3.73800	27
3.74167	19
3.74533	12
3.74900	8
3.75267	13
3.75633	24
3.76000	34
3.76367	40
3.76733	40
3.77100	36
3.77467	33
3.77833	30
3.78200	27
3.78567	23
3.78933	20
3.79300	22
3.79667	27
3.80033	33
3.80400	39
3.80767	41
3.81133	39
3.81500	34
3.81867	31
3.82233	29
3.82600	25
3.82967	17
3.83333	8
3.83700	2
3.84067	1
3.84433	2
3.84800	4
3.85167	10
3.85533	15
3.85900	16
3.86267	17
3.86633	17
3.87000	19
3.87367	19
3.87733	19
3.88100	17
3.88467	18
3.88833	23
3.89200	31
3.89567	36
3.89933	36
3.90300	34
3.90667	29
3.91033	25
3.91400	21
3.91767	15
3.92133	8
3.92500	4
3.92867	5
3.93233	7
3.93600	12
3.93967	17
3.94333	16
3.94700	16
3.95067	15
3.95433	16
3.95800	19
3.96167	23
3.96533	24
3.96900	23
3.97267	21
3.97633	20
3.98000	18
3.98367	15
3.98733	10
3.99100	6
3.99467	4
3.99833	0

[Chromatogram (Ch2)]
Interval(msec)	220
# of Points	1091
Start Time(min)	0.002
End Time(min)	3.998
R.Time (min)	Intensity
0.00167	1
0.00533	1
0.00900	1
0.01267	2
0.01633	2
0.02000	2
0.02367	2
0.02733	2
0.03100	2
0.03467	2
0.03833	3
0.04200	3
0.04567	2
0.04933	2
0.05300	2
0.05667	2
0.06033	2
0.06400	2
0.06767	2
0.07133	2
0.07500	2
0.07867	2
0.08233	2
0.08600	2
0.08967	2
0.09333	2
0.09700	2
0.10067	2
0.10433	2
0.10800	2
0.11167	2
0.11533	2
0.11900	2
0.12267	2
0.12633	2
0.13000	2
0.13367	2
0.13733	1
0.14100	1
0.14467	1
0.14833	1
0.15200	1
0.15567	1
0.15933	1
0.16300	1
0.16667	1
0.17033	1
0.17400	1
0.17767	1
0.18133	1
0.18500	1
0.18867	1
0.19233	1
0.19600	1
0.19967	1
0.20333	1
0.20700	1
0.21067	1
0.21433	1
0.21800	1
0.22167	1
0.22533	1
0.22900	1
0.23267	1
0.23633	2
0.24000	1
0.24367	1
0.24733	1
0.25100	1
0.25467	1
0.25833	1
0.26200	1
0.26567	1
0.26933	0
0.27300	0
0.27667	0
0.28033	1
0.28400	1
0.28767	1
0.29133	1
0.29500	1
0.29867	1
0.30233	1
0.30600	1
0.30967	1
0.31333	1
0.31700	1
0.32067	1
0.32433	1
0.32800	1
0.33167	0
0.33533	0
0.33900	0
0.34267	0
0.34633	0
0.35000	0
0.35367	-0
0.35733	-0
0.36100	-0
0.36467	0
0.36833	0
0.37200	0
0.37567	0
0.37933	0
0.38300	0
0.38667	0
0.39033	0
0.39400	0
0.39767	0
0.40133	0
0.40500	0
0.40867	1
0.41233	1
0.41600	1
0.41967	1
0.42333	0
0.42700	0
0.43067	0
0.43433	0
0.43800	0
0.44167	0
0.44533	-0
0.44900	-0
0.45267	-0
0.45633	-0
0.46000	-1
0.46367	-1
0.46733	-1
0.47100	-1
0.47467	-1
0.47833	-1
0.48200	-2
0.48567	-2
0.48933	-2
0.49300	-2
0.49667	-2
0.50033	-2
0.50400	-2
0.50767	-2
0.51133	-2
0.51500	-1
0.51867	-1
0.52233	-1
0.52600	-1
0.52967	-1
0.53333	-1
0.53700	-1
0.54067	-1
0.54433	-1
0.54800	-1
0.55167	-1
0.55533	-1
0.55900	-1
0.56267	-1
0.56633	-1
0.57000	-1
0.57367	-1
0.57733	-1
0.58100	-1
0.58467	-1
0.58833	-1
0.59200	-2
0.59567	-2
0.59933	-2
0.60300	-2
0.60667	-2
0.61033	-2
0.61400	-3
0.61767	-3
0.62133	-3
0.62500	-3
0.62867	-3
0.63233	-3
0.63600	-3
0.63967	-3
0.64333	-3
0.64700	-2
0.65067	-2
0.65433	-2
0.65800	-2
0.66167	-1
0.66533	-1
0.66900	-1
0.67267	-1
0.67633	-1
0.68000	-1
0.68367	-1
0.68733	-1
0.69100	-1
0.69467	-1
0.69833	-1
0.70200	-1
0.70567	-1
0.70933	-1
0.71300	-1
0.71667	-1
0.72033	-1
0.72400	-1
0.72767	-1
0.73133	-1
0.73500	-1
0.73867	-1
0.74233	-1
0.74600	-1
0.74967	-1
0.75333	-2
0.75700	-2
0.76067	-1
0.76433	-1
0.76800	-1
0.77167	-1
0.77533	-1
0.77900	-0
0.78267	-0
0.78633	-0
0.79000	0
0.79367	0
0.79733	0
0.80100	0
0.80467	-0
0.80833	-0
0.81200	-0
0.81567	-1
0.81933	-1
0.82300	-1
0.82667	-1
0.83033	-1
0.83400	-1
0.83767	-2
0.84133	-2
0.84500	-2
0.84867	-2
0.85233	-2
0.85600	-2
0.85967	-2
0.86333	-2
0.86700	-2
0.87067	-2
0.87433	-2
0.87800	-2
0.88167	-2
0.88533	-2
0.88900	-2
0.89267	-2
0.89633	-2
0.90000	-2
0.90367	-2
0.90733	-2
0.91100	-2
0.91467	-2
0.91833	-3
0.92200	-3
0.92567	-3
0.92933	-3
0.93300	-3
0.93667	-3
0.94033	-3
0.94400	-2
0.94767	-2
0.95133	-2
0.95500	-2
0.95867	-3
0.96233	-3
0.96600	-3
0.96967	-2
0.97333	-2
0.97700	-2
0.98067	-2
0.98433	-2
0.98800	-2
0.99167	-1
0.99533	-1
0.99900	-1
1.00267	-1
1.00633	-0
1.01000	-0
1.01367	-0
1.01733	-0
1.02100	-0
1.02467	-0
1.02833	-0
1.03200	-0
1.03567	-0
1.03933	-0
1.04300	-0
1.04667	-1
1.05033	-1
1.05400	-1
1.05767	-1
1.06133	-1
1.06500	-1
1.06867	-1
1.07233	-1
1.07600	-1
1.07967	-1
1.08333	-1
1.08700	-1
1.09067	-1
1.09433	-1
1.09800	-1
1.10167	-2
1.10533	-2
1.10900	-2
1.11267	-2
1.11633	-2
1.12000	-2
1.12367	-1
1.12733	-1
1.13100	-1
1.13467	-1
1.13833	-1
1.14200	-1
1.14567	-1
1.14933	-1
1.15300	-1
1.15667	-1
1.16033	-1
1.16400	-1
1.16767	-1
1.17133	-1
1.17500	-1
1.17867	-1
1.18233	-1
1.18600	-1
1.18967	-1
1.19333	-1
1.19700	-1
1.20067	-1
1.20433	-1
1.20800	-1
1.21167	-1
1.21533	-2
1.21900	-2
1.22267	-2
1.22633	-2
1.23000	-2
1.23367	-2
1.23733	-2
1.24100	-2
1.24467	-1
1.24833	-1
1.25200	-1
1.25567	-1
1.25933	-1
1.26300	-1
1.26667	-1
1.27033	-1
1.27400	-1
1.27767	-1
1.28133	-1
1.28500	-2
1.28867	-2
1.29233	-2
1.29600	-2
1.29967	-2
1.30333	-2
1.30700	-2
1.31067	-2
1.31433	-2
1.31800	-2
1.32167	-2
1.32533	-2
1.32900	-2
1.33267	-2
1.33633	-2
1.34000	-2
1.34367	-2
1.34733	-2
1.35100	-2
1.35467	-2
1.35833	-2
1.36200	-2
1.36567	-2
1.36933	-1
1.37300	-1
1.37667	-2
1.38033	-2
1.38400	-2
1.38767	-3
1.39133	-3
1.39500	-3
1.39867	-3
1.40233	-3
1.40600	-3
1.40967	-3
1.41333	-3
1.41700	-3
1.42067	-3
1.42433	-3
1.42800	-3
1.43167	-3
1.43533	-3
1.43900	-2
1.44267	-2
1.44633	-2
1.45000	-3
1.45367	-2
1.45733	-2
1.46100	-2
1.46467	-2
1.46833	-3
1.47200	-3
1.47567	-3
1.47933	-3
1.48300	-4
1.48667	-4
1.49033	-5
1.49400	-5
1.49767	-5
1.50133	-5
1.50500	-5
1.50867	-5
1.51233	-6
1.51600	-5
1.51967	-5
1.52333	-5
1.52700	-5
1.53067	-4
1.53433	-4
1.53800	-4
1.54167	-4
1.54533	-4
1.54900	-4
1.55267	-4
1.55633	-3
1.56000	-3
1.56367	-3
1.56733	-3
1.57100	-3
1.57467	-3
1.57833	-3
1.58200	-3
1.58567	-2
1.58933	-2
1.59300	-3
1.59667	-3
1.60033	-4
1.60400	-5
1.60767	-6
1.61133	-7
1.61500	-9
1.61867	-11
1.62233	-14
1.62600	-17
1.62967	-20
1.63333	-24
1.63700	-27
1.64067	-31
1.64433	-34
1.64800	-38
1.65167	-42
1.65533	-45
1.65900	-49
1.66267	-52
1.66633	-56
1.67000	-61
1.67367	-66
1.67733	-71
1.68100	-75
1.68467	-80
1.68833	-85
1.69200	-89
1.69567	-93
1.69933	-96
1.70300	-99
1.70667	-102
1.71033	-104
1.71400	-105
1.71767	-106
1.72133	-107
1.72500	-108
1.72867	-108
1.73233	-108
1.73600	-108
1.73967	-108
1.74333	-108
1.74700	-108
1.75067	-107
1.75433	-107
1.75800	-107
1.76167	-108
1.76533	-109
1.76900	-109
1.77267	-110
1.77633	-111
1.78000	-112
1.78367	-113
1.78733	-113
1.79100	-114
1.79467	-115
1.79833	-116
1.80200	-116
1.80567	-117
1.80933	-118
1.81300	-118
1.81667	-118
1.82033	-118
1.82400	-118
1.82767	-117
1.83133	-117
1.83500	-116
1.83867	-116
1.84233	-116
1.84600	-117
1.84967	-117
1.85333	-118
1.85700	-118
1.86067	-118
1.86433	-118
1.86800	-118
1.87167	-118
1.87533	-118
1.87900	-118
1.88267	-118
1.88633	-118
1.89000	-118
1.89367	-119
1.89733	-119
1.90100	-120
1.90467	-120
1.90833	-120
1.91200	-119
1.91567	-119
1.91933	-119
1.92300	-118
1.92667	-118
1.93033	-118
1.93400	-117
1.93767	-117
1.94133	-117
1.94500	-117
1.94867	-116
1.95233	-116
1.95600	-115
1.95967	-114
1.96333	-114
1.96700	-114
1.97067	-114
1.97433	-114
1.97800	-114
1.98167	-114
1.98533	-114
1.98900	-114
1.99267	-113
1.99633	-112
2.00000	-112
2.00367	-111
2.00733	-111
2.01100	-110
2.01467	-110
2.01833	-110
2.02200	-109
2.02567	-109
2.02933	-109
2.03300	-109
2.03667	-109
2.04033	-109
2.04400	-109
2.04767	-108
2.05133	-108
2.05500	-107
2.05867	-106
2.06233	-106
2.06600	-105
2.06967	-105
2.07333	-104
2.07700	-103
2.08067	-103
2.08433	-103
2.08800	-103
2.09167	-103
2.09533	-103
2.09900	-103
2.10267	-102
2.10633	-102
2.11000	-102
2.11367	-101
2.11733	-101
2.12100	-101
2.12467	-101
2.12833	-100
2.13200	-100
2.13567	-100
2.13933	-100
2.14300	-100
2.14667	-100
2.15033	-100
2.15400	-99
2.15767	-99
2.16133	-98
2.16500	-98
2.16867	-97
2.17233	-97
2.17600	-97
2.17967	-96
2.18333	-96
2.18700	-96
2.19067	-97
2.19433	-96
2.19800	-96
2.20167	-96
2.20533	-95
2.20900	-94
2.21267	-93
2.21633	-93
2.22000	-92
2.22367	-92
2.22733	-92
2.23100	-92
2.23467	-91
2.23833	-91
2.24200	-91
2.24567	-91
2.24933	-91
2.25300	-91
2.25667	-90
2.26033	-90
2.26400	-90
2.26767	-89
2.27133	-88
2.27500	-88
2.27867	-87
2.28233	-87
2.28600	-87
2.28967	-87
2.29333	-87
2.29700	-88
2.30067	-88
2.30433	-87
2.30800	-87
2.31167	-87
2.31533	-86
2.31900	-85
2.32267	-84
2.32633	-84
2.33000	-83
2.33367	-83
2.33733	-83
2.34100	-83
2.34467	-83
2.34833	-83
2.35200	-82
2.35567	-82
2.35933	-81
2.36300	-79
2.36667	-78
2.37033	-75
2.37400	-73
2.37767	-70
2.38133	-67
2.38500	-63
2.38867	-60
2.39233	-56
2.39600	-52
2.39967	-49
2.40333	-45
2.40700	-41
2.41067	-38
2.41433	-34
2.41800	-30
2.42167	-27
2.42533	-24
2.42900	-22
2.43267	-19
2.43633	-17
2.44000	-15
2.44367	-12
2.44733	-9
2.45100	-7
2.45467	-5
2.45833	-4
2.46200	-3
2.46567	-2
2.46933	-1
2.47300	1
2.47667	2
2.48033	3
2.48400	4
2.48767	4
2.49133	5
2.49500	5
2.49867	6
2.50233	6
2.50600	7
2.50967	8
2.51333	9
2.51700	9
2.52067	10
2.52433	10
2.52800	11
2.53167	11
2.53533	11
2.53900	11
2.54267	11
2.54633	12
2.55000	12
2.55367	13
2.55733	14
2.56100	14
2.56467	16
2.56833	16
2.57200	17
2.57567	17
2.57933	17
2.58300	17
2.58667	17
2.59033	16
2.59400	17
2.59767	17
2.60133	17
2.60500	18
2.60867	18
2.61233	18
2.61600	18
2.61967	18
2.62333	17
2.62700	18
2.63067	18
2.63433	18
2.63800	19
2.64167	19
2.64533	20
2.64900	21
2.65267	21
2.65633	21
2.66000	22
2.66367	22
2.66733	21
2.67100	21
2.67467	21
2.67833	21
2.68200	21
2.68567	21
2.68933	21
2.69300	21
2.69667	21
2.70033	21
2.70400	21
2.70767	21
2.71133	22
2.71500	22
2.71867	22
2.72233	22
2.72600	22
2.72967	22
2.73333	23
2.73700	23
2.74067	23
2.74433	24
2.74800	24
2.75167	25
2.75533	25
2.75900	26
2.76267	26
2.76633	26
2.77000	27
2.77367	27
2.77733	27
2.78100	27
2.78467	27
2.78833	26
2.79200	26
2.79567	25
2.79933	25
2.80300	25
2.80667	25
2.81033	24
2.81400	24
2.81767	24
2.82133	24
2.82500	24
2.82867	24
2.83233	24
2.83600	24
2.83967	25
2.84333	25
2.84700	25
2.85067	25
2.85433	25
2.85800	24
2.86167	22
2.86533	18
2.86900	12
2.87267	3
2.87633	-9
2.88000	-25
2.88367	-46
2.88733	-72
2.89100	-103
2.89467	-139
2.89833	-180
2.90200	-225
2.90567	-276
2.90933	-331
2.91300	-390
2.91667	-452
2.92033	-518
2.92400	-587
2.92767	-659
2.93133	-733
2.93500	-809
2.93867	-888
2.94233	-968
2.94600	-1050
2.94967	-1132
2.95333	-1217
2.95700	-1303
2.96067	-1387
2.96433	-1458
2.96800	-1505
2.97167	-1518
2.97533	-1496
2.97900	-1443
2.98267	-1365
2.98633	-1270
2.99000	-1164
2.99367	-1055
2.99733	-946
3.00100	-841
3.00467	-743
3.00833	-651
3.01200	-568
3.01567	-493
3.01933	-427
3.02300	-368
3.02667	-316
3.03033	-271
3.03400	-231
3.03767	-197
3.04133	-167
3.04500	-142
3.04867	-120
3.05233	-101
3.05600	-85
3.05967	-72
3.06333	-60
3.06700	-50
3.07067	-41
3.07433	-34
3.07800	-28
3.08167	-22
3.08533	-18
3.08900	-14
3.09267	-10
3.09633	-7
3.10000	-5
3.10367	-2
3.10733	-0
3.11100	1
3.11467	3
3.11833	4
3.12200	6
3.12567	7
3.12933	8
3.13300	9
3.13667	10
3.14033	10
3.14400	11
3.14767	11
3.15133	12
3.15500	12
3.15867	13
3.16233	13
3.16600	14
3.16967	14
3.17333	15
3.17700	15
3.18067	15
3.18433	16
3.18800	16
3.19167	16
3.19533	16
3.19900	16
3.20267	16
3.20633	17
3.21000	17
3.21367	17
3.21733	17
3.22100	17
3.22467	17
3.22833	17
3.23200	17
3.23567	18
3.23933	18
3.24300	18
3.24667	18
3.25033	19
3.25400	19
3.25767	19
3.26133	19
3.26500	19
3.26867	19
3.27233	19
3.27600	20
3.27967	20
3.28333	20
3.28700	21
3.29067	21
3.29433	21
3.29800	22
3.30167	22
3.30533	22
3.30900	22
3.31267	22
3.31633	23
3.32000	23
3.32367	23
3.32733	23
3.33100	23
3.33467	23
3.33833	23
3.34200	24
3.34567	24
3.34933	25
3.35300	25
3.35667	26
3.36033	26
3.36400	26
3.36767	26
3.37133	26
3.37500	26
3.37867	26
3.38233	27
3.38600	27
3.38967	27
3.39333	27
3.39700	27
3.40067	27
3.40433	27
3.40800	27
3.41167	26
3.41533	26
3.41900	26
3.42267	26
3.42633	26
3.43000	27
3.43367	27
3.43733	27
3.44100	27
3.44467	27
3.44833	27
3.45200	27
3.45567	27
3.45933	27
3.46300	28
3.46667	28
3.47033	28
3.47400	28
3.47767	28
3.48133	27
3.48500	27
3.48867	27
3.49233	27
3.49600	27
3.49967	27
3.50333	27
3.50700	27
3.51067	27
3.51433	27
3.51800	27
3.52167	27
3.52533	27
3.52900	27
3.53267	27
3.53633	27
3.54000	27
3.54367	27
3.54733	27
3.55100	27
3.55467	27
3.55833	27
3.56200	27
3.56567	27
3.56933	27
3.57300	27
3.57667	28
3.58033	28
3.58400	28
3.58767	28
3.59133	28
3.59500	28
3.59867	28
3.60233	28
3.60600	28
3.60967	28
3.61333	28
3.61700	28
3.62067	28
3.62433	28
3.62800	28
3.63167	27
3.63533	27
3.63900	27
3.64267	27
3.64633	27
3.65000	26
3.65367	26
3.65733	26
3.66100	26
3.66467	27
3.66833	27
3.67200	27
3.67567	27
3.67933	27
3.68300	27
3.68667	26
3.69033	26
3.69400	26
3.69767	26
3.70133	26
3.70500	26
3.70867	27
3.71233	27
3.71600	27
3.71967	27
3.72333	27
3.72700	27
3.73067	27
3.73433	27
3.73800	27
3.74167	27
3.74533	27
3.74900	27
3.75267	27
3.75633	27
3.76000	27
3.76367	27
3.76733	27
3.77100	26
3.77467	26
3.77833	26
3.78200	26
3.78567	27
3.78933	27
3.79300	27
3.79667	27
3.80033	27
3.80400	27
3.80767	27
3.81133	26
3.81500	26
3.81867	26
3.82233	26
3.82600	26
3.82967	26
3.83333	26
3.83700	26
3.84067	26
3.84433	26
3.84800	27
3.85167	27
3.85533	27
3.85900	27
3.86267	27
3.86633	26
3.87000	26
3.87367	26
3.87733	26
3.88100	26
3.88467	26
3.88833	26
3.89200	26
3.89567	26
3.89933	26
3.90300	26
3.90667	26
3.91033	26
3.91400	26
3.91767	26
3.92133	27
3.92500	27
3.92867	27
3.93233	27
3.93600	27
3.93967	27
3.94333	27
3.94700	27
3.95067	27
3.95433	27
3.95800	27
3.96167	27
3.96533	27
3.96900	27
3.97267	27
3.97633	27
3.98000	27
3.98367	27
3.98733	27
3.99100	27
3.99467	27
3.99833	28

[Chromatogram (Ch3)]
Interval(msec)	220
# of Points	1091
Start Time(min)	0.002
End Time(min)	3.998
R.Time (min)	Intensity
0.00167	-0
0.00533	-0
0.00900	2
0.01267	3
0.01633	4
0.02000	3
0.02367	1
0.02733	-1
0.03100	0
0.03467	-0
0.03833	0
0.04200	3
0.04567	4
0.04933	6
0.05300	6
0.05667	6
0.06033	6
0.06400	5
0.06767	4
0.07133	3
0.07500	3
0.07867	4
0.08233	7
0.08600	7
0.08967	7
0.09333	3
0.09700	2
0.10067	2
0.10433	3
0.10800	4
0.11167	4
0.11533	3
0.11900	1
0.12267	-1
0.12633	1
0.13000	5
0.13367	8
0.13733	7
0.14100	6
0.14467	5
0.14833	4
0.15200	3
0.15567	4
0.15933	4
0.16300	1
0.16667	2
0.17033	3
0.17400	3
0.17767	3
0.18133	3
0.18500	3
0.18867	4
0.19233	7
0.19600	9
0.19967	10
0.20333	10
0.20700	11
0.21067	12
0.21433	13
0.21800	11
0.22167	9
0.22533	10
0.22900	10
0.23267	11
0.23633	10
0.24000	9
0.24367	8
0.24733	8
0.25100	7
0.25467	8
0.25833	8
0.26200	10
0.26567	12
0.26933	15
0.27300	16
0.27667	16
0.28033	15
0.28400	12
0.28767	10
0.29133	10
0.29500	10
0.29867	9
0.30233	9
0.30600	9
0.30967	10
0.31333	14
0.31700	15
0.32067	17
0.32433	19
0.32800	20
0.33167	19
0.33533	17
0.33900	16
0.34267	16
0.34633	16
0.35000	16
0.35367	16
0.35733	16
0.36100	17
0.36467	18
0.36833	17
0.37200	15
0.37567	14
0.37933	11
0.38300	9
0.38667	10
0.39033	11
0.39400	11
0.39767	12
0.40133	14
0.40500	15
0.40867	16
0.41233	15
0.41600	15
0.41967	14
0.42333	16
0.42700	18
0.43067	21
0.43433	21
0.43800	20
0.44167	19
0.44533	16
0.44900	14
0.45267	13
0.45633	12
0.46000	14
0.46367	16
0.46733	15
0.47100	15
0.47467	18
0.47833	21
0.48200	22
0.48567	21
0.48933	20
0.49300	21
0.49667	20
0.50033	20
0.50400	21
0.50767	21
0.51133	21
0.51500	21
0.51867	21
0.52233	22
0.52600	23
0.52967	21
0.53333	22
0.53700	24
0.54067	24
0.54433	23
0.54800	20
0.55167	18
0.55533	18
0.55900	19
0.56267	20
0.56633	21
0.57000	22
0.57367	23
0.57733	24
0.58100	25
0.58467	26
0.58833	28
0.59200	27
0.59567	26
0.59933	26
0.60300	26
0.60667	27
0.61033	28
0.61400	29
0.61767	32
0.62133	34
0.62500	33
0.62867	32
0.63233	31
0.63600	31
0.63967	32
0.64333	32
0.64700	30
0.65067	27
0.65433	25
0.65800	26
0.66167	27
0.66533	30
0.66900	31
0.67267	30
0.67633	29
0.68000	28
0.68367	29
0.68733	31
0.69100	31
0.69467	32
0.69833	33
0.70200	32
0.70567	31
0.70933	28
0.71300	28
0.71667	30
0.72033	30
0.72400	30
0.72767	32
0.73133	32
0.73500	32
0.73867	31
0.74233	29
0.74600	29
0.74967	29
0.75333	29
0.75700	29
0.76067	29
0.76433	30
0.76800	30
0.77167	27
0.77533	28
0.77900	30
0.78267	32
0.78633	33
0.79000	33
0.79367	31
0.79733	30
0.80100	28
0.80467	29
0.80833	27
0.81200	29
0.81567	30
0.81933	30
0.82300	29
0.82667	30
0.83033	27
0.83400	26
0.83767	26
0.84133	28
0.84500	28
0.84867	27
0.85233	25
0.85600	23
0.85967	25
0.86333	28
0.86700	28
0.87067	30
0.87433	31
0.87800	32
0.88167	33
0.88533	33
0.88900	35
0.89267	37
0.89633	36
0.90000	34
0.90367	33
0.90733	34
0.91100	35
0.91467	32
0.91833	33
0.92200	35
0.92567	36
0.92933	35
0.93300	33
0.93667	30
0.94033	28
0.94400	30
0.94767	31
0.95133	32
0.95500	32
0.95867	33
0.96233	34
0.96600	34
0.96967	33
0.97333	33
0.97700	32
0.98067	32
0.98433	33
0.98800	33
0.99167	33
0.99533	32
0.99900	30
1.00267	29
1.00633	30
1.01000	30
1.01367	31
1.01733	33
1.02100	32
1.02467	31
1.02833	33
1.03200	36
1.03567	38
1.03933	35
1.04300	34
1.04667	34
1.05033	32
1.05400	32
1.05767	34
1.06133	36
1.06500	35
1.06867	34
1.07233	33
1.07600	32
1.07967	30
1.08333	29
1.08700	28
1.09067	28
1.09433	31
1.09800	31
1.10167	30
1.10533	30
1.10900	31
1.11267	33
1.11633	37
1.12000	40
1.12367	39
1.12733	37
1.13100	35
1.13467	37
1.13833	37
1.14200	35
1.14567	32
1.14933	27
1.15300	25
1.15667	26
1.16033	26
1.16400	27
1.16767	26
1.17133	25
1.17500	24
1.17867	24
1.18233	24
1.18600	24
1.18967	24
1.19333	23
1.19700	25
1.20067	29
1.20433	32
1.20800	30
1.21167	28
1.21533	29
1.21900	29
1.22267	29
1.22633	30
1.23000	31
1.23367	32
1.23733	30
1.24100	28
1.24467	28
1.24833	26
1.25200	26
1.25567	26
1.25933	27
1.26300	27
1.26667	26
1.27033	26
1.27400	29
1.27767	29
1.28133	26
1.28500	26
1.28867	28
1.29233	30
1.29600	29
1.29967	28
1.30333	27
1.30700	25
1.31067	24
1.31433	25
1.31800	28
1.32167	31
1.32533	31
1.32900	29
1.33267	28
1.33633	29
1.34000	28
1.34367	27
1.34733	27
1.35100	27
1.35467	27
1.35833	26
1.36200	25
1.36567	24
1.36933	23
1.37300	25
1.37667	29
1.38033	31
1.38400	30
1.38767	27
1.39133	25
1.39500	22
1.39867	22
1.40233	24
1.40600	26
1.40967	26
1.41333	26
1.41700	25
1.42067	25
1.42433	27
1.42800	28
1.43167	28
1.43533	27
1.43900	26
1.44267	26
1.44633	27
1.45000	27
1.45367	27
1.45733	27
1.46100	25
1.46467	24
1.46833	23
1.47200	21
1.47567	20
1.47933	20
1.48300	22
1.48667	22
1.49033	23
1.49400	23
1.49767	23
1.50133	23
1.50500	23
1.50867	23
1.51233	22
1.51600	23
1.51967	24
1.52333	23
1.52700	19
1.53067	19
1.53433	19
1.53800	20
1.54167	22
1.54533	23
1.54900	23
1.55267	24
1.55633	23
1.56000	22
1.56367	23
1.56733	23
1.57100	23
1.57467	23
1.57833	24
1.58200	27
1.58567	26
1.58933	23
1.59300	20
1.59667	17
1.60033	17
1.60400	17
1.60767	16
1.61133	17
1.61500	20
1.61867	24
1.62233	25
1.62600	24
1.62967	23
1.63333	22
1.63700	22
1.64067	21
1.64433	22
1.64800	23
1.65167	25
1.65533	26
1.65900	27
1.66267	28
1.66633	30
1.67000	33
1.67367	34
1.67733	33
1.68100	30
1.68467	30
1.68833	30
1.69200	30
1.69567	30
1.69933	30
1.70300	31
1.70667	31
1.71033	33
1.71400	34
1.71767	34
1.72133	35
1.72500	35
1.72867	34
1.73233	32
1.73600	32
1.73967	34
1.74333	35
1.74700	37
1.75067	38
1.75433	40
1.75800	41
1.76167	42
1.76533	42
1.76900	40
1.77267	40
1.77633	39
1.78000	39
1.78367	38
1.78733	38
1.79100	39
1.79467	39
1.79833	38
1.80200	40
1.80567	40
1.80933	38
1.81300	37
1.81667	37
1.82033	37
1.82400	38
1.82767	41
1.83133	44
1.83500	47
1.83867	48
1.84233	49
1.84600	48
1.84967	46
1.85333	46
1.85700	48
1.86067	51
1.86433	54
1.86800	56
1.87167	54
1.87533	53
1.87900	54
1.88267	56
1.88633	55
1.89000	53
1.89367	53
1.89733	54
1.90100	53
1.90467	52
1.90833	51
1.91200	51
1.91567	52
1.91933	55
1.92300	56
1.92667	55
1.93033	55
1.93400	53
1.93767	52
1.94133	52
1.94500	53
1.94867	55
1.95233	56
1.95600	59
1.95967	60
1.96333	61
1.96700	59
1.97067	58
1.97433	59
1.97800	60
1.98167	62
1.98533	64
1.98900	64
1.99267	66
1.99633	66
2.00000	65
2.00367	65
2.00733	69
2.01100	72
2.01467	73
2.01833	74
2.02200	75
2.02567	74
2.02933	71
2.03300	70
2.03667	71
2.04033	71
2.04400	72
2.04767	74
2.05133	75
2.05500	76
2.05867	76
2.06233	77
2.06600	79
2.06967	80
2.07333	80
2.07700	81
2.08067	82
2.08433	84
2.08800	85
2.09167	87
2.09533	88
2.09900	86
2.10267	85
2.10633	85
2.11000	86
2.11367	88
2.11733	88
2.12100	88
2.12467	88
2.12833	88
2.13200	88
2.13567	89
2.13933	90
2.14300	92
2.14667	95
2.15033	97
2.15400	98
2.15767	99
2.16133	99
2.16500	99
2.16867	101
2.17233	101
2.17600	101
2.17967	102
2.18333	103
2.18700	101
2.19067	98
2.19433	99
2.19800	102
2.20167	107
2.20533	111
2.20900	113
2.21267	112
2.21633	113
2.22000	115
2.22367	116
2.22733	117
2.23100	117
2.23467	118
2.23833	120
2.24200	121
2.24567	121
2.24933	122
2.25300	123
2.25667	124
2.26033	125
2.26400	125
2.26767	127
2.27133	128
2.27500	128
2.27867	127
2.28233	126
2.28600	126
2.28967	129
2.29333	131
2.29700	132
2.30067	133
2.30433	135
2.30800	138
2.31167	138
2.31533	138
2.31900	137
2.32267	137
2.32633	138
2.33000	139
2.33367	138
2.33733	138
2.34100	139
2.34467	138
2.34833	141
2.35200	145
2.35567	147
2.35933	148
2.36300	150
2.36667	153
2.37033	155
2.37400	156
2.37767	156
2.38133	155
2.38500	153
2.38867	152
2.39233	152
2.39600	153
2.39967	154
2.40333	156
2.40700	158
2.41067	164
2.41433	168
2.41800	170
2.42167	171
2.42533	174
2.42900	173
2.43267	175
2.43633	176
2.44000	175
2.44367	199
2.44733	271
2.45100	355
2.45467	421
2.45833	443
2.46200	435
2.46567	427
2.46933	425
2.47300	419
2.47667	399
2.48033	371
2.48400	339
2.48767	310
2.49133	286
2.49500	270
2.49867	259
2.50233	257
2.50600	261
2.50967	268
2.51333	275
2.51700	280
2.52067	278
2.52433	269
2.52800	255
2.53167	237
2.53533	220
2.53900	204
2.54267	191
2.54633	181
2.55000	175
2.55367	172
2.55733	168
2.56100	164
2.56467	162
2.56833	165
2.57200	169
2.57567	174
2.57933	176
2.58300	180
2.58667	184
2.59033	188
2.59400	193
2.59767	201
2.60133	211
2.60500	223
2.60867	229
2.61233	226
2.61600	215
2.61967	196
2.62333	164
2.62700	123
2.63067	81
2.63433	39
2.63800	-1
2.64167	-40
2.64533	-77
2.64900	-108
2.65267	-133
2.65633	-150
2.66000	-162
2.66367	-168
2.66733	-170
2.67100	-169
2.67467	-163
2.67833	-156
2.68200	-147
2.68567	-136
2.68933	-121
2.69300	-108
2.69667	-98
2.70033	-88
2.70400	-78
2.70767	-69
2.71133	-59
2.71500	-50
2.71867	-38
2.72233	-29
2.72600	-24
2.72967	-17
2.73333	-10
2.73700	-3
2.74067	5
2.74433	13
2.74800	22
2.75167	31
2.75533	38
2.75900	45
2.76267	53
2.76633	61
2.77000	66
2.77367	73
2.77733	81
2.78100	87
2.78467	92
2.78833	98
2.79200	96
2.79567	92
2.79933	95
2.80300	111
2.80667	138
2.81033	174
2.81400	212
2.81767	250
2.82133	289
2.82500	329
2.82867	372
2.83233	426
2.83600	504
2.83967	637
2.84333	872
2.84700	1280
2.85067	1929
2.85433	2875
2.85800	4149
2.86167	5740
2.86533	7577
2.86900	9555
2.87267	11535
2.87633	13364
2.88000	14903
2.88367	16042
2.88733	16731
2.89100	16955
2.89467	16754
2.89833	16198
2.90200	15375
2.90567	14375
2.90933	13272
2.91300	12136
2.91667	11012
2.92033	9931
2.92400	8913
2.92767	7974
2.93133	7115
2.93500	6338
2.93867	5641
2.94233	5019
2.94600	4467
2.94967	3979
2.95333	3550
2.95700	3173
2.96067	2844
2.96433	2557
2.96800	2305
2.97167	2085
2.97533	1892
2.97900	1725
2.98267	1581
2.98633	1456
2.99000	1348
2.99367	1259
2.99733	1180
3.00100	1111
3.00467	1053
3.00833	1006
3.01200	966
3.01567	931
3.01933	898
3.02300	871
3.02667	847
3.03033	827
3.03400	809
3.03767	794
3.04133	784
3.04500	776
3.04867	768
3.05233	761
3.05600	757
3.05967	753
3.06333	750
3.06700	746
3.07067	747
3.07433	748
3.07800	749
3.08167	748
3.08533	747
3.08900	747
3.09267	748
3.09633	747
3.10000	748
3.10367	751
3.10733	756
3.11100	759
3.11467	760
3.11833	762
3.12200	764
3.12567	766
3.12933	767
3.13300	766
3.13667	766
3.14033	768
3.14400	768
3.14767	769
3.15133	770
3.15500	773
3.15867	772
3.16233	769
3.16600	769
3.16967	770
3.17333	772
3.17700	771
3.18067	769
3.18433	769
3.18800	770
3.19167	770
3.19533	769
3.19900	768
3.20267	767
3.20633	764
3.21000	761
3.21367	758
3.21733	755
3.22100	754
3.22467	752
3.22833	750
3.23200	748
3.23567	745
3.23933	744
3.24300	741
3.24667	738
3.25033	734
3.25400	729
3.25767	726
3.26133	722
3.26500	717
3.26867	715
3.27233	711
3.27600	705
3.27967	699
3.28333	693
3.28700	690
3.29067	689
3.29433	688
3.29800	685
3.30167	681
3.30533	679
3.30900	675
3.31267	673
3.31633	671
3.32000	665
3.32367	660
3.32733	656
3.33100	655
3.33467	652
3.33833	650
3.34200	646
3.34567	641
3.34933	635
3.35300	630
3.35667	626
3.36033	622
3.36400	618
3.36767	617
3.37133	617
3.37500	615
3.37867	609
3.38233	605
3.38600	602
3.38967	596
3.39333	590
3.39700	584
3.40067	579
3.40433	575
3.40800	575
3.41167	573
3.41533	572
3.41900	570
3.42267	569
3.42633	567
3.43000	563
3.43367	559
3.43733	555
3.44100	550
3.44467	547
3.44833	541
3.45200	538
3.45567	536
3.45933	536
3.46300	535
3.46667	532
3.47033	528
3.47400	523
3.47767	518
3.48133	514
3.48500	510
3.48867	507
3.49233	504
3.49600	502
3.49967	499
3.50333	496
3.50700	494
3.51067	493
3.51433	489
3.51800	486
3.52167	487
3.52533	487
3.52900	487
3.53267	484
3.53633	480
3.54000	478
3.54367	477
3.54733	475
3.55100	474
3.55467	472
3.55833	471
3.56200	469
3.56567	464
3.56933	459
3.57300	454
3.57667	453
3.58033	452
3.58400	451
3.58767	450
3.59133	449
3.59500	448
3.59867	444
3.60233	442
3.60600	441
3.60967	441
3.61333	437
3.61700	435
3.62067	431
3.62433	427
3.62800	425
3.63167	423
3.63533	421
3.63900	419
3.64267	417
3.64633	414
3.65000	412
3.65367	408
3.65733	409
3.66100	409
3.66467	408
3.66833	407
3.67200	406
3.67567	406
3.67933	408
3.68300	406
3.68667	404
3.69033	404
3.69400	402
3.69767	400
3.70133	398
3.70500	395
3.70867	394
3.71233	393
3.71600	393
3.71967	393
3.72333	395
3.72700	395
3.73067	395
3.73433	396
3.73800	394
3.74167	392
3.74533	388
3.74900	384
3.75267	382
3.75633	381
3.76000	381
3.76367	381
3.76733	385
3.77100	387
3.77467	388
3.77833	387
3.78200	384
3.78567	382
3.78933	378
3.79300	373
3.79667	371
3.80033	371
3.80400	369
3.80767	367
3.81133	365
3.81500	364
3.81867	365
3.82233	367
3.82600	368
3.82967	367
3.83333	367
3.83700	369
3.84067	368
3.84433	365
3.84800	361
3.85167	357
3.85533	354
3.85900	351
3.86267	351
3.86633	350
3.87000	352
3.87367	354
3.87733	356
3.88100	357
3.88467	354
3.88833	353
3.89200	354
3.89567	355
3.89933	355
3.90300	354
3.90667	353
3.91033	354
3.91400	354
3.91767	354
3.92133	355
3.92500	356
3.92867	356
3.93233	355
3.93600	354
3.93967	354
3.94333	354
3.94700	355
3.95067	355
3.95433	353
3.95800	351
3.96167	351
3.96533	349
3.96900	347
3.97267	348
3.97633	348
3.98000	348
3.98367	345
3.98733	342
3.99100	339
3.99467	336
3.99833	335

[Status Trace (Column Oven Temperature)]
Interval(msec)	1000
# of Points	240
Start Time(min)	0.015
End Time(min)	3.998
Intensity Units	
Intensity Multiplier	1
R.Time (min)	Intensity
0.01485	35.04
0.03152	35.04
0.04818	35.04
0.06485	35.03
0.08152	35.03
0.09818	35.02
0.11485	35.02
0.13152	35.03
0.14818	35.02
0.16485	35.01
0.18152	35.01
0.19818	35.00
0.21485	35.00
0.23152	35.00
0.24818	35.01
0.26485	35.02
0.28152	35.01
0.29818	35.00
0.31485	35.00
0.33152	35.00
0.34818	35.00
0.36485	34.99
0.38152	34.98
0.39818	34.98
0.41485	34.98
0.43152	34.99
0.44818	34.99
0.46485	35.00
0.48152	34.99
0.49818	34.99
0.51485	34.99
0.53152	34.99
0.54818	34.99
0.56485	34.99
0.58152	34.99
0.59818	35.00
0.61485	35.00
0.63152	35.01
0.64818	35.01
0.66485	35.01
0.68152	35.00
0.69818	35.00
0.71485	35.01
0.73152	35.01
0.74818	35.01
0.76485	35.00
0.78152	35.00
0.79818	34.99
0.81485	35.00
0.83152	34.99
0.84818	34.99
0.86485	34.99
0.88152	34.99
0.89818	35.00
0.91485	35.01
0.93152	35.01
0.94818	35.01
0.96485	35.02
0.98152	35.02
0.99818	35.01
1.01485	35.00
1.03152	34.99
1.04818	34.99
1.06485	35.00
1.08152	35.00
1.09818	35.00
1.11485	35.00
1.13152	35.00
1.14818	35.00
1.16485	35.00
1.18152	35.00
1.19818	34.99
1.21485	35.00
1.23152	35.01
1.24818	35.00
1.26485	35.00
1.28152	35.00
1.29818	34.99
1.31485	34.98
1.33152	34.98
1.34818	34.98
1.36485	34.99
1.38152	34.98
1.39818	34.99
1.41485	34.99
1.43152	34.99
1.44818	34.99
1.46485	34.99
1.48152	35.00
1.49818	35.01
1.51485	35.01
1.53152	35.01
1.54818	35.01
1.56485	35.00
1.58152	35.00
1.59818	35.03
1.61485	35.11
1.63152	35.26
1.64818	35.47
1.66485	35.74
1.68152	36.11
1.69818	36.49
1.71485	36.84
1.73152	37.16
1.74818	37.46
1.76485	37.80
1.78152	38.13
1.79818	38.47
1.81485	38.81
1.83152	39.13
1.84818	39.47
1.86485	39.81
1.88152	40.13
1.89818	40.48
1.91485	40.79
1.93152	41.13
1.94818	41.46
1.96485	41.77
1.98152	42.11
1.99818	42.43
2.01485	42.75
2.03152	43.08
2.04818	43.41
2.06485	43.72
2.08152	44.05
2.09818	44.37
2.11485	44.70
2.13152	45.02
2.14818	45.37
2.16485	45.66
2.18152	46.01
2.19818	46.33
2.21485	46.65
2.23152	46.97
2.24818	47.30
2.26485	47.62
2.28152	47.97
2.29818	48.31
2.31485	48.63
2.33152	48.94
2.34818	49.29
2.36485	49.51
2.38152	49.61
2.39818	49.63
2.41485	49.63
2.43152	49.63
2.44818	49.62
2.46485	49.63
2.48152	49.65
2.49818	49.67
2.51485	49.68
2.53152	49.70
2.54818	49.72
2.56485	49.72
2.58152	49.77
2.59818	49.78
2.61485	49.81
2.63152	49.82
2.64818	49.82
2.66485	49.82
2.68152	49.83
2.69818	49.84
2.71485	49.86
2.73152	49.87
2.74818	49.86
2.76485	49.85
2.78152	49.86
2.79818	49.87
2.81485	49.88
2.83152	49.89
2.84818	49.90
2.86485	49.91
2.88152	49.92
2.89818	49.93
2.91485	49.93
2.93152	49.94
2.94818	49.95
2.96485	49.95
2.98152	49.96
2.99818	49.97
3.01485	49.98
3.03152	49.99
3.04818	49.99
3.06485	49.99
3.08152	50.01
3.09818	50.02
3.11485	50.02
3.13152	50.03
3.14818	50.04
3.16485	50.04
3.18152	50.04
3.19818	50.05
3.21485	50.07
3.23152	50.07
3.24818	50.09
3.26485	50.10
3.28152	50.11
3.29818	50.10
3.31485	50.10
3.33152	50.10
3.34818	50.09
3.36485	50.08
3.38152	50.07
3.39818	50.06
3.41485	50.05
3.43152	50.04
3.44818	50.03
3.46485	50.03
3.48152	50.03
3.49818	50.03
3.51485	50.02
3.53152	50.03
3.54818	50.03
3.56485	50.03
3.58152	50.03
3.59818	50.03
3.61485	50.04
3.63152	50.04
3.64818	50.04
3.66485	50.04
3.68152	50.04
3.69818	50.05
3.71485	50.05
3.73152	50.05
3.74818	50.04
3.76485	50.05
3.78152	50.05
3.79818	50.05
3.81485	50.06
3.83152	50.06
3.84818	50.06
3.86485	50.07
3.88152	50.07
3.89818	50.07
3.91485	50.07
3.93152	50.06
3.94818	50.06
3.96485	50.06
3.98152	50.06
3.99818	50.06

[Status Trace (Injection Unit Temperature)]
Interval(msec)	1000
# of Points	240
Start Time(min)	0.015
End Time(min)	3.998
Intensity Units	
Intensity Multiplier	1
R.Time (min)	Intensity
0.01485	99.99
0.03152	99.99
0.04818	99.98
0.06485	99.99
0.08152	99.99
0.09818	99.99
0.11485	99.99
0.13152	99.99
0.14818	99.99
0.16485	99.99
0.18152	99.99
0.19818	99.99
0.21485	99.99
0.23152	99.99
0.24818	99.99
0.26485	99.99
0.28152	99.99
0.29818	99.99
0.31485	99.99
0.33152	99.99
0.34818	99.99
0.36485	99.99
0.38152	99.99
0.39818	99.99
0.41485	99.99
0.43152	99.99
0.44818	99.99
0.46485	99.99
0.48152	99.99
0.49818	99.99
0.51485	99.99
0.53152	99.99
0.54818	99.99
0.56485	99.99
0.58152	99.99
0.59818	99.99
0.61485	99.99
0.63152	99.99
0.64818	99.98
0.66485	99.98
0.68152	99.99
0.69818	99.98
0.71485	99.98
0.73152	99.98
0.74818	99.98
0.76485	99.98
0.78152	99.98
0.79818	99.98
0.81485	99.98
0.83152	99.99
0.84818	99.98
0.86485	99.98
0.88152	99.98
0.89818	99.98
0.91485	99.98
0.93152	99.98
0.94818	99.98
0.96485	99.98
0.98152	99.98
0.99818	99.98
1.01485	99.98
1.03152	99.99
1.04818	99.99
1.06485	99.99
1.08152	99.99
1.09818	99.99
1.11485	99.99
1.13152	99.99
1.14818	99.99
1.16485	99.99
1.18152	99.99
1.19818	99.99
1.21485	99.98
1.23152	99.99
1.24818	99.99
1.26485	99.99
1.28152	99.99
1.29818	99.99
1.31485	99.99
1.33152	99.99
1.34818	99.99
1.36485	99.99
1.38152	99.99
1.39818	99.99
1.41485	99.99
1.43152	99.99
1.44818	99.99
1.46485	99.99
1.48152	99.99
1.49818	99.99
1.51485	99.99
1.53152	99.99
1.54818	99.99
1.56485	99.99
1.58152	99.99
1.59818	99.99
1.61485	99.99
1.63152	99.99
1.64818	99.99
1.66485	99.99
1.68152	99.99
1.69818	99.99
1.71485	99.99
1.73152	99.99
1.74818	99.99
1.76485	99.99
1.78152	99.99
1.79818	99.99
1.81485	99.99
1.83152	99.99
1.84818	99.99
1.86485	99.99
1.88152	99.98
1.89818	99.98
1.91485	99.98
1.93152	99.98
1.94818	99.98
1.96485	99.98
1.98152	99.98
1.99818	99.98
2.01485	99.98
2.03152	99.98
2.04818	99.97
2.06485	99.97
2.08152	99.97
2.09818	99.97
2.11485	99.97
2.13152	99.97
2.14818	99.97
2.16485	99.97
2.18152	99.97
2.19818	99.97
2.21485	99.97
2.23152	99.97
2.24818	99.97
2.26485	99.97
2.28152	99.97
2.29818	99.97
2.31485	99.97
2.33152	99.97
2.34818	99.96
2.36485	99.97
2.38152	99.97
2.39818	99.96
2.41485	99.97
2.43152	99.97
2.44818	99.97
2.46485	99.97
2.48152	99.97
2.49818	99.97
2.51485	99.97
2.53152	99.97
2.54818	99.97
2.56485	99.97
2.58152	99.97
2.59818	99.97
2.61485	99.98
2.63152	99.98
2.64818	99.98
2.66485	99.98
2.68152	99.98
2.69818	99.98
2.71485	99.98
2.73152	99.98
2.74818	99.99
2.76485	99.99
2.78152	99.99
2.79818	99.99
2.81485	100.00
2.83152	100.00
2.84818	100.00
2.86485	100.00
2.88152	100.00
2.89818	100.00
2.91485	100.01
2.93152	100.00
2.94818	100.01
2.96485	100.01
2.98152	100.01
2.99818	100.01
3.01485	100.02
3.03152	100.02
3.04818	100.02
3.06485	100.02
3.08152	100.02
3.09818	100.02
3.11485	100.02
3.13152	100.02
3.14818	100.02
3.16485	100.03
3.18152	100.03
3.19818	100.03
3.21485	100.03
3.23152	100.03
3.24818	100.03
3.26485	100.03
3.28152	100.04
3.29818	100.03
3.31485	100.04
3.33152	100.04
3.34818	100.03
3.36485	100.04
3.38152	100.04
3.39818	100.04
3.41485	100.04
3.43152	100.04
3.44818	100.04
3.46485	100.04
3.48152	100.04
3.49818	100.04
3.51485	100.05
3.53152	100.05
3.54818	100.05
3.56485	100.04
3.58152	100.05
3.59818	100.05
3.61485	100.05
3.63152	100.05
3.64818	100.05
3.66485	100.05
3.68152	100.05
3.69818	100.05
3.71485	100.05
3.73152	100.05
3.74818	100.05
3.76485	100.05
3.78152	100.05
3.79818	100.05
3.81485	100.05
3.83152	100.05
3.84818	100.05
3.86485	100.06
3.88152	100.05
3.89818	100.05
3.91485	100.05
3.93152	100.05
3.94818	100.05
3.96485	100.05
3.98152	100.05
3.99818	100.05

[Status Trace (Carrier Gas Pressure)]
Interval(msec)	1000
# of Points	240
Start Time(min)	0.015
End Time(min)	3.998
Intensity Units	
Intensity Multiplier	1
R.Time (min)	Intensity
0.01485	57.42
0.03152	55.57
0.04818	58.01
0.06485	59.82
0.08152	58.71
0.09818	57.97
0.11485	57.99
0.13152	58.01
0.14818	58.01
0.16485	58.00
0.18152	58.00
0.19818	58.00
0.21485	58.00
0.23152	58.00
0.24818	58.00
0.26485	58.00
0.28152	58.00
0.29818	58.00
0.31485	58.00
0.33152	58.00
0.34818	58.00
0.36485	58.00
0.38152	58.00
0.39818	58.00
0.41485	58.00
0.43152	58.00
0.44818	58.00
0.46485	58.00
0.48152	58.00
0.49818	58.00
0.51485	58.00
0.53152	58.00
0.54818	58.00
0.56485	58.00
0.58152	58.00
0.59818	58.00
0.61485	58.00
0.63152	58.00
0.64818	58.00
0.66485	58.00
0.68152	58.00
0.69818	58.00
0.71485	58.00
0.73152	58.00
0.74818	58.00
0.76485	58.00
0.78152	58.00
0.79818	58.00
0.81485	58.00
0.83152	58.00
0.84818	58.00
0.86485	58.00
0.88152	58.00
0.89818	58.00
0.91485	58.00
0.93152	58.00
0.94818	58.00
0.96485	58.00
0.98152	58.00
0.99818	58.00
1.01485	58.00
1.03152	58.00
1.04818	58.00
1.06485	58.00
1.08152	58.00
1.09818	58.00
1.11485	58.00
1.13152	58.00
1.14818	58.00
1.16485	58.00
1.18152	58.00
1.19818	58.00
1.21485	58.00
1.23152	58.00
1.24818	58.00
1.26485	58.00
1.28152	58.00
1.29818	58.00
1.31485	58.00
1.33152	58.00
1.34818	58.00
1.36485	58.00
1.38152	58.00
1.39818	58.00
1.41485	58.00
1.43152	58.00
1.44818	58.00
1.46485	58.00
1.48152	58.00
1.49818	58.00
1.51485	58.00
1.53152	58.00
1.54818	58.00
1.56485	58.00
1.58152	58.00
1.59818	58.00
1.61485	58.00
1.63152	58.00
1.64818	58.01
1.66485	58.00
1.68152	58.01
1.69818	58.00
1.71485	58.00
1.73152	58.00
1.74818	58.00
1.76485	58.00
1.78152	58.00
1.79818	58.00
1.81485	58.00
1.83152	58.00
1.84818	58.00
1.86485	58.00
1.88152	58.00
1.89818	58.00
1.91485	58.00
1.93152	58.00
1.94818	58.00
1.96485	58.00
1.98152	58.00
1.99818	58.00
2.01485	58.00
2.03152	58.00
2.04818	58.00
2.06485	58.00
2.08152	58.00
2.09818	58.00
2.11485	58.00
2.13152	58.00
2.14818	58.00
2.16485	58.00
2.18152	58.00
2.19818	58.00
2.21485	58.00
2.23152	58.00
2.24818	58.00
2.26485	58.00
2.28152	58.00
2.29818	58.00
2.31485	58.00
2.33152	58.00
2.34818	58.00
2.36485	58.00
2.38152	57.99
2.39818	57.99
2.41485	58.00
2.43152	58.00
2.44818	58.00
2.46485	58.00
2.48152	58.00
2.49818	58.00
2.51485	57.99
2.53152	57.99
2.54818	58.00
2.56485	58.00
2.58152	58.00
2.59818	58.00
2.61485	58.00
2.63152	58.00
2.64818	58.00
2.66485	58.00
2.68152	58.00
2.69818	58.00
2.71485	58.00
2.73152	58.00
2.74818	58.00
2.76485	58.00
2.78152	58.00
2.79818	58.00
2.81485	58.00
2.83152	58.00
2.84818	58.00
2.86485	58.00
2.88152	58.00
2.89818	58.00
2.91485	58.00
2.93152	58.00
2.94818	58.00
2.96485	58.00
2.98152	58.00
2.99818	58.00
3.01485	58.00
3.03152	58.00
3.04818	58.00
3.06485	58.00
3.08152	58.00
3.09818	58.00
3.11485	58.00
3.13152	58.00
3.14818	58.00
3.16485	58.00
3.18152	58.00
3.19818	58.00
3.21485	58.00
3.23152	58.00
3.24818	58.00
3.26485	58.00
3.28152	58.00
3.29818	58.00
3.31485	58.00
3.33152	58.00
3.34818	58.00
3.36485	58.00
3.38152	58.00
3.39818	58.00
3.41485	58.00
3.43152	58.00
3.44818	58.00
3.46485	58.00
3.48152	58.00
3.49818	58.00
3.51485	58.00
3.53152	58.00
3.54818	58.00
3.56485	58.00
3.58152	58.00
3.59818	58.00
3.61485	58.00
3.63152	58.00
3.64818	58.00
3.66485	58.00
3.68152	58.00
3.69818	58.00
3.71485	58.00
3.73152	58.00
3.74818	58.00
3.76485	58.00
3.78152	58.00
3.79818	58.00
3.81485	58.00
3.83152	58.00
3.84818	58.00
3.86485	58.00
3.88152	58.00
3.89818	58.00
3.91485	58.00
3.93152	58.00
3.94818	58.00
3.96485	58.00
3.98152	58.00
3.99818	58.00

[Status Trace (Carrier Gas Flow)]
Interval(msec)	1000
# of Points	240
Start Time(min)	0.015
End Time(min)	3.998
Intensity Units	
Intensity Multiplier	1
R.Time (min)	Intensity
0.01485	34.13
0.03152	34.53
0.04818	34.55
0.06485	34.52
0.08152	34.51
0.09818	34.52
0.11485	34.52
0.13152	34.52
0.14818	34.52
0.16485	34.52
0.18152	34.52
0.19818	34.52
0.21485	34.52
0.23152	34.52
0.24818	34.52
0.26485	34.52
0.28152	34.52
0.29818	34.52
0.31485	34.52
0.33152	34.52
0.34818	34.52
0.36485	34.52
0.38152	34.52
0.39818	34.52
0.41485	34.52
0.43152	34.52
0.44818	34.52
0.46485	34.52
0.48152	34.52
0.49818	34.52
0.51485	34.52
0.53152	34.52
0.54818	34.52
0.56485	34.52
0.58152	34.52
0.59818	34.52
0.61485	34.52
0.63152	34.52
0.64818	34.52
0.66485	34.52
0.68152	34.52
0.69818	34.52
0.71485	34.52
0.73152	34.52
0.74818	34.52
0.76485	34.52
0.78152	34.52
0.79818	34.52
0.81485	34.52
0.83152	34.52
0.84818	34.52
0.86485	34.51
0.88152	34.52
0.89818	34.52
0.91485	34.52
0.93152	34.52
0.94818	34.52
0.96485	34.52
0.98152	34.52
0.99818	34.52
1.01485	34.52
1.03152	34.52
1.04818	34.52
1.06485	34.52
1.08152	34.52
1.09818	34.52
1.11485	34.52
1.13152	34.52
1.14818	34.52
1.16485	34.52
1.18152	34.51
1.19818	34.52
1.21485	34.52
1.23152	34.51
1.24818	34.52
1.26485	34.52
1.28152	34.52
1.29818	34.52
1.31485	34.53
1.33152	34.52
1.34818	34.52
1.36485	34.53
1.38152	34.52
1.39818	34.52
1.41485	34.52
1.43152	34.52
1.44818	34.52
1.46485	34.52
1.48152	34.52
1.49818	34.51
1.51485	34.52
1.53152	34.52
1.54818	34.52
1.56485	34.51
1.58152	34.52
1.59818	34.54
1.61485	34.53
1.63152	34.50
1.64818	34.53
1.66485	34.52
1.68152	34.52
1.69818	34.53
1.71485	34.52
1.73152	34.53
1.74818	34.52
1.76485	34.51
1.78152	34.52
1.79818	34.52
1.81485	34.52
1.83152	34.51
1.84818	34.52
1.86485	34.52
1.88152	34.52
1.89818	34.52
1.91485	34.52
1.93152	34.52
1.94818	34.52
1.96485	34.52
1.98152	34.51
1.99818	34.52
2.01485	34.52
2.03152	34.52
2.04818	34.52
2.06485	34.52
2.08152	34.53
2.09818	34.52
2.11485	34.52
2.13152	34.52
2.14818	34.52
2.16485	34.52
2.18152	34.52
2.19818	34.52
2.21485	34.52
2.23152	34.52
2.24818	34.52
2.26485	34.52
2.28152	34.52
2.29818	34.52
2.31485	34.52
2.33152	34.52
2.34818	34.52
2.36485	34.52
2.38152	34.52
2.39818	34.52
2.41485	34.52
2.43152	34.52
2.44818	34.52
2.46485	34.52
2.48152	34.52
2.49818	34.52
2.51485	34.52
2.53152	34.52
2.54818	34.52
2.56485	34.52
2.58152	34.52
2.59818	34.52
2.61485	34.52
2.63152	34.52
2.64818	34.52
2.66485	34.52
2.68152	34.52
2.69818	34.52
2.71485	34.52
2.73152	34.52
2.74818	34.52
2.76485	34.52
2.78152	34.52
2.79818	34.52
2.81485	34.52
2.83152	34.52
2.84818	34.52
2.86485	34.52
2.88152	34.52
2.89818	34.52
2.91485	34.52
2.93152	34.52
2.94818	34.52
2.96485	34.52
2.98152	34.52
2.99818	34.52
3.01485	34.52
3.03152	34.52
3.04818	34.52
3.06485	34.52
3.08152	34.52
3.09818	34.52
3.11485	34.52
3.13152	34.52
3.14818	34.52
3.16485	34.52
3.18152	34.52
3.19818	34.52
3.21485	34.52
3.23152	34.52
3.24818	34.52
3.26485	34.52
3.28152	34.52
3.29818	34.52
3.31485	34.52
3.33152	34.52
3.34818	34.52
3.36485	34.52
3.38152	34.52
3.39818	34.52
3.41485	34.52
3.43152	34.52
3.44818	34.52
3.46485	34.52
3.48152	34.52
3.49818	34.52
3.51485	34.52
3.53152	34.52
3.54818	34.52
3.56485	34.52
3.58152	34.52
3.59818	34.52
3.61485	34.52
3.63152	34.52
3.64818	34.52
3.66485	34.52
3.68152	34.52
3.69818	34.52
3.71485	34.52
3.73152	34.52
3.74818	34.52
3.76485	34.52
3.78152	34.52
3.79818	34.52
3.81485	34.52
3.83152	34.52
3.84818	34.52
3.86485	34.52
3.88152	34.52
3.89818	34.52
3.91485	34.52
3.93152	34.52
3.94818	34.52
3.96485	34.52
3.98152	34.52
3.99818	34.52

[Status Trace (Column Flow)]
Interval(msec)	1000
# of Points	240
Start Time(min)	0.015
End Time(min)	3.998
Intensity Units	
Intensity Multiplier	1
R.Time (min)	Intensity
0.01485	5.42
0.03152	5.20
0.04818	5.48
0.06485	5.70
0.08152	5.57
0.09818	5.48
0.11485	5.48
0.13152	5.48
0.14818	5.48
0.16485	5.48
0.18152	5.48
0.19818	5.48
0.21485	5.48
0.23152	5.48
0.24818	5.48
0.26485	5.48
0.28152	5.48
0.29818	5.48
0.31485	5.48
0.33152	5.48
0.34818	5.48
0.36485	5.48
0.38152	5.48
0.39818	5.48
0.41485	5.48
0.43152	5.48
0.44818	5.48
0.46485	5.48
0.48152	5.48
0.49818	5.48
0.51485	5.48
0.53152	5.48
0.54818	5.48
0.56485	5.48
0.58152	5.48
0.59818	5.48
0.61485	5.48
0.63152	5.48
0.64818	5.48
0.66485	5.48
0.68152	5.48
0.69818	5.48
0.71485	5.48
0.73152	5.48
0.74818	5.48
0.76485	5.48
0.78152	5.48
0.79818	5.48
0.81485	5.48
0.83152	5.48
0.84818	5.48
0.86485	5.48
0.88152	5.48
0.89818	5.48
0.91485	5.48
0.93152	5.48
0.94818	5.48
0.96485	5.48
0.98152	5.48
0.99818	5.48
1.01485	5.48
1.03152	5.48
1.04818	5.48
1.06485	5.48
1.08152	5.48
1.09818	5.48
1.11485	5.48
1.13152	5.48
1.14818	5.48
1.16485	5.48
1.18152	5.48
1.19818	5.48
1.21485	5.48
1.23152	5.48
1.24818	5.48
1.26485	5.48
1.28152	5.48
1.29818	5.48
1.31485	5.48
1.33152	5.48
1.34818	5.48
1.36485	5.48
1.38152	5.48
1.39818	5.48
1.41485	5.48
1.43152	5.48
1.44818	5.48
1.46485	5.48
1.48152	5.48
1.49818	5.48
1.51485	5.48
1.53152	5.48
1.54818	5.48
1.56485	5.48
1.58152	5.48
1.59818	5.48
1.61485	5.48
1.63152	5.48
1.64818	5.47
1.66485	5.46
1.68152	5.45
1.69818	5.44
1.71485	5.43
1.73152	5.42
1.74818	5.41
1.76485	5.40
1.78152	5.39
1.79818	5.38
1.81485	5.37
1.83152	5.36
1.84818	5.35
1.86485	5.34
1.88152	5.33
1.89818	5.32
1.91485	5.31
1.93152	5.30
1.94818	5.29
1.96485	5.28
1.98152	5.27
1.99818	5.26
2.01485	5.25
2.03152	5.24
2.04818	5.23
2.06485	5.22
2.08152	5.21
2.09818	5.20
2.11485	5.19
2.13152	5.18
2.14818	5.17
2.16485	5.17
2.18152	5.16
2.19818	5.15
2.21485	5.14
2.23152	5.13
2.24818	5.12
2.26485	5.11
2.28152	5.10
2.29818	5.09
2.31485	5.08
2.33152	5.07
2.34818	5.06
2.36485	5.06
2.38152	5.05
2.39818	5.05
2.41485	5.05
2.43152	5.05
2.44818	5.05
2.46485	5.05
2.48152	5.05
2.49818	5.05
2.51485	5.05
2.53152	5.05
2.54818	5.05
2.56485	5.05
2.58152	5.05
2.59818	5.05
2.61485	5.05
2.63152	5.05
2.64818	5.05
2.66485	5.05
2.68152	5.05
2.69818	5.05
2.71485	5.05
2.73152	5.05
2.74818	5.05
2.76485	5.05
2.78152	5.05
2.79818	5.05
2.81485	5.05
2.83152	5.05
2.84818	5.05
2.86485	5.05
2.88152	5.05
2.89818	5.05
2.91485	5.05
2.93152	5.05
2.94818	5.05
2.96485	5.05
2.98152	5.05
2.99818	5.04
3.01485	5.04
3.03152	5.04
3.04818	5.04
3.06485	5.04
3.08152	5.04
3.09818	5.04
3.11485	5.04
3.13152	5.04
3.14818	5.04
3.16485	5.04
3.18152	5.04
3.19818	5.04
3.21485	5.04
3.23152	5.04
3.24818	5.04
3.26485	5.04
3.28152	5.04
3.29818	5.04
3.31485	5.04
3.33152	5.04
3.34818	5.04
3.36485	5.04
3.38152	5.04
3.39818	5.04
3.41485	5.04
3.43152	5.04
3.44818	5.04
3.46485	5.04
3.48152	5.04
3.49818	5.04
3.51485	5.04
3.53152	5.04
3.54818	5.04
3.56485	5.04
3.58152	5.04
3.59818	5.04
3.61485	5.04
3.63152	5.04
3.64818	5.04
3.66485	5.04
3.68152	5.04
3.69818	5.04
3.71485	5.04
3.73152	5.04
3.74818	5.04
3.76485	5.04
3.78152	5.04
3.79818	5.04
3.81485	5.04
3.83152	5.04
3.84818	5.04
3.86485	5.04
3.88152	5.04
3.89818	5.04
3.91485	5.04
3.93152	5.04
3.94818	5.04
3.96485	5.04
3.98152	5.04
3.99818	5.04

[Status Trace (Linear Velocity)]
Interval(msec)	1000
# of Points	240
Start Time(min)	0.015
End Time(min)	3.998
Intensity Units	
Intensity Multiplier	1
R.Time (min)	Intensity
0.01485	38.63
0.03152	37.41
0.04818	39.01
0.06485	40.20
0.08152	39.47
0.09818	38.99
0.11485	39.00
0.13152	39.01
0.14818	39.01
0.16485	39.01
0.18152	39.01
0.19818	39.01
0.21485	39.01
0.23152	39.01
0.24818	39.01
0.26485	39.01
0.28152	39.01
0.29818	39.01
0.31485	39.01
0.33152	39.01
0.34818	39.01
0.36485	39.01
0.38152	39.01
0.39818	39.01
0.41485	39.01
0.43152	39.01
0.44818	39.01
0.46485	39.01
0.48152	39.01
0.49818	39.01
0.51485	39.01
0.53152	39.01
0.54818	39.01
0.56485	39.01
0.58152	39.01
0.59818	39.01
0.61485	39.01
0.63152	39.01
0.64818	39.01
0.66485	39.01
0.68152	39.01
0.69818	39.01
0.71485	39.01
0.73152	39.01
0.74818	39.01
0.76485	39.01
0.78152	39.01
0.79818	39.01
0.81485	39.01
0.83152	39.01
0.84818	39.01
0.86485	39.01
0.88152	39.01
0.89818	39.01
0.91485	39.01
0.93152	39.01
0.94818	39.01
0.96485	39.01
0.98152	39.01
0.99818	39.01
1.01485	39.01
1.03152	39.01
1.04818	39.01
1.06485	39.01
1.08152	39.01
1.09818	39.01
1.11485	39.01
1.13152	39.01
1.14818	39.01
1.16485	39.01
1.18152	39.01
1.19818	39.01
1.21485	39.01
1.23152	39.01
1.24818	39.01
1.26485	39.01
1.28152	39.01
1.29818	39.01
1.31485	39.01
1.33152	39.01
1.34818	39.01
1.36485	39.01
1.38152	39.01
1.39818	39.01
1.41485	39.01
1.43152	39.01
1.44818	39.01
1.46485	39.01
1.48152	39.01
1.49818	39.01
1.51485	39.01
1.53152	39.01
1.54818	39.01
1.56485	39.01
1.58152	39.01
1.59818	39.01
1.61485	39.00
1.63152	38.99
1.64818	38.97
1.66485	38.94
1.68152	38.91
1.69818	38.87
1.71485	38.83
1.73152	38.80
1.74818	38.77
1.76485	38.75
1.78152	38.71
1.79818	38.68
1.81485	38.65
1.83152	38.61
1.84818	38.58
1.86485	38.55
1.88152	38.52
1.89818	38.49
1.91485	38.46
1.93152	38.43
1.94818	38.40
1.96485	38.37
1.98152	38.34
1.99818	38.31
2.01485	38.28
2.03152	38.25
2.04818	38.22
2.06485	38.19
2.08152	38.16
2.09818	38.13
2.11485	38.10
2.13152	38.07
2.14818	38.04
2.16485	38.01
2.18152	37.98
2.19818	37.95
2.21485	37.93
2.23152	37.89
2.24818	37.86
2.26485	37.84
2.28152	37.81
2.29818	37.78
2.31485	37.75
2.33152	37.72
2.34818	37.69
2.36485	37.67
2.38152	37.65
2.39818	37.65
2.41485	37.65
2.43152	37.66
2.44818	37.66
2.46485	37.66
2.48152	37.65
2.49818	37.65
2.51485	37.65
2.53152	37.64
2.54818	37.65
2.56485	37.65
2.58152	37.65
2.59818	37.64
2.61485	37.64
2.63152	37.64
2.64818	37.64
2.66485	37.64
2.68152	37.64
2.69818	37.64
2.71485	37.64
2.73152	37.64
2.74818	37.64
2.76485	37.64
2.78152	37.64
2.79818	37.64
2.81485	37.63
2.83152	37.63
2.84818	37.63
2.86485	37.63
2.88152	37.63
2.89818	37.63
2.91485	37.63
2.93152	37.63
2.94818	37.63
2.96485	37.63
2.98152	37.63
2.99818	37.63
3.01485	37.63
3.03152	37.63
3.04818	37.62
3.06485	37.62
3.08152	37.62
3.09818	37.62
3.11485	37.62
3.13152	37.62
3.14818	37.62
3.16485	37.62
3.18152	37.62
3.19818	37.62
3.21485	37.62
3.23152	37.62
3.24818	37.62
3.26485	37.62
3.28152	37.61
3.29818	37.61
3.31485	37.62
3.33152	37.62
3.34818	37.62
3.36485	37.62
3.38152	37.62
3.39818	37.62
3.41485	37.62
3.43152	37.62
3.44818	37.62
3.46485	37.62
3.48152	37.62
3.49818	37.62
3.51485	37.62
3.53152	37.62
3.54818	37.62
3.56485	37.62
3.58152	37.62
3.59818	37.62
3.61485	37.62
3.63152	37.62
3.64818	37.62
3.66485	37.62
3.68152	37.62
3.69818	37.62
3.71485	37.62
3.73152	37.62
3.74818	37.62
3.76485	37.62
3.78152	37.62
3.79818	37.62
3.81485	37.62
3.83152	37.62
3.84818	37.62
3.86485	37.62
3.88152	37.62
3.89818	37.62
3.91485	37.62
3.93152	37.62
3.94818	37.62
3.96485	37.62
3.98152	37.62
3.99818	37.62

