[Header]
Application Name	LabSolutions
Version	5.110
Data File Name	C:\Users\User\Desktop\GC Analyses\Jack\UIC Prairie Sampling\10.19.22\221019_031.gcd
Output Date	1/4/2023
Output Time	2:27:26 PM

[File Information]
Type	Data File
Generated	12/6/2022 10:12:17 AM
Generated by	System Administrator
Modified	12/6/2022 10:16:37 AM
Modified by	System Administrator

[Sample Information]
Operator Name	System Administrator
Acquired	12/6/2022 10:12:36 AM
Sample Type	1:Standard
Level	1
Sample Name	221019_UICPrairie
Sample ID	221019_UICPrairie
ISTD Amount1	1
ISTD Amount2	1
ISTD Amount3	1
ISTD Amount4	1
ISTD Amount5	1
ISTD Amount6	1
ISTD Amount7	1
ISTD Amount8	1
ISTD Amount9	1
ISTD Amount10	1
ISTD Amount11	1
ISTD Amount12	1
ISTD Amount13	1
ISTD Amount14	1
ISTD Amount15	1
ISTD Amount16	1
ISTD Amount17	1
ISTD Amount18	1
ISTD Amount19	1
ISTD Amount20	1
ISTD Amount21	1
ISTD Amount22	1
ISTD Amount23	1
ISTD Amount24	1
ISTD Amount25	1
ISTD Amount26	1
ISTD Amount27	1
ISTD Amount28	1
ISTD Amount29	1
ISTD Amount30	1
ISTD Amount31	1
ISTD Amount32	1
Sample Amount	1
Dilution Factor	1
Vial#	1
Injection Volume	1
Injection Count	1
Bar Code	

[Original Files]
Data File	C:\Users\User\Desktop\GC Analyses\Jack\UIC Prairie Sampling\10.19.22\221019_031.gcd
Method File	C:\LabSolutions\Data\GHG_4min_2022\ghg3_togas_w_acet_4 min_new_int.gcm
Batch File	
Report Format File	c:\LabSolutions\System\DEFAULT.lsr

[File Description]


[Configuration]
Instrument Name	C0B7VH3-Instrument1
Instrument #	1
Line #	1
# of Detectors	3
Detector ID	DET#1	DET#2	DET#3
Detector Name	FID	PTCD	ECD
# of Channels	1	1	1

[Peak Table(Ch1)]
# of Peaks	3
Peak#	R.Time	I.Time	F.Time	Area	Height	A/H	Conc.	Mark	ID#	Name	k'	Plate #	Plate Ht.	Tailing	Resolution	Sep.Factor	Area Ratio	Height Ratio	Conc. %	Norm Conc.
1	1.465	1.439	1.531	2904	916	3.168	100.000	   	1	CO	0.000	5082	29.516	0.000	0.000	0.000	0	0	16.667	16.667
2	1.571	1.531	1.644	21284	10646	1.999	100.000	 V 	2	CH4	0.073	11421	13.133	1.128	1.508	0.000	0	0	16.667	16.667
3	1.996	1.949	2.664	2168110	1000656	2.167	400.000	   	3	CO2	0.363	17043	8.801	1.365	7.091	5.000	0	0	66.667	66.667

[Peak Table(Ch2)]
# of Peaks	0

[Peak Table(Ch3)]
# of Peaks	6
Peak#	R.Time	I.Time	F.Time	Area	Height	A/H	Conc.	Mark	ID#	Name	k'	Plate #	Plate Ht.	Tailing	Resolution	Sep.Factor	Area Ratio	Height Ratio	Conc. %	Norm Conc.
1	2.458	2.352	2.495	1460	401	3.644	0.000	   			0.000	7656	19.593	0.000	0.000	0.000	0	0	0.000	0.000
2	2.513	2.495	2.546	792	286	2.770	0.000	 V 			0.022	1516	98.917	0.000	0.297	0.000	0	0	0.000	0.000
3	2.601	2.546	2.649	1395	343	4.062	0.000	 V 			0.058	5296	28.324	0.000	0.439	2.600	0	0	0.000	0.000
4	2.884	2.664	3.995	76605	17565	4.361	1.000	S  	1	N2O	0.173	12521	11.980	1.656	2.295	2.974	0	0	100.000	100.000
5	3.298	3.162	3.331	271	43	6.365	0.000	T  			0.342	5614	26.719	0.621	2.969	1.974	0	0	0.000	0.000
6	3.448	3.342	3.995	5184	246	21.114	0.000	T  			0.403	667	225.045	3.045	0.423	1.179	0	0	0.000	0.000

[Compound Results(Ch1)]
# of IDs	6
ID#	Name	R.Time	Area	Height	Conc.	Curve	3rd	2nd	1st	Constant	Area Ratio	Height Ratio	Conc. %	Norm Conc.
1	CO	1.465	2904	916	100.000	Linear	0.000000e+00	0.000000e+00	2.903592e+001	0.000000e+00	0	0	16.667	16.667
2	CH4	1.571	21284	10646	100.000	Linear	0.000000e+00	0.000000e+00	2.128417e+002	0.000000e+00	0	0	16.667	16.667
3	CO2	1.996	2168110	1000656	400.000	Linear	0.000000e+00	0.000000e+00	5.420275e+003	0.000000e+00	0	0	66.667	66.667
4	Ethylene	0.000	0	0	0.000	Linear	0.000000e+00	0.000000e+00	0.000000e+00	0.000000e+00	0	0	0.000	0.000
5	Acetylene	0.000	0	0	0.000	Linear	0.000000e+00	0.000000e+00	0.000000e+00	0.000000e+00	0	0	0.000	0.000
6	Ethane	0.000	0	0	0.000	Linear	0.000000e+00	0.000000e+00	0.000000e+00	0.000000e+00	0	0	0.000	0.000

[Compound Results(Ch2)]
# of IDs	5
ID#	Name	R.Time	Area	Height	Conc.	Curve	3rd	2nd	1st	Constant	Area Ratio	Height Ratio	Conc. %	Norm Conc.
1	Hydrogen	0.000	0	0	0.000	Linear	0.000000e+00	0.000000e+00	0.000000e+00	0.000000e+00	0	0	0.000	0.000
2	Oxygen	0.000	0	0	0.000	Linear	0.000000e+00	0.000000e+00	0.000000e+00	0.000000e+00	0	0	0.000	0.000
3	Nitrogen	0.000	0	0	0.000	Linear	0.000000e+00	0.000000e+00	0.000000e+00	0.000000e+00	0	0	0.000	0.000
4	Methane	0.000	0	0	0.000	Linear	0.000000e+00	0.000000e+00	0.000000e+00	0.000000e+00	0	0	0.000	0.000
5	Carbon Monoxide	0.000	0	0	0.000	Linear	0.000000e+00	0.000000e+00	0.000000e+00	0.000000e+00	0	0	0.000	0.000

[Compound Results(Ch3)]
# of IDs	2
ID#	Name	R.Time	Area	Height	Conc.	Curve	3rd	2nd	1st	Constant	Area Ratio	Height Ratio	Conc. %	Norm Conc.
1	N2O	2.884	76605	17565	1.000	Linear	0.000000e+00	0.000000e+00	7.660487e+004	0.000000e+00	0	0	100.000	100.000
2	SF6	0.000	0	0	0.000	Linear	0.000000e+00	0.000000e+00	0.000000e+00	0.000000e+00	0	0	0.000	0.000

[Group Results(Ch1)]
# of Groups	0

[Group Results(Ch2)]
# of Groups	0

[Group Results(Ch3)]
# of Groups	0

[Chromatogram (Ch1)]
Interval(msec)	220
# of Points	1091
Start Time(min)	0.002
End Time(min)	3.998
R.Time (min)	Intensity
0.00167	-23
0.00533	-23
0.00900	-21
0.01267	-19
0.01633	-14
0.02000	-10
0.02367	-12
0.02733	-16
0.03100	-19
0.03467	-25
0.03833	-28
0.04200	-24
0.04567	-19
0.04933	-15
0.05300	-14
0.05667	-17
0.06033	-20
0.06400	-23
0.06767	-30
0.07133	-32
0.07500	-30
0.07867	-26
0.08233	-23
0.08600	-19
0.08967	-17
0.09333	-17
0.09700	-20
0.10067	-23
0.10433	-26
0.10800	-29
0.11167	-31
0.11533	-32
0.11900	-35
0.12267	-41
0.12633	-50
0.13000	-53
0.13367	-48
0.13733	-41
0.14100	-37
0.14467	-36
0.14833	-32
0.15200	-29
0.15567	-24
0.15933	-19
0.16300	-17
0.16667	-18
0.17033	-20
0.17400	-21
0.17767	-22
0.18133	-22
0.18500	-21
0.18867	-19
0.19233	-20
0.19600	-24
0.19967	-25
0.20333	-20
0.20700	-14
0.21067	-11
0.21433	-12
0.21800	-13
0.22167	-16
0.22533	-17
0.22900	-19
0.23267	-23
0.23633	-25
0.24000	-25
0.24367	-20
0.24733	-18
0.25100	-19
0.25467	-20
0.25833	-20
0.26200	-24
0.26567	-28
0.26933	-31
0.27300	-33
0.27667	-33
0.28033	-32
0.28400	-29
0.28767	-26
0.29133	-22
0.29500	-21
0.29867	-24
0.30233	-28
0.30600	-33
0.30967	-39
0.31333	-45
0.31700	-50
0.32067	-50
0.32433	-49
0.32800	-44
0.33167	-31
0.33533	-19
0.33900	-12
0.34267	-12
0.34633	-14
0.35000	-20
0.35367	-27
0.35733	-31
0.36100	-33
0.36467	-33
0.36833	-33
0.37200	-30
0.37567	-25
0.37933	-23
0.38300	-21
0.38667	-20
0.39033	-22
0.39400	-30
0.39767	-36
0.40133	-37
0.40500	-39
0.40867	-42
0.41233	-42
0.41600	-39
0.41967	-32
0.42333	-27
0.42700	-27
0.43067	-33
0.43433	-39
0.43800	-42
0.44167	-40
0.44533	-37
0.44900	-34
0.45267	-35
0.45633	-36
0.46000	-36
0.46367	-36
0.46733	-36
0.47100	-36
0.47467	-37
0.47833	-40
0.48200	-48
0.48567	-56
0.48933	-59
0.49300	-57
0.49667	-54
0.50033	-51
0.50400	-44
0.50767	-37
0.51133	-31
0.51500	-27
0.51867	-25
0.52233	-32
0.52600	-43
0.52967	-50
0.53333	-51
0.53700	-45
0.54067	-38
0.54433	-37
0.54800	-38
0.55167	-35
0.55533	-32
0.55900	-32
0.56267	-35
0.56633	-42
0.57000	-47
0.57367	-49
0.57733	-50
0.58100	-46
0.58467	-41
0.58833	-37
0.59200	-37
0.59567	-39
0.59933	-42
0.60300	-44
0.60667	-49
0.61033	-56
0.61400	-59
0.61767	-55
0.62133	-45
0.62500	-34
0.62867	-27
0.63233	-26
0.63600	-31
0.63967	-38
0.64333	-44
0.64700	-50
0.65067	-52
0.65433	-50
0.65800	-49
0.66167	-49
0.66533	-51
0.66900	-51
0.67267	-47
0.67633	-39
0.68000	-30
0.68367	-22
0.68733	-16
0.69100	-16
0.69467	-19
0.69833	-27
0.70200	-36
0.70567	-46
0.70933	-57
0.71300	-65
0.71667	-68
0.72033	-67
0.72400	-64
0.72767	-60
0.73133	-57
0.73500	-55
0.73867	-55
0.74233	-55
0.74600	-55
0.74967	-52
0.75333	-44
0.75700	-37
0.76067	-34
0.76433	-35
0.76800	-37
0.77167	-40
0.77533	-45
0.77900	-52
0.78267	-57
0.78633	-59
0.79000	-58
0.79367	-59
0.79733	-62
0.80100	-63
0.80467	-58
0.80833	-51
0.81200	-44
0.81567	-42
0.81933	-45
0.82300	-50
0.82667	-57
0.83033	-57
0.83400	-55
0.83767	-55
0.84133	-54
0.84500	-54
0.84867	-54
0.85233	-57
0.85600	-61
0.85967	-68
0.86333	-73
0.86700	-76
0.87067	-76
0.87433	-75
0.87800	-72
0.88167	-65
0.88533	-61
0.88900	-60
0.89267	-60
0.89633	-59
0.90000	-58
0.90367	-51
0.90733	-43
0.91100	-37
0.91467	-35
0.91833	-34
0.92200	-39
0.92567	-47
0.92933	-54
0.93300	-58
0.93667	-58
0.94033	-57
0.94400	-59
0.94767	-61
0.95133	-64
0.95500	-66
0.95867	-68
0.96233	-71
0.96600	-71
0.96967	-65
0.97333	-56
0.97700	-51
0.98067	-50
0.98433	-54
0.98800	-62
0.99167	-65
0.99533	-66
0.99900	-67
1.00267	-64
1.00633	-64
1.01000	-66
1.01367	-68
1.01733	-64
1.02100	-53
1.02467	-43
1.02833	-42
1.03200	-46
1.03567	-48
1.03933	-48
1.04300	-45
1.04667	-39
1.05033	-32
1.05400	-28
1.05767	-28
1.06133	-32
1.06500	-36
1.06867	-42
1.07233	-49
1.07600	-56
1.07967	-59
1.08333	-60
1.08700	-59
1.09067	-58
1.09433	-53
1.09800	-49
1.10167	-44
1.10533	-40
1.10900	-38
1.11267	-40
1.11633	-47
1.12000	-54
1.12367	-57
1.12733	-59
1.13100	-60
1.13467	-57
1.13833	-58
1.14200	-60
1.14567	-64
1.14933	-67
1.15300	-66
1.15667	-64
1.16033	-61
1.16400	-58
1.16767	-54
1.17133	-53
1.17500	-55
1.17867	-56
1.18233	-54
1.18600	-51
1.18967	-46
1.19333	-41
1.19700	-42
1.20067	-44
1.20433	-46
1.20800	-46
1.21167	-48
1.21533	-51
1.21900	-56
1.22267	-61
1.22633	-67
1.23000	-72
1.23367	-74
1.23733	-75
1.24100	-68
1.24467	-57
1.24833	-49
1.25200	-48
1.25567	-56
1.25933	-65
1.26300	-72
1.26667	-76
1.27033	-75
1.27400	-68
1.27767	-61
1.28133	-57
1.28500	-58
1.28867	-61
1.29233	-63
1.29600	-67
1.29967	-70
1.30333	-68
1.30700	-64
1.31067	-60
1.31433	-59
1.31800	-57
1.32167	-54
1.32533	-51
1.32900	-49
1.33267	-45
1.33633	-39
1.34000	-38
1.34367	-41
1.34733	-44
1.35100	-49
1.35467	-57
1.35833	-67
1.36200	-75
1.36567	-81
1.36933	-83
1.37300	-81
1.37667	-80
1.38033	-81
1.38400	-80
1.38767	-76
1.39133	-70
1.39500	-64
1.39867	-55
1.40233	-47
1.40600	-45
1.40967	-47
1.41333	-53
1.41700	-58
1.42067	-63
1.42433	-69
1.42800	-75
1.43167	-79
1.43533	-77
1.43900	-57
1.44267	31
1.44633	232
1.45000	479
1.45367	680
1.45733	802
1.46100	856
1.46467	860
1.46833	840
1.47200	817
1.47567	801
1.47933	786
1.48300	761
1.48667	717
1.49033	652
1.49400	571
1.49767	483
1.50133	396
1.50500	317
1.50867	246
1.51233	182
1.51600	128
1.51967	86
1.52333	56
1.52700	35
1.53067	23
1.53433	23
1.53800	78
1.54167	344
1.54533	1114
1.54900	2584
1.55267	4574
1.55633	6652
1.56000	8448
1.56367	9778
1.56733	10538
1.57100	10592
1.57467	9856
1.57833	8458
1.58200	6731
1.58567	5028
1.58933	3576
1.59300	2455
1.59667	1643
1.60033	1076
1.60400	691
1.60767	436
1.61133	269
1.61500	162
1.61867	91
1.62233	42
1.62600	8
1.62967	-18
1.63333	-35
1.63700	-46
1.64067	-49
1.64433	-52
1.64800	-56
1.65167	-60
1.65533	-61
1.65900	-65
1.66267	-73
1.66633	-81
1.67000	-86
1.67367	-87
1.67733	-85
1.68100	-81
1.68467	-78
1.68833	-80
1.69200	-82
1.69567	-87
1.69933	-96
1.70300	-102
1.70667	-101
1.71033	-96
1.71400	-91
1.71767	-86
1.72133	-83
1.72500	-82
1.72867	-87
1.73233	-94
1.73600	-99
1.73967	-99
1.74333	-100
1.74700	-99
1.75067	-95
1.75433	-90
1.75800	-83
1.76167	-76
1.76533	-73
1.76900	-72
1.77267	-74
1.77633	-77
1.78000	-79
1.78367	-78
1.78733	-76
1.79100	-75
1.79467	-71
1.79833	-64
1.80200	-60
1.80567	-63
1.80933	-68
1.81300	-76
1.81667	-82
1.82033	-85
1.82400	-87
1.82767	-87
1.83133	-85
1.83500	-86
1.83867	-89
1.84233	-88
1.84600	-83
1.84967	-78
1.85333	-73
1.85700	-68
1.86067	-64
1.86433	-63
1.86800	-67
1.87167	-68
1.87533	-67
1.87900	-67
1.88267	-68
1.88633	-72
1.89000	-75
1.89367	-77
1.89733	-81
1.90100	-83
1.90467	-82
1.90833	-77
1.91200	-75
1.91567	-65
1.91933	-59
1.92300	-61
1.92667	-71
1.93033	-73
1.93400	-72
1.93767	-74
1.94133	-73
1.94500	-69
1.94867	-64
1.95233	-45
1.95600	74
1.95967	792
1.96333	4258
1.96700	16995
1.97067	52738
1.97433	130203
1.97800	260889
1.98167	435983
1.98533	627651
1.98900	802333
1.99267	932549
1.99633	1000623
2.00000	998929
2.00367	931418
2.00733	813803
2.01100	669767
2.01467	523283
2.01833	392105
2.02200	285023
2.02567	203310
2.02933	143854
2.03300	101964
2.03667	73042
2.04033	53289
2.04400	39829
2.04767	30611
2.05133	24227
2.05500	19731
2.05867	16500
2.06233	14119
2.06600	12321
2.06967	10931
2.07333	9828
2.07700	8931
2.08067	8189
2.08433	7562
2.08800	7027
2.09167	6565
2.09533	6163
2.09900	5813
2.10267	5500
2.10633	5215
2.11000	4954
2.11367	4717
2.11733	4501
2.12100	4302
2.12467	4119
2.12833	3950
2.13200	3795
2.13567	3650
2.13933	3513
2.14300	3383
2.14667	3260
2.15033	3144
2.15400	3036
2.15767	2934
2.16133	2839
2.16500	2748
2.16867	2660
2.17233	2577
2.17600	2501
2.17967	2430
2.18333	2366
2.18700	2307
2.19067	2250
2.19433	2193
2.19800	2136
2.20167	2080
2.20533	2026
2.20900	1976
2.21267	1931
2.21633	1891
2.22000	1854
2.22367	1818
2.22733	1782
2.23100	1746
2.23467	1709
2.23833	1671
2.24200	1636
2.24567	1604
2.24933	1572
2.25300	1542
2.25667	1515
2.26033	1490
2.26400	1466
2.26767	1441
2.27133	1411
2.27500	1380
2.27867	1349
2.28233	1315
2.28600	1284
2.28967	1258
2.29333	1237
2.29700	1217
2.30067	1198
2.30433	1179
2.30800	1156
2.31167	1134
2.31533	1112
2.31900	1093
2.32267	1073
2.32633	1055
2.33000	1041
2.33367	1030
2.33733	1022
2.34100	1016
2.34467	1008
2.34833	994
2.35200	979
2.35567	966
2.35933	954
2.36300	944
2.36667	936
2.37033	929
2.37400	920
2.37767	909
2.38133	895
2.38500	880
2.38867	863
2.39233	848
2.39600	835
2.39967	826
2.40333	818
2.40700	809
2.41067	797
2.41433	788
2.41800	781
2.42167	778
2.42533	782
2.42900	788
2.43267	786
2.43633	775
2.44000	758
2.44367	741
2.44733	728
2.45100	719
2.45467	713
2.45833	707
2.46200	701
2.46567	691
2.46933	680
2.47300	668
2.47667	658
2.48033	647
2.48400	637
2.48767	628
2.49133	624
2.49500	623
2.49867	620
2.50233	617
2.50600	615
2.50967	613
2.51333	608
2.51700	599
2.52067	584
2.52433	572
2.52800	564
2.53167	558
2.53533	552
2.53900	548
2.54267	550
2.54633	550
2.55000	545
2.55367	539
2.55733	531
2.56100	522
2.56467	515
2.56833	512
2.57200	512
2.57567	511
2.57933	510
2.58300	510
2.58667	506
2.59033	500
2.59400	491
2.59767	483
2.60133	479
2.60500	479
2.60867	479
2.61233	479
2.61600	479
2.61967	476
2.62333	469
2.62700	461
2.63067	451
2.63433	440
2.63800	430
2.64167	423
2.64533	418
2.64900	412
2.65267	408
2.65633	407
2.66000	400
2.66367	392
2.66733	392
2.67100	397
2.67467	402
2.67833	401
2.68200	400
2.68567	401
2.68933	402
2.69300	404
2.69667	402
2.70033	397
2.70400	393
2.70767	391
2.71133	387
2.71500	383
2.71867	377
2.72233	372
2.72600	366
2.72967	363
2.73333	358
2.73700	353
2.74067	350
2.74433	349
2.74800	349
2.75167	344
2.75533	336
2.75900	329
2.76267	326
2.76633	325
2.77000	325
2.77367	330
2.77733	337
2.78100	343
2.78467	344
2.78833	341
2.79200	333
2.79567	322
2.79933	312
2.80300	307
2.80667	307
2.81033	308
2.81400	311
2.81767	313
2.82133	311
2.82500	308
2.82867	306
2.83233	299
2.83600	287
2.83967	276
2.84333	268
2.84700	265
2.85067	268
2.85433	274
2.85800	280
2.86167	280
2.86533	276
2.86900	271
2.87267	269
2.87633	270
2.88000	270
2.88367	268
2.88733	263
2.89100	260
2.89467	256
2.89833	252
2.90200	246
2.90567	243
2.90933	246
2.91300	252
2.91667	257
2.92033	261
2.92400	261
2.92767	260
2.93133	260
2.93500	260
2.93867	256
2.94233	252
2.94600	246
2.94967	244
2.95333	246
2.95700	244
2.96067	238
2.96433	230
2.96800	221
2.97167	216
2.97533	213
2.97900	211
2.98267	212
2.98633	215
2.99000	220
2.99367	222
2.99733	221
3.00100	220
3.00467	222
3.00833	225
3.01200	228
3.01567	226
3.01933	221
3.02300	217
3.02667	214
3.03033	214
3.03400	216
3.03767	215
3.04133	210
3.04500	204
3.04867	200
3.05233	199
3.05600	198
3.05967	195
3.06333	193
3.06700	192
3.07067	190
3.07433	191
3.07800	194
3.08167	198
3.08533	197
3.08900	192
3.09267	187
3.09633	183
3.10000	181
3.10367	184
3.10733	187
3.11100	189
3.11467	188
3.11833	183
3.12200	174
3.12567	166
3.12933	160
3.13300	157
3.13667	159
3.14033	163
3.14400	165
3.14767	164
3.15133	164
3.15500	165
3.15867	169
3.16233	171
3.16600	172
3.16967	173
3.17333	170
3.17700	163
3.18067	158
3.18433	158
3.18800	160
3.19167	161
3.19533	158
3.19900	154
3.20267	149
3.20633	145
3.21000	141
3.21367	140
3.21733	142
3.22100	146
3.22467	150
3.22833	153
3.23200	154
3.23567	155
3.23933	152
3.24300	146
3.24667	141
3.25033	136
3.25400	130
3.25767	128
3.26133	133
3.26500	140
3.26867	145
3.27233	148
3.27600	150
3.27967	149
3.28333	145
3.28700	141
3.29067	138
3.29433	135
3.29800	130
3.30167	125
3.30533	118
3.30900	113
3.31267	114
3.31633	121
3.32000	126
3.32367	130
3.32733	135
3.33100	141
3.33467	145
3.33833	148
3.34200	149
3.34567	148
3.34933	147
3.35300	145
3.35667	144
3.36033	142
3.36400	137
3.36767	127
3.37133	117
3.37500	109
3.37867	105
3.38233	105
3.38600	110
3.38967	116
3.39333	119
3.39700	120
3.40067	119
3.40433	117
3.40800	113
3.41167	109
3.41533	106
3.41900	103
3.42267	103
3.42633	106
3.43000	113
3.43367	118
3.43733	124
3.44100	129
3.44467	129
3.44833	127
3.45200	123
3.45567	119
3.45933	119
3.46300	120
3.46667	122
3.47033	121
3.47400	118
3.47767	118
3.48133	120
3.48500	123
3.48867	123
3.49233	118
3.49600	113
3.49967	109
3.50333	106
3.50700	106
3.51067	107
3.51433	107
3.51800	106
3.52167	106
3.52533	106
3.52900	107
3.53267	109
3.53633	109
3.54000	106
3.54367	100
3.54733	96
3.55100	96
3.55467	102
3.55833	110
3.56200	117
3.56567	123
3.56933	122
3.57300	115
3.57667	105
3.58033	99
3.58400	95
3.58767	95
3.59133	97
3.59500	98
3.59867	95
3.60233	93
3.60600	94
3.60967	93
3.61333	91
3.61700	91
3.62067	92
3.62433	95
3.62800	96
3.63167	95
3.63533	94
3.63900	91
3.64267	88
3.64633	84
3.65000	78
3.65367	73
3.65733	72
3.66100	76
3.66467	79
3.66833	78
3.67200	78
3.67567	82
3.67933	88
3.68300	93
3.68667	94
3.69033	95
3.69400	95
3.69767	97
3.70133	98
3.70500	97
3.70867	93
3.71233	89
3.71600	88
3.71967	88
3.72333	89
3.72700	87
3.73067	84
3.73433	80
3.73800	81
3.74167	85
3.74533	85
3.74900	77
3.75267	68
3.75633	60
3.76000	52
3.76367	46
3.76733	45
3.77100	49
3.77467	54
3.77833	61
3.78200	70
3.78567	78
3.78933	81
3.79300	74
3.79667	63
3.80033	52
3.80400	45
3.80767	43
3.81133	45
3.81500	50
3.81867	56
3.82233	61
3.82600	62
3.82967	61
3.83333	61
3.83700	65
3.84067	68
3.84433	72
3.84800	77
3.85167	81
3.85533	80
3.85900	75
3.86267	69
3.86633	61
3.87000	52
3.87367	46
3.87733	45
3.88100	44
3.88467	43
3.88833	44
3.89200	47
3.89567	50
3.89933	50
3.90300	49
3.90667	47
3.91033	42
3.91400	38
3.91767	39
3.92133	43
3.92500	46
3.92867	49
3.93233	56
3.93600	63
3.93967	64
3.94333	55
3.94700	44
3.95067	36
3.95433	35
3.95800	39
3.96167	45
3.96533	52
3.96900	58
3.97267	63
3.97633	67
3.98000	68
3.98367	66
3.98733	57
3.99100	42
3.99467	30
3.99833	23

[Chromatogram (Ch2)]
Interval(msec)	220
# of Points	1091
Start Time(min)	0.002
End Time(min)	3.998
R.Time (min)	Intensity
0.00167	0
0.00533	0
0.00900	0
0.01267	-0
0.01633	-0
0.02000	-0
0.02367	-0
0.02733	-1
0.03100	-1
0.03467	-1
0.03833	-1
0.04200	-1
0.04567	-1
0.04933	-0
0.05300	-0
0.05667	-0
0.06033	-1
0.06400	-1
0.06767	-1
0.07133	-1
0.07500	-1
0.07867	-1
0.08233	-1
0.08600	-1
0.08967	-0
0.09333	-0
0.09700	-0
0.10067	-0
0.10433	-0
0.10800	-0
0.11167	-0
0.11533	-0
0.11900	-0
0.12267	-1
0.12633	-1
0.13000	-1
0.13367	-1
0.13733	-1
0.14100	-1
0.14467	-1
0.14833	-1
0.15200	-1
0.15567	-2
0.15933	-2
0.16300	-2
0.16667	-2
0.17033	-2
0.17400	-2
0.17767	-2
0.18133	-3
0.18500	-3
0.18867	-3
0.19233	-3
0.19600	-3
0.19967	-3
0.20333	-3
0.20700	-4
0.21067	-4
0.21433	-4
0.21800	-4
0.22167	-4
0.22533	-4
0.22900	-4
0.23267	-4
0.23633	-4
0.24000	-4
0.24367	-4
0.24733	-5
0.25100	-5
0.25467	-5
0.25833	-5
0.26200	-5
0.26567	-5
0.26933	-5
0.27300	-6
0.27667	-6
0.28033	-6
0.28400	-6
0.28767	-7
0.29133	-6
0.29500	-6
0.29867	-6
0.30233	-6
0.30600	-7
0.30967	-7
0.31333	-7
0.31700	-7
0.32067	-7
0.32433	-8
0.32800	-8
0.33167	-8
0.33533	-8
0.33900	-8
0.34267	-7
0.34633	-7
0.35000	-7
0.35367	-7
0.35733	-7
0.36100	-7
0.36467	-7
0.36833	-7
0.37200	-7
0.37567	-7
0.37933	-7
0.38300	-7
0.38667	-8
0.39033	-8
0.39400	-8
0.39767	-8
0.40133	-8
0.40500	-8
0.40867	-8
0.41233	-8
0.41600	-8
0.41967	-8
0.42333	-8
0.42700	-8
0.43067	-8
0.43433	-8
0.43800	-8
0.44167	-8
0.44533	-8
0.44900	-8
0.45267	-8
0.45633	-8
0.46000	-8
0.46367	-8
0.46733	-8
0.47100	-8
0.47467	-8
0.47833	-8
0.48200	-8
0.48567	-8
0.48933	-8
0.49300	-8
0.49667	-8
0.50033	-8
0.50400	-8
0.50767	-8
0.51133	-9
0.51500	-9
0.51867	-9
0.52233	-10
0.52600	-11
0.52967	-11
0.53333	-12
0.53700	-12
0.54067	-12
0.54433	-12
0.54800	-12
0.55167	-12
0.55533	-12
0.55900	-12
0.56267	-12
0.56633	-12
0.57000	-12
0.57367	-11
0.57733	-11
0.58100	-11
0.58467	-11
0.58833	-11
0.59200	-11
0.59567	-11
0.59933	-11
0.60300	-11
0.60667	-11
0.61033	-11
0.61400	-11
0.61767	-11
0.62133	-12
0.62500	-12
0.62867	-12
0.63233	-12
0.63600	-11
0.63967	-12
0.64333	-12
0.64700	-12
0.65067	-12
0.65433	-12
0.65800	-13
0.66167	-13
0.66533	-13
0.66900	-13
0.67267	-14
0.67633	-14
0.68000	-14
0.68367	-14
0.68733	-14
0.69100	-14
0.69467	-14
0.69833	-14
0.70200	-14
0.70567	-14
0.70933	-14
0.71300	-14
0.71667	-14
0.72033	-14
0.72400	-14
0.72767	-14
0.73133	-14
0.73500	-14
0.73867	-14
0.74233	-14
0.74600	-14
0.74967	-15
0.75333	-15
0.75700	-15
0.76067	-15
0.76433	-15
0.76800	-15
0.77167	-15
0.77533	-16
0.77900	-16
0.78267	-16
0.78633	-16
0.79000	-16
0.79367	-16
0.79733	-16
0.80100	-16
0.80467	-16
0.80833	-15
0.81200	-15
0.81567	-15
0.81933	-15
0.82300	-15
0.82667	-15
0.83033	-15
0.83400	-15
0.83767	-15
0.84133	-15
0.84500	-15
0.84867	-15
0.85233	-15
0.85600	-15
0.85967	-15
0.86333	-15
0.86700	-14
0.87067	-15
0.87433	-15
0.87800	-15
0.88167	-15
0.88533	-15
0.88900	-15
0.89267	-15
0.89633	-15
0.90000	-15
0.90367	-15
0.90733	-15
0.91100	-15
0.91467	-15
0.91833	-15
0.92200	-15
0.92567	-16
0.92933	-16
0.93300	-16
0.93667	-16
0.94033	-16
0.94400	-16
0.94767	-16
0.95133	-16
0.95500	-16
0.95867	-17
0.96233	-17
0.96600	-17
0.96967	-17
0.97333	-17
0.97700	-17
0.98067	-18
0.98433	-18
0.98800	-18
0.99167	-19
0.99533	-19
0.99900	-19
1.00267	-19
1.00633	-20
1.01000	-20
1.01367	-20
1.01733	-20
1.02100	-20
1.02467	-20
1.02833	-20
1.03200	-20
1.03567	-20
1.03933	-20
1.04300	-19
1.04667	-19
1.05033	-19
1.05400	-19
1.05767	-19
1.06133	-19
1.06500	-19
1.06867	-19
1.07233	-19
1.07600	-19
1.07967	-19
1.08333	-19
1.08700	-19
1.09067	-19
1.09433	-19
1.09800	-19
1.10167	-19
1.10533	-19
1.10900	-19
1.11267	-19
1.11633	-19
1.12000	-19
1.12367	-19
1.12733	-19
1.13100	-20
1.13467	-20
1.13833	-20
1.14200	-20
1.14567	-20
1.14933	-20
1.15300	-20
1.15667	-20
1.16033	-20
1.16400	-20
1.16767	-20
1.17133	-20
1.17500	-20
1.17867	-20
1.18233	-20
1.18600	-20
1.18967	-21
1.19333	-21
1.19700	-21
1.20067	-21
1.20433	-21
1.20800	-21
1.21167	-22
1.21533	-22
1.21900	-22
1.22267	-22
1.22633	-22
1.23000	-22
1.23367	-22
1.23733	-22
1.24100	-22
1.24467	-21
1.24833	-21
1.25200	-22
1.25567	-22
1.25933	-22
1.26300	-22
1.26667	-22
1.27033	-22
1.27400	-22
1.27767	-22
1.28133	-22
1.28500	-22
1.28867	-22
1.29233	-22
1.29600	-22
1.29967	-22
1.30333	-22
1.30700	-22
1.31067	-22
1.31433	-22
1.31800	-22
1.32167	-22
1.32533	-22
1.32900	-22
1.33267	-22
1.33633	-21
1.34000	-21
1.34367	-22
1.34733	-22
1.35100	-22
1.35467	-22
1.35833	-22
1.36200	-23
1.36567	-23
1.36933	-23
1.37300	-23
1.37667	-23
1.38033	-23
1.38400	-23
1.38767	-24
1.39133	-24
1.39500	-24
1.39867	-24
1.40233	-25
1.40600	-25
1.40967	-25
1.41333	-25
1.41700	-25
1.42067	-25
1.42433	-24
1.42800	-24
1.43167	-24
1.43533	-24
1.43900	-24
1.44267	-24
1.44633	-24
1.45000	-24
1.45367	-24
1.45733	-24
1.46100	-24
1.46467	-24
1.46833	-24
1.47200	-25
1.47567	-25
1.47933	-25
1.48300	-25
1.48667	-25
1.49033	-25
1.49400	-25
1.49767	-24
1.50133	-24
1.50500	-24
1.50867	-24
1.51233	-24
1.51600	-24
1.51967	-24
1.52333	-24
1.52700	-24
1.53067	-24
1.53433	-24
1.53800	-24
1.54167	-24
1.54533	-25
1.54900	-25
1.55267	-25
1.55633	-25
1.56000	-25
1.56367	-25
1.56733	-25
1.57100	-25
1.57467	-25
1.57833	-25
1.58200	-25
1.58567	-26
1.58933	-26
1.59300	-26
1.59667	-27
1.60033	-28
1.60400	-29
1.60767	-30
1.61133	-32
1.61500	-34
1.61867	-36
1.62233	-39
1.62600	-42
1.62967	-45
1.63333	-48
1.63700	-51
1.64067	-54
1.64433	-58
1.64800	-61
1.65167	-65
1.65533	-69
1.65900	-72
1.66267	-76
1.66633	-80
1.67000	-85
1.67367	-90
1.67733	-95
1.68100	-100
1.68467	-105
1.68833	-109
1.69200	-113
1.69567	-116
1.69933	-119
1.70300	-122
1.70667	-124
1.71033	-127
1.71400	-129
1.71767	-130
1.72133	-132
1.72500	-133
1.72867	-135
1.73233	-135
1.73600	-136
1.73967	-137
1.74333	-138
1.74700	-139
1.75067	-139
1.75433	-140
1.75800	-140
1.76167	-141
1.76533	-142
1.76900	-143
1.77267	-143
1.77633	-143
1.78000	-144
1.78367	-144
1.78733	-144
1.79100	-144
1.79467	-143
1.79833	-143
1.80200	-142
1.80567	-142
1.80933	-141
1.81300	-141
1.81667	-142
1.82033	-142
1.82400	-143
1.82767	-144
1.83133	-144
1.83500	-145
1.83867	-145
1.84233	-146
1.84600	-147
1.84967	-148
1.85333	-148
1.85700	-148
1.86067	-148
1.86433	-147
1.86800	-146
1.87167	-146
1.87533	-145
1.87900	-144
1.88267	-144
1.88633	-144
1.89000	-144
1.89367	-144
1.89733	-144
1.90100	-144
1.90467	-144
1.90833	-144
1.91200	-145
1.91567	-144
1.91933	-144
1.92300	-144
1.92667	-144
1.93033	-144
1.93400	-144
1.93767	-144
1.94133	-144
1.94500	-144
1.94867	-143
1.95233	-143
1.95600	-142
1.95967	-142
1.96333	-142
1.96700	-142
1.97067	-142
1.97433	-142
1.97800	-142
1.98167	-141
1.98533	-141
1.98900	-141
1.99267	-141
1.99633	-140
2.00000	-140
2.00367	-139
2.00733	-139
2.01100	-139
2.01467	-139
2.01833	-139
2.02200	-138
2.02567	-138
2.02933	-138
2.03300	-138
2.03667	-138
2.04033	-138
2.04400	-138
2.04767	-138
2.05133	-138
2.05500	-137
2.05867	-137
2.06233	-136
2.06600	-135
2.06967	-135
2.07333	-134
2.07700	-133
2.08067	-133
2.08433	-133
2.08800	-133
2.09167	-133
2.09533	-133
2.09900	-133
2.10267	-132
2.10633	-132
2.11000	-132
2.11367	-132
2.11733	-132
2.12100	-132
2.12467	-132
2.12833	-133
2.13200	-133
2.13567	-133
2.13933	-133
2.14300	-132
2.14667	-132
2.15033	-131
2.15400	-131
2.15767	-130
2.16133	-130
2.16500	-130
2.16867	-129
2.17233	-129
2.17600	-129
2.17967	-128
2.18333	-128
2.18700	-127
2.19067	-127
2.19433	-127
2.19800	-126
2.20167	-125
2.20533	-125
2.20900	-124
2.21267	-124
2.21633	-123
2.22000	-123
2.22367	-123
2.22733	-123
2.23100	-123
2.23467	-123
2.23833	-123
2.24200	-123
2.24567	-123
2.24933	-123
2.25300	-123
2.25667	-123
2.26033	-122
2.26400	-122
2.26767	-122
2.27133	-122
2.27500	-121
2.27867	-121
2.28233	-122
2.28600	-122
2.28967	-123
2.29333	-123
2.29700	-123
2.30067	-123
2.30433	-122
2.30800	-121
2.31167	-119
2.31533	-118
2.31900	-117
2.32267	-116
2.32633	-116
2.33000	-116
2.33367	-116
2.33733	-116
2.34100	-115
2.34467	-115
2.34833	-114
2.35200	-113
2.35567	-112
2.35933	-110
2.36300	-109
2.36667	-108
2.37033	-106
2.37400	-105
2.37767	-102
2.38133	-100
2.38500	-98
2.38867	-95
2.39233	-92
2.39600	-88
2.39967	-84
2.40333	-80
2.40700	-76
2.41067	-71
2.41433	-68
2.41800	-64
2.42167	-61
2.42533	-57
2.42900	-55
2.43267	-52
2.43633	-49
2.44000	-47
2.44367	-45
2.44733	-44
2.45100	-42
2.45467	-41
2.45833	-39
2.46200	-38
2.46567	-37
2.46933	-35
2.47300	-33
2.47667	-32
2.48033	-30
2.48400	-29
2.48767	-29
2.49133	-28
2.49500	-28
2.49867	-27
2.50233	-26
2.50600	-25
2.50967	-24
2.51333	-24
2.51700	-23
2.52067	-22
2.52433	-21
2.52800	-20
2.53167	-19
2.53533	-18
2.53900	-18
2.54267	-18
2.54633	-17
2.55000	-17
2.55367	-17
2.55733	-17
2.56100	-17
2.56467	-16
2.56833	-16
2.57200	-16
2.57567	-16
2.57933	-16
2.58300	-16
2.58667	-16
2.59033	-16
2.59400	-15
2.59767	-15
2.60133	-14
2.60500	-14
2.60867	-14
2.61233	-13
2.61600	-13
2.61967	-12
2.62333	-12
2.62700	-12
2.63067	-12
2.63433	-12
2.63800	-12
2.64167	-12
2.64533	-12
2.64900	-12
2.65267	-12
2.65633	-12
2.66000	-12
2.66367	-12
2.66733	-12
2.67100	-12
2.67467	-13
2.67833	-12
2.68200	-12
2.68567	-12
2.68933	-12
2.69300	-12
2.69667	-12
2.70033	-12
2.70400	-12
2.70767	-11
2.71133	-11
2.71500	-11
2.71867	-11
2.72233	-11
2.72600	-10
2.72967	-10
2.73333	-9
2.73700	-9
2.74067	-8
2.74433	-8
2.74800	-8
2.75167	-8
2.75533	-9
2.75900	-9
2.76267	-9
2.76633	-10
2.77000	-10
2.77367	-10
2.77733	-10
2.78100	-9
2.78467	-9
2.78833	-9
2.79200	-9
2.79567	-9
2.79933	-9
2.80300	-9
2.80667	-9
2.81033	-9
2.81400	-9
2.81767	-9
2.82133	-9
2.82500	-9
2.82867	-9
2.83233	-8
2.83600	-8
2.83967	-8
2.84333	-8
2.84700	-9
2.85067	-10
2.85433	-11
2.85800	-14
2.86167	-20
2.86533	-28
2.86900	-39
2.87267	-54
2.87633	-74
2.88000	-99
2.88367	-129
2.88733	-164
2.89100	-204
2.89467	-250
2.89833	-300
2.90200	-355
2.90567	-414
2.90933	-477
2.91300	-543
2.91667	-613
2.92033	-686
2.92400	-762
2.92767	-840
2.93133	-920
2.93500	-1003
2.93867	-1088
2.94233	-1174
2.94600	-1261
2.94967	-1351
2.95333	-1439
2.95700	-1519
2.96067	-1577
2.96433	-1603
2.96800	-1593
2.97167	-1548
2.97533	-1476
2.97900	-1383
2.98267	-1277
2.98633	-1165
2.99000	-1052
2.99367	-942
2.99733	-838
3.00100	-742
3.00467	-653
3.00833	-574
3.01200	-502
3.01567	-439
3.01933	-383
3.02300	-334
3.02667	-292
3.03033	-255
3.03400	-223
3.03767	-195
3.04133	-171
3.04500	-151
3.04867	-133
3.05233	-118
3.05600	-105
3.05967	-94
3.06333	-84
3.06700	-76
3.07067	-69
3.07433	-63
3.07800	-58
3.08167	-53
3.08533	-50
3.08900	-47
3.09267	-44
3.09633	-42
3.10000	-40
3.10367	-38
3.10733	-37
3.11100	-35
3.11467	-34
3.11833	-33
3.12200	-32
3.12567	-31
3.12933	-30
3.13300	-29
3.13667	-28
3.14033	-27
3.14400	-26
3.14767	-25
3.15133	-25
3.15500	-25
3.15867	-24
3.16233	-24
3.16600	-24
3.16967	-24
3.17333	-23
3.17700	-23
3.18067	-23
3.18433	-22
3.18800	-22
3.19167	-21
3.19533	-21
3.19900	-21
3.20267	-20
3.20633	-20
3.21000	-20
3.21367	-20
3.21733	-20
3.22100	-20
3.22467	-19
3.22833	-19
3.23200	-19
3.23567	-18
3.23933	-18
3.24300	-18
3.24667	-18
3.25033	-18
3.25400	-18
3.25767	-18
3.26133	-18
3.26500	-18
3.26867	-18
3.27233	-18
3.27600	-18
3.27967	-17
3.28333	-17
3.28700	-17
3.29067	-17
3.29433	-17
3.29800	-17
3.30167	-16
3.30533	-16
3.30900	-16
3.31267	-16
3.31633	-15
3.32000	-15
3.32367	-15
3.32733	-15
3.33100	-15
3.33467	-15
3.33833	-15
3.34200	-15
3.34567	-15
3.34933	-15
3.35300	-14
3.35667	-14
3.36033	-14
3.36400	-14
3.36767	-14
3.37133	-14
3.37500	-15
3.37867	-15
3.38233	-15
3.38600	-15
3.38967	-15
3.39333	-15
3.39700	-14
3.40067	-14
3.40433	-14
3.40800	-14
3.41167	-13
3.41533	-13
3.41900	-13
3.42267	-13
3.42633	-13
3.43000	-13
3.43367	-13
3.43733	-13
3.44100	-13
3.44467	-12
3.44833	-12
3.45200	-12
3.45567	-12
3.45933	-12
3.46300	-12
3.46667	-12
3.47033	-12
3.47400	-12
3.47767	-12
3.48133	-12
3.48500	-12
3.48867	-12
3.49233	-12
3.49600	-12
3.49967	-12
3.50333	-12
3.50700	-12
3.51067	-12
3.51433	-12
3.51800	-12
3.52167	-12
3.52533	-12
3.52900	-12
3.53267	-12
3.53633	-12
3.54000	-13
3.54367	-13
3.54733	-13
3.55100	-13
3.55467	-13
3.55833	-13
3.56200	-13
3.56567	-14
3.56933	-14
3.57300	-14
3.57667	-14
3.58033	-14
3.58400	-15
3.58767	-15
3.59133	-15
3.59500	-15
3.59867	-15
3.60233	-15
3.60600	-15
3.60967	-15
3.61333	-15
3.61700	-15
3.62067	-15
3.62433	-15
3.62800	-15
3.63167	-15
3.63533	-15
3.63900	-15
3.64267	-15
3.64633	-15
3.65000	-15
3.65367	-15
3.65733	-14
3.66100	-14
3.66467	-14
3.66833	-14
3.67200	-14
3.67567	-14
3.67933	-14
3.68300	-15
3.68667	-15
3.69033	-15
3.69400	-15
3.69767	-15
3.70133	-15
3.70500	-15
3.70867	-15
3.71233	-15
3.71600	-15
3.71967	-15
3.72333	-15
3.72700	-15
3.73067	-15
3.73433	-15
3.73800	-15
3.74167	-15
3.74533	-16
3.74900	-16
3.75267	-16
3.75633	-16
3.76000	-16
3.76367	-15
3.76733	-15
3.77100	-15
3.77467	-15
3.77833	-15
3.78200	-15
3.78567	-15
3.78933	-15
3.79300	-15
3.79667	-15
3.80033	-15
3.80400	-15
3.80767	-15
3.81133	-15
3.81500	-15
3.81867	-15
3.82233	-15
3.82600	-16
3.82967	-16
3.83333	-16
3.83700	-17
3.84067	-17
3.84433	-17
3.84800	-17
3.85167	-17
3.85533	-17
3.85900	-17
3.86267	-17
3.86633	-17
3.87000	-17
3.87367	-17
3.87733	-17
3.88100	-17
3.88467	-16
3.88833	-16
3.89200	-16
3.89567	-16
3.89933	-16
3.90300	-16
3.90667	-16
3.91033	-16
3.91400	-16
3.91767	-16
3.92133	-16
3.92500	-16
3.92867	-16
3.93233	-17
3.93600	-17
3.93967	-17
3.94333	-17
3.94700	-17
3.95067	-16
3.95433	-16
3.95800	-16
3.96167	-16
3.96533	-16
3.96900	-16
3.97267	-16
3.97633	-17
3.98000	-17
3.98367	-17
3.98733	-17
3.99100	-16
3.99467	-17
3.99833	-17

[Chromatogram (Ch3)]
Interval(msec)	220
# of Points	1091
Start Time(min)	0.002
End Time(min)	3.998
R.Time (min)	Intensity
0.00167	1
0.00533	3
0.00900	6
0.01267	7
0.01633	7
0.02000	5
0.02367	1
0.02733	-2
0.03100	2
0.03467	2
0.03833	2
0.04200	3
0.04567	5
0.04933	4
0.05300	3
0.05667	2
0.06033	3
0.06400	6
0.06767	8
0.07133	9
0.07500	9
0.07867	8
0.08233	7
0.08600	5
0.08967	5
0.09333	6
0.09700	7
0.10067	12
0.10433	14
0.10800	11
0.11167	7
0.11533	4
0.11900	3
0.12267	3
0.12633	4
0.13000	5
0.13367	5
0.13733	8
0.14100	11
0.14467	12
0.14833	13
0.15200	10
0.15567	8
0.15933	6
0.16300	3
0.16667	1
0.17033	1
0.17400	2
0.17767	1
0.18133	-2
0.18500	-4
0.18867	-4
0.19233	-1
0.19600	2
0.19967	3
0.20333	3
0.20700	5
0.21067	7
0.21433	6
0.21800	7
0.22167	9
0.22533	10
0.22900	10
0.23267	9
0.23633	9
0.24000	5
0.24367	2
0.24733	-2
0.25100	-4
0.25467	-5
0.25833	-1
0.26200	3
0.26567	4
0.26933	6
0.27300	9
0.27667	11
0.28033	11
0.28400	8
0.28767	6
0.29133	4
0.29500	2
0.29867	-1
0.30233	-0
0.30600	2
0.30967	3
0.31333	2
0.31700	3
0.32067	5
0.32433	4
0.32800	3
0.33167	3
0.33533	2
0.33900	-1
0.34267	-2
0.34633	0
0.35000	-2
0.35367	-3
0.35733	-3
0.36100	-2
0.36467	-3
0.36833	-2
0.37200	-1
0.37567	-0
0.37933	-1
0.38300	-0
0.38667	-0
0.39033	-2
0.39400	-2
0.39767	-0
0.40133	2
0.40500	5
0.40867	6
0.41233	5
0.41600	5
0.41967	5
0.42333	4
0.42700	3
0.43067	3
0.43433	2
0.43800	1
0.44167	3
0.44533	3
0.44900	2
0.45267	2
0.45633	1
0.46000	-1
0.46367	-3
0.46733	-3
0.47100	-0
0.47467	3
0.47833	5
0.48200	6
0.48567	7
0.48933	7
0.49300	5
0.49667	2
0.50033	-0
0.50400	-1
0.50767	-2
0.51133	-2
0.51500	-2
0.51867	-1
0.52233	1
0.52600	1
0.52967	3
0.53333	3
0.53700	1
0.54067	-2
0.54433	-3
0.54800	-3
0.55167	-1
0.55533	2
0.55900	3
0.56267	0
0.56633	-2
0.57000	-2
0.57367	-1
0.57733	-2
0.58100	-4
0.58467	-6
0.58833	-6
0.59200	-3
0.59567	-3
0.59933	-2
0.60300	-3
0.60667	-4
0.61033	-4
0.61400	-5
0.61767	-4
0.62133	-2
0.62500	-2
0.62867	-4
0.63233	-5
0.63600	-6
0.63967	-9
0.64333	-11
0.64700	-11
0.65067	-10
0.65433	-10
0.65800	-9
0.66167	-8
0.66533	-7
0.66900	-8
0.67267	-8
0.67633	-6
0.68000	-4
0.68367	-4
0.68733	-5
0.69100	-6
0.69467	-7
0.69833	-7
0.70200	-8
0.70567	-8
0.70933	-8
0.71300	-9
0.71667	-11
0.72033	-13
0.72400	-14
0.72767	-14
0.73133	-14
0.73500	-14
0.73867	-15
0.74233	-15
0.74600	-15
0.74967	-14
0.75333	-15
0.75700	-16
0.76067	-15
0.76433	-15
0.76800	-14
0.77167	-16
0.77533	-18
0.77900	-20
0.78267	-21
0.78633	-22
0.79000	-22
0.79367	-20
0.79733	-18
0.80100	-19
0.80467	-18
0.80833	-14
0.81200	-11
0.81567	-10
0.81933	-13
0.82300	-14
0.82667	-14
0.83033	-14
0.83400	-15
0.83767	-15
0.84133	-14
0.84500	-13
0.84867	-12
0.85233	-12
0.85600	-12
0.85967	-12
0.86333	-13
0.86700	-14
0.87067	-14
0.87433	-15
0.87800	-13
0.88167	-13
0.88533	-15
0.88900	-17
0.89267	-18
0.89633	-18
0.90000	-17
0.90367	-15
0.90733	-14
0.91100	-15
0.91467	-17
0.91833	-19
0.92200	-19
0.92567	-19
0.92933	-19
0.93300	-18
0.93667	-18
0.94033	-18
0.94400	-15
0.94767	-13
0.95133	-12
0.95500	-14
0.95867	-17
0.96233	-19
0.96600	-21
0.96967	-22
0.97333	-23
0.97700	-24
0.98067	-24
0.98433	-25
0.98800	-26
0.99167	-25
0.99533	-24
0.99900	-22
1.00267	-20
1.00633	-19
1.01000	-21
1.01367	-22
1.01733	-24
1.02100	-27
1.02467	-26
1.02833	-25
1.03200	-23
1.03567	-22
1.03933	-23
1.04300	-23
1.04667	-22
1.05033	-19
1.05400	-16
1.05767	-17
1.06133	-19
1.06500	-21
1.06867	-21
1.07233	-23
1.07600	-23
1.07967	-22
1.08333	-23
1.08700	-25
1.09067	-25
1.09433	-25
1.09800	-25
1.10167	-23
1.10533	-21
1.10900	-21
1.11267	-22
1.11633	-25
1.12000	-25
1.12367	-24
1.12733	-27
1.13100	-29
1.13467	-29
1.13833	-26
1.14200	-26
1.14567	-26
1.14933	-27
1.15300	-27
1.15667	-28
1.16033	-28
1.16400	-26
1.16767	-26
1.17133	-25
1.17500	-24
1.17867	-24
1.18233	-27
1.18600	-30
1.18967	-28
1.19333	-25
1.19700	-24
1.20067	-25
1.20433	-26
1.20800	-30
1.21167	-31
1.21533	-32
1.21900	-32
1.22267	-32
1.22633	-29
1.23000	-26
1.23367	-25
1.23733	-23
1.24100	-23
1.24467	-24
1.24833	-26
1.25200	-28
1.25567	-31
1.25933	-32
1.26300	-34
1.26667	-36
1.27033	-36
1.27400	-35
1.27767	-34
1.28133	-34
1.28500	-34
1.28867	-33
1.29233	-31
1.29600	-30
1.29967	-29
1.30333	-29
1.30700	-30
1.31067	-31
1.31433	-36
1.31800	-40
1.32167	-42
1.32533	-41
1.32900	-40
1.33267	-40
1.33633	-39
1.34000	-35
1.34367	-32
1.34733	-32
1.35100	-32
1.35467	-34
1.35833	-35
1.36200	-36
1.36567	-36
1.36933	-35
1.37300	-34
1.37667	-35
1.38033	-37
1.38400	-37
1.38767	-37
1.39133	-39
1.39500	-39
1.39867	-39
1.40233	-36
1.40600	-34
1.40967	-34
1.41333	-32
1.41700	-29
1.42067	-29
1.42433	-30
1.42800	-31
1.43167	-31
1.43533	-30
1.43900	-32
1.44267	-35
1.44633	-36
1.45000	-34
1.45367	-34
1.45733	-35
1.46100	-36
1.46467	-37
1.46833	-36
1.47200	-34
1.47567	-33
1.47933	-34
1.48300	-35
1.48667	-37
1.49033	-39
1.49400	-40
1.49767	-39
1.50133	-37
1.50500	-34
1.50867	-32
1.51233	-34
1.51600	-36
1.51967	-39
1.52333	-42
1.52700	-43
1.53067	-44
1.53433	-43
1.53800	-41
1.54167	-40
1.54533	-39
1.54900	-38
1.55267	-39
1.55633	-42
1.56000	-43
1.56367	-42
1.56733	-43
1.57100	-42
1.57467	-40
1.57833	-40
1.58200	-41
1.58567	-38
1.58933	-35
1.59300	-36
1.59667	-38
1.60033	-41
1.60400	-41
1.60767	-39
1.61133	-38
1.61500	-36
1.61867	-34
1.62233	-33
1.62600	-33
1.62967	-35
1.63333	-36
1.63700	-38
1.64067	-40
1.64433	-42
1.64800	-42
1.65167	-40
1.65533	-39
1.65900	-37
1.66267	-36
1.66633	-35
1.67000	-34
1.67367	-34
1.67733	-36
1.68100	-38
1.68467	-37
1.68833	-36
1.69200	-34
1.69567	-33
1.69933	-31
1.70300	-30
1.70667	-30
1.71033	-30
1.71400	-30
1.71767	-33
1.72133	-35
1.72500	-34
1.72867	-33
1.73233	-32
1.73600	-30
1.73967	-28
1.74333	-27
1.74700	-25
1.75067	-24
1.75433	-24
1.75800	-24
1.76167	-25
1.76533	-26
1.76900	-26
1.77267	-26
1.77633	-25
1.78000	-24
1.78367	-22
1.78733	-21
1.79100	-20
1.79467	-21
1.79833	-21
1.80200	-21
1.80567	-22
1.80933	-21
1.81300	-19
1.81667	-17
1.82033	-18
1.82400	-17
1.82767	-15
1.83133	-15
1.83500	-12
1.83867	-9
1.84233	-9
1.84600	-11
1.84967	-13
1.85333	-12
1.85700	-10
1.86067	-10
1.86433	-8
1.86800	-7
1.87167	-8
1.87533	-7
1.87900	-5
1.88267	-5
1.88633	-7
1.89000	-7
1.89367	-7
1.89733	-5
1.90100	-4
1.90467	-4
1.90833	-4
1.91200	-2
1.91567	-1
1.91933	-0
1.92300	1
1.92667	1
1.93033	1
1.93400	1
1.93767	4
1.94133	5
1.94500	4
1.94867	3
1.95233	2
1.95600	3
1.95967	6
1.96333	7
1.96700	10
1.97067	11
1.97433	9
1.97800	10
1.98167	13
1.98533	17
1.98900	19
1.99267	18
1.99633	18
2.00000	19
2.00367	22
2.00733	25
2.01100	28
2.01467	26
2.01833	25
2.02200	26
2.02567	25
2.02933	22
2.03300	22
2.03667	24
2.04033	26
2.04400	31
2.04767	36
2.05133	37
2.05500	39
2.05867	41
2.06233	42
2.06600	40
2.06967	39
2.07333	38
2.07700	38
2.08067	40
2.08433	42
2.08800	42
2.09167	42
2.09533	42
2.09900	41
2.10267	40
2.10633	38
2.11000	41
2.11367	43
2.11733	44
2.12100	45
2.12467	47
2.12833	50
2.13200	50
2.13567	48
2.13933	49
2.14300	51
2.14667	51
2.15033	50
2.15400	49
2.15767	49
2.16133	52
2.16500	55
2.16867	58
2.17233	58
2.17600	59
2.17967	63
2.18333	64
2.18700	64
2.19067	64
2.19433	65
2.19800	64
2.20167	64
2.20533	65
2.20900	64
2.21267	67
2.21633	68
2.22000	70
2.22367	71
2.22733	72
2.23100	74
2.23467	75
2.23833	76
2.24200	76
2.24567	78
2.24933	78
2.25300	79
2.25667	82
2.26033	83
2.26400	83
2.26767	84
2.27133	86
2.27500	88
2.27867	89
2.28233	91
2.28600	91
2.28967	93
2.29333	95
2.29700	98
2.30067	99
2.30433	100
2.30800	102
2.31167	103
2.31533	104
2.31900	106
2.32267	107
2.32633	108
2.33000	109
2.33367	109
2.33733	112
2.34100	114
2.34467	114
2.34833	115
2.35200	116
2.35567	116
2.35933	116
2.36300	117
2.36667	118
2.37033	119
2.37400	120
2.37767	120
2.38133	121
2.38500	122
2.38867	121
2.39233	120
2.39600	120
2.39967	124
2.40333	127
2.40700	131
2.41067	134
2.41433	136
2.41800	137
2.42167	136
2.42533	136
2.42900	138
2.43267	139
2.43633	141
2.44000	144
2.44367	171
2.44733	237
2.45100	309
2.45467	353
2.45833	362
2.46200	355
2.46567	346
2.46933	335
2.47300	316
2.47667	288
2.48033	255
2.48400	221
2.48767	194
2.49133	175
2.49500	165
2.49867	163
2.50233	165
2.50600	170
2.50967	171
2.51333	167
2.51700	160
2.52067	148
2.52433	132
2.52800	114
2.53167	96
2.53533	80
2.53900	67
2.54267	54
2.54633	48
2.55000	44
2.55367	39
2.55733	37
2.56100	36
2.56467	38
2.56833	41
2.57200	45
2.57567	51
2.57933	58
2.58300	67
2.58667	74
2.59033	82
2.59400	91
2.59767	97
2.60133	97
2.60500	90
2.60867	77
2.61233	53
2.61600	18
2.61967	-23
2.62333	-67
2.62700	-115
2.63067	-166
2.63433	-210
2.63800	-247
2.64167	-278
2.64533	-301
2.64900	-316
2.65267	-327
2.65633	-333
2.66000	-332
2.66367	-326
2.66733	-317
2.67100	-308
2.67467	-300
2.67833	-292
2.68200	-282
2.68567	-271
2.68933	-259
2.69300	-247
2.69667	-236
2.70033	-223
2.70400	-210
2.70767	-197
2.71133	-186
2.71500	-177
2.71867	-168
2.72233	-158
2.72600	-150
2.72967	-143
2.73333	-136
2.73700	-128
2.74067	-120
2.74433	-113
2.74800	-104
2.75167	-96
2.75533	-93
2.75900	-88
2.76267	-82
2.76633	-74
2.77000	-66
2.77367	-60
2.77733	-53
2.78100	-48
2.78467	-41
2.78833	-36
2.79200	-29
2.79567	-19
2.79933	-12
2.80300	-8
2.80667	-8
2.81033	-8
2.81400	-7
2.81767	-5
2.82133	-0
2.82500	12
2.82867	43
2.83233	119
2.83600	283
2.83967	597
2.84333	1132
2.84700	1965
2.85067	3142
2.85433	4670
2.85800	6505
2.86167	8549
2.86533	10666
2.86900	12696
2.87267	14487
2.87633	15907
2.88000	16865
2.88367	17325
2.88733	17304
2.89100	16864
2.89467	16094
2.89833	15095
2.90200	13951
2.90567	12740
2.90933	11518
2.91300	10330
2.91667	9207
2.92033	8161
2.92400	7202
2.92767	6331
2.93133	5550
2.93500	4853
2.93867	4229
2.94233	3679
2.94600	3196
2.94967	2774
2.95333	2405
2.95700	2083
2.96067	1801
2.96433	1554
2.96800	1341
2.97167	1156
2.97533	998
2.97900	862
2.98267	743
2.98633	640
2.99000	552
2.99367	476
2.99733	412
3.00100	356
3.00467	308
3.00833	268
3.01200	235
3.01567	204
3.01933	179
3.02300	158
3.02667	139
3.03033	122
3.03400	108
3.03767	97
3.04133	89
3.04500	81
3.04867	72
3.05233	65
3.05600	58
3.05967	52
3.06333	49
3.06700	48
3.07067	45
3.07433	45
3.07800	45
3.08167	41
3.08533	40
3.08900	41
3.09267	42
3.09633	45
3.10000	47
3.10367	48
3.10733	50
3.11100	49
3.11467	51
3.11833	54
3.12200	56
3.12567	55
3.12933	53
3.13300	53
3.13667	54
3.14033	56
3.14400	59
3.14767	60
3.15133	60
3.15500	62
3.15867	61
3.16233	63
3.16600	67
3.16967	69
3.17333	69
3.17700	71
3.18067	74
3.18433	76
3.18800	78
3.19167	80
3.19533	82
3.19900	82
3.20267	84
3.20633	85
3.21000	87
3.21367	89
3.21733	90
3.22100	93
3.22467	94
3.22833	95
3.23200	94
3.23567	94
3.23933	94
3.24300	93
3.24667	94
3.25033	95
3.25400	98
3.25767	101
3.26133	104
3.26500	103
3.26867	99
3.27233	97
3.27600	98
3.27967	100
3.28333	101
3.28700	103
3.29067	106
3.29433	106
3.29800	107
3.30167	106
3.30533	103
3.30900	101
3.31267	99
3.31633	97
3.32000	95
3.32367	90
3.32733	75
3.33100	65
3.33467	63
3.33833	66
3.34200	71
3.34567	79
3.34933	90
3.35300	102
3.35667	116
3.36033	133
3.36400	150
3.36767	162
3.37133	176
3.37500	192
3.37867	206
3.38233	217
3.38600	228
3.38967	241
3.39333	254
3.39700	266
3.40067	275
3.40433	282
3.40800	289
3.41167	296
3.41533	305
3.41900	312
3.42267	316
3.42633	321
3.43000	326
3.43367	330
3.43733	331
3.44100	333
3.44467	334
3.44833	336
3.45200	337
3.45567	337
3.45933	337
3.46300	336
3.46667	336
3.47033	336
3.47400	336
3.47767	335
3.48133	335
3.48500	335
3.48867	332
3.49233	331
3.49600	331
3.49967	330
3.50333	327
3.50700	326
3.51067	326
3.51433	326
3.51800	325
3.52167	325
3.52533	324
3.52900	322
3.53267	322
3.53633	322
3.54000	323
3.54367	324
3.54733	324
3.55100	323
3.55467	320
3.55833	320
3.56200	322
3.56567	323
3.56933	322
3.57300	322
3.57667	321
3.58033	321
3.58400	318
3.58767	316
3.59133	316
3.59500	315
3.59867	312
3.60233	311
3.60600	312
3.60967	309
3.61333	305
3.61700	302
3.62067	300
3.62433	300
3.62800	300
3.63167	299
3.63533	299
3.63900	296
3.64267	292
3.64633	290
3.65000	290
3.65367	292
3.65733	291
3.66100	288
3.66467	285
3.66833	282
3.67200	280
3.67567	278
3.67933	279
3.68300	279
3.68667	281
3.69033	282
3.69400	281
3.69767	282
3.70133	283
3.70500	282
3.70867	279
3.71233	276
3.71600	273
3.71967	271
3.72333	269
3.72700	268
3.73067	267
3.73433	263
3.73800	261
3.74167	260
3.74533	261
3.74900	262
3.75267	262
3.75633	262
3.76000	261
3.76367	260
3.76733	257
3.77100	254
3.77467	251
3.77833	249
3.78200	248
3.78567	248
3.78933	247
3.79300	246
3.79667	247
3.80033	246
3.80400	246
3.80767	246
3.81133	245
3.81500	244
3.81867	245
3.82233	244
3.82600	242
3.82967	240
3.83333	236
3.83700	234
3.84067	232
3.84433	230
3.84800	227
3.85167	225
3.85533	223
3.85900	224
3.86267	222
3.86633	220
3.87000	220
3.87367	221
3.87733	221
3.88100	218
3.88467	217
3.88833	215
3.89200	211
3.89567	209
3.89933	210
3.90300	210
3.90667	212
3.91033	213
3.91400	212
3.91767	211
3.92133	209
3.92500	208
3.92867	209
3.93233	209
3.93600	209
3.93967	206
3.94333	202
3.94700	199
3.95067	201
3.95433	202
3.95800	200
3.96167	198
3.96533	197
3.96900	196
3.97267	194
3.97633	192
3.98000	194
3.98367	195
3.98733	196
3.99100	195
3.99467	191
3.99833	191

[Status Trace (Column Oven Temperature)]
Interval(msec)	1000
# of Points	240
Start Time(min)	0.010
End Time(min)	3.994
Intensity Units	
Intensity Multiplier	1
R.Time (min)	Intensity
0.01018	35.03
0.02685	35.03
0.04352	35.02
0.06018	35.01
0.07685	35.01
0.09352	35.00
0.11018	34.99
0.12685	34.99
0.14352	34.98
0.16018	34.98
0.17685	34.97
0.19352	34.98
0.21018	34.97
0.22685	34.98
0.24352	34.98
0.26018	34.97
0.27685	34.98
0.29352	34.98
0.31018	34.99
0.32685	35.00
0.34352	35.00
0.36018	35.01
0.37685	35.00
0.39352	35.00
0.41018	35.00
0.42685	34.99
0.44352	34.99
0.46018	34.99
0.47685	34.99
0.49352	34.99
0.51018	34.99
0.52685	35.00
0.54352	35.00
0.56018	35.00
0.57685	34.99
0.59352	34.99
0.61018	34.99
0.62685	34.98
0.64352	34.98
0.66018	34.98
0.67685	34.99
0.69352	34.99
0.71018	34.99
0.72685	34.99
0.74352	34.99
0.76018	35.00
0.77685	35.00
0.79352	35.01
0.81018	35.00
0.82685	35.00
0.84352	34.99
0.86018	34.99
0.87685	34.99
0.89352	34.98
0.91018	34.98
0.92685	34.98
0.94352	34.97
0.96018	34.99
0.97685	34.99
0.99352	35.00
1.01018	35.01
1.02685	35.00
1.04352	35.00
1.06018	35.00
1.07685	35.00
1.09352	35.00
1.11018	34.99
1.12685	34.99
1.14352	34.99
1.16018	34.99
1.17685	34.99
1.19352	34.99
1.21018	35.00
1.22685	34.99
1.24352	35.00
1.26018	35.01
1.27685	35.01
1.29352	35.00
1.31018	35.00
1.32685	34.98
1.34352	34.98
1.36018	34.98
1.37685	34.98
1.39352	34.99
1.41018	35.00
1.42685	35.00
1.44352	34.99
1.46018	34.99
1.47685	35.00
1.49352	34.99
1.51018	34.99
1.52685	34.99
1.54352	34.98
1.56018	34.99
1.57685	34.99
1.59352	35.01
1.61018	35.07
1.62685	35.21
1.64352	35.40
1.66018	35.66
1.67685	36.01
1.69352	36.37
1.71018	36.71
1.72685	37.05
1.74352	37.39
1.76018	37.72
1.77685	38.06
1.79352	38.37
1.81018	38.69
1.82685	39.02
1.84352	39.37
1.86018	39.69
1.87685	40.01
1.89352	40.34
1.91018	40.68
1.92685	41.00
1.94352	41.33
1.96018	41.65
1.97685	41.98
1.99352	42.30
2.01018	42.62
2.02685	42.94
2.04352	43.28
2.06018	43.62
2.07685	43.92
2.09352	44.25
2.11018	44.58
2.12685	44.92
2.14352	45.24
2.16018	45.57
2.17685	45.90
2.19352	46.22
2.21018	46.54
2.22685	46.86
2.24352	47.20
2.26018	47.53
2.27685	47.87
2.29352	48.23
2.31018	48.53
2.32685	48.88
2.34352	49.19
2.36018	49.47
2.37685	49.65
2.39352	49.69
2.41018	49.68
2.42685	49.69
2.44352	49.70
2.46018	49.71
2.47685	49.71
2.49352	49.72
2.51018	49.74
2.52685	49.74
2.54352	49.76
2.56018	49.77
2.57685	49.79
2.59352	49.81
2.61018	49.82
2.62685	49.82
2.64352	49.82
2.66018	49.84
2.67685	49.85
2.69352	49.85
2.71018	49.86
2.72685	49.85
2.74352	49.85
2.76018	49.86
2.77685	49.87
2.79352	49.87
2.81018	49.88
2.82685	49.87
2.84352	49.87
2.86018	49.86
2.87685	49.88
2.89352	49.89
2.91018	49.91
2.92685	49.92
2.94352	49.92
2.96018	49.94
2.97685	49.96
2.99352	49.98
3.01018	49.99
3.02685	50.00
3.04352	50.01
3.06018	50.01
3.07685	50.02
3.09352	50.02
3.11018	50.04
3.12685	50.05
3.14352	50.05
3.16018	50.05
3.17685	50.05
3.19352	50.06
3.21018	50.06
3.22685	50.07
3.24352	50.07
3.26018	50.08
3.27685	50.08
3.29352	50.09
3.31018	50.09
3.32685	50.09
3.34352	50.10
3.36018	50.10
3.37685	50.10
3.39352	50.11
3.41018	50.10
3.42685	50.09
3.44352	50.09
3.46018	50.07
3.47685	50.06
3.49352	50.05
3.51018	50.05
3.52685	50.04
3.54352	50.04
3.56018	50.04
3.57685	50.05
3.59352	50.06
3.61018	50.06
3.62685	50.07
3.64352	50.06
3.66018	50.06
3.67685	50.06
3.69352	50.05
3.71018	50.06
3.72685	50.06
3.74352	50.06
3.76018	50.06
3.77685	50.05
3.79352	50.05
3.81018	50.05
3.82685	50.05
3.84352	50.05
3.86018	50.04
3.87685	50.03
3.89352	50.03
3.91018	50.04
3.92685	50.04
3.94352	50.04
3.96018	50.05
3.97685	50.05
3.99352	50.05

[Status Trace (Injection Unit Temperature)]
Interval(msec)	1000
# of Points	240
Start Time(min)	0.010
End Time(min)	3.994
Intensity Units	
Intensity Multiplier	1
R.Time (min)	Intensity
0.01018	99.99
0.02685	99.99
0.04352	99.99
0.06018	99.99
0.07685	99.99
0.09352	99.99
0.11018	99.99
0.12685	99.99
0.14352	99.99
0.16018	99.99
0.17685	99.99
0.19352	99.99
0.21018	99.99
0.22685	99.98
0.24352	99.99
0.26018	99.99
0.27685	99.99
0.29352	99.99
0.31018	99.98
0.32685	99.99
0.34352	99.99
0.36018	99.99
0.37685	99.98
0.39352	99.98
0.41018	99.98
0.42685	99.98
0.44352	99.99
0.46018	99.98
0.47685	99.98
0.49352	99.98
0.51018	99.98
0.52685	99.98
0.54352	99.98
0.56018	99.98
0.57685	99.98
0.59352	99.98
0.61018	99.98
0.62685	99.98
0.64352	99.98
0.66018	99.98
0.67685	99.98
0.69352	99.98
0.71018	99.98
0.72685	99.98
0.74352	99.98
0.76018	99.98
0.77685	99.98
0.79352	99.98
0.81018	99.98
0.82685	99.98
0.84352	99.98
0.86018	99.98
0.87685	99.98
0.89352	99.98
0.91018	99.98
0.92685	99.98
0.94352	99.98
0.96018	99.98
0.97685	99.98
0.99352	99.98
1.01018	99.98
1.02685	99.98
1.04352	99.98
1.06018	99.98
1.07685	99.98
1.09352	99.98
1.11018	99.98
1.12685	99.98
1.14352	99.98
1.16018	99.98
1.17685	99.98
1.19352	99.98
1.21018	99.98
1.22685	99.99
1.24352	99.98
1.26018	99.98
1.27685	99.98
1.29352	99.99
1.31018	99.99
1.32685	99.99
1.34352	99.99
1.36018	99.99
1.37685	99.99
1.39352	99.99
1.41018	99.99
1.42685	99.99
1.44352	99.99
1.46018	99.99
1.47685	99.99
1.49352	99.99
1.51018	99.99
1.52685	99.99
1.54352	99.99
1.56018	99.99
1.57685	99.99
1.59352	99.99
1.61018	99.99
1.62685	99.99
1.64352	99.99
1.66018	99.99
1.67685	99.99
1.69352	99.99
1.71018	99.99
1.72685	99.99
1.74352	99.99
1.76018	99.99
1.77685	99.99
1.79352	99.99
1.81018	99.99
1.82685	99.99
1.84352	99.99
1.86018	99.99
1.87685	99.99
1.89352	99.99
1.91018	99.99
1.92685	99.98
1.94352	99.98
1.96018	99.99
1.97685	99.98
1.99352	99.98
2.01018	99.98
2.02685	99.98
2.04352	99.98
2.06018	99.98
2.07685	99.98
2.09352	99.98
2.11018	99.98
2.12685	99.98
2.14352	99.98
2.16018	99.98
2.17685	99.98
2.19352	99.98
2.21018	99.97
2.22685	99.98
2.24352	99.98
2.26018	99.98
2.27685	99.97
2.29352	99.98
2.31018	99.97
2.32685	99.98
2.34352	99.97
2.36018	99.98
2.37685	99.97
2.39352	99.97
2.41018	99.97
2.42685	99.97
2.44352	99.98
2.46018	99.98
2.47685	99.98
2.49352	99.98
2.51018	99.97
2.52685	99.98
2.54352	99.98
2.56018	99.98
2.57685	99.98
2.59352	99.98
2.61018	99.98
2.62685	99.98
2.64352	99.98
2.66018	99.99
2.67685	99.99
2.69352	99.99
2.71018	99.99
2.72685	99.99
2.74352	99.99
2.76018	99.99
2.77685	100.00
2.79352	99.99
2.81018	100.00
2.82685	100.00
2.84352	100.00
2.86018	100.00
2.87685	100.00
2.89352	100.01
2.91018	100.01
2.92685	100.01
2.94352	100.01
2.96018	100.01
2.97685	100.01
2.99352	100.01
3.01018	100.02
3.02685	100.02
3.04352	100.02
3.06018	100.01
3.07685	100.02
3.09352	100.02
3.11018	100.02
3.12685	100.02
3.14352	100.03
3.16018	100.02
3.17685	100.02
3.19352	100.03
3.21018	100.03
3.22685	100.03
3.24352	100.03
3.26018	100.03
3.27685	100.03
3.29352	100.03
3.31018	100.04
3.32685	100.03
3.34352	100.03
3.36018	100.04
3.37685	100.03
3.39352	100.04
3.41018	100.04
3.42685	100.04
3.44352	100.04
3.46018	100.04
3.47685	100.04
3.49352	100.04
3.51018	100.04
3.52685	100.03
3.54352	100.04
3.56018	100.04
3.57685	100.04
3.59352	100.04
3.61018	100.04
3.62685	100.04
3.64352	100.04
3.66018	100.04
3.67685	100.04
3.69352	100.04
3.71018	100.05
3.72685	100.05
3.74352	100.04
3.76018	100.05
3.77685	100.05
3.79352	100.05
3.81018	100.04
3.82685	100.05
3.84352	100.05
3.86018	100.05
3.87685	100.04
3.89352	100.05
3.91018	100.05
3.92685	100.04
3.94352	100.05
3.96018	100.05
3.97685	100.05
3.99352	100.04

[Status Trace (Carrier Gas Pressure)]
Interval(msec)	1000
# of Points	240
Start Time(min)	0.010
End Time(min)	3.994
Intensity Units	
Intensity Multiplier	1
R.Time (min)	Intensity
0.01018	58.00
0.02685	55.11
0.04352	57.29
0.06018	59.42
0.07685	59.22
0.09352	58.04
0.11018	57.99
0.12685	58.01
0.14352	58.01
0.16018	58.00
0.17685	58.00
0.19352	58.00
0.21018	58.00
0.22685	58.00
0.24352	58.00
0.26018	58.00
0.27685	58.00
0.29352	58.00
0.31018	58.00
0.32685	58.00
0.34352	58.00
0.36018	58.00
0.37685	58.00
0.39352	58.00
0.41018	58.00
0.42685	58.00
0.44352	58.00
0.46018	58.00
0.47685	58.00
0.49352	58.00
0.51018	58.00
0.52685	58.00
0.54352	58.00
0.56018	58.00
0.57685	58.00
0.59352	58.00
0.61018	58.00
0.62685	58.00
0.64352	58.00
0.66018	58.00
0.67685	58.00
0.69352	58.00
0.71018	58.00
0.72685	58.00
0.74352	58.00
0.76018	58.00
0.77685	58.00
0.79352	58.00
0.81018	58.00
0.82685	58.00
0.84352	58.00
0.86018	58.00
0.87685	58.00
0.89352	58.00
0.91018	58.00
0.92685	58.00
0.94352	58.00
0.96018	58.00
0.97685	58.00
0.99352	58.00
1.01018	58.00
1.02685	58.00
1.04352	58.00
1.06018	58.00
1.07685	58.00
1.09352	58.00
1.11018	58.00
1.12685	58.00
1.14352	58.00
1.16018	58.00
1.17685	58.00
1.19352	58.00
1.21018	58.00
1.22685	58.00
1.24352	58.00
1.26018	58.00
1.27685	58.00
1.29352	58.00
1.31018	58.00
1.32685	58.00
1.34352	58.00
1.36018	58.00
1.37685	58.00
1.39352	58.00
1.41018	58.00
1.42685	58.00
1.44352	58.00
1.46018	58.00
1.47685	58.00
1.49352	58.00
1.51018	58.00
1.52685	58.00
1.54352	58.00
1.56018	58.00
1.57685	58.00
1.59352	58.00
1.61018	58.00
1.62685	58.01
1.64352	58.00
1.66018	58.00
1.67685	58.01
1.69352	58.00
1.71018	58.00
1.72685	58.00
1.74352	58.00
1.76018	58.00
1.77685	58.00
1.79352	58.00
1.81018	58.00
1.82685	58.00
1.84352	58.00
1.86018	58.00
1.87685	58.00
1.89352	58.00
1.91018	58.00
1.92685	58.00
1.94352	58.00
1.96018	58.00
1.97685	58.00
1.99352	58.00
2.01018	58.00
2.02685	58.00
2.04352	58.00
2.06018	58.00
2.07685	58.00
2.09352	58.00
2.11018	58.00
2.12685	58.00
2.14352	58.00
2.16018	58.00
2.17685	58.00
2.19352	58.00
2.21018	58.00
2.22685	58.00
2.24352	58.00
2.26018	58.00
2.27685	58.00
2.29352	58.00
2.31018	58.00
2.32685	58.00
2.34352	58.00
2.36018	58.00
2.37685	58.00
2.39352	57.99
2.41018	57.99
2.42685	58.00
2.44352	58.00
2.46018	58.00
2.47685	58.00
2.49352	58.00
2.51018	57.99
2.52685	57.98
2.54352	58.00
2.56018	58.00
2.57685	58.00
2.59352	58.00
2.61018	58.00
2.62685	58.00
2.64352	58.00
2.66018	58.00
2.67685	58.00
2.69352	58.00
2.71018	58.00
2.72685	58.00
2.74352	58.00
2.76018	58.00
2.77685	58.00
2.79352	58.00
2.81018	58.00
2.82685	58.00
2.84352	58.00
2.86018	58.00
2.87685	58.00
2.89352	58.00
2.91018	58.00
2.92685	58.00
2.94352	58.00
2.96018	58.00
2.97685	58.00
2.99352	58.00
3.01018	58.00
3.02685	58.00
3.04352	58.00
3.06018	58.00
3.07685	58.00
3.09352	58.00
3.11018	58.00
3.12685	58.00
3.14352	58.00
3.16018	58.00
3.17685	58.00
3.19352	58.00
3.21018	58.00
3.22685	58.00
3.24352	58.00
3.26018	58.00
3.27685	58.00
3.29352	58.00
3.31018	58.00
3.32685	58.00
3.34352	58.00
3.36018	58.00
3.37685	58.00
3.39352	58.00
3.41018	58.00
3.42685	58.00
3.44352	58.00
3.46018	58.00
3.47685	58.00
3.49352	58.00
3.51018	58.00
3.52685	58.00
3.54352	58.00
3.56018	58.00
3.57685	58.00
3.59352	58.00
3.61018	58.00
3.62685	58.00
3.64352	58.00
3.66018	58.00
3.67685	58.00
3.69352	58.00
3.71018	58.00
3.72685	58.00
3.74352	58.00
3.76018	58.00
3.77685	58.00
3.79352	58.00
3.81018	58.00
3.82685	58.00
3.84352	58.00
3.86018	58.00
3.87685	58.00
3.89352	58.00
3.91018	58.00
3.92685	58.00
3.94352	58.00
3.96018	58.00
3.97685	58.00
3.99352	58.00

[Status Trace (Carrier Gas Flow)]
Interval(msec)	1000
# of Points	240
Start Time(min)	0.010
End Time(min)	3.994
Intensity Units	
Intensity Multiplier	1
R.Time (min)	Intensity
0.01018	34.51
0.02685	34.53
0.04352	34.55
0.06018	34.54
0.07685	34.52
0.09352	34.52
0.11018	34.52
0.12685	34.52
0.14352	34.52
0.16018	34.52
0.17685	34.52
0.19352	34.51
0.21018	34.52
0.22685	34.52
0.24352	34.52
0.26018	34.52
0.27685	34.51
0.29352	34.54
0.31018	34.51
0.32685	34.51
0.34352	34.52
0.36018	34.51
0.37685	34.52
0.39352	34.54
0.41018	34.54
0.42685	34.51
0.44352	34.50
0.46018	34.53
0.47685	34.51
0.49352	34.51
0.51018	34.52
0.52685	34.52
0.54352	34.52
0.56018	34.52
0.57685	34.52
0.59352	34.52
0.61018	34.52
0.62685	34.51
0.64352	34.52
0.66018	34.52
0.67685	34.52
0.69352	34.52
0.71018	34.52
0.72685	34.52
0.74352	34.52
0.76018	34.52
0.77685	34.52
0.79352	34.52
0.81018	34.52
0.82685	34.52
0.84352	34.52
0.86018	34.52
0.87685	34.52
0.89352	34.52
0.91018	34.52
0.92685	34.52
0.94352	34.52
0.96018	34.52
0.97685	34.52
0.99352	34.52
1.01018	34.52
1.02685	34.52
1.04352	34.52
1.06018	34.52
1.07685	34.51
1.09352	34.51
1.11018	34.51
1.12685	34.51
1.14352	34.52
1.16018	34.54
1.17685	34.50
1.19352	34.53
1.21018	34.52
1.22685	34.50
1.24352	34.52
1.26018	34.52
1.27685	34.52
1.29352	34.53
1.31018	34.52
1.32685	34.52
1.34352	34.52
1.36018	34.52
1.37685	34.52
1.39352	34.52
1.41018	34.52
1.42685	34.52
1.44352	34.52
1.46018	34.52
1.47685	34.52
1.49352	34.52
1.51018	34.52
1.52685	34.52
1.54352	34.52
1.56018	34.52
1.57685	34.52
1.59352	34.52
1.61018	34.52
1.62685	34.52
1.64352	34.52
1.66018	34.52
1.67685	34.52
1.69352	34.52
1.71018	34.52
1.72685	34.52
1.74352	34.52
1.76018	34.52
1.77685	34.52
1.79352	34.52
1.81018	34.51
1.82685	34.53
1.84352	34.51
1.86018	34.52
1.87685	34.53
1.89352	34.51
1.91018	34.51
1.92685	34.54
1.94352	34.52
1.96018	34.50
1.97685	34.52
1.99352	34.51
2.01018	34.53
2.02685	34.51
2.04352	34.52
2.06018	34.52
2.07685	34.52
2.09352	34.52
2.11018	34.52
2.12685	34.52
2.14352	34.52
2.16018	34.52
2.17685	34.52
2.19352	34.52
2.21018	34.52
2.22685	34.52
2.24352	34.52
2.26018	34.52
2.27685	34.52
2.29352	34.52
2.31018	34.52
2.32685	34.52
2.34352	34.52
2.36018	34.52
2.37685	34.52
2.39352	34.51
2.41018	34.52
2.42685	34.52
2.44352	34.52
2.46018	34.52
2.47685	34.52
2.49352	34.50
2.51018	34.50
2.52685	34.52
2.54352	34.52
2.56018	34.52
2.57685	34.52
2.59352	34.52
2.61018	34.52
2.62685	34.52
2.64352	34.52
2.66018	34.52
2.67685	34.52
2.69352	34.52
2.71018	34.52
2.72685	34.52
2.74352	34.52
2.76018	34.51
2.77685	34.52
2.79352	34.53
2.81018	34.52
2.82685	34.53
2.84352	34.50
2.86018	34.51
2.87685	34.52
2.89352	34.53
2.91018	34.52
2.92685	34.52
2.94352	34.52
2.96018	34.52
2.97685	34.52
2.99352	34.52
3.01018	34.52
3.02685	34.52
3.04352	34.52
3.06018	34.52
3.07685	34.52
3.09352	34.52
3.11018	34.52
3.12685	34.52
3.14352	34.52
3.16018	34.52
3.17685	34.52
3.19352	34.52
3.21018	34.52
3.22685	34.52
3.24352	34.52
3.26018	34.52
3.27685	34.52
3.29352	34.52
3.31018	34.52
3.32685	34.52
3.34352	34.52
3.36018	34.52
3.37685	34.52
3.39352	34.52
3.41018	34.51
3.42685	34.52
3.44352	34.52
3.46018	34.51
3.47685	34.53
3.49352	34.53
3.51018	34.54
3.52685	34.50
3.54352	34.52
3.56018	34.52
3.57685	34.54
3.59352	34.54
3.61018	34.52
3.62685	34.52
3.64352	34.52
3.66018	34.52
3.67685	34.52
3.69352	34.52
3.71018	34.52
3.72685	34.52
3.74352	34.51
3.76018	34.52
3.77685	34.52
3.79352	34.52
3.81018	34.52
3.82685	34.52
3.84352	34.52
3.86018	34.52
3.87685	34.52
3.89352	34.52
3.91018	34.52
3.92685	34.52
3.94352	34.52
3.96018	34.52
3.97685	34.52
3.99352	34.52

[Status Trace (Column Flow)]
Interval(msec)	1000
# of Points	240
Start Time(min)	0.010
End Time(min)	3.994
Intensity Units	
Intensity Multiplier	1
R.Time (min)	Intensity
0.01018	5.51
0.02685	5.18
0.04352	5.43
0.06018	5.68
0.07685	5.65
0.09352	5.52
0.11018	5.51
0.12685	5.51
0.14352	5.51
0.16018	5.51
0.17685	5.51
0.19352	5.51
0.21018	5.51
0.22685	5.51
0.24352	5.51
0.26018	5.51
0.27685	5.51
0.29352	5.51
0.31018	5.51
0.32685	5.51
0.34352	5.51
0.36018	5.51
0.37685	5.51
0.39352	5.51
0.41018	5.51
0.42685	5.51
0.44352	5.51
0.46018	5.51
0.47685	5.51
0.49352	5.51
0.51018	5.51
0.52685	5.51
0.54352	5.51
0.56018	5.51
0.57685	5.51
0.59352	5.51
0.61018	5.51
0.62685	5.51
0.64352	5.51
0.66018	5.51
0.67685	5.51
0.69352	5.51
0.71018	5.51
0.72685	5.51
0.74352	5.51
0.76018	5.51
0.77685	5.51
0.79352	5.51
0.81018	5.51
0.82685	5.51
0.84352	5.51
0.86018	5.51
0.87685	5.51
0.89352	5.51
0.91018	5.51
0.92685	5.51
0.94352	5.51
0.96018	5.51
0.97685	5.51
0.99352	5.51
1.01018	5.51
1.02685	5.51
1.04352	5.51
1.06018	5.51
1.07685	5.51
1.09352	5.51
1.11018	5.51
1.12685	5.51
1.14352	5.51
1.16018	5.51
1.17685	5.51
1.19352	5.51
1.21018	5.51
1.22685	5.51
1.24352	5.51
1.26018	5.51
1.27685	5.51
1.29352	5.51
1.31018	5.51
1.32685	5.51
1.34352	5.51
1.36018	5.51
1.37685	5.51
1.39352	5.51
1.41018	5.51
1.42685	5.51
1.44352	5.51
1.46018	5.51
1.47685	5.51
1.49352	5.51
1.51018	5.51
1.52685	5.51
1.54352	5.51
1.56018	5.51
1.57685	5.51
1.59352	5.51
1.61018	5.51
1.62685	5.51
1.64352	5.50
1.66018	5.49
1.67685	5.48
1.69352	5.47
1.71018	5.46
1.72685	5.45
1.74352	5.44
1.76018	5.43
1.77685	5.42
1.79352	5.41
1.81018	5.40
1.82685	5.39
1.84352	5.38
1.86018	5.37
1.87685	5.36
1.89352	5.35
1.91018	5.34
1.92685	5.33
1.94352	5.32
1.96018	5.31
1.97685	5.30
1.99352	5.29
2.01018	5.28
2.02685	5.27
2.04352	5.26
2.06018	5.25
2.07685	5.24
2.09352	5.23
2.11018	5.22
2.12685	5.21
2.14352	5.20
2.16018	5.19
2.17685	5.18
2.19352	5.18
2.21018	5.17
2.22685	5.16
2.24352	5.15
2.26018	5.14
2.27685	5.13
2.29352	5.12
2.31018	5.11
2.32685	5.10
2.34352	5.09
2.36018	5.08
2.37685	5.08
2.39352	5.08
2.41018	5.08
2.42685	5.08
2.44352	5.08
2.46018	5.08
2.47685	5.08
2.49352	5.08
2.51018	5.08
2.52685	5.07
2.54352	5.08
2.56018	5.08
2.57685	5.07
2.59352	5.07
2.61018	5.07
2.62685	5.07
2.64352	5.07
2.66018	5.07
2.67685	5.07
2.69352	5.07
2.71018	5.07
2.72685	5.07
2.74352	5.07
2.76018	5.07
2.77685	5.07
2.79352	5.07
2.81018	5.07
2.82685	5.07
2.84352	5.07
2.86018	5.07
2.87685	5.07
2.89352	5.07
2.91018	5.07
2.92685	5.07
2.94352	5.07
2.96018	5.07
2.97685	5.07
2.99352	5.07
3.01018	5.07
3.02685	5.07
3.04352	5.07
3.06018	5.07
3.07685	5.07
3.09352	5.07
3.11018	5.07
3.12685	5.07
3.14352	5.07
3.16018	5.07
3.17685	5.07
3.19352	5.07
3.21018	5.07
3.22685	5.07
3.24352	5.07
3.26018	5.07
3.27685	5.07
3.29352	5.07
3.31018	5.07
3.32685	5.07
3.34352	5.07
3.36018	5.07
3.37685	5.07
3.39352	5.07
3.41018	5.07
3.42685	5.07
3.44352	5.07
3.46018	5.07
3.47685	5.07
3.49352	5.07
3.51018	5.07
3.52685	5.07
3.54352	5.07
3.56018	5.07
3.57685	5.07
3.59352	5.07
3.61018	5.07
3.62685	5.07
3.64352	5.07
3.66018	5.07
3.67685	5.07
3.69352	5.07
3.71018	5.07
3.72685	5.07
3.74352	5.07
3.76018	5.07
3.77685	5.07
3.79352	5.07
3.81018	5.07
3.82685	5.07
3.84352	5.07
3.86018	5.07
3.87685	5.07
3.89352	5.07
3.91018	5.07
3.92685	5.07
3.94352	5.07
3.96018	5.07
3.97685	5.07
3.99352	5.07

[Status Trace (Linear Velocity)]
Interval(msec)	1000
# of Points	240
Start Time(min)	0.010
End Time(min)	3.994
Intensity Units	
Intensity Multiplier	1
R.Time (min)	Intensity
0.01018	39.01
0.02685	37.12
0.04352	38.54
0.06018	39.94
0.07685	39.81
0.09352	39.04
0.11018	39.01
0.12685	39.02
0.14352	39.02
0.16018	39.02
0.17685	39.02
0.19352	39.02
0.21018	39.02
0.22685	39.02
0.24352	39.02
0.26018	39.02
0.27685	39.02
0.29352	39.02
0.31018	39.02
0.32685	39.02
0.34352	39.02
0.36018	39.01
0.37685	39.01
0.39352	39.01
0.41018	39.01
0.42685	39.02
0.44352	39.02
0.46018	39.02
0.47685	39.02
0.49352	39.02
0.51018	39.02
0.52685	39.02
0.54352	39.01
0.56018	39.01
0.57685	39.02
0.59352	39.02
0.61018	39.02
0.62685	39.02
0.64352	39.02
0.66018	39.02
0.67685	39.02
0.69352	39.02
0.71018	39.02
0.72685	39.02
0.74352	39.01
0.76018	39.01
0.77685	39.01
0.79352	39.01
0.81018	39.01
0.82685	39.01
0.84352	39.02
0.86018	39.02
0.87685	39.02
0.89352	39.02
0.91018	39.02
0.92685	39.02
0.94352	39.02
0.96018	39.02
0.97685	39.02
0.99352	39.01
1.01018	39.01
1.02685	39.01
1.04352	39.01
1.06018	39.01
1.07685	39.01
1.09352	39.01
1.11018	39.01
1.12685	39.02
1.14352	39.02
1.16018	39.02
1.17685	39.02
1.19352	39.02
1.21018	39.02
1.22685	39.02
1.24352	39.01
1.26018	39.01
1.27685	39.01
1.29352	39.01
1.31018	39.01
1.32685	39.02
1.34352	39.02
1.36018	39.02
1.37685	39.02
1.39352	39.01
1.41018	39.01
1.42685	39.01
1.44352	39.02
1.46018	39.02
1.47685	39.02
1.49352	39.01
1.51018	39.02
1.52685	39.02
1.54352	39.02
1.56018	39.02
1.57685	39.02
1.59352	39.01
1.61018	39.01
1.62685	39.00
1.64352	38.98
1.66018	38.96
1.67685	38.92
1.69352	38.89
1.71018	38.85
1.72685	38.82
1.74352	38.79
1.76018	38.76
1.77685	38.72
1.79352	38.69
1.81018	38.67
1.82685	38.63
1.84352	38.60
1.86018	38.57
1.87685	38.54
1.89352	38.51
1.91018	38.48
1.92685	38.45
1.94352	38.42
1.96018	38.39
1.97685	38.36
1.99352	38.33
2.01018	38.30
2.02685	38.27
2.04352	38.24
2.06018	38.21
2.07685	38.18
2.09352	38.15
2.11018	38.12
2.12685	38.09
2.14352	38.06
2.16018	38.03
2.17685	38.00
2.19352	37.97
2.21018	37.94
2.22685	37.91
2.24352	37.88
2.26018	37.85
2.27685	37.82
2.29352	37.79
2.31018	37.76
2.32685	37.73
2.34352	37.70
2.36018	37.68
2.37685	37.66
2.39352	37.65
2.41018	37.65
2.42685	37.66
2.44352	37.66
2.46018	37.66
2.47685	37.66
2.49352	37.66
2.51018	37.65
2.52685	37.64
2.54352	37.65
2.56018	37.65
2.57685	37.65
2.59352	37.65
2.61018	37.65
2.62685	37.65
2.64352	37.65
2.66018	37.64
2.67685	37.64
2.69352	37.64
2.71018	37.64
2.72685	37.64
2.74352	37.64
2.76018	37.64
2.77685	37.64
2.79352	37.64
2.81018	37.64
2.82685	37.64
2.84352	37.64
2.86018	37.64
2.87685	37.64
2.89352	37.64
2.91018	37.64
2.92685	37.64
2.94352	37.64
2.96018	37.64
2.97685	37.63
2.99352	37.63
3.01018	37.63
3.02685	37.63
3.04352	37.63
3.06018	37.63
3.07685	37.63
3.09352	37.63
3.11018	37.63
3.12685	37.63
3.14352	37.63
3.16018	37.63
3.17685	37.63
3.19352	37.63
3.21018	37.63
3.22685	37.62
3.24352	37.62
3.26018	37.62
3.27685	37.62
3.29352	37.62
3.31018	37.62
3.32685	37.62
3.34352	37.62
3.36018	37.62
3.37685	37.62
3.39352	37.62
3.41018	37.62
3.42685	37.62
3.44352	37.62
3.46018	37.62
3.47685	37.62
3.49352	37.63
3.51018	37.63
3.52685	37.63
3.54352	37.63
3.56018	37.63
3.57685	37.63
3.59352	37.63
3.61018	37.62
3.62685	37.62
3.64352	37.63
3.66018	37.62
3.67685	37.63
3.69352	37.63
3.71018	37.63
3.72685	37.63
3.74352	37.63
3.76018	37.63
3.77685	37.63
3.79352	37.63
3.81018	37.63
3.82685	37.63
3.84352	37.63
3.86018	37.63
3.87685	37.63
3.89352	37.63
3.91018	37.63
3.92685	37.63
3.94352	37.63
3.96018	37.63
3.97685	37.63
3.99352	37.63

