[Header]
Application Name	LabSolutions
Version	5.110
Data File Name	C:\Users\User\Desktop\GC Analyses\Jack\UIC Prairie Sampling\10.19.22\221019_040.gcd
Output Date	1/4/2023
Output Time	2:27:26 PM

[File Information]
Type	Data File
Generated	12/6/2022 11:28:49 AM
Generated by	System Administrator
Modified	12/6/2022 11:33:08 AM
Modified by	System Administrator

[Sample Information]
Operator Name	System Administrator
Acquired	12/6/2022 11:29:07 AM
Sample Type	1:Standard
Level	1
Sample Name	221019_UICPrairie
Sample ID	221019_UICPrairie
ISTD Amount1	1
ISTD Amount2	1
ISTD Amount3	1
ISTD Amount4	1
ISTD Amount5	1
ISTD Amount6	1
ISTD Amount7	1
ISTD Amount8	1
ISTD Amount9	1
ISTD Amount10	1
ISTD Amount11	1
ISTD Amount12	1
ISTD Amount13	1
ISTD Amount14	1
ISTD Amount15	1
ISTD Amount16	1
ISTD Amount17	1
ISTD Amount18	1
ISTD Amount19	1
ISTD Amount20	1
ISTD Amount21	1
ISTD Amount22	1
ISTD Amount23	1
ISTD Amount24	1
ISTD Amount25	1
ISTD Amount26	1
ISTD Amount27	1
ISTD Amount28	1
ISTD Amount29	1
ISTD Amount30	1
ISTD Amount31	1
ISTD Amount32	1
Sample Amount	1
Dilution Factor	1
Vial#	1
Injection Volume	1
Injection Count	1
Bar Code	

[Original Files]
Data File	C:\Users\User\Desktop\GC Analyses\Jack\UIC Prairie Sampling\10.19.22\221019_040.gcd
Method File	C:\LabSolutions\Data\GHG_4min_2022\ghg3_togas_w_acet_4 min_new_int.gcm
Batch File	
Report Format File	c:\LabSolutions\System\DEFAULT.lsr

[File Description]


[Configuration]
Instrument Name	C0B7VH3-Instrument1
Instrument #	1
Line #	1
# of Detectors	3
Detector ID	DET#1	DET#2	DET#3
Detector Name	FID	PTCD	ECD
# of Channels	1	1	1

[Peak Table(Ch1)]
# of Peaks	3
Peak#	R.Time	I.Time	F.Time	Area	Height	A/H	Conc.	Mark	ID#	Name	k'	Plate #	Plate Ht.	Tailing	Resolution	Sep.Factor	Area Ratio	Height Ratio	Conc. %	Norm Conc.
1	1.476	1.435	1.538	10493	4501	2.331	100.000	   	1	CO	0.000	7962	18.839	1.315	0.000	0.000	0	0	16.667	16.667
2	1.571	1.538	1.622	4191	2071	2.023	100.000	 V 	2	CH4	0.065	10993	13.644	0.000	1.512	0.000	0	0	16.667	16.667
3	1.996	1.941	2.491	1443215	675086	2.138	400.000	   	3	CO2	0.353	17326	8.658	1.360	7.054	5.462	0	0	66.667	66.667

[Peak Table(Ch2)]
# of Peaks	0

[Peak Table(Ch3)]
# of Peaks	5
Peak#	R.Time	I.Time	F.Time	Area	Height	A/H	Conc.	Mark	ID#	Name	k'	Plate #	Plate Ht.	Tailing	Resolution	Sep.Factor	Area Ratio	Height Ratio	Conc. %	Norm Conc.
1	2.469	2.400	2.480	667	372	1.794	0.000	   			0.000	4885	30.704	0.000	0.000	0.000	0	0	0.000	0.000
2	2.506	2.480	2.528	1064	402	2.647	0.000	 V 			0.015	1060	141.447	0.000	0.163	0.000	0	0	0.000	0.000
3	2.576	2.528	2.660	2484	473	5.249	0.000	 V 			0.043	2141	70.076	0.000	0.263	2.900	0	0	0.000	0.000
4	2.752	2.660	2.825	1801	242	7.449	0.074	 V 	1	N2O	0.114	722	207.781	0.000	0.557	2.655	0	0	7.366	7.366
5	2.884	2.825	3.217	22652	5427	4.174	0.926	 V 	1	N2O	0.168	12855	11.668	1.712	0.516	1.468	0	0	92.634	92.634

[Compound Results(Ch1)]
# of IDs	6
ID#	Name	R.Time	Area	Height	Conc.	Curve	3rd	2nd	1st	Constant	Area Ratio	Height Ratio	Conc. %	Norm Conc.
1	CO	1.476	10493	4501	100.000	Linear	0.000000e+00	0.000000e+00	1.049335e+002	0.000000e+00	0	0	16.667	16.667
2	CH4	1.571	4191	2071	100.000	Linear	0.000000e+00	0.000000e+00	4.191045e+001	0.000000e+00	0	0	16.667	16.667
3	CO2	1.996	1443215	675086	400.000	Linear	0.000000e+00	0.000000e+00	3.608037e+003	0.000000e+00	0	0	66.667	66.667
4	Ethylene	0.000	0	0	0.000	Linear	0.000000e+00	0.000000e+00	0.000000e+00	0.000000e+00	0	0	0.000	0.000
5	Acetylene	0.000	0	0	0.000	Linear	0.000000e+00	0.000000e+00	0.000000e+00	0.000000e+00	0	0	0.000	0.000
6	Ethane	0.000	0	0	0.000	Linear	0.000000e+00	0.000000e+00	0.000000e+00	0.000000e+00	0	0	0.000	0.000

[Compound Results(Ch2)]
# of IDs	5
ID#	Name	R.Time	Area	Height	Conc.	Curve	3rd	2nd	1st	Constant	Area Ratio	Height Ratio	Conc. %	Norm Conc.
1	Hydrogen	0.000	0	0	0.000	Linear	0.000000e+00	0.000000e+00	0.000000e+00	0.000000e+00	0	0	0.000	0.000
2	Oxygen	0.000	0	0	0.000	Linear	0.000000e+00	0.000000e+00	0.000000e+00	0.000000e+00	0	0	0.000	0.000
3	Nitrogen	0.000	0	0	0.000	Linear	0.000000e+00	0.000000e+00	0.000000e+00	0.000000e+00	0	0	0.000	0.000
4	Methane	0.000	0	0	0.000	Linear	0.000000e+00	0.000000e+00	0.000000e+00	0.000000e+00	0	0	0.000	0.000
5	Carbon Monoxide	0.000	0	0	0.000	Linear	0.000000e+00	0.000000e+00	0.000000e+00	0.000000e+00	0	0	0.000	0.000

[Compound Results(Ch3)]
# of IDs	2
ID#	Name	R.Time	Area	Height	Conc.	Curve	3rd	2nd	1st	Constant	Area Ratio	Height Ratio	Conc. %	Norm Conc.
1	N2O	2.884	24454	5669	1.000	Linear	0.000000e+00	0.000000e+00	2.445372e+004	0.000000e+00	0	0	100.000	100.000
2	SF6	0.000	0	0	0.000	Linear	0.000000e+00	0.000000e+00	0.000000e+00	0.000000e+00	0	0	0.000	0.000

[Group Results(Ch1)]
# of Groups	0

[Group Results(Ch2)]
# of Groups	0

[Group Results(Ch3)]
# of Groups	0

[Chromatogram (Ch1)]
Interval(msec)	220
# of Points	1091
Start Time(min)	0.002
End Time(min)	3.998
R.Time (min)	Intensity
0.00167	-13
0.00533	-7
0.00900	0
0.01267	7
0.01633	14
0.02000	19
0.02367	18
0.02733	12
0.03100	2
0.03467	-7
0.03833	-12
0.04200	-12
0.04567	-7
0.04933	-0
0.05300	3
0.05667	1
0.06033	0
0.06400	1
0.06767	3
0.07133	4
0.07500	3
0.07867	2
0.08233	4
0.08600	7
0.08967	11
0.09333	13
0.09700	12
0.10067	7
0.10433	-1
0.10800	-9
0.11167	-13
0.11533	-12
0.11900	-12
0.12267	-16
0.12633	-23
0.13000	-28
0.13367	-27
0.13733	-24
0.14100	-19
0.14467	-13
0.14833	-10
0.15200	-8
0.15567	-9
0.15933	-14
0.16300	-18
0.16667	-19
0.17033	-16
0.17400	-12
0.17767	-8
0.18133	-8
0.18500	-10
0.18867	-14
0.19233	-18
0.19600	-21
0.19967	-23
0.20333	-28
0.20700	-32
0.21067	-37
0.21433	-39
0.21800	-37
0.22167	-32
0.22533	-25
0.22900	-20
0.23267	-20
0.23633	-24
0.24000	-28
0.24367	-27
0.24733	-21
0.25100	-12
0.25467	-6
0.25833	-3
0.26200	-4
0.26567	-8
0.26933	-12
0.27300	-15
0.27667	-16
0.28033	-17
0.28400	-20
0.28767	-22
0.29133	-23
0.29500	-24
0.29867	-25
0.30233	-32
0.30600	-45
0.30967	-56
0.31333	-57
0.31700	-51
0.32067	-43
0.32433	-41
0.32800	-44
0.33167	-44
0.33533	-41
0.33900	-33
0.34267	-26
0.34633	-21
0.35000	-18
0.35367	-21
0.35733	-25
0.36100	-26
0.36467	-25
0.36833	-30
0.37200	-39
0.37567	-46
0.37933	-50
0.38300	-49
0.38667	-47
0.39033	-49
0.39400	-49
0.39767	-47
0.40133	-47
0.40500	-49
0.40867	-49
0.41233	-49
0.41600	-49
0.41967	-49
0.42333	-47
0.42700	-43
0.43067	-43
0.43433	-46
0.43800	-49
0.44167	-50
0.44533	-49
0.44900	-52
0.45267	-57
0.45633	-60
0.46000	-58
0.46367	-53
0.46733	-50
0.47100	-46
0.47467	-40
0.47833	-32
0.48200	-24
0.48567	-21
0.48933	-22
0.49300	-23
0.49667	-27
0.50033	-36
0.50400	-48
0.50767	-57
0.51133	-61
0.51500	-62
0.51867	-61
0.52233	-63
0.52600	-67
0.52967	-70
0.53333	-71
0.53700	-70
0.54067	-68
0.54433	-66
0.54800	-60
0.55167	-54
0.55533	-50
0.55900	-48
0.56267	-48
0.56633	-50
0.57000	-49
0.57367	-49
0.57733	-48
0.58100	-46
0.58467	-45
0.58833	-51
0.59200	-60
0.59567	-69
0.59933	-77
0.60300	-85
0.60667	-88
0.61033	-83
0.61400	-75
0.61767	-66
0.62133	-58
0.62500	-54
0.62867	-55
0.63233	-57
0.63600	-62
0.63967	-69
0.64333	-75
0.64700	-77
0.65067	-73
0.65433	-67
0.65800	-64
0.66167	-63
0.66533	-64
0.66900	-66
0.67267	-67
0.67633	-64
0.68000	-60
0.68367	-57
0.68733	-57
0.69100	-58
0.69467	-61
0.69833	-67
0.70200	-72
0.70567	-76
0.70933	-76
0.71300	-70
0.71667	-62
0.72033	-57
0.72400	-57
0.72767	-60
0.73133	-64
0.73500	-70
0.73867	-73
0.74233	-75
0.74600	-76
0.74967	-78
0.75333	-84
0.75700	-90
0.76067	-96
0.76433	-98
0.76800	-96
0.77167	-90
0.77533	-85
0.77900	-80
0.78267	-75
0.78633	-70
0.79000	-66
0.79367	-64
0.79733	-62
0.80100	-59
0.80467	-59
0.80833	-62
0.81200	-67
0.81567	-70
0.81933	-71
0.82300	-70
0.82667	-69
0.83033	-68
0.83400	-67
0.83767	-65
0.84133	-62
0.84500	-60
0.84867	-61
0.85233	-66
0.85600	-71
0.85967	-74
0.86333	-77
0.86700	-83
0.87067	-88
0.87433	-89
0.87800	-85
0.88167	-85
0.88533	-87
0.88900	-89
0.89267	-94
0.89633	-100
0.90000	-105
0.90367	-108
0.90733	-106
0.91100	-95
0.91467	-82
0.91833	-73
0.92200	-67
0.92567	-67
0.92933	-66
0.93300	-65
0.93667	-71
0.94033	-79
0.94400	-82
0.94767	-81
0.95133	-80
0.95500	-83
0.95867	-88
0.96233	-94
0.96600	-97
0.96967	-96
0.97333	-89
0.97700	-79
0.98067	-73
0.98433	-71
0.98800	-72
0.99167	-72
0.99533	-76
0.99900	-82
1.00267	-87
1.00633	-90
1.01000	-94
1.01367	-95
1.01733	-95
1.02100	-94
1.02467	-94
1.02833	-93
1.03200	-95
1.03567	-98
1.03933	-104
1.04300	-112
1.04667	-118
1.05033	-118
1.05400	-117
1.05767	-118
1.06133	-116
1.06500	-111
1.06867	-103
1.07233	-98
1.07600	-96
1.07967	-96
1.08333	-96
1.08700	-98
1.09067	-99
1.09433	-99
1.09800	-95
1.10167	-88
1.10533	-82
1.10900	-83
1.11267	-87
1.11633	-92
1.12000	-95
1.12367	-95
1.12733	-96
1.13100	-95
1.13467	-96
1.13833	-99
1.14200	-100
1.14567	-100
1.14933	-100
1.15300	-100
1.15667	-96
1.16033	-92
1.16400	-89
1.16767	-88
1.17133	-88
1.17500	-92
1.17867	-98
1.18233	-101
1.18600	-101
1.18967	-103
1.19333	-105
1.19700	-107
1.20067	-109
1.20433	-112
1.20800	-113
1.21167	-115
1.21533	-118
1.21900	-121
1.22267	-122
1.22633	-119
1.23000	-115
1.23367	-114
1.23733	-114
1.24100	-111
1.24467	-108
1.24833	-107
1.25200	-109
1.25567	-112
1.25933	-110
1.26300	-106
1.26667	-104
1.27033	-104
1.27400	-104
1.27767	-103
1.28133	-103
1.28500	-103
1.28867	-99
1.29233	-95
1.29600	-99
1.29967	-106
1.30333	-111
1.30700	-115
1.31067	-118
1.31433	-120
1.31800	-123
1.32167	-125
1.32533	-124
1.32900	-120
1.33267	-116
1.33633	-115
1.34000	-113
1.34367	-112
1.34733	-115
1.35100	-120
1.35467	-123
1.35833	-124
1.36200	-126
1.36567	-127
1.36933	-125
1.37300	-122
1.37667	-119
1.38033	-117
1.38400	-115
1.38767	-114
1.39133	-112
1.39500	-107
1.39867	-102
1.40233	-101
1.40600	-104
1.40967	-113
1.41333	-123
1.41700	-131
1.42067	-135
1.42433	-139
1.42800	-142
1.43167	-141
1.43533	-135
1.43900	-112
1.44267	-20
1.44633	194
1.45000	521
1.45367	998
1.45733	1662
1.46100	2426
1.46467	3153
1.46833	3748
1.47200	4168
1.47567	4378
1.47933	4343
1.48300	4053
1.48667	3550
1.49033	2931
1.49400	2306
1.49767	1751
1.50133	1297
1.50500	942
1.50867	678
1.51233	485
1.51600	342
1.51967	237
1.52333	161
1.52700	107
1.53067	66
1.53433	36
1.53800	27
1.54167	64
1.54533	199
1.54900	466
1.55267	833
1.55633	1221
1.56000	1561
1.56367	1814
1.56733	1961
1.57100	1976
1.57467	1840
1.57833	1571
1.58200	1236
1.58567	905
1.58933	624
1.59300	403
1.59667	240
1.60033	128
1.60400	54
1.60767	5
1.61133	-30
1.61500	-54
1.61867	-71
1.62233	-80
1.62600	-83
1.62967	-84
1.63333	-84
1.63700	-85
1.64067	-91
1.64433	-101
1.64800	-110
1.65167	-117
1.65533	-122
1.65900	-124
1.66267	-121
1.66633	-121
1.67000	-121
1.67367	-123
1.67733	-126
1.68100	-122
1.68467	-114
1.68833	-106
1.69200	-101
1.69567	-100
1.69933	-103
1.70300	-108
1.70667	-115
1.71033	-121
1.71400	-122
1.71767	-117
1.72133	-114
1.72500	-117
1.72867	-120
1.73233	-123
1.73600	-125
1.73967	-128
1.74333	-131
1.74700	-132
1.75067	-129
1.75433	-123
1.75800	-122
1.76167	-125
1.76533	-125
1.76900	-122
1.77267	-121
1.77633	-122
1.78000	-124
1.78367	-123
1.78733	-115
1.79100	-107
1.79467	-104
1.79833	-105
1.80200	-106
1.80567	-105
1.80933	-105
1.81300	-106
1.81667	-108
1.82033	-107
1.82400	-109
1.82767	-116
1.83133	-125
1.83500	-130
1.83867	-131
1.84233	-130
1.84600	-130
1.84967	-128
1.85333	-125
1.85700	-123
1.86067	-121
1.86433	-121
1.86800	-120
1.87167	-116
1.87533	-113
1.87900	-112
1.88267	-113
1.88633	-114
1.89000	-116
1.89367	-114
1.89733	-112
1.90100	-113
1.90467	-116
1.90833	-120
1.91200	-123
1.91567	-125
1.91933	-125
1.92300	-126
1.92667	-134
1.93033	-144
1.93400	-149
1.93767	-147
1.94133	-140
1.94500	-131
1.94867	-123
1.95233	-107
1.95600	-26
1.95967	465
1.96333	2807
1.96700	11265
1.97067	34704
1.97433	85278
1.97800	171086
1.98167	287531
1.98533	416953
1.98900	536647
1.99267	627072
1.99633	674997
2.00000	674503
2.00367	628306
2.00733	547628
2.01100	449085
2.01467	349428
2.01833	260759
2.02200	188826
2.02567	134229
2.02933	94683
2.03300	66915
2.03667	47788
2.04033	34739
2.04400	25858
2.04767	19786
2.05133	15592
2.05500	12646
2.05867	10530
2.06233	8971
2.06600	7793
2.06967	6880
2.07333	6157
2.07700	5573
2.08067	5090
2.08433	4683
2.08800	4337
2.09167	4040
2.09533	3781
2.09900	3554
2.10267	3355
2.10633	3180
2.11000	3021
2.11367	2875
2.11733	2743
2.12100	2622
2.12467	2508
2.12833	2399
2.13200	2295
2.13567	2199
2.13933	2110
2.14300	2026
2.14667	1950
2.15033	1888
2.15400	1833
2.15767	1779
2.16133	1726
2.16500	1677
2.16867	1632
2.17233	1583
2.17600	1533
2.17967	1484
2.18333	1437
2.18700	1392
2.19067	1351
2.19433	1316
2.19800	1285
2.20167	1255
2.20533	1222
2.20900	1189
2.21267	1153
2.21633	1119
2.22000	1086
2.22367	1058
2.22733	1035
2.23100	1017
2.23467	997
2.23833	979
2.24200	964
2.24567	951
2.24933	937
2.25300	921
2.25667	900
2.26033	873
2.26400	850
2.26767	833
2.27133	821
2.27500	808
2.27867	791
2.28233	771
2.28600	753
2.28967	736
2.29333	718
2.29700	704
2.30067	690
2.30433	678
2.30800	667
2.31167	658
2.31533	647
2.31900	634
2.32267	625
2.32633	616
2.33000	613
2.33367	613
2.33733	612
2.34100	601
2.34467	585
2.34833	574
2.35200	566
2.35567	560
2.35933	552
2.36300	545
2.36667	539
2.37033	534
2.37400	528
2.37767	519
2.38133	511
2.38500	502
2.38867	494
2.39233	485
2.39600	474
2.39967	460
2.40333	448
2.40700	441
2.41067	437
2.41433	434
2.41800	431
2.42167	428
2.42533	425
2.42900	419
2.43267	412
2.43633	407
2.44000	403
2.44367	400
2.44733	396
2.45100	392
2.45467	388
2.45833	385
2.46200	385
2.46567	387
2.46933	384
2.47300	374
2.47667	364
2.48033	361
2.48400	362
2.48767	365
2.49133	366
2.49500	364
2.49867	363
2.50233	361
2.50600	360
2.50967	355
2.51333	347
2.51700	339
2.52067	332
2.52433	328
2.52800	328
2.53167	327
2.53533	325
2.53900	321
2.54267	315
2.54633	306
2.55000	296
2.55367	285
2.55733	277
2.56100	273
2.56467	274
2.56833	275
2.57200	274
2.57567	273
2.57933	275
2.58300	279
2.58667	283
2.59033	283
2.59400	280
2.59767	273
2.60133	264
2.60500	254
2.60867	244
2.61233	234
2.61600	222
2.61967	213
2.62333	210
2.62700	210
2.63067	210
2.63433	213
2.63800	213
2.64167	212
2.64533	212
2.64900	215
2.65267	221
2.65633	226
2.66000	225
2.66367	223
2.66733	223
2.67100	218
2.67467	211
2.67833	204
2.68200	199
2.68567	197
2.68933	194
2.69300	191
2.69667	190
2.70033	190
2.70400	189
2.70767	187
2.71133	181
2.71500	173
2.71867	168
2.72233	167
2.72600	169
2.72967	172
2.73333	173
2.73700	175
2.74067	177
2.74433	177
2.74800	178
2.75167	181
2.75533	180
2.75900	177
2.76267	174
2.76633	167
2.77000	156
2.77367	148
2.77733	143
2.78100	140
2.78467	140
2.78833	141
2.79200	141
2.79567	142
2.79933	144
2.80300	145
2.80667	143
2.81033	140
2.81400	138
2.81767	137
2.82133	136
2.82500	134
2.82867	132
2.83233	129
2.83600	126
2.83967	126
2.84333	130
2.84700	131
2.85067	131
2.85433	129
2.85800	124
2.86167	119
2.86533	117
2.86900	118
2.87267	119
2.87633	120
2.88000	119
2.88367	117
2.88733	115
2.89100	113
2.89467	112
2.89833	112
2.90200	113
2.90567	110
2.90933	108
2.91300	108
2.91667	111
2.92033	114
2.92400	113
2.92767	106
2.93133	98
2.93500	93
2.93867	93
2.94233	92
2.94600	90
2.94967	88
2.95333	85
2.95700	86
2.96067	87
2.96433	87
2.96800	84
2.97167	83
2.97533	86
2.97900	94
2.98267	105
2.98633	111
2.99000	111
2.99367	108
2.99733	106
3.00100	101
3.00467	94
3.00833	89
3.01200	85
3.01567	86
3.01933	91
3.02300	92
3.02667	88
3.03033	83
3.03400	80
3.03767	79
3.04133	79
3.04500	78
3.04867	76
3.05233	71
3.05600	65
3.05967	62
3.06333	61
3.06700	63
3.07067	65
3.07433	70
3.07800	73
3.08167	70
3.08533	65
3.08900	62
3.09267	62
3.09633	62
3.10000	61
3.10367	63
3.10733	69
3.11100	73
3.11467	72
3.11833	70
3.12200	71
3.12567	76
3.12933	82
3.13300	81
3.13667	75
3.14033	67
3.14400	56
3.14767	48
3.15133	45
3.15500	42
3.15867	37
3.16233	33
3.16600	33
3.16967	36
3.17333	43
3.17700	49
3.18067	52
3.18433	52
3.18800	57
3.19167	63
3.19533	64
3.19900	63
3.20267	64
3.20633	66
3.21000	66
3.21367	64
3.21733	59
3.22100	53
3.22467	49
3.22833	49
3.23200	48
3.23567	46
3.23933	42
3.24300	37
3.24667	28
3.25033	21
3.25400	17
3.25767	18
3.26133	19
3.26500	21
3.26867	24
3.27233	29
3.27600	32
3.27967	36
3.28333	40
3.28700	45
3.29067	47
3.29433	45
3.29800	43
3.30167	40
3.30533	34
3.30900	26
3.31267	17
3.31633	13
3.32000	14
3.32367	15
3.32733	17
3.33100	20
3.33467	23
3.33833	26
3.34200	26
3.34567	28
3.34933	32
3.35300	39
3.35667	45
3.36033	50
3.36400	49
3.36767	45
3.37133	35
3.37500	25
3.37867	18
3.38233	15
3.38600	14
3.38967	19
3.39333	24
3.39700	26
3.40067	24
3.40433	20
3.40800	18
3.41167	23
3.41533	26
3.41900	28
3.42267	31
3.42633	35
3.43000	39
3.43367	39
3.43733	34
3.44100	28
3.44467	24
3.44833	21
3.45200	21
3.45567	24
3.45933	27
3.46300	25
3.46667	19
3.47033	12
3.47400	9
3.47767	12
3.48133	17
3.48500	20
3.48867	20
3.49233	21
3.49600	20
3.49967	17
3.50333	14
3.50700	13
3.51067	15
3.51433	18
3.51800	19
3.52167	16
3.52533	12
3.52900	7
3.53267	3
3.53633	4
3.54000	9
3.54367	17
3.54733	22
3.55100	20
3.55467	15
3.55833	10
3.56200	5
3.56567	0
3.56933	-1
3.57300	-1
3.57667	2
3.58033	5
3.58400	6
3.58767	5
3.59133	1
3.59500	-4
3.59867	-9
3.60233	-17
3.60600	-20
3.60967	-17
3.61333	-11
3.61700	-5
3.62067	-0
3.62433	5
3.62800	10
3.63167	10
3.63533	8
3.63900	3
3.64267	-3
3.64633	-8
3.65000	-12
3.65367	-15
3.65733	-14
3.66100	-11
3.66467	-8
3.66833	-5
3.67200	0
3.67567	3
3.67933	5
3.68300	7
3.68667	12
3.69033	18
3.69400	22
3.69767	20
3.70133	18
3.70500	18
3.70867	13
3.71233	4
3.71600	-3
3.71967	-6
3.72333	-4
3.72700	2
3.73067	12
3.73433	19
3.73800	17
3.74167	7
3.74533	-2
3.74900	-6
3.75267	-6
3.75633	-5
3.76000	-2
3.76367	2
3.76733	4
3.77100	2
3.77467	-4
3.77833	-12
3.78200	-22
3.78567	-30
3.78933	-31
3.79300	-30
3.79667	-25
3.80033	-19
3.80400	-15
3.80767	-12
3.81133	-8
3.81500	-2
3.81867	4
3.82233	6
3.82600	5
3.82967	5
3.83333	4
3.83700	1
3.84067	-2
3.84433	-6
3.84800	-11
3.85167	-14
3.85533	-18
3.85900	-19
3.86267	-19
3.86633	-21
3.87000	-20
3.87367	-17
3.87733	-14
3.88100	-13
3.88467	-16
3.88833	-23
3.89200	-27
3.89567	-27
3.89933	-25
3.90300	-21
3.90667	-14
3.91033	-8
3.91400	-3
3.91767	-0
3.92133	-6
3.92500	-17
3.92867	-28
3.93233	-35
3.93600	-39
3.93967	-38
3.94333	-32
3.94700	-24
3.95067	-18
3.95433	-13
3.95800	-9
3.96167	-5
3.96533	-4
3.96900	-5
3.97267	-9
3.97633	-14
3.98000	-17
3.98367	-17
3.98733	-18
3.99100	-21
3.99467	-23
3.99833	-23

[Chromatogram (Ch2)]
Interval(msec)	220
# of Points	1091
Start Time(min)	0.002
End Time(min)	3.998
R.Time (min)	Intensity
0.00167	-1
0.00533	-1
0.00900	-0
0.01267	-0
0.01633	-0
0.02000	0
0.02367	0
0.02733	0
0.03100	1
0.03467	1
0.03833	1
0.04200	1
0.04567	0
0.04933	0
0.05300	0
0.05667	0
0.06033	0
0.06400	0
0.06767	0
0.07133	1
0.07500	1
0.07867	1
0.08233	1
0.08600	1
0.08967	1
0.09333	1
0.09700	1
0.10067	1
0.10433	1
0.10800	1
0.11167	1
0.11533	1
0.11900	1
0.12267	1
0.12633	1
0.13000	1
0.13367	1
0.13733	1
0.14100	0
0.14467	0
0.14833	0
0.15200	-0
0.15567	-0
0.15933	-0
0.16300	-1
0.16667	-1
0.17033	-1
0.17400	-1
0.17767	-1
0.18133	-1
0.18500	-0
0.18867	-0
0.19233	0
0.19600	0
0.19967	0
0.20333	0
0.20700	-0
0.21067	-0
0.21433	-0
0.21800	-1
0.22167	-1
0.22533	-1
0.22900	-1
0.23267	-1
0.23633	-1
0.24000	-1
0.24367	-1
0.24733	-1
0.25100	-1
0.25467	-1
0.25833	-1
0.26200	-1
0.26567	-1
0.26933	-1
0.27300	-1
0.27667	-1
0.28033	-1
0.28400	-2
0.28767	-2
0.29133	-2
0.29500	-2
0.29867	-2
0.30233	-2
0.30600	-1
0.30967	-1
0.31333	-1
0.31700	-1
0.32067	-1
0.32433	-1
0.32800	-1
0.33167	-1
0.33533	-1
0.33900	-1
0.34267	-1
0.34633	-1
0.35000	-1
0.35367	-1
0.35733	-1
0.36100	-1
0.36467	-1
0.36833	-1
0.37200	-1
0.37567	-1
0.37933	-1
0.38300	-1
0.38667	-1
0.39033	-1
0.39400	-0
0.39767	-1
0.40133	-1
0.40500	-1
0.40867	-1
0.41233	-1
0.41600	-1
0.41967	-1
0.42333	-1
0.42700	-1
0.43067	-1
0.43433	-1
0.43800	-1
0.44167	-1
0.44533	-1
0.44900	-1
0.45267	-1
0.45633	-1
0.46000	-1
0.46367	-1
0.46733	-1
0.47100	-1
0.47467	-1
0.47833	-0
0.48200	-0
0.48567	-0
0.48933	-0
0.49300	0
0.49667	0
0.50033	0
0.50400	-0
0.50767	-0
0.51133	-1
0.51500	-1
0.51867	-1
0.52233	-1
0.52600	-1
0.52967	-1
0.53333	-1
0.53700	-1
0.54067	-1
0.54433	-1
0.54800	-1
0.55167	-1
0.55533	-0
0.55900	-0
0.56267	-0
0.56633	-0
0.57000	0
0.57367	0
0.57733	-0
0.58100	-0
0.58467	-0
0.58833	-0
0.59200	-0
0.59567	-0
0.59933	-1
0.60300	-1
0.60667	-1
0.61033	-1
0.61400	-1
0.61767	-0
0.62133	-0
0.62500	-1
0.62867	-1
0.63233	-1
0.63600	-1
0.63967	-2
0.64333	-2
0.64700	-2
0.65067	-2
0.65433	-2
0.65800	-2
0.66167	-1
0.66533	-1
0.66900	-1
0.67267	-1
0.67633	-1
0.68000	-1
0.68367	-1
0.68733	-1
0.69100	-1
0.69467	-1
0.69833	-2
0.70200	-2
0.70567	-2
0.70933	-2
0.71300	-2
0.71667	-2
0.72033	-2
0.72400	-2
0.72767	-2
0.73133	-2
0.73500	-2
0.73867	-2
0.74233	-2
0.74600	-2
0.74967	-2
0.75333	-2
0.75700	-2
0.76067	-2
0.76433	-2
0.76800	-2
0.77167	-2
0.77533	-2
0.77900	-2
0.78267	-2
0.78633	-2
0.79000	-2
0.79367	-2
0.79733	-2
0.80100	-2
0.80467	-2
0.80833	-2
0.81200	-2
0.81567	-2
0.81933	-2
0.82300	-2
0.82667	-2
0.83033	-2
0.83400	-2
0.83767	-2
0.84133	-2
0.84500	-2
0.84867	-2
0.85233	-2
0.85600	-2
0.85967	-2
0.86333	-2
0.86700	-2
0.87067	-2
0.87433	-2
0.87800	-2
0.88167	-2
0.88533	-2
0.88900	-2
0.89267	-2
0.89633	-2
0.90000	-2
0.90367	-2
0.90733	-2
0.91100	-2
0.91467	-2
0.91833	-2
0.92200	-2
0.92567	-2
0.92933	-2
0.93300	-2
0.93667	-1
0.94033	-1
0.94400	-1
0.94767	-1
0.95133	-1
0.95500	-1
0.95867	-1
0.96233	-1
0.96600	-1
0.96967	-1
0.97333	-1
0.97700	-1
0.98067	-1
0.98433	-1
0.98800	-1
0.99167	-1
0.99533	-1
0.99900	-1
1.00267	-1
1.00633	-1
1.01000	-1
1.01367	-1
1.01733	-1
1.02100	-1
1.02467	-1
1.02833	-1
1.03200	-1
1.03567	-1
1.03933	-0
1.04300	-0
1.04667	-0
1.05033	-0
1.05400	-1
1.05767	-1
1.06133	-1
1.06500	-1
1.06867	-1
1.07233	-1
1.07600	-1
1.07967	-1
1.08333	-1
1.08700	-1
1.09067	-1
1.09433	-1
1.09800	-1
1.10167	-1
1.10533	-1
1.10900	-1
1.11267	-1
1.11633	-1
1.12000	-2
1.12367	-2
1.12733	-2
1.13100	-2
1.13467	-2
1.13833	-2
1.14200	-3
1.14567	-3
1.14933	-3
1.15300	-3
1.15667	-3
1.16033	-3
1.16400	-3
1.16767	-3
1.17133	-3
1.17500	-3
1.17867	-3
1.18233	-2
1.18600	-2
1.18967	-2
1.19333	-2
1.19700	-2
1.20067	-2
1.20433	-2
1.20800	-2
1.21167	-2
1.21533	-1
1.21900	-1
1.22267	-1
1.22633	-1
1.23000	-1
1.23367	-1
1.23733	-1
1.24100	-1
1.24467	-1
1.24833	-1
1.25200	-1
1.25567	-1
1.25933	-2
1.26300	-2
1.26667	-2
1.27033	-2
1.27400	-3
1.27767	-3
1.28133	-3
1.28500	-3
1.28867	-3
1.29233	-3
1.29600	-3
1.29967	-3
1.30333	-3
1.30700	-2
1.31067	-2
1.31433	-2
1.31800	-2
1.32167	-2
1.32533	-2
1.32900	-2
1.33267	-2
1.33633	-2
1.34000	-2
1.34367	-2
1.34733	-2
1.35100	-3
1.35467	-3
1.35833	-3
1.36200	-3
1.36567	-3
1.36933	-3
1.37300	-3
1.37667	-3
1.38033	-3
1.38400	-3
1.38767	-3
1.39133	-3
1.39500	-3
1.39867	-3
1.40233	-3
1.40600	-3
1.40967	-2
1.41333	-2
1.41700	-2
1.42067	-3
1.42433	-3
1.42800	-2
1.43167	-2
1.43533	-2
1.43900	-2
1.44267	-2
1.44633	-2
1.45000	-2
1.45367	-2
1.45733	-2
1.46100	-3
1.46467	-3
1.46833	-3
1.47200	-3
1.47567	-3
1.47933	-3
1.48300	-3
1.48667	-3
1.49033	-3
1.49400	-3
1.49767	-3
1.50133	-3
1.50500	-3
1.50867	-3
1.51233	-3
1.51600	-3
1.51967	-3
1.52333	-3
1.52700	-3
1.53067	-3
1.53433	-3
1.53800	-2
1.54167	-2
1.54533	-2
1.54900	-1
1.55267	-1
1.55633	-1
1.56000	-1
1.56367	-1
1.56733	-1
1.57100	-1
1.57467	-1
1.57833	-2
1.58200	-2
1.58567	-2
1.58933	-2
1.59300	-2
1.59667	-3
1.60033	-3
1.60400	-4
1.60767	-5
1.61133	-7
1.61500	-9
1.61867	-11
1.62233	-14
1.62600	-17
1.62967	-20
1.63333	-23
1.63700	-27
1.64067	-30
1.64433	-34
1.64800	-38
1.65167	-42
1.65533	-45
1.65900	-49
1.66267	-53
1.66633	-58
1.67000	-62
1.67367	-67
1.67733	-72
1.68100	-77
1.68467	-82
1.68833	-86
1.69200	-90
1.69567	-93
1.69933	-96
1.70300	-98
1.70667	-100
1.71033	-102
1.71400	-103
1.71767	-105
1.72133	-106
1.72500	-108
1.72867	-110
1.73233	-112
1.73600	-113
1.73967	-114
1.74333	-114
1.74700	-115
1.75067	-115
1.75433	-115
1.75800	-115
1.76167	-115
1.76533	-114
1.76900	-114
1.77267	-114
1.77633	-115
1.78000	-115
1.78367	-116
1.78733	-117
1.79100	-117
1.79467	-118
1.79833	-118
1.80200	-118
1.80567	-118
1.80933	-118
1.81300	-118
1.81667	-118
1.82033	-118
1.82400	-118
1.82767	-118
1.83133	-118
1.83500	-118
1.83867	-118
1.84233	-119
1.84600	-119
1.84967	-119
1.85333	-120
1.85700	-119
1.86067	-119
1.86433	-119
1.86800	-118
1.87167	-118
1.87533	-117
1.87900	-118
1.88267	-118
1.88633	-118
1.89000	-118
1.89367	-118
1.89733	-118
1.90100	-117
1.90467	-117
1.90833	-116
1.91200	-116
1.91567	-115
1.91933	-115
1.92300	-115
1.92667	-114
1.93033	-114
1.93400	-114
1.93767	-113
1.94133	-113
1.94500	-113
1.94867	-113
1.95233	-113
1.95600	-113
1.95967	-113
1.96333	-112
1.96700	-112
1.97067	-112
1.97433	-112
1.97800	-112
1.98167	-112
1.98533	-112
1.98900	-112
1.99267	-112
1.99633	-112
2.00000	-112
2.00367	-111
2.00733	-111
2.01100	-110
2.01467	-110
2.01833	-110
2.02200	-110
2.02567	-109
2.02933	-109
2.03300	-109
2.03667	-109
2.04033	-109
2.04400	-108
2.04767	-108
2.05133	-108
2.05500	-107
2.05867	-107
2.06233	-107
2.06600	-107
2.06967	-107
2.07333	-107
2.07700	-107
2.08067	-107
2.08433	-107
2.08800	-107
2.09167	-107
2.09533	-107
2.09900	-106
2.10267	-105
2.10633	-105
2.11000	-104
2.11367	-104
2.11733	-104
2.12100	-103
2.12467	-103
2.12833	-102
2.13200	-101
2.13567	-100
2.13933	-100
2.14300	-99
2.14667	-99
2.15033	-98
2.15400	-98
2.15767	-98
2.16133	-98
2.16500	-98
2.16867	-98
2.17233	-98
2.17600	-98
2.17967	-97
2.18333	-97
2.18700	-96
2.19067	-96
2.19433	-95
2.19800	-95
2.20167	-95
2.20533	-94
2.20900	-94
2.21267	-93
2.21633	-93
2.22000	-93
2.22367	-93
2.22733	-93
2.23100	-93
2.23467	-94
2.23833	-94
2.24200	-94
2.24567	-94
2.24933	-93
2.25300	-93
2.25667	-92
2.26033	-91
2.26400	-90
2.26767	-90
2.27133	-90
2.27500	-90
2.27867	-89
2.28233	-89
2.28600	-88
2.28967	-88
2.29333	-88
2.29700	-87
2.30067	-87
2.30433	-86
2.30800	-86
2.31167	-85
2.31533	-85
2.31900	-84
2.32267	-84
2.32633	-83
2.33000	-82
2.33367	-81
2.33733	-81
2.34100	-81
2.34467	-81
2.34833	-81
2.35200	-80
2.35567	-80
2.35933	-80
2.36300	-80
2.36667	-79
2.37033	-78
2.37400	-76
2.37767	-74
2.38133	-72
2.38500	-69
2.38867	-65
2.39233	-61
2.39600	-57
2.39967	-53
2.40333	-49
2.40700	-44
2.41067	-40
2.41433	-36
2.41800	-32
2.42167	-29
2.42533	-25
2.42900	-22
2.43267	-20
2.43633	-17
2.44000	-16
2.44367	-14
2.44733	-12
2.45100	-11
2.45467	-9
2.45833	-7
2.46200	-5
2.46567	-3
2.46933	-1
2.47300	0
2.47667	2
2.48033	3
2.48400	4
2.48767	5
2.49133	5
2.49500	6
2.49867	7
2.50233	8
2.50600	9
2.50967	9
2.51333	10
2.51700	11
2.52067	12
2.52433	12
2.52800	13
2.53167	13
2.53533	14
2.53900	14
2.54267	14
2.54633	15
2.55000	15
2.55367	15
2.55733	16
2.56100	16
2.56467	17
2.56833	17
2.57200	18
2.57567	18
2.57933	18
2.58300	18
2.58667	17
2.59033	17
2.59400	17
2.59767	17
2.60133	17
2.60500	18
2.60867	18
2.61233	19
2.61600	19
2.61967	20
2.62333	20
2.62700	21
2.63067	21
2.63433	21
2.63800	21
2.64167	21
2.64533	21
2.64900	21
2.65267	21
2.65633	21
2.66000	21
2.66367	21
2.66733	21
2.67100	22
2.67467	22
2.67833	22
2.68200	23
2.68567	23
2.68933	24
2.69300	24
2.69667	24
2.70033	24
2.70400	25
2.70767	25
2.71133	25
2.71500	25
2.71867	25
2.72233	25
2.72600	26
2.72967	26
2.73333	25
2.73700	25
2.74067	25
2.74433	25
2.74800	24
2.75167	24
2.75533	24
2.75900	24
2.76267	24
2.76633	24
2.77000	24
2.77367	25
2.77733	25
2.78100	26
2.78467	26
2.78833	26
2.79200	27
2.79567	27
2.79933	28
2.80300	28
2.80667	28
2.81033	29
2.81400	29
2.81767	29
2.82133	29
2.82500	29
2.82867	29
2.83233	28
2.83600	28
2.83967	28
2.84333	28
2.84700	27
2.85067	27
2.85433	25
2.85800	23
2.86167	20
2.86533	14
2.86900	5
2.87267	-6
2.87633	-21
2.88000	-40
2.88367	-63
2.88733	-90
2.89100	-121
2.89467	-156
2.89833	-194
2.90200	-235
2.90567	-278
2.90933	-324
2.91300	-372
2.91667	-422
2.92033	-472
2.92400	-523
2.92767	-574
2.93133	-625
2.93500	-676
2.93867	-727
2.94233	-776
2.94600	-826
2.94967	-878
2.95333	-935
2.95700	-997
2.96067	-1053
2.96433	-1093
2.96800	-1109
2.97167	-1098
2.97533	-1063
2.97900	-1008
2.98267	-940
2.98633	-862
2.99000	-782
2.99367	-701
2.99733	-622
3.00100	-549
3.00467	-480
3.00833	-418
3.01200	-362
3.01567	-311
3.01933	-267
3.02300	-228
3.02667	-194
3.03033	-165
3.03400	-139
3.03767	-117
3.04133	-98
3.04500	-82
3.04867	-68
3.05233	-56
3.05600	-45
3.05967	-36
3.06333	-29
3.06700	-22
3.07067	-17
3.07433	-12
3.07800	-8
3.08167	-5
3.08533	-2
3.08900	0
3.09267	3
3.09633	5
3.10000	6
3.10367	8
3.10733	9
3.11100	10
3.11467	11
3.11833	12
3.12200	13
3.12567	13
3.12933	14
3.13300	15
3.13667	15
3.14033	16
3.14400	16
3.14767	17
3.15133	17
3.15500	17
3.15867	18
3.16233	18
3.16600	18
3.16967	18
3.17333	19
3.17700	19
3.18067	19
3.18433	20
3.18800	20
3.19167	20
3.19533	20
3.19900	21
3.20267	21
3.20633	21
3.21000	21
3.21367	21
3.21733	21
3.22100	22
3.22467	22
3.22833	22
3.23200	22
3.23567	22
3.23933	22
3.24300	22
3.24667	22
3.25033	22
3.25400	22
3.25767	22
3.26133	22
3.26500	22
3.26867	22
3.27233	23
3.27600	23
3.27967	23
3.28333	23
3.28700	23
3.29067	23
3.29433	24
3.29800	24
3.30167	24
3.30533	24
3.30900	24
3.31267	24
3.31633	24
3.32000	25
3.32367	25
3.32733	26
3.33100	26
3.33467	26
3.33833	27
3.34200	27
3.34567	27
3.34933	27
3.35300	27
3.35667	28
3.36033	28
3.36400	28
3.36767	28
3.37133	28
3.37500	28
3.37867	28
3.38233	29
3.38600	29
3.38967	29
3.39333	29
3.39700	29
3.40067	29
3.40433	29
3.40800	28
3.41167	28
3.41533	28
3.41900	28
3.42267	28
3.42633	28
3.43000	28
3.43367	29
3.43733	29
3.44100	29
3.44467	29
3.44833	29
3.45200	30
3.45567	30
3.45933	30
3.46300	30
3.46667	30
3.47033	30
3.47400	30
3.47767	30
3.48133	30
3.48500	29
3.48867	29
3.49233	29
3.49600	29
3.49967	29
3.50333	28
3.50700	28
3.51067	28
3.51433	28
3.51800	28
3.52167	28
3.52533	28
3.52900	28
3.53267	28
3.53633	28
3.54000	28
3.54367	28
3.54733	28
3.55100	28
3.55467	27
3.55833	27
3.56200	27
3.56567	27
3.56933	27
3.57300	27
3.57667	27
3.58033	27
3.58400	27
3.58767	27
3.59133	27
3.59500	28
3.59867	28
3.60233	28
3.60600	28
3.60967	28
3.61333	29
3.61700	29
3.62067	29
3.62433	29
3.62800	29
3.63167	29
3.63533	29
3.63900	29
3.64267	29
3.64633	29
3.65000	29
3.65367	29
3.65733	29
3.66100	29
3.66467	29
3.66833	29
3.67200	30
3.67567	30
3.67933	29
3.68300	29
3.68667	29
3.69033	29
3.69400	29
3.69767	28
3.70133	28
3.70500	28
3.70867	28
3.71233	28
3.71600	29
3.71967	28
3.72333	28
3.72700	28
3.73067	28
3.73433	29
3.73800	29
3.74167	28
3.74533	28
3.74900	29
3.75267	29
3.75633	29
3.76000	29
3.76367	29
3.76733	29
3.77100	29
3.77467	29
3.77833	29
3.78200	29
3.78567	29
3.78933	29
3.79300	29
3.79667	29
3.80033	29
3.80400	29
3.80767	29
3.81133	29
3.81500	29
3.81867	29
3.82233	28
3.82600	28
3.82967	28
3.83333	29
3.83700	29
3.84067	29
3.84433	29
3.84800	29
3.85167	29
3.85533	29
3.85900	29
3.86267	29
3.86633	29
3.87000	29
3.87367	29
3.87733	29
3.88100	29
3.88467	29
3.88833	29
3.89200	29
3.89567	29
3.89933	29
3.90300	29
3.90667	28
3.91033	28
3.91400	28
3.91767	28
3.92133	28
3.92500	28
3.92867	28
3.93233	28
3.93600	28
3.93967	28
3.94333	28
3.94700	28
3.95067	28
3.95433	28
3.95800	28
3.96167	28
3.96533	29
3.96900	29
3.97267	29
3.97633	28
3.98000	28
3.98367	28
3.98733	28
3.99100	28
3.99467	27
3.99833	27

[Chromatogram (Ch3)]
Interval(msec)	220
# of Points	1091
Start Time(min)	0.002
End Time(min)	3.998
R.Time (min)	Intensity
0.00167	-1
0.00533	-0
0.00900	1
0.01267	1
0.01633	2
0.02000	1
0.02367	-1
0.02733	-2
0.03100	-4
0.03467	-4
0.03833	-4
0.04200	-6
0.04567	-6
0.04933	-6
0.05300	-5
0.05667	-5
0.06033	-5
0.06400	-5
0.06767	-6
0.07133	-6
0.07500	-8
0.07867	-9
0.08233	-10
0.08600	-8
0.08967	-6
0.09333	-5
0.09700	-6
0.10067	-6
0.10433	-7
0.10800	-9
0.11167	-7
0.11533	-3
0.11900	-4
0.12267	-6
0.12633	-9
0.13000	-10
0.13367	-10
0.13733	-10
0.14100	-10
0.14467	-10
0.14833	-11
0.15200	-11
0.15567	-10
0.15933	-7
0.16300	-7
0.16667	-7
0.17033	-6
0.17400	-5
0.17767	-7
0.18133	-7
0.18500	-7
0.18867	-6
0.19233	-6
0.19600	-5
0.19967	-5
0.20333	-5
0.20700	-6
0.21067	-9
0.21433	-10
0.21800	-8
0.22167	-8
0.22533	-6
0.22900	-4
0.23267	-4
0.23633	-4
0.24000	-4
0.24367	-6
0.24733	-9
0.25100	-12
0.25467	-15
0.25833	-16
0.26200	-18
0.26567	-18
0.26933	-17
0.27300	-15
0.27667	-13
0.28033	-14
0.28400	-13
0.28767	-13
0.29133	-14
0.29500	-15
0.29867	-14
0.30233	-15
0.30600	-16
0.30967	-17
0.31333	-19
0.31700	-20
0.32067	-18
0.32433	-17
0.32800	-13
0.33167	-11
0.33533	-11
0.33900	-11
0.34267	-10
0.34633	-9
0.35000	-9
0.35367	-9
0.35733	-8
0.36100	-8
0.36467	-9
0.36833	-12
0.37200	-12
0.37567	-11
0.37933	-11
0.38300	-11
0.38667	-10
0.39033	-8
0.39400	-8
0.39767	-9
0.40133	-10
0.40500	-9
0.40867	-7
0.41233	-7
0.41600	-10
0.41967	-10
0.42333	-10
0.42700	-11
0.43067	-10
0.43433	-7
0.43800	-6
0.44167	-8
0.44533	-9
0.44900	-10
0.45267	-11
0.45633	-13
0.46000	-13
0.46367	-13
0.46733	-11
0.47100	-9
0.47467	-8
0.47833	-9
0.48200	-10
0.48567	-11
0.48933	-12
0.49300	-12
0.49667	-12
0.50033	-14
0.50400	-14
0.50767	-15
0.51133	-15
0.51500	-16
0.51867	-16
0.52233	-17
0.52600	-17
0.52967	-16
0.53333	-14
0.53700	-14
0.54067	-14
0.54433	-14
0.54800	-14
0.55167	-15
0.55533	-17
0.55900	-15
0.56267	-14
0.56633	-13
0.57000	-14
0.57367	-16
0.57733	-15
0.58100	-13
0.58467	-13
0.58833	-15
0.59200	-16
0.59567	-19
0.59933	-18
0.60300	-17
0.60667	-14
0.61033	-14
0.61400	-14
0.61767	-14
0.62133	-14
0.62500	-16
0.62867	-21
0.63233	-23
0.63600	-22
0.63967	-19
0.64333	-18
0.64700	-19
0.65067	-18
0.65433	-15
0.65800	-13
0.66167	-15
0.66533	-17
0.66900	-19
0.67267	-19
0.67633	-19
0.68000	-19
0.68367	-17
0.68733	-18
0.69100	-18
0.69467	-16
0.69833	-16
0.70200	-18
0.70567	-19
0.70933	-17
0.71300	-15
0.71667	-16
0.72033	-15
0.72400	-13
0.72767	-12
0.73133	-14
0.73500	-14
0.73867	-15
0.74233	-18
0.74600	-21
0.74967	-23
0.75333	-23
0.75700	-22
0.76067	-20
0.76433	-19
0.76800	-19
0.77167	-20
0.77533	-20
0.77900	-21
0.78267	-22
0.78633	-22
0.79000	-21
0.79367	-20
0.79733	-19
0.80100	-17
0.80467	-18
0.80833	-20
0.81200	-21
0.81567	-19
0.81933	-19
0.82300	-21
0.82667	-21
0.83033	-21
0.83400	-22
0.83767	-22
0.84133	-24
0.84500	-24
0.84867	-22
0.85233	-23
0.85600	-24
0.85967	-23
0.86333	-21
0.86700	-20
0.87067	-18
0.87433	-19
0.87800	-20
0.88167	-22
0.88533	-22
0.88900	-22
0.89267	-23
0.89633	-24
0.90000	-25
0.90367	-22
0.90733	-20
0.91100	-20
0.91467	-19
0.91833	-20
0.92200	-23
0.92567	-25
0.92933	-25
0.93300	-25
0.93667	-25
0.94033	-23
0.94400	-24
0.94767	-26
0.95133	-27
0.95500	-30
0.95867	-31
0.96233	-31
0.96600	-29
0.96967	-25
0.97333	-25
0.97700	-26
0.98067	-29
0.98433	-30
0.98800	-30
0.99167	-28
0.99533	-26
0.99900	-23
1.00267	-20
1.00633	-21
1.01000	-24
1.01367	-25
1.01733	-25
1.02100	-26
1.02467	-27
1.02833	-25
1.03200	-23
1.03567	-24
1.03933	-23
1.04300	-23
1.04667	-25
1.05033	-26
1.05400	-27
1.05767	-29
1.06133	-30
1.06500	-27
1.06867	-23
1.07233	-22
1.07600	-23
1.07967	-25
1.08333	-25
1.08700	-26
1.09067	-26
1.09433	-26
1.09800	-27
1.10167	-27
1.10533	-27
1.10900	-25
1.11267	-23
1.11633	-22
1.12000	-20
1.12367	-21
1.12733	-24
1.13100	-26
1.13467	-25
1.13833	-24
1.14200	-23
1.14567	-23
1.14933	-23
1.15300	-23
1.15667	-24
1.16033	-23
1.16400	-21
1.16767	-21
1.17133	-23
1.17500	-23
1.17867	-23
1.18233	-27
1.18600	-29
1.18967	-30
1.19333	-31
1.19700	-30
1.20067	-28
1.20433	-25
1.20800	-24
1.21167	-25
1.21533	-25
1.21900	-24
1.22267	-22
1.22633	-23
1.23000	-25
1.23367	-23
1.23733	-22
1.24100	-22
1.24467	-21
1.24833	-22
1.25200	-23
1.25567	-23
1.25933	-23
1.26300	-24
1.26667	-22
1.27033	-19
1.27400	-18
1.27767	-21
1.28133	-24
1.28500	-24
1.28867	-24
1.29233	-23
1.29600	-23
1.29967	-22
1.30333	-21
1.30700	-21
1.31067	-20
1.31433	-21
1.31800	-22
1.32167	-23
1.32533	-24
1.32900	-24
1.33267	-25
1.33633	-26
1.34000	-27
1.34367	-28
1.34733	-28
1.35100	-27
1.35467	-26
1.35833	-25
1.36200	-21
1.36567	-21
1.36933	-22
1.37300	-23
1.37667	-22
1.38033	-22
1.38400	-22
1.38767	-22
1.39133	-22
1.39500	-25
1.39867	-27
1.40233	-29
1.40600	-31
1.40967	-30
1.41333	-31
1.41700	-31
1.42067	-29
1.42433	-28
1.42800	-27
1.43167	-26
1.43533	-25
1.43900	-25
1.44267	-24
1.44633	-26
1.45000	-27
1.45367	-27
1.45733	-27
1.46100	-25
1.46467	-25
1.46833	-26
1.47200	-26
1.47567	-26
1.47933	-26
1.48300	-25
1.48667	-24
1.49033	-25
1.49400	-24
1.49767	-22
1.50133	-20
1.50500	-18
1.50867	-18
1.51233	-21
1.51600	-25
1.51967	-26
1.52333	-28
1.52700	-28
1.53067	-28
1.53433	-28
1.53800	-30
1.54167	-29
1.54533	-29
1.54900	-33
1.55267	-35
1.55633	-33
1.56000	-29
1.56367	-26
1.56733	-26
1.57100	-27
1.57467	-25
1.57833	-22
1.58200	-21
1.58567	-22
1.58933	-23
1.59300	-28
1.59667	-33
1.60033	-33
1.60400	-32
1.60767	-30
1.61133	-30
1.61500	-31
1.61867	-31
1.62233	-31
1.62600	-31
1.62967	-30
1.63333	-29
1.63700	-26
1.64067	-23
1.64433	-21
1.64800	-19
1.65167	-20
1.65533	-21
1.65900	-22
1.66267	-21
1.66633	-22
1.67000	-22
1.67367	-22
1.67733	-21
1.68100	-20
1.68467	-19
1.68833	-19
1.69200	-20
1.69567	-20
1.69933	-22
1.70300	-23
1.70667	-22
1.71033	-20
1.71400	-18
1.71767	-18
1.72133	-18
1.72500	-20
1.72867	-21
1.73233	-21
1.73600	-19
1.73967	-18
1.74333	-16
1.74700	-15
1.75067	-13
1.75433	-12
1.75800	-13
1.76167	-13
1.76533	-11
1.76900	-11
1.77267	-12
1.77633	-12
1.78000	-12
1.78367	-11
1.78733	-10
1.79100	-5
1.79467	-1
1.79833	-2
1.80200	-5
1.80567	-6
1.80933	-7
1.81300	-9
1.81667	-10
1.82033	-10
1.82400	-9
1.82767	-8
1.83133	-8
1.83500	-6
1.83867	-5
1.84233	-5
1.84600	-6
1.84967	-8
1.85333	-9
1.85700	-10
1.86067	-11
1.86433	-9
1.86800	-7
1.87167	-6
1.87533	-7
1.87900	-7
1.88267	-6
1.88633	-8
1.89000	-5
1.89367	-2
1.89733	-0
1.90100	-1
1.90467	-1
1.90833	-0
1.91200	0
1.91567	-0
1.91933	-1
1.92300	-1
1.92667	-3
1.93033	-3
1.93400	-1
1.93767	-1
1.94133	-1
1.94500	1
1.94867	3
1.95233	6
1.95600	6
1.95967	6
1.96333	4
1.96700	3
1.97067	2
1.97433	0
1.97800	1
1.98167	5
1.98533	7
1.98900	9
1.99267	13
1.99633	15
2.00000	16
2.00367	14
2.00733	13
2.01100	13
2.01467	13
2.01833	12
2.02200	13
2.02567	12
2.02933	12
2.03300	12
2.03667	12
2.04033	13
2.04400	15
2.04767	17
2.05133	17
2.05500	19
2.05867	21
2.06233	24
2.06600	26
2.06967	26
2.07333	25
2.07700	24
2.08067	25
2.08433	27
2.08800	29
2.09167	31
2.09533	32
2.09900	31
2.10267	31
2.10633	30
2.11000	29
2.11367	32
2.11733	34
2.12100	36
2.12467	38
2.12833	38
2.13200	37
2.13567	36
2.13933	35
2.14300	36
2.14667	36
2.15033	39
2.15400	43
2.15767	44
2.16133	44
2.16500	45
2.16867	47
2.17233	48
2.17600	49
2.17967	50
2.18333	50
2.18700	48
2.19067	48
2.19433	49
2.19800	50
2.20167	54
2.20533	59
2.20900	62
2.21267	62
2.21633	63
2.22000	63
2.22367	62
2.22733	60
2.23100	62
2.23467	66
2.23833	70
2.24200	73
2.24567	74
2.24933	73
2.25300	71
2.25667	69
2.26033	66
2.26400	65
2.26767	67
2.27133	69
2.27500	71
2.27867	73
2.28233	74
2.28600	75
2.28967	76
2.29333	78
2.29700	81
2.30067	83
2.30433	84
2.30800	83
2.31167	81
2.31533	83
2.31900	88
2.32267	90
2.32633	88
2.33000	89
2.33367	91
2.33733	91
2.34100	91
2.34467	92
2.34833	92
2.35200	94
2.35567	98
2.35933	101
2.36300	104
2.36667	105
2.37033	104
2.37400	103
2.37767	102
2.38133	102
2.38500	101
2.38867	100
2.39233	102
2.39600	104
2.39967	107
2.40333	112
2.40700	117
2.41067	118
2.41433	119
2.41800	121
2.42167	124
2.42533	127
2.42900	128
2.43267	129
2.43633	130
2.44000	132
2.44367	164
2.44733	248
2.45100	344
2.45467	418
2.45833	461
2.46200	490
2.46567	507
2.46933	509
2.47300	499
2.47667	485
2.48033	477
2.48400	480
2.48767	490
2.49133	506
2.49500	522
2.49867	540
2.50233	551
2.50600	555
2.50967	550
2.51333	541
2.51700	533
2.52067	525
2.52433	520
2.52800	519
2.53167	521
2.53533	526
2.53900	534
2.54267	547
2.54633	561
2.55000	574
2.55367	587
2.55733	599
2.56100	611
2.56467	627
2.56833	643
2.57200	654
2.57567	656
2.57933	654
2.58300	647
2.58667	637
2.59033	623
2.59400	608
2.59767	595
2.60133	577
2.60500	557
2.60867	539
2.61233	520
2.61600	495
2.61967	463
2.62333	428
2.62700	394
2.63067	363
2.63433	334
2.63800	310
2.64167	293
2.64533	279
2.64900	271
2.65267	266
2.65633	265
2.66000	266
2.66367	271
2.66733	280
2.67100	290
2.67467	302
2.67833	313
2.68200	323
2.68567	334
2.68933	347
2.69300	361
2.69667	375
2.70033	388
2.70400	398
2.70767	410
2.71133	423
2.71500	434
2.71867	445
2.72233	456
2.72600	466
2.72967	475
2.73333	482
2.73700	488
2.74067	493
2.74433	496
2.74800	498
2.75167	500
2.75533	500
2.75900	498
2.76267	495
2.76633	493
2.77000	490
2.77367	488
2.77733	484
2.78100	480
2.78467	480
2.78833	481
2.79200	482
2.79567	482
2.79933	483
2.80300	482
2.80667	481
2.81033	480
2.81400	479
2.81767	478
2.82133	475
2.82500	475
2.82867	484
2.83233	504
2.83600	547
2.83967	631
2.84333	780
2.84700	1014
2.85067	1353
2.85433	1808
2.85800	2364
2.86167	2994
2.86533	3657
2.86900	4297
2.87267	4860
2.87633	5303
2.88000	5601
2.88367	5742
2.88733	5727
2.89100	5582
2.89467	5333
2.89833	5011
2.90200	4645
2.90567	4263
2.90933	3881
2.91300	3515
2.91667	3170
2.92033	2851
2.92400	2559
2.92767	2298
2.93133	2068
2.93500	1863
2.93867	1682
2.94233	1525
2.94600	1389
2.94967	1270
2.95333	1166
2.95700	1077
2.96067	1002
2.96433	936
2.96800	880
2.97167	830
2.97533	788
2.97900	755
2.98267	729
2.98633	703
2.99000	676
2.99367	654
2.99733	634
3.00100	619
3.00467	606
3.00833	598
3.01200	593
3.01567	588
3.01933	581
3.02300	575
3.02667	569
3.03033	564
3.03400	562
3.03767	560
3.04133	558
3.04500	556
3.04867	555
3.05233	554
3.05600	553
3.05967	551
3.06333	549
3.06700	550
3.07067	547
3.07433	543
3.07800	541
3.08167	541
3.08533	542
3.08900	541
3.09267	540
3.09633	539
3.10000	536
3.10367	532
3.10733	530
3.11100	529
3.11467	530
3.11833	529
3.12200	528
3.12567	525
3.12933	523
3.13300	520
3.13667	515
3.14033	511
3.14400	509
3.14767	506
3.15133	503
3.15500	499
3.15867	496
3.16233	493
3.16600	489
3.16967	484
3.17333	481
3.17700	479
3.18067	477
3.18433	475
3.18800	473
3.19167	471
3.19533	468
3.19900	467
3.20267	464
3.20633	462
3.21000	461
3.21367	460
3.21733	458
3.22100	453
3.22467	447
3.22833	443
3.23200	442
3.23567	440
3.23933	436
3.24300	434
3.24667	433
3.25033	432
3.25400	429
3.25767	427
3.26133	426
3.26500	424
3.26867	421
3.27233	416
3.27600	412
3.27967	408
3.28333	405
3.28700	402
3.29067	399
3.29433	394
3.29800	390
3.30167	389
3.30533	389
3.30900	387
3.31267	385
3.31633	382
3.32000	381
3.32367	376
3.32733	372
3.33100	371
3.33467	369
3.33833	366
3.34200	363
3.34567	360
3.34933	357
3.35300	353
3.35667	351
3.36033	349
3.36400	348
3.36767	345
3.37133	344
3.37500	343
3.37867	340
3.38233	337
3.38600	335
3.38967	335
3.39333	334
3.39700	331
3.40067	326
3.40433	322
3.40800	318
3.41167	314
3.41533	312
3.41900	311
3.42267	309
3.42633	307
3.43000	306
3.43367	303
3.43733	301
3.44100	301
3.44467	297
3.44833	294
3.45200	294
3.45567	296
3.45933	297
3.46300	297
3.46667	296
3.47033	291
3.47400	286
3.47767	282
3.48133	279
3.48500	280
3.48867	282
3.49233	282
3.49600	281
3.49967	278
3.50333	274
3.50700	271
3.51067	270
3.51433	269
3.51800	269
3.52167	269
3.52533	269
3.52900	267
3.53267	265
3.53633	264
3.54000	263
3.54367	261
3.54733	260
3.55100	261
3.55467	260
3.55833	259
3.56200	258
3.56567	257
3.56933	256
3.57300	253
3.57667	250
3.58033	249
3.58400	247
3.58767	245
3.59133	245
3.59500	247
3.59867	250
3.60233	248
3.60600	246
3.60967	246
3.61333	244
3.61700	244
3.62067	242
3.62433	238
3.62800	236
3.63167	233
3.63533	232
3.63900	231
3.64267	231
3.64633	232
3.65000	233
3.65367	231
3.65733	231
3.66100	231
3.66467	231
3.66833	232
3.67200	232
3.67567	230
3.67933	228
3.68300	226
3.68667	224
3.69033	223
3.69400	223
3.69767	223
3.70133	222
3.70500	220
3.70867	220
3.71233	221
3.71600	220
3.71967	216
3.72333	215
3.72700	215
3.73067	214
3.73433	214
3.73800	213
3.74167	213
3.74533	215
3.74900	217
3.75267	217
3.75633	218
3.76000	215
3.76367	214
3.76733	214
3.77100	215
3.77467	215
3.77833	214
3.78200	211
3.78567	212
3.78933	213
3.79300	215
3.79667	213
3.80033	209
3.80400	206
3.80767	204
3.81133	206
3.81500	208
3.81867	209
3.82233	207
3.82600	206
3.82967	206
3.83333	206
3.83700	204
3.84067	204
3.84433	206
3.84800	208
3.85167	209
3.85533	208
3.85900	208
3.86267	209
3.86633	211
3.87000	212
3.87367	210
3.87733	209
3.88100	209
3.88467	208
3.88833	206
3.89200	205
3.89567	206
3.89933	207
3.90300	207
3.90667	209
3.91033	211
3.91400	211
3.91767	207
3.92133	205
3.92500	206
3.92867	207
3.93233	207
3.93600	206
3.93967	206
3.94333	205
3.94700	206
3.95067	206
3.95433	206
3.95800	206
3.96167	207
3.96533	206
3.96900	205
3.97267	205
3.97633	204
3.98000	203
3.98367	203
3.98733	204
3.99100	204
3.99467	199
3.99833	195

[Status Trace (Column Oven Temperature)]
Interval(msec)	1000
# of Points	240
Start Time(min)	0.006
End Time(min)	3.990
Intensity Units	
Intensity Multiplier	1
R.Time (min)	Intensity
0.00628	35.01
0.02295	35.00
0.03962	35.00
0.05628	34.99
0.07295	34.99
0.08962	35.00
0.10628	34.99
0.12295	34.99
0.13962	34.99
0.15628	34.99
0.17295	34.98
0.18962	34.99
0.20628	34.99
0.22295	34.99
0.23962	34.99
0.25628	34.99
0.27295	35.00
0.28962	35.00
0.30628	35.00
0.32295	35.00
0.33962	35.00
0.35628	34.99
0.37295	34.99
0.38962	34.99
0.40628	34.99
0.42295	34.99
0.43962	35.00
0.45628	35.00
0.47295	35.00
0.48962	35.00
0.50628	35.00
0.52295	34.99
0.53962	34.99
0.55628	34.99
0.57295	34.98
0.58962	34.98
0.60628	34.99
0.62295	34.99
0.63962	34.99
0.65628	35.00
0.67295	35.00
0.68962	35.00
0.70628	34.99
0.72295	34.99
0.73962	34.99
0.75628	35.00
0.77295	35.00
0.78962	35.00
0.80628	35.00
0.82295	35.00
0.83962	35.00
0.85628	34.99
0.87295	34.99
0.88962	35.00
0.90628	35.00
0.92295	34.99
0.93962	34.99
0.95628	35.00
0.97295	35.00
0.98962	34.99
1.00628	34.99
1.02295	34.99
1.03962	34.99
1.05628	34.99
1.07295	34.99
1.08962	34.99
1.10628	34.99
1.12295	34.99
1.13962	34.99
1.15628	35.00
1.17295	35.00
1.18962	35.00
1.20628	35.00
1.22295	35.00
1.23962	35.00
1.25628	35.01
1.27295	35.01
1.28962	35.00
1.30628	35.01
1.32295	35.00
1.33962	35.00
1.35628	35.01
1.37295	35.01
1.38962	35.01
1.40628	35.00
1.42295	35.00
1.43962	35.00
1.45628	35.00
1.47295	35.00
1.48962	35.00
1.50628	35.01
1.52295	35.01
1.53962	35.00
1.55628	35.00
1.57295	34.99
1.58962	34.99
1.60628	35.04
1.62295	35.15
1.63962	35.35
1.65628	35.60
1.67295	35.93
1.68962	36.29
1.70628	36.63
1.72295	36.98
1.73962	37.33
1.75628	37.64
1.77295	37.96
1.78962	38.30
1.80628	38.65
1.82295	38.97
1.83962	39.32
1.85628	39.64
1.87295	39.95
1.88962	40.29
1.90628	40.62
1.92295	40.93
1.93962	41.25
1.95628	41.58
1.97295	41.89
1.98962	42.23
2.00628	42.54
2.02295	42.86
2.03962	43.19
2.05628	43.51
2.07295	43.85
2.08962	44.18
2.10628	44.50
2.12295	44.85
2.13962	45.16
2.15628	45.49
2.17295	45.82
2.18962	46.14
2.20628	46.46
2.22295	46.79
2.23962	47.13
2.25628	47.44
2.27295	47.80
2.28962	48.14
2.30628	48.46
2.32295	48.78
2.33962	49.11
2.35628	49.43
2.37295	49.63
2.38962	49.69
2.40628	49.71
2.42295	49.69
2.43962	49.72
2.45628	49.73
2.47295	49.73
2.48962	49.74
2.50628	49.75
2.52295	49.77
2.53962	49.78
2.55628	49.79
2.57295	49.79
2.58962	49.82
2.60628	49.82
2.62295	49.82
2.63962	49.83
2.65628	49.84
2.67295	49.84
2.68962	49.85
2.70628	49.85
2.72295	49.85
2.73962	49.86
2.75628	49.88
2.77295	49.88
2.78962	49.87
2.80628	49.85
2.82295	49.86
2.83962	49.87
2.85628	49.88
2.87295	49.89
2.88962	49.90
2.90628	49.91
2.92295	49.92
2.93962	49.93
2.95628	49.94
2.97295	49.95
2.98962	49.96
3.00628	49.96
3.02295	49.97
3.03962	49.98
3.05628	49.98
3.07295	49.99
3.08962	49.99
3.10628	50.00
3.12295	50.01
3.13962	50.02
3.15628	50.03
3.17295	50.03
3.18962	50.04
3.20628	50.04
3.22295	50.05
3.23962	50.06
3.25628	50.07
3.27295	50.08
3.28962	50.10
3.30628	50.11
3.32295	50.11
3.33962	50.10
3.35628	50.09
3.37295	50.08
3.38962	50.08
3.40628	50.09
3.42295	50.08
3.43962	50.07
3.45628	50.07
3.47295	50.06
3.48962	50.06
3.50628	50.06
3.52295	50.05
3.53962	50.06
3.55628	50.06
3.57295	50.07
3.58962	50.07
3.60628	50.07
3.62295	50.06
3.63962	50.06
3.65628	50.05
3.67295	50.06
3.68962	50.06
3.70628	50.07
3.72295	50.07
3.73962	50.07
3.75628	50.06
3.77295	50.06
3.78962	50.07
3.80628	50.06
3.82295	50.06
3.83962	50.06
3.85628	50.06
3.87295	50.05
3.88962	50.05
3.90628	50.05
3.92295	50.06
3.93962	50.06
3.95628	50.05
3.97295	50.05
3.98962	50.05

[Status Trace (Injection Unit Temperature)]
Interval(msec)	1000
# of Points	240
Start Time(min)	0.006
End Time(min)	3.990
Intensity Units	
Intensity Multiplier	1
R.Time (min)	Intensity
0.00628	99.99
0.02295	99.99
0.03962	99.99
0.05628	99.99
0.07295	99.99
0.08962	99.99
0.10628	99.99
0.12295	99.99
0.13962	99.99
0.15628	99.99
0.17295	99.99
0.18962	99.99
0.20628	99.99
0.22295	99.99
0.23962	99.99
0.25628	99.99
0.27295	99.99
0.28962	99.98
0.30628	99.98
0.32295	99.99
0.33962	99.98
0.35628	99.98
0.37295	99.98
0.38962	99.98
0.40628	99.98
0.42295	99.98
0.43962	99.98
0.45628	99.98
0.47295	99.98
0.48962	99.98
0.50628	99.98
0.52295	99.98
0.53962	99.98
0.55628	99.98
0.57295	99.98
0.58962	99.98
0.60628	99.98
0.62295	99.98
0.63962	99.98
0.65628	99.99
0.67295	99.98
0.68962	99.98
0.70628	99.98
0.72295	99.99
0.73962	99.98
0.75628	99.98
0.77295	99.99
0.78962	99.99
0.80628	99.98
0.82295	99.98
0.83962	99.99
0.85628	99.99
0.87295	99.99
0.88962	99.99
0.90628	99.99
0.92295	99.99
0.93962	99.99
0.95628	99.99
0.97295	99.99
0.98962	99.99
1.00628	99.99
1.02295	99.99
1.03962	99.99
1.05628	99.99
1.07295	99.99
1.08962	99.99
1.10628	99.99
1.12295	99.99
1.13962	99.99
1.15628	99.99
1.17295	99.99
1.18962	99.99
1.20628	99.99
1.22295	99.99
1.23962	99.99
1.25628	99.99
1.27295	99.99
1.28962	99.99
1.30628	99.99
1.32295	99.99
1.33962	99.99
1.35628	99.99
1.37295	99.99
1.38962	99.99
1.40628	100.00
1.42295	99.99
1.43962	100.00
1.45628	99.99
1.47295	99.99
1.48962	99.99
1.50628	100.00
1.52295	99.99
1.53962	99.99
1.55628	99.99
1.57295	99.99
1.58962	99.99
1.60628	99.99
1.62295	99.99
1.63962	99.99
1.65628	99.99
1.67295	99.99
1.68962	99.99
1.70628	99.99
1.72295	99.99
1.73962	99.99
1.75628	99.98
1.77295	99.99
1.78962	99.99
1.80628	99.99
1.82295	99.99
1.83962	99.99
1.85628	99.99
1.87295	99.99
1.88962	99.98
1.90628	99.99
1.92295	99.99
1.93962	99.99
1.95628	99.98
1.97295	99.98
1.98962	99.99
2.00628	99.98
2.02295	99.98
2.03962	99.98
2.05628	99.98
2.07295	99.98
2.08962	99.98
2.10628	99.98
2.12295	99.97
2.13962	99.98
2.15628	99.98
2.17295	99.98
2.18962	99.98
2.20628	99.98
2.22295	99.97
2.23962	99.98
2.25628	99.97
2.27295	99.98
2.28962	99.97
2.30628	99.97
2.32295	99.97
2.33962	99.97
2.35628	99.97
2.37295	99.98
2.38962	99.98
2.40628	99.97
2.42295	99.98
2.43962	99.97
2.45628	99.98
2.47295	99.98
2.48962	99.98
2.50628	99.98
2.52295	99.98
2.53962	99.98
2.55628	99.98
2.57295	99.98
2.58962	99.98
2.60628	99.98
2.62295	99.98
2.63962	99.99
2.65628	99.99
2.67295	99.99
2.68962	99.99
2.70628	99.99
2.72295	99.99
2.73962	99.99
2.75628	99.99
2.77295	99.99
2.78962	100.00
2.80628	100.00
2.82295	100.00
2.83962	100.00
2.85628	100.00
2.87295	100.00
2.88962	100.00
2.90628	100.00
2.92295	100.00
2.93962	100.01
2.95628	100.01
2.97295	100.01
2.98962	100.01
3.00628	100.01
3.02295	100.01
3.03962	100.01
3.05628	100.01
3.07295	100.01
3.08962	100.01
3.10628	100.02
3.12295	100.02
3.13962	100.02
3.15628	100.02
3.17295	100.02
3.18962	100.02
3.20628	100.02
3.22295	100.02
3.23962	100.03
3.25628	100.02
3.27295	100.03
3.28962	100.03
3.30628	100.03
3.32295	100.03
3.33962	100.03
3.35628	100.03
3.37295	100.03
3.38962	100.03
3.40628	100.03
3.42295	100.03
3.43962	100.03
3.45628	100.04
3.47295	100.03
3.48962	100.03
3.50628	100.03
3.52295	100.03
3.53962	100.03
3.55628	100.04
3.57295	100.04
3.58962	100.04
3.60628	100.04
3.62295	100.04
3.63962	100.04
3.65628	100.04
3.67295	100.04
3.68962	100.04
3.70628	100.04
3.72295	100.04
3.73962	100.04
3.75628	100.05
3.77295	100.05
3.78962	100.05
3.80628	100.05
3.82295	100.05
3.83962	100.05
3.85628	100.05
3.87295	100.05
3.88962	100.05
3.90628	100.05
3.92295	100.05
3.93962	100.05
3.95628	100.05
3.97295	100.05
3.98962	100.05

[Status Trace (Carrier Gas Pressure)]
Interval(msec)	1000
# of Points	240
Start Time(min)	0.006
End Time(min)	3.990
Intensity Units	
Intensity Multiplier	1
R.Time (min)	Intensity
0.00628	58.00
0.02295	55.70
0.03962	56.81
0.05628	59.00
0.07295	59.72
0.08962	58.15
0.10628	57.97
0.12295	58.01
0.13962	58.01
0.15628	58.01
0.17295	58.00
0.18962	58.00
0.20628	58.00
0.22295	58.00
0.23962	58.00
0.25628	58.00
0.27295	58.00
0.28962	58.00
0.30628	58.00
0.32295	58.00
0.33962	58.00
0.35628	58.00
0.37295	58.00
0.38962	58.00
0.40628	58.00
0.42295	58.00
0.43962	58.00
0.45628	58.00
0.47295	58.00
0.48962	58.00
0.50628	58.00
0.52295	58.00
0.53962	58.00
0.55628	58.00
0.57295	58.00
0.58962	58.00
0.60628	58.00
0.62295	58.00
0.63962	58.00
0.65628	58.00
0.67295	58.00
0.68962	58.00
0.70628	58.00
0.72295	58.00
0.73962	58.00
0.75628	58.00
0.77295	58.00
0.78962	58.00
0.80628	58.00
0.82295	58.00
0.83962	58.00
0.85628	58.00
0.87295	58.00
0.88962	58.00
0.90628	58.00
0.92295	58.00
0.93962	58.00
0.95628	58.00
0.97295	58.00
0.98962	58.00
1.00628	58.00
1.02295	58.00
1.03962	58.00
1.05628	58.00
1.07295	58.00
1.08962	58.00
1.10628	58.00
1.12295	58.00
1.13962	58.00
1.15628	58.00
1.17295	58.00
1.18962	58.00
1.20628	58.00
1.22295	58.00
1.23962	58.00
1.25628	58.00
1.27295	58.00
1.28962	58.00
1.30628	58.00
1.32295	58.00
1.33962	58.00
1.35628	58.00
1.37295	58.00
1.38962	58.00
1.40628	58.00
1.42295	58.00
1.43962	58.00
1.45628	58.00
1.47295	58.00
1.48962	58.00
1.50628	58.00
1.52295	58.00
1.53962	58.00
1.55628	58.00
1.57295	58.00
1.58962	58.00
1.60628	58.00
1.62295	58.00
1.63962	58.01
1.65628	58.00
1.67295	58.01
1.68962	58.01
1.70628	58.00
1.72295	58.00
1.73962	58.00
1.75628	58.00
1.77295	58.00
1.78962	58.00
1.80628	58.00
1.82295	58.00
1.83962	58.00
1.85628	58.00
1.87295	58.00
1.88962	58.00
1.90628	58.00
1.92295	58.00
1.93962	58.00
1.95628	58.00
1.97295	58.00
1.98962	58.00
2.00628	58.00
2.02295	58.00
2.03962	58.00
2.05628	58.00
2.07295	58.00
2.08962	58.00
2.10628	58.00
2.12295	58.00
2.13962	58.00
2.15628	58.00
2.17295	58.00
2.18962	58.00
2.20628	58.00
2.22295	58.00
2.23962	58.00
2.25628	58.00
2.27295	58.00
2.28962	58.00
2.30628	58.00
2.32295	58.00
2.33962	58.00
2.35628	58.00
2.37295	58.00
2.38962	57.99
2.40628	57.99
2.42295	58.00
2.43962	58.00
2.45628	58.00
2.47295	58.00
2.48962	58.00
2.50628	57.99
2.52295	57.98
2.53962	58.00
2.55628	58.00
2.57295	58.00
2.58962	58.00
2.60628	58.00
2.62295	58.00
2.63962	58.00
2.65628	58.00
2.67295	58.00
2.68962	58.00
2.70628	58.00
2.72295	58.00
2.73962	58.00
2.75628	58.00
2.77295	58.00
2.78962	58.00
2.80628	58.00
2.82295	58.00
2.83962	58.00
2.85628	58.00
2.87295	58.00
2.88962	58.00
2.90628	58.00
2.92295	58.00
2.93962	58.00
2.95628	58.00
2.97295	58.00
2.98962	58.00
3.00628	58.00
3.02295	58.00
3.03962	58.00
3.05628	58.00
3.07295	58.00
3.08962	58.00
3.10628	58.00
3.12295	58.00
3.13962	58.00
3.15628	58.00
3.17295	58.00
3.18962	58.00
3.20628	58.00
3.22295	58.00
3.23962	58.00
3.25628	58.00
3.27295	58.00
3.28962	58.00
3.30628	58.00
3.32295	58.00
3.33962	58.00
3.35628	58.00
3.37295	58.00
3.38962	58.00
3.40628	58.00
3.42295	58.00
3.43962	58.00
3.45628	58.00
3.47295	58.00
3.48962	58.00
3.50628	58.00
3.52295	58.00
3.53962	58.00
3.55628	58.00
3.57295	58.00
3.58962	58.00
3.60628	58.00
3.62295	58.00
3.63962	58.00
3.65628	58.00
3.67295	58.00
3.68962	58.00
3.70628	58.00
3.72295	58.00
3.73962	58.00
3.75628	58.00
3.77295	58.00
3.78962	58.00
3.80628	58.00
3.82295	58.00
3.83962	58.00
3.85628	58.00
3.87295	58.00
3.88962	58.00
3.90628	58.00
3.92295	58.00
3.93962	58.00
3.95628	58.00
3.97295	58.00
3.98962	58.00

[Status Trace (Carrier Gas Flow)]
Interval(msec)	1000
# of Points	240
Start Time(min)	0.006
End Time(min)	3.990
Intensity Units	
Intensity Multiplier	1
R.Time (min)	Intensity
0.00628	34.52
0.02295	34.55
0.03962	34.54
0.05628	34.55
0.07295	34.50
0.08962	34.51
0.10628	34.52
0.12295	34.53
0.13962	34.52
0.15628	34.51
0.17295	34.51
0.18962	34.53
0.20628	34.51
0.22295	34.52
0.23962	34.52
0.25628	34.52
0.27295	34.52
0.28962	34.52
0.30628	34.51
0.32295	34.51
0.33962	34.52
0.35628	34.52
0.37295	34.52
0.38962	34.52
0.40628	34.52
0.42295	34.52
0.43962	34.52
0.45628	34.52
0.47295	34.52
0.48962	34.52
0.50628	34.52
0.52295	34.52
0.53962	34.52
0.55628	34.52
0.57295	34.52
0.58962	34.52
0.60628	34.52
0.62295	34.52
0.63962	34.52
0.65628	34.52
0.67295	34.52
0.68962	34.52
0.70628	34.52
0.72295	34.52
0.73962	34.52
0.75628	34.52
0.77295	34.52
0.78962	34.52
0.80628	34.52
0.82295	34.52
0.83962	34.52
0.85628	34.52
0.87295	34.52
0.88962	34.52
0.90628	34.52
0.92295	34.52
0.93962	34.52
0.95628	34.52
0.97295	34.52
0.98962	34.52
1.00628	34.52
1.02295	34.52
1.03962	34.52
1.05628	34.52
1.07295	34.52
1.08962	34.52
1.10628	34.52
1.12295	34.52
1.13962	34.52
1.15628	34.52
1.17295	34.52
1.18962	34.52
1.20628	34.52
1.22295	34.52
1.23962	34.52
1.25628	34.52
1.27295	34.52
1.28962	34.52
1.30628	34.52
1.32295	34.52
1.33962	34.52
1.35628	34.52
1.37295	34.52
1.38962	34.52
1.40628	34.52
1.42295	34.52
1.43962	34.52
1.45628	34.52
1.47295	34.52
1.48962	34.52
1.50628	34.52
1.52295	34.52
1.53962	34.52
1.55628	34.52
1.57295	34.52
1.58962	34.52
1.60628	34.52
1.62295	34.52
1.63962	34.52
1.65628	34.52
1.67295	34.52
1.68962	34.52
1.70628	34.52
1.72295	34.52
1.73962	34.52
1.75628	34.52
1.77295	34.52
1.78962	34.52
1.80628	34.52
1.82295	34.51
1.83962	34.52
1.85628	34.52
1.87295	34.52
1.88962	34.52
1.90628	34.52
1.92295	34.51
1.93962	34.53
1.95628	34.51
1.97295	34.52
1.98962	34.52
2.00628	34.52
2.02295	34.52
2.03962	34.53
2.05628	34.52
2.07295	34.51
2.08962	34.53
2.10628	34.52
2.12295	34.51
2.13962	34.51
2.15628	34.52
2.17295	34.52
2.18962	34.52
2.20628	34.52
2.22295	34.53
2.23962	34.51
2.25628	34.52
2.27295	34.52
2.28962	34.52
2.30628	34.53
2.32295	34.52
2.33962	34.52
2.35628	34.52
2.37295	34.51
2.38962	34.52
2.40628	34.52
2.42295	34.52
2.43962	34.52
2.45628	34.52
2.47295	34.52
2.48962	34.51
2.50628	34.46
2.52295	34.52
2.53962	34.52
2.55628	34.52
2.57295	34.52
2.58962	34.52
2.60628	34.52
2.62295	34.52
2.63962	34.52
2.65628	34.52
2.67295	34.52
2.68962	34.52
2.70628	34.52
2.72295	34.52
2.73962	34.52
2.75628	34.52
2.77295	34.52
2.78962	34.52
2.80628	34.52
2.82295	34.52
2.83962	34.52
2.85628	34.52
2.87295	34.52
2.88962	34.52
2.90628	34.52
2.92295	34.52
2.93962	34.52
2.95628	34.52
2.97295	34.52
2.98962	34.52
3.00628	34.52
3.02295	34.52
3.03962	34.52
3.05628	34.52
3.07295	34.52
3.08962	34.52
3.10628	34.52
3.12295	34.52
3.13962	34.52
3.15628	34.52
3.17295	34.52
3.18962	34.52
3.20628	34.52
3.22295	34.52
3.23962	34.52
3.25628	34.52
3.27295	34.52
3.28962	34.52
3.30628	34.52
3.32295	34.52
3.33962	34.52
3.35628	34.52
3.37295	34.52
3.38962	34.52
3.40628	34.52
3.42295	34.52
3.43962	34.52
3.45628	34.52
3.47295	34.52
3.48962	34.52
3.50628	34.52
3.52295	34.52
3.53962	34.52
3.55628	34.52
3.57295	34.52
3.58962	34.52
3.60628	34.52
3.62295	34.52
3.63962	34.52
3.65628	34.52
3.67295	34.52
3.68962	34.52
3.70628	34.52
3.72295	34.52
3.73962	34.51
3.75628	34.52
3.77295	34.52
3.78962	34.52
3.80628	34.52
3.82295	34.52
3.83962	34.52
3.85628	34.53
3.87295	34.52
3.88962	34.51
3.90628	34.52
3.92295	34.52
3.93962	34.52
3.95628	34.52
3.97295	34.52
3.98962	34.51

[Status Trace (Column Flow)]
Interval(msec)	1000
# of Points	240
Start Time(min)	0.006
End Time(min)	3.990
Intensity Units	
Intensity Multiplier	1
R.Time (min)	Intensity
0.00628	5.51
0.02295	5.24
0.03962	5.37
0.05628	5.62
0.07295	5.71
0.08962	5.52
0.10628	5.50
0.12295	5.51
0.13962	5.51
0.15628	5.51
0.17295	5.51
0.18962	5.51
0.20628	5.51
0.22295	5.51
0.23962	5.51
0.25628	5.51
0.27295	5.51
0.28962	5.51
0.30628	5.51
0.32295	5.51
0.33962	5.51
0.35628	5.51
0.37295	5.51
0.38962	5.51
0.40628	5.51
0.42295	5.51
0.43962	5.51
0.45628	5.51
0.47295	5.51
0.48962	5.51
0.50628	5.51
0.52295	5.51
0.53962	5.51
0.55628	5.51
0.57295	5.51
0.58962	5.51
0.60628	5.51
0.62295	5.51
0.63962	5.51
0.65628	5.51
0.67295	5.51
0.68962	5.51
0.70628	5.51
0.72295	5.51
0.73962	5.51
0.75628	5.51
0.77295	5.51
0.78962	5.51
0.80628	5.51
0.82295	5.51
0.83962	5.51
0.85628	5.51
0.87295	5.51
0.88962	5.51
0.90628	5.51
0.92295	5.51
0.93962	5.51
0.95628	5.51
0.97295	5.51
0.98962	5.51
1.00628	5.51
1.02295	5.51
1.03962	5.51
1.05628	5.51
1.07295	5.51
1.08962	5.51
1.10628	5.51
1.12295	5.51
1.13962	5.51
1.15628	5.51
1.17295	5.51
1.18962	5.51
1.20628	5.51
1.22295	5.51
1.23962	5.51
1.25628	5.51
1.27295	5.51
1.28962	5.51
1.30628	5.51
1.32295	5.51
1.33962	5.51
1.35628	5.51
1.37295	5.51
1.38962	5.51
1.40628	5.51
1.42295	5.51
1.43962	5.51
1.45628	5.51
1.47295	5.51
1.48962	5.51
1.50628	5.51
1.52295	5.51
1.53962	5.51
1.55628	5.51
1.57295	5.51
1.58962	5.51
1.60628	5.51
1.62295	5.50
1.63962	5.50
1.65628	5.49
1.67295	5.48
1.68962	5.47
1.70628	5.46
1.72295	5.45
1.73962	5.43
1.75628	5.42
1.77295	5.41
1.78962	5.40
1.80628	5.39
1.82295	5.38
1.83962	5.37
1.85628	5.36
1.87295	5.35
1.88962	5.34
1.90628	5.33
1.92295	5.32
1.93962	5.32
1.95628	5.30
1.97295	5.30
1.98962	5.29
2.00628	5.28
2.02295	5.27
2.03962	5.26
2.05628	5.25
2.07295	5.24
2.08962	5.23
2.10628	5.22
2.12295	5.21
2.13962	5.20
2.15628	5.19
2.17295	5.18
2.18962	5.17
2.20628	5.16
2.22295	5.15
2.23962	5.15
2.25628	5.14
2.27295	5.13
2.28962	5.12
2.30628	5.11
2.32295	5.10
2.33962	5.09
2.35628	5.08
2.37295	5.07
2.38962	5.07
2.40628	5.07
2.42295	5.07
2.43962	5.07
2.45628	5.07
2.47295	5.07
2.48962	5.07
2.50628	5.07
2.52295	5.07
2.53962	5.07
2.55628	5.07
2.57295	5.07
2.58962	5.07
2.60628	5.07
2.62295	5.07
2.63962	5.07
2.65628	5.07
2.67295	5.07
2.68962	5.07
2.70628	5.07
2.72295	5.07
2.73962	5.07
2.75628	5.07
2.77295	5.07
2.78962	5.07
2.80628	5.07
2.82295	5.07
2.83962	5.07
2.85628	5.07
2.87295	5.07
2.88962	5.07
2.90628	5.07
2.92295	5.07
2.93962	5.07
2.95628	5.07
2.97295	5.07
2.98962	5.07
3.00628	5.06
3.02295	5.06
3.03962	5.06
3.05628	5.06
3.07295	5.06
3.08962	5.06
3.10628	5.06
3.12295	5.06
3.13962	5.06
3.15628	5.06
3.17295	5.06
3.18962	5.06
3.20628	5.06
3.22295	5.06
3.23962	5.06
3.25628	5.06
3.27295	5.06
3.28962	5.06
3.30628	5.06
3.32295	5.06
3.33962	5.06
3.35628	5.06
3.37295	5.06
3.38962	5.06
3.40628	5.06
3.42295	5.06
3.43962	5.06
3.45628	5.06
3.47295	5.06
3.48962	5.06
3.50628	5.06
3.52295	5.06
3.53962	5.06
3.55628	5.06
3.57295	5.06
3.58962	5.06
3.60628	5.06
3.62295	5.06
3.63962	5.06
3.65628	5.06
3.67295	5.06
3.68962	5.06
3.70628	5.06
3.72295	5.06
3.73962	5.06
3.75628	5.06
3.77295	5.06
3.78962	5.06
3.80628	5.06
3.82295	5.06
3.83962	5.06
3.85628	5.06
3.87295	5.06
3.88962	5.06
3.90628	5.06
3.92295	5.06
3.93962	5.06
3.95628	5.06
3.97295	5.06
3.98962	5.06

[Status Trace (Linear Velocity)]
Interval(msec)	1000
# of Points	240
Start Time(min)	0.006
End Time(min)	3.990
Intensity Units	
Intensity Multiplier	1
R.Time (min)	Intensity
0.00628	39.01
0.02295	37.50
0.03962	38.23
0.05628	39.67
0.07295	40.14
0.08962	39.11
0.10628	39.00
0.12295	39.02
0.13962	39.02
0.15628	39.02
0.17295	39.02
0.18962	39.02
0.20628	39.01
0.22295	39.02
0.23962	39.02
0.25628	39.01
0.27295	39.01
0.28962	39.01
0.30628	39.01
0.32295	39.01
0.33962	39.01
0.35628	39.01
0.37295	39.01
0.38962	39.01
0.40628	39.01
0.42295	39.01
0.43962	39.01
0.45628	39.01
0.47295	39.01
0.48962	39.01
0.50628	39.01
0.52295	39.01
0.53962	39.01
0.55628	39.01
0.57295	39.01
0.58962	39.01
0.60628	39.01
0.62295	39.01
0.63962	39.01
0.65628	39.01
0.67295	39.01
0.68962	39.01
0.70628	39.01
0.72295	39.01
0.73962	39.01
0.75628	39.01
0.77295	39.01
0.78962	39.01
0.80628	39.01
0.82295	39.01
0.83962	39.01
0.85628	39.01
0.87295	39.01
0.88962	39.01
0.90628	39.01
0.92295	39.01
0.93962	39.01
0.95628	39.01
0.97295	39.01
0.98962	39.01
1.00628	39.01
1.02295	39.01
1.03962	39.01
1.05628	39.01
1.07295	39.01
1.08962	39.01
1.10628	39.01
1.12295	39.01
1.13962	39.01
1.15628	39.01
1.17295	39.01
1.18962	39.01
1.20628	39.01
1.22295	39.01
1.23962	39.01
1.25628	39.01
1.27295	39.01
1.28962	39.01
1.30628	39.01
1.32295	39.01
1.33962	39.01
1.35628	39.01
1.37295	39.01
1.38962	39.01
1.40628	39.01
1.42295	39.01
1.43962	39.01
1.45628	39.01
1.47295	39.01
1.48962	39.01
1.50628	39.01
1.52295	39.01
1.53962	39.01
1.55628	39.01
1.57295	39.01
1.58962	39.01
1.60628	39.01
1.62295	39.00
1.63962	38.99
1.65628	38.96
1.67295	38.93
1.68962	38.90
1.70628	38.86
1.72295	38.83
1.73962	38.79
1.75628	38.76
1.77295	38.73
1.78962	38.70
1.80628	38.67
1.82295	38.64
1.83962	38.61
1.85628	38.57
1.87295	38.55
1.88962	38.51
1.90628	38.48
1.92295	38.45
1.93962	38.42
1.95628	38.39
1.97295	38.36
1.98962	38.34
2.00628	38.30
2.02295	38.28
2.03962	38.25
2.05628	38.21
2.07295	38.19
2.08962	38.16
2.10628	38.12
2.12295	38.09
2.13962	38.06
2.15628	38.03
2.17295	38.01
2.18962	37.98
2.20628	37.94
2.22295	37.92
2.23962	37.89
2.25628	37.86
2.27295	37.83
2.28962	37.80
2.30628	37.77
2.32295	37.74
2.33962	37.71
2.35628	37.68
2.37295	37.66
2.38962	37.65
2.40628	37.65
2.42295	37.65
2.43962	37.65
2.45628	37.65
2.47295	37.65
2.48962	37.65
2.50628	37.65
2.52295	37.64
2.53962	37.65
2.55628	37.65
2.57295	37.65
2.58962	37.65
2.60628	37.64
2.62295	37.64
2.63962	37.64
2.65628	37.64
2.67295	37.64
2.68962	37.64
2.70628	37.64
2.72295	37.64
2.73962	37.64
2.75628	37.64
2.77295	37.64
2.78962	37.64
2.80628	37.64
2.82295	37.64
2.83962	37.64
2.85628	37.64
2.87295	37.64
2.88962	37.64
2.90628	37.64
2.92295	37.64
2.93962	37.64
2.95628	37.63
2.97295	37.63
2.98962	37.63
3.00628	37.63
3.02295	37.63
3.03962	37.63
3.05628	37.63
3.07295	37.63
3.08962	37.63
3.10628	37.63
3.12295	37.63
3.13962	37.63
3.15628	37.63
3.17295	37.63
3.18962	37.63
3.20628	37.63
3.22295	37.63
3.23962	37.62
3.25628	37.62
3.27295	37.62
3.28962	37.62
3.30628	37.62
3.32295	37.62
3.33962	37.62
3.35628	37.62
3.37295	37.62
3.38962	37.62
3.40628	37.62
3.42295	37.62
3.43962	37.62
3.45628	37.62
3.47295	37.62
3.48962	37.62
3.50628	37.62
3.52295	37.62
3.53962	37.62
3.55628	37.62
3.57295	37.62
3.58962	37.62
3.60628	37.62
3.62295	37.62
3.63962	37.62
3.65628	37.62
3.67295	37.62
3.68962	37.62
3.70628	37.62
3.72295	37.62
3.73962	37.62
3.75628	37.62
3.77295	37.62
3.78962	37.62
3.80628	37.62
3.82295	37.62
3.83962	37.62
3.85628	37.62
3.87295	37.62
3.88962	37.62
3.90628	37.62
3.92295	37.62
3.93962	37.62
3.95628	37.62
3.97295	37.62
3.98962	37.62

