[Header]
Application Name	LabSolutions
Version	5.110
Data File Name	C:\Users\User\Desktop\GC Analyses\Jack\UIC Prairie Sampling\10.19.22\221019_106.gcd
Output Date	1/4/2023
Output Time	2:27:21 PM

[File Information]
Type	Data File
Generated	12/15/2022 12:17:35 PM
Generated by	System Administrator
Modified	12/15/2022 12:22:07 PM
Modified by	System Administrator

[Sample Information]
Operator Name	System Administrator
Acquired	12/15/2022 12:18:07 PM
Sample Type	1:Standard
Level	1
Sample Name	221019_UICPrairie
Sample ID	221019_UICPrairie
ISTD Amount1	1
ISTD Amount2	1
ISTD Amount3	1
ISTD Amount4	1
ISTD Amount5	1
ISTD Amount6	1
ISTD Amount7	1
ISTD Amount8	1
ISTD Amount9	1
ISTD Amount10	1
ISTD Amount11	1
ISTD Amount12	1
ISTD Amount13	1
ISTD Amount14	1
ISTD Amount15	1
ISTD Amount16	1
ISTD Amount17	1
ISTD Amount18	1
ISTD Amount19	1
ISTD Amount20	1
ISTD Amount21	1
ISTD Amount22	1
ISTD Amount23	1
ISTD Amount24	1
ISTD Amount25	1
ISTD Amount26	1
ISTD Amount27	1
ISTD Amount28	1
ISTD Amount29	1
ISTD Amount30	1
ISTD Amount31	1
ISTD Amount32	1
Sample Amount	1
Dilution Factor	1
Vial#	1
Injection Volume	1
Injection Count	1
Bar Code	

[Original Files]
Data File	C:\Users\User\Desktop\GC Analyses\Jack\UIC Prairie Sampling\10.19.22\221019_106.gcd
Method File	C:\LabSolutions\Data\GHG_4min_2022\ghg3_togas_w_acet_4 min_new_int.gcm
Batch File	
Report Format File	c:\LabSolutions\System\DEFAULT.lsr

[File Description]


[Configuration]
Instrument Name	C0B7VH3-Instrument1
Instrument #	1
Line #	1
# of Detectors	3
Detector ID	DET#1	DET#2	DET#3
Detector Name	FID	PTCD	ECD
# of Channels	1	1	1

[Peak Table(Ch1)]
# of Peaks	3
Peak#	R.Time	I.Time	F.Time	Area	Height	A/H	Conc.	Mark	ID#	Name	k'	Plate #	Plate Ht.	Tailing	Resolution	Sep.Factor	Area Ratio	Height Ratio	Conc. %	Norm Conc.
1	1.476	1.439	1.538	10219	4487	2.277	100.000	   	1	CO	0.000	8353	17.957	1.371	0.000	0.000	0	0	16.667	16.667
2	1.567	1.538	1.622	4466	2249	1.986	100.000	 V 	2	CH4	0.062	11349	13.217	0.000	1.485	0.000	0	0	16.667	16.667
3	2.000	1.952	2.546	1256392	589794	2.130	400.000	   	3	CO2	0.355	17621	8.513	1.230	7.265	5.720	0	0	66.667	66.667

[Peak Table(Ch2)]
# of Peaks	0

[Peak Table(Ch3)]
# of Peaks	4
Peak#	R.Time	I.Time	F.Time	Area	Height	A/H	Conc.	Mark	ID#	Name	k'	Plate #	Plate Ht.	Tailing	Resolution	Sep.Factor	Area Ratio	Height Ratio	Conc. %	Norm Conc.
1	2.462	2.158	2.491	999	337	2.962	0.000	   			0.000	15249	9.837	0.000	0.000	0.000	0	0	0.000	0.000
2	2.579	2.491	2.656	5036	702	7.176	0.000	 V 			0.048	2105	71.264	0.000	0.770	0.000	0	0	0.000	0.000
3	2.741	2.656	2.792	3982	539	7.392	0.099	 V 	1	N2O	0.113	304	493.130	0.000	0.378	2.375	0	0	9.877	9.877
4	2.884	2.792	3.844	36335	5697	6.378	0.901	 V 	1	N2O	0.171	11632	12.896	0.000	0.389	1.513	0	0	90.123	90.123

[Compound Results(Ch1)]
# of IDs	6
ID#	Name	R.Time	Area	Height	Conc.	Curve	3rd	2nd	1st	Constant	Area Ratio	Height Ratio	Conc. %	Norm Conc.
1	CO	1.476	10219	4487	100.000	Linear	0.000000e+00	0.000000e+00	1.021929e+002	0.000000e+00	0	0	16.667	16.667
2	CH4	1.567	4466	2249	100.000	Linear	0.000000e+00	0.000000e+00	4.466314e+001	0.000000e+00	0	0	16.667	16.667
3	CO2	2.000	1256392	589794	400.000	Linear	0.000000e+00	0.000000e+00	3.140981e+003	0.000000e+00	0	0	66.667	66.667
4	Ethylene	0.000	0	0	0.000	Linear	0.000000e+00	0.000000e+00	0.000000e+00	0.000000e+00	0	0	0.000	0.000
5	Acetylene	0.000	0	0	0.000	Linear	0.000000e+00	0.000000e+00	0.000000e+00	0.000000e+00	0	0	0.000	0.000
6	Ethane	0.000	0	0	0.000	Linear	0.000000e+00	0.000000e+00	0.000000e+00	0.000000e+00	0	0	0.000	0.000

[Compound Results(Ch2)]
# of IDs	5
ID#	Name	R.Time	Area	Height	Conc.	Curve	3rd	2nd	1st	Constant	Area Ratio	Height Ratio	Conc. %	Norm Conc.
1	Hydrogen	0.000	0	0	0.000	Linear	0.000000e+00	0.000000e+00	0.000000e+00	0.000000e+00	0	0	0.000	0.000
2	Oxygen	0.000	0	0	0.000	Linear	0.000000e+00	0.000000e+00	0.000000e+00	0.000000e+00	0	0	0.000	0.000
3	Nitrogen	0.000	0	0	0.000	Linear	0.000000e+00	0.000000e+00	0.000000e+00	0.000000e+00	0	0	0.000	0.000
4	Methane	0.000	0	0	0.000	Linear	0.000000e+00	0.000000e+00	0.000000e+00	0.000000e+00	0	0	0.000	0.000
5	Carbon Monoxide	0.000	0	0	0.000	Linear	0.000000e+00	0.000000e+00	0.000000e+00	0.000000e+00	0	0	0.000	0.000

[Compound Results(Ch3)]
# of IDs	2
ID#	Name	R.Time	Area	Height	Conc.	Curve	3rd	2nd	1st	Constant	Area Ratio	Height Ratio	Conc. %	Norm Conc.
1	N2O	2.884	40317	6235	1.000	Linear	0.000000e+00	0.000000e+00	4.031712e+004	0.000000e+00	0	0	100.000	100.000
2	SF6	0.000	0	0	0.000	Linear	0.000000e+00	0.000000e+00	0.000000e+00	0.000000e+00	0	0	0.000	0.000

[Group Results(Ch1)]
# of Groups	0

[Group Results(Ch2)]
# of Groups	0

[Group Results(Ch3)]
# of Groups	0

[Chromatogram (Ch1)]
Interval(msec)	220
# of Points	1091
Start Time(min)	0.002
End Time(min)	3.998
R.Time (min)	Intensity
0.00167	2
0.00533	4
0.00900	4
0.01267	5
0.01633	5
0.02000	3
0.02367	-2
0.02733	-5
0.03100	-3
0.03467	1
0.03833	5
0.04200	9
0.04567	12
0.04933	11
0.05300	11
0.05667	12
0.06033	13
0.06400	15
0.06767	14
0.07133	8
0.07500	3
0.07867	1
0.08233	3
0.08600	7
0.08967	10
0.09333	12
0.09700	9
0.10067	7
0.10433	4
0.10800	3
0.11167	5
0.11533	9
0.11900	8
0.12267	5
0.12633	1
0.13000	1
0.13367	4
0.13733	6
0.14100	6
0.14467	3
0.14833	-2
0.15200	-10
0.15567	-16
0.15933	-20
0.16300	-23
0.16667	-26
0.17033	-26
0.17400	-23
0.17767	-16
0.18133	-9
0.18500	-1
0.18867	5
0.19233	3
0.19600	-4
0.19967	-13
0.20333	-20
0.20700	-23
0.21067	-24
0.21433	-24
0.21800	-20
0.22167	-17
0.22533	-16
0.22900	-16
0.23267	-16
0.23633	-15
0.24000	-15
0.24367	-16
0.24733	-18
0.25100	-15
0.25467	-9
0.25833	-7
0.26200	-8
0.26567	-12
0.26933	-17
0.27300	-21
0.27667	-22
0.28033	-23
0.28400	-22
0.28767	-21
0.29133	-17
0.29500	-11
0.29867	-6
0.30233	-7
0.30600	-12
0.30967	-19
0.31333	-23
0.31700	-24
0.32067	-21
0.32433	-15
0.32800	-13
0.33167	-15
0.33533	-20
0.33900	-27
0.34267	-31
0.34633	-31
0.35000	-26
0.35367	-24
0.35733	-26
0.36100	-31
0.36467	-35
0.36833	-37
0.37200	-35
0.37567	-34
0.37933	-34
0.38300	-32
0.38667	-31
0.39033	-30
0.39400	-30
0.39767	-30
0.40133	-28
0.40500	-24
0.40867	-19
0.41233	-16
0.41600	-15
0.41967	-18
0.42333	-21
0.42700	-23
0.43067	-25
0.43433	-25
0.43800	-25
0.44167	-25
0.44533	-27
0.44900	-33
0.45267	-42
0.45633	-48
0.46000	-49
0.46367	-44
0.46733	-37
0.47100	-34
0.47467	-34
0.47833	-36
0.48200	-37
0.48567	-40
0.48933	-41
0.49300	-43
0.49667	-45
0.50033	-49
0.50400	-53
0.50767	-55
0.51133	-55
0.51500	-50
0.51867	-43
0.52233	-38
0.52600	-34
0.52967	-31
0.53333	-28
0.53700	-27
0.54067	-29
0.54433	-35
0.54800	-43
0.55167	-48
0.55533	-53
0.55900	-55
0.56267	-55
0.56633	-53
0.57000	-50
0.57367	-50
0.57733	-48
0.58100	-46
0.58467	-47
0.58833	-50
0.59200	-54
0.59567	-59
0.59933	-65
0.60300	-70
0.60667	-70
0.61033	-66
0.61400	-61
0.61767	-59
0.62133	-57
0.62500	-56
0.62867	-54
0.63233	-48
0.63600	-41
0.63967	-35
0.64333	-36
0.64700	-42
0.65067	-50
0.65433	-56
0.65800	-60
0.66167	-62
0.66533	-60
0.66900	-58
0.67267	-58
0.67633	-60
0.68000	-64
0.68367	-68
0.68733	-67
0.69100	-62
0.69467	-55
0.69833	-50
0.70200	-47
0.70567	-46
0.70933	-51
0.71300	-59
0.71667	-67
0.72033	-74
0.72400	-74
0.72767	-69
0.73133	-63
0.73500	-60
0.73867	-60
0.74233	-59
0.74600	-56
0.74967	-53
0.75333	-52
0.75700	-51
0.76067	-50
0.76433	-53
0.76800	-59
0.77167	-64
0.77533	-64
0.77900	-62
0.78267	-62
0.78633	-64
0.79000	-66
0.79367	-70
0.79733	-73
0.80100	-75
0.80467	-77
0.80833	-75
0.81200	-71
0.81567	-68
0.81933	-67
0.82300	-68
0.82667	-70
0.83033	-74
0.83400	-80
0.83767	-84
0.84133	-84
0.84500	-81
0.84867	-77
0.85233	-75
0.85600	-74
0.85967	-76
0.86333	-80
0.86700	-83
0.87067	-83
0.87433	-79
0.87800	-72
0.88167	-65
0.88533	-61
0.88900	-63
0.89267	-67
0.89633	-71
0.90000	-73
0.90367	-71
0.90733	-67
0.91100	-65
0.91467	-67
0.91833	-70
0.92200	-72
0.92567	-74
0.92933	-77
0.93300	-80
0.93667	-82
0.94033	-82
0.94400	-81
0.94767	-81
0.95133	-81
0.95500	-79
0.95867	-78
0.96233	-79
0.96600	-79
0.96967	-76
0.97333	-74
0.97700	-72
0.98067	-73
0.98433	-77
0.98800	-82
0.99167	-84
0.99533	-84
0.99900	-85
1.00267	-83
1.00633	-77
1.01000	-70
1.01367	-64
1.01733	-56
1.02100	-50
1.02467	-54
1.02833	-60
1.03200	-65
1.03567	-72
1.03933	-83
1.04300	-94
1.04667	-98
1.05033	-96
1.05400	-92
1.05767	-91
1.06133	-91
1.06500	-87
1.06867	-77
1.07233	-68
1.07600	-61
1.07967	-61
1.08333	-66
1.08700	-71
1.09067	-71
1.09433	-71
1.09800	-76
1.10167	-83
1.10533	-90
1.10900	-96
1.11267	-101
1.11633	-104
1.12000	-106
1.12367	-106
1.12733	-107
1.13100	-105
1.13467	-97
1.13833	-85
1.14200	-74
1.14567	-66
1.14933	-62
1.15300	-63
1.15667	-70
1.16033	-81
1.16400	-90
1.16767	-94
1.17133	-98
1.17500	-105
1.17867	-108
1.18233	-107
1.18600	-105
1.18967	-103
1.19333	-102
1.19700	-101
1.20067	-98
1.20433	-95
1.20800	-93
1.21167	-90
1.21533	-87
1.21900	-84
1.22267	-83
1.22633	-80
1.23000	-80
1.23367	-84
1.23733	-92
1.24100	-98
1.24467	-100
1.24833	-100
1.25200	-97
1.25567	-91
1.25933	-85
1.26300	-80
1.26667	-80
1.27033	-81
1.27400	-81
1.27767	-78
1.28133	-76
1.28500	-75
1.28867	-75
1.29233	-76
1.29600	-79
1.29967	-81
1.30333	-82
1.30700	-85
1.31067	-90
1.31433	-95
1.31800	-98
1.32167	-101
1.32533	-99
1.32900	-95
1.33267	-95
1.33633	-100
1.34000	-105
1.34367	-109
1.34733	-111
1.35100	-108
1.35467	-104
1.35833	-100
1.36200	-98
1.36567	-97
1.36933	-96
1.37300	-96
1.37667	-95
1.38033	-93
1.38400	-92
1.38767	-91
1.39133	-89
1.39500	-86
1.39867	-85
1.40233	-88
1.40600	-91
1.40967	-92
1.41333	-91
1.41700	-93
1.42067	-96
1.42433	-100
1.42800	-102
1.43167	-100
1.43533	-98
1.43900	-89
1.44267	-27
1.44633	141
1.45000	421
1.45367	867
1.45733	1524
1.46100	2310
1.46467	3074
1.46833	3710
1.47200	4166
1.47567	4403
1.47933	4383
1.48300	4090
1.48667	3575
1.49033	2945
1.49400	2310
1.49767	1749
1.50133	1294
1.50500	946
1.50867	690
1.51233	503
1.51600	366
1.51967	271
1.52333	201
1.52700	146
1.53067	103
1.53433	75
1.53800	65
1.54167	98
1.54533	229
1.54900	508
1.55267	909
1.55633	1344
1.56000	1730
1.56367	2018
1.56733	2176
1.57100	2177
1.57467	2005
1.57833	1696
1.58200	1326
1.58567	969
1.58933	669
1.59300	439
1.59667	270
1.60033	148
1.60400	66
1.60767	14
1.61133	-19
1.61500	-41
1.61867	-55
1.62233	-65
1.62600	-71
1.62967	-72
1.63333	-71
1.63700	-71
1.64067	-71
1.64433	-72
1.64800	-72
1.65167	-73
1.65533	-81
1.65900	-91
1.66267	-103
1.66633	-112
1.67000	-116
1.67367	-114
1.67733	-108
1.68100	-101
1.68467	-97
1.68833	-95
1.69200	-96
1.69567	-99
1.69933	-101
1.70300	-104
1.70667	-107
1.71033	-108
1.71400	-113
1.71767	-117
1.72133	-116
1.72500	-115
1.72867	-114
1.73233	-114
1.73600	-113
1.73967	-110
1.74333	-108
1.74700	-110
1.75067	-113
1.75433	-114
1.75800	-113
1.76167	-111
1.76533	-109
1.76900	-107
1.77267	-105
1.77633	-106
1.78000	-106
1.78367	-107
1.78733	-109
1.79100	-112
1.79467	-113
1.79833	-111
1.80200	-107
1.80567	-103
1.80933	-100
1.81300	-97
1.81667	-94
1.82033	-94
1.82400	-96
1.82767	-102
1.83133	-110
1.83500	-119
1.83867	-124
1.84233	-126
1.84600	-125
1.84967	-120
1.85333	-114
1.85700	-111
1.86067	-109
1.86433	-111
1.86800	-115
1.87167	-116
1.87533	-116
1.87900	-113
1.88267	-110
1.88633	-109
1.89000	-107
1.89367	-105
1.89733	-102
1.90100	-98
1.90467	-93
1.90833	-89
1.91200	-87
1.91567	-88
1.91933	-92
1.92300	-97
1.92667	-102
1.93033	-107
1.93400	-113
1.93767	-118
1.94133	-123
1.94500	-127
1.94867	-129
1.95233	-124
1.95600	-78
1.95967	206
1.96333	1641
1.96700	7223
1.97067	23744
1.97433	61485
1.97800	128989
1.98167	225231
1.98533	337172
1.98900	445411
1.99267	531521
1.99633	582001
2.00000	589711
2.00367	555445
2.00733	488323
2.01100	403221
2.01467	315617
2.01833	236860
2.02200	172525
2.02567	123438
2.02933	87724
2.03300	62550
2.03667	45140
2.04033	33219
2.04400	25068
2.04767	19456
2.05133	15546
2.05500	12776
2.05867	10768
2.06233	9272
2.06600	8128
2.06967	7233
2.07333	6516
2.07700	5933
2.08067	5451
2.08433	5048
2.08800	4700
2.09167	4394
2.09533	4124
2.09900	3881
2.10267	3664
2.10633	3472
2.11000	3302
2.11367	3149
2.11733	3008
2.12100	2873
2.12467	2746
2.12833	2626
2.13200	2515
2.13567	2416
2.13933	2326
2.14300	2243
2.14667	2164
2.15033	2089
2.15400	2018
2.15767	1951
2.16133	1889
2.16500	1831
2.16867	1777
2.17233	1726
2.17600	1681
2.17967	1636
2.18333	1588
2.18700	1542
2.19067	1500
2.19433	1460
2.19800	1422
2.20167	1388
2.20533	1356
2.20900	1326
2.21267	1299
2.21633	1275
2.22000	1250
2.22367	1219
2.22733	1185
2.23100	1153
2.23467	1126
2.23833	1101
2.24200	1076
2.24567	1052
2.24933	1029
2.25300	1005
2.25667	984
2.26033	966
2.26400	950
2.26767	935
2.27133	919
2.27500	903
2.27867	890
2.28233	876
2.28600	858
2.28967	836
2.29333	815
2.29700	800
2.30067	787
2.30433	772
2.30800	757
2.31167	742
2.31533	729
2.31900	720
2.32267	713
2.32633	706
2.33000	695
2.33367	682
2.33733	670
2.34100	661
2.34467	652
2.34833	642
2.35200	631
2.35567	619
2.35933	607
2.36300	593
2.36667	582
2.37033	574
2.37400	568
2.37767	565
2.38133	564
2.38500	561
2.38867	560
2.39233	562
2.39600	563
2.39967	559
2.40333	553
2.40700	546
2.41067	537
2.41433	526
2.41800	515
2.42167	503
2.42533	493
2.42900	490
2.43267	489
2.43633	485
2.44000	478
2.44367	471
2.44733	467
2.45100	466
2.45467	466
2.45833	466
2.46200	465
2.46567	461
2.46933	458
2.47300	456
2.47667	452
2.48033	444
2.48400	435
2.48767	428
2.49133	422
2.49500	416
2.49867	408
2.50233	400
2.50600	393
2.50967	386
2.51333	384
2.51700	385
2.52067	386
2.52433	389
2.52800	390
2.53167	388
2.53533	384
2.53900	379
2.54267	376
2.54633	377
2.55000	381
2.55367	384
2.55733	380
2.56100	373
2.56467	366
2.56833	360
2.57200	352
2.57567	343
2.57933	335
2.58300	330
2.58667	326
2.59033	322
2.59400	320
2.59767	321
2.60133	321
2.60500	320
2.60867	317
2.61233	314
2.61600	312
2.61967	313
2.62333	319
2.62700	328
2.63067	337
2.63433	343
2.63800	346
2.64167	339
2.64533	327
2.64900	314
2.65267	302
2.65633	289
2.66000	277
2.66367	265
2.66733	253
2.67100	241
2.67467	233
2.67833	230
2.68200	233
2.68567	241
2.68933	249
2.69300	254
2.69667	257
2.70033	261
2.70400	264
2.70767	264
2.71133	266
2.71500	272
2.71867	279
2.72233	282
2.72600	276
2.72967	270
2.73333	268
2.73700	270
2.74067	274
2.74433	273
2.74800	270
2.75167	268
2.75533	269
2.75900	270
2.76267	268
2.76633	264
2.77000	260
2.77367	260
2.77733	259
2.78100	256
2.78467	252
2.78833	249
2.79200	248
2.79567	251
2.79933	256
2.80300	257
2.80667	256
2.81033	252
2.81400	249
2.81767	252
2.82133	257
2.82500	261
2.82867	261
2.83233	258
2.83600	254
2.83967	250
2.84333	248
2.84700	249
2.85067	251
2.85433	254
2.85800	255
2.86167	251
2.86533	249
2.86900	246
2.87267	239
2.87633	227
2.88000	217
2.88367	214
2.88733	214
2.89100	216
2.89467	217
2.89833	216
2.90200	213
2.90567	207
2.90933	202
2.91300	204
2.91667	209
2.92033	214
2.92400	216
2.92767	215
2.93133	212
2.93500	209
2.93867	208
2.94233	207
2.94600	208
2.94967	212
2.95333	217
2.95700	220
2.96067	223
2.96433	223
2.96800	225
2.97167	225
2.97533	220
2.97900	213
2.98267	207
2.98633	203
2.99000	200
2.99367	196
2.99733	195
3.00100	200
3.00467	208
3.00833	215
3.01200	221
3.01567	227
3.01933	233
3.02300	236
3.02667	235
3.03033	228
3.03400	218
3.03767	209
3.04133	204
3.04500	200
3.04867	195
3.05233	188
3.05600	180
3.05967	176
3.06333	178
3.06700	180
3.07067	181
3.07433	178
3.07800	176
3.08167	178
3.08533	184
3.08900	189
3.09267	187
3.09633	183
3.10000	179
3.10367	176
3.10733	176
3.11100	178
3.11467	177
3.11833	172
3.12200	168
3.12567	166
3.12933	164
3.13300	162
3.13667	163
3.14033	164
3.14400	167
3.14767	170
3.15133	175
3.15500	179
3.15867	181
3.16233	179
3.16600	174
3.16967	165
3.17333	157
3.17700	153
3.18067	155
3.18433	156
3.18800	154
3.19167	152
3.19533	150
3.19900	151
3.20267	152
3.20633	154
3.21000	155
3.21367	156
3.21733	158
3.22100	161
3.22467	166
3.22833	171
3.23200	173
3.23567	172
3.23933	168
3.24300	163
3.24667	159
3.25033	160
3.25400	161
3.25767	159
3.26133	155
3.26500	152
3.26867	150
3.27233	148
3.27600	146
3.27967	143
3.28333	142
3.28700	141
3.29067	140
3.29433	139
3.29800	137
3.30167	136
3.30533	135
3.30900	132
3.31267	133
3.31633	138
3.32000	145
3.32367	153
3.32733	158
3.33100	157
3.33467	155
3.33833	154
3.34200	152
3.34567	148
3.34933	142
3.35300	138
3.35667	136
3.36033	134
3.36400	133
3.36767	133
3.37133	133
3.37500	132
3.37867	134
3.38233	136
3.38600	136
3.38967	134
3.39333	131
3.39700	128
3.40067	125
3.40433	122
3.40800	119
3.41167	115
3.41533	111
3.41900	108
3.42267	110
3.42633	113
3.43000	116
3.43367	116
3.43733	114
3.44100	114
3.44467	116
3.44833	121
3.45200	126
3.45567	128
3.45933	128
3.46300	129
3.46667	129
3.47033	127
3.47400	122
3.47767	120
3.48133	118
3.48500	116
3.48867	113
3.49233	108
3.49600	101
3.49967	92
3.50333	88
3.50700	90
3.51067	93
3.51433	96
3.51800	100
3.52167	104
3.52533	107
3.52900	113
3.53267	119
3.53633	120
3.54000	114
3.54367	106
3.54733	98
3.55100	90
3.55467	86
3.55833	88
3.56200	95
3.56567	102
3.56933	109
3.57300	119
3.57667	128
3.58033	136
3.58400	137
3.58767	129
3.59133	117
3.59500	106
3.59867	100
3.60233	95
3.60600	91
3.60967	92
3.61333	95
3.61700	94
3.62067	88
3.62433	82
3.62800	78
3.63167	81
3.63533	86
3.63900	91
3.64267	94
3.64633	95
3.65000	93
3.65367	92
3.65733	94
3.66100	97
3.66467	98
3.66833	98
3.67200	97
3.67567	96
3.67933	93
3.68300	84
3.68667	77
3.69033	73
3.69400	73
3.69767	74
3.70133	73
3.70500	68
3.70867	62
3.71233	58
3.71600	58
3.71967	61
3.72333	67
3.72700	73
3.73067	76
3.73433	79
3.73800	82
3.74167	86
3.74533	90
3.74900	93
3.75267	94
3.75633	90
3.76000	86
3.76367	83
3.76733	84
3.77100	87
3.77467	90
3.77833	93
3.78200	92
3.78567	88
3.78933	83
3.79300	76
3.79667	72
3.80033	69
3.80400	63
3.80767	56
3.81133	49
3.81500	46
3.81867	48
3.82233	51
3.82600	56
3.82967	60
3.83333	63
3.83700	64
3.84067	61
3.84433	56
3.84800	51
3.85167	49
3.85533	51
3.85900	55
3.86267	57
3.86633	57
3.87000	56
3.87367	56
3.87733	59
3.88100	66
3.88467	74
3.88833	78
3.89200	76
3.89567	73
3.89933	72
3.90300	72
3.90667	70
3.91033	68
3.91400	64
3.91767	60
3.92133	57
3.92500	56
3.92867	57
3.93233	58
3.93600	60
3.93967	61
3.94333	62
3.94700	61
3.95067	58
3.95433	54
3.95800	51
3.96167	49
3.96533	48
3.96900	47
3.97267	45
3.97633	43
3.98000	45
3.98367	50
3.98733	56
3.99100	61
3.99467	62
3.99833	60

[Chromatogram (Ch2)]
Interval(msec)	220
# of Points	1091
Start Time(min)	0.002
End Time(min)	3.998
R.Time (min)	Intensity
0.00167	0
0.00533	0
0.00900	0
0.01267	0
0.01633	0
0.02000	1
0.02367	1
0.02733	1
0.03100	1
0.03467	1
0.03833	1
0.04200	1
0.04567	1
0.04933	1
0.05300	1
0.05667	1
0.06033	1
0.06400	1
0.06767	1
0.07133	1
0.07500	1
0.07867	1
0.08233	1
0.08600	1
0.08967	2
0.09333	2
0.09700	2
0.10067	2
0.10433	2
0.10800	3
0.11167	3
0.11533	2
0.11900	2
0.12267	2
0.12633	2
0.13000	2
0.13367	2
0.13733	2
0.14100	2
0.14467	2
0.14833	2
0.15200	2
0.15567	1
0.15933	1
0.16300	1
0.16667	1
0.17033	0
0.17400	0
0.17767	0
0.18133	0
0.18500	-0
0.18867	-0
0.19233	-0
0.19600	-1
0.19967	-1
0.20333	-1
0.20700	-1
0.21067	-1
0.21433	-1
0.21800	-1
0.22167	-1
0.22533	-1
0.22900	-1
0.23267	-1
0.23633	-1
0.24000	-1
0.24367	-1
0.24733	-1
0.25100	-1
0.25467	-1
0.25833	-1
0.26200	-0
0.26567	-0
0.26933	-0
0.27300	-0
0.27667	-0
0.28033	0
0.28400	0
0.28767	0
0.29133	-0
0.29500	-0
0.29867	-0
0.30233	-0
0.30600	-0
0.30967	-0
0.31333	-0
0.31700	0
0.32067	0
0.32433	1
0.32800	1
0.33167	1
0.33533	0
0.33900	0
0.34267	0
0.34633	0
0.35000	-0
0.35367	-0
0.35733	-0
0.36100	-1
0.36467	-1
0.36833	-1
0.37200	-1
0.37567	-1
0.37933	-1
0.38300	-1
0.38667	-1
0.39033	-1
0.39400	-1
0.39767	-1
0.40133	-1
0.40500	-1
0.40867	-1
0.41233	-1
0.41600	-1
0.41967	-2
0.42333	-2
0.42700	-2
0.43067	-2
0.43433	-2
0.43800	-2
0.44167	-2
0.44533	-2
0.44900	-2
0.45267	-2
0.45633	-2
0.46000	-2
0.46367	-2
0.46733	-2
0.47100	-1
0.47467	-1
0.47833	-2
0.48200	-2
0.48567	-2
0.48933	-1
0.49300	-1
0.49667	-1
0.50033	-1
0.50400	-1
0.50767	-1
0.51133	-1
0.51500	-1
0.51867	-0
0.52233	-0
0.52600	-0
0.52967	0
0.53333	0
0.53700	0
0.54067	0
0.54433	0
0.54800	0
0.55167	-0
0.55533	-0
0.55900	-0
0.56267	-0
0.56633	-0
0.57000	-0
0.57367	-0
0.57733	0
0.58100	-0
0.58467	-0
0.58833	-0
0.59200	-0
0.59567	-0
0.59933	-0
0.60300	-1
0.60667	-1
0.61033	-1
0.61400	-1
0.61767	-1
0.62133	-1
0.62500	-1
0.62867	-1
0.63233	-1
0.63600	-1
0.63967	-1
0.64333	-1
0.64700	-1
0.65067	-2
0.65433	-2
0.65800	-2
0.66167	-2
0.66533	-2
0.66900	-2
0.67267	-2
0.67633	-2
0.68000	-2
0.68367	-2
0.68733	-2
0.69100	-2
0.69467	-2
0.69833	-2
0.70200	-2
0.70567	-2
0.70933	-2
0.71300	-2
0.71667	-2
0.72033	-2
0.72400	-2
0.72767	-2
0.73133	-2
0.73500	-2
0.73867	-2
0.74233	-3
0.74600	-3
0.74967	-3
0.75333	-3
0.75700	-2
0.76067	-2
0.76433	-2
0.76800	-2
0.77167	-2
0.77533	-2
0.77900	-2
0.78267	-2
0.78633	-2
0.79000	-2
0.79367	-2
0.79733	-3
0.80100	-3
0.80467	-2
0.80833	-2
0.81200	-2
0.81567	-2
0.81933	-2
0.82300	-2
0.82667	-2
0.83033	-2
0.83400	-1
0.83767	-2
0.84133	-2
0.84500	-2
0.84867	-2
0.85233	-2
0.85600	-2
0.85967	-2
0.86333	-2
0.86700	-3
0.87067	-3
0.87433	-3
0.87800	-3
0.88167	-3
0.88533	-2
0.88900	-2
0.89267	-2
0.89633	-2
0.90000	-2
0.90367	-2
0.90733	-3
0.91100	-3
0.91467	-3
0.91833	-3
0.92200	-3
0.92567	-3
0.92933	-3
0.93300	-2
0.93667	-2
0.94033	-2
0.94400	-2
0.94767	-2
0.95133	-2
0.95500	-2
0.95867	-2
0.96233	-1
0.96600	-1
0.96967	-1
0.97333	-2
0.97700	-2
0.98067	-2
0.98433	-1
0.98800	-1
0.99167	-1
0.99533	-0
0.99900	-0
1.00267	-0
1.00633	-0
1.01000	-0
1.01367	-0
1.01733	0
1.02100	0
1.02467	0
1.02833	0
1.03200	0
1.03567	-0
1.03933	-0
1.04300	-0
1.04667	-1
1.05033	-1
1.05400	-1
1.05767	-1
1.06133	-1
1.06500	-2
1.06867	-2
1.07233	-2
1.07600	-2
1.07967	-2
1.08333	-2
1.08700	-2
1.09067	-2
1.09433	-2
1.09800	-2
1.10167	-2
1.10533	-2
1.10900	-2
1.11267	-2
1.11633	-3
1.12000	-3
1.12367	-3
1.12733	-3
1.13100	-3
1.13467	-3
1.13833	-3
1.14200	-3
1.14567	-3
1.14933	-3
1.15300	-3
1.15667	-3
1.16033	-3
1.16400	-3
1.16767	-3
1.17133	-3
1.17500	-3
1.17867	-3
1.18233	-3
1.18600	-3
1.18967	-3
1.19333	-3
1.19700	-3
1.20067	-2
1.20433	-2
1.20800	-2
1.21167	-2
1.21533	-2
1.21900	-3
1.22267	-3
1.22633	-3
1.23000	-2
1.23367	-2
1.23733	-2
1.24100	-2
1.24467	-1
1.24833	-1
1.25200	-2
1.25567	-2
1.25933	-2
1.26300	-2
1.26667	-2
1.27033	-2
1.27400	-2
1.27767	-2
1.28133	-2
1.28500	-2
1.28867	-2
1.29233	-3
1.29600	-3
1.29967	-3
1.30333	-3
1.30700	-3
1.31067	-3
1.31433	-2
1.31800	-2
1.32167	-2
1.32533	-2
1.32900	-2
1.33267	-2
1.33633	-2
1.34000	-2
1.34367	-2
1.34733	-2
1.35100	-2
1.35467	-2
1.35833	-2
1.36200	-3
1.36567	-3
1.36933	-3
1.37300	-3
1.37667	-4
1.38033	-4
1.38400	-4
1.38767	-4
1.39133	-4
1.39500	-4
1.39867	-4
1.40233	-4
1.40600	-4
1.40967	-4
1.41333	-4
1.41700	-5
1.42067	-5
1.42433	-5
1.42800	-4
1.43167	-4
1.43533	-4
1.43900	-4
1.44267	-4
1.44633	-3
1.45000	-3
1.45367	-3
1.45733	-3
1.46100	-3
1.46467	-3
1.46833	-3
1.47200	-3
1.47567	-3
1.47933	-3
1.48300	-3
1.48667	-3
1.49033	-3
1.49400	-3
1.49767	-3
1.50133	-3
1.50500	-3
1.50867	-3
1.51233	-3
1.51600	-3
1.51967	-3
1.52333	-3
1.52700	-3
1.53067	-3
1.53433	-3
1.53800	-2
1.54167	-2
1.54533	-2
1.54900	-2
1.55267	-2
1.55633	-3
1.56000	-3
1.56367	-3
1.56733	-3
1.57100	-3
1.57467	-3
1.57833	-3
1.58200	-3
1.58567	-3
1.58933	-3
1.59300	-4
1.59667	-5
1.60033	-5
1.60400	-6
1.60767	-8
1.61133	-9
1.61500	-11
1.61867	-13
1.62233	-16
1.62600	-18
1.62967	-22
1.63333	-25
1.63700	-28
1.64067	-32
1.64433	-35
1.64800	-39
1.65167	-42
1.65533	-46
1.65900	-49
1.66267	-53
1.66633	-57
1.67000	-61
1.67367	-65
1.67733	-70
1.68100	-74
1.68467	-79
1.68833	-83
1.69200	-87
1.69567	-91
1.69933	-94
1.70300	-97
1.70667	-99
1.71033	-101
1.71400	-103
1.71767	-104
1.72133	-105
1.72500	-105
1.72867	-106
1.73233	-107
1.73600	-108
1.73967	-108
1.74333	-109
1.74700	-110
1.75067	-110
1.75433	-110
1.75800	-111
1.76167	-111
1.76533	-112
1.76900	-112
1.77267	-112
1.77633	-113
1.78000	-113
1.78367	-114
1.78733	-114
1.79100	-115
1.79467	-115
1.79833	-116
1.80200	-117
1.80567	-117
1.80933	-117
1.81300	-117
1.81667	-117
1.82033	-117
1.82400	-117
1.82767	-117
1.83133	-117
1.83500	-117
1.83867	-116
1.84233	-116
1.84600	-116
1.84967	-116
1.85333	-117
1.85700	-117
1.86067	-117
1.86433	-117
1.86800	-117
1.87167	-117
1.87533	-116
1.87900	-116
1.88267	-116
1.88633	-116
1.89000	-116
1.89367	-116
1.89733	-116
1.90100	-116
1.90467	-116
1.90833	-116
1.91200	-116
1.91567	-115
1.91933	-116
1.92300	-116
1.92667	-116
1.93033	-116
1.93400	-116
1.93767	-115
1.94133	-115
1.94500	-114
1.94867	-113
1.95233	-113
1.95600	-112
1.95967	-112
1.96333	-111
1.96700	-111
1.97067	-111
1.97433	-110
1.97800	-110
1.98167	-110
1.98533	-110
1.98900	-109
1.99267	-109
1.99633	-109
2.00000	-109
2.00367	-109
2.00733	-109
2.01100	-109
2.01467	-109
2.01833	-109
2.02200	-109
2.02567	-109
2.02933	-108
2.03300	-107
2.03667	-106
2.04033	-106
2.04400	-105
2.04767	-105
2.05133	-104
2.05500	-104
2.05867	-104
2.06233	-104
2.06600	-104
2.06967	-103
2.07333	-103
2.07700	-103
2.08067	-103
2.08433	-103
2.08800	-103
2.09167	-103
2.09533	-103
2.09900	-103
2.10267	-103
2.10633	-103
2.11000	-102
2.11367	-102
2.11733	-102
2.12100	-102
2.12467	-102
2.12833	-102
2.13200	-102
2.13567	-102
2.13933	-101
2.14300	-101
2.14667	-100
2.15033	-99
2.15400	-99
2.15767	-98
2.16133	-98
2.16500	-97
2.16867	-97
2.17233	-96
2.17600	-96
2.17967	-96
2.18333	-96
2.18700	-96
2.19067	-96
2.19433	-95
2.19800	-94
2.20167	-94
2.20533	-93
2.20900	-93
2.21267	-92
2.21633	-91
2.22000	-91
2.22367	-90
2.22733	-90
2.23100	-90
2.23467	-90
2.23833	-90
2.24200	-90
2.24567	-91
2.24933	-91
2.25300	-91
2.25667	-91
2.26033	-91
2.26400	-90
2.26767	-89
2.27133	-88
2.27500	-87
2.27867	-87
2.28233	-86
2.28600	-86
2.28967	-86
2.29333	-86
2.29700	-86
2.30067	-86
2.30433	-86
2.30800	-87
2.31167	-87
2.31533	-87
2.31900	-86
2.32267	-86
2.32633	-86
2.33000	-85
2.33367	-84
2.33733	-83
2.34100	-82
2.34467	-81
2.34833	-80
2.35200	-79
2.35567	-78
2.35933	-77
2.36300	-75
2.36667	-73
2.37033	-71
2.37400	-68
2.37767	-65
2.38133	-62
2.38500	-59
2.38867	-56
2.39233	-53
2.39600	-49
2.39967	-46
2.40333	-42
2.40700	-39
2.41067	-36
2.41433	-33
2.41800	-31
2.42167	-28
2.42533	-26
2.42900	-24
2.43267	-22
2.43633	-20
2.44000	-18
2.44367	-16
2.44733	-14
2.45100	-12
2.45467	-10
2.45833	-8
2.46200	-6
2.46567	-5
2.46933	-3
2.47300	-2
2.47667	-0
2.48033	1
2.48400	3
2.48767	4
2.49133	6
2.49500	7
2.49867	7
2.50233	8
2.50600	8
2.50967	8
2.51333	9
2.51700	9
2.52067	9
2.52433	10
2.52800	11
2.53167	11
2.53533	12
2.53900	12
2.54267	12
2.54633	12
2.55000	13
2.55367	13
2.55733	14
2.56100	14
2.56467	15
2.56833	15
2.57200	16
2.57567	16
2.57933	16
2.58300	16
2.58667	16
2.59033	16
2.59400	16
2.59767	15
2.60133	15
2.60500	15
2.60867	15
2.61233	15
2.61600	15
2.61967	15
2.62333	15
2.62700	15
2.63067	16
2.63433	16
2.63800	17
2.64167	17
2.64533	18
2.64900	19
2.65267	19
2.65633	19
2.66000	20
2.66367	20
2.66733	20
2.67100	21
2.67467	21
2.67833	21
2.68200	21
2.68567	21
2.68933	21
2.69300	21
2.69667	21
2.70033	21
2.70400	21
2.70767	21
2.71133	21
2.71500	22
2.71867	22
2.72233	23
2.72600	23
2.72967	24
2.73333	24
2.73700	25
2.74067	25
2.74433	25
2.74800	25
2.75167	25
2.75533	24
2.75900	24
2.76267	24
2.76633	24
2.77000	24
2.77367	25
2.77733	25
2.78100	25
2.78467	25
2.78833	25
2.79200	25
2.79567	26
2.79933	26
2.80300	26
2.80667	26
2.81033	26
2.81400	27
2.81767	27
2.82133	27
2.82500	27
2.82867	27
2.83233	26
2.83600	26
2.83967	25
2.84333	25
2.84700	24
2.85067	23
2.85433	21
2.85800	18
2.86167	12
2.86533	5
2.86900	-6
2.87267	-20
2.87633	-38
2.88000	-60
2.88367	-86
2.88733	-117
2.89100	-151
2.89467	-188
2.89833	-229
2.90200	-273
2.90567	-319
2.90933	-367
2.91300	-417
2.91667	-468
2.92033	-519
2.92400	-570
2.92767	-621
2.93133	-672
2.93500	-722
2.93867	-771
2.94233	-821
2.94600	-873
2.94967	-931
2.95333	-991
2.95700	-1043
2.96067	-1077
2.96433	-1086
2.96800	-1069
2.97167	-1029
2.97533	-971
2.97900	-901
2.98267	-824
2.98633	-744
2.99000	-665
2.99367	-589
2.99733	-518
3.00100	-453
3.00467	-393
3.00833	-340
3.01200	-293
3.01567	-251
3.01933	-214
3.02300	-182
3.02667	-155
3.03033	-131
3.03400	-111
3.03767	-93
3.04133	-77
3.04500	-64
3.04867	-53
3.05233	-43
3.05600	-34
3.05967	-27
3.06333	-21
3.06700	-16
3.07067	-11
3.07433	-8
3.07800	-5
3.08167	-2
3.08533	0
3.08900	2
3.09267	4
3.09633	5
3.10000	6
3.10367	7
3.10733	8
3.11100	9
3.11467	10
3.11833	11
3.12200	11
3.12567	12
3.12933	13
3.13300	13
3.13667	13
3.14033	14
3.14400	14
3.14767	14
3.15133	15
3.15500	15
3.15867	15
3.16233	16
3.16600	16
3.16967	16
3.17333	17
3.17700	17
3.18067	17
3.18433	18
3.18800	18
3.19167	19
3.19533	19
3.19900	19
3.20267	20
3.20633	20
3.21000	20
3.21367	20
3.21733	20
3.22100	20
3.22467	20
3.22833	20
3.23200	20
3.23567	21
3.23933	21
3.24300	21
3.24667	21
3.25033	21
3.25400	22
3.25767	22
3.26133	22
3.26500	22
3.26867	22
3.27233	22
3.27600	22
3.27967	22
3.28333	22
3.28700	23
3.29067	23
3.29433	23
3.29800	23
3.30167	23
3.30533	24
3.30900	24
3.31267	24
3.31633	24
3.32000	24
3.32367	24
3.32733	23
3.33100	23
3.33467	23
3.33833	23
3.34200	23
3.34567	23
3.34933	23
3.35300	23
3.35667	23
3.36033	23
3.36400	23
3.36767	23
3.37133	23
3.37500	23
3.37867	23
3.38233	24
3.38600	24
3.38967	24
3.39333	24
3.39700	25
3.40067	25
3.40433	25
3.40800	25
3.41167	25
3.41533	25
3.41900	25
3.42267	25
3.42633	25
3.43000	25
3.43367	25
3.43733	26
3.44100	26
3.44467	26
3.44833	26
3.45200	26
3.45567	26
3.45933	27
3.46300	27
3.46667	27
3.47033	27
3.47400	27
3.47767	27
3.48133	27
3.48500	27
3.48867	27
3.49233	27
3.49600	27
3.49967	27
3.50333	27
3.50700	27
3.51067	27
3.51433	27
3.51800	27
3.52167	27
3.52533	27
3.52900	27
3.53267	27
3.53633	27
3.54000	27
3.54367	27
3.54733	27
3.55100	27
3.55467	27
3.55833	26
3.56200	26
3.56567	26
3.56933	26
3.57300	26
3.57667	26
3.58033	26
3.58400	26
3.58767	26
3.59133	26
3.59500	26
3.59867	26
3.60233	26
3.60600	26
3.60967	26
3.61333	25
3.61700	25
3.62067	25
3.62433	25
3.62800	25
3.63167	25
3.63533	25
3.63900	25
3.64267	25
3.64633	25
3.65000	25
3.65367	25
3.65733	25
3.66100	25
3.66467	25
3.66833	25
3.67200	25
3.67567	25
3.67933	24
3.68300	24
3.68667	24
3.69033	24
3.69400	24
3.69767	25
3.70133	25
3.70500	25
3.70867	25
3.71233	25
3.71600	25
3.71967	25
3.72333	26
3.72700	26
3.73067	26
3.73433	26
3.73800	26
3.74167	26
3.74533	26
3.74900	26
3.75267	26
3.75633	26
3.76000	26
3.76367	26
3.76733	27
3.77100	27
3.77467	27
3.77833	27
3.78200	27
3.78567	27
3.78933	27
3.79300	27
3.79667	27
3.80033	27
3.80400	26
3.80767	26
3.81133	26
3.81500	26
3.81867	26
3.82233	26
3.82600	26
3.82967	26
3.83333	26
3.83700	26
3.84067	26
3.84433	26
3.84800	26
3.85167	26
3.85533	26
3.85900	27
3.86267	27
3.86633	27
3.87000	26
3.87367	26
3.87733	26
3.88100	26
3.88467	26
3.88833	26
3.89200	26
3.89567	26
3.89933	26
3.90300	26
3.90667	26
3.91033	27
3.91400	27
3.91767	27
3.92133	27
3.92500	27
3.92867	27
3.93233	27
3.93600	27
3.93967	27
3.94333	27
3.94700	27
3.95067	27
3.95433	27
3.95800	27
3.96167	27
3.96533	27
3.96900	27
3.97267	27
3.97633	27
3.98000	27
3.98367	27
3.98733	27
3.99100	27
3.99467	28
3.99833	28

[Chromatogram (Ch3)]
Interval(msec)	220
# of Points	1091
Start Time(min)	0.002
End Time(min)	3.998
R.Time (min)	Intensity
0.00167	1
0.00533	2
0.00900	2
0.01267	2
0.01633	2
0.02000	0
0.02367	3
0.02733	5
0.03100	6
0.03467	8
0.03833	8
0.04200	8
0.04567	6
0.04933	5
0.05300	4
0.05667	3
0.06033	4
0.06400	6
0.06767	9
0.07133	8
0.07500	5
0.07867	1
0.08233	-3
0.08600	-5
0.08967	-4
0.09333	-2
0.09700	1
0.10067	3
0.10433	2
0.10800	1
0.11167	3
0.11533	6
0.11900	5
0.12267	3
0.12633	1
0.13000	-1
0.13367	-1
0.13733	1
0.14100	2
0.14467	3
0.14833	2
0.15200	1
0.15567	2
0.15933	2
0.16300	0
0.16667	-2
0.17033	-2
0.17400	-2
0.17767	-2
0.18133	-1
0.18500	1
0.18867	1
0.19233	2
0.19600	2
0.19967	1
0.20333	0
0.20700	1
0.21067	0
0.21433	0
0.21800	2
0.22167	4
0.22533	7
0.22900	6
0.23267	4
0.23633	3
0.24000	3
0.24367	3
0.24733	1
0.25100	-2
0.25467	-5
0.25833	-7
0.26200	-5
0.26567	-1
0.26933	0
0.27300	0
0.27667	-2
0.28033	-2
0.28400	-2
0.28767	-2
0.29133	-2
0.29500	-2
0.29867	-5
0.30233	-6
0.30600	-6
0.30967	-5
0.31333	-5
0.31700	-4
0.32067	-1
0.32433	1
0.32800	2
0.33167	2
0.33533	2
0.33900	0
0.34267	-0
0.34633	-1
0.35000	-1
0.35367	-1
0.35733	-2
0.36100	-2
0.36467	-1
0.36833	-1
0.37200	-1
0.37567	-3
0.37933	-3
0.38300	-5
0.38667	-4
0.39033	-3
0.39400	-4
0.39767	-5
0.40133	-6
0.40500	-6
0.40867	-8
0.41233	-8
0.41600	-9
0.41967	-9
0.42333	-11
0.42700	-12
0.43067	-11
0.43433	-10
0.43800	-8
0.44167	-6
0.44533	-2
0.44900	-1
0.45267	-1
0.45633	0
0.46000	1
0.46367	1
0.46733	0
0.47100	0
0.47467	1
0.47833	1
0.48200	2
0.48567	3
0.48933	1
0.49300	-3
0.49667	-3
0.50033	-3
0.50400	-4
0.50767	-4
0.51133	-4
0.51500	-4
0.51867	-6
0.52233	-6
0.52600	-6
0.52967	-7
0.53333	-6
0.53700	-6
0.54067	-7
0.54433	-6
0.54800	-7
0.55167	-7
0.55533	-6
0.55900	-8
0.56267	-8
0.56633	-4
0.57000	-4
0.57367	-4
0.57733	-4
0.58100	-6
0.58467	-9
0.58833	-8
0.59200	-6
0.59567	-6
0.59933	-8
0.60300	-8
0.60667	-9
0.61033	-9
0.61400	-10
0.61767	-10
0.62133	-8
0.62500	-7
0.62867	-6
0.63233	-6
0.63600	-6
0.63967	-7
0.64333	-7
0.64700	-8
0.65067	-8
0.65433	-9
0.65800	-8
0.66167	-7
0.66533	-5
0.66900	-6
0.67267	-8
0.67633	-8
0.68000	-8
0.68367	-8
0.68733	-6
0.69100	-3
0.69467	-2
0.69833	-1
0.70200	1
0.70567	1
0.70933	-1
0.71300	-3
0.71667	-7
0.72033	-10
0.72400	-11
0.72767	-9
0.73133	-7
0.73500	-8
0.73867	-8
0.74233	-8
0.74600	-9
0.74967	-10
0.75333	-11
0.75700	-9
0.76067	-5
0.76433	-3
0.76800	-3
0.77167	-3
0.77533	-4
0.77900	-7
0.78267	-10
0.78633	-11
0.79000	-10
0.79367	-8
0.79733	-7
0.80100	-9
0.80467	-10
0.80833	-10
0.81200	-10
0.81567	-10
0.81933	-11
0.82300	-12
0.82667	-13
0.83033	-14
0.83400	-13
0.83767	-12
0.84133	-10
0.84500	-11
0.84867	-14
0.85233	-17
0.85600	-16
0.85967	-15
0.86333	-14
0.86700	-14
0.87067	-14
0.87433	-15
0.87800	-15
0.88167	-15
0.88533	-16
0.88900	-15
0.89267	-11
0.89633	-10
0.90000	-12
0.90367	-16
0.90733	-17
0.91100	-17
0.91467	-15
0.91833	-14
0.92200	-14
0.92567	-12
0.92933	-13
0.93300	-14
0.93667	-14
0.94033	-15
0.94400	-14
0.94767	-11
0.95133	-10
0.95500	-12
0.95867	-12
0.96233	-12
0.96600	-12
0.96967	-11
0.97333	-11
0.97700	-12
0.98067	-12
0.98433	-14
0.98800	-14
0.99167	-15
0.99533	-16
0.99900	-14
1.00267	-13
1.00633	-13
1.01000	-11
1.01367	-8
1.01733	-7
1.02100	-6
1.02467	-8
1.02833	-12
1.03200	-15
1.03567	-16
1.03933	-17
1.04300	-18
1.04667	-17
1.05033	-14
1.05400	-13
1.05767	-12
1.06133	-9
1.06500	-7
1.06867	-8
1.07233	-8
1.07600	-7
1.07967	-8
1.08333	-10
1.08700	-12
1.09067	-12
1.09433	-11
1.09800	-12
1.10167	-14
1.10533	-13
1.10900	-11
1.11267	-8
1.11633	-8
1.12000	-6
1.12367	-6
1.12733	-6
1.13100	-7
1.13467	-9
1.13833	-11
1.14200	-11
1.14567	-10
1.14933	-9
1.15300	-9
1.15667	-8
1.16033	-8
1.16400	-8
1.16767	-8
1.17133	-8
1.17500	-8
1.17867	-8
1.18233	-7
1.18600	-6
1.18967	-6
1.19333	-9
1.19700	-11
1.20067	-10
1.20433	-9
1.20800	-8
1.21167	-5
1.21533	-4
1.21900	-5
1.22267	-4
1.22633	-5
1.23000	-6
1.23367	-7
1.23733	-7
1.24100	-6
1.24467	-6
1.24833	-5
1.25200	-4
1.25567	-4
1.25933	-5
1.26300	-8
1.26667	-11
1.27033	-15
1.27400	-17
1.27767	-17
1.28133	-15
1.28500	-12
1.28867	-10
1.29233	-9
1.29600	-10
1.29967	-9
1.30333	-8
1.30700	-10
1.31067	-10
1.31433	-7
1.31800	-6
1.32167	-8
1.32533	-10
1.32900	-11
1.33267	-12
1.33633	-12
1.34000	-14
1.34367	-14
1.34733	-13
1.35100	-14
1.35467	-14
1.35833	-13
1.36200	-12
1.36567	-11
1.36933	-11
1.37300	-9
1.37667	-5
1.38033	-5
1.38400	-9
1.38767	-11
1.39133	-13
1.39500	-14
1.39867	-15
1.40233	-16
1.40600	-18
1.40967	-17
1.41333	-16
1.41700	-17
1.42067	-15
1.42433	-12
1.42800	-11
1.43167	-14
1.43533	-16
1.43900	-17
1.44267	-16
1.44633	-16
1.45000	-17
1.45367	-15
1.45733	-15
1.46100	-16
1.46467	-15
1.46833	-14
1.47200	-13
1.47567	-13
1.47933	-12
1.48300	-11
1.48667	-11
1.49033	-11
1.49400	-9
1.49767	-9
1.50133	-10
1.50500	-8
1.50867	-8
1.51233	-9
1.51600	-11
1.51967	-10
1.52333	-11
1.52700	-13
1.53067	-14
1.53433	-14
1.53800	-12
1.54167	-9
1.54533	-8
1.54900	-7
1.55267	-9
1.55633	-10
1.56000	-10
1.56367	-9
1.56733	-7
1.57100	-6
1.57467	-7
1.57833	-8
1.58200	-9
1.58567	-10
1.58933	-8
1.59300	-9
1.59667	-9
1.60033	-8
1.60400	-6
1.60767	-4
1.61133	-5
1.61500	-5
1.61867	-7
1.62233	-9
1.62600	-10
1.62967	-9
1.63333	-6
1.63700	-5
1.64067	-4
1.64433	-3
1.64800	-4
1.65167	-8
1.65533	-8
1.65900	-7
1.66267	-5
1.66633	-3
1.67000	-2
1.67367	-1
1.67733	2
1.68100	5
1.68467	4
1.68833	3
1.69200	1
1.69567	1
1.69933	-0
1.70300	-3
1.70667	-5
1.71033	-3
1.71400	-0
1.71767	3
1.72133	2
1.72500	-1
1.72867	1
1.73233	3
1.73600	5
1.73967	7
1.74333	7
1.74700	9
1.75067	11
1.75433	14
1.75800	15
1.76167	14
1.76533	14
1.76900	14
1.77267	14
1.77633	13
1.78000	13
1.78367	14
1.78733	12
1.79100	10
1.79467	11
1.79833	12
1.80200	12
1.80567	11
1.80933	12
1.81300	15
1.81667	16
1.82033	19
1.82400	20
1.82767	19
1.83133	16
1.83500	15
1.83867	17
1.84233	18
1.84600	20
1.84967	20
1.85333	18
1.85700	17
1.86067	16
1.86433	16
1.86800	18
1.87167	19
1.87533	20
1.87900	22
1.88267	23
1.88633	22
1.89000	22
1.89367	25
1.89733	26
1.90100	27
1.90467	25
1.90833	23
1.91200	24
1.91567	26
1.91933	27
1.92300	26
1.92667	26
1.93033	27
1.93400	28
1.93767	28
1.94133	29
1.94500	30
1.94867	31
1.95233	34
1.95600	34
1.95967	33
1.96333	34
1.96700	35
1.97067	37
1.97433	38
1.97800	37
1.98167	38
1.98533	38
1.98900	37
1.99267	37
1.99633	37
2.00000	38
2.00367	41
2.00733	44
2.01100	44
2.01467	45
2.01833	46
2.02200	49
2.02567	53
2.02933	56
2.03300	55
2.03667	56
2.04033	56
2.04400	54
2.04767	54
2.05133	54
2.05500	53
2.05867	53
2.06233	54
2.06600	54
2.06967	54
2.07333	54
2.07700	56
2.08067	56
2.08433	58
2.08800	61
2.09167	61
2.09533	61
2.09900	60
2.10267	58
2.10633	58
2.11000	59
2.11367	62
2.11733	65
2.12100	64
2.12467	65
2.12833	65
2.13200	66
2.13567	67
2.13933	66
2.14300	65
2.14667	64
2.15033	65
2.15400	67
2.15767	69
2.16133	70
2.16500	71
2.16867	74
2.17233	75
2.17600	75
2.17967	75
2.18333	76
2.18700	76
2.19067	78
2.19433	79
2.19800	78
2.20167	80
2.20533	81
2.20900	80
2.21267	79
2.21633	81
2.22000	84
2.22367	87
2.22733	89
2.23100	89
2.23467	88
2.23833	87
2.24200	87
2.24567	86
2.24933	85
2.25300	86
2.25667	90
2.26033	93
2.26400	96
2.26767	96
2.27133	95
2.27500	95
2.27867	95
2.28233	95
2.28600	96
2.28967	97
2.29333	99
2.29700	100
2.30067	101
2.30433	104
2.30800	106
2.31167	109
2.31533	110
2.31900	111
2.32267	111
2.32633	110
2.33000	110
2.33367	110
2.33733	111
2.34100	112
2.34467	113
2.34833	114
2.35200	118
2.35567	120
2.35933	121
2.36300	120
2.36667	119
2.37033	120
2.37400	122
2.37767	123
2.38133	124
2.38500	126
2.38867	126
2.39233	125
2.39600	128
2.39967	130
2.40333	135
2.40700	137
2.41067	138
2.41433	140
2.41800	141
2.42167	139
2.42533	140
2.42900	142
2.43267	141
2.43633	141
2.44000	145
2.44367	182
2.44733	264
2.45100	355
2.45467	422
2.45833	451
2.46200	454
2.46567	454
2.46933	454
2.47300	443
2.47667	420
2.48033	390
2.48400	358
2.48767	331
2.49133	315
2.49500	318
2.49867	343
2.50233	385
2.50600	431
2.50967	472
2.51333	500
2.51700	517
2.52067	528
2.52433	537
2.52800	550
2.53167	565
2.53533	587
2.53900	612
2.54267	639
2.54633	667
2.55000	694
2.55367	723
2.55733	748
2.56100	771
2.56467	794
2.56833	813
2.57200	827
2.57567	835
2.57933	837
2.58300	837
2.58667	834
2.59033	827
2.59400	815
2.59767	805
2.60133	795
2.60500	783
2.60867	769
2.61233	749
2.61600	727
2.61967	700
2.62333	670
2.62700	641
2.63067	615
2.63433	588
2.63800	564
2.64167	547
2.64533	533
2.64900	525
2.65267	522
2.65633	522
2.66000	525
2.66367	531
2.66733	541
2.67100	552
2.67467	560
2.67833	569
2.68200	581
2.68567	595
2.68933	607
2.69300	621
2.69667	635
2.70033	650
2.70400	663
2.70767	671
2.71133	677
2.71500	684
2.71867	690
2.72233	694
2.72600	695
2.72967	694
2.73333	696
2.73700	699
2.74067	700
2.74433	700
2.74800	698
2.75167	695
2.75533	688
2.75900	681
2.76267	678
2.76633	675
2.77000	673
2.77367	674
2.77733	672
2.78100	670
2.78467	671
2.78833	670
2.79200	671
2.79567	672
2.79933	672
2.80300	673
2.80667	675
2.81033	676
2.81400	677
2.81767	678
2.82133	679
2.82500	684
2.82867	691
2.83233	708
2.83600	750
2.83967	834
2.84333	982
2.84700	1217
2.85067	1558
2.85433	2014
2.85800	2574
2.86167	3208
2.86533	3873
2.86900	4511
2.87267	5062
2.87633	5489
2.88000	5766
2.88367	5881
2.88733	5844
2.89100	5680
2.89467	5418
2.89833	5088
2.90200	4720
2.90567	4343
2.90933	3969
2.91300	3609
2.91667	3271
2.92033	2961
2.92400	2681
2.92767	2428
2.93133	2202
2.93500	2002
2.93867	1828
2.94233	1679
2.94600	1545
2.94967	1429
2.95333	1332
2.95700	1248
2.96067	1175
2.96433	1111
2.96800	1055
2.97167	1009
2.97533	970
2.97900	939
2.98267	913
2.98633	889
2.99000	867
2.99367	847
2.99733	830
3.00100	814
3.00467	799
3.00833	788
3.01200	781
3.01567	776
3.01933	768
3.02300	760
3.02667	754
3.03033	751
3.03400	751
3.03767	750
3.04133	745
3.04500	740
3.04867	734
3.05233	730
3.05600	727
3.05967	725
3.06333	720
3.06700	715
3.07067	710
3.07433	705
3.07800	703
3.08167	703
3.08533	702
3.08900	700
3.09267	696
3.09633	689
3.10000	682
3.10367	677
3.10733	674
3.11100	671
3.11467	669
3.11833	666
3.12200	662
3.12567	660
3.12933	655
3.13300	650
3.13667	647
3.14033	644
3.14400	638
3.14767	636
3.15133	634
3.15500	632
3.15867	626
3.16233	621
3.16600	619
3.16967	615
3.17333	610
3.17700	606
3.18067	604
3.18433	600
3.18800	595
3.19167	591
3.19533	589
3.19900	586
3.20267	584
3.20633	581
3.21000	579
3.21367	578
3.21733	576
3.22100	573
3.22467	571
3.22833	570
3.23200	568
3.23567	564
3.23933	561
3.24300	559
3.24667	557
3.25033	553
3.25400	550
3.25767	548
3.26133	547
3.26500	547
3.26867	546
3.27233	546
3.27600	543
3.27967	540
3.28333	534
3.28700	528
3.29067	526
3.29433	524
3.29800	523
3.30167	523
3.30533	521
3.30900	519
3.31267	514
3.31633	508
3.32000	506
3.32367	506
3.32733	507
3.33100	507
3.33467	504
3.33833	501
3.34200	497
3.34567	493
3.34933	488
3.35300	487
3.35667	486
3.36033	484
3.36400	481
3.36767	479
3.37133	475
3.37500	470
3.37867	468
3.38233	466
3.38600	463
3.38967	461
3.39333	461
3.39700	460
3.40067	456
3.40433	452
3.40800	450
3.41167	450
3.41533	450
3.41900	450
3.42267	450
3.42633	450
3.43000	450
3.43367	447
3.43733	444
3.44100	440
3.44467	436
3.44833	433
3.45200	431
3.45567	430
3.45933	429
3.46300	428
3.46667	428
3.47033	427
3.47400	423
3.47767	420
3.48133	419
3.48500	418
3.48867	416
3.49233	414
3.49600	412
3.49967	410
3.50333	408
3.50700	409
3.51067	409
3.51433	409
3.51800	407
3.52167	404
3.52533	404
3.52900	402
3.53267	401
3.53633	399
3.54000	399
3.54367	396
3.54733	393
3.55100	392
3.55467	392
3.55833	391
3.56200	388
3.56567	387
3.56933	386
3.57300	386
3.57667	389
3.58033	389
3.58400	387
3.58767	385
3.59133	384
3.59500	383
3.59867	381
3.60233	382
3.60600	382
3.60967	383
3.61333	384
3.61700	383
3.62067	380
3.62433	378
3.62800	376
3.63167	374
3.63533	372
3.63900	372
3.64267	372
3.64633	371
3.65000	372
3.65367	372
3.65733	373
3.66100	374
3.66467	373
3.66833	371
3.67200	367
3.67567	364
3.67933	363
3.68300	364
3.68667	364
3.69033	365
3.69400	364
3.69767	361
3.70133	359
3.70500	358
3.70867	356
3.71233	354
3.71600	352
3.71967	350
3.72333	350
3.72700	348
3.73067	346
3.73433	347
3.73800	352
3.74167	352
3.74533	351
3.74900	348
3.75267	346
3.75633	344
3.76000	343
3.76367	342
3.76733	342
3.77100	341
3.77467	341
3.77833	342
3.78200	342
3.78567	341
3.78933	339
3.79300	338
3.79667	339
3.80033	339
3.80400	339
3.80767	339
3.81133	338
3.81500	339
3.81867	341
3.82233	340
3.82600	338
3.82967	340
3.83333	340
3.83700	338
3.84067	336
3.84433	337
3.84800	336
3.85167	336
3.85533	336
3.85900	338
3.86267	339
3.86633	339
3.87000	336
3.87367	334
3.87733	333
3.88100	334
3.88467	333
3.88833	333
3.89200	333
3.89567	332
3.89933	331
3.90300	330
3.90667	328
3.91033	328
3.91400	328
3.91767	330
3.92133	332
3.92500	332
3.92867	331
3.93233	329
3.93600	327
3.93967	325
3.94333	323
3.94700	321
3.95067	321
3.95433	320
3.95800	318
3.96167	319
3.96533	320
3.96900	321
3.97267	322
3.97633	319
3.98000	317
3.98367	313
3.98733	312
3.99100	312
3.99467	312
3.99833	310

[Status Trace (Column Oven Temperature)]
Interval(msec)	1000
# of Points	240
Start Time(min)	0.005
End Time(min)	3.988
Intensity Units	
Intensity Multiplier	1
R.Time (min)	Intensity
0.00485	35.00
0.02152	35.00
0.03818	34.99
0.05485	35.00
0.07152	35.00
0.08818	35.00
0.10485	34.99
0.12152	34.98
0.13818	34.98
0.15485	34.98
0.17152	34.98
0.18818	35.00
0.20485	35.00
0.22152	35.01
0.23818	35.00
0.25485	35.00
0.27152	35.00
0.28818	35.00
0.30485	34.99
0.32152	34.99
0.33818	35.00
0.35485	35.00
0.37152	35.01
0.38818	35.00
0.40485	35.00
0.42152	35.01
0.43818	35.01
0.45485	35.01
0.47152	35.01
0.48818	35.00
0.50485	35.00
0.52152	34.99
0.53818	34.99
0.55485	35.00
0.57152	35.00
0.58818	34.99
0.60485	34.98
0.62152	34.97
0.63818	34.98
0.65485	34.98
0.67152	34.99
0.68818	34.99
0.70485	34.99
0.72152	34.99
0.73818	34.99
0.75485	35.00
0.77152	35.01
0.78818	35.01
0.80485	35.01
0.82152	35.01
0.83818	35.01
0.85485	35.00
0.87152	35.01
0.88818	35.01
0.90485	35.02
0.92152	35.02
0.93818	35.03
0.95485	35.02
0.97152	35.01
0.98818	35.00
1.00485	34.99
1.02152	34.99
1.03818	34.98
1.05485	34.98
1.07152	34.98
1.08818	34.98
1.10485	34.99
1.12152	34.99
1.13818	34.99
1.15485	35.00
1.17152	35.00
1.18818	35.00
1.20485	34.99
1.22152	35.00
1.23818	35.00
1.25485	35.00
1.27152	35.00
1.28818	35.00
1.30485	34.99
1.32152	34.98
1.33818	34.98
1.35485	34.98
1.37152	34.98
1.38818	34.98
1.40485	34.99
1.42152	35.00
1.43818	35.00
1.45485	35.00
1.47152	34.99
1.48818	34.99
1.50485	34.99
1.52152	34.99
1.53818	35.00
1.55485	35.00
1.57152	35.00
1.58818	35.02
1.60485	35.06
1.62152	35.17
1.63818	35.35
1.65485	35.57
1.67152	35.89
1.68818	36.25
1.70485	36.61
1.72152	36.95
1.73818	37.29
1.75485	37.61
1.77152	37.94
1.78818	38.27
1.80485	38.61
1.82152	38.95
1.83818	39.27
1.85485	39.60
1.87152	39.93
1.88818	40.27
1.90485	40.60
1.92152	40.93
1.93818	41.25
1.95485	41.58
1.97152	41.89
1.98818	42.21
2.00485	42.55
2.02152	42.88
2.03818	43.19
2.05485	43.51
2.07152	43.83
2.08818	44.16
2.10485	44.48
2.12152	44.81
2.13818	45.15
2.15485	45.46
2.17152	45.79
2.18818	46.12
2.20485	46.45
2.22152	46.75
2.23818	47.11
2.25485	47.46
2.27152	47.76
2.28818	48.10
2.30485	48.44
2.32152	48.76
2.33818	49.10
2.35485	49.39
2.37152	49.59
2.38818	49.65
2.40485	49.65
2.42152	49.67
2.43818	49.68
2.45485	49.68
2.47152	49.69
2.48818	49.69
2.50485	49.72
2.52152	49.73
2.53818	49.75
2.55485	49.76
2.57152	49.78
2.58818	49.79
2.60485	49.80
2.62152	49.83
2.63818	49.84
2.65485	49.84
2.67152	49.84
2.68818	49.85
2.70485	49.86
2.72152	49.85
2.73818	49.84
2.75485	49.85
2.77152	49.86
2.78818	49.86
2.80485	49.85
2.82152	49.85
2.83818	49.88
2.85485	49.90
2.87152	49.91
2.88818	49.92
2.90485	49.93
2.92152	49.93
2.93818	49.94
2.95485	49.96
2.97152	49.96
2.98818	49.98
3.00485	49.99
3.02152	50.00
3.03818	50.00
3.05485	50.00
3.07152	50.01
3.08818	50.02
3.10485	50.03
3.12152	50.04
3.13818	50.06
3.15485	50.07
3.17152	50.07
3.18818	50.08
3.20485	50.08
3.22152	50.09
3.23818	50.09
3.25485	50.08
3.27152	50.08
3.28818	50.08
3.30485	50.08
3.32152	50.08
3.33818	50.09
3.35485	50.10
3.37152	50.10
3.38818	50.10
3.40485	50.10
3.42152	50.10
3.43818	50.09
3.45485	50.08
3.47152	50.07
3.48818	50.07
3.50485	50.06
3.52152	50.05
3.53818	50.05
3.55485	50.06
3.57152	50.06
3.58818	50.06
3.60485	50.06
3.62152	50.06
3.63818	50.07
3.65485	50.08
3.67152	50.08
3.68818	50.09
3.70485	50.10
3.72152	50.09
3.73818	50.08
3.75485	50.08
3.77152	50.07
3.78818	50.07
3.80485	50.07
3.82152	50.07
3.83818	50.07
3.85485	50.06
3.87152	50.06
3.88818	50.07
3.90485	50.07
3.92152	50.06
3.93818	50.06
3.95485	50.05
3.97152	50.05
3.98818	50.05

[Status Trace (Injection Unit Temperature)]
Interval(msec)	1000
# of Points	240
Start Time(min)	0.005
End Time(min)	3.988
Intensity Units	
Intensity Multiplier	1
R.Time (min)	Intensity
0.00485	99.99
0.02152	99.99
0.03818	99.99
0.05485	99.99
0.07152	99.99
0.08818	99.98
0.10485	99.99
0.12152	99.99
0.13818	99.99
0.15485	99.99
0.17152	99.99
0.18818	99.99
0.20485	99.99
0.22152	99.99
0.23818	99.99
0.25485	99.99
0.27152	99.99
0.28818	99.99
0.30485	99.99
0.32152	99.99
0.33818	99.99
0.35485	99.99
0.37152	99.99
0.38818	99.99
0.40485	99.99
0.42152	99.99
0.43818	99.99
0.45485	99.99
0.47152	99.99
0.48818	99.99
0.50485	99.99
0.52152	99.99
0.53818	99.98
0.55485	99.99
0.57152	99.99
0.58818	99.99
0.60485	99.99
0.62152	99.99
0.63818	99.99
0.65485	99.99
0.67152	99.99
0.68818	99.99
0.70485	99.99
0.72152	99.99
0.73818	99.99
0.75485	99.99
0.77152	99.99
0.78818	99.99
0.80485	99.99
0.82152	99.99
0.83818	99.99
0.85485	99.99
0.87152	99.99
0.88818	99.98
0.90485	99.99
0.92152	99.99
0.93818	99.98
0.95485	99.99
0.97152	99.99
0.98818	99.99
1.00485	99.99
1.02152	99.98
1.03818	99.98
1.05485	99.98
1.07152	99.99
1.08818	99.99
1.10485	99.99
1.12152	99.98
1.13818	99.98
1.15485	99.98
1.17152	99.99
1.18818	99.98
1.20485	99.98
1.22152	99.98
1.23818	99.98
1.25485	99.99
1.27152	99.99
1.28818	99.99
1.30485	99.98
1.32152	99.98
1.33818	99.98
1.35485	99.99
1.37152	99.99
1.38818	99.98
1.40485	99.99
1.42152	99.98
1.43818	99.98
1.45485	99.99
1.47152	99.99
1.48818	99.98
1.50485	99.99
1.52152	99.99
1.53818	99.98
1.55485	99.99
1.57152	99.99
1.58818	99.99
1.60485	99.99
1.62152	99.99
1.63818	99.99
1.65485	99.98
1.67152	99.99
1.68818	99.99
1.70485	99.99
1.72152	99.99
1.73818	99.99
1.75485	99.99
1.77152	99.99
1.78818	99.98
1.80485	99.99
1.82152	99.99
1.83818	99.99
1.85485	99.99
1.87152	99.98
1.88818	99.98
1.90485	99.98
1.92152	99.98
1.93818	99.98
1.95485	99.98
1.97152	99.98
1.98818	99.98
2.00485	99.98
2.02152	99.98
2.03818	99.97
2.05485	99.97
2.07152	99.97
2.08818	99.97
2.10485	99.97
2.12152	99.97
2.13818	99.97
2.15485	99.97
2.17152	99.97
2.18818	99.97
2.20485	99.97
2.22152	99.97
2.23818	99.97
2.25485	99.97
2.27152	99.97
2.28818	99.97
2.30485	99.97
2.32152	99.97
2.33818	99.97
2.35485	99.97
2.37152	99.96
2.38818	99.97
2.40485	99.97
2.42152	99.96
2.43818	99.96
2.45485	99.97
2.47152	99.96
2.48818	99.97
2.50485	99.97
2.52152	99.97
2.53818	99.96
2.55485	99.97
2.57152	99.97
2.58818	99.97
2.60485	99.97
2.62152	99.97
2.63818	99.97
2.65485	99.97
2.67152	99.98
2.68818	99.98
2.70485	99.98
2.72152	99.98
2.73818	99.98
2.75485	99.98
2.77152	99.98
2.78818	99.98
2.80485	99.99
2.82152	99.99
2.83818	99.99
2.85485	99.99
2.87152	99.99
2.88818	100.00
2.90485	100.00
2.92152	100.00
2.93818	100.00
2.95485	100.00
2.97152	100.00
2.98818	100.00
3.00485	100.01
3.02152	100.01
3.03818	100.01
3.05485	100.02
3.07152	100.01
3.08818	100.01
3.10485	100.02
3.12152	100.02
3.13818	100.02
3.15485	100.02
3.17152	100.02
3.18818	100.03
3.20485	100.02
3.22152	100.03
3.23818	100.03
3.25485	100.03
3.27152	100.03
3.28818	100.03
3.30485	100.03
3.32152	100.03
3.33818	100.04
3.35485	100.04
3.37152	100.04
3.38818	100.04
3.40485	100.04
3.42152	100.04
3.43818	100.04
3.45485	100.04
3.47152	100.04
3.48818	100.05
3.50485	100.05
3.52152	100.04
3.53818	100.05
3.55485	100.05
3.57152	100.05
3.58818	100.05
3.60485	100.05
3.62152	100.05
3.63818	100.05
3.65485	100.05
3.67152	100.05
3.68818	100.05
3.70485	100.06
3.72152	100.06
3.73818	100.06
3.75485	100.06
3.77152	100.05
3.78818	100.05
3.80485	100.06
3.82152	100.05
3.83818	100.05
3.85485	100.06
3.87152	100.05
3.88818	100.05
3.90485	100.05
3.92152	100.05
3.93818	100.05
3.95485	100.05
3.97152	100.05
3.98818	100.05

[Status Trace (Carrier Gas Pressure)]
Interval(msec)	1000
# of Points	240
Start Time(min)	0.005
End Time(min)	3.988
Intensity Units	
Intensity Multiplier	1
R.Time (min)	Intensity
0.00485	58.00
0.02152	55.79
0.03818	56.65
0.05485	58.93
0.07152	59.65
0.08818	58.15
0.10485	57.98
0.12152	58.01
0.13818	58.01
0.15485	58.01
0.17152	58.00
0.18818	58.00
0.20485	58.00
0.22152	58.00
0.23818	58.00
0.25485	58.00
0.27152	58.00
0.28818	58.00
0.30485	58.00
0.32152	58.00
0.33818	58.00
0.35485	58.00
0.37152	58.00
0.38818	58.00
0.40485	58.00
0.42152	58.00
0.43818	58.00
0.45485	58.00
0.47152	58.00
0.48818	58.00
0.50485	58.00
0.52152	58.00
0.53818	58.00
0.55485	58.00
0.57152	58.00
0.58818	58.00
0.60485	58.00
0.62152	58.00
0.63818	58.00
0.65485	58.00
0.67152	58.00
0.68818	58.00
0.70485	58.00
0.72152	58.00
0.73818	58.00
0.75485	58.00
0.77152	58.00
0.78818	58.00
0.80485	58.00
0.82152	58.00
0.83818	58.00
0.85485	58.00
0.87152	58.00
0.88818	58.00
0.90485	58.00
0.92152	58.00
0.93818	58.00
0.95485	58.00
0.97152	58.00
0.98818	58.00
1.00485	58.00
1.02152	58.00
1.03818	58.00
1.05485	58.00
1.07152	58.00
1.08818	58.00
1.10485	58.00
1.12152	58.00
1.13818	58.00
1.15485	58.00
1.17152	58.00
1.18818	58.00
1.20485	58.00
1.22152	58.00
1.23818	58.00
1.25485	58.00
1.27152	58.00
1.28818	58.00
1.30485	58.00
1.32152	58.00
1.33818	58.00
1.35485	58.00
1.37152	58.00
1.38818	58.00
1.40485	58.00
1.42152	58.00
1.43818	58.00
1.45485	58.00
1.47152	58.00
1.48818	58.00
1.50485	58.00
1.52152	58.00
1.53818	58.00
1.55485	58.00
1.57152	58.00
1.58818	58.00
1.60485	58.00
1.62152	58.00
1.63818	58.01
1.65485	58.00
1.67152	58.01
1.68818	58.01
1.70485	58.00
1.72152	58.00
1.73818	58.00
1.75485	58.00
1.77152	58.00
1.78818	58.00
1.80485	58.00
1.82152	58.00
1.83818	58.00
1.85485	58.00
1.87152	58.00
1.88818	58.00
1.90485	58.00
1.92152	58.00
1.93818	58.00
1.95485	58.00
1.97152	58.00
1.98818	58.00
2.00485	58.00
2.02152	58.00
2.03818	58.00
2.05485	58.00
2.07152	58.00
2.08818	58.00
2.10485	58.00
2.12152	58.00
2.13818	58.00
2.15485	58.00
2.17152	58.00
2.18818	58.00
2.20485	58.00
2.22152	58.00
2.23818	58.00
2.25485	58.00
2.27152	58.00
2.28818	58.00
2.30485	58.00
2.32152	58.00
2.33818	58.00
2.35485	58.00
2.37152	58.00
2.38818	57.99
2.40485	57.99
2.42152	58.00
2.43818	58.00
2.45485	58.00
2.47152	58.00
2.48818	58.00
2.50485	57.99
2.52152	57.98
2.53818	58.00
2.55485	58.00
2.57152	58.00
2.58818	58.00
2.60485	58.00
2.62152	58.00
2.63818	58.00
2.65485	58.00
2.67152	58.00
2.68818	58.00
2.70485	58.00
2.72152	58.00
2.73818	58.00
2.75485	58.00
2.77152	58.00
2.78818	58.00
2.80485	58.00
2.82152	58.00
2.83818	58.00
2.85485	58.00
2.87152	58.00
2.88818	58.00
2.90485	58.00
2.92152	58.00
2.93818	58.00
2.95485	58.00
2.97152	58.00
2.98818	58.00
3.00485	58.00
3.02152	58.00
3.03818	58.00
3.05485	58.00
3.07152	58.00
3.08818	58.00
3.10485	58.00
3.12152	58.00
3.13818	58.00
3.15485	58.00
3.17152	58.00
3.18818	58.00
3.20485	58.00
3.22152	58.00
3.23818	58.00
3.25485	58.00
3.27152	58.00
3.28818	58.00
3.30485	58.00
3.32152	58.00
3.33818	58.00
3.35485	58.00
3.37152	58.00
3.38818	58.00
3.40485	58.00
3.42152	58.00
3.43818	58.00
3.45485	58.00
3.47152	58.00
3.48818	58.00
3.50485	58.00
3.52152	58.00
3.53818	58.00
3.55485	58.00
3.57152	58.00
3.58818	58.00
3.60485	58.00
3.62152	58.00
3.63818	58.00
3.65485	58.00
3.67152	58.00
3.68818	58.00
3.70485	58.00
3.72152	58.00
3.73818	58.00
3.75485	58.00
3.77152	58.00
3.78818	58.00
3.80485	58.00
3.82152	58.00
3.83818	58.00
3.85485	58.00
3.87152	58.00
3.88818	58.00
3.90485	58.00
3.92152	58.00
3.93818	58.00
3.95485	58.00
3.97152	58.00
3.98818	58.00

[Status Trace (Carrier Gas Flow)]
Interval(msec)	1000
# of Points	240
Start Time(min)	0.005
End Time(min)	3.988
Intensity Units	
Intensity Multiplier	1
R.Time (min)	Intensity
0.00485	34.52
0.02152	34.54
0.03818	34.55
0.05485	34.55
0.07152	34.49
0.08818	34.52
0.10485	34.52
0.12152	34.52
0.13818	34.52
0.15485	34.52
0.17152	34.52
0.18818	34.52
0.20485	34.52
0.22152	34.52
0.23818	34.52
0.25485	34.52
0.27152	34.52
0.28818	34.52
0.30485	34.52
0.32152	34.52
0.33818	34.52
0.35485	34.52
0.37152	34.52
0.38818	34.52
0.40485	34.52
0.42152	34.52
0.43818	34.52
0.45485	34.52
0.47152	34.52
0.48818	34.52
0.50485	34.52
0.52152	34.52
0.53818	34.52
0.55485	34.52
0.57152	34.51
0.58818	34.52
0.60485	34.52
0.62152	34.52
0.63818	34.52
0.65485	34.52
0.67152	34.52
0.68818	34.52
0.70485	34.52
0.72152	34.52
0.73818	34.52
0.75485	34.52
0.77152	34.52
0.78818	34.52
0.80485	34.52
0.82152	34.51
0.83818	34.52
0.85485	34.52
0.87152	34.52
0.88818	34.52
0.90485	34.52
0.92152	34.51
0.93818	34.52
0.95485	34.52
0.97152	34.52
0.98818	34.51
1.00485	34.52
1.02152	34.52
1.03818	34.53
1.05485	34.52
1.07152	34.52
1.08818	34.52
1.10485	34.52
1.12152	34.52
1.13818	34.52
1.15485	34.52
1.17152	34.52
1.18818	34.52
1.20485	34.52
1.22152	34.52
1.23818	34.52
1.25485	34.52
1.27152	34.52
1.28818	34.52
1.30485	34.52
1.32152	34.52
1.33818	34.52
1.35485	34.52
1.37152	34.52
1.38818	34.52
1.40485	34.52
1.42152	34.52
1.43818	34.52
1.45485	34.52
1.47152	34.52
1.48818	34.52
1.50485	34.52
1.52152	34.52
1.53818	34.52
1.55485	34.52
1.57152	34.52
1.58818	34.52
1.60485	34.52
1.62152	34.52
1.63818	34.52
1.65485	34.52
1.67152	34.52
1.68818	34.52
1.70485	34.52
1.72152	34.52
1.73818	34.52
1.75485	34.52
1.77152	34.52
1.78818	34.52
1.80485	34.52
1.82152	34.52
1.83818	34.52
1.85485	34.52
1.87152	34.52
1.88818	34.52
1.90485	34.52
1.92152	34.52
1.93818	34.52
1.95485	34.52
1.97152	34.52
1.98818	34.52
2.00485	34.52
2.02152	34.52
2.03818	34.52
2.05485	34.52
2.07152	34.52
2.08818	34.52
2.10485	34.52
2.12152	34.52
2.13818	34.52
2.15485	34.52
2.17152	34.52
2.18818	34.52
2.20485	34.52
2.22152	34.52
2.23818	34.52
2.25485	34.52
2.27152	34.52
2.28818	34.52
2.30485	34.52
2.32152	34.52
2.33818	34.52
2.35485	34.52
2.37152	34.52
2.38818	34.51
2.40485	34.52
2.42152	34.52
2.43818	34.52
2.45485	34.52
2.47152	34.52
2.48818	34.52
2.50485	34.55
2.52152	34.51
2.53818	34.52
2.55485	34.51
2.57152	34.52
2.58818	34.52
2.60485	34.52
2.62152	34.51
2.63818	34.51
2.65485	34.52
2.67152	34.52
2.68818	34.52
2.70485	34.52
2.72152	34.52
2.73818	34.52
2.75485	34.52
2.77152	34.51
2.78818	34.53
2.80485	34.51
2.82152	34.51
2.83818	34.52
2.85485	34.52
2.87152	34.51
2.88818	34.52
2.90485	34.52
2.92152	34.52
2.93818	34.51
2.95485	34.52
2.97152	34.52
2.98818	34.52
3.00485	34.52
3.02152	34.52
3.03818	34.52
3.05485	34.52
3.07152	34.52
3.08818	34.52
3.10485	34.52
3.12152	34.52
3.13818	34.52
3.15485	34.52
3.17152	34.52
3.18818	34.52
3.20485	34.52
3.22152	34.52
3.23818	34.52
3.25485	34.52
3.27152	34.52
3.28818	34.52
3.30485	34.52
3.32152	34.52
3.33818	34.52
3.35485	34.52
3.37152	34.52
3.38818	34.52
3.40485	34.52
3.42152	34.52
3.43818	34.52
3.45485	34.52
3.47152	34.52
3.48818	34.52
3.50485	34.52
3.52152	34.52
3.53818	34.52
3.55485	34.52
3.57152	34.52
3.58818	34.52
3.60485	34.52
3.62152	34.52
3.63818	34.52
3.65485	34.52
3.67152	34.52
3.68818	34.52
3.70485	34.52
3.72152	34.52
3.73818	34.52
3.75485	34.52
3.77152	34.52
3.78818	34.52
3.80485	34.52
3.82152	34.52
3.83818	34.52
3.85485	34.52
3.87152	34.52
3.88818	34.52
3.90485	34.52
3.92152	34.52
3.93818	34.52
3.95485	34.52
3.97152	34.52
3.98818	34.52

[Status Trace (Column Flow)]
Interval(msec)	1000
# of Points	240
Start Time(min)	0.005
End Time(min)	3.988
Intensity Units	
Intensity Multiplier	1
R.Time (min)	Intensity
0.00485	5.45
0.02152	5.19
0.03818	5.29
0.05485	5.55
0.07152	5.64
0.08818	5.46
0.10485	5.44
0.12152	5.45
0.13818	5.45
0.15485	5.45
0.17152	5.45
0.18818	5.45
0.20485	5.45
0.22152	5.45
0.23818	5.45
0.25485	5.45
0.27152	5.45
0.28818	5.45
0.30485	5.45
0.32152	5.45
0.33818	5.45
0.35485	5.45
0.37152	5.45
0.38818	5.45
0.40485	5.45
0.42152	5.45
0.43818	5.45
0.45485	5.45
0.47152	5.45
0.48818	5.45
0.50485	5.45
0.52152	5.45
0.53818	5.45
0.55485	5.45
0.57152	5.45
0.58818	5.45
0.60485	5.45
0.62152	5.45
0.63818	5.45
0.65485	5.45
0.67152	5.45
0.68818	5.45
0.70485	5.45
0.72152	5.45
0.73818	5.45
0.75485	5.45
0.77152	5.45
0.78818	5.45
0.80485	5.45
0.82152	5.45
0.83818	5.45
0.85485	5.45
0.87152	5.45
0.88818	5.45
0.90485	5.45
0.92152	5.45
0.93818	5.45
0.95485	5.45
0.97152	5.45
0.98818	5.45
1.00485	5.45
1.02152	5.45
1.03818	5.45
1.05485	5.45
1.07152	5.45
1.08818	5.45
1.10485	5.45
1.12152	5.45
1.13818	5.45
1.15485	5.45
1.17152	5.45
1.18818	5.45
1.20485	5.45
1.22152	5.45
1.23818	5.45
1.25485	5.45
1.27152	5.45
1.28818	5.45
1.30485	5.45
1.32152	5.45
1.33818	5.45
1.35485	5.45
1.37152	5.45
1.38818	5.45
1.40485	5.45
1.42152	5.45
1.43818	5.45
1.45485	5.45
1.47152	5.45
1.48818	5.45
1.50485	5.45
1.52152	5.45
1.53818	5.45
1.55485	5.45
1.57152	5.45
1.58818	5.45
1.60485	5.44
1.62152	5.44
1.63818	5.44
1.65485	5.43
1.67152	5.42
1.68818	5.41
1.70485	5.40
1.72152	5.39
1.73818	5.38
1.75485	5.37
1.77152	5.36
1.78818	5.35
1.80485	5.34
1.82152	5.33
1.83818	5.32
1.85485	5.31
1.87152	5.30
1.88818	5.29
1.90485	5.28
1.92152	5.27
1.93818	5.26
1.95485	5.25
1.97152	5.24
1.98818	5.23
2.00485	5.22
2.02152	5.21
2.03818	5.20
2.05485	5.19
2.07152	5.18
2.08818	5.17
2.10485	5.16
2.12152	5.15
2.13818	5.14
2.15485	5.13
2.17152	5.13
2.18818	5.12
2.20485	5.11
2.22152	5.10
2.23818	5.09
2.25485	5.08
2.27152	5.07
2.28818	5.06
2.30485	5.05
2.32152	5.04
2.33818	5.03
2.35485	5.03
2.37152	5.02
2.38818	5.02
2.40485	5.02
2.42152	5.02
2.43818	5.02
2.45485	5.02
2.47152	5.02
2.48818	5.02
2.50485	5.02
2.52152	5.01
2.53818	5.01
2.55485	5.02
2.57152	5.01
2.58818	5.01
2.60485	5.01
2.62152	5.01
2.63818	5.01
2.65485	5.01
2.67152	5.01
2.68818	5.01
2.70485	5.01
2.72152	5.01
2.73818	5.01
2.75485	5.01
2.77152	5.01
2.78818	5.01
2.80485	5.01
2.82152	5.01
2.83818	5.01
2.85485	5.01
2.87152	5.01
2.88818	5.01
2.90485	5.01
2.92152	5.01
2.93818	5.01
2.95485	5.01
2.97152	5.01
2.98818	5.01
3.00485	5.01
3.02152	5.01
3.03818	5.01
3.05485	5.01
3.07152	5.01
3.08818	5.01
3.10485	5.01
3.12152	5.01
3.13818	5.01
3.15485	5.01
3.17152	5.01
3.18818	5.01
3.20485	5.01
3.22152	5.01
3.23818	5.01
3.25485	5.01
3.27152	5.01
3.28818	5.01
3.30485	5.01
3.32152	5.01
3.33818	5.01
3.35485	5.01
3.37152	5.01
3.38818	5.01
3.40485	5.01
3.42152	5.01
3.43818	5.01
3.45485	5.01
3.47152	5.01
3.48818	5.01
3.50485	5.01
3.52152	5.01
3.53818	5.01
3.55485	5.01
3.57152	5.01
3.58818	5.01
3.60485	5.01
3.62152	5.01
3.63818	5.01
3.65485	5.01
3.67152	5.01
3.68818	5.01
3.70485	5.01
3.72152	5.01
3.73818	5.01
3.75485	5.01
3.77152	5.01
3.78818	5.01
3.80485	5.01
3.82152	5.01
3.83818	5.01
3.85485	5.01
3.87152	5.01
3.88818	5.01
3.90485	5.01
3.92152	5.01
3.93818	5.01
3.95485	5.01
3.97152	5.01
3.98818	5.01

[Status Trace (Linear Velocity)]
Interval(msec)	1000
# of Points	240
Start Time(min)	0.005
End Time(min)	3.988
Intensity Units	
Intensity Multiplier	1
R.Time (min)	Intensity
0.00485	39.00
0.02152	37.55
0.03818	38.11
0.05485	39.60
0.07152	40.08
0.08818	39.10
0.10485	38.98
0.12152	39.01
0.13818	39.01
0.15485	39.00
0.17152	39.00
0.18818	39.00
0.20485	39.00
0.22152	39.00
0.23818	39.00
0.25485	39.00
0.27152	39.00
0.28818	39.00
0.30485	39.00
0.32152	39.00
0.33818	39.00
0.35485	39.00
0.37152	39.00
0.38818	39.00
0.40485	39.00
0.42152	39.00
0.43818	39.00
0.45485	39.00
0.47152	39.00
0.48818	39.00
0.50485	39.00
0.52152	39.00
0.53818	39.00
0.55485	39.00
0.57152	39.00
0.58818	39.00
0.60485	39.00
0.62152	39.00
0.63818	39.00
0.65485	39.00
0.67152	39.00
0.68818	39.00
0.70485	39.00
0.72152	39.00
0.73818	39.00
0.75485	39.00
0.77152	39.00
0.78818	39.00
0.80485	39.00
0.82152	39.00
0.83818	39.00
0.85485	39.00
0.87152	39.00
0.88818	39.00
0.90485	39.00
0.92152	39.00
0.93818	39.00
0.95485	39.00
0.97152	39.00
0.98818	39.00
1.00485	39.00
1.02152	39.00
1.03818	39.00
1.05485	39.00
1.07152	39.00
1.08818	39.00
1.10485	39.00
1.12152	39.00
1.13818	39.00
1.15485	39.00
1.17152	39.00
1.18818	39.00
1.20485	39.00
1.22152	39.00
1.23818	39.00
1.25485	39.00
1.27152	39.00
1.28818	39.00
1.30485	39.00
1.32152	39.00
1.33818	39.00
1.35485	39.00
1.37152	39.00
1.38818	39.00
1.40485	39.00
1.42152	39.00
1.43818	39.00
1.45485	39.00
1.47152	39.00
1.48818	39.00
1.50485	39.00
1.52152	39.00
1.53818	39.00
1.55485	39.00
1.57152	39.00
1.58818	39.00
1.60485	38.99
1.62152	38.98
1.63818	38.97
1.65485	38.95
1.67152	38.92
1.68818	38.88
1.70485	38.85
1.72152	38.81
1.73818	38.78
1.75485	38.75
1.77152	38.72
1.78818	38.69
1.80485	38.66
1.82152	38.62
1.83818	38.59
1.85485	38.56
1.87152	38.53
1.88818	38.50
1.90485	38.47
1.92152	38.44
1.93818	38.41
1.95485	38.38
1.97152	38.35
1.98818	38.32
2.00485	38.29
2.02152	38.26
2.03818	38.23
2.05485	38.20
2.07152	38.17
2.08818	38.14
2.10485	38.11
2.12152	38.08
2.13818	38.05
2.15485	38.02
2.17152	37.99
2.18818	37.96
2.20485	37.93
2.22152	37.90
2.23818	37.88
2.25485	37.84
2.27152	37.81
2.28818	37.79
2.30485	37.75
2.32152	37.72
2.33818	37.70
2.35485	37.67
2.37152	37.65
2.38818	37.64
2.40485	37.64
2.42152	37.64
2.43818	37.64
2.45485	37.64
2.47152	37.64
2.48818	37.64
2.50485	37.63
2.52152	37.63
2.53818	37.63
2.55485	37.64
2.57152	37.63
2.58818	37.63
2.60485	37.63
2.62152	37.63
2.63818	37.63
2.65485	37.63
2.67152	37.63
2.68818	37.63
2.70485	37.63
2.72152	37.63
2.73818	37.63
2.75485	37.63
2.77152	37.63
2.78818	37.63
2.80485	37.63
2.82152	37.63
2.83818	37.63
2.85485	37.62
2.87152	37.62
2.88818	37.62
2.90485	37.62
2.92152	37.62
2.93818	37.62
2.95485	37.62
2.97152	37.62
2.98818	37.62
3.00485	37.62
3.02152	37.62
3.03818	37.61
3.05485	37.61
3.07152	37.61
3.08818	37.61
3.10485	37.61
3.12152	37.61
3.13818	37.61
3.15485	37.61
3.17152	37.61
3.18818	37.61
3.20485	37.61
3.22152	37.61
3.23818	37.61
3.25485	37.61
3.27152	37.61
3.28818	37.61
3.30485	37.61
3.32152	37.61
3.33818	37.61
3.35485	37.61
3.37152	37.61
3.38818	37.61
3.40485	37.61
3.42152	37.61
3.43818	37.61
3.45485	37.61
3.47152	37.61
3.48818	37.61
3.50485	37.61
3.52152	37.61
3.53818	37.61
3.55485	37.61
3.57152	37.61
3.58818	37.61
3.60485	37.61
3.62152	37.61
3.63818	37.61
3.65485	37.61
3.67152	37.61
3.68818	37.61
3.70485	37.61
3.72152	37.61
3.73818	37.61
3.75485	37.61
3.77152	37.61
3.78818	37.61
3.80485	37.61
3.82152	37.61
3.83818	37.61
3.85485	37.61
3.87152	37.61
3.88818	37.61
3.90485	37.61
3.92152	37.61
3.93818	37.61
3.95485	37.61
3.97152	37.61
3.98818	37.61

