[Header]
Application Name	LabSolutions
Version	5.110
Data File Name	C:\Users\User\Desktop\GC Analyses\Jack\UIC Prairie Sampling\10.19.22\221019_018.gcd
Output Date	1/4/2023
Output Time	2:27:27 PM

[File Information]
Type	Data File
Generated	12/5/2022 2:56:14 PM
Generated by	System Administrator
Modified	12/5/2022 3:00:45 PM
Modified by	System Administrator

[Sample Information]
Operator Name	System Administrator
Acquired	12/5/2022 2:56:43 PM
Sample Type	1:Standard
Level	1
Sample Name	221019_UICPrairie
Sample ID	221019_UICPrairie
ISTD Amount1	1
ISTD Amount2	1
ISTD Amount3	1
ISTD Amount4	1
ISTD Amount5	1
ISTD Amount6	1
ISTD Amount7	1
ISTD Amount8	1
ISTD Amount9	1
ISTD Amount10	1
ISTD Amount11	1
ISTD Amount12	1
ISTD Amount13	1
ISTD Amount14	1
ISTD Amount15	1
ISTD Amount16	1
ISTD Amount17	1
ISTD Amount18	1
ISTD Amount19	1
ISTD Amount20	1
ISTD Amount21	1
ISTD Amount22	1
ISTD Amount23	1
ISTD Amount24	1
ISTD Amount25	1
ISTD Amount26	1
ISTD Amount27	1
ISTD Amount28	1
ISTD Amount29	1
ISTD Amount30	1
ISTD Amount31	1
ISTD Amount32	1
Sample Amount	1
Dilution Factor	1
Vial#	1
Injection Volume	1
Injection Count	1
Bar Code	

[Original Files]
Data File	C:\Users\User\Desktop\GC Analyses\Jack\UIC Prairie Sampling\10.19.22\221019_018.gcd
Method File	C:\LabSolutions\Data\GHG_4min_2022\ghg3_togas_w_acet_4 min_new_int.gcm
Batch File	
Report Format File	c:\LabSolutions\System\DEFAULT.lsr

[File Description]


[Configuration]
Instrument Name	C0B7VH3-Instrument1
Instrument #	1
Line #	1
# of Detectors	3
Detector ID	DET#1	DET#2	DET#3
Detector Name	FID	PTCD	ECD
# of Channels	1	1	1

[Peak Table(Ch1)]
# of Peaks	3
Peak#	R.Time	I.Time	F.Time	Area	Height	A/H	Conc.	Mark	ID#	Name	k'	Plate #	Plate Ht.	Tailing	Resolution	Sep.Factor	Area Ratio	Height Ratio	Conc. %	Norm Conc.
1	1.479	1.439	1.538	11635	5144	2.262	100.000	   	1	CO	0.000	8283	18.109	1.232	0.000	0.000	0	0	16.667	16.667
2	1.571	1.538	1.630	4727	2355	2.007	100.000	 V 	2	CH4	0.062	11000	13.637	0.000	1.467	0.000	0	0	16.667	16.667
3	2.000	1.956	2.480	1029733	487466	2.112	400.000	   	3	CO2	0.352	17447	8.598	1.309	7.121	5.680	0	0	66.667	66.667

[Peak Table(Ch2)]
# of Peaks	0

[Peak Table(Ch3)]
# of Peaks	5
Peak#	R.Time	I.Time	F.Time	Area	Height	A/H	Conc.	Mark	ID#	Name	k'	Plate #	Plate Ht.	Tailing	Resolution	Sep.Factor	Area Ratio	Height Ratio	Conc. %	Norm Conc.
1	2.469	1.894	2.484	2323	436	5.334	0.000	   			0.000	4033	37.193	0.000	0.000	0.000	0	0	0.000	0.000
2	2.510	2.484	2.535	1304	452	2.882	0.000	 V 			0.016	724	207.274	0.000	0.153	0.000	0	0	0.000	0.000
3	2.587	2.535	2.664	3169	524	6.047	0.000	 V 			0.048	1469	102.095	0.000	0.239	2.909	0	0	0.000	0.000
4	2.781	2.664	2.821	3355	422	7.957	0.094	 V 	1	N2O	0.126	270	554.896	0.000	0.411	2.656	0	0	9.434	9.434
5	2.891	2.821	3.778	32206	5615	5.735	0.906	 V 	1	N2O	0.171	12049	12.449	0.000	0.281	1.353	0	0	90.566	90.566

[Compound Results(Ch1)]
# of IDs	6
ID#	Name	R.Time	Area	Height	Conc.	Curve	3rd	2nd	1st	Constant	Area Ratio	Height Ratio	Conc. %	Norm Conc.
1	CO	1.479	11635	5144	100.000	Linear	0.000000e+00	0.000000e+00	1.163527e+002	0.000000e+00	0	0	16.667	16.667
2	CH4	1.571	4727	2355	100.000	Linear	0.000000e+00	0.000000e+00	4.726843e+001	0.000000e+00	0	0	16.667	16.667
3	CO2	2.000	1029733	487466	400.000	Linear	0.000000e+00	0.000000e+00	2.574333e+003	0.000000e+00	0	0	66.667	66.667
4	Ethylene	0.000	0	0	0.000	Linear	0.000000e+00	0.000000e+00	0.000000e+00	0.000000e+00	0	0	0.000	0.000
5	Acetylene	0.000	0	0	0.000	Linear	0.000000e+00	0.000000e+00	0.000000e+00	0.000000e+00	0	0	0.000	0.000
6	Ethane	0.000	0	0	0.000	Linear	0.000000e+00	0.000000e+00	0.000000e+00	0.000000e+00	0	0	0.000	0.000

[Compound Results(Ch2)]
# of IDs	5
ID#	Name	R.Time	Area	Height	Conc.	Curve	3rd	2nd	1st	Constant	Area Ratio	Height Ratio	Conc. %	Norm Conc.
1	Hydrogen	0.000	0	0	0.000	Linear	0.000000e+00	0.000000e+00	0.000000e+00	0.000000e+00	0	0	0.000	0.000
2	Oxygen	0.000	0	0	0.000	Linear	0.000000e+00	0.000000e+00	0.000000e+00	0.000000e+00	0	0	0.000	0.000
3	Nitrogen	0.000	0	0	0.000	Linear	0.000000e+00	0.000000e+00	0.000000e+00	0.000000e+00	0	0	0.000	0.000
4	Methane	0.000	0	0	0.000	Linear	0.000000e+00	0.000000e+00	0.000000e+00	0.000000e+00	0	0	0.000	0.000
5	Carbon Monoxide	0.000	0	0	0.000	Linear	0.000000e+00	0.000000e+00	0.000000e+00	0.000000e+00	0	0	0.000	0.000

[Compound Results(Ch3)]
# of IDs	2
ID#	Name	R.Time	Area	Height	Conc.	Curve	3rd	2nd	1st	Constant	Area Ratio	Height Ratio	Conc. %	Norm Conc.
1	N2O	2.891	35561	6037	1.000	Linear	0.000000e+00	0.000000e+00	3.556081e+004	0.000000e+00	0	0	100.000	100.000
2	SF6	0.000	0	0	0.000	Linear	0.000000e+00	0.000000e+00	0.000000e+00	0.000000e+00	0	0	0.000	0.000

[Group Results(Ch1)]
# of Groups	0

[Group Results(Ch2)]
# of Groups	0

[Group Results(Ch3)]
# of Groups	0

[Chromatogram (Ch1)]
Interval(msec)	220
# of Points	1091
Start Time(min)	0.002
End Time(min)	3.998
R.Time (min)	Intensity
0.00167	-14
0.00533	-12
0.00900	-13
0.01267	-22
0.01633	-26
0.02000	-28
0.02367	-22
0.02733	-23
0.03100	-31
0.03467	-38
0.03833	-40
0.04200	-38
0.04567	-32
0.04933	-27
0.05300	-25
0.05667	-24
0.06033	-21
0.06400	-15
0.06767	-10
0.07133	-5
0.07500	0
0.07867	2
0.08233	-1
0.08600	-7
0.08967	-14
0.09333	-17
0.09700	-17
0.10067	-12
0.10433	-6
0.10800	-5
0.11167	-7
0.11533	-10
0.11900	-13
0.12267	-19
0.12633	-27
0.13000	-32
0.13367	-34
0.13733	-41
0.14100	-38
0.14467	-26
0.14833	-15
0.15200	-6
0.15567	-0
0.15933	4
0.16300	3
0.16667	0
0.17033	-5
0.17400	-12
0.17767	-18
0.18133	-21
0.18500	-21
0.18867	-17
0.19233	-17
0.19600	-18
0.19967	-18
0.20333	-17
0.20700	-19
0.21067	-21
0.21433	-25
0.21800	-25
0.22167	-24
0.22533	-23
0.22900	-23
0.23267	-20
0.23633	-11
0.24000	-2
0.24367	0
0.24733	-4
0.25100	-11
0.25467	-17
0.25833	-18
0.26200	-17
0.26567	-13
0.26933	-11
0.27300	-11
0.27667	-13
0.28033	-16
0.28400	-18
0.28767	-17
0.29133	-15
0.29500	-15
0.29867	-18
0.30233	-22
0.30600	-31
0.30967	-40
0.31333	-48
0.31700	-52
0.32067	-51
0.32433	-46
0.32800	-39
0.33167	-33
0.33533	-28
0.33900	-24
0.34267	-19
0.34633	-13
0.35000	-11
0.35367	-14
0.35733	-22
0.36100	-29
0.36467	-33
0.36833	-36
0.37200	-40
0.37567	-42
0.37933	-39
0.38300	-32
0.38667	-21
0.39033	-14
0.39400	-15
0.39767	-21
0.40133	-26
0.40500	-28
0.40867	-29
0.41233	-28
0.41600	-25
0.41967	-26
0.42333	-33
0.42700	-43
0.43067	-51
0.43433	-55
0.43800	-54
0.44167	-50
0.44533	-45
0.44900	-38
0.45267	-34
0.45633	-32
0.46000	-34
0.46367	-41
0.46733	-46
0.47100	-50
0.47467	-48
0.47833	-40
0.48200	-32
0.48567	-29
0.48933	-31
0.49300	-37
0.49667	-41
0.50033	-43
0.50400	-42
0.50767	-40
0.51133	-39
0.51500	-39
0.51867	-43
0.52233	-47
0.52600	-49
0.52967	-48
0.53333	-48
0.53700	-45
0.54067	-36
0.54433	-26
0.54800	-19
0.55167	-17
0.55533	-18
0.55900	-20
0.56267	-21
0.56633	-21
0.57000	-24
0.57367	-29
0.57733	-35
0.58100	-37
0.58467	-35
0.58833	-33
0.59200	-34
0.59567	-36
0.59933	-40
0.60300	-46
0.60667	-55
0.61033	-61
0.61400	-61
0.61767	-57
0.62133	-49
0.62500	-40
0.62867	-31
0.63233	-25
0.63600	-26
0.63967	-29
0.64333	-33
0.64700	-36
0.65067	-39
0.65433	-43
0.65800	-46
0.66167	-47
0.66533	-44
0.66900	-39
0.67267	-36
0.67633	-38
0.68000	-44
0.68367	-48
0.68733	-53
0.69100	-56
0.69467	-60
0.69833	-63
0.70200	-65
0.70567	-62
0.70933	-55
0.71300	-47
0.71667	-42
0.72033	-39
0.72400	-35
0.72767	-31
0.73133	-32
0.73500	-36
0.73867	-40
0.74233	-43
0.74600	-45
0.74967	-45
0.75333	-44
0.75700	-46
0.76067	-49
0.76433	-49
0.76800	-47
0.77167	-44
0.77533	-40
0.77900	-35
0.78267	-31
0.78633	-29
0.79000	-30
0.79367	-32
0.79733	-30
0.80100	-28
0.80467	-27
0.80833	-27
0.81200	-31
0.81567	-41
0.81933	-52
0.82300	-62
0.82667	-68
0.83033	-71
0.83400	-72
0.83767	-71
0.84133	-70
0.84500	-67
0.84867	-64
0.85233	-61
0.85600	-56
0.85967	-51
0.86333	-45
0.86700	-36
0.87067	-27
0.87433	-22
0.87800	-22
0.88167	-27
0.88533	-34
0.88900	-39
0.89267	-45
0.89633	-50
0.90000	-51
0.90367	-49
0.90733	-46
0.91100	-48
0.91467	-54
0.91833	-56
0.92200	-56
0.92567	-52
0.92933	-49
0.93300	-50
0.93667	-54
0.94033	-57
0.94400	-61
0.94767	-67
0.95133	-70
0.95500	-71
0.95867	-68
0.96233	-63
0.96600	-55
0.96967	-52
0.97333	-48
0.97700	-47
0.98067	-46
0.98433	-47
0.98800	-48
0.99167	-51
0.99533	-52
0.99900	-55
1.00267	-59
1.00633	-66
1.01000	-73
1.01367	-77
1.01733	-79
1.02100	-79
1.02467	-76
1.02833	-73
1.03200	-73
1.03567	-73
1.03933	-70
1.04300	-63
1.04667	-52
1.05033	-46
1.05400	-45
1.05767	-47
1.06133	-54
1.06500	-62
1.06867	-66
1.07233	-65
1.07600	-58
1.07967	-54
1.08333	-57
1.08700	-64
1.09067	-74
1.09433	-82
1.09800	-84
1.10167	-80
1.10533	-75
1.10900	-68
1.11267	-61
1.11633	-58
1.12000	-55
1.12367	-57
1.12733	-58
1.13100	-58
1.13467	-58
1.13833	-58
1.14200	-59
1.14567	-62
1.14933	-70
1.15300	-81
1.15667	-89
1.16033	-94
1.16400	-93
1.16767	-85
1.17133	-75
1.17500	-69
1.17867	-66
1.18233	-67
1.18600	-68
1.18967	-65
1.19333	-63
1.19700	-62
1.20067	-64
1.20433	-66
1.20800	-68
1.21167	-69
1.21533	-66
1.21900	-63
1.22267	-59
1.22633	-60
1.23000	-65
1.23367	-72
1.23733	-74
1.24100	-74
1.24467	-74
1.24833	-75
1.25200	-75
1.25567	-72
1.25933	-70
1.26300	-68
1.26667	-68
1.27033	-71
1.27400	-73
1.27767	-74
1.28133	-72
1.28500	-66
1.28867	-60
1.29233	-55
1.29600	-54
1.29967	-57
1.30333	-63
1.30700	-66
1.31067	-67
1.31433	-69
1.31800	-71
1.32167	-72
1.32533	-75
1.32900	-79
1.33267	-82
1.33633	-83
1.34000	-84
1.34367	-87
1.34733	-92
1.35100	-97
1.35467	-97
1.35833	-94
1.36200	-91
1.36567	-90
1.36933	-86
1.37300	-80
1.37667	-74
1.38033	-68
1.38400	-63
1.38767	-61
1.39133	-61
1.39500	-66
1.39867	-72
1.40233	-77
1.40600	-79
1.40967	-82
1.41333	-82
1.41700	-80
1.42067	-79
1.42433	-81
1.42800	-84
1.43167	-88
1.43533	-91
1.43900	-88
1.44267	-50
1.44633	88
1.45000	356
1.45367	773
1.45733	1413
1.46100	2260
1.46467	3156
1.46833	3948
1.47200	4556
1.47567	4942
1.47933	5066
1.48300	4891
1.48667	4428
1.49033	3761
1.49400	3020
1.49767	2319
1.50133	1722
1.50500	1248
1.50867	892
1.51233	634
1.51600	452
1.51967	323
1.52333	235
1.52700	174
1.53067	130
1.53433	97
1.53800	75
1.54167	76
1.54533	146
1.54900	353
1.55267	712
1.55633	1157
1.56000	1589
1.56367	1942
1.56733	2188
1.57100	2299
1.57467	2243
1.57833	2018
1.58200	1672
1.58567	1284
1.58933	927
1.59300	637
1.59667	421
1.60033	270
1.60400	160
1.60767	85
1.61133	35
1.61500	3
1.61867	-15
1.62233	-28
1.62600	-36
1.62967	-42
1.63333	-47
1.63700	-45
1.64067	-43
1.64433	-45
1.64800	-47
1.65167	-50
1.65533	-54
1.65900	-58
1.66267	-61
1.66633	-62
1.67000	-56
1.67367	-54
1.67733	-58
1.68100	-66
1.68467	-74
1.68833	-82
1.69200	-86
1.69567	-87
1.69933	-81
1.70300	-73
1.70667	-65
1.71033	-61
1.71400	-65
1.71767	-71
1.72133	-76
1.72500	-81
1.72867	-84
1.73233	-83
1.73600	-82
1.73967	-78
1.74333	-73
1.74700	-71
1.75067	-74
1.75433	-82
1.75800	-86
1.76167	-81
1.76533	-80
1.76900	-82
1.77267	-83
1.77633	-79
1.78000	-73
1.78367	-71
1.78733	-73
1.79100	-76
1.79467	-82
1.79833	-86
1.80200	-91
1.80567	-95
1.80933	-98
1.81300	-95
1.81667	-93
1.82033	-92
1.82400	-88
1.82767	-85
1.83133	-75
1.83500	-64
1.83867	-62
1.84233	-63
1.84600	-64
1.84967	-65
1.85333	-66
1.85700	-70
1.86067	-74
1.86433	-80
1.86800	-83
1.87167	-82
1.87533	-73
1.87900	-57
1.88267	-45
1.88633	-43
1.89000	-49
1.89367	-58
1.89733	-69
1.90100	-76
1.90467	-78
1.90833	-82
1.91200	-84
1.91567	-88
1.91933	-90
1.92300	-88
1.92667	-80
1.93033	-72
1.93400	-67
1.93767	-64
1.94133	-60
1.94500	-54
1.94867	-49
1.95233	-49
1.95600	-43
1.95967	39
1.96333	533
1.96700	2753
1.97067	10357
1.97433	30323
1.97800	71128
1.98167	137031
1.98533	222903
1.98900	315229
1.99267	398169
1.99633	458485
2.00000	487449
2.00367	481218
2.00733	442480
2.01100	380364
2.01467	307697
2.01833	236487
2.02200	174662
2.02567	125444
2.02933	88624
2.03300	62241
2.03667	43865
2.04033	31285
2.04400	22742
2.04767	16946
2.05133	12988
2.05500	10248
2.05867	8313
2.06233	6922
2.06600	5902
2.06967	5131
2.07333	4528
2.07700	4046
2.08067	3656
2.08433	3335
2.08800	3066
2.09167	2841
2.09533	2650
2.09900	2486
2.10267	2335
2.10633	2191
2.11000	2067
2.11367	1956
2.11733	1862
2.12100	1776
2.12467	1701
2.12833	1632
2.13200	1560
2.13567	1497
2.13933	1436
2.14300	1375
2.14667	1323
2.15033	1279
2.15400	1237
2.15767	1195
2.16133	1154
2.16500	1113
2.16867	1077
2.17233	1044
2.17600	1012
2.17967	981
2.18333	955
2.18700	927
2.19067	895
2.19433	861
2.19800	833
2.20167	807
2.20533	788
2.20900	774
2.21267	760
2.21633	743
2.22000	724
2.22367	705
2.22733	690
2.23100	678
2.23467	664
2.23833	650
2.24200	635
2.24567	622
2.24933	608
2.25300	596
2.25667	584
2.26033	572
2.26400	561
2.26767	549
2.27133	538
2.27500	527
2.27867	520
2.28233	516
2.28600	509
2.28967	499
2.29333	491
2.29700	485
2.30067	477
2.30433	470
2.30800	469
2.31167	470
2.31533	465
2.31900	455
2.32267	441
2.32633	425
2.33000	412
2.33367	402
2.33733	394
2.34100	387
2.34467	379
2.34833	374
2.35200	376
2.35567	382
2.35933	386
2.36300	379
2.36667	368
2.37033	362
2.37400	363
2.37767	364
2.38133	359
2.38500	354
2.38867	347
2.39233	340
2.39600	330
2.39967	322
2.40333	315
2.40700	311
2.41067	307
2.41433	305
2.41800	306
2.42167	310
2.42533	317
2.42900	325
2.43267	328
2.43633	324
2.44000	317
2.44367	309
2.44733	298
2.45100	288
2.45467	278
2.45833	273
2.46200	269
2.46567	267
2.46933	268
2.47300	269
2.47667	267
2.48033	259
2.48400	250
2.48767	245
2.49133	247
2.49500	254
2.49867	260
2.50233	267
2.50600	271
2.50967	271
2.51333	268
2.51700	263
2.52067	256
2.52433	249
2.52800	242
2.53167	238
2.53533	235
2.53900	235
2.54267	238
2.54633	241
2.55000	243
2.55367	243
2.55733	241
2.56100	236
2.56467	233
2.56833	231
2.57200	226
2.57567	221
2.57933	219
2.58300	219
2.58667	220
2.59033	218
2.59400	212
2.59767	205
2.60133	197
2.60500	191
2.60867	190
2.61233	195
2.61600	199
2.61967	199
2.62333	193
2.62700	190
2.63067	191
2.63433	196
2.63800	199
2.64167	198
2.64533	195
2.64900	190
2.65267	184
2.65633	177
2.66000	171
2.66367	168
2.66733	166
2.67100	168
2.67467	168
2.67833	166
2.68200	165
2.68567	165
2.68933	163
2.69300	163
2.69667	162
2.70033	162
2.70400	164
2.70767	166
2.71133	167
2.71500	171
2.71867	173
2.72233	171
2.72600	169
2.72967	174
2.73333	180
2.73700	179
2.74067	172
2.74433	164
2.74800	155
2.75167	147
2.75533	139
2.75900	135
2.76267	138
2.76633	145
2.77000	154
2.77367	158
2.77733	160
2.78100	161
2.78467	158
2.78833	151
2.79200	145
2.79567	141
2.79933	136
2.80300	137
2.80667	139
2.81033	140
2.81400	141
2.81767	138
2.82133	133
2.82500	129
2.82867	127
2.83233	128
2.83600	129
2.83967	130
2.84333	126
2.84700	120
2.85067	118
2.85433	120
2.85800	127
2.86167	134
2.86533	134
2.86900	127
2.87267	122
2.87633	119
2.88000	121
2.88367	122
2.88733	119
2.89100	113
2.89467	106
2.89833	97
2.90200	91
2.90567	92
2.90933	93
2.91300	96
2.91667	101
2.92033	105
2.92400	107
2.92767	106
2.93133	103
2.93500	100
2.93867	97
2.94233	98
2.94600	104
2.94967	110
2.95333	112
2.95700	111
2.96067	105
2.96433	93
2.96800	84
2.97167	84
2.97533	87
2.97900	90
2.98267	87
2.98633	82
2.99000	83
2.99367	89
2.99733	93
3.00100	97
3.00467	100
3.00833	103
3.01200	104
3.01567	101
3.01933	99
3.02300	101
3.02667	106
3.03033	111
3.03400	114
3.03767	118
3.04133	122
3.04500	122
3.04867	118
3.05233	112
3.05600	105
3.05967	102
3.06333	99
3.06700	98
3.07067	97
3.07433	93
3.07800	85
3.08167	74
3.08533	65
3.08900	59
3.09267	55
3.09633	53
3.10000	56
3.10367	60
3.10733	63
3.11100	67
3.11467	71
3.11833	76
3.12200	77
3.12567	74
3.12933	74
3.13300	73
3.13667	75
3.14033	78
3.14400	84
3.14767	90
3.15133	91
3.15500	89
3.15867	88
3.16233	83
3.16600	80
3.16967	78
3.17333	73
3.17700	70
3.18067	70
3.18433	68
3.18800	65
3.19167	65
3.19533	66
3.19900	61
3.20267	55
3.20633	49
3.21000	46
3.21367	47
3.21733	48
3.22100	47
3.22467	47
3.22833	49
3.23200	50
3.23567	50
3.23933	53
3.24300	58
3.24667	61
3.25033	58
3.25400	53
3.25767	52
3.26133	54
3.26500	55
3.26867	56
3.27233	56
3.27600	55
3.27967	52
3.28333	48
3.28700	45
3.29067	44
3.29433	46
3.29800	49
3.30167	55
3.30533	61
3.30900	66
3.31267	66
3.31633	59
3.32000	43
3.32367	25
3.32733	11
3.33100	-0
3.33467	-5
3.33833	-1
3.34200	10
3.34567	20
3.34933	26
3.35300	30
3.35667	31
3.36033	36
3.36400	41
3.36767	43
3.37133	48
3.37500	51
3.37867	49
3.38233	48
3.38600	48
3.38967	47
3.39333	50
3.39700	53
3.40067	54
3.40433	52
3.40800	45
3.41167	37
3.41533	35
3.41900	33
3.42267	32
3.42633	33
3.43000	31
3.43367	32
3.43733	33
3.44100	35
3.44467	34
3.44833	33
3.45200	32
3.45567	39
3.45933	49
3.46300	56
3.46667	58
3.47033	58
3.47400	53
3.47767	48
3.48133	45
3.48500	39
3.48867	32
3.49233	27
3.49600	27
3.49967	27
3.50333	26
3.50700	26
3.51067	25
3.51433	25
3.51800	22
3.52167	14
3.52533	7
3.52900	12
3.53267	20
3.53633	25
3.54000	27
3.54367	23
3.54733	22
3.55100	24
3.55467	22
3.55833	19
3.56200	17
3.56567	16
3.56933	14
3.57300	16
3.57667	20
3.58033	22
3.58400	23
3.58767	23
3.59133	23
3.59500	23
3.59867	24
3.60233	23
3.60600	18
3.60967	15
3.61333	13
3.61700	13
3.62067	14
3.62433	15
3.62800	14
3.63167	12
3.63533	10
3.63900	9
3.64267	10
3.64633	11
3.65000	11
3.65367	10
3.65733	10
3.66100	14
3.66467	18
3.66833	22
3.67200	25
3.67567	24
3.67933	19
3.68300	10
3.68667	4
3.69033	2
3.69400	4
3.69767	8
3.70133	12
3.70500	18
3.70867	24
3.71233	22
3.71600	18
3.71967	14
3.72333	7
3.72700	1
3.73067	-5
3.73433	-6
3.73800	-0
3.74167	3
3.74533	2
3.74900	1
3.75267	-1
3.75633	-2
3.76000	-7
3.76367	-12
3.76733	-14
3.77100	-11
3.77467	-8
3.77833	-4
3.78200	1
3.78567	7
3.78933	12
3.79300	11
3.79667	6
3.80033	3
3.80400	3
3.80767	3
3.81133	2
3.81500	-0
3.81867	-5
3.82233	-8
3.82600	-7
3.82967	-0
3.83333	8
3.83700	19
3.84067	27
3.84433	25
3.84800	14
3.85167	3
3.85533	-3
3.85900	2
3.86267	10
3.86633	16
3.87000	17
3.87367	14
3.87733	6
3.88100	-6
3.88467	-18
3.88833	-28
3.89200	-34
3.89567	-37
3.89933	-37
3.90300	-33
3.90667	-25
3.91033	-16
3.91400	-9
3.91767	-3
3.92133	1
3.92500	-1
3.92867	-2
3.93233	1
3.93600	4
3.93967	2
3.94333	-1
3.94700	1
3.95067	4
3.95433	1
3.95800	-6
3.96167	-12
3.96533	-13
3.96900	-11
3.97267	-7
3.97633	-4
3.98000	-1
3.98367	-1
3.98733	-3
3.99100	-8
3.99467	-14
3.99833	-23

[Chromatogram (Ch2)]
Interval(msec)	220
# of Points	1091
Start Time(min)	0.002
End Time(min)	3.998
R.Time (min)	Intensity
0.00167	-1
0.00533	-1
0.00900	-1
0.01267	-1
0.01633	-1
0.02000	-1
0.02367	-1
0.02733	-1
0.03100	-1
0.03467	-0
0.03833	-0
0.04200	-0
0.04567	-0
0.04933	0
0.05300	1
0.05667	1
0.06033	1
0.06400	1
0.06767	2
0.07133	2
0.07500	3
0.07867	3
0.08233	3
0.08600	4
0.08967	4
0.09333	4
0.09700	4
0.10067	4
0.10433	4
0.10800	4
0.11167	4
0.11533	4
0.11900	4
0.12267	4
0.12633	4
0.13000	4
0.13367	4
0.13733	4
0.14100	4
0.14467	3
0.14833	3
0.15200	4
0.15567	4
0.15933	3
0.16300	3
0.16667	3
0.17033	2
0.17400	2
0.17767	2
0.18133	1
0.18500	1
0.18867	1
0.19233	1
0.19600	1
0.19967	2
0.20333	2
0.20700	2
0.21067	2
0.21433	2
0.21800	2
0.22167	2
0.22533	2
0.22900	2
0.23267	2
0.23633	2
0.24000	2
0.24367	2
0.24733	2
0.25100	2
0.25467	2
0.25833	2
0.26200	2
0.26567	2
0.26933	2
0.27300	2
0.27667	2
0.28033	2
0.28400	3
0.28767	2
0.29133	2
0.29500	2
0.29867	2
0.30233	2
0.30600	1
0.30967	1
0.31333	1
0.31700	1
0.32067	1
0.32433	1
0.32800	1
0.33167	0
0.33533	1
0.33900	1
0.34267	1
0.34633	1
0.35000	1
0.35367	0
0.35733	0
0.36100	0
0.36467	0
0.36833	1
0.37200	1
0.37567	1
0.37933	1
0.38300	1
0.38667	1
0.39033	1
0.39400	2
0.39767	2
0.40133	2
0.40500	2
0.40867	2
0.41233	2
0.41600	2
0.41967	2
0.42333	2
0.42700	2
0.43067	1
0.43433	1
0.43800	1
0.44167	1
0.44533	1
0.44900	1
0.45267	1
0.45633	1
0.46000	1
0.46367	1
0.46733	1
0.47100	1
0.47467	1
0.47833	1
0.48200	1
0.48567	1
0.48933	1
0.49300	0
0.49667	0
0.50033	0
0.50400	-0
0.50767	-0
0.51133	-0
0.51500	-0
0.51867	-0
0.52233	-0
0.52600	-0
0.52967	-0
0.53333	-0
0.53700	0
0.54067	0
0.54433	0
0.54800	0
0.55167	1
0.55533	1
0.55900	1
0.56267	2
0.56633	2
0.57000	2
0.57367	2
0.57733	3
0.58100	3
0.58467	3
0.58833	2
0.59200	2
0.59567	2
0.59933	2
0.60300	2
0.60667	2
0.61033	1
0.61400	1
0.61767	1
0.62133	1
0.62500	1
0.62867	1
0.63233	1
0.63600	1
0.63967	2
0.64333	2
0.64700	2
0.65067	2
0.65433	2
0.65800	1
0.66167	1
0.66533	1
0.66900	1
0.67267	1
0.67633	1
0.68000	1
0.68367	1
0.68733	1
0.69100	1
0.69467	1
0.69833	1
0.70200	1
0.70567	1
0.70933	1
0.71300	1
0.71667	0
0.72033	-0
0.72400	-0
0.72767	-1
0.73133	-1
0.73500	-1
0.73867	-1
0.74233	-1
0.74600	-1
0.74967	-1
0.75333	-1
0.75700	-1
0.76067	-0
0.76433	-0
0.76800	-0
0.77167	0
0.77533	0
0.77900	0
0.78267	1
0.78633	1
0.79000	1
0.79367	1
0.79733	1
0.80100	1
0.80467	1
0.80833	1
0.81200	1
0.81567	1
0.81933	1
0.82300	1
0.82667	1
0.83033	1
0.83400	1
0.83767	1
0.84133	1
0.84500	1
0.84867	1
0.85233	1
0.85600	1
0.85967	1
0.86333	1
0.86700	1
0.87067	1
0.87433	0
0.87800	0
0.88167	0
0.88533	0
0.88900	-0
0.89267	-0
0.89633	-0
0.90000	-0
0.90367	-0
0.90733	-0
0.91100	-0
0.91467	-0
0.91833	-0
0.92200	-0
0.92567	-0
0.92933	-0
0.93300	-0
0.93667	0
0.94033	0
0.94400	0
0.94767	0
0.95133	0
0.95500	0
0.95867	0
0.96233	0
0.96600	0
0.96967	0
0.97333	0
0.97700	-0
0.98067	-0
0.98433	-0
0.98800	-0
0.99167	-0
0.99533	-1
0.99900	-1
1.00267	-1
1.00633	-1
1.01000	-1
1.01367	-1
1.01733	-1
1.02100	-1
1.02467	-1
1.02833	-2
1.03200	-2
1.03567	-2
1.03933	-2
1.04300	-2
1.04667	-2
1.05033	-2
1.05400	-2
1.05767	-2
1.06133	-2
1.06500	-2
1.06867	-2
1.07233	-2
1.07600	-2
1.07967	-2
1.08333	-2
1.08700	-2
1.09067	-1
1.09433	-1
1.09800	-1
1.10167	-1
1.10533	-1
1.10900	-1
1.11267	-0
1.11633	-0
1.12000	-0
1.12367	-0
1.12733	0
1.13100	0
1.13467	1
1.13833	1
1.14200	1
1.14567	0
1.14933	0
1.15300	0
1.15667	0
1.16033	0
1.16400	0
1.16767	0
1.17133	0
1.17500	0
1.17867	0
1.18233	-0
1.18600	-0
1.18967	-1
1.19333	-1
1.19700	-1
1.20067	-1
1.20433	-0
1.20800	-0
1.21167	0
1.21533	0
1.21900	1
1.22267	1
1.22633	1
1.23000	1
1.23367	1
1.23733	1
1.24100	1
1.24467	1
1.24833	1
1.25200	1
1.25567	1
1.25933	1
1.26300	0
1.26667	0
1.27033	0
1.27400	0
1.27767	0
1.28133	0
1.28500	0
1.28867	0
1.29233	-0
1.29600	-0
1.29967	-0
1.30333	-0
1.30700	-0
1.31067	-0
1.31433	-0
1.31800	-0
1.32167	-0
1.32533	-0
1.32900	-0
1.33267	-1
1.33633	-1
1.34000	-0
1.34367	-1
1.34733	-1
1.35100	-0
1.35467	-0
1.35833	-0
1.36200	-0
1.36567	0
1.36933	0
1.37300	0
1.37667	0
1.38033	-0
1.38400	-0
1.38767	-1
1.39133	-1
1.39500	-1
1.39867	-1
1.40233	-1
1.40600	-1
1.40967	-1
1.41333	-1
1.41700	-1
1.42067	-1
1.42433	-0
1.42800	-0
1.43167	-0
1.43533	-0
1.43900	-0
1.44267	-1
1.44633	-1
1.45000	-1
1.45367	-1
1.45733	-2
1.46100	-2
1.46467	-2
1.46833	-2
1.47200	-2
1.47567	-2
1.47933	-1
1.48300	-1
1.48667	-1
1.49033	-1
1.49400	-1
1.49767	-1
1.50133	-1
1.50500	-1
1.50867	-1
1.51233	-1
1.51600	-1
1.51967	-1
1.52333	-1
1.52700	-1
1.53067	-1
1.53433	-1
1.53800	-1
1.54167	-1
1.54533	-1
1.54900	-1
1.55267	-1
1.55633	-1
1.56000	-1
1.56367	-1
1.56733	-1
1.57100	-1
1.57467	-1
1.57833	-1
1.58200	-1
1.58567	-1
1.58933	-1
1.59300	-2
1.59667	-2
1.60033	-3
1.60400	-5
1.60767	-6
1.61133	-8
1.61500	-10
1.61867	-12
1.62233	-15
1.62600	-17
1.62967	-20
1.63333	-23
1.63700	-26
1.64067	-30
1.64433	-33
1.64800	-37
1.65167	-40
1.65533	-44
1.65900	-47
1.66267	-51
1.66633	-55
1.67000	-60
1.67367	-64
1.67733	-69
1.68100	-75
1.68467	-80
1.68833	-84
1.69200	-89
1.69567	-93
1.69933	-96
1.70300	-99
1.70667	-101
1.71033	-103
1.71400	-105
1.71767	-106
1.72133	-107
1.72500	-108
1.72867	-108
1.73233	-108
1.73600	-108
1.73967	-108
1.74333	-107
1.74700	-107
1.75067	-107
1.75433	-106
1.75800	-106
1.76167	-106
1.76533	-107
1.76900	-108
1.77267	-109
1.77633	-110
1.78000	-112
1.78367	-113
1.78733	-114
1.79100	-115
1.79467	-116
1.79833	-116
1.80200	-117
1.80567	-118
1.80933	-118
1.81300	-119
1.81667	-119
1.82033	-120
1.82400	-120
1.82767	-120
1.83133	-120
1.83500	-119
1.83867	-119
1.84233	-118
1.84600	-118
1.84967	-117
1.85333	-116
1.85700	-116
1.86067	-116
1.86433	-116
1.86800	-116
1.87167	-116
1.87533	-117
1.87900	-117
1.88267	-117
1.88633	-117
1.89000	-117
1.89367	-117
1.89733	-117
1.90100	-117
1.90467	-117
1.90833	-116
1.91200	-116
1.91567	-116
1.91933	-116
1.92300	-115
1.92667	-115
1.93033	-115
1.93400	-115
1.93767	-115
1.94133	-114
1.94500	-114
1.94867	-114
1.95233	-114
1.95600	-114
1.95967	-114
1.96333	-113
1.96700	-113
1.97067	-112
1.97433	-112
1.97800	-112
1.98167	-112
1.98533	-112
1.98900	-112
1.99267	-112
1.99633	-112
2.00000	-111
2.00367	-110
2.00733	-109
2.01100	-109
2.01467	-108
2.01833	-108
2.02200	-107
2.02567	-107
2.02933	-107
2.03300	-107
2.03667	-107
2.04033	-107
2.04400	-106
2.04767	-106
2.05133	-106
2.05500	-106
2.05867	-105
2.06233	-105
2.06600	-105
2.06967	-105
2.07333	-105
2.07700	-105
2.08067	-105
2.08433	-104
2.08800	-104
2.09167	-104
2.09533	-103
2.09900	-103
2.10267	-102
2.10633	-101
2.11000	-100
2.11367	-100
2.11733	-99
2.12100	-99
2.12467	-99
2.12833	-99
2.13200	-99
2.13567	-99
2.13933	-99
2.14300	-98
2.14667	-98
2.15033	-97
2.15400	-97
2.15767	-96
2.16133	-95
2.16500	-95
2.16867	-94
2.17233	-94
2.17600	-94
2.17967	-94
2.18333	-95
2.18700	-94
2.19067	-94
2.19433	-94
2.19800	-94
2.20167	-93
2.20533	-93
2.20900	-93
2.21267	-93
2.21633	-92
2.22000	-92
2.22367	-92
2.22733	-92
2.23100	-92
2.23467	-92
2.23833	-91
2.24200	-91
2.24567	-90
2.24933	-90
2.25300	-89
2.25667	-89
2.26033	-89
2.26400	-88
2.26767	-88
2.27133	-88
2.27500	-87
2.27867	-87
2.28233	-86
2.28600	-86
2.28967	-85
2.29333	-85
2.29700	-84
2.30067	-85
2.30433	-85
2.30800	-85
2.31167	-85
2.31533	-85
2.31900	-85
2.32267	-84
2.32633	-83
2.33000	-82
2.33367	-82
2.33733	-82
2.34100	-81
2.34467	-81
2.34833	-80
2.35200	-78
2.35567	-77
2.35933	-76
2.36300	-75
2.36667	-73
2.37033	-71
2.37400	-70
2.37767	-67
2.38133	-65
2.38500	-63
2.38867	-60
2.39233	-57
2.39600	-53
2.39967	-50
2.40333	-46
2.40700	-43
2.41067	-39
2.41433	-36
2.41800	-32
2.42167	-29
2.42533	-26
2.42900	-24
2.43267	-21
2.43633	-19
2.44000	-16
2.44367	-14
2.44733	-12
2.45100	-10
2.45467	-8
2.45833	-6
2.46200	-4
2.46567	-3
2.46933	-2
2.47300	-1
2.47667	1
2.48033	2
2.48400	4
2.48767	5
2.49133	6
2.49500	8
2.49867	9
2.50233	9
2.50600	10
2.50967	10
2.51333	10
2.51700	11
2.52067	11
2.52433	12
2.52800	13
2.53167	14
2.53533	14
2.53900	15
2.54267	15
2.54633	15
2.55000	15
2.55367	15
2.55733	15
2.56100	16
2.56467	17
2.56833	17
2.57200	18
2.57567	19
2.57933	20
2.58300	19
2.58667	19
2.59033	19
2.59400	18
2.59767	18
2.60133	18
2.60500	18
2.60867	19
2.61233	19
2.61600	19
2.61967	19
2.62333	19
2.62700	20
2.63067	20
2.63433	20
2.63800	20
2.64167	20
2.64533	20
2.64900	21
2.65267	21
2.65633	21
2.66000	22
2.66367	22
2.66733	22
2.67100	23
2.67467	23
2.67833	23
2.68200	24
2.68567	24
2.68933	24
2.69300	24
2.69667	24
2.70033	24
2.70400	24
2.70767	24
2.71133	24
2.71500	24
2.71867	24
2.72233	24
2.72600	24
2.72967	24
2.73333	24
2.73700	25
2.74067	25
2.74433	25
2.74800	25
2.75167	26
2.75533	26
2.75900	26
2.76267	27
2.76633	27
2.77000	27
2.77367	27
2.77733	27
2.78100	28
2.78467	28
2.78833	28
2.79200	28
2.79567	28
2.79933	28
2.80300	28
2.80667	28
2.81033	28
2.81400	28
2.81767	28
2.82133	28
2.82500	28
2.82867	28
2.83233	29
2.83600	29
2.83967	29
2.84333	29
2.84700	29
2.85067	29
2.85433	29
2.85800	28
2.86167	27
2.86533	24
2.86900	20
2.87267	14
2.87633	5
2.88000	-8
2.88367	-24
2.88733	-43
2.89100	-67
2.89467	-94
2.89833	-126
2.90200	-161
2.90567	-200
2.90933	-241
2.91300	-285
2.91667	-332
2.92033	-380
2.92400	-430
2.92767	-480
2.93133	-531
2.93500	-582
2.93867	-634
2.94233	-685
2.94600	-735
2.94967	-785
2.95333	-835
2.95700	-889
2.96067	-949
2.96433	-1010
2.96800	-1063
2.97167	-1096
2.97533	-1105
2.97900	-1086
2.98267	-1045
2.98633	-986
2.99000	-914
2.99367	-835
2.99733	-754
3.00100	-674
3.00467	-597
3.00833	-525
3.01200	-459
3.01567	-398
3.01933	-344
3.02300	-296
3.02667	-254
3.03033	-216
3.03400	-184
3.03767	-156
3.04133	-131
3.04500	-110
3.04867	-92
3.05233	-76
3.05600	-63
3.05967	-51
3.06333	-41
3.06700	-33
3.07067	-26
3.07433	-20
3.07800	-15
3.08167	-10
3.08533	-6
3.08900	-3
3.09267	0
3.09633	3
3.10000	5
3.10367	7
3.10733	8
3.11100	9
3.11467	10
3.11833	11
3.12200	12
3.12567	13
3.12933	14
3.13300	14
3.13667	15
3.14033	15
3.14400	16
3.14767	16
3.15133	16
3.15500	17
3.15867	17
3.16233	18
3.16600	18
3.16967	19
3.17333	19
3.17700	19
3.18067	19
3.18433	20
3.18800	20
3.19167	21
3.19533	21
3.19900	21
3.20267	22
3.20633	22
3.21000	22
3.21367	22
3.21733	22
3.22100	23
3.22467	23
3.22833	23
3.23200	23
3.23567	23
3.23933	23
3.24300	23
3.24667	24
3.25033	24
3.25400	24
3.25767	24
3.26133	24
3.26500	24
3.26867	24
3.27233	24
3.27600	24
3.27967	24
3.28333	24
3.28700	24
3.29067	24
3.29433	24
3.29800	24
3.30167	24
3.30533	24
3.30900	25
3.31267	26
3.31633	26
3.32000	27
3.32367	27
3.32733	28
3.33100	28
3.33467	29
3.33833	29
3.34200	29
3.34567	30
3.34933	30
3.35300	30
3.35667	30
3.36033	30
3.36400	31
3.36767	31
3.37133	31
3.37500	30
3.37867	30
3.38233	30
3.38600	30
3.38967	30
3.39333	30
3.39700	30
3.40067	30
3.40433	30
3.40800	31
3.41167	31
3.41533	31
3.41900	31
3.42267	31
3.42633	31
3.43000	30
3.43367	30
3.43733	30
3.44100	30
3.44467	30
3.44833	30
3.45200	30
3.45567	30
3.45933	30
3.46300	29
3.46667	29
3.47033	29
3.47400	29
3.47767	29
3.48133	29
3.48500	29
3.48867	29
3.49233	29
3.49600	30
3.49967	30
3.50333	30
3.50700	30
3.51067	30
3.51433	30
3.51800	30
3.52167	30
3.52533	29
3.52900	29
3.53267	29
3.53633	29
3.54000	29
3.54367	28
3.54733	28
3.55100	28
3.55467	28
3.55833	28
3.56200	28
3.56567	28
3.56933	28
3.57300	28
3.57667	28
3.58033	28
3.58400	28
3.58767	28
3.59133	28
3.59500	29
3.59867	29
3.60233	29
3.60600	29
3.60967	29
3.61333	29
3.61700	29
3.62067	29
3.62433	28
3.62800	28
3.63167	29
3.63533	29
3.63900	29
3.64267	29
3.64633	29
3.65000	29
3.65367	29
3.65733	29
3.66100	29
3.66467	29
3.66833	30
3.67200	30
3.67567	30
3.67933	29
3.68300	29
3.68667	29
3.69033	29
3.69400	29
3.69767	29
3.70133	29
3.70500	29
3.70867	29
3.71233	29
3.71600	29
3.71967	29
3.72333	29
3.72700	29
3.73067	29
3.73433	29
3.73800	29
3.74167	29
3.74533	29
3.74900	29
3.75267	29
3.75633	29
3.76000	29
3.76367	29
3.76733	29
3.77100	29
3.77467	29
3.77833	29
3.78200	29
3.78567	29
3.78933	29
3.79300	29
3.79667	29
3.80033	29
3.80400	29
3.80767	29
3.81133	29
3.81500	29
3.81867	29
3.82233	29
3.82600	29
3.82967	29
3.83333	29
3.83700	29
3.84067	29
3.84433	29
3.84800	28
3.85167	28
3.85533	28
3.85900	28
3.86267	28
3.86633	28
3.87000	28
3.87367	28
3.87733	28
3.88100	28
3.88467	28
3.88833	28
3.89200	28
3.89567	28
3.89933	28
3.90300	28
3.90667	28
3.91033	28
3.91400	28
3.91767	28
3.92133	28
3.92500	28
3.92867	28
3.93233	28
3.93600	28
3.93967	28
3.94333	28
3.94700	28
3.95067	28
3.95433	28
3.95800	29
3.96167	29
3.96533	29
3.96900	29
3.97267	29
3.97633	29
3.98000	29
3.98367	29
3.98733	29
3.99100	29
3.99467	29
3.99833	29

[Chromatogram (Ch3)]
Interval(msec)	220
# of Points	1091
Start Time(min)	0.002
End Time(min)	3.998
R.Time (min)	Intensity
0.00167	0
0.00533	1
0.00900	0
0.01267	0
0.01633	-1
0.02000	-2
0.02367	-0
0.02733	1
0.03100	0
0.03467	-1
0.03833	-1
0.04200	-0
0.04567	-1
0.04933	-3
0.05300	-3
0.05667	-3
0.06033	-1
0.06400	-2
0.06767	-2
0.07133	-0
0.07500	-1
0.07867	-3
0.08233	-4
0.08600	-4
0.08967	-5
0.09333	-6
0.09700	-7
0.10067	-6
0.10433	-7
0.10800	-8
0.11167	-8
0.11533	-7
0.11900	-7
0.12267	-6
0.12633	-3
0.13000	0
0.13367	0
0.13733	0
0.14100	-0
0.14467	-1
0.14833	-2
0.15200	-0
0.15567	-0
0.15933	-1
0.16300	-2
0.16667	-3
0.17033	-2
0.17400	-3
0.17767	-2
0.18133	-2
0.18500	-1
0.18867	-2
0.19233	-4
0.19600	-4
0.19967	-1
0.20333	-1
0.20700	-0
0.21067	1
0.21433	-1
0.21800	-0
0.22167	-0
0.22533	-0
0.22900	-0
0.23267	-2
0.23633	-3
0.24000	-3
0.24367	-4
0.24733	-5
0.25100	-5
0.25467	-6
0.25833	-5
0.26200	-5
0.26567	-6
0.26933	-8
0.27300	-8
0.27667	-8
0.28033	-6
0.28400	-6
0.28767	-7
0.29133	-7
0.29500	-7
0.29867	-5
0.30233	-5
0.30600	-7
0.30967	-8
0.31333	-8
0.31700	-6
0.32067	-4
0.32433	-4
0.32800	-4
0.33167	-2
0.33533	-1
0.33900	1
0.34267	-2
0.34633	-4
0.35000	-2
0.35367	-1
0.35733	-1
0.36100	-0
0.36467	-0
0.36833	-2
0.37200	-5
0.37567	-5
0.37933	-4
0.38300	-4
0.38667	-6
0.39033	-8
0.39400	-8
0.39767	-6
0.40133	-3
0.40500	-1
0.40867	0
0.41233	1
0.41600	1
0.41967	0
0.42333	-1
0.42700	-2
0.43067	-1
0.43433	1
0.43800	4
0.44167	4
0.44533	1
0.44900	-2
0.45267	-3
0.45633	-4
0.46000	-4
0.46367	-6
0.46733	-8
0.47100	-9
0.47467	-8
0.47833	-6
0.48200	-5
0.48567	-6
0.48933	-6
0.49300	-4
0.49667	-2
0.50033	-3
0.50400	-7
0.50767	-7
0.51133	-4
0.51500	-4
0.51867	-5
0.52233	-6
0.52600	-5
0.52967	-5
0.53333	-6
0.53700	-6
0.54067	-2
0.54433	2
0.54800	4
0.55167	5
0.55533	3
0.55900	1
0.56267	-1
0.56633	-2
0.57000	-0
0.57367	-1
0.57733	-2
0.58100	-2
0.58467	-3
0.58833	-3
0.59200	-2
0.59567	-1
0.59933	0
0.60300	2
0.60667	1
0.61033	-0
0.61400	-1
0.61767	-3
0.62133	-3
0.62500	-4
0.62867	-3
0.63233	-2
0.63600	-4
0.63967	-2
0.64333	-3
0.64700	-4
0.65067	-2
0.65433	-1
0.65800	-1
0.66167	-2
0.66533	-2
0.66900	-3
0.67267	-3
0.67633	-4
0.68000	-4
0.68367	-3
0.68733	-4
0.69100	-5
0.69467	-2
0.69833	-3
0.70200	-5
0.70567	-7
0.70933	-7
0.71300	-6
0.71667	-4
0.72033	-3
0.72400	-5
0.72767	-7
0.73133	-6
0.73500	-8
0.73867	-9
0.74233	-10
0.74600	-9
0.74967	-8
0.75333	-7
0.75700	-7
0.76067	-6
0.76433	-8
0.76800	-9
0.77167	-9
0.77533	-11
0.77900	-13
0.78267	-15
0.78633	-14
0.79000	-12
0.79367	-10
0.79733	-9
0.80100	-7
0.80467	-7
0.80833	-6
0.81200	-7
0.81567	-6
0.81933	-6
0.82300	-7
0.82667	-8
0.83033	-8
0.83400	-8
0.83767	-8
0.84133	-9
0.84500	-9
0.84867	-7
0.85233	-5
0.85600	-4
0.85967	-6
0.86333	-7
0.86700	-6
0.87067	-4
0.87433	-4
0.87800	-2
0.88167	-1
0.88533	-1
0.88900	-3
0.89267	-2
0.89633	-2
0.90000	-4
0.90367	-5
0.90733	-2
0.91100	-2
0.91467	-2
0.91833	-2
0.92200	-3
0.92567	-3
0.92933	-3
0.93300	-2
0.93667	-2
0.94033	-3
0.94400	-3
0.94767	-5
0.95133	-6
0.95500	-6
0.95867	-6
0.96233	-5
0.96600	-3
0.96967	-1
0.97333	1
0.97700	0
0.98067	-1
0.98433	-3
0.98800	-2
0.99167	-0
0.99533	2
0.99900	3
1.00267	2
1.00633	1
1.01000	0
1.01367	-1
1.01733	-2
1.02100	-2
1.02467	-2
1.02833	-4
1.03200	-6
1.03567	-5
1.03933	-3
1.04300	-2
1.04667	-2
1.05033	-3
1.05400	-4
1.05767	-5
1.06133	-4
1.06500	-2
1.06867	-0
1.07233	-0
1.07600	1
1.07967	-0
1.08333	-4
1.08700	-6
1.09067	-8
1.09433	-8
1.09800	-6
1.10167	-4
1.10533	-5
1.10900	-5
1.11267	-3
1.11633	-4
1.12000	-4
1.12367	-2
1.12733	-3
1.13100	-2
1.13467	-2
1.13833	-2
1.14200	-1
1.14567	-2
1.14933	-2
1.15300	-3
1.15667	-4
1.16033	-3
1.16400	-2
1.16767	-5
1.17133	-6
1.17500	-7
1.17867	-9
1.18233	-9
1.18600	-8
1.18967	-8
1.19333	-7
1.19700	-6
1.20067	-6
1.20433	-6
1.20800	-6
1.21167	-6
1.21533	-5
1.21900	-5
1.22267	-5
1.22633	-9
1.23000	-9
1.23367	-8
1.23733	-8
1.24100	-8
1.24467	-8
1.24833	-8
1.25200	-5
1.25567	-6
1.25933	-6
1.26300	-4
1.26667	-5
1.27033	-6
1.27400	-7
1.27767	-8
1.28133	-9
1.28500	-10
1.28867	-11
1.29233	-12
1.29600	-11
1.29967	-11
1.30333	-12
1.30700	-9
1.31067	-7
1.31433	-7
1.31800	-7
1.32167	-7
1.32533	-8
1.32900	-9
1.33267	-9
1.33633	-9
1.34000	-10
1.34367	-10
1.34733	-10
1.35100	-9
1.35467	-10
1.35833	-12
1.36200	-12
1.36567	-11
1.36933	-9
1.37300	-6
1.37667	-7
1.38033	-9
1.38400	-13
1.38767	-15
1.39133	-15
1.39500	-15
1.39867	-14
1.40233	-14
1.40600	-16
1.40967	-17
1.41333	-16
1.41700	-14
1.42067	-12
1.42433	-10
1.42800	-9
1.43167	-9
1.43533	-11
1.43900	-11
1.44267	-12
1.44633	-12
1.45000	-12
1.45367	-10
1.45733	-11
1.46100	-13
1.46467	-14
1.46833	-13
1.47200	-11
1.47567	-10
1.47933	-11
1.48300	-12
1.48667	-14
1.49033	-13
1.49400	-12
1.49767	-11
1.50133	-10
1.50500	-9
1.50867	-7
1.51233	-6
1.51600	-5
1.51967	-6
1.52333	-9
1.52700	-9
1.53067	-9
1.53433	-10
1.53800	-10
1.54167	-11
1.54533	-11
1.54900	-13
1.55267	-16
1.55633	-17
1.56000	-17
1.56367	-14
1.56733	-10
1.57100	-10
1.57467	-13
1.57833	-17
1.58200	-18
1.58567	-18
1.58933	-16
1.59300	-14
1.59667	-13
1.60033	-11
1.60400	-10
1.60767	-9
1.61133	-11
1.61500	-13
1.61867	-13
1.62233	-12
1.62600	-11
1.62967	-11
1.63333	-12
1.63700	-11
1.64067	-11
1.64433	-11
1.64800	-9
1.65167	-9
1.65533	-9
1.65900	-9
1.66267	-9
1.66633	-7
1.67000	-6
1.67367	-6
1.67733	-5
1.68100	-5
1.68467	-6
1.68833	-7
1.69200	-6
1.69567	-6
1.69933	-5
1.70300	-4
1.70667	-2
1.71033	1
1.71400	6
1.71767	8
1.72133	8
1.72500	6
1.72867	4
1.73233	4
1.73600	2
1.73967	-0
1.74333	-1
1.74700	-1
1.75067	-1
1.75433	-2
1.75800	-0
1.76167	2
1.76533	1
1.76900	0
1.77267	0
1.77633	-1
1.78000	-1
1.78367	-1
1.78733	-0
1.79100	-2
1.79467	-2
1.79833	0
1.80200	3
1.80567	5
1.80933	6
1.81300	5
1.81667	5
1.82033	6
1.82400	9
1.82767	12
1.83133	14
1.83500	15
1.83867	17
1.84233	18
1.84600	17
1.84967	16
1.85333	13
1.85700	14
1.86067	14
1.86433	13
1.86800	13
1.87167	12
1.87533	11
1.87900	14
1.88267	16
1.88633	17
1.89000	15
1.89367	15
1.89733	16
1.90100	18
1.90467	19
1.90833	19
1.91200	21
1.91567	22
1.91933	21
1.92300	19
1.92667	18
1.93033	18
1.93400	18
1.93767	19
1.94133	22
1.94500	22
1.94867	22
1.95233	23
1.95600	24
1.95967	25
1.96333	23
1.96700	23
1.97067	26
1.97433	28
1.97800	28
1.98167	28
1.98533	28
1.98900	28
1.99267	28
1.99633	29
2.00000	31
2.00367	32
2.00733	35
2.01100	36
2.01467	35
2.01833	36
2.02200	35
2.02567	34
2.02933	34
2.03300	34
2.03667	35
2.04033	37
2.04400	39
2.04767	40
2.05133	39
2.05500	39
2.05867	41
2.06233	41
2.06600	40
2.06967	40
2.07333	40
2.07700	40
2.08067	41
2.08433	43
2.08800	44
2.09167	47
2.09533	47
2.09900	46
2.10267	46
2.10633	46
2.11000	46
2.11367	48
2.11733	51
2.12100	53
2.12467	54
2.12833	57
2.13200	59
2.13567	59
2.13933	60
2.14300	62
2.14667	62
2.15033	61
2.15400	61
2.15767	60
2.16133	60
2.16500	61
2.16867	62
2.17233	62
2.17600	63
2.17967	63
2.18333	65
2.18700	67
2.19067	68
2.19433	68
2.19800	70
2.20167	70
2.20533	71
2.20900	70
2.21267	71
2.21633	70
2.22000	70
2.22367	71
2.22733	73
2.23100	77
2.23467	80
2.23833	81
2.24200	79
2.24567	79
2.24933	80
2.25300	83
2.25667	85
2.26033	85
2.26400	88
2.26767	87
2.27133	89
2.27500	95
2.27867	97
2.28233	96
2.28600	97
2.28967	99
2.29333	99
2.29700	98
2.30067	98
2.30433	98
2.30800	101
2.31167	104
2.31533	105
2.31900	106
2.32267	106
2.32633	108
2.33000	109
2.33367	109
2.33733	111
2.34100	113
2.34467	116
2.34833	119
2.35200	122
2.35567	124
2.35933	125
2.36300	125
2.36667	124
2.37033	123
2.37400	122
2.37767	120
2.38133	119
2.38500	119
2.38867	122
2.39233	126
2.39600	128
2.39967	130
2.40333	133
2.40700	136
2.41067	138
2.41433	141
2.41800	144
2.42167	145
2.42533	148
2.42900	151
2.43267	153
2.43633	151
2.44000	153
2.44367	178
2.44733	245
2.45100	325
2.45467	390
2.45833	426
2.46200	449
2.46567	466
2.46933	474
2.47300	469
2.47667	453
2.48033	436
2.48400	426
2.48767	427
2.49133	436
2.49500	449
2.49867	463
2.50233	477
2.50600	487
2.50967	492
2.51333	492
2.51700	483
2.52067	472
2.52433	464
2.52800	456
2.53167	451
2.53533	450
2.53900	451
2.54267	455
2.54633	459
2.55000	466
2.55367	476
2.55733	487
2.56100	499
2.56467	509
2.56833	520
2.57200	533
2.57567	546
2.57933	556
2.58300	564
2.58667	567
2.59033	566
2.59400	563
2.59767	554
2.60133	545
2.60500	537
2.60867	527
2.61233	515
2.61600	498
2.61967	480
2.62333	457
2.62700	431
2.63067	402
2.63433	373
2.63800	346
2.64167	321
2.64533	299
2.64900	282
2.65267	270
2.65633	263
2.66000	259
2.66367	258
2.66733	261
2.67100	265
2.67467	273
2.67833	283
2.68200	293
2.68567	303
2.68933	313
2.69300	323
2.69667	332
2.70033	343
2.70400	352
2.70767	360
2.71133	369
2.71500	379
2.71867	389
2.72233	398
2.72600	407
2.72967	415
2.73333	422
2.73700	430
2.74067	438
2.74433	448
2.74800	453
2.75167	456
2.75533	460
2.75900	465
2.76267	469
2.76633	471
2.77000	472
2.77367	471
2.77733	471
2.78100	472
2.78467	469
2.78833	464
2.79200	464
2.79567	461
2.79933	459
2.80300	456
2.80667	452
2.81033	449
2.81400	445
2.81767	442
2.82133	441
2.82500	442
2.82867	444
2.83233	445
2.83600	450
2.83967	472
2.84333	523
2.84700	620
2.85067	785
2.85433	1042
2.85800	1410
2.86167	1893
2.86533	2472
2.86900	3115
2.87267	3773
2.87633	4395
2.88000	4929
2.88367	5331
2.88733	5580
2.89100	5671
2.89467	5617
2.89833	5439
2.90200	5165
2.90567	4831
2.90933	4459
2.91300	4073
2.91667	3694
2.92033	3333
2.92400	2996
2.92767	2687
2.93133	2410
2.93500	2159
2.93867	1935
2.94233	1737
2.94600	1563
2.94967	1412
2.95333	1279
2.95700	1166
2.96067	1068
2.96433	984
2.96800	910
2.97167	845
2.97533	791
2.97900	745
2.98267	706
2.98633	672
2.99000	644
2.99367	619
2.99733	599
3.00100	581
3.00467	563
3.00833	547
3.01200	532
3.01567	522
3.01933	514
3.02300	508
3.02667	503
3.03033	497
3.03400	491
3.03767	485
3.04133	479
3.04500	473
3.04867	469
3.05233	468
3.05600	465
3.05967	464
3.06333	463
3.06700	463
3.07067	462
3.07433	460
3.07800	458
3.08167	456
3.08533	456
3.08900	458
3.09267	460
3.09633	461
3.10000	460
3.10367	459
3.10733	459
3.11100	458
3.11467	457
3.11833	457
3.12200	455
3.12567	454
3.12933	452
3.13300	451
3.13667	449
3.14033	446
3.14400	444
3.14767	444
3.15133	444
3.15500	441
3.15867	438
3.16233	435
3.16600	431
3.16967	429
3.17333	429
3.17700	425
3.18067	422
3.18433	421
3.18800	420
3.19167	417
3.19533	414
3.19900	409
3.20267	405
3.20633	405
3.21000	405
3.21367	402
3.21733	399
3.22100	395
3.22467	390
3.22833	388
3.23200	387
3.23567	386
3.23933	384
3.24300	381
3.24667	376
3.25033	373
3.25400	369
3.25767	367
3.26133	364
3.26500	360
3.26867	355
3.27233	353
3.27600	352
3.27967	349
3.28333	343
3.28700	337
3.29067	332
3.29433	328
3.29800	325
3.30167	323
3.30533	321
3.30900	318
3.31267	315
3.31633	309
3.32000	302
3.32367	296
3.32733	291
3.33100	288
3.33467	285
3.33833	283
3.34200	278
3.34567	274
3.34933	267
3.35300	261
3.35667	258
3.36033	255
3.36400	254
3.36767	252
3.37133	251
3.37500	247
3.37867	241
3.38233	236
3.38600	232
3.38967	230
3.39333	229
3.39700	225
3.40067	221
3.40433	217
3.40800	215
3.41167	211
3.41533	208
3.41900	207
3.42267	204
3.42633	198
3.43000	196
3.43367	194
3.43733	193
3.44100	190
3.44467	188
3.44833	187
3.45200	183
3.45567	180
3.45933	178
3.46300	175
3.46667	171
3.47033	168
3.47400	166
3.47767	167
3.48133	166
3.48500	164
3.48867	161
3.49233	159
3.49600	155
3.49967	152
3.50333	149
3.50700	147
3.51067	145
3.51433	142
3.51800	140
3.52167	140
3.52533	139
3.52900	137
3.53267	136
3.53633	137
3.54000	137
3.54367	135
3.54733	132
3.55100	130
3.55467	130
3.55833	130
3.56200	131
3.56567	132
3.56933	132
3.57300	131
3.57667	127
3.58033	124
3.58400	124
3.58767	126
3.59133	125
3.59500	121
3.59867	117
3.60233	115
3.60600	114
3.60967	113
3.61333	112
3.61700	109
3.62067	107
3.62433	104
3.62800	102
3.63167	102
3.63533	102
3.63900	102
3.64267	105
3.64633	107
3.65000	107
3.65367	107
3.65733	106
3.66100	104
3.66467	105
3.66833	104
3.67200	102
3.67567	102
3.67933	102
3.68300	102
3.68667	105
3.69033	105
3.69400	104
3.69767	101
3.70133	101
3.70500	101
3.70867	102
3.71233	101
3.71600	99
3.71967	99
3.72333	98
3.72700	98
3.73067	100
3.73433	102
3.73800	102
3.74167	101
3.74533	102
3.74900	100
3.75267	96
3.75633	95
3.76000	95
3.76367	96
3.76733	96
3.77100	95
3.77467	95
3.77833	91
3.78200	86
3.78567	86
3.78933	89
3.79300	91
3.79667	92
3.80033	94
3.80400	96
3.80767	96
3.81133	97
3.81500	96
3.81867	95
3.82233	93
3.82600	93
3.82967	95
3.83333	96
3.83700	96
3.84067	95
3.84433	94
3.84800	94
3.85167	95
3.85533	97
3.85900	99
3.86267	100
3.86633	100
3.87000	98
3.87367	93
3.87733	94
3.88100	95
3.88467	95
3.88833	96
3.89200	100
3.89567	103
3.89933	104
3.90300	103
3.90667	102
3.91033	103
3.91400	103
3.91767	103
3.92133	104
3.92500	106
3.92867	106
3.93233	105
3.93600	107
3.93967	105
3.94333	103
3.94700	102
3.95067	101
3.95433	100
3.95800	99
3.96167	98
3.96533	100
3.96900	102
3.97267	106
3.97633	107
3.98000	106
3.98367	107
3.98733	107
3.99100	107
3.99467	105
3.99833	104

[Status Trace (Column Oven Temperature)]
Interval(msec)	1000
# of Points	240
Start Time(min)	0.002
End Time(min)	3.986
Intensity Units	
Intensity Multiplier	1
R.Time (min)	Intensity
0.00237	35.03
0.01903	35.03
0.03570	35.04
0.05237	35.03
0.06903	35.03
0.08570	35.02
0.10237	35.02
0.11903	35.00
0.13570	35.00
0.15237	35.00
0.16903	35.00
0.18570	35.00
0.20237	35.00
0.21903	34.99
0.23570	35.00
0.25237	34.99
0.26903	34.99
0.28570	34.99
0.30237	34.99
0.31903	34.99
0.33570	34.99
0.35237	34.99
0.36903	35.00
0.38570	35.00
0.40237	34.99
0.41903	34.98
0.43570	34.98
0.45237	34.98
0.46903	34.98
0.48570	34.99
0.50237	35.00
0.51903	35.00
0.53570	35.00
0.55237	35.00
0.56903	35.00
0.58570	34.98
0.60237	34.99
0.61903	34.99
0.63570	34.99
0.65237	34.99
0.66903	34.99
0.68570	35.00
0.70237	35.00
0.71903	35.00
0.73570	35.00
0.75237	35.00
0.76903	35.00
0.78570	35.00
0.80237	35.00
0.81903	34.99
0.83570	35.00
0.85237	34.99
0.86903	35.00
0.88570	34.99
0.90237	34.99
0.91903	34.99
0.93570	34.99
0.95237	34.99
0.96903	34.99
0.98570	34.99
1.00237	34.99
1.01903	35.00
1.03570	35.01
1.05237	35.02
1.06903	35.02
1.08570	35.01
1.10237	35.01
1.11903	35.01
1.13570	35.00
1.15237	35.00
1.16903	35.01
1.18570	35.01
1.20237	35.00
1.21903	35.00
1.23570	34.99
1.25237	34.99
1.26903	34.98
1.28570	34.99
1.30237	35.00
1.31903	35.00
1.33570	34.99
1.35237	34.99
1.36903	34.99
1.38570	34.99
1.40237	35.00
1.41903	35.00
1.43570	34.99
1.45237	34.99
1.46903	34.99
1.48570	34.99
1.50237	34.99
1.51903	34.99
1.53570	35.00
1.55237	35.00
1.56903	35.00
1.58570	35.00
1.60237	35.05
1.61903	35.15
1.63570	35.31
1.65237	35.52
1.66903	35.83
1.68570	36.21
1.70237	36.58
1.71903	36.93
1.73570	37.24
1.75237	37.54
1.76903	37.88
1.78570	38.22
1.80237	38.56
1.81903	38.90
1.83570	39.23
1.85237	39.54
1.86903	39.87
1.88570	40.20
1.90237	40.53
1.91903	40.86
1.93570	41.19
1.95237	41.52
1.96903	41.84
1.98570	42.17
2.00237	42.48
2.01903	42.81
2.03570	43.14
2.05237	43.47
2.06903	43.79
2.08570	44.12
2.10237	44.44
2.11903	44.76
2.13570	45.10
2.15237	45.42
2.16903	45.74
2.18570	46.07
2.20237	46.40
2.21903	46.73
2.23570	47.05
2.25237	47.38
2.26903	47.71
2.28570	48.03
2.30237	48.39
2.31903	48.71
2.33570	49.05
2.35237	49.33
2.36903	49.59
2.38570	49.69
2.40237	49.70
2.41903	49.70
2.43570	49.71
2.45237	49.71
2.46903	49.72
2.48570	49.72
2.50237	49.74
2.51903	49.74
2.53570	49.76
2.55237	49.79
2.56903	49.78
2.58570	49.81
2.60237	49.80
2.61903	49.81
2.63570	49.82
2.65237	49.82
2.66903	49.82
2.68570	49.84
2.70237	49.84
2.71903	49.85
2.73570	49.86
2.75237	49.85
2.76903	49.85
2.78570	49.86
2.80237	49.86
2.81903	49.86
2.83570	49.85
2.85237	49.86
2.86903	49.86
2.88570	49.87
2.90237	49.87
2.91903	49.89
2.93570	49.91
2.95237	49.92
2.96903	49.95
2.98570	49.96
3.00237	49.97
3.01903	49.99
3.03570	50.01
3.05237	50.01
3.06903	50.01
3.08570	50.02
3.10237	50.02
3.11903	50.03
3.13570	50.04
3.15237	50.05
3.16903	50.06
3.18570	50.07
3.20237	50.07
3.21903	50.08
3.23570	50.08
3.25237	50.09
3.26903	50.10
3.28570	50.11
3.30237	50.11
3.31903	50.11
3.33570	50.10
3.35237	50.08
3.36903	50.06
3.38570	50.05
3.40237	50.04
3.41903	50.04
3.43570	50.04
3.45237	50.04
3.46903	50.04
3.48570	50.04
3.50237	50.03
3.51903	50.03
3.53570	50.03
3.55237	50.03
3.56903	50.04
3.58570	50.04
3.60237	50.05
3.61903	50.05
3.63570	50.05
3.65237	50.05
3.66903	50.04
3.68570	50.04
3.70237	50.04
3.71903	50.04
3.73570	50.04
3.75237	50.04
3.76903	50.04
3.78570	50.04
3.80237	50.04
3.81903	50.05
3.83570	50.06
3.85237	50.06
3.86903	50.06
3.88570	50.06
3.90237	50.06
3.91903	50.05
3.93570	50.05
3.95237	50.05
3.96903	50.05
3.98570	50.05

[Status Trace (Injection Unit Temperature)]
Interval(msec)	1000
# of Points	240
Start Time(min)	0.002
End Time(min)	3.986
Intensity Units	
Intensity Multiplier	1
R.Time (min)	Intensity
0.00237	99.99
0.01903	99.99
0.03570	99.99
0.05237	99.99
0.06903	100.00
0.08570	99.99
0.10237	99.99
0.11903	100.00
0.13570	100.00
0.15237	99.99
0.16903	99.99
0.18570	99.99
0.20237	100.00
0.21903	99.99
0.23570	100.00
0.25237	100.00
0.26903	99.99
0.28570	100.00
0.30237	100.00
0.31903	99.99
0.33570	99.99
0.35237	99.99
0.36903	99.99
0.38570	99.99
0.40237	100.00
0.41903	99.99
0.43570	99.99
0.45237	99.99
0.46903	99.99
0.48570	99.99
0.50237	99.99
0.51903	99.99
0.53570	99.99
0.55237	99.99
0.56903	99.99
0.58570	99.99
0.60237	99.99
0.61903	99.99
0.63570	99.99
0.65237	99.99
0.66903	99.99
0.68570	99.99
0.70237	99.99
0.71903	99.99
0.73570	99.99
0.75237	99.99
0.76903	99.99
0.78570	99.99
0.80237	99.99
0.81903	99.99
0.83570	99.99
0.85237	99.99
0.86903	99.99
0.88570	99.99
0.90237	99.99
0.91903	99.99
0.93570	99.99
0.95237	99.99
0.96903	99.99
0.98570	99.98
1.00237	99.99
1.01903	99.99
1.03570	99.99
1.05237	99.99
1.06903	99.99
1.08570	99.99
1.10237	99.98
1.11903	99.99
1.13570	99.99
1.15237	99.99
1.16903	99.98
1.18570	99.99
1.20237	99.99
1.21903	99.98
1.23570	99.98
1.25237	99.99
1.26903	99.99
1.28570	99.99
1.30237	99.99
1.31903	99.99
1.33570	99.99
1.35237	99.99
1.36903	99.99
1.38570	99.99
1.40237	99.98
1.41903	99.99
1.43570	99.99
1.45237	99.98
1.46903	99.99
1.48570	99.99
1.50237	99.99
1.51903	99.99
1.53570	99.99
1.55237	99.98
1.56903	99.99
1.58570	99.99
1.60237	99.99
1.61903	99.99
1.63570	99.99
1.65237	99.99
1.66903	99.99
1.68570	99.99
1.70237	99.99
1.71903	99.99
1.73570	99.99
1.75237	99.99
1.76903	99.99
1.78570	99.99
1.80237	99.99
1.81903	99.99
1.83570	99.99
1.85237	99.99
1.86903	99.99
1.88570	99.99
1.90237	99.99
1.91903	99.99
1.93570	99.99
1.95237	99.98
1.96903	99.98
1.98570	99.99
2.00237	99.98
2.01903	99.99
2.03570	99.98
2.05237	99.98
2.06903	99.99
2.08570	99.98
2.10237	99.98
2.11903	99.98
2.13570	99.98
2.15237	99.98
2.16903	99.98
2.18570	99.98
2.20237	99.98
2.21903	99.98
2.23570	99.98
2.25237	99.98
2.26903	99.98
2.28570	99.98
2.30237	99.98
2.31903	99.98
2.33570	99.98
2.35237	99.98
2.36903	99.98
2.38570	99.98
2.40237	99.98
2.41903	99.98
2.43570	99.98
2.45237	99.98
2.46903	99.98
2.48570	99.98
2.50237	99.99
2.51903	99.98
2.53570	99.98
2.55237	99.99
2.56903	99.99
2.58570	99.99
2.60237	99.98
2.61903	99.99
2.63570	99.99
2.65237	99.99
2.66903	99.99
2.68570	99.99
2.70237	100.00
2.71903	100.00
2.73570	100.00
2.75237	100.00
2.76903	100.00
2.78570	100.00
2.80237	100.01
2.81903	100.00
2.83570	100.00
2.85237	100.01
2.86903	100.01
2.88570	100.01
2.90237	100.01
2.91903	100.01
2.93570	100.01
2.95237	100.02
2.96903	100.01
2.98570	100.02
3.00237	100.02
3.01903	100.02
3.03570	100.02
3.05237	100.02
3.06903	100.02
3.08570	100.02
3.10237	100.03
3.11903	100.02
3.13570	100.03
3.15237	100.03
3.16903	100.03
3.18570	100.03
3.20237	100.03
3.21903	100.03
3.23570	100.03
3.25237	100.04
3.26903	100.03
3.28570	100.03
3.30237	100.04
3.31903	100.04
3.33570	100.04
3.35237	100.04
3.36903	100.04
3.38570	100.04
3.40237	100.04
3.41903	100.04
3.43570	100.04
3.45237	100.04
3.46903	100.04
3.48570	100.05
3.50237	100.05
3.51903	100.05
3.53570	100.05
3.55237	100.05
3.56903	100.05
3.58570	100.05
3.60237	100.04
3.61903	100.05
3.63570	100.05
3.65237	100.05
3.66903	100.05
3.68570	100.05
3.70237	100.05
3.71903	100.05
3.73570	100.04
3.75237	100.05
3.76903	100.05
3.78570	100.05
3.80237	100.05
3.81903	100.05
3.83570	100.06
3.85237	100.05
3.86903	100.05
3.88570	100.05
3.90237	100.05
3.91903	100.05
3.93570	100.05
3.95237	100.05
3.96903	100.05
3.98570	100.05

[Status Trace (Carrier Gas Pressure)]
Interval(msec)	1000
# of Points	240
Start Time(min)	0.002
End Time(min)	3.986
Intensity Units	
Intensity Multiplier	1
R.Time (min)	Intensity
0.00237	58.00
0.01903	56.37
0.03570	56.28
0.05237	58.55
0.06903	59.90
0.08570	58.33
0.10237	57.97
0.11903	58.00
0.13570	58.01
0.15237	58.01
0.16903	58.00
0.18570	58.00
0.20237	58.00
0.21903	58.00
0.23570	58.00
0.25237	58.00
0.26903	58.00
0.28570	58.00
0.30237	58.00
0.31903	58.00
0.33570	58.00
0.35237	58.00
0.36903	58.00
0.38570	58.00
0.40237	58.00
0.41903	58.00
0.43570	58.00
0.45237	58.00
0.46903	58.00
0.48570	58.00
0.50237	58.00
0.51903	58.00
0.53570	58.00
0.55237	58.00
0.56903	58.00
0.58570	58.00
0.60237	58.00
0.61903	58.00
0.63570	58.00
0.65237	58.00
0.66903	58.00
0.68570	58.00
0.70237	58.00
0.71903	58.00
0.73570	58.00
0.75237	58.00
0.76903	58.00
0.78570	58.00
0.80237	58.00
0.81903	58.00
0.83570	58.00
0.85237	58.00
0.86903	58.00
0.88570	58.00
0.90237	58.00
0.91903	58.00
0.93570	58.00
0.95237	58.00
0.96903	58.00
0.98570	58.00
1.00237	58.00
1.01903	58.00
1.03570	58.00
1.05237	58.00
1.06903	58.00
1.08570	58.00
1.10237	58.00
1.11903	58.00
1.13570	58.00
1.15237	58.00
1.16903	58.00
1.18570	58.00
1.20237	58.00
1.21903	58.00
1.23570	58.00
1.25237	58.00
1.26903	58.00
1.28570	58.00
1.30237	58.00
1.31903	58.00
1.33570	58.00
1.35237	58.00
1.36903	58.00
1.38570	58.00
1.40237	58.00
1.41903	58.00
1.43570	58.00
1.45237	58.00
1.46903	58.00
1.48570	58.00
1.50237	58.00
1.51903	58.00
1.53570	58.00
1.55237	58.00
1.56903	58.00
1.58570	58.00
1.60237	58.00
1.61903	58.00
1.63570	58.01
1.65237	58.00
1.66903	58.01
1.68570	58.01
1.70237	58.00
1.71903	58.00
1.73570	58.00
1.75237	58.00
1.76903	58.00
1.78570	58.00
1.80237	58.00
1.81903	58.00
1.83570	58.00
1.85237	58.00
1.86903	58.00
1.88570	58.00
1.90237	58.00
1.91903	58.00
1.93570	58.00
1.95237	58.00
1.96903	58.00
1.98570	58.00
2.00237	58.00
2.01903	58.00
2.03570	58.00
2.05237	58.00
2.06903	58.00
2.08570	58.00
2.10237	58.00
2.11903	58.00
2.13570	58.00
2.15237	58.00
2.16903	58.00
2.18570	58.00
2.20237	58.00
2.21903	58.00
2.23570	58.00
2.25237	58.00
2.26903	58.00
2.28570	58.00
2.30237	58.00
2.31903	58.00
2.33570	58.00
2.35237	58.00
2.36903	58.00
2.38570	57.99
2.40237	57.99
2.41903	58.00
2.43570	58.00
2.45237	58.00
2.46903	58.00
2.48570	58.00
2.50237	57.98
2.51903	58.01
2.53570	57.99
2.55237	58.00
2.56903	58.00
2.58570	58.00
2.60237	58.00
2.61903	58.00
2.63570	58.00
2.65237	58.00
2.66903	58.00
2.68570	58.00
2.70237	58.00
2.71903	58.00
2.73570	58.00
2.75237	58.00
2.76903	58.00
2.78570	58.00
2.80237	58.00
2.81903	58.00
2.83570	58.00
2.85237	58.00
2.86903	58.00
2.88570	58.00
2.90237	58.00
2.91903	58.00
2.93570	58.00
2.95237	58.00
2.96903	58.00
2.98570	58.00
3.00237	58.00
3.01903	58.00
3.03570	58.00
3.05237	58.00
3.06903	58.00
3.08570	58.00
3.10237	58.00
3.11903	58.00
3.13570	58.00
3.15237	58.00
3.16903	58.00
3.18570	58.00
3.20237	58.00
3.21903	58.00
3.23570	58.00
3.25237	58.00
3.26903	58.00
3.28570	58.00
3.30237	58.00
3.31903	58.00
3.33570	58.00
3.35237	58.00
3.36903	58.00
3.38570	58.00
3.40237	58.00
3.41903	58.00
3.43570	58.00
3.45237	58.00
3.46903	58.00
3.48570	58.00
3.50237	58.00
3.51903	58.00
3.53570	58.00
3.55237	58.00
3.56903	58.00
3.58570	58.00
3.60237	58.00
3.61903	58.00
3.63570	58.00
3.65237	58.00
3.66903	58.00
3.68570	58.00
3.70237	58.00
3.71903	58.00
3.73570	58.00
3.75237	58.00
3.76903	58.00
3.78570	58.00
3.80237	58.00
3.81903	58.00
3.83570	58.00
3.85237	58.00
3.86903	58.00
3.88570	58.00
3.90237	58.00
3.91903	58.00
3.93570	58.00
3.95237	58.00
3.96903	58.00
3.98570	58.00

[Status Trace (Carrier Gas Flow)]
Interval(msec)	1000
# of Points	240
Start Time(min)	0.002
End Time(min)	3.986
Intensity Units	
Intensity Multiplier	1
R.Time (min)	Intensity
0.00237	34.52
0.01903	34.47
0.03570	34.53
0.05237	34.54
0.06903	34.51
0.08570	34.51
0.10237	34.52
0.11903	34.52
0.13570	34.52
0.15237	34.52
0.16903	34.52
0.18570	34.52
0.20237	34.52
0.21903	34.52
0.23570	34.52
0.25237	34.52
0.26903	34.52
0.28570	34.52
0.30237	34.52
0.31903	34.52
0.33570	34.52
0.35237	34.52
0.36903	34.52
0.38570	34.52
0.40237	34.52
0.41903	34.52
0.43570	34.52
0.45237	34.52
0.46903	34.52
0.48570	34.52
0.50237	34.52
0.51903	34.52
0.53570	34.52
0.55237	34.52
0.56903	34.52
0.58570	34.52
0.60237	34.52
0.61903	34.52
0.63570	34.52
0.65237	34.52
0.66903	34.52
0.68570	34.52
0.70237	34.52
0.71903	34.52
0.73570	34.52
0.75237	34.52
0.76903	34.52
0.78570	34.52
0.80237	34.52
0.81903	34.52
0.83570	34.52
0.85237	34.52
0.86903	34.52
0.88570	34.52
0.90237	34.52
0.91903	34.52
0.93570	34.52
0.95237	34.52
0.96903	34.52
0.98570	34.52
1.00237	34.52
1.01903	34.52
1.03570	34.52
1.05237	34.52
1.06903	34.52
1.08570	34.52
1.10237	34.52
1.11903	34.52
1.13570	34.52
1.15237	34.52
1.16903	34.52
1.18570	34.52
1.20237	34.52
1.21903	34.52
1.23570	34.52
1.25237	34.52
1.26903	34.52
1.28570	34.52
1.30237	34.52
1.31903	34.52
1.33570	34.52
1.35237	34.52
1.36903	34.52
1.38570	34.52
1.40237	34.52
1.41903	34.52
1.43570	34.52
1.45237	34.52
1.46903	34.52
1.48570	34.52
1.50237	34.52
1.51903	34.52
1.53570	34.52
1.55237	34.52
1.56903	34.52
1.58570	34.52
1.60237	34.52
1.61903	34.52
1.63570	34.52
1.65237	34.52
1.66903	34.52
1.68570	34.52
1.70237	34.52
1.71903	34.52
1.73570	34.52
1.75237	34.52
1.76903	34.52
1.78570	34.52
1.80237	34.52
1.81903	34.52
1.83570	34.52
1.85237	34.52
1.86903	34.52
1.88570	34.52
1.90237	34.52
1.91903	34.52
1.93570	34.52
1.95237	34.52
1.96903	34.52
1.98570	34.52
2.00237	34.52
2.01903	34.52
2.03570	34.52
2.05237	34.52
2.06903	34.52
2.08570	34.52
2.10237	34.52
2.11903	34.52
2.13570	34.52
2.15237	34.52
2.16903	34.52
2.18570	34.52
2.20237	34.52
2.21903	34.52
2.23570	34.52
2.25237	34.52
2.26903	34.52
2.28570	34.52
2.30237	34.52
2.31903	34.52
2.33570	34.52
2.35237	34.52
2.36903	34.52
2.38570	34.53
2.40237	34.52
2.41903	34.52
2.43570	34.53
2.45237	34.52
2.46903	34.52
2.48570	34.52
2.50237	34.59
2.51903	34.52
2.53570	34.52
2.55237	34.52
2.56903	34.52
2.58570	34.52
2.60237	34.52
2.61903	34.52
2.63570	34.52
2.65237	34.52
2.66903	34.52
2.68570	34.52
2.70237	34.52
2.71903	34.52
2.73570	34.52
2.75237	34.52
2.76903	34.52
2.78570	34.52
2.80237	34.52
2.81903	34.52
2.83570	34.52
2.85237	34.52
2.86903	34.52
2.88570	34.52
2.90237	34.52
2.91903	34.52
2.93570	34.52
2.95237	34.52
2.96903	34.52
2.98570	34.52
3.00237	34.52
3.01903	34.52
3.03570	34.52
3.05237	34.52
3.06903	34.52
3.08570	34.52
3.10237	34.52
3.11903	34.52
3.13570	34.52
3.15237	34.52
3.16903	34.52
3.18570	34.52
3.20237	34.52
3.21903	34.52
3.23570	34.52
3.25237	34.52
3.26903	34.52
3.28570	34.52
3.30237	34.52
3.31903	34.52
3.33570	34.52
3.35237	34.52
3.36903	34.53
3.38570	34.52
3.40237	34.52
3.41903	34.52
3.43570	34.52
3.45237	34.52
3.46903	34.52
3.48570	34.52
3.50237	34.52
3.51903	34.52
3.53570	34.52
3.55237	34.52
3.56903	34.52
3.58570	34.52
3.60237	34.52
3.61903	34.52
3.63570	34.52
3.65237	34.52
3.66903	34.52
3.68570	34.52
3.70237	34.52
3.71903	34.52
3.73570	34.52
3.75237	34.52
3.76903	34.52
3.78570	34.52
3.80237	34.52
3.81903	34.52
3.83570	34.52
3.85237	34.52
3.86903	34.52
3.88570	34.52
3.90237	34.52
3.91903	34.52
3.93570	34.52
3.95237	34.52
3.96903	34.52
3.98570	34.52

[Status Trace (Column Flow)]
Interval(msec)	1000
# of Points	240
Start Time(min)	0.002
End Time(min)	3.986
Intensity Units	
Intensity Multiplier	1
R.Time (min)	Intensity
0.00237	5.48
0.01903	5.29
0.03570	5.28
0.05237	5.54
0.06903	5.70
0.08570	5.52
0.10237	5.48
0.11903	5.48
0.13570	5.48
0.15237	5.48
0.16903	5.48
0.18570	5.48
0.20237	5.48
0.21903	5.48
0.23570	5.48
0.25237	5.48
0.26903	5.48
0.28570	5.48
0.30237	5.48
0.31903	5.48
0.33570	5.48
0.35237	5.48
0.36903	5.48
0.38570	5.48
0.40237	5.48
0.41903	5.48
0.43570	5.48
0.45237	5.48
0.46903	5.48
0.48570	5.48
0.50237	5.48
0.51903	5.48
0.53570	5.48
0.55237	5.48
0.56903	5.48
0.58570	5.48
0.60237	5.48
0.61903	5.48
0.63570	5.48
0.65237	5.48
0.66903	5.48
0.68570	5.48
0.70237	5.48
0.71903	5.48
0.73570	5.48
0.75237	5.48
0.76903	5.48
0.78570	5.48
0.80237	5.48
0.81903	5.48
0.83570	5.48
0.85237	5.48
0.86903	5.48
0.88570	5.48
0.90237	5.48
0.91903	5.48
0.93570	5.48
0.95237	5.48
0.96903	5.48
0.98570	5.48
1.00237	5.48
1.01903	5.48
1.03570	5.48
1.05237	5.48
1.06903	5.48
1.08570	5.48
1.10237	5.48
1.11903	5.48
1.13570	5.48
1.15237	5.48
1.16903	5.48
1.18570	5.48
1.20237	5.48
1.21903	5.48
1.23570	5.48
1.25237	5.48
1.26903	5.48
1.28570	5.48
1.30237	5.48
1.31903	5.48
1.33570	5.48
1.35237	5.48
1.36903	5.48
1.38570	5.48
1.40237	5.48
1.41903	5.48
1.43570	5.48
1.45237	5.48
1.46903	5.48
1.48570	5.48
1.50237	5.48
1.51903	5.48
1.53570	5.48
1.55237	5.48
1.56903	5.48
1.58570	5.48
1.60237	5.48
1.61903	5.48
1.63570	5.47
1.65237	5.47
1.66903	5.46
1.68570	5.44
1.70237	5.43
1.71903	5.42
1.73570	5.41
1.75237	5.40
1.76903	5.39
1.78570	5.38
1.80237	5.37
1.81903	5.36
1.83570	5.35
1.85237	5.34
1.86903	5.33
1.88570	5.32
1.90237	5.31
1.91903	5.30
1.93570	5.29
1.95237	5.28
1.96903	5.27
1.98570	5.26
2.00237	5.25
2.01903	5.25
2.03570	5.24
2.05237	5.23
2.06903	5.22
2.08570	5.21
2.10237	5.20
2.11903	5.19
2.13570	5.18
2.15237	5.17
2.16903	5.16
2.18570	5.15
2.20237	5.14
2.21903	5.13
2.23570	5.12
2.25237	5.11
2.26903	5.11
2.28570	5.10
2.30237	5.09
2.31903	5.08
2.33570	5.07
2.35237	5.06
2.36903	5.05
2.38570	5.05
2.40237	5.05
2.41903	5.05
2.43570	5.05
2.45237	5.05
2.46903	5.05
2.48570	5.05
2.50237	5.05
2.51903	5.05
2.53570	5.05
2.55237	5.05
2.56903	5.05
2.58570	5.05
2.60237	5.05
2.61903	5.05
2.63570	5.05
2.65237	5.05
2.66903	5.05
2.68570	5.05
2.70237	5.05
2.71903	5.05
2.73570	5.05
2.75237	5.05
2.76903	5.05
2.78570	5.05
2.80237	5.05
2.81903	5.05
2.83570	5.05
2.85237	5.05
2.86903	5.05
2.88570	5.05
2.90237	5.05
2.91903	5.04
2.93570	5.04
2.95237	5.04
2.96903	5.04
2.98570	5.04
3.00237	5.04
3.01903	5.04
3.03570	5.04
3.05237	5.04
3.06903	5.04
3.08570	5.04
3.10237	5.04
3.11903	5.04
3.13570	5.04
3.15237	5.04
3.16903	5.04
3.18570	5.04
3.20237	5.04
3.21903	5.04
3.23570	5.04
3.25237	5.04
3.26903	5.04
3.28570	5.04
3.30237	5.04
3.31903	5.04
3.33570	5.04
3.35237	5.04
3.36903	5.04
3.38570	5.04
3.40237	5.04
3.41903	5.04
3.43570	5.04
3.45237	5.04
3.46903	5.04
3.48570	5.04
3.50237	5.04
3.51903	5.04
3.53570	5.04
3.55237	5.04
3.56903	5.04
3.58570	5.04
3.60237	5.04
3.61903	5.04
3.63570	5.04
3.65237	5.04
3.66903	5.04
3.68570	5.04
3.70237	5.04
3.71903	5.04
3.73570	5.04
3.75237	5.04
3.76903	5.04
3.78570	5.04
3.80237	5.04
3.81903	5.04
3.83570	5.04
3.85237	5.04
3.86903	5.04
3.88570	5.04
3.90237	5.04
3.91903	5.04
3.93570	5.04
3.95237	5.04
3.96903	5.04
3.98570	5.04

[Status Trace (Linear Velocity)]
Interval(msec)	1000
# of Points	240
Start Time(min)	0.002
End Time(min)	3.986
Intensity Units	
Intensity Multiplier	1
R.Time (min)	Intensity
0.00237	39.00
0.01903	37.93
0.03570	37.87
0.05237	39.37
0.06903	40.24
0.08570	39.22
0.10237	38.98
0.11903	39.01
0.13570	39.02
0.15237	39.01
0.16903	39.01
0.18570	39.01
0.20237	39.01
0.21903	39.01
0.23570	39.01
0.25237	39.01
0.26903	39.01
0.28570	39.01
0.30237	39.01
0.31903	39.01
0.33570	39.01
0.35237	39.01
0.36903	39.01
0.38570	39.01
0.40237	39.01
0.41903	39.01
0.43570	39.01
0.45237	39.01
0.46903	39.01
0.48570	39.01
0.50237	39.01
0.51903	39.01
0.53570	39.01
0.55237	39.01
0.56903	39.01
0.58570	39.01
0.60237	39.01
0.61903	39.01
0.63570	39.01
0.65237	39.01
0.66903	39.01
0.68570	39.01
0.70237	39.01
0.71903	39.01
0.73570	39.01
0.75237	39.01
0.76903	39.01
0.78570	39.01
0.80237	39.01
0.81903	39.01
0.83570	39.01
0.85237	39.01
0.86903	39.01
0.88570	39.01
0.90237	39.01
0.91903	39.01
0.93570	39.01
0.95237	39.01
0.96903	39.01
0.98570	39.01
1.00237	39.01
1.01903	39.01
1.03570	39.01
1.05237	39.01
1.06903	39.01
1.08570	39.01
1.10237	39.01
1.11903	39.01
1.13570	39.01
1.15237	39.01
1.16903	39.01
1.18570	39.01
1.20237	39.01
1.21903	39.01
1.23570	39.01
1.25237	39.01
1.26903	39.01
1.28570	39.01
1.30237	39.01
1.31903	39.01
1.33570	39.01
1.35237	39.01
1.36903	39.01
1.38570	39.01
1.40237	39.01
1.41903	39.01
1.43570	39.01
1.45237	39.01
1.46903	39.01
1.48570	39.01
1.50237	39.01
1.51903	39.01
1.53570	39.01
1.55237	39.01
1.56903	39.01
1.58570	39.01
1.60237	39.00
1.61903	39.00
1.63570	38.98
1.65237	38.96
1.66903	38.93
1.68570	38.89
1.70237	38.86
1.71903	38.83
1.73570	38.79
1.75237	38.76
1.76903	38.74
1.78570	38.70
1.80237	38.67
1.81903	38.64
1.83570	38.60
1.85237	38.57
1.86903	38.55
1.88570	38.51
1.90237	38.48
1.91903	38.45
1.93570	38.42
1.95237	38.39
1.96903	38.36
1.98570	38.33
2.00237	38.30
2.01903	38.27
2.03570	38.24
2.05237	38.21
2.06903	38.19
2.08570	38.15
2.10237	38.12
2.11903	38.10
2.13570	38.06
2.15237	38.03
2.16903	38.01
2.18570	37.97
2.20237	37.94
2.21903	37.92
2.23570	37.89
2.25237	37.86
2.26903	37.83
2.28570	37.80
2.30237	37.77
2.31903	37.74
2.33570	37.71
2.35237	37.68
2.36903	37.66
2.38570	37.65
2.40237	37.64
2.41903	37.65
2.43570	37.65
2.45237	37.65
2.46903	37.65
2.48570	37.65
2.50237	37.63
2.51903	37.65
2.53570	37.64
2.55237	37.64
2.56903	37.64
2.58570	37.64
2.60237	37.64
2.61903	37.64
2.63570	37.64
2.65237	37.64
2.66903	37.64
2.68570	37.64
2.70237	37.64
2.71903	37.64
2.73570	37.64
2.75237	37.64
2.76903	37.64
2.78570	37.64
2.80237	37.64
2.81903	37.64
2.83570	37.64
2.85237	37.64
2.86903	37.64
2.88570	37.64
2.90237	37.63
2.91903	37.63
2.93570	37.63
2.95237	37.63
2.96903	37.63
2.98570	37.63
3.00237	37.63
3.01903	37.62
3.03570	37.62
3.05237	37.62
3.06903	37.62
3.08570	37.62
3.10237	37.62
3.11903	37.62
3.13570	37.62
3.15237	37.62
3.16903	37.62
3.18570	37.62
3.20237	37.62
3.21903	37.62
3.23570	37.62
3.25237	37.62
3.26903	37.62
3.28570	37.61
3.30237	37.61
3.31903	37.61
3.33570	37.61
3.35237	37.62
3.36903	37.62
3.38570	37.62
3.40237	37.62
3.41903	37.62
3.43570	37.62
3.45237	37.62
3.46903	37.62
3.48570	37.62
3.50237	37.62
3.51903	37.62
3.53570	37.62
3.55237	37.62
3.56903	37.62
3.58570	37.62
3.60237	37.62
3.61903	37.62
3.63570	37.62
3.65237	37.62
3.66903	37.62
3.68570	37.62
3.70237	37.62
3.71903	37.62
3.73570	37.62
3.75237	37.62
3.76903	37.62
3.78570	37.62
3.80237	37.62
3.81903	37.62
3.83570	37.62
3.85237	37.62
3.86903	37.62
3.88570	37.62
3.90237	37.62
3.91903	37.62
3.93570	37.62
3.95237	37.62
3.96903	37.62
3.98570	37.62

