[Header]
Application Name	LabSolutions
Version	5.110
Data File Name	C:\Users\User\Desktop\GC Analyses\Jack\UIC Prairie Sampling\10.19.22\221019_023.gcd
Output Date	1/4/2023
Output Time	2:27:27 PM

[File Information]
Type	Data File
Generated	12/5/2022 3:36:37 PM
Generated by	System Administrator
Modified	12/5/2022 3:40:59 PM
Modified by	System Administrator

[Sample Information]
Operator Name	System Administrator
Acquired	12/5/2022 3:36:59 PM
Sample Type	1:Standard
Level	1
Sample Name	221019_UICPrairie
Sample ID	221019_UICPrairie
ISTD Amount1	1
ISTD Amount2	1
ISTD Amount3	1
ISTD Amount4	1
ISTD Amount5	1
ISTD Amount6	1
ISTD Amount7	1
ISTD Amount8	1
ISTD Amount9	1
ISTD Amount10	1
ISTD Amount11	1
ISTD Amount12	1
ISTD Amount13	1
ISTD Amount14	1
ISTD Amount15	1
ISTD Amount16	1
ISTD Amount17	1
ISTD Amount18	1
ISTD Amount19	1
ISTD Amount20	1
ISTD Amount21	1
ISTD Amount22	1
ISTD Amount23	1
ISTD Amount24	1
ISTD Amount25	1
ISTD Amount26	1
ISTD Amount27	1
ISTD Amount28	1
ISTD Amount29	1
ISTD Amount30	1
ISTD Amount31	1
ISTD Amount32	1
Sample Amount	1
Dilution Factor	1
Vial#	1
Injection Volume	1
Injection Count	1
Bar Code	

[Original Files]
Data File	C:\Users\User\Desktop\GC Analyses\Jack\UIC Prairie Sampling\10.19.22\221019_023.gcd
Method File	C:\LabSolutions\Data\GHG_4min_2022\ghg3_togas_w_acet_4 min_new_int.gcm
Batch File	
Report Format File	c:\LabSolutions\System\DEFAULT.lsr

[File Description]


[Configuration]
Instrument Name	C0B7VH3-Instrument1
Instrument #	1
Line #	1
# of Detectors	3
Detector ID	DET#1	DET#2	DET#3
Detector Name	FID	PTCD	ECD
# of Channels	1	1	1

[Peak Table(Ch1)]
# of Peaks	3
Peak#	R.Time	I.Time	F.Time	Area	Height	A/H	Conc.	Mark	ID#	Name	k'	Plate #	Plate Ht.	Tailing	Resolution	Sep.Factor	Area Ratio	Height Ratio	Conc. %	Norm Conc.
1	1.479	1.421	1.538	9967	4315	2.310	100.000	   	1	CO	0.000	8059	18.614	1.261	0.000	0.000	0	0	16.667	16.667
2	1.571	1.538	1.626	4698	2337	2.010	100.000	 V 	2	CH4	0.062	10939	13.713	0.000	1.455	0.000	0	0	16.667	16.667
3	2.000	1.956	2.488	1019228	483767	2.107	400.000	   	3	CO2	0.352	17504	8.569	1.310	7.117	5.680	0	0	66.667	66.667

[Peak Table(Ch2)]
# of Peaks	0

[Peak Table(Ch3)]
# of Peaks	5
Peak#	R.Time	I.Time	F.Time	Area	Height	A/H	Conc.	Mark	ID#	Name	k'	Plate #	Plate Ht.	Tailing	Resolution	Sep.Factor	Area Ratio	Height Ratio	Conc. %	Norm Conc.
1	2.466	2.059	2.484	1346	356	3.778	0.000	   			0.000	7677	19.540	0.000	0.000	0.000	0	0	0.000	0.000
2	2.510	2.484	2.532	946	363	2.605	0.000	 V 			0.018	1607	93.352	0.000	0.242	0.000	0	0	0.000	0.000
3	2.590	2.532	2.664	2645	451	5.864	0.000	 V 			0.051	2029	73.912	0.000	0.336	2.833	0	0	0.000	0.000
4	2.770	2.664	2.825	2772	354	7.836	0.080	 V 	1	N2O	0.123	147	1022.241	0.000	0.314	2.441	0	0	7.991	7.991
5	2.891	2.825	3.866	31920	5512	5.791	0.920	 V 	1	N2O	0.173	12242	12.253	0.000	0.237	1.398	0	0	92.009	92.009

[Compound Results(Ch1)]
# of IDs	6
ID#	Name	R.Time	Area	Height	Conc.	Curve	3rd	2nd	1st	Constant	Area Ratio	Height Ratio	Conc. %	Norm Conc.
1	CO	1.479	9967	4315	100.000	Linear	0.000000e+00	0.000000e+00	9.966650e+001	0.000000e+00	0	0	16.667	16.667
2	CH4	1.571	4698	2337	100.000	Linear	0.000000e+00	0.000000e+00	4.697635e+001	0.000000e+00	0	0	16.667	16.667
3	CO2	2.000	1019228	483767	400.000	Linear	0.000000e+00	0.000000e+00	2.548070e+003	0.000000e+00	0	0	66.667	66.667
4	Ethylene	0.000	0	0	0.000	Linear	0.000000e+00	0.000000e+00	0.000000e+00	0.000000e+00	0	0	0.000	0.000
5	Acetylene	0.000	0	0	0.000	Linear	0.000000e+00	0.000000e+00	0.000000e+00	0.000000e+00	0	0	0.000	0.000
6	Ethane	0.000	0	0	0.000	Linear	0.000000e+00	0.000000e+00	0.000000e+00	0.000000e+00	0	0	0.000	0.000

[Compound Results(Ch2)]
# of IDs	5
ID#	Name	R.Time	Area	Height	Conc.	Curve	3rd	2nd	1st	Constant	Area Ratio	Height Ratio	Conc. %	Norm Conc.
1	Hydrogen	0.000	0	0	0.000	Linear	0.000000e+00	0.000000e+00	0.000000e+00	0.000000e+00	0	0	0.000	0.000
2	Oxygen	0.000	0	0	0.000	Linear	0.000000e+00	0.000000e+00	0.000000e+00	0.000000e+00	0	0	0.000	0.000
3	Nitrogen	0.000	0	0	0.000	Linear	0.000000e+00	0.000000e+00	0.000000e+00	0.000000e+00	0	0	0.000	0.000
4	Methane	0.000	0	0	0.000	Linear	0.000000e+00	0.000000e+00	0.000000e+00	0.000000e+00	0	0	0.000	0.000
5	Carbon Monoxide	0.000	0	0	0.000	Linear	0.000000e+00	0.000000e+00	0.000000e+00	0.000000e+00	0	0	0.000	0.000

[Compound Results(Ch3)]
# of IDs	2
ID#	Name	R.Time	Area	Height	Conc.	Curve	3rd	2nd	1st	Constant	Area Ratio	Height Ratio	Conc. %	Norm Conc.
1	N2O	2.891	34692	5866	1.000	Linear	0.000000e+00	0.000000e+00	3.469247e+004	0.000000e+00	0	0	100.000	100.000
2	SF6	0.000	0	0	0.000	Linear	0.000000e+00	0.000000e+00	0.000000e+00	0.000000e+00	0	0	0.000	0.000

[Group Results(Ch1)]
# of Groups	0

[Group Results(Ch2)]
# of Groups	0

[Group Results(Ch3)]
# of Groups	0

[Chromatogram (Ch1)]
Interval(msec)	220
# of Points	1091
Start Time(min)	0.002
End Time(min)	3.998
R.Time (min)	Intensity
0.00167	23
0.00533	19
0.00900	13
0.01267	5
0.01633	-2
0.02000	-6
0.02367	-5
0.02733	-1
0.03100	1
0.03467	0
0.03833	-2
0.04200	-3
0.04567	-3
0.04933	-2
0.05300	-1
0.05667	1
0.06033	4
0.06400	5
0.06767	8
0.07133	11
0.07500	10
0.07867	8
0.08233	4
0.08600	-2
0.08967	-8
0.09333	-14
0.09700	-19
0.10067	-21
0.10433	-20
0.10800	-19
0.11167	-19
0.11533	-18
0.11900	-17
0.12267	-15
0.12633	-14
0.13000	-13
0.13367	-16
0.13733	-21
0.14100	-25
0.14467	-27
0.14833	-25
0.15200	-22
0.15567	-20
0.15933	-19
0.16300	-20
0.16667	-18
0.17033	-13
0.17400	-7
0.17767	-2
0.18133	0
0.18500	-1
0.18867	-5
0.19233	-10
0.19600	-14
0.19967	-14
0.20333	-13
0.20700	-18
0.21067	-27
0.21433	-33
0.21800	-34
0.22167	-33
0.22533	-29
0.22900	-23
0.23267	-18
0.23633	-17
0.24000	-19
0.24367	-22
0.24733	-26
0.25100	-27
0.25467	-25
0.25833	-25
0.26200	-26
0.26567	-25
0.26933	-24
0.27300	-22
0.27667	-23
0.28033	-25
0.28400	-25
0.28767	-22
0.29133	-18
0.29500	-18
0.29867	-23
0.30233	-27
0.30600	-29
0.30967	-31
0.31333	-30
0.31700	-29
0.32067	-28
0.32433	-25
0.32800	-22
0.33167	-25
0.33533	-30
0.33900	-33
0.34267	-36
0.34633	-35
0.35000	-32
0.35367	-29
0.35733	-28
0.36100	-27
0.36467	-28
0.36833	-32
0.37200	-40
0.37567	-45
0.37933	-44
0.38300	-41
0.38667	-38
0.39033	-35
0.39400	-32
0.39767	-28
0.40133	-26
0.40500	-26
0.40867	-28
0.41233	-28
0.41600	-27
0.41967	-27
0.42333	-26
0.42700	-24
0.43067	-23
0.43433	-25
0.43800	-28
0.44167	-34
0.44533	-42
0.44900	-50
0.45267	-56
0.45633	-59
0.46000	-59
0.46367	-54
0.46733	-47
0.47100	-45
0.47467	-47
0.47833	-47
0.48200	-43
0.48567	-38
0.48933	-37
0.49300	-39
0.49667	-43
0.50033	-46
0.50400	-49
0.50767	-54
0.51133	-59
0.51500	-60
0.51867	-57
0.52233	-50
0.52600	-43
0.52967	-39
0.53333	-40
0.53700	-43
0.54067	-50
0.54433	-55
0.54800	-57
0.55167	-56
0.55533	-53
0.55900	-51
0.56267	-49
0.56633	-49
0.57000	-46
0.57367	-42
0.57733	-39
0.58100	-37
0.58467	-38
0.58833	-41
0.59200	-46
0.59567	-49
0.59933	-49
0.60300	-47
0.60667	-47
0.61033	-49
0.61400	-51
0.61767	-50
0.62133	-46
0.62500	-43
0.62867	-41
0.63233	-39
0.63600	-36
0.63967	-37
0.64333	-40
0.64700	-42
0.65067	-45
0.65433	-50
0.65800	-55
0.66167	-58
0.66533	-60
0.66900	-63
0.67267	-65
0.67633	-65
0.68000	-66
0.68367	-69
0.68733	-72
0.69100	-74
0.69467	-74
0.69833	-73
0.70200	-68
0.70567	-62
0.70933	-56
0.71300	-51
0.71667	-45
0.72033	-42
0.72400	-42
0.72767	-44
0.73133	-46
0.73500	-48
0.73867	-49
0.74233	-51
0.74600	-53
0.74967	-57
0.75333	-61
0.75700	-65
0.76067	-69
0.76433	-66
0.76800	-57
0.77167	-47
0.77533	-43
0.77900	-48
0.78267	-58
0.78633	-67
0.79000	-71
0.79367	-72
0.79733	-72
0.80100	-77
0.80467	-85
0.80833	-91
0.81200	-92
0.81567	-89
0.81933	-81
0.82300	-73
0.82667	-65
0.83033	-60
0.83400	-59
0.83767	-58
0.84133	-61
0.84500	-68
0.84867	-74
0.85233	-80
0.85600	-86
0.85967	-84
0.86333	-85
0.86700	-80
0.87067	-75
0.87433	-69
0.87800	-61
0.88167	-54
0.88533	-53
0.88900	-57
0.89267	-64
0.89633	-71
0.90000	-79
0.90367	-86
0.90733	-88
0.91100	-88
0.91467	-87
0.91833	-86
0.92200	-82
0.92567	-78
0.92933	-75
0.93300	-72
0.93667	-72
0.94033	-74
0.94400	-77
0.94767	-80
0.95133	-82
0.95500	-83
0.95867	-81
0.96233	-76
0.96600	-70
0.96967	-65
0.97333	-59
0.97700	-54
0.98067	-51
0.98433	-54
0.98800	-58
0.99167	-66
0.99533	-76
0.99900	-88
1.00267	-99
1.00633	-104
1.01000	-101
1.01367	-94
1.01733	-88
1.02100	-88
1.02467	-89
1.02833	-89
1.03200	-87
1.03567	-86
1.03933	-86
1.04300	-85
1.04667	-81
1.05033	-77
1.05400	-74
1.05767	-72
1.06133	-69
1.06500	-63
1.06867	-60
1.07233	-65
1.07600	-74
1.07967	-82
1.08333	-91
1.08700	-94
1.09067	-88
1.09433	-78
1.09800	-75
1.10167	-79
1.10533	-87
1.10900	-97
1.11267	-103
1.11633	-104
1.12000	-101
1.12367	-97
1.12733	-92
1.13100	-88
1.13467	-87
1.13833	-88
1.14200	-92
1.14567	-96
1.14933	-101
1.15300	-104
1.15667	-105
1.16033	-105
1.16400	-108
1.16767	-111
1.17133	-110
1.17500	-108
1.17867	-106
1.18233	-103
1.18600	-100
1.18967	-97
1.19333	-95
1.19700	-95
1.20067	-93
1.20433	-92
1.20800	-94
1.21167	-96
1.21533	-99
1.21900	-98
1.22267	-100
1.22633	-103
1.23000	-106
1.23367	-110
1.23733	-115
1.24100	-118
1.24467	-120
1.24833	-116
1.25200	-107
1.25567	-96
1.25933	-89
1.26300	-85
1.26667	-81
1.27033	-82
1.27400	-87
1.27767	-95
1.28133	-101
1.28500	-104
1.28867	-104
1.29233	-104
1.29600	-107
1.29967	-110
1.30333	-112
1.30700	-114
1.31067	-116
1.31433	-118
1.31800	-118
1.32167	-117
1.32533	-115
1.32900	-113
1.33267	-113
1.33633	-114
1.34000	-117
1.34367	-122
1.34733	-122
1.35100	-119
1.35467	-113
1.35833	-109
1.36200	-105
1.36567	-105
1.36933	-109
1.37300	-112
1.37667	-114
1.38033	-116
1.38400	-119
1.38767	-122
1.39133	-125
1.39500	-127
1.39867	-127
1.40233	-123
1.40600	-119
1.40967	-116
1.41333	-112
1.41700	-108
1.42067	-104
1.42433	-100
1.42800	-93
1.43167	-84
1.43533	-80
1.43900	-79
1.44267	-52
1.44633	66
1.45000	302
1.45367	657
1.45733	1192
1.46100	1896
1.46467	2638
1.46833	3292
1.47200	3792
1.47567	4109
1.47933	4211
1.48300	4068
1.48667	3690
1.49033	3141
1.49400	2528
1.49767	1946
1.50133	1450
1.50500	1060
1.50867	767
1.51233	552
1.51600	397
1.51967	285
1.52333	200
1.52700	132
1.53067	80
1.53433	45
1.53800	24
1.54167	28
1.54533	101
1.54900	305
1.55267	655
1.55633	1090
1.56000	1516
1.56367	1870
1.56733	2120
1.57100	2233
1.57467	2182
1.57833	1963
1.58200	1624
1.58567	1245
1.58933	892
1.59300	600
1.59667	378
1.60033	218
1.60400	105
1.60767	27
1.61133	-26
1.61500	-60
1.61867	-82
1.62233	-96
1.62600	-104
1.62967	-108
1.63333	-110
1.63700	-113
1.64067	-114
1.64433	-114
1.64800	-113
1.65167	-113
1.65533	-117
1.65900	-121
1.66267	-125
1.66633	-125
1.67000	-122
1.67367	-117
1.67733	-112
1.68100	-109
1.68467	-111
1.68833	-113
1.69200	-114
1.69567	-117
1.69933	-121
1.70300	-126
1.70667	-132
1.71033	-137
1.71400	-140
1.71767	-143
1.72133	-144
1.72500	-144
1.72867	-142
1.73233	-139
1.73600	-134
1.73967	-128
1.74333	-128
1.74700	-132
1.75067	-137
1.75433	-139
1.75800	-138
1.76167	-131
1.76533	-124
1.76900	-121
1.77267	-123
1.77633	-127
1.78000	-133
1.78367	-138
1.78733	-137
1.79100	-130
1.79467	-122
1.79833	-116
1.80200	-117
1.80567	-122
1.80933	-127
1.81300	-131
1.81667	-131
1.82033	-132
1.82400	-133
1.82767	-134
1.83133	-132
1.83500	-130
1.83867	-128
1.84233	-129
1.84600	-130
1.84967	-130
1.85333	-130
1.85700	-130
1.86067	-131
1.86433	-130
1.86800	-131
1.87167	-136
1.87533	-139
1.87900	-139
1.88267	-135
1.88633	-126
1.89000	-120
1.89367	-117
1.89733	-118
1.90100	-119
1.90467	-118
1.90833	-117
1.91200	-116
1.91567	-114
1.91933	-113
1.92300	-114
1.92667	-117
1.93033	-123
1.93400	-128
1.93767	-130
1.94133	-129
1.94500	-125
1.94867	-122
1.95233	-119
1.95600	-105
1.95967	-17
1.96333	467
1.96700	2632
1.97067	10052
1.97433	29556
1.97800	69587
1.98167	134607
1.98533	219767
1.98900	311673
1.99267	394537
1.99633	454924
2.00000	483692
2.00367	477251
2.00733	438563
2.01100	376845
2.01467	304743
2.01833	234133
2.02200	172864
2.02567	124119
2.02933	87665
2.03300	61540
2.03667	43338
2.04033	30874
2.04400	22404
2.04767	16650
2.05133	12716
2.05500	9992
2.05867	8077
2.06233	6703
2.06600	5696
2.06967	4941
2.07333	4359
2.07700	3902
2.08067	3530
2.08433	3221
2.08800	2960
2.09167	2739
2.09533	2546
2.09900	2376
2.10267	2228
2.10633	2096
2.11000	1977
2.11367	1871
2.11733	1779
2.12100	1694
2.12467	1611
2.12833	1532
2.13200	1462
2.13567	1402
2.13933	1346
2.14300	1290
2.14667	1239
2.15033	1191
2.15400	1145
2.15767	1098
2.16133	1053
2.16500	1014
2.16867	982
2.17233	956
2.17600	932
2.17967	911
2.18333	891
2.18700	868
2.19067	843
2.19433	819
2.19800	794
2.20167	770
2.20533	746
2.20900	722
2.21267	706
2.21633	693
2.22000	680
2.22367	665
2.22733	650
2.23100	638
2.23467	624
2.23833	612
2.24200	601
2.24567	592
2.24933	582
2.25300	572
2.25667	559
2.26033	546
2.26400	535
2.26767	524
2.27133	511
2.27500	492
2.27867	472
2.28233	457
2.28600	447
2.28967	439
2.29333	435
2.29700	433
2.30067	432
2.30433	430
2.30800	425
2.31167	419
2.31533	414
2.31900	408
2.32267	403
2.32633	398
2.33000	395
2.33367	397
2.33733	396
2.34100	388
2.34467	374
2.34833	363
2.35200	355
2.35567	345
2.35933	336
2.36300	333
2.36667	329
2.37033	326
2.37400	327
2.37767	331
2.38133	330
2.38500	328
2.38867	321
2.39233	316
2.39600	309
2.39967	301
2.40333	296
2.40700	294
2.41067	293
2.41433	298
2.41800	308
2.42167	314
2.42533	312
2.42900	304
2.43267	296
2.43633	294
2.44000	294
2.44367	293
2.44733	291
2.45100	289
2.45467	286
2.45833	283
2.46200	282
2.46567	278
2.46933	275
2.47300	272
2.47667	268
2.48033	263
2.48400	260
2.48767	258
2.49133	259
2.49500	262
2.49867	261
2.50233	257
2.50600	253
2.50967	255
2.51333	262
2.51700	268
2.52067	270
2.52433	272
2.52800	273
2.53167	275
2.53533	275
2.53900	269
2.54267	260
2.54633	248
2.55000	239
2.55367	236
2.55733	236
2.56100	236
2.56467	234
2.56833	232
2.57200	229
2.57567	225
2.57933	225
2.58300	225
2.58667	224
2.59033	225
2.59400	228
2.59767	234
2.60133	237
2.60500	238
2.60867	242
2.61233	244
2.61600	245
2.61967	245
2.62333	241
2.62700	236
2.63067	230
2.63433	226
2.63800	222
2.64167	218
2.64533	214
2.64900	210
2.65267	207
2.65633	208
2.66000	212
2.66367	216
2.66733	220
2.67100	221
2.67467	219
2.67833	219
2.68200	218
2.68567	217
2.68933	216
2.69300	216
2.69667	221
2.70033	224
2.70400	224
2.70767	221
2.71133	216
2.71500	212
2.71867	208
2.72233	207
2.72600	210
2.72967	217
2.73333	220
2.73700	215
2.74067	207
2.74433	199
2.74800	198
2.75167	202
2.75533	204
2.75900	204
2.76267	200
2.76633	194
2.77000	190
2.77367	188
2.77733	193
2.78100	201
2.78467	206
2.78833	209
2.79200	211
2.79567	213
2.79933	212
2.80300	210
2.80667	205
2.81033	200
2.81400	198
2.81767	199
2.82133	199
2.82500	197
2.82867	194
2.83233	193
2.83600	198
2.83967	203
2.84333	206
2.84700	206
2.85067	205
2.85433	201
2.85800	194
2.86167	187
2.86533	179
2.86900	174
2.87267	172
2.87633	172
2.88000	174
2.88367	175
2.88733	175
2.89100	173
2.89467	170
2.89833	171
2.90200	177
2.90567	187
2.90933	197
2.91300	204
2.91667	206
2.92033	204
2.92400	197
2.92767	187
2.93133	176
2.93500	166
2.93867	163
2.94233	164
2.94600	168
2.94967	169
2.95333	168
2.95700	164
2.96067	159
2.96433	156
2.96800	158
2.97167	164
2.97533	173
2.97900	178
2.98267	179
2.98633	180
2.99000	180
2.99367	175
2.99733	164
3.00100	160
3.00467	160
3.00833	160
3.01200	162
3.01567	167
3.01933	174
3.02300	178
3.02667	175
3.03033	170
3.03400	166
3.03767	165
3.04133	166
3.04500	170
3.04867	172
3.05233	168
3.05600	162
3.05967	157
3.06333	152
3.06700	148
3.07067	147
3.07433	148
3.07800	150
3.08167	150
3.08533	150
3.08900	150
3.09267	147
3.09633	142
3.10000	141
3.10367	142
3.10733	144
3.11100	146
3.11467	151
3.11833	158
3.12200	163
3.12567	167
3.12933	171
3.13300	171
3.13667	169
3.14033	166
3.14400	160
3.14767	154
3.15133	150
3.15500	146
3.15867	143
3.16233	143
3.16600	142
3.16967	144
3.17333	144
3.17700	143
3.18067	141
3.18433	138
3.18800	138
3.19167	138
3.19533	135
3.19900	130
3.20267	125
3.20633	120
3.21000	114
3.21367	112
3.21733	118
3.22100	131
3.22467	144
3.22833	150
3.23200	150
3.23567	145
3.23933	134
3.24300	121
3.24667	110
3.25033	104
3.25400	102
3.25767	104
3.26133	106
3.26500	104
3.26867	101
3.27233	97
3.27600	94
3.27967	93
3.28333	95
3.28700	98
3.29067	104
3.29433	109
3.29800	111
3.30167	110
3.30533	108
3.30900	106
3.31267	107
3.31633	114
3.32000	121
3.32367	124
3.32733	125
3.33100	124
3.33467	124
3.33833	122
3.34200	117
3.34567	111
3.34933	107
3.35300	110
3.35667	118
3.36033	125
3.36400	127
3.36767	126
3.37133	126
3.37500	126
3.37867	126
3.38233	122
3.38600	113
3.38967	103
3.39333	97
3.39700	93
3.40067	93
3.40433	97
3.40800	104
3.41167	109
3.41533	112
3.41900	114
3.42267	113
3.42633	115
3.43000	117
3.43367	120
3.43733	123
3.44100	123
3.44467	122
3.44833	120
3.45200	117
3.45567	111
3.45933	107
3.46300	106
3.46667	105
3.47033	106
3.47400	104
3.47767	98
3.48133	92
3.48500	89
3.48867	90
3.49233	93
3.49600	95
3.49967	95
3.50333	93
3.50700	91
3.51067	91
3.51433	92
3.51800	91
3.52167	88
3.52533	87
3.52900	87
3.53267	90
3.53633	97
3.54000	104
3.54367	107
3.54733	102
3.55100	96
3.55467	93
3.55833	96
3.56200	99
3.56567	96
3.56933	89
3.57300	84
3.57667	83
3.58033	83
3.58400	79
3.58767	73
3.59133	71
3.59500	74
3.59867	77
3.60233	78
3.60600	77
3.60967	77
3.61333	78
3.61700	81
3.62067	84
3.62433	88
3.62800	89
3.63167	88
3.63533	86
3.63900	83
3.64267	82
3.64633	84
3.65000	86
3.65367	84
3.65733	82
3.66100	81
3.66467	83
3.66833	84
3.67200	83
3.67567	84
3.67933	86
3.68300	89
3.68667	90
3.69033	88
3.69400	82
3.69767	76
3.70133	74
3.70500	75
3.70867	77
3.71233	77
3.71600	76
3.71967	75
3.72333	74
3.72700	72
3.73067	71
3.73433	71
3.73800	70
3.74167	65
3.74533	59
3.74900	55
3.75267	55
3.75633	58
3.76000	64
3.76367	66
3.76733	65
3.77100	62
3.77467	60
3.77833	59
3.78200	59
3.78567	64
3.78933	69
3.79300	72
3.79667	75
3.80033	75
3.80400	71
3.80767	66
3.81133	59
3.81500	56
3.81867	58
3.82233	60
3.82600	58
3.82967	54
3.83333	49
3.83700	42
3.84067	35
3.84433	28
3.84800	23
3.85167	24
3.85533	29
3.85900	37
3.86267	48
3.86633	54
3.87000	57
3.87367	55
3.87733	51
3.88100	49
3.88467	45
3.88833	42
3.89200	40
3.89567	39
3.89933	38
3.90300	38
3.90667	39
3.91033	39
3.91400	38
3.91767	38
3.92133	39
3.92500	39
3.92867	42
3.93233	48
3.93600	52
3.93967	53
3.94333	49
3.94700	48
3.95067	46
3.95433	47
3.95800	49
3.96167	48
3.96533	47
3.96900	48
3.97267	48
3.97633	46
3.98000	41
3.98367	37
3.98733	36
3.99100	35
3.99467	34
3.99833	34

[Chromatogram (Ch2)]
Interval(msec)	220
# of Points	1091
Start Time(min)	0.002
End Time(min)	3.998
R.Time (min)	Intensity
0.00167	-0
0.00533	-0
0.00900	-0
0.01267	-0
0.01633	0
0.02000	0
0.02367	0
0.02733	0
0.03100	0
0.03467	1
0.03833	0
0.04200	0
0.04567	0
0.04933	0
0.05300	0
0.05667	1
0.06033	1
0.06400	1
0.06767	1
0.07133	0
0.07500	0
0.07867	0
0.08233	0
0.08600	0
0.08967	1
0.09333	1
0.09700	1
0.10067	1
0.10433	1
0.10800	1
0.11167	1
0.11533	1
0.11900	1
0.12267	2
0.12633	2
0.13000	2
0.13367	2
0.13733	2
0.14100	2
0.14467	2
0.14833	2
0.15200	2
0.15567	1
0.15933	1
0.16300	2
0.16667	2
0.17033	2
0.17400	2
0.17767	2
0.18133	2
0.18500	2
0.18867	2
0.19233	2
0.19600	2
0.19967	2
0.20333	1
0.20700	1
0.21067	1
0.21433	1
0.21800	1
0.22167	1
0.22533	1
0.22900	1
0.23267	1
0.23633	1
0.24000	1
0.24367	1
0.24733	1
0.25100	1
0.25467	1
0.25833	1
0.26200	0
0.26567	0
0.26933	0
0.27300	-0
0.27667	-0
0.28033	-0
0.28400	-0
0.28767	-1
0.29133	-1
0.29500	-1
0.29867	-1
0.30233	-1
0.30600	-0
0.30967	-0
0.31333	-1
0.31700	-1
0.32067	-1
0.32433	-1
0.32800	-1
0.33167	-1
0.33533	-1
0.33900	-1
0.34267	-1
0.34633	-1
0.35000	-1
0.35367	-1
0.35733	-1
0.36100	-1
0.36467	-0
0.36833	-0
0.37200	-0
0.37567	-0
0.37933	-1
0.38300	-1
0.38667	-1
0.39033	-1
0.39400	-1
0.39767	-1
0.40133	-1
0.40500	-1
0.40867	-1
0.41233	-0
0.41600	-0
0.41967	-0
0.42333	0
0.42700	0
0.43067	1
0.43433	1
0.43800	1
0.44167	1
0.44533	1
0.44900	1
0.45267	1
0.45633	1
0.46000	1
0.46367	1
0.46733	1
0.47100	1
0.47467	1
0.47833	1
0.48200	1
0.48567	1
0.48933	1
0.49300	0
0.49667	0
0.50033	1
0.50400	1
0.50767	1
0.51133	1
0.51500	1
0.51867	1
0.52233	1
0.52600	0
0.52967	0
0.53333	-0
0.53700	-0
0.54067	-0
0.54433	-0
0.54800	-0
0.55167	-0
0.55533	-0
0.55900	-0
0.56267	0
0.56633	0
0.57000	0
0.57367	1
0.57733	1
0.58100	1
0.58467	1
0.58833	1
0.59200	1
0.59567	0
0.59933	0
0.60300	0
0.60667	0
0.61033	0
0.61400	-0
0.61767	-0
0.62133	-0
0.62500	-0
0.62867	-0
0.63233	-0
0.63600	-1
0.63967	-0
0.64333	-0
0.64700	-0
0.65067	-0
0.65433	-0
0.65800	-0
0.66167	-0
0.66533	-0
0.66900	-0
0.67267	-0
0.67633	0
0.68000	0
0.68367	0
0.68733	1
0.69100	1
0.69467	1
0.69833	0
0.70200	0
0.70567	0
0.70933	-0
0.71300	-0
0.71667	-0
0.72033	-1
0.72400	-1
0.72767	-1
0.73133	-1
0.73500	-1
0.73867	-1
0.74233	-1
0.74600	-1
0.74967	-1
0.75333	-1
0.75700	-1
0.76067	-1
0.76433	-1
0.76800	-1
0.77167	-1
0.77533	-1
0.77900	-1
0.78267	-1
0.78633	-1
0.79000	-1
0.79367	-1
0.79733	-1
0.80100	-1
0.80467	-1
0.80833	-1
0.81200	-1
0.81567	-1
0.81933	-1
0.82300	-1
0.82667	-1
0.83033	-1
0.83400	-1
0.83767	-2
0.84133	-2
0.84500	-2
0.84867	-2
0.85233	-2
0.85600	-2
0.85967	-1
0.86333	-1
0.86700	-1
0.87067	-1
0.87433	-1
0.87800	-1
0.88167	-1
0.88533	-1
0.88900	-1
0.89267	-1
0.89633	-1
0.90000	-1
0.90367	-1
0.90733	-1
0.91100	-1
0.91467	-1
0.91833	-1
0.92200	-1
0.92567	-1
0.92933	-1
0.93300	-1
0.93667	-1
0.94033	-1
0.94400	-1
0.94767	-1
0.95133	-1
0.95500	-1
0.95867	-1
0.96233	-1
0.96600	-2
0.96967	-2
0.97333	-2
0.97700	-2
0.98067	-2
0.98433	-1
0.98800	-1
0.99167	-1
0.99533	-1
0.99900	-1
1.00267	-1
1.00633	-1
1.01000	-1
1.01367	-1
1.01733	-1
1.02100	-1
1.02467	-1
1.02833	-1
1.03200	-1
1.03567	-1
1.03933	-1
1.04300	-1
1.04667	-1
1.05033	-1
1.05400	-1
1.05767	-1
1.06133	-1
1.06500	-1
1.06867	-0
1.07233	-0
1.07600	-0
1.07967	-0
1.08333	-1
1.08700	-0
1.09067	-0
1.09433	-1
1.09800	-1
1.10167	-1
1.10533	-1
1.10900	-1
1.11267	-1
1.11633	-1
1.12000	-1
1.12367	-1
1.12733	-1
1.13100	-1
1.13467	-1
1.13833	-1
1.14200	-1
1.14567	-1
1.14933	-1
1.15300	-2
1.15667	-2
1.16033	-2
1.16400	-2
1.16767	-2
1.17133	-2
1.17500	-2
1.17867	-2
1.18233	-3
1.18600	-3
1.18967	-3
1.19333	-3
1.19700	-3
1.20067	-2
1.20433	-2
1.20800	-2
1.21167	-2
1.21533	-2
1.21900	-2
1.22267	-2
1.22633	-1
1.23000	-1
1.23367	-1
1.23733	-1
1.24100	-1
1.24467	-1
1.24833	-1
1.25200	-1
1.25567	-1
1.25933	-0
1.26300	-0
1.26667	0
1.27033	0
1.27400	0
1.27767	0
1.28133	0
1.28500	0
1.28867	-0
1.29233	-1
1.29600	-1
1.29967	-1
1.30333	-1
1.30700	-1
1.31067	-1
1.31433	-1
1.31800	-1
1.32167	-2
1.32533	-2
1.32900	-2
1.33267	-2
1.33633	-2
1.34000	-2
1.34367	-2
1.34733	-2
1.35100	-2
1.35467	-1
1.35833	-1
1.36200	-1
1.36567	-1
1.36933	-1
1.37300	-1
1.37667	-1
1.38033	-2
1.38400	-2
1.38767	-2
1.39133	-2
1.39500	-2
1.39867	-2
1.40233	-2
1.40600	-2
1.40967	-1
1.41333	-1
1.41700	-1
1.42067	-2
1.42433	-2
1.42800	-2
1.43167	-2
1.43533	-1
1.43900	-1
1.44267	-1
1.44633	-1
1.45000	-1
1.45367	-1
1.45733	-1
1.46100	-1
1.46467	-1
1.46833	-1
1.47200	-1
1.47567	-1
1.47933	-1
1.48300	-1
1.48667	-1
1.49033	-0
1.49400	-1
1.49767	-1
1.50133	-1
1.50500	-1
1.50867	-1
1.51233	-1
1.51600	-1
1.51967	-1
1.52333	-1
1.52700	-1
1.53067	-1
1.53433	-1
1.53800	-1
1.54167	-1
1.54533	-1
1.54900	-1
1.55267	-1
1.55633	-1
1.56000	-1
1.56367	-1
1.56733	-1
1.57100	-1
1.57467	-1
1.57833	-1
1.58200	-2
1.58567	-2
1.58933	-3
1.59300	-3
1.59667	-4
1.60033	-6
1.60400	-7
1.60767	-9
1.61133	-10
1.61500	-12
1.61867	-14
1.62233	-17
1.62600	-20
1.62967	-23
1.63333	-27
1.63700	-30
1.64067	-34
1.64433	-37
1.64800	-40
1.65167	-43
1.65533	-47
1.65900	-50
1.66267	-53
1.66633	-57
1.67000	-60
1.67367	-64
1.67733	-68
1.68100	-72
1.68467	-77
1.68833	-82
1.69200	-86
1.69567	-90
1.69933	-94
1.70300	-97
1.70667	-100
1.71033	-102
1.71400	-104
1.71767	-105
1.72133	-106
1.72500	-107
1.72867	-107
1.73233	-108
1.73600	-108
1.73967	-108
1.74333	-109
1.74700	-109
1.75067	-109
1.75433	-109
1.75800	-109
1.76167	-109
1.76533	-110
1.76900	-110
1.77267	-111
1.77633	-112
1.78000	-112
1.78367	-113
1.78733	-114
1.79100	-115
1.79467	-116
1.79833	-116
1.80200	-117
1.80567	-117
1.80933	-117
1.81300	-117
1.81667	-117
1.82033	-118
1.82400	-118
1.82767	-118
1.83133	-118
1.83500	-119
1.83867	-119
1.84233	-119
1.84600	-118
1.84967	-118
1.85333	-118
1.85700	-118
1.86067	-118
1.86433	-118
1.86800	-117
1.87167	-117
1.87533	-117
1.87900	-116
1.88267	-116
1.88633	-116
1.89000	-115
1.89367	-115
1.89733	-115
1.90100	-115
1.90467	-116
1.90833	-116
1.91200	-117
1.91567	-117
1.91933	-117
1.92300	-116
1.92667	-116
1.93033	-115
1.93400	-115
1.93767	-114
1.94133	-114
1.94500	-114
1.94867	-113
1.95233	-113
1.95600	-114
1.95967	-114
1.96333	-114
1.96700	-115
1.97067	-114
1.97433	-114
1.97800	-113
1.98167	-112
1.98533	-111
1.98900	-110
1.99267	-110
1.99633	-109
2.00000	-109
2.00367	-109
2.00733	-109
2.01100	-108
2.01467	-108
2.01833	-108
2.02200	-108
2.02567	-108
2.02933	-108
2.03300	-108
2.03667	-108
2.04033	-108
2.04400	-108
2.04767	-108
2.05133	-108
2.05500	-108
2.05867	-108
2.06233	-108
2.06600	-108
2.06967	-107
2.07333	-107
2.07700	-107
2.08067	-106
2.08433	-106
2.08800	-106
2.09167	-105
2.09533	-105
2.09900	-104
2.10267	-103
2.10633	-103
2.11000	-102
2.11367	-102
2.11733	-102
2.12100	-101
2.12467	-101
2.12833	-101
2.13200	-101
2.13567	-100
2.13933	-100
2.14300	-99
2.14667	-99
2.15033	-99
2.15400	-99
2.15767	-99
2.16133	-99
2.16500	-99
2.16867	-99
2.17233	-99
2.17600	-99
2.17967	-99
2.18333	-99
2.18700	-99
2.19067	-99
2.19433	-99
2.19800	-99
2.20167	-98
2.20533	-98
2.20900	-97
2.21267	-96
2.21633	-95
2.22000	-95
2.22367	-94
2.22733	-94
2.23100	-94
2.23467	-93
2.23833	-93
2.24200	-92
2.24567	-91
2.24933	-90
2.25300	-89
2.25667	-88
2.26033	-88
2.26400	-88
2.26767	-88
2.27133	-88
2.27500	-87
2.27867	-87
2.28233	-87
2.28600	-86
2.28967	-86
2.29333	-86
2.29700	-85
2.30067	-85
2.30433	-84
2.30800	-83
2.31167	-83
2.31533	-82
2.31900	-81
2.32267	-81
2.32633	-80
2.33000	-80
2.33367	-80
2.33733	-80
2.34100	-81
2.34467	-81
2.34833	-81
2.35200	-80
2.35567	-80
2.35933	-78
2.36300	-77
2.36667	-75
2.37033	-73
2.37400	-71
2.37767	-68
2.38133	-65
2.38500	-62
2.38867	-58
2.39233	-54
2.39600	-50
2.39967	-46
2.40333	-43
2.40700	-39
2.41067	-35
2.41433	-32
2.41800	-29
2.42167	-26
2.42533	-24
2.42900	-21
2.43267	-19
2.43633	-16
2.44000	-14
2.44367	-12
2.44733	-10
2.45100	-8
2.45467	-6
2.45833	-5
2.46200	-4
2.46567	-2
2.46933	-1
2.47300	-0
2.47667	1
2.48033	2
2.48400	3
2.48767	3
2.49133	4
2.49500	5
2.49867	6
2.50233	7
2.50600	8
2.50967	9
2.51333	10
2.51700	10
2.52067	11
2.52433	11
2.52800	12
2.53167	12
2.53533	13
2.53900	14
2.54267	14
2.54633	15
2.55000	15
2.55367	15
2.55733	15
2.56100	15
2.56467	15
2.56833	15
2.57200	16
2.57567	16
2.57933	17
2.58300	17
2.58667	17
2.59033	16
2.59400	16
2.59767	15
2.60133	15
2.60500	15
2.60867	15
2.61233	15
2.61600	16
2.61967	16
2.62333	17
2.62700	17
2.63067	18
2.63433	18
2.63800	18
2.64167	19
2.64533	19
2.64900	20
2.65267	20
2.65633	21
2.66000	22
2.66367	22
2.66733	23
2.67100	23
2.67467	24
2.67833	24
2.68200	25
2.68567	25
2.68933	25
2.69300	25
2.69667	25
2.70033	25
2.70400	25
2.70767	25
2.71133	25
2.71500	25
2.71867	25
2.72233	25
2.72600	25
2.72967	25
2.73333	25
2.73700	25
2.74067	25
2.74433	24
2.74800	24
2.75167	24
2.75533	25
2.75900	25
2.76267	26
2.76633	26
2.77000	27
2.77367	27
2.77733	28
2.78100	29
2.78467	29
2.78833	29
2.79200	29
2.79567	28
2.79933	28
2.80300	28
2.80667	28
2.81033	27
2.81400	27
2.81767	27
2.82133	27
2.82500	27
2.82867	27
2.83233	27
2.83600	28
2.83967	28
2.84333	29
2.84700	29
2.85067	29
2.85433	29
2.85800	28
2.86167	27
2.86533	24
2.86900	20
2.87267	14
2.87633	5
2.88000	-8
2.88367	-24
2.88733	-43
2.89100	-67
2.89467	-94
2.89833	-126
2.90200	-161
2.90567	-199
2.90933	-241
2.91300	-285
2.91667	-331
2.92033	-379
2.92400	-428
2.92767	-479
2.93133	-529
2.93500	-580
2.93867	-631
2.94233	-682
2.94600	-731
2.94967	-781
2.95333	-830
2.95700	-883
2.96067	-942
2.96433	-1004
2.96800	-1058
2.97167	-1093
2.97533	-1104
2.97900	-1087
2.98267	-1048
2.98633	-990
2.99000	-919
2.99367	-841
2.99733	-760
3.00100	-680
3.00467	-603
3.00833	-531
3.01200	-464
3.01567	-403
3.01933	-349
3.02300	-300
3.02667	-258
3.03033	-220
3.03400	-187
3.03767	-159
3.04133	-134
3.04500	-113
3.04867	-94
3.05233	-78
3.05600	-65
3.05967	-53
3.06333	-43
3.06700	-34
3.07067	-27
3.07433	-20
3.07800	-15
3.08167	-10
3.08533	-6
3.08900	-3
3.09267	-0
3.09633	2
3.10000	4
3.10367	6
3.10733	8
3.11100	9
3.11467	10
3.11833	12
3.12200	13
3.12567	14
3.12933	14
3.13300	15
3.13667	16
3.14033	16
3.14400	17
3.14767	17
3.15133	18
3.15500	18
3.15867	18
3.16233	19
3.16600	19
3.16967	19
3.17333	19
3.17700	19
3.18067	20
3.18433	20
3.18800	20
3.19167	21
3.19533	21
3.19900	21
3.20267	21
3.20633	21
3.21000	21
3.21367	21
3.21733	21
3.22100	21
3.22467	22
3.22833	22
3.23200	22
3.23567	22
3.23933	22
3.24300	23
3.24667	23
3.25033	23
3.25400	24
3.25767	24
3.26133	24
3.26500	24
3.26867	24
3.27233	24
3.27600	24
3.27967	24
3.28333	24
3.28700	24
3.29067	24
3.29433	24
3.29800	24
3.30167	24
3.30533	24
3.30900	24
3.31267	24
3.31633	24
3.32000	25
3.32367	25
3.32733	25
3.33100	25
3.33467	25
3.33833	25
3.34200	26
3.34567	26
3.34933	26
3.35300	25
3.35667	25
3.36033	25
3.36400	25
3.36767	25
3.37133	26
3.37500	26
3.37867	26
3.38233	26
3.38600	26
3.38967	26
3.39333	26
3.39700	26
3.40067	26
3.40433	26
3.40800	26
3.41167	26
3.41533	26
3.41900	26
3.42267	27
3.42633	27
3.43000	27
3.43367	27
3.43733	27
3.44100	27
3.44467	27
3.44833	27
3.45200	26
3.45567	26
3.45933	26
3.46300	26
3.46667	26
3.47033	26
3.47400	26
3.47767	26
3.48133	27
3.48500	27
3.48867	27
3.49233	27
3.49600	28
3.49967	28
3.50333	28
3.50700	28
3.51067	28
3.51433	28
3.51800	28
3.52167	28
3.52533	28
3.52900	28
3.53267	28
3.53633	28
3.54000	28
3.54367	29
3.54733	29
3.55100	29
3.55467	29
3.55833	29
3.56200	29
3.56567	29
3.56933	30
3.57300	30
3.57667	30
3.58033	30
3.58400	30
3.58767	30
3.59133	30
3.59500	29
3.59867	29
3.60233	29
3.60600	29
3.60967	29
3.61333	29
3.61700	29
3.62067	29
3.62433	29
3.62800	29
3.63167	29
3.63533	29
3.63900	29
3.64267	29
3.64633	29
3.65000	29
3.65367	29
3.65733	29
3.66100	29
3.66467	29
3.66833	28
3.67200	28
3.67567	28
3.67933	28
3.68300	28
3.68667	28
3.69033	28
3.69400	28
3.69767	28
3.70133	27
3.70500	27
3.70867	27
3.71233	27
3.71600	28
3.71967	28
3.72333	28
3.72700	28
3.73067	28
3.73433	28
3.73800	28
3.74167	28
3.74533	28
3.74900	28
3.75267	28
3.75633	28
3.76000	28
3.76367	28
3.76733	28
3.77100	28
3.77467	28
3.77833	28
3.78200	27
3.78567	27
3.78933	27
3.79300	28
3.79667	28
3.80033	28
3.80400	28
3.80767	28
3.81133	28
3.81500	28
3.81867	28
3.82233	28
3.82600	28
3.82967	28
3.83333	28
3.83700	28
3.84067	28
3.84433	28
3.84800	28
3.85167	28
3.85533	28
3.85900	28
3.86267	28
3.86633	28
3.87000	28
3.87367	29
3.87733	29
3.88100	29
3.88467	28
3.88833	28
3.89200	28
3.89567	28
3.89933	28
3.90300	28
3.90667	28
3.91033	28
3.91400	28
3.91767	28
3.92133	28
3.92500	28
3.92867	28
3.93233	28
3.93600	28
3.93967	28
3.94333	28
3.94700	28
3.95067	28
3.95433	28
3.95800	28
3.96167	28
3.96533	28
3.96900	28
3.97267	28
3.97633	28
3.98000	28
3.98367	28
3.98733	28
3.99100	28
3.99467	28
3.99833	28

[Chromatogram (Ch3)]
Interval(msec)	220
# of Points	1091
Start Time(min)	0.002
End Time(min)	3.998
R.Time (min)	Intensity
0.00167	0
0.00533	2
0.00900	4
0.01267	7
0.01633	12
0.02000	14
0.02367	11
0.02733	8
0.03100	8
0.03467	9
0.03833	7
0.04200	6
0.04567	6
0.04933	6
0.05300	7
0.05667	7
0.06033	8
0.06400	11
0.06767	11
0.07133	9
0.07500	8
0.07867	9
0.08233	9
0.08600	7
0.08967	7
0.09333	8
0.09700	10
0.10067	10
0.10433	10
0.10800	12
0.11167	11
0.11533	10
0.11900	8
0.12267	6
0.12633	5
0.13000	4
0.13367	3
0.13733	4
0.14100	5
0.14467	5
0.14833	6
0.15200	7
0.15567	6
0.15933	4
0.16300	2
0.16667	2
0.17033	3
0.17400	5
0.17767	6
0.18133	6
0.18500	7
0.18867	7
0.19233	5
0.19600	5
0.19967	5
0.20333	4
0.20700	3
0.21067	3
0.21433	4
0.21800	6
0.22167	8
0.22533	8
0.22900	7
0.23267	6
0.23633	6
0.24000	8
0.24367	9
0.24733	8
0.25100	7
0.25467	7
0.25833	6
0.26200	7
0.26567	7
0.26933	4
0.27300	3
0.27667	3
0.28033	3
0.28400	4
0.28767	6
0.29133	7
0.29500	6
0.29867	6
0.30233	5
0.30600	5
0.30967	6
0.31333	5
0.31700	4
0.32067	4
0.32433	4
0.32800	3
0.33167	2
0.33533	1
0.33900	-2
0.34267	-4
0.34633	-5
0.35000	-3
0.35367	-1
0.35733	-1
0.36100	1
0.36467	4
0.36833	7
0.37200	9
0.37567	9
0.37933	6
0.38300	6
0.38667	6
0.39033	5
0.39400	3
0.39767	3
0.40133	3
0.40500	1
0.40867	1
0.41233	0
0.41600	1
0.41967	5
0.42333	8
0.42700	10
0.43067	10
0.43433	9
0.43800	9
0.44167	8
0.44533	8
0.44900	8
0.45267	8
0.45633	10
0.46000	12
0.46367	11
0.46733	7
0.47100	6
0.47467	6
0.47833	9
0.48200	9
0.48567	9
0.48933	8
0.49300	7
0.49667	5
0.50033	3
0.50400	2
0.50767	3
0.51133	3
0.51500	3
0.51867	5
0.52233	6
0.52600	6
0.52967	7
0.53333	9
0.53700	8
0.54067	9
0.54433	10
0.54800	11
0.55167	10
0.55533	10
0.55900	9
0.56267	11
0.56633	13
0.57000	13
0.57367	13
0.57733	12
0.58100	10
0.58467	8
0.58833	7
0.59200	4
0.59567	3
0.59933	3
0.60300	3
0.60667	4
0.61033	6
0.61400	8
0.61767	8
0.62133	7
0.62500	4
0.62867	3
0.63233	4
0.63600	4
0.63967	4
0.64333	4
0.64700	3
0.65067	3
0.65433	5
0.65800	5
0.66167	4
0.66533	5
0.66900	6
0.67267	7
0.67633	7
0.68000	6
0.68367	4
0.68733	3
0.69100	2
0.69467	1
0.69833	0
0.70200	0
0.70567	1
0.70933	4
0.71300	5
0.71667	4
0.72033	4
0.72400	4
0.72767	4
0.73133	3
0.73500	2
0.73867	1
0.74233	1
0.74600	2
0.74967	6
0.75333	7
0.75700	6
0.76067	6
0.76433	6
0.76800	5
0.77167	5
0.77533	5
0.77900	5
0.78267	7
0.78633	11
0.79000	13
0.79367	13
0.79733	11
0.80100	9
0.80467	6
0.80833	4
0.81200	3
0.81567	4
0.81933	6
0.82300	4
0.82667	4
0.83033	5
0.83400	5
0.83767	5
0.84133	5
0.84500	6
0.84867	6
0.85233	6
0.85600	5
0.85967	3
0.86333	2
0.86700	1
0.87067	2
0.87433	4
0.87800	5
0.88167	6
0.88533	6
0.88900	6
0.89267	6
0.89633	3
0.90000	1
0.90367	1
0.90733	1
0.91100	2
0.91467	4
0.91833	5
0.92200	5
0.92567	4
0.92933	2
0.93300	0
0.93667	1
0.94033	-1
0.94400	-4
0.94767	-5
0.95133	-3
0.95500	-2
0.95867	-0
0.96233	1
0.96600	2
0.96967	3
0.97333	5
0.97700	5
0.98067	3
0.98433	3
0.98800	2
0.99167	1
0.99533	-0
0.99900	2
1.00267	6
1.00633	6
1.01000	8
1.01367	7
1.01733	4
1.02100	3
1.02467	5
1.02833	5
1.03200	4
1.03567	2
1.03933	0
1.04300	-1
1.04667	-3
1.05033	-4
1.05400	-1
1.05767	1
1.06133	3
1.06500	5
1.06867	5
1.07233	4
1.07600	3
1.07967	3
1.08333	4
1.08700	4
1.09067	3
1.09433	3
1.09800	3
1.10167	3
1.10533	3
1.10900	4
1.11267	6
1.11633	8
1.12000	10
1.12367	9
1.12733	8
1.13100	6
1.13467	3
1.13833	2
1.14200	3
1.14567	4
1.14933	2
1.15300	0
1.15667	1
1.16033	4
1.16400	8
1.16767	8
1.17133	7
1.17500	6
1.17867	3
1.18233	2
1.18600	1
1.18967	3
1.19333	7
1.19700	10
1.20067	7
1.20433	4
1.20800	4
1.21167	4
1.21533	6
1.21900	7
1.22267	6
1.22633	4
1.23000	2
1.23367	0
1.23733	1
1.24100	3
1.24467	1
1.24833	-0
1.25200	-1
1.25567	-0
1.25933	1
1.26300	1
1.26667	2
1.27033	1
1.27400	-0
1.27767	-0
1.28133	0
1.28500	1
1.28867	2
1.29233	5
1.29600	4
1.29967	1
1.30333	0
1.30700	1
1.31067	0
1.31433	1
1.31800	1
1.32167	3
1.32533	2
1.32900	0
1.33267	-2
1.33633	-2
1.34000	-0
1.34367	2
1.34733	4
1.35100	2
1.35467	-1
1.35833	-3
1.36200	-2
1.36567	-2
1.36933	-4
1.37300	-4
1.37667	-3
1.38033	-1
1.38400	-0
1.38767	-1
1.39133	-3
1.39500	-3
1.39867	-1
1.40233	1
1.40600	-0
1.40967	-2
1.41333	-2
1.41700	0
1.42067	-0
1.42433	-2
1.42800	-5
1.43167	-5
1.43533	-6
1.43900	-6
1.44267	-5
1.44633	-4
1.45000	-1
1.45367	0
1.45733	2
1.46100	2
1.46467	2
1.46833	2
1.47200	4
1.47567	5
1.47933	3
1.48300	-0
1.48667	-1
1.49033	-3
1.49400	-1
1.49767	-1
1.50133	-1
1.50500	-0
1.50867	-0
1.51233	-1
1.51600	-4
1.51967	-4
1.52333	-2
1.52700	1
1.53067	1
1.53433	0
1.53800	0
1.54167	-0
1.54533	-2
1.54900	-3
1.55267	-1
1.55633	1
1.56000	3
1.56367	4
1.56733	3
1.57100	1
1.57467	-2
1.57833	-4
1.58200	-6
1.58567	-7
1.58933	-5
1.59300	-4
1.59667	-2
1.60033	-2
1.60400	-2
1.60767	-2
1.61133	-2
1.61500	-3
1.61867	-5
1.62233	-5
1.62600	-5
1.62967	-6
1.63333	-6
1.63700	-4
1.64067	-4
1.64433	-5
1.64800	-5
1.65167	-4
1.65533	-3
1.65900	-4
1.66267	-4
1.66633	-2
1.67000	-0
1.67367	-1
1.67733	-4
1.68100	-5
1.68467	-4
1.68833	-1
1.69200	2
1.69567	3
1.69933	5
1.70300	7
1.70667	9
1.71033	10
1.71400	10
1.71767	10
1.72133	10
1.72500	10
1.72867	9
1.73233	11
1.73600	13
1.73967	14
1.74333	13
1.74700	15
1.75067	16
1.75433	17
1.75800	15
1.76167	15
1.76533	14
1.76900	14
1.77267	12
1.77633	9
1.78000	9
1.78367	10
1.78733	13
1.79100	15
1.79467	15
1.79833	14
1.80200	13
1.80567	14
1.80933	14
1.81300	15
1.81667	15
1.82033	15
1.82400	14
1.82767	14
1.83133	16
1.83500	17
1.83867	17
1.84233	16
1.84600	17
1.84967	18
1.85333	20
1.85700	19
1.86067	18
1.86433	19
1.86800	20
1.87167	21
1.87533	20
1.87900	22
1.88267	24
1.88633	25
1.89000	24
1.89367	24
1.89733	26
1.90100	28
1.90467	30
1.90833	30
1.91200	31
1.91567	32
1.91933	32
1.92300	32
1.92667	33
1.93033	33
1.93400	32
1.93767	31
1.94133	33
1.94500	32
1.94867	32
1.95233	34
1.95600	37
1.95967	38
1.96333	38
1.96700	39
1.97067	43
1.97433	43
1.97800	43
1.98167	45
1.98533	44
1.98900	41
1.99267	42
1.99633	42
2.00000	42
2.00367	43
2.00733	45
2.01100	44
2.01467	44
2.01833	45
2.02200	46
2.02567	45
2.02933	46
2.03300	45
2.03667	45
2.04033	46
2.04400	45
2.04767	45
2.05133	44
2.05500	45
2.05867	47
2.06233	50
2.06600	51
2.06967	55
2.07333	57
2.07700	57
2.08067	56
2.08433	55
2.08800	55
2.09167	57
2.09533	58
2.09900	59
2.10267	61
2.10633	63
2.11000	62
2.11367	62
2.11733	62
2.12100	63
2.12467	65
2.12833	65
2.13200	62
2.13567	60
2.13933	61
2.14300	63
2.14667	63
2.15033	65
2.15400	66
2.15767	68
2.16133	69
2.16500	71
2.16867	72
2.17233	75
2.17600	78
2.17967	80
2.18333	82
2.18700	83
2.19067	83
2.19433	83
2.19800	82
2.20167	80
2.20533	79
2.20900	81
2.21267	82
2.21633	83
2.22000	85
2.22367	87
2.22733	88
2.23100	88
2.23467	86
2.23833	85
2.24200	84
2.24567	86
2.24933	87
2.25300	88
2.25667	90
2.26033	91
2.26400	92
2.26767	90
2.27133	87
2.27500	87
2.27867	89
2.28233	92
2.28600	93
2.28967	94
2.29333	97
2.29700	100
2.30067	104
2.30433	109
2.30800	111
2.31167	112
2.31533	113
2.31900	113
2.32267	113
2.32633	114
2.33000	112
2.33367	113
2.33733	115
2.34100	117
2.34467	117
2.34833	118
2.35200	121
2.35567	122
2.35933	122
2.36300	123
2.36667	125
2.37033	125
2.37400	124
2.37767	125
2.38133	126
2.38500	128
2.38867	128
2.39233	131
2.39600	135
2.39967	137
2.40333	138
2.40700	138
2.41067	140
2.41433	143
2.41800	146
2.42167	145
2.42533	144
2.42900	147
2.43267	149
2.43633	148
2.44000	149
2.44367	175
2.44733	244
2.45100	323
2.45467	387
2.45833	420
2.46200	437
2.46567	445
2.46933	445
2.47300	435
2.47667	417
2.48033	397
2.48400	384
2.48767	383
2.49133	392
2.49500	406
2.49867	422
2.50233	437
2.50600	450
2.50967	456
2.51333	454
2.51700	446
2.52067	433
2.52433	420
2.52800	412
2.53167	410
2.53533	411
2.53900	416
2.54267	425
2.54633	435
2.55000	447
2.55367	460
2.55733	471
2.56100	481
2.56467	492
2.56833	505
2.57200	520
2.57567	531
2.57933	542
2.58300	548
2.58667	551
2.59033	553
2.59400	551
2.59767	546
2.60133	536
2.60500	525
2.60867	510
2.61233	494
2.61600	477
2.61967	459
2.62333	436
2.62700	409
2.63067	381
2.63433	353
2.63800	326
2.64167	300
2.64533	279
2.64900	263
2.65267	252
2.65633	247
2.66000	244
2.66367	244
2.66733	247
2.67100	252
2.67467	260
2.67833	271
2.68200	280
2.68567	289
2.68933	299
2.69300	310
2.69667	322
2.70033	332
2.70400	342
2.70767	352
2.71133	363
2.71500	374
2.71867	384
2.72233	394
2.72600	403
2.72967	414
2.73333	423
2.73700	432
2.74067	440
2.74433	446
2.74800	453
2.75167	459
2.75533	465
2.75900	467
2.76267	468
2.76633	473
2.77000	473
2.77367	474
2.77733	474
2.78100	472
2.78467	468
2.78833	467
2.79200	466
2.79567	465
2.79933	464
2.80300	464
2.80667	464
2.81033	462
2.81400	460
2.81767	458
2.82133	458
2.82500	457
2.82867	458
2.83233	463
2.83600	473
2.83967	495
2.84333	541
2.84700	632
2.85067	791
2.85433	1044
2.85800	1405
2.86167	1879
2.86533	2449
2.86900	3083
2.87267	3737
2.87633	4356
2.88000	4888
2.88367	5293
2.88733	5546
2.89100	5644
2.89467	5595
2.89833	5422
2.90200	5155
2.90567	4822
2.90933	4455
2.91300	4077
2.91667	3704
2.92033	3348
2.92400	3013
2.92767	2704
2.93133	2426
2.93500	2179
2.93867	1958
2.94233	1763
2.94600	1595
2.94967	1446
2.95333	1317
2.95700	1204
2.96067	1105
2.96433	1016
2.96800	941
2.97167	877
2.97533	824
2.97900	776
2.98267	735
2.98633	702
2.99000	675
2.99367	653
2.99733	632
3.00100	615
3.00467	599
3.00833	586
3.01200	580
3.01567	574
3.01933	567
3.02300	559
3.02667	551
3.03033	544
3.03400	538
3.03767	533
3.04133	528
3.04500	524
3.04867	521
3.05233	520
3.05600	519
3.05967	518
3.06333	517
3.06700	516
3.07067	516
3.07433	515
3.07800	514
3.08167	513
3.08533	515
3.08900	516
3.09267	518
3.09633	517
3.10000	518
3.10367	517
3.10733	517
3.11100	516
3.11467	516
3.11833	514
3.12200	511
3.12567	509
3.12933	509
3.13300	510
3.13667	511
3.14033	512
3.14400	509
3.14767	506
3.15133	505
3.15500	506
3.15867	505
3.16233	505
3.16600	504
3.16967	504
3.17333	502
3.17700	499
3.18067	498
3.18433	497
3.18800	495
3.19167	491
3.19533	486
3.19900	484
3.20267	482
3.20633	482
3.21000	480
3.21367	477
3.21733	475
3.22100	475
3.22467	473
3.22833	473
3.23200	472
3.23567	471
3.23933	470
3.24300	469
3.24667	466
3.25033	461
3.25400	455
3.25767	452
3.26133	450
3.26500	449
3.26867	449
3.27233	448
3.27600	447
3.27967	445
3.28333	442
3.28700	438
3.29067	433
3.29433	428
3.29800	424
3.30167	421
3.30533	421
3.30900	422
3.31267	420
3.31633	419
3.32000	416
3.32367	413
3.32733	411
3.33100	409
3.33467	407
3.33833	403
3.34200	400
3.34567	397
3.34933	393
3.35300	390
3.35667	387
3.36033	385
3.36400	384
3.36767	381
3.37133	379
3.37500	375
3.37867	368
3.38233	365
3.38600	366
3.38967	369
3.39333	369
3.39700	367
3.40067	364
3.40433	361
3.40800	358
3.41167	353
3.41533	348
3.41900	344
3.42267	343
3.42633	343
3.43000	341
3.43367	337
3.43733	336
3.44100	338
3.44467	341
3.44833	340
3.45200	338
3.45567	334
3.45933	328
3.46300	325
3.46667	322
3.47033	322
3.47400	320
3.47767	319
3.48133	320
3.48500	322
3.48867	321
3.49233	319
3.49600	316
3.49967	314
3.50333	309
3.50700	304
3.51067	302
3.51433	300
3.51800	300
3.52167	300
3.52533	300
3.52900	301
3.53267	300
3.53633	297
3.54000	295
3.54367	294
3.54733	293
3.55100	292
3.55467	291
3.55833	289
3.56200	288
3.56567	286
3.56933	284
3.57300	282
3.57667	279
3.58033	278
3.58400	277
3.58767	277
3.59133	279
3.59500	280
3.59867	280
3.60233	279
3.60600	276
3.60967	271
3.61333	267
3.61700	268
3.62067	270
3.62433	270
3.62800	270
3.63167	270
3.63533	270
3.63900	270
3.64267	270
3.64633	271
3.65000	270
3.65367	268
3.65733	264
3.66100	261
3.66467	260
3.66833	260
3.67200	258
3.67567	260
3.67933	261
3.68300	259
3.68667	258
3.69033	258
3.69400	260
3.69767	261
3.70133	260
3.70500	261
3.70867	260
3.71233	257
3.71600	255
3.71967	252
3.72333	251
3.72700	250
3.73067	248
3.73433	246
3.73800	245
3.74167	243
3.74533	243
3.74900	244
3.75267	244
3.75633	245
3.76000	245
3.76367	243
3.76733	242
3.77100	241
3.77467	238
3.77833	235
3.78200	236
3.78567	240
3.78933	243
3.79300	244
3.79667	244
3.80033	244
3.80400	243
3.80767	242
3.81133	241
3.81500	242
3.81867	242
3.82233	241
3.82600	239
3.82967	239
3.83333	240
3.83700	238
3.84067	235
3.84433	234
3.84800	234
3.85167	233
3.85533	232
3.85900	232
3.86267	232
3.86633	231
3.87000	230
3.87367	231
3.87733	234
3.88100	236
3.88467	238
3.88833	236
3.89200	232
3.89567	230
3.89933	229
3.90300	229
3.90667	231
3.91033	231
3.91400	230
3.91767	231
3.92133	232
3.92500	230
3.92867	227
3.93233	229
3.93600	231
3.93967	231
3.94333	230
3.94700	228
3.95067	228
3.95433	229
3.95800	230
3.96167	228
3.96533	227
3.96900	227
3.97267	225
3.97633	223
3.98000	222
3.98367	224
3.98733	224
3.99100	224
3.99467	225
3.99833	226

[Status Trace (Column Oven Temperature)]
Interval(msec)	1000
# of Points	240
Start Time(min)	0.004
End Time(min)	3.987
Intensity Units	
Intensity Multiplier	1
R.Time (min)	Intensity
0.00417	35.00
0.02083	35.00
0.03750	35.01
0.05417	35.01
0.07083	35.00
0.08750	35.00
0.10417	35.00
0.12083	35.00
0.13750	35.01
0.15417	35.00
0.17083	35.00
0.18750	35.00
0.20417	34.99
0.22083	34.99
0.23750	34.99
0.25417	34.98
0.27083	34.99
0.28750	34.99
0.30417	34.98
0.32083	34.98
0.33750	34.99
0.35417	34.99
0.37083	34.99
0.38750	35.00
0.40417	35.00
0.42083	35.01
0.43750	35.00
0.45417	35.00
0.47083	35.00
0.48750	35.00
0.50417	35.00
0.52083	35.00
0.53750	35.00
0.55417	35.00
0.57083	35.00
0.58750	35.00
0.60417	35.00
0.62083	34.99
0.63750	34.99
0.65417	34.99
0.67083	34.99
0.68750	34.99
0.70417	35.00
0.72083	34.99
0.73750	35.00
0.75417	35.00
0.77083	34.99
0.78750	34.99
0.80417	34.99
0.82083	34.99
0.83750	35.00
0.85417	35.01
0.87083	35.01
0.88750	35.00
0.90417	35.00
0.92083	35.00
0.93750	35.00
0.95417	34.99
0.97083	35.00
0.98750	35.00
1.00417	35.00
1.02083	35.00
1.03750	35.00
1.05417	34.99
1.07083	35.00
1.08750	35.00
1.10417	35.00
1.12083	34.99
1.13750	35.00
1.15417	35.00
1.17083	35.00
1.18750	35.00
1.20417	35.00
1.22083	35.01
1.23750	35.00
1.25417	34.99
1.27083	34.99
1.28750	34.99
1.30417	34.99
1.32083	35.00
1.33750	35.00
1.35417	35.01
1.37083	35.01
1.38750	35.01
1.40417	35.00
1.42083	35.01
1.43750	35.00
1.45417	34.99
1.47083	34.99
1.48750	34.99
1.50417	34.98
1.52083	34.97
1.53750	34.98
1.55417	34.98
1.57083	34.98
1.58750	35.00
1.60417	35.06
1.62083	35.17
1.63750	35.36
1.65417	35.60
1.67083	35.89
1.68750	36.25
1.70417	36.62
1.72083	36.95
1.73750	37.28
1.75417	37.59
1.77083	37.93
1.78750	38.27
1.80417	38.60
1.82083	38.93
1.83750	39.27
1.85417	39.60
1.87083	39.92
1.88750	40.24
1.90417	40.58
1.92083	40.91
1.93750	41.22
1.95417	41.57
1.97083	41.89
1.98750	42.20
2.00417	42.53
2.02083	42.85
2.03750	43.17
2.05417	43.52
2.07083	43.84
2.08750	44.16
2.10417	44.48
2.12083	44.82
2.13750	45.14
2.15417	45.47
2.17083	45.80
2.18750	46.13
2.20417	46.46
2.22083	46.79
2.23750	47.12
2.25417	47.43
2.27083	47.77
2.28750	48.11
2.30417	48.43
2.32083	48.72
2.33750	49.09
2.35417	49.38
2.37083	49.58
2.38750	49.63
2.40417	49.63
2.42083	49.64
2.43750	49.64
2.45417	49.64
2.47083	49.66
2.48750	49.68
2.50417	49.68
2.52083	49.71
2.53750	49.70
2.55417	49.72
2.57083	49.74
2.58750	49.76
2.60417	49.78
2.62083	49.79
2.63750	49.82
2.65417	49.83
2.67083	49.82
2.68750	49.83
2.70417	49.84
2.72083	49.85
2.73750	49.86
2.75417	49.86
2.77083	49.85
2.78750	49.86
2.80417	49.86
2.82083	49.87
2.83750	49.87
2.85417	49.86
2.87083	49.86
2.88750	49.87
2.90417	49.86
2.92083	49.88
2.93750	49.89
2.95417	49.90
2.97083	49.91
2.98750	49.93
3.00417	49.96
3.02083	49.99
3.03750	50.00
3.05417	50.01
3.07083	50.02
3.08750	50.02
3.10417	50.02
3.12083	50.02
3.13750	50.02
3.15417	50.02
3.17083	50.02
3.18750	50.03
3.20417	50.04
3.22083	50.05
3.23750	50.05
3.25417	50.05
3.27083	50.05
3.28750	50.07
3.30417	50.07
3.32083	50.07
3.33750	50.07
3.35417	50.08
3.37083	50.08
3.38750	50.09
3.40417	50.09
3.42083	50.09
3.43750	50.10
3.45417	50.11
3.47083	50.11
3.48750	50.11
3.50417	50.10
3.52083	50.09
3.53750	50.08
3.55417	50.07
3.57083	50.06
3.58750	50.05
3.60417	50.04
3.62083	50.04
3.63750	50.04
3.65417	50.04
3.67083	50.04
3.68750	50.04
3.70417	50.04
3.72083	50.04
3.73750	50.04
3.75417	50.04
3.77083	50.05
3.78750	50.05
3.80417	50.04
3.82083	50.05
3.83750	50.05
3.85417	50.05
3.87083	50.05
3.88750	50.06
3.90417	50.05
3.92083	50.05
3.93750	50.05
3.95417	50.05
3.97083	50.05
3.98750	50.05

[Status Trace (Injection Unit Temperature)]
Interval(msec)	1000
# of Points	240
Start Time(min)	0.004
End Time(min)	3.987
Intensity Units	
Intensity Multiplier	1
R.Time (min)	Intensity
0.00417	99.99
0.02083	99.99
0.03750	99.99
0.05417	99.99
0.07083	99.99
0.08750	99.99
0.10417	99.99
0.12083	99.99
0.13750	99.99
0.15417	99.99
0.17083	99.99
0.18750	99.99
0.20417	99.99
0.22083	99.99
0.23750	100.00
0.25417	99.99
0.27083	99.99
0.28750	99.99
0.30417	99.99
0.32083	99.99
0.33750	99.99
0.35417	99.99
0.37083	99.99
0.38750	99.99
0.40417	99.99
0.42083	99.99
0.43750	99.99
0.45417	99.99
0.47083	99.99
0.48750	99.99
0.50417	99.99
0.52083	99.99
0.53750	99.99
0.55417	99.99
0.57083	99.99
0.58750	99.99
0.60417	99.99
0.62083	99.99
0.63750	99.98
0.65417	99.98
0.67083	99.99
0.68750	99.99
0.70417	99.99
0.72083	99.99
0.73750	99.99
0.75417	99.98
0.77083	99.98
0.78750	99.99
0.80417	99.98
0.82083	99.98
0.83750	99.99
0.85417	99.99
0.87083	99.99
0.88750	99.99
0.90417	99.99
0.92083	99.99
0.93750	99.99
0.95417	99.99
0.97083	99.99
0.98750	99.99
1.00417	99.99
1.02083	99.99
1.03750	100.00
1.05417	99.99
1.07083	99.99
1.08750	99.99
1.10417	99.99
1.12083	99.99
1.13750	100.00
1.15417	100.00
1.17083	100.00
1.18750	100.00
1.20417	99.99
1.22083	100.00
1.23750	99.99
1.25417	100.00
1.27083	100.00
1.28750	100.00
1.30417	100.00
1.32083	100.00
1.33750	100.00
1.35417	100.00
1.37083	100.00
1.38750	100.00
1.40417	100.00
1.42083	100.00
1.43750	100.00
1.45417	100.00
1.47083	99.99
1.48750	100.00
1.50417	99.99
1.52083	100.00
1.53750	99.99
1.55417	99.99
1.57083	99.99
1.58750	99.99
1.60417	99.99
1.62083	99.99
1.63750	99.99
1.65417	99.99
1.67083	99.99
1.68750	99.99
1.70417	99.99
1.72083	99.99
1.73750	99.99
1.75417	99.99
1.77083	99.99
1.78750	99.98
1.80417	99.98
1.82083	99.99
1.83750	99.98
1.85417	99.98
1.87083	99.98
1.88750	99.99
1.90417	99.98
1.92083	99.98
1.93750	99.98
1.95417	99.98
1.97083	99.98
1.98750	99.98
2.00417	99.98
2.02083	99.98
2.03750	99.98
2.05417	99.98
2.07083	99.98
2.08750	99.98
2.10417	99.98
2.12083	99.97
2.13750	99.98
2.15417	99.98
2.17083	99.97
2.18750	99.98
2.20417	99.97
2.22083	99.97
2.23750	99.97
2.25417	99.97
2.27083	99.97
2.28750	99.98
2.30417	99.97
2.32083	99.98
2.33750	99.98
2.35417	99.98
2.37083	99.97
2.38750	99.98
2.40417	99.98
2.42083	99.98
2.43750	99.98
2.45417	99.98
2.47083	99.99
2.48750	99.98
2.50417	99.98
2.52083	99.98
2.53750	99.98
2.55417	99.99
2.57083	99.98
2.58750	99.99
2.60417	99.99
2.62083	99.99
2.63750	99.99
2.65417	99.99
2.67083	99.99
2.68750	100.00
2.70417	99.99
2.72083	99.99
2.73750	100.00
2.75417	100.00
2.77083	100.00
2.78750	100.00
2.80417	100.00
2.82083	100.00
2.83750	100.00
2.85417	100.01
2.87083	100.01
2.88750	100.01
2.90417	100.01
2.92083	100.01
2.93750	100.01
2.95417	100.01
2.97083	100.02
2.98750	100.01
3.00417	100.01
3.02083	100.01
3.03750	100.02
3.05417	100.02
3.07083	100.02
3.08750	100.02
3.10417	100.02
3.12083	100.02
3.13750	100.02
3.15417	100.02
3.17083	100.02
3.18750	100.02
3.20417	100.02
3.22083	100.02
3.23750	100.03
3.25417	100.03
3.27083	100.03
3.28750	100.03
3.30417	100.03
3.32083	100.03
3.33750	100.03
3.35417	100.03
3.37083	100.03
3.38750	100.03
3.40417	100.03
3.42083	100.03
3.43750	100.03
3.45417	100.03
3.47083	100.04
3.48750	100.04
3.50417	100.04
3.52083	100.04
3.53750	100.04
3.55417	100.04
3.57083	100.04
3.58750	100.04
3.60417	100.04
3.62083	100.04
3.63750	100.04
3.65417	100.04
3.67083	100.04
3.68750	100.04
3.70417	100.04
3.72083	100.04
3.73750	100.04
3.75417	100.04
3.77083	100.05
3.78750	100.05
3.80417	100.05
3.82083	100.05
3.83750	100.05
3.85417	100.04
3.87083	100.05
3.88750	100.05
3.90417	100.05
3.92083	100.05
3.93750	100.05
3.95417	100.05
3.97083	100.05
3.98750	100.05

[Status Trace (Carrier Gas Pressure)]
Interval(msec)	1000
# of Points	240
Start Time(min)	0.004
End Time(min)	3.987
Intensity Units	
Intensity Multiplier	1
R.Time (min)	Intensity
0.00417	58.00
0.02083	56.05
0.03750	56.53
0.05417	58.77
0.07083	59.84
0.08750	58.23
0.10417	57.97
0.12083	58.01
0.13750	58.01
0.15417	58.01
0.17083	58.00
0.18750	58.00
0.20417	58.00
0.22083	58.00
0.23750	58.00
0.25417	58.00
0.27083	58.00
0.28750	58.00
0.30417	58.00
0.32083	58.00
0.33750	58.00
0.35417	58.00
0.37083	58.00
0.38750	58.00
0.40417	58.00
0.42083	58.00
0.43750	58.00
0.45417	58.00
0.47083	58.00
0.48750	58.00
0.50417	58.00
0.52083	58.00
0.53750	58.00
0.55417	58.00
0.57083	58.00
0.58750	58.00
0.60417	58.00
0.62083	58.00
0.63750	58.00
0.65417	58.00
0.67083	58.00
0.68750	58.00
0.70417	58.00
0.72083	58.00
0.73750	58.00
0.75417	58.00
0.77083	58.00
0.78750	58.00
0.80417	58.00
0.82083	58.00
0.83750	58.00
0.85417	58.00
0.87083	58.00
0.88750	58.00
0.90417	58.00
0.92083	58.00
0.93750	58.00
0.95417	58.00
0.97083	58.00
0.98750	58.00
1.00417	58.00
1.02083	58.00
1.03750	58.00
1.05417	58.00
1.07083	58.00
1.08750	58.00
1.10417	58.00
1.12083	58.00
1.13750	58.00
1.15417	58.00
1.17083	58.00
1.18750	58.00
1.20417	58.00
1.22083	58.00
1.23750	58.00
1.25417	58.00
1.27083	58.00
1.28750	58.00
1.30417	58.00
1.32083	58.00
1.33750	58.00
1.35417	58.00
1.37083	58.00
1.38750	58.00
1.40417	58.00
1.42083	58.00
1.43750	58.00
1.45417	58.00
1.47083	58.00
1.48750	58.00
1.50417	58.00
1.52083	58.00
1.53750	58.00
1.55417	58.00
1.57083	58.00
1.58750	58.00
1.60417	58.00
1.62083	58.00
1.63750	58.00
1.65417	58.00
1.67083	58.00
1.68750	58.01
1.70417	58.00
1.72083	58.00
1.73750	58.00
1.75417	58.00
1.77083	58.00
1.78750	58.00
1.80417	58.00
1.82083	58.00
1.83750	58.00
1.85417	58.00
1.87083	58.00
1.88750	58.00
1.90417	58.00
1.92083	58.00
1.93750	58.00
1.95417	58.00
1.97083	58.00
1.98750	58.00
2.00417	58.00
2.02083	58.00
2.03750	58.00
2.05417	58.00
2.07083	58.00
2.08750	58.00
2.10417	58.00
2.12083	58.00
2.13750	58.00
2.15417	58.00
2.17083	58.00
2.18750	58.00
2.20417	58.00
2.22083	58.00
2.23750	58.00
2.25417	58.00
2.27083	58.00
2.28750	58.00
2.30417	58.00
2.32083	58.00
2.33750	58.00
2.35417	58.00
2.37083	58.00
2.38750	57.99
2.40417	57.99
2.42083	58.00
2.43750	58.00
2.45417	58.00
2.47083	58.00
2.48750	58.00
2.50417	57.99
2.52083	58.00
2.53750	57.99
2.55417	58.00
2.57083	58.00
2.58750	58.00
2.60417	58.00
2.62083	58.00
2.63750	58.00
2.65417	58.00
2.67083	58.00
2.68750	58.00
2.70417	58.00
2.72083	58.00
2.73750	58.00
2.75417	58.00
2.77083	58.00
2.78750	58.00
2.80417	58.00
2.82083	58.00
2.83750	58.00
2.85417	58.00
2.87083	58.00
2.88750	58.00
2.90417	58.00
2.92083	58.00
2.93750	58.00
2.95417	58.00
2.97083	58.00
2.98750	58.00
3.00417	58.00
3.02083	58.00
3.03750	58.00
3.05417	58.00
3.07083	58.00
3.08750	58.00
3.10417	58.00
3.12083	58.00
3.13750	58.00
3.15417	58.00
3.17083	58.00
3.18750	58.00
3.20417	58.00
3.22083	58.00
3.23750	58.00
3.25417	58.00
3.27083	58.00
3.28750	58.00
3.30417	58.00
3.32083	58.00
3.33750	58.00
3.35417	58.00
3.37083	58.00
3.38750	58.00
3.40417	58.00
3.42083	58.00
3.43750	58.00
3.45417	58.00
3.47083	58.00
3.48750	58.00
3.50417	58.00
3.52083	58.00
3.53750	58.00
3.55417	58.00
3.57083	58.00
3.58750	58.00
3.60417	58.00
3.62083	58.00
3.63750	58.00
3.65417	58.00
3.67083	58.00
3.68750	58.00
3.70417	58.00
3.72083	58.00
3.73750	58.00
3.75417	58.00
3.77083	58.00
3.78750	58.00
3.80417	58.00
3.82083	58.00
3.83750	58.00
3.85417	58.00
3.87083	58.00
3.88750	58.00
3.90417	58.00
3.92083	58.00
3.93750	58.00
3.95417	58.00
3.97083	58.00
3.98750	58.00

[Status Trace (Carrier Gas Flow)]
Interval(msec)	1000
# of Points	240
Start Time(min)	0.004
End Time(min)	3.987
Intensity Units	
Intensity Multiplier	1
R.Time (min)	Intensity
0.00417	34.52
0.02083	34.59
0.03750	34.54
0.05417	34.55
0.07083	34.49
0.08750	34.52
0.10417	34.52
0.12083	34.52
0.13750	34.52
0.15417	34.53
0.17083	34.52
0.18750	34.52
0.20417	34.52
0.22083	34.52
0.23750	34.52
0.25417	34.52
0.27083	34.52
0.28750	34.52
0.30417	34.52
0.32083	34.52
0.33750	34.52
0.35417	34.52
0.37083	34.52
0.38750	34.52
0.40417	34.52
0.42083	34.52
0.43750	34.52
0.45417	34.52
0.47083	34.52
0.48750	34.52
0.50417	34.52
0.52083	34.52
0.53750	34.52
0.55417	34.52
0.57083	34.52
0.58750	34.52
0.60417	34.52
0.62083	34.52
0.63750	34.52
0.65417	34.52
0.67083	34.52
0.68750	34.52
0.70417	34.52
0.72083	34.52
0.73750	34.52
0.75417	34.52
0.77083	34.52
0.78750	34.52
0.80417	34.52
0.82083	34.52
0.83750	34.52
0.85417	34.52
0.87083	34.52
0.88750	34.52
0.90417	34.52
0.92083	34.52
0.93750	34.52
0.95417	34.52
0.97083	34.52
0.98750	34.52
1.00417	34.52
1.02083	34.52
1.03750	34.52
1.05417	34.52
1.07083	34.52
1.08750	34.52
1.10417	34.52
1.12083	34.52
1.13750	34.52
1.15417	34.52
1.17083	34.52
1.18750	34.52
1.20417	34.52
1.22083	34.52
1.23750	34.52
1.25417	34.52
1.27083	34.52
1.28750	34.52
1.30417	34.52
1.32083	34.52
1.33750	34.52
1.35417	34.52
1.37083	34.52
1.38750	34.52
1.40417	34.52
1.42083	34.52
1.43750	34.52
1.45417	34.52
1.47083	34.52
1.48750	34.52
1.50417	34.52
1.52083	34.52
1.53750	34.52
1.55417	34.52
1.57083	34.52
1.58750	34.52
1.60417	34.52
1.62083	34.52
1.63750	34.52
1.65417	34.52
1.67083	34.52
1.68750	34.52
1.70417	34.52
1.72083	34.52
1.73750	34.52
1.75417	34.52
1.77083	34.52
1.78750	34.52
1.80417	34.52
1.82083	34.52
1.83750	34.52
1.85417	34.52
1.87083	34.52
1.88750	34.52
1.90417	34.52
1.92083	34.52
1.93750	34.52
1.95417	34.52
1.97083	34.52
1.98750	34.52
2.00417	34.52
2.02083	34.52
2.03750	34.52
2.05417	34.52
2.07083	34.52
2.08750	34.52
2.10417	34.52
2.12083	34.52
2.13750	34.52
2.15417	34.52
2.17083	34.52
2.18750	34.52
2.20417	34.52
2.22083	34.52
2.23750	34.52
2.25417	34.52
2.27083	34.52
2.28750	34.52
2.30417	34.52
2.32083	34.52
2.33750	34.52
2.35417	34.52
2.37083	34.52
2.38750	34.52
2.40417	34.52
2.42083	34.52
2.43750	34.52
2.45417	34.52
2.47083	34.52
2.48750	34.52
2.50417	34.61
2.52083	34.50
2.53750	34.52
2.55417	34.52
2.57083	34.52
2.58750	34.52
2.60417	34.52
2.62083	34.52
2.63750	34.52
2.65417	34.52
2.67083	34.52
2.68750	34.52
2.70417	34.52
2.72083	34.52
2.73750	34.52
2.75417	34.52
2.77083	34.52
2.78750	34.52
2.80417	34.52
2.82083	34.52
2.83750	34.52
2.85417	34.52
2.87083	34.52
2.88750	34.52
2.90417	34.52
2.92083	34.52
2.93750	34.52
2.95417	34.52
2.97083	34.52
2.98750	34.52
3.00417	34.52
3.02083	34.52
3.03750	34.52
3.05417	34.52
3.07083	34.52
3.08750	34.52
3.10417	34.52
3.12083	34.52
3.13750	34.52
3.15417	34.52
3.17083	34.52
3.18750	34.52
3.20417	34.52
3.22083	34.52
3.23750	34.52
3.25417	34.52
3.27083	34.52
3.28750	34.52
3.30417	34.52
3.32083	34.52
3.33750	34.52
3.35417	34.52
3.37083	34.52
3.38750	34.52
3.40417	34.52
3.42083	34.52
3.43750	34.52
3.45417	34.52
3.47083	34.52
3.48750	34.52
3.50417	34.52
3.52083	34.52
3.53750	34.52
3.55417	34.52
3.57083	34.52
3.58750	34.52
3.60417	34.52
3.62083	34.52
3.63750	34.52
3.65417	34.52
3.67083	34.52
3.68750	34.52
3.70417	34.52
3.72083	34.52
3.73750	34.52
3.75417	34.52
3.77083	34.52
3.78750	34.52
3.80417	34.52
3.82083	34.52
3.83750	34.52
3.85417	34.52
3.87083	34.52
3.88750	34.52
3.90417	34.52
3.92083	34.52
3.93750	34.52
3.95417	34.52
3.97083	34.52
3.98750	34.52

[Status Trace (Column Flow)]
Interval(msec)	1000
# of Points	240
Start Time(min)	0.004
End Time(min)	3.987
Intensity Units	
Intensity Multiplier	1
R.Time (min)	Intensity
0.00417	5.48
0.02083	5.26
0.03750	5.31
0.05417	5.57
0.07083	5.69
0.08750	5.51
0.10417	5.48
0.12083	5.48
0.13750	5.48
0.15417	5.48
0.17083	5.48
0.18750	5.48
0.20417	5.48
0.22083	5.48
0.23750	5.48
0.25417	5.48
0.27083	5.48
0.28750	5.48
0.30417	5.48
0.32083	5.48
0.33750	5.48
0.35417	5.48
0.37083	5.48
0.38750	5.48
0.40417	5.48
0.42083	5.48
0.43750	5.48
0.45417	5.48
0.47083	5.48
0.48750	5.48
0.50417	5.48
0.52083	5.48
0.53750	5.48
0.55417	5.48
0.57083	5.48
0.58750	5.48
0.60417	5.48
0.62083	5.48
0.63750	5.48
0.65417	5.48
0.67083	5.48
0.68750	5.48
0.70417	5.48
0.72083	5.48
0.73750	5.48
0.75417	5.48
0.77083	5.48
0.78750	5.48
0.80417	5.48
0.82083	5.48
0.83750	5.48
0.85417	5.48
0.87083	5.48
0.88750	5.48
0.90417	5.48
0.92083	5.48
0.93750	5.48
0.95417	5.48
0.97083	5.48
0.98750	5.48
1.00417	5.48
1.02083	5.48
1.03750	5.48
1.05417	5.48
1.07083	5.48
1.08750	5.48
1.10417	5.48
1.12083	5.48
1.13750	5.48
1.15417	5.48
1.17083	5.48
1.18750	5.48
1.20417	5.48
1.22083	5.48
1.23750	5.48
1.25417	5.48
1.27083	5.48
1.28750	5.48
1.30417	5.48
1.32083	5.48
1.33750	5.48
1.35417	5.48
1.37083	5.48
1.38750	5.48
1.40417	5.48
1.42083	5.48
1.43750	5.48
1.45417	5.48
1.47083	5.48
1.48750	5.48
1.50417	5.48
1.52083	5.48
1.53750	5.48
1.55417	5.48
1.57083	5.48
1.58750	5.48
1.60417	5.48
1.62083	5.48
1.63750	5.47
1.65417	5.46
1.67083	5.45
1.68750	5.44
1.70417	5.43
1.72083	5.42
1.73750	5.41
1.75417	5.40
1.77083	5.39
1.78750	5.38
1.80417	5.37
1.82083	5.36
1.83750	5.35
1.85417	5.34
1.87083	5.33
1.88750	5.32
1.90417	5.31
1.92083	5.30
1.93750	5.29
1.95417	5.28
1.97083	5.27
1.98750	5.26
2.00417	5.25
2.02083	5.24
2.03750	5.23
2.05417	5.22
2.07083	5.22
2.08750	5.21
2.10417	5.20
2.12083	5.19
2.13750	5.18
2.15417	5.17
2.17083	5.16
2.18750	5.15
2.20417	5.14
2.22083	5.13
2.23750	5.12
2.25417	5.11
2.27083	5.10
2.28750	5.09
2.30417	5.08
2.32083	5.08
2.33750	5.07
2.35417	5.06
2.37083	5.05
2.38750	5.05
2.40417	5.05
2.42083	5.05
2.43750	5.05
2.45417	5.05
2.47083	5.05
2.48750	5.05
2.50417	5.05
2.52083	5.05
2.53750	5.05
2.55417	5.05
2.57083	5.05
2.58750	5.05
2.60417	5.05
2.62083	5.05
2.63750	5.05
2.65417	5.05
2.67083	5.05
2.68750	5.05
2.70417	5.05
2.72083	5.04
2.73750	5.04
2.75417	5.04
2.77083	5.04
2.78750	5.04
2.80417	5.04
2.82083	5.04
2.83750	5.04
2.85417	5.04
2.87083	5.04
2.88750	5.04
2.90417	5.04
2.92083	5.04
2.93750	5.04
2.95417	5.04
2.97083	5.04
2.98750	5.04
3.00417	5.04
3.02083	5.04
3.03750	5.04
3.05417	5.04
3.07083	5.04
3.08750	5.04
3.10417	5.04
3.12083	5.04
3.13750	5.04
3.15417	5.04
3.17083	5.04
3.18750	5.04
3.20417	5.04
3.22083	5.04
3.23750	5.04
3.25417	5.04
3.27083	5.04
3.28750	5.04
3.30417	5.04
3.32083	5.04
3.33750	5.04
3.35417	5.04
3.37083	5.04
3.38750	5.04
3.40417	5.04
3.42083	5.04
3.43750	5.04
3.45417	5.04
3.47083	5.04
3.48750	5.04
3.50417	5.04
3.52083	5.04
3.53750	5.04
3.55417	5.04
3.57083	5.04
3.58750	5.04
3.60417	5.04
3.62083	5.04
3.63750	5.04
3.65417	5.04
3.67083	5.04
3.68750	5.04
3.70417	5.04
3.72083	5.04
3.73750	5.04
3.75417	5.04
3.77083	5.04
3.78750	5.04
3.80417	5.04
3.82083	5.04
3.83750	5.04
3.85417	5.04
3.87083	5.04
3.88750	5.04
3.90417	5.04
3.92083	5.04
3.93750	5.04
3.95417	5.04
3.97083	5.04
3.98750	5.04

[Status Trace (Linear Velocity)]
Interval(msec)	1000
# of Points	240
Start Time(min)	0.004
End Time(min)	3.987
Intensity Units	
Intensity Multiplier	1
R.Time (min)	Intensity
0.00417	39.01
0.02083	37.73
0.03750	38.04
0.05417	39.51
0.07083	40.21
0.08750	39.16
0.10417	38.99
0.12083	39.01
0.13750	39.01
0.15417	39.01
0.17083	39.01
0.18750	39.01
0.20417	39.01
0.22083	39.01
0.23750	39.01
0.25417	39.01
0.27083	39.01
0.28750	39.01
0.30417	39.01
0.32083	39.01
0.33750	39.01
0.35417	39.01
0.37083	39.01
0.38750	39.01
0.40417	39.01
0.42083	39.01
0.43750	39.01
0.45417	39.01
0.47083	39.01
0.48750	39.01
0.50417	39.01
0.52083	39.01
0.53750	39.01
0.55417	39.01
0.57083	39.01
0.58750	39.01
0.60417	39.01
0.62083	39.01
0.63750	39.01
0.65417	39.01
0.67083	39.01
0.68750	39.01
0.70417	39.01
0.72083	39.01
0.73750	39.01
0.75417	39.01
0.77083	39.01
0.78750	39.01
0.80417	39.01
0.82083	39.01
0.83750	39.01
0.85417	39.01
0.87083	39.01
0.88750	39.01
0.90417	39.01
0.92083	39.01
0.93750	39.01
0.95417	39.01
0.97083	39.01
0.98750	39.01
1.00417	39.01
1.02083	39.01
1.03750	39.01
1.05417	39.01
1.07083	39.01
1.08750	39.01
1.10417	39.01
1.12083	39.01
1.13750	39.01
1.15417	39.01
1.17083	39.01
1.18750	39.01
1.20417	39.01
1.22083	39.01
1.23750	39.01
1.25417	39.01
1.27083	39.01
1.28750	39.01
1.30417	39.01
1.32083	39.01
1.33750	39.01
1.35417	39.01
1.37083	39.01
1.38750	39.01
1.40417	39.01
1.42083	39.01
1.43750	39.01
1.45417	39.01
1.47083	39.01
1.48750	39.01
1.50417	39.01
1.52083	39.01
1.53750	39.01
1.55417	39.01
1.57083	39.01
1.58750	39.01
1.60417	39.00
1.62083	38.99
1.63750	38.98
1.65417	38.95
1.67083	38.93
1.68750	38.89
1.70417	38.85
1.72083	38.82
1.73750	38.79
1.75417	38.76
1.77083	38.73
1.78750	38.70
1.80417	38.66
1.82083	38.64
1.83750	38.60
1.85417	38.57
1.87083	38.54
1.88750	38.51
1.90417	38.48
1.92083	38.45
1.93750	38.42
1.95417	38.39
1.97083	38.36
1.98750	38.33
2.00417	38.30
2.02083	38.27
2.03750	38.24
2.05417	38.21
2.07083	38.18
2.08750	38.15
2.10417	38.12
2.12083	38.09
2.13750	38.06
2.15417	38.03
2.17083	38.00
2.18750	37.97
2.20417	37.94
2.22083	37.91
2.23750	37.88
2.25417	37.85
2.27083	37.83
2.28750	37.79
2.30417	37.76
2.32083	37.74
2.33750	37.71
2.35417	37.68
2.37083	37.66
2.38750	37.65
2.40417	37.65
2.42083	37.65
2.43750	37.65
2.45417	37.65
2.47083	37.65
2.48750	37.65
2.50417	37.64
2.52083	37.65
2.53750	37.65
2.55417	37.65
2.57083	37.65
2.58750	37.64
2.60417	37.64
2.62083	37.64
2.63750	37.64
2.65417	37.64
2.67083	37.64
2.68750	37.64
2.70417	37.64
2.72083	37.64
2.73750	37.64
2.75417	37.64
2.77083	37.64
2.78750	37.64
2.80417	37.64
2.82083	37.63
2.83750	37.63
2.85417	37.64
2.87083	37.64
2.88750	37.64
2.90417	37.64
2.92083	37.63
2.93750	37.63
2.95417	37.63
2.97083	37.63
2.98750	37.63
3.00417	37.63
3.02083	37.62
3.03750	37.62
3.05417	37.62
3.07083	37.62
3.08750	37.62
3.10417	37.62
3.12083	37.62
3.13750	37.62
3.15417	37.62
3.17083	37.62
3.18750	37.62
3.20417	37.62
3.22083	37.62
3.23750	37.62
3.25417	37.62
3.27083	37.62
3.28750	37.62
3.30417	37.62
3.32083	37.62
3.33750	37.62
3.35417	37.62
3.37083	37.62
3.38750	37.62
3.40417	37.61
3.42083	37.61
3.43750	37.61
3.45417	37.61
3.47083	37.61
3.48750	37.61
3.50417	37.61
3.52083	37.62
3.53750	37.62
3.55417	37.62
3.57083	37.62
3.58750	37.62
3.60417	37.62
3.62083	37.62
3.63750	37.62
3.65417	37.62
3.67083	37.62
3.68750	37.62
3.70417	37.62
3.72083	37.62
3.73750	37.62
3.75417	37.62
3.77083	37.62
3.78750	37.62
3.80417	37.62
3.82083	37.62
3.83750	37.62
3.85417	37.62
3.87083	37.62
3.88750	37.62
3.90417	37.62
3.92083	37.62
3.93750	37.62
3.95417	37.62
3.97083	37.62
3.98750	37.62

