[Header]
Application Name	LabSolutions
Version	5.110
Data File Name	C:\Users\User\Desktop\GC Analyses\Jack\UIC Prairie Sampling\10.19.22\221019_012.gcd
Output Date	1/4/2023
Output Time	2:27:28 PM

[File Information]
Type	Data File
Generated	12/5/2022 1:59:40 PM
Generated by	System Administrator
Modified	12/5/2022 2:04:07 PM
Modified by	System Administrator

[Sample Information]
Operator Name	System Administrator
Acquired	12/5/2022 2:00:07 PM
Sample Type	1:Standard
Level	1
Sample Name	221019_UICPrairie
Sample ID	221019_UICPrairie
ISTD Amount1	1
ISTD Amount2	1
ISTD Amount3	1
ISTD Amount4	1
ISTD Amount5	1
ISTD Amount6	1
ISTD Amount7	1
ISTD Amount8	1
ISTD Amount9	1
ISTD Amount10	1
ISTD Amount11	1
ISTD Amount12	1
ISTD Amount13	1
ISTD Amount14	1
ISTD Amount15	1
ISTD Amount16	1
ISTD Amount17	1
ISTD Amount18	1
ISTD Amount19	1
ISTD Amount20	1
ISTD Amount21	1
ISTD Amount22	1
ISTD Amount23	1
ISTD Amount24	1
ISTD Amount25	1
ISTD Amount26	1
ISTD Amount27	1
ISTD Amount28	1
ISTD Amount29	1
ISTD Amount30	1
ISTD Amount31	1
ISTD Amount32	1
Sample Amount	1
Dilution Factor	1
Vial#	1
Injection Volume	1
Injection Count	1
Bar Code	

[Original Files]
Data File	C:\Users\User\Desktop\GC Analyses\Jack\UIC Prairie Sampling\10.19.22\221019_012.gcd
Method File	C:\LabSolutions\Data\GHG_4min_2022\ghg3_togas_w_acet_4 min_new_int.gcm
Batch File	
Report Format File	c:\LabSolutions\System\DEFAULT.lsr

[File Description]


[Configuration]
Instrument Name	C0B7VH3-Instrument1
Instrument #	1
Line #	1
# of Detectors	3
Detector ID	DET#1	DET#2	DET#3
Detector Name	FID	PTCD	ECD
# of Channels	1	1	1

[Peak Table(Ch1)]
# of Peaks	3
Peak#	R.Time	I.Time	F.Time	Area	Height	A/H	Conc.	Mark	ID#	Name	k'	Plate #	Plate Ht.	Tailing	Resolution	Sep.Factor	Area Ratio	Height Ratio	Conc. %	Norm Conc.
1	1.479	1.432	1.538	9545	4129	2.312	100.000	   	1	CO	0.000	7978	18.802	1.245	0.000	0.000	0	0	16.667	16.667
2	1.571	1.538	1.633	4737	2350	2.016	100.000	 V 	2	CH4	0.062	10957	13.690	0.000	1.452	0.000	0	0	16.667	16.667
3	2.000	1.952	2.502	1024606	484919	2.113	400.000	   	3	CO2	0.352	17466	8.588	1.311	7.116	5.680	0	0	66.667	66.667

[Peak Table(Ch2)]
# of Peaks	0

[Peak Table(Ch3)]
# of Peaks	5
Peak#	R.Time	I.Time	F.Time	Area	Height	A/H	Conc.	Mark	ID#	Name	k'	Plate #	Plate Ht.	Tailing	Resolution	Sep.Factor	Area Ratio	Height Ratio	Conc. %	Norm Conc.
1	2.458	2.323	2.502	1434	372	3.858	0.000	   			0.000	8362	17.938	0.000	0.000	0.000	0	0	0.000	0.000
2	2.517	2.502	2.557	693	248	2.799	0.000	 V 			0.024	2756	54.429	0.000	0.392	0.000	0	0	0.000	0.000
3	2.612	2.557	2.656	1015	252	4.025	0.000	 V 			0.063	5167	29.030	0.000	0.566	2.625	0	0	0.000	0.000
4	2.891	2.678	3.067	25828	5253	4.917	1.000	   	1	N2O	0.176	11794	12.719	0.000	2.213	2.810	0	0	100.000	100.000
5	3.188	3.067	3.980	18234	667	27.346	0.000	 V 			0.297	22	6760.446	0.000	0.211	1.686	0	0	0.000	0.000

[Compound Results(Ch1)]
# of IDs	6
ID#	Name	R.Time	Area	Height	Conc.	Curve	3rd	2nd	1st	Constant	Area Ratio	Height Ratio	Conc. %	Norm Conc.
1	CO	1.479	9545	4129	100.000	Linear	0.000000e+00	0.000000e+00	9.545299e+001	0.000000e+00	0	0	16.667	16.667
2	CH4	1.571	4737	2350	100.000	Linear	0.000000e+00	0.000000e+00	4.736702e+001	0.000000e+00	0	0	16.667	16.667
3	CO2	2.000	1024606	484919	400.000	Linear	0.000000e+00	0.000000e+00	2.561515e+003	0.000000e+00	0	0	66.667	66.667
4	Ethylene	0.000	0	0	0.000	Linear	0.000000e+00	0.000000e+00	0.000000e+00	0.000000e+00	0	0	0.000	0.000
5	Acetylene	0.000	0	0	0.000	Linear	0.000000e+00	0.000000e+00	0.000000e+00	0.000000e+00	0	0	0.000	0.000
6	Ethane	0.000	0	0	0.000	Linear	0.000000e+00	0.000000e+00	0.000000e+00	0.000000e+00	0	0	0.000	0.000

[Compound Results(Ch2)]
# of IDs	5
ID#	Name	R.Time	Area	Height	Conc.	Curve	3rd	2nd	1st	Constant	Area Ratio	Height Ratio	Conc. %	Norm Conc.
1	Hydrogen	0.000	0	0	0.000	Linear	0.000000e+00	0.000000e+00	0.000000e+00	0.000000e+00	0	0	0.000	0.000
2	Oxygen	0.000	0	0	0.000	Linear	0.000000e+00	0.000000e+00	0.000000e+00	0.000000e+00	0	0	0.000	0.000
3	Nitrogen	0.000	0	0	0.000	Linear	0.000000e+00	0.000000e+00	0.000000e+00	0.000000e+00	0	0	0.000	0.000
4	Methane	0.000	0	0	0.000	Linear	0.000000e+00	0.000000e+00	0.000000e+00	0.000000e+00	0	0	0.000	0.000
5	Carbon Monoxide	0.000	0	0	0.000	Linear	0.000000e+00	0.000000e+00	0.000000e+00	0.000000e+00	0	0	0.000	0.000

[Compound Results(Ch3)]
# of IDs	2
ID#	Name	R.Time	Area	Height	Conc.	Curve	3rd	2nd	1st	Constant	Area Ratio	Height Ratio	Conc. %	Norm Conc.
1	N2O	2.891	25828	5253	1.000	Linear	0.000000e+00	0.000000e+00	2.582799e+004	0.000000e+00	0	0	100.000	100.000
2	SF6	0.000	0	0	0.000	Linear	0.000000e+00	0.000000e+00	0.000000e+00	0.000000e+00	0	0	0.000	0.000

[Group Results(Ch1)]
# of Groups	0

[Group Results(Ch2)]
# of Groups	0

[Group Results(Ch3)]
# of Groups	0

[Chromatogram (Ch1)]
Interval(msec)	220
# of Points	1091
Start Time(min)	0.002
End Time(min)	3.998
R.Time (min)	Intensity
0.00167	13
0.00533	20
0.00900	25
0.01267	28
0.01633	29
0.02000	24
0.02367	21
0.02733	21
0.03100	23
0.03467	24
0.03833	23
0.04200	17
0.04567	9
0.04933	3
0.05300	2
0.05667	6
0.06033	10
0.06400	11
0.06767	10
0.07133	10
0.07500	12
0.07867	19
0.08233	24
0.08600	29
0.08967	31
0.09333	31
0.09700	30
0.10067	23
0.10433	12
0.10800	1
0.11167	-4
0.11533	-8
0.11900	-12
0.12267	-15
0.12633	-14
0.13000	-14
0.13367	-11
0.13733	-5
0.14100	-1
0.14467	1
0.14833	2
0.15200	-1
0.15567	-4
0.15933	-0
0.16300	3
0.16667	7
0.17033	9
0.17400	8
0.17767	6
0.18133	6
0.18500	5
0.18867	0
0.19233	-4
0.19600	-6
0.19967	-3
0.20333	1
0.20700	2
0.21067	0
0.21433	-0
0.21800	2
0.22167	4
0.22533	2
0.22900	-2
0.23267	-8
0.23633	-12
0.24000	-14
0.24367	-12
0.24733	-7
0.25100	-6
0.25467	-9
0.25833	-12
0.26200	-12
0.26567	-13
0.26933	-12
0.27300	-9
0.27667	-5
0.28033	-0
0.28400	3
0.28767	5
0.29133	6
0.29500	8
0.29867	5
0.30233	-1
0.30600	-8
0.30967	-10
0.31333	-7
0.31700	-3
0.32067	-4
0.32433	-9
0.32800	-15
0.33167	-19
0.33533	-20
0.33900	-18
0.34267	-12
0.34633	-5
0.35000	-1
0.35367	1
0.35733	1
0.36100	-2
0.36467	-4
0.36833	-5
0.37200	-4
0.37567	-6
0.37933	-8
0.38300	-10
0.38667	-14
0.39033	-20
0.39400	-25
0.39767	-31
0.40133	-32
0.40500	-30
0.40867	-26
0.41233	-19
0.41600	-14
0.41967	-11
0.42333	-10
0.42700	-12
0.43067	-13
0.43433	-18
0.43800	-25
0.44167	-31
0.44533	-34
0.44900	-36
0.45267	-34
0.45633	-30
0.46000	-28
0.46367	-30
0.46733	-31
0.47100	-29
0.47467	-27
0.47833	-25
0.48200	-23
0.48567	-23
0.48933	-25
0.49300	-26
0.49667	-23
0.50033	-19
0.50400	-17
0.50767	-16
0.51133	-17
0.51500	-22
0.51867	-26
0.52233	-30
0.52600	-31
0.52967	-31
0.53333	-28
0.53700	-26
0.54067	-30
0.54433	-34
0.54800	-36
0.55167	-35
0.55533	-31
0.55900	-26
0.56267	-24
0.56633	-24
0.57000	-24
0.57367	-23
0.57733	-20
0.58100	-19
0.58467	-20
0.58833	-21
0.59200	-23
0.59567	-29
0.59933	-37
0.60300	-45
0.60667	-50
0.61033	-53
0.61400	-55
0.61767	-56
0.62133	-57
0.62500	-56
0.62867	-58
0.63233	-64
0.63600	-72
0.63967	-76
0.64333	-75
0.64700	-70
0.65067	-65
0.65433	-61
0.65800	-59
0.66167	-56
0.66533	-51
0.66900	-46
0.67267	-45
0.67633	-46
0.68000	-48
0.68367	-52
0.68733	-54
0.69100	-56
0.69467	-61
0.69833	-64
0.70200	-62
0.70567	-59
0.70933	-57
0.71300	-56
0.71667	-56
0.72033	-59
0.72400	-62
0.72767	-62
0.73133	-60
0.73500	-58
0.73867	-53
0.74233	-46
0.74600	-36
0.74967	-28
0.75333	-26
0.75700	-34
0.76067	-47
0.76433	-61
0.76800	-72
0.77167	-77
0.77533	-74
0.77900	-68
0.78267	-63
0.78633	-58
0.79000	-54
0.79367	-57
0.79733	-65
0.80100	-74
0.80467	-80
0.80833	-83
0.81200	-83
0.81567	-79
0.81933	-71
0.82300	-62
0.82667	-55
0.83033	-51
0.83400	-51
0.83767	-53
0.84133	-55
0.84500	-55
0.84867	-56
0.85233	-58
0.85600	-62
0.85967	-67
0.86333	-70
0.86700	-71
0.87067	-68
0.87433	-64
0.87800	-60
0.88167	-57
0.88533	-57
0.88900	-62
0.89267	-69
0.89633	-75
0.90000	-77
0.90367	-79
0.90733	-79
0.91100	-78
0.91467	-79
0.91833	-82
0.92200	-88
0.92567	-90
0.92933	-87
0.93300	-81
0.93667	-77
0.94033	-76
0.94400	-77
0.94767	-82
0.95133	-89
0.95500	-96
0.95867	-101
0.96233	-105
0.96600	-108
0.96967	-108
0.97333	-104
0.97700	-96
0.98067	-88
0.98433	-82
0.98800	-80
0.99167	-80
0.99533	-79
0.99900	-81
1.00267	-86
1.00633	-91
1.01000	-93
1.01367	-94
1.01733	-95
1.02100	-94
1.02467	-91
1.02833	-87
1.03200	-81
1.03567	-76
1.03933	-74
1.04300	-74
1.04667	-73
1.05033	-74
1.05400	-74
1.05767	-76
1.06133	-77
1.06500	-77
1.06867	-80
1.07233	-82
1.07600	-83
1.07967	-86
1.08333	-91
1.08700	-90
1.09067	-83
1.09433	-80
1.09800	-81
1.10167	-85
1.10533	-89
1.10900	-89
1.11267	-87
1.11633	-86
1.12000	-90
1.12367	-101
1.12733	-115
1.13100	-121
1.13467	-119
1.13833	-111
1.14200	-105
1.14567	-104
1.14933	-104
1.15300	-100
1.15667	-92
1.16033	-82
1.16400	-77
1.16767	-77
1.17133	-83
1.17500	-88
1.17867	-94
1.18233	-98
1.18600	-98
1.18967	-99
1.19333	-98
1.19700	-93
1.20067	-86
1.20433	-80
1.20800	-78
1.21167	-77
1.21533	-78
1.21900	-82
1.22267	-89
1.22633	-99
1.23000	-109
1.23367	-116
1.23733	-119
1.24100	-117
1.24467	-112
1.24833	-107
1.25200	-99
1.25567	-91
1.25933	-84
1.26300	-83
1.26667	-86
1.27033	-84
1.27400	-80
1.27767	-81
1.28133	-88
1.28500	-97
1.28867	-102
1.29233	-104
1.29600	-110
1.29967	-116
1.30333	-119
1.30700	-118
1.31067	-114
1.31433	-114
1.31800	-115
1.32167	-115
1.32533	-115
1.32900	-116
1.33267	-116
1.33633	-117
1.34000	-118
1.34367	-117
1.34733	-113
1.35100	-110
1.35467	-111
1.35833	-115
1.36200	-118
1.36567	-117
1.36933	-115
1.37300	-114
1.37667	-113
1.38033	-110
1.38400	-107
1.38767	-104
1.39133	-102
1.39500	-101
1.39867	-102
1.40233	-105
1.40600	-107
1.40967	-111
1.41333	-117
1.41700	-122
1.42067	-124
1.42433	-124
1.42800	-121
1.43167	-118
1.43533	-115
1.43900	-108
1.44267	-72
1.44633	52
1.45000	290
1.45367	644
1.45733	1158
1.46100	1817
1.46467	2512
1.46833	3128
1.47200	3604
1.47567	3911
1.47933	4014
1.48300	3884
1.48667	3525
1.49033	3002
1.49400	2417
1.49767	1862
1.50133	1391
1.50500	1016
1.50867	729
1.51233	514
1.51600	357
1.51967	243
1.52333	161
1.52700	103
1.53067	62
1.53433	35
1.53800	19
1.54167	25
1.54533	102
1.54900	314
1.55267	670
1.55633	1108
1.56000	1537
1.56367	1890
1.56733	2133
1.57100	2242
1.57467	2185
1.57833	1962
1.58200	1620
1.58567	1238
1.58933	880
1.59300	587
1.59667	366
1.60033	209
1.60400	102
1.60767	30
1.61133	-17
1.61500	-47
1.61867	-65
1.62233	-76
1.62600	-87
1.62967	-97
1.63333	-103
1.63700	-106
1.64067	-108
1.64433	-109
1.64800	-113
1.65167	-116
1.65533	-118
1.65900	-116
1.66267	-110
1.66633	-107
1.67000	-109
1.67367	-115
1.67733	-123
1.68100	-130
1.68467	-133
1.68833	-133
1.69200	-133
1.69567	-135
1.69933	-140
1.70300	-145
1.70667	-149
1.71033	-153
1.71400	-160
1.71767	-164
1.72133	-163
1.72500	-159
1.72867	-152
1.73233	-147
1.73600	-145
1.73967	-144
1.74333	-141
1.74700	-137
1.75067	-134
1.75433	-133
1.75800	-136
1.76167	-139
1.76533	-140
1.76900	-140
1.77267	-139
1.77633	-135
1.78000	-131
1.78367	-127
1.78733	-127
1.79100	-131
1.79467	-137
1.79833	-140
1.80200	-142
1.80567	-142
1.80933	-144
1.81300	-146
1.81667	-148
1.82033	-146
1.82400	-139
1.82767	-131
1.83133	-129
1.83500	-132
1.83867	-135
1.84233	-138
1.84600	-142
1.84967	-150
1.85333	-158
1.85700	-164
1.86067	-168
1.86433	-170
1.86800	-169
1.87167	-161
1.87533	-151
1.87900	-142
1.88267	-134
1.88633	-127
1.89000	-123
1.89367	-126
1.89733	-134
1.90100	-142
1.90467	-147
1.90833	-150
1.91200	-150
1.91567	-152
1.91933	-153
1.92300	-152
1.92667	-148
1.93033	-142
1.93400	-136
1.93767	-133
1.94133	-134
1.94500	-140
1.94867	-144
1.95233	-141
1.95600	-124
1.95967	-31
1.96333	462
1.96700	2645
1.97067	10130
1.97433	29807
1.97800	70023
1.98167	135125
1.98533	220324
1.98900	312302
1.99267	395310
1.99633	455801
2.00000	484804
2.00367	478616
2.00733	440043
2.01100	378278
2.01467	306068
2.01833	235298
2.02200	173840
2.02567	124907
2.02933	88286
2.03300	62026
2.03667	43720
2.04033	31175
2.04400	22649
2.04767	16860
2.05133	12904
2.05500	10165
2.05867	8234
2.06233	6847
2.06600	5826
2.06967	5054
2.07333	4458
2.07700	3983
2.08067	3597
2.08433	3280
2.08800	3016
2.09167	2792
2.09533	2603
2.09900	2439
2.10267	2292
2.10633	2157
2.11000	2032
2.11367	1919
2.11733	1819
2.12100	1730
2.12467	1645
2.12833	1560
2.13200	1480
2.13567	1410
2.13933	1348
2.14300	1293
2.14667	1240
2.15033	1189
2.15400	1136
2.15767	1089
2.16133	1050
2.16500	1019
2.16867	995
2.17233	972
2.17600	949
2.17967	922
2.18333	895
2.18700	870
2.19067	845
2.19433	821
2.19800	796
2.20167	773
2.20533	755
2.20900	737
2.21267	718
2.21633	699
2.22000	677
2.22367	649
2.22733	621
2.23100	598
2.23467	579
2.23833	562
2.24200	547
2.24567	534
2.24933	523
2.25300	513
2.25667	507
2.26033	500
2.26400	491
2.26767	481
2.27133	469
2.27500	459
2.27867	448
2.28233	439
2.28600	431
2.28967	427
2.29333	425
2.29700	423
2.30067	417
2.30433	407
2.30800	390
2.31167	371
2.31533	354
2.31900	340
2.32267	331
2.32633	330
2.33000	334
2.33367	337
2.33733	339
2.34100	334
2.34467	326
2.34833	316
2.35200	308
2.35567	303
2.35933	299
2.36300	295
2.36667	291
2.37033	288
2.37400	284
2.37767	279
2.38133	274
2.38500	271
2.38867	269
2.39233	269
2.39600	268
2.39967	265
2.40333	258
2.40700	251
2.41067	247
2.41433	246
2.41800	245
2.42167	243
2.42533	240
2.42900	235
2.43267	227
2.43633	217
2.44000	208
2.44367	202
2.44733	202
2.45100	206
2.45467	208
2.45833	210
2.46200	207
2.46567	203
2.46933	201
2.47300	200
2.47667	199
2.48033	198
2.48400	195
2.48767	192
2.49133	186
2.49500	178
2.49867	168
2.50233	159
2.50600	157
2.50967	159
2.51333	165
2.51700	171
2.52067	174
2.52433	173
2.52800	170
2.53167	167
2.53533	164
2.53900	161
2.54267	160
2.54633	160
2.55000	161
2.55367	159
2.55733	154
2.56100	151
2.56467	153
2.56833	152
2.57200	148
2.57567	147
2.57933	148
2.58300	147
2.58667	147
2.59033	145
2.59400	139
2.59767	131
2.60133	126
2.60500	124
2.60867	122
2.61233	118
2.61600	111
2.61967	103
2.62333	98
2.62700	96
2.63067	95
2.63433	96
2.63800	98
2.64167	102
2.64533	107
2.64900	110
2.65267	109
2.65633	102
2.66000	94
2.66367	86
2.66733	85
2.67100	89
2.67467	92
2.67833	97
2.68200	99
2.68567	98
2.68933	93
2.69300	90
2.69667	94
2.70033	98
2.70400	98
2.70767	95
2.71133	90
2.71500	88
2.71867	86
2.72233	86
2.72600	90
2.72967	93
2.73333	95
2.73700	96
2.74067	98
2.74433	100
2.74800	99
2.75167	96
2.75533	93
2.75900	90
2.76267	84
2.76633	73
2.77000	62
2.77367	51
2.77733	45
2.78100	43
2.78467	47
2.78833	53
2.79200	57
2.79567	59
2.79933	58
2.80300	54
2.80667	50
2.81033	48
2.81400	47
2.81767	46
2.82133	44
2.82500	45
2.82867	49
2.83233	50
2.83600	46
2.83967	41
2.84333	36
2.84700	35
2.85067	38
2.85433	45
2.85800	51
2.86167	53
2.86533	51
2.86900	46
2.87267	42
2.87633	40
2.88000	41
2.88367	41
2.88733	44
2.89100	49
2.89467	50
2.89833	45
2.90200	39
2.90567	34
2.90933	34
2.91300	34
2.91667	30
2.92033	23
2.92400	17
2.92767	14
2.93133	16
2.93500	21
2.93867	28
2.94233	29
2.94600	26
2.94967	21
2.95333	18
2.95700	17
2.96067	18
2.96433	20
2.96800	21
2.97167	21
2.97533	18
2.97900	17
2.98267	21
2.98633	29
2.99000	36
2.99367	40
2.99733	42
3.00100	42
3.00467	43
3.00833	47
3.01200	50
3.01567	53
3.01933	51
3.02300	46
3.02667	42
3.03033	43
3.03400	45
3.03767	47
3.04133	45
3.04500	43
3.04867	39
3.05233	35
3.05600	32
3.05967	29
3.06333	23
3.06700	17
3.07067	12
3.07433	10
3.07800	11
3.08167	14
3.08533	13
3.08900	11
3.09267	9
3.09633	7
3.10000	6
3.10367	9
3.10733	16
3.11100	20
3.11467	20
3.11833	17
3.12200	13
3.12567	7
3.12933	2
3.13300	-0
3.13667	2
3.14033	6
3.14400	10
3.14767	9
3.15133	5
3.15500	0
3.15867	-5
3.16233	-6
3.16600	-4
3.16967	2
3.17333	5
3.17700	5
3.18067	3
3.18433	-0
3.18800	-1
3.19167	-2
3.19533	-3
3.19900	-4
3.20267	-4
3.20633	-4
3.21000	-5
3.21367	-8
3.21733	-10
3.22100	-9
3.22467	-8
3.22833	-7
3.23200	-7
3.23567	-7
3.23933	-3
3.24300	2
3.24667	5
3.25033	4
3.25400	-0
3.25767	-4
3.26133	-6
3.26500	-7
3.26867	-7
3.27233	-5
3.27600	-2
3.27967	2
3.28333	4
3.28700	4
3.29067	2
3.29433	-3
3.29800	-9
3.30167	-12
3.30533	-12
3.30900	-11
3.31267	-12
3.31633	-16
3.32000	-21
3.32367	-25
3.32733	-30
3.33100	-32
3.33467	-28
3.33833	-20
3.34200	-11
3.34567	-5
3.34933	-2
3.35300	-5
3.35667	-12
3.36033	-19
3.36400	-26
3.36767	-31
3.37133	-34
3.37500	-37
3.37867	-39
3.38233	-39
3.38600	-38
3.38967	-36
3.39333	-32
3.39700	-29
3.40067	-29
3.40433	-31
3.40800	-30
3.41167	-26
3.41533	-21
3.41900	-17
3.42267	-16
3.42633	-17
3.43000	-15
3.43367	-11
3.43733	-11
3.44100	-15
3.44467	-22
3.44833	-27
3.45200	-28
3.45567	-28
3.45933	-29
3.46300	-34
3.46667	-40
3.47033	-44
3.47400	-46
3.47767	-46
3.48133	-49
3.48500	-51
3.48867	-49
3.49233	-43
3.49600	-41
3.49967	-43
3.50333	-43
3.50700	-39
3.51067	-33
3.51433	-31
3.51800	-33
3.52167	-37
3.52533	-37
3.52900	-36
3.53267	-36
3.53633	-37
3.54000	-39
3.54367	-42
3.54733	-44
3.55100	-48
3.55467	-53
3.55833	-52
3.56200	-48
3.56567	-41
3.56933	-35
3.57300	-29
3.57667	-29
3.58033	-37
3.58400	-46
3.58767	-53
3.59133	-57
3.59500	-58
3.59867	-55
3.60233	-49
3.60600	-47
3.60967	-50
3.61333	-57
3.61700	-62
3.62067	-65
3.62433	-66
3.62800	-64
3.63167	-61
3.63533	-55
3.63900	-51
3.64267	-48
3.64633	-46
3.65000	-46
3.65367	-47
3.65733	-48
3.66100	-47
3.66467	-45
3.66833	-41
3.67200	-42
3.67567	-49
3.67933	-56
3.68300	-64
3.68667	-66
3.69033	-64
3.69400	-62
3.69767	-59
3.70133	-56
3.70500	-55
3.70867	-55
3.71233	-56
3.71600	-59
3.71967	-62
3.72333	-64
3.72700	-66
3.73067	-69
3.73433	-69
3.73800	-67
3.74167	-66
3.74533	-65
3.74900	-65
3.75267	-63
3.75633	-63
3.76000	-67
3.76367	-74
3.76733	-82
3.77100	-85
3.77467	-85
3.77833	-83
3.78200	-78
3.78567	-74
3.78933	-74
3.79300	-75
3.79667	-75
3.80033	-75
3.80400	-76
3.80767	-77
3.81133	-77
3.81500	-75
3.81867	-75
3.82233	-76
3.82600	-76
3.82967	-74
3.83333	-69
3.83700	-62
3.84067	-55
3.84433	-50
3.84800	-47
3.85167	-44
3.85533	-45
3.85900	-48
3.86267	-54
3.86633	-61
3.87000	-66
3.87367	-72
3.87733	-75
3.88100	-77
3.88467	-80
3.88833	-79
3.89200	-75
3.89567	-71
3.89933	-67
3.90300	-61
3.90667	-53
3.91033	-47
3.91400	-46
3.91767	-48
3.92133	-53
3.92500	-63
3.92867	-73
3.93233	-80
3.93600	-84
3.93967	-84
3.94333	-85
3.94700	-86
3.95067	-88
3.95433	-89
3.95800	-88
3.96167	-82
3.96533	-79
3.96900	-81
3.97267	-87
3.97633	-95
3.98000	-100
3.98367	-98
3.98733	-92
3.99100	-82
3.99467	-73
3.99833	-65

[Chromatogram (Ch2)]
Interval(msec)	220
# of Points	1091
Start Time(min)	0.002
End Time(min)	3.998
R.Time (min)	Intensity
0.00167	0
0.00533	0
0.00900	0
0.01267	0
0.01633	0
0.02000	0
0.02367	0
0.02733	0
0.03100	0
0.03467	0
0.03833	0
0.04200	1
0.04567	1
0.04933	1
0.05300	1
0.05667	0
0.06033	0
0.06400	0
0.06767	-0
0.07133	-0
0.07500	-0
0.07867	-0
0.08233	-0
0.08600	-0
0.08967	-0
0.09333	-0
0.09700	-1
0.10067	-1
0.10433	-1
0.10800	-1
0.11167	-1
0.11533	-1
0.11900	-1
0.12267	-1
0.12633	-1
0.13000	-1
0.13367	-1
0.13733	-1
0.14100	-1
0.14467	-1
0.14833	-0
0.15200	-0
0.15567	-0
0.15933	-0
0.16300	-0
0.16667	-1
0.17033	-1
0.17400	-1
0.17767	-1
0.18133	-1
0.18500	-1
0.18867	-1
0.19233	-1
0.19600	-1
0.19967	-1
0.20333	-0
0.20700	-0
0.21067	0
0.21433	1
0.21800	1
0.22167	1
0.22533	1
0.22900	1
0.23267	1
0.23633	1
0.24000	1
0.24367	1
0.24733	0
0.25100	0
0.25467	-0
0.25833	-0
0.26200	-1
0.26567	-1
0.26933	-1
0.27300	-1
0.27667	-1
0.28033	-0
0.28400	-0
0.28767	-0
0.29133	-0
0.29500	-0
0.29867	0
0.30233	-0
0.30600	-0
0.30967	-0
0.31333	-0
0.31700	-0
0.32067	-0
0.32433	-0
0.32800	-0
0.33167	-0
0.33533	-1
0.33900	-1
0.34267	-1
0.34633	-1
0.35000	-1
0.35367	-1
0.35733	-1
0.36100	-1
0.36467	-1
0.36833	-1
0.37200	-1
0.37567	-1
0.37933	-1
0.38300	-1
0.38667	-1
0.39033	-1
0.39400	-1
0.39767	-1
0.40133	-1
0.40500	-1
0.40867	-1
0.41233	-1
0.41600	-1
0.41967	-0
0.42333	0
0.42700	0
0.43067	0
0.43433	0
0.43800	1
0.44167	1
0.44533	1
0.44900	1
0.45267	1
0.45633	1
0.46000	0
0.46367	0
0.46733	0
0.47100	-0
0.47467	-0
0.47833	-0
0.48200	-0
0.48567	-0
0.48933	-1
0.49300	-1
0.49667	-1
0.50033	-1
0.50400	-2
0.50767	-2
0.51133	-2
0.51500	-2
0.51867	-2
0.52233	-2
0.52600	-2
0.52967	-2
0.53333	-1
0.53700	-1
0.54067	-1
0.54433	-1
0.54800	-1
0.55167	-1
0.55533	-1
0.55900	-1
0.56267	-1
0.56633	-1
0.57000	-1
0.57367	-1
0.57733	-1
0.58100	-1
0.58467	-1
0.58833	-1
0.59200	-1
0.59567	-1
0.59933	-1
0.60300	-0
0.60667	-0
0.61033	-0
0.61400	0
0.61767	0
0.62133	0
0.62500	0
0.62867	0
0.63233	0
0.63600	0
0.63967	-0
0.64333	-0
0.64700	-1
0.65067	-1
0.65433	-2
0.65800	-2
0.66167	-2
0.66533	-2
0.66900	-2
0.67267	-2
0.67633	-2
0.68000	-2
0.68367	-1
0.68733	-1
0.69100	-1
0.69467	-1
0.69833	-1
0.70200	-0
0.70567	-0
0.70933	-0
0.71300	-0
0.71667	-0
0.72033	-0
0.72400	-0
0.72767	-0
0.73133	-1
0.73500	-1
0.73867	-1
0.74233	-1
0.74600	-1
0.74967	-1
0.75333	-1
0.75700	-1
0.76067	-1
0.76433	-1
0.76800	-1
0.77167	-1
0.77533	-1
0.77900	-1
0.78267	-1
0.78633	-1
0.79000	-1
0.79367	-1
0.79733	-1
0.80100	-1
0.80467	-1
0.80833	-1
0.81200	-1
0.81567	-1
0.81933	-1
0.82300	-1
0.82667	-1
0.83033	-2
0.83400	-2
0.83767	-2
0.84133	-2
0.84500	-2
0.84867	-2
0.85233	-2
0.85600	-2
0.85967	-2
0.86333	-2
0.86700	-2
0.87067	-2
0.87433	-2
0.87800	-2
0.88167	-2
0.88533	-2
0.88900	-2
0.89267	-2
0.89633	-2
0.90000	-2
0.90367	-2
0.90733	-2
0.91100	-2
0.91467	-2
0.91833	-2
0.92200	-2
0.92567	-2
0.92933	-2
0.93300	-1
0.93667	-1
0.94033	-1
0.94400	-1
0.94767	-1
0.95133	-1
0.95500	-1
0.95867	-2
0.96233	-2
0.96600	-2
0.96967	-1
0.97333	-1
0.97700	-1
0.98067	-1
0.98433	-1
0.98800	-1
0.99167	-1
0.99533	-2
0.99900	-2
1.00267	-2
1.00633	-2
1.01000	-2
1.01367	-2
1.01733	-2
1.02100	-3
1.02467	-3
1.02833	-3
1.03200	-3
1.03567	-3
1.03933	-3
1.04300	-3
1.04667	-2
1.05033	-2
1.05400	-2
1.05767	-2
1.06133	-2
1.06500	-2
1.06867	-1
1.07233	-1
1.07600	-1
1.07967	-1
1.08333	-1
1.08700	-1
1.09067	-1
1.09433	-1
1.09800	-1
1.10167	-1
1.10533	-1
1.10900	-1
1.11267	-1
1.11633	-1
1.12000	-1
1.12367	-2
1.12733	-2
1.13100	-2
1.13467	-2
1.13833	-2
1.14200	-2
1.14567	-3
1.14933	-3
1.15300	-3
1.15667	-3
1.16033	-3
1.16400	-3
1.16767	-2
1.17133	-2
1.17500	-2
1.17867	-2
1.18233	-2
1.18600	-2
1.18967	-2
1.19333	-2
1.19700	-2
1.20067	-2
1.20433	-2
1.20800	-2
1.21167	-2
1.21533	-2
1.21900	-2
1.22267	-2
1.22633	-2
1.23000	-2
1.23367	-2
1.23733	-2
1.24100	-3
1.24467	-3
1.24833	-3
1.25200	-3
1.25567	-3
1.25933	-3
1.26300	-3
1.26667	-3
1.27033	-4
1.27400	-4
1.27767	-4
1.28133	-4
1.28500	-3
1.28867	-3
1.29233	-3
1.29600	-3
1.29967	-2
1.30333	-2
1.30700	-2
1.31067	-2
1.31433	-2
1.31800	-2
1.32167	-2
1.32533	-2
1.32900	-2
1.33267	-2
1.33633	-2
1.34000	-2
1.34367	-2
1.34733	-2
1.35100	-2
1.35467	-2
1.35833	-2
1.36200	-2
1.36567	-2
1.36933	-2
1.37300	-3
1.37667	-3
1.38033	-3
1.38400	-3
1.38767	-3
1.39133	-3
1.39500	-4
1.39867	-4
1.40233	-4
1.40600	-4
1.40967	-4
1.41333	-4
1.41700	-5
1.42067	-5
1.42433	-4
1.42800	-4
1.43167	-4
1.43533	-4
1.43900	-4
1.44267	-3
1.44633	-3
1.45000	-3
1.45367	-3
1.45733	-3
1.46100	-3
1.46467	-3
1.46833	-3
1.47200	-2
1.47567	-2
1.47933	-2
1.48300	-2
1.48667	-2
1.49033	-2
1.49400	-2
1.49767	-2
1.50133	-2
1.50500	-2
1.50867	-3
1.51233	-3
1.51600	-3
1.51967	-3
1.52333	-3
1.52700	-3
1.53067	-3
1.53433	-3
1.53800	-3
1.54167	-3
1.54533	-3
1.54900	-3
1.55267	-3
1.55633	-2
1.56000	-2
1.56367	-2
1.56733	-2
1.57100	-3
1.57467	-3
1.57833	-3
1.58200	-3
1.58567	-3
1.58933	-3
1.59300	-3
1.59667	-3
1.60033	-4
1.60400	-5
1.60767	-7
1.61133	-9
1.61500	-11
1.61867	-13
1.62233	-15
1.62600	-18
1.62967	-20
1.63333	-24
1.63700	-27
1.64067	-31
1.64433	-34
1.64800	-38
1.65167	-42
1.65533	-46
1.65900	-49
1.66267	-53
1.66633	-56
1.67000	-61
1.67367	-65
1.67733	-70
1.68100	-74
1.68467	-79
1.68833	-83
1.69200	-88
1.69567	-91
1.69933	-94
1.70300	-97
1.70667	-99
1.71033	-101
1.71400	-103
1.71767	-105
1.72133	-106
1.72500	-107
1.72867	-109
1.73233	-110
1.73600	-111
1.73967	-111
1.74333	-112
1.74700	-112
1.75067	-112
1.75433	-112
1.75800	-112
1.76167	-112
1.76533	-112
1.76900	-111
1.77267	-112
1.77633	-112
1.78000	-113
1.78367	-114
1.78733	-115
1.79100	-116
1.79467	-117
1.79833	-118
1.80200	-119
1.80567	-120
1.80933	-120
1.81300	-120
1.81667	-119
1.82033	-118
1.82400	-117
1.82767	-117
1.83133	-117
1.83500	-116
1.83867	-116
1.84233	-116
1.84600	-116
1.84967	-116
1.85333	-117
1.85700	-117
1.86067	-117
1.86433	-117
1.86800	-118
1.87167	-118
1.87533	-118
1.87900	-119
1.88267	-119
1.88633	-118
1.89000	-118
1.89367	-118
1.89733	-118
1.90100	-118
1.90467	-118
1.90833	-118
1.91200	-117
1.91567	-117
1.91933	-116
1.92300	-116
1.92667	-115
1.93033	-115
1.93400	-115
1.93767	-116
1.94133	-116
1.94500	-116
1.94867	-116
1.95233	-116
1.95600	-115
1.95967	-115
1.96333	-115
1.96700	-114
1.97067	-114
1.97433	-113
1.97800	-113
1.98167	-113
1.98533	-113
1.98900	-112
1.99267	-112
1.99633	-111
2.00000	-110
2.00367	-110
2.00733	-109
2.01100	-109
2.01467	-109
2.01833	-109
2.02200	-109
2.02567	-109
2.02933	-109
2.03300	-109
2.03667	-109
2.04033	-109
2.04400	-109
2.04767	-110
2.05133	-109
2.05500	-109
2.05867	-108
2.06233	-107
2.06600	-106
2.06967	-106
2.07333	-105
2.07700	-105
2.08067	-105
2.08433	-105
2.08800	-105
2.09167	-105
2.09533	-104
2.09900	-104
2.10267	-104
2.10633	-105
2.11000	-105
2.11367	-105
2.11733	-105
2.12100	-105
2.12467	-104
2.12833	-103
2.13200	-103
2.13567	-102
2.13933	-102
2.14300	-102
2.14667	-101
2.15033	-101
2.15400	-101
2.15767	-101
2.16133	-101
2.16500	-101
2.16867	-101
2.17233	-100
2.17600	-100
2.17967	-99
2.18333	-98
2.18700	-98
2.19067	-97
2.19433	-97
2.19800	-96
2.20167	-96
2.20533	-96
2.20900	-96
2.21267	-96
2.21633	-96
2.22000	-95
2.22367	-95
2.22733	-94
2.23100	-93
2.23467	-93
2.23833	-92
2.24200	-93
2.24567	-93
2.24933	-94
2.25300	-94
2.25667	-94
2.26033	-93
2.26400	-93
2.26767	-92
2.27133	-91
2.27500	-90
2.27867	-89
2.28233	-88
2.28600	-88
2.28967	-87
2.29333	-87
2.29700	-88
2.30067	-88
2.30433	-88
2.30800	-88
2.31167	-88
2.31533	-88
2.31900	-88
2.32267	-88
2.32633	-87
2.33000	-86
2.33367	-85
2.33733	-84
2.34100	-83
2.34467	-83
2.34833	-82
2.35200	-82
2.35567	-82
2.35933	-81
2.36300	-80
2.36667	-79
2.37033	-77
2.37400	-75
2.37767	-72
2.38133	-69
2.38500	-66
2.38867	-63
2.39233	-59
2.39600	-56
2.39967	-52
2.40333	-48
2.40700	-44
2.41067	-41
2.41433	-37
2.41800	-34
2.42167	-30
2.42533	-27
2.42900	-24
2.43267	-21
2.43633	-18
2.44000	-15
2.44367	-12
2.44733	-10
2.45100	-9
2.45467	-7
2.45833	-6
2.46200	-5
2.46567	-4
2.46933	-3
2.47300	-1
2.47667	-0
2.48033	1
2.48400	3
2.48767	4
2.49133	5
2.49500	6
2.49867	7
2.50233	7
2.50600	8
2.50967	8
2.51333	9
2.51700	10
2.52067	10
2.52433	11
2.52800	12
2.53167	13
2.53533	13
2.53900	14
2.54267	14
2.54633	14
2.55000	15
2.55367	15
2.55733	16
2.56100	16
2.56467	16
2.56833	16
2.57200	16
2.57567	16
2.57933	16
2.58300	16
2.58667	16
2.59033	17
2.59400	17
2.59767	17
2.60133	17
2.60500	17
2.60867	17
2.61233	16
2.61600	17
2.61967	17
2.62333	17
2.62700	18
2.63067	18
2.63433	19
2.63800	19
2.64167	20
2.64533	20
2.64900	21
2.65267	21
2.65633	21
2.66000	21
2.66367	21
2.66733	21
2.67100	22
2.67467	22
2.67833	22
2.68200	23
2.68567	23
2.68933	23
2.69300	23
2.69667	23
2.70033	23
2.70400	23
2.70767	23
2.71133	23
2.71500	23
2.71867	23
2.72233	24
2.72600	24
2.72967	24
2.73333	25
2.73700	25
2.74067	25
2.74433	25
2.74800	26
2.75167	26
2.75533	26
2.75900	27
2.76267	26
2.76633	26
2.77000	26
2.77367	26
2.77733	26
2.78100	26
2.78467	26
2.78833	26
2.79200	26
2.79567	26
2.79933	26
2.80300	26
2.80667	27
2.81033	27
2.81400	27
2.81767	28
2.82133	28
2.82500	28
2.82867	28
2.83233	27
2.83600	27
2.83967	27
2.84333	27
2.84700	27
2.85067	27
2.85433	26
2.85800	25
2.86167	24
2.86533	21
2.86900	17
2.87267	11
2.87633	2
2.88000	-10
2.88367	-26
2.88733	-45
2.89100	-69
2.89467	-97
2.89833	-128
2.90200	-163
2.90567	-202
2.90933	-243
2.91300	-288
2.91667	-334
2.92033	-382
2.92400	-432
2.92767	-482
2.93133	-533
2.93500	-584
2.93867	-635
2.94233	-685
2.94600	-735
2.94967	-784
2.95333	-834
2.95700	-886
2.96067	-945
2.96433	-1005
2.96800	-1059
2.97167	-1094
2.97533	-1104
2.97900	-1088
2.98267	-1048
2.98633	-990
2.99000	-919
2.99367	-842
2.99733	-761
3.00100	-681
3.00467	-603
3.00833	-531
3.01200	-464
3.01567	-404
3.01933	-349
3.02300	-301
3.02667	-258
3.03033	-220
3.03400	-187
3.03767	-159
3.04133	-134
3.04500	-113
3.04867	-95
3.05233	-79
3.05600	-66
3.05967	-55
3.06333	-45
3.06700	-36
3.07067	-29
3.07433	-23
3.07800	-17
3.08167	-13
3.08533	-9
3.08900	-5
3.09267	-3
3.09633	-0
3.10000	2
3.10367	4
3.10733	5
3.11100	6
3.11467	7
3.11833	8
3.12200	9
3.12567	10
3.12933	10
3.13300	11
3.13667	11
3.14033	12
3.14400	12
3.14767	13
3.15133	14
3.15500	14
3.15867	14
3.16233	15
3.16600	15
3.16967	15
3.17333	16
3.17700	16
3.18067	16
3.18433	17
3.18800	17
3.19167	17
3.19533	18
3.19900	18
3.20267	18
3.20633	18
3.21000	18
3.21367	18
3.21733	18
3.22100	18
3.22467	18
3.22833	19
3.23200	19
3.23567	19
3.23933	20
3.24300	20
3.24667	20
3.25033	20
3.25400	21
3.25767	21
3.26133	21
3.26500	21
3.26867	21
3.27233	21
3.27600	22
3.27967	22
3.28333	22
3.28700	22
3.29067	22
3.29433	23
3.29800	23
3.30167	24
3.30533	24
3.30900	25
3.31267	25
3.31633	25
3.32000	26
3.32367	26
3.32733	26
3.33100	26
3.33467	26
3.33833	26
3.34200	26
3.34567	26
3.34933	26
3.35300	26
3.35667	26
3.36033	26
3.36400	26
3.36767	26
3.37133	26
3.37500	26
3.37867	26
3.38233	26
3.38600	26
3.38967	27
3.39333	27
3.39700	27
3.40067	27
3.40433	27
3.40800	26
3.41167	26
3.41533	26
3.41900	26
3.42267	26
3.42633	26
3.43000	26
3.43367	26
3.43733	26
3.44100	26
3.44467	26
3.44833	26
3.45200	25
3.45567	25
3.45933	25
3.46300	25
3.46667	25
3.47033	25
3.47400	25
3.47767	25
3.48133	25
3.48500	25
3.48867	25
3.49233	25
3.49600	26
3.49967	26
3.50333	26
3.50700	26
3.51067	26
3.51433	26
3.51800	26
3.52167	26
3.52533	26
3.52900	26
3.53267	26
3.53633	26
3.54000	26
3.54367	26
3.54733	26
3.55100	26
3.55467	26
3.55833	26
3.56200	26
3.56567	26
3.56933	27
3.57300	27
3.57667	26
3.58033	26
3.58400	26
3.58767	26
3.59133	26
3.59500	26
3.59867	25
3.60233	25
3.60600	25
3.60967	25
3.61333	26
3.61700	26
3.62067	26
3.62433	26
3.62800	26
3.63167	26
3.63533	26
3.63900	26
3.64267	26
3.64633	26
3.65000	26
3.65367	26
3.65733	26
3.66100	26
3.66467	26
3.66833	26
3.67200	26
3.67567	26
3.67933	26
3.68300	26
3.68667	26
3.69033	26
3.69400	26
3.69767	26
3.70133	26
3.70500	26
3.70867	26
3.71233	26
3.71600	25
3.71967	25
3.72333	25
3.72700	25
3.73067	25
3.73433	25
3.73800	25
3.74167	25
3.74533	25
3.74900	25
3.75267	25
3.75633	25
3.76000	25
3.76367	25
3.76733	25
3.77100	25
3.77467	25
3.77833	26
3.78200	26
3.78567	26
3.78933	26
3.79300	26
3.79667	26
3.80033	26
3.80400	26
3.80767	26
3.81133	26
3.81500	26
3.81867	26
3.82233	25
3.82600	25
3.82967	25
3.83333	25
3.83700	25
3.84067	25
3.84433	25
3.84800	25
3.85167	25
3.85533	25
3.85900	26
3.86267	26
3.86633	26
3.87000	26
3.87367	26
3.87733	26
3.88100	26
3.88467	26
3.88833	26
3.89200	26
3.89567	26
3.89933	26
3.90300	26
3.90667	26
3.91033	26
3.91400	26
3.91767	26
3.92133	26
3.92500	26
3.92867	25
3.93233	25
3.93600	25
3.93967	25
3.94333	25
3.94700	25
3.95067	26
3.95433	26
3.95800	26
3.96167	26
3.96533	26
3.96900	26
3.97267	26
3.97633	26
3.98000	26
3.98367	26
3.98733	26
3.99100	26
3.99467	26
3.99833	27

[Chromatogram (Ch3)]
Interval(msec)	220
# of Points	1091
Start Time(min)	0.002
End Time(min)	3.998
R.Time (min)	Intensity
0.00167	0
0.00533	-0
0.00900	-2
0.01267	-3
0.01633	-4
0.02000	-5
0.02367	-6
0.02733	-5
0.03100	-4
0.03467	-3
0.03833	-1
0.04200	-1
0.04567	-2
0.04933	-2
0.05300	-1
0.05667	-1
0.06033	-0
0.06400	-1
0.06767	-3
0.07133	-5
0.07500	-6
0.07867	-5
0.08233	-4
0.08600	-2
0.08967	2
0.09333	3
0.09700	1
0.10067	-0
0.10433	-3
0.10800	-5
0.11167	-4
0.11533	-4
0.11900	-4
0.12267	-2
0.12633	1
0.13000	3
0.13367	3
0.13733	1
0.14100	1
0.14467	2
0.14833	3
0.15200	3
0.15567	1
0.15933	1
0.16300	1
0.16667	-1
0.17033	-1
0.17400	-0
0.17767	-0
0.18133	-1
0.18500	0
0.18867	0
0.19233	1
0.19600	0
0.19967	1
0.20333	1
0.20700	1
0.21067	2
0.21433	4
0.21800	3
0.22167	2
0.22533	4
0.22900	5
0.23267	6
0.23633	6
0.24000	6
0.24367	6
0.24733	6
0.25100	6
0.25467	6
0.25833	6
0.26200	5
0.26567	2
0.26933	0
0.27300	-2
0.27667	-1
0.28033	-0
0.28400	1
0.28767	1
0.29133	3
0.29500	5
0.29867	4
0.30233	2
0.30600	2
0.30967	5
0.31333	7
0.31700	8
0.32067	8
0.32433	8
0.32800	9
0.33167	9
0.33533	8
0.33900	6
0.34267	4
0.34633	4
0.35000	7
0.35367	7
0.35733	8
0.36100	10
0.36467	10
0.36833	11
0.37200	12
0.37567	13
0.37933	15
0.38300	14
0.38667	12
0.39033	8
0.39400	6
0.39767	5
0.40133	4
0.40500	6
0.40867	7
0.41233	7
0.41600	9
0.41967	12
0.42333	14
0.42700	13
0.43067	9
0.43433	9
0.43800	10
0.44167	10
0.44533	10
0.44900	10
0.45267	11
0.45633	12
0.46000	13
0.46367	13
0.46733	11
0.47100	8
0.47467	7
0.47833	7
0.48200	6
0.48567	5
0.48933	5
0.49300	5
0.49667	7
0.50033	6
0.50400	6
0.50767	7
0.51133	10
0.51500	14
0.51867	15
0.52233	14
0.52600	13
0.52967	13
0.53333	12
0.53700	13
0.54067	15
0.54433	15
0.54800	15
0.55167	15
0.55533	17
0.55900	18
0.56267	20
0.56633	20
0.57000	20
0.57367	20
0.57733	21
0.58100	21
0.58467	23
0.58833	23
0.59200	19
0.59567	15
0.59933	15
0.60300	15
0.60667	17
0.61033	19
0.61400	19
0.61767	19
0.62133	17
0.62500	15
0.62867	17
0.63233	18
0.63600	18
0.63967	17
0.64333	17
0.64700	17
0.65067	18
0.65433	17
0.65800	16
0.66167	18
0.66533	19
0.66900	17
0.67267	15
0.67633	16
0.68000	17
0.68367	16
0.68733	12
0.69100	10
0.69467	11
0.69833	11
0.70200	12
0.70567	15
0.70933	19
0.71300	22
0.71667	22
0.72033	19
0.72400	16
0.72767	15
0.73133	16
0.73500	19
0.73867	22
0.74233	22
0.74600	19
0.74967	14
0.75333	12
0.75700	11
0.76067	12
0.76433	14
0.76800	15
0.77167	16
0.77533	15
0.77900	15
0.78267	16
0.78633	15
0.79000	16
0.79367	16
0.79733	15
0.80100	15
0.80467	17
0.80833	19
0.81200	20
0.81567	17
0.81933	15
0.82300	15
0.82667	14
0.83033	13
0.83400	11
0.83767	11
0.84133	12
0.84500	15
0.84867	16
0.85233	18
0.85600	20
0.85967	19
0.86333	18
0.86700	16
0.87067	14
0.87433	15
0.87800	14
0.88167	15
0.88533	15
0.88900	16
0.89267	19
0.89633	19
0.90000	21
0.90367	22
0.90733	23
0.91100	21
0.91467	20
0.91833	20
0.92200	23
0.92567	25
0.92933	25
0.93300	25
0.93667	24
0.94033	21
0.94400	18
0.94767	15
0.95133	14
0.95500	14
0.95867	15
0.96233	14
0.96600	13
0.96967	14
0.97333	13
0.97700	13
0.98067	13
0.98433	14
0.98800	15
0.99167	15
0.99533	16
0.99900	16
1.00267	15
1.00633	17
1.01000	18
1.01367	19
1.01733	19
1.02100	19
1.02467	18
1.02833	17
1.03200	15
1.03567	12
1.03933	13
1.04300	15
1.04667	16
1.05033	17
1.05400	18
1.05767	18
1.06133	20
1.06500	22
1.06867	22
1.07233	22
1.07600	24
1.07967	25
1.08333	23
1.08700	21
1.09067	20
1.09433	19
1.09800	17
1.10167	16
1.10533	17
1.10900	19
1.11267	21
1.11633	22
1.12000	22
1.12367	19
1.12733	18
1.13100	18
1.13467	19
1.13833	18
1.14200	15
1.14567	14
1.14933	14
1.15300	14
1.15667	15
1.16033	16
1.16400	16
1.16767	17
1.17133	19
1.17500	22
1.17867	23
1.18233	23
1.18600	23
1.18967	25
1.19333	24
1.19700	23
1.20067	23
1.20433	23
1.20800	22
1.21167	20
1.21533	20
1.21900	20
1.22267	20
1.22633	17
1.23000	15
1.23367	14
1.23733	12
1.24100	13
1.24467	15
1.24833	17
1.25200	19
1.25567	19
1.25933	15
1.26300	13
1.26667	13
1.27033	13
1.27400	13
1.27767	13
1.28133	16
1.28500	19
1.28867	18
1.29233	16
1.29600	14
1.29967	14
1.30333	12
1.30700	11
1.31067	11
1.31433	12
1.31800	13
1.32167	14
1.32533	13
1.32900	13
1.33267	13
1.33633	12
1.34000	11
1.34367	9
1.34733	10
1.35100	11
1.35467	12
1.35833	14
1.36200	15
1.36567	15
1.36933	16
1.37300	15
1.37667	15
1.38033	15
1.38400	15
1.38767	15
1.39133	12
1.39500	9
1.39867	9
1.40233	11
1.40600	14
1.40967	15
1.41333	16
1.41700	17
1.42067	17
1.42433	14
1.42800	12
1.43167	11
1.43533	10
1.43900	7
1.44267	8
1.44633	11
1.45000	12
1.45367	12
1.45733	12
1.46100	13
1.46467	13
1.46833	12
1.47200	12
1.47567	12
1.47933	9
1.48300	9
1.48667	12
1.49033	13
1.49400	12
1.49767	12
1.50133	12
1.50500	11
1.50867	9
1.51233	8
1.51600	8
1.51967	10
1.52333	13
1.52700	16
1.53067	15
1.53433	13
1.53800	11
1.54167	10
1.54533	9
1.54900	9
1.55267	8
1.55633	9
1.56000	11
1.56367	12
1.56733	12
1.57100	12
1.57467	11
1.57833	11
1.58200	11
1.58567	12
1.58933	11
1.59300	10
1.59667	10
1.60033	11
1.60400	12
1.60767	10
1.61133	8
1.61500	9
1.61867	10
1.62233	10
1.62600	12
1.62967	16
1.63333	17
1.63700	17
1.64067	17
1.64433	19
1.64800	19
1.65167	18
1.65533	17
1.65900	16
1.66267	16
1.66633	15
1.67000	14
1.67367	14
1.67733	13
1.68100	12
1.68467	11
1.68833	11
1.69200	13
1.69567	16
1.69933	15
1.70300	17
1.70667	19
1.71033	20
1.71400	21
1.71767	21
1.72133	20
1.72500	20
1.72867	21
1.73233	22
1.73600	22
1.73967	21
1.74333	21
1.74700	23
1.75067	25
1.75433	27
1.75800	29
1.76167	31
1.76533	31
1.76900	31
1.77267	29
1.77633	27
1.78000	26
1.78367	26
1.78733	28
1.79100	28
1.79467	29
1.79833	30
1.80200	29
1.80567	28
1.80933	27
1.81300	27
1.81667	27
1.82033	29
1.82400	33
1.82767	35
1.83133	37
1.83500	38
1.83867	39
1.84233	39
1.84600	34
1.84967	31
1.85333	30
1.85700	33
1.86067	37
1.86433	40
1.86800	45
1.87167	49
1.87533	50
1.87900	50
1.88267	47
1.88633	45
1.89000	46
1.89367	48
1.89733	48
1.90100	46
1.90467	45
1.90833	44
1.91200	43
1.91567	44
1.91933	42
1.92300	40
1.92667	40
1.93033	43
1.93400	44
1.93767	45
1.94133	46
1.94500	47
1.94867	48
1.95233	50
1.95600	51
1.95967	51
1.96333	51
1.96700	51
1.97067	55
1.97433	56
1.97800	54
1.98167	55
1.98533	58
1.98900	59
1.99267	60
1.99633	60
2.00000	60
2.00367	59
2.00733	58
2.01100	59
2.01467	60
2.01833	60
2.02200	60
2.02567	59
2.02933	63
2.03300	67
2.03667	71
2.04033	72
2.04400	72
2.04767	73
2.05133	75
2.05500	76
2.05867	74
2.06233	74
2.06600	76
2.06967	77
2.07333	76
2.07700	77
2.08067	76
2.08433	72
2.08800	74
2.09167	79
2.09533	82
2.09900	84
2.10267	85
2.10633	86
2.11000	86
2.11367	85
2.11733	86
2.12100	88
2.12467	91
2.12833	91
2.13200	90
2.13567	91
2.13933	90
2.14300	91
2.14667	92
2.15033	94
2.15400	97
2.15767	98
2.16133	99
2.16500	98
2.16867	99
2.17233	99
2.17600	100
2.17967	104
2.18333	105
2.18700	105
2.19067	105
2.19433	104
2.19800	105
2.20167	107
2.20533	110
2.20900	111
2.21267	113
2.21633	111
2.22000	111
2.22367	113
2.22733	115
2.23100	115
2.23467	116
2.23833	117
2.24200	119
2.24567	121
2.24933	120
2.25300	121
2.25667	124
2.26033	124
2.26400	123
2.26767	125
2.27133	127
2.27500	128
2.27867	127
2.28233	126
2.28600	126
2.28967	130
2.29333	135
2.29700	136
2.30067	138
2.30433	139
2.30800	139
2.31167	140
2.31533	140
2.31900	139
2.32267	140
2.32633	139
2.33000	138
2.33367	138
2.33733	140
2.34100	143
2.34467	146
2.34833	147
2.35200	146
2.35567	147
2.35933	148
2.36300	149
2.36667	150
2.37033	152
2.37400	153
2.37767	154
2.38133	155
2.38500	155
2.38867	153
2.39233	154
2.39600	155
2.39967	157
2.40333	159
2.40700	160
2.41067	162
2.41433	164
2.41800	167
2.42167	168
2.42533	168
2.42900	170
2.43267	171
2.43633	172
2.44000	175
2.44367	202
2.44733	271
2.45100	348
2.45467	404
2.45833	422
2.46200	413
2.46567	403
2.46933	395
2.47300	384
2.47667	365
2.48033	339
2.48400	312
2.48767	288
2.49133	267
2.49500	251
2.49867	242
2.50233	239
2.50600	244
2.50967	252
2.51333	257
2.51700	259
2.52067	255
2.52433	246
2.52800	233
2.53167	216
2.53533	201
2.53900	187
2.54267	172
2.54633	164
2.55000	158
2.55367	152
2.55733	149
2.56100	148
2.56467	148
2.56833	147
2.57200	148
2.57567	151
2.57933	152
2.58300	155
2.58667	158
2.59033	164
2.59400	172
2.59767	180
2.60133	189
2.60500	196
2.60867	200
2.61233	200
2.61600	194
2.61967	181
2.62333	161
2.62700	135
2.63067	105
2.63433	73
2.63800	40
2.64167	7
2.64533	-21
2.64900	-45
2.65267	-65
2.65633	-81
2.66000	-89
2.66367	-92
2.66733	-90
2.67100	-89
2.67467	-88
2.67833	-86
2.68200	-82
2.68567	-74
2.68933	-64
2.69300	-53
2.69667	-45
2.70033	-37
2.70400	-31
2.70767	-25
2.71133	-17
2.71500	-8
2.71867	0
2.72233	5
2.72600	12
2.72967	15
2.73333	17
2.73700	20
2.74067	23
2.74433	29
2.74800	34
2.75167	40
2.75533	46
2.75900	52
2.76267	55
2.76633	58
2.77000	61
2.77367	65
2.77733	70
2.78100	75
2.78467	81
2.78833	85
2.79200	90
2.79567	94
2.79933	102
2.80300	107
2.80667	109
2.81033	111
2.81400	115
2.81767	118
2.82133	119
2.82500	121
2.82867	127
2.83233	133
2.83600	143
2.83967	167
2.84333	219
2.84700	315
2.85067	483
2.85433	742
2.85800	1108
2.86167	1586
2.86533	2157
2.86900	2788
2.87267	3429
2.87633	4016
2.88000	4509
2.88367	4885
2.88733	5127
2.89100	5231
2.89467	5200
2.89833	5048
2.90200	4800
2.90567	4488
2.90933	4145
2.91300	3794
2.91667	3455
2.92033	3136
2.92400	2843
2.92767	2576
2.93133	2335
2.93500	2121
2.93867	1929
2.94233	1761
2.94600	1610
2.94967	1476
2.95333	1358
2.95700	1254
2.96067	1163
2.96433	1082
2.96800	1010
2.97167	949
2.97533	900
2.97900	861
2.98267	829
2.98633	800
2.99000	776
2.99367	755
2.99733	736
3.00100	721
3.00467	708
3.00833	700
3.01200	696
3.01567	691
3.01933	686
3.02300	684
3.02667	682
3.03033	678
3.03400	674
3.03767	670
3.04133	669
3.04500	666
3.04867	665
3.05233	668
3.05600	670
3.05967	670
3.06333	670
3.06700	669
3.07067	671
3.07433	673
3.07800	676
3.08167	678
3.08533	680
3.08900	682
3.09267	683
3.09633	685
3.10000	684
3.10367	685
3.10733	687
3.11100	689
3.11467	695
3.11833	698
3.12200	700
3.12567	702
3.12933	702
3.13300	702
3.13667	704
3.14033	707
3.14400	712
3.14767	715
3.15133	716
3.15500	717
3.15867	717
3.16233	718
3.16600	720
3.16967	721
3.17333	723
3.17700	725
3.18067	727
3.18433	729
3.18800	732
3.19167	731
3.19533	728
3.19900	730
3.20267	732
3.20633	731
3.21000	728
3.21367	725
3.21733	722
3.22100	722
3.22467	725
3.22833	726
3.23200	725
3.23567	724
3.23933	723
3.24300	722
3.24667	720
3.25033	718
3.25400	714
3.25767	712
3.26133	710
3.26500	707
3.26867	703
3.27233	699
3.27600	696
3.27967	694
3.28333	689
3.28700	685
3.29067	681
3.29433	677
3.29800	673
3.30167	668
3.30533	662
3.30900	657
3.31267	654
3.31633	652
3.32000	648
3.32367	642
3.32733	639
3.33100	637
3.33467	634
3.33833	631
3.34200	626
3.34567	623
3.34933	618
3.35300	614
3.35667	611
3.36033	609
3.36400	604
3.36767	600
3.37133	596
3.37500	593
3.37867	590
3.38233	587
3.38600	583
3.38967	579
3.39333	572
3.39700	568
3.40067	566
3.40433	563
3.40800	560
3.41167	558
3.41533	552
3.41900	545
3.42267	541
3.42633	536
3.43000	533
3.43367	528
3.43733	524
3.44100	523
3.44467	522
3.44833	518
3.45200	516
3.45567	513
3.45933	508
3.46300	506
3.46667	503
3.47033	501
3.47400	496
3.47767	491
3.48133	488
3.48500	485
3.48867	482
3.49233	481
3.49600	482
3.49967	482
3.50333	479
3.50700	475
3.51067	471
3.51433	466
3.51800	462
3.52167	461
3.52533	459
3.52900	456
3.53267	453
3.53633	450
3.54000	448
3.54367	446
3.54733	444
3.55100	442
3.55467	441
3.55833	439
3.56200	435
3.56567	432
3.56933	431
3.57300	429
3.57667	426
3.58033	423
3.58400	419
3.58767	415
3.59133	412
3.59500	410
3.59867	408
3.60233	409
3.60600	410
3.60967	409
3.61333	407
3.61700	403
3.62067	402
3.62433	401
3.62800	399
3.63167	394
3.63533	393
3.63900	391
3.64267	389
3.64633	389
3.65000	390
3.65367	388
3.65733	386
3.66100	384
3.66467	382
3.66833	379
3.67200	376
3.67567	376
3.67933	373
3.68300	372
3.68667	371
3.69033	370
3.69400	370
3.69767	369
3.70133	368
3.70500	367
3.70867	365
3.71233	361
3.71600	358
3.71967	357
3.72333	354
3.72700	353
3.73067	354
3.73433	355
3.73800	354
3.74167	354
3.74533	354
3.74900	354
3.75267	354
3.75633	354
3.76000	352
3.76367	352
3.76733	351
3.77100	352
3.77467	349
3.77833	346
3.78200	343
3.78567	342
3.78933	342
3.79300	343
3.79667	343
3.80033	340
3.80400	337
3.80767	336
3.81133	337
3.81500	335
3.81867	334
3.82233	336
3.82600	338
3.82967	339
3.83333	337
3.83700	333
3.84067	331
3.84433	329
3.84800	330
3.85167	330
3.85533	330
3.85900	330
3.86267	330
3.86633	328
3.87000	326
3.87367	324
3.87733	322
3.88100	321
3.88467	319
3.88833	317
3.89200	314
3.89567	311
3.89933	311
3.90300	313
3.90667	316
3.91033	318
3.91400	319
3.91767	321
3.92133	320
3.92500	319
3.92867	318
3.93233	317
3.93600	316
3.93967	315
3.94333	315
3.94700	317
3.95067	316
3.95433	310
3.95800	306
3.96167	306
3.96533	306
3.96900	305
3.97267	304
3.97633	301
3.98000	300
3.98367	300
3.98733	301
3.99100	300
3.99467	297
3.99833	293

[Status Trace (Column Oven Temperature)]
Interval(msec)	1000
# of Points	240
Start Time(min)	0.003
End Time(min)	3.987
Intensity Units	
Intensity Multiplier	1
R.Time (min)	Intensity
0.00320	35.04
0.01987	35.03
0.03653	35.03
0.05320	35.03
0.06987	35.02
0.08653	35.02
0.10320	35.03
0.11987	35.03
0.13653	35.03
0.15320	35.03
0.16987	35.02
0.18653	35.01
0.20320	35.01
0.21987	35.00
0.23653	35.00
0.25320	35.00
0.26987	35.00
0.28653	35.00
0.30320	35.00
0.31987	35.00
0.33653	35.01
0.35320	35.00
0.36987	35.01
0.38653	35.01
0.40320	35.00
0.41987	35.00
0.43653	35.00
0.45320	34.99
0.46987	35.00
0.48653	35.00
0.50320	35.01
0.51987	35.01
0.53653	35.01
0.55320	35.00
0.56987	35.00
0.58653	35.01
0.60320	35.01
0.61987	34.99
0.63653	34.99
0.65320	34.98
0.66987	34.99
0.68653	35.00
0.70320	34.99
0.71987	35.00
0.73653	35.00
0.75320	35.00
0.76987	34.99
0.78653	34.99
0.80320	34.99
0.81987	35.00
0.83653	35.00
0.85320	35.00
0.86987	35.00
0.88653	35.00
0.90320	35.00
0.91987	35.00
0.93653	35.00
0.95320	35.00
0.96987	35.00
0.98653	35.00
1.00320	35.01
1.01987	35.01
1.03653	35.01
1.05320	35.00
1.06987	34.99
1.08653	35.00
1.10320	34.99
1.11987	35.00
1.13653	35.01
1.15320	35.01
1.16987	35.01
1.18653	35.01
1.20320	35.01
1.21987	35.01
1.23653	35.02
1.25320	35.01
1.26987	35.01
1.28653	35.00
1.30320	35.00
1.31987	35.00
1.33653	35.00
1.35320	34.99
1.36987	35.00
1.38653	35.01
1.40320	35.02
1.41987	35.02
1.43653	35.02
1.45320	35.01
1.46987	35.01
1.48653	35.01
1.50320	35.02
1.51987	35.01
1.53653	35.01
1.55320	35.01
1.56987	35.01
1.58653	35.01
1.60320	35.06
1.61987	35.16
1.63653	35.33
1.65320	35.55
1.66987	35.86
1.68653	36.22
1.70320	36.57
1.71987	36.92
1.73653	37.27
1.75320	37.58
1.76987	37.90
1.78653	38.25
1.80320	38.59
1.81987	38.90
1.83653	39.21
1.85320	39.55
1.86987	39.88
1.88653	40.21
1.90320	40.54
1.91987	40.85
1.93653	41.18
1.95320	41.51
1.96987	41.85
1.98653	42.17
2.00320	42.49
2.01987	42.80
2.03653	43.13
2.05320	43.46
2.06987	43.77
2.08653	44.11
2.10320	44.43
2.11987	44.76
2.13653	45.09
2.15320	45.43
2.16987	45.76
2.18653	46.08
2.20320	46.41
2.21987	46.74
2.23653	47.06
2.25320	47.42
2.26987	47.74
2.28653	48.05
2.30320	48.39
2.31987	48.76
2.33653	49.05
2.35320	49.37
2.36987	49.59
2.38653	49.69
2.40320	49.70
2.41987	49.70
2.43653	49.68
2.45320	49.70
2.46987	49.71
2.48653	49.71
2.50320	49.72
2.51987	49.74
2.53653	49.76
2.55320	49.76
2.56987	49.79
2.58653	49.79
2.60320	49.80
2.61987	49.81
2.63653	49.82
2.65320	49.83
2.66987	49.83
2.68653	49.84
2.70320	49.85
2.71987	49.85
2.73653	49.85
2.75320	49.85
2.76987	49.86
2.78653	49.87
2.80320	49.86
2.81987	49.86
2.83653	49.85
2.85320	49.86
2.86987	49.89
2.88653	49.90
2.90320	49.91
2.91987	49.92
2.93653	49.93
2.95320	49.94
2.96987	49.95
2.98653	49.96
3.00320	49.97
3.01987	49.96
3.03653	49.98
3.05320	50.00
3.06987	50.00
3.08653	50.01
3.10320	50.02
3.11987	50.03
3.13653	50.04
3.15320	50.04
3.16987	50.05
3.18653	50.07
3.20320	50.08
3.21987	50.09
3.23653	50.10
3.25320	50.10
3.26987	50.11
3.28653	50.11
3.30320	50.09
3.31987	50.07
3.33653	50.07
3.35320	50.05
3.36987	50.04
3.38653	50.03
3.40320	50.02
3.41987	50.02
3.43653	50.03
3.45320	50.03
3.46987	50.03
3.48653	50.03
3.50320	50.03
3.51987	50.03
3.53653	50.03
3.55320	50.03
3.56987	50.03
3.58653	50.03
3.60320	50.05
3.61987	50.04
3.63653	50.05
3.65320	50.05
3.66987	50.04
3.68653	50.04
3.70320	50.05
3.71987	50.05
3.73653	50.05
3.75320	50.06
3.76987	50.05
3.78653	50.07
3.80320	50.07
3.81987	50.07
3.83653	50.07
3.85320	50.07
3.86987	50.08
3.88653	50.08
3.90320	50.08
3.91987	50.09
3.93653	50.09
3.95320	50.08
3.96987	50.09
3.98653	50.08

[Status Trace (Injection Unit Temperature)]
Interval(msec)	1000
# of Points	240
Start Time(min)	0.003
End Time(min)	3.987
Intensity Units	
Intensity Multiplier	1
R.Time (min)	Intensity
0.00320	99.98
0.01987	99.98
0.03653	99.98
0.05320	99.98
0.06987	99.98
0.08653	99.98
0.10320	99.98
0.11987	99.98
0.13653	99.98
0.15320	99.98
0.16987	99.98
0.18653	99.98
0.20320	99.98
0.21987	99.98
0.23653	99.98
0.25320	99.98
0.26987	99.98
0.28653	99.98
0.30320	99.98
0.31987	99.98
0.33653	99.98
0.35320	99.99
0.36987	99.98
0.38653	99.99
0.40320	99.98
0.41987	99.98
0.43653	99.99
0.45320	99.98
0.46987	99.99
0.48653	99.98
0.50320	99.99
0.51987	99.98
0.53653	99.98
0.55320	99.99
0.56987	99.99
0.58653	99.98
0.60320	99.99
0.61987	99.99
0.63653	99.98
0.65320	99.98
0.66987	99.99
0.68653	99.99
0.70320	99.98
0.71987	99.98
0.73653	99.98
0.75320	99.98
0.76987	99.98
0.78653	99.98
0.80320	99.99
0.81987	99.98
0.83653	99.99
0.85320	99.99
0.86987	99.98
0.88653	99.99
0.90320	99.99
0.91987	99.99
0.93653	99.99
0.95320	99.99
0.96987	99.98
0.98653	99.99
1.00320	99.99
1.01987	99.99
1.03653	99.99
1.05320	99.98
1.06987	99.99
1.08653	99.99
1.10320	99.99
1.11987	99.99
1.13653	99.99
1.15320	99.99
1.16987	99.99
1.18653	99.99
1.20320	99.99
1.21987	99.99
1.23653	99.99
1.25320	99.99
1.26987	99.99
1.28653	99.99
1.30320	99.99
1.31987	99.99
1.33653	99.99
1.35320	99.99
1.36987	99.99
1.38653	99.99
1.40320	99.99
1.41987	99.99
1.43653	99.99
1.45320	99.99
1.46987	99.99
1.48653	99.99
1.50320	99.99
1.51987	99.99
1.53653	99.99
1.55320	99.99
1.56987	99.99
1.58653	99.99
1.60320	99.99
1.61987	99.99
1.63653	99.99
1.65320	99.99
1.66987	99.99
1.68653	99.99
1.70320	99.99
1.71987	99.99
1.73653	99.98
1.75320	99.99
1.76987	99.99
1.78653	99.99
1.80320	99.99
1.81987	99.98
1.83653	99.98
1.85320	99.98
1.86987	99.98
1.88653	99.98
1.90320	99.98
1.91987	99.98
1.93653	99.98
1.95320	99.98
1.96987	99.98
1.98653	99.98
2.00320	99.98
2.01987	99.98
2.03653	99.97
2.05320	99.97
2.06987	99.97
2.08653	99.97
2.10320	99.97
2.11987	99.97
2.13653	99.97
2.15320	99.97
2.16987	99.97
2.18653	99.97
2.20320	99.97
2.21987	99.97
2.23653	99.97
2.25320	99.97
2.26987	99.97
2.28653	99.97
2.30320	99.97
2.31987	99.97
2.33653	99.97
2.35320	99.97
2.36987	99.97
2.38653	99.97
2.40320	99.97
2.41987	99.97
2.43653	99.97
2.45320	99.96
2.46987	99.97
2.48653	99.97
2.50320	99.97
2.51987	99.97
2.53653	99.98
2.55320	99.98
2.56987	99.97
2.58653	99.97
2.60320	99.98
2.61987	99.98
2.63653	99.98
2.65320	99.98
2.66987	99.98
2.68653	99.98
2.70320	99.98
2.71987	99.99
2.73653	99.98
2.75320	99.99
2.76987	99.99
2.78653	99.99
2.80320	99.99
2.81987	99.99
2.83653	99.99
2.85320	99.99
2.86987	100.00
2.88653	99.99
2.90320	100.00
2.91987	100.00
2.93653	100.00
2.95320	100.00
2.96987	100.00
2.98653	100.00
3.00320	100.00
3.01987	100.01
3.03653	100.01
3.05320	100.01
3.06987	100.01
3.08653	100.01
3.10320	100.02
3.11987	100.02
3.13653	100.02
3.15320	100.01
3.16987	100.02
3.18653	100.02
3.20320	100.02
3.21987	100.02
3.23653	100.03
3.25320	100.02
3.26987	100.03
3.28653	100.03
3.30320	100.03
3.31987	100.03
3.33653	100.03
3.35320	100.03
3.36987	100.03
3.38653	100.03
3.40320	100.03
3.41987	100.03
3.43653	100.03
3.45320	100.03
3.46987	100.03
3.48653	100.03
3.50320	100.03
3.51987	100.03
3.53653	100.03
3.55320	100.04
3.56987	100.03
3.58653	100.04
3.60320	100.04
3.61987	100.04
3.63653	100.04
3.65320	100.04
3.66987	100.04
3.68653	100.04
3.70320	100.04
3.71987	100.04
3.73653	100.04
3.75320	100.04
3.76987	100.04
3.78653	100.04
3.80320	100.04
3.81987	100.04
3.83653	100.05
3.85320	100.04
3.86987	100.05
3.88653	100.04
3.90320	100.05
3.91987	100.05
3.93653	100.05
3.95320	100.05
3.96987	100.05
3.98653	100.05

[Status Trace (Carrier Gas Pressure)]
Interval(msec)	1000
# of Points	240
Start Time(min)	0.003
End Time(min)	3.987
Intensity Units	
Intensity Multiplier	1
R.Time (min)	Intensity
0.00320	58.00
0.01987	56.10
0.03653	56.34
0.05320	58.60
0.06987	59.85
0.08653	58.31
0.10320	57.97
0.11987	58.01
0.13653	58.01
0.15320	58.01
0.16987	58.00
0.18653	58.00
0.20320	58.00
0.21987	58.00
0.23653	58.00
0.25320	58.00
0.26987	58.00
0.28653	58.00
0.30320	58.00
0.31987	58.00
0.33653	58.00
0.35320	58.00
0.36987	58.00
0.38653	58.00
0.40320	58.00
0.41987	58.00
0.43653	58.00
0.45320	58.00
0.46987	58.00
0.48653	58.00
0.50320	58.00
0.51987	58.00
0.53653	58.00
0.55320	58.00
0.56987	58.00
0.58653	58.00
0.60320	58.00
0.61987	58.00
0.63653	58.00
0.65320	58.00
0.66987	58.00
0.68653	58.00
0.70320	58.00
0.71987	58.00
0.73653	58.00
0.75320	58.00
0.76987	58.00
0.78653	58.00
0.80320	58.00
0.81987	58.00
0.83653	58.00
0.85320	58.00
0.86987	58.00
0.88653	58.00
0.90320	58.00
0.91987	58.00
0.93653	58.00
0.95320	58.00
0.96987	58.00
0.98653	58.00
1.00320	58.00
1.01987	58.00
1.03653	58.00
1.05320	58.00
1.06987	58.00
1.08653	58.00
1.10320	58.00
1.11987	58.00
1.13653	58.00
1.15320	58.00
1.16987	58.00
1.18653	58.00
1.20320	58.00
1.21987	58.00
1.23653	58.00
1.25320	58.00
1.26987	58.00
1.28653	58.00
1.30320	58.00
1.31987	58.00
1.33653	58.00
1.35320	58.00
1.36987	58.00
1.38653	58.00
1.40320	58.00
1.41987	58.00
1.43653	58.00
1.45320	58.00
1.46987	58.00
1.48653	58.00
1.50320	58.00
1.51987	58.00
1.53653	58.00
1.55320	58.00
1.56987	58.00
1.58653	58.00
1.60320	58.00
1.61987	58.00
1.63653	58.00
1.65320	58.00
1.66987	58.01
1.68653	58.01
1.70320	58.00
1.71987	58.00
1.73653	58.00
1.75320	58.00
1.76987	58.00
1.78653	58.00
1.80320	58.00
1.81987	58.00
1.83653	58.00
1.85320	58.00
1.86987	58.00
1.88653	58.00
1.90320	58.00
1.91987	58.00
1.93653	58.00
1.95320	58.00
1.96987	58.00
1.98653	58.00
2.00320	58.00
2.01987	58.00
2.03653	58.00
2.05320	58.00
2.06987	58.00
2.08653	58.00
2.10320	58.00
2.11987	58.00
2.13653	58.00
2.15320	58.00
2.16987	58.00
2.18653	58.00
2.20320	58.00
2.21987	58.00
2.23653	58.00
2.25320	58.00
2.26987	58.00
2.28653	58.00
2.30320	58.00
2.31987	58.00
2.33653	58.00
2.35320	58.00
2.36987	58.00
2.38653	57.99
2.40320	57.99
2.41987	58.00
2.43653	58.00
2.45320	58.00
2.46987	58.00
2.48653	58.00
2.50320	57.96
2.51987	58.00
2.53653	57.99
2.55320	58.00
2.56987	58.00
2.58653	58.00
2.60320	58.00
2.61987	58.00
2.63653	58.00
2.65320	58.00
2.66987	58.00
2.68653	58.00
2.70320	58.00
2.71987	58.00
2.73653	58.00
2.75320	58.00
2.76987	58.00
2.78653	58.00
2.80320	58.00
2.81987	58.00
2.83653	58.00
2.85320	58.00
2.86987	58.00
2.88653	58.00
2.90320	58.00
2.91987	58.00
2.93653	58.00
2.95320	58.00
2.96987	58.00
2.98653	58.00
3.00320	58.00
3.01987	58.00
3.03653	58.00
3.05320	58.00
3.06987	58.00
3.08653	58.00
3.10320	58.00
3.11987	58.00
3.13653	58.00
3.15320	58.00
3.16987	58.00
3.18653	58.00
3.20320	58.00
3.21987	58.00
3.23653	58.00
3.25320	58.00
3.26987	58.00
3.28653	58.00
3.30320	58.00
3.31987	58.00
3.33653	58.00
3.35320	58.00
3.36987	58.00
3.38653	58.00
3.40320	58.00
3.41987	58.00
3.43653	58.00
3.45320	58.00
3.46987	58.00
3.48653	58.00
3.50320	58.00
3.51987	58.00
3.53653	58.00
3.55320	58.00
3.56987	58.00
3.58653	58.00
3.60320	58.00
3.61987	58.00
3.63653	58.00
3.65320	58.00
3.66987	58.00
3.68653	58.00
3.70320	58.00
3.71987	58.00
3.73653	58.00
3.75320	58.00
3.76987	58.00
3.78653	58.00
3.80320	58.00
3.81987	58.00
3.83653	58.00
3.85320	58.00
3.86987	58.00
3.88653	58.00
3.90320	58.00
3.91987	58.00
3.93653	58.00
3.95320	58.00
3.96987	58.00
3.98653	58.00

[Status Trace (Carrier Gas Flow)]
Interval(msec)	1000
# of Points	240
Start Time(min)	0.003
End Time(min)	3.987
Intensity Units	
Intensity Multiplier	1
R.Time (min)	Intensity
0.00320	34.52
0.01987	34.61
0.03653	34.54
0.05320	34.54
0.06987	34.49
0.08653	34.50
0.10320	34.52
0.11987	34.52
0.13653	34.52
0.15320	34.52
0.16987	34.52
0.18653	34.52
0.20320	34.52
0.21987	34.52
0.23653	34.52
0.25320	34.52
0.26987	34.52
0.28653	34.52
0.30320	34.52
0.31987	34.52
0.33653	34.52
0.35320	34.52
0.36987	34.52
0.38653	34.52
0.40320	34.52
0.41987	34.52
0.43653	34.52
0.45320	34.52
0.46987	34.52
0.48653	34.52
0.50320	34.52
0.51987	34.52
0.53653	34.52
0.55320	34.52
0.56987	34.52
0.58653	34.52
0.60320	34.52
0.61987	34.52
0.63653	34.52
0.65320	34.52
0.66987	34.52
0.68653	34.52
0.70320	34.52
0.71987	34.52
0.73653	34.52
0.75320	34.52
0.76987	34.53
0.78653	34.52
0.80320	34.52
0.81987	34.52
0.83653	34.52
0.85320	34.51
0.86987	34.53
0.88653	34.53
0.90320	34.52
0.91987	34.52
0.93653	34.51
0.95320	34.52
0.96987	34.52
0.98653	34.52
1.00320	34.53
1.01987	34.52
1.03653	34.52
1.05320	34.52
1.06987	34.53
1.08653	34.52
1.10320	34.52
1.11987	34.52
1.13653	34.51
1.15320	34.51
1.16987	34.53
1.18653	34.53
1.20320	34.53
1.21987	34.51
1.23653	34.51
1.25320	34.53
1.26987	34.52
1.28653	34.52
1.30320	34.52
1.31987	34.52
1.33653	34.52
1.35320	34.52
1.36987	34.52
1.38653	34.52
1.40320	34.52
1.41987	34.52
1.43653	34.52
1.45320	34.52
1.46987	34.52
1.48653	34.52
1.50320	34.52
1.51987	34.52
1.53653	34.52
1.55320	34.52
1.56987	34.52
1.58653	34.52
1.60320	34.52
1.61987	34.52
1.63653	34.52
1.65320	34.52
1.66987	34.52
1.68653	34.52
1.70320	34.52
1.71987	34.52
1.73653	34.52
1.75320	34.52
1.76987	34.52
1.78653	34.52
1.80320	34.51
1.81987	34.52
1.83653	34.52
1.85320	34.52
1.86987	34.52
1.88653	34.52
1.90320	34.52
1.91987	34.52
1.93653	34.52
1.95320	34.52
1.96987	34.51
1.98653	34.52
2.00320	34.52
2.01987	34.52
2.03653	34.52
2.05320	34.52
2.06987	34.52
2.08653	34.52
2.10320	34.52
2.11987	34.52
2.13653	34.52
2.15320	34.52
2.16987	34.52
2.18653	34.52
2.20320	34.52
2.21987	34.52
2.23653	34.52
2.25320	34.52
2.26987	34.52
2.28653	34.52
2.30320	34.52
2.31987	34.52
2.33653	34.52
2.35320	34.52
2.36987	34.52
2.38653	34.52
2.40320	34.52
2.41987	34.52
2.43653	34.52
2.45320	34.52
2.46987	34.52
2.48653	34.52
2.50320	34.66
2.51987	34.52
2.53653	34.52
2.55320	34.52
2.56987	34.52
2.58653	34.52
2.60320	34.52
2.61987	34.52
2.63653	34.52
2.65320	34.52
2.66987	34.52
2.68653	34.52
2.70320	34.52
2.71987	34.52
2.73653	34.52
2.75320	34.52
2.76987	34.52
2.78653	34.52
2.80320	34.52
2.81987	34.52
2.83653	34.52
2.85320	34.52
2.86987	34.52
2.88653	34.52
2.90320	34.52
2.91987	34.52
2.93653	34.52
2.95320	34.52
2.96987	34.52
2.98653	34.52
3.00320	34.52
3.01987	34.52
3.03653	34.52
3.05320	34.52
3.06987	34.52
3.08653	34.52
3.10320	34.52
3.11987	34.52
3.13653	34.52
3.15320	34.52
3.16987	34.52
3.18653	34.52
3.20320	34.52
3.21987	34.52
3.23653	34.52
3.25320	34.52
3.26987	34.52
3.28653	34.52
3.30320	34.52
3.31987	34.52
3.33653	34.52
3.35320	34.52
3.36987	34.52
3.38653	34.52
3.40320	34.52
3.41987	34.52
3.43653	34.52
3.45320	34.52
3.46987	34.52
3.48653	34.52
3.50320	34.52
3.51987	34.52
3.53653	34.52
3.55320	34.52
3.56987	34.52
3.58653	34.52
3.60320	34.52
3.61987	34.52
3.63653	34.52
3.65320	34.52
3.66987	34.52
3.68653	34.52
3.70320	34.52
3.71987	34.52
3.73653	34.52
3.75320	34.52
3.76987	34.52
3.78653	34.52
3.80320	34.52
3.81987	34.52
3.83653	34.52
3.85320	34.52
3.86987	34.52
3.88653	34.52
3.90320	34.52
3.91987	34.52
3.93653	34.52
3.95320	34.52
3.96987	34.52
3.98653	34.52

[Status Trace (Column Flow)]
Interval(msec)	1000
# of Points	240
Start Time(min)	0.003
End Time(min)	3.987
Intensity Units	
Intensity Multiplier	1
R.Time (min)	Intensity
0.00320	5.48
0.01987	5.26
0.03653	5.29
0.05320	5.55
0.06987	5.70
0.08653	5.52
0.10320	5.48
0.11987	5.48
0.13653	5.48
0.15320	5.48
0.16987	5.48
0.18653	5.48
0.20320	5.48
0.21987	5.48
0.23653	5.48
0.25320	5.48
0.26987	5.48
0.28653	5.48
0.30320	5.48
0.31987	5.48
0.33653	5.48
0.35320	5.48
0.36987	5.48
0.38653	5.48
0.40320	5.48
0.41987	5.48
0.43653	5.48
0.45320	5.48
0.46987	5.48
0.48653	5.48
0.50320	5.48
0.51987	5.48
0.53653	5.48
0.55320	5.48
0.56987	5.48
0.58653	5.48
0.60320	5.48
0.61987	5.48
0.63653	5.48
0.65320	5.48
0.66987	5.48
0.68653	5.48
0.70320	5.48
0.71987	5.48
0.73653	5.48
0.75320	5.48
0.76987	5.48
0.78653	5.48
0.80320	5.48
0.81987	5.48
0.83653	5.48
0.85320	5.48
0.86987	5.48
0.88653	5.48
0.90320	5.48
0.91987	5.48
0.93653	5.48
0.95320	5.48
0.96987	5.48
0.98653	5.48
1.00320	5.48
1.01987	5.48
1.03653	5.48
1.05320	5.48
1.06987	5.48
1.08653	5.48
1.10320	5.48
1.11987	5.48
1.13653	5.48
1.15320	5.48
1.16987	5.48
1.18653	5.48
1.20320	5.48
1.21987	5.48
1.23653	5.48
1.25320	5.48
1.26987	5.48
1.28653	5.48
1.30320	5.48
1.31987	5.48
1.33653	5.48
1.35320	5.48
1.36987	5.48
1.38653	5.48
1.40320	5.48
1.41987	5.48
1.43653	5.48
1.45320	5.48
1.46987	5.48
1.48653	5.48
1.50320	5.48
1.51987	5.48
1.53653	5.48
1.55320	5.48
1.56987	5.48
1.58653	5.48
1.60320	5.48
1.61987	5.48
1.63653	5.47
1.65320	5.47
1.66987	5.46
1.68653	5.45
1.70320	5.43
1.71987	5.42
1.73653	5.41
1.75320	5.40
1.76987	5.39
1.78653	5.38
1.80320	5.37
1.81987	5.36
1.83653	5.35
1.85320	5.34
1.86987	5.33
1.88653	5.32
1.90320	5.31
1.91987	5.30
1.93653	5.29
1.95320	5.28
1.96987	5.27
1.98653	5.27
2.00320	5.26
2.01987	5.25
2.03653	5.24
2.05320	5.23
2.06987	5.22
2.08653	5.21
2.10320	5.20
2.11987	5.19
2.13653	5.18
2.15320	5.17
2.16987	5.16
2.18653	5.15
2.20320	5.14
2.21987	5.13
2.23653	5.13
2.25320	5.11
2.26987	5.11
2.28653	5.10
2.30320	5.09
2.31987	5.08
2.33653	5.07
2.35320	5.06
2.36987	5.05
2.38653	5.05
2.40320	5.05
2.41987	5.05
2.43653	5.05
2.45320	5.05
2.46987	5.05
2.48653	5.05
2.50320	5.05
2.51987	5.05
2.53653	5.05
2.55320	5.05
2.56987	5.05
2.58653	5.05
2.60320	5.05
2.61987	5.05
2.63653	5.05
2.65320	5.05
2.66987	5.05
2.68653	5.05
2.70320	5.05
2.71987	5.05
2.73653	5.05
2.75320	5.05
2.76987	5.05
2.78653	5.05
2.80320	5.05
2.81987	5.05
2.83653	5.05
2.85320	5.05
2.86987	5.05
2.88653	5.04
2.90320	5.04
2.91987	5.04
2.93653	5.04
2.95320	5.04
2.96987	5.04
2.98653	5.04
3.00320	5.04
3.01987	5.04
3.03653	5.04
3.05320	5.04
3.06987	5.04
3.08653	5.04
3.10320	5.04
3.11987	5.04
3.13653	5.04
3.15320	5.04
3.16987	5.04
3.18653	5.04
3.20320	5.04
3.21987	5.04
3.23653	5.04
3.25320	5.04
3.26987	5.04
3.28653	5.04
3.30320	5.04
3.31987	5.04
3.33653	5.04
3.35320	5.04
3.36987	5.04
3.38653	5.04
3.40320	5.04
3.41987	5.04
3.43653	5.04
3.45320	5.04
3.46987	5.04
3.48653	5.04
3.50320	5.04
3.51987	5.04
3.53653	5.04
3.55320	5.04
3.56987	5.04
3.58653	5.04
3.60320	5.04
3.61987	5.04
3.63653	5.04
3.65320	5.04
3.66987	5.04
3.68653	5.04
3.70320	5.04
3.71987	5.04
3.73653	5.04
3.75320	5.04
3.76987	5.04
3.78653	5.04
3.80320	5.04
3.81987	5.04
3.83653	5.04
3.85320	5.04
3.86987	5.04
3.88653	5.04
3.90320	5.04
3.91987	5.04
3.93653	5.04
3.95320	5.04
3.96987	5.04
3.98653	5.04

[Status Trace (Linear Velocity)]
Interval(msec)	1000
# of Points	240
Start Time(min)	0.003
End Time(min)	3.987
Intensity Units	
Intensity Multiplier	1
R.Time (min)	Intensity
0.00320	39.00
0.01987	37.76
0.03653	37.92
0.05320	39.40
0.06987	40.22
0.08653	39.21
0.10320	38.98
0.11987	39.01
0.13653	39.01
0.15320	39.01
0.16987	39.01
0.18653	39.01
0.20320	39.01
0.21987	39.01
0.23653	39.01
0.25320	39.01
0.26987	39.01
0.28653	39.01
0.30320	39.01
0.31987	39.01
0.33653	39.01
0.35320	39.01
0.36987	39.01
0.38653	39.01
0.40320	39.01
0.41987	39.01
0.43653	39.01
0.45320	39.01
0.46987	39.01
0.48653	39.01
0.50320	39.01
0.51987	39.01
0.53653	39.01
0.55320	39.01
0.56987	39.01
0.58653	39.01
0.60320	39.01
0.61987	39.01
0.63653	39.01
0.65320	39.01
0.66987	39.01
0.68653	39.01
0.70320	39.01
0.71987	39.01
0.73653	39.01
0.75320	39.01
0.76987	39.01
0.78653	39.01
0.80320	39.01
0.81987	39.01
0.83653	39.01
0.85320	39.01
0.86987	39.01
0.88653	39.01
0.90320	39.01
0.91987	39.01
0.93653	39.01
0.95320	39.01
0.96987	39.01
0.98653	39.01
1.00320	39.01
1.01987	39.01
1.03653	39.01
1.05320	39.01
1.06987	39.01
1.08653	39.01
1.10320	39.01
1.11987	39.01
1.13653	39.01
1.15320	39.01
1.16987	39.01
1.18653	39.01
1.20320	39.01
1.21987	39.01
1.23653	39.01
1.25320	39.01
1.26987	39.01
1.28653	39.01
1.30320	39.01
1.31987	39.01
1.33653	39.01
1.35320	39.01
1.36987	39.01
1.38653	39.01
1.40320	39.01
1.41987	39.01
1.43653	39.01
1.45320	39.01
1.46987	39.01
1.48653	39.01
1.50320	39.01
1.51987	39.01
1.53653	39.01
1.55320	39.01
1.56987	39.01
1.58653	39.01
1.60320	39.00
1.61987	38.99
1.63653	38.98
1.65320	38.96
1.66987	38.93
1.68653	38.90
1.70320	38.86
1.71987	38.82
1.73653	38.79
1.75320	38.76
1.76987	38.73
1.78653	38.70
1.80320	38.67
1.81987	38.63
1.83653	38.61
1.85320	38.58
1.86987	38.54
1.88653	38.52
1.90320	38.48
1.91987	38.45
1.93653	38.43
1.95320	38.39
1.96987	38.36
1.98653	38.33
2.00320	38.30
2.01987	38.27
2.03653	38.25
2.05320	38.21
2.06987	38.18
2.08653	38.16
2.10320	38.12
2.11987	38.09
2.13653	38.07
2.15320	38.03
2.16987	38.00
2.18653	37.98
2.20320	37.94
2.21987	37.91
2.23653	37.89
2.25320	37.85
2.26987	37.82
2.28653	37.80
2.30320	37.77
2.31987	37.73
2.33653	37.71
2.35320	37.68
2.36987	37.66
2.38653	37.65
2.40320	37.65
2.41987	37.65
2.43653	37.65
2.45320	37.65
2.46987	37.65
2.48653	37.65
2.50320	37.62
2.51987	37.65
2.53653	37.64
2.55320	37.65
2.56987	37.64
2.58653	37.64
2.60320	37.64
2.61987	37.64
2.63653	37.64
2.65320	37.64
2.66987	37.64
2.68653	37.64
2.70320	37.64
2.71987	37.64
2.73653	37.64
2.75320	37.64
2.76987	37.64
2.78653	37.64
2.80320	37.64
2.81987	37.64
2.83653	37.64
2.85320	37.64
2.86987	37.63
2.88653	37.63
2.90320	37.63
2.91987	37.63
2.93653	37.63
2.95320	37.63
2.96987	37.63
2.98653	37.63
3.00320	37.63
3.01987	37.63
3.03653	37.63
3.05320	37.62
3.06987	37.62
3.08653	37.62
3.10320	37.62
3.11987	37.62
3.13653	37.62
3.15320	37.62
3.16987	37.62
3.18653	37.62
3.20320	37.62
3.21987	37.62
3.23653	37.61
3.25320	37.61
3.26987	37.61
3.28653	37.61
3.30320	37.62
3.31987	37.62
3.33653	37.62
3.35320	37.62
3.36987	37.62
3.38653	37.62
3.40320	37.62
3.41987	37.62
3.43653	37.62
3.45320	37.62
3.46987	37.62
3.48653	37.62
3.50320	37.62
3.51987	37.62
3.53653	37.62
3.55320	37.62
3.56987	37.62
3.58653	37.62
3.60320	37.62
3.61987	37.62
3.63653	37.62
3.65320	37.62
3.66987	37.62
3.68653	37.62
3.70320	37.62
3.71987	37.62
3.73653	37.62
3.75320	37.62
3.76987	37.62
3.78653	37.62
3.80320	37.62
3.81987	37.62
3.83653	37.62
3.85320	37.62
3.86987	37.62
3.88653	37.62
3.90320	37.62
3.91987	37.62
3.93653	37.62
3.95320	37.62
3.96987	37.62
3.98653	37.62

