[Header]
Application Name	LabSolutions
Version	5.110
Data File Name	C:\Users\User\Desktop\GC Analyses\Jack\UIC Prairie Sampling\10.19.22\221019_114.gcd
Output Date	1/4/2023
Output Time	2:27:20 PM

[File Information]
Type	Data File
Generated	12/19/2022 11:21:46 AM
Generated by	System Administrator
Modified	12/19/2022 11:26:13 AM
Modified by	System Administrator

[Sample Information]
Operator Name	System Administrator
Acquired	12/19/2022 11:22:12 AM
Sample Type	1:Standard
Level	1
Sample Name	221019_UICPrairie
Sample ID	221019_UICPrairie
ISTD Amount1	1
ISTD Amount2	1
ISTD Amount3	1
ISTD Amount4	1
ISTD Amount5	1
ISTD Amount6	1
ISTD Amount7	1
ISTD Amount8	1
ISTD Amount9	1
ISTD Amount10	1
ISTD Amount11	1
ISTD Amount12	1
ISTD Amount13	1
ISTD Amount14	1
ISTD Amount15	1
ISTD Amount16	1
ISTD Amount17	1
ISTD Amount18	1
ISTD Amount19	1
ISTD Amount20	1
ISTD Amount21	1
ISTD Amount22	1
ISTD Amount23	1
ISTD Amount24	1
ISTD Amount25	1
ISTD Amount26	1
ISTD Amount27	1
ISTD Amount28	1
ISTD Amount29	1
ISTD Amount30	1
ISTD Amount31	1
ISTD Amount32	1
Sample Amount	1
Dilution Factor	1
Vial#	1
Injection Volume	1
Injection Count	1
Bar Code	

[Original Files]
Data File	C:\Users\User\Desktop\GC Analyses\Jack\UIC Prairie Sampling\10.19.22\221019_114.gcd
Method File	C:\LabSolutions\Data\GHG_4min_2022\ghg3_togas_w_acet_4 min_new_int.gcm
Batch File	
Report Format File	c:\LabSolutions\System\DEFAULT.lsr

[File Description]


[Configuration]
Instrument Name	C0B7VH3-Instrument1
Instrument #	1
Line #	1
# of Detectors	3
Detector ID	DET#1	DET#2	DET#3
Detector Name	FID	PTCD	ECD
# of Channels	1	1	1

[Peak Table(Ch1)]
# of Peaks	3
Peak#	R.Time	I.Time	F.Time	Area	Height	A/H	Conc.	Mark	ID#	Name	k'	Plate #	Plate Ht.	Tailing	Resolution	Sep.Factor	Area Ratio	Height Ratio	Conc. %	Norm Conc.
1	1.465	1.435	1.534	2503	769	3.253	100.000	   	1	CO	0.000	4815	31.155	0.000	0.000	0.000	0	0	16.667	16.667
2	1.571	1.534	1.648	21198	10617	1.997	100.000	 V 	2	CH4	0.073	11312	13.260	1.185	1.482	0.000	0	0	16.667	16.667
3	2.000	1.952	2.642	2140416	979426	2.185	400.000	   	3	CO2	0.365	17050	8.798	1.287	7.129	5.034	0	0	66.667	66.667

[Peak Table(Ch2)]
# of Peaks	0

[Peak Table(Ch3)]
# of Peaks	5
Peak#	R.Time	I.Time	F.Time	Area	Height	A/H	Conc.	Mark	ID#	Name	k'	Plate #	Plate Ht.	Tailing	Resolution	Sep.Factor	Area Ratio	Height Ratio	Conc. %	Norm Conc.
1	2.458	1.443	2.557	15044	606	24.838	0.000	   			0.000	171	879.667	0.000	0.000	0.000	0	0	0.000	0.000
2	2.598	2.557	2.653	1407	351	4.003	0.000	 V 			0.057	358	418.668	0.000	0.214	0.000	0	0	0.000	0.000
3	2.884	2.664	3.419	62092	15495	4.007	1.000	S  	1	N2O	0.173	12978	11.558	1.555	0.880	3.053	0	0	50.000	50.000
4	3.368	3.203	3.419	473	57	8.346	0.000	T  			0.370	3416	43.907	0.656	2.918	2.138	0	0	0.000	0.000
5	3.529	3.430	3.995	8148	422	19.297	1.000	   	2	SF6	0.436	750	200.031	2.914	0.433	1.177	0	0	50.000	50.000

[Compound Results(Ch1)]
# of IDs	6
ID#	Name	R.Time	Area	Height	Conc.	Curve	3rd	2nd	1st	Constant	Area Ratio	Height Ratio	Conc. %	Norm Conc.
1	CO	1.465	2503	769	100.000	Linear	0.000000e+00	0.000000e+00	2.503436e+001	0.000000e+00	0	0	16.667	16.667
2	CH4	1.571	21198	10617	100.000	Linear	0.000000e+00	0.000000e+00	2.119789e+002	0.000000e+00	0	0	16.667	16.667
3	CO2	2.000	2140416	979426	400.000	Linear	0.000000e+00	0.000000e+00	5.351040e+003	0.000000e+00	0	0	66.667	66.667
4	Ethylene	0.000	0	0	0.000	Linear	0.000000e+00	0.000000e+00	0.000000e+00	0.000000e+00	0	0	0.000	0.000
5	Acetylene	0.000	0	0	0.000	Linear	0.000000e+00	0.000000e+00	0.000000e+00	0.000000e+00	0	0	0.000	0.000
6	Ethane	0.000	0	0	0.000	Linear	0.000000e+00	0.000000e+00	0.000000e+00	0.000000e+00	0	0	0.000	0.000

[Compound Results(Ch2)]
# of IDs	5
ID#	Name	R.Time	Area	Height	Conc.	Curve	3rd	2nd	1st	Constant	Area Ratio	Height Ratio	Conc. %	Norm Conc.
1	Hydrogen	0.000	0	0	0.000	Linear	0.000000e+00	0.000000e+00	0.000000e+00	0.000000e+00	0	0	0.000	0.000
2	Oxygen	0.000	0	0	0.000	Linear	0.000000e+00	0.000000e+00	0.000000e+00	0.000000e+00	0	0	0.000	0.000
3	Nitrogen	0.000	0	0	0.000	Linear	0.000000e+00	0.000000e+00	0.000000e+00	0.000000e+00	0	0	0.000	0.000
4	Methane	0.000	0	0	0.000	Linear	0.000000e+00	0.000000e+00	0.000000e+00	0.000000e+00	0	0	0.000	0.000
5	Carbon Monoxide	0.000	0	0	0.000	Linear	0.000000e+00	0.000000e+00	0.000000e+00	0.000000e+00	0	0	0.000	0.000

[Compound Results(Ch3)]
# of IDs	2
ID#	Name	R.Time	Area	Height	Conc.	Curve	3rd	2nd	1st	Constant	Area Ratio	Height Ratio	Conc. %	Norm Conc.
1	N2O	2.884	62092	15495	1.000	Linear	0.000000e+00	0.000000e+00	6.209181e+004	0.000000e+00	0	0	50.000	50.000
2	SF6	3.529	8148	422	1.000	Linear	0.000000e+00	0.000000e+00	8.148053e+003	0.000000e+00	0	0	50.000	50.000

[Group Results(Ch1)]
# of Groups	0

[Group Results(Ch2)]
# of Groups	0

[Group Results(Ch3)]
# of Groups	0

[Chromatogram (Ch1)]
Interval(msec)	220
# of Points	1091
Start Time(min)	0.002
End Time(min)	3.998
R.Time (min)	Intensity
0.00167	-19
0.00533	-21
0.00900	-24
0.01267	-25
0.01633	-26
0.02000	-30
0.02367	-29
0.02733	-24
0.03100	-19
0.03467	-15
0.03833	-13
0.04200	-11
0.04567	-11
0.04933	-13
0.05300	-16
0.05667	-17
0.06033	-15
0.06400	-11
0.06767	-8
0.07133	-8
0.07500	-9
0.07867	-12
0.08233	-14
0.08600	-14
0.08967	-14
0.09333	-13
0.09700	-13
0.10067	-13
0.10433	-9
0.10800	-4
0.11167	-3
0.11533	-8
0.11900	-14
0.12267	-19
0.12633	-22
0.13000	-22
0.13367	-19
0.13733	-15
0.14100	-11
0.14467	-10
0.14833	-13
0.15200	-19
0.15567	-27
0.15933	-31
0.16300	-34
0.16667	-35
0.17033	-31
0.17400	-25
0.17767	-18
0.18133	-12
0.18500	-11
0.18867	-18
0.19233	-25
0.19600	-30
0.19967	-32
0.20333	-33
0.20700	-34
0.21067	-36
0.21433	-37
0.21800	-35
0.22167	-34
0.22533	-35
0.22900	-36
0.23267	-36
0.23633	-35
0.24000	-33
0.24367	-32
0.24733	-33
0.25100	-35
0.25467	-39
0.25833	-42
0.26200	-43
0.26567	-43
0.26933	-42
0.27300	-42
0.27667	-44
0.28033	-48
0.28400	-51
0.28767	-51
0.29133	-49
0.29500	-46
0.29867	-43
0.30233	-37
0.30600	-31
0.30967	-29
0.31333	-35
0.31700	-42
0.32067	-49
0.32433	-52
0.32800	-52
0.33167	-51
0.33533	-49
0.33900	-50
0.34267	-52
0.34633	-52
0.35000	-46
0.35367	-38
0.35733	-33
0.36100	-34
0.36467	-37
0.36833	-41
0.37200	-45
0.37567	-45
0.37933	-41
0.38300	-38
0.38667	-37
0.39033	-36
0.39400	-35
0.39767	-35
0.40133	-38
0.40500	-47
0.40867	-55
0.41233	-58
0.41600	-57
0.41967	-54
0.42333	-54
0.42700	-54
0.43067	-53
0.43433	-51
0.43800	-49
0.44167	-49
0.44533	-50
0.44900	-48
0.45267	-46
0.45633	-46
0.46000	-45
0.46367	-46
0.46733	-49
0.47100	-51
0.47467	-52
0.47833	-51
0.48200	-48
0.48567	-43
0.48933	-40
0.49300	-41
0.49667	-43
0.50033	-46
0.50400	-47
0.50767	-47
0.51133	-46
0.51500	-43
0.51867	-38
0.52233	-36
0.52600	-40
0.52967	-51
0.53333	-60
0.53700	-66
0.54067	-72
0.54433	-77
0.54800	-79
0.55167	-76
0.55533	-74
0.55900	-71
0.56267	-66
0.56633	-61
0.57000	-58
0.57367	-60
0.57733	-62
0.58100	-61
0.58467	-58
0.58833	-55
0.59200	-54
0.59567	-59
0.59933	-68
0.60300	-75
0.60667	-78
0.61033	-76
0.61400	-72
0.61767	-68
0.62133	-64
0.62500	-61
0.62867	-59
0.63233	-57
0.63600	-60
0.63967	-63
0.64333	-64
0.64700	-67
0.65067	-73
0.65433	-78
0.65800	-82
0.66167	-84
0.66533	-84
0.66900	-81
0.67267	-81
0.67633	-79
0.68000	-77
0.68367	-75
0.68733	-71
0.69100	-63
0.69467	-56
0.69833	-54
0.70200	-57
0.70567	-59
0.70933	-60
0.71300	-64
0.71667	-72
0.72033	-79
0.72400	-84
0.72767	-87
0.73133	-86
0.73500	-81
0.73867	-77
0.74233	-76
0.74600	-76
0.74967	-74
0.75333	-72
0.75700	-75
0.76067	-82
0.76433	-91
0.76800	-99
0.77167	-103
0.77533	-102
0.77900	-97
0.78267	-87
0.78633	-75
0.79000	-66
0.79367	-61
0.79733	-63
0.80100	-72
0.80467	-81
0.80833	-84
0.81200	-86
0.81567	-90
0.81933	-93
0.82300	-92
0.82667	-88
0.83033	-83
0.83400	-80
0.83767	-80
0.84133	-82
0.84500	-84
0.84867	-88
0.85233	-94
0.85600	-96
0.85967	-96
0.86333	-95
0.86700	-94
0.87067	-97
0.87433	-100
0.87800	-104
0.88167	-106
0.88533	-103
0.88900	-97
0.89267	-92
0.89633	-88
0.90000	-89
0.90367	-91
0.90733	-91
0.91100	-92
0.91467	-93
0.91833	-95
0.92200	-95
0.92567	-93
0.92933	-92
0.93300	-89
0.93667	-84
0.94033	-79
0.94400	-78
0.94767	-80
0.95133	-87
0.95500	-99
0.95867	-106
0.96233	-106
0.96600	-103
0.96967	-99
0.97333	-99
0.97700	-102
0.98067	-106
0.98433	-110
0.98800	-114
0.99167	-114
0.99533	-112
0.99900	-107
1.00267	-102
1.00633	-99
1.01000	-98
1.01367	-99
1.01733	-99
1.02100	-100
1.02467	-102
1.02833	-104
1.03200	-108
1.03567	-113
1.03933	-118
1.04300	-122
1.04667	-124
1.05033	-120
1.05400	-117
1.05767	-117
1.06133	-115
1.06500	-111
1.06867	-107
1.07233	-102
1.07600	-97
1.07967	-91
1.08333	-87
1.08700	-90
1.09067	-98
1.09433	-109
1.09800	-119
1.10167	-125
1.10533	-127
1.10900	-126
1.11267	-124
1.11633	-121
1.12000	-118
1.12367	-116
1.12733	-116
1.13100	-118
1.13467	-123
1.13833	-127
1.14200	-131
1.14567	-133
1.14933	-136
1.15300	-137
1.15667	-136
1.16033	-133
1.16400	-128
1.16767	-122
1.17133	-119
1.17500	-117
1.17867	-115
1.18233	-116
1.18600	-115
1.18967	-114
1.19333	-116
1.19700	-122
1.20067	-125
1.20433	-127
1.20800	-129
1.21167	-129
1.21533	-127
1.21900	-123
1.22267	-119
1.22633	-116
1.23000	-114
1.23367	-111
1.23733	-108
1.24100	-106
1.24467	-107
1.24833	-112
1.25200	-119
1.25567	-128
1.25933	-135
1.26300	-139
1.26667	-139
1.27033	-135
1.27400	-131
1.27767	-128
1.28133	-127
1.28500	-129
1.28867	-131
1.29233	-134
1.29600	-141
1.29967	-150
1.30333	-157
1.30700	-160
1.31067	-160
1.31433	-157
1.31800	-155
1.32167	-151
1.32533	-145
1.32900	-139
1.33267	-137
1.33633	-134
1.34000	-131
1.34367	-130
1.34733	-133
1.35100	-139
1.35467	-144
1.35833	-145
1.36200	-144
1.36567	-141
1.36933	-137
1.37300	-131
1.37667	-126
1.38033	-124
1.38400	-122
1.38767	-121
1.39133	-124
1.39500	-129
1.39867	-134
1.40233	-140
1.40600	-146
1.40967	-148
1.41333	-148
1.41700	-146
1.42067	-143
1.42433	-140
1.42800	-138
1.43167	-136
1.43533	-134
1.43900	-129
1.44267	-84
1.44633	57
1.45000	269
1.45367	459
1.45733	581
1.46100	636
1.46467	641
1.46833	616
1.47200	584
1.47567	565
1.47933	563
1.48300	563
1.48667	548
1.49033	507
1.49400	446
1.49767	371
1.50133	293
1.50500	224
1.50867	166
1.51233	120
1.51600	82
1.51967	47
1.52333	18
1.52700	-5
1.53067	-23
1.53433	-32
1.53800	-10
1.54167	144
1.54533	683
1.54900	1877
1.55267	3692
1.55633	5754
1.56000	7650
1.56367	9147
1.56733	10139
1.57100	10511
1.57467	10131
1.57833	9009
1.58200	7392
1.58567	5648
1.58933	4072
1.59300	2810
1.59667	1877
1.60033	1223
1.60400	780
1.60767	485
1.61133	290
1.61500	163
1.61867	82
1.62233	30
1.62600	-4
1.62967	-32
1.63333	-53
1.63700	-68
1.64067	-80
1.64433	-87
1.64800	-90
1.65167	-89
1.65533	-87
1.65900	-86
1.66267	-86
1.66633	-86
1.67000	-90
1.67367	-94
1.67733	-99
1.68100	-101
1.68467	-107
1.68833	-115
1.69200	-122
1.69567	-124
1.69933	-125
1.70300	-124
1.70667	-121
1.71033	-117
1.71400	-115
1.71767	-112
1.72133	-109
1.72500	-108
1.72867	-108
1.73233	-109
1.73600	-113
1.73967	-118
1.74333	-121
1.74700	-118
1.75067	-110
1.75433	-104
1.75800	-99
1.76167	-97
1.76533	-97
1.76900	-97
1.77267	-93
1.77633	-91
1.78000	-94
1.78367	-99
1.78733	-107
1.79100	-112
1.79467	-114
1.79833	-114
1.80200	-111
1.80567	-107
1.80933	-105
1.81300	-107
1.81667	-111
1.82033	-114
1.82400	-115
1.82767	-113
1.83133	-113
1.83500	-111
1.83867	-107
1.84233	-104
1.84600	-105
1.84967	-106
1.85333	-106
1.85700	-104
1.86067	-102
1.86433	-99
1.86800	-94
1.87167	-88
1.87533	-83
1.87900	-82
1.88267	-84
1.88633	-87
1.89000	-93
1.89367	-99
1.89733	-104
1.90100	-107
1.90467	-105
1.90833	-103
1.91200	-103
1.91567	-102
1.91933	-97
1.92300	-88
1.92667	-79
1.93033	-75
1.93400	-78
1.93767	-84
1.94133	-88
1.94500	-89
1.94867	-86
1.95233	-74
1.95600	-22
1.95967	288
1.96333	1940
1.96700	8817
1.97067	30617
1.97433	83834
1.97800	184543
1.98167	334700
1.98533	515638
1.98900	696397
1.99267	846894
1.99633	945353
2.00000	979402
2.00367	946796
2.00733	856870
2.01100	728902
2.01467	586576
2.01833	450678
2.02200	334320
2.02567	242327
2.02933	173631
2.03300	124303
2.03667	89764
2.04033	65921
2.04400	49543
2.04767	38262
2.05133	30417
2.05500	24875
2.05867	20881
2.06233	17934
2.06600	15705
2.06967	13975
2.07333	12597
2.07700	11475
2.08067	10539
2.08433	9744
2.08800	9059
2.09167	8463
2.09533	7940
2.09900	7481
2.10267	7074
2.10633	6711
2.11000	6382
2.11367	6082
2.11733	5805
2.12100	5547
2.12467	5311
2.12833	5095
2.13200	4896
2.13567	4710
2.13933	4536
2.14300	4373
2.14667	4221
2.15033	4077
2.15400	3940
2.15767	3809
2.16133	3685
2.16500	3569
2.16867	3463
2.17233	3363
2.17600	3269
2.17967	3182
2.18333	3103
2.18700	3027
2.19067	2948
2.19433	2868
2.19800	2790
2.20167	2714
2.20533	2640
2.20900	2571
2.21267	2514
2.21633	2462
2.22000	2411
2.22367	2359
2.22733	2308
2.23100	2258
2.23467	2213
2.23833	2170
2.24200	2129
2.24567	2088
2.24933	2049
2.25300	2013
2.25667	1981
2.26033	1950
2.26400	1916
2.26767	1878
2.27133	1837
2.27500	1798
2.27867	1764
2.28233	1731
2.28600	1698
2.28967	1669
2.29333	1643
2.29700	1621
2.30067	1599
2.30433	1574
2.30800	1549
2.31167	1525
2.31533	1499
2.31900	1468
2.32267	1438
2.32633	1412
2.33000	1388
2.33367	1369
2.33733	1354
2.34100	1341
2.34467	1327
2.34833	1309
2.35200	1291
2.35567	1276
2.35933	1260
2.36300	1240
2.36667	1221
2.37033	1203
2.37400	1188
2.37767	1178
2.38133	1171
2.38500	1163
2.38867	1154
2.39233	1143
2.39600	1134
2.39967	1127
2.40333	1123
2.40700	1117
2.41067	1106
2.41433	1088
2.41800	1069
2.42167	1049
2.42533	1034
2.42900	1023
2.43267	1015
2.43633	1009
2.44000	998
2.44367	987
2.44733	976
2.45100	965
2.45467	956
2.45833	949
2.46200	943
2.46567	937
2.46933	929
2.47300	923
2.47667	915
2.48033	910
2.48400	909
2.48767	907
2.49133	900
2.49500	891
2.49867	878
2.50233	861
2.50600	842
2.50967	823
2.51333	808
2.51700	797
2.52067	792
2.52433	791
2.52800	789
2.53167	786
2.53533	782
2.53900	776
2.54267	774
2.54633	779
2.55000	784
2.55367	785
2.55733	779
2.56100	765
2.56467	744
2.56833	721
2.57200	703
2.57567	692
2.57933	689
2.58300	693
2.58667	697
2.59033	699
2.59400	700
2.59767	698
2.60133	694
2.60500	687
2.60867	681
2.61233	674
2.61600	669
2.61967	666
2.62333	663
2.62700	659
2.63067	656
2.63433	654
2.63800	651
2.64167	649
2.64533	648
2.64900	650
2.65267	655
2.65633	658
2.66000	657
2.66367	653
2.66733	649
2.67100	644
2.67467	639
2.67833	634
2.68200	631
2.68567	626
2.68933	619
2.69300	615
2.69667	612
2.70033	609
2.70400	607
2.70767	603
2.71133	595
2.71500	586
2.71867	577
2.72233	570
2.72600	566
2.72967	563
2.73333	562
2.73700	560
2.74067	557
2.74433	552
2.74800	546
2.75167	540
2.75533	535
2.75900	533
2.76267	536
2.76633	541
2.77000	549
2.77367	554
2.77733	555
2.78100	554
2.78467	553
2.78833	556
2.79200	558
2.79567	558
2.79933	558
2.80300	558
2.80667	556
2.81033	549
2.81400	539
2.81767	532
2.82133	526
2.82500	522
2.82867	522
2.83233	526
2.83600	529
2.83967	531
2.84333	531
2.84700	527
2.85067	521
2.85433	515
2.85800	507
2.86167	499
2.86533	494
2.86900	489
2.87267	485
2.87633	485
2.88000	488
2.88367	491
2.88733	490
2.89100	487
2.89467	486
2.89833	488
2.90200	489
2.90567	491
2.90933	492
2.91300	491
2.91667	487
2.92033	483
2.92400	482
2.92767	482
2.93133	481
2.93500	476
2.93867	473
2.94233	473
2.94600	474
2.94967	472
2.95333	470
2.95700	468
2.96067	463
2.96433	464
2.96800	467
2.97167	470
2.97533	471
2.97900	470
2.98267	471
2.98633	472
2.99000	469
2.99367	464
2.99733	458
3.00100	454
3.00467	452
3.00833	451
3.01200	447
3.01567	443
3.01933	439
3.02300	438
3.02667	437
3.03033	434
3.03400	433
3.03767	434
3.04133	435
3.04500	436
3.04867	434
3.05233	432
3.05600	432
3.05967	435
3.06333	439
3.06700	439
3.07067	433
3.07433	425
3.07800	418
3.08167	416
3.08533	417
3.08900	422
3.09267	427
3.09633	434
3.10000	440
3.10367	439
3.10733	431
3.11100	422
3.11467	416
3.11833	410
3.12200	406
3.12567	403
3.12933	402
3.13300	404
3.13667	410
3.14033	417
3.14400	423
3.14767	424
3.15133	421
3.15500	417
3.15867	414
3.16233	410
3.16600	405
3.16967	401
3.17333	398
3.17700	399
3.18067	405
3.18433	410
3.18800	409
3.19167	404
3.19533	399
3.19900	395
3.20267	393
3.20633	393
3.21000	391
3.21367	388
3.21733	388
3.22100	391
3.22467	395
3.22833	395
3.23200	391
3.23567	390
3.23933	387
3.24300	386
3.24667	383
3.25033	380
3.25400	375
3.25767	370
3.26133	366
3.26500	367
3.26867	370
3.27233	376
3.27600	382
3.27967	388
3.28333	394
3.28700	401
3.29067	406
3.29433	409
3.29800	409
3.30167	403
3.30533	394
3.30900	382
3.31267	370
3.31633	362
3.32000	359
3.32367	358
3.32733	358
3.33100	356
3.33467	348
3.33833	341
3.34200	338
3.34567	339
3.34933	340
3.35300	343
3.35667	347
3.36033	351
3.36400	354
3.36767	357
3.37133	363
3.37500	366
3.37867	367
3.38233	367
3.38600	367
3.38967	368
3.39333	368
3.39700	367
3.40067	364
3.40433	361
3.40800	356
3.41167	353
3.41533	354
3.41900	354
3.42267	354
3.42633	353
3.43000	356
3.43367	362
3.43733	366
3.44100	368
3.44467	366
3.44833	359
3.45200	347
3.45567	339
3.45933	334
3.46300	331
3.46667	330
3.47033	325
3.47400	321
3.47767	320
3.48133	323
3.48500	331
3.48867	340
3.49233	346
3.49600	344
3.49967	339
3.50333	336
3.50700	337
3.51067	336
3.51433	334
3.51800	331
3.52167	324
3.52533	316
3.52900	310
3.53267	308
3.53633	311
3.54000	317
3.54367	324
3.54733	329
3.55100	330
3.55467	332
3.55833	331
3.56200	327
3.56567	322
3.56933	316
3.57300	309
3.57667	302
3.58033	297
3.58400	296
3.58767	300
3.59133	306
3.59500	311
3.59867	313
3.60233	313
3.60600	314
3.60967	319
3.61333	323
3.61700	326
3.62067	324
3.62433	319
3.62800	316
3.63167	316
3.63533	316
3.63900	316
3.64267	317
3.64633	315
3.65000	310
3.65367	308
3.65733	308
3.66100	307
3.66467	307
3.66833	304
3.67200	300
3.67567	299
3.67933	298
3.68300	297
3.68667	294
3.69033	293
3.69400	295
3.69767	294
3.70133	291
3.70500	288
3.70867	285
3.71233	286
3.71600	290
3.71967	293
3.72333	295
3.72700	295
3.73067	292
3.73433	288
3.73800	287
3.74167	288
3.74533	290
3.74900	289
3.75267	286
3.75633	284
3.76000	286
3.76367	287
3.76733	284
3.77100	281
3.77467	284
3.77833	288
3.78200	291
3.78567	292
3.78933	292
3.79300	292
3.79667	292
3.80033	289
3.80400	287
3.80767	285
3.81133	285
3.81500	284
3.81867	282
3.82233	280
3.82600	277
3.82967	276
3.83333	275
3.83700	273
3.84067	270
3.84433	266
3.84800	261
3.85167	256
3.85533	250
3.85900	243
3.86267	237
3.86633	234
3.87000	236
3.87367	242
3.87733	251
3.88100	262
3.88467	272
3.88833	283
3.89200	290
3.89567	289
3.89933	283
3.90300	278
3.90667	276
3.91033	277
3.91400	283
3.91767	290
3.92133	291
3.92500	287
3.92867	282
3.93233	279
3.93600	276
3.93967	270
3.94333	262
3.94700	259
3.95067	260
3.95433	263
3.95800	264
3.96167	263
3.96533	260
3.96900	256
3.97267	254
3.97633	255
3.98000	256
3.98367	257
3.98733	254
3.99100	250
3.99467	247
3.99833	246

[Chromatogram (Ch2)]
Interval(msec)	220
# of Points	1091
Start Time(min)	0.002
End Time(min)	3.998
R.Time (min)	Intensity
0.00167	1
0.00533	1
0.00900	1
0.01267	1
0.01633	1
0.02000	1
0.02367	1
0.02733	1
0.03100	0
0.03467	0
0.03833	-0
0.04200	-1
0.04567	-1
0.04933	-2
0.05300	-2
0.05667	-2
0.06033	-3
0.06400	-3
0.06767	-3
0.07133	-3
0.07500	-2
0.07867	-2
0.08233	-2
0.08600	-2
0.08967	-2
0.09333	-2
0.09700	-1
0.10067	-1
0.10433	-1
0.10800	-1
0.11167	-1
0.11533	-0
0.11900	-0
0.12267	-0
0.12633	-0
0.13000	0
0.13367	0
0.13733	1
0.14100	1
0.14467	0
0.14833	0
0.15200	0
0.15567	0
0.15933	0
0.16300	0
0.16667	0
0.17033	0
0.17400	1
0.17767	1
0.18133	1
0.18500	0
0.18867	0
0.19233	-0
0.19600	-1
0.19967	-1
0.20333	-2
0.20700	-2
0.21067	-2
0.21433	-2
0.21800	-2
0.22167	-1
0.22533	-1
0.22900	-1
0.23267	-1
0.23633	-1
0.24000	-1
0.24367	-1
0.24733	-1
0.25100	-1
0.25467	-1
0.25833	-1
0.26200	-1
0.26567	-2
0.26933	-2
0.27300	-2
0.27667	-2
0.28033	-2
0.28400	-2
0.28767	-2
0.29133	-2
0.29500	-2
0.29867	-2
0.30233	-2
0.30600	-3
0.30967	-3
0.31333	-3
0.31700	-3
0.32067	-4
0.32433	-3
0.32800	-3
0.33167	-3
0.33533	-3
0.33900	-3
0.34267	-3
0.34633	-4
0.35000	-4
0.35367	-4
0.35733	-5
0.36100	-5
0.36467	-6
0.36833	-6
0.37200	-5
0.37567	-5
0.37933	-5
0.38300	-5
0.38667	-5
0.39033	-5
0.39400	-6
0.39767	-6
0.40133	-6
0.40500	-5
0.40867	-6
0.41233	-6
0.41600	-6
0.41967	-6
0.42333	-6
0.42700	-7
0.43067	-7
0.43433	-6
0.43800	-6
0.44167	-6
0.44533	-6
0.44900	-5
0.45267	-5
0.45633	-5
0.46000	-4
0.46367	-4
0.46733	-4
0.47100	-4
0.47467	-4
0.47833	-4
0.48200	-4
0.48567	-4
0.48933	-4
0.49300	-4
0.49667	-4
0.50033	-3
0.50400	-3
0.50767	-3
0.51133	-3
0.51500	-3
0.51867	-3
0.52233	-3
0.52600	-3
0.52967	-3
0.53333	-2
0.53700	-2
0.54067	-1
0.54433	-1
0.54800	-0
0.55167	0
0.55533	1
0.55900	1
0.56267	1
0.56633	1
0.57000	2
0.57367	2
0.57733	2
0.58100	2
0.58467	2
0.58833	2
0.59200	2
0.59567	1
0.59933	1
0.60300	2
0.60667	2
0.61033	2
0.61400	2
0.61767	1
0.62133	1
0.62500	1
0.62867	1
0.63233	1
0.63600	0
0.63967	0
0.64333	-0
0.64700	-0
0.65067	-1
0.65433	-1
0.65800	-1
0.66167	-1
0.66533	-1
0.66900	-1
0.67267	-1
0.67633	-1
0.68000	-1
0.68367	-2
0.68733	-2
0.69100	-2
0.69467	-3
0.69833	-3
0.70200	-3
0.70567	-3
0.70933	-3
0.71300	-3
0.71667	-3
0.72033	-3
0.72400	-3
0.72767	-3
0.73133	-3
0.73500	-3
0.73867	-2
0.74233	-3
0.74600	-3
0.74967	-3
0.75333	-3
0.75700	-4
0.76067	-4
0.76433	-4
0.76800	-4
0.77167	-4
0.77533	-4
0.77900	-4
0.78267	-4
0.78633	-4
0.79000	-4
0.79367	-4
0.79733	-4
0.80100	-4
0.80467	-4
0.80833	-4
0.81200	-4
0.81567	-3
0.81933	-3
0.82300	-3
0.82667	-2
0.83033	-2
0.83400	-2
0.83767	-2
0.84133	-2
0.84500	-2
0.84867	-2
0.85233	-2
0.85600	-2
0.85967	-2
0.86333	-2
0.86700	-2
0.87067	-2
0.87433	-2
0.87800	-2
0.88167	-2
0.88533	-2
0.88900	-2
0.89267	-2
0.89633	-2
0.90000	-2
0.90367	-2
0.90733	-2
0.91100	-2
0.91467	-2
0.91833	-2
0.92200	-3
0.92567	-3
0.92933	-3
0.93300	-3
0.93667	-3
0.94033	-3
0.94400	-3
0.94767	-3
0.95133	-4
0.95500	-4
0.95867	-4
0.96233	-4
0.96600	-4
0.96967	-4
0.97333	-4
0.97700	-4
0.98067	-4
0.98433	-4
0.98800	-4
0.99167	-5
0.99533	-5
0.99900	-5
1.00267	-5
1.00633	-5
1.01000	-5
1.01367	-5
1.01733	-5
1.02100	-5
1.02467	-5
1.02833	-5
1.03200	-5
1.03567	-5
1.03933	-5
1.04300	-5
1.04667	-5
1.05033	-5
1.05400	-5
1.05767	-4
1.06133	-4
1.06500	-4
1.06867	-4
1.07233	-4
1.07600	-4
1.07967	-4
1.08333	-4
1.08700	-4
1.09067	-4
1.09433	-4
1.09800	-4
1.10167	-4
1.10533	-4
1.10900	-4
1.11267	-3
1.11633	-3
1.12000	-3
1.12367	-3
1.12733	-3
1.13100	-3
1.13467	-3
1.13833	-3
1.14200	-2
1.14567	-2
1.14933	-2
1.15300	-2
1.15667	-2
1.16033	-2
1.16400	-2
1.16767	-2
1.17133	-2
1.17500	-2
1.17867	-2
1.18233	-2
1.18600	-2
1.18967	-2
1.19333	-2
1.19700	-2
1.20067	-2
1.20433	-3
1.20800	-3
1.21167	-3
1.21533	-3
1.21900	-3
1.22267	-3
1.22633	-3
1.23000	-3
1.23367	-3
1.23733	-3
1.24100	-3
1.24467	-4
1.24833	-4
1.25200	-4
1.25567	-3
1.25933	-3
1.26300	-3
1.26667	-3
1.27033	-3
1.27400	-3
1.27767	-3
1.28133	-3
1.28500	-4
1.28867	-4
1.29233	-4
1.29600	-4
1.29967	-4
1.30333	-4
1.30700	-4
1.31067	-4
1.31433	-4
1.31800	-5
1.32167	-5
1.32533	-5
1.32900	-5
1.33267	-5
1.33633	-5
1.34000	-5
1.34367	-5
1.34733	-5
1.35100	-5
1.35467	-5
1.35833	-5
1.36200	-4
1.36567	-4
1.36933	-4
1.37300	-4
1.37667	-4
1.38033	-4
1.38400	-4
1.38767	-4
1.39133	-5
1.39500	-5
1.39867	-5
1.40233	-5
1.40600	-5
1.40967	-5
1.41333	-5
1.41700	-5
1.42067	-5
1.42433	-5
1.42800	-5
1.43167	-5
1.43533	-5
1.43900	-5
1.44267	-5
1.44633	-5
1.45000	-5
1.45367	-5
1.45733	-5
1.46100	-4
1.46467	-4
1.46833	-4
1.47200	-5
1.47567	-5
1.47933	-5
1.48300	-5
1.48667	-6
1.49033	-5
1.49400	-5
1.49767	-5
1.50133	-5
1.50500	-5
1.50867	-5
1.51233	-4
1.51600	-4
1.51967	-4
1.52333	-4
1.52700	-5
1.53067	-4
1.53433	-4
1.53800	-4
1.54167	-4
1.54533	-4
1.54900	-4
1.55267	-4
1.55633	-4
1.56000	-4
1.56367	-4
1.56733	-4
1.57100	-4
1.57467	-5
1.57833	-5
1.58200	-5
1.58567	-5
1.58933	-6
1.59300	-6
1.59667	-7
1.60033	-8
1.60400	-9
1.60767	-10
1.61133	-12
1.61500	-14
1.61867	-16
1.62233	-19
1.62600	-21
1.62967	-24
1.63333	-28
1.63700	-31
1.64067	-34
1.64433	-38
1.64800	-42
1.65167	-46
1.65533	-50
1.65900	-53
1.66267	-57
1.66633	-61
1.67000	-65
1.67367	-70
1.67733	-75
1.68100	-80
1.68467	-85
1.68833	-90
1.69200	-95
1.69567	-99
1.69933	-102
1.70300	-105
1.70667	-107
1.71033	-109
1.71400	-110
1.71767	-111
1.72133	-111
1.72500	-112
1.72867	-112
1.73233	-113
1.73600	-113
1.73967	-113
1.74333	-113
1.74700	-114
1.75067	-114
1.75433	-115
1.75800	-116
1.76167	-118
1.76533	-119
1.76900	-119
1.77267	-120
1.77633	-121
1.78000	-121
1.78367	-120
1.78733	-120
1.79100	-120
1.79467	-119
1.79833	-119
1.80200	-119
1.80567	-120
1.80933	-120
1.81300	-121
1.81667	-122
1.82033	-123
1.82400	-124
1.82767	-124
1.83133	-124
1.83500	-124
1.83867	-124
1.84233	-124
1.84600	-123
1.84967	-124
1.85333	-124
1.85700	-124
1.86067	-124
1.86433	-124
1.86800	-124
1.87167	-124
1.87533	-124
1.87900	-124
1.88267	-124
1.88633	-124
1.89000	-124
1.89367	-124
1.89733	-123
1.90100	-123
1.90467	-122
1.90833	-122
1.91200	-121
1.91567	-121
1.91933	-121
1.92300	-121
1.92667	-122
1.93033	-122
1.93400	-122
1.93767	-121
1.94133	-121
1.94500	-121
1.94867	-120
1.95233	-120
1.95600	-119
1.95967	-119
1.96333	-118
1.96700	-118
1.97067	-118
1.97433	-118
1.97800	-119
1.98167	-119
1.98533	-119
1.98900	-119
1.99267	-118
1.99633	-118
2.00000	-118
2.00367	-118
2.00733	-118
2.01100	-118
2.01467	-118
2.01833	-117
2.02200	-117
2.02567	-116
2.02933	-116
2.03300	-115
2.03667	-114
2.04033	-113
2.04400	-112
2.04767	-112
2.05133	-112
2.05500	-112
2.05867	-112
2.06233	-112
2.06600	-112
2.06967	-112
2.07333	-111
2.07700	-111
2.08067	-111
2.08433	-110
2.08800	-110
2.09167	-109
2.09533	-109
2.09900	-109
2.10267	-108
2.10633	-108
2.11000	-107
2.11367	-107
2.11733	-107
2.12100	-107
2.12467	-107
2.12833	-106
2.13200	-106
2.13567	-106
2.13933	-105
2.14300	-105
2.14667	-105
2.15033	-104
2.15400	-104
2.15767	-104
2.16133	-104
2.16500	-104
2.16867	-104
2.17233	-103
2.17600	-102
2.17967	-101
2.18333	-100
2.18700	-100
2.19067	-100
2.19433	-100
2.19800	-100
2.20167	-101
2.20533	-101
2.20900	-101
2.21267	-101
2.21633	-101
2.22000	-101
2.22367	-101
2.22733	-101
2.23100	-101
2.23467	-101
2.23833	-101
2.24200	-101
2.24567	-100
2.24933	-99
2.25300	-99
2.25667	-98
2.26033	-97
2.26400	-96
2.26767	-95
2.27133	-95
2.27500	-94
2.27867	-93
2.28233	-93
2.28600	-92
2.28967	-91
2.29333	-91
2.29700	-90
2.30067	-90
2.30433	-90
2.30800	-90
2.31167	-89
2.31533	-89
2.31900	-89
2.32267	-90
2.32633	-90
2.33000	-90
2.33367	-90
2.33733	-89
2.34100	-89
2.34467	-87
2.34833	-86
2.35200	-84
2.35567	-83
2.35933	-82
2.36300	-81
2.36667	-80
2.37033	-78
2.37400	-77
2.37767	-75
2.38133	-72
2.38500	-69
2.38867	-66
2.39233	-62
2.39600	-58
2.39967	-54
2.40333	-50
2.40700	-46
2.41067	-42
2.41433	-38
2.41800	-35
2.42167	-31
2.42533	-28
2.42900	-25
2.43267	-22
2.43633	-20
2.44000	-18
2.44367	-16
2.44733	-14
2.45100	-13
2.45467	-11
2.45833	-9
2.46200	-7
2.46567	-6
2.46933	-4
2.47300	-3
2.47667	-2
2.48033	-1
2.48400	-1
2.48767	-0
2.49133	0
2.49500	1
2.49867	1
2.50233	2
2.50600	3
2.50967	3
2.51333	4
2.51700	5
2.52067	6
2.52433	7
2.52800	8
2.53167	9
2.53533	9
2.53900	10
2.54267	10
2.54633	10
2.55000	10
2.55367	10
2.55733	11
2.56100	11
2.56467	11
2.56833	11
2.57200	12
2.57567	12
2.57933	12
2.58300	12
2.58667	12
2.59033	13
2.59400	13
2.59767	13
2.60133	13
2.60500	14
2.60867	14
2.61233	14
2.61600	15
2.61967	15
2.62333	16
2.62700	16
2.63067	17
2.63433	17
2.63800	17
2.64167	17
2.64533	17
2.64900	17
2.65267	17
2.65633	17
2.66000	16
2.66367	16
2.66733	16
2.67100	16
2.67467	16
2.67833	17
2.68200	17
2.68567	17
2.68933	17
2.69300	17
2.69667	17
2.70033	17
2.70400	17
2.70767	17
2.71133	17
2.71500	18
2.71867	18
2.72233	18
2.72600	18
2.72967	19
2.73333	19
2.73700	19
2.74067	19
2.74433	19
2.74800	18
2.75167	18
2.75533	18
2.75900	18
2.76267	18
2.76633	18
2.77000	18
2.77367	18
2.77733	18
2.78100	18
2.78467	19
2.78833	19
2.79200	19
2.79567	19
2.79933	19
2.80300	20
2.80667	20
2.81033	20
2.81400	20
2.81767	21
2.82133	21
2.82500	22
2.82867	22
2.83233	22
2.83600	22
2.83967	23
2.84333	23
2.84700	22
2.85067	21
2.85433	19
2.85800	16
2.86167	10
2.86533	1
2.86900	-12
2.87267	-28
2.87633	-49
2.88000	-76
2.88367	-107
2.88733	-144
2.89100	-185
2.89467	-232
2.89833	-284
2.90200	-341
2.90567	-402
2.90933	-467
2.91300	-535
2.91667	-607
2.92033	-681
2.92400	-758
2.92767	-838
2.93133	-920
2.93500	-1005
2.93867	-1091
2.94233	-1179
2.94600	-1269
2.94967	-1359
2.95333	-1445
2.95700	-1513
2.96067	-1553
2.96433	-1557
2.96800	-1526
2.97167	-1464
2.97533	-1379
2.97900	-1278
2.98267	-1169
2.98633	-1057
2.99000	-947
2.99367	-841
2.99733	-742
3.00100	-651
3.00467	-568
3.00833	-494
3.01200	-428
3.01567	-370
3.01933	-319
3.02300	-274
3.02667	-235
3.03033	-202
3.03400	-173
3.03767	-148
3.04133	-126
3.04500	-107
3.04867	-92
3.05233	-78
3.05600	-66
3.05967	-56
3.06333	-48
3.06700	-41
3.07067	-34
3.07433	-29
3.07800	-24
3.08167	-20
3.08533	-16
3.08900	-13
3.09267	-11
3.09633	-9
3.10000	-7
3.10367	-5
3.10733	-4
3.11100	-2
3.11467	-1
3.11833	1
3.12200	2
3.12567	3
3.12933	4
3.13300	4
3.13667	5
3.14033	6
3.14400	6
3.14767	7
3.15133	7
3.15500	8
3.15867	8
3.16233	8
3.16600	8
3.16967	9
3.17333	9
3.17700	9
3.18067	9
3.18433	10
3.18800	10
3.19167	11
3.19533	11
3.19900	11
3.20267	12
3.20633	12
3.21000	12
3.21367	13
3.21733	13
3.22100	13
3.22467	13
3.22833	13
3.23200	14
3.23567	14
3.23933	14
3.24300	14
3.24667	14
3.25033	15
3.25400	15
3.25767	15
3.26133	16
3.26500	16
3.26867	16
3.27233	17
3.27600	17
3.27967	17
3.28333	17
3.28700	18
3.29067	18
3.29433	18
3.29800	18
3.30167	19
3.30533	19
3.30900	19
3.31267	19
3.31633	19
3.32000	19
3.32367	19
3.32733	19
3.33100	19
3.33467	19
3.33833	19
3.34200	19
3.34567	19
3.34933	20
3.35300	19
3.35667	19
3.36033	19
3.36400	19
3.36767	19
3.37133	19
3.37500	19
3.37867	19
3.38233	19
3.38600	19
3.38967	19
3.39333	19
3.39700	20
3.40067	20
3.40433	20
3.40800	20
3.41167	21
3.41533	21
3.41900	21
3.42267	22
3.42633	22
3.43000	22
3.43367	22
3.43733	21
3.44100	21
3.44467	21
3.44833	21
3.45200	21
3.45567	21
3.45933	21
3.46300	21
3.46667	21
3.47033	21
3.47400	21
3.47767	21
3.48133	21
3.48500	21
3.48867	21
3.49233	21
3.49600	21
3.49967	21
3.50333	21
3.50700	21
3.51067	21
3.51433	21
3.51800	22
3.52167	21
3.52533	21
3.52900	21
3.53267	21
3.53633	21
3.54000	21
3.54367	21
3.54733	21
3.55100	21
3.55467	22
3.55833	22
3.56200	22
3.56567	22
3.56933	22
3.57300	22
3.57667	22
3.58033	21
3.58400	21
3.58767	21
3.59133	21
3.59500	21
3.59867	21
3.60233	21
3.60600	21
3.60967	20
3.61333	20
3.61700	20
3.62067	21
3.62433	21
3.62800	21
3.63167	21
3.63533	21
3.63900	21
3.64267	21
3.64633	21
3.65000	21
3.65367	21
3.65733	21
3.66100	21
3.66467	21
3.66833	21
3.67200	21
3.67567	21
3.67933	21
3.68300	21
3.68667	21
3.69033	21
3.69400	21
3.69767	20
3.70133	20
3.70500	20
3.70867	20
3.71233	20
3.71600	20
3.71967	20
3.72333	20
3.72700	20
3.73067	20
3.73433	20
3.73800	20
3.74167	20
3.74533	20
3.74900	20
3.75267	21
3.75633	21
3.76000	21
3.76367	21
3.76733	21
3.77100	22
3.77467	22
3.77833	22
3.78200	22
3.78567	22
3.78933	22
3.79300	22
3.79667	22
3.80033	22
3.80400	22
3.80767	22
3.81133	22
3.81500	21
3.81867	21
3.82233	21
3.82600	21
3.82967	21
3.83333	21
3.83700	21
3.84067	20
3.84433	20
3.84800	20
3.85167	20
3.85533	20
3.85900	20
3.86267	20
3.86633	21
3.87000	21
3.87367	21
3.87733	21
3.88100	21
3.88467	21
3.88833	21
3.89200	21
3.89567	20
3.89933	20
3.90300	20
3.90667	20
3.91033	20
3.91400	20
3.91767	21
3.92133	21
3.92500	21
3.92867	21
3.93233	21
3.93600	21
3.93967	21
3.94333	21
3.94700	21
3.95067	21
3.95433	21
3.95800	21
3.96167	21
3.96533	21
3.96900	21
3.97267	21
3.97633	21
3.98000	21
3.98367	21
3.98733	21
3.99100	21
3.99467	21
3.99833	20

[Chromatogram (Ch3)]
Interval(msec)	220
# of Points	1091
Start Time(min)	0.002
End Time(min)	3.998
R.Time (min)	Intensity
0.00167	0
0.00533	-1
0.00900	-4
0.01267	-5
0.01633	-5
0.02000	-3
0.02367	-4
0.02733	-4
0.03100	-6
0.03467	-7
0.03833	-8
0.04200	-9
0.04567	-7
0.04933	-5
0.05300	-4
0.05667	-4
0.06033	-6
0.06400	-6
0.06767	-7
0.07133	-6
0.07500	-4
0.07867	-3
0.08233	-4
0.08600	-4
0.08967	-5
0.09333	-6
0.09700	-5
0.10067	-7
0.10433	-9
0.10800	-8
0.11167	-7
0.11533	-6
0.11900	-6
0.12267	-5
0.12633	-4
0.13000	-2
0.13367	-2
0.13733	-0
0.14100	1
0.14467	-1
0.14833	-3
0.15200	-4
0.15567	-4
0.15933	-6
0.16300	-7
0.16667	-6
0.17033	-4
0.17400	-1
0.17767	-0
0.18133	-2
0.18500	-5
0.18867	-7
0.19233	-10
0.19600	-14
0.19967	-12
0.20333	-11
0.20700	-9
0.21067	-8
0.21433	-7
0.21800	-8
0.22167	-9
0.22533	-9
0.22900	-10
0.23267	-11
0.23633	-11
0.24000	-11
0.24367	-10
0.24733	-9
0.25100	-7
0.25467	-6
0.25833	-4
0.26200	-7
0.26567	-10
0.26933	-12
0.27300	-12
0.27667	-9
0.28033	-9
0.28400	-10
0.28767	-13
0.29133	-15
0.29500	-14
0.29867	-11
0.30233	-8
0.30600	-6
0.30967	-5
0.31333	-8
0.31700	-9
0.32067	-8
0.32433	-7
0.32800	-8
0.33167	-10
0.33533	-10
0.33900	-11
0.34267	-11
0.34633	-13
0.35000	-13
0.35367	-13
0.35733	-11
0.36100	-8
0.36467	-9
0.36833	-10
0.37200	-8
0.37567	-7
0.37933	-5
0.38300	-5
0.38667	-6
0.39033	-6
0.39400	-7
0.39767	-9
0.40133	-10
0.40500	-11
0.40867	-10
0.41233	-9
0.41600	-9
0.41967	-8
0.42333	-8
0.42700	-8
0.43067	-7
0.43433	-6
0.43800	-4
0.44167	-1
0.44533	-0
0.44900	-2
0.45267	-4
0.45633	-8
0.46000	-11
0.46367	-10
0.46733	-9
0.47100	-8
0.47467	-8
0.47833	-7
0.48200	-8
0.48567	-7
0.48933	-7
0.49300	-8
0.49667	-8
0.50033	-6
0.50400	-4
0.50767	-3
0.51133	-1
0.51500	-2
0.51867	-3
0.52233	-2
0.52600	-2
0.52967	-1
0.53333	-1
0.53700	-1
0.54067	-3
0.54433	-5
0.54800	-4
0.55167	-2
0.55533	-1
0.55900	-1
0.56267	-2
0.56633	-2
0.57000	-1
0.57367	-3
0.57733	-5
0.58100	-3
0.58467	1
0.58833	-2
0.59200	-5
0.59567	-7
0.59933	-7
0.60300	-6
0.60667	-6
0.61033	-4
0.61400	-1
0.61767	-1
0.62133	-2
0.62500	-2
0.62867	-4
0.63233	-7
0.63600	-10
0.63967	-12
0.64333	-11
0.64700	-10
0.65067	-10
0.65433	-8
0.65800	-8
0.66167	-8
0.66533	-7
0.66900	-9
0.67267	-9
0.67633	-7
0.68000	-6
0.68367	-7
0.68733	-8
0.69100	-8
0.69467	-8
0.69833	-10
0.70200	-14
0.70567	-16
0.70933	-16
0.71300	-13
0.71667	-9
0.72033	-9
0.72400	-8
0.72767	-8
0.73133	-6
0.73500	-5
0.73867	-5
0.74233	-7
0.74600	-8
0.74967	-8
0.75333	-8
0.75700	-7
0.76067	-9
0.76433	-9
0.76800	-8
0.77167	-8
0.77533	-8
0.77900	-10
0.78267	-11
0.78633	-11
0.79000	-8
0.79367	-7
0.79733	-7
0.80100	-8
0.80467	-12
0.80833	-14
0.81200	-14
0.81567	-11
0.81933	-8
0.82300	-8
0.82667	-9
0.83033	-9
0.83400	-8
0.83767	-7
0.84133	-8
0.84500	-8
0.84867	-7
0.85233	-6
0.85600	-8
0.85967	-10
0.86333	-12
0.86700	-10
0.87067	-10
0.87433	-11
0.87800	-13
0.88167	-13
0.88533	-12
0.88900	-12
0.89267	-11
0.89633	-11
0.90000	-12
0.90367	-14
0.90733	-14
0.91100	-12
0.91467	-11
0.91833	-11
0.92200	-8
0.92567	-7
0.92933	-9
0.93300	-13
0.93667	-13
0.94033	-15
0.94400	-16
0.94767	-15
0.95133	-14
0.95500	-13
0.95867	-8
0.96233	-4
0.96600	-6
0.96967	-9
0.97333	-11
0.97700	-13
0.98067	-11
0.98433	-10
0.98800	-9
0.99167	-8
0.99533	-8
0.99900	-9
1.00267	-8
1.00633	-9
1.01000	-12
1.01367	-15
1.01733	-16
1.02100	-14
1.02467	-13
1.02833	-14
1.03200	-14
1.03567	-15
1.03933	-14
1.04300	-14
1.04667	-16
1.05033	-17
1.05400	-18
1.05767	-19
1.06133	-20
1.06500	-20
1.06867	-17
1.07233	-13
1.07600	-10
1.07967	-9
1.08333	-11
1.08700	-13
1.09067	-17
1.09433	-18
1.09800	-19
1.10167	-19
1.10533	-19
1.10900	-18
1.11267	-19
1.11633	-18
1.12000	-16
1.12367	-15
1.12733	-13
1.13100	-13
1.13467	-14
1.13833	-12
1.14200	-13
1.14567	-15
1.14933	-16
1.15300	-16
1.15667	-15
1.16033	-16
1.16400	-18
1.16767	-19
1.17133	-20
1.17500	-18
1.17867	-16
1.18233	-15
1.18600	-15
1.18967	-16
1.19333	-15
1.19700	-14
1.20067	-13
1.20433	-13
1.20800	-15
1.21167	-17
1.21533	-18
1.21900	-22
1.22267	-24
1.22633	-22
1.23000	-22
1.23367	-23
1.23733	-22
1.24100	-21
1.24467	-22
1.24833	-22
1.25200	-22
1.25567	-20
1.25933	-19
1.26300	-18
1.26667	-17
1.27033	-18
1.27400	-20
1.27767	-19
1.28133	-18
1.28500	-20
1.28867	-21
1.29233	-19
1.29600	-18
1.29967	-19
1.30333	-18
1.30700	-15
1.31067	-11
1.31433	-14
1.31800	-17
1.32167	-18
1.32533	-18
1.32900	-16
1.33267	-14
1.33633	-15
1.34000	-15
1.34367	-18
1.34733	-21
1.35100	-22
1.35467	-21
1.35833	-19
1.36200	-20
1.36567	-22
1.36933	-23
1.37300	-24
1.37667	-23
1.38033	-22
1.38400	-22
1.38767	-22
1.39133	-21
1.39500	-22
1.39867	-21
1.40233	-18
1.40600	-16
1.40967	-15
1.41333	-14
1.41700	-12
1.42067	-14
1.42433	-15
1.42800	-16
1.43167	-19
1.43533	-23
1.43900	-25
1.44267	-25
1.44633	-24
1.45000	-24
1.45367	-25
1.45733	-26
1.46100	-25
1.46467	-23
1.46833	-24
1.47200	-28
1.47567	-30
1.47933	-29
1.48300	-28
1.48667	-28
1.49033	-27
1.49400	-25
1.49767	-24
1.50133	-21
1.50500	-19
1.50867	-19
1.51233	-20
1.51600	-23
1.51967	-26
1.52333	-26
1.52700	-25
1.53067	-23
1.53433	-21
1.53800	-23
1.54167	-24
1.54533	-25
1.54900	-25
1.55267	-24
1.55633	-24
1.56000	-25
1.56367	-22
1.56733	-20
1.57100	-22
1.57467	-21
1.57833	-20
1.58200	-18
1.58567	-18
1.58933	-21
1.59300	-23
1.59667	-24
1.60033	-27
1.60400	-28
1.60767	-28
1.61133	-27
1.61500	-25
1.61867	-24
1.62233	-24
1.62600	-22
1.62967	-19
1.63333	-18
1.63700	-20
1.64067	-22
1.64433	-22
1.64800	-21
1.65167	-19
1.65533	-19
1.65900	-18
1.66267	-14
1.66633	-10
1.67000	-11
1.67367	-13
1.67733	-12
1.68100	-12
1.68467	-13
1.68833	-11
1.69200	-6
1.69567	-5
1.69933	-10
1.70300	-14
1.70667	-16
1.71033	-14
1.71400	-13
1.71767	-11
1.72133	-9
1.72500	-6
1.72867	-4
1.73233	-2
1.73600	-2
1.73967	-3
1.74333	-3
1.74700	-3
1.75067	-2
1.75433	-2
1.75800	-3
1.76167	-6
1.76533	-5
1.76900	-2
1.77267	5
1.77633	9
1.78000	10
1.78367	11
1.78733	12
1.79100	10
1.79467	8
1.79833	9
1.80200	10
1.80567	9
1.80933	12
1.81300	14
1.81667	14
1.82033	17
1.82400	20
1.82767	21
1.83133	23
1.83500	24
1.83867	27
1.84233	29
1.84600	28
1.84967	25
1.85333	21
1.85700	19
1.86067	19
1.86433	20
1.86800	20
1.87167	19
1.87533	22
1.87900	24
1.88267	26
1.88633	28
1.89000	29
1.89367	31
1.89733	33
1.90100	36
1.90467	36
1.90833	37
1.91200	37
1.91567	37
1.91933	37
1.92300	37
1.92667	37
1.93033	38
1.93400	37
1.93767	38
1.94133	40
1.94500	40
1.94867	41
1.95233	42
1.95600	44
1.95967	47
1.96333	52
1.96700	55
1.97067	56
1.97433	55
1.97800	54
1.98167	54
1.98533	55
1.98900	57
1.99267	60
1.99633	62
2.00000	62
2.00367	62
2.00733	62
2.01100	62
2.01467	63
2.01833	64
2.02200	64
2.02567	63
2.02933	64
2.03300	68
2.03667	68
2.04033	69
2.04400	70
2.04767	69
2.05133	70
2.05500	72
2.05867	75
2.06233	78
2.06600	82
2.06967	83
2.07333	82
2.07700	82
2.08067	81
2.08433	80
2.08800	82
2.09167	85
2.09533	87
2.09900	87
2.10267	88
2.10633	89
2.11000	90
2.11367	90
2.11733	90
2.12100	91
2.12467	93
2.12833	93
2.13200	93
2.13567	96
2.13933	101
2.14300	105
2.14667	107
2.15033	108
2.15400	108
2.15767	111
2.16133	113
2.16500	114
2.16867	116
2.17233	115
2.17600	115
2.17967	115
2.18333	115
2.18700	117
2.19067	118
2.19433	122
2.19800	125
2.20167	125
2.20533	125
2.20900	126
2.21267	128
2.21633	127
2.22000	127
2.22367	128
2.22733	134
2.23100	138
2.23467	139
2.23833	136
2.24200	137
2.24567	141
2.24933	145
2.25300	147
2.25667	146
2.26033	148
2.26400	150
2.26767	151
2.27133	150
2.27500	148
2.27867	146
2.28233	147
2.28600	152
2.28967	156
2.29333	158
2.29700	160
2.30067	163
2.30433	165
2.30800	170
2.31167	175
2.31533	178
2.31900	179
2.32267	177
2.32633	177
2.33000	178
2.33367	181
2.33733	184
2.34100	188
2.34467	191
2.34833	193
2.35200	193
2.35567	193
2.35933	194
2.36300	194
2.36667	197
2.37033	196
2.37400	194
2.37767	193
2.38133	194
2.38500	194
2.38867	195
2.39233	196
2.39600	197
2.39967	198
2.40333	197
2.40700	197
2.41067	197
2.41433	200
2.41800	205
2.42167	209
2.42533	209
2.42900	208
2.43267	205
2.43633	205
2.44000	206
2.44367	224
2.44733	266
2.45100	313
2.45467	344
2.45833	349
2.46200	341
2.46567	333
2.46933	324
2.47300	306
2.47667	283
2.48033	256
2.48400	226
2.48767	198
2.49133	178
2.49500	164
2.49867	154
2.50233	155
2.50600	157
2.50967	158
2.51333	156
2.51700	146
2.52067	134
2.52433	118
2.52800	100
2.53167	84
2.53533	72
2.53900	61
2.54267	52
2.54633	48
2.55000	43
2.55367	41
2.55733	39
2.56100	41
2.56467	42
2.56833	44
2.57200	46
2.57567	46
2.57933	48
2.58300	50
2.58667	53
2.59033	56
2.59400	60
2.59767	63
2.60133	62
2.60500	55
2.60867	38
2.61233	14
2.61600	-16
2.61967	-51
2.62333	-91
2.62700	-131
2.63067	-170
2.63433	-205
2.63800	-236
2.64167	-262
2.64533	-280
2.64900	-293
2.65267	-301
2.65633	-305
2.66000	-303
2.66367	-298
2.66733	-293
2.67100	-286
2.67467	-279
2.67833	-273
2.68200	-262
2.68567	-249
2.68933	-236
2.69300	-223
2.69667	-210
2.70033	-198
2.70400	-191
2.70767	-183
2.71133	-178
2.71500	-171
2.71867	-164
2.72233	-158
2.72600	-153
2.72967	-148
2.73333	-139
2.73700	-131
2.74067	-125
2.74433	-124
2.74800	-122
2.75167	-120
2.75533	-119
2.75900	-116
2.76267	-111
2.76633	-105
2.77000	-101
2.77367	-98
2.77733	-97
2.78100	-96
2.78467	-98
2.78833	-98
2.79200	-95
2.79567	-92
2.79933	-89
2.80300	-87
2.80667	-87
2.81033	-88
2.81400	-88
2.81767	-88
2.82133	-87
2.82500	-75
2.82867	-38
2.83233	50
2.83600	236
2.83967	583
2.84333	1156
2.84700	2019
2.85067	3198
2.85433	4687
2.85800	6423
2.86167	8296
2.86533	10175
2.86900	11911
2.87267	13364
2.87633	14434
2.88000	15064
2.88367	15241
2.88733	15008
2.89100	14436
2.89467	13612
2.89833	12622
2.90200	11544
2.90567	10438
2.90933	9351
2.91300	8313
2.91667	7339
2.92033	6446
2.92400	5638
2.92767	4912
2.93133	4263
2.93500	3689
2.93867	3181
2.94233	2733
2.94600	2341
2.94967	2002
2.95333	1707
2.95700	1453
2.96067	1235
2.96433	1048
2.96800	886
2.97167	743
2.97533	619
2.97900	513
2.98267	424
2.98633	347
2.99000	282
2.99367	225
2.99733	174
3.00100	129
3.00467	92
3.00833	63
3.01200	36
3.01567	15
3.01933	-3
3.02300	-19
3.02667	-30
3.03033	-39
3.03400	-47
3.03767	-56
3.04133	-62
3.04500	-67
3.04867	-71
3.05233	-74
3.05600	-77
3.05967	-80
3.06333	-82
3.06700	-85
3.07067	-91
3.07433	-93
3.07800	-94
3.08167	-94
3.08533	-95
3.08900	-94
3.09267	-97
3.09633	-101
3.10000	-103
3.10367	-104
3.10733	-102
3.11100	-101
3.11467	-99
3.11833	-100
3.12200	-102
3.12567	-104
3.12933	-105
3.13300	-103
3.13667	-102
3.14033	-100
3.14400	-97
3.14767	-96
3.15133	-97
3.15500	-97
3.15867	-98
3.16233	-99
3.16600	-99
3.16967	-99
3.17333	-100
3.17700	-100
3.18067	-98
3.18433	-95
3.18800	-96
3.19167	-96
3.19533	-98
3.19900	-98
3.20267	-94
3.20633	-91
3.21000	-90
3.21367	-92
3.21733	-93
3.22100	-91
3.22467	-88
3.22833	-85
3.23200	-82
3.23567	-79
3.23933	-79
3.24300	-77
3.24667	-73
3.25033	-71
3.25400	-71
3.25767	-74
3.26133	-74
3.26500	-77
3.26867	-76
3.27233	-76
3.27600	-78
3.27967	-82
3.28333	-82
3.28700	-79
3.29067	-77
3.29433	-76
3.29800	-75
3.30167	-76
3.30533	-78
3.30900	-78
3.31267	-79
3.31633	-77
3.32000	-75
3.32367	-76
3.32733	-78
3.33100	-77
3.33467	-75
3.33833	-77
3.34200	-78
3.34567	-80
3.34933	-82
3.35300	-84
3.35667	-82
3.36033	-79
3.36400	-77
3.36767	-76
3.37133	-78
3.37500	-82
3.37867	-86
3.38233	-88
3.38600	-87
3.38967	-87
3.39333	-87
3.39700	-89
3.40067	-91
3.40433	-94
3.40800	-98
3.41167	-114
3.41533	-132
3.41900	-145
3.42267	-153
3.42633	-151
3.43000	-143
3.43367	-130
3.43733	-109
3.44100	-82
3.44467	-50
3.44833	-17
3.45200	13
3.45567	44
3.45933	75
3.46300	101
3.46667	126
3.47033	149
3.47400	169
3.47767	187
3.48133	204
3.48500	224
3.48867	240
3.49233	255
3.49600	270
3.49967	284
3.50333	296
3.50700	305
3.51067	314
3.51433	323
3.51800	330
3.52167	335
3.52533	340
3.52900	343
3.53267	345
3.53633	347
3.54000	349
3.54367	350
3.54733	349
3.55100	350
3.55467	350
3.55833	349
3.56200	351
3.56567	353
3.56933	353
3.57300	350
3.57667	350
3.58033	352
3.58400	355
3.58767	356
3.59133	357
3.59500	357
3.59867	357
3.60233	356
3.60600	359
3.60967	359
3.61333	357
3.61700	356
3.62067	355
3.62433	354
3.62800	354
3.63167	357
3.63533	359
3.63900	356
3.64267	354
3.64633	353
3.65000	352
3.65367	351
3.65733	350
3.66100	348
3.66467	345
3.66833	343
3.67200	345
3.67567	349
3.67933	350
3.68300	349
3.68667	346
3.69033	345
3.69400	343
3.69767	342
3.70133	342
3.70500	342
3.70867	342
3.71233	343
3.71600	342
3.71967	336
3.72333	333
3.72700	332
3.73067	331
3.73433	331
3.73800	331
3.74167	331
3.74533	332
3.74900	330
3.75267	328
3.75633	326
3.76000	325
3.76367	321
3.76733	316
3.77100	314
3.77467	313
3.77833	312
3.78200	310
3.78567	307
3.78933	304
3.79300	302
3.79667	300
3.80033	296
3.80400	290
3.80767	287
3.81133	286
3.81500	285
3.81867	283
3.82233	284
3.82600	283
3.82967	283
3.83333	283
3.83700	282
3.84067	282
3.84433	279
3.84800	275
3.85167	273
3.85533	273
3.85900	274
3.86267	272
3.86633	267
3.87000	263
3.87367	260
3.87733	257
3.88100	255
3.88467	254
3.88833	254
3.89200	254
3.89567	252
3.89933	249
3.90300	249
3.90667	249
3.91033	250
3.91400	253
3.91767	254
3.92133	252
3.92500	247
3.92867	245
3.93233	241
3.93600	241
3.93967	243
3.94333	244
3.94700	243
3.95067	241
3.95433	239
3.95800	239
3.96167	239
3.96533	238
3.96900	238
3.97267	238
3.97633	236
3.98000	235
3.98367	234
3.98733	230
3.99100	227
3.99467	224
3.99833	221

[Status Trace (Column Oven Temperature)]
Interval(msec)	1000
# of Points	240
Start Time(min)	0.016
End Time(min)	4.000
Intensity Units	
Intensity Multiplier	1
R.Time (min)	Intensity
0.01637	35.02
0.03303	35.01
0.04970	35.01
0.06637	35.02
0.08303	35.03
0.09970	35.03
0.11637	35.02
0.13303	35.02
0.14970	35.01
0.16637	34.99
0.18303	34.98
0.19970	34.98
0.21637	34.97
0.23303	34.98
0.24970	34.97
0.26637	34.97
0.28303	34.97
0.29970	34.98
0.31637	34.98
0.33303	34.98
0.34970	34.98
0.36637	35.00
0.38303	35.01
0.39970	35.02
0.41637	35.03
0.43303	35.04
0.44970	35.04
0.46637	35.03
0.48303	35.03
0.49970	35.03
0.51637	35.03
0.53303	35.03
0.54970	35.02
0.56637	35.00
0.58303	34.99
0.59970	34.98
0.61637	34.98
0.63303	34.97
0.64970	34.96
0.66637	34.98
0.68303	34.97
0.69970	34.98
0.71637	34.98
0.73303	34.97
0.74970	34.98
0.76637	34.99
0.78303	35.00
0.79970	35.00
0.81637	34.99
0.83303	34.99
0.84970	34.99
0.86637	34.99
0.88303	34.99
0.89970	34.98
0.91637	34.98
0.93303	34.98
0.94970	34.99
0.96637	34.99
0.98303	35.00
0.99970	35.00
1.01637	35.00
1.03303	35.00
1.04970	35.00
1.06637	35.01
1.08303	35.02
1.09970	35.01
1.11637	35.01
1.13303	35.00
1.14970	35.00
1.16637	34.99
1.18303	34.98
1.19970	34.98
1.21637	34.97
1.23303	34.97
1.24970	34.98
1.26637	34.98
1.28303	34.98
1.29970	34.98
1.31637	34.98
1.33303	34.98
1.34970	34.98
1.36637	34.98
1.38303	34.99
1.39970	34.99
1.41637	34.99
1.43303	35.00
1.44970	35.00
1.46637	35.00
1.48303	34.99
1.49970	34.99
1.51637	35.00
1.53303	35.01
1.54970	35.00
1.56637	35.00
1.58303	34.99
1.59970	35.03
1.61637	35.12
1.63303	35.28
1.64970	35.50
1.66637	35.79
1.68303	36.16
1.69970	36.53
1.71637	36.86
1.73303	37.19
1.74970	37.52
1.76637	37.86
1.78303	38.18
1.79970	38.50
1.81637	38.86
1.83303	39.17
1.84970	39.51
1.86637	39.84
1.88303	40.16
1.89970	40.50
1.91637	40.83
1.93303	41.16
1.94970	41.47
1.96637	41.80
1.98303	42.12
1.99970	42.47
2.01637	42.79
2.03303	43.11
2.04970	43.45
2.06637	43.77
2.08303	44.09
2.09970	44.41
2.11637	44.75
2.13303	45.07
2.14970	45.41
2.16637	45.74
2.18303	46.06
2.19970	46.39
2.21637	46.71
2.23303	47.05
2.24970	47.38
2.26637	47.68
2.28303	48.01
2.29970	48.33
2.31637	48.67
2.33303	49.02
2.34970	49.30
2.36637	49.55
2.38303	49.67
2.39970	49.68
2.41637	49.69
2.43303	49.68
2.44970	49.69
2.46637	49.68
2.48303	49.71
2.49970	49.73
2.51637	49.74
2.53303	49.75
2.54970	49.77
2.56637	49.77
2.58303	49.79
2.59970	49.80
2.61637	49.81
2.63303	49.80
2.64970	49.81
2.66637	49.83
2.68303	49.84
2.69970	49.86
2.71637	49.85
2.73303	49.86
2.74970	49.87
2.76637	49.88
2.78303	49.88
2.79970	49.88
2.81637	49.87
2.83303	49.87
2.84970	49.87
2.86637	49.89
2.88303	49.90
2.89970	49.91
2.91637	49.92
2.93303	49.94
2.94970	49.96
2.96637	49.98
2.98303	49.99
2.99970	49.99
3.01637	49.99
3.03303	50.01
3.04970	50.02
3.06637	50.04
3.08303	50.04
3.09970	50.05
3.11637	50.05
3.13303	50.06
3.14970	50.06
3.16637	50.07
3.18303	50.07
3.19970	50.09
3.21637	50.10
3.23303	50.10
3.24970	50.10
3.26637	50.10
3.28303	50.09
3.29970	50.09
3.31637	50.10
3.33303	50.09
3.34970	50.09
3.36637	50.10
3.38303	50.10
3.39970	50.10
3.41637	50.08
3.43303	50.07
3.44970	50.08
3.46637	50.08
3.48303	50.07
3.49970	50.07
3.51637	50.07
3.53303	50.07
3.54970	50.06
3.56637	50.06
3.58303	50.07
3.59970	50.07
3.61637	50.07
3.63303	50.07
3.64970	50.07
3.66637	50.07
3.68303	50.07
3.69970	50.07
3.71637	50.08
3.73303	50.08
3.74970	50.08
3.76637	50.08
3.78303	50.08
3.79970	50.08
3.81637	50.07
3.83303	50.08
3.84970	50.08
3.86637	50.07
3.88303	50.07
3.89970	50.08
3.91637	50.07
3.93303	50.07
3.94970	50.07
3.96637	50.07
3.98303	50.07
3.99970	50.06

[Status Trace (Injection Unit Temperature)]
Interval(msec)	1000
# of Points	240
Start Time(min)	0.016
End Time(min)	4.000
Intensity Units	
Intensity Multiplier	1
R.Time (min)	Intensity
0.01637	99.98
0.03303	99.98
0.04970	99.99
0.06637	99.98
0.08303	99.98
0.09970	99.98
0.11637	99.98
0.13303	99.98
0.14970	99.99
0.16637	99.98
0.18303	99.98
0.19970	99.98
0.21637	99.98
0.23303	99.98
0.24970	99.98
0.26637	99.98
0.28303	99.98
0.29970	99.98
0.31637	99.99
0.33303	99.98
0.34970	99.98
0.36637	99.98
0.38303	99.98
0.39970	99.98
0.41637	99.98
0.43303	99.98
0.44970	99.98
0.46637	99.98
0.48303	99.98
0.49970	99.98
0.51637	99.98
0.53303	99.98
0.54970	99.98
0.56637	99.98
0.58303	99.98
0.59970	99.97
0.61637	99.98
0.63303	99.98
0.64970	99.98
0.66637	99.98
0.68303	99.98
0.69970	99.98
0.71637	99.98
0.73303	99.98
0.74970	99.98
0.76637	99.98
0.78303	99.98
0.79970	99.98
0.81637	99.98
0.83303	99.98
0.84970	99.98
0.86637	99.98
0.88303	99.98
0.89970	99.99
0.91637	99.99
0.93303	99.98
0.94970	99.98
0.96637	99.98
0.98303	99.98
0.99970	99.98
1.01637	99.98
1.03303	99.99
1.04970	99.98
1.06637	99.99
1.08303	99.99
1.09970	99.99
1.11637	99.98
1.13303	99.98
1.14970	99.98
1.16637	99.98
1.18303	99.98
1.19970	99.99
1.21637	99.99
1.23303	99.99
1.24970	99.99
1.26637	99.99
1.28303	99.98
1.29970	99.99
1.31637	99.99
1.33303	99.99
1.34970	99.99
1.36637	99.99
1.38303	99.99
1.39970	99.99
1.41637	99.99
1.43303	99.99
1.44970	99.99
1.46637	99.99
1.48303	99.99
1.49970	99.98
1.51637	99.99
1.53303	99.99
1.54970	99.99
1.56637	99.99
1.58303	99.99
1.59970	99.99
1.61637	99.98
1.63303	99.99
1.64970	99.99
1.66637	99.99
1.68303	99.99
1.69970	99.99
1.71637	99.99
1.73303	99.98
1.74970	99.99
1.76637	99.99
1.78303	99.99
1.79970	99.99
1.81637	99.99
1.83303	99.99
1.84970	99.98
1.86637	99.99
1.88303	99.99
1.89970	99.98
1.91637	99.99
1.93303	99.99
1.94970	99.99
1.96637	99.98
1.98303	99.98
1.99970	99.98
2.01637	99.98
2.03303	99.98
2.04970	99.98
2.06637	99.98
2.08303	99.98
2.09970	99.97
2.11637	99.98
2.13303	99.98
2.14970	99.98
2.16637	99.98
2.18303	99.98
2.19970	99.97
2.21637	99.97
2.23303	99.97
2.24970	99.98
2.26637	99.97
2.28303	99.97
2.29970	99.97
2.31637	99.97
2.33303	99.97
2.34970	99.97
2.36637	99.96
2.38303	99.97
2.39970	99.97
2.41637	99.97
2.43303	99.97
2.44970	99.97
2.46637	99.97
2.48303	99.97
2.49970	99.98
2.51637	99.97
2.53303	99.97
2.54970	99.97
2.56637	99.97
2.58303	99.98
2.59970	99.98
2.61637	99.98
2.63303	99.98
2.64970	99.98
2.66637	99.98
2.68303	99.98
2.69970	99.98
2.71637	99.98
2.73303	99.99
2.74970	99.98
2.76637	99.98
2.78303	99.99
2.79970	99.99
2.81637	99.99
2.83303	99.99
2.84970	99.99
2.86637	99.99
2.88303	100.00
2.89970	100.00
2.91637	100.00
2.93303	100.00
2.94970	100.00
2.96637	100.00
2.98303	100.00
2.99970	100.01
3.01637	100.01
3.03303	100.00
3.04970	100.01
3.06637	100.01
3.08303	100.01
3.09970	100.01
3.11637	100.02
3.13303	100.01
3.14970	100.02
3.16637	100.02
3.18303	100.02
3.19970	100.02
3.21637	100.02
3.23303	100.02
3.24970	100.03
3.26637	100.02
3.28303	100.03
3.29970	100.03
3.31637	100.03
3.33303	100.03
3.34970	100.03
3.36637	100.04
3.38303	100.03
3.39970	100.03
3.41637	100.04
3.43303	100.03
3.44970	100.04
3.46637	100.04
3.48303	100.04
3.49970	100.04
3.51637	100.04
3.53303	100.04
3.54970	100.04
3.56637	100.04
3.58303	100.04
3.59970	100.05
3.61637	100.04
3.63303	100.05
3.64970	100.05
3.66637	100.05
3.68303	100.05
3.69970	100.05
3.71637	100.05
3.73303	100.05
3.74970	100.05
3.76637	100.05
3.78303	100.05
3.79970	100.05
3.81637	100.05
3.83303	100.05
3.84970	100.05
3.86637	100.05
3.88303	100.05
3.89970	100.05
3.91637	100.05
3.93303	100.05
3.94970	100.05
3.96637	100.05
3.98303	100.05
3.99970	100.05

[Status Trace (Carrier Gas Pressure)]
Interval(msec)	1000
# of Points	240
Start Time(min)	0.016
End Time(min)	4.000
Intensity Units	
Intensity Multiplier	1
R.Time (min)	Intensity
0.01637	56.91
0.03303	55.94
0.04970	58.20
0.06637	59.89
0.08303	58.42
0.09970	57.97
0.11637	58.00
0.13303	58.01
0.14970	58.01
0.16637	58.00
0.18303	58.00
0.19970	58.00
0.21637	58.00
0.23303	58.00
0.24970	58.00
0.26637	58.00
0.28303	58.00
0.29970	58.00
0.31637	58.00
0.33303	58.00
0.34970	58.00
0.36637	58.00
0.38303	58.00
0.39970	58.00
0.41637	58.00
0.43303	58.00
0.44970	58.00
0.46637	58.00
0.48303	58.00
0.49970	58.00
0.51637	58.00
0.53303	58.00
0.54970	58.00
0.56637	58.00
0.58303	58.00
0.59970	58.00
0.61637	58.00
0.63303	58.00
0.64970	58.00
0.66637	58.00
0.68303	58.00
0.69970	58.00
0.71637	58.00
0.73303	58.00
0.74970	58.00
0.76637	58.00
0.78303	58.00
0.79970	58.00
0.81637	58.00
0.83303	58.00
0.84970	58.00
0.86637	58.00
0.88303	58.00
0.89970	58.00
0.91637	58.00
0.93303	58.00
0.94970	58.00
0.96637	58.00
0.98303	58.00
0.99970	58.00
1.01637	58.00
1.03303	58.00
1.04970	58.00
1.06637	58.00
1.08303	58.00
1.09970	58.00
1.11637	58.00
1.13303	58.00
1.14970	58.00
1.16637	58.00
1.18303	58.00
1.19970	58.00
1.21637	58.00
1.23303	58.00
1.24970	58.00
1.26637	58.00
1.28303	58.00
1.29970	58.00
1.31637	58.00
1.33303	58.00
1.34970	58.00
1.36637	58.00
1.38303	58.00
1.39970	58.00
1.41637	58.00
1.43303	58.00
1.44970	58.00
1.46637	58.00
1.48303	58.00
1.49970	58.00
1.51637	58.00
1.53303	58.00
1.54970	58.00
1.56637	58.00
1.58303	58.00
1.59970	58.00
1.61637	58.00
1.63303	58.01
1.64970	58.00
1.66637	58.00
1.68303	58.01
1.69970	58.00
1.71637	58.00
1.73303	58.00
1.74970	58.00
1.76637	58.00
1.78303	58.00
1.79970	58.00
1.81637	58.00
1.83303	58.00
1.84970	58.00
1.86637	58.00
1.88303	58.00
1.89970	58.00
1.91637	58.00
1.93303	58.00
1.94970	58.00
1.96637	58.00
1.98303	58.00
1.99970	58.00
2.01637	58.00
2.03303	58.00
2.04970	58.00
2.06637	58.00
2.08303	58.00
2.09970	58.00
2.11637	58.00
2.13303	58.00
2.14970	58.00
2.16637	58.00
2.18303	58.00
2.19970	58.00
2.21637	58.00
2.23303	58.00
2.24970	58.00
2.26637	58.00
2.28303	58.00
2.29970	58.00
2.31637	58.00
2.33303	58.00
2.34970	58.00
2.36637	58.00
2.38303	58.00
2.39970	57.99
2.41637	58.00
2.43303	58.00
2.44970	58.00
2.46637	58.00
2.48303	58.00
2.49970	58.00
2.51637	57.98
2.53303	57.99
2.54970	58.00
2.56637	58.00
2.58303	58.00
2.59970	58.00
2.61637	58.00
2.63303	58.00
2.64970	58.00
2.66637	58.00
2.68303	58.00
2.69970	58.00
2.71637	58.00
2.73303	58.00
2.74970	58.00
2.76637	58.00
2.78303	58.00
2.79970	58.00
2.81637	58.00
2.83303	58.00
2.84970	58.00
2.86637	58.00
2.88303	58.00
2.89970	58.00
2.91637	58.00
2.93303	58.00
2.94970	58.00
2.96637	58.00
2.98303	58.00
2.99970	58.00
3.01637	58.00
3.03303	58.00
3.04970	58.00
3.06637	58.00
3.08303	58.00
3.09970	58.00
3.11637	58.00
3.13303	58.00
3.14970	58.00
3.16637	58.00
3.18303	58.00
3.19970	58.00
3.21637	58.00
3.23303	58.00
3.24970	58.00
3.26637	58.00
3.28303	58.00
3.29970	58.00
3.31637	58.00
3.33303	58.00
3.34970	58.00
3.36637	58.00
3.38303	58.00
3.39970	58.00
3.41637	58.00
3.43303	58.00
3.44970	58.00
3.46637	58.00
3.48303	58.00
3.49970	58.00
3.51637	58.00
3.53303	58.00
3.54970	58.00
3.56637	58.00
3.58303	58.00
3.59970	58.00
3.61637	58.00
3.63303	58.00
3.64970	58.00
3.66637	58.00
3.68303	58.00
3.69970	58.00
3.71637	58.00
3.73303	58.00
3.74970	58.00
3.76637	58.00
3.78303	58.00
3.79970	58.00
3.81637	58.00
3.83303	58.00
3.84970	58.00
3.86637	58.00
3.88303	58.00
3.89970	58.00
3.91637	58.00
3.93303	58.00
3.94970	58.00
3.96637	58.00
3.98303	58.00
3.99970	58.00

[Status Trace (Carrier Gas Flow)]
Interval(msec)	1000
# of Points	240
Start Time(min)	0.016
End Time(min)	4.000
Intensity Units	
Intensity Multiplier	1
R.Time (min)	Intensity
0.01637	33.81
0.03303	34.54
0.04970	34.55
0.06637	34.49
0.08303	34.52
0.09970	34.52
0.11637	34.52
0.13303	34.52
0.14970	34.52
0.16637	34.51
0.18303	34.51
0.19970	34.52
0.21637	34.53
0.23303	34.53
0.24970	34.53
0.26637	34.52
0.28303	34.52
0.29970	34.52
0.31637	34.52
0.33303	34.52
0.34970	34.52
0.36637	34.52
0.38303	34.52
0.39970	34.52
0.41637	34.52
0.43303	34.52
0.44970	34.52
0.46637	34.52
0.48303	34.52
0.49970	34.52
0.51637	34.52
0.53303	34.52
0.54970	34.52
0.56637	34.52
0.58303	34.52
0.59970	34.52
0.61637	34.52
0.63303	34.52
0.64970	34.52
0.66637	34.52
0.68303	34.52
0.69970	34.52
0.71637	34.52
0.73303	34.52
0.74970	34.52
0.76637	34.52
0.78303	34.52
0.79970	34.52
0.81637	34.52
0.83303	34.52
0.84970	34.52
0.86637	34.52
0.88303	34.52
0.89970	34.52
0.91637	34.52
0.93303	34.52
0.94970	34.52
0.96637	34.52
0.98303	34.52
0.99970	34.52
1.01637	34.52
1.03303	34.52
1.04970	34.52
1.06637	34.52
1.08303	34.52
1.09970	34.52
1.11637	34.52
1.13303	34.52
1.14970	34.52
1.16637	34.52
1.18303	34.52
1.19970	34.51
1.21637	34.53
1.23303	34.53
1.24970	34.53
1.26637	34.52
1.28303	34.53
1.29970	34.51
1.31637	34.51
1.33303	34.53
1.34970	34.52
1.36637	34.52
1.38303	34.52
1.39970	34.52
1.41637	34.52
1.43303	34.52
1.44970	34.52
1.46637	34.52
1.48303	34.52
1.49970	34.52
1.51637	34.52
1.53303	34.52
1.54970	34.52
1.56637	34.52
1.58303	34.52
1.59970	34.52
1.61637	34.52
1.63303	34.52
1.64970	34.52
1.66637	34.52
1.68303	34.52
1.69970	34.52
1.71637	34.52
1.73303	34.52
1.74970	34.52
1.76637	34.52
1.78303	34.52
1.79970	34.52
1.81637	34.52
1.83303	34.52
1.84970	34.52
1.86637	34.52
1.88303	34.52
1.89970	34.52
1.91637	34.52
1.93303	34.52
1.94970	34.52
1.96637	34.52
1.98303	34.52
1.99970	34.52
2.01637	34.52
2.03303	34.52
2.04970	34.52
2.06637	34.52
2.08303	34.52
2.09970	34.52
2.11637	34.52
2.13303	34.52
2.14970	34.52
2.16637	34.52
2.18303	34.52
2.19970	34.52
2.21637	34.52
2.23303	34.53
2.24970	34.51
2.26637	34.53
2.28303	34.51
2.29970	34.52
2.31637	34.52
2.33303	34.50
2.34970	34.52
2.36637	34.52
2.38303	34.52
2.39970	34.52
2.41637	34.52
2.43303	34.51
2.44970	34.52
2.46637	34.52
2.48303	34.52
2.49970	34.52
2.51637	34.52
2.53303	34.53
2.54970	34.52
2.56637	34.52
2.58303	34.52
2.59970	34.52
2.61637	34.51
2.63303	34.52
2.64970	34.52
2.66637	34.52
2.68303	34.52
2.69970	34.52
2.71637	34.52
2.73303	34.52
2.74970	34.52
2.76637	34.52
2.78303	34.52
2.79970	34.52
2.81637	34.52
2.83303	34.52
2.84970	34.52
2.86637	34.52
2.88303	34.52
2.89970	34.52
2.91637	34.52
2.93303	34.52
2.94970	34.52
2.96637	34.52
2.98303	34.52
2.99970	34.52
3.01637	34.52
3.03303	34.52
3.04970	34.52
3.06637	34.52
3.08303	34.52
3.09970	34.52
3.11637	34.52
3.13303	34.52
3.14970	34.52
3.16637	34.52
3.18303	34.52
3.19970	34.52
3.21637	34.52
3.23303	34.52
3.24970	34.51
3.26637	34.51
3.28303	34.51
3.29970	34.53
3.31637	34.52
3.33303	34.52
3.34970	34.52
3.36637	34.52
3.38303	34.52
3.39970	34.52
3.41637	34.52
3.43303	34.52
3.44970	34.52
3.46637	34.52
3.48303	34.52
3.49970	34.52
3.51637	34.52
3.53303	34.52
3.54970	34.52
3.56637	34.52
3.58303	34.52
3.59970	34.52
3.61637	34.52
3.63303	34.52
3.64970	34.52
3.66637	34.52
3.68303	34.52
3.69970	34.52
3.71637	34.52
3.73303	34.52
3.74970	34.52
3.76637	34.52
3.78303	34.52
3.79970	34.52
3.81637	34.52
3.83303	34.52
3.84970	34.52
3.86637	34.52
3.88303	34.52
3.89970	34.52
3.91637	34.52
3.93303	34.52
3.94970	34.52
3.96637	34.52
3.98303	34.52
3.99970	34.52

[Status Trace (Column Flow)]
Interval(msec)	1000
# of Points	240
Start Time(min)	0.016
End Time(min)	4.000
Intensity Units	
Intensity Multiplier	1
R.Time (min)	Intensity
0.01637	5.44
0.03303	5.33
0.04970	5.59
0.06637	5.79
0.08303	5.62
0.09970	5.56
0.11637	5.57
0.13303	5.57
0.14970	5.57
0.16637	5.57
0.18303	5.57
0.19970	5.57
0.21637	5.57
0.23303	5.57
0.24970	5.57
0.26637	5.57
0.28303	5.57
0.29970	5.57
0.31637	5.57
0.33303	5.57
0.34970	5.57
0.36637	5.57
0.38303	5.57
0.39970	5.57
0.41637	5.57
0.43303	5.57
0.44970	5.57
0.46637	5.57
0.48303	5.57
0.49970	5.57
0.51637	5.57
0.53303	5.57
0.54970	5.57
0.56637	5.57
0.58303	5.57
0.59970	5.57
0.61637	5.57
0.63303	5.57
0.64970	5.57
0.66637	5.57
0.68303	5.57
0.69970	5.57
0.71637	5.57
0.73303	5.57
0.74970	5.57
0.76637	5.57
0.78303	5.57
0.79970	5.57
0.81637	5.57
0.83303	5.57
0.84970	5.57
0.86637	5.57
0.88303	5.57
0.89970	5.57
0.91637	5.57
0.93303	5.57
0.94970	5.57
0.96637	5.57
0.98303	5.57
0.99970	5.57
1.01637	5.57
1.03303	5.57
1.04970	5.57
1.06637	5.57
1.08303	5.57
1.09970	5.57
1.11637	5.57
1.13303	5.57
1.14970	5.57
1.16637	5.57
1.18303	5.57
1.19970	5.57
1.21637	5.57
1.23303	5.57
1.24970	5.57
1.26637	5.57
1.28303	5.57
1.29970	5.57
1.31637	5.57
1.33303	5.57
1.34970	5.57
1.36637	5.57
1.38303	5.57
1.39970	5.57
1.41637	5.57
1.43303	5.57
1.44970	5.57
1.46637	5.57
1.48303	5.57
1.49970	5.57
1.51637	5.57
1.53303	5.57
1.54970	5.57
1.56637	5.57
1.58303	5.57
1.59970	5.57
1.61637	5.56
1.63303	5.56
1.64970	5.55
1.66637	5.54
1.68303	5.53
1.69970	5.52
1.71637	5.51
1.73303	5.50
1.74970	5.49
1.76637	5.48
1.78303	5.47
1.79970	5.46
1.81637	5.45
1.83303	5.44
1.84970	5.43
1.86637	5.42
1.88303	5.41
1.89970	5.40
1.91637	5.39
1.93303	5.38
1.94970	5.37
1.96637	5.36
1.98303	5.35
1.99970	5.34
2.01637	5.33
2.03303	5.32
2.04970	5.31
2.06637	5.30
2.08303	5.29
2.09970	5.28
2.11637	5.27
2.13303	5.26
2.14970	5.25
2.16637	5.24
2.18303	5.23
2.19970	5.22
2.21637	5.21
2.23303	5.20
2.24970	5.19
2.26637	5.19
2.28303	5.18
2.29970	5.17
2.31637	5.16
2.33303	5.15
2.34970	5.14
2.36637	5.13
2.38303	5.13
2.39970	5.13
2.41637	5.13
2.43303	5.13
2.44970	5.13
2.46637	5.13
2.48303	5.13
2.49970	5.13
2.51637	5.13
2.53303	5.13
2.54970	5.13
2.56637	5.13
2.58303	5.13
2.59970	5.13
2.61637	5.13
2.63303	5.13
2.64970	5.13
2.66637	5.12
2.68303	5.12
2.69970	5.12
2.71637	5.12
2.73303	5.12
2.74970	5.12
2.76637	5.12
2.78303	5.12
2.79970	5.12
2.81637	5.12
2.83303	5.12
2.84970	5.12
2.86637	5.12
2.88303	5.12
2.89970	5.12
2.91637	5.12
2.93303	5.12
2.94970	5.12
2.96637	5.12
2.98303	5.12
2.99970	5.12
3.01637	5.12
3.03303	5.12
3.04970	5.12
3.06637	5.12
3.08303	5.12
3.09970	5.12
3.11637	5.12
3.13303	5.12
3.14970	5.12
3.16637	5.12
3.18303	5.12
3.19970	5.12
3.21637	5.12
3.23303	5.12
3.24970	5.12
3.26637	5.12
3.28303	5.12
3.29970	5.12
3.31637	5.12
3.33303	5.12
3.34970	5.12
3.36637	5.12
3.38303	5.12
3.39970	5.12
3.41637	5.12
3.43303	5.12
3.44970	5.12
3.46637	5.12
3.48303	5.12
3.49970	5.12
3.51637	5.12
3.53303	5.12
3.54970	5.12
3.56637	5.12
3.58303	5.12
3.59970	5.12
3.61637	5.12
3.63303	5.12
3.64970	5.12
3.66637	5.12
3.68303	5.12
3.69970	5.12
3.71637	5.12
3.73303	5.12
3.74970	5.12
3.76637	5.12
3.78303	5.12
3.79970	5.12
3.81637	5.12
3.83303	5.12
3.84970	5.12
3.86637	5.12
3.88303	5.12
3.89970	5.12
3.91637	5.12
3.93303	5.12
3.94970	5.12
3.96637	5.12
3.98303	5.12
3.99970	5.12

[Status Trace (Linear Velocity)]
Interval(msec)	1000
# of Points	240
Start Time(min)	0.016
End Time(min)	4.000
Intensity Units	
Intensity Multiplier	1
R.Time (min)	Intensity
0.01637	38.31
0.03303	37.67
0.04970	39.16
0.06637	40.26
0.08303	39.30
0.09970	39.01
0.11637	39.03
0.13303	39.03
0.14970	39.03
0.16637	39.03
0.18303	39.03
0.19970	39.03
0.21637	39.03
0.23303	39.03
0.24970	39.03
0.26637	39.03
0.28303	39.03
0.29970	39.03
0.31637	39.03
0.33303	39.03
0.34970	39.03
0.36637	39.03
0.38303	39.03
0.39970	39.03
0.41637	39.02
0.43303	39.02
0.44970	39.02
0.46637	39.02
0.48303	39.02
0.49970	39.02
0.51637	39.02
0.53303	39.02
0.54970	39.03
0.56637	39.03
0.58303	39.03
0.59970	39.03
0.61637	39.03
0.63303	39.03
0.64970	39.03
0.66637	39.03
0.68303	39.03
0.69970	39.03
0.71637	39.03
0.73303	39.03
0.74970	39.03
0.76637	39.03
0.78303	39.03
0.79970	39.03
0.81637	39.03
0.83303	39.03
0.84970	39.03
0.86637	39.03
0.88303	39.03
0.89970	39.03
0.91637	39.03
0.93303	39.03
0.94970	39.03
0.96637	39.03
0.98303	39.03
0.99970	39.03
1.01637	39.03
1.03303	39.03
1.04970	39.03
1.06637	39.03
1.08303	39.03
1.09970	39.03
1.11637	39.03
1.13303	39.03
1.14970	39.03
1.16637	39.03
1.18303	39.03
1.19970	39.03
1.21637	39.03
1.23303	39.03
1.24970	39.03
1.26637	39.03
1.28303	39.03
1.29970	39.03
1.31637	39.03
1.33303	39.03
1.34970	39.03
1.36637	39.03
1.38303	39.03
1.39970	39.03
1.41637	39.03
1.43303	39.03
1.44970	39.03
1.46637	39.03
1.48303	39.03
1.49970	39.03
1.51637	39.03
1.53303	39.03
1.54970	39.03
1.56637	39.03
1.58303	39.03
1.59970	39.03
1.61637	39.02
1.63303	39.00
1.64970	38.98
1.66637	38.96
1.68303	38.92
1.69970	38.88
1.71637	38.85
1.73303	38.82
1.74970	38.79
1.76637	38.76
1.78303	38.72
1.79970	38.70
1.81637	38.66
1.83303	38.63
1.84970	38.60
1.86637	38.57
1.88303	38.54
1.89970	38.51
1.91637	38.48
1.93303	38.44
1.94970	38.42
1.96637	38.39
1.98303	38.36
1.99970	38.33
2.01637	38.30
2.03303	38.26
2.04970	38.24
2.06637	38.21
2.08303	38.18
2.09970	38.15
2.11637	38.12
2.13303	38.08
2.14970	38.06
2.16637	38.03
2.18303	37.99
2.19970	37.97
2.21637	37.94
2.23303	37.91
2.24970	37.88
2.26637	37.85
2.28303	37.82
2.29970	37.79
2.31637	37.76
2.33303	37.73
2.34970	37.71
2.36637	37.68
2.38303	37.67
2.39970	37.66
2.41637	37.67
2.43303	37.67
2.44970	37.67
2.46637	37.67
2.48303	37.67
2.49970	37.67
2.51637	37.65
2.53303	37.66
2.54970	37.67
2.56637	37.66
2.58303	37.66
2.59970	37.66
2.61637	37.66
2.63303	37.66
2.64970	37.66
2.66637	37.66
2.68303	37.66
2.69970	37.66
2.71637	37.66
2.73303	37.66
2.74970	37.66
2.76637	37.65
2.78303	37.65
2.79970	37.65
2.81637	37.65
2.83303	37.65
2.84970	37.65
2.86637	37.65
2.88303	37.65
2.89970	37.65
2.91637	37.65
2.93303	37.65
2.94970	37.65
2.96637	37.65
2.98303	37.64
2.99970	37.64
3.01637	37.64
3.03303	37.64
3.04970	37.64
3.06637	37.64
3.08303	37.64
3.09970	37.64
3.11637	37.64
3.13303	37.64
3.14970	37.64
3.16637	37.64
3.18303	37.64
3.19970	37.64
3.21637	37.63
3.23303	37.63
3.24970	37.63
3.26637	37.63
3.28303	37.63
3.29970	37.63
3.31637	37.63
3.33303	37.63
3.34970	37.63
3.36637	37.63
3.38303	37.63
3.39970	37.63
3.41637	37.64
3.43303	37.64
3.44970	37.64
3.46637	37.64
3.48303	37.64
3.49970	37.64
3.51637	37.64
3.53303	37.64
3.54970	37.64
3.56637	37.64
3.58303	37.64
3.59970	37.64
3.61637	37.64
3.63303	37.64
3.64970	37.64
3.66637	37.64
3.68303	37.64
3.69970	37.64
3.71637	37.64
3.73303	37.64
3.74970	37.64
3.76637	37.64
3.78303	37.64
3.79970	37.64
3.81637	37.64
3.83303	37.64
3.84970	37.64
3.86637	37.64
3.88303	37.64
3.89970	37.64
3.91637	37.64
3.93303	37.64
3.94970	37.64
3.96637	37.64
3.98303	37.64
3.99970	37.64

