[Header]
Application Name	LabSolutions
Version	5.110
Data File Name	C:\Users\User\Desktop\GC Analyses\Jack\UIC Prairie Sampling\10.19.22\221019_089.gcd
Output Date	1/4/2023
Output Time	2:27:22 PM

[File Information]
Type	Data File
Generated	12/8/2022 12:24:42 PM
Generated by	System Administrator
Modified	12/8/2022 12:29:01 PM
Modified by	System Administrator

[Sample Information]
Operator Name	System Administrator
Acquired	12/8/2022 12:25:00 PM
Sample Type	1:Standard
Level	1
Sample Name	221019_UICPrairie
Sample ID	221019_UICPrairie
ISTD Amount1	1
ISTD Amount2	1
ISTD Amount3	1
ISTD Amount4	1
ISTD Amount5	1
ISTD Amount6	1
ISTD Amount7	1
ISTD Amount8	1
ISTD Amount9	1
ISTD Amount10	1
ISTD Amount11	1
ISTD Amount12	1
ISTD Amount13	1
ISTD Amount14	1
ISTD Amount15	1
ISTD Amount16	1
ISTD Amount17	1
ISTD Amount18	1
ISTD Amount19	1
ISTD Amount20	1
ISTD Amount21	1
ISTD Amount22	1
ISTD Amount23	1
ISTD Amount24	1
ISTD Amount25	1
ISTD Amount26	1
ISTD Amount27	1
ISTD Amount28	1
ISTD Amount29	1
ISTD Amount30	1
ISTD Amount31	1
ISTD Amount32	1
Sample Amount	1
Dilution Factor	1
Vial#	1
Injection Volume	1
Injection Count	1
Bar Code	

[Original Files]
Data File	C:\Users\User\Desktop\GC Analyses\Jack\UIC Prairie Sampling\10.19.22\221019_089.gcd
Method File	C:\LabSolutions\Data\GHG_4min_2022\ghg3_togas_w_acet_4 min_new_int.gcm
Batch File	
Report Format File	c:\LabSolutions\System\DEFAULT.lsr

[File Description]


[Configuration]
Instrument Name	C0B7VH3-Instrument1
Instrument #	1
Line #	1
# of Detectors	3
Detector ID	DET#1	DET#2	DET#3
Detector Name	FID	PTCD	ECD
# of Channels	1	1	1

[Peak Table(Ch1)]
# of Peaks	3
Peak#	R.Time	I.Time	F.Time	Area	Height	A/H	Conc.	Mark	ID#	Name	k'	Plate #	Plate Ht.	Tailing	Resolution	Sep.Factor	Area Ratio	Height Ratio	Conc. %	Norm Conc.
1	1.465	1.439	1.534	2567	746	3.442	100.000	   	1	CO	0.000	4882	30.726	0.000	0.000	0.000	0	0	16.667	16.667
2	1.571	1.534	1.637	21503	10696	2.010	100.000	 V 	2	CH4	0.073	11217	13.373	1.125	1.485	0.000	0	0	16.667	16.667
3	1.996	1.945	2.755	2170805	992998	2.186	400.000	   	3	CO2	0.363	16723	8.970	1.333	7.025	5.000	0	0	66.667	66.667

[Peak Table(Ch2)]
# of Peaks	0

[Peak Table(Ch3)]
# of Peaks	5
Peak#	R.Time	I.Time	F.Time	Area	Height	A/H	Conc.	Mark	ID#	Name	k'	Plate #	Plate Ht.	Tailing	Resolution	Sep.Factor	Area Ratio	Height Ratio	Conc. %	Norm Conc.
1	2.458	2.348	2.495	1688	481	3.510	0.000	   			0.000	9231	16.250	0.000	0.000	0.000	0	0	0.000	0.000
2	2.513	2.495	2.550	1003	350	2.870	0.000	 V 			0.022	2186	68.604	0.000	0.347	0.000	0	0	0.000	0.000
3	2.601	2.550	2.649	1515	390	3.886	0.000	 V 			0.058	869	172.668	0.000	0.310	2.600	0	0	0.000	0.000
4	2.884	2.667	3.148	69656	16827	4.140	1.000	   	1	N2O	0.173	12281	12.214	1.566	1.235	2.974	0	0	100.000	100.000
5	3.261	3.148	3.995	11065	475	23.298	0.000	 V 			0.327	424	353.490	0.000	1.024	1.888	0	0	0.000	0.000

[Compound Results(Ch1)]
# of IDs	6
ID#	Name	R.Time	Area	Height	Conc.	Curve	3rd	2nd	1st	Constant	Area Ratio	Height Ratio	Conc. %	Norm Conc.
1	CO	1.465	2567	746	100.000	Linear	0.000000e+00	0.000000e+00	2.567302e+001	0.000000e+00	0	0	16.667	16.667
2	CH4	1.571	21503	10696	100.000	Linear	0.000000e+00	0.000000e+00	2.150255e+002	0.000000e+00	0	0	16.667	16.667
3	CO2	1.996	2170805	992998	400.000	Linear	0.000000e+00	0.000000e+00	5.427014e+003	0.000000e+00	0	0	66.667	66.667
4	Ethylene	0.000	0	0	0.000	Linear	0.000000e+00	0.000000e+00	0.000000e+00	0.000000e+00	0	0	0.000	0.000
5	Acetylene	0.000	0	0	0.000	Linear	0.000000e+00	0.000000e+00	0.000000e+00	0.000000e+00	0	0	0.000	0.000
6	Ethane	0.000	0	0	0.000	Linear	0.000000e+00	0.000000e+00	0.000000e+00	0.000000e+00	0	0	0.000	0.000

[Compound Results(Ch2)]
# of IDs	5
ID#	Name	R.Time	Area	Height	Conc.	Curve	3rd	2nd	1st	Constant	Area Ratio	Height Ratio	Conc. %	Norm Conc.
1	Hydrogen	0.000	0	0	0.000	Linear	0.000000e+00	0.000000e+00	0.000000e+00	0.000000e+00	0	0	0.000	0.000
2	Oxygen	0.000	0	0	0.000	Linear	0.000000e+00	0.000000e+00	0.000000e+00	0.000000e+00	0	0	0.000	0.000
3	Nitrogen	0.000	0	0	0.000	Linear	0.000000e+00	0.000000e+00	0.000000e+00	0.000000e+00	0	0	0.000	0.000
4	Methane	0.000	0	0	0.000	Linear	0.000000e+00	0.000000e+00	0.000000e+00	0.000000e+00	0	0	0.000	0.000
5	Carbon Monoxide	0.000	0	0	0.000	Linear	0.000000e+00	0.000000e+00	0.000000e+00	0.000000e+00	0	0	0.000	0.000

[Compound Results(Ch3)]
# of IDs	2
ID#	Name	R.Time	Area	Height	Conc.	Curve	3rd	2nd	1st	Constant	Area Ratio	Height Ratio	Conc. %	Norm Conc.
1	N2O	2.884	69656	16827	1.000	Linear	0.000000e+00	0.000000e+00	6.965630e+004	0.000000e+00	0	0	100.000	100.000
2	SF6	0.000	0	0	0.000	Linear	0.000000e+00	0.000000e+00	0.000000e+00	0.000000e+00	0	0	0.000	0.000

[Group Results(Ch1)]
# of Groups	0

[Group Results(Ch2)]
# of Groups	0

[Group Results(Ch3)]
# of Groups	0

[Chromatogram (Ch1)]
Interval(msec)	220
# of Points	1091
Start Time(min)	0.002
End Time(min)	3.998
R.Time (min)	Intensity
0.00167	9
0.00533	12
0.00900	16
0.01267	17
0.01633	18
0.02000	18
0.02367	18
0.02733	17
0.03100	15
0.03467	13
0.03833	12
0.04200	15
0.04567	17
0.04933	16
0.05300	14
0.05667	11
0.06033	6
0.06400	0
0.06767	-3
0.07133	-5
0.07500	-8
0.07867	-10
0.08233	-7
0.08600	-1
0.08967	9
0.09333	17
0.09700	21
0.10067	20
0.10433	15
0.10800	10
0.11167	7
0.11533	4
0.11900	0
0.12267	-2
0.12633	-1
0.13000	1
0.13367	1
0.13733	2
0.14100	3
0.14467	3
0.14833	5
0.15200	7
0.15567	7
0.15933	4
0.16300	2
0.16667	-0
0.17033	0
0.17400	3
0.17767	8
0.18133	10
0.18500	7
0.18867	5
0.19233	3
0.19600	1
0.19967	-2
0.20333	-2
0.20700	1
0.21067	1
0.21433	-2
0.21800	-6
0.22167	-9
0.22533	-11
0.22900	-8
0.23267	-1
0.23633	4
0.24000	4
0.24367	-1
0.24733	-11
0.25100	-21
0.25467	-28
0.25833	-28
0.26200	-23
0.26567	-18
0.26933	-18
0.27300	-19
0.27667	-16
0.28033	-9
0.28400	-2
0.28767	3
0.29133	4
0.29500	-2
0.29867	-8
0.30233	-12
0.30600	-13
0.30967	-16
0.31333	-22
0.31700	-26
0.32067	-25
0.32433	-22
0.32800	-18
0.33167	-17
0.33533	-19
0.33900	-22
0.34267	-22
0.34633	-19
0.35000	-16
0.35367	-14
0.35733	-14
0.36100	-17
0.36467	-18
0.36833	-15
0.37200	-9
0.37567	-3
0.37933	-1
0.38300	-4
0.38667	-12
0.39033	-18
0.39400	-23
0.39767	-29
0.40133	-35
0.40500	-42
0.40867	-47
0.41233	-45
0.41600	-38
0.41967	-31
0.42333	-26
0.42700	-25
0.43067	-27
0.43433	-30
0.43800	-28
0.44167	-24
0.44533	-18
0.44900	-11
0.45267	-8
0.45633	-13
0.46000	-13
0.46367	-13
0.46733	-14
0.47100	-14
0.47467	-15
0.47833	-19
0.48200	-24
0.48567	-26
0.48933	-25
0.49300	-24
0.49667	-18
0.50033	-13
0.50400	-10
0.50767	-11
0.51133	-16
0.51500	-21
0.51867	-26
0.52233	-29
0.52600	-30
0.52967	-31
0.53333	-30
0.53700	-27
0.54067	-22
0.54433	-18
0.54800	-15
0.55167	-13
0.55533	-13
0.55900	-15
0.56267	-18
0.56633	-20
0.57000	-21
0.57367	-24
0.57733	-26
0.58100	-23
0.58467	-19
0.58833	-19
0.59200	-22
0.59567	-27
0.59933	-29
0.60300	-28
0.60667	-30
0.61033	-33
0.61400	-36
0.61767	-36
0.62133	-35
0.62500	-34
0.62867	-35
0.63233	-36
0.63600	-34
0.63967	-32
0.64333	-32
0.64700	-36
0.65067	-42
0.65433	-48
0.65800	-51
0.66167	-50
0.66533	-45
0.66900	-40
0.67267	-38
0.67633	-35
0.68000	-30
0.68367	-23
0.68733	-18
0.69100	-19
0.69467	-27
0.69833	-36
0.70200	-44
0.70567	-48
0.70933	-47
0.71300	-40
0.71667	-35
0.72033	-35
0.72400	-38
0.72767	-42
0.73133	-47
0.73500	-48
0.73867	-45
0.74233	-44
0.74600	-46
0.74967	-45
0.75333	-45
0.75700	-46
0.76067	-45
0.76433	-45
0.76800	-47
0.77167	-49
0.77533	-48
0.77900	-46
0.78267	-45
0.78633	-44
0.79000	-37
0.79367	-28
0.79733	-21
0.80100	-21
0.80467	-22
0.80833	-25
0.81200	-31
0.81567	-36
0.81933	-39
0.82300	-45
0.82667	-53
0.83033	-60
0.83400	-64
0.83767	-62
0.84133	-58
0.84500	-55
0.84867	-54
0.85233	-56
0.85600	-58
0.85967	-64
0.86333	-68
0.86700	-69
0.87067	-66
0.87433	-60
0.87800	-54
0.88167	-53
0.88533	-51
0.88900	-53
0.89267	-54
0.89633	-52
0.90000	-46
0.90367	-41
0.90733	-40
0.91100	-42
0.91467	-47
0.91833	-54
0.92200	-58
0.92567	-58
0.92933	-57
0.93300	-58
0.93667	-61
0.94033	-63
0.94400	-67
0.94767	-68
0.95133	-69
0.95500	-70
0.95867	-72
0.96233	-73
0.96600	-68
0.96967	-58
0.97333	-48
0.97700	-41
0.98067	-40
0.98433	-44
0.98800	-49
0.99167	-56
0.99533	-62
0.99900	-67
1.00267	-68
1.00633	-65
1.01000	-58
1.01367	-53
1.01733	-53
1.02100	-58
1.02467	-63
1.02833	-66
1.03200	-67
1.03567	-68
1.03933	-67
1.04300	-61
1.04667	-55
1.05033	-54
1.05400	-58
1.05767	-64
1.06133	-69
1.06500	-70
1.06867	-66
1.07233	-59
1.07600	-54
1.07967	-54
1.08333	-57
1.08700	-62
1.09067	-64
1.09433	-62
1.09800	-57
1.10167	-54
1.10533	-54
1.10900	-58
1.11267	-65
1.11633	-73
1.12000	-81
1.12367	-86
1.12733	-85
1.13100	-74
1.13467	-61
1.13833	-50
1.14200	-46
1.14567	-46
1.14933	-47
1.15300	-48
1.15667	-52
1.16033	-59
1.16400	-67
1.16767	-76
1.17133	-84
1.17500	-88
1.17867	-91
1.18233	-94
1.18600	-94
1.18967	-89
1.19333	-84
1.19700	-82
1.20067	-80
1.20433	-76
1.20800	-70
1.21167	-66
1.21533	-64
1.21900	-62
1.22267	-62
1.22633	-64
1.23000	-66
1.23367	-68
1.23733	-67
1.24100	-66
1.24467	-68
1.24833	-72
1.25200	-76
1.25567	-77
1.25933	-77
1.26300	-74
1.26667	-70
1.27033	-68
1.27400	-68
1.27767	-69
1.28133	-69
1.28500	-67
1.28867	-69
1.29233	-73
1.29600	-76
1.29967	-77
1.30333	-80
1.30700	-83
1.31067	-83
1.31433	-81
1.31800	-77
1.32167	-71
1.32533	-68
1.32900	-69
1.33267	-69
1.33633	-66
1.34000	-65
1.34367	-65
1.34733	-67
1.35100	-70
1.35467	-76
1.35833	-82
1.36200	-83
1.36567	-83
1.36933	-81
1.37300	-81
1.37667	-82
1.38033	-84
1.38400	-86
1.38767	-85
1.39133	-81
1.39500	-77
1.39867	-74
1.40233	-71
1.40600	-68
1.40967	-67
1.41333	-67
1.41700	-67
1.42067	-71
1.42433	-74
1.42800	-76
1.43167	-78
1.43533	-78
1.43900	-63
1.44267	15
1.44633	191
1.45000	400
1.45367	562
1.45733	652
1.46100	685
1.46467	686
1.46833	675
1.47200	667
1.47567	669
1.47933	674
1.48300	671
1.48667	647
1.49033	594
1.49400	522
1.49767	442
1.50133	365
1.50500	297
1.50867	236
1.51233	184
1.51600	140
1.51967	102
1.52333	68
1.52700	39
1.53067	17
1.53433	13
1.53800	73
1.54167	362
1.54533	1167
1.54900	2662
1.55267	4649
1.55633	6699
1.56000	8464
1.56367	9782
1.56733	10554
1.57100	10649
1.57467	9971
1.57833	8617
1.58200	6903
1.58567	5188
1.58933	3708
1.59300	2547
1.59667	1697
1.60033	1106
1.60400	707
1.60767	443
1.61133	273
1.61500	163
1.61867	91
1.62233	43
1.62600	8
1.62967	-16
1.63333	-32
1.63700	-39
1.64067	-41
1.64433	-43
1.64800	-46
1.65167	-50
1.65533	-56
1.65900	-59
1.66267	-59
1.66633	-59
1.67000	-60
1.67367	-65
1.67733	-75
1.68100	-90
1.68467	-102
1.68833	-101
1.69200	-95
1.69567	-90
1.69933	-85
1.70300	-82
1.70667	-81
1.71033	-80
1.71400	-80
1.71767	-81
1.72133	-81
1.72500	-79
1.72867	-77
1.73233	-76
1.73600	-76
1.73967	-78
1.74333	-82
1.74700	-83
1.75067	-83
1.75433	-80
1.75800	-76
1.76167	-74
1.76533	-76
1.76900	-78
1.77267	-78
1.77633	-81
1.78000	-86
1.78367	-94
1.78733	-100
1.79100	-100
1.79467	-93
1.79833	-82
1.80200	-70
1.80567	-62
1.80933	-58
1.81300	-56
1.81667	-59
1.82033	-64
1.82400	-70
1.82767	-75
1.83133	-78
1.83500	-78
1.83867	-76
1.84233	-73
1.84600	-72
1.84967	-73
1.85333	-73
1.85700	-72
1.86067	-72
1.86433	-73
1.86800	-74
1.87167	-73
1.87533	-72
1.87900	-74
1.88267	-77
1.88633	-78
1.89000	-75
1.89367	-70
1.89733	-66
1.90100	-65
1.90467	-70
1.90833	-77
1.91200	-82
1.91567	-83
1.91933	-82
1.92300	-82
1.92667	-82
1.93033	-80
1.93400	-75
1.93767	-72
1.94133	-71
1.94500	-68
1.94867	-62
1.95233	-36
1.95600	138
1.95967	1146
1.96333	5728
1.96700	21550
1.97067	63439
1.97433	149059
1.97800	286387
1.98167	462838
1.98533	649520
1.98900	815164
1.99267	934846
1.99633	992957
2.00000	983254
2.00367	910725
2.00733	791554
2.01100	648878
2.01467	505675
2.01833	378474
2.02200	275156
2.02567	196545
2.02933	139436
2.03300	99220
2.03667	71439
2.04033	52431
2.04400	39446
2.04767	30526
2.05133	24327
2.05500	19947
2.05867	16789
2.06233	14456
2.06600	12690
2.06967	11313
2.07333	10212
2.07700	9309
2.08067	8554
2.08433	7916
2.08800	7370
2.09167	6901
2.09533	6494
2.09900	6134
2.10267	5811
2.10633	5517
2.11000	5253
2.11367	5011
2.11733	4786
2.12100	4578
2.12467	4389
2.12833	4212
2.13200	4048
2.13567	3894
2.13933	3746
2.14300	3608
2.14667	3481
2.15033	3366
2.15400	3257
2.15767	3153
2.16133	3055
2.16500	2965
2.16867	2882
2.17233	2800
2.17600	2719
2.17967	2644
2.18333	2571
2.18700	2499
2.19067	2430
2.19433	2366
2.19800	2311
2.20167	2260
2.20533	2206
2.20900	2151
2.21267	2098
2.21633	2052
2.22000	2011
2.22367	1971
2.22733	1937
2.23100	1906
2.23467	1874
2.23833	1839
2.24200	1800
2.24567	1757
2.24933	1717
2.25300	1682
2.25667	1649
2.26033	1614
2.26400	1583
2.26767	1552
2.27133	1519
2.27500	1487
2.27867	1459
2.28233	1438
2.28600	1419
2.28967	1397
2.29333	1373
2.29700	1347
2.30067	1321
2.30433	1298
2.30800	1279
2.31167	1262
2.31533	1245
2.31900	1230
2.32267	1211
2.32633	1187
2.33000	1163
2.33367	1144
2.33733	1128
2.34100	1112
2.34467	1096
2.34833	1083
2.35200	1072
2.35567	1062
2.35933	1050
2.36300	1035
2.36667	1018
2.37033	1000
2.37400	982
2.37767	966
2.38133	953
2.38500	944
2.38867	939
2.39233	933
2.39600	926
2.39967	917
2.40333	910
2.40700	903
2.41067	897
2.41433	889
2.41800	883
2.42167	883
2.42533	881
2.42900	877
2.43267	869
2.43633	856
2.44000	836
2.44367	812
2.44733	789
2.45100	772
2.45467	760
2.45833	751
2.46200	742
2.46567	733
2.46933	722
2.47300	709
2.47667	698
2.48033	691
2.48400	688
2.48767	685
2.49133	682
2.49500	678
2.49867	674
2.50233	670
2.50600	668
2.50967	665
2.51333	658
2.51700	650
2.52067	644
2.52433	640
2.52800	634
2.53167	625
2.53533	615
2.53900	607
2.54267	597
2.54633	586
2.55000	575
2.55367	570
2.55733	567
2.56100	564
2.56467	562
2.56833	560
2.57200	556
2.57567	552
2.57933	549
2.58300	543
2.58667	534
2.59033	525
2.59400	517
2.59767	513
2.60133	512
2.60500	510
2.60867	508
2.61233	505
2.61600	501
2.61967	498
2.62333	492
2.62700	484
2.63067	477
2.63433	473
2.63800	472
2.64167	469
2.64533	467
2.64900	465
2.65267	464
2.65633	464
2.66000	460
2.66367	452
2.66733	445
2.67100	440
2.67467	434
2.67833	425
2.68200	416
2.68567	408
2.68933	410
2.69300	420
2.69667	426
2.70033	428
2.70400	424
2.70767	415
2.71133	405
2.71500	398
2.71867	393
2.72233	392
2.72600	395
2.72967	395
2.73333	391
2.73700	384
2.74067	378
2.74433	370
2.74800	363
2.75167	355
2.75533	351
2.75900	353
2.76267	359
2.76633	363
2.77000	364
2.77367	361
2.77733	356
2.78100	350
2.78467	346
2.78833	344
2.79200	342
2.79567	340
2.79933	338
2.80300	335
2.80667	333
2.81033	331
2.81400	332
2.81767	334
2.82133	338
2.82500	341
2.82867	341
2.83233	341
2.83600	341
2.83967	340
2.84333	337
2.84700	329
2.85067	317
2.85433	304
2.85800	295
2.86167	289
2.86533	284
2.86900	281
2.87267	280
2.87633	284
2.88000	289
2.88367	292
2.88733	293
2.89100	291
2.89467	287
2.89833	283
2.90200	282
2.90567	285
2.90933	286
2.91300	288
2.91667	286
2.92033	281
2.92400	275
2.92767	271
2.93133	268
2.93500	263
2.93867	260
2.94233	258
2.94600	255
2.94967	252
2.95333	249
2.95700	245
2.96067	245
2.96433	249
2.96800	254
2.97167	259
2.97533	257
2.97900	253
2.98267	247
2.98633	244
2.99000	244
2.99367	244
2.99733	246
3.00100	250
3.00467	253
3.00833	252
3.01200	247
3.01567	246
3.01933	245
3.02300	242
3.02667	240
3.03033	239
3.03400	236
3.03767	234
3.04133	232
3.04500	230
3.04867	228
3.05233	226
3.05600	225
3.05967	225
3.06333	226
3.06700	227
3.07067	223
3.07433	219
3.07800	213
3.08167	208
3.08533	203
3.08900	196
3.09267	187
3.09633	176
3.10000	166
3.10367	163
3.10733	167
3.11100	171
3.11467	171
3.11833	167
3.12200	167
3.12567	169
3.12933	175
3.13300	184
3.13667	190
3.14033	196
3.14400	201
3.14767	203
3.15133	201
3.15500	196
3.15867	191
3.16233	186
3.16600	183
3.16967	183
3.17333	182
3.17700	178
3.18067	175
3.18433	180
3.18800	185
3.19167	181
3.19533	174
3.19900	171
3.20267	171
3.20633	174
3.21000	177
3.21367	179
3.21733	181
3.22100	181
3.22467	178
3.22833	172
3.23200	165
3.23567	159
3.23933	154
3.24300	149
3.24667	147
3.25033	152
3.25400	159
3.25767	160
3.26133	158
3.26500	154
3.26867	151
3.27233	149
3.27600	149
3.27967	150
3.28333	151
3.28700	150
3.29067	149
3.29433	148
3.29800	148
3.30167	149
3.30533	149
3.30900	147
3.31267	144
3.31633	143
3.32000	140
3.32367	136
3.32733	132
3.33100	132
3.33467	136
3.33833	141
3.34200	144
3.34567	143
3.34933	142
3.35300	138
3.35667	133
3.36033	129
3.36400	126
3.36767	121
3.37133	119
3.37500	123
3.37867	129
3.38233	135
3.38600	135
3.38967	130
3.39333	123
3.39700	119
3.40067	119
3.40433	122
3.40800	125
3.41167	126
3.41533	126
3.41900	124
3.42267	126
3.42633	127
3.43000	123
3.43367	114
3.43733	102
3.44100	92
3.44467	87
3.44833	86
3.45200	94
3.45567	106
3.45933	114
3.46300	114
3.46667	112
3.47033	110
3.47400	108
3.47767	104
3.48133	101
3.48500	99
3.48867	99
3.49233	100
3.49600	99
3.49967	99
3.50333	99
3.50700	100
3.51067	102
3.51433	105
3.51800	104
3.52167	101
3.52533	98
3.52900	103
3.53267	108
3.53633	109
3.54000	107
3.54367	106
3.54733	106
3.55100	107
3.55467	106
3.55833	105
3.56200	104
3.56567	102
3.56933	97
3.57300	90
3.57667	85
3.58033	80
3.58400	75
3.58767	70
3.59133	70
3.59500	72
3.59867	75
3.60233	78
3.60600	79
3.60967	79
3.61333	79
3.61700	79
3.62067	81
3.62433	83
3.62800	84
3.63167	85
3.63533	87
3.63900	90
3.64267	92
3.64633	91
3.65000	88
3.65367	87
3.65733	90
3.66100	92
3.66467	87
3.66833	79
3.67200	72
3.67567	69
3.67933	68
3.68300	71
3.68667	78
3.69033	81
3.69400	83
3.69767	84
3.70133	82
3.70500	79
3.70867	73
3.71233	68
3.71600	68
3.71967	73
3.72333	78
3.72700	81
3.73067	81
3.73433	78
3.73800	75
3.74167	76
3.74533	80
3.74900	83
3.75267	86
3.75633	91
3.76000	92
3.76367	88
3.76733	79
3.77100	73
3.77467	72
3.77833	73
3.78200	76
3.78567	78
3.78933	78
3.79300	77
3.79667	74
3.80033	70
3.80400	66
3.80767	60
3.81133	53
3.81500	47
3.81867	42
3.82233	43
3.82600	50
3.82967	61
3.83333	71
3.83700	75
3.84067	73
3.84433	69
3.84800	66
3.85167	63
3.85533	61
3.85900	59
3.86267	55
3.86633	49
3.87000	47
3.87367	48
3.87733	54
3.88100	59
3.88467	60
3.88833	56
3.89200	50
3.89567	49
3.89933	52
3.90300	55
3.90667	57
3.91033	56
3.91400	52
3.91767	46
3.92133	42
3.92500	40
3.92867	41
3.93233	44
3.93600	49
3.93967	52
3.94333	55
3.94700	57
3.95067	57
3.95433	53
3.95800	48
3.96167	47
3.96533	50
3.96900	54
3.97267	55
3.97633	54
3.98000	52
3.98367	50
3.98733	46
3.99100	38
3.99467	33
3.99833	36

[Chromatogram (Ch2)]
Interval(msec)	220
# of Points	1091
Start Time(min)	0.002
End Time(min)	3.998
R.Time (min)	Intensity
0.00167	1
0.00533	1
0.00900	1
0.01267	1
0.01633	1
0.02000	1
0.02367	1
0.02733	1
0.03100	1
0.03467	0
0.03833	-0
0.04200	-0
0.04567	-1
0.04933	-1
0.05300	-1
0.05667	-1
0.06033	-1
0.06400	-1
0.06767	-1
0.07133	-1
0.07500	-0
0.07867	-0
0.08233	0
0.08600	1
0.08967	1
0.09333	1
0.09700	2
0.10067	2
0.10433	2
0.10800	2
0.11167	2
0.11533	2
0.11900	1
0.12267	1
0.12633	1
0.13000	1
0.13367	0
0.13733	0
0.14100	0
0.14467	0
0.14833	0
0.15200	0
0.15567	0
0.15933	0
0.16300	-0
0.16667	-0
0.17033	-0
0.17400	-0
0.17767	0
0.18133	0
0.18500	0
0.18867	0
0.19233	0
0.19600	0
0.19967	0
0.20333	0
0.20700	0
0.21067	0
0.21433	0
0.21800	0
0.22167	-0
0.22533	-0
0.22900	-0
0.23267	-0
0.23633	-1
0.24000	-1
0.24367	-1
0.24733	-1
0.25100	-1
0.25467	-1
0.25833	-1
0.26200	-1
0.26567	-1
0.26933	-1
0.27300	-1
0.27667	-0
0.28033	-0
0.28400	-0
0.28767	-0
0.29133	-0
0.29500	-1
0.29867	-1
0.30233	-1
0.30600	-1
0.30967	-1
0.31333	-1
0.31700	-0
0.32067	-0
0.32433	-0
0.32800	-0
0.33167	0
0.33533	0
0.33900	0
0.34267	0
0.34633	0
0.35000	0
0.35367	0
0.35733	0
0.36100	0
0.36467	0
0.36833	0
0.37200	0
0.37567	1
0.37933	1
0.38300	1
0.38667	1
0.39033	1
0.39400	1
0.39767	1
0.40133	1
0.40500	1
0.40867	1
0.41233	1
0.41600	1
0.41967	1
0.42333	1
0.42700	1
0.43067	1
0.43433	0
0.43800	0
0.44167	-0
0.44533	-0
0.44900	-1
0.45267	-1
0.45633	-1
0.46000	-1
0.46367	-1
0.46733	-1
0.47100	-1
0.47467	-1
0.47833	-1
0.48200	-1
0.48567	-1
0.48933	-1
0.49300	-1
0.49667	-2
0.50033	-2
0.50400	-2
0.50767	-2
0.51133	-2
0.51500	-2
0.51867	-2
0.52233	-2
0.52600	-2
0.52967	-2
0.53333	-2
0.53700	-2
0.54067	-2
0.54433	-2
0.54800	-2
0.55167	-2
0.55533	-2
0.55900	-1
0.56267	-1
0.56633	-1
0.57000	-1
0.57367	-1
0.57733	-1
0.58100	-1
0.58467	-0
0.58833	-0
0.59200	-0
0.59567	-0
0.59933	-0
0.60300	-0
0.60667	-0
0.61033	-0
0.61400	-0
0.61767	-0
0.62133	-0
0.62500	-0
0.62867	-0
0.63233	-0
0.63600	-1
0.63967	-1
0.64333	-1
0.64700	-2
0.65067	-2
0.65433	-2
0.65800	-2
0.66167	-2
0.66533	-2
0.66900	-2
0.67267	-2
0.67633	-2
0.68000	-2
0.68367	-2
0.68733	-2
0.69100	-2
0.69467	-1
0.69833	-1
0.70200	-1
0.70567	-1
0.70933	-1
0.71300	-1
0.71667	-2
0.72033	-2
0.72400	-2
0.72767	-1
0.73133	-1
0.73500	-1
0.73867	-1
0.74233	-1
0.74600	-1
0.74967	-1
0.75333	-1
0.75700	-1
0.76067	-1
0.76433	-1
0.76800	-1
0.77167	-1
0.77533	-1
0.77900	-1
0.78267	-2
0.78633	-2
0.79000	-2
0.79367	-2
0.79733	-3
0.80100	-3
0.80467	-3
0.80833	-3
0.81200	-3
0.81567	-2
0.81933	-2
0.82300	-2
0.82667	-2
0.83033	-2
0.83400	-3
0.83767	-3
0.84133	-2
0.84500	-2
0.84867	-2
0.85233	-2
0.85600	-2
0.85967	-2
0.86333	-2
0.86700	-2
0.87067	-2
0.87433	-2
0.87800	-2
0.88167	-2
0.88533	-2
0.88900	-2
0.89267	-2
0.89633	-2
0.90000	-2
0.90367	-2
0.90733	-1
0.91100	-1
0.91467	-1
0.91833	-1
0.92200	-0
0.92567	-0
0.92933	-0
0.93300	-0
0.93667	-0
0.94033	-1
0.94400	-1
0.94767	-1
0.95133	-1
0.95500	-1
0.95867	-1
0.96233	-2
0.96600	-2
0.96967	-2
0.97333	-2
0.97700	-3
0.98067	-3
0.98433	-3
0.98800	-3
0.99167	-4
0.99533	-4
0.99900	-4
1.00267	-5
1.00633	-5
1.01000	-5
1.01367	-5
1.01733	-6
1.02100	-6
1.02467	-6
1.02833	-7
1.03200	-7
1.03567	-7
1.03933	-7
1.04300	-7
1.04667	-7
1.05033	-7
1.05400	-7
1.05767	-7
1.06133	-7
1.06500	-7
1.06867	-7
1.07233	-7
1.07600	-6
1.07967	-6
1.08333	-5
1.08700	-4
1.09067	-4
1.09433	-3
1.09800	-2
1.10167	-2
1.10533	-1
1.10900	-1
1.11267	-1
1.11633	-0
1.12000	-0
1.12367	-0
1.12733	-0
1.13100	-0
1.13467	-0
1.13833	-0
1.14200	-0
1.14567	-0
1.14933	-1
1.15300	-1
1.15667	-0
1.16033	-0
1.16400	-0
1.16767	-0
1.17133	0
1.17500	0
1.17867	0
1.18233	1
1.18600	1
1.18967	1
1.19333	1
1.19700	1
1.20067	1
1.20433	1
1.20800	0
1.21167	-0
1.21533	-1
1.21900	-1
1.22267	-1
1.22633	-1
1.23000	-1
1.23367	-2
1.23733	-2
1.24100	-2
1.24467	-3
1.24833	-3
1.25200	-3
1.25567	-3
1.25933	-3
1.26300	-3
1.26667	-3
1.27033	-3
1.27400	-4
1.27767	-4
1.28133	-4
1.28500	-4
1.28867	-4
1.29233	-3
1.29600	-3
1.29967	-3
1.30333	-3
1.30700	-3
1.31067	-3
1.31433	-3
1.31800	-3
1.32167	-3
1.32533	-3
1.32900	-3
1.33267	-3
1.33633	-3
1.34000	-3
1.34367	-3
1.34733	-3
1.35100	-3
1.35467	-3
1.35833	-3
1.36200	-3
1.36567	-3
1.36933	-3
1.37300	-3
1.37667	-3
1.38033	-3
1.38400	-2
1.38767	-2
1.39133	-2
1.39500	-3
1.39867	-3
1.40233	-3
1.40600	-3
1.40967	-3
1.41333	-3
1.41700	-3
1.42067	-3
1.42433	-3
1.42800	-3
1.43167	-3
1.43533	-3
1.43900	-3
1.44267	-3
1.44633	-3
1.45000	-3
1.45367	-3
1.45733	-3
1.46100	-3
1.46467	-3
1.46833	-3
1.47200	-3
1.47567	-4
1.47933	-4
1.48300	-4
1.48667	-4
1.49033	-4
1.49400	-4
1.49767	-4
1.50133	-4
1.50500	-3
1.50867	-3
1.51233	-3
1.51600	-3
1.51967	-4
1.52333	-4
1.52700	-4
1.53067	-4
1.53433	-4
1.53800	-4
1.54167	-4
1.54533	-4
1.54900	-4
1.55267	-4
1.55633	-4
1.56000	-4
1.56367	-4
1.56733	-4
1.57100	-4
1.57467	-4
1.57833	-4
1.58200	-4
1.58567	-4
1.58933	-4
1.59300	-5
1.59667	-5
1.60033	-6
1.60400	-7
1.60767	-8
1.61133	-10
1.61500	-12
1.61867	-14
1.62233	-16
1.62600	-19
1.62967	-22
1.63333	-26
1.63700	-29
1.64067	-33
1.64433	-36
1.64800	-40
1.65167	-44
1.65533	-48
1.65900	-51
1.66267	-55
1.66633	-60
1.67000	-65
1.67367	-70
1.67733	-76
1.68100	-81
1.68467	-87
1.68833	-92
1.69200	-97
1.69567	-101
1.69933	-104
1.70300	-107
1.70667	-109
1.71033	-110
1.71400	-111
1.71767	-112
1.72133	-112
1.72500	-112
1.72867	-112
1.73233	-111
1.73600	-111
1.73967	-111
1.74333	-111
1.74700	-111
1.75067	-112
1.75433	-113
1.75800	-115
1.76167	-116
1.76533	-117
1.76900	-118
1.77267	-119
1.77633	-120
1.78000	-121
1.78367	-122
1.78733	-123
1.79100	-123
1.79467	-123
1.79833	-123
1.80200	-123
1.80567	-123
1.80933	-123
1.81300	-123
1.81667	-123
1.82033	-122
1.82400	-122
1.82767	-122
1.83133	-121
1.83500	-120
1.83867	-120
1.84233	-119
1.84600	-120
1.84967	-120
1.85333	-121
1.85700	-121
1.86067	-122
1.86433	-123
1.86800	-123
1.87167	-124
1.87533	-124
1.87900	-124
1.88267	-124
1.88633	-123
1.89000	-123
1.89367	-122
1.89733	-122
1.90100	-121
1.90467	-121
1.90833	-120
1.91200	-120
1.91567	-120
1.91933	-120
1.92300	-120
1.92667	-120
1.93033	-120
1.93400	-120
1.93767	-120
1.94133	-119
1.94500	-119
1.94867	-118
1.95233	-118
1.95600	-118
1.95967	-118
1.96333	-118
1.96700	-118
1.97067	-118
1.97433	-118
1.97800	-117
1.98167	-117
1.98533	-116
1.98900	-116
1.99267	-116
1.99633	-116
2.00000	-116
2.00367	-116
2.00733	-116
2.01100	-115
2.01467	-115
2.01833	-114
2.02200	-114
2.02567	-113
2.02933	-112
2.03300	-112
2.03667	-111
2.04033	-111
2.04400	-111
2.04767	-111
2.05133	-111
2.05500	-111
2.05867	-111
2.06233	-111
2.06600	-111
2.06967	-112
2.07333	-112
2.07700	-112
2.08067	-112
2.08433	-111
2.08800	-110
2.09167	-110
2.09533	-109
2.09900	-108
2.10267	-107
2.10633	-106
2.11000	-105
2.11367	-104
2.11733	-103
2.12100	-102
2.12467	-102
2.12833	-101
2.13200	-101
2.13567	-102
2.13933	-102
2.14300	-102
2.14667	-101
2.15033	-101
2.15400	-101
2.15767	-101
2.16133	-101
2.16500	-100
2.16867	-100
2.17233	-100
2.17600	-100
2.17967	-100
2.18333	-99
2.18700	-99
2.19067	-99
2.19433	-99
2.19800	-99
2.20167	-99
2.20533	-99
2.20900	-99
2.21267	-98
2.21633	-98
2.22000	-98
2.22367	-97
2.22733	-97
2.23100	-96
2.23467	-95
2.23833	-95
2.24200	-95
2.24567	-95
2.24933	-95
2.25300	-95
2.25667	-95
2.26033	-96
2.26400	-96
2.26767	-96
2.27133	-95
2.27500	-95
2.27867	-95
2.28233	-94
2.28600	-94
2.28967	-93
2.29333	-93
2.29700	-93
2.30067	-93
2.30433	-94
2.30800	-94
2.31167	-95
2.31533	-94
2.31900	-94
2.32267	-93
2.32633	-92
2.33000	-91
2.33367	-89
2.33733	-87
2.34100	-86
2.34467	-84
2.34833	-83
2.35200	-82
2.35567	-82
2.35933	-81
2.36300	-80
2.36667	-79
2.37033	-78
2.37400	-77
2.37767	-75
2.38133	-72
2.38500	-69
2.38867	-66
2.39233	-62
2.39600	-58
2.39967	-55
2.40333	-50
2.40700	-46
2.41067	-42
2.41433	-38
2.41800	-34
2.42167	-30
2.42533	-27
2.42900	-24
2.43267	-22
2.43633	-20
2.44000	-18
2.44367	-16
2.44733	-14
2.45100	-13
2.45467	-11
2.45833	-9
2.46200	-8
2.46567	-7
2.46933	-5
2.47300	-4
2.47667	-2
2.48033	-0
2.48400	1
2.48767	2
2.49133	2
2.49500	3
2.49867	3
2.50233	3
2.50600	4
2.50967	4
2.51333	5
2.51700	6
2.52067	7
2.52433	8
2.52800	9
2.53167	10
2.53533	11
2.53900	12
2.54267	12
2.54633	13
2.55000	14
2.55367	14
2.55733	14
2.56100	15
2.56467	15
2.56833	15
2.57200	15
2.57567	15
2.57933	15
2.58300	16
2.58667	16
2.59033	17
2.59400	18
2.59767	18
2.60133	18
2.60500	19
2.60867	19
2.61233	19
2.61600	19
2.61967	20
2.62333	20
2.62700	20
2.63067	20
2.63433	20
2.63800	20
2.64167	19
2.64533	19
2.64900	19
2.65267	19
2.65633	19
2.66000	19
2.66367	19
2.66733	19
2.67100	19
2.67467	20
2.67833	20
2.68200	20
2.68567	20
2.68933	20
2.69300	20
2.69667	21
2.70033	21
2.70400	21
2.70767	22
2.71133	22
2.71500	22
2.71867	22
2.72233	22
2.72600	22
2.72967	23
2.73333	23
2.73700	23
2.74067	23
2.74433	23
2.74800	24
2.75167	24
2.75533	24
2.75900	24
2.76267	24
2.76633	24
2.77000	25
2.77367	25
2.77733	25
2.78100	25
2.78467	25
2.78833	25
2.79200	25
2.79567	24
2.79933	24
2.80300	23
2.80667	23
2.81033	22
2.81400	22
2.81767	22
2.82133	22
2.82500	22
2.82867	22
2.83233	22
2.83600	23
2.83967	23
2.84333	23
2.84700	23
2.85067	22
2.85433	20
2.85800	16
2.86167	11
2.86533	2
2.86900	-10
2.87267	-26
2.87633	-46
2.88000	-72
2.88367	-102
2.88733	-138
2.89100	-179
2.89467	-225
2.89833	-276
2.90200	-332
2.90567	-391
2.90933	-454
2.91300	-521
2.91667	-592
2.92033	-665
2.92400	-740
2.92767	-818
2.93133	-899
2.93500	-981
2.93867	-1065
2.94233	-1151
2.94600	-1238
2.94967	-1327
2.95333	-1416
2.95700	-1496
2.96067	-1555
2.96433	-1581
2.96800	-1572
2.97167	-1528
2.97533	-1456
2.97900	-1363
2.98267	-1257
2.98633	-1145
2.99000	-1031
2.99367	-920
2.99733	-815
3.00100	-717
3.00467	-627
3.00833	-546
3.01200	-474
3.01567	-409
3.01933	-353
3.02300	-303
3.02667	-260
3.03033	-222
3.03400	-190
3.03767	-161
3.04133	-137
3.04500	-117
3.04867	-99
3.05233	-84
3.05600	-71
3.05967	-59
3.06333	-50
3.06700	-42
3.07067	-35
3.07433	-28
3.07800	-23
3.08167	-19
3.08533	-15
3.08900	-12
3.09267	-9
3.09633	-6
3.10000	-4
3.10367	-2
3.10733	0
3.11100	2
3.11467	3
3.11833	4
3.12200	5
3.12567	6
3.12933	6
3.13300	7
3.13667	8
3.14033	8
3.14400	9
3.14767	9
3.15133	9
3.15500	10
3.15867	10
3.16233	11
3.16600	11
3.16967	11
3.17333	12
3.17700	12
3.18067	12
3.18433	13
3.18800	13
3.19167	14
3.19533	14
3.19900	15
3.20267	15
3.20633	15
3.21000	16
3.21367	16
3.21733	16
3.22100	16
3.22467	16
3.22833	17
3.23200	17
3.23567	17
3.23933	17
3.24300	17
3.24667	17
3.25033	18
3.25400	18
3.25767	18
3.26133	19
3.26500	19
3.26867	19
3.27233	19
3.27600	19
3.27967	19
3.28333	19
3.28700	20
3.29067	20
3.29433	20
3.29800	20
3.30167	20
3.30533	21
3.30900	21
3.31267	21
3.31633	21
3.32000	22
3.32367	22
3.32733	22
3.33100	23
3.33467	23
3.33833	23
3.34200	24
3.34567	24
3.34933	24
3.35300	25
3.35667	25
3.36033	25
3.36400	25
3.36767	25
3.37133	25
3.37500	26
3.37867	26
3.38233	25
3.38600	25
3.38967	25
3.39333	25
3.39700	25
3.40067	25
3.40433	26
3.40800	26
3.41167	26
3.41533	26
3.41900	25
3.42267	25
3.42633	25
3.43000	25
3.43367	25
3.43733	25
3.44100	25
3.44467	25
3.44833	25
3.45200	25
3.45567	25
3.45933	25
3.46300	25
3.46667	24
3.47033	24
3.47400	24
3.47767	24
3.48133	24
3.48500	24
3.48867	24
3.49233	24
3.49600	24
3.49967	24
3.50333	24
3.50700	24
3.51067	24
3.51433	24
3.51800	24
3.52167	24
3.52533	24
3.52900	24
3.53267	24
3.53633	24
3.54000	24
3.54367	23
3.54733	23
3.55100	24
3.55467	24
3.55833	24
3.56200	24
3.56567	24
3.56933	24
3.57300	24
3.57667	23
3.58033	23
3.58400	23
3.58767	23
3.59133	22
3.59500	22
3.59867	22
3.60233	22
3.60600	21
3.60967	21
3.61333	21
3.61700	21
3.62067	21
3.62433	21
3.62800	21
3.63167	21
3.63533	21
3.63900	22
3.64267	22
3.64633	22
3.65000	23
3.65367	23
3.65733	23
3.66100	23
3.66467	23
3.66833	23
3.67200	23
3.67567	23
3.67933	23
3.68300	23
3.68667	23
3.69033	23
3.69400	22
3.69767	23
3.70133	23
3.70500	23
3.70867	23
3.71233	23
3.71600	23
3.71967	23
3.72333	23
3.72700	23
3.73067	23
3.73433	23
3.73800	23
3.74167	23
3.74533	23
3.74900	23
3.75267	23
3.75633	22
3.76000	22
3.76367	22
3.76733	22
3.77100	22
3.77467	22
3.77833	22
3.78200	22
3.78567	22
3.78933	23
3.79300	23
3.79667	23
3.80033	23
3.80400	23
3.80767	23
3.81133	24
3.81500	24
3.81867	24
3.82233	24
3.82600	24
3.82967	24
3.83333	24
3.83700	24
3.84067	24
3.84433	24
3.84800	24
3.85167	24
3.85533	24
3.85900	23
3.86267	23
3.86633	23
3.87000	23
3.87367	23
3.87733	23
3.88100	23
3.88467	23
3.88833	23
3.89200	23
3.89567	23
3.89933	23
3.90300	23
3.90667	23
3.91033	23
3.91400	23
3.91767	24
3.92133	24
3.92500	24
3.92867	24
3.93233	24
3.93600	25
3.93967	25
3.94333	25
3.94700	25
3.95067	26
3.95433	26
3.95800	26
3.96167	26
3.96533	26
3.96900	26
3.97267	26
3.97633	26
3.98000	26
3.98367	26
3.98733	25
3.99100	25
3.99467	25
3.99833	25

[Chromatogram (Ch3)]
Interval(msec)	220
# of Points	1091
Start Time(min)	0.002
End Time(min)	3.998
R.Time (min)	Intensity
0.00167	1
0.00533	1
0.00900	2
0.01267	4
0.01633	4
0.02000	6
0.02367	5
0.02733	4
0.03100	2
0.03467	1
0.03833	2
0.04200	3
0.04567	1
0.04933	1
0.05300	0
0.05667	-1
0.06033	-1
0.06400	1
0.06767	3
0.07133	2
0.07500	1
0.07867	0
0.08233	-0
0.08600	-1
0.08967	1
0.09333	3
0.09700	1
0.10067	1
0.10433	2
0.10800	4
0.11167	5
0.11533	3
0.11900	3
0.12267	4
0.12633	1
0.13000	-1
0.13367	-3
0.13733	-4
0.14100	-4
0.14467	-3
0.14833	-5
0.15200	-5
0.15567	-4
0.15933	-5
0.16300	-4
0.16667	-4
0.17033	-7
0.17400	-7
0.17767	-7
0.18133	-5
0.18500	-3
0.18867	-2
0.19233	-3
0.19600	-2
0.19967	-2
0.20333	-1
0.20700	-0
0.21067	0
0.21433	-1
0.21800	0
0.22167	-1
0.22533	-1
0.22900	-1
0.23267	-2
0.23633	-2
0.24000	-0
0.24367	-1
0.24733	-1
0.25100	-2
0.25467	-3
0.25833	-4
0.26200	-4
0.26567	-4
0.26933	-6
0.27300	-8
0.27667	-8
0.28033	-6
0.28400	-7
0.28767	-7
0.29133	-7
0.29500	-8
0.29867	-6
0.30233	-6
0.30600	-6
0.30967	-6
0.31333	-6
0.31700	-4
0.32067	-2
0.32433	-0
0.32800	-0
0.33167	-0
0.33533	-0
0.33900	-1
0.34267	-1
0.34633	-1
0.35000	-0
0.35367	2
0.35733	4
0.36100	4
0.36467	3
0.36833	0
0.37200	-3
0.37567	-5
0.37933	-4
0.38300	-1
0.38667	1
0.39033	-0
0.39400	-3
0.39767	-4
0.40133	-6
0.40500	-6
0.40867	-6
0.41233	-6
0.41600	-5
0.41967	-5
0.42333	-6
0.42700	-5
0.43067	-3
0.43433	-1
0.43800	-1
0.44167	-1
0.44533	-0
0.44900	-0
0.45267	-0
0.45633	-2
0.46000	-5
0.46367	-5
0.46733	-4
0.47100	-4
0.47467	-5
0.47833	-6
0.48200	-6
0.48567	-6
0.48933	-6
0.49300	-7
0.49667	-6
0.50033	-4
0.50400	-3
0.50767	-3
0.51133	-3
0.51500	-4
0.51867	-3
0.52233	-3
0.52600	-6
0.52967	-6
0.53333	-6
0.53700	-5
0.54067	-4
0.54433	-5
0.54800	-4
0.55167	-2
0.55533	-1
0.55900	-1
0.56267	-4
0.56633	-5
0.57000	-5
0.57367	-4
0.57733	-5
0.58100	-8
0.58467	-9
0.58833	-7
0.59200	-6
0.59567	-6
0.59933	-4
0.60300	-4
0.60667	-6
0.61033	-6
0.61400	-4
0.61767	-3
0.62133	-6
0.62500	-8
0.62867	-6
0.63233	-5
0.63600	-5
0.63967	-7
0.64333	-7
0.64700	-7
0.65067	-8
0.65433	-8
0.65800	-7
0.66167	-5
0.66533	-4
0.66900	-3
0.67267	-2
0.67633	-3
0.68000	-4
0.68367	-7
0.68733	-11
0.69100	-10
0.69467	-9
0.69833	-6
0.70200	-4
0.70567	-3
0.70933	-3
0.71300	-1
0.71667	-1
0.72033	-1
0.72400	0
0.72767	-0
0.73133	-3
0.73500	-3
0.73867	-2
0.74233	0
0.74600	1
0.74967	-2
0.75333	-5
0.75700	-8
0.76067	-10
0.76433	-11
0.76800	-9
0.77167	-6
0.77533	-6
0.77900	-4
0.78267	-2
0.78633	-2
0.79000	-2
0.79367	-4
0.79733	-5
0.80100	-7
0.80467	-7
0.80833	-7
0.81200	-7
0.81567	-7
0.81933	-6
0.82300	-6
0.82667	-5
0.83033	-4
0.83400	-5
0.83767	-6
0.84133	-7
0.84500	-9
0.84867	-9
0.85233	-7
0.85600	-5
0.85967	-4
0.86333	-4
0.86700	-5
0.87067	-6
0.87433	-8
0.87800	-9
0.88167	-6
0.88533	-5
0.88900	-5
0.89267	-7
0.89633	-9
0.90000	-12
0.90367	-13
0.90733	-12
0.91100	-11
0.91467	-10
0.91833	-10
0.92200	-11
0.92567	-9
0.92933	-7
0.93300	-6
0.93667	-9
0.94033	-12
0.94400	-13
0.94767	-10
0.95133	-8
0.95500	-8
0.95867	-9
0.96233	-9
0.96600	-10
0.96967	-9
0.97333	-11
0.97700	-10
0.98067	-8
0.98433	-7
0.98800	-6
0.99167	-7
0.99533	-10
0.99900	-10
1.00267	-10
1.00633	-12
1.01000	-14
1.01367	-14
1.01733	-14
1.02100	-12
1.02467	-11
1.02833	-9
1.03200	-8
1.03567	-9
1.03933	-10
1.04300	-13
1.04667	-15
1.05033	-14
1.05400	-14
1.05767	-14
1.06133	-14
1.06500	-12
1.06867	-11
1.07233	-12
1.07600	-13
1.07967	-12
1.08333	-11
1.08700	-9
1.09067	-7
1.09433	-6
1.09800	-5
1.10167	-6
1.10533	-8
1.10900	-10
1.11267	-10
1.11633	-11
1.12000	-13
1.12367	-14
1.12733	-14
1.13100	-15
1.13467	-14
1.13833	-11
1.14200	-9
1.14567	-7
1.14933	-4
1.15300	-3
1.15667	-4
1.16033	-6
1.16400	-7
1.16767	-8
1.17133	-8
1.17500	-11
1.17867	-13
1.18233	-13
1.18600	-15
1.18967	-16
1.19333	-16
1.19700	-17
1.20067	-16
1.20433	-15
1.20800	-14
1.21167	-11
1.21533	-8
1.21900	-7
1.22267	-9
1.22633	-11
1.23000	-12
1.23367	-14
1.23733	-14
1.24100	-13
1.24467	-12
1.24833	-11
1.25200	-11
1.25567	-10
1.25933	-9
1.26300	-9
1.26667	-9
1.27033	-10
1.27400	-12
1.27767	-13
1.28133	-14
1.28500	-15
1.28867	-15
1.29233	-15
1.29600	-13
1.29967	-10
1.30333	-5
1.30700	-4
1.31067	-5
1.31433	-6
1.31800	-10
1.32167	-12
1.32533	-12
1.32900	-11
1.33267	-9
1.33633	-5
1.34000	-4
1.34367	-5
1.34733	-7
1.35100	-9
1.35467	-10
1.35833	-11
1.36200	-14
1.36567	-16
1.36933	-18
1.37300	-16
1.37667	-15
1.38033	-17
1.38400	-17
1.38767	-17
1.39133	-18
1.39500	-17
1.39867	-14
1.40233	-13
1.40600	-12
1.40967	-10
1.41333	-9
1.41700	-9
1.42067	-9
1.42433	-10
1.42800	-11
1.43167	-12
1.43533	-13
1.43900	-13
1.44267	-13
1.44633	-10
1.45000	-8
1.45367	-8
1.45733	-7
1.46100	-6
1.46467	-6
1.46833	-7
1.47200	-10
1.47567	-14
1.47933	-16
1.48300	-19
1.48667	-20
1.49033	-20
1.49400	-18
1.49767	-18
1.50133	-19
1.50500	-18
1.50867	-17
1.51233	-15
1.51600	-13
1.51967	-12
1.52333	-11
1.52700	-12
1.53067	-14
1.53433	-15
1.53800	-14
1.54167	-13
1.54533	-12
1.54900	-11
1.55267	-12
1.55633	-14
1.56000	-16
1.56367	-14
1.56733	-12
1.57100	-11
1.57467	-9
1.57833	-9
1.58200	-8
1.58567	-9
1.58933	-11
1.59300	-11
1.59667	-11
1.60033	-11
1.60400	-9
1.60767	-6
1.61133	-7
1.61500	-8
1.61867	-8
1.62233	-9
1.62600	-10
1.62967	-10
1.63333	-11
1.63700	-10
1.64067	-11
1.64433	-11
1.64800	-9
1.65167	-8
1.65533	-7
1.65900	-5
1.66267	-4
1.66633	-3
1.67000	-2
1.67367	0
1.67733	1
1.68100	1
1.68467	3
1.68833	3
1.69200	2
1.69567	2
1.69933	2
1.70300	2
1.70667	4
1.71033	6
1.71400	6
1.71767	5
1.72133	4
1.72500	4
1.72867	3
1.73233	2
1.73600	2
1.73967	3
1.74333	4
1.74700	4
1.75067	4
1.75433	6
1.75800	7
1.76167	6
1.76533	5
1.76900	9
1.77267	11
1.77633	12
1.78000	14
1.78367	14
1.78733	13
1.79100	12
1.79467	13
1.79833	14
1.80200	15
1.80567	17
1.80933	17
1.81300	16
1.81667	17
1.82033	16
1.82400	14
1.82767	16
1.83133	16
1.83500	13
1.83867	11
1.84233	11
1.84600	12
1.84967	12
1.85333	14
1.85700	16
1.86067	18
1.86433	19
1.86800	21
1.87167	22
1.87533	23
1.87900	26
1.88267	27
1.88633	25
1.89000	25
1.89367	27
1.89733	29
1.90100	31
1.90467	30
1.90833	29
1.91200	29
1.91567	28
1.91933	29
1.92300	28
1.92667	30
1.93033	30
1.93400	31
1.93767	29
1.94133	30
1.94500	33
1.94867	34
1.95233	32
1.95600	32
1.95967	34
1.96333	36
1.96700	39
1.97067	41
1.97433	40
1.97800	39
1.98167	40
1.98533	41
1.98900	44
1.99267	45
1.99633	46
2.00000	47
2.00367	50
2.00733	49
2.01100	47
2.01467	46
2.01833	45
2.02200	46
2.02567	47
2.02933	50
2.03300	51
2.03667	53
2.04033	55
2.04400	57
2.04767	60
2.05133	59
2.05500	57
2.05867	55
2.06233	53
2.06600	52
2.06967	53
2.07333	54
2.07700	56
2.08067	58
2.08433	60
2.08800	58
2.09167	58
2.09533	61
2.09900	62
2.10267	62
2.10633	62
2.11000	63
2.11367	66
2.11733	67
2.12100	69
2.12467	71
2.12833	72
2.13200	72
2.13567	73
2.13933	74
2.14300	76
2.14667	77
2.15033	79
2.15400	82
2.15767	84
2.16133	85
2.16500	85
2.16867	86
2.17233	87
2.17600	89
2.17967	90
2.18333	91
2.18700	93
2.19067	94
2.19433	95
2.19800	96
2.20167	99
2.20533	100
2.20900	98
2.21267	96
2.21633	97
2.22000	99
2.22367	99
2.22733	99
2.23100	100
2.23467	100
2.23833	100
2.24200	102
2.24567	104
2.24933	104
2.25300	104
2.25667	104
2.26033	105
2.26400	108
2.26767	108
2.27133	108
2.27500	108
2.27867	108
2.28233	109
2.28600	110
2.28967	113
2.29333	116
2.29700	117
2.30067	117
2.30433	121
2.30800	124
2.31167	126
2.31533	127
2.31900	127
2.32267	127
2.32633	130
2.33000	135
2.33367	135
2.33733	135
2.34100	136
2.34467	137
2.34833	136
2.35200	135
2.35567	136
2.35933	140
2.36300	144
2.36667	144
2.37033	144
2.37400	144
2.37767	145
2.38133	147
2.38500	149
2.38867	147
2.39233	147
2.39600	148
2.39967	151
2.40333	156
2.40700	160
2.41067	163
2.41433	165
2.41800	167
2.42167	167
2.42533	168
2.42900	168
2.43267	169
2.43633	169
2.44000	172
2.44367	206
2.44733	290
2.45100	384
2.45467	451
2.45833	470
2.46200	463
2.46567	453
2.46933	442
2.47300	422
2.47667	391
2.48033	350
2.48400	311
2.48767	279
2.49133	256
2.49500	243
2.49867	241
2.50233	248
2.50600	258
2.50967	265
2.51333	266
2.51700	258
2.52067	244
2.52433	224
2.52800	203
2.53167	180
2.53533	160
2.53900	144
2.54267	130
2.54633	120
2.55000	114
2.55367	111
2.55733	111
2.56100	110
2.56467	108
2.56833	108
2.57200	111
2.57567	116
2.57933	124
2.58300	137
2.58667	151
2.59033	164
2.59400	176
2.59767	185
2.60133	188
2.60500	183
2.60867	168
2.61233	141
2.61600	101
2.61967	55
2.62333	4
2.62700	-48
2.63067	-99
2.63433	-149
2.63800	-192
2.64167	-225
2.64533	-249
2.64900	-265
2.65267	-275
2.65633	-279
2.66000	-280
2.66367	-279
2.66733	-274
2.67100	-265
2.67467	-253
2.67833	-242
2.68200	-230
2.68567	-215
2.68933	-202
2.69300	-191
2.69667	-179
2.70033	-170
2.70400	-160
2.70767	-148
2.71133	-138
2.71500	-131
2.71867	-124
2.72233	-116
2.72600	-108
2.72967	-98
2.73333	-86
2.73700	-75
2.74067	-67
2.74433	-58
2.74800	-48
2.75167	-38
2.75533	-31
2.75900	-22
2.76267	-12
2.76633	-2
2.77000	5
2.77367	12
2.77733	17
2.78100	23
2.78467	30
2.78833	39
2.79200	47
2.79567	54
2.79933	60
2.80300	65
2.80667	71
2.81033	75
2.81400	75
2.81767	77
2.82133	84
2.82500	106
2.82867	161
2.83233	283
2.83600	526
2.83967	959
2.84333	1652
2.84700	2656
2.85067	3989
2.85433	5628
2.85800	7497
2.86167	9485
2.86533	11450
2.86900	13246
2.87267	14739
2.87633	15829
2.88000	16462
2.88367	16630
2.88733	16381
2.89100	15783
2.89467	14923
2.89833	13883
2.90200	12747
2.90567	11585
2.90933	10441
2.91300	9342
2.91667	8310
2.92033	7359
2.92400	6493
2.92767	5712
2.93133	5009
2.93500	4386
2.93867	3831
2.94233	3335
2.94600	2899
2.94967	2518
2.95333	2188
2.95700	1899
2.96067	1648
2.96433	1429
2.96800	1239
2.97167	1074
2.97533	930
2.97900	806
2.98267	700
2.98633	607
2.99000	528
2.99367	458
2.99733	399
3.00100	350
3.00467	307
3.00833	268
3.01200	235
3.01567	210
3.01933	193
3.02300	178
3.02667	162
3.03033	146
3.03400	131
3.03767	120
3.04133	110
3.04500	101
3.04867	95
3.05233	90
3.05600	83
3.05967	79
3.06333	78
3.06700	78
3.07067	79
3.07433	78
3.07800	74
3.08167	71
3.08533	71
3.08900	71
3.09267	73
3.09633	75
3.10000	78
3.10367	77
3.10733	77
3.11100	78
3.11467	80
3.11833	83
3.12200	83
3.12567	82
3.12933	81
3.13300	81
3.13667	73
3.14033	64
3.14400	59
3.14767	60
3.15133	62
3.15500	64
3.15867	66
3.16233	68
3.16600	74
3.16967	83
3.17333	96
3.17700	112
3.18067	130
3.18433	149
3.18800	167
3.19167	188
3.19533	207
3.19900	224
3.20267	244
3.20633	266
3.21000	282
3.21367	298
3.21733	315
3.22100	328
3.22467	340
3.22833	353
3.23200	363
3.23567	371
3.23933	381
3.24300	389
3.24667	396
3.25033	402
3.25400	408
3.25767	411
3.26133	413
3.26500	414
3.26867	414
3.27233	415
3.27600	416
3.27967	414
3.28333	411
3.28700	407
3.29067	405
3.29433	403
3.29800	401
3.30167	397
3.30533	394
3.30900	391
3.31267	387
3.31633	384
3.32000	382
3.32367	379
3.32733	379
3.33100	379
3.33467	377
3.33833	376
3.34200	374
3.34567	372
3.34933	373
3.35300	372
3.35667	368
3.36033	365
3.36400	362
3.36767	359
3.37133	355
3.37500	353
3.37867	353
3.38233	353
3.38600	352
3.38967	350
3.39333	347
3.39700	342
3.40067	339
3.40433	338
3.40800	336
3.41167	334
3.41533	332
3.41900	329
3.42267	328
3.42633	327
3.43000	326
3.43367	328
3.43733	330
3.44100	329
3.44467	328
3.44833	326
3.45200	322
3.45567	320
3.45933	318
3.46300	316
3.46667	314
3.47033	310
3.47400	307
3.47767	305
3.48133	304
3.48500	302
3.48867	301
3.49233	302
3.49600	301
3.49967	300
3.50333	298
3.50700	294
3.51067	289
3.51433	285
3.51800	284
3.52167	282
3.52533	281
3.52900	280
3.53267	279
3.53633	277
3.54000	277
3.54367	276
3.54733	276
3.55100	275
3.55467	272
3.55833	269
3.56200	266
3.56567	265
3.56933	265
3.57300	265
3.57667	265
3.58033	263
3.58400	261
3.58767	258
3.59133	257
3.59500	259
3.59867	259
3.60233	258
3.60600	257
3.60967	255
3.61333	254
3.61700	252
3.62067	251
3.62433	251
3.62800	250
3.63167	248
3.63533	245
3.63900	243
3.64267	242
3.64633	243
3.65000	243
3.65367	242
3.65733	240
3.66100	238
3.66467	237
3.66833	236
3.67200	235
3.67567	236
3.67933	237
3.68300	237
3.68667	236
3.69033	234
3.69400	234
3.69767	234
3.70133	233
3.70500	229
3.70867	226
3.71233	226
3.71600	225
3.71967	224
3.72333	223
3.72700	222
3.73067	221
3.73433	221
3.73800	223
3.74167	225
3.74533	223
3.74900	222
3.75267	220
3.75633	219
3.76000	218
3.76367	217
3.76733	213
3.77100	211
3.77467	210
3.77833	211
3.78200	211
3.78567	213
3.78933	218
3.79300	220
3.79667	219
3.80033	217
3.80400	214
3.80767	213
3.81133	212
3.81500	213
3.81867	212
3.82233	212
3.82600	213
3.82967	214
3.83333	212
3.83700	208
3.84067	205
3.84433	205
3.84800	206
3.85167	206
3.85533	205
3.85900	203
3.86267	203
3.86633	203
3.87000	203
3.87367	203
3.87733	204
3.88100	203
3.88467	204
3.88833	203
3.89200	202
3.89567	201
3.89933	201
3.90300	202
3.90667	201
3.91033	199
3.91400	200
3.91767	201
3.92133	201
3.92500	202
3.92867	201
3.93233	204
3.93600	207
3.93967	207
3.94333	205
3.94700	205
3.95067	204
3.95433	204
3.95800	202
3.96167	197
3.96533	196
3.96900	195
3.97267	197
3.97633	198
3.98000	198
3.98367	198
3.98733	199
3.99100	199
3.99467	200
3.99833	197

[Status Trace (Column Oven Temperature)]
Interval(msec)	1000
# of Points	240
Start Time(min)	0.012
End Time(min)	3.995
Intensity Units	
Intensity Multiplier	1
R.Time (min)	Intensity
0.01168	35.02
0.02835	35.01
0.04502	35.02
0.06168	35.01
0.07835	35.01
0.09502	35.00
0.11168	35.01
0.12835	35.02
0.14502	35.01
0.16168	35.02
0.17835	35.01
0.19502	35.01
0.21168	35.01
0.22835	35.01
0.24502	35.01
0.26168	35.01
0.27835	35.01
0.29502	35.00
0.31168	35.00
0.32835	35.00
0.34502	35.01
0.36168	35.01
0.37835	35.00
0.39502	34.99
0.41168	34.99
0.42835	35.00
0.44502	35.00
0.46168	34.99
0.47835	34.99
0.49502	34.99
0.51168	35.00
0.52835	35.00
0.54502	35.00
0.56168	35.00
0.57835	35.00
0.59502	34.99
0.61168	34.99
0.62835	34.99
0.64502	34.99
0.66168	34.99
0.67835	34.99
0.69502	35.00
0.71168	35.00
0.72835	35.00
0.74502	35.00
0.76168	35.00
0.77835	35.00
0.79502	35.01
0.81168	35.00
0.82835	35.01
0.84502	35.01
0.86168	35.00
0.87835	35.00
0.89502	35.00
0.91168	34.99
0.92835	34.98
0.94502	34.98
0.96168	34.98
0.97835	34.99
0.99502	35.00
1.01168	35.02
1.02835	35.03
1.04502	35.05
1.06168	35.05
1.07835	35.05
1.09502	35.04
1.11168	35.03
1.12835	35.01
1.14502	35.00
1.16168	34.99
1.17835	34.98
1.19502	34.98
1.21168	34.98
1.22835	34.98
1.24502	34.98
1.26168	34.98
1.27835	34.99
1.29502	34.99
1.31168	34.99
1.32835	34.99
1.34502	35.00
1.36168	34.99
1.37835	34.99
1.39502	34.98
1.41168	34.99
1.42835	34.99
1.44502	34.99
1.46168	34.99
1.47835	34.99
1.49502	34.98
1.51168	34.99
1.52835	34.98
1.54502	34.98
1.56168	34.98
1.57835	34.99
1.59502	35.01
1.61168	35.08
1.62835	35.22
1.64502	35.43
1.66168	35.70
1.67835	36.07
1.69502	36.44
1.71168	36.79
1.72835	37.09
1.74502	37.42
1.76168	37.75
1.77835	38.10
1.79502	38.43
1.81168	38.77
1.82835	39.08
1.84502	39.41
1.86168	39.73
1.87835	40.07
1.89502	40.38
1.91168	40.71
1.92835	41.05
1.94502	41.37
1.96168	41.70
1.97835	42.02
1.99502	42.35
2.01168	42.69
2.02835	43.01
2.04502	43.33
2.06168	43.67
2.07835	43.99
2.09502	44.33
2.11168	44.62
2.12835	44.95
2.14502	45.28
2.16168	45.59
2.17835	45.92
2.19502	46.25
2.21168	46.59
2.22835	46.90
2.24502	47.24
2.26168	47.59
2.27835	47.90
2.29502	48.25
2.31168	48.63
2.32835	48.95
2.34502	49.23
2.36168	49.52
2.37835	49.67
2.39502	49.71
2.41168	49.69
2.42835	49.70
2.44502	49.71
2.46168	49.73
2.47835	49.72
2.49502	49.77
2.51168	49.77
2.52835	49.78
2.54502	49.80
2.56168	49.81
2.57835	49.82
2.59502	49.81
2.61168	49.81
2.62835	49.82
2.64502	49.84
2.66168	49.85
2.67835	49.85
2.69502	49.85
2.71168	49.86
2.72835	49.85
2.74502	49.85
2.76168	49.85
2.77835	49.85
2.79502	49.88
2.81168	49.90
2.82835	49.90
2.84502	49.91
2.86168	49.91
2.87835	49.92
2.89502	49.93
2.91168	49.94
2.92835	49.95
2.94502	49.96
2.96168	49.97
2.97835	49.98
2.99502	49.98
3.01168	49.98
3.02835	49.98
3.04502	50.00
3.06168	50.00
3.07835	50.01
3.09502	50.02
3.11168	50.02
3.12835	50.03
3.14502	50.05
3.16168	50.06
3.17835	50.06
3.19502	50.07
3.21168	50.07
3.22835	50.08
3.24502	50.09
3.26168	50.10
3.27835	50.10
3.29502	50.10
3.31168	50.10
3.32835	50.09
3.34502	50.08
3.36168	50.06
3.37835	50.05
3.39502	50.04
3.41168	50.04
3.42835	50.04
3.44502	50.03
3.46168	50.03
3.47835	50.03
3.49502	50.03
3.51168	50.03
3.52835	50.03
3.54502	50.03
3.56168	50.03
3.57835	50.04
3.59502	50.05
3.61168	50.06
3.62835	50.06
3.64502	50.07
3.66168	50.06
3.67835	50.06
3.69502	50.06
3.71168	50.07
3.72835	50.07
3.74502	50.08
3.76168	50.08
3.77835	50.08
3.79502	50.08
3.81168	50.08
3.82835	50.08
3.84502	50.08
3.86168	50.09
3.87835	50.09
3.89502	50.10
3.91168	50.08
3.92835	50.09
3.94502	50.08
3.96168	50.07
3.97835	50.06
3.99502	50.06

[Status Trace (Injection Unit Temperature)]
Interval(msec)	1000
# of Points	240
Start Time(min)	0.012
End Time(min)	3.995
Intensity Units	
Intensity Multiplier	1
R.Time (min)	Intensity
0.01168	99.98
0.02835	99.98
0.04502	99.99
0.06168	99.98
0.07835	99.98
0.09502	99.98
0.11168	99.98
0.12835	99.98
0.14502	99.98
0.16168	99.99
0.17835	99.99
0.19502	99.99
0.21168	99.99
0.22835	99.99
0.24502	99.98
0.26168	99.99
0.27835	99.98
0.29502	99.99
0.31168	99.99
0.32835	99.98
0.34502	99.99
0.36168	99.98
0.37835	99.99
0.39502	99.98
0.41168	99.98
0.42835	99.98
0.44502	99.98
0.46168	99.98
0.47835	99.98
0.49502	99.98
0.51168	99.98
0.52835	99.99
0.54502	99.98
0.56168	99.98
0.57835	99.98
0.59502	99.98
0.61168	99.99
0.62835	99.98
0.64502	99.98
0.66168	99.99
0.67835	99.98
0.69502	99.99
0.71168	99.99
0.72835	99.99
0.74502	99.98
0.76168	99.98
0.77835	99.99
0.79502	99.99
0.81168	99.98
0.82835	99.98
0.84502	99.98
0.86168	99.99
0.87835	99.98
0.89502	99.98
0.91168	99.98
0.92835	99.98
0.94502	99.99
0.96168	99.98
0.97835	99.98
0.99502	99.99
1.01168	99.99
1.02835	99.99
1.04502	99.99
1.06168	99.99
1.07835	99.99
1.09502	99.99
1.11168	99.98
1.12835	99.99
1.14502	99.99
1.16168	99.99
1.17835	99.99
1.19502	99.98
1.21168	99.99
1.22835	99.99
1.24502	99.98
1.26168	99.99
1.27835	99.99
1.29502	99.99
1.31168	99.99
1.32835	99.99
1.34502	99.99
1.36168	99.99
1.37835	99.99
1.39502	99.99
1.41168	99.99
1.42835	99.98
1.44502	99.99
1.46168	99.99
1.47835	99.99
1.49502	99.99
1.51168	99.99
1.52835	99.99
1.54502	99.99
1.56168	99.99
1.57835	99.99
1.59502	99.99
1.61168	99.99
1.62835	99.99
1.64502	99.99
1.66168	99.99
1.67835	99.99
1.69502	99.99
1.71168	99.99
1.72835	99.99
1.74502	99.99
1.76168	99.99
1.77835	99.99
1.79502	99.99
1.81168	99.99
1.82835	99.99
1.84502	99.99
1.86168	99.98
1.87835	99.99
1.89502	99.98
1.91168	99.99
1.92835	99.99
1.94502	99.98
1.96168	99.99
1.97835	99.98
1.99502	99.98
2.01168	99.98
2.02835	99.98
2.04502	99.98
2.06168	99.98
2.07835	99.98
2.09502	99.98
2.11168	99.98
2.12835	99.97
2.14502	99.98
2.16168	99.97
2.17835	99.98
2.19502	99.97
2.21168	99.98
2.22835	99.98
2.24502	99.97
2.26168	99.97
2.27835	99.97
2.29502	99.98
2.31168	99.97
2.32835	99.97
2.34502	99.97
2.36168	99.97
2.37835	99.97
2.39502	99.97
2.41168	99.97
2.42835	99.96
2.44502	99.97
2.46168	99.97
2.47835	99.97
2.49502	99.97
2.51168	99.97
2.52835	99.97
2.54502	99.98
2.56168	99.97
2.57835	99.98
2.59502	99.98
2.61168	99.98
2.62835	99.98
2.64502	99.98
2.66168	99.98
2.67835	99.99
2.69502	99.99
2.71168	99.99
2.72835	99.99
2.74502	99.99
2.76168	99.99
2.77835	99.99
2.79502	99.99
2.81168	100.00
2.82835	100.00
2.84502	100.00
2.86168	100.00
2.87835	100.00
2.89502	100.01
2.91168	100.01
2.92835	100.01
2.94502	100.01
2.96168	100.01
2.97835	100.01
2.99502	100.01
3.01168	100.02
3.02835	100.01
3.04502	100.02
3.06168	100.02
3.07835	100.02
3.09502	100.02
3.11168	100.02
3.12835	100.02
3.14502	100.02
3.16168	100.03
3.17835	100.02
3.19502	100.02
3.21168	100.03
3.22835	100.03
3.24502	100.03
3.26168	100.03
3.27835	100.03
3.29502	100.03
3.31168	100.03
3.32835	100.03
3.34502	100.03
3.36168	100.03
3.37835	100.03
3.39502	100.03
3.41168	100.03
3.42835	100.04
3.44502	100.03
3.46168	100.03
3.47835	100.03
3.49502	100.03
3.51168	100.04
3.52835	100.04
3.54502	100.04
3.56168	100.04
3.57835	100.04
3.59502	100.04
3.61168	100.04
3.62835	100.04
3.64502	100.04
3.66168	100.04
3.67835	100.04
3.69502	100.04
3.71168	100.04
3.72835	100.04
3.74502	100.04
3.76168	100.04
3.77835	100.04
3.79502	100.04
3.81168	100.04
3.82835	100.04
3.84502	100.04
3.86168	100.04
3.87835	100.04
3.89502	100.05
3.91168	100.04
3.92835	100.05
3.94502	100.04
3.96168	100.05
3.97835	100.05
3.99502	100.05

[Status Trace (Carrier Gas Pressure)]
Interval(msec)	1000
# of Points	240
Start Time(min)	0.012
End Time(min)	3.995
Intensity Units	
Intensity Multiplier	1
R.Time (min)	Intensity
0.01168	58.00
0.02835	54.93
0.04502	57.48
0.06168	59.54
0.07835	59.12
0.09502	58.03
0.11168	57.99
0.12835	58.01
0.14502	58.01
0.16168	58.00
0.17835	58.00
0.19502	58.00
0.21168	58.00
0.22835	58.00
0.24502	58.00
0.26168	58.00
0.27835	58.00
0.29502	58.00
0.31168	58.00
0.32835	58.00
0.34502	58.00
0.36168	58.00
0.37835	58.00
0.39502	58.00
0.41168	58.00
0.42835	58.00
0.44502	58.00
0.46168	58.00
0.47835	58.00
0.49502	58.00
0.51168	58.00
0.52835	58.00
0.54502	58.00
0.56168	58.00
0.57835	58.00
0.59502	58.00
0.61168	58.00
0.62835	58.00
0.64502	58.00
0.66168	58.00
0.67835	58.00
0.69502	58.00
0.71168	58.00
0.72835	58.00
0.74502	58.00
0.76168	58.00
0.77835	58.00
0.79502	58.00
0.81168	58.00
0.82835	58.00
0.84502	58.00
0.86168	58.00
0.87835	58.00
0.89502	58.00
0.91168	58.00
0.92835	58.00
0.94502	58.00
0.96168	58.00
0.97835	58.00
0.99502	58.00
1.01168	58.00
1.02835	58.00
1.04502	58.00
1.06168	58.00
1.07835	58.00
1.09502	58.00
1.11168	58.00
1.12835	58.00
1.14502	58.00
1.16168	58.00
1.17835	58.00
1.19502	58.00
1.21168	58.00
1.22835	58.00
1.24502	58.00
1.26168	58.00
1.27835	58.00
1.29502	58.00
1.31168	58.00
1.32835	58.00
1.34502	58.00
1.36168	58.00
1.37835	58.00
1.39502	58.00
1.41168	58.00
1.42835	58.00
1.44502	58.00
1.46168	58.00
1.47835	58.00
1.49502	58.00
1.51168	58.00
1.52835	58.00
1.54502	58.00
1.56168	58.00
1.57835	58.00
1.59502	58.00
1.61168	58.00
1.62835	58.00
1.64502	58.00
1.66168	58.00
1.67835	58.01
1.69502	58.00
1.71168	58.00
1.72835	58.00
1.74502	58.00
1.76168	58.00
1.77835	58.00
1.79502	58.00
1.81168	58.00
1.82835	58.00
1.84502	58.00
1.86168	58.00
1.87835	58.00
1.89502	58.00
1.91168	58.00
1.92835	58.00
1.94502	58.00
1.96168	58.00
1.97835	58.00
1.99502	58.00
2.01168	58.00
2.02835	58.00
2.04502	58.00
2.06168	58.00
2.07835	58.00
2.09502	58.00
2.11168	58.00
2.12835	58.00
2.14502	58.00
2.16168	58.00
2.17835	58.00
2.19502	58.00
2.21168	58.00
2.22835	58.00
2.24502	58.00
2.26168	58.00
2.27835	58.00
2.29502	58.00
2.31168	58.00
2.32835	58.00
2.34502	58.00
2.36168	58.00
2.37835	58.00
2.39502	57.99
2.41168	57.99
2.42835	58.00
2.44502	58.00
2.46168	58.00
2.47835	58.00
2.49502	58.00
2.51168	57.99
2.52835	57.98
2.54502	58.00
2.56168	58.00
2.57835	58.00
2.59502	58.00
2.61168	58.00
2.62835	58.00
2.64502	58.00
2.66168	58.00
2.67835	58.00
2.69502	58.00
2.71168	58.00
2.72835	58.00
2.74502	58.00
2.76168	58.00
2.77835	58.00
2.79502	58.00
2.81168	58.00
2.82835	58.00
2.84502	58.00
2.86168	58.00
2.87835	58.00
2.89502	58.00
2.91168	58.00
2.92835	58.00
2.94502	58.00
2.96168	58.00
2.97835	58.00
2.99502	58.00
3.01168	58.00
3.02835	58.00
3.04502	58.00
3.06168	58.00
3.07835	58.00
3.09502	58.00
3.11168	58.00
3.12835	58.00
3.14502	58.00
3.16168	58.00
3.17835	58.00
3.19502	58.00
3.21168	58.00
3.22835	58.00
3.24502	58.00
3.26168	58.00
3.27835	58.00
3.29502	58.00
3.31168	58.00
3.32835	58.00
3.34502	58.00
3.36168	58.00
3.37835	58.00
3.39502	58.00
3.41168	58.00
3.42835	58.00
3.44502	58.00
3.46168	58.00
3.47835	58.00
3.49502	58.00
3.51168	58.00
3.52835	58.00
3.54502	58.00
3.56168	58.00
3.57835	58.00
3.59502	58.00
3.61168	58.00
3.62835	58.00
3.64502	58.00
3.66168	58.00
3.67835	58.00
3.69502	58.00
3.71168	58.00
3.72835	58.00
3.74502	58.00
3.76168	58.00
3.77835	58.00
3.79502	58.00
3.81168	58.00
3.82835	58.00
3.84502	58.00
3.86168	58.00
3.87835	58.00
3.89502	58.00
3.91168	58.00
3.92835	58.00
3.94502	58.00
3.96168	58.00
3.97835	58.00
3.99502	58.00

[Status Trace (Carrier Gas Flow)]
Interval(msec)	1000
# of Points	240
Start Time(min)	0.012
End Time(min)	3.995
Intensity Units	
Intensity Multiplier	1
R.Time (min)	Intensity
0.01168	34.52
0.02835	34.55
0.04502	34.54
0.06168	34.54
0.07835	34.50
0.09502	34.52
0.11168	34.52
0.12835	34.52
0.14502	34.52
0.16168	34.52
0.17835	34.52
0.19502	34.52
0.21168	34.52
0.22835	34.52
0.24502	34.52
0.26168	34.52
0.27835	34.52
0.29502	34.52
0.31168	34.52
0.32835	34.52
0.34502	34.52
0.36168	34.52
0.37835	34.52
0.39502	34.52
0.41168	34.52
0.42835	34.52
0.44502	34.52
0.46168	34.52
0.47835	34.52
0.49502	34.52
0.51168	34.52
0.52835	34.52
0.54502	34.52
0.56168	34.52
0.57835	34.52
0.59502	34.52
0.61168	34.52
0.62835	34.52
0.64502	34.52
0.66168	34.52
0.67835	34.52
0.69502	34.52
0.71168	34.52
0.72835	34.52
0.74502	34.52
0.76168	34.52
0.77835	34.52
0.79502	34.52
0.81168	34.51
0.82835	34.52
0.84502	34.52
0.86168	34.53
0.87835	34.52
0.89502	34.52
0.91168	34.52
0.92835	34.52
0.94502	34.52
0.96168	34.52
0.97835	34.52
0.99502	34.52
1.01168	34.52
1.02835	34.52
1.04502	34.52
1.06168	34.52
1.07835	34.52
1.09502	34.52
1.11168	34.52
1.12835	34.52
1.14502	34.52
1.16168	34.52
1.17835	34.52
1.19502	34.52
1.21168	34.52
1.22835	34.52
1.24502	34.52
1.26168	34.52
1.27835	34.52
1.29502	34.52
1.31168	34.52
1.32835	34.52
1.34502	34.52
1.36168	34.52
1.37835	34.52
1.39502	34.52
1.41168	34.52
1.42835	34.52
1.44502	34.52
1.46168	34.52
1.47835	34.52
1.49502	34.52
1.51168	34.52
1.52835	34.52
1.54502	34.52
1.56168	34.52
1.57835	34.52
1.59502	34.52
1.61168	34.52
1.62835	34.52
1.64502	34.52
1.66168	34.52
1.67835	34.52
1.69502	34.52
1.71168	34.52
1.72835	34.52
1.74502	34.52
1.76168	34.52
1.77835	34.52
1.79502	34.52
1.81168	34.52
1.82835	34.53
1.84502	34.52
1.86168	34.52
1.87835	34.52
1.89502	34.52
1.91168	34.51
1.92835	34.52
1.94502	34.52
1.96168	34.52
1.97835	34.52
1.99502	34.52
2.01168	34.52
2.02835	34.52
2.04502	34.52
2.06168	34.52
2.07835	34.52
2.09502	34.52
2.11168	34.52
2.12835	34.52
2.14502	34.52
2.16168	34.52
2.17835	34.52
2.19502	34.52
2.21168	34.52
2.22835	34.52
2.24502	34.52
2.26168	34.52
2.27835	34.52
2.29502	34.52
2.31168	34.52
2.32835	34.52
2.34502	34.52
2.36168	34.52
2.37835	34.52
2.39502	34.52
2.41168	34.52
2.42835	34.52
2.44502	34.52
2.46168	34.52
2.47835	34.52
2.49502	34.52
2.51168	34.52
2.52835	34.52
2.54502	34.52
2.56168	34.52
2.57835	34.52
2.59502	34.52
2.61168	34.52
2.62835	34.52
2.64502	34.52
2.66168	34.52
2.67835	34.52
2.69502	34.52
2.71168	34.52
2.72835	34.52
2.74502	34.52
2.76168	34.52
2.77835	34.52
2.79502	34.52
2.81168	34.52
2.82835	34.52
2.84502	34.52
2.86168	34.52
2.87835	34.52
2.89502	34.52
2.91168	34.52
2.92835	34.52
2.94502	34.52
2.96168	34.52
2.97835	34.52
2.99502	34.52
3.01168	34.52
3.02835	34.52
3.04502	34.52
3.06168	34.52
3.07835	34.52
3.09502	34.52
3.11168	34.52
3.12835	34.52
3.14502	34.52
3.16168	34.52
3.17835	34.52
3.19502	34.52
3.21168	34.52
3.22835	34.52
3.24502	34.52
3.26168	34.52
3.27835	34.51
3.29502	34.52
3.31168	34.52
3.32835	34.52
3.34502	34.52
3.36168	34.52
3.37835	34.52
3.39502	34.52
3.41168	34.52
3.42835	34.52
3.44502	34.52
3.46168	34.52
3.47835	34.52
3.49502	34.52
3.51168	34.52
3.52835	34.52
3.54502	34.52
3.56168	34.52
3.57835	34.52
3.59502	34.52
3.61168	34.52
3.62835	34.52
3.64502	34.52
3.66168	34.52
3.67835	34.52
3.69502	34.52
3.71168	34.52
3.72835	34.52
3.74502	34.52
3.76168	34.52
3.77835	34.52
3.79502	34.52
3.81168	34.52
3.82835	34.52
3.84502	34.52
3.86168	34.52
3.87835	34.52
3.89502	34.52
3.91168	34.52
3.92835	34.52
3.94502	34.52
3.96168	34.52
3.97835	34.52
3.99502	34.52

[Status Trace (Column Flow)]
Interval(msec)	1000
# of Points	240
Start Time(min)	0.012
End Time(min)	3.995
Intensity Units	
Intensity Multiplier	1
R.Time (min)	Intensity
0.01168	5.55
0.02835	5.20
0.04502	5.49
0.06168	5.74
0.07835	5.69
0.09502	5.56
0.11168	5.55
0.12835	5.56
0.14502	5.55
0.16168	5.55
0.17835	5.55
0.19502	5.55
0.21168	5.55
0.22835	5.55
0.24502	5.55
0.26168	5.55
0.27835	5.55
0.29502	5.55
0.31168	5.55
0.32835	5.55
0.34502	5.55
0.36168	5.55
0.37835	5.55
0.39502	5.55
0.41168	5.55
0.42835	5.55
0.44502	5.55
0.46168	5.55
0.47835	5.55
0.49502	5.55
0.51168	5.55
0.52835	5.55
0.54502	5.55
0.56168	5.55
0.57835	5.55
0.59502	5.55
0.61168	5.55
0.62835	5.55
0.64502	5.55
0.66168	5.55
0.67835	5.55
0.69502	5.55
0.71168	5.55
0.72835	5.55
0.74502	5.55
0.76168	5.55
0.77835	5.55
0.79502	5.55
0.81168	5.55
0.82835	5.55
0.84502	5.55
0.86168	5.55
0.87835	5.55
0.89502	5.55
0.91168	5.55
0.92835	5.55
0.94502	5.55
0.96168	5.55
0.97835	5.55
0.99502	5.55
1.01168	5.55
1.02835	5.55
1.04502	5.55
1.06168	5.55
1.07835	5.55
1.09502	5.55
1.11168	5.55
1.12835	5.55
1.14502	5.55
1.16168	5.55
1.17835	5.55
1.19502	5.55
1.21168	5.55
1.22835	5.55
1.24502	5.55
1.26168	5.55
1.27835	5.55
1.29502	5.55
1.31168	5.55
1.32835	5.55
1.34502	5.55
1.36168	5.55
1.37835	5.55
1.39502	5.55
1.41168	5.55
1.42835	5.55
1.44502	5.55
1.46168	5.55
1.47835	5.55
1.49502	5.55
1.51168	5.55
1.52835	5.55
1.54502	5.55
1.56168	5.55
1.57835	5.55
1.59502	5.55
1.61168	5.55
1.62835	5.55
1.64502	5.54
1.66168	5.53
1.67835	5.52
1.69502	5.51
1.71168	5.50
1.72835	5.49
1.74502	5.48
1.76168	5.47
1.77835	5.46
1.79502	5.45
1.81168	5.44
1.82835	5.43
1.84502	5.42
1.86168	5.41
1.87835	5.40
1.89502	5.39
1.91168	5.38
1.92835	5.37
1.94502	5.36
1.96168	5.35
1.97835	5.34
1.99502	5.33
2.01168	5.32
2.02835	5.31
2.04502	5.30
2.06168	5.29
2.07835	5.28
2.09502	5.27
2.11168	5.26
2.12835	5.25
2.14502	5.24
2.16168	5.23
2.17835	5.22
2.19502	5.21
2.21168	5.21
2.22835	5.20
2.24502	5.19
2.26168	5.18
2.27835	5.17
2.29502	5.16
2.31168	5.15
2.32835	5.14
2.34502	5.13
2.36168	5.12
2.37835	5.12
2.39502	5.12
2.41168	5.12
2.42835	5.12
2.44502	5.12
2.46168	5.12
2.47835	5.12
2.49502	5.11
2.51168	5.11
2.52835	5.11
2.54502	5.11
2.56168	5.11
2.57835	5.11
2.59502	5.11
2.61168	5.11
2.62835	5.11
2.64502	5.11
2.66168	5.11
2.67835	5.11
2.69502	5.11
2.71168	5.11
2.72835	5.11
2.74502	5.11
2.76168	5.11
2.77835	5.11
2.79502	5.11
2.81168	5.11
2.82835	5.11
2.84502	5.11
2.86168	5.11
2.87835	5.11
2.89502	5.11
2.91168	5.11
2.92835	5.11
2.94502	5.11
2.96168	5.11
2.97835	5.11
2.99502	5.11
3.01168	5.11
3.02835	5.11
3.04502	5.11
3.06168	5.11
3.07835	5.11
3.09502	5.11
3.11168	5.11
3.12835	5.11
3.14502	5.11
3.16168	5.11
3.17835	5.11
3.19502	5.11
3.21168	5.11
3.22835	5.11
3.24502	5.11
3.26168	5.11
3.27835	5.11
3.29502	5.11
3.31168	5.11
3.32835	5.11
3.34502	5.11
3.36168	5.11
3.37835	5.11
3.39502	5.11
3.41168	5.11
3.42835	5.11
3.44502	5.11
3.46168	5.11
3.47835	5.11
3.49502	5.11
3.51168	5.11
3.52835	5.11
3.54502	5.11
3.56168	5.11
3.57835	5.11
3.59502	5.11
3.61168	5.11
3.62835	5.11
3.64502	5.11
3.66168	5.11
3.67835	5.11
3.69502	5.11
3.71168	5.11
3.72835	5.11
3.74502	5.11
3.76168	5.11
3.77835	5.11
3.79502	5.11
3.81168	5.11
3.82835	5.11
3.84502	5.11
3.86168	5.11
3.87835	5.11
3.89502	5.11
3.91168	5.11
3.92835	5.11
3.94502	5.11
3.96168	5.11
3.97835	5.11
3.99502	5.11

[Status Trace (Linear Velocity)]
Interval(msec)	1000
# of Points	240
Start Time(min)	0.012
End Time(min)	3.995
Intensity Units	
Intensity Multiplier	1
R.Time (min)	Intensity
0.01168	39.02
0.02835	37.01
0.04502	38.68
0.06168	40.03
0.07835	39.75
0.09502	39.04
0.11168	39.02
0.12835	39.03
0.14502	39.03
0.16168	39.03
0.17835	39.03
0.19502	39.03
0.21168	39.03
0.22835	39.02
0.24502	39.02
0.26168	39.02
0.27835	39.02
0.29502	39.03
0.31168	39.02
0.32835	39.03
0.34502	39.02
0.36168	39.02
0.37835	39.02
0.39502	39.02
0.41168	39.03
0.42835	39.02
0.44502	39.03
0.46168	39.03
0.47835	39.03
0.49502	39.02
0.51168	39.03
0.52835	39.02
0.54502	39.02
0.56168	39.02
0.57835	39.02
0.59502	39.02
0.61168	39.03
0.62835	39.03
0.64502	39.03
0.66168	39.03
0.67835	39.03
0.69502	39.02
0.71168	39.02
0.72835	39.02
0.74502	39.02
0.76168	39.02
0.77835	39.02
0.79502	39.02
0.81168	39.02
0.82835	39.02
0.84502	39.02
0.86168	39.02
0.87835	39.02
0.89502	39.02
0.91168	39.02
0.92835	39.03
0.94502	39.03
0.96168	39.03
0.97835	39.03
0.99502	39.02
1.01168	39.02
1.02835	39.02
1.04502	39.02
1.06168	39.02
1.07835	39.02
1.09502	39.02
1.11168	39.02
1.12835	39.02
1.14502	39.02
1.16168	39.03
1.17835	39.03
1.19502	39.03
1.21168	39.03
1.22835	39.03
1.24502	39.03
1.26168	39.03
1.27835	39.03
1.29502	39.02
1.31168	39.03
1.32835	39.02
1.34502	39.02
1.36168	39.02
1.37835	39.02
1.39502	39.03
1.41168	39.03
1.42835	39.03
1.44502	39.03
1.46168	39.03
1.47835	39.03
1.49502	39.03
1.51168	39.03
1.52835	39.03
1.54502	39.03
1.56168	39.03
1.57835	39.03
1.59502	39.02
1.61168	39.02
1.62835	39.01
1.64502	38.99
1.66168	38.96
1.67835	38.93
1.69502	38.89
1.71168	38.86
1.72835	38.82
1.74502	38.80
1.76168	38.77
1.77835	38.73
1.79502	38.70
1.81168	38.67
1.82835	38.64
1.84502	38.61
1.86168	38.58
1.87835	38.54
1.89502	38.52
1.91168	38.49
1.92835	38.45
1.94502	38.42
1.96168	38.39
1.97835	38.36
1.99502	38.33
2.01168	38.30
2.02835	38.27
2.04502	38.24
2.06168	38.21
2.07835	38.18
2.09502	38.15
2.11168	38.12
2.12835	38.09
2.14502	38.07
2.16168	38.04
2.17835	38.01
2.19502	37.98
2.21168	37.95
2.22835	37.92
2.24502	37.89
2.26168	37.86
2.27835	37.83
2.29502	37.80
2.31168	37.77
2.32835	37.73
2.34502	37.71
2.36168	37.68
2.37835	37.67
2.39502	37.66
2.41168	37.66
2.42835	37.67
2.44502	37.67
2.46168	37.66
2.47835	37.66
2.49502	37.66
2.51168	37.65
2.52835	37.65
2.54502	37.66
2.56168	37.66
2.57835	37.66
2.59502	37.66
2.61168	37.66
2.62835	37.66
2.64502	37.65
2.66168	37.65
2.67835	37.65
2.69502	37.65
2.71168	37.65
2.72835	37.65
2.74502	37.65
2.76168	37.65
2.77835	37.65
2.79502	37.65
2.81168	37.65
2.82835	37.65
2.84502	37.65
2.86168	37.65
2.87835	37.65
2.89502	37.65
2.91168	37.65
2.92835	37.64
2.94502	37.64
2.96168	37.64
2.97835	37.64
2.99502	37.64
3.01168	37.64
3.02835	37.64
3.04502	37.64
3.06168	37.64
3.07835	37.64
3.09502	37.64
3.11168	37.64
3.12835	37.64
3.14502	37.64
3.16168	37.64
3.17835	37.63
3.19502	37.63
3.21168	37.63
3.22835	37.63
3.24502	37.63
3.26168	37.63
3.27835	37.63
3.29502	37.63
3.31168	37.63
3.32835	37.63
3.34502	37.63
3.36168	37.63
3.37835	37.64
3.39502	37.64
3.41168	37.64
3.42835	37.64
3.44502	37.64
3.46168	37.64
3.47835	37.64
3.49502	37.64
3.51168	37.64
3.52835	37.64
3.54502	37.64
3.56168	37.64
3.57835	37.64
3.59502	37.64
3.61168	37.63
3.62835	37.63
3.64502	37.63
3.66168	37.63
3.67835	37.63
3.69502	37.63
3.71168	37.63
3.72835	37.63
3.74502	37.63
3.76168	37.63
3.77835	37.63
3.79502	37.63
3.81168	37.63
3.82835	37.63
3.84502	37.63
3.86168	37.63
3.87835	37.63
3.89502	37.63
3.91168	37.63
3.92835	37.63
3.94502	37.63
3.96168	37.63
3.97835	37.63
3.99502	37.63

