[Header]
Application Name	LabSolutions
Version	5.110
Data File Name	C:\Users\User\Desktop\GC Analyses\Jack\UIC Prairie Sampling\10.19.22\221019_035.gcd
Output Date	1/4/2023
Output Time	2:27:26 PM

[File Information]
Type	Data File
Generated	12/6/2022 10:45:24 AM
Generated by	System Administrator
Modified	12/6/2022 10:49:41 AM
Modified by	System Administrator

[Sample Information]
Operator Name	System Administrator
Acquired	12/6/2022 10:45:41 AM
Sample Type	1:Standard
Level	1
Sample Name	221019_UICPrairie
Sample ID	221019_UICPrairie
ISTD Amount1	1
ISTD Amount2	1
ISTD Amount3	1
ISTD Amount4	1
ISTD Amount5	1
ISTD Amount6	1
ISTD Amount7	1
ISTD Amount8	1
ISTD Amount9	1
ISTD Amount10	1
ISTD Amount11	1
ISTD Amount12	1
ISTD Amount13	1
ISTD Amount14	1
ISTD Amount15	1
ISTD Amount16	1
ISTD Amount17	1
ISTD Amount18	1
ISTD Amount19	1
ISTD Amount20	1
ISTD Amount21	1
ISTD Amount22	1
ISTD Amount23	1
ISTD Amount24	1
ISTD Amount25	1
ISTD Amount26	1
ISTD Amount27	1
ISTD Amount28	1
ISTD Amount29	1
ISTD Amount30	1
ISTD Amount31	1
ISTD Amount32	1
Sample Amount	1
Dilution Factor	1
Vial#	1
Injection Volume	1
Injection Count	1
Bar Code	

[Original Files]
Data File	C:\Users\User\Desktop\GC Analyses\Jack\UIC Prairie Sampling\10.19.22\221019_035.gcd
Method File	C:\LabSolutions\Data\GHG_4min_2022\ghg3_togas_w_acet_4 min_new_int.gcm
Batch File	
Report Format File	c:\LabSolutions\System\DEFAULT.lsr

[File Description]


[Configuration]
Instrument Name	C0B7VH3-Instrument1
Instrument #	1
Line #	1
# of Detectors	3
Detector ID	DET#1	DET#2	DET#3
Detector Name	FID	PTCD	ECD
# of Channels	1	1	1

[Peak Table(Ch1)]
# of Peaks	3
Peak#	R.Time	I.Time	F.Time	Area	Height	A/H	Conc.	Mark	ID#	Name	k'	Plate #	Plate Ht.	Tailing	Resolution	Sep.Factor	Area Ratio	Height Ratio	Conc. %	Norm Conc.
1	1.465	1.439	1.534	2891	910	3.177	100.000	   	1	CO	0.000	5163	29.051	0.000	0.000	0.000	0	0	16.667	16.667
2	1.571	1.534	1.652	18518	9806	1.888	100.000	 V 	2	CH4	0.073	12154	12.342	1.197	1.535	0.000	0	0	16.667	16.667
3	2.000	1.952	2.711	1952171	938340	2.080	400.000	   	3	CO2	0.365	18210	8.237	1.235	7.379	5.034	0	0	66.667	66.667

[Peak Table(Ch2)]
# of Peaks	0

[Peak Table(Ch3)]
# of Peaks	5
Peak#	R.Time	I.Time	F.Time	Area	Height	A/H	Conc.	Mark	ID#	Name	k'	Plate #	Plate Ht.	Tailing	Resolution	Sep.Factor	Area Ratio	Height Ratio	Conc. %	Norm Conc.
1	2.458	2.345	2.495	1581	431	3.663	0.000	   			0.000	9392	15.971	0.000	0.000	0.000	0	0	0.000	0.000
2	2.513	2.495	2.554	896	296	3.029	0.000	 V 			0.022	2079	72.159	0.000	0.342	0.000	0	0	0.000	0.000
3	2.609	2.554	2.653	1308	335	3.909	0.000	 V 			0.061	5955	25.188	0.000	0.536	2.733	0	0	0.000	0.000
4	2.887	2.671	3.195	60820	15578	3.904	1.000	   	1	N2O	0.175	13089	11.460	1.579	2.360	2.854	0	0	100.000	100.000
5	3.357	3.236	3.962	5194	258	20.129	0.000	   			0.365	594	252.584	2.856	1.440	2.094	0	0	0.000	0.000

[Compound Results(Ch1)]
# of IDs	6
ID#	Name	R.Time	Area	Height	Conc.	Curve	3rd	2nd	1st	Constant	Area Ratio	Height Ratio	Conc. %	Norm Conc.
1	CO	1.465	2891	910	100.000	Linear	0.000000e+00	0.000000e+00	2.890909e+001	0.000000e+00	0	0	16.667	16.667
2	CH4	1.571	18518	9806	100.000	Linear	0.000000e+00	0.000000e+00	1.851767e+002	0.000000e+00	0	0	16.667	16.667
3	CO2	2.000	1952171	938340	400.000	Linear	0.000000e+00	0.000000e+00	4.880427e+003	0.000000e+00	0	0	66.667	66.667
4	Ethylene	0.000	0	0	0.000	Linear	0.000000e+00	0.000000e+00	0.000000e+00	0.000000e+00	0	0	0.000	0.000
5	Acetylene	0.000	0	0	0.000	Linear	0.000000e+00	0.000000e+00	0.000000e+00	0.000000e+00	0	0	0.000	0.000
6	Ethane	0.000	0	0	0.000	Linear	0.000000e+00	0.000000e+00	0.000000e+00	0.000000e+00	0	0	0.000	0.000

[Compound Results(Ch2)]
# of IDs	5
ID#	Name	R.Time	Area	Height	Conc.	Curve	3rd	2nd	1st	Constant	Area Ratio	Height Ratio	Conc. %	Norm Conc.
1	Hydrogen	0.000	0	0	0.000	Linear	0.000000e+00	0.000000e+00	0.000000e+00	0.000000e+00	0	0	0.000	0.000
2	Oxygen	0.000	0	0	0.000	Linear	0.000000e+00	0.000000e+00	0.000000e+00	0.000000e+00	0	0	0.000	0.000
3	Nitrogen	0.000	0	0	0.000	Linear	0.000000e+00	0.000000e+00	0.000000e+00	0.000000e+00	0	0	0.000	0.000
4	Methane	0.000	0	0	0.000	Linear	0.000000e+00	0.000000e+00	0.000000e+00	0.000000e+00	0	0	0.000	0.000
5	Carbon Monoxide	0.000	0	0	0.000	Linear	0.000000e+00	0.000000e+00	0.000000e+00	0.000000e+00	0	0	0.000	0.000

[Compound Results(Ch3)]
# of IDs	2
ID#	Name	R.Time	Area	Height	Conc.	Curve	3rd	2nd	1st	Constant	Area Ratio	Height Ratio	Conc. %	Norm Conc.
1	N2O	2.887	60820	15578	1.000	Linear	0.000000e+00	0.000000e+00	6.082036e+004	0.000000e+00	0	0	100.000	100.000
2	SF6	0.000	0	0	0.000	Linear	0.000000e+00	0.000000e+00	0.000000e+00	0.000000e+00	0	0	0.000	0.000

[Group Results(Ch1)]
# of Groups	0

[Group Results(Ch2)]
# of Groups	0

[Group Results(Ch3)]
# of Groups	0

[Chromatogram (Ch1)]
Interval(msec)	220
# of Points	1091
Start Time(min)	0.002
End Time(min)	3.998
R.Time (min)	Intensity
0.00167	2
0.00533	0
0.00900	-3
0.01267	-9
0.01633	-15
0.02000	-19
0.02367	-21
0.02733	-20
0.03100	-15
0.03467	-10
0.03833	-8
0.04200	-6
0.04567	-5
0.04933	-7
0.05300	-10
0.05667	-13
0.06033	-15
0.06400	-15
0.06767	-11
0.07133	-8
0.07500	-6
0.07867	-3
0.08233	2
0.08600	6
0.08967	8
0.09333	10
0.09700	13
0.10067	14
0.10433	10
0.10800	3
0.11167	-5
0.11533	-13
0.11900	-19
0.12267	-25
0.12633	-30
0.13000	-33
0.13367	-31
0.13733	-27
0.14100	-24
0.14467	-19
0.14833	-16
0.15200	-13
0.15567	-7
0.15933	5
0.16300	14
0.16667	17
0.17033	15
0.17400	11
0.17767	7
0.18133	2
0.18500	-4
0.18867	-9
0.19233	-11
0.19600	-10
0.19967	-5
0.20333	0
0.20700	0
0.21067	-5
0.21433	-9
0.21800	-14
0.22167	-19
0.22533	-25
0.22900	-28
0.23267	-29
0.23633	-29
0.24000	-29
0.24367	-28
0.24733	-28
0.25100	-28
0.25467	-30
0.25833	-33
0.26200	-32
0.26567	-29
0.26933	-24
0.27300	-16
0.27667	-9
0.28033	-5
0.28400	-6
0.28767	-8
0.29133	-12
0.29500	-16
0.29867	-21
0.30233	-24
0.30600	-27
0.30967	-30
0.31333	-32
0.31700	-29
0.32067	-23
0.32433	-21
0.32800	-20
0.33167	-21
0.33533	-23
0.33900	-27
0.34267	-29
0.34633	-29
0.35000	-25
0.35367	-25
0.35733	-25
0.36100	-25
0.36467	-27
0.36833	-31
0.37200	-33
0.37567	-32
0.37933	-27
0.38300	-21
0.38667	-18
0.39033	-18
0.39400	-20
0.39767	-22
0.40133	-25
0.40500	-27
0.40867	-27
0.41233	-25
0.41600	-20
0.41967	-14
0.42333	-11
0.42700	-12
0.43067	-17
0.43433	-23
0.43800	-27
0.44167	-29
0.44533	-27
0.44900	-23
0.45267	-21
0.45633	-21
0.46000	-23
0.46367	-27
0.46733	-29
0.47100	-31
0.47467	-32
0.47833	-34
0.48200	-37
0.48567	-37
0.48933	-33
0.49300	-27
0.49667	-19
0.50033	-15
0.50400	-15
0.50767	-19
0.51133	-27
0.51500	-34
0.51867	-40
0.52233	-44
0.52600	-46
0.52967	-46
0.53333	-48
0.53700	-52
0.54067	-54
0.54433	-52
0.54800	-44
0.55167	-38
0.55533	-37
0.55900	-38
0.56267	-40
0.56633	-39
0.57000	-35
0.57367	-32
0.57733	-32
0.58100	-39
0.58467	-48
0.58833	-57
0.59200	-63
0.59567	-65
0.59933	-64
0.60300	-63
0.60667	-62
0.61033	-58
0.61400	-52
0.61767	-48
0.62133	-47
0.62500	-48
0.62867	-46
0.63233	-41
0.63600	-36
0.63967	-31
0.64333	-30
0.64700	-32
0.65067	-40
0.65433	-50
0.65800	-55
0.66167	-58
0.66533	-56
0.66900	-53
0.67267	-52
0.67633	-49
0.68000	-45
0.68367	-41
0.68733	-40
0.69100	-43
0.69467	-47
0.69833	-48
0.70200	-45
0.70567	-44
0.70933	-48
0.71300	-55
0.71667	-61
0.72033	-62
0.72400	-63
0.72767	-61
0.73133	-58
0.73500	-55
0.73867	-51
0.74233	-48
0.74600	-45
0.74967	-42
0.75333	-40
0.75700	-42
0.76067	-44
0.76433	-47
0.76800	-49
0.77167	-49
0.77533	-48
0.77900	-49
0.78267	-52
0.78633	-54
0.79000	-54
0.79367	-58
0.79733	-63
0.80100	-67
0.80467	-69
0.80833	-71
0.81200	-70
0.81567	-64
0.81933	-55
0.82300	-47
0.82667	-41
0.83033	-40
0.83400	-41
0.83767	-47
0.84133	-53
0.84500	-57
0.84867	-59
0.85233	-60
0.85600	-61
0.85967	-62
0.86333	-65
0.86700	-68
0.87067	-69
0.87433	-71
0.87800	-74
0.88167	-75
0.88533	-75
0.88900	-74
0.89267	-73
0.89633	-74
0.90000	-73
0.90367	-69
0.90733	-66
0.91100	-62
0.91467	-60
0.91833	-60
0.92200	-62
0.92567	-65
0.92933	-69
0.93300	-69
0.93667	-56
0.94033	-34
0.94400	-16
0.94767	-8
0.95133	-3
0.95500	2
0.95867	-2
0.96233	-14
0.96600	-24
0.96967	-30
0.97333	-32
0.97700	-35
0.98067	-38
0.98433	-41
0.98800	-45
0.99167	-47
0.99533	-49
0.99900	-47
1.00267	-43
1.00633	-39
1.01000	-33
1.01367	-24
1.01733	-18
1.02100	-16
1.02467	-16
1.02833	-18
1.03200	-21
1.03567	-22
1.03933	-22
1.04300	-23
1.04667	-30
1.05033	-38
1.05400	-44
1.05767	-48
1.06133	-50
1.06500	-49
1.06867	-48
1.07233	-51
1.07600	-53
1.07967	-52
1.08333	-51
1.08700	-51
1.09067	-52
1.09433	-51
1.09800	-52
1.10167	-56
1.10533	-53
1.10900	-53
1.11267	-55
1.11633	-59
1.12000	-64
1.12367	-66
1.12733	-66
1.13100	-64
1.13467	-61
1.13833	-57
1.14200	-55
1.14567	-55
1.14933	-56
1.15300	-54
1.15667	-50
1.16033	-49
1.16400	-53
1.16767	-58
1.17133	-64
1.17500	-65
1.17867	-60
1.18233	-56
1.18600	-55
1.18967	-53
1.19333	-50
1.19700	-47
1.20067	-47
1.20433	-51
1.20800	-52
1.21167	-51
1.21533	-52
1.21900	-55
1.22267	-58
1.22633	-62
1.23000	-63
1.23367	-62
1.23733	-61
1.24100	-59
1.24467	-54
1.24833	-49
1.25200	-45
1.25567	-41
1.25933	-40
1.26300	-44
1.26667	-47
1.27033	-47
1.27400	-47
1.27767	-50
1.28133	-55
1.28500	-55
1.28867	-52
1.29233	-51
1.29600	-50
1.29967	-51
1.30333	-53
1.30700	-54
1.31067	-55
1.31433	-56
1.31800	-59
1.32167	-64
1.32533	-67
1.32900	-71
1.33267	-75
1.33633	-79
1.34000	-77
1.34367	-71
1.34733	-63
1.35100	-56
1.35467	-54
1.35833	-54
1.36200	-53
1.36567	-48
1.36933	-41
1.37300	-34
1.37667	-31
1.38033	-33
1.38400	-40
1.38767	-49
1.39133	-54
1.39500	-57
1.39867	-56
1.40233	-55
1.40600	-59
1.40967	-64
1.41333	-66
1.41700	-63
1.42067	-56
1.42433	-53
1.42800	-57
1.43167	-63
1.43533	-67
1.43900	-62
1.44267	-6
1.44633	160
1.45000	397
1.45367	609
1.45733	752
1.46100	826
1.46467	845
1.46833	835
1.47200	816
1.47567	797
1.47933	780
1.48300	756
1.48667	710
1.49033	637
1.49400	548
1.49767	458
1.50133	376
1.50500	301
1.50867	236
1.51233	183
1.51600	139
1.51967	104
1.52333	75
1.52700	52
1.53067	32
1.53433	17
1.53800	24
1.54167	118
1.54533	483
1.54900	1377
1.55267	2895
1.55633	4811
1.56000	6738
1.56367	8352
1.56733	9417
1.57100	9729
1.57467	9195
1.57833	7953
1.58200	6351
1.58567	4750
1.58933	3376
1.59300	2313
1.59667	1543
1.60033	1009
1.60400	650
1.60767	411
1.61133	250
1.61500	141
1.61867	68
1.62233	24
1.62600	-0
1.62967	-17
1.63333	-31
1.63700	-44
1.64067	-57
1.64433	-69
1.64800	-80
1.65167	-85
1.65533	-87
1.65900	-87
1.66267	-88
1.66633	-88
1.67000	-88
1.67367	-86
1.67733	-85
1.68100	-86
1.68467	-89
1.68833	-94
1.69200	-94
1.69567	-90
1.69933	-83
1.70300	-81
1.70667	-83
1.71033	-86
1.71400	-90
1.71767	-96
1.72133	-102
1.72500	-104
1.72867	-104
1.73233	-102
1.73600	-102
1.73967	-104
1.74333	-106
1.74700	-107
1.75067	-107
1.75433	-103
1.75800	-99
1.76167	-100
1.76533	-102
1.76900	-102
1.77267	-101
1.77633	-100
1.78000	-96
1.78367	-89
1.78733	-83
1.79100	-81
1.79467	-79
1.79833	-79
1.80200	-84
1.80567	-89
1.80933	-90
1.81300	-86
1.81667	-83
1.82033	-82
1.82400	-81
1.82767	-81
1.83133	-84
1.83500	-88
1.83867	-92
1.84233	-96
1.84600	-97
1.84967	-94
1.85333	-89
1.85700	-89
1.86067	-94
1.86433	-100
1.86800	-103
1.87167	-99
1.87533	-90
1.87900	-82
1.88267	-77
1.88633	-77
1.89000	-81
1.89367	-83
1.89733	-83
1.90100	-84
1.90467	-85
1.90833	-87
1.91200	-89
1.91567	-93
1.91933	-94
1.92300	-93
1.92667	-90
1.93033	-85
1.93400	-80
1.93767	-79
1.94133	-80
1.94500	-83
1.94867	-85
1.95233	-82
1.95600	-39
1.95967	258
1.96333	1854
1.96700	8411
1.97067	29067
1.97433	79707
1.97800	176724
1.98167	323641
1.98533	503196
1.98900	683585
1.99267	831210
1.99633	920522
2.00000	938281
2.00367	886122
2.00733	779903
2.01100	644153
2.01467	503824
2.01833	377298
2.02200	273753
2.02567	194703
2.02933	137232
2.03300	96805
2.03667	68954
2.04033	49982
2.04400	37096
2.04767	28303
2.05133	22235
2.05500	17981
2.05867	14940
2.06233	12716
2.06600	11049
2.06967	9769
2.07333	8757
2.07700	7935
2.08067	7254
2.08433	6682
2.08800	6196
2.09167	5778
2.09533	5417
2.09900	5100
2.10267	4816
2.10633	4559
2.11000	4324
2.11367	4112
2.11733	3922
2.12100	3750
2.12467	3591
2.12833	3442
2.13200	3303
2.13567	3170
2.13933	3046
2.14300	2929
2.14667	2821
2.15033	2717
2.15400	2619
2.15767	2526
2.16133	2442
2.16500	2364
2.16867	2293
2.17233	2226
2.17600	2163
2.17967	2104
2.18333	2050
2.18700	1997
2.19067	1947
2.19433	1900
2.19800	1855
2.20167	1811
2.20533	1769
2.20900	1728
2.21267	1687
2.21633	1643
2.22000	1595
2.22367	1549
2.22733	1508
2.23100	1472
2.23467	1439
2.23833	1411
2.24200	1384
2.24567	1359
2.24933	1335
2.25300	1307
2.25667	1280
2.26033	1255
2.26400	1233
2.26767	1216
2.27133	1197
2.27500	1174
2.27867	1150
2.28233	1128
2.28600	1109
2.28967	1089
2.29333	1072
2.29700	1057
2.30067	1042
2.30433	1026
2.30800	1009
2.31167	988
2.31533	967
2.31900	948
2.32267	932
2.32633	920
2.33000	909
2.33367	892
2.33733	873
2.34100	856
2.34467	845
2.34833	839
2.35200	832
2.35567	822
2.35933	811
2.36300	797
2.36667	781
2.37033	762
2.37400	747
2.37767	736
2.38133	727
2.38500	717
2.38867	707
2.39233	700
2.39600	695
2.39967	688
2.40333	681
2.40700	670
2.41067	659
2.41433	648
2.41800	638
2.42167	630
2.42533	621
2.42900	616
2.43267	614
2.43633	612
2.44000	608
2.44367	606
2.44733	602
2.45100	596
2.45467	589
2.45833	582
2.46200	575
2.46567	564
2.46933	551
2.47300	538
2.47667	526
2.48033	519
2.48400	514
2.48767	512
2.49133	511
2.49500	507
2.49867	499
2.50233	490
2.50600	481
2.50967	473
2.51333	467
2.51700	463
2.52067	462
2.52433	460
2.52800	458
2.53167	455
2.53533	454
2.53900	450
2.54267	444
2.54633	440
2.55000	434
2.55367	427
2.55733	424
2.56100	424
2.56467	423
2.56833	422
2.57200	420
2.57567	416
2.57933	408
2.58300	400
2.58667	397
2.59033	397
2.59400	398
2.59767	399
2.60133	391
2.60500	382
2.60867	379
2.61233	378
2.61600	376
2.61967	372
2.62333	365
2.62700	360
2.63067	355
2.63433	352
2.63800	350
2.64167	347
2.64533	341
2.64900	335
2.65267	331
2.65633	331
2.66000	333
2.66367	337
2.66733	341
2.67100	343
2.67467	342
2.67833	336
2.68200	322
2.68567	307
2.68933	302
2.69300	302
2.69667	301
2.70033	295
2.70400	286
2.70767	279
2.71133	277
2.71500	279
2.71867	281
2.72233	282
2.72600	281
2.72967	280
2.73333	277
2.73700	277
2.74067	277
2.74433	276
2.74800	275
2.75167	274
2.75533	273
2.75900	270
2.76267	269
2.76633	267
2.77000	264
2.77367	262
2.77733	261
2.78100	259
2.78467	256
2.78833	253
2.79200	251
2.79567	245
2.79933	236
2.80300	231
2.80667	229
2.81033	226
2.81400	219
2.81767	211
2.82133	206
2.82500	205
2.82867	208
2.83233	212
2.83600	216
2.83967	223
2.84333	232
2.84700	234
2.85067	230
2.85433	227
2.85800	224
2.86167	221
2.86533	215
2.86900	206
2.87267	198
2.87633	191
2.88000	186
2.88367	185
2.88733	185
2.89100	184
2.89467	183
2.89833	183
2.90200	185
2.90567	189
2.90933	194
2.91300	196
2.91667	193
2.92033	186
2.92400	178
2.92767	171
2.93133	163
2.93500	157
2.93867	152
2.94233	152
2.94600	158
2.94967	164
2.95333	166
2.95700	168
2.96067	172
2.96433	177
2.96800	180
2.97167	179
2.97533	173
2.97900	168
2.98267	165
2.98633	163
2.99000	159
2.99367	154
2.99733	150
3.00100	148
3.00467	147
3.00833	147
3.01200	146
3.01567	145
3.01933	144
3.02300	141
3.02667	136
3.03033	130
3.03400	126
3.03767	122
3.04133	117
3.04500	114
3.04867	114
3.05233	114
3.05600	116
3.05967	119
3.06333	123
3.06700	127
3.07067	130
3.07433	132
3.07800	129
3.08167	119
3.08533	109
3.08900	101
3.09267	93
3.09633	87
3.10000	87
3.10367	94
3.10733	103
3.11100	113
3.11467	119
3.11833	118
3.12200	115
3.12567	113
3.12933	113
3.13300	112
3.13667	108
3.14033	104
3.14400	104
3.14767	105
3.15133	101
3.15500	94
3.15867	91
3.16233	89
3.16600	88
3.16967	89
3.17333	92
3.17700	95
3.18067	98
3.18433	99
3.18800	98
3.19167	97
3.19533	97
3.19900	95
3.20267	94
3.20633	94
3.21000	92
3.21367	89
3.21733	87
3.22100	86
3.22467	86
3.22833	86
3.23200	84
3.23567	82
3.23933	81
3.24300	80
3.24667	79
3.25033	76
3.25400	75
3.25767	77
3.26133	77
3.26500	75
3.26867	75
3.27233	78
3.27600	83
3.27967	87
3.28333	87
3.28700	81
3.29067	76
3.29433	71
3.29800	67
3.30167	62
3.30533	60
3.30900	61
3.31267	65
3.31633	70
3.32000	74
3.32367	76
3.32733	72
3.33100	56
3.33467	63
3.33833	68
3.34200	71
3.34567	75
3.34933	74
3.35300	66
3.35667	57
3.36033	48
3.36400	41
3.36767	39
3.37133	40
3.37500	45
3.37867	51
3.38233	59
3.38600	66
3.38967	71
3.39333	71
3.39700	64
3.40067	56
3.40433	53
3.40800	58
3.41167	57
3.41533	57
3.41900	64
3.42267	66
3.42633	65
3.43000	61
3.43367	54
3.43733	49
3.44100	45
3.44467	41
3.44833	41
3.45200	45
3.45567	49
3.45933	48
3.46300	47
3.46667	45
3.47033	45
3.47400	45
3.47767	45
3.48133	43
3.48500	38
3.48867	33
3.49233	29
3.49600	27
3.49967	27
3.50333	26
3.50700	27
3.51067	32
3.51433	40
3.51800	45
3.52167	45
3.52533	44
3.52900	42
3.53267	41
3.53633	41
3.54000	38
3.54367	34
3.54733	29
3.55100	26
3.55467	25
3.55833	26
3.56200	28
3.56567	29
3.56933	31
3.57300	36
3.57667	38
3.58033	37
3.58400	36
3.58767	34
3.59133	32
3.59500	35
3.59867	39
3.60233	41
3.60600	39
3.60967	36
3.61333	36
3.61700	37
3.62067	37
3.62433	36
3.62800	35
3.63167	35
3.63533	36
3.63900	37
3.64267	34
3.64633	28
3.65000	22
3.65367	19
3.65733	20
3.66100	22
3.66467	26
3.66833	32
3.67200	35
3.67567	34
3.67933	31
3.68300	26
3.68667	19
3.69033	15
3.69400	11
3.69767	8
3.70133	9
3.70500	11
3.70867	7
3.71233	-1
3.71600	-9
3.71967	-15
3.72333	-16
3.72700	-14
3.73067	-12
3.73433	-11
3.73800	-7
3.74167	0
3.74533	8
3.74900	11
3.75267	10
3.75633	8
3.76000	9
3.76367	15
3.76733	22
3.77100	27
3.77467	29
3.77833	26
3.78200	20
3.78567	13
3.78933	7
3.79300	2
3.79667	3
3.80033	8
3.80400	13
3.80767	16
3.81133	13
3.81500	6
3.81867	-1
3.82233	-3
3.82600	-3
3.82967	-0
3.83333	4
3.83700	8
3.84067	10
3.84433	9
3.84800	3
3.85167	-5
3.85533	-11
3.85900	-12
3.86267	-9
3.86633	-5
3.87000	1
3.87367	8
3.87733	14
3.88100	16
3.88467	12
3.88833	7
3.89200	5
3.89567	6
3.89933	7
3.90300	6
3.90667	6
3.91033	7
3.91400	9
3.91767	9
3.92133	8
3.92500	2
3.92867	-8
3.93233	-18
3.93600	-23
3.93967	-23
3.94333	-20
3.94700	-18
3.95067	-13
3.95433	-6
3.95800	-1
3.96167	1
3.96533	2
3.96900	-0
3.97267	-3
3.97633	-6
3.98000	-8
3.98367	-9
3.98733	-10
3.99100	-10
3.99467	-6
3.99833	2

[Chromatogram (Ch2)]
Interval(msec)	220
# of Points	1091
Start Time(min)	0.002
End Time(min)	3.998
R.Time (min)	Intensity
0.00167	0
0.00533	0
0.00900	0
0.01267	0
0.01633	0
0.02000	0
0.02367	0
0.02733	0
0.03100	-0
0.03467	-0
0.03833	-0
0.04200	-0
0.04567	-0
0.04933	-0
0.05300	-0
0.05667	-0
0.06033	-0
0.06400	-1
0.06767	-1
0.07133	-1
0.07500	-1
0.07867	-2
0.08233	-2
0.08600	-2
0.08967	-2
0.09333	-3
0.09700	-3
0.10067	-3
0.10433	-3
0.10800	-3
0.11167	-3
0.11533	-3
0.11900	-2
0.12267	-2
0.12633	-2
0.13000	-2
0.13367	-2
0.13733	-1
0.14100	-1
0.14467	-1
0.14833	-1
0.15200	-1
0.15567	-1
0.15933	-1
0.16300	-1
0.16667	-1
0.17033	-1
0.17400	-1
0.17767	-1
0.18133	-1
0.18500	-1
0.18867	-1
0.19233	-1
0.19600	-1
0.19967	-1
0.20333	-1
0.20700	-1
0.21067	-1
0.21433	-1
0.21800	-1
0.22167	-0
0.22533	-0
0.22900	-1
0.23267	-1
0.23633	-1
0.24000	-1
0.24367	-1
0.24733	-0
0.25100	-0
0.25467	-0
0.25833	-0
0.26200	0
0.26567	0
0.26933	-0
0.27300	-0
0.27667	-0
0.28033	-1
0.28400	-1
0.28767	-1
0.29133	-1
0.29500	-1
0.29867	-1
0.30233	-1
0.30600	-1
0.30967	-1
0.31333	-1
0.31700	-1
0.32067	-1
0.32433	-1
0.32800	-1
0.33167	-1
0.33533	-1
0.33900	-1
0.34267	-1
0.34633	-1
0.35000	-1
0.35367	-1
0.35733	-1
0.36100	-1
0.36467	-1
0.36833	-1
0.37200	-2
0.37567	-2
0.37933	-2
0.38300	-2
0.38667	-2
0.39033	-2
0.39400	-2
0.39767	-1
0.40133	-1
0.40500	-1
0.40867	-1
0.41233	-0
0.41600	-1
0.41967	-1
0.42333	-1
0.42700	-1
0.43067	-1
0.43433	-1
0.43800	-1
0.44167	-1
0.44533	-1
0.44900	-1
0.45267	-1
0.45633	-1
0.46000	-1
0.46367	-1
0.46733	-1
0.47100	-1
0.47467	-1
0.47833	-2
0.48200	-2
0.48567	-2
0.48933	-2
0.49300	-2
0.49667	-2
0.50033	-2
0.50400	-2
0.50767	-2
0.51133	-2
0.51500	-2
0.51867	-2
0.52233	-2
0.52600	-2
0.52967	-2
0.53333	-2
0.53700	-2
0.54067	-3
0.54433	-3
0.54800	-3
0.55167	-3
0.55533	-3
0.55900	-3
0.56267	-3
0.56633	-3
0.57000	-3
0.57367	-3
0.57733	-3
0.58100	-2
0.58467	-2
0.58833	-2
0.59200	-2
0.59567	-2
0.59933	-2
0.60300	-1
0.60667	-1
0.61033	-1
0.61400	-1
0.61767	-1
0.62133	-1
0.62500	-1
0.62867	-1
0.63233	-1
0.63600	-2
0.63967	-2
0.64333	-2
0.64700	-2
0.65067	-2
0.65433	-2
0.65800	-2
0.66167	-2
0.66533	-2
0.66900	-2
0.67267	-2
0.67633	-2
0.68000	-2
0.68367	-2
0.68733	-2
0.69100	-2
0.69467	-2
0.69833	-2
0.70200	-1
0.70567	-1
0.70933	-1
0.71300	-1
0.71667	-1
0.72033	-1
0.72400	-2
0.72767	-2
0.73133	-3
0.73500	-3
0.73867	-3
0.74233	-3
0.74600	-3
0.74967	-4
0.75333	-3
0.75700	-3
0.76067	-3
0.76433	-3
0.76800	-3
0.77167	-3
0.77533	-3
0.77900	-3
0.78267	-3
0.78633	-3
0.79000	-3
0.79367	-2
0.79733	-2
0.80100	-2
0.80467	-2
0.80833	-2
0.81200	-2
0.81567	-2
0.81933	-2
0.82300	-2
0.82667	-2
0.83033	-2
0.83400	-2
0.83767	-2
0.84133	-2
0.84500	-2
0.84867	-2
0.85233	-2
0.85600	-3
0.85967	-3
0.86333	-3
0.86700	-3
0.87067	-3
0.87433	-3
0.87800	-3
0.88167	-3
0.88533	-3
0.88900	-3
0.89267	-3
0.89633	-2
0.90000	-2
0.90367	-2
0.90733	-2
0.91100	-1
0.91467	-1
0.91833	-1
0.92200	-1
0.92567	-1
0.92933	-1
0.93300	-1
0.93667	-1
0.94033	-1
0.94400	-1
0.94767	-1
0.95133	-1
0.95500	-1
0.95867	-1
0.96233	-1
0.96600	-1
0.96967	-1
0.97333	-1
0.97700	-1
0.98067	-1
0.98433	-2
0.98800	-2
0.99167	-2
0.99533	-2
0.99900	-2
1.00267	-2
1.00633	-3
1.01000	-3
1.01367	-3
1.01733	-3
1.02100	-3
1.02467	-3
1.02833	-2
1.03200	-2
1.03567	-2
1.03933	-2
1.04300	-2
1.04667	-2
1.05033	-2
1.05400	-2
1.05767	-2
1.06133	-2
1.06500	-2
1.06867	-2
1.07233	-1
1.07600	-1
1.07967	-1
1.08333	-1
1.08700	-1
1.09067	-1
1.09433	-1
1.09800	-1
1.10167	-1
1.10533	-1
1.10900	-2
1.11267	-2
1.11633	-2
1.12000	-2
1.12367	-2
1.12733	-2
1.13100	-3
1.13467	-3
1.13833	-3
1.14200	-3
1.14567	-3
1.14933	-3
1.15300	-3
1.15667	-3
1.16033	-3
1.16400	-3
1.16767	-4
1.17133	-4
1.17500	-4
1.17867	-3
1.18233	-3
1.18600	-3
1.18967	-3
1.19333	-3
1.19700	-3
1.20067	-3
1.20433	-3
1.20800	-3
1.21167	-2
1.21533	-2
1.21900	-2
1.22267	-2
1.22633	-2
1.23000	-3
1.23367	-3
1.23733	-3
1.24100	-3
1.24467	-3
1.24833	-3
1.25200	-2
1.25567	-2
1.25933	-2
1.26300	-2
1.26667	-2
1.27033	-2
1.27400	-2
1.27767	-2
1.28133	-2
1.28500	-2
1.28867	-2
1.29233	-2
1.29600	-2
1.29967	-2
1.30333	-2
1.30700	-2
1.31067	-2
1.31433	-2
1.31800	-2
1.32167	-2
1.32533	-2
1.32900	-2
1.33267	-2
1.33633	-2
1.34000	-2
1.34367	-3
1.34733	-3
1.35100	-3
1.35467	-3
1.35833	-3
1.36200	-3
1.36567	-3
1.36933	-3
1.37300	-3
1.37667	-3
1.38033	-3
1.38400	-3
1.38767	-3
1.39133	-3
1.39500	-3
1.39867	-3
1.40233	-3
1.40600	-3
1.40967	-2
1.41333	-2
1.41700	-2
1.42067	-2
1.42433	-2
1.42800	-2
1.43167	-2
1.43533	-2
1.43900	-2
1.44267	-2
1.44633	-2
1.45000	-2
1.45367	-2
1.45733	-3
1.46100	-3
1.46467	-3
1.46833	-3
1.47200	-3
1.47567	-3
1.47933	-3
1.48300	-3
1.48667	-3
1.49033	-3
1.49400	-3
1.49767	-4
1.50133	-4
1.50500	-4
1.50867	-4
1.51233	-4
1.51600	-4
1.51967	-4
1.52333	-4
1.52700	-4
1.53067	-4
1.53433	-4
1.53800	-4
1.54167	-4
1.54533	-4
1.54900	-4
1.55267	-4
1.55633	-4
1.56000	-4
1.56367	-4
1.56733	-4
1.57100	-4
1.57467	-4
1.57833	-4
1.58200	-4
1.58567	-3
1.58933	-3
1.59300	-3
1.59667	-4
1.60033	-4
1.60400	-5
1.60767	-6
1.61133	-8
1.61500	-10
1.61867	-12
1.62233	-15
1.62600	-18
1.62967	-21
1.63333	-24
1.63700	-27
1.64067	-30
1.64433	-34
1.64800	-37
1.65167	-41
1.65533	-45
1.65900	-48
1.66267	-52
1.66633	-57
1.67000	-61
1.67367	-66
1.67733	-71
1.68100	-76
1.68467	-81
1.68833	-86
1.69200	-90
1.69567	-94
1.69933	-97
1.70300	-100
1.70667	-102
1.71033	-104
1.71400	-106
1.71767	-108
1.72133	-109
1.72500	-110
1.72867	-111
1.73233	-111
1.73600	-112
1.73967	-112
1.74333	-113
1.74700	-113
1.75067	-114
1.75433	-115
1.75800	-116
1.76167	-117
1.76533	-118
1.76900	-118
1.77267	-118
1.77633	-118
1.78000	-117
1.78367	-117
1.78733	-116
1.79100	-116
1.79467	-116
1.79833	-117
1.80200	-117
1.80567	-118
1.80933	-118
1.81300	-119
1.81667	-119
1.82033	-120
1.82400	-120
1.82767	-121
1.83133	-121
1.83500	-121
1.83867	-121
1.84233	-121
1.84600	-121
1.84967	-120
1.85333	-119
1.85700	-118
1.86067	-118
1.86433	-117
1.86800	-117
1.87167	-117
1.87533	-117
1.87900	-118
1.88267	-118
1.88633	-119
1.89000	-119
1.89367	-119
1.89733	-119
1.90100	-119
1.90467	-119
1.90833	-118
1.91200	-119
1.91567	-119
1.91933	-119
1.92300	-119
1.92667	-119
1.93033	-118
1.93400	-118
1.93767	-117
1.94133	-117
1.94500	-116
1.94867	-116
1.95233	-116
1.95600	-116
1.95967	-116
1.96333	-116
1.96700	-116
1.97067	-116
1.97433	-115
1.97800	-115
1.98167	-115
1.98533	-115
1.98900	-115
1.99267	-115
1.99633	-116
2.00000	-116
2.00367	-116
2.00733	-115
2.01100	-115
2.01467	-114
2.01833	-114
2.02200	-113
2.02567	-112
2.02933	-111
2.03300	-111
2.03667	-111
2.04033	-111
2.04400	-111
2.04767	-111
2.05133	-111
2.05500	-111
2.05867	-111
2.06233	-110
2.06600	-110
2.06967	-109
2.07333	-108
2.07700	-108
2.08067	-108
2.08433	-107
2.08800	-107
2.09167	-106
2.09533	-105
2.09900	-105
2.10267	-105
2.10633	-105
2.11000	-105
2.11367	-105
2.11733	-104
2.12100	-104
2.12467	-104
2.12833	-103
2.13200	-103
2.13567	-103
2.13933	-102
2.14300	-102
2.14667	-102
2.15033	-101
2.15400	-100
2.15767	-100
2.16133	-99
2.16500	-99
2.16867	-99
2.17233	-99
2.17600	-98
2.17967	-98
2.18333	-98
2.18700	-98
2.19067	-98
2.19433	-98
2.19800	-98
2.20167	-98
2.20533	-98
2.20900	-98
2.21267	-98
2.21633	-98
2.22000	-98
2.22367	-97
2.22733	-97
2.23100	-96
2.23467	-95
2.23833	-95
2.24200	-94
2.24567	-94
2.24933	-93
2.25300	-93
2.25667	-92
2.26033	-92
2.26400	-92
2.26767	-91
2.27133	-91
2.27500	-91
2.27867	-91
2.28233	-90
2.28600	-90
2.28967	-89
2.29333	-90
2.29700	-89
2.30067	-89
2.30433	-88
2.30800	-87
2.31167	-87
2.31533	-86
2.31900	-86
2.32267	-85
2.32633	-85
2.33000	-85
2.33367	-84
2.33733	-84
2.34100	-83
2.34467	-82
2.34833	-81
2.35200	-81
2.35567	-80
2.35933	-80
2.36300	-80
2.36667	-79
2.37033	-79
2.37400	-77
2.37767	-76
2.38133	-73
2.38500	-71
2.38867	-68
2.39233	-64
2.39600	-60
2.39967	-56
2.40333	-52
2.40700	-47
2.41067	-42
2.41433	-38
2.41800	-34
2.42167	-30
2.42533	-27
2.42900	-24
2.43267	-22
2.43633	-20
2.44000	-17
2.44367	-15
2.44733	-13
2.45100	-11
2.45467	-8
2.45833	-7
2.46200	-5
2.46567	-4
2.46933	-3
2.47300	-2
2.47667	-1
2.48033	0
2.48400	1
2.48767	3
2.49133	4
2.49500	5
2.49867	6
2.50233	7
2.50600	8
2.50967	9
2.51333	10
2.51700	11
2.52067	12
2.52433	12
2.52800	13
2.53167	14
2.53533	14
2.53900	15
2.54267	15
2.54633	15
2.55000	16
2.55367	16
2.55733	16
2.56100	16
2.56467	16
2.56833	16
2.57200	16
2.57567	16
2.57933	16
2.58300	15
2.58667	15
2.59033	15
2.59400	15
2.59767	15
2.60133	15
2.60500	16
2.60867	16
2.61233	16
2.61600	17
2.61967	17
2.62333	17
2.62700	18
2.63067	18
2.63433	19
2.63800	20
2.64167	20
2.64533	21
2.64900	21
2.65267	21
2.65633	21
2.66000	21
2.66367	21
2.66733	21
2.67100	21
2.67467	20
2.67833	20
2.68200	21
2.68567	20
2.68933	20
2.69300	20
2.69667	21
2.70033	21
2.70400	21
2.70767	22
2.71133	22
2.71500	22
2.71867	22
2.72233	23
2.72600	23
2.72967	24
2.73333	24
2.73700	24
2.74067	24
2.74433	24
2.74800	23
2.75167	23
2.75533	22
2.75900	22
2.76267	22
2.76633	22
2.77000	22
2.77367	22
2.77733	22
2.78100	23
2.78467	23
2.78833	23
2.79200	24
2.79567	24
2.79933	25
2.80300	25
2.80667	25
2.81033	25
2.81400	25
2.81767	25
2.82133	26
2.82500	26
2.82867	26
2.83233	26
2.83600	26
2.83967	26
2.84333	26
2.84700	26
2.85067	26
2.85433	25
2.85800	24
2.86167	20
2.86533	15
2.86900	7
2.87267	-4
2.87633	-19
2.88000	-38
2.88367	-62
2.88733	-90
2.89100	-124
2.89467	-163
2.89833	-207
2.90200	-255
2.90567	-307
2.90933	-364
2.91300	-425
2.91667	-490
2.92033	-557
2.92400	-628
2.92767	-701
2.93133	-778
2.93500	-857
2.93867	-938
2.94233	-1022
2.94600	-1108
2.94967	-1195
2.95333	-1282
2.95700	-1358
2.96067	-1410
2.96433	-1431
2.96800	-1417
2.97167	-1372
2.97533	-1302
2.97900	-1215
2.98267	-1116
2.98633	-1013
2.99000	-910
2.99367	-810
2.99733	-716
3.00100	-629
3.00467	-549
3.00833	-477
3.01200	-412
3.01567	-355
3.01933	-305
3.02300	-261
3.02667	-223
3.03033	-191
3.03400	-162
3.03767	-138
3.04133	-117
3.04500	-99
3.04867	-83
3.05233	-70
3.05600	-59
3.05967	-49
3.06333	-40
3.06700	-33
3.07067	-27
3.07433	-22
3.07800	-18
3.08167	-14
3.08533	-10
3.08900	-8
3.09267	-5
3.09633	-2
3.10000	-0
3.10367	1
3.10733	3
3.11100	4
3.11467	6
3.11833	7
3.12200	7
3.12567	8
3.12933	9
3.13300	10
3.13667	10
3.14033	11
3.14400	11
3.14767	12
3.15133	12
3.15500	13
3.15867	13
3.16233	14
3.16600	14
3.16967	14
3.17333	15
3.17700	15
3.18067	16
3.18433	16
3.18800	16
3.19167	16
3.19533	16
3.19900	17
3.20267	17
3.20633	18
3.21000	18
3.21367	18
3.21733	19
3.22100	19
3.22467	19
3.22833	20
3.23200	20
3.23567	20
3.23933	20
3.24300	21
3.24667	21
3.25033	21
3.25400	21
3.25767	21
3.26133	22
3.26500	22
3.26867	22
3.27233	22
3.27600	22
3.27967	22
3.28333	22
3.28700	22
3.29067	22
3.29433	22
3.29800	22
3.30167	22
3.30533	23
3.30900	23
3.31267	23
3.31633	23
3.32000	23
3.32367	24
3.32733	24
3.33100	24
3.33467	24
3.33833	25
3.34200	25
3.34567	25
3.34933	26
3.35300	26
3.35667	26
3.36033	26
3.36400	26
3.36767	26
3.37133	26
3.37500	26
3.37867	26
3.38233	26
3.38600	26
3.38967	26
3.39333	27
3.39700	26
3.40067	26
3.40433	26
3.40800	26
3.41167	26
3.41533	26
3.41900	26
3.42267	26
3.42633	26
3.43000	26
3.43367	26
3.43733	26
3.44100	26
3.44467	26
3.44833	26
3.45200	26
3.45567	26
3.45933	26
3.46300	26
3.46667	26
3.47033	26
3.47400	26
3.47767	26
3.48133	26
3.48500	26
3.48867	26
3.49233	26
3.49600	26
3.49967	26
3.50333	26
3.50700	26
3.51067	26
3.51433	26
3.51800	26
3.52167	26
3.52533	26
3.52900	26
3.53267	26
3.53633	26
3.54000	26
3.54367	26
3.54733	26
3.55100	26
3.55467	26
3.55833	26
3.56200	26
3.56567	26
3.56933	26
3.57300	26
3.57667	26
3.58033	26
3.58400	26
3.58767	26
3.59133	26
3.59500	26
3.59867	26
3.60233	26
3.60600	26
3.60967	26
3.61333	26
3.61700	26
3.62067	25
3.62433	25
3.62800	25
3.63167	26
3.63533	26
3.63900	26
3.64267	26
3.64633	26
3.65000	26
3.65367	26
3.65733	26
3.66100	26
3.66467	26
3.66833	26
3.67200	26
3.67567	26
3.67933	26
3.68300	26
3.68667	26
3.69033	26
3.69400	26
3.69767	26
3.70133	26
3.70500	26
3.70867	26
3.71233	26
3.71600	26
3.71967	26
3.72333	26
3.72700	26
3.73067	26
3.73433	26
3.73800	26
3.74167	26
3.74533	26
3.74900	26
3.75267	26
3.75633	26
3.76000	26
3.76367	26
3.76733	26
3.77100	26
3.77467	26
3.77833	26
3.78200	26
3.78567	26
3.78933	26
3.79300	26
3.79667	26
3.80033	26
3.80400	26
3.80767	26
3.81133	26
3.81500	26
3.81867	26
3.82233	26
3.82600	26
3.82967	26
3.83333	25
3.83700	25
3.84067	26
3.84433	26
3.84800	26
3.85167	26
3.85533	26
3.85900	26
3.86267	26
3.86633	26
3.87000	26
3.87367	26
3.87733	26
3.88100	26
3.88467	26
3.88833	26
3.89200	26
3.89567	26
3.89933	26
3.90300	26
3.90667	26
3.91033	26
3.91400	26
3.91767	26
3.92133	26
3.92500	26
3.92867	27
3.93233	27
3.93600	27
3.93967	27
3.94333	27
3.94700	27
3.95067	27
3.95433	27
3.95800	26
3.96167	26
3.96533	26
3.96900	26
3.97267	26
3.97633	26
3.98000	27
3.98367	27
3.98733	27
3.99100	27
3.99467	26
3.99833	26

[Chromatogram (Ch3)]
Interval(msec)	220
# of Points	1091
Start Time(min)	0.002
End Time(min)	3.998
R.Time (min)	Intensity
0.00167	0
0.00533	1
0.00900	2
0.01267	2
0.01633	1
0.02000	0
0.02367	0
0.02733	1
0.03100	2
0.03467	3
0.03833	4
0.04200	3
0.04567	2
0.04933	2
0.05300	-0
0.05667	-1
0.06033	-1
0.06400	0
0.06767	3
0.07133	7
0.07500	9
0.07867	9
0.08233	8
0.08600	5
0.08967	2
0.09333	-1
0.09700	-0
0.10067	1
0.10433	0
0.10800	-0
0.11167	-3
0.11533	-3
0.11900	-3
0.12267	-5
0.12633	-3
0.13000	0
0.13367	2
0.13733	1
0.14100	0
0.14467	2
0.14833	2
0.15200	3
0.15567	3
0.15933	3
0.16300	3
0.16667	3
0.17033	1
0.17400	1
0.17767	1
0.18133	1
0.18500	2
0.18867	3
0.19233	3
0.19600	1
0.19967	0
0.20333	-0
0.20700	1
0.21067	2
0.21433	4
0.21800	4
0.22167	2
0.22533	-1
0.22900	-2
0.23267	-1
0.23633	1
0.24000	6
0.24367	10
0.24733	9
0.25100	5
0.25467	1
0.25833	-1
0.26200	1
0.26567	3
0.26933	5
0.27300	5
0.27667	3
0.28033	2
0.28400	-0
0.28767	-3
0.29133	-2
0.29500	-1
0.29867	1
0.30233	2
0.30600	1
0.30967	-0
0.31333	-1
0.31700	-1
0.32067	-3
0.32433	-4
0.32800	-2
0.33167	1
0.33533	2
0.33900	3
0.34267	3
0.34633	4
0.35000	3
0.35367	2
0.35733	2
0.36100	1
0.36467	-1
0.36833	-2
0.37200	-3
0.37567	-3
0.37933	-2
0.38300	-1
0.38667	-3
0.39033	-4
0.39400	-3
0.39767	-2
0.40133	-2
0.40500	-1
0.40867	-0
0.41233	1
0.41600	1
0.41967	1
0.42333	3
0.42700	3
0.43067	3
0.43433	3
0.43800	0
0.44167	-2
0.44533	-4
0.44900	-4
0.45267	-5
0.45633	-7
0.46000	-9
0.46367	-8
0.46733	-6
0.47100	-4
0.47467	-3
0.47833	-2
0.48200	-3
0.48567	-4
0.48933	-3
0.49300	-1
0.49667	0
0.50033	1
0.50400	0
0.50767	0
0.51133	-1
0.51500	-2
0.51867	-1
0.52233	1
0.52600	1
0.52967	0
0.53333	-1
0.53700	-1
0.54067	-1
0.54433	1
0.54800	4
0.55167	2
0.55533	0
0.55900	-0
0.56267	0
0.56633	1
0.57000	3
0.57367	3
0.57733	3
0.58100	3
0.58467	3
0.58833	5
0.59200	4
0.59567	5
0.59933	3
0.60300	-1
0.60667	-2
0.61033	-1
0.61400	-1
0.61767	-2
0.62133	-0
0.62500	-2
0.62867	-5
0.63233	-4
0.63600	-1
0.63967	1
0.64333	2
0.64700	3
0.65067	2
0.65433	-1
0.65800	-3
0.66167	-4
0.66533	-6
0.66900	-10
0.67267	-12
0.67633	-11
0.68000	-11
0.68367	-8
0.68733	-4
0.69100	-2
0.69467	-3
0.69833	-7
0.70200	-7
0.70567	-6
0.70933	-7
0.71300	-8
0.71667	-9
0.72033	-10
0.72400	-8
0.72767	-9
0.73133	-8
0.73500	-5
0.73867	-2
0.74233	-1
0.74600	-3
0.74967	-3
0.75333	-3
0.75700	-3
0.76067	-3
0.76433	-3
0.76800	-4
0.77167	-5
0.77533	-7
0.77900	-7
0.78267	-5
0.78633	-5
0.79000	-7
0.79367	-6
0.79733	-5
0.80100	-6
0.80467	-6
0.80833	-8
0.81200	-9
0.81567	-9
0.81933	-9
0.82300	-7
0.82667	-5
0.83033	-6
0.83400	-8
0.83767	-9
0.84133	-9
0.84500	-7
0.84867	-6
0.85233	-5
0.85600	-5
0.85967	-6
0.86333	-6
0.86700	-7
0.87067	-7
0.87433	-7
0.87800	-7
0.88167	-7
0.88533	-9
0.88900	-8
0.89267	-8
0.89633	-10
0.90000	-10
0.90367	-9
0.90733	-8
0.91100	-8
0.91467	-11
0.91833	-14
0.92200	-16
0.92567	-16
0.92933	-14
0.93300	-13
0.93667	-9
0.94033	-8
0.94400	-7
0.94767	-8
0.95133	-7
0.95500	-8
0.95867	-9
0.96233	-8
0.96600	-7
0.96967	-8
0.97333	-9
0.97700	-10
0.98067	-10
0.98433	-8
0.98800	-9
0.99167	-10
0.99533	-12
0.99900	-14
1.00267	-14
1.00633	-13
1.01000	-12
1.01367	-11
1.01733	-11
1.02100	-14
1.02467	-15
1.02833	-17
1.03200	-15
1.03567	-14
1.03933	-14
1.04300	-17
1.04667	-19
1.05033	-18
1.05400	-18
1.05767	-17
1.06133	-16
1.06500	-15
1.06867	-14
1.07233	-14
1.07600	-14
1.07967	-16
1.08333	-17
1.08700	-16
1.09067	-18
1.09433	-18
1.09800	-20
1.10167	-23
1.10533	-22
1.10900	-20
1.11267	-18
1.11633	-17
1.12000	-15
1.12367	-17
1.12733	-17
1.13100	-18
1.13467	-18
1.13833	-18
1.14200	-20
1.14567	-19
1.14933	-19
1.15300	-22
1.15667	-25
1.16033	-26
1.16400	-23
1.16767	-19
1.17133	-18
1.17500	-18
1.17867	-17
1.18233	-17
1.18600	-18
1.18967	-18
1.19333	-17
1.19700	-18
1.20067	-18
1.20433	-18
1.20800	-19
1.21167	-18
1.21533	-18
1.21900	-19
1.22267	-20
1.22633	-21
1.23000	-20
1.23367	-19
1.23733	-17
1.24100	-16
1.24467	-17
1.24833	-22
1.25200	-27
1.25567	-28
1.25933	-26
1.26300	-24
1.26667	-23
1.27033	-23
1.27400	-24
1.27767	-25
1.28133	-23
1.28500	-23
1.28867	-21
1.29233	-21
1.29600	-21
1.29967	-21
1.30333	-22
1.30700	-22
1.31067	-22
1.31433	-23
1.31800	-23
1.32167	-21
1.32533	-23
1.32900	-26
1.33267	-25
1.33633	-26
1.34000	-26
1.34367	-25
1.34733	-23
1.35100	-21
1.35467	-20
1.35833	-19
1.36200	-18
1.36567	-19
1.36933	-19
1.37300	-18
1.37667	-19
1.38033	-21
1.38400	-22
1.38767	-23
1.39133	-24
1.39500	-23
1.39867	-20
1.40233	-20
1.40600	-19
1.40967	-17
1.41333	-16
1.41700	-17
1.42067	-19
1.42433	-21
1.42800	-22
1.43167	-22
1.43533	-21
1.43900	-22
1.44267	-23
1.44633	-22
1.45000	-22
1.45367	-22
1.45733	-22
1.46100	-24
1.46467	-26
1.46833	-27
1.47200	-26
1.47567	-22
1.47933	-20
1.48300	-20
1.48667	-17
1.49033	-14
1.49400	-16
1.49767	-18
1.50133	-16
1.50500	-18
1.50867	-22
1.51233	-24
1.51600	-23
1.51967	-23
1.52333	-23
1.52700	-23
1.53067	-23
1.53433	-24
1.53800	-23
1.54167	-24
1.54533	-25
1.54900	-26
1.55267	-24
1.55633	-22
1.56000	-18
1.56367	-18
1.56733	-20
1.57100	-24
1.57467	-26
1.57833	-27
1.58200	-28
1.58567	-27
1.58933	-23
1.59300	-21
1.59667	-21
1.60033	-23
1.60400	-25
1.60767	-26
1.61133	-25
1.61500	-24
1.61867	-24
1.62233	-23
1.62600	-22
1.62967	-22
1.63333	-21
1.63700	-22
1.64067	-23
1.64433	-22
1.64800	-20
1.65167	-19
1.65533	-21
1.65900	-22
1.66267	-20
1.66633	-17
1.67000	-16
1.67367	-15
1.67733	-16
1.68100	-16
1.68467	-13
1.68833	-10
1.69200	-7
1.69567	-8
1.69933	-9
1.70300	-11
1.70667	-15
1.71033	-15
1.71400	-13
1.71767	-11
1.72133	-13
1.72500	-15
1.72867	-14
1.73233	-12
1.73600	-12
1.73967	-13
1.74333	-14
1.74700	-13
1.75067	-9
1.75433	-7
1.75800	-7
1.76167	-5
1.76533	-5
1.76900	-5
1.77267	-3
1.77633	-2
1.78000	-2
1.78367	1
1.78733	3
1.79100	6
1.79467	5
1.79833	2
1.80200	-0
1.80567	-4
1.80933	-7
1.81300	-7
1.81667	-5
1.82033	-4
1.82400	-5
1.82767	-4
1.83133	-2
1.83500	-0
1.83867	1
1.84233	0
1.84600	-0
1.84967	-0
1.85333	0
1.85700	1
1.86067	4
1.86433	5
1.86800	5
1.87167	6
1.87533	8
1.87900	10
1.88267	9
1.88633	7
1.89000	8
1.89367	9
1.89733	9
1.90100	10
1.90467	11
1.90833	9
1.91200	8
1.91567	10
1.91933	11
1.92300	12
1.92667	13
1.93033	14
1.93400	16
1.93767	16
1.94133	16
1.94500	14
1.94867	12
1.95233	12
1.95600	14
1.95967	20
1.96333	24
1.96700	26
1.97067	26
1.97433	26
1.97800	26
1.98167	24
1.98533	22
1.98900	21
1.99267	19
1.99633	19
2.00000	23
2.00367	26
2.00733	26
2.01100	26
2.01467	28
2.01833	30
2.02200	32
2.02567	33
2.02933	32
2.03300	31
2.03667	31
2.04033	34
2.04400	35
2.04767	36
2.05133	38
2.05500	39
2.05867	40
2.06233	41
2.06600	42
2.06967	40
2.07333	35
2.07700	33
2.08067	35
2.08433	39
2.08800	41
2.09167	44
2.09533	47
2.09900	47
2.10267	46
2.10633	48
2.11000	52
2.11367	56
2.11733	55
2.12100	54
2.12467	53
2.12833	53
2.13200	54
2.13567	53
2.13933	52
2.14300	54
2.14667	55
2.15033	56
2.15400	56
2.15767	56
2.16133	57
2.16500	58
2.16867	60
2.17233	62
2.17600	64
2.17967	64
2.18333	63
2.18700	63
2.19067	62
2.19433	63
2.19800	66
2.20167	68
2.20533	70
2.20900	72
2.21267	73
2.21633	72
2.22000	73
2.22367	76
2.22733	78
2.23100	77
2.23467	79
2.23833	82
2.24200	80
2.24567	79
2.24933	81
2.25300	84
2.25667	86
2.26033	89
2.26400	88
2.26767	87
2.27133	88
2.27500	89
2.27867	88
2.28233	87
2.28600	88
2.28967	91
2.29333	94
2.29700	95
2.30067	94
2.30433	95
2.30800	96
2.31167	98
2.31533	99
2.31900	98
2.32267	97
2.32633	99
2.33000	104
2.33367	108
2.33733	110
2.34100	108
2.34467	108
2.34833	110
2.35200	112
2.35567	114
2.35933	114
2.36300	115
2.36667	115
2.37033	118
2.37400	121
2.37767	122
2.38133	122
2.38500	122
2.38867	120
2.39233	120
2.39600	121
2.39967	122
2.40333	125
2.40700	128
2.41067	131
2.41433	133
2.41800	137
2.42167	139
2.42533	141
2.42900	140
2.43267	139
2.43633	138
2.44000	142
2.44367	172
2.44733	247
2.45100	327
2.45467	379
2.45833	390
2.46200	379
2.46567	368
2.46933	358
2.47300	338
2.47667	307
2.48033	273
2.48400	238
2.48767	207
2.49133	182
2.49500	167
2.49867	164
2.50233	167
2.50600	175
2.50967	181
2.51333	182
2.51700	176
2.52067	161
2.52433	142
2.52800	122
2.53167	104
2.53533	88
2.53900	74
2.54267	65
2.54633	58
2.55000	51
2.55367	44
2.55733	40
2.56100	40
2.56467	38
2.56833	38
2.57200	40
2.57567	42
2.57933	46
2.58300	51
2.58667	58
2.59033	71
2.59400	82
2.59767	93
2.60133	99
2.60500	100
2.60867	95
2.61233	85
2.61600	64
2.61967	32
2.62333	-11
2.62700	-59
2.63067	-110
2.63433	-157
2.63800	-199
2.64167	-234
2.64533	-262
2.64900	-283
2.65267	-298
2.65633	-307
2.66000	-310
2.66367	-309
2.66733	-306
2.67100	-302
2.67467	-295
2.67833	-285
2.68200	-275
2.68567	-265
2.68933	-255
2.69300	-244
2.69667	-230
2.70033	-217
2.70400	-206
2.70767	-196
2.71133	-189
2.71500	-181
2.71867	-173
2.72233	-165
2.72600	-156
2.72967	-147
2.73333	-141
2.73700	-133
2.74067	-123
2.74433	-116
2.74800	-111
2.75167	-107
2.75533	-101
2.75900	-94
2.76267	-85
2.76633	-76
2.77000	-71
2.77367	-66
2.77733	-61
2.78100	-58
2.78467	-54
2.78833	-48
2.79200	-43
2.79567	-38
2.79933	-32
2.80300	-27
2.80667	-21
2.81033	-15
2.81400	-9
2.81767	-6
2.82133	-2
2.82500	2
2.82867	14
2.83233	46
2.83600	119
2.83967	281
2.84333	590
2.84700	1125
2.85067	1952
2.85433	3115
2.85800	4609
2.86167	6381
2.86533	8315
2.86900	10264
2.87267	12063
2.87633	13559
2.88000	14647
2.88367	15268
2.88733	15425
2.89100	15166
2.89467	14572
2.89833	13738
2.90200	12749
2.90567	11678
2.90933	10585
2.91300	9512
2.91667	8486
2.92033	7528
2.92400	6648
2.92767	5847
2.93133	5128
2.93500	4485
2.93867	3912
2.94233	3405
2.94600	2959
2.94967	2568
2.95333	2224
2.95700	1923
2.96067	1662
2.96433	1436
2.96800	1238
2.97167	1066
2.97533	916
2.97900	787
2.98267	676
2.98633	580
2.99000	498
2.99367	428
2.99733	369
3.00100	318
3.00467	274
3.00833	236
3.01200	204
3.01567	178
3.01933	155
3.02300	136
3.02667	118
3.03033	103
3.03400	90
3.03767	80
3.04133	73
3.04500	66
3.04867	60
3.05233	54
3.05600	49
3.05967	44
3.06333	39
3.06700	37
3.07067	37
3.07433	38
3.07800	37
3.08167	35
3.08533	35
3.08900	35
3.09267	35
3.09633	33
3.10000	31
3.10367	32
3.10733	34
3.11100	36
3.11467	38
3.11833	39
3.12200	39
3.12567	40
3.12933	41
3.13300	42
3.13667	43
3.14033	44
3.14400	44
3.14767	45
3.15133	48
3.15500	50
3.15867	49
3.16233	47
3.16600	46
3.16967	45
3.17333	47
3.17700	50
3.18067	52
3.18433	53
3.18800	56
3.19167	58
3.19533	58
3.19900	62
3.20267	66
3.20633	69
3.21000	73
3.21367	76
3.21733	76
3.22100	65
3.22467	51
3.22833	44
3.23200	44
3.23567	48
3.23933	53
3.24300	62
3.24667	72
3.25033	82
3.25400	94
3.25767	107
3.26133	123
3.26500	139
3.26867	152
3.27233	166
3.27600	181
3.27967	196
3.28333	210
3.28700	221
3.29067	231
3.29433	241
3.29800	250
3.30167	258
3.30533	268
3.30900	279
3.31267	289
3.31633	296
3.32000	298
3.32367	300
3.32733	304
3.33100	305
3.33467	304
3.33833	305
3.34200	306
3.34567	310
3.34933	313
3.35300	316
3.35667	317
3.36033	315
3.36400	312
3.36767	309
3.37133	308
3.37500	307
3.37867	308
3.38233	307
3.38600	304
3.38967	300
3.39333	300
3.39700	302
3.40067	302
3.40433	298
3.40800	292
3.41167	288
3.41533	283
3.41900	283
3.42267	281
3.42633	278
3.43000	275
3.43367	272
3.43733	272
3.44100	271
3.44467	269
3.44833	266
3.45200	266
3.45567	267
3.45933	267
3.46300	266
3.46667	266
3.47033	267
3.47400	264
3.47767	259
3.48133	255
3.48500	253
3.48867	250
3.49233	250
3.49600	248
3.49967	245
3.50333	244
3.50700	242
3.51067	240
3.51433	239
3.51800	239
3.52167	238
3.52533	237
3.52900	234
3.53267	232
3.53633	229
3.54000	227
3.54367	227
3.54733	225
3.55100	224
3.55467	222
3.55833	222
3.56200	222
3.56567	223
3.56933	220
3.57300	217
3.57667	214
3.58033	212
3.58400	212
3.58767	212
3.59133	211
3.59500	210
3.59867	210
3.60233	209
3.60600	208
3.60967	204
3.61333	199
3.61700	198
3.62067	199
3.62433	200
3.62800	199
3.63167	194
3.63533	188
3.63900	186
3.64267	185
3.64633	184
3.65000	183
3.65367	183
3.65733	183
3.66100	183
3.66467	185
3.66833	185
3.67200	183
3.67567	181
3.67933	179
3.68300	178
3.68667	179
3.69033	179
3.69400	178
3.69767	176
3.70133	174
3.70500	173
3.70867	172
3.71233	174
3.71600	172
3.71967	168
3.72333	165
3.72700	164
3.73067	163
3.73433	160
3.73800	157
3.74167	159
3.74533	161
3.74900	161
3.75267	160
3.75633	161
3.76000	161
3.76367	159
3.76733	156
3.77100	154
3.77467	155
3.77833	156
3.78200	154
3.78567	151
3.78933	149
3.79300	149
3.79667	147
3.80033	147
3.80400	146
3.80767	143
3.81133	142
3.81500	140
3.81867	139
3.82233	138
3.82600	137
3.82967	137
3.83333	139
3.83700	141
3.84067	142
3.84433	143
3.84800	143
3.85167	142
3.85533	139
3.85900	134
3.86267	130
3.86633	129
3.87000	129
3.87367	128
3.87733	126
3.88100	124
3.88467	123
3.88833	122
3.89200	120
3.89567	120
3.89933	120
3.90300	119
3.90667	122
3.91033	122
3.91400	122
3.91767	122
3.92133	123
3.92500	123
3.92867	123
3.93233	125
3.93600	125
3.93967	125
3.94333	126
3.94700	125
3.95067	125
3.95433	122
3.95800	118
3.96167	114
3.96533	112
3.96900	113
3.97267	113
3.97633	114
3.98000	115
3.98367	115
3.98733	117
3.99100	119
3.99467	118
3.99833	115

[Status Trace (Column Oven Temperature)]
Interval(msec)	1000
# of Points	239
Start Time(min)	0.016
End Time(min)	3.983
Intensity Units	
Intensity Multiplier	1
R.Time (min)	Intensity
0.01612	34.99
0.03278	34.99
0.04945	35.00
0.06612	35.01
0.08278	35.01
0.09945	35.02
0.11612	35.02
0.13278	35.02
0.14945	35.02
0.16612	35.01
0.18278	35.01
0.19945	35.00
0.21612	35.00
0.23278	34.99
0.24945	35.00
0.26612	34.99
0.28278	34.99
0.29945	34.98
0.31612	34.98
0.33278	34.99
0.34945	35.00
0.36612	35.00
0.38278	34.99
0.39945	34.99
0.41612	34.99
0.43278	34.99
0.44945	34.99
0.46612	34.99
0.48278	34.99
0.49945	34.99
0.51612	35.00
0.53278	35.00
0.54945	35.00
0.56612	35.00
0.58278	34.99
0.59945	35.00
0.61612	35.00
0.63278	34.99
0.64945	34.99
0.66612	34.98
0.68278	34.99
0.69945	34.99
0.71612	34.99
0.73278	34.99
0.74945	35.00
0.76612	35.00
0.78278	34.99
0.79945	34.99
0.81612	34.99
0.83278	34.99
0.84945	35.00
0.86612	35.00
0.88278	35.00
0.89945	35.00
0.91612	34.99
0.93278	34.99
0.94945	34.99
0.96612	34.99
0.98278	34.98
0.99945	34.99
1.01612	35.00
1.03278	35.00
1.04945	34.99
1.06612	35.00
1.08278	34.99
1.09945	34.98
1.11612	34.99
1.13278	34.99
1.14945	34.99
1.16612	34.99
1.18278	34.99
1.19945	34.99
1.21612	35.00
1.23278	35.00
1.24945	35.00
1.26612	35.00
1.28278	35.00
1.29945	34.99
1.31612	34.99
1.33278	34.98
1.34945	34.99
1.36612	34.99
1.38278	34.99
1.39945	34.99
1.41612	34.99
1.43278	34.98
1.44945	34.99
1.46612	34.98
1.48278	34.99
1.49945	34.99
1.51612	35.00
1.53278	35.01
1.54945	35.02
1.56612	35.02
1.58278	35.02
1.59945	35.05
1.61612	35.13
1.63278	35.28
1.64945	35.50
1.66612	35.78
1.68278	36.13
1.69945	36.49
1.71612	36.84
1.73278	37.18
1.74945	37.53
1.76612	37.85
1.78278	38.17
1.79945	38.50
1.81612	38.84
1.83278	39.18
1.84945	39.49
1.86612	39.81
1.88278	40.14
1.89945	40.46
1.91612	40.81
1.93278	41.13
1.94945	41.46
1.96612	41.79
1.98278	42.12
1.99945	42.46
2.01612	42.78
2.03278	43.10
2.04945	43.43
2.06612	43.76
2.08278	44.07
2.09945	44.40
2.11612	44.73
2.13278	45.05
2.14945	45.37
2.16612	45.70
2.18278	46.03
2.19945	46.37
2.21612	46.70
2.23278	47.04
2.24945	47.35
2.26612	47.69
2.28278	48.02
2.29945	48.34
2.31612	48.68
2.33278	48.99
2.34945	49.30
2.36612	49.59
2.38278	49.73
2.39945	49.75
2.41612	49.74
2.43278	49.76
2.44945	49.74
2.46612	49.75
2.48278	49.76
2.49945	49.76
2.51612	49.76
2.53278	49.77
2.54945	49.78
2.56612	49.78
2.58278	49.80
2.59945	49.81
2.61612	49.82
2.63278	49.82
2.64945	49.83
2.66612	49.85
2.68278	49.86
2.69945	49.85
2.71612	49.84
2.73278	49.85
2.74945	49.87
2.76612	49.89
2.78278	49.89
2.79945	49.89
2.81612	49.88
2.83278	49.88
2.84945	49.88
2.86612	49.88
2.88278	49.89
2.89945	49.90
2.91612	49.91
2.93278	49.92
2.94945	49.94
2.96612	49.96
2.98278	49.98
2.99945	49.99
3.01612	49.99
3.03278	50.01
3.04945	50.01
3.06612	50.03
3.08278	50.04
3.09945	50.05
3.11612	50.06
3.13278	50.06
3.14945	50.07
3.16612	50.07
3.18278	50.08
3.19945	50.08
3.21612	50.10
3.23278	50.09
3.24945	50.10
3.26612	50.10
3.28278	50.10
3.29945	50.10
3.31612	50.10
3.33278	50.09
3.34945	50.08
3.36612	50.08
3.38278	50.08
3.39945	50.08
3.41612	50.08
3.43278	50.08
3.44945	50.08
3.46612	50.08
3.48278	50.07
3.49945	50.07
3.51612	50.07
3.53278	50.06
3.54945	50.07
3.56612	50.07
3.58278	50.07
3.59945	50.07
3.61612	50.07
3.63278	50.07
3.64945	50.07
3.66612	50.08
3.68278	50.08
3.69945	50.07
3.71612	50.07
3.73278	50.08
3.74945	50.08
3.76612	50.07
3.78278	50.08
3.79945	50.08
3.81612	50.08
3.83278	50.09
3.84945	50.09
3.86612	50.08
3.88278	50.08
3.89945	50.08
3.91612	50.07
3.93278	50.07
3.94945	50.07
3.96612	50.07
3.98278	50.07

[Status Trace (Injection Unit Temperature)]
Interval(msec)	1000
# of Points	239
Start Time(min)	0.016
End Time(min)	3.983
Intensity Units	
Intensity Multiplier	1
R.Time (min)	Intensity
0.01612	99.99
0.03278	99.98
0.04945	99.98
0.06612	99.98
0.08278	99.99
0.09945	99.98
0.11612	99.98
0.13278	99.98
0.14945	99.98
0.16612	99.98
0.18278	99.99
0.19945	99.98
0.21612	99.98
0.23278	99.98
0.24945	99.98
0.26612	99.98
0.28278	99.98
0.29945	99.99
0.31612	99.98
0.33278	99.98
0.34945	99.98
0.36612	99.99
0.38278	99.99
0.39945	99.98
0.41612	99.99
0.43278	99.98
0.44945	99.98
0.46612	99.98
0.48278	99.99
0.49945	99.98
0.51612	99.98
0.53278	99.99
0.54945	99.98
0.56612	99.98
0.58278	99.98
0.59945	99.98
0.61612	99.98
0.63278	99.98
0.64945	99.98
0.66612	99.98
0.68278	99.98
0.69945	99.98
0.71612	99.98
0.73278	99.99
0.74945	99.99
0.76612	99.98
0.78278	99.98
0.79945	99.98
0.81612	99.99
0.83278	99.99
0.84945	99.99
0.86612	99.99
0.88278	99.99
0.89945	99.99
0.91612	99.99
0.93278	99.99
0.94945	99.99
0.96612	99.99
0.98278	99.99
0.99945	99.99
1.01612	99.99
1.03278	99.99
1.04945	99.99
1.06612	99.99
1.08278	99.99
1.09945	99.99
1.11612	99.99
1.13278	99.99
1.14945	99.99
1.16612	99.99
1.18278	99.99
1.19945	99.99
1.21612	99.99
1.23278	99.99
1.24945	99.99
1.26612	99.99
1.28278	99.99
1.29945	99.99
1.31612	99.99
1.33278	99.99
1.34945	99.99
1.36612	99.99
1.38278	99.99
1.39945	99.99
1.41612	99.99
1.43278	99.99
1.44945	99.99
1.46612	99.99
1.48278	99.99
1.49945	99.99
1.51612	99.99
1.53278	99.99
1.54945	99.99
1.56612	99.99
1.58278	99.99
1.59945	99.99
1.61612	99.99
1.63278	99.99
1.64945	99.99
1.66612	99.99
1.68278	99.99
1.69945	99.99
1.71612	99.99
1.73278	99.99
1.74945	99.99
1.76612	99.99
1.78278	99.99
1.79945	99.98
1.81612	99.99
1.83278	99.99
1.84945	99.99
1.86612	99.98
1.88278	99.98
1.89945	99.98
1.91612	99.98
1.93278	99.98
1.94945	99.98
1.96612	99.98
1.98278	99.97
1.99945	99.98
2.01612	99.98
2.03278	99.98
2.04945	99.98
2.06612	99.98
2.08278	99.97
2.09945	99.98
2.11612	99.97
2.13278	99.97
2.14945	99.97
2.16612	99.97
2.18278	99.97
2.19945	99.97
2.21612	99.97
2.23278	99.97
2.24945	99.97
2.26612	99.97
2.28278	99.97
2.29945	99.97
2.31612	99.97
2.33278	99.97
2.34945	99.97
2.36612	99.97
2.38278	99.97
2.39945	99.97
2.41612	99.97
2.43278	99.97
2.44945	99.97
2.46612	99.97
2.48278	99.97
2.49945	99.98
2.51612	99.97
2.53278	99.97
2.54945	99.97
2.56612	99.98
2.58278	99.98
2.59945	99.98
2.61612	99.98
2.63278	99.98
2.64945	99.98
2.66612	99.98
2.68278	99.98
2.69945	99.99
2.71612	99.98
2.73278	99.99
2.74945	100.00
2.76612	99.99
2.78278	100.00
2.79945	100.00
2.81612	100.00
2.83278	100.00
2.84945	100.00
2.86612	100.01
2.88278	100.01
2.89945	100.01
2.91612	100.01
2.93278	100.01
2.94945	100.01
2.96612	100.01
2.98278	100.01
2.99945	100.02
3.01612	100.02
3.03278	100.01
3.04945	100.02
3.06612	100.02
3.08278	100.02
3.09945	100.02
3.11612	100.02
3.13278	100.03
3.14945	100.03
3.16612	100.03
3.18278	100.03
3.19945	100.03
3.21612	100.03
3.23278	100.03
3.24945	100.03
3.26612	100.03
3.28278	100.04
3.29945	100.04
3.31612	100.04
3.33278	100.03
3.34945	100.04
3.36612	100.04
3.38278	100.04
3.39945	100.04
3.41612	100.04
3.43278	100.04
3.44945	100.04
3.46612	100.04
3.48278	100.04
3.49945	100.04
3.51612	100.04
3.53278	100.04
3.54945	100.04
3.56612	100.04
3.58278	100.05
3.59945	100.05
3.61612	100.05
3.63278	100.05
3.64945	100.04
3.66612	100.05
3.68278	100.04
3.69945	100.05
3.71612	100.05
3.73278	100.05
3.74945	100.05
3.76612	100.05
3.78278	100.05
3.79945	100.04
3.81612	100.05
3.83278	100.05
3.84945	100.05
3.86612	100.05
3.88278	100.04
3.89945	100.05
3.91612	100.05
3.93278	100.05
3.94945	100.05
3.96612	100.05
3.98278	100.05

[Status Trace (Carrier Gas Pressure)]
Interval(msec)	1000
# of Points	239
Start Time(min)	0.016
End Time(min)	3.983
Intensity Units	
Intensity Multiplier	1
R.Time (min)	Intensity
0.01612	56.97
0.03278	55.85
0.04945	58.08
0.06612	59.89
0.08278	58.56
0.09945	57.97
0.11612	58.00
0.13278	58.01
0.14945	58.01
0.16612	58.00
0.18278	58.00
0.19945	58.00
0.21612	58.00
0.23278	58.00
0.24945	58.00
0.26612	58.00
0.28278	58.00
0.29945	58.00
0.31612	58.00
0.33278	58.00
0.34945	58.00
0.36612	58.00
0.38278	58.00
0.39945	58.00
0.41612	58.00
0.43278	58.00
0.44945	58.00
0.46612	58.00
0.48278	58.00
0.49945	58.00
0.51612	58.00
0.53278	58.00
0.54945	58.00
0.56612	58.00
0.58278	58.00
0.59945	58.00
0.61612	58.00
0.63278	58.00
0.64945	58.00
0.66612	58.00
0.68278	58.00
0.69945	58.00
0.71612	58.00
0.73278	58.00
0.74945	58.00
0.76612	58.00
0.78278	58.00
0.79945	58.00
0.81612	58.00
0.83278	58.00
0.84945	58.00
0.86612	58.00
0.88278	58.00
0.89945	58.00
0.91612	58.00
0.93278	58.00
0.94945	58.00
0.96612	58.00
0.98278	58.00
0.99945	58.00
1.01612	58.00
1.03278	58.00
1.04945	58.00
1.06612	58.00
1.08278	58.00
1.09945	58.00
1.11612	58.00
1.13278	58.00
1.14945	58.00
1.16612	58.00
1.18278	58.00
1.19945	58.00
1.21612	58.00
1.23278	58.00
1.24945	58.00
1.26612	58.00
1.28278	58.00
1.29945	58.00
1.31612	58.00
1.33278	58.00
1.34945	58.00
1.36612	58.00
1.38278	58.00
1.39945	58.00
1.41612	58.00
1.43278	58.00
1.44945	58.00
1.46612	58.00
1.48278	58.00
1.49945	58.00
1.51612	58.00
1.53278	58.00
1.54945	58.00
1.56612	58.00
1.58278	58.00
1.59945	58.00
1.61612	58.00
1.63278	58.00
1.64945	58.00
1.66612	58.01
1.68278	58.01
1.69945	58.00
1.71612	58.00
1.73278	58.00
1.74945	58.00
1.76612	58.00
1.78278	58.00
1.79945	58.00
1.81612	58.00
1.83278	58.00
1.84945	58.00
1.86612	58.00
1.88278	58.00
1.89945	58.00
1.91612	58.00
1.93278	58.00
1.94945	58.00
1.96612	58.00
1.98278	58.00
1.99945	58.00
2.01612	58.00
2.03278	58.00
2.04945	58.00
2.06612	58.00
2.08278	58.00
2.09945	58.00
2.11612	58.00
2.13278	58.00
2.14945	58.00
2.16612	58.00
2.18278	58.00
2.19945	58.00
2.21612	58.00
2.23278	58.00
2.24945	58.00
2.26612	58.00
2.28278	58.00
2.29945	58.00
2.31612	58.00
2.33278	58.00
2.34945	58.00
2.36612	58.00
2.38278	57.99
2.39945	57.99
2.41612	57.99
2.43278	58.00
2.44945	58.00
2.46612	58.00
2.48278	58.00
2.49945	58.00
2.51612	57.99
2.53278	57.99
2.54945	58.00
2.56612	58.00
2.58278	58.00
2.59945	58.00
2.61612	58.00
2.63278	58.00
2.64945	58.00
2.66612	58.00
2.68278	58.00
2.69945	58.00
2.71612	58.00
2.73278	58.00
2.74945	58.00
2.76612	58.00
2.78278	58.00
2.79945	58.00
2.81612	58.00
2.83278	58.00
2.84945	58.00
2.86612	58.00
2.88278	58.00
2.89945	58.00
2.91612	58.00
2.93278	58.00
2.94945	58.00
2.96612	58.00
2.98278	58.00
2.99945	58.00
3.01612	58.00
3.03278	58.00
3.04945	58.00
3.06612	58.00
3.08278	58.00
3.09945	58.00
3.11612	58.00
3.13278	58.00
3.14945	58.00
3.16612	58.00
3.18278	58.00
3.19945	58.00
3.21612	58.00
3.23278	58.00
3.24945	58.00
3.26612	58.00
3.28278	58.00
3.29945	58.00
3.31612	58.00
3.33278	58.00
3.34945	58.00
3.36612	58.00
3.38278	58.00
3.39945	58.00
3.41612	58.00
3.43278	58.00
3.44945	58.00
3.46612	58.00
3.48278	58.00
3.49945	58.00
3.51612	58.00
3.53278	58.00
3.54945	58.00
3.56612	58.00
3.58278	58.00
3.59945	58.00
3.61612	58.00
3.63278	58.00
3.64945	58.00
3.66612	58.00
3.68278	58.00
3.69945	58.00
3.71612	58.00
3.73278	58.00
3.74945	58.00
3.76612	58.00
3.78278	58.00
3.79945	58.00
3.81612	58.00
3.83278	58.00
3.84945	58.00
3.86612	58.00
3.88278	58.00
3.89945	58.00
3.91612	58.00
3.93278	58.00
3.94945	58.00
3.96612	58.00
3.98278	58.00

[Status Trace (Carrier Gas Flow)]
Interval(msec)	1000
# of Points	239
Start Time(min)	0.016
End Time(min)	3.983
Intensity Units	
Intensity Multiplier	1
R.Time (min)	Intensity
0.01612	33.95
0.03278	34.54
0.04945	34.55
0.06612	34.52
0.08278	34.52
0.09945	34.52
0.11612	34.52
0.13278	34.52
0.14945	34.52
0.16612	34.52
0.18278	34.52
0.19945	34.52
0.21612	34.52
0.23278	34.52
0.24945	34.52
0.26612	34.52
0.28278	34.52
0.29945	34.52
0.31612	34.52
0.33278	34.52
0.34945	34.52
0.36612	34.52
0.38278	34.52
0.39945	34.52
0.41612	34.52
0.43278	34.52
0.44945	34.52
0.46612	34.52
0.48278	34.52
0.49945	34.52
0.51612	34.52
0.53278	34.52
0.54945	34.52
0.56612	34.52
0.58278	34.52
0.59945	34.52
0.61612	34.52
0.63278	34.52
0.64945	34.52
0.66612	34.52
0.68278	34.52
0.69945	34.52
0.71612	34.52
0.73278	34.52
0.74945	34.52
0.76612	34.52
0.78278	34.52
0.79945	34.52
0.81612	34.52
0.83278	34.52
0.84945	34.52
0.86612	34.52
0.88278	34.52
0.89945	34.52
0.91612	34.52
0.93278	34.52
0.94945	34.52
0.96612	34.52
0.98278	34.52
0.99945	34.52
1.01612	34.52
1.03278	34.52
1.04945	34.51
1.06612	34.53
1.08278	34.52
1.09945	34.52
1.11612	34.52
1.13278	34.52
1.14945	34.52
1.16612	34.52
1.18278	34.52
1.19945	34.52
1.21612	34.52
1.23278	34.52
1.24945	34.52
1.26612	34.52
1.28278	34.52
1.29945	34.52
1.31612	34.52
1.33278	34.52
1.34945	34.52
1.36612	34.52
1.38278	34.52
1.39945	34.52
1.41612	34.52
1.43278	34.52
1.44945	34.52
1.46612	34.52
1.48278	34.52
1.49945	34.52
1.51612	34.52
1.53278	34.52
1.54945	34.52
1.56612	34.52
1.58278	34.52
1.59945	34.52
1.61612	34.52
1.63278	34.52
1.64945	34.52
1.66612	34.52
1.68278	34.52
1.69945	34.52
1.71612	34.52
1.73278	34.52
1.74945	34.52
1.76612	34.52
1.78278	34.52
1.79945	34.52
1.81612	34.52
1.83278	34.52
1.84945	34.52
1.86612	34.52
1.88278	34.52
1.89945	34.52
1.91612	34.52
1.93278	34.52
1.94945	34.52
1.96612	34.52
1.98278	34.52
1.99945	34.52
2.01612	34.52
2.03278	34.52
2.04945	34.52
2.06612	34.52
2.08278	34.52
2.09945	34.52
2.11612	34.52
2.13278	34.52
2.14945	34.52
2.16612	34.52
2.18278	34.52
2.19945	34.52
2.21612	34.52
2.23278	34.52
2.24945	34.52
2.26612	34.52
2.28278	34.52
2.29945	34.52
2.31612	34.52
2.33278	34.52
2.34945	34.52
2.36612	34.52
2.38278	34.52
2.39945	34.52
2.41612	34.52
2.43278	34.52
2.44945	34.52
2.46612	34.52
2.48278	34.52
2.49945	34.52
2.51612	34.52
2.53278	34.52
2.54945	34.51
2.56612	34.52
2.58278	34.52
2.59945	34.52
2.61612	34.52
2.63278	34.52
2.64945	34.52
2.66612	34.52
2.68278	34.52
2.69945	34.52
2.71612	34.52
2.73278	34.52
2.74945	34.52
2.76612	34.52
2.78278	34.52
2.79945	34.52
2.81612	34.52
2.83278	34.52
2.84945	34.52
2.86612	34.52
2.88278	34.52
2.89945	34.52
2.91612	34.52
2.93278	34.52
2.94945	34.52
2.96612	34.52
2.98278	34.52
2.99945	34.52
3.01612	34.52
3.03278	34.52
3.04945	34.52
3.06612	34.52
3.08278	34.52
3.09945	34.52
3.11612	34.52
3.13278	34.52
3.14945	34.52
3.16612	34.52
3.18278	34.52
3.19945	34.52
3.21612	34.52
3.23278	34.52
3.24945	34.52
3.26612	34.52
3.28278	34.52
3.29945	34.52
3.31612	34.52
3.33278	34.52
3.34945	34.52
3.36612	34.52
3.38278	34.52
3.39945	34.52
3.41612	34.52
3.43278	34.52
3.44945	34.52
3.46612	34.52
3.48278	34.52
3.49945	34.52
3.51612	34.52
3.53278	34.53
3.54945	34.52
3.56612	34.51
3.58278	34.51
3.59945	34.52
3.61612	34.52
3.63278	34.52
3.64945	34.52
3.66612	34.52
3.68278	34.52
3.69945	34.52
3.71612	34.52
3.73278	34.52
3.74945	34.52
3.76612	34.52
3.78278	34.52
3.79945	34.52
3.81612	34.52
3.83278	34.52
3.84945	34.52
3.86612	34.52
3.88278	34.52
3.89945	34.52
3.91612	34.52
3.93278	34.52
3.94945	34.52
3.96612	34.52
3.98278	34.52

[Status Trace (Column Flow)]
Interval(msec)	1000
# of Points	239
Start Time(min)	0.016
End Time(min)	3.983
Intensity Units	
Intensity Multiplier	1
R.Time (min)	Intensity
0.01612	5.39
0.03278	5.26
0.04945	5.52
0.06612	5.73
0.08278	5.57
0.09945	5.50
0.11612	5.51
0.13278	5.51
0.14945	5.51
0.16612	5.51
0.18278	5.51
0.19945	5.51
0.21612	5.51
0.23278	5.51
0.24945	5.51
0.26612	5.51
0.28278	5.51
0.29945	5.51
0.31612	5.51
0.33278	5.51
0.34945	5.51
0.36612	5.51
0.38278	5.51
0.39945	5.51
0.41612	5.51
0.43278	5.51
0.44945	5.51
0.46612	5.51
0.48278	5.51
0.49945	5.51
0.51612	5.51
0.53278	5.51
0.54945	5.51
0.56612	5.51
0.58278	5.51
0.59945	5.51
0.61612	5.51
0.63278	5.51
0.64945	5.51
0.66612	5.51
0.68278	5.51
0.69945	5.51
0.71612	5.51
0.73278	5.51
0.74945	5.51
0.76612	5.51
0.78278	5.51
0.79945	5.51
0.81612	5.51
0.83278	5.51
0.84945	5.51
0.86612	5.51
0.88278	5.51
0.89945	5.51
0.91612	5.51
0.93278	5.51
0.94945	5.51
0.96612	5.51
0.98278	5.51
0.99945	5.51
1.01612	5.51
1.03278	5.51
1.04945	5.51
1.06612	5.51
1.08278	5.51
1.09945	5.51
1.11612	5.51
1.13278	5.51
1.14945	5.51
1.16612	5.51
1.18278	5.51
1.19945	5.51
1.21612	5.51
1.23278	5.51
1.24945	5.51
1.26612	5.51
1.28278	5.51
1.29945	5.51
1.31612	5.51
1.33278	5.51
1.34945	5.51
1.36612	5.51
1.38278	5.51
1.39945	5.51
1.41612	5.51
1.43278	5.51
1.44945	5.51
1.46612	5.51
1.48278	5.51
1.49945	5.51
1.51612	5.51
1.53278	5.51
1.54945	5.51
1.56612	5.51
1.58278	5.51
1.59945	5.51
1.61612	5.50
1.63278	5.50
1.64945	5.49
1.66612	5.48
1.68278	5.47
1.69945	5.46
1.71612	5.45
1.73278	5.44
1.74945	5.43
1.76612	5.42
1.78278	5.41
1.79945	5.40
1.81612	5.39
1.83278	5.38
1.84945	5.37
1.86612	5.36
1.88278	5.35
1.89945	5.34
1.91612	5.33
1.93278	5.32
1.94945	5.31
1.96612	5.30
1.98278	5.29
1.99945	5.28
2.01612	5.27
2.03278	5.26
2.04945	5.25
2.06612	5.24
2.08278	5.23
2.09945	5.22
2.11612	5.22
2.13278	5.20
2.14945	5.20
2.16612	5.19
2.18278	5.18
2.19945	5.17
2.21612	5.16
2.23278	5.15
2.24945	5.14
2.26612	5.13
2.28278	5.12
2.29945	5.11
2.31612	5.10
2.33278	5.09
2.34945	5.09
2.36612	5.08
2.38278	5.07
2.39945	5.07
2.41612	5.07
2.43278	5.07
2.44945	5.07
2.46612	5.07
2.48278	5.07
2.49945	5.07
2.51612	5.07
2.53278	5.07
2.54945	5.07
2.56612	5.07
2.58278	5.07
2.59945	5.07
2.61612	5.07
2.63278	5.07
2.64945	5.07
2.66612	5.07
2.68278	5.07
2.69945	5.07
2.71612	5.07
2.73278	5.07
2.74945	5.07
2.76612	5.07
2.78278	5.07
2.79945	5.07
2.81612	5.07
2.83278	5.07
2.84945	5.07
2.86612	5.07
2.88278	5.07
2.89945	5.07
2.91612	5.07
2.93278	5.07
2.94945	5.07
2.96612	5.07
2.98278	5.07
2.99945	5.07
3.01612	5.07
3.03278	5.07
3.04945	5.07
3.06612	5.06
3.08278	5.06
3.09945	5.06
3.11612	5.06
3.13278	5.06
3.14945	5.06
3.16612	5.06
3.18278	5.06
3.19945	5.06
3.21612	5.06
3.23278	5.06
3.24945	5.06
3.26612	5.06
3.28278	5.06
3.29945	5.06
3.31612	5.06
3.33278	5.06
3.34945	5.06
3.36612	5.06
3.38278	5.06
3.39945	5.06
3.41612	5.06
3.43278	5.06
3.44945	5.06
3.46612	5.06
3.48278	5.06
3.49945	5.06
3.51612	5.06
3.53278	5.06
3.54945	5.06
3.56612	5.06
3.58278	5.06
3.59945	5.06
3.61612	5.06
3.63278	5.06
3.64945	5.06
3.66612	5.06
3.68278	5.06
3.69945	5.06
3.71612	5.06
3.73278	5.06
3.74945	5.06
3.76612	5.06
3.78278	5.06
3.79945	5.06
3.81612	5.06
3.83278	5.06
3.84945	5.06
3.86612	5.06
3.88278	5.06
3.89945	5.06
3.91612	5.06
3.93278	5.06
3.94945	5.06
3.96612	5.06
3.98278	5.06

[Status Trace (Linear Velocity)]
Interval(msec)	1000
# of Points	239
Start Time(min)	0.016
End Time(min)	3.983
Intensity Units	
Intensity Multiplier	1
R.Time (min)	Intensity
0.01612	38.34
0.03278	37.60
0.04945	39.06
0.06612	40.25
0.08278	39.38
0.09945	38.99
0.11612	39.01
0.13278	39.02
0.14945	39.02
0.16612	39.01
0.18278	39.01
0.19945	39.01
0.21612	39.02
0.23278	39.01
0.24945	39.01
0.26612	39.02
0.28278	39.02
0.29945	39.02
0.31612	39.02
0.33278	39.02
0.34945	39.01
0.36612	39.01
0.38278	39.01
0.39945	39.01
0.41612	39.01
0.43278	39.01
0.44945	39.01
0.46612	39.01
0.48278	39.01
0.49945	39.02
0.51612	39.01
0.53278	39.01
0.54945	39.01
0.56612	39.01
0.58278	39.01
0.59945	39.01
0.61612	39.01
0.63278	39.01
0.64945	39.01
0.66612	39.01
0.68278	39.01
0.69945	39.01
0.71612	39.01
0.73278	39.01
0.74945	39.01
0.76612	39.01
0.78278	39.01
0.79945	39.01
0.81612	39.01
0.83278	39.01
0.84945	39.01
0.86612	39.01
0.88278	39.01
0.89945	39.01
0.91612	39.01
0.93278	39.01
0.94945	39.01
0.96612	39.01
0.98278	39.02
0.99945	39.01
1.01612	39.01
1.03278	39.01
1.04945	39.01
1.06612	39.01
1.08278	39.01
1.09945	39.01
1.11612	39.01
1.13278	39.01
1.14945	39.01
1.16612	39.01
1.18278	39.01
1.19945	39.01
1.21612	39.01
1.23278	39.01
1.24945	39.01
1.26612	39.01
1.28278	39.01
1.29945	39.01
1.31612	39.01
1.33278	39.02
1.34945	39.01
1.36612	39.01
1.38278	39.01
1.39945	39.01
1.41612	39.01
1.43278	39.01
1.44945	39.02
1.46612	39.02
1.48278	39.01
1.49945	39.01
1.51612	39.01
1.53278	39.01
1.54945	39.01
1.56612	39.01
1.58278	39.01
1.59945	39.01
1.61612	39.00
1.63278	38.99
1.64945	38.97
1.66612	38.94
1.68278	38.91
1.69945	38.88
1.71612	38.84
1.73278	38.81
1.74945	38.78
1.76612	38.74
1.78278	38.71
1.79945	38.68
1.81612	38.65
1.83278	38.61
1.84945	38.59
1.86612	38.56
1.88278	38.53
1.89945	38.50
1.91612	38.47
1.93278	38.43
1.94945	38.41
1.96612	38.38
1.98278	38.34
1.99945	38.31
2.01612	38.28
2.03278	38.25
2.04945	38.22
2.06612	38.19
2.08278	38.16
2.09945	38.14
2.11612	38.11
2.13278	38.07
2.14945	38.05
2.16612	38.02
2.18278	37.98
2.19945	37.96
2.21612	37.93
2.23278	37.89
2.24945	37.87
2.26612	37.84
2.28278	37.81
2.29945	37.78
2.31612	37.75
2.33278	37.72
2.34945	37.69
2.36612	37.67
2.38278	37.65
2.39945	37.65
2.41612	37.65
2.43278	37.65
2.44945	37.65
2.46612	37.65
2.48278	37.65
2.49945	37.65
2.51612	37.64
2.53278	37.64
2.54945	37.65
2.56612	37.65
2.58278	37.65
2.59945	37.65
2.61612	37.65
2.63278	37.64
2.64945	37.64
2.66612	37.64
2.68278	37.64
2.69945	37.64
2.71612	37.64
2.73278	37.64
2.74945	37.64
2.76612	37.64
2.78278	37.64
2.79945	37.64
2.81612	37.64
2.83278	37.64
2.84945	37.64
2.86612	37.64
2.88278	37.64
2.89945	37.64
2.91612	37.64
2.93278	37.64
2.94945	37.64
2.96612	37.63
2.98278	37.63
2.99945	37.63
3.01612	37.63
3.03278	37.63
3.04945	37.63
3.06612	37.63
3.08278	37.63
3.09945	37.62
3.11612	37.62
3.13278	37.62
3.14945	37.62
3.16612	37.62
3.18278	37.62
3.19945	37.62
3.21612	37.62
3.23278	37.62
3.24945	37.62
3.26612	37.62
3.28278	37.62
3.29945	37.62
3.31612	37.62
3.33278	37.62
3.34945	37.62
3.36612	37.62
3.38278	37.62
3.39945	37.62
3.41612	37.62
3.43278	37.62
3.44945	37.62
3.46612	37.62
3.48278	37.62
3.49945	37.62
3.51612	37.62
3.53278	37.62
3.54945	37.62
3.56612	37.62
3.58278	37.62
3.59945	37.62
3.61612	37.62
3.63278	37.62
3.64945	37.62
3.66612	37.62
3.68278	37.62
3.69945	37.62
3.71612	37.62
3.73278	37.62
3.74945	37.62
3.76612	37.62
3.78278	37.62
3.79945	37.62
3.81612	37.62
3.83278	37.62
3.84945	37.62
3.86612	37.62
3.88278	37.62
3.89945	37.62
3.91612	37.62
3.93278	37.62
3.94945	37.62
3.96612	37.62
3.98278	37.62

