[Header]
Application Name	LabSolutions
Version	5.110
Data File Name	C:\Users\User\Desktop\GC Analyses\Jack\UIC Prairie Sampling\10.19.22\221019_076.gcd
Output Date	1/4/2023
Output Time	2:27:23 PM

[File Information]
Type	Data File
Generated	12/7/2022 2:56:51 PM
Generated by	System Administrator
Modified	12/7/2022 3:01:15 PM
Modified by	System Administrator

[Sample Information]
Operator Name	System Administrator
Acquired	12/7/2022 2:57:13 PM
Sample Type	1:Standard
Level	1
Sample Name	221019_UICPrairie
Sample ID	221019_UICPrairie
ISTD Amount1	1
ISTD Amount2	1
ISTD Amount3	1
ISTD Amount4	1
ISTD Amount5	1
ISTD Amount6	1
ISTD Amount7	1
ISTD Amount8	1
ISTD Amount9	1
ISTD Amount10	1
ISTD Amount11	1
ISTD Amount12	1
ISTD Amount13	1
ISTD Amount14	1
ISTD Amount15	1
ISTD Amount16	1
ISTD Amount17	1
ISTD Amount18	1
ISTD Amount19	1
ISTD Amount20	1
ISTD Amount21	1
ISTD Amount22	1
ISTD Amount23	1
ISTD Amount24	1
ISTD Amount25	1
ISTD Amount26	1
ISTD Amount27	1
ISTD Amount28	1
ISTD Amount29	1
ISTD Amount30	1
ISTD Amount31	1
ISTD Amount32	1
Sample Amount	1
Dilution Factor	1
Vial#	1
Injection Volume	1
Injection Count	1
Bar Code	

[Original Files]
Data File	C:\Users\User\Desktop\GC Analyses\Jack\UIC Prairie Sampling\10.19.22\221019_076.gcd
Method File	C:\LabSolutions\Data\GHG_4min_2022\ghg3_togas_w_acet_4 min_new_int.gcm
Batch File	
Report Format File	c:\LabSolutions\System\DEFAULT.lsr

[File Description]


[Configuration]
Instrument Name	C0B7VH3-Instrument1
Instrument #	1
Line #	1
# of Detectors	3
Detector ID	DET#1	DET#2	DET#3
Detector Name	FID	PTCD	ECD
# of Channels	1	1	1

[Peak Table(Ch1)]
# of Peaks	3
Peak#	R.Time	I.Time	F.Time	Area	Height	A/H	Conc.	Mark	ID#	Name	k'	Plate #	Plate Ht.	Tailing	Resolution	Sep.Factor	Area Ratio	Height Ratio	Conc. %	Norm Conc.
1	1.476	1.421	1.534	10341	4485	2.306	100.000	   	1	CO	0.000	8019	18.706	1.264	0.000	0.000	0	0	16.667	16.667
2	1.567	1.534	1.637	4744	2325	2.041	100.000	 V 	2	CH4	0.062	10900	13.762	0.000	1.455	0.000	0	0	16.667	16.667
3	1.996	1.945	2.510	1051030	492648	2.133	400.000	   	3	CO2	0.353	17081	8.782	1.245	7.082	5.680	0	0	66.667	66.667

[Peak Table(Ch2)]
# of Peaks	0

[Peak Table(Ch3)]
# of Peaks	5
Peak#	R.Time	I.Time	F.Time	Area	Height	A/H	Conc.	Mark	ID#	Name	k'	Plate #	Plate Ht.	Tailing	Resolution	Sep.Factor	Area Ratio	Height Ratio	Conc. %	Norm Conc.
1	2.458	2.370	2.499	1380	463	2.978	0.000	   			0.000	11100	13.513	0.000	0.000	0.000	0	0	0.000	0.000
2	2.517	2.499	2.557	849	303	2.797	0.000	 V 			0.024	3970	37.781	0.000	0.464	0.000	0	0	0.000	0.000
3	2.609	2.557	2.660	1025	279	3.672	0.000	 V 			0.061	7006	21.411	0.000	0.645	2.563	0	0	0.000	0.000
4	2.880	2.675	3.089	27810	5455	5.098	1.000	   	1	N2O	0.172	11311	13.261	0.000	2.329	2.805	0	0	100.000	100.000
5	3.151	3.089	3.870	14345	625	22.953	0.000	 V 			0.282	39	3875.610	0.000	0.254	1.643	0	0	0.000	0.000

[Compound Results(Ch1)]
# of IDs	6
ID#	Name	R.Time	Area	Height	Conc.	Curve	3rd	2nd	1st	Constant	Area Ratio	Height Ratio	Conc. %	Norm Conc.
1	CO	1.476	10341	4485	100.000	Linear	0.000000e+00	0.000000e+00	1.034108e+002	0.000000e+00	0	0	16.667	16.667
2	CH4	1.567	4744	2325	100.000	Linear	0.000000e+00	0.000000e+00	4.744009e+001	0.000000e+00	0	0	16.667	16.667
3	CO2	1.996	1051030	492648	400.000	Linear	0.000000e+00	0.000000e+00	2.627574e+003	0.000000e+00	0	0	66.667	66.667
4	Ethylene	0.000	0	0	0.000	Linear	0.000000e+00	0.000000e+00	0.000000e+00	0.000000e+00	0	0	0.000	0.000
5	Acetylene	0.000	0	0	0.000	Linear	0.000000e+00	0.000000e+00	0.000000e+00	0.000000e+00	0	0	0.000	0.000
6	Ethane	0.000	0	0	0.000	Linear	0.000000e+00	0.000000e+00	0.000000e+00	0.000000e+00	0	0	0.000	0.000

[Compound Results(Ch2)]
# of IDs	5
ID#	Name	R.Time	Area	Height	Conc.	Curve	3rd	2nd	1st	Constant	Area Ratio	Height Ratio	Conc. %	Norm Conc.
1	Hydrogen	0.000	0	0	0.000	Linear	0.000000e+00	0.000000e+00	0.000000e+00	0.000000e+00	0	0	0.000	0.000
2	Oxygen	0.000	0	0	0.000	Linear	0.000000e+00	0.000000e+00	0.000000e+00	0.000000e+00	0	0	0.000	0.000
3	Nitrogen	0.000	0	0	0.000	Linear	0.000000e+00	0.000000e+00	0.000000e+00	0.000000e+00	0	0	0.000	0.000
4	Methane	0.000	0	0	0.000	Linear	0.000000e+00	0.000000e+00	0.000000e+00	0.000000e+00	0	0	0.000	0.000
5	Carbon Monoxide	0.000	0	0	0.000	Linear	0.000000e+00	0.000000e+00	0.000000e+00	0.000000e+00	0	0	0.000	0.000

[Compound Results(Ch3)]
# of IDs	2
ID#	Name	R.Time	Area	Height	Conc.	Curve	3rd	2nd	1st	Constant	Area Ratio	Height Ratio	Conc. %	Norm Conc.
1	N2O	2.880	27810	5455	1.000	Linear	0.000000e+00	0.000000e+00	2.780985e+004	0.000000e+00	0	0	100.000	100.000
2	SF6	0.000	0	0	0.000	Linear	0.000000e+00	0.000000e+00	0.000000e+00	0.000000e+00	0	0	0.000	0.000

[Group Results(Ch1)]
# of Groups	0

[Group Results(Ch2)]
# of Groups	0

[Group Results(Ch3)]
# of Groups	0

[Chromatogram (Ch1)]
Interval(msec)	220
# of Points	1091
Start Time(min)	0.002
End Time(min)	3.998
R.Time (min)	Intensity
0.00167	-8
0.00533	-6
0.00900	-3
0.01267	-3
0.01633	-6
0.02000	-15
0.02367	-25
0.02733	-30
0.03100	-28
0.03467	-22
0.03833	-18
0.04200	-21
0.04567	-28
0.04933	-36
0.05300	-41
0.05667	-41
0.06033	-37
0.06400	-29
0.06767	-20
0.07133	-13
0.07500	-12
0.07867	-14
0.08233	-17
0.08600	-19
0.08967	-19
0.09333	-20
0.09700	-20
0.10067	-19
0.10433	-19
0.10800	-17
0.11167	-15
0.11533	-16
0.11900	-18
0.12267	-22
0.12633	-25
0.13000	-26
0.13367	-27
0.13733	-29
0.14100	-30
0.14467	-30
0.14833	-31
0.15200	-30
0.15567	-27
0.15933	-24
0.16300	-24
0.16667	-21
0.17033	-19
0.17400	-21
0.17767	-28
0.18133	-34
0.18500	-34
0.18867	-28
0.19233	-22
0.19600	-22
0.19967	-25
0.20333	-28
0.20700	-33
0.21067	-38
0.21433	-40
0.21800	-39
0.22167	-40
0.22533	-41
0.22900	-40
0.23267	-39
0.23633	-40
0.24000	-40
0.24367	-39
0.24733	-39
0.25100	-34
0.25467	-30
0.25833	-29
0.26200	-29
0.26567	-28
0.26933	-31
0.27300	-36
0.27667	-42
0.28033	-48
0.28400	-52
0.28767	-49
0.29133	-43
0.29500	-37
0.29867	-33
0.30233	-32
0.30600	-28
0.30967	-27
0.31333	-24
0.31700	-19
0.32067	-16
0.32433	-17
0.32800	-22
0.33167	-27
0.33533	-32
0.33900	-36
0.34267	-38
0.34633	-43
0.35000	-45
0.35367	-44
0.35733	-42
0.36100	-40
0.36467	-36
0.36833	-30
0.37200	-28
0.37567	-27
0.37933	-26
0.38300	-28
0.38667	-33
0.39033	-38
0.39400	-36
0.39767	-33
0.40133	-31
0.40500	-34
0.40867	-40
0.41233	-43
0.41600	-44
0.41967	-44
0.42333	-43
0.42700	-39
0.43067	-31
0.43433	-23
0.43800	-18
0.44167	-17
0.44533	-24
0.44900	-41
0.45267	-56
0.45633	-64
0.46000	-66
0.46367	-62
0.46733	-56
0.47100	-52
0.47467	-50
0.47833	-45
0.48200	-37
0.48567	-32
0.48933	-30
0.49300	-29
0.49667	-30
0.50033	-33
0.50400	-33
0.50767	-29
0.51133	-24
0.51500	-22
0.51867	-24
0.52233	-25
0.52600	-26
0.52967	-29
0.53333	-33
0.53700	-34
0.54067	-33
0.54433	-33
0.54800	-34
0.55167	-35
0.55533	-34
0.55900	-35
0.56267	-35
0.56633	-35
0.57000	-34
0.57367	-29
0.57733	-26
0.58100	-25
0.58467	-25
0.58833	-25
0.59200	-30
0.59567	-36
0.59933	-43
0.60300	-49
0.60667	-53
0.61033	-57
0.61400	-58
0.61767	-57
0.62133	-53
0.62500	-43
0.62867	-36
0.63233	-34
0.63600	-33
0.63967	-32
0.64333	-31
0.64700	-30
0.65067	-32
0.65433	-37
0.65800	-41
0.66167	-45
0.66533	-47
0.66900	-48
0.67267	-47
0.67633	-42
0.68000	-36
0.68367	-32
0.68733	-28
0.69100	-27
0.69467	-30
0.69833	-35
0.70200	-40
0.70567	-45
0.70933	-49
0.71300	-52
0.71667	-52
0.72033	-52
0.72400	-55
0.72767	-60
0.73133	-64
0.73500	-63
0.73867	-57
0.74233	-50
0.74600	-43
0.74967	-38
0.75333	-37
0.75700	-37
0.76067	-37
0.76433	-40
0.76800	-46
0.77167	-56
0.77533	-63
0.77900	-64
0.78267	-62
0.78633	-58
0.79000	-54
0.79367	-50
0.79733	-49
0.80100	-53
0.80467	-56
0.80833	-58
0.81200	-59
0.81567	-60
0.81933	-60
0.82300	-63
0.82667	-66
0.83033	-67
0.83400	-66
0.83767	-64
0.84133	-60
0.84500	-59
0.84867	-56
0.85233	-53
0.85600	-52
0.85967	-53
0.86333	-59
0.86700	-66
0.87067	-73
0.87433	-75
0.87800	-73
0.88167	-67
0.88533	-62
0.88900	-61
0.89267	-62
0.89633	-63
0.90000	-63
0.90367	-61
0.90733	-61
0.91100	-63
0.91467	-65
0.91833	-66
0.92200	-65
0.92567	-62
0.92933	-58
0.93300	-56
0.93667	-57
0.94033	-62
0.94400	-71
0.94767	-79
0.95133	-80
0.95500	-77
0.95867	-74
0.96233	-70
0.96600	-70
0.96967	-70
0.97333	-70
0.97700	-69
0.98067	-64
0.98433	-60
0.98800	-56
0.99167	-56
0.99533	-60
0.99900	-65
1.00267	-71
1.00633	-76
1.01000	-79
1.01367	-81
1.01733	-79
1.02100	-73
1.02467	-66
1.02833	-63
1.03200	-63
1.03567	-65
1.03933	-66
1.04300	-64
1.04667	-60
1.05033	-57
1.05400	-59
1.05767	-63
1.06133	-66
1.06500	-73
1.06867	-76
1.07233	-71
1.07600	-63
1.07967	-59
1.08333	-60
1.08700	-62
1.09067	-62
1.09433	-60
1.09800	-57
1.10167	-55
1.10533	-55
1.10900	-59
1.11267	-66
1.11633	-71
1.12000	-69
1.12367	-63
1.12733	-56
1.13100	-49
1.13467	-46
1.13833	-46
1.14200	-50
1.14567	-58
1.14933	-67
1.15300	-73
1.15667	-74
1.16033	-74
1.16400	-74
1.16767	-74
1.17133	-73
1.17500	-72
1.17867	-69
1.18233	-69
1.18600	-71
1.18967	-75
1.19333	-77
1.19700	-76
1.20067	-71
1.20433	-65
1.20800	-61
1.21167	-62
1.21533	-63
1.21900	-61
1.22267	-57
1.22633	-55
1.23000	-55
1.23367	-58
1.23733	-64
1.24100	-68
1.24467	-72
1.24833	-75
1.25200	-74
1.25567	-74
1.25933	-76
1.26300	-78
1.26667	-77
1.27033	-76
1.27400	-76
1.27767	-75
1.28133	-75
1.28500	-78
1.28867	-83
1.29233	-86
1.29600	-88
1.29967	-91
1.30333	-92
1.30700	-86
1.31067	-78
1.31433	-70
1.31800	-67
1.32167	-66
1.32533	-69
1.32900	-72
1.33267	-72
1.33633	-71
1.34000	-73
1.34367	-76
1.34733	-82
1.35100	-89
1.35467	-96
1.35833	-101
1.36200	-103
1.36567	-101
1.36933	-96
1.37300	-92
1.37667	-88
1.38033	-85
1.38400	-80
1.38767	-73
1.39133	-70
1.39500	-70
1.39867	-72
1.40233	-72
1.40600	-74
1.40967	-76
1.41333	-79
1.41700	-81
1.42067	-79
1.42433	-75
1.42800	-71
1.43167	-68
1.43533	-62
1.43900	-25
1.44267	97
1.44633	324
1.45000	681
1.45367	1235
1.45733	1964
1.46100	2735
1.46467	3419
1.46833	3947
1.47200	4287
1.47567	4406
1.47933	4271
1.48300	3886
1.48667	3322
1.49033	2687
1.49400	2083
1.49767	1567
1.50133	1155
1.50500	841
1.50867	609
1.51233	440
1.51600	320
1.51967	232
1.52333	166
1.52700	116
1.53067	79
1.53433	56
1.53800	65
1.54167	156
1.54533	388
1.54900	761
1.55267	1199
1.55633	1611
1.56000	1940
1.56367	2161
1.56733	2245
1.57100	2165
1.57467	1924
1.57833	1574
1.58200	1196
1.58567	854
1.58933	577
1.59300	372
1.59667	228
1.60033	131
1.60400	67
1.60767	23
1.61133	-6
1.61500	-23
1.61867	-32
1.62233	-42
1.62600	-52
1.62967	-62
1.63333	-73
1.63700	-80
1.64067	-83
1.64433	-86
1.64800	-91
1.65167	-98
1.65533	-101
1.65900	-98
1.66267	-92
1.66633	-84
1.67000	-76
1.67367	-70
1.67733	-70
1.68100	-75
1.68467	-83
1.68833	-93
1.69200	-102
1.69567	-111
1.69933	-116
1.70300	-115
1.70667	-111
1.71033	-106
1.71400	-100
1.71767	-95
1.72133	-92
1.72500	-89
1.72867	-88
1.73233	-90
1.73600	-91
1.73967	-92
1.74333	-94
1.74700	-97
1.75067	-99
1.75433	-97
1.75800	-90
1.76167	-82
1.76533	-76
1.76900	-73
1.77267	-70
1.77633	-67
1.78000	-65
1.78367	-66
1.78733	-69
1.79100	-72
1.79467	-75
1.79833	-80
1.80200	-85
1.80567	-87
1.80933	-88
1.81300	-92
1.81667	-94
1.82033	-92
1.82400	-89
1.82767	-86
1.83133	-85
1.83500	-87
1.83867	-89
1.84233	-91
1.84600	-91
1.84967	-92
1.85333	-91
1.85700	-91
1.86067	-86
1.86433	-77
1.86800	-66
1.87167	-65
1.87533	-72
1.87900	-77
1.88267	-81
1.88633	-85
1.89000	-88
1.89367	-90
1.89733	-94
1.90100	-95
1.90467	-95
1.90833	-97
1.91200	-100
1.91567	-101
1.91933	-100
1.92300	-100
1.92667	-101
1.93033	-101
1.93400	-101
1.93767	-101
1.94133	-101
1.94500	-97
1.94867	-84
1.95233	-40
1.95600	176
1.95967	1232
1.96333	5366
1.96700	17736
1.97067	46446
1.97433	98783
1.97800	174887
1.98167	265292
1.98533	355164
1.98900	429759
1.99267	477820
1.99633	492583
2.00000	472744
2.00367	423590
2.00733	355969
2.01100	282659
2.01467	214263
2.01833	156884
2.02200	112287
2.02567	79446
2.02933	56136
2.03300	39975
2.03667	28917
2.04033	21386
2.04400	16242
2.04767	12697
2.05133	10215
2.05500	8445
2.05867	7154
2.06233	6190
2.06600	5452
2.06967	4871
2.07333	4406
2.07700	4024
2.08067	3703
2.08433	3432
2.08800	3196
2.09167	2988
2.09533	2802
2.09900	2633
2.10267	2481
2.10633	2343
2.11000	2220
2.11367	2109
2.11733	2012
2.12100	1924
2.12467	1846
2.12833	1779
2.13200	1721
2.13567	1666
2.13933	1609
2.14300	1551
2.14667	1489
2.15033	1427
2.15400	1370
2.15767	1319
2.16133	1275
2.16500	1237
2.16867	1200
2.17233	1164
2.17600	1129
2.17967	1095
2.18333	1065
2.18700	1043
2.19067	1022
2.19433	999
2.19800	973
2.20167	947
2.20533	923
2.20900	904
2.21267	891
2.21633	877
2.22000	860
2.22367	837
2.22733	811
2.23100	787
2.23467	766
2.23833	747
2.24200	730
2.24567	714
2.24933	701
2.25300	690
2.25667	685
2.26033	676
2.26400	663
2.26767	647
2.27133	632
2.27500	615
2.27867	602
2.28233	595
2.28600	592
2.28967	588
2.29333	577
2.29700	560
2.30067	543
2.30433	529
2.30800	521
2.31167	513
2.31533	502
2.31900	489
2.32267	476
2.32633	468
2.33000	465
2.33367	461
2.33733	453
2.34100	447
2.34467	442
2.34833	440
2.35200	441
2.35567	440
2.35933	435
2.36300	428
2.36667	421
2.37033	416
2.37400	412
2.37767	404
2.38133	394
2.38500	383
2.38867	377
2.39233	374
2.39600	374
2.39967	372
2.40333	369
2.40700	366
2.41067	362
2.41433	355
2.41800	347
2.42167	338
2.42533	333
2.42900	330
2.43267	329
2.43633	326
2.44000	324
2.44367	322
2.44733	320
2.45100	317
2.45467	314
2.45833	312
2.46200	310
2.46567	305
2.46933	300
2.47300	294
2.47667	288
2.48033	281
2.48400	276
2.48767	274
2.49133	272
2.49500	269
2.49867	268
2.50233	266
2.50600	263
2.50967	262
2.51333	260
2.51700	258
2.52067	261
2.52433	267
2.52800	270
2.53167	268
2.53533	263
2.53900	259
2.54267	256
2.54633	251
2.55000	245
2.55367	238
2.55733	230
2.56100	220
2.56467	210
2.56833	202
2.57200	197
2.57567	193
2.57933	188
2.58300	184
2.58667	181
2.59033	181
2.59400	186
2.59767	192
2.60133	195
2.60500	195
2.60867	194
2.61233	190
2.61600	184
2.61967	180
2.62333	177
2.62700	177
2.63067	179
2.63433	178
2.63800	175
2.64167	169
2.64533	162
2.64900	154
2.65267	148
2.65633	146
2.66000	145
2.66367	143
2.66733	142
2.67100	143
2.67467	143
2.67833	142
2.68200	141
2.68567	140
2.68933	139
2.69300	136
2.69667	136
2.70033	137
2.70400	136
2.70767	136
2.71133	136
2.71500	136
2.71867	134
2.72233	128
2.72600	120
2.72967	114
2.73333	107
2.73700	105
2.74067	105
2.74433	106
2.74800	105
2.75167	106
2.75533	105
2.75900	101
2.76267	93
2.76633	84
2.77000	79
2.77367	79
2.77733	83
2.78100	85
2.78467	85
2.78833	83
2.79200	78
2.79567	72
2.79933	67
2.80300	64
2.80667	61
2.81033	59
2.81400	61
2.81767	70
2.82133	82
2.82500	92
2.82867	96
2.83233	99
2.83600	103
2.83967	106
2.84333	106
2.84700	102
2.85067	94
2.85433	81
2.85800	68
2.86167	59
2.86533	50
2.86900	45
2.87267	42
2.87633	39
2.88000	37
2.88367	37
2.88733	39
2.89100	43
2.89467	49
2.89833	57
2.90200	63
2.90567	66
2.90933	67
2.91300	68
2.91667	68
2.92033	68
2.92400	66
2.92767	61
2.93133	57
2.93500	53
2.93867	53
2.94233	56
2.94600	57
2.94967	53
2.95333	46
2.95700	39
2.96067	34
2.96433	30
2.96800	28
2.97167	29
2.97533	33
2.97900	38
2.98267	43
2.98633	45
2.99000	44
2.99367	44
2.99733	44
3.00100	42
3.00467	39
3.00833	34
3.01200	28
3.01567	25
3.01933	24
3.02300	24
3.02667	23
3.03033	25
3.03400	28
3.03767	30
3.04133	34
3.04500	41
3.04867	45
3.05233	46
3.05600	45
3.05967	41
3.06333	38
3.06700	39
3.07067	37
3.07433	33
3.07800	25
3.08167	17
3.08533	13
3.08900	12
3.09267	13
3.09633	12
3.10000	7
3.10367	0
3.10733	-5
3.11100	-5
3.11467	-3
3.11833	-2
3.12200	-5
3.12567	-7
3.12933	-7
3.13300	-5
3.13667	0
3.14033	9
3.14400	17
3.14767	23
3.15133	27
3.15500	24
3.15867	17
3.16233	8
3.16600	4
3.16967	6
3.17333	10
3.17700	14
3.18067	12
3.18433	5
3.18800	-2
3.19167	-8
3.19533	-12
3.19900	-10
3.20267	-7
3.20633	-3
3.21000	-3
3.21367	-9
3.21733	-16
3.22100	-16
3.22467	-12
3.22833	-7
3.23200	-0
3.23567	2
3.23933	1
3.24300	0
3.24667	1
3.25033	-1
3.25400	-7
3.25767	-14
3.26133	-17
3.26500	-15
3.26867	-11
3.27233	-10
3.27600	-8
3.27967	-4
3.28333	-3
3.28700	-5
3.29067	-10
3.29433	-16
3.29800	-20
3.30167	-20
3.30533	-22
3.30900	-23
3.31267	-24
3.31633	-22
3.32000	-20
3.32367	-18
3.32733	-14
3.33100	-7
3.33467	-1
3.33833	1
3.34200	-3
3.34567	-8
3.34933	-14
3.35300	-18
3.35667	-19
3.36033	-17
3.36400	-12
3.36767	-5
3.37133	-0
3.37500	-0
3.37867	-4
3.38233	-12
3.38600	-20
3.38967	-26
3.39333	-28
3.39700	-23
3.40067	-17
3.40433	-14
3.40800	-16
3.41167	-19
3.41533	-20
3.41900	-18
3.42267	-16
3.42633	-17
3.43000	-21
3.43367	-26
3.43733	-29
3.44100	-27
3.44467	-22
3.44833	-18
3.45200	-15
3.45567	-13
3.45933	-14
3.46300	-17
3.46667	-19
3.47033	-18
3.47400	-12
3.47767	-7
3.48133	-7
3.48500	-10
3.48867	-14
3.49233	-18
3.49600	-20
3.49967	-22
3.50333	-21
3.50700	-21
3.51067	-19
3.51433	-17
3.51800	-16
3.52167	-17
3.52533	-21
3.52900	-27
3.53267	-30
3.53633	-30
3.54000	-28
3.54367	-25
3.54733	-21
3.55100	-20
3.55467	-17
3.55833	-9
3.56200	-7
3.56567	-13
3.56933	-21
3.57300	-26
3.57667	-27
3.58033	-25
3.58400	-24
3.58767	-29
3.59133	-34
3.59500	-38
3.59867	-42
3.60233	-48
3.60600	-51
3.60967	-50
3.61333	-47
3.61700	-43
3.62067	-38
3.62433	-34
3.62800	-31
3.63167	-28
3.63533	-23
3.63900	-21
3.64267	-25
3.64633	-34
3.65000	-44
3.65367	-47
3.65733	-42
3.66100	-35
3.66467	-31
3.66833	-31
3.67200	-35
3.67567	-41
3.67933	-46
3.68300	-47
3.68667	-46
3.69033	-41
3.69400	-34
3.69767	-30
3.70133	-29
3.70500	-30
3.70867	-30
3.71233	-30
3.71600	-32
3.71967	-37
3.72333	-43
3.72700	-50
3.73067	-51
3.73433	-46
3.73800	-41
3.74167	-38
3.74533	-39
3.74900	-41
3.75267	-46
3.75633	-48
3.76000	-43
3.76367	-36
3.76733	-30
3.77100	-28
3.77467	-25
3.77833	-21
3.78200	-16
3.78567	-15
3.78933	-17
3.79300	-22
3.79667	-27
3.80033	-30
3.80400	-31
3.80767	-30
3.81133	-31
3.81500	-35
3.81867	-38
3.82233	-39
3.82600	-37
3.82967	-36
3.83333	-39
3.83700	-45
3.84067	-49
3.84433	-50
3.84800	-48
3.85167	-46
3.85533	-41
3.85900	-36
3.86267	-32
3.86633	-28
3.87000	-26
3.87367	-25
3.87733	-28
3.88100	-33
3.88467	-36
3.88833	-37
3.89200	-36
3.89567	-34
3.89933	-33
3.90300	-33
3.90667	-35
3.91033	-38
3.91400	-40
3.91767	-40
3.92133	-38
3.92500	-39
3.92867	-42
3.93233	-43
3.93600	-41
3.93967	-39
3.94333	-39
3.94700	-42
3.95067	-45
3.95433	-52
3.95800	-57
3.96167	-60
3.96533	-60
3.96900	-57
3.97267	-54
3.97633	-49
3.98000	-42
3.98367	-39
3.98733	-38
3.99100	-39
3.99467	-40
3.99833	-41

[Chromatogram (Ch2)]
Interval(msec)	220
# of Points	1091
Start Time(min)	0.002
End Time(min)	3.998
R.Time (min)	Intensity
0.00167	-0
0.00533	-1
0.00900	-1
0.01267	-0
0.01633	-0
0.02000	-0
0.02367	-1
0.02733	-1
0.03100	-1
0.03467	-1
0.03833	-1
0.04200	-1
0.04567	-1
0.04933	-1
0.05300	-0
0.05667	-0
0.06033	-0
0.06400	-0
0.06767	-0
0.07133	-0
0.07500	-0
0.07867	-0
0.08233	-1
0.08600	-1
0.08967	-1
0.09333	-1
0.09700	-1
0.10067	-1
0.10433	-1
0.10800	-0
0.11167	0
0.11533	0
0.11900	0
0.12267	0
0.12633	0
0.13000	1
0.13367	1
0.13733	1
0.14100	2
0.14467	2
0.14833	2
0.15200	2
0.15567	2
0.15933	3
0.16300	2
0.16667	2
0.17033	2
0.17400	2
0.17767	2
0.18133	2
0.18500	2
0.18867	1
0.19233	1
0.19600	1
0.19967	1
0.20333	1
0.20700	1
0.21067	1
0.21433	1
0.21800	2
0.22167	2
0.22533	2
0.22900	2
0.23267	1
0.23633	1
0.24000	1
0.24367	1
0.24733	1
0.25100	1
0.25467	1
0.25833	1
0.26200	1
0.26567	1
0.26933	1
0.27300	1
0.27667	1
0.28033	1
0.28400	1
0.28767	1
0.29133	1
0.29500	0
0.29867	0
0.30233	-0
0.30600	-0
0.30967	-1
0.31333	-1
0.31700	-1
0.32067	-1
0.32433	-1
0.32800	-1
0.33167	-1
0.33533	-1
0.33900	-1
0.34267	-1
0.34633	-1
0.35000	-1
0.35367	-1
0.35733	-1
0.36100	-0
0.36467	-0
0.36833	0
0.37200	0
0.37567	-0
0.37933	-0
0.38300	-0
0.38667	-1
0.39033	-1
0.39400	-1
0.39767	-1
0.40133	-1
0.40500	-1
0.40867	-1
0.41233	-1
0.41600	-1
0.41967	-0
0.42333	-0
0.42700	-0
0.43067	0
0.43433	0
0.43800	0
0.44167	0
0.44533	0
0.44900	0
0.45267	0
0.45633	-0
0.46000	-0
0.46367	-0
0.46733	-0
0.47100	-0
0.47467	0
0.47833	0
0.48200	0
0.48567	1
0.48933	1
0.49300	0
0.49667	0
0.50033	-0
0.50400	-0
0.50767	-0
0.51133	-0
0.51500	-0
0.51867	0
0.52233	0
0.52600	0
0.52967	0
0.53333	0
0.53700	-0
0.54067	-0
0.54433	-1
0.54800	-1
0.55167	-1
0.55533	-1
0.55900	-1
0.56267	-1
0.56633	-0
0.57000	-0
0.57367	-0
0.57733	-0
0.58100	-0
0.58467	-0
0.58833	-0
0.59200	-0
0.59567	-0
0.59933	-0
0.60300	-0
0.60667	-0
0.61033	-1
0.61400	-1
0.61767	-1
0.62133	-1
0.62500	-1
0.62867	-1
0.63233	-1
0.63600	-1
0.63967	-1
0.64333	-2
0.64700	-1
0.65067	-1
0.65433	-1
0.65800	-2
0.66167	-2
0.66533	-2
0.66900	-2
0.67267	-2
0.67633	-2
0.68000	-2
0.68367	-2
0.68733	-1
0.69100	-1
0.69467	-1
0.69833	-1
0.70200	-1
0.70567	-2
0.70933	-2
0.71300	-2
0.71667	-3
0.72033	-3
0.72400	-3
0.72767	-3
0.73133	-3
0.73500	-3
0.73867	-3
0.74233	-3
0.74600	-3
0.74967	-2
0.75333	-2
0.75700	-2
0.76067	-2
0.76433	-2
0.76800	-2
0.77167	-2
0.77533	-2
0.77900	-2
0.78267	-2
0.78633	-2
0.79000	-2
0.79367	-2
0.79733	-2
0.80100	-2
0.80467	-2
0.80833	-2
0.81200	-2
0.81567	-2
0.81933	-2
0.82300	-2
0.82667	-3
0.83033	-2
0.83400	-2
0.83767	-2
0.84133	-2
0.84500	-2
0.84867	-2
0.85233	-2
0.85600	-2
0.85967	-2
0.86333	-2
0.86700	-2
0.87067	-1
0.87433	-1
0.87800	-2
0.88167	-2
0.88533	-2
0.88900	-2
0.89267	-2
0.89633	-2
0.90000	-2
0.90367	-2
0.90733	-2
0.91100	-2
0.91467	-2
0.91833	-2
0.92200	-2
0.92567	-2
0.92933	-2
0.93300	-2
0.93667	-2
0.94033	-1
0.94400	-1
0.94767	-1
0.95133	-1
0.95500	-1
0.95867	-1
0.96233	-1
0.96600	-1
0.96967	-1
0.97333	-2
0.97700	-1
0.98067	-2
0.98433	-2
0.98800	-2
0.99167	-3
0.99533	-3
0.99900	-3
1.00267	-3
1.00633	-3
1.01000	-3
1.01367	-3
1.01733	-3
1.02100	-3
1.02467	-3
1.02833	-3
1.03200	-3
1.03567	-2
1.03933	-2
1.04300	-2
1.04667	-2
1.05033	-2
1.05400	-2
1.05767	-2
1.06133	-2
1.06500	-2
1.06867	-2
1.07233	-2
1.07600	-2
1.07967	-2
1.08333	-2
1.08700	-2
1.09067	-2
1.09433	-2
1.09800	-2
1.10167	-2
1.10533	-2
1.10900	-2
1.11267	-2
1.11633	-2
1.12000	-2
1.12367	-2
1.12733	-2
1.13100	-2
1.13467	-2
1.13833	-2
1.14200	-2
1.14567	-2
1.14933	-2
1.15300	-2
1.15667	-2
1.16033	-2
1.16400	-2
1.16767	-2
1.17133	-2
1.17500	-2
1.17867	-2
1.18233	-2
1.18600	-2
1.18967	-2
1.19333	-2
1.19700	-2
1.20067	-2
1.20433	-2
1.20800	-2
1.21167	-2
1.21533	-2
1.21900	-2
1.22267	-2
1.22633	-1
1.23000	-1
1.23367	-1
1.23733	-1
1.24100	-1
1.24467	-1
1.24833	-1
1.25200	-2
1.25567	-2
1.25933	-2
1.26300	-2
1.26667	-3
1.27033	-3
1.27400	-3
1.27767	-3
1.28133	-3
1.28500	-3
1.28867	-3
1.29233	-3
1.29600	-3
1.29967	-3
1.30333	-4
1.30700	-4
1.31067	-4
1.31433	-4
1.31800	-4
1.32167	-4
1.32533	-4
1.32900	-3
1.33267	-3
1.33633	-3
1.34000	-3
1.34367	-2
1.34733	-2
1.35100	-2
1.35467	-2
1.35833	-2
1.36200	-1
1.36567	-1
1.36933	-1
1.37300	-1
1.37667	-1
1.38033	-1
1.38400	-1
1.38767	-1
1.39133	-1
1.39500	-1
1.39867	-1
1.40233	-1
1.40600	-2
1.40967	-2
1.41333	-2
1.41700	-2
1.42067	-2
1.42433	-3
1.42800	-3
1.43167	-3
1.43533	-3
1.43900	-3
1.44267	-3
1.44633	-3
1.45000	-3
1.45367	-3
1.45733	-3
1.46100	-3
1.46467	-3
1.46833	-2
1.47200	-2
1.47567	-2
1.47933	-2
1.48300	-3
1.48667	-3
1.49033	-3
1.49400	-3
1.49767	-3
1.50133	-2
1.50500	-2
1.50867	-2
1.51233	-2
1.51600	-2
1.51967	-2
1.52333	-2
1.52700	-1
1.53067	-1
1.53433	-1
1.53800	-2
1.54167	-2
1.54533	-2
1.54900	-2
1.55267	-2
1.55633	-2
1.56000	-2
1.56367	-3
1.56733	-3
1.57100	-3
1.57467	-3
1.57833	-3
1.58200	-3
1.58567	-3
1.58933	-4
1.59300	-4
1.59667	-5
1.60033	-5
1.60400	-6
1.60767	-7
1.61133	-9
1.61500	-11
1.61867	-13
1.62233	-15
1.62600	-18
1.62967	-21
1.63333	-24
1.63700	-28
1.64067	-31
1.64433	-35
1.64800	-39
1.65167	-43
1.65533	-46
1.65900	-50
1.66267	-54
1.66633	-58
1.67000	-63
1.67367	-67
1.67733	-72
1.68100	-77
1.68467	-82
1.68833	-86
1.69200	-90
1.69567	-94
1.69933	-97
1.70300	-100
1.70667	-102
1.71033	-104
1.71400	-106
1.71767	-107
1.72133	-108
1.72500	-109
1.72867	-110
1.73233	-111
1.73600	-112
1.73967	-112
1.74333	-113
1.74700	-113
1.75067	-114
1.75433	-114
1.75800	-114
1.76167	-114
1.76533	-115
1.76900	-115
1.77267	-116
1.77633	-116
1.78000	-117
1.78367	-118
1.78733	-118
1.79100	-119
1.79467	-119
1.79833	-120
1.80200	-120
1.80567	-120
1.80933	-120
1.81300	-120
1.81667	-120
1.82033	-120
1.82400	-120
1.82767	-120
1.83133	-120
1.83500	-120
1.83867	-120
1.84233	-121
1.84600	-121
1.84967	-121
1.85333	-121
1.85700	-122
1.86067	-122
1.86433	-122
1.86800	-122
1.87167	-123
1.87533	-122
1.87900	-122
1.88267	-121
1.88633	-121
1.89000	-120
1.89367	-120
1.89733	-119
1.90100	-119
1.90467	-119
1.90833	-120
1.91200	-120
1.91567	-120
1.91933	-121
1.92300	-121
1.92667	-120
1.93033	-120
1.93400	-119
1.93767	-119
1.94133	-118
1.94500	-118
1.94867	-118
1.95233	-117
1.95600	-117
1.95967	-117
1.96333	-116
1.96700	-116
1.97067	-115
1.97433	-115
1.97800	-116
1.98167	-116
1.98533	-115
1.98900	-115
1.99267	-114
1.99633	-114
2.00000	-113
2.00367	-112
2.00733	-111
2.01100	-111
2.01467	-110
2.01833	-110
2.02200	-110
2.02567	-111
2.02933	-111
2.03300	-112
2.03667	-112
2.04033	-112
2.04400	-112
2.04767	-112
2.05133	-112
2.05500	-112
2.05867	-112
2.06233	-112
2.06600	-111
2.06967	-111
2.07333	-111
2.07700	-110
2.08067	-109
2.08433	-109
2.08800	-108
2.09167	-107
2.09533	-107
2.09900	-106
2.10267	-106
2.10633	-105
2.11000	-105
2.11367	-105
2.11733	-105
2.12100	-105
2.12467	-105
2.12833	-105
2.13200	-105
2.13567	-105
2.13933	-104
2.14300	-103
2.14667	-102
2.15033	-101
2.15400	-101
2.15767	-100
2.16133	-100
2.16500	-99
2.16867	-99
2.17233	-99
2.17600	-98
2.17967	-98
2.18333	-98
2.18700	-98
2.19067	-97
2.19433	-96
2.19800	-96
2.20167	-95
2.20533	-95
2.20900	-94
2.21267	-94
2.21633	-94
2.22000	-94
2.22367	-94
2.22733	-93
2.23100	-93
2.23467	-92
2.23833	-92
2.24200	-92
2.24567	-92
2.24933	-93
2.25300	-94
2.25667	-95
2.26033	-95
2.26400	-94
2.26767	-94
2.27133	-93
2.27500	-93
2.27867	-92
2.28233	-91
2.28600	-90
2.28967	-90
2.29333	-89
2.29700	-89
2.30067	-89
2.30433	-89
2.30800	-89
2.31167	-89
2.31533	-88
2.31900	-87
2.32267	-87
2.32633	-86
2.33000	-86
2.33367	-86
2.33733	-86
2.34100	-87
2.34467	-86
2.34833	-86
2.35200	-85
2.35567	-83
2.35933	-82
2.36300	-80
2.36667	-79
2.37033	-77
2.37400	-75
2.37767	-72
2.38133	-69
2.38500	-66
2.38867	-62
2.39233	-58
2.39600	-54
2.39967	-51
2.40333	-46
2.40700	-42
2.41067	-38
2.41433	-34
2.41800	-30
2.42167	-26
2.42533	-23
2.42900	-20
2.43267	-18
2.43633	-16
2.44000	-14
2.44367	-12
2.44733	-10
2.45100	-8
2.45467	-6
2.45833	-5
2.46200	-3
2.46567	-2
2.46933	-1
2.47300	0
2.47667	2
2.48033	3
2.48400	4
2.48767	5
2.49133	6
2.49500	6
2.49867	7
2.50233	7
2.50600	8
2.50967	8
2.51333	9
2.51700	9
2.52067	10
2.52433	11
2.52800	11
2.53167	12
2.53533	12
2.53900	13
2.54267	13
2.54633	14
2.55000	14
2.55367	15
2.55733	15
2.56100	15
2.56467	15
2.56833	15
2.57200	14
2.57567	14
2.57933	14
2.58300	14
2.58667	14
2.59033	14
2.59400	14
2.59767	15
2.60133	15
2.60500	16
2.60867	16
2.61233	17
2.61600	17
2.61967	17
2.62333	18
2.62700	18
2.63067	19
2.63433	19
2.63800	19
2.64167	19
2.64533	19
2.64900	19
2.65267	19
2.65633	19
2.66000	19
2.66367	19
2.66733	20
2.67100	20
2.67467	21
2.67833	21
2.68200	22
2.68567	22
2.68933	22
2.69300	22
2.69667	22
2.70033	22
2.70400	22
2.70767	22
2.71133	21
2.71500	21
2.71867	22
2.72233	22
2.72600	22
2.72967	22
2.73333	22
2.73700	23
2.74067	24
2.74433	24
2.74800	25
2.75167	26
2.75533	26
2.75900	27
2.76267	28
2.76633	28
2.77000	28
2.77367	28
2.77733	27
2.78100	27
2.78467	27
2.78833	27
2.79200	27
2.79567	26
2.79933	26
2.80300	26
2.80667	26
2.81033	26
2.81400	26
2.81767	26
2.82133	26
2.82500	26
2.82867	26
2.83233	27
2.83600	27
2.83967	27
2.84333	27
2.84700	26
2.85067	25
2.85433	23
2.85800	20
2.86167	14
2.86533	6
2.86900	-6
2.87267	-21
2.87633	-40
2.88000	-62
2.88367	-89
2.88733	-119
2.89100	-154
2.89467	-191
2.89833	-232
2.90200	-276
2.90567	-322
2.90933	-370
2.91300	-419
2.91667	-470
2.92033	-521
2.92400	-573
2.92767	-624
2.93133	-675
2.93500	-726
2.93867	-775
2.94233	-825
2.94600	-877
2.94967	-933
2.95333	-994
2.95700	-1052
2.96067	-1096
2.96433	-1116
2.96800	-1109
2.97167	-1078
2.97533	-1025
2.97900	-958
2.98267	-882
2.98633	-801
2.99000	-720
2.99367	-641
2.99733	-566
3.00100	-496
3.00467	-432
3.00833	-375
3.01200	-323
3.01567	-278
3.01933	-238
3.02300	-203
3.02667	-172
3.03033	-146
3.03400	-123
3.03767	-103
3.04133	-87
3.04500	-72
3.04867	-59
3.05233	-49
3.05600	-39
3.05967	-31
3.06333	-25
3.06700	-19
3.07067	-14
3.07433	-10
3.07800	-6
3.08167	-3
3.08533	-0
3.08900	2
3.09267	4
3.09633	6
3.10000	7
3.10367	8
3.10733	9
3.11100	10
3.11467	11
3.11833	11
3.12200	12
3.12567	12
3.12933	13
3.13300	13
3.13667	14
3.14033	14
3.14400	15
3.14767	15
3.15133	16
3.15500	16
3.15867	17
3.16233	17
3.16600	17
3.16967	17
3.17333	18
3.17700	18
3.18067	18
3.18433	18
3.18800	18
3.19167	19
3.19533	19
3.19900	19
3.20267	19
3.20633	20
3.21000	20
3.21367	20
3.21733	20
3.22100	20
3.22467	21
3.22833	21
3.23200	21
3.23567	22
3.23933	22
3.24300	22
3.24667	22
3.25033	23
3.25400	23
3.25767	23
3.26133	23
3.26500	23
3.26867	23
3.27233	24
3.27600	24
3.27967	24
3.28333	24
3.28700	24
3.29067	24
3.29433	24
3.29800	24
3.30167	24
3.30533	24
3.30900	24
3.31267	24
3.31633	25
3.32000	25
3.32367	25
3.32733	25
3.33100	25
3.33467	25
3.33833	25
3.34200	25
3.34567	25
3.34933	25
3.35300	25
3.35667	25
3.36033	25
3.36400	25
3.36767	26
3.37133	26
3.37500	26
3.37867	26
3.38233	26
3.38600	27
3.38967	27
3.39333	27
3.39700	27
3.40067	27
3.40433	27
3.40800	27
3.41167	27
3.41533	27
3.41900	27
3.42267	27
3.42633	27
3.43000	27
3.43367	27
3.43733	27
3.44100	27
3.44467	28
3.44833	27
3.45200	27
3.45567	28
3.45933	28
3.46300	28
3.46667	28
3.47033	28
3.47400	28
3.47767	28
3.48133	28
3.48500	28
3.48867	27
3.49233	27
3.49600	27
3.49967	27
3.50333	27
3.50700	27
3.51067	27
3.51433	27
3.51800	27
3.52167	27
3.52533	27
3.52900	27
3.53267	27
3.53633	27
3.54000	27
3.54367	27
3.54733	27
3.55100	27
3.55467	28
3.55833	28
3.56200	27
3.56567	27
3.56933	27
3.57300	27
3.57667	27
3.58033	27
3.58400	27
3.58767	27
3.59133	27
3.59500	27
3.59867	27
3.60233	27
3.60600	27
3.60967	27
3.61333	27
3.61700	27
3.62067	27
3.62433	27
3.62800	27
3.63167	27
3.63533	26
3.63900	26
3.64267	27
3.64633	27
3.65000	27
3.65367	27
3.65733	27
3.66100	27
3.66467	27
3.66833	27
3.67200	27
3.67567	27
3.67933	27
3.68300	27
3.68667	27
3.69033	27
3.69400	27
3.69767	27
3.70133	27
3.70500	27
3.70867	27
3.71233	27
3.71600	27
3.71967	27
3.72333	27
3.72700	27
3.73067	27
3.73433	27
3.73800	27
3.74167	27
3.74533	27
3.74900	26
3.75267	26
3.75633	27
3.76000	27
3.76367	27
3.76733	27
3.77100	27
3.77467	27
3.77833	27
3.78200	26
3.78567	26
3.78933	26
3.79300	26
3.79667	27
3.80033	27
3.80400	27
3.80767	27
3.81133	27
3.81500	27
3.81867	27
3.82233	28
3.82600	27
3.82967	27
3.83333	27
3.83700	27
3.84067	27
3.84433	27
3.84800	27
3.85167	27
3.85533	27
3.85900	27
3.86267	27
3.86633	27
3.87000	27
3.87367	27
3.87733	27
3.88100	27
3.88467	26
3.88833	26
3.89200	26
3.89567	26
3.89933	26
3.90300	26
3.90667	26
3.91033	26
3.91400	26
3.91767	27
3.92133	27
3.92500	27
3.92867	27
3.93233	27
3.93600	27
3.93967	27
3.94333	27
3.94700	27
3.95067	27
3.95433	27
3.95800	27
3.96167	27
3.96533	27
3.96900	27
3.97267	27
3.97633	27
3.98000	27
3.98367	27
3.98733	27
3.99100	28
3.99467	28
3.99833	28

[Chromatogram (Ch3)]
Interval(msec)	220
# of Points	1091
Start Time(min)	0.002
End Time(min)	3.998
R.Time (min)	Intensity
0.00167	-1
0.00533	-3
0.00900	-5
0.01267	-4
0.01633	-3
0.02000	-6
0.02367	-6
0.02733	-6
0.03100	-7
0.03467	-6
0.03833	-6
0.04200	-5
0.04567	-3
0.04933	-3
0.05300	-4
0.05667	-4
0.06033	-4
0.06400	-5
0.06767	-6
0.07133	-7
0.07500	-6
0.07867	-4
0.08233	-4
0.08600	-2
0.08967	-1
0.09333	-2
0.09700	-4
0.10067	-5
0.10433	-5
0.10800	-4
0.11167	-3
0.11533	-3
0.11900	-2
0.12267	-3
0.12633	-5
0.13000	-6
0.13367	-4
0.13733	-2
0.14100	-1
0.14467	-1
0.14833	-2
0.15200	-2
0.15567	1
0.15933	3
0.16300	5
0.16667	6
0.17033	6
0.17400	3
0.17767	1
0.18133	-1
0.18500	-3
0.18867	-2
0.19233	1
0.19600	3
0.19967	3
0.20333	4
0.20700	4
0.21067	4
0.21433	4
0.21800	4
0.22167	3
0.22533	2
0.22900	2
0.23267	3
0.23633	3
0.24000	5
0.24367	6
0.24733	3
0.25100	-1
0.25467	-2
0.25833	-1
0.26200	-0
0.26567	0
0.26933	-1
0.27300	-1
0.27667	2
0.28033	5
0.28400	7
0.28767	6
0.29133	4
0.29500	2
0.29867	-1
0.30233	-3
0.30600	-1
0.30967	2
0.31333	3
0.31700	2
0.32067	2
0.32433	3
0.32800	3
0.33167	3
0.33533	2
0.33900	4
0.34267	5
0.34633	5
0.35000	5
0.35367	7
0.35733	9
0.36100	11
0.36467	12
0.36833	14
0.37200	14
0.37567	13
0.37933	14
0.38300	14
0.38667	13
0.39033	11
0.39400	9
0.39767	8
0.40133	4
0.40500	4
0.40867	3
0.41233	3
0.41600	4
0.41967	5
0.42333	5
0.42700	5
0.43067	6
0.43433	6
0.43800	6
0.44167	7
0.44533	7
0.44900	6
0.45267	5
0.45633	7
0.46000	8
0.46367	10
0.46733	12
0.47100	15
0.47467	15
0.47833	14
0.48200	15
0.48567	17
0.48933	18
0.49300	17
0.49667	17
0.50033	17
0.50400	15
0.50767	13
0.51133	11
0.51500	8
0.51867	10
0.52233	11
0.52600	11
0.52967	12
0.53333	13
0.53700	12
0.54067	11
0.54433	12
0.54800	13
0.55167	15
0.55533	15
0.55900	13
0.56267	11
0.56633	11
0.57000	12
0.57367	14
0.57733	15
0.58100	16
0.58467	15
0.58833	13
0.59200	13
0.59567	13
0.59933	12
0.60300	12
0.60667	13
0.61033	13
0.61400	12
0.61767	11
0.62133	12
0.62500	13
0.62867	13
0.63233	13
0.63600	14
0.63967	18
0.64333	22
0.64700	22
0.65067	19
0.65433	17
0.65800	17
0.66167	16
0.66533	17
0.66900	17
0.67267	15
0.67633	14
0.68000	15
0.68367	17
0.68733	17
0.69100	19
0.69467	21
0.69833	21
0.70200	20
0.70567	19
0.70933	19
0.71300	19
0.71667	18
0.72033	18
0.72400	17
0.72767	17
0.73133	17
0.73500	16
0.73867	16
0.74233	18
0.74600	21
0.74967	22
0.75333	23
0.75700	21
0.76067	20
0.76433	21
0.76800	21
0.77167	21
0.77533	20
0.77900	20
0.78267	23
0.78633	26
0.79000	26
0.79367	26
0.79733	26
0.80100	26
0.80467	24
0.80833	24
0.81200	23
0.81567	19
0.81933	17
0.82300	19
0.82667	19
0.83033	19
0.83400	22
0.83767	26
0.84133	27
0.84500	29
0.84867	29
0.85233	28
0.85600	27
0.85967	24
0.86333	22
0.86700	22
0.87067	24
0.87433	26
0.87800	26
0.88167	26
0.88533	24
0.88900	20
0.89267	20
0.89633	20
0.90000	22
0.90367	22
0.90733	21
0.91100	21
0.91467	24
0.91833	24
0.92200	22
0.92567	22
0.92933	25
0.93300	27
0.93667	27
0.94033	27
0.94400	25
0.94767	23
0.95133	23
0.95500	24
0.95867	22
0.96233	20
0.96600	19
0.96967	20
0.97333	20
0.97700	22
0.98067	23
0.98433	24
0.98800	24
0.99167	26
0.99533	28
0.99900	30
1.00267	30
1.00633	28
1.01000	27
1.01367	27
1.01733	27
1.02100	25
1.02467	23
1.02833	21
1.03200	21
1.03567	22
1.03933	21
1.04300	19
1.04667	20
1.05033	22
1.05400	24
1.05767	24
1.06133	25
1.06500	26
1.06867	24
1.07233	23
1.07600	23
1.07967	22
1.08333	22
1.08700	24
1.09067	25
1.09433	24
1.09800	24
1.10167	22
1.10533	20
1.10900	22
1.11267	23
1.11633	25
1.12000	28
1.12367	30
1.12733	31
1.13100	32
1.13467	33
1.13833	32
1.14200	31
1.14567	30
1.14933	28
1.15300	28
1.15667	30
1.16033	29
1.16400	29
1.16767	29
1.17133	27
1.17500	27
1.17867	28
1.18233	27
1.18600	26
1.18967	27
1.19333	27
1.19700	26
1.20067	24
1.20433	26
1.20800	27
1.21167	26
1.21533	27
1.21900	27
1.22267	24
1.22633	22
1.23000	22
1.23367	27
1.23733	30
1.24100	31
1.24467	31
1.24833	30
1.25200	29
1.25567	28
1.25933	26
1.26300	28
1.26667	28
1.27033	29
1.27400	29
1.27767	27
1.28133	25
1.28500	22
1.28867	18
1.29233	19
1.29600	21
1.29967	20
1.30333	17
1.30700	14
1.31067	15
1.31433	17
1.31800	18
1.32167	18
1.32533	19
1.32900	20
1.33267	22
1.33633	21
1.34000	19
1.34367	20
1.34733	20
1.35100	19
1.35467	19
1.35833	20
1.36200	22
1.36567	23
1.36933	24
1.37300	24
1.37667	22
1.38033	20
1.38400	19
1.38767	20
1.39133	22
1.39500	24
1.39867	24
1.40233	23
1.40600	21
1.40967	21
1.41333	22
1.41700	22
1.42067	24
1.42433	24
1.42800	21
1.43167	19
1.43533	18
1.43900	17
1.44267	17
1.44633	17
1.45000	17
1.45367	19
1.45733	20
1.46100	21
1.46467	21
1.46833	24
1.47200	24
1.47567	24
1.47933	21
1.48300	18
1.48667	16
1.49033	15
1.49400	15
1.49767	18
1.50133	20
1.50500	22
1.50867	24
1.51233	25
1.51600	24
1.51967	22
1.52333	22
1.52700	22
1.53067	22
1.53433	22
1.53800	21
1.54167	21
1.54533	22
1.54900	24
1.55267	25
1.55633	25
1.56000	24
1.56367	23
1.56733	22
1.57100	22
1.57467	18
1.57833	17
1.58200	17
1.58567	16
1.58933	16
1.59300	18
1.59667	20
1.60033	20
1.60400	18
1.60767	16
1.61133	17
1.61500	20
1.61867	25
1.62233	26
1.62600	26
1.62967	27
1.63333	28
1.63700	27
1.64067	26
1.64433	27
1.64800	27
1.65167	26
1.65533	26
1.65900	27
1.66267	27
1.66633	27
1.67000	25
1.67367	25
1.67733	24
1.68100	22
1.68467	22
1.68833	21
1.69200	23
1.69567	26
1.69933	29
1.70300	30
1.70667	30
1.71033	31
1.71400	30
1.71767	27
1.72133	27
1.72500	29
1.72867	30
1.73233	31
1.73600	31
1.73967	30
1.74333	32
1.74700	33
1.75067	33
1.75433	33
1.75800	33
1.76167	35
1.76533	36
1.76900	37
1.77267	38
1.77633	39
1.78000	39
1.78367	38
1.78733	38
1.79100	39
1.79467	40
1.79833	39
1.80200	39
1.80567	40
1.80933	42
1.81300	41
1.81667	39
1.82033	38
1.82400	38
1.82767	38
1.83133	39
1.83500	39
1.83867	38
1.84233	38
1.84600	39
1.84967	41
1.85333	41
1.85700	41
1.86067	41
1.86433	41
1.86800	40
1.87167	40
1.87533	40
1.87900	40
1.88267	42
1.88633	45
1.89000	48
1.89367	49
1.89733	50
1.90100	50
1.90467	51
1.90833	50
1.91200	50
1.91567	49
1.91933	49
1.92300	49
1.92667	49
1.93033	50
1.93400	52
1.93767	53
1.94133	54
1.94500	53
1.94867	50
1.95233	48
1.95600	49
1.95967	50
1.96333	51
1.96700	52
1.97067	52
1.97433	52
1.97800	52
1.98167	52
1.98533	53
1.98900	54
1.99267	56
1.99633	56
2.00000	57
2.00367	58
2.00733	60
2.01100	62
2.01467	62
2.01833	63
2.02200	65
2.02567	66
2.02933	67
2.03300	67
2.03667	67
2.04033	67
2.04400	67
2.04767	70
2.05133	71
2.05500	72
2.05867	72
2.06233	75
2.06600	77
2.06967	79
2.07333	80
2.07700	83
2.08067	84
2.08433	82
2.08800	78
2.09167	77
2.09533	80
2.09900	82
2.10267	83
2.10633	84
2.11000	85
2.11367	87
2.11733	86
2.12100	86
2.12467	88
2.12833	90
2.13200	92
2.13567	93
2.13933	93
2.14300	93
2.14667	95
2.15033	96
2.15400	97
2.15767	99
2.16133	100
2.16500	100
2.16867	102
2.17233	102
2.17600	104
2.17967	105
2.18333	105
2.18700	106
2.19067	109
2.19433	112
2.19800	113
2.20167	114
2.20533	115
2.20900	116
2.21267	116
2.21633	116
2.22000	116
2.22367	116
2.22733	117
2.23100	115
2.23467	115
2.23833	115
2.24200	116
2.24567	118
2.24933	120
2.25300	121
2.25667	121
2.26033	122
2.26400	125
2.26767	125
2.27133	126
2.27500	125
2.27867	123
2.28233	124
2.28600	126
2.28967	127
2.29333	126
2.29700	128
2.30067	129
2.30433	129
2.30800	130
2.31167	132
2.31533	132
2.31900	131
2.32267	134
2.32633	137
2.33000	139
2.33367	140
2.33733	142
2.34100	145
2.34467	146
2.34833	147
2.35200	148
2.35567	148
2.35933	145
2.36300	142
2.36667	141
2.37033	141
2.37400	143
2.37767	144
2.38133	144
2.38500	142
2.38867	142
2.39233	144
2.39600	145
2.39967	149
2.40333	153
2.40700	158
2.41067	160
2.41433	163
2.41800	167
2.42167	170
2.42533	169
2.42900	167
2.43267	167
2.43633	168
2.44000	170
2.44367	207
2.44733	303
2.45100	414
2.45467	500
2.45833	534
2.46200	526
2.46567	510
2.46933	503
2.47300	491
2.47667	465
2.48033	428
2.48400	385
2.48767	347
2.49133	318
2.49500	299
2.49867	290
2.50233	290
2.50600	300
2.50967	313
2.51333	323
2.51700	327
2.52067	320
2.52433	305
2.52800	285
2.53167	261
2.53533	235
2.53900	212
2.54267	194
2.54633	178
2.55000	165
2.55367	157
2.55733	154
2.56100	153
2.56467	154
2.56833	155
2.57200	156
2.57567	159
2.57933	163
2.58300	169
2.58667	177
2.59033	187
2.59400	198
2.59767	210
2.60133	221
2.60500	229
2.60867	228
2.61233	217
2.61600	198
2.61967	171
2.62333	140
2.62700	105
2.63067	70
2.63433	37
2.63800	5
2.64167	-24
2.64533	-46
2.64900	-64
2.65267	-78
2.65633	-86
2.66000	-92
2.66367	-97
2.66733	-99
2.67100	-96
2.67467	-92
2.67833	-86
2.68200	-81
2.68567	-72
2.68933	-63
2.69300	-55
2.69667	-51
2.70033	-48
2.70400	-44
2.70767	-39
2.71133	-33
2.71500	-24
2.71867	-17
2.72233	-10
2.72600	-2
2.72967	5
2.73333	7
2.73700	11
2.74067	18
2.74433	24
2.74800	29
2.75167	33
2.75533	36
2.75900	41
2.76267	45
2.76633	49
2.77000	55
2.77367	62
2.77733	68
2.78100	76
2.78467	82
2.78833	89
2.79200	95
2.79567	103
2.79933	111
2.80300	116
2.80667	122
2.81033	127
2.81400	134
2.81767	142
2.82133	150
2.82500	163
2.82867	188
2.83233	240
2.83600	338
2.83967	505
2.84333	763
2.84700	1130
2.85067	1605
2.85433	2159
2.85800	2768
2.86167	3404
2.86533	4024
2.86900	4573
2.87267	5010
2.87633	5302
2.88000	5442
2.88367	5434
2.88733	5300
2.89100	5069
2.89467	4775
2.89833	4445
2.90200	4098
2.90567	3751
2.90933	3416
2.91300	3096
2.91667	2799
2.92033	2529
2.92400	2286
2.92767	2067
2.93133	1872
2.93500	1702
2.93867	1557
2.94233	1430
2.94600	1319
2.94967	1224
2.95333	1145
2.95700	1077
2.96067	1016
2.96433	964
2.96800	920
2.97167	881
2.97533	849
2.97900	822
2.98267	802
2.98633	783
2.99000	766
2.99367	751
2.99733	739
3.00100	728
3.00467	718
3.00833	708
3.01200	699
3.01567	694
3.01933	688
3.02300	683
3.02667	677
3.03033	673
3.03400	671
3.03767	670
3.04133	668
3.04500	665
3.04867	664
3.05233	665
3.05600	667
3.05967	666
3.06333	665
3.06700	664
3.07067	663
3.07433	665
3.07800	666
3.08167	666
3.08533	669
3.08900	670
3.09267	672
3.09633	674
3.10000	674
3.10367	676
3.10733	680
3.11100	682
3.11467	684
3.11833	687
3.12200	691
3.12567	695
3.12933	697
3.13300	700
3.13667	702
3.14033	706
3.14400	711
3.14767	715
3.15133	718
3.15500	718
3.15867	717
3.16233	717
3.16600	717
3.16967	719
3.17333	721
3.17700	721
3.18067	721
3.18433	723
3.18800	727
3.19167	730
3.19533	732
3.19900	732
3.20267	732
3.20633	730
3.21000	727
3.21367	728
3.21733	727
3.22100	726
3.22467	724
3.22833	721
3.23200	719
3.23567	716
3.23933	711
3.24300	708
3.24667	703
3.25033	697
3.25400	693
3.25767	690
3.26133	685
3.26500	681
3.26867	677
3.27233	675
3.27600	672
3.27967	667
3.28333	662
3.28700	656
3.29067	651
3.29433	646
3.29800	645
3.30167	643
3.30533	639
3.30900	635
3.31267	630
3.31633	626
3.32000	621
3.32367	616
3.32733	611
3.33100	606
3.33467	602
3.33833	597
3.34200	590
3.34567	585
3.34933	580
3.35300	578
3.35667	575
3.36033	571
3.36400	566
3.36767	564
3.37133	563
3.37500	560
3.37867	558
3.38233	556
3.38600	554
3.38967	551
3.39333	547
3.39700	543
3.40067	542
3.40433	540
3.40800	537
3.41167	535
3.41533	533
3.41900	530
3.42267	524
3.42633	521
3.43000	521
3.43367	518
3.43733	515
3.44100	513
3.44467	510
3.44833	508
3.45200	506
3.45567	505
3.45933	501
3.46300	495
3.46667	492
3.47033	492
3.47400	491
3.47767	488
3.48133	487
3.48500	485
3.48867	480
3.49233	476
3.49600	475
3.49967	474
3.50333	471
3.50700	468
3.51067	467
3.51433	466
3.51800	467
3.52167	467
3.52533	467
3.52900	465
3.53267	461
3.53633	461
3.54000	460
3.54367	457
3.54733	456
3.55100	456
3.55467	455
3.55833	453
3.56200	450
3.56567	449
3.56933	447
3.57300	446
3.57667	446
3.58033	446
3.58400	445
3.58767	445
3.59133	444
3.59500	442
3.59867	438
3.60233	436
3.60600	433
3.60967	429
3.61333	428
3.61700	429
3.62067	429
3.62433	430
3.62800	427
3.63167	426
3.63533	428
3.63900	428
3.64267	426
3.64633	425
3.65000	423
3.65367	422
3.65733	421
3.66100	420
3.66467	419
3.66833	416
3.67200	415
3.67567	414
3.67933	414
3.68300	415
3.68667	416
3.69033	415
3.69400	412
3.69767	409
3.70133	406
3.70500	404
3.70867	402
3.71233	401
3.71600	398
3.71967	398
3.72333	398
3.72700	398
3.73067	397
3.73433	396
3.73800	396
3.74167	396
3.74533	397
3.74900	399
3.75267	400
3.75633	399
3.76000	397
3.76367	396
3.76733	393
3.77100	389
3.77467	385
3.77833	382
3.78200	380
3.78567	379
3.78933	381
3.79300	382
3.79667	383
3.80033	384
3.80400	385
3.80767	384
3.81133	384
3.81500	382
3.81867	381
3.82233	382
3.82600	382
3.82967	380
3.83333	380
3.83700	378
3.84067	376
3.84433	377
3.84800	381
3.85167	382
3.85533	381
3.85900	378
3.86267	374
3.86633	373
3.87000	372
3.87367	370
3.87733	370
3.88100	371
3.88467	373
3.88833	372
3.89200	373
3.89567	374
3.89933	374
3.90300	372
3.90667	370
3.91033	370
3.91400	370
3.91767	370
3.92133	370
3.92500	367
3.92867	365
3.93233	365
3.93600	365
3.93967	364
3.94333	364
3.94700	364
3.95067	365
3.95433	363
3.95800	361
3.96167	361
3.96533	363
3.96900	363
3.97267	361
3.97633	358
3.98000	357
3.98367	356
3.98733	353
3.99100	350
3.99467	348
3.99833	345

[Status Trace (Column Oven Temperature)]
Interval(msec)	1000
# of Points	240
Start Time(min)	0.010
End Time(min)	3.993
Intensity Units	
Intensity Multiplier	1
R.Time (min)	Intensity
0.00970	35.06
0.02637	35.06
0.04303	35.07
0.05970	35.07
0.07637	35.08
0.09303	35.07
0.10970	35.07
0.12637	35.06
0.14303	35.05
0.15970	35.04
0.17637	35.02
0.19303	35.01
0.20970	35.01
0.22637	35.01
0.24303	35.01
0.25970	35.00
0.27637	35.01
0.29303	35.01
0.30970	35.00
0.32637	34.99
0.34303	34.99
0.35970	34.99
0.37637	34.99
0.39303	35.00
0.40970	35.00
0.42637	35.00
0.44303	34.99
0.45970	34.99
0.47637	34.99
0.49303	34.99
0.50970	34.99
0.52637	34.98
0.54303	34.98
0.55970	34.98
0.57637	34.98
0.59303	34.98
0.60970	34.98
0.62637	34.97
0.64303	34.98
0.65970	34.97
0.67637	34.98
0.69303	34.98
0.70970	34.99
0.72637	34.99
0.74303	34.98
0.75970	34.98
0.77637	34.98
0.79303	34.99
0.80970	34.99
0.82637	35.01
0.84303	35.00
0.85970	35.01
0.87637	35.01
0.89303	35.01
0.90970	35.00
0.92637	35.00
0.94303	35.00
0.95970	34.99
0.97637	35.00
0.99303	35.00
1.00970	35.00
1.02637	35.00
1.04303	34.99
1.05970	34.99
1.07637	35.00
1.09303	35.00
1.10970	35.00
1.12637	35.00
1.14303	34.99
1.15970	34.99
1.17637	34.99
1.19303	34.98
1.20970	34.98
1.22637	34.99
1.24303	34.99
1.25970	34.99
1.27637	35.00
1.29303	35.01
1.30970	35.02
1.32637	35.02
1.34303	35.01
1.35970	35.01
1.37637	35.01
1.39303	35.00
1.40970	35.01
1.42637	35.01
1.44303	35.01
1.45970	35.00
1.47637	35.00
1.49303	35.00
1.50970	35.01
1.52637	35.00
1.54303	34.99
1.55970	34.99
1.57637	34.99
1.59303	35.01
1.60970	35.07
1.62637	35.20
1.64303	35.40
1.65970	35.66
1.67637	36.00
1.69303	36.36
1.70970	36.71
1.72637	37.04
1.74303	37.39
1.75970	37.70
1.77637	38.04
1.79303	38.37
1.80970	38.71
1.82637	39.03
1.84303	39.36
1.85970	39.70
1.87637	40.03
1.89303	40.35
1.90970	40.69
1.92637	41.01
1.94303	41.35
1.95970	41.66
1.97637	42.01
1.99303	42.31
2.00970	42.62
2.02637	42.94
2.04303	43.26
2.05970	43.60
2.07637	43.92
2.09303	44.23
2.10970	44.55
2.12637	44.90
2.14303	45.21
2.15970	45.53
2.17637	45.88
2.19303	46.19
2.20970	46.52
2.22637	46.85
2.24303	47.19
2.25970	47.54
2.27637	47.85
2.29303	48.19
2.30970	48.52
2.32637	48.86
2.34303	49.20
2.35970	49.46
2.37637	49.61
2.39303	49.66
2.40970	49.63
2.42637	49.64
2.44303	49.65
2.45970	49.66
2.47637	49.66
2.49303	49.68
2.50970	49.69
2.52637	49.70
2.54303	49.71
2.55970	49.73
2.57637	49.77
2.59303	49.78
2.60970	49.79
2.62637	49.79
2.64303	49.81
2.65970	49.83
2.67637	49.84
2.69303	49.84
2.70970	49.87
2.72637	49.87
2.74303	49.85
2.75970	49.84
2.77637	49.86
2.79303	49.87
2.80970	49.88
2.82637	49.88
2.84303	49.88
2.85970	49.88
2.87637	49.88
2.89303	49.89
2.90970	49.91
2.92637	49.92
2.94303	49.94
2.95970	49.95
2.97637	49.97
2.99303	49.98
3.00970	49.98
3.02637	49.99
3.04303	50.00
3.05970	50.00
3.07637	50.01
3.09303	50.02
3.10970	50.02
3.12637	50.03
3.14303	50.04
3.15970	50.04
3.17637	50.05
3.19303	50.06
3.20970	50.06
3.22637	50.07
3.24303	50.08
3.25970	50.08
3.27637	50.09
3.29303	50.09
3.30970	50.10
3.32637	50.10
3.34303	50.10
3.35970	50.10
3.37637	50.10
3.39303	50.08
3.40970	50.08
3.42637	50.08
3.44303	50.08
3.45970	50.07
3.47637	50.07
3.49303	50.07
3.50970	50.06
3.52637	50.07
3.54303	50.07
3.55970	50.07
3.57637	50.07
3.59303	50.07
3.60970	50.07
3.62637	50.07
3.64303	50.07
3.65970	50.08
3.67637	50.08
3.69303	50.08
3.70970	50.07
3.72637	50.08
3.74303	50.09
3.75970	50.08
3.77637	50.09
3.79303	50.09
3.80970	50.09
3.82637	50.09
3.84303	50.09
3.85970	50.09
3.87637	50.09
3.89303	50.09
3.90970	50.09
3.92637	50.09
3.94303	50.08
3.95970	50.07
3.97637	50.07
3.99303	50.06

[Status Trace (Injection Unit Temperature)]
Interval(msec)	1000
# of Points	240
Start Time(min)	0.010
End Time(min)	3.993
Intensity Units	
Intensity Multiplier	1
R.Time (min)	Intensity
0.00970	99.98
0.02637	99.98
0.04303	99.98
0.05970	99.99
0.07637	99.98
0.09303	99.98
0.10970	99.98
0.12637	99.98
0.14303	99.98
0.15970	99.98
0.17637	99.99
0.19303	99.98
0.20970	99.98
0.22637	99.98
0.24303	99.98
0.25970	99.99
0.27637	99.98
0.29303	99.99
0.30970	99.99
0.32637	99.98
0.34303	99.98
0.35970	99.99
0.37637	99.98
0.39303	99.99
0.40970	99.98
0.42637	99.99
0.44303	99.98
0.45970	99.98
0.47637	99.99
0.49303	99.98
0.50970	99.98
0.52637	99.99
0.54303	99.99
0.55970	99.99
0.57637	99.99
0.59303	99.98
0.60970	99.98
0.62637	99.98
0.64303	99.99
0.65970	99.98
0.67637	99.98
0.69303	99.98
0.70970	99.98
0.72637	99.98
0.74303	99.98
0.75970	99.98
0.77637	99.98
0.79303	99.98
0.80970	99.98
0.82637	99.98
0.84303	99.98
0.85970	99.98
0.87637	99.99
0.89303	99.98
0.90970	99.98
0.92637	99.98
0.94303	99.99
0.95970	99.99
0.97637	99.98
0.99303	99.98
1.00970	99.98
1.02637	99.98
1.04303	99.98
1.05970	99.98
1.07637	99.99
1.09303	99.98
1.10970	99.98
1.12637	99.98
1.14303	99.99
1.15970	99.99
1.17637	99.98
1.19303	99.99
1.20970	99.98
1.22637	99.99
1.24303	99.99
1.25970	99.98
1.27637	99.99
1.29303	99.99
1.30970	99.99
1.32637	99.99
1.34303	99.98
1.35970	99.98
1.37637	99.98
1.39303	99.99
1.40970	99.99
1.42637	99.98
1.44303	99.99
1.45970	99.98
1.47637	99.99
1.49303	99.98
1.50970	99.99
1.52637	99.99
1.54303	99.98
1.55970	99.98
1.57637	99.99
1.59303	99.98
1.60970	99.99
1.62637	99.98
1.64303	99.99
1.65970	99.99
1.67637	99.99
1.69303	99.99
1.70970	99.99
1.72637	99.99
1.74303	99.98
1.75970	99.99
1.77637	99.99
1.79303	99.99
1.80970	99.99
1.82637	99.99
1.84303	99.98
1.85970	99.98
1.87637	99.98
1.89303	99.98
1.90970	99.98
1.92637	99.98
1.94303	99.98
1.95970	99.98
1.97637	99.98
1.99303	99.98
2.00970	99.98
2.02637	99.98
2.04303	99.98
2.05970	99.97
2.07637	99.98
2.09303	99.97
2.10970	99.97
2.12637	99.97
2.14303	99.97
2.15970	99.97
2.17637	99.97
2.19303	99.97
2.20970	99.98
2.22637	99.97
2.24303	99.97
2.25970	99.98
2.27637	99.97
2.29303	99.97
2.30970	99.97
2.32637	99.97
2.34303	99.98
2.35970	99.97
2.37637	99.97
2.39303	99.97
2.40970	99.97
2.42637	99.98
2.44303	99.98
2.45970	99.97
2.47637	99.98
2.49303	99.98
2.50970	99.98
2.52637	99.98
2.54303	99.98
2.55970	99.98
2.57637	99.98
2.59303	99.98
2.60970	99.98
2.62637	99.98
2.64303	99.98
2.65970	99.98
2.67637	99.99
2.69303	99.99
2.70970	99.99
2.72637	99.99
2.74303	99.99
2.75970	99.99
2.77637	99.99
2.79303	100.00
2.80970	100.00
2.82637	100.00
2.84303	100.00
2.85970	100.00
2.87637	100.01
2.89303	100.00
2.90970	100.00
2.92637	100.01
2.94303	100.01
2.95970	100.01
2.97637	100.01
2.99303	100.01
3.00970	100.01
3.02637	100.01
3.04303	100.02
3.05970	100.02
3.07637	100.02
3.09303	100.02
3.10970	100.02
3.12637	100.02
3.14303	100.02
3.15970	100.02
3.17637	100.02
3.19303	100.02
3.20970	100.02
3.22637	100.03
3.24303	100.03
3.25970	100.03
3.27637	100.03
3.29303	100.03
3.30970	100.03
3.32637	100.03
3.34303	100.03
3.35970	100.03
3.37637	100.03
3.39303	100.04
3.40970	100.04
3.42637	100.04
3.44303	100.04
3.45970	100.04
3.47637	100.04
3.49303	100.04
3.50970	100.04
3.52637	100.04
3.54303	100.04
3.55970	100.04
3.57637	100.04
3.59303	100.04
3.60970	100.04
3.62637	100.04
3.64303	100.04
3.65970	100.04
3.67637	100.04
3.69303	100.04
3.70970	100.04
3.72637	100.04
3.74303	100.04
3.75970	100.05
3.77637	100.05
3.79303	100.05
3.80970	100.04
3.82637	100.05
3.84303	100.05
3.85970	100.04
3.87637	100.04
3.89303	100.05
3.90970	100.04
3.92637	100.05
3.94303	100.05
3.95970	100.04
3.97637	100.04
3.99303	100.04

[Status Trace (Carrier Gas Pressure)]
Interval(msec)	1000
# of Points	240
Start Time(min)	0.010
End Time(min)	3.993
Intensity Units	
Intensity Multiplier	1
R.Time (min)	Intensity
0.00970	58.00
0.02637	55.19
0.04303	57.30
0.05970	59.41
0.07637	59.39
0.09303	58.05
0.10970	57.98
0.12637	58.01
0.14303	58.01
0.15970	58.00
0.17637	58.00
0.19303	58.00
0.20970	58.00
0.22637	58.00
0.24303	58.00
0.25970	58.00
0.27637	58.00
0.29303	58.00
0.30970	58.00
0.32637	58.00
0.34303	58.00
0.35970	58.00
0.37637	58.00
0.39303	58.00
0.40970	58.00
0.42637	58.00
0.44303	58.00
0.45970	58.00
0.47637	58.00
0.49303	58.00
0.50970	58.00
0.52637	58.00
0.54303	58.00
0.55970	58.00
0.57637	58.00
0.59303	58.00
0.60970	58.00
0.62637	58.00
0.64303	58.00
0.65970	58.00
0.67637	58.00
0.69303	58.00
0.70970	58.00
0.72637	58.00
0.74303	58.00
0.75970	58.00
0.77637	58.00
0.79303	58.00
0.80970	58.00
0.82637	58.00
0.84303	58.00
0.85970	58.00
0.87637	58.00
0.89303	58.00
0.90970	58.00
0.92637	58.00
0.94303	58.00
0.95970	58.00
0.97637	58.00
0.99303	58.00
1.00970	58.00
1.02637	58.00
1.04303	58.00
1.05970	58.00
1.07637	58.00
1.09303	58.00
1.10970	58.00
1.12637	58.00
1.14303	58.00
1.15970	58.00
1.17637	58.00
1.19303	58.00
1.20970	58.00
1.22637	58.00
1.24303	58.00
1.25970	58.00
1.27637	58.00
1.29303	58.00
1.30970	58.00
1.32637	58.00
1.34303	58.00
1.35970	58.00
1.37637	58.00
1.39303	58.00
1.40970	58.00
1.42637	58.00
1.44303	58.00
1.45970	58.00
1.47637	58.00
1.49303	58.00
1.50970	58.00
1.52637	58.00
1.54303	58.00
1.55970	58.00
1.57637	58.00
1.59303	58.00
1.60970	58.00
1.62637	58.00
1.64303	58.01
1.65970	58.00
1.67637	58.01
1.69303	58.00
1.70970	58.00
1.72637	58.00
1.74303	58.00
1.75970	58.00
1.77637	58.00
1.79303	58.00
1.80970	58.00
1.82637	58.00
1.84303	58.00
1.85970	58.00
1.87637	58.00
1.89303	58.00
1.90970	58.00
1.92637	58.00
1.94303	58.00
1.95970	58.00
1.97637	58.00
1.99303	58.00
2.00970	58.00
2.02637	58.00
2.04303	58.00
2.05970	58.00
2.07637	58.00
2.09303	58.00
2.10970	58.00
2.12637	58.00
2.14303	58.00
2.15970	58.00
2.17637	58.00
2.19303	58.00
2.20970	58.00
2.22637	58.00
2.24303	58.00
2.25970	58.00
2.27637	58.00
2.29303	58.00
2.30970	58.00
2.32637	58.00
2.34303	58.00
2.35970	58.00
2.37637	57.99
2.39303	57.99
2.40970	57.99
2.42637	58.00
2.44303	58.00
2.45970	58.00
2.47637	58.00
2.49303	58.00
2.50970	58.00
2.52637	57.98
2.54303	58.00
2.55970	58.00
2.57637	58.00
2.59303	58.00
2.60970	58.00
2.62637	58.00
2.64303	58.00
2.65970	58.00
2.67637	58.00
2.69303	58.00
2.70970	58.00
2.72637	58.00
2.74303	58.00
2.75970	58.00
2.77637	58.00
2.79303	58.00
2.80970	58.00
2.82637	58.00
2.84303	58.00
2.85970	58.00
2.87637	58.00
2.89303	58.00
2.90970	58.00
2.92637	58.00
2.94303	58.00
2.95970	58.00
2.97637	58.00
2.99303	58.00
3.00970	58.00
3.02637	58.00
3.04303	58.00
3.05970	58.00
3.07637	58.00
3.09303	58.00
3.10970	58.00
3.12637	58.00
3.14303	58.00
3.15970	58.00
3.17637	58.00
3.19303	58.00
3.20970	58.00
3.22637	58.00
3.24303	58.00
3.25970	58.00
3.27637	58.00
3.29303	58.00
3.30970	58.00
3.32637	58.00
3.34303	58.00
3.35970	58.00
3.37637	58.00
3.39303	58.00
3.40970	58.00
3.42637	58.00
3.44303	58.00
3.45970	58.00
3.47637	58.00
3.49303	58.00
3.50970	58.00
3.52637	58.00
3.54303	58.00
3.55970	58.00
3.57637	58.00
3.59303	58.00
3.60970	58.00
3.62637	58.00
3.64303	58.00
3.65970	58.00
3.67637	58.00
3.69303	58.00
3.70970	58.00
3.72637	58.00
3.74303	58.00
3.75970	58.00
3.77637	58.00
3.79303	58.00
3.80970	58.00
3.82637	58.00
3.84303	58.00
3.85970	58.00
3.87637	58.00
3.89303	58.00
3.90970	58.00
3.92637	58.00
3.94303	58.00
3.95970	58.00
3.97637	58.00
3.99303	58.00

[Status Trace (Carrier Gas Flow)]
Interval(msec)	1000
# of Points	240
Start Time(min)	0.010
End Time(min)	3.993
Intensity Units	
Intensity Multiplier	1
R.Time (min)	Intensity
0.00970	34.52
0.02637	34.53
0.04303	34.55
0.05970	34.57
0.07637	34.50
0.09303	34.52
0.10970	34.52
0.12637	34.51
0.14303	34.52
0.15970	34.52
0.17637	34.52
0.19303	34.52
0.20970	34.52
0.22637	34.52
0.24303	34.52
0.25970	34.52
0.27637	34.52
0.29303	34.52
0.30970	34.52
0.32637	34.52
0.34303	34.52
0.35970	34.52
0.37637	34.52
0.39303	34.52
0.40970	34.52
0.42637	34.52
0.44303	34.52
0.45970	34.52
0.47637	34.52
0.49303	34.52
0.50970	34.52
0.52637	34.52
0.54303	34.52
0.55970	34.52
0.57637	34.52
0.59303	34.52
0.60970	34.52
0.62637	34.52
0.64303	34.52
0.65970	34.52
0.67637	34.52
0.69303	34.52
0.70970	34.52
0.72637	34.52
0.74303	34.52
0.75970	34.52
0.77637	34.52
0.79303	34.52
0.80970	34.52
0.82637	34.52
0.84303	34.52
0.85970	34.52
0.87637	34.52
0.89303	34.52
0.90970	34.52
0.92637	34.52
0.94303	34.52
0.95970	34.52
0.97637	34.52
0.99303	34.52
1.00970	34.52
1.02637	34.52
1.04303	34.52
1.05970	34.52
1.07637	34.52
1.09303	34.52
1.10970	34.52
1.12637	34.52
1.14303	34.52
1.15970	34.52
1.17637	34.52
1.19303	34.52
1.20970	34.52
1.22637	34.52
1.24303	34.52
1.25970	34.52
1.27637	34.52
1.29303	34.52
1.30970	34.52
1.32637	34.52
1.34303	34.52
1.35970	34.52
1.37637	34.52
1.39303	34.52
1.40970	34.52
1.42637	34.52
1.44303	34.52
1.45970	34.52
1.47637	34.52
1.49303	34.52
1.50970	34.52
1.52637	34.52
1.54303	34.52
1.55970	34.52
1.57637	34.52
1.59303	34.52
1.60970	34.52
1.62637	34.52
1.64303	34.52
1.65970	34.52
1.67637	34.52
1.69303	34.52
1.70970	34.52
1.72637	34.52
1.74303	34.52
1.75970	34.52
1.77637	34.52
1.79303	34.52
1.80970	34.52
1.82637	34.52
1.84303	34.52
1.85970	34.52
1.87637	34.52
1.89303	34.52
1.90970	34.52
1.92637	34.52
1.94303	34.52
1.95970	34.52
1.97637	34.52
1.99303	34.52
2.00970	34.52
2.02637	34.52
2.04303	34.52
2.05970	34.52
2.07637	34.52
2.09303	34.52
2.10970	34.52
2.12637	34.52
2.14303	34.52
2.15970	34.52
2.17637	34.52
2.19303	34.52
2.20970	34.52
2.22637	34.52
2.24303	34.52
2.25970	34.52
2.27637	34.52
2.29303	34.52
2.30970	34.52
2.32637	34.52
2.34303	34.52
2.35970	34.52
2.37637	34.52
2.39303	34.52
2.40970	34.52
2.42637	34.52
2.44303	34.52
2.45970	34.52
2.47637	34.52
2.49303	34.52
2.50970	34.50
2.52637	34.52
2.54303	34.52
2.55970	34.52
2.57637	34.52
2.59303	34.52
2.60970	34.52
2.62637	34.52
2.64303	34.52
2.65970	34.52
2.67637	34.52
2.69303	34.52
2.70970	34.52
2.72637	34.52
2.74303	34.52
2.75970	34.52
2.77637	34.52
2.79303	34.52
2.80970	34.52
2.82637	34.52
2.84303	34.52
2.85970	34.52
2.87637	34.52
2.89303	34.52
2.90970	34.52
2.92637	34.52
2.94303	34.52
2.95970	34.52
2.97637	34.52
2.99303	34.52
3.00970	34.52
3.02637	34.52
3.04303	34.52
3.05970	34.52
3.07637	34.52
3.09303	34.52
3.10970	34.52
3.12637	34.52
3.14303	34.52
3.15970	34.52
3.17637	34.52
3.19303	34.52
3.20970	34.52
3.22637	34.52
3.24303	34.52
3.25970	34.52
3.27637	34.52
3.29303	34.52
3.30970	34.52
3.32637	34.52
3.34303	34.52
3.35970	34.52
3.37637	34.52
3.39303	34.52
3.40970	34.52
3.42637	34.52
3.44303	34.52
3.45970	34.52
3.47637	34.52
3.49303	34.52
3.50970	34.52
3.52637	34.52
3.54303	34.52
3.55970	34.52
3.57637	34.52
3.59303	34.52
3.60970	34.52
3.62637	34.52
3.64303	34.52
3.65970	34.52
3.67637	34.52
3.69303	34.52
3.70970	34.52
3.72637	34.52
3.74303	34.52
3.75970	34.52
3.77637	34.52
3.79303	34.52
3.80970	34.52
3.82637	34.52
3.84303	34.52
3.85970	34.52
3.87637	34.52
3.89303	34.52
3.90970	34.52
3.92637	34.52
3.94303	34.52
3.95970	34.52
3.97637	34.52
3.99303	34.52

[Status Trace (Column Flow)]
Interval(msec)	1000
# of Points	240
Start Time(min)	0.010
End Time(min)	3.993
Intensity Units	
Intensity Multiplier	1
R.Time (min)	Intensity
0.00970	5.54
0.02637	5.22
0.04303	5.46
0.05970	5.71
0.07637	5.71
0.09303	5.55
0.10970	5.54
0.12637	5.55
0.14303	5.55
0.15970	5.54
0.17637	5.55
0.19303	5.55
0.20970	5.55
0.22637	5.55
0.24303	5.55
0.25970	5.55
0.27637	5.55
0.29303	5.55
0.30970	5.55
0.32637	5.55
0.34303	5.55
0.35970	5.55
0.37637	5.55
0.39303	5.55
0.40970	5.55
0.42637	5.55
0.44303	5.55
0.45970	5.55
0.47637	5.55
0.49303	5.55
0.50970	5.55
0.52637	5.55
0.54303	5.55
0.55970	5.55
0.57637	5.55
0.59303	5.55
0.60970	5.55
0.62637	5.55
0.64303	5.55
0.65970	5.55
0.67637	5.55
0.69303	5.55
0.70970	5.55
0.72637	5.55
0.74303	5.55
0.75970	5.55
0.77637	5.55
0.79303	5.55
0.80970	5.55
0.82637	5.55
0.84303	5.55
0.85970	5.55
0.87637	5.55
0.89303	5.55
0.90970	5.55
0.92637	5.55
0.94303	5.55
0.95970	5.55
0.97637	5.55
0.99303	5.55
1.00970	5.55
1.02637	5.55
1.04303	5.55
1.05970	5.55
1.07637	5.55
1.09303	5.55
1.10970	5.55
1.12637	5.55
1.14303	5.55
1.15970	5.55
1.17637	5.55
1.19303	5.55
1.20970	5.55
1.22637	5.55
1.24303	5.55
1.25970	5.55
1.27637	5.55
1.29303	5.55
1.30970	5.55
1.32637	5.55
1.34303	5.55
1.35970	5.55
1.37637	5.55
1.39303	5.55
1.40970	5.55
1.42637	5.55
1.44303	5.55
1.45970	5.55
1.47637	5.55
1.49303	5.55
1.50970	5.55
1.52637	5.55
1.54303	5.55
1.55970	5.55
1.57637	5.55
1.59303	5.55
1.60970	5.54
1.62637	5.54
1.64303	5.53
1.65970	5.53
1.67637	5.52
1.69303	5.50
1.70970	5.49
1.72637	5.48
1.74303	5.47
1.75970	5.46
1.77637	5.45
1.79303	5.44
1.80970	5.43
1.82637	5.42
1.84303	5.41
1.85970	5.40
1.87637	5.39
1.89303	5.38
1.90970	5.37
1.92637	5.36
1.94303	5.35
1.95970	5.34
1.97637	5.33
1.99303	5.32
2.00970	5.31
2.02637	5.30
2.04303	5.29
2.05970	5.28
2.07637	5.27
2.09303	5.27
2.10970	5.26
2.12637	5.25
2.14303	5.24
2.15970	5.23
2.17637	5.22
2.19303	5.21
2.20970	5.20
2.22637	5.19
2.24303	5.18
2.25970	5.17
2.27637	5.16
2.29303	5.15
2.30970	5.14
2.32637	5.13
2.34303	5.12
2.35970	5.12
2.37637	5.11
2.39303	5.11
2.40970	5.11
2.42637	5.11
2.44303	5.11
2.45970	5.11
2.47637	5.11
2.49303	5.11
2.50970	5.11
2.52637	5.11
2.54303	5.11
2.55970	5.11
2.57637	5.11
2.59303	5.11
2.60970	5.11
2.62637	5.11
2.64303	5.11
2.65970	5.11
2.67637	5.11
2.69303	5.11
2.70970	5.10
2.72637	5.10
2.74303	5.10
2.75970	5.11
2.77637	5.11
2.79303	5.10
2.80970	5.10
2.82637	5.10
2.84303	5.10
2.85970	5.10
2.87637	5.10
2.89303	5.10
2.90970	5.10
2.92637	5.10
2.94303	5.10
2.95970	5.10
2.97637	5.10
2.99303	5.10
3.00970	5.10
3.02637	5.10
3.04303	5.10
3.05970	5.10
3.07637	5.10
3.09303	5.10
3.10970	5.10
3.12637	5.10
3.14303	5.10
3.15970	5.10
3.17637	5.10
3.19303	5.10
3.20970	5.10
3.22637	5.10
3.24303	5.10
3.25970	5.10
3.27637	5.10
3.29303	5.10
3.30970	5.10
3.32637	5.10
3.34303	5.10
3.35970	5.10
3.37637	5.10
3.39303	5.10
3.40970	5.10
3.42637	5.10
3.44303	5.10
3.45970	5.10
3.47637	5.10
3.49303	5.10
3.50970	5.10
3.52637	5.10
3.54303	5.10
3.55970	5.10
3.57637	5.10
3.59303	5.10
3.60970	5.10
3.62637	5.10
3.64303	5.10
3.65970	5.10
3.67637	5.10
3.69303	5.10
3.70970	5.10
3.72637	5.10
3.74303	5.10
3.75970	5.10
3.77637	5.10
3.79303	5.10
3.80970	5.10
3.82637	5.10
3.84303	5.10
3.85970	5.10
3.87637	5.10
3.89303	5.10
3.90970	5.10
3.92637	5.10
3.94303	5.10
3.95970	5.10
3.97637	5.10
3.99303	5.10

[Status Trace (Linear Velocity)]
Interval(msec)	1000
# of Points	240
Start Time(min)	0.010
End Time(min)	3.993
Intensity Units	
Intensity Multiplier	1
R.Time (min)	Intensity
0.00970	39.02
0.02637	37.17
0.04303	38.56
0.05970	39.94
0.07637	39.93
0.09303	39.05
0.10970	39.00
0.12637	39.02
0.14303	39.02
0.15970	39.02
0.17637	39.02
0.19303	39.02
0.20970	39.02
0.22637	39.02
0.24303	39.02
0.25970	39.02
0.27637	39.02
0.29303	39.02
0.30970	39.02
0.32637	39.02
0.34303	39.02
0.35970	39.02
0.37637	39.02
0.39303	39.02
0.40970	39.02
0.42637	39.02
0.44303	39.02
0.45970	39.02
0.47637	39.02
0.49303	39.02
0.50970	39.02
0.52637	39.02
0.54303	39.02
0.55970	39.02
0.57637	39.02
0.59303	39.02
0.60970	39.02
0.62637	39.03
0.64303	39.02
0.65970	39.03
0.67637	39.02
0.69303	39.02
0.70970	39.02
0.72637	39.02
0.74303	39.02
0.75970	39.02
0.77637	39.02
0.79303	39.02
0.80970	39.02
0.82637	39.02
0.84303	39.02
0.85970	39.02
0.87637	39.02
0.89303	39.02
0.90970	39.02
0.92637	39.02
0.94303	39.02
0.95970	39.02
0.97637	39.02
0.99303	39.02
1.00970	39.02
1.02637	39.02
1.04303	39.02
1.05970	39.02
1.07637	39.02
1.09303	39.02
1.10970	39.02
1.12637	39.02
1.14303	39.02
1.15970	39.02
1.17637	39.02
1.19303	39.02
1.20970	39.02
1.22637	39.02
1.24303	39.02
1.25970	39.02
1.27637	39.02
1.29303	39.02
1.30970	39.02
1.32637	39.02
1.34303	39.02
1.35970	39.02
1.37637	39.02
1.39303	39.02
1.40970	39.02
1.42637	39.02
1.44303	39.02
1.45970	39.02
1.47637	39.02
1.49303	39.02
1.50970	39.02
1.52637	39.02
1.54303	39.02
1.55970	39.02
1.57637	39.02
1.59303	39.02
1.60970	39.02
1.62637	39.01
1.64303	38.99
1.65970	38.96
1.67637	38.93
1.69303	38.89
1.70970	38.86
1.72637	38.83
1.74303	38.80
1.75970	38.76
1.77637	38.74
1.79303	38.70
1.80970	38.67
1.82637	38.64
1.84303	38.61
1.85970	38.58
1.87637	38.55
1.89303	38.51
1.90970	38.48
1.92637	38.46
1.94303	38.42
1.95970	38.39
1.97637	38.36
1.99303	38.33
2.00970	38.30
2.02637	38.28
2.04303	38.24
2.05970	38.21
2.07637	38.19
2.09303	38.16
2.10970	38.13
2.12637	38.10
2.14303	38.07
2.15970	38.04
2.17637	38.01
2.19303	37.98
2.20970	37.95
2.22637	37.92
2.24303	37.89
2.25970	37.86
2.27637	37.83
2.29303	37.80
2.30970	37.77
2.32637	37.74
2.34303	37.71
2.35970	37.68
2.37637	37.67
2.39303	37.66
2.40970	37.67
2.42637	37.67
2.44303	37.67
2.45970	37.67
2.47637	37.67
2.49303	37.67
2.50970	37.66
2.52637	37.65
2.54303	37.66
2.55970	37.66
2.57637	37.66
2.59303	37.66
2.60970	37.66
2.62637	37.66
2.64303	37.66
2.65970	37.65
2.67637	37.65
2.69303	37.65
2.70970	37.65
2.72637	37.65
2.74303	37.65
2.75970	37.65
2.77637	37.65
2.79303	37.65
2.80970	37.65
2.82637	37.65
2.84303	37.65
2.85970	37.65
2.87637	37.65
2.89303	37.65
2.90970	37.65
2.92637	37.65
2.94303	37.64
2.95970	37.64
2.97637	37.64
2.99303	37.64
3.00970	37.64
3.02637	37.64
3.04303	37.64
3.05970	37.64
3.07637	37.64
3.09303	37.64
3.10970	37.64
3.12637	37.64
3.14303	37.64
3.15970	37.63
3.17637	37.63
3.19303	37.63
3.20970	37.63
3.22637	37.63
3.24303	37.63
3.25970	37.63
3.27637	37.63
3.29303	37.63
3.30970	37.63
3.32637	37.63
3.34303	37.63
3.35970	37.63
3.37637	37.63
3.39303	37.63
3.40970	37.63
3.42637	37.63
3.44303	37.63
3.45970	37.63
3.47637	37.63
3.49303	37.63
3.50970	37.63
3.52637	37.63
3.54303	37.63
3.55970	37.63
3.57637	37.63
3.59303	37.63
3.60970	37.63
3.62637	37.63
3.64303	37.63
3.65970	37.63
3.67637	37.63
3.69303	37.63
3.70970	37.63
3.72637	37.63
3.74303	37.63
3.75970	37.63
3.77637	37.63
3.79303	37.63
3.80970	37.63
3.82637	37.63
3.84303	37.63
3.85970	37.63
3.87637	37.63
3.89303	37.63
3.90970	37.63
3.92637	37.63
3.94303	37.63
3.95970	37.63
3.97637	37.63
3.99303	37.63

