[Header]
Application Name	LabSolutions
Version	5.110
Data File Name	C:\Users\User\Desktop\GC Analyses\Jack\UIC Prairie Sampling\10.19.22\221019_116.gcd
Output Date	1/4/2023
Output Time	2:27:20 PM

[File Information]
Type	Data File
Generated	12/19/2022 11:37:38 AM
Generated by	System Administrator
Modified	12/19/2022 11:42:03 AM
Modified by	System Administrator

[Sample Information]
Operator Name	System Administrator
Acquired	12/19/2022 11:38:02 AM
Sample Type	1:Standard
Level	1
Sample Name	221019_UICPrairie
Sample ID	221019_UICPrairie
ISTD Amount1	1
ISTD Amount2	1
ISTD Amount3	1
ISTD Amount4	1
ISTD Amount5	1
ISTD Amount6	1
ISTD Amount7	1
ISTD Amount8	1
ISTD Amount9	1
ISTD Amount10	1
ISTD Amount11	1
ISTD Amount12	1
ISTD Amount13	1
ISTD Amount14	1
ISTD Amount15	1
ISTD Amount16	1
ISTD Amount17	1
ISTD Amount18	1
ISTD Amount19	1
ISTD Amount20	1
ISTD Amount21	1
ISTD Amount22	1
ISTD Amount23	1
ISTD Amount24	1
ISTD Amount25	1
ISTD Amount26	1
ISTD Amount27	1
ISTD Amount28	1
ISTD Amount29	1
ISTD Amount30	1
ISTD Amount31	1
ISTD Amount32	1
Sample Amount	1
Dilution Factor	1
Vial#	1
Injection Volume	1
Injection Count	1
Bar Code	

[Original Files]
Data File	C:\Users\User\Desktop\GC Analyses\Jack\UIC Prairie Sampling\10.19.22\221019_116.gcd
Method File	C:\LabSolutions\Data\GHG_4min_2022\ghg3_togas_w_acet_4 min_new_int.gcm
Batch File	
Report Format File	c:\LabSolutions\System\DEFAULT.lsr

[File Description]


[Configuration]
Instrument Name	C0B7VH3-Instrument1
Instrument #	1
Line #	1
# of Detectors	3
Detector ID	DET#1	DET#2	DET#3
Detector Name	FID	PTCD	ECD
# of Channels	1	1	1

[Peak Table(Ch1)]
# of Peaks	3
Peak#	R.Time	I.Time	F.Time	Area	Height	A/H	Conc.	Mark	ID#	Name	k'	Plate #	Plate Ht.	Tailing	Resolution	Sep.Factor	Area Ratio	Height Ratio	Conc. %	Norm Conc.
1	1.479	1.439	1.538	11245	4909	2.291	100.000	   	1	CO	0.000	8116	18.482	1.243	0.000	0.000	0	0	16.667	16.667
2	1.571	1.538	1.630	5700	2823	2.019	100.000	 V 	2	CH4	0.062	10914	13.743	0.000	1.457	0.000	0	0	16.667	16.667
3	2.000	1.945	2.524	1281660	589418	2.174	400.000	   	3	CO2	0.352	16793	8.932	1.302	7.040	5.680	0	0	66.667	66.667

[Peak Table(Ch2)]
# of Peaks	0

[Peak Table(Ch3)]
# of Peaks	4
Peak#	R.Time	I.Time	F.Time	Area	Height	A/H	Conc.	Mark	ID#	Name	k'	Plate #	Plate Ht.	Tailing	Resolution	Sep.Factor	Area Ratio	Height Ratio	Conc. %	Norm Conc.
1	2.458	2.356	2.502	1252	317	3.951	0.000	   			0.000	8619	17.403	0.000	0.000	0.000	0	0	0.000	0.000
2	2.517	2.502	2.554	507	192	2.633	0.000	 V 			0.024	2009	74.682	0.000	0.355	0.000	0	0	0.000	0.000
3	2.605	2.554	2.649	829	219	3.784	0.000	 V 			0.060	3268	45.896	0.000	0.433	2.500	0	0	0.000	0.000
4	2.884	2.667	3.965	37281	5391	6.916	1.000	   	1	N2O	0.173	12843	11.680	6.185	1.962	2.900	0	0	100.000	100.000

[Compound Results(Ch1)]
# of IDs	6
ID#	Name	R.Time	Area	Height	Conc.	Curve	3rd	2nd	1st	Constant	Area Ratio	Height Ratio	Conc. %	Norm Conc.
1	CO	1.479	11245	4909	100.000	Linear	0.000000e+00	0.000000e+00	1.124522e+002	0.000000e+00	0	0	16.667	16.667
2	CH4	1.571	5700	2823	100.000	Linear	0.000000e+00	0.000000e+00	5.700351e+001	0.000000e+00	0	0	16.667	16.667
3	CO2	2.000	1281660	589418	400.000	Linear	0.000000e+00	0.000000e+00	3.204151e+003	0.000000e+00	0	0	66.667	66.667
4	Ethylene	0.000	0	0	0.000	Linear	0.000000e+00	0.000000e+00	0.000000e+00	0.000000e+00	0	0	0.000	0.000
5	Acetylene	0.000	0	0	0.000	Linear	0.000000e+00	0.000000e+00	0.000000e+00	0.000000e+00	0	0	0.000	0.000
6	Ethane	0.000	0	0	0.000	Linear	0.000000e+00	0.000000e+00	0.000000e+00	0.000000e+00	0	0	0.000	0.000

[Compound Results(Ch2)]
# of IDs	5
ID#	Name	R.Time	Area	Height	Conc.	Curve	3rd	2nd	1st	Constant	Area Ratio	Height Ratio	Conc. %	Norm Conc.
1	Hydrogen	0.000	0	0	0.000	Linear	0.000000e+00	0.000000e+00	0.000000e+00	0.000000e+00	0	0	0.000	0.000
2	Oxygen	0.000	0	0	0.000	Linear	0.000000e+00	0.000000e+00	0.000000e+00	0.000000e+00	0	0	0.000	0.000
3	Nitrogen	0.000	0	0	0.000	Linear	0.000000e+00	0.000000e+00	0.000000e+00	0.000000e+00	0	0	0.000	0.000
4	Methane	0.000	0	0	0.000	Linear	0.000000e+00	0.000000e+00	0.000000e+00	0.000000e+00	0	0	0.000	0.000
5	Carbon Monoxide	0.000	0	0	0.000	Linear	0.000000e+00	0.000000e+00	0.000000e+00	0.000000e+00	0	0	0.000	0.000

[Compound Results(Ch3)]
# of IDs	2
ID#	Name	R.Time	Area	Height	Conc.	Curve	3rd	2nd	1st	Constant	Area Ratio	Height Ratio	Conc. %	Norm Conc.
1	N2O	2.884	37281	5391	1.000	Linear	0.000000e+00	0.000000e+00	3.728147e+004	0.000000e+00	0	0	100.000	100.000
2	SF6	0.000	0	0	0.000	Linear	0.000000e+00	0.000000e+00	0.000000e+00	0.000000e+00	0	0	0.000	0.000

[Group Results(Ch1)]
# of Groups	0

[Group Results(Ch2)]
# of Groups	0

[Group Results(Ch3)]
# of Groups	0

[Chromatogram (Ch1)]
Interval(msec)	220
# of Points	1091
Start Time(min)	0.002
End Time(min)	3.998
R.Time (min)	Intensity
0.00167	-22
0.00533	-25
0.00900	-25
0.01267	-23
0.01633	-21
0.02000	-23
0.02367	-26
0.02733	-30
0.03100	-30
0.03467	-27
0.03833	-24
0.04200	-19
0.04567	-14
0.04933	-12
0.05300	-14
0.05667	-13
0.06033	-12
0.06400	-10
0.06767	-9
0.07133	-10
0.07500	-10
0.07867	-9
0.08233	-7
0.08600	-7
0.08967	-8
0.09333	-13
0.09700	-19
0.10067	-24
0.10433	-27
0.10800	-31
0.11167	-32
0.11533	-31
0.11900	-29
0.12267	-26
0.12633	-22
0.13000	-20
0.13367	-24
0.13733	-27
0.14100	-28
0.14467	-26
0.14833	-22
0.15200	-20
0.15567	-23
0.15933	-30
0.16300	-34
0.16667	-31
0.17033	-26
0.17400	-25
0.17767	-29
0.18133	-33
0.18500	-33
0.18867	-33
0.19233	-35
0.19600	-33
0.19967	-28
0.20333	-27
0.20700	-26
0.21067	-28
0.21433	-33
0.21800	-37
0.22167	-35
0.22533	-32
0.22900	-30
0.23267	-29
0.23633	-30
0.24000	-33
0.24367	-36
0.24733	-38
0.25100	-39
0.25467	-39
0.25833	-33
0.26200	-23
0.26567	-14
0.26933	-11
0.27300	-15
0.27667	-22
0.28033	-32
0.28400	-37
0.28767	-36
0.29133	-37
0.29500	-39
0.29867	-41
0.30233	-43
0.30600	-45
0.30967	-46
0.31333	-44
0.31700	-45
0.32067	-47
0.32433	-48
0.32800	-45
0.33167	-44
0.33533	-46
0.33900	-50
0.34267	-50
0.34633	-46
0.35000	-41
0.35367	-39
0.35733	-38
0.36100	-33
0.36467	-28
0.36833	-24
0.37200	-23
0.37567	-27
0.37933	-35
0.38300	-43
0.38667	-48
0.39033	-50
0.39400	-47
0.39767	-42
0.40133	-36
0.40500	-30
0.40867	-28
0.41233	-30
0.41600	-37
0.41967	-46
0.42333	-52
0.42700	-54
0.43067	-55
0.43433	-53
0.43800	-51
0.44167	-50
0.44533	-47
0.44900	-44
0.45267	-45
0.45633	-50
0.46000	-57
0.46367	-59
0.46733	-55
0.47100	-48
0.47467	-44
0.47833	-45
0.48200	-49
0.48567	-53
0.48933	-55
0.49300	-55
0.49667	-54
0.50033	-54
0.50400	-52
0.50767	-49
0.51133	-46
0.51500	-44
0.51867	-42
0.52233	-37
0.52600	-34
0.52967	-35
0.53333	-38
0.53700	-40
0.54067	-44
0.54433	-49
0.54800	-54
0.55167	-54
0.55533	-51
0.55900	-47
0.56267	-48
0.56633	-54
0.57000	-60
0.57367	-64
0.57733	-65
0.58100	-64
0.58467	-60
0.58833	-58
0.59200	-59
0.59567	-62
0.59933	-62
0.60300	-61
0.60667	-64
0.61033	-71
0.61400	-79
0.61767	-83
0.62133	-81
0.62500	-76
0.62867	-70
0.63233	-66
0.63600	-63
0.63967	-64
0.64333	-66
0.64700	-66
0.65067	-64
0.65433	-62
0.65800	-63
0.66167	-67
0.66533	-71
0.66900	-71
0.67267	-65
0.67633	-57
0.68000	-52
0.68367	-52
0.68733	-51
0.69100	-48
0.69467	-48
0.69833	-51
0.70200	-56
0.70567	-61
0.70933	-68
0.71300	-74
0.71667	-76
0.72033	-74
0.72400	-70
0.72767	-68
0.73133	-70
0.73500	-73
0.73867	-75
0.74233	-73
0.74600	-69
0.74967	-68
0.75333	-68
0.75700	-66
0.76067	-64
0.76433	-64
0.76800	-66
0.77167	-68
0.77533	-70
0.77900	-71
0.78267	-70
0.78633	-70
0.79000	-72
0.79367	-74
0.79733	-76
0.80100	-79
0.80467	-81
0.80833	-82
0.81200	-83
0.81567	-86
0.81933	-88
0.82300	-87
0.82667	-88
0.83033	-86
0.83400	-83
0.83767	-78
0.84133	-72
0.84500	-67
0.84867	-63
0.85233	-63
0.85600	-70
0.85967	-79
0.86333	-84
0.86700	-89
0.87067	-95
0.87433	-103
0.87800	-106
0.88167	-102
0.88533	-93
0.88900	-85
0.89267	-80
0.89633	-80
0.90000	-84
0.90367	-89
0.90733	-92
0.91100	-91
0.91467	-87
0.91833	-86
0.92200	-86
0.92567	-86
0.92933	-86
0.93300	-83
0.93667	-74
0.94033	-64
0.94400	-60
0.94767	-62
0.95133	-67
0.95500	-75
0.95867	-78
0.96233	-77
0.96600	-74
0.96967	-72
0.97333	-72
0.97700	-71
0.98067	-72
0.98433	-74
0.98800	-76
0.99167	-79
0.99533	-82
0.99900	-87
1.00267	-94
1.00633	-101
1.01000	-104
1.01367	-101
1.01733	-94
1.02100	-84
1.02467	-75
1.02833	-69
1.03200	-64
1.03567	-61
1.03933	-61
1.04300	-61
1.04667	-61
1.05033	-63
1.05400	-65
1.05767	-66
1.06133	-62
1.06500	-59
1.06867	-59
1.07233	-56
1.07600	-51
1.07967	-46
1.08333	-44
1.08700	-47
1.09067	-54
1.09433	-61
1.09800	-68
1.10167	-72
1.10533	-74
1.10900	-76
1.11267	-78
1.11633	-79
1.12000	-80
1.12367	-84
1.12733	-87
1.13100	-84
1.13467	-76
1.13833	-67
1.14200	-60
1.14567	-56
1.14933	-57
1.15300	-61
1.15667	-67
1.16033	-72
1.16400	-76
1.16767	-80
1.17133	-81
1.17500	-83
1.17867	-84
1.18233	-86
1.18600	-87
1.18967	-84
1.19333	-82
1.19700	-83
1.20067	-85
1.20433	-89
1.20800	-92
1.21167	-95
1.21533	-98
1.21900	-97
1.22267	-92
1.22633	-82
1.23000	-71
1.23367	-65
1.23733	-64
1.24100	-65
1.24467	-68
1.24833	-70
1.25200	-69
1.25567	-69
1.25933	-70
1.26300	-72
1.26667	-74
1.27033	-74
1.27400	-75
1.27767	-73
1.28133	-71
1.28500	-72
1.28867	-77
1.29233	-81
1.29600	-83
1.29967	-80
1.30333	-73
1.30700	-66
1.31067	-65
1.31433	-67
1.31800	-72
1.32167	-80
1.32533	-91
1.32900	-100
1.33267	-104
1.33633	-105
1.34000	-102
1.34367	-98
1.34733	-96
1.35100	-95
1.35467	-93
1.35833	-88
1.36200	-85
1.36567	-87
1.36933	-92
1.37300	-94
1.37667	-92
1.38033	-88
1.38400	-85
1.38767	-86
1.39133	-89
1.39500	-91
1.39867	-94
1.40233	-97
1.40600	-99
1.40967	-97
1.41333	-93
1.41700	-91
1.42067	-92
1.42433	-92
1.42800	-93
1.43167	-95
1.43533	-92
1.43900	-79
1.44267	-24
1.44633	135
1.45000	405
1.45367	815
1.45733	1447
1.46100	2259
1.46467	3095
1.46833	3822
1.47200	4379
1.47567	4732
1.47933	4839
1.48300	4661
1.48667	4208
1.49033	3565
1.49400	2856
1.49767	2194
1.50133	1638
1.50500	1200
1.50867	873
1.51233	637
1.51600	467
1.51967	346
1.52333	258
1.52700	195
1.53067	151
1.53433	117
1.53800	97
1.54167	118
1.54533	245
1.54900	546
1.55267	1011
1.55633	1543
1.56000	2034
1.56367	2421
1.56733	2678
1.57100	2774
1.57467	2671
1.57833	2374
1.58200	1949
1.58567	1490
1.58933	1075
1.59300	739
1.59667	486
1.60033	305
1.60400	181
1.60767	99
1.61133	46
1.61500	10
1.61867	-14
1.62233	-28
1.62600	-33
1.62967	-36
1.63333	-39
1.63700	-42
1.64067	-46
1.64433	-52
1.64800	-57
1.65167	-62
1.65533	-69
1.65900	-78
1.66267	-83
1.66633	-84
1.67000	-83
1.67367	-81
1.67733	-78
1.68100	-74
1.68467	-70
1.68833	-67
1.69200	-68
1.69567	-73
1.69933	-80
1.70300	-88
1.70667	-96
1.71033	-103
1.71400	-106
1.71767	-107
1.72133	-107
1.72500	-107
1.72867	-104
1.73233	-100
1.73600	-100
1.73967	-102
1.74333	-103
1.74700	-105
1.75067	-107
1.75433	-108
1.75800	-107
1.76167	-103
1.76533	-99
1.76900	-94
1.77267	-93
1.77633	-94
1.78000	-96
1.78367	-96
1.78733	-96
1.79100	-94
1.79467	-91
1.79833	-91
1.80200	-93
1.80567	-100
1.80933	-111
1.81300	-119
1.81667	-124
1.82033	-124
1.82400	-121
1.82767	-116
1.83133	-111
1.83500	-106
1.83867	-100
1.84233	-93
1.84600	-87
1.84967	-85
1.85333	-86
1.85700	-89
1.86067	-91
1.86433	-92
1.86800	-90
1.87167	-89
1.87533	-88
1.87900	-87
1.88267	-84
1.88633	-83
1.89000	-85
1.89367	-88
1.89733	-88
1.90100	-88
1.90467	-87
1.90833	-86
1.91200	-89
1.91567	-92
1.91933	-94
1.92300	-99
1.92667	-109
1.93033	-120
1.93400	-126
1.93767	-127
1.94133	-124
1.94500	-118
1.94867	-109
1.95233	-97
1.95600	-62
1.95967	118
1.96333	1042
1.96700	4861
1.97067	16970
1.97433	46602
1.97800	103324
1.98167	189482
1.98533	295634
1.98900	404516
1.99267	498271
1.99633	562907
2.00000	589363
2.00367	574662
2.00733	523383
2.01100	447094
2.01467	360668
2.01833	277447
2.02200	205931
2.02567	149304
2.02933	106999
2.03300	76620
2.03667	55348
2.04033	40658
2.04400	30560
2.04767	23601
2.05133	18761
2.05500	15343
2.05867	12873
2.06233	11043
2.06600	9653
2.06967	8573
2.07333	7714
2.07700	7017
2.08067	6439
2.08433	5952
2.08800	5535
2.09167	5175
2.09533	4858
2.09900	4577
2.10267	4327
2.10633	4102
2.11000	3897
2.11367	3711
2.11733	3541
2.12100	3386
2.12467	3244
2.12833	3114
2.13200	2995
2.13567	2884
2.13933	2780
2.14300	2679
2.14667	2582
2.15033	2491
2.15400	2405
2.15767	2326
2.16133	2254
2.16500	2189
2.16867	2128
2.17233	2067
2.17600	2008
2.17967	1951
2.18333	1895
2.18700	1841
2.19067	1792
2.19433	1746
2.19800	1702
2.20167	1660
2.20533	1621
2.20900	1588
2.21267	1559
2.21633	1532
2.22000	1503
2.22367	1472
2.22733	1442
2.23100	1411
2.23467	1381
2.23833	1351
2.24200	1321
2.24567	1289
2.24933	1256
2.25300	1228
2.25667	1204
2.26033	1181
2.26400	1158
2.26767	1136
2.27133	1115
2.27500	1096
2.27867	1083
2.28233	1073
2.28600	1059
2.28967	1044
2.29333	1028
2.29700	1011
2.30067	992
2.30433	971
2.30800	952
2.31167	936
2.31533	922
2.31900	910
2.32267	902
2.32633	894
2.33000	883
2.33367	873
2.33733	860
2.34100	843
2.34467	827
2.34833	816
2.35200	809
2.35567	804
2.35933	797
2.36300	786
2.36667	777
2.37033	773
2.37400	771
2.37767	768
2.38133	760
2.38500	748
2.38867	735
2.39233	723
2.39600	715
2.39967	710
2.40333	703
2.40700	696
2.41067	690
2.41433	681
2.41800	668
2.42167	657
2.42533	648
2.42900	644
2.43267	645
2.43633	646
2.44000	646
2.44367	641
2.44733	635
2.45100	629
2.45467	619
2.45833	610
2.46200	602
2.46567	594
2.46933	586
2.47300	578
2.47667	570
2.48033	563
2.48400	561
2.48767	561
2.49133	563
2.49500	567
2.49867	572
2.50233	575
2.50600	573
2.50967	566
2.51333	559
2.51700	554
2.52067	548
2.52433	539
2.52800	532
2.53167	526
2.53533	522
2.53900	522
2.54267	523
2.54633	525
2.55000	528
2.55367	528
2.55733	524
2.56100	517
2.56467	511
2.56833	506
2.57200	500
2.57567	494
2.57933	487
2.58300	480
2.58667	474
2.59033	470
2.59400	468
2.59767	468
2.60133	466
2.60500	464
2.60867	462
2.61233	459
2.61600	456
2.61967	452
2.62333	451
2.62700	451
2.63067	453
2.63433	456
2.63800	458
2.64167	459
2.64533	456
2.64900	449
2.65267	443
2.65633	439
2.66000	436
2.66367	436
2.66733	436
2.67100	439
2.67467	443
2.67833	446
2.68200	445
2.68567	439
2.68933	433
2.69300	428
2.69667	426
2.70033	425
2.70400	428
2.70767	432
2.71133	435
2.71500	438
2.71867	441
2.72233	440
2.72600	438
2.72967	434
2.73333	429
2.73700	423
2.74067	419
2.74433	418
2.74800	418
2.75167	417
2.75533	416
2.75900	414
2.76267	414
2.76633	414
2.77000	412
2.77367	410
2.77733	412
2.78100	415
2.78467	415
2.78833	413
2.79200	412
2.79567	414
2.79933	414
2.80300	410
2.80667	406
2.81033	406
2.81400	411
2.81767	416
2.82133	415
2.82500	409
2.82867	402
2.83233	395
2.83600	391
2.83967	390
2.84333	391
2.84700	395
2.85067	398
2.85433	397
2.85800	393
2.86167	390
2.86533	390
2.86900	390
2.87267	391
2.87633	389
2.88000	385
2.88367	383
2.88733	384
2.89100	386
2.89467	386
2.89833	384
2.90200	383
2.90567	383
2.90933	383
2.91300	386
2.91667	390
2.92033	392
2.92400	393
2.92767	397
2.93133	399
2.93500	399
2.93867	396
2.94233	390
2.94600	383
2.94967	379
2.95333	380
2.95700	385
2.96067	390
2.96433	393
2.96800	392
2.97167	388
2.97533	386
2.97900	386
2.98267	385
2.98633	387
2.99000	392
2.99367	398
2.99733	403
3.00100	405
3.00467	405
3.00833	402
3.01200	399
3.01567	396
3.01933	393
3.02300	388
3.02667	382
3.03033	379
3.03400	380
3.03767	382
3.04133	385
3.04500	390
3.04867	392
3.05233	389
3.05600	384
3.05967	380
3.06333	376
3.06700	374
3.07067	374
3.07433	376
3.07800	373
3.08167	369
3.08533	366
3.08900	363
3.09267	364
3.09633	365
3.10000	364
3.10367	363
3.10733	364
3.11100	364
3.11467	366
3.11833	367
3.12200	364
3.12567	358
3.12933	354
3.13300	354
3.13667	355
3.14033	355
3.14400	352
3.14767	348
3.15133	346
3.15500	347
3.15867	349
3.16233	351
3.16600	357
3.16967	366
3.17333	371
3.17700	371
3.18067	365
3.18433	360
3.18800	356
3.19167	349
3.19533	340
3.19900	333
3.20267	333
3.20633	338
3.21000	343
3.21367	345
3.21733	345
3.22100	345
3.22467	350
3.22833	360
3.23200	367
3.23567	365
3.23933	356
3.24300	344
3.24667	334
3.25033	326
3.25400	323
3.25767	321
3.26133	319
3.26500	317
3.26867	316
3.27233	315
3.27600	317
3.27967	322
3.28333	329
3.28700	335
3.29067	336
3.29433	335
3.29800	334
3.30167	334
3.30533	335
3.30900	336
3.31267	335
3.31633	334
3.32000	336
3.32367	338
3.32733	339
3.33100	339
3.33467	336
3.33833	334
3.34200	330
3.34567	324
3.34933	318
3.35300	318
3.35667	322
3.36033	324
3.36400	323
3.36767	322
3.37133	323
3.37500	328
3.37867	333
3.38233	337
3.38600	337
3.38967	333
3.39333	328
3.39700	324
3.40067	322
3.40433	321
3.40800	321
3.41167	325
3.41533	331
3.41900	336
3.42267	340
3.42633	340
3.43000	335
3.43367	329
3.43733	324
3.44100	321
3.44467	321
3.44833	320
3.45200	319
3.45567	319
3.45933	317
3.46300	317
3.46667	317
3.47033	317
3.47400	316
3.47767	312
3.48133	309
3.48500	307
3.48867	309
3.49233	311
3.49600	311
3.49967	311
3.50333	313
3.50700	315
3.51067	317
3.51433	320
3.51800	322
3.52167	321
3.52533	316
3.52900	312
3.53267	310
3.53633	307
3.54000	306
3.54367	307
3.54733	311
3.55100	315
3.55467	321
3.55833	324
3.56200	321
3.56567	312
3.56933	304
3.57300	299
3.57667	295
3.58033	292
3.58400	292
3.58767	295
3.59133	299
3.59500	301
3.59867	301
3.60233	300
3.60600	298
3.60967	296
3.61333	294
3.61700	297
3.62067	304
3.62433	311
3.62800	313
3.63167	312
3.63533	310
3.63900	305
3.64267	299
3.64633	296
3.65000	299
3.65367	303
3.65733	307
3.66100	308
3.66467	308
3.66833	309
3.67200	310
3.67567	310
3.67933	308
3.68300	306
3.68667	305
3.69033	299
3.69400	293
3.69767	287
3.70133	284
3.70500	285
3.70867	290
3.71233	295
3.71600	299
3.71967	302
3.72333	304
3.72700	303
3.73067	303
3.73433	303
3.73800	304
3.74167	306
3.74533	309
3.74900	313
3.75267	313
3.75633	311
3.76000	307
3.76367	299
3.76733	291
3.77100	287
3.77467	286
3.77833	287
3.78200	285
3.78567	282
3.78933	282
3.79300	283
3.79667	284
3.80033	283
3.80400	285
3.80767	290
3.81133	288
3.81500	280
3.81867	269
3.82233	262
3.82600	258
3.82967	258
3.83333	259
3.83700	261
3.84067	262
3.84433	262
3.84800	261
3.85167	262
3.85533	265
3.85900	268
3.86267	273
3.86633	277
3.87000	273
3.87367	270
3.87733	268
3.88100	266
3.88467	264
3.88833	263
3.89200	262
3.89567	262
3.89933	262
3.90300	260
3.90667	257
3.91033	253
3.91400	252
3.91767	255
3.92133	259
3.92500	263
3.92867	265
3.93233	264
3.93600	261
3.93967	261
3.94333	260
3.94700	257
3.95067	256
3.95433	255
3.95800	256
3.96167	260
3.96533	263
3.96900	264
3.97267	261
3.97633	257
3.98000	251
3.98367	246
3.98733	245
3.99100	246
3.99467	248
3.99833	250

[Chromatogram (Ch2)]
Interval(msec)	220
# of Points	1091
Start Time(min)	0.002
End Time(min)	3.998
R.Time (min)	Intensity
0.00167	-1
0.00533	-1
0.00900	-1
0.01267	-1
0.01633	-1
0.02000	-1
0.02367	-0
0.02733	-0
0.03100	-0
0.03467	0
0.03833	0
0.04200	0
0.04567	-0
0.04933	-0
0.05300	0
0.05667	0
0.06033	0
0.06400	-0
0.06767	-0
0.07133	-0
0.07500	-1
0.07867	-1
0.08233	-1
0.08600	-1
0.08967	-1
0.09333	-0
0.09700	-0
0.10067	-0
0.10433	0
0.10800	1
0.11167	1
0.11533	1
0.11900	1
0.12267	2
0.12633	2
0.13000	2
0.13367	2
0.13733	2
0.14100	2
0.14467	2
0.14833	2
0.15200	1
0.15567	1
0.15933	1
0.16300	1
0.16667	1
0.17033	1
0.17400	1
0.17767	1
0.18133	1
0.18500	1
0.18867	0
0.19233	0
0.19600	0
0.19967	-0
0.20333	-0
0.20700	0
0.21067	0
0.21433	0
0.21800	0
0.22167	0
0.22533	0
0.22900	0
0.23267	0
0.23633	0
0.24000	0
0.24367	0
0.24733	0
0.25100	0
0.25467	0
0.25833	0
0.26200	0
0.26567	-0
0.26933	-0
0.27300	-0
0.27667	-0
0.28033	-0
0.28400	-0
0.28767	-0
0.29133	-0
0.29500	-0
0.29867	-1
0.30233	-1
0.30600	-1
0.30967	-1
0.31333	-1
0.31700	-1
0.32067	-1
0.32433	-1
0.32800	-1
0.33167	-1
0.33533	-1
0.33900	-1
0.34267	-1
0.34633	-0
0.35000	-0
0.35367	0
0.35733	0
0.36100	1
0.36467	1
0.36833	1
0.37200	0
0.37567	0
0.37933	0
0.38300	0
0.38667	0
0.39033	-0
0.39400	-0
0.39767	-0
0.40133	-1
0.40500	-1
0.40867	-1
0.41233	-1
0.41600	-1
0.41967	-1
0.42333	-1
0.42700	-1
0.43067	-1
0.43433	-1
0.43800	-1
0.44167	-1
0.44533	-1
0.44900	-1
0.45267	-1
0.45633	-1
0.46000	-1
0.46367	-1
0.46733	-1
0.47100	-1
0.47467	-1
0.47833	-1
0.48200	-1
0.48567	-1
0.48933	-2
0.49300	-2
0.49667	-2
0.50033	-2
0.50400	-1
0.50767	-2
0.51133	-2
0.51500	-2
0.51867	-2
0.52233	-2
0.52600	-2
0.52967	-2
0.53333	-2
0.53700	-2
0.54067	-2
0.54433	-3
0.54800	-3
0.55167	-3
0.55533	-3
0.55900	-3
0.56267	-3
0.56633	-3
0.57000	-3
0.57367	-3
0.57733	-2
0.58100	-2
0.58467	-2
0.58833	-2
0.59200	-3
0.59567	-3
0.59933	-3
0.60300	-2
0.60667	-2
0.61033	-2
0.61400	-2
0.61767	-2
0.62133	-2
0.62500	-2
0.62867	-2
0.63233	-2
0.63600	-2
0.63967	-2
0.64333	-2
0.64700	-2
0.65067	-2
0.65433	-2
0.65800	-2
0.66167	-2
0.66533	-2
0.66900	-2
0.67267	-1
0.67633	-1
0.68000	-1
0.68367	-1
0.68733	-1
0.69100	-1
0.69467	-1
0.69833	-1
0.70200	-1
0.70567	-1
0.70933	-1
0.71300	-1
0.71667	-1
0.72033	-1
0.72400	-1
0.72767	-1
0.73133	-1
0.73500	-1
0.73867	-1
0.74233	-1
0.74600	-1
0.74967	-2
0.75333	-2
0.75700	-2
0.76067	-2
0.76433	-2
0.76800	-2
0.77167	-3
0.77533	-3
0.77900	-3
0.78267	-3
0.78633	-2
0.79000	-2
0.79367	-2
0.79733	-2
0.80100	-2
0.80467	-2
0.80833	-2
0.81200	-2
0.81567	-2
0.81933	-2
0.82300	-2
0.82667	-2
0.83033	-2
0.83400	-2
0.83767	-2
0.84133	-2
0.84500	-2
0.84867	-2
0.85233	-2
0.85600	-2
0.85967	-2
0.86333	-2
0.86700	-2
0.87067	-2
0.87433	-3
0.87800	-3
0.88167	-3
0.88533	-3
0.88900	-3
0.89267	-3
0.89633	-2
0.90000	-2
0.90367	-2
0.90733	-2
0.91100	-2
0.91467	-1
0.91833	-1
0.92200	-1
0.92567	-1
0.92933	-1
0.93300	-1
0.93667	-1
0.94033	-1
0.94400	-1
0.94767	-2
0.95133	-2
0.95500	-2
0.95867	-2
0.96233	-2
0.96600	-1
0.96967	-1
0.97333	-1
0.97700	-1
0.98067	-0
0.98433	-0
0.98800	-0
0.99167	-0
0.99533	-0
0.99900	-0
1.00267	-1
1.00633	-1
1.01000	-1
1.01367	-1
1.01733	-1
1.02100	-2
1.02467	-2
1.02833	-1
1.03200	-1
1.03567	-2
1.03933	-2
1.04300	-2
1.04667	-3
1.05033	-3
1.05400	-3
1.05767	-3
1.06133	-3
1.06500	-3
1.06867	-3
1.07233	-3
1.07600	-2
1.07967	-2
1.08333	-2
1.08700	-2
1.09067	-2
1.09433	-2
1.09800	-2
1.10167	-2
1.10533	-2
1.10900	-2
1.11267	-2
1.11633	-2
1.12000	-2
1.12367	-2
1.12733	-2
1.13100	-2
1.13467	-2
1.13833	-2
1.14200	-3
1.14567	-3
1.14933	-3
1.15300	-3
1.15667	-3
1.16033	-3
1.16400	-3
1.16767	-3
1.17133	-2
1.17500	-2
1.17867	-2
1.18233	-2
1.18600	-2
1.18967	-2
1.19333	-2
1.19700	-2
1.20067	-2
1.20433	-2
1.20800	-2
1.21167	-2
1.21533	-2
1.21900	-2
1.22267	-2
1.22633	-2
1.23000	-2
1.23367	-2
1.23733	-2
1.24100	-2
1.24467	-2
1.24833	-2
1.25200	-3
1.25567	-3
1.25933	-3
1.26300	-4
1.26667	-4
1.27033	-4
1.27400	-4
1.27767	-4
1.28133	-4
1.28500	-4
1.28867	-4
1.29233	-4
1.29600	-4
1.29967	-4
1.30333	-4
1.30700	-4
1.31067	-4
1.31433	-4
1.31800	-4
1.32167	-4
1.32533	-4
1.32900	-4
1.33267	-4
1.33633	-4
1.34000	-4
1.34367	-4
1.34733	-4
1.35100	-4
1.35467	-4
1.35833	-4
1.36200	-4
1.36567	-4
1.36933	-4
1.37300	-4
1.37667	-3
1.38033	-3
1.38400	-3
1.38767	-3
1.39133	-3
1.39500	-3
1.39867	-2
1.40233	-2
1.40600	-2
1.40967	-2
1.41333	-2
1.41700	-2
1.42067	-2
1.42433	-3
1.42800	-3
1.43167	-3
1.43533	-3
1.43900	-3
1.44267	-3
1.44633	-3
1.45000	-3
1.45367	-4
1.45733	-4
1.46100	-4
1.46467	-4
1.46833	-4
1.47200	-3
1.47567	-3
1.47933	-3
1.48300	-3
1.48667	-3
1.49033	-3
1.49400	-3
1.49767	-3
1.50133	-3
1.50500	-3
1.50867	-3
1.51233	-3
1.51600	-3
1.51967	-4
1.52333	-4
1.52700	-4
1.53067	-3
1.53433	-3
1.53800	-3
1.54167	-3
1.54533	-3
1.54900	-3
1.55267	-3
1.55633	-3
1.56000	-3
1.56367	-3
1.56733	-3
1.57100	-4
1.57467	-4
1.57833	-4
1.58200	-4
1.58567	-4
1.58933	-4
1.59300	-4
1.59667	-4
1.60033	-5
1.60400	-6
1.60767	-7
1.61133	-9
1.61500	-11
1.61867	-13
1.62233	-16
1.62600	-19
1.62967	-22
1.63333	-25
1.63700	-28
1.64067	-32
1.64433	-35
1.64800	-39
1.65167	-43
1.65533	-47
1.65900	-51
1.66267	-55
1.66633	-59
1.67000	-63
1.67367	-68
1.67733	-73
1.68100	-78
1.68467	-84
1.68833	-89
1.69200	-93
1.69567	-97
1.69933	-101
1.70300	-103
1.70667	-106
1.71033	-108
1.71400	-109
1.71767	-110
1.72133	-111
1.72500	-112
1.72867	-112
1.73233	-113
1.73600	-113
1.73967	-113
1.74333	-114
1.74700	-114
1.75067	-115
1.75433	-116
1.75800	-116
1.76167	-117
1.76533	-117
1.76900	-117
1.77267	-118
1.77633	-118
1.78000	-118
1.78367	-119
1.78733	-119
1.79100	-119
1.79467	-119
1.79833	-120
1.80200	-121
1.80567	-121
1.80933	-121
1.81300	-121
1.81667	-121
1.82033	-121
1.82400	-121
1.82767	-121
1.83133	-121
1.83500	-122
1.83867	-122
1.84233	-123
1.84600	-123
1.84967	-122
1.85333	-122
1.85700	-122
1.86067	-121
1.86433	-121
1.86800	-121
1.87167	-120
1.87533	-120
1.87900	-120
1.88267	-120
1.88633	-120
1.89000	-120
1.89367	-120
1.89733	-119
1.90100	-119
1.90467	-119
1.90833	-119
1.91200	-119
1.91567	-119
1.91933	-119
1.92300	-120
1.92667	-120
1.93033	-119
1.93400	-119
1.93767	-118
1.94133	-118
1.94500	-117
1.94867	-117
1.95233	-117
1.95600	-116
1.95967	-116
1.96333	-116
1.96700	-116
1.97067	-116
1.97433	-116
1.97800	-116
1.98167	-115
1.98533	-114
1.98900	-112
1.99267	-112
1.99633	-111
2.00000	-111
2.00367	-111
2.00733	-111
2.01100	-111
2.01467	-112
2.01833	-112
2.02200	-111
2.02567	-111
2.02933	-111
2.03300	-110
2.03667	-109
2.04033	-109
2.04400	-109
2.04767	-108
2.05133	-108
2.05500	-108
2.05867	-108
2.06233	-109
2.06600	-109
2.06967	-109
2.07333	-109
2.07700	-109
2.08067	-108
2.08433	-108
2.08800	-108
2.09167	-108
2.09533	-108
2.09900	-108
2.10267	-108
2.10633	-107
2.11000	-106
2.11367	-106
2.11733	-105
2.12100	-105
2.12467	-105
2.12833	-104
2.13200	-104
2.13567	-104
2.13933	-103
2.14300	-102
2.14667	-101
2.15033	-100
2.15400	-100
2.15767	-100
2.16133	-99
2.16500	-99
2.16867	-99
2.17233	-99
2.17600	-99
2.17967	-99
2.18333	-98
2.18700	-98
2.19067	-97
2.19433	-96
2.19800	-96
2.20167	-96
2.20533	-96
2.20900	-96
2.21267	-96
2.21633	-95
2.22000	-95
2.22367	-95
2.22733	-94
2.23100	-94
2.23467	-93
2.23833	-93
2.24200	-94
2.24567	-94
2.24933	-94
2.25300	-93
2.25667	-93
2.26033	-93
2.26400	-93
2.26767	-92
2.27133	-92
2.27500	-92
2.27867	-91
2.28233	-91
2.28600	-90
2.28967	-90
2.29333	-89
2.29700	-89
2.30067	-89
2.30433	-90
2.30800	-91
2.31167	-91
2.31533	-92
2.31900	-91
2.32267	-91
2.32633	-91
2.33000	-90
2.33367	-89
2.33733	-87
2.34100	-86
2.34467	-84
2.34833	-83
2.35200	-81
2.35567	-79
2.35933	-77
2.36300	-75
2.36667	-74
2.37033	-72
2.37400	-70
2.37767	-67
2.38133	-64
2.38500	-62
2.38867	-59
2.39233	-55
2.39600	-52
2.39967	-48
2.40333	-44
2.40700	-40
2.41067	-37
2.41433	-34
2.41800	-31
2.42167	-29
2.42533	-26
2.42900	-24
2.43267	-22
2.43633	-20
2.44000	-18
2.44367	-16
2.44733	-14
2.45100	-12
2.45467	-11
2.45833	-9
2.46200	-8
2.46567	-7
2.46933	-5
2.47300	-3
2.47667	-1
2.48033	-0
2.48400	1
2.48767	2
2.49133	2
2.49500	3
2.49867	4
2.50233	5
2.50600	6
2.50967	7
2.51333	7
2.51700	8
2.52067	8
2.52433	9
2.52800	9
2.53167	10
2.53533	11
2.53900	12
2.54267	12
2.54633	12
2.55000	13
2.55367	13
2.55733	13
2.56100	13
2.56467	14
2.56833	14
2.57200	15
2.57567	15
2.57933	15
2.58300	15
2.58667	14
2.59033	14
2.59400	13
2.59767	12
2.60133	12
2.60500	12
2.60867	13
2.61233	13
2.61600	13
2.61967	14
2.62333	14
2.62700	15
2.63067	15
2.63433	15
2.63800	15
2.64167	15
2.64533	15
2.64900	15
2.65267	15
2.65633	15
2.66000	16
2.66367	16
2.66733	17
2.67100	17
2.67467	18
2.67833	18
2.68200	18
2.68567	18
2.68933	19
2.69300	19
2.69667	19
2.70033	19
2.70400	19
2.70767	19
2.71133	19
2.71500	20
2.71867	20
2.72233	21
2.72600	21
2.72967	22
2.73333	22
2.73700	23
2.74067	23
2.74433	23
2.74800	24
2.75167	24
2.75533	23
2.75900	23
2.76267	22
2.76633	22
2.77000	22
2.77367	22
2.77733	22
2.78100	22
2.78467	22
2.78833	22
2.79200	22
2.79567	22
2.79933	22
2.80300	22
2.80667	22
2.81033	22
2.81400	23
2.81767	23
2.82133	23
2.82500	23
2.82867	23
2.83233	23
2.83600	23
2.83967	23
2.84333	23
2.84700	22
2.85067	22
2.85433	20
2.85800	18
2.86167	13
2.86533	7
2.86900	-3
2.87267	-16
2.87633	-33
2.88000	-54
2.88367	-79
2.88733	-109
2.89100	-142
2.89467	-179
2.89833	-219
2.90200	-263
2.90567	-309
2.90933	-357
2.91300	-407
2.91667	-459
2.92033	-511
2.92400	-564
2.92767	-617
2.93133	-670
2.93500	-723
2.93867	-775
2.94233	-827
2.94600	-880
2.94967	-937
2.95333	-1000
2.95700	-1059
2.96067	-1105
2.96433	-1128
2.96800	-1124
2.97167	-1094
2.97533	-1044
2.97900	-977
2.98267	-901
2.98633	-820
2.99000	-737
2.99367	-657
2.99733	-581
3.00100	-510
3.00467	-446
3.00833	-387
3.01200	-335
3.01567	-289
3.01933	-248
3.02300	-212
3.02667	-181
3.03033	-154
3.03400	-130
3.03767	-110
3.04133	-93
3.04500	-78
3.04867	-65
3.05233	-54
3.05600	-45
3.05967	-37
3.06333	-30
3.06700	-24
3.07067	-19
3.07433	-15
3.07800	-11
3.08167	-8
3.08533	-5
3.08900	-2
3.09267	0
3.09633	2
3.10000	4
3.10367	5
3.10733	6
3.11100	7
3.11467	8
3.11833	9
3.12200	9
3.12567	10
3.12933	10
3.13300	11
3.13667	11
3.14033	11
3.14400	12
3.14767	13
3.15133	13
3.15500	14
3.15867	14
3.16233	15
3.16600	15
3.16967	15
3.17333	16
3.17700	16
3.18067	16
3.18433	16
3.18800	16
3.19167	17
3.19533	17
3.19900	17
3.20267	17
3.20633	17
3.21000	17
3.21367	17
3.21733	18
3.22100	18
3.22467	18
3.22833	18
3.23200	18
3.23567	18
3.23933	18
3.24300	18
3.24667	18
3.25033	19
3.25400	19
3.25767	19
3.26133	19
3.26500	19
3.26867	19
3.27233	19
3.27600	20
3.27967	20
3.28333	20
3.28700	20
3.29067	21
3.29433	21
3.29800	22
3.30167	22
3.30533	23
3.30900	23
3.31267	23
3.31633	23
3.32000	23
3.32367	24
3.32733	24
3.33100	24
3.33467	24
3.33833	25
3.34200	25
3.34567	25
3.34933	25
3.35300	25
3.35667	25
3.36033	25
3.36400	24
3.36767	24
3.37133	24
3.37500	24
3.37867	24
3.38233	24
3.38600	24
3.38967	24
3.39333	24
3.39700	24
3.40067	24
3.40433	24
3.40800	25
3.41167	25
3.41533	25
3.41900	25
3.42267	25
3.42633	25
3.43000	25
3.43367	25
3.43733	25
3.44100	25
3.44467	25
3.44833	25
3.45200	25
3.45567	25
3.45933	25
3.46300	24
3.46667	24
3.47033	24
3.47400	24
3.47767	24
3.48133	24
3.48500	24
3.48867	24
3.49233	24
3.49600	24
3.49967	23
3.50333	23
3.50700	23
3.51067	23
3.51433	23
3.51800	23
3.52167	23
3.52533	23
3.52900	23
3.53267	23
3.53633	23
3.54000	23
3.54367	23
3.54733	23
3.55100	23
3.55467	23
3.55833	23
3.56200	23
3.56567	23
3.56933	23
3.57300	23
3.57667	23
3.58033	23
3.58400	23
3.58767	23
3.59133	23
3.59500	24
3.59867	24
3.60233	24
3.60600	24
3.60967	24
3.61333	24
3.61700	24
3.62067	24
3.62433	24
3.62800	24
3.63167	24
3.63533	24
3.63900	23
3.64267	23
3.64633	23
3.65000	23
3.65367	23
3.65733	23
3.66100	23
3.66467	23
3.66833	23
3.67200	23
3.67567	23
3.67933	23
3.68300	22
3.68667	22
3.69033	22
3.69400	22
3.69767	22
3.70133	22
3.70500	22
3.70867	22
3.71233	23
3.71600	23
3.71967	24
3.72333	24
3.72700	24
3.73067	24
3.73433	25
3.73800	24
3.74167	24
3.74533	24
3.74900	25
3.75267	25
3.75633	25
3.76000	25
3.76367	25
3.76733	25
3.77100	25
3.77467	25
3.77833	25
3.78200	25
3.78567	25
3.78933	25
3.79300	25
3.79667	25
3.80033	25
3.80400	24
3.80767	24
3.81133	24
3.81500	24
3.81867	24
3.82233	24
3.82600	23
3.82967	23
3.83333	23
3.83700	23
3.84067	23
3.84433	24
3.84800	24
3.85167	24
3.85533	24
3.85900	24
3.86267	24
3.86633	24
3.87000	24
3.87367	24
3.87733	24
3.88100	24
3.88467	25
3.88833	25
3.89200	25
3.89567	24
3.89933	24
3.90300	24
3.90667	24
3.91033	24
3.91400	23
3.91767	23
3.92133	23
3.92500	23
3.92867	23
3.93233	23
3.93600	23
3.93967	23
3.94333	23
3.94700	22
3.95067	22
3.95433	22
3.95800	22
3.96167	23
3.96533	23
3.96900	23
3.97267	23
3.97633	23
3.98000	23
3.98367	23
3.98733	23
3.99100	23
3.99467	23
3.99833	23

[Chromatogram (Ch3)]
Interval(msec)	220
# of Points	1091
Start Time(min)	0.002
End Time(min)	3.998
R.Time (min)	Intensity
0.00167	-1
0.00533	-4
0.00900	-6
0.01267	-7
0.01633	-8
0.02000	-9
0.02367	-11
0.02733	-11
0.03100	-8
0.03467	-6
0.03833	-5
0.04200	-2
0.04567	-0
0.04933	0
0.05300	-2
0.05667	-4
0.06033	-7
0.06400	-9
0.06767	-8
0.07133	-7
0.07500	-6
0.07867	-5
0.08233	-3
0.08600	-2
0.08967	-3
0.09333	-7
0.09700	-8
0.10067	-10
0.10433	-11
0.10800	-12
0.11167	-12
0.11533	-14
0.11900	-15
0.12267	-12
0.12633	-11
0.13000	-11
0.13367	-13
0.13733	-14
0.14100	-14
0.14467	-15
0.14833	-15
0.15200	-15
0.15567	-14
0.15933	-14
0.16300	-16
0.16667	-17
0.17033	-16
0.17400	-16
0.17767	-16
0.18133	-15
0.18500	-16
0.18867	-16
0.19233	-16
0.19600	-15
0.19967	-13
0.20333	-13
0.20700	-13
0.21067	-13
0.21433	-14
0.21800	-16
0.22167	-19
0.22533	-21
0.22900	-21
0.23267	-23
0.23633	-24
0.24000	-24
0.24367	-23
0.24733	-22
0.25100	-20
0.25467	-21
0.25833	-22
0.26200	-21
0.26567	-21
0.26933	-18
0.27300	-16
0.27667	-14
0.28033	-13
0.28400	-13
0.28767	-14
0.29133	-16
0.29500	-19
0.29867	-19
0.30233	-19
0.30600	-19
0.30967	-19
0.31333	-21
0.31700	-22
0.32067	-23
0.32433	-21
0.32800	-17
0.33167	-16
0.33533	-15
0.33900	-13
0.34267	-14
0.34633	-15
0.35000	-16
0.35367	-18
0.35733	-19
0.36100	-19
0.36467	-19
0.36833	-20
0.37200	-20
0.37567	-22
0.37933	-24
0.38300	-24
0.38667	-24
0.39033	-24
0.39400	-21
0.39767	-21
0.40133	-21
0.40500	-21
0.40867	-18
0.41233	-13
0.41600	-11
0.41967	-9
0.42333	-5
0.42700	-6
0.43067	-7
0.43433	-7
0.43800	-8
0.44167	-7
0.44533	-7
0.44900	-10
0.45267	-11
0.45633	-9
0.46000	-9
0.46367	-8
0.46733	-10
0.47100	-15
0.47467	-16
0.47833	-15
0.48200	-14
0.48567	-13
0.48933	-12
0.49300	-13
0.49667	-14
0.50033	-12
0.50400	-9
0.50767	-7
0.51133	-7
0.51500	-9
0.51867	-10
0.52233	-13
0.52600	-14
0.52967	-14
0.53333	-15
0.53700	-16
0.54067	-16
0.54433	-14
0.54800	-12
0.55167	-11
0.55533	-8
0.55900	-5
0.56267	-3
0.56633	-1
0.57000	1
0.57367	0
0.57733	-1
0.58100	-1
0.58467	-1
0.58833	-1
0.59200	0
0.59567	1
0.59933	1
0.60300	2
0.60667	-1
0.61033	-3
0.61400	-4
0.61767	-4
0.62133	-6
0.62500	-7
0.62867	-9
0.63233	-10
0.63600	-11
0.63967	-10
0.64333	-10
0.64700	-6
0.65067	-4
0.65433	-6
0.65800	-6
0.66167	-5
0.66533	-6
0.66900	-8
0.67267	-8
0.67633	-7
0.68000	-8
0.68367	-9
0.68733	-8
0.69100	-7
0.69467	-9
0.69833	-9
0.70200	-8
0.70567	-7
0.70933	-7
0.71300	-7
0.71667	-6
0.72033	-4
0.72400	-4
0.72767	-5
0.73133	-7
0.73500	-8
0.73867	-10
0.74233	-13
0.74600	-15
0.74967	-15
0.75333	-12
0.75700	-10
0.76067	-8
0.76433	-9
0.76800	-9
0.77167	-12
0.77533	-14
0.77900	-16
0.78267	-18
0.78633	-17
0.79000	-16
0.79367	-14
0.79733	-10
0.80100	-8
0.80467	-8
0.80833	-10
0.81200	-12
0.81567	-11
0.81933	-12
0.82300	-12
0.82667	-12
0.83033	-14
0.83400	-16
0.83767	-15
0.84133	-15
0.84500	-14
0.84867	-12
0.85233	-13
0.85600	-17
0.85967	-17
0.86333	-14
0.86700	-12
0.87067	-12
0.87433	-11
0.87800	-9
0.88167	-8
0.88533	-8
0.88900	-11
0.89267	-14
0.89633	-15
0.90000	-13
0.90367	-11
0.90733	-8
0.91100	-3
0.91467	-1
0.91833	-4
0.92200	-6
0.92567	-8
0.92933	-11
0.93300	-14
0.93667	-12
0.94033	-11
0.94400	-14
0.94767	-15
0.95133	-13
0.95500	-13
0.95867	-15
0.96233	-16
0.96600	-15
0.96967	-14
0.97333	-12
0.97700	-12
0.98067	-14
0.98433	-14
0.98800	-13
0.99167	-14
0.99533	-16
0.99900	-19
1.00267	-21
1.00633	-20
1.01000	-18
1.01367	-16
1.01733	-14
1.02100	-15
1.02467	-15
1.02833	-17
1.03200	-20
1.03567	-19
1.03933	-19
1.04300	-16
1.04667	-15
1.05033	-15
1.05400	-15
1.05767	-15
1.06133	-15
1.06500	-13
1.06867	-14
1.07233	-16
1.07600	-16
1.07967	-18
1.08333	-21
1.08700	-21
1.09067	-22
1.09433	-22
1.09800	-20
1.10167	-19
1.10533	-19
1.10900	-21
1.11267	-22
1.11633	-23
1.12000	-25
1.12367	-25
1.12733	-25
1.13100	-24
1.13467	-21
1.13833	-19
1.14200	-17
1.14567	-16
1.14933	-18
1.15300	-19
1.15667	-20
1.16033	-20
1.16400	-21
1.16767	-21
1.17133	-19
1.17500	-18
1.17867	-18
1.18233	-17
1.18600	-15
1.18967	-14
1.19333	-13
1.19700	-13
1.20067	-13
1.20433	-13
1.20800	-16
1.21167	-17
1.21533	-17
1.21900	-19
1.22267	-20
1.22633	-19
1.23000	-20
1.23367	-22
1.23733	-24
1.24100	-24
1.24467	-23
1.24833	-21
1.25200	-18
1.25567	-17
1.25933	-18
1.26300	-18
1.26667	-19
1.27033	-21
1.27400	-22
1.27767	-24
1.28133	-23
1.28500	-23
1.28867	-23
1.29233	-20
1.29600	-19
1.29967	-22
1.30333	-23
1.30700	-24
1.31067	-26
1.31433	-29
1.31800	-30
1.32167	-28
1.32533	-25
1.32900	-21
1.33267	-20
1.33633	-21
1.34000	-22
1.34367	-23
1.34733	-25
1.35100	-28
1.35467	-29
1.35833	-25
1.36200	-24
1.36567	-22
1.36933	-24
1.37300	-28
1.37667	-31
1.38033	-34
1.38400	-34
1.38767	-32
1.39133	-29
1.39500	-26
1.39867	-23
1.40233	-24
1.40600	-25
1.40967	-26
1.41333	-26
1.41700	-23
1.42067	-21
1.42433	-21
1.42800	-24
1.43167	-28
1.43533	-28
1.43900	-27
1.44267	-27
1.44633	-26
1.45000	-28
1.45367	-28
1.45733	-27
1.46100	-28
1.46467	-29
1.46833	-29
1.47200	-28
1.47567	-25
1.47933	-24
1.48300	-24
1.48667	-25
1.49033	-25
1.49400	-26
1.49767	-26
1.50133	-30
1.50500	-33
1.50867	-30
1.51233	-30
1.51600	-29
1.51967	-30
1.52333	-30
1.52700	-31
1.53067	-31
1.53433	-29
1.53800	-29
1.54167	-31
1.54533	-31
1.54900	-30
1.55267	-27
1.55633	-27
1.56000	-27
1.56367	-28
1.56733	-29
1.57100	-30
1.57467	-28
1.57833	-26
1.58200	-27
1.58567	-29
1.58933	-28
1.59300	-29
1.59667	-29
1.60033	-26
1.60400	-23
1.60767	-20
1.61133	-21
1.61500	-25
1.61867	-28
1.62233	-31
1.62600	-32
1.62967	-31
1.63333	-29
1.63700	-27
1.64067	-28
1.64433	-29
1.64800	-28
1.65167	-29
1.65533	-29
1.65900	-29
1.66267	-29
1.66633	-30
1.67000	-30
1.67367	-25
1.67733	-22
1.68100	-19
1.68467	-18
1.68833	-19
1.69200	-19
1.69567	-19
1.69933	-19
1.70300	-19
1.70667	-20
1.71033	-18
1.71400	-16
1.71767	-18
1.72133	-17
1.72500	-16
1.72867	-15
1.73233	-15
1.73600	-16
1.73967	-17
1.74333	-16
1.74700	-13
1.75067	-11
1.75433	-11
1.75800	-13
1.76167	-14
1.76533	-14
1.76900	-13
1.77267	-13
1.77633	-10
1.78000	-10
1.78367	-11
1.78733	-12
1.79100	-12
1.79467	-9
1.79833	-8
1.80200	-8
1.80567	-8
1.80933	-9
1.81300	-8
1.81667	-10
1.82033	-8
1.82400	-6
1.82767	-3
1.83133	-3
1.83500	-3
1.83867	-2
1.84233	3
1.84600	5
1.84967	4
1.85333	1
1.85700	-1
1.86067	1
1.86433	6
1.86800	5
1.87167	2
1.87533	1
1.87900	2
1.88267	4
1.88633	7
1.89000	9
1.89367	10
1.89733	10
1.90100	11
1.90467	13
1.90833	12
1.91200	11
1.91567	12
1.91933	14
1.92300	17
1.92667	19
1.93033	22
1.93400	22
1.93767	22
1.94133	21
1.94500	21
1.94867	22
1.95233	23
1.95600	26
1.95967	29
1.96333	31
1.96700	30
1.97067	28
1.97433	26
1.97800	28
1.98167	29
1.98533	31
1.98900	34
1.99267	35
1.99633	36
2.00000	38
2.00367	42
2.00733	41
2.01100	41
2.01467	43
2.01833	44
2.02200	47
2.02567	52
2.02933	51
2.03300	50
2.03667	47
2.04033	45
2.04400	47
2.04767	49
2.05133	48
2.05500	48
2.05867	48
2.06233	49
2.06600	50
2.06967	50
2.07333	52
2.07700	56
2.08067	59
2.08433	61
2.08800	63
2.09167	61
2.09533	62
2.09900	62
2.10267	60
2.10633	61
2.11000	63
2.11367	64
2.11733	65
2.12100	65
2.12467	66
2.12833	66
2.13200	66
2.13567	69
2.13933	71
2.14300	72
2.14667	70
2.15033	68
2.15400	70
2.15767	73
2.16133	75
2.16500	77
2.16867	77
2.17233	78
2.17600	80
2.17967	84
2.18333	82
2.18700	83
2.19067	84
2.19433	87
2.19800	90
2.20167	92
2.20533	92
2.20900	91
2.21267	94
2.21633	95
2.22000	95
2.22367	94
2.22733	93
2.23100	92
2.23467	95
2.23833	99
2.24200	101
2.24567	103
2.24933	105
2.25300	109
2.25667	112
2.26033	112
2.26400	112
2.26767	112
2.27133	110
2.27500	111
2.27867	112
2.28233	111
2.28600	113
2.28967	117
2.29333	120
2.29700	120
2.30067	121
2.30433	124
2.30800	127
2.31167	127
2.31533	125
2.31900	126
2.32267	129
2.32633	134
2.33000	141
2.33367	143
2.33733	141
2.34100	141
2.34467	141
2.34833	142
2.35200	143
2.35567	144
2.35933	145
2.36300	145
2.36667	145
2.37033	148
2.37400	155
2.37767	158
2.38133	158
2.38500	155
2.38867	153
2.39233	154
2.39600	158
2.39967	160
2.40333	164
2.40700	165
2.41067	166
2.41433	167
2.41800	168
2.42167	170
2.42533	170
2.42900	169
2.43267	169
2.43633	172
2.44000	174
2.44367	193
2.44733	242
2.45100	293
2.45467	328
2.45833	335
2.46200	327
2.46567	318
2.46933	307
2.47300	291
2.47667	268
2.48033	240
2.48400	213
2.48767	189
2.49133	169
2.49500	154
2.49867	147
2.50233	145
2.50600	146
2.50967	144
2.51333	143
2.51700	139
2.52067	130
2.52433	116
2.52800	101
2.53167	83
2.53533	70
2.53900	61
2.54267	53
2.54633	45
2.55000	40
2.55367	34
2.55733	31
2.56100	30
2.56467	34
2.56833	36
2.57200	34
2.57567	32
2.57933	33
2.58300	38
2.58667	42
2.59033	47
2.59400	51
2.59767	55
2.60133	59
2.60500	58
2.60867	52
2.61233	38
2.61600	17
2.61967	-11
2.62333	-40
2.62700	-71
2.63067	-103
2.63433	-134
2.63800	-161
2.64167	-183
2.64533	-203
2.64900	-215
2.65267	-222
2.65633	-226
2.66000	-226
2.66367	-224
2.66733	-219
2.67100	-212
2.67467	-208
2.67833	-203
2.68200	-195
2.68567	-185
2.68933	-175
2.69300	-167
2.69667	-158
2.70033	-148
2.70400	-136
2.70767	-126
2.71133	-121
2.71500	-117
2.71867	-114
2.72233	-108
2.72600	-102
2.72967	-95
2.73333	-88
2.73700	-82
2.74067	-79
2.74433	-74
2.74800	-69
2.75167	-63
2.75533	-61
2.75900	-59
2.76267	-56
2.76633	-52
2.77000	-50
2.77367	-49
2.77733	-49
2.78100	-47
2.78467	-43
2.78833	-38
2.79200	-35
2.79567	-31
2.79933	-29
2.80300	-29
2.80667	-26
2.81033	-22
2.81400	-21
2.81767	-17
2.82133	-14
2.82500	-11
2.82867	-0
2.83233	24
2.83600	78
2.83967	184
2.84333	366
2.84700	651
2.85067	1049
2.85433	1560
2.85800	2164
2.86167	2820
2.86533	3484
2.86900	4098
2.87267	4606
2.87633	4970
2.88000	5177
2.88367	5226
2.88733	5132
2.89100	4926
2.89467	4632
2.89833	4284
2.90200	3910
2.90567	3534
2.90933	3168
2.91300	2820
2.91667	2499
2.92033	2211
2.92400	1955
2.92767	1726
2.93133	1527
2.93500	1351
2.93867	1197
2.94233	1065
2.94600	951
2.94967	853
2.95333	772
2.95700	704
2.96067	646
2.96433	600
2.96800	562
2.97167	530
2.97533	502
2.97900	481
2.98267	463
2.98633	447
2.99000	434
2.99367	422
2.99733	409
3.00100	399
3.00467	393
3.00833	387
3.01200	383
3.01567	380
3.01933	380
3.02300	378
3.02667	376
3.03033	374
3.03400	372
3.03767	367
3.04133	363
3.04500	360
3.04867	356
3.05233	352
3.05600	352
3.05967	354
3.06333	356
3.06700	358
3.07067	356
3.07433	355
3.07800	355
3.08167	354
3.08533	354
3.08900	352
3.09267	349
3.09633	346
3.10000	345
3.10367	347
3.10733	351
3.11100	353
3.11467	352
3.11833	353
3.12200	354
3.12567	355
3.12933	359
3.13300	360
3.13667	361
3.14033	364
3.14400	364
3.14767	363
3.15133	361
3.15500	359
3.15867	358
3.16233	358
3.16600	359
3.16967	362
3.17333	365
3.17700	365
3.18067	366
3.18433	365
3.18800	363
3.19167	363
3.19533	366
3.19900	366
3.20267	365
3.20633	365
3.21000	366
3.21367	368
3.21733	366
3.22100	366
3.22467	365
3.22833	364
3.23200	365
3.23567	366
3.23933	368
3.24300	370
3.24667	367
3.25033	364
3.25400	362
3.25767	359
3.26133	358
3.26500	356
3.26867	356
3.27233	356
3.27600	353
3.27967	348
3.28333	340
3.28700	336
3.29067	333
3.29433	329
3.29800	326
3.30167	323
3.30533	323
3.30900	322
3.31267	321
3.31633	318
3.32000	313
3.32367	307
3.32733	301
3.33100	296
3.33467	290
3.33833	284
3.34200	281
3.34567	276
3.34933	269
3.35300	266
3.35667	267
3.36033	269
3.36400	269
3.36767	268
3.37133	266
3.37500	261
3.37867	261
3.38233	260
3.38600	257
3.38967	256
3.39333	256
3.39700	254
3.40067	250
3.40433	246
3.40800	243
3.41167	243
3.41533	242
3.41900	238
3.42267	235
3.42633	234
3.43000	232
3.43367	233
3.43733	230
3.44100	228
3.44467	225
3.44833	223
3.45200	221
3.45567	220
3.45933	218
3.46300	216
3.46667	212
3.47033	210
3.47400	210
3.47767	206
3.48133	206
3.48500	209
3.48867	208
3.49233	207
3.49600	207
3.49967	205
3.50333	203
3.50700	202
3.51067	200
3.51433	198
3.51800	195
3.52167	194
3.52533	193
3.52900	192
3.53267	192
3.53633	194
3.54000	193
3.54367	189
3.54733	185
3.55100	185
3.55467	186
3.55833	183
3.56200	180
3.56567	177
3.56933	175
3.57300	176
3.57667	176
3.58033	175
3.58400	175
3.58767	175
3.59133	174
3.59500	173
3.59867	171
3.60233	167
3.60600	166
3.60967	166
3.61333	166
3.61700	166
3.62067	166
3.62433	168
3.62800	167
3.63167	166
3.63533	165
3.63900	161
3.64267	160
3.64633	157
3.65000	156
3.65367	156
3.65733	157
3.66100	157
3.66467	158
3.66833	159
3.67200	158
3.67567	156
3.67933	153
3.68300	152
3.68667	155
3.69033	157
3.69400	157
3.69767	155
3.70133	153
3.70500	153
3.70867	151
3.71233	146
3.71600	141
3.71967	141
3.72333	141
3.72700	139
3.73067	137
3.73433	137
3.73800	138
3.74167	138
3.74533	139
3.74900	139
3.75267	135
3.75633	134
3.76000	135
3.76367	134
3.76733	132
3.77100	134
3.77467	133
3.77833	133
3.78200	134
3.78567	132
3.78933	131
3.79300	132
3.79667	130
3.80033	127
3.80400	123
3.80767	122
3.81133	124
3.81500	125
3.81867	128
3.82233	126
3.82600	125
3.82967	124
3.83333	121
3.83700	117
3.84067	114
3.84433	113
3.84800	113
3.85167	115
3.85533	115
3.85900	114
3.86267	114
3.86633	116
3.87000	119
3.87367	119
3.87733	118
3.88100	115
3.88467	113
3.88833	111
3.89200	110
3.89567	109
3.89933	113
3.90300	115
3.90667	115
3.91033	115
3.91400	113
3.91767	108
3.92133	106
3.92500	104
3.92867	103
3.93233	103
3.93600	104
3.93967	103
3.94333	100
3.94700	101
3.95067	101
3.95433	101
3.95800	103
3.96167	103
3.96533	103
3.96900	104
3.97267	104
3.97633	105
3.98000	105
3.98367	104
3.98733	103
3.99100	103
3.99467	104
3.99833	102

[Status Trace (Column Oven Temperature)]
Interval(msec)	1000
# of Points	240
Start Time(min)	0.004
End Time(min)	3.987
Intensity Units	
Intensity Multiplier	1
R.Time (min)	Intensity
0.00360	35.01
0.02027	35.00
0.03693	35.00
0.05360	35.00
0.07027	35.00
0.08693	35.01
0.10360	35.01
0.12027	35.00
0.13693	35.00
0.15360	35.00
0.17027	34.99
0.18693	34.98
0.20360	34.99
0.22027	34.99
0.23693	34.98
0.25360	34.99
0.27027	34.99
0.28693	35.00
0.30360	34.99
0.32027	34.99
0.33693	34.99
0.35360	34.98
0.37027	34.98
0.38693	34.98
0.40360	34.99
0.42027	34.98
0.43693	34.98
0.45360	34.99
0.47027	34.99
0.48693	34.99
0.50360	35.00
0.52027	35.00
0.53693	34.99
0.55360	35.01
0.57027	35.01
0.58693	35.01
0.60360	35.01
0.62027	35.01
0.63693	35.01
0.65360	35.00
0.67027	35.00
0.68693	35.00
0.70360	34.99
0.72027	34.99
0.73693	34.98
0.75360	34.99
0.77027	34.99
0.78693	34.99
0.80360	34.99
0.82027	34.99
0.83693	34.99
0.85360	34.99
0.87027	34.99
0.88693	34.99
0.90360	34.98
0.92027	34.98
0.93693	34.99
0.95360	34.99
0.97027	34.99
0.98693	34.99
1.00360	34.99
1.02027	34.99
1.03693	34.99
1.05360	34.99
1.07027	34.99
1.08693	35.00
1.10360	35.00
1.12027	35.00
1.13693	35.00
1.15360	35.00
1.17027	34.99
1.18693	34.99
1.20360	34.99
1.22027	35.00
1.23693	34.99
1.25360	34.99
1.27027	35.00
1.28693	35.00
1.30360	35.00
1.32027	35.00
1.33693	35.00
1.35360	35.00
1.37027	35.01
1.38693	35.00
1.40360	34.99
1.42027	34.99
1.43693	35.00
1.45360	34.99
1.47027	34.99
1.48693	35.00
1.50360	35.00
1.52027	34.99
1.53693	34.99
1.55360	34.99
1.57027	34.99
1.58693	34.99
1.60360	35.04
1.62027	35.15
1.63693	35.33
1.65360	35.55
1.67027	35.86
1.68693	36.24
1.70360	36.60
1.72027	36.93
1.73693	37.26
1.75360	37.60
1.77027	37.94
1.78693	38.26
1.80360	38.60
1.82027	38.92
1.83693	39.27
1.85360	39.58
1.87027	39.90
1.88693	40.22
1.90360	40.54
1.92027	40.88
1.93693	41.21
1.95360	41.54
1.97027	41.87
1.98693	42.18
2.00360	42.51
2.02027	42.85
2.03693	43.16
2.05360	43.48
2.07027	43.81
2.08693	44.14
2.10360	44.48
2.12027	44.80
2.13693	45.13
2.15360	45.43
2.17027	45.78
2.18693	46.09
2.20360	46.43
2.22027	46.74
2.23693	47.08
2.25360	47.41
2.27027	47.74
2.28693	48.06
2.30360	48.45
2.32027	48.80
2.33693	49.10
2.35360	49.37
2.37027	49.58
2.38693	49.64
2.40360	49.63
2.42027	49.65
2.43693	49.65
2.45360	49.68
2.47027	49.67
2.48693	49.69
2.50360	49.70
2.52027	49.71
2.53693	49.72
2.55360	49.74
2.57027	49.74
2.58693	49.78
2.60360	49.80
2.62027	49.80
2.63693	49.82
2.65360	49.84
2.67027	49.85
2.68693	49.85
2.70360	49.86
2.72027	49.86
2.73693	49.85
2.75360	49.86
2.77027	49.88
2.78693	49.88
2.80360	49.88
2.82027	49.88
2.83693	49.88
2.85360	49.88
2.87027	49.89
2.88693	49.91
2.90360	49.91
2.92027	49.93
2.93693	49.95
2.95360	49.96
2.97027	49.98
2.98693	49.99
3.00360	50.00
3.02027	50.01
3.03693	50.01
3.05360	50.03
3.07027	50.04
3.08693	50.04
3.10360	50.05
3.12027	50.06
3.13693	50.06
3.15360	50.07
3.17027	50.07
3.18693	50.08
3.20360	50.08
3.22027	50.09
3.23693	50.09
3.25360	50.10
3.27027	50.11
3.28693	50.11
3.30360	50.09
3.32027	50.08
3.33693	50.07
3.35360	50.06
3.37027	50.06
3.38693	50.06
3.40360	50.06
3.42027	50.05
3.43693	50.05
3.45360	50.05
3.47027	50.05
3.48693	50.04
3.50360	50.05
3.52027	50.06
3.53693	50.05
3.55360	50.06
3.57027	50.06
3.58693	50.07
3.60360	50.06
3.62027	50.06
3.63693	50.07
3.65360	50.08
3.67027	50.09
3.68693	50.10
3.70360	50.10
3.72027	50.09
3.73693	50.08
3.75360	50.08
3.77027	50.07
3.78693	50.07
3.80360	50.07
3.82027	50.07
3.83693	50.06
3.85360	50.06
3.87027	50.05
3.88693	50.05
3.90360	50.06
3.92027	50.06
3.93693	50.07
3.95360	50.08
3.97027	50.07
3.98693	50.07

[Status Trace (Injection Unit Temperature)]
Interval(msec)	1000
# of Points	240
Start Time(min)	0.004
End Time(min)	3.987
Intensity Units	
Intensity Multiplier	1
R.Time (min)	Intensity
0.00360	99.99
0.02027	99.98
0.03693	99.98
0.05360	99.98
0.07027	99.98
0.08693	99.99
0.10360	99.98
0.12027	99.98
0.13693	99.99
0.15360	99.99
0.17027	99.98
0.18693	99.99
0.20360	99.98
0.22027	99.99
0.23693	99.98
0.25360	99.99
0.27027	99.98
0.28693	99.99
0.30360	99.99
0.32027	99.99
0.33693	99.99
0.35360	99.99
0.37027	99.99
0.38693	99.99
0.40360	99.99
0.42027	99.99
0.43693	99.99
0.45360	99.99
0.47027	99.99
0.48693	99.99
0.50360	99.99
0.52027	99.99
0.53693	99.99
0.55360	99.99
0.57027	99.99
0.58693	99.99
0.60360	99.99
0.62027	99.98
0.63693	99.98
0.65360	99.99
0.67027	99.99
0.68693	99.99
0.70360	99.99
0.72027	99.99
0.73693	99.99
0.75360	99.99
0.77027	99.99
0.78693	99.99
0.80360	99.98
0.82027	99.99
0.83693	99.99
0.85360	99.99
0.87027	99.99
0.88693	99.99
0.90360	99.99
0.92027	99.99
0.93693	99.99
0.95360	99.99
0.97027	99.99
0.98693	99.99
1.00360	99.99
1.02027	99.99
1.03693	99.99
1.05360	99.99
1.07027	99.99
1.08693	99.99
1.10360	99.99
1.12027	99.99
1.13693	99.99
1.15360	99.98
1.17027	99.99
1.18693	99.99
1.20360	99.99
1.22027	99.99
1.23693	99.99
1.25360	99.99
1.27027	99.99
1.28693	99.99
1.30360	99.99
1.32027	99.99
1.33693	99.99
1.35360	99.99
1.37027	99.98
1.38693	99.98
1.40360	99.99
1.42027	99.99
1.43693	99.99
1.45360	99.99
1.47027	99.99
1.48693	99.99
1.50360	99.99
1.52027	99.99
1.53693	99.99
1.55360	99.99
1.57027	99.99
1.58693	99.99
1.60360	99.99
1.62027	99.99
1.63693	99.99
1.65360	99.99
1.67027	99.99
1.68693	99.99
1.70360	99.99
1.72027	100.00
1.73693	99.99
1.75360	99.99
1.77027	99.99
1.78693	99.99
1.80360	99.99
1.82027	99.99
1.83693	99.99
1.85360	99.99
1.87027	99.99
1.88693	99.99
1.90360	99.99
1.92027	99.99
1.93693	99.99
1.95360	99.99
1.97027	99.98
1.98693	99.98
2.00360	99.99
2.02027	99.98
2.03693	99.99
2.05360	99.98
2.07027	99.98
2.08693	99.98
2.10360	99.98
2.12027	99.98
2.13693	99.98
2.15360	99.98
2.17027	99.98
2.18693	99.98
2.20360	99.98
2.22027	99.98
2.23693	99.98
2.25360	99.98
2.27027	99.98
2.28693	99.98
2.30360	99.98
2.32027	99.98
2.33693	99.98
2.35360	99.97
2.37027	99.97
2.38693	99.98
2.40360	99.97
2.42027	99.97
2.43693	99.98
2.45360	99.98
2.47027	99.98
2.48693	99.97
2.50360	99.97
2.52027	99.98
2.53693	99.98
2.55360	99.98
2.57027	99.98
2.58693	99.98
2.60360	99.98
2.62027	99.98
2.63693	99.98
2.65360	99.98
2.67027	99.98
2.68693	99.98
2.70360	99.98
2.72027	99.99
2.73693	99.99
2.75360	99.98
2.77027	99.99
2.78693	99.99
2.80360	99.99
2.82027	99.99
2.83693	100.00
2.85360	100.00
2.87027	100.00
2.88693	100.00
2.90360	100.00
2.92027	100.00
2.93693	100.01
2.95360	100.01
2.97027	100.01
2.98693	100.01
3.00360	100.01
3.02027	100.01
3.03693	100.01
3.05360	100.02
3.07027	100.02
3.08693	100.02
3.10360	100.02
3.12027	100.02
3.13693	100.02
3.15360	100.03
3.17027	100.03
3.18693	100.03
3.20360	100.03
3.22027	100.03
3.23693	100.03
3.25360	100.03
3.27027	100.03
3.28693	100.03
3.30360	100.04
3.32027	100.04
3.33693	100.04
3.35360	100.04
3.37027	100.04
3.38693	100.04
3.40360	100.04
3.42027	100.04
3.43693	100.04
3.45360	100.04
3.47027	100.04
3.48693	100.04
3.50360	100.05
3.52027	100.04
3.53693	100.04
3.55360	100.05
3.57027	100.04
3.58693	100.05
3.60360	100.04
3.62027	100.05
3.63693	100.04
3.65360	100.05
3.67027	100.05
3.68693	100.05
3.70360	100.05
3.72027	100.05
3.73693	100.05
3.75360	100.05
3.77027	100.04
3.78693	100.04
3.80360	100.05
3.82027	100.05
3.83693	100.05
3.85360	100.05
3.87027	100.05
3.88693	100.05
3.90360	100.05
3.92027	100.05
3.93693	100.05
3.95360	100.05
3.97027	100.06
3.98693	100.05

[Status Trace (Carrier Gas Pressure)]
Interval(msec)	1000
# of Points	240
Start Time(min)	0.004
End Time(min)	3.987
Intensity Units	
Intensity Multiplier	1
R.Time (min)	Intensity
0.00360	58.00
0.02027	56.10
0.03693	56.53
0.05360	58.69
0.07027	59.78
0.08693	58.19
0.10360	57.97
0.12027	58.01
0.13693	58.01
0.15360	58.01
0.17027	58.00
0.18693	58.00
0.20360	58.00
0.22027	58.00
0.23693	58.00
0.25360	58.00
0.27027	58.00
0.28693	58.00
0.30360	58.00
0.32027	58.00
0.33693	58.00
0.35360	58.00
0.37027	58.00
0.38693	58.00
0.40360	58.00
0.42027	58.00
0.43693	58.00
0.45360	58.00
0.47027	58.00
0.48693	58.00
0.50360	58.00
0.52027	58.00
0.53693	58.00
0.55360	58.00
0.57027	58.00
0.58693	58.00
0.60360	58.00
0.62027	58.00
0.63693	58.00
0.65360	58.00
0.67027	58.00
0.68693	58.00
0.70360	58.00
0.72027	58.00
0.73693	58.00
0.75360	58.00
0.77027	58.00
0.78693	58.00
0.80360	58.00
0.82027	58.00
0.83693	58.00
0.85360	58.00
0.87027	58.00
0.88693	58.00
0.90360	58.00
0.92027	58.00
0.93693	58.00
0.95360	58.00
0.97027	58.00
0.98693	58.00
1.00360	58.00
1.02027	58.00
1.03693	58.00
1.05360	58.00
1.07027	58.00
1.08693	58.00
1.10360	58.00
1.12027	58.00
1.13693	58.00
1.15360	58.00
1.17027	58.00
1.18693	58.00
1.20360	58.00
1.22027	58.00
1.23693	58.00
1.25360	58.00
1.27027	58.00
1.28693	58.00
1.30360	58.00
1.32027	58.00
1.33693	58.00
1.35360	58.00
1.37027	58.00
1.38693	58.00
1.40360	58.00
1.42027	58.00
1.43693	58.00
1.45360	58.00
1.47027	58.00
1.48693	58.00
1.50360	58.00
1.52027	58.00
1.53693	58.00
1.55360	58.00
1.57027	58.00
1.58693	58.00
1.60360	58.00
1.62027	58.00
1.63693	58.00
1.65360	58.00
1.67027	58.00
1.68693	58.01
1.70360	58.00
1.72027	58.00
1.73693	58.00
1.75360	58.00
1.77027	58.00
1.78693	58.00
1.80360	58.00
1.82027	58.00
1.83693	58.00
1.85360	58.00
1.87027	58.00
1.88693	58.00
1.90360	58.00
1.92027	58.00
1.93693	58.00
1.95360	58.00
1.97027	58.00
1.98693	58.00
2.00360	58.00
2.02027	58.00
2.03693	58.00
2.05360	58.00
2.07027	58.00
2.08693	58.00
2.10360	58.00
2.12027	58.00
2.13693	58.00
2.15360	58.00
2.17027	58.00
2.18693	58.00
2.20360	58.00
2.22027	58.00
2.23693	58.00
2.25360	58.00
2.27027	58.00
2.28693	58.00
2.30360	58.00
2.32027	58.00
2.33693	58.00
2.35360	58.00
2.37027	58.00
2.38693	57.99
2.40360	57.99
2.42027	58.00
2.43693	58.00
2.45360	58.00
2.47027	58.00
2.48693	58.00
2.50360	57.96
2.52027	57.99
2.53693	57.99
2.55360	58.00
2.57027	58.00
2.58693	58.00
2.60360	58.00
2.62027	58.00
2.63693	58.00
2.65360	58.00
2.67027	58.00
2.68693	58.00
2.70360	58.00
2.72027	58.00
2.73693	58.00
2.75360	58.00
2.77027	58.00
2.78693	58.00
2.80360	58.00
2.82027	58.00
2.83693	58.00
2.85360	58.00
2.87027	58.00
2.88693	58.00
2.90360	58.00
2.92027	58.00
2.93693	58.00
2.95360	58.00
2.97027	58.00
2.98693	58.00
3.00360	58.00
3.02027	58.00
3.03693	58.00
3.05360	58.00
3.07027	58.00
3.08693	58.00
3.10360	58.00
3.12027	58.00
3.13693	58.00
3.15360	58.00
3.17027	58.00
3.18693	58.00
3.20360	58.00
3.22027	58.00
3.23693	58.00
3.25360	58.00
3.27027	58.00
3.28693	58.00
3.30360	58.00
3.32027	58.00
3.33693	58.00
3.35360	58.00
3.37027	58.00
3.38693	58.00
3.40360	58.00
3.42027	58.00
3.43693	58.00
3.45360	58.00
3.47027	58.00
3.48693	58.00
3.50360	58.00
3.52027	58.00
3.53693	58.00
3.55360	58.00
3.57027	58.00
3.58693	58.00
3.60360	58.00
3.62027	58.00
3.63693	58.00
3.65360	58.00
3.67027	58.00
3.68693	58.00
3.70360	58.00
3.72027	58.00
3.73693	58.00
3.75360	58.00
3.77027	58.00
3.78693	58.00
3.80360	58.00
3.82027	58.00
3.83693	58.00
3.85360	58.00
3.87027	58.00
3.88693	58.00
3.90360	58.00
3.92027	58.00
3.93693	58.00
3.95360	58.00
3.97027	58.00
3.98693	58.00

[Status Trace (Carrier Gas Flow)]
Interval(msec)	1000
# of Points	240
Start Time(min)	0.004
End Time(min)	3.987
Intensity Units	
Intensity Multiplier	1
R.Time (min)	Intensity
0.00360	34.52
0.02027	34.59
0.03693	34.54
0.05360	34.55
0.07027	34.49
0.08693	34.52
0.10360	34.52
0.12027	34.52
0.13693	34.52
0.15360	34.52
0.17027	34.52
0.18693	34.52
0.20360	34.52
0.22027	34.52
0.23693	34.52
0.25360	34.52
0.27027	34.52
0.28693	34.52
0.30360	34.52
0.32027	34.53
0.33693	34.52
0.35360	34.52
0.37027	34.51
0.38693	34.52
0.40360	34.52
0.42027	34.52
0.43693	34.52
0.45360	34.52
0.47027	34.52
0.48693	34.52
0.50360	34.52
0.52027	34.52
0.53693	34.52
0.55360	34.52
0.57027	34.52
0.58693	34.52
0.60360	34.52
0.62027	34.52
0.63693	34.52
0.65360	34.52
0.67027	34.52
0.68693	34.52
0.70360	34.52
0.72027	34.52
0.73693	34.52
0.75360	34.52
0.77027	34.52
0.78693	34.52
0.80360	34.52
0.82027	34.52
0.83693	34.52
0.85360	34.52
0.87027	34.52
0.88693	34.52
0.90360	34.52
0.92027	34.52
0.93693	34.52
0.95360	34.52
0.97027	34.52
0.98693	34.52
1.00360	34.52
1.02027	34.52
1.03693	34.52
1.05360	34.52
1.07027	34.52
1.08693	34.52
1.10360	34.52
1.12027	34.52
1.13693	34.52
1.15360	34.52
1.17027	34.52
1.18693	34.52
1.20360	34.52
1.22027	34.52
1.23693	34.52
1.25360	34.52
1.27027	34.52
1.28693	34.52
1.30360	34.52
1.32027	34.52
1.33693	34.52
1.35360	34.52
1.37027	34.52
1.38693	34.52
1.40360	34.52
1.42027	34.52
1.43693	34.52
1.45360	34.52
1.47027	34.52
1.48693	34.52
1.50360	34.52
1.52027	34.52
1.53693	34.52
1.55360	34.52
1.57027	34.52
1.58693	34.52
1.60360	34.52
1.62027	34.52
1.63693	34.52
1.65360	34.52
1.67027	34.51
1.68693	34.52
1.70360	34.52
1.72027	34.52
1.73693	34.51
1.75360	34.52
1.77027	34.51
1.78693	34.53
1.80360	34.54
1.82027	34.53
1.83693	34.52
1.85360	34.52
1.87027	34.51
1.88693	34.52
1.90360	34.51
1.92027	34.52
1.93693	34.51
1.95360	34.52
1.97027	34.52
1.98693	34.52
2.00360	34.52
2.02027	34.52
2.03693	34.52
2.05360	34.52
2.07027	34.52
2.08693	34.52
2.10360	34.52
2.12027	34.52
2.13693	34.52
2.15360	34.52
2.17027	34.52
2.18693	34.52
2.20360	34.52
2.22027	34.52
2.23693	34.52
2.25360	34.52
2.27027	34.52
2.28693	34.52
2.30360	34.52
2.32027	34.52
2.33693	34.52
2.35360	34.52
2.37027	34.52
2.38693	34.52
2.40360	34.52
2.42027	34.52
2.43693	34.52
2.45360	34.52
2.47027	34.52
2.48693	34.52
2.50360	34.70
2.52027	34.52
2.53693	34.52
2.55360	34.52
2.57027	34.52
2.58693	34.52
2.60360	34.52
2.62027	34.52
2.63693	34.52
2.65360	34.52
2.67027	34.52
2.68693	34.52
2.70360	34.52
2.72027	34.52
2.73693	34.52
2.75360	34.52
2.77027	34.52
2.78693	34.52
2.80360	34.52
2.82027	34.52
2.83693	34.52
2.85360	34.52
2.87027	34.52
2.88693	34.52
2.90360	34.52
2.92027	34.52
2.93693	34.52
2.95360	34.52
2.97027	34.52
2.98693	34.52
3.00360	34.52
3.02027	34.52
3.03693	34.52
3.05360	34.52
3.07027	34.52
3.08693	34.52
3.10360	34.52
3.12027	34.52
3.13693	34.52
3.15360	34.52
3.17027	34.52
3.18693	34.52
3.20360	34.52
3.22027	34.52
3.23693	34.52
3.25360	34.52
3.27027	34.52
3.28693	34.52
3.30360	34.52
3.32027	34.52
3.33693	34.52
3.35360	34.52
3.37027	34.52
3.38693	34.52
3.40360	34.52
3.42027	34.51
3.43693	34.51
3.45360	34.52
3.47027	34.52
3.48693	34.51
3.50360	34.51
3.52027	34.51
3.53693	34.51
3.55360	34.51
3.57027	34.52
3.58693	34.52
3.60360	34.52
3.62027	34.52
3.63693	34.52
3.65360	34.52
3.67027	34.52
3.68693	34.52
3.70360	34.52
3.72027	34.52
3.73693	34.52
3.75360	34.52
3.77027	34.52
3.78693	34.52
3.80360	34.52
3.82027	34.52
3.83693	34.52
3.85360	34.52
3.87027	34.52
3.88693	34.52
3.90360	34.52
3.92027	34.52
3.93693	34.52
3.95360	34.52
3.97027	34.52
3.98693	34.52

[Status Trace (Column Flow)]
Interval(msec)	1000
# of Points	240
Start Time(min)	0.004
End Time(min)	3.987
Intensity Units	
Intensity Multiplier	1
R.Time (min)	Intensity
0.00360	5.57
0.02027	5.35
0.03693	5.40
0.05360	5.65
0.07027	5.78
0.08693	5.59
0.10360	5.56
0.12027	5.57
0.13693	5.57
0.15360	5.57
0.17027	5.57
0.18693	5.57
0.20360	5.57
0.22027	5.57
0.23693	5.57
0.25360	5.57
0.27027	5.57
0.28693	5.57
0.30360	5.57
0.32027	5.57
0.33693	5.57
0.35360	5.57
0.37027	5.57
0.38693	5.57
0.40360	5.57
0.42027	5.57
0.43693	5.57
0.45360	5.57
0.47027	5.57
0.48693	5.57
0.50360	5.57
0.52027	5.57
0.53693	5.57
0.55360	5.57
0.57027	5.57
0.58693	5.57
0.60360	5.57
0.62027	5.57
0.63693	5.57
0.65360	5.57
0.67027	5.57
0.68693	5.57
0.70360	5.57
0.72027	5.57
0.73693	5.57
0.75360	5.57
0.77027	5.57
0.78693	5.57
0.80360	5.57
0.82027	5.57
0.83693	5.57
0.85360	5.57
0.87027	5.57
0.88693	5.57
0.90360	5.57
0.92027	5.57
0.93693	5.57
0.95360	5.57
0.97027	5.57
0.98693	5.57
1.00360	5.57
1.02027	5.57
1.03693	5.57
1.05360	5.57
1.07027	5.57
1.08693	5.57
1.10360	5.57
1.12027	5.57
1.13693	5.57
1.15360	5.57
1.17027	5.57
1.18693	5.57
1.20360	5.57
1.22027	5.57
1.23693	5.57
1.25360	5.57
1.27027	5.57
1.28693	5.57
1.30360	5.57
1.32027	5.57
1.33693	5.57
1.35360	5.57
1.37027	5.57
1.38693	5.57
1.40360	5.57
1.42027	5.57
1.43693	5.57
1.45360	5.57
1.47027	5.57
1.48693	5.57
1.50360	5.57
1.52027	5.57
1.53693	5.57
1.55360	5.57
1.57027	5.57
1.58693	5.57
1.60360	5.57
1.62027	5.56
1.63693	5.56
1.65360	5.55
1.67027	5.54
1.68693	5.53
1.70360	5.52
1.72027	5.51
1.73693	5.50
1.75360	5.49
1.77027	5.48
1.78693	5.46
1.80360	5.46
1.82027	5.45
1.83693	5.43
1.85360	5.42
1.87027	5.42
1.88693	5.40
1.90360	5.40
1.92027	5.39
1.93693	5.37
1.95360	5.37
1.97027	5.36
1.98693	5.35
2.00360	5.34
2.02027	5.33
2.03693	5.32
2.05360	5.31
2.07027	5.30
2.08693	5.29
2.10360	5.28
2.12027	5.27
2.13693	5.26
2.15360	5.25
2.17027	5.24
2.18693	5.23
2.20360	5.22
2.22027	5.21
2.23693	5.20
2.25360	5.19
2.27027	5.18
2.28693	5.17
2.30360	5.16
2.32027	5.15
2.33693	5.14
2.35360	5.14
2.37027	5.13
2.38693	5.13
2.40360	5.13
2.42027	5.13
2.43693	5.13
2.45360	5.13
2.47027	5.13
2.48693	5.13
2.50360	5.12
2.52027	5.13
2.53693	5.13
2.55360	5.13
2.57027	5.13
2.58693	5.13
2.60360	5.13
2.62027	5.13
2.63693	5.12
2.65360	5.12
2.67027	5.12
2.68693	5.12
2.70360	5.12
2.72027	5.12
2.73693	5.12
2.75360	5.12
2.77027	5.12
2.78693	5.12
2.80360	5.12
2.82027	5.12
2.83693	5.12
2.85360	5.12
2.87027	5.12
2.88693	5.12
2.90360	5.12
2.92027	5.12
2.93693	5.12
2.95360	5.12
2.97027	5.12
2.98693	5.12
3.00360	5.12
3.02027	5.12
3.03693	5.12
3.05360	5.12
3.07027	5.12
3.08693	5.12
3.10360	5.12
3.12027	5.12
3.13693	5.12
3.15360	5.12
3.17027	5.12
3.18693	5.12
3.20360	5.12
3.22027	5.12
3.23693	5.12
3.25360	5.12
3.27027	5.12
3.28693	5.12
3.30360	5.12
3.32027	5.12
3.33693	5.12
3.35360	5.12
3.37027	5.12
3.38693	5.12
3.40360	5.12
3.42027	5.12
3.43693	5.12
3.45360	5.12
3.47027	5.12
3.48693	5.12
3.50360	5.12
3.52027	5.12
3.53693	5.12
3.55360	5.12
3.57027	5.12
3.58693	5.12
3.60360	5.12
3.62027	5.12
3.63693	5.12
3.65360	5.12
3.67027	5.12
3.68693	5.12
3.70360	5.12
3.72027	5.12
3.73693	5.12
3.75360	5.12
3.77027	5.12
3.78693	5.12
3.80360	5.12
3.82027	5.12
3.83693	5.12
3.85360	5.12
3.87027	5.12
3.88693	5.12
3.90360	5.12
3.92027	5.12
3.93693	5.12
3.95360	5.12
3.97027	5.12
3.98693	5.12

[Status Trace (Linear Velocity)]
Interval(msec)	1000
# of Points	240
Start Time(min)	0.004
End Time(min)	3.987
Intensity Units	
Intensity Multiplier	1
R.Time (min)	Intensity
0.00360	39.03
0.02027	37.78
0.03693	38.07
0.05360	39.48
0.07027	40.19
0.08693	39.15
0.10360	39.01
0.12027	39.03
0.13693	39.03
0.15360	39.03
0.17027	39.03
0.18693	39.03
0.20360	39.03
0.22027	39.03
0.23693	39.03
0.25360	39.03
0.27027	39.03
0.28693	39.03
0.30360	39.03
0.32027	39.03
0.33693	39.03
0.35360	39.03
0.37027	39.03
0.38693	39.03
0.40360	39.03
0.42027	39.03
0.43693	39.03
0.45360	39.03
0.47027	39.03
0.48693	39.03
0.50360	39.03
0.52027	39.03
0.53693	39.03
0.55360	39.03
0.57027	39.03
0.58693	39.03
0.60360	39.03
0.62027	39.03
0.63693	39.03
0.65360	39.03
0.67027	39.03
0.68693	39.03
0.70360	39.03
0.72027	39.03
0.73693	39.03
0.75360	39.03
0.77027	39.03
0.78693	39.03
0.80360	39.03
0.82027	39.03
0.83693	39.03
0.85360	39.03
0.87027	39.03
0.88693	39.03
0.90360	39.03
0.92027	39.03
0.93693	39.03
0.95360	39.03
0.97027	39.03
0.98693	39.03
1.00360	39.03
1.02027	39.03
1.03693	39.03
1.05360	39.03
1.07027	39.03
1.08693	39.03
1.10360	39.03
1.12027	39.03
1.13693	39.03
1.15360	39.03
1.17027	39.03
1.18693	39.03
1.20360	39.03
1.22027	39.03
1.23693	39.03
1.25360	39.03
1.27027	39.03
1.28693	39.03
1.30360	39.03
1.32027	39.03
1.33693	39.03
1.35360	39.03
1.37027	39.03
1.38693	39.03
1.40360	39.03
1.42027	39.03
1.43693	39.03
1.45360	39.03
1.47027	39.03
1.48693	39.03
1.50360	39.03
1.52027	39.03
1.53693	39.03
1.55360	39.03
1.57027	39.03
1.58693	39.03
1.60360	39.03
1.62027	39.02
1.63693	39.00
1.65360	38.98
1.67027	38.95
1.68693	38.91
1.70360	38.88
1.72027	38.85
1.73693	38.81
1.75360	38.78
1.77027	38.75
1.78693	38.72
1.80360	38.69
1.82027	38.66
1.83693	38.62
1.85360	38.59
1.87027	38.56
1.88693	38.53
1.90360	38.51
1.92027	38.47
1.93693	38.44
1.95360	38.41
1.97027	38.38
1.98693	38.35
2.00360	38.32
2.02027	38.29
2.03693	38.26
2.05360	38.23
2.07027	38.20
2.08693	38.17
2.10360	38.14
2.12027	38.11
2.13693	38.08
2.15360	38.05
2.17027	38.02
2.18693	37.99
2.20360	37.96
2.22027	37.94
2.23693	37.90
2.25360	37.88
2.27027	37.85
2.28693	37.81
2.30360	37.79
2.32027	37.75
2.33693	37.72
2.35360	37.70
2.37027	37.68
2.38693	37.67
2.40360	37.67
2.42027	37.67
2.43693	37.67
2.45360	37.67
2.47027	37.67
2.48693	37.67
2.50360	37.64
2.52027	37.66
2.53693	37.66
2.55360	37.67
2.57027	37.67
2.58693	37.66
2.60360	37.66
2.62027	37.66
2.63693	37.66
2.65360	37.66
2.67027	37.66
2.68693	37.66
2.70360	37.66
2.72027	37.65
2.73693	37.66
2.75360	37.66
2.77027	37.65
2.78693	37.65
2.80360	37.65
2.82027	37.65
2.83693	37.65
2.85360	37.65
2.87027	37.65
2.88693	37.65
2.90360	37.65
2.92027	37.65
2.93693	37.65
2.95360	37.65
2.97027	37.64
2.98693	37.64
3.00360	37.64
3.02027	37.64
3.03693	37.64
3.05360	37.64
3.07027	37.64
3.08693	37.64
3.10360	37.64
3.12027	37.64
3.13693	37.64
3.15360	37.64
3.17027	37.64
3.18693	37.64
3.20360	37.64
3.22027	37.64
3.23693	37.63
3.25360	37.63
3.27027	37.63
3.28693	37.63
3.30360	37.63
3.32027	37.64
3.33693	37.64
3.35360	37.64
3.37027	37.64
3.38693	37.64
3.40360	37.64
3.42027	37.64
3.43693	37.64
3.45360	37.64
3.47027	37.64
3.48693	37.64
3.50360	37.64
3.52027	37.64
3.53693	37.64
3.55360	37.64
3.57027	37.64
3.58693	37.64
3.60360	37.64
3.62027	37.64
3.63693	37.64
3.65360	37.64
3.67027	37.63
3.68693	37.63
3.70360	37.63
3.72027	37.63
3.73693	37.64
3.75360	37.64
3.77027	37.64
3.78693	37.64
3.80360	37.64
3.82027	37.64
3.83693	37.64
3.85360	37.64
3.87027	37.64
3.88693	37.64
3.90360	37.64
3.92027	37.64
3.93693	37.64
3.95360	37.64
3.97027	37.64
3.98693	37.64

