[Header]
Application Name	LabSolutions
Version	5.110
Data File Name	C:\Users\User\Desktop\GC Analyses\Jack\UIC Prairie Sampling\10.19.22\221019_029.gcd
Output Date	1/4/2023
Output Time	2:27:27 PM

[File Information]
Type	Data File
Generated	12/6/2022 9:56:57 AM
Generated by	System Administrator
Modified	12/6/2022 10:01:14 AM
Modified by	System Administrator

[Sample Information]
Operator Name	System Administrator
Acquired	12/6/2022 9:57:14 AM
Sample Type	1:Standard
Level	1
Sample Name	221019_UICPrairie
Sample ID	221019_UICPrairie
ISTD Amount1	1
ISTD Amount2	1
ISTD Amount3	1
ISTD Amount4	1
ISTD Amount5	1
ISTD Amount6	1
ISTD Amount7	1
ISTD Amount8	1
ISTD Amount9	1
ISTD Amount10	1
ISTD Amount11	1
ISTD Amount12	1
ISTD Amount13	1
ISTD Amount14	1
ISTD Amount15	1
ISTD Amount16	1
ISTD Amount17	1
ISTD Amount18	1
ISTD Amount19	1
ISTD Amount20	1
ISTD Amount21	1
ISTD Amount22	1
ISTD Amount23	1
ISTD Amount24	1
ISTD Amount25	1
ISTD Amount26	1
ISTD Amount27	1
ISTD Amount28	1
ISTD Amount29	1
ISTD Amount30	1
ISTD Amount31	1
ISTD Amount32	1
Sample Amount	1
Dilution Factor	1
Vial#	1
Injection Volume	1
Injection Count	1
Bar Code	

[Original Files]
Data File	C:\Users\User\Desktop\GC Analyses\Jack\UIC Prairie Sampling\10.19.22\221019_029.gcd
Method File	C:\LabSolutions\Data\GHG_4min_2022\ghg3_togas_w_acet_4 min_new_int.gcm
Batch File	
Report Format File	c:\LabSolutions\System\DEFAULT.lsr

[File Description]


[Configuration]
Instrument Name	C0B7VH3-Instrument1
Instrument #	1
Line #	1
# of Detectors	3
Detector ID	DET#1	DET#2	DET#3
Detector Name	FID	PTCD	ECD
# of Channels	1	1	1

[Peak Table(Ch1)]
# of Peaks	3
Peak#	R.Time	I.Time	F.Time	Area	Height	A/H	Conc.	Mark	ID#	Name	k'	Plate #	Plate Ht.	Tailing	Resolution	Sep.Factor	Area Ratio	Height Ratio	Conc. %	Norm Conc.
1	1.465	1.435	1.531	3693	1205	3.064	100.000	   	1	CO	0.000	5277	28.425	0.000	0.000	0.000	0	0	16.667	16.667
2	1.567	1.531	1.652	21643	10599	2.042	100.000	 V 	2	CH4	0.070	11034	13.594	1.256	1.463	0.000	0	0	16.667	16.667
3	1.996	1.949	2.513	2152180	997607	2.157	400.000	   	3	CO2	0.363	16823	8.917	1.316	7.076	5.179	0	0	66.667	66.667

[Peak Table(Ch2)]
# of Peaks	0

[Peak Table(Ch3)]
# of Peaks	5
Peak#	R.Time	I.Time	F.Time	Area	Height	A/H	Conc.	Mark	ID#	Name	k'	Plate #	Plate Ht.	Tailing	Resolution	Sep.Factor	Area Ratio	Height Ratio	Conc. %	Norm Conc.
1	2.455	2.370	2.488	774	247	3.140	0.000	   			0.000	10876	13.792	0.000	0.000	0.000	0	0	0.000	0.000
2	2.510	2.488	2.535	467	186	2.515	0.000	 V 			0.022	3341	44.901	0.000	0.411	0.000	0	0	0.000	0.000
3	2.590	2.535	2.645	1347	310	4.346	0.000	 V 			0.055	6137	24.443	0.000	0.527	2.467	0	0	0.000	0.000
4	2.785	2.660	2.821	1985	279	7.107	0.027	   	1	N2O	0.134	387	387.629	0.000	0.556	2.432	0	0	2.701	2.701
5	2.884	2.821	3.650	71512	16861	4.241	0.973	 V 	1	N2O	0.175	12594	11.910	1.677	0.296	1.300	0	0	97.299	97.299

[Compound Results(Ch1)]
# of IDs	6
ID#	Name	R.Time	Area	Height	Conc.	Curve	3rd	2nd	1st	Constant	Area Ratio	Height Ratio	Conc. %	Norm Conc.
1	CO	1.465	3693	1205	100.000	Linear	0.000000e+00	0.000000e+00	3.693466e+001	0.000000e+00	0	0	16.667	16.667
2	CH4	1.567	21643	10599	100.000	Linear	0.000000e+00	0.000000e+00	2.164299e+002	0.000000e+00	0	0	16.667	16.667
3	CO2	1.996	2152180	997607	400.000	Linear	0.000000e+00	0.000000e+00	5.380450e+003	0.000000e+00	0	0	66.667	66.667
4	Ethylene	0.000	0	0	0.000	Linear	0.000000e+00	0.000000e+00	0.000000e+00	0.000000e+00	0	0	0.000	0.000
5	Acetylene	0.000	0	0	0.000	Linear	0.000000e+00	0.000000e+00	0.000000e+00	0.000000e+00	0	0	0.000	0.000
6	Ethane	0.000	0	0	0.000	Linear	0.000000e+00	0.000000e+00	0.000000e+00	0.000000e+00	0	0	0.000	0.000

[Compound Results(Ch2)]
# of IDs	5
ID#	Name	R.Time	Area	Height	Conc.	Curve	3rd	2nd	1st	Constant	Area Ratio	Height Ratio	Conc. %	Norm Conc.
1	Hydrogen	0.000	0	0	0.000	Linear	0.000000e+00	0.000000e+00	0.000000e+00	0.000000e+00	0	0	0.000	0.000
2	Oxygen	0.000	0	0	0.000	Linear	0.000000e+00	0.000000e+00	0.000000e+00	0.000000e+00	0	0	0.000	0.000
3	Nitrogen	0.000	0	0	0.000	Linear	0.000000e+00	0.000000e+00	0.000000e+00	0.000000e+00	0	0	0.000	0.000
4	Methane	0.000	0	0	0.000	Linear	0.000000e+00	0.000000e+00	0.000000e+00	0.000000e+00	0	0	0.000	0.000
5	Carbon Monoxide	0.000	0	0	0.000	Linear	0.000000e+00	0.000000e+00	0.000000e+00	0.000000e+00	0	0	0.000	0.000

[Compound Results(Ch3)]
# of IDs	2
ID#	Name	R.Time	Area	Height	Conc.	Curve	3rd	2nd	1st	Constant	Area Ratio	Height Ratio	Conc. %	Norm Conc.
1	N2O	2.884	73497	17140	1.000	Linear	0.000000e+00	0.000000e+00	7.349667e+004	0.000000e+00	0	0	100.000	100.000
2	SF6	0.000	0	0	0.000	Linear	0.000000e+00	0.000000e+00	0.000000e+00	0.000000e+00	0	0	0.000	0.000

[Group Results(Ch1)]
# of Groups	0

[Group Results(Ch2)]
# of Groups	0

[Group Results(Ch3)]
# of Groups	0

[Chromatogram (Ch1)]
Interval(msec)	220
# of Points	1091
Start Time(min)	0.002
End Time(min)	3.998
R.Time (min)	Intensity
0.00167	3
0.00533	1
0.00900	-0
0.01267	-1
0.01633	-1
0.02000	-3
0.02367	-2
0.02733	-2
0.03100	-2
0.03467	-2
0.03833	-5
0.04200	-8
0.04567	-10
0.04933	-13
0.05300	-17
0.05667	-21
0.06033	-22
0.06400	-22
0.06767	-20
0.07133	-15
0.07500	-10
0.07867	-9
0.08233	-11
0.08600	-13
0.08967	-10
0.09333	-2
0.09700	6
0.10067	11
0.10433	11
0.10800	8
0.11167	5
0.11533	-2
0.11900	-10
0.12267	-17
0.12633	-21
0.13000	-24
0.13367	-28
0.13733	-31
0.14100	-32
0.14467	-28
0.14833	-21
0.15200	-13
0.15567	-8
0.15933	-5
0.16300	-6
0.16667	-9
0.17033	-10
0.17400	-7
0.17767	-5
0.18133	0
0.18500	6
0.18867	13
0.19233	13
0.19600	8
0.19967	-1
0.20333	-9
0.20700	-11
0.21067	-9
0.21433	-4
0.21800	2
0.22167	5
0.22533	8
0.22900	9
0.23267	5
0.23633	1
0.24000	3
0.24367	7
0.24733	8
0.25100	5
0.25467	2
0.25833	0
0.26200	-1
0.26567	-2
0.26933	-4
0.27300	-6
0.27667	-9
0.28033	-14
0.28400	-15
0.28767	-15
0.29133	-15
0.29500	-13
0.29867	-10
0.30233	-8
0.30600	-6
0.30967	-5
0.31333	-4
0.31700	-5
0.32067	-7
0.32433	-6
0.32800	-4
0.33167	-5
0.33533	-6
0.33900	-3
0.34267	0
0.34633	2
0.35000	5
0.35367	8
0.35733	10
0.36100	8
0.36467	2
0.36833	-1
0.37200	4
0.37567	8
0.37933	11
0.38300	9
0.38667	6
0.39033	2
0.39400	-1
0.39767	-3
0.40133	-5
0.40500	-9
0.40867	-13
0.41233	-15
0.41600	-14
0.41967	-13
0.42333	-10
0.42700	-7
0.43067	-6
0.43433	-4
0.43800	-1
0.44167	3
0.44533	13
0.44900	21
0.45267	24
0.45633	21
0.46000	14
0.46367	7
0.46733	3
0.47100	-2
0.47467	-3
0.47833	-0
0.48200	5
0.48567	9
0.48933	10
0.49300	9
0.49667	7
0.50033	7
0.50400	7
0.50767	4
0.51133	4
0.51500	8
0.51867	15
0.52233	17
0.52600	10
0.52967	4
0.53333	1
0.53700	0
0.54067	-1
0.54433	-1
0.54800	-1
0.55167	-0
0.55533	1
0.55900	4
0.56267	8
0.56633	14
0.57000	19
0.57367	24
0.57733	28
0.58100	27
0.58467	23
0.58833	17
0.59200	11
0.59567	3
0.59933	0
0.60300	2
0.60667	-0
0.61033	-3
0.61400	-4
0.61767	-4
0.62133	-0
0.62500	5
0.62867	9
0.63233	9
0.63600	7
0.63967	7
0.64333	8
0.64700	7
0.65067	5
0.65433	2
0.65800	1
0.66167	-4
0.66533	-5
0.66900	-2
0.67267	3
0.67633	4
0.68000	8
0.68367	13
0.68733	17
0.69100	27
0.69467	28
0.69833	27
0.70200	26
0.70567	29
0.70933	32
0.71300	31
0.71667	23
0.72033	11
0.72400	-1
0.72767	-9
0.73133	-9
0.73500	-4
0.73867	5
0.74233	10
0.74600	17
0.74967	22
0.75333	21
0.75700	17
0.76067	16
0.76433	15
0.76800	13
0.77167	11
0.77533	11
0.77900	12
0.78267	14
0.78633	16
0.79000	16
0.79367	16
0.79733	15
0.80100	17
0.80467	18
0.80833	16
0.81200	16
0.81567	19
0.81933	23
0.82300	23
0.82667	22
0.83033	24
0.83400	24
0.83767	21
0.84133	19
0.84500	21
0.84867	25
0.85233	26
0.85600	23
0.85967	18
0.86333	16
0.86700	21
0.87067	29
0.87433	34
0.87800	36
0.88167	37
0.88533	32
0.88900	26
0.89267	20
0.89633	16
0.90000	18
0.90367	24
0.90733	29
0.91100	34
0.91467	35
0.91833	34
0.92200	31
0.92567	27
0.92933	21
0.93300	17
0.93667	17
0.94033	21
0.94400	24
0.94767	22
0.95133	17
0.95500	12
0.95867	10
0.96233	13
0.96600	20
0.96967	27
0.97333	31
0.97700	29
0.98067	23
0.98433	16
0.98800	13
0.99167	13
0.99533	13
0.99900	17
1.00267	23
1.00633	27
1.01000	28
1.01367	28
1.01733	30
1.02100	33
1.02467	32
1.02833	28
1.03200	24
1.03567	20
1.03933	14
1.04300	8
1.04667	9
1.05033	13
1.05400	15
1.05767	18
1.06133	17
1.06500	16
1.06867	16
1.07233	17
1.07600	18
1.07967	23
1.08333	32
1.08700	39
1.09067	43
1.09433	40
1.09800	36
1.10167	31
1.10533	26
1.10900	25
1.11267	31
1.11633	38
1.12000	42
1.12367	44
1.12733	43
1.13100	41
1.13467	36
1.13833	31
1.14200	29
1.14567	28
1.14933	30
1.15300	32
1.15667	33
1.16033	31
1.16400	30
1.16767	32
1.17133	37
1.17500	40
1.17867	41
1.18233	41
1.18600	42
1.18967	40
1.19333	38
1.19700	36
1.20067	37
1.20433	36
1.20800	36
1.21167	39
1.21533	39
1.21900	34
1.22267	27
1.22633	23
1.23000	18
1.23367	18
1.23733	24
1.24100	32
1.24467	37
1.24833	38
1.25200	37
1.25567	38
1.25933	41
1.26300	43
1.26667	39
1.27033	33
1.27400	26
1.27767	23
1.28133	23
1.28500	26
1.28867	31
1.29233	33
1.29600	34
1.29967	34
1.30333	34
1.30700	36
1.31067	37
1.31433	36
1.31800	35
1.32167	34
1.32533	36
1.32900	39
1.33267	41
1.33633	43
1.34000	46
1.34367	47
1.34733	46
1.35100	43
1.35467	41
1.35833	40
1.36200	39
1.36567	39
1.36933	40
1.37300	42
1.37667	42
1.38033	41
1.38400	41
1.38767	44
1.39133	49
1.39500	51
1.39867	49
1.40233	45
1.40600	46
1.40967	49
1.41333	50
1.41700	46
1.42067	40
1.42433	38
1.42800	40
1.43167	45
1.43533	48
1.43900	68
1.44267	180
1.44633	438
1.45000	757
1.45367	1023
1.45733	1187
1.46100	1259
1.46467	1267
1.46833	1244
1.47200	1213
1.47567	1177
1.47933	1134
1.48300	1072
1.48667	985
1.49033	875
1.49400	762
1.49767	655
1.50133	562
1.50500	487
1.50867	427
1.51233	383
1.51600	352
1.51967	330
1.52333	313
1.52700	301
1.53067	294
1.53433	302
1.53800	370
1.54167	685
1.54533	1547
1.54900	3100
1.55267	5098
1.55633	7107
1.56000	8802
1.56367	10034
1.56733	10710
1.57100	10703
1.57467	9916
1.57833	8494
1.58200	6772
1.58567	5095
1.58933	3678
1.59300	2584
1.59667	1792
1.60033	1241
1.60400	869
1.60767	625
1.61133	467
1.61500	366
1.61867	301
1.62233	258
1.62600	229
1.62967	208
1.63333	191
1.63700	179
1.64067	168
1.64433	157
1.64800	151
1.65167	152
1.65533	155
1.65900	152
1.66267	143
1.66633	129
1.67000	115
1.67367	106
1.67733	103
1.68100	104
1.68467	103
1.68833	101
1.69200	96
1.69567	100
1.69933	105
1.70300	107
1.70667	106
1.71033	105
1.71400	106
1.71767	106
1.72133	105
1.72500	102
1.72867	97
1.73233	93
1.73600	98
1.73967	104
1.74333	104
1.74700	100
1.75067	96
1.75433	94
1.75800	96
1.76167	99
1.76533	103
1.76900	102
1.77267	101
1.77633	98
1.78000	95
1.78367	93
1.78733	92
1.79100	89
1.79467	87
1.79833	86
1.80200	87
1.80567	92
1.80933	101
1.81300	106
1.81667	107
1.82033	102
1.82400	94
1.82767	86
1.83133	81
1.83500	83
1.83867	89
1.84233	96
1.84600	102
1.84967	101
1.85333	97
1.85700	90
1.86067	80
1.86433	79
1.86800	82
1.87167	87
1.87533	92
1.87900	97
1.88267	99
1.88633	100
1.89000	102
1.89367	104
1.89733	103
1.90100	106
1.90467	110
1.90833	115
1.91200	116
1.91567	115
1.91933	113
1.92300	114
1.92667	119
1.93033	124
1.93400	125
1.93767	122
1.94133	115
1.94500	111
1.94867	112
1.95233	136
1.95600	316
1.95967	1369
1.96333	6169
1.96700	22735
1.97067	66371
1.97433	155101
1.97800	296162
1.98167	475606
1.98533	663525
1.98900	828174
1.99267	944783
1.99633	997783
2.00000	982055
2.00367	903980
2.00733	780884
2.01100	636410
2.01467	493316
2.01833	367535
2.02200	266253
2.02567	189705
2.02933	134382
2.03300	95570
2.03667	68819
2.04033	50547
2.04400	38069
2.04767	29500
2.05133	23541
2.05500	19322
2.05867	16273
2.06233	14015
2.06600	12290
2.06967	10948
2.07333	9872
2.07700	8989
2.08067	8255
2.08433	7636
2.08800	7108
2.09167	6654
2.09533	6258
2.09900	5907
2.10267	5590
2.10633	5300
2.11000	5037
2.11367	4801
2.11733	4589
2.12100	4397
2.12467	4222
2.12833	4059
2.13200	3906
2.13567	3763
2.13933	3628
2.14300	3502
2.14667	3385
2.15033	3278
2.15400	3179
2.15767	3084
2.16133	2993
2.16500	2906
2.16867	2822
2.17233	2742
2.17600	2668
2.17967	2600
2.18333	2536
2.18700	2477
2.19067	2417
2.19433	2359
2.19800	2307
2.20167	2259
2.20533	2208
2.20900	2156
2.21267	2107
2.21633	2062
2.22000	2021
2.22367	1982
2.22733	1943
2.23100	1911
2.23467	1882
2.23833	1851
2.24200	1818
2.24567	1783
2.24933	1749
2.25300	1719
2.25667	1690
2.26033	1657
2.26400	1632
2.26767	1614
2.27133	1592
2.27500	1569
2.27867	1547
2.28233	1523
2.28600	1497
2.28967	1473
2.29333	1452
2.29700	1437
2.30067	1427
2.30433	1413
2.30800	1399
2.31167	1384
2.31533	1363
2.31900	1337
2.32267	1308
2.32633	1283
2.33000	1262
2.33367	1241
2.33733	1219
2.34100	1202
2.34467	1192
2.34833	1187
2.35200	1183
2.35567	1181
2.35933	1177
2.36300	1168
2.36667	1155
2.37033	1141
2.37400	1130
2.37767	1122
2.38133	1110
2.38500	1096
2.38867	1084
2.39233	1074
2.39600	1065
2.39967	1057
2.40333	1051
2.40700	1042
2.41067	1030
2.41433	1021
2.41800	1011
2.42167	1007
2.42533	1000
2.42900	992
2.43267	986
2.43633	979
2.44000	974
2.44367	968
2.44733	959
2.45100	950
2.45467	950
2.45833	948
2.46200	945
2.46567	937
2.46933	928
2.47300	918
2.47667	912
2.48033	909
2.48400	903
2.48767	897
2.49133	891
2.49500	887
2.49867	885
2.50233	882
2.50600	875
2.50967	870
2.51333	866
2.51700	862
2.52067	858
2.52433	856
2.52800	855
2.53167	854
2.53533	851
2.53900	839
2.54267	821
2.54633	799
2.55000	794
2.55367	794
2.55733	792
2.56100	793
2.56467	786
2.56833	767
2.57200	763
2.57567	754
2.57933	755
2.58300	752
2.58667	755
2.59033	756
2.59400	755
2.59767	751
2.60133	745
2.60500	738
2.60867	732
2.61233	729
2.61600	728
2.61967	726
2.62333	722
2.62700	718
2.63067	714
2.63433	711
2.63800	711
2.64167	710
2.64533	705
2.64900	701
2.65267	698
2.65633	696
2.66000	696
2.66367	696
2.66733	694
2.67100	695
2.67467	696
2.67833	697
2.68200	696
2.68567	697
2.68933	696
2.69300	690
2.69667	679
2.70033	669
2.70400	659
2.70767	650
2.71133	643
2.71500	640
2.71867	642
2.72233	647
2.72600	655
2.72967	660
2.73333	663
2.73700	662
2.74067	660
2.74433	655
2.74800	650
2.75167	648
2.75533	646
2.75900	644
2.76267	642
2.76633	642
2.77000	642
2.77367	641
2.77733	639
2.78100	636
2.78467	632
2.78833	628
2.79200	625
2.79567	620
2.79933	616
2.80300	615
2.80667	616
2.81033	615
2.81400	612
2.81767	608
2.82133	604
2.82500	601
2.82867	598
2.83233	597
2.83600	598
2.83967	601
2.84333	603
2.84700	602
2.85067	602
2.85433	598
2.85800	594
2.86167	593
2.86533	593
2.86900	596
2.87267	598
2.87633	599
2.88000	600
2.88367	604
2.88733	609
2.89100	612
2.89467	606
2.89833	595
2.90200	590
2.90567	590
2.90933	587
2.91300	581
2.91667	575
2.92033	568
2.92400	563
2.92767	564
2.93133	567
2.93500	567
2.93867	563
2.94233	560
2.94600	558
2.94967	556
2.95333	557
2.95700	561
2.96067	562
2.96433	560
2.96800	564
2.97167	567
2.97533	569
2.97900	569
2.98267	563
2.98633	559
2.99000	560
2.99367	562
2.99733	563
3.00100	562
3.00467	561
3.00833	564
3.01200	570
3.01567	573
3.01933	574
3.02300	572
3.02667	570
3.03033	563
3.03400	550
3.03767	539
3.04133	532
3.04500	527
3.04867	524
3.05233	524
3.05600	529
3.05967	534
3.06333	540
3.06700	545
3.07067	548
3.07433	548
3.07800	541
3.08167	535
3.08533	532
3.08900	531
3.09267	535
3.09633	540
3.10000	545
3.10367	548
3.10733	548
3.11100	547
3.11467	544
3.11833	536
3.12200	527
3.12567	515
3.12933	504
3.13300	500
3.13667	501
3.14033	505
3.14400	513
3.14767	522
3.15133	528
3.15500	528
3.15867	524
3.16233	519
3.16600	512
3.16967	507
3.17333	503
3.17700	508
3.18067	511
3.18433	513
3.18800	513
3.19167	507
3.19533	501
3.19900	499
3.20267	500
3.20633	503
3.21000	506
3.21367	510
3.21733	509
3.22100	512
3.22467	515
3.22833	516
3.23200	518
3.23567	522
3.23933	524
3.24300	527
3.24667	528
3.25033	528
3.25400	522
3.25767	514
3.26133	506
3.26500	501
3.26867	496
3.27233	492
3.27600	496
3.27967	502
3.28333	505
3.28700	510
3.29067	517
3.29433	516
3.29800	503
3.30167	492
3.30533	493
3.30900	501
3.31267	508
3.31633	516
3.32000	522
3.32367	524
3.32733	521
3.33100	519
3.33467	516
3.33833	511
3.34200	508
3.34567	503
3.34933	503
3.35300	506
3.35667	510
3.36033	516
3.36400	521
3.36767	522
3.37133	521
3.37500	519
3.37867	520
3.38233	522
3.38600	522
3.38967	515
3.39333	507
3.39700	501
3.40067	497
3.40433	498
3.40800	503
3.41167	506
3.41533	511
3.41900	514
3.42267	515
3.42633	517
3.43000	517
3.43367	514
3.43733	509
3.44100	504
3.44467	500
3.44833	500
3.45200	502
3.45567	506
3.45933	508
3.46300	508
3.46667	507
3.47033	507
3.47400	507
3.47767	504
3.48133	504
3.48500	507
3.48867	511
3.49233	512
3.49600	518
3.49967	523
3.50333	524
3.50700	520
3.51067	514
3.51433	506
3.51800	498
3.52167	493
3.52533	491
3.52900	491
3.53267	494
3.53633	501
3.54000	512
3.54367	519
3.54733	519
3.55100	511
3.55467	500
3.55833	488
3.56200	476
3.56567	471
3.56933	471
3.57300	473
3.57667	477
3.58033	482
3.58400	486
3.58767	490
3.59133	492
3.59500	496
3.59867	498
3.60233	499
3.60600	499
3.60967	500
3.61333	502
3.61700	505
3.62067	508
3.62433	511
3.62800	515
3.63167	517
3.63533	516
3.63900	511
3.64267	506
3.64633	512
3.65000	523
3.65367	526
3.65733	523
3.66100	517
3.66467	511
3.66833	508
3.67200	509
3.67567	512
3.67933	515
3.68300	517
3.68667	515
3.69033	508
3.69400	501
3.69767	497
3.70133	499
3.70500	498
3.70867	493
3.71233	488
3.71600	487
3.71967	488
3.72333	489
3.72700	492
3.73067	498
3.73433	506
3.73800	514
3.74167	515
3.74533	514
3.74900	514
3.75267	514
3.75633	515
3.76000	513
3.76367	509
3.76733	504
3.77100	496
3.77467	489
3.77833	486
3.78200	488
3.78567	492
3.78933	496
3.79300	502
3.79667	505
3.80033	505
3.80400	501
3.80767	495
3.81133	494
3.81500	493
3.81867	491
3.82233	486
3.82600	482
3.82967	480
3.83333	485
3.83700	489
3.84067	489
3.84433	484
3.84800	478
3.85167	477
3.85533	478
3.85900	479
3.86267	480
3.86633	483
3.87000	488
3.87367	497
3.87733	503
3.88100	503
3.88467	500
3.88833	496
3.89200	492
3.89567	489
3.89933	488
3.90300	487
3.90667	488
3.91033	489
3.91400	490
3.91767	491
3.92133	491
3.92500	493
3.92867	495
3.93233	499
3.93600	506
3.93967	515
3.94333	521
3.94700	520
3.95067	515
3.95433	508
3.95800	499
3.96167	491
3.96533	487
3.96900	486
3.97267	487
3.97633	489
3.98000	490
3.98367	494
3.98733	498
3.99100	498
3.99467	494
3.99833	487

[Chromatogram (Ch2)]
Interval(msec)	220
# of Points	1091
Start Time(min)	0.002
End Time(min)	3.998
R.Time (min)	Intensity
0.00167	-12
0.00533	-15
0.00900	-19
0.01267	-23
0.01633	-26
0.02000	-30
0.02367	-34
0.02733	-37
0.03100	-41
0.03467	-44
0.03833	-48
0.04200	-51
0.04567	-55
0.04933	-58
0.05300	-62
0.05667	-65
0.06033	-68
0.06400	-71
0.06767	-74
0.07133	-77
0.07500	-80
0.07867	-83
0.08233	-86
0.08600	-89
0.08967	-92
0.09333	-95
0.09700	-98
0.10067	-101
0.10433	-104
0.10800	-107
0.11167	-110
0.11533	-113
0.11900	-117
0.12267	-120
0.12633	-124
0.13000	-127
0.13367	-130
0.13733	-134
0.14100	-137
0.14467	-141
0.14833	-144
0.15200	-147
0.15567	-150
0.15933	-154
0.16300	-157
0.16667	-160
0.17033	-164
0.17400	-167
0.17767	-171
0.18133	-174
0.18500	-178
0.18867	-181
0.19233	-185
0.19600	-188
0.19967	-191
0.20333	-195
0.20700	-198
0.21067	-202
0.21433	-205
0.21800	-208
0.22167	-212
0.22533	-215
0.22900	-218
0.23267	-221
0.23633	-224
0.24000	-227
0.24367	-230
0.24733	-233
0.25100	-237
0.25467	-240
0.25833	-243
0.26200	-246
0.26567	-250
0.26933	-253
0.27300	-256
0.27667	-259
0.28033	-262
0.28400	-265
0.28767	-268
0.29133	-271
0.29500	-274
0.29867	-277
0.30233	-280
0.30600	-283
0.30967	-286
0.31333	-290
0.31700	-293
0.32067	-296
0.32433	-299
0.32800	-302
0.33167	-306
0.33533	-309
0.33900	-312
0.34267	-315
0.34633	-319
0.35000	-322
0.35367	-325
0.35733	-328
0.36100	-331
0.36467	-334
0.36833	-337
0.37200	-340
0.37567	-344
0.37933	-347
0.38300	-350
0.38667	-354
0.39033	-357
0.39400	-360
0.39767	-363
0.40133	-366
0.40500	-370
0.40867	-373
0.41233	-376
0.41600	-379
0.41967	-382
0.42333	-385
0.42700	-388
0.43067	-391
0.43433	-394
0.43800	-398
0.44167	-401
0.44533	-404
0.44900	-407
0.45267	-410
0.45633	-412
0.46000	-415
0.46367	-418
0.46733	-421
0.47100	-424
0.47467	-427
0.47833	-430
0.48200	-433
0.48567	-436
0.48933	-439
0.49300	-442
0.49667	-445
0.50033	-448
0.50400	-450
0.50767	-453
0.51133	-456
0.51500	-459
0.51867	-462
0.52233	-465
0.52600	-468
0.52967	-471
0.53333	-474
0.53700	-477
0.54067	-480
0.54433	-483
0.54800	-486
0.55167	-489
0.55533	-492
0.55900	-495
0.56267	-498
0.56633	-501
0.57000	-504
0.57367	-507
0.57733	-510
0.58100	-513
0.58467	-516
0.58833	-519
0.59200	-522
0.59567	-525
0.59933	-528
0.60300	-531
0.60667	-534
0.61033	-537
0.61400	-539
0.61767	-543
0.62133	-546
0.62500	-548
0.62867	-551
0.63233	-554
0.63600	-557
0.63967	-560
0.64333	-564
0.64700	-567
0.65067	-570
0.65433	-572
0.65800	-575
0.66167	-578
0.66533	-581
0.66900	-584
0.67267	-587
0.67633	-590
0.68000	-593
0.68367	-595
0.68733	-598
0.69100	-601
0.69467	-604
0.69833	-606
0.70200	-609
0.70567	-612
0.70933	-615
0.71300	-617
0.71667	-620
0.72033	-623
0.72400	-625
0.72767	-628
0.73133	-631
0.73500	-634
0.73867	-637
0.74233	-639
0.74600	-642
0.74967	-645
0.75333	-648
0.75700	-651
0.76067	-654
0.76433	-657
0.76800	-660
0.77167	-663
0.77533	-666
0.77900	-668
0.78267	-671
0.78633	-674
0.79000	-676
0.79367	-679
0.79733	-682
0.80100	-684
0.80467	-687
0.80833	-690
0.81200	-692
0.81567	-695
0.81933	-698
0.82300	-701
0.82667	-704
0.83033	-706
0.83400	-709
0.83767	-712
0.84133	-714
0.84500	-717
0.84867	-720
0.85233	-723
0.85600	-726
0.85967	-728
0.86333	-731
0.86700	-734
0.87067	-737
0.87433	-740
0.87800	-743
0.88167	-745
0.88533	-748
0.88900	-750
0.89267	-753
0.89633	-755
0.90000	-758
0.90367	-760
0.90733	-763
0.91100	-766
0.91467	-768
0.91833	-771
0.92200	-773
0.92567	-776
0.92933	-779
0.93300	-782
0.93667	-785
0.94033	-788
0.94400	-790
0.94767	-793
0.95133	-796
0.95500	-798
0.95867	-800
0.96233	-803
0.96600	-806
0.96967	-808
0.97333	-811
0.97700	-814
0.98067	-816
0.98433	-819
0.98800	-821
0.99167	-824
0.99533	-826
0.99900	-829
1.00267	-832
1.00633	-835
1.01000	-838
1.01367	-840
1.01733	-843
1.02100	-846
1.02467	-848
1.02833	-851
1.03200	-853
1.03567	-856
1.03933	-858
1.04300	-861
1.04667	-863
1.05033	-866
1.05400	-868
1.05767	-871
1.06133	-873
1.06500	-876
1.06867	-879
1.07233	-881
1.07600	-884
1.07967	-887
1.08333	-889
1.08700	-892
1.09067	-895
1.09433	-898
1.09800	-900
1.10167	-903
1.10533	-906
1.10900	-908
1.11267	-911
1.11633	-913
1.12000	-916
1.12367	-918
1.12733	-921
1.13100	-923
1.13467	-926
1.13833	-928
1.14200	-930
1.14567	-933
1.14933	-935
1.15300	-938
1.15667	-940
1.16033	-943
1.16400	-945
1.16767	-948
1.17133	-950
1.17500	-952
1.17867	-955
1.18233	-957
1.18600	-959
1.18967	-962
1.19333	-965
1.19700	-967
1.20067	-970
1.20433	-972
1.20800	-975
1.21167	-978
1.21533	-980
1.21900	-983
1.22267	-985
1.22633	-988
1.23000	-990
1.23367	-993
1.23733	-995
1.24100	-998
1.24467	-1000
1.24833	-1003
1.25200	-1005
1.25567	-1008
1.25933	-1010
1.26300	-1013
1.26667	-1015
1.27033	-1018
1.27400	-1020
1.27767	-1022
1.28133	-1025
1.28500	-1027
1.28867	-1030
1.29233	-1032
1.29600	-1034
1.29967	-1037
1.30333	-1039
1.30700	-1041
1.31067	-1044
1.31433	-1046
1.31800	-1048
1.32167	-1051
1.32533	-1053
1.32900	-1056
1.33267	-1058
1.33633	-1061
1.34000	-1063
1.34367	-1065
1.34733	-1068
1.35100	-1070
1.35467	-1072
1.35833	-1075
1.36200	-1077
1.36567	-1080
1.36933	-1082
1.37300	-1085
1.37667	-1087
1.38033	-1090
1.38400	-1092
1.38767	-1094
1.39133	-1097
1.39500	-1099
1.39867	-1101
1.40233	-1104
1.40600	-1106
1.40967	-1109
1.41333	-1111
1.41700	-1114
1.42067	-1116
1.42433	-1119
1.42800	-1121
1.43167	-1123
1.43533	-1126
1.43900	-1128
1.44267	-1130
1.44633	-1133
1.45000	-1135
1.45367	-1138
1.45733	-1140
1.46100	-1143
1.46467	-1145
1.46833	-1148
1.47200	-1150
1.47567	-1153
1.47933	-1155
1.48300	-1156
1.48667	-1158
1.49033	-1160
1.49400	-1162
1.49767	-1164
1.50133	-1166
1.50500	-1168
1.50867	-1170
1.51233	-1172
1.51600	-1174
1.51967	-1176
1.52333	-1178
1.52700	-1180
1.53067	-1183
1.53433	-1185
1.53800	-1187
1.54167	-1189
1.54533	-1191
1.54900	-1194
1.55267	-1196
1.55633	-1199
1.56000	-1201
1.56367	-1204
1.56733	-1206
1.57100	-1208
1.57467	-1211
1.57833	-1213
1.58200	-1215
1.58567	-1218
1.58933	-1220
1.59300	-1223
1.59667	-1226
1.60033	-1229
1.60400	-1232
1.60767	-1235
1.61133	-1239
1.61500	-1243
1.61867	-1248
1.62233	-1253
1.62600	-1258
1.62967	-1263
1.63333	-1268
1.63700	-1274
1.64067	-1279
1.64433	-1285
1.64800	-1291
1.65167	-1296
1.65533	-1302
1.65900	-1308
1.66267	-1314
1.66633	-1320
1.67000	-1327
1.67367	-1334
1.67733	-1341
1.68100	-1349
1.68467	-1356
1.68833	-1364
1.69200	-1371
1.69567	-1377
1.69933	-1383
1.70300	-1388
1.70667	-1393
1.71033	-1397
1.71400	-1401
1.71767	-1405
1.72133	-1408
1.72500	-1411
1.72867	-1414
1.73233	-1416
1.73600	-1419
1.73967	-1421
1.74333	-1423
1.74700	-1424
1.75067	-1426
1.75433	-1427
1.75800	-1429
1.76167	-1431
1.76533	-1434
1.76900	-1437
1.77267	-1440
1.77633	-1444
1.78000	-1448
1.78367	-1452
1.78733	-1455
1.79100	-1459
1.79467	-1462
1.79833	-1464
1.80200	-1466
1.80567	-1468
1.80933	-1469
1.81300	-1470
1.81667	-1472
1.82033	-1473
1.82400	-1475
1.82767	-1476
1.83133	-1478
1.83500	-1481
1.83867	-1483
1.84233	-1486
1.84600	-1488
1.84967	-1491
1.85333	-1494
1.85700	-1496
1.86067	-1498
1.86433	-1500
1.86800	-1503
1.87167	-1504
1.87533	-1506
1.87900	-1508
1.88267	-1510
1.88633	-1512
1.89000	-1513
1.89367	-1515
1.89733	-1516
1.90100	-1518
1.90467	-1519
1.90833	-1521
1.91200	-1523
1.91567	-1525
1.91933	-1528
1.92300	-1530
1.92667	-1532
1.93033	-1535
1.93400	-1537
1.93767	-1539
1.94133	-1541
1.94500	-1543
1.94867	-1545
1.95233	-1547
1.95600	-1549
1.95967	-1551
1.96333	-1553
1.96700	-1554
1.97067	-1555
1.97433	-1557
1.97800	-1558
1.98167	-1560
1.98533	-1562
1.98900	-1563
1.99267	-1564
1.99633	-1566
2.00000	-1568
2.00367	-1569
2.00733	-1571
2.01100	-1573
2.01467	-1574
2.01833	-1576
2.02200	-1578
2.02567	-1580
2.02933	-1581
2.03300	-1583
2.03667	-1584
2.04033	-1586
2.04400	-1587
2.04767	-1589
2.05133	-1590
2.05500	-1592
2.05867	-1594
2.06233	-1596
2.06600	-1599
2.06967	-1601
2.07333	-1603
2.07700	-1604
2.08067	-1606
2.08433	-1607
2.08800	-1609
2.09167	-1610
2.09533	-1612
2.09900	-1613
2.10267	-1615
2.10633	-1617
2.11000	-1619
2.11367	-1621
2.11733	-1623
2.12100	-1624
2.12467	-1626
2.12833	-1628
2.13200	-1630
2.13567	-1632
2.13933	-1633
2.14300	-1635
2.14667	-1636
2.15033	-1638
2.15400	-1640
2.15767	-1641
2.16133	-1643
2.16500	-1645
2.16867	-1646
2.17233	-1648
2.17600	-1649
2.17967	-1650
2.18333	-1652
2.18700	-1653
2.19067	-1655
2.19433	-1657
2.19800	-1658
2.20167	-1660
2.20533	-1661
2.20900	-1662
2.21267	-1664
2.21633	-1666
2.22000	-1667
2.22367	-1669
2.22733	-1671
2.23100	-1673
2.23467	-1675
2.23833	-1676
2.24200	-1678
2.24567	-1679
2.24933	-1680
2.25300	-1682
2.25667	-1683
2.26033	-1685
2.26400	-1686
2.26767	-1688
2.27133	-1689
2.27500	-1690
2.27867	-1692
2.28233	-1693
2.28600	-1695
2.28967	-1697
2.29333	-1698
2.29700	-1700
2.30067	-1701
2.30433	-1703
2.30800	-1704
2.31167	-1705
2.31533	-1707
2.31900	-1708
2.32267	-1710
2.32633	-1711
2.33000	-1712
2.33367	-1713
2.33733	-1714
2.34100	-1715
2.34467	-1716
2.34833	-1717
2.35200	-1719
2.35567	-1720
2.35933	-1721
2.36300	-1722
2.36667	-1722
2.37033	-1723
2.37400	-1723
2.37767	-1722
2.38133	-1721
2.38500	-1720
2.38867	-1719
2.39233	-1717
2.39600	-1716
2.39967	-1714
2.40333	-1711
2.40700	-1709
2.41067	-1706
2.41433	-1704
2.41800	-1702
2.42167	-1701
2.42533	-1700
2.42900	-1699
2.43267	-1698
2.43633	-1697
2.44000	-1697
2.44367	-1696
2.44733	-1696
2.45100	-1695
2.45467	-1696
2.45833	-1696
2.46200	-1696
2.46567	-1697
2.46933	-1697
2.47300	-1698
2.47667	-1698
2.48033	-1699
2.48400	-1700
2.48767	-1701
2.49133	-1702
2.49500	-1703
2.49867	-1704
2.50233	-1705
2.50600	-1706
2.50967	-1707
2.51333	-1708
2.51700	-1710
2.52067	-1711
2.52433	-1712
2.52800	-1713
2.53167	-1714
2.53533	-1715
2.53900	-1717
2.54267	-1718
2.54633	-1719
2.55000	-1720
2.55367	-1722
2.55733	-1723
2.56100	-1725
2.56467	-1727
2.56833	-1728
2.57200	-1729
2.57567	-1731
2.57933	-1732
2.58300	-1733
2.58667	-1735
2.59033	-1736
2.59400	-1738
2.59767	-1739
2.60133	-1740
2.60500	-1742
2.60867	-1743
2.61233	-1745
2.61600	-1746
2.61967	-1748
2.62333	-1749
2.62700	-1751
2.63067	-1752
2.63433	-1754
2.63800	-1755
2.64167	-1757
2.64533	-1759
2.64900	-1760
2.65267	-1762
2.65633	-1763
2.66000	-1765
2.66367	-1766
2.66733	-1768
2.67100	-1770
2.67467	-1771
2.67833	-1773
2.68200	-1774
2.68567	-1776
2.68933	-1778
2.69300	-1779
2.69667	-1781
2.70033	-1782
2.70400	-1784
2.70767	-1785
2.71133	-1787
2.71500	-1788
2.71867	-1790
2.72233	-1791
2.72600	-1792
2.72967	-1793
2.73333	-1795
2.73700	-1797
2.74067	-1798
2.74433	-1800
2.74800	-1802
2.75167	-1803
2.75533	-1805
2.75900	-1807
2.76267	-1809
2.76633	-1810
2.77000	-1812
2.77367	-1813
2.77733	-1815
2.78100	-1816
2.78467	-1817
2.78833	-1818
2.79200	-1819
2.79567	-1820
2.79933	-1822
2.80300	-1823
2.80667	-1825
2.81033	-1827
2.81400	-1830
2.81767	-1832
2.82133	-1835
2.82500	-1837
2.82867	-1839
2.83233	-1841
2.83600	-1843
2.83967	-1844
2.84333	-1846
2.84700	-1848
2.85067	-1850
2.85433	-1854
2.85800	-1859
2.86167	-1866
2.86533	-1876
2.86900	-1890
2.87267	-1908
2.87633	-1930
2.88000	-1957
2.88367	-1989
2.88733	-2026
2.89100	-2068
2.89467	-2115
2.89833	-2167
2.90200	-2223
2.90567	-2283
2.90933	-2347
2.91300	-2414
2.91667	-2485
2.92033	-2557
2.92400	-2632
2.92767	-2710
2.93133	-2790
2.93500	-2872
2.93867	-2956
2.94233	-3041
2.94600	-3128
2.94967	-3216
2.95333	-3303
2.95700	-3378
2.96067	-3428
2.96433	-3446
2.96800	-3428
2.97167	-3378
2.97533	-3303
2.97900	-3211
2.98267	-3107
2.98633	-2999
2.99000	-2891
2.99367	-2787
2.99733	-2690
3.00100	-2599
3.00467	-2517
3.00833	-2443
3.01200	-2377
3.01567	-2319
3.01933	-2268
3.02300	-2223
3.02667	-2185
3.03033	-2151
3.03400	-2123
3.03767	-2098
3.04133	-2078
3.04500	-2060
3.04867	-2045
3.05233	-2032
3.05600	-2022
3.05967	-2013
3.06333	-2006
3.06700	-2000
3.07067	-1995
3.07433	-1991
3.07800	-1988
3.08167	-1985
3.08533	-1983
3.08900	-1982
3.09267	-1981
3.09633	-1980
3.10000	-1980
3.10367	-1979
3.10733	-1979
3.11100	-1979
3.11467	-1979
3.11833	-1979
3.12200	-1980
3.12567	-1980
3.12933	-1981
3.13300	-1982
3.13667	-1983
3.14033	-1984
3.14400	-1985
3.14767	-1986
3.15133	-1987
3.15500	-1989
3.15867	-1990
3.16233	-1991
3.16600	-1992
3.16967	-1992
3.17333	-1993
3.17700	-1994
3.18067	-1996
3.18433	-1997
3.18800	-1998
3.19167	-1999
3.19533	-2000
3.19900	-2002
3.20267	-2003
3.20633	-2004
3.21000	-2006
3.21367	-2007
3.21733	-2009
3.22100	-2010
3.22467	-2011
3.22833	-2012
3.23200	-2013
3.23567	-2015
3.23933	-2016
3.24300	-2017
3.24667	-2018
3.25033	-2020
3.25400	-2021
3.25767	-2022
3.26133	-2023
3.26500	-2024
3.26867	-2025
3.27233	-2026
3.27600	-2028
3.27967	-2029
3.28333	-2031
3.28700	-2032
3.29067	-2033
3.29433	-2035
3.29800	-2036
3.30167	-2037
3.30533	-2039
3.30900	-2040
3.31267	-2042
3.31633	-2043
3.32000	-2045
3.32367	-2046
3.32733	-2047
3.33100	-2048
3.33467	-2049
3.33833	-2050
3.34200	-2052
3.34567	-2053
3.34933	-2054
3.35300	-2056
3.35667	-2057
3.36033	-2058
3.36400	-2059
3.36767	-2060
3.37133	-2062
3.37500	-2063
3.37867	-2064
3.38233	-2065
3.38600	-2066
3.38967	-2067
3.39333	-2069
3.39700	-2070
3.40067	-2071
3.40433	-2072
3.40800	-2073
3.41167	-2074
3.41533	-2075
3.41900	-2077
3.42267	-2078
3.42633	-2079
3.43000	-2080
3.43367	-2082
3.43733	-2083
3.44100	-2084
3.44467	-2086
3.44833	-2087
3.45200	-2088
3.45567	-2090
3.45933	-2091
3.46300	-2092
3.46667	-2094
3.47033	-2095
3.47400	-2096
3.47767	-2098
3.48133	-2099
3.48500	-2100
3.48867	-2102
3.49233	-2103
3.49600	-2105
3.49967	-2106
3.50333	-2107
3.50700	-2109
3.51067	-2110
3.51433	-2112
3.51800	-2113
3.52167	-2115
3.52533	-2117
3.52900	-2118
3.53267	-2120
3.53633	-2121
3.54000	-2123
3.54367	-2124
3.54733	-2125
3.55100	-2126
3.55467	-2128
3.55833	-2129
3.56200	-2130
3.56567	-2131
3.56933	-2133
3.57300	-2134
3.57667	-2135
3.58033	-2137
3.58400	-2138
3.58767	-2139
3.59133	-2140
3.59500	-2142
3.59867	-2143
3.60233	-2145
3.60600	-2146
3.60967	-2148
3.61333	-2149
3.61700	-2151
3.62067	-2152
3.62433	-2154
3.62800	-2155
3.63167	-2156
3.63533	-2157
3.63900	-2159
3.64267	-2160
3.64633	-2162
3.65000	-2163
3.65367	-2164
3.65733	-2165
3.66100	-2167
3.66467	-2168
3.66833	-2169
3.67200	-2171
3.67567	-2172
3.67933	-2173
3.68300	-2175
3.68667	-2176
3.69033	-2177
3.69400	-2178
3.69767	-2180
3.70133	-2181
3.70500	-2182
3.70867	-2183
3.71233	-2184
3.71600	-2186
3.71967	-2187
3.72333	-2188
3.72700	-2189
3.73067	-2190
3.73433	-2192
3.73800	-2193
3.74167	-2194
3.74533	-2195
3.74900	-2196
3.75267	-2198
3.75633	-2199
3.76000	-2200
3.76367	-2201
3.76733	-2203
3.77100	-2204
3.77467	-2205
3.77833	-2207
3.78200	-2208
3.78567	-2210
3.78933	-2211
3.79300	-2212
3.79667	-2213
3.80033	-2215
3.80400	-2216
3.80767	-2218
3.81133	-2219
3.81500	-2220
3.81867	-2222
3.82233	-2223
3.82600	-2224
3.82967	-2226
3.83333	-2227
3.83700	-2228
3.84067	-2230
3.84433	-2231
3.84800	-2232
3.85167	-2233
3.85533	-2235
3.85900	-2236
3.86267	-2237
3.86633	-2238
3.87000	-2239
3.87367	-2240
3.87733	-2241
3.88100	-2242
3.88467	-2243
3.88833	-2244
3.89200	-2246
3.89567	-2247
3.89933	-2248
3.90300	-2249
3.90667	-2250
3.91033	-2252
3.91400	-2253
3.91767	-2254
3.92133	-2256
3.92500	-2257
3.92867	-2258
3.93233	-2259
3.93600	-2260
3.93967	-2262
3.94333	-2263
3.94700	-2264
3.95067	-2265
3.95433	-2266
3.95800	-2267
3.96167	-2268
3.96533	-2270
3.96900	-2271
3.97267	-2272
3.97633	-2273
3.98000	-2274
3.98367	-2275
3.98733	-2276
3.99100	-2278
3.99467	-2279
3.99833	-2281

[Chromatogram (Ch3)]
Interval(msec)	220
# of Points	1091
Start Time(min)	0.002
End Time(min)	3.998
R.Time (min)	Intensity
0.00167	-1
0.00533	-1
0.00900	1
0.01267	3
0.01633	4
0.02000	2
0.02367	-1
0.02733	-3
0.03100	-2
0.03467	-2
0.03833	-2
0.04200	-1
0.04567	-0
0.04933	-4
0.05300	-6
0.05667	-6
0.06033	-9
0.06400	-13
0.06767	-16
0.07133	-18
0.07500	-17
0.07867	-16
0.08233	-13
0.08600	-11
0.08967	-9
0.09333	-9
0.09700	-12
0.10067	-13
0.10433	-10
0.10800	-9
0.11167	-9
0.11533	-9
0.11900	-10
0.12267	-10
0.12633	-10
0.13000	-12
0.13367	-13
0.13733	-10
0.14100	-9
0.14467	-11
0.14833	-13
0.15200	-15
0.15567	-16
0.15933	-15
0.16300	-15
0.16667	-17
0.17033	-18
0.17400	-17
0.17767	-16
0.18133	-18
0.18500	-19
0.18867	-20
0.19233	-19
0.19600	-18
0.19967	-16
0.20333	-17
0.20700	-18
0.21067	-19
0.21433	-19
0.21800	-20
0.22167	-23
0.22533	-27
0.22900	-29
0.23267	-27
0.23633	-26
0.24000	-24
0.24367	-20
0.24733	-19
0.25100	-20
0.25467	-21
0.25833	-21
0.26200	-20
0.26567	-21
0.26933	-23
0.27300	-24
0.27667	-27
0.28033	-27
0.28400	-29
0.28767	-29
0.29133	-27
0.29500	-27
0.29867	-26
0.30233	-24
0.30600	-21
0.30967	-20
0.31333	-20
0.31700	-18
0.32067	-18
0.32433	-21
0.32800	-24
0.33167	-28
0.33533	-28
0.33900	-27
0.34267	-26
0.34633	-25
0.35000	-25
0.35367	-25
0.35733	-24
0.36100	-23
0.36467	-26
0.36833	-27
0.37200	-30
0.37567	-33
0.37933	-34
0.38300	-33
0.38667	-31
0.39033	-30
0.39400	-31
0.39767	-32
0.40133	-30
0.40500	-32
0.40867	-32
0.41233	-33
0.41600	-32
0.41967	-33
0.42333	-36
0.42700	-39
0.43067	-41
0.43433	-40
0.43800	-36
0.44167	-34
0.44533	-36
0.44900	-36
0.45267	-35
0.45633	-34
0.46000	-33
0.46367	-35
0.46733	-37
0.47100	-36
0.47467	-34
0.47833	-33
0.48200	-32
0.48567	-34
0.48933	-36
0.49300	-37
0.49667	-40
0.50033	-41
0.50400	-39
0.50767	-40
0.51133	-39
0.51500	-37
0.51867	-36
0.52233	-37
0.52600	-39
0.52967	-40
0.53333	-39
0.53700	-41
0.54067	-43
0.54433	-43
0.54800	-42
0.55167	-43
0.55533	-44
0.55900	-45
0.56267	-42
0.56633	-41
0.57000	-41
0.57367	-38
0.57733	-35
0.58100	-34
0.58467	-32
0.58833	-33
0.59200	-34
0.59567	-35
0.59933	-36
0.60300	-38
0.60667	-38
0.61033	-38
0.61400	-38
0.61767	-39
0.62133	-41
0.62500	-43
0.62867	-44
0.63233	-45
0.63600	-45
0.63967	-45
0.64333	-43
0.64700	-44
0.65067	-45
0.65433	-46
0.65800	-46
0.66167	-45
0.66533	-46
0.66900	-48
0.67267	-48
0.67633	-47
0.68000	-46
0.68367	-45
0.68733	-45
0.69100	-46
0.69467	-49
0.69833	-50
0.70200	-49
0.70567	-48
0.70933	-49
0.71300	-49
0.71667	-52
0.72033	-53
0.72400	-51
0.72767	-52
0.73133	-52
0.73500	-52
0.73867	-53
0.74233	-53
0.74600	-53
0.74967	-55
0.75333	-57
0.75700	-58
0.76067	-58
0.76433	-57
0.76800	-59
0.77167	-59
0.77533	-58
0.77900	-56
0.78267	-54
0.78633	-53
0.79000	-52
0.79367	-51
0.79733	-51
0.80100	-51
0.80467	-54
0.80833	-56
0.81200	-55
0.81567	-56
0.81933	-59
0.82300	-61
0.82667	-58
0.83033	-55
0.83400	-53
0.83767	-50
0.84133	-49
0.84500	-50
0.84867	-51
0.85233	-52
0.85600	-53
0.85967	-53
0.86333	-53
0.86700	-55
0.87067	-57
0.87433	-57
0.87800	-58
0.88167	-59
0.88533	-60
0.88900	-62
0.89267	-64
0.89633	-65
0.90000	-63
0.90367	-61
0.90733	-63
0.91100	-63
0.91467	-64
0.91833	-65
0.92200	-67
0.92567	-68
0.92933	-65
0.93300	-65
0.93667	-66
0.94033	-66
0.94400	-65
0.94767	-64
0.95133	-64
0.95500	-65
0.95867	-67
0.96233	-68
0.96600	-68
0.96967	-68
0.97333	-67
0.97700	-68
0.98067	-71
0.98433	-72
0.98800	-72
0.99167	-73
0.99533	-72
0.99900	-73
1.00267	-73
1.00633	-72
1.01000	-71
1.01367	-69
1.01733	-67
1.02100	-66
1.02467	-66
1.02833	-64
1.03200	-66
1.03567	-65
1.03933	-64
1.04300	-63
1.04667	-66
1.05033	-69
1.05400	-72
1.05767	-73
1.06133	-74
1.06500	-75
1.06867	-73
1.07233	-73
1.07600	-74
1.07967	-72
1.08333	-73
1.08700	-73
1.09067	-73
1.09433	-74
1.09800	-73
1.10167	-73
1.10533	-75
1.10900	-76
1.11267	-76
1.11633	-77
1.12000	-81
1.12367	-83
1.12733	-80
1.13100	-78
1.13467	-75
1.13833	-74
1.14200	-73
1.14567	-74
1.14933	-76
1.15300	-77
1.15667	-78
1.16033	-78
1.16400	-78
1.16767	-76
1.17133	-75
1.17500	-75
1.17867	-76
1.18233	-77
1.18600	-79
1.18967	-79
1.19333	-80
1.19700	-80
1.20067	-78
1.20433	-75
1.20800	-75
1.21167	-78
1.21533	-79
1.21900	-80
1.22267	-79
1.22633	-79
1.23000	-79
1.23367	-80
1.23733	-81
1.24100	-83
1.24467	-83
1.24833	-82
1.25200	-82
1.25567	-81
1.25933	-80
1.26300	-80
1.26667	-82
1.27033	-82
1.27400	-81
1.27767	-83
1.28133	-85
1.28500	-86
1.28867	-87
1.29233	-87
1.29600	-87
1.29967	-89
1.30333	-91
1.30700	-90
1.31067	-91
1.31433	-90
1.31800	-87
1.32167	-85
1.32533	-86
1.32900	-85
1.33267	-81
1.33633	-80
1.34000	-84
1.34367	-86
1.34733	-87
1.35100	-89
1.35467	-91
1.35833	-95
1.36200	-97
1.36567	-95
1.36933	-93
1.37300	-91
1.37667	-90
1.38033	-91
1.38400	-93
1.38767	-92
1.39133	-92
1.39500	-93
1.39867	-93
1.40233	-95
1.40600	-97
1.40967	-96
1.41333	-96
1.41700	-97
1.42067	-97
1.42433	-98
1.42800	-98
1.43167	-96
1.43533	-93
1.43900	-93
1.44267	-94
1.44633	-96
1.45000	-97
1.45367	-97
1.45733	-99
1.46100	-100
1.46467	-98
1.46833	-99
1.47200	-100
1.47567	-100
1.47933	-99
1.48300	-98
1.48667	-97
1.49033	-97
1.49400	-95
1.49767	-93
1.50133	-94
1.50500	-94
1.50867	-95
1.51233	-97
1.51600	-97
1.51967	-95
1.52333	-95
1.52700	-98
1.53067	-101
1.53433	-100
1.53800	-101
1.54167	-99
1.54533	-99
1.54900	-100
1.55267	-100
1.55633	-101
1.56000	-102
1.56367	-102
1.56733	-102
1.57100	-103
1.57467	-106
1.57833	-109
1.58200	-108
1.58567	-107
1.58933	-107
1.59300	-108
1.59667	-108
1.60033	-107
1.60400	-108
1.60767	-108
1.61133	-108
1.61500	-107
1.61867	-106
1.62233	-106
1.62600	-107
1.62967	-108
1.63333	-108
1.63700	-108
1.64067	-105
1.64433	-105
1.64800	-104
1.65167	-102
1.65533	-100
1.65900	-98
1.66267	-95
1.66633	-93
1.67000	-91
1.67367	-88
1.67733	-85
1.68100	-83
1.68467	-80
1.68833	-80
1.69200	-83
1.69567	-84
1.69933	-86
1.70300	-87
1.70667	-86
1.71033	-85
1.71400	-83
1.71767	-83
1.72133	-84
1.72500	-84
1.72867	-86
1.73233	-85
1.73600	-81
1.73967	-81
1.74333	-81
1.74700	-78
1.75067	-76
1.75433	-76
1.75800	-76
1.76167	-76
1.76533	-76
1.76900	-76
1.77267	-76
1.77633	-74
1.78000	-74
1.78367	-72
1.78733	-70
1.79100	-67
1.79467	-64
1.79833	-63
1.80200	-65
1.80567	-64
1.80933	-65
1.81300	-65
1.81667	-62
1.82033	-60
1.82400	-62
1.82767	-61
1.83133	-60
1.83500	-62
1.83867	-62
1.84233	-61
1.84600	-60
1.84967	-59
1.85333	-58
1.85700	-56
1.86067	-57
1.86433	-56
1.86800	-58
1.87167	-61
1.87533	-62
1.87900	-63
1.88267	-64
1.88633	-63
1.89000	-58
1.89367	-53
1.89733	-50
1.90100	-49
1.90467	-49
1.90833	-49
1.91200	-48
1.91567	-47
1.91933	-46
1.92300	-45
1.92667	-43
1.93033	-43
1.93400	-44
1.93767	-44
1.94133	-44
1.94500	-45
1.94867	-46
1.95233	-43
1.95600	-40
1.95967	-37
1.96333	-35
1.96700	-35
1.97067	-34
1.97433	-33
1.97800	-32
1.98167	-30
1.98533	-29
1.98900	-28
1.99267	-28
1.99633	-29
2.00000	-29
2.00367	-26
2.00733	-24
2.01100	-22
2.01467	-24
2.01833	-26
2.02200	-26
2.02567	-24
2.02933	-20
2.03300	-17
2.03667	-16
2.04033	-15
2.04400	-15
2.04767	-13
2.05133	-10
2.05500	-5
2.05867	-1
2.06233	-1
2.06600	-1
2.06967	2
2.07333	2
2.07700	4
2.08067	7
2.08433	9
2.08800	9
2.09167	11
2.09533	13
2.09900	17
2.10267	18
2.10633	19
2.11000	21
2.11367	23
2.11733	27
2.12100	30
2.12467	31
2.12833	32
2.13200	32
2.13567	30
2.13933	27
2.14300	30
2.14667	37
2.15033	42
2.15400	44
2.15767	46
2.16133	48
2.16500	49
2.16867	50
2.17233	50
2.17600	47
2.17967	47
2.18333	50
2.18700	52
2.19067	54
2.19433	58
2.19800	61
2.20167	62
2.20533	62
2.20900	64
2.21267	68
2.21633	70
2.22000	73
2.22367	75
2.22733	78
2.23100	79
2.23467	80
2.23833	81
2.24200	82
2.24567	84
2.24933	87
2.25300	89
2.25667	91
2.26033	92
2.26400	94
2.26767	96
2.27133	100
2.27500	102
2.27867	102
2.28233	102
2.28600	104
2.28967	104
2.29333	106
2.29700	109
2.30067	113
2.30433	114
2.30800	115
2.31167	120
2.31533	125
2.31900	128
2.32267	132
2.32633	136
2.33000	138
2.33367	139
2.33733	140
2.34100	143
2.34467	145
2.34833	147
2.35200	148
2.35567	151
2.35933	153
2.36300	155
2.36667	157
2.37033	157
2.37400	156
2.37767	157
2.38133	160
2.38500	162
2.38867	161
2.39233	161
2.39600	165
2.39967	167
2.40333	168
2.40700	169
2.41067	173
2.41433	177
2.41800	182
2.42167	187
2.42533	188
2.42900	187
2.43267	187
2.43633	187
2.44000	187
2.44367	205
2.44733	249
2.45100	291
2.45467	310
2.45833	303
2.46200	287
2.46567	276
2.46933	264
2.47300	243
2.47667	220
2.48033	197
2.48400	178
2.48767	169
2.49133	169
2.49500	176
2.49867	182
2.50233	188
2.50600	191
2.50967	188
2.51333	178
2.51700	165
2.52067	152
2.52433	142
2.52800	132
2.53167	124
2.53533	118
2.53900	116
2.54267	117
2.54633	122
2.55000	129
2.55367	138
2.55733	149
2.56100	162
2.56467	173
2.56833	186
2.57200	197
2.57567	206
2.57933	214
2.58300	219
2.58667	222
2.59033	223
2.59400	219
2.59767	211
2.60133	202
2.60500	187
2.60867	167
2.61233	142
2.61600	110
2.61967	72
2.62333	30
2.62700	-11
2.63067	-50
2.63433	-81
2.63800	-108
2.64167	-132
2.64533	-148
2.64900	-156
2.65267	-161
2.65633	-161
2.66000	-155
2.66367	-145
2.66733	-133
2.67100	-123
2.67467	-111
2.67833	-96
2.68200	-81
2.68567	-68
2.68933	-54
2.69300	-40
2.69667	-27
2.70033	-14
2.70400	-3
2.70767	8
2.71133	20
2.71500	31
2.71867	42
2.72233	52
2.72600	61
2.72967	72
2.73333	80
2.73700	87
2.74067	91
2.74433	95
2.74800	100
2.75167	106
2.75533	109
2.75900	111
2.76267	112
2.76633	110
2.77000	107
2.77367	108
2.77733	111
2.78100	112
2.78467	113
2.78833	112
2.79200	112
2.79567	110
2.79933	106
2.80300	106
2.80667	107
2.81033	105
2.81400	103
2.81767	98
2.82133	97
2.82500	104
2.82867	131
2.83233	199
2.83600	354
2.83967	658
2.84333	1181
2.84700	1994
2.85067	3145
2.85433	4637
2.85800	6421
2.86167	8395
2.86533	10428
2.86900	12370
2.87267	14070
2.87633	15406
2.88000	16289
2.88367	16685
2.88733	16625
2.89100	16166
2.89467	15398
2.89833	14412
2.90200	13302
2.90567	12134
2.90933	10960
2.91300	9820
2.91667	8744
2.92033	7746
2.92400	6831
2.92767	6006
2.93133	5266
2.93500	4608
2.93867	4024
2.94233	3507
2.94600	3053
2.94967	2656
2.95333	2309
2.95700	2005
2.96067	1743
2.96433	1518
2.96800	1324
2.97167	1155
2.97533	1008
2.97900	880
2.98267	768
2.98633	674
2.99000	594
2.99367	523
2.99733	463
3.00100	410
3.00467	365
3.00833	326
3.01200	291
3.01567	262
3.01933	235
3.02300	213
3.02667	196
3.03033	183
3.03400	169
3.03767	159
3.04133	147
3.04500	138
3.04867	131
3.05233	124
3.05600	120
3.05967	116
3.06333	113
3.06700	109
3.07067	105
3.07433	101
3.07800	99
3.08167	100
3.08533	100
3.08900	98
3.09267	96
3.09633	94
3.10000	96
3.10367	95
3.10733	94
3.11100	92
3.11467	90
3.11833	88
3.12200	85
3.12567	82
3.12933	79
3.13300	78
3.13667	78
3.14033	77
3.14400	78
3.14767	80
3.15133	79
3.15500	75
3.15867	70
3.16233	67
3.16600	64
3.16967	60
3.17333	58
3.17700	56
3.18067	52
3.18433	47
3.18800	45
3.19167	43
3.19533	40
3.19900	35
3.20267	31
3.20633	29
3.21000	26
3.21367	25
3.21733	22
3.22100	19
3.22467	16
3.22833	12
3.23200	5
3.23567	-1
3.23933	-5
3.24300	-8
3.24667	-10
3.25033	-14
3.25400	-18
3.25767	-24
3.26133	-29
3.26500	-29
3.26867	-32
3.27233	-38
3.27600	-45
3.27967	-48
3.28333	-49
3.28700	-51
3.29067	-53
3.29433	-54
3.29800	-58
3.30167	-61
3.30533	-62
3.30900	-64
3.31267	-67
3.31633	-72
3.32000	-79
3.32367	-86
3.32733	-91
3.33100	-95
3.33467	-97
3.33833	-98
3.34200	-99
3.34567	-103
3.34933	-105
3.35300	-106
3.35667	-109
3.36033	-113
3.36400	-116
3.36767	-120
3.37133	-123
3.37500	-124
3.37867	-126
3.38233	-127
3.38600	-129
3.38967	-130
3.39333	-133
3.39700	-136
3.40067	-138
3.40433	-141
3.40800	-143
3.41167	-148
3.41533	-155
3.41900	-160
3.42267	-162
3.42633	-162
3.43000	-165
3.43367	-167
3.43733	-168
3.44100	-169
3.44467	-172
3.44833	-176
3.45200	-177
3.45567	-179
3.45933	-179
3.46300	-181
3.46667	-186
3.47033	-190
3.47400	-191
3.47767	-190
3.48133	-191
3.48500	-193
3.48867	-196
3.49233	-196
3.49600	-196
3.49967	-197
3.50333	-201
3.50700	-203
3.51067	-203
3.51433	-201
3.51800	-200
3.52167	-202
3.52533	-205
3.52900	-208
3.53267	-210
3.53633	-210
3.54000	-211
3.54367	-212
3.54733	-214
3.55100	-213
3.55467	-215
3.55833	-216
3.56200	-216
3.56567	-219
3.56933	-223
3.57300	-225
3.57667	-227
3.58033	-229
3.58400	-232
3.58767	-233
3.59133	-231
3.59500	-229
3.59867	-227
3.60233	-228
3.60600	-230
3.60967	-233
3.61333	-234
3.61700	-235
3.62067	-237
3.62433	-236
3.62800	-234
3.63167	-233
3.63533	-236
3.63900	-238
3.64267	-240
3.64633	-242
3.65000	-244
3.65367	-246
3.65733	-248
3.66100	-248
3.66467	-249
3.66833	-249
3.67200	-247
3.67567	-245
3.67933	-244
3.68300	-244
3.68667	-245
3.69033	-247
3.69400	-247
3.69767	-244
3.70133	-243
3.70500	-242
3.70867	-245
3.71233	-250
3.71600	-252
3.71967	-253
3.72333	-254
3.72700	-256
3.73067	-259
3.73433	-259
3.73800	-260
3.74167	-261
3.74533	-264
3.74900	-264
3.75267	-262
3.75633	-260
3.76000	-257
3.76367	-255
3.76733	-254
3.77100	-254
3.77467	-255
3.77833	-257
3.78200	-259
3.78567	-262
3.78933	-265
3.79300	-266
3.79667	-267
3.80033	-269
3.80400	-269
3.80767	-268
3.81133	-266
3.81500	-265
3.81867	-265
3.82233	-266
3.82600	-266
3.82967	-266
3.83333	-267
3.83700	-270
3.84067	-270
3.84433	-270
3.84800	-271
3.85167	-272
3.85533	-272
3.85900	-271
3.86267	-270
3.86633	-270
3.87000	-270
3.87367	-269
3.87733	-267
3.88100	-267
3.88467	-268
3.88833	-270
3.89200	-271
3.89567	-271
3.89933	-272
3.90300	-273
3.90667	-275
3.91033	-277
3.91400	-278
3.91767	-278
3.92133	-279
3.92500	-278
3.92867	-278
3.93233	-277
3.93600	-275
3.93967	-275
3.94333	-273
3.94700	-271
3.95067	-271
3.95433	-276
3.95800	-279
3.96167	-278
3.96533	-275
3.96900	-276
3.97267	-275
3.97633	-275
3.98000	-274
3.98367	-274
3.98733	-275
3.99100	-275
3.99467	-278
3.99833	-281

[Status Trace (Column Oven Temperature)]
Interval(msec)	1000
# of Points	240
Start Time(min)	0.007
End Time(min)	3.991
Intensity Units	
Intensity Multiplier	1
R.Time (min)	Intensity
0.00745	35.01
0.02412	35.03
0.04078	35.03
0.05745	35.04
0.07412	35.03
0.09078	35.02
0.10745	35.02
0.12412	35.02
0.14078	35.01
0.15745	35.00
0.17412	35.00
0.19078	35.00
0.20745	35.00
0.22412	35.00
0.24078	35.00
0.25745	35.00
0.27412	35.00
0.29078	35.00
0.30745	34.99
0.32412	34.99
0.34078	34.98
0.35745	34.98
0.37412	34.99
0.39078	34.99
0.40745	34.99
0.42412	34.99
0.44078	34.99
0.45745	34.98
0.47412	34.99
0.49078	34.99
0.50745	34.99
0.52412	35.00
0.54078	35.00
0.55745	35.00
0.57412	35.00
0.59078	35.00
0.60745	35.00
0.62412	35.00
0.64078	34.99
0.65745	34.99
0.67412	34.99
0.69078	35.00
0.70745	35.01
0.72412	35.01
0.74078	35.01
0.75745	35.00
0.77412	35.00
0.79078	35.00
0.80745	34.99
0.82412	35.00
0.84078	35.01
0.85745	35.01
0.87412	35.00
0.89078	35.01
0.90745	35.01
0.92412	35.01
0.94078	35.01
0.95745	35.00
0.97412	35.01
0.99078	35.01
1.00745	35.00
1.02412	35.01
1.04078	35.01
1.05745	35.00
1.07412	34.99
1.09078	35.00
1.10745	35.01
1.12412	35.02
1.14078	35.01
1.15745	35.01
1.17412	35.00
1.19078	35.00
1.20745	35.00
1.22412	35.00
1.24078	35.00
1.25745	35.00
1.27412	35.00
1.29078	35.00
1.30745	35.00
1.32412	34.99
1.34078	35.00
1.35745	34.99
1.37412	34.99
1.39078	35.00
1.40745	35.00
1.42412	35.00
1.44078	35.00
1.45745	35.01
1.47412	35.02
1.49078	35.02
1.50745	35.02
1.52412	35.01
1.54078	35.00
1.55745	35.00
1.57412	35.00
1.59078	35.02
1.60745	35.08
1.62412	35.20
1.64078	35.38
1.65745	35.63
1.67412	35.95
1.69078	36.34
1.70745	36.69
1.72412	37.03
1.74078	37.34
1.75745	37.65
1.77412	38.00
1.79078	38.35
1.80745	38.66
1.82412	38.97
1.84078	39.31
1.85745	39.65
1.87412	39.99
1.89078	40.31
1.90745	40.63
1.92412	40.97
1.94078	41.29
1.95745	41.62
1.97412	41.94
1.99078	42.27
2.00745	42.60
2.02412	42.93
2.04078	43.24
2.05745	43.58
2.07412	43.91
2.09078	44.22
2.10745	44.54
2.12412	44.90
2.14078	45.24
2.15745	45.57
2.17412	45.90
2.19078	46.24
2.20745	46.55
2.22412	46.88
2.24078	47.22
2.25745	47.54
2.27412	47.86
2.29078	48.19
2.30745	48.52
2.32412	48.85
2.34078	49.17
2.35745	49.44
2.37412	49.61
2.39078	49.68
2.40745	49.67
2.42412	49.68
2.44078	49.68
2.45745	49.71
2.47412	49.71
2.49078	49.73
2.50745	49.75
2.52412	49.76
2.54078	49.77
2.55745	49.79
2.57412	49.80
2.59078	49.81
2.60745	49.82
2.62412	49.83
2.64078	49.83
2.65745	49.84
2.67412	49.85
2.69078	49.85
2.70745	49.85
2.72412	49.84
2.74078	49.85
2.75745	49.85
2.77412	49.86
2.79078	49.84
2.80745	49.87
2.82412	49.91
2.84078	49.92
2.85745	49.93
2.87412	49.93
2.89078	49.93
2.90745	49.93
2.92412	49.93
2.94078	49.94
2.95745	49.96
2.97412	49.97
2.99078	49.97
3.00745	49.97
3.02412	49.97
3.04078	49.98
3.05745	49.99
3.07412	50.00
3.09078	50.01
3.10745	50.01
3.12412	50.02
3.14078	50.02
3.15745	50.03
3.17412	50.02
3.19078	50.03
3.20745	50.04
3.22412	50.06
3.24078	50.07
3.25745	50.08
3.27412	50.08
3.29078	50.08
3.30745	50.09
3.32412	50.10
3.34078	50.10
3.35745	50.11
3.37412	50.10
3.39078	50.09
3.40745	50.07
3.42412	50.07
3.44078	50.05
3.45745	50.04
3.47412	50.02
3.49078	50.01
3.50745	50.01
3.52412	50.01
3.54078	50.00
3.55745	50.01
3.57412	50.01
3.59078	50.00
3.60745	50.01
3.62412	50.01
3.64078	50.01
3.65745	50.02
3.67412	50.03
3.69078	50.04
3.70745	50.04
3.72412	50.04
3.74078	50.04
3.75745	50.04
3.77412	50.04
3.79078	50.04
3.80745	50.04
3.82412	50.05
3.84078	50.05
3.85745	50.05
3.87412	50.05
3.89078	50.05
3.90745	50.05
3.92412	50.04
3.94078	50.05
3.95745	50.05
3.97412	50.04
3.99078	50.05

[Status Trace (Injection Unit Temperature)]
Interval(msec)	1000
# of Points	240
Start Time(min)	0.007
End Time(min)	3.991
Intensity Units	
Intensity Multiplier	1
R.Time (min)	Intensity
0.00745	100.01
0.02412	100.01
0.04078	100.00
0.05745	100.01
0.07412	100.01
0.09078	100.01
0.10745	100.01
0.12412	100.01
0.14078	100.01
0.15745	100.01
0.17412	100.01
0.19078	100.01
0.20745	100.01
0.22412	100.00
0.24078	100.01
0.25745	100.01
0.27412	100.01
0.29078	100.00
0.30745	100.01
0.32412	100.01
0.34078	100.01
0.35745	100.00
0.37412	100.01
0.39078	100.01
0.40745	100.01
0.42412	100.00
0.44078	100.00
0.45745	100.00
0.47412	100.01
0.49078	100.00
0.50745	100.00
0.52412	100.00
0.54078	100.00
0.55745	100.00
0.57412	100.00
0.59078	100.01
0.60745	100.00
0.62412	100.01
0.64078	100.01
0.65745	100.00
0.67412	100.00
0.69078	100.00
0.70745	100.01
0.72412	100.00
0.74078	100.00
0.75745	100.00
0.77412	100.00
0.79078	100.01
0.80745	100.00
0.82412	100.00
0.84078	100.00
0.85745	100.00
0.87412	100.00
0.89078	100.01
0.90745	100.00
0.92412	100.01
0.94078	100.01
0.95745	100.00
0.97412	100.01
0.99078	100.00
1.00745	100.01
1.02412	100.01
1.04078	100.01
1.05745	100.01
1.07412	100.00
1.09078	100.00
1.10745	100.01
1.12412	100.01
1.14078	100.01
1.15745	100.01
1.17412	100.01
1.19078	100.01
1.20745	100.01
1.22412	100.01
1.24078	100.01
1.25745	100.01
1.27412	100.01
1.29078	100.01
1.30745	100.01
1.32412	100.01
1.34078	100.01
1.35745	100.01
1.37412	100.01
1.39078	100.01
1.40745	100.02
1.42412	100.01
1.44078	100.01
1.45745	100.02
1.47412	100.02
1.49078	100.02
1.50745	100.01
1.52412	100.01
1.54078	100.01
1.55745	100.01
1.57412	100.01
1.59078	100.01
1.60745	100.01
1.62412	100.02
1.64078	100.01
1.65745	100.01
1.67412	100.02
1.69078	100.02
1.70745	100.01
1.72412	100.01
1.74078	100.01
1.75745	100.00
1.77412	100.01
1.79078	100.01
1.80745	100.01
1.82412	100.01
1.84078	100.01
1.85745	100.01
1.87412	100.01
1.89078	100.00
1.90745	100.00
1.92412	100.00
1.94078	100.00
1.95745	100.01
1.97412	100.00
1.99078	100.00
2.00745	100.00
2.02412	100.00
2.04078	100.00
2.05745	100.00
2.07412	100.00
2.09078	99.99
2.10745	100.00
2.12412	99.99
2.14078	99.99
2.15745	99.99
2.17412	99.99
2.19078	100.00
2.20745	99.99
2.22412	99.99
2.24078	99.99
2.25745	99.99
2.27412	99.99
2.29078	99.99
2.30745	99.99
2.32412	99.99
2.34078	99.99
2.35745	99.98
2.37412	99.99
2.39078	99.99
2.40745	99.98
2.42412	99.99
2.44078	99.98
2.45745	99.98
2.47412	99.99
2.49078	99.99
2.50745	99.98
2.52412	99.98
2.54078	99.99
2.55745	99.99
2.57412	99.98
2.59078	99.98
2.60745	99.99
2.62412	99.99
2.64078	99.99
2.65745	99.99
2.67412	99.99
2.69078	99.99
2.70745	99.99
2.72412	99.99
2.74078	100.00
2.75745	100.00
2.77412	99.99
2.79078	100.00
2.80745	100.00
2.82412	100.00
2.84078	100.00
2.85745	100.00
2.87412	100.01
2.89078	100.01
2.90745	100.01
2.92412	100.01
2.94078	100.01
2.95745	100.01
2.97412	100.02
2.99078	100.02
3.00745	100.02
3.02412	100.02
3.04078	100.02
3.05745	100.02
3.07412	100.03
3.09078	100.03
3.10745	100.03
3.12412	100.03
3.14078	100.03
3.15745	100.03
3.17412	100.04
3.19078	100.04
3.20745	100.04
3.22412	100.04
3.24078	100.04
3.25745	100.05
3.27412	100.05
3.29078	100.05
3.30745	100.05
3.32412	100.05
3.34078	100.05
3.35745	100.05
3.37412	100.05
3.39078	100.05
3.40745	100.06
3.42412	100.06
3.44078	100.06
3.45745	100.06
3.47412	100.06
3.49078	100.06
3.50745	100.06
3.52412	100.06
3.54078	100.06
3.55745	100.06
3.57412	100.06
3.59078	100.06
3.60745	100.07
3.62412	100.07
3.64078	100.07
3.65745	100.07
3.67412	100.07
3.69078	100.07
3.70745	100.07
3.72412	100.07
3.74078	100.07
3.75745	100.07
3.77412	100.07
3.79078	100.07
3.80745	100.07
3.82412	100.06
3.84078	100.07
3.85745	100.07
3.87412	100.07
3.89078	100.07
3.90745	100.07
3.92412	100.07
3.94078	100.07
3.95745	100.07
3.97412	100.07
3.99078	100.07

[Status Trace (Carrier Gas Pressure)]
Interval(msec)	1000
# of Points	240
Start Time(min)	0.007
End Time(min)	3.991
Intensity Units	
Intensity Multiplier	1
R.Time (min)	Intensity
0.00745	58.00
0.02412	55.49
0.04078	57.04
0.05745	59.09
0.07412	59.46
0.09078	58.07
0.10745	57.98
0.12412	58.01
0.14078	58.01
0.15745	58.01
0.17412	58.00
0.19078	58.00
0.20745	58.00
0.22412	58.00
0.24078	58.00
0.25745	58.00
0.27412	58.00
0.29078	58.00
0.30745	58.00
0.32412	58.00
0.34078	58.00
0.35745	58.00
0.37412	58.00
0.39078	58.00
0.40745	58.00
0.42412	58.00
0.44078	58.00
0.45745	58.00
0.47412	58.00
0.49078	58.00
0.50745	58.00
0.52412	58.00
0.54078	58.00
0.55745	58.00
0.57412	58.00
0.59078	58.00
0.60745	58.00
0.62412	58.00
0.64078	58.00
0.65745	58.00
0.67412	58.00
0.69078	58.00
0.70745	58.00
0.72412	58.00
0.74078	58.00
0.75745	58.00
0.77412	58.00
0.79078	58.00
0.80745	58.00
0.82412	58.00
0.84078	58.00
0.85745	58.00
0.87412	58.00
0.89078	58.00
0.90745	58.00
0.92412	58.00
0.94078	58.00
0.95745	58.00
0.97412	58.00
0.99078	58.00
1.00745	58.00
1.02412	58.00
1.04078	58.00
1.05745	58.00
1.07412	58.00
1.09078	58.00
1.10745	58.00
1.12412	58.00
1.14078	58.00
1.15745	58.00
1.17412	58.00
1.19078	58.00
1.20745	58.00
1.22412	58.00
1.24078	58.00
1.25745	58.00
1.27412	58.00
1.29078	58.00
1.30745	58.00
1.32412	58.00
1.34078	58.00
1.35745	58.00
1.37412	58.00
1.39078	58.00
1.40745	58.00
1.42412	58.00
1.44078	58.00
1.45745	58.00
1.47412	58.00
1.49078	58.00
1.50745	58.00
1.52412	58.00
1.54078	58.00
1.55745	58.00
1.57412	58.00
1.59078	58.00
1.60745	58.00
1.62412	58.00
1.64078	58.00
1.65745	58.00
1.67412	58.01
1.69078	58.01
1.70745	58.00
1.72412	58.00
1.74078	58.00
1.75745	58.00
1.77412	58.00
1.79078	58.00
1.80745	58.00
1.82412	58.00
1.84078	58.00
1.85745	58.00
1.87412	58.00
1.89078	58.00
1.90745	58.00
1.92412	58.00
1.94078	58.00
1.95745	58.00
1.97412	58.00
1.99078	58.00
2.00745	58.00
2.02412	58.00
2.04078	58.00
2.05745	58.00
2.07412	58.00
2.09078	58.00
2.10745	58.00
2.12412	58.00
2.14078	58.00
2.15745	58.00
2.17412	58.00
2.19078	58.00
2.20745	58.00
2.22412	58.00
2.24078	58.00
2.25745	58.00
2.27412	58.00
2.29078	58.00
2.30745	58.00
2.32412	58.00
2.34078	58.00
2.35745	58.00
2.37412	58.00
2.39078	57.99
2.40745	57.99
2.42412	58.00
2.44078	58.00
2.45745	58.00
2.47412	58.00
2.49078	58.00
2.50745	57.99
2.52412	57.97
2.54078	58.00
2.55745	58.00
2.57412	58.00
2.59078	58.00
2.60745	58.00
2.62412	58.00
2.64078	58.00
2.65745	58.00
2.67412	58.00
2.69078	58.00
2.70745	58.00
2.72412	58.00
2.74078	58.00
2.75745	58.00
2.77412	58.00
2.79078	58.00
2.80745	58.00
2.82412	58.00
2.84078	58.00
2.85745	58.00
2.87412	58.00
2.89078	58.00
2.90745	58.00
2.92412	58.00
2.94078	58.00
2.95745	58.00
2.97412	58.00
2.99078	58.00
3.00745	58.00
3.02412	58.00
3.04078	58.00
3.05745	58.00
3.07412	58.00
3.09078	58.00
3.10745	58.00
3.12412	58.00
3.14078	58.00
3.15745	58.00
3.17412	58.00
3.19078	58.00
3.20745	58.00
3.22412	58.00
3.24078	58.00
3.25745	58.00
3.27412	58.00
3.29078	58.00
3.30745	58.00
3.32412	58.00
3.34078	58.00
3.35745	58.00
3.37412	58.00
3.39078	58.00
3.40745	58.00
3.42412	58.00
3.44078	58.00
3.45745	58.00
3.47412	58.00
3.49078	58.00
3.50745	58.00
3.52412	58.00
3.54078	58.00
3.55745	58.00
3.57412	58.00
3.59078	58.00
3.60745	58.00
3.62412	58.00
3.64078	58.00
3.65745	58.00
3.67412	58.00
3.69078	58.00
3.70745	58.00
3.72412	58.00
3.74078	58.00
3.75745	58.00
3.77412	58.00
3.79078	58.00
3.80745	58.00
3.82412	58.00
3.84078	58.00
3.85745	58.00
3.87412	58.00
3.89078	58.00
3.90745	58.00
3.92412	58.00
3.94078	58.00
3.95745	58.00
3.97412	58.00
3.99078	58.00

[Status Trace (Carrier Gas Flow)]
Interval(msec)	1000
# of Points	240
Start Time(min)	0.007
End Time(min)	3.991
Intensity Units	
Intensity Multiplier	1
R.Time (min)	Intensity
0.00745	34.51
0.02412	34.54
0.04078	34.54
0.05745	34.55
0.07412	34.50
0.09078	34.52
0.10745	34.52
0.12412	34.52
0.14078	34.52
0.15745	34.52
0.17412	34.52
0.19078	34.52
0.20745	34.52
0.22412	34.52
0.24078	34.52
0.25745	34.52
0.27412	34.52
0.29078	34.52
0.30745	34.52
0.32412	34.52
0.34078	34.52
0.35745	34.52
0.37412	34.51
0.39078	34.51
0.40745	34.52
0.42412	34.53
0.44078	34.52
0.45745	34.51
0.47412	34.52
0.49078	34.52
0.50745	34.52
0.52412	34.52
0.54078	34.52
0.55745	34.52
0.57412	34.52
0.59078	34.52
0.60745	34.52
0.62412	34.52
0.64078	34.52
0.65745	34.51
0.67412	34.51
0.69078	34.52
0.70745	34.52
0.72412	34.52
0.74078	34.52
0.75745	34.52
0.77412	34.52
0.79078	34.52
0.80745	34.52
0.82412	34.52
0.84078	34.52
0.85745	34.52
0.87412	34.52
0.89078	34.53
0.90745	34.52
0.92412	34.52
0.94078	34.52
0.95745	34.52
0.97412	34.52
0.99078	34.51
1.00745	34.52
1.02412	34.52
1.04078	34.52
1.05745	34.52
1.07412	34.52
1.09078	34.52
1.10745	34.52
1.12412	34.52
1.14078	34.52
1.15745	34.52
1.17412	34.52
1.19078	34.52
1.20745	34.52
1.22412	34.51
1.24078	34.52
1.25745	34.52
1.27412	34.52
1.29078	34.52
1.30745	34.52
1.32412	34.52
1.34078	34.52
1.35745	34.52
1.37412	34.52
1.39078	34.52
1.40745	34.52
1.42412	34.52
1.44078	34.52
1.45745	34.52
1.47412	34.51
1.49078	34.51
1.50745	34.52
1.52412	34.52
1.54078	34.52
1.55745	34.52
1.57412	34.52
1.59078	34.52
1.60745	34.52
1.62412	34.52
1.64078	34.52
1.65745	34.52
1.67412	34.52
1.69078	34.52
1.70745	34.52
1.72412	34.52
1.74078	34.52
1.75745	34.51
1.77412	34.51
1.79078	34.51
1.80745	34.52
1.82412	34.52
1.84078	34.52
1.85745	34.52
1.87412	34.52
1.89078	34.52
1.90745	34.52
1.92412	34.52
1.94078	34.52
1.95745	34.52
1.97412	34.52
1.99078	34.52
2.00745	34.52
2.02412	34.52
2.04078	34.51
2.05745	34.52
2.07412	34.52
2.09078	34.52
2.10745	34.52
2.12412	34.52
2.14078	34.52
2.15745	34.52
2.17412	34.52
2.19078	34.52
2.20745	34.52
2.22412	34.52
2.24078	34.52
2.25745	34.52
2.27412	34.52
2.29078	34.52
2.30745	34.52
2.32412	34.52
2.34078	34.52
2.35745	34.52
2.37412	34.52
2.39078	34.52
2.40745	34.52
2.42412	34.52
2.44078	34.51
2.45745	34.52
2.47412	34.52
2.49078	34.52
2.50745	34.37
2.52412	34.51
2.54078	34.51
2.55745	34.52
2.57412	34.52
2.59078	34.51
2.60745	34.52
2.62412	34.52
2.64078	34.52
2.65745	34.52
2.67412	34.52
2.69078	34.52
2.70745	34.52
2.72412	34.52
2.74078	34.52
2.75745	34.52
2.77412	34.52
2.79078	34.52
2.80745	34.52
2.82412	34.52
2.84078	34.52
2.85745	34.52
2.87412	34.52
2.89078	34.51
2.90745	34.52
2.92412	34.51
2.94078	34.53
2.95745	34.52
2.97412	34.52
2.99078	34.52
3.00745	34.52
3.02412	34.52
3.04078	34.52
3.05745	34.52
3.07412	34.52
3.09078	34.52
3.10745	34.52
3.12412	34.52
3.14078	34.52
3.15745	34.52
3.17412	34.51
3.19078	34.51
3.20745	34.52
3.22412	34.51
3.24078	34.52
3.25745	34.52
3.27412	34.52
3.29078	34.52
3.30745	34.52
3.32412	34.52
3.34078	34.52
3.35745	34.52
3.37412	34.52
3.39078	34.52
3.40745	34.52
3.42412	34.52
3.44078	34.52
3.45745	34.51
3.47412	34.52
3.49078	34.53
3.50745	34.51
3.52412	34.52
3.54078	34.52
3.55745	34.52
3.57412	34.52
3.59078	34.52
3.60745	34.52
3.62412	34.52
3.64078	34.52
3.65745	34.52
3.67412	34.52
3.69078	34.52
3.70745	34.52
3.72412	34.52
3.74078	34.52
3.75745	34.52
3.77412	34.52
3.79078	34.52
3.80745	34.51
3.82412	34.51
3.84078	34.52
3.85745	34.52
3.87412	34.52
3.89078	34.52
3.90745	34.52
3.92412	34.52
3.94078	34.52
3.95745	34.52
3.97412	34.52
3.99078	34.52

[Status Trace (Column Flow)]
Interval(msec)	1000
# of Points	240
Start Time(min)	0.007
End Time(min)	3.991
Intensity Units	
Intensity Multiplier	1
R.Time (min)	Intensity
0.00745	5.51
0.02412	5.22
0.04078	5.40
0.05745	5.64
0.07412	5.68
0.09078	5.52
0.10745	5.51
0.12412	5.51
0.14078	5.51
0.15745	5.51
0.17412	5.51
0.19078	5.51
0.20745	5.51
0.22412	5.51
0.24078	5.51
0.25745	5.51
0.27412	5.51
0.29078	5.51
0.30745	5.51
0.32412	5.51
0.34078	5.51
0.35745	5.51
0.37412	5.51
0.39078	5.51
0.40745	5.51
0.42412	5.51
0.44078	5.51
0.45745	5.51
0.47412	5.51
0.49078	5.51
0.50745	5.51
0.52412	5.51
0.54078	5.51
0.55745	5.51
0.57412	5.51
0.59078	5.51
0.60745	5.51
0.62412	5.51
0.64078	5.51
0.65745	5.51
0.67412	5.51
0.69078	5.51
0.70745	5.51
0.72412	5.51
0.74078	5.51
0.75745	5.51
0.77412	5.51
0.79078	5.51
0.80745	5.51
0.82412	5.51
0.84078	5.51
0.85745	5.51
0.87412	5.51
0.89078	5.51
0.90745	5.51
0.92412	5.51
0.94078	5.51
0.95745	5.51
0.97412	5.51
0.99078	5.51
1.00745	5.51
1.02412	5.51
1.04078	5.51
1.05745	5.51
1.07412	5.51
1.09078	5.51
1.10745	5.51
1.12412	5.51
1.14078	5.51
1.15745	5.51
1.17412	5.51
1.19078	5.51
1.20745	5.51
1.22412	5.51
1.24078	5.51
1.25745	5.51
1.27412	5.51
1.29078	5.51
1.30745	5.51
1.32412	5.51
1.34078	5.51
1.35745	5.51
1.37412	5.51
1.39078	5.51
1.40745	5.51
1.42412	5.51
1.44078	5.51
1.45745	5.51
1.47412	5.51
1.49078	5.51
1.50745	5.51
1.52412	5.51
1.54078	5.51
1.55745	5.51
1.57412	5.51
1.59078	5.51
1.60745	5.51
1.62412	5.51
1.64078	5.50
1.65745	5.49
1.67412	5.48
1.69078	5.47
1.70745	5.46
1.72412	5.45
1.74078	5.44
1.75745	5.43
1.77412	5.42
1.79078	5.41
1.80745	5.40
1.82412	5.39
1.84078	5.38
1.85745	5.37
1.87412	5.36
1.89078	5.35
1.90745	5.34
1.92412	5.33
1.94078	5.32
1.95745	5.31
1.97412	5.30
1.99078	5.29
2.00745	5.28
2.02412	5.27
2.04078	5.26
2.05745	5.25
2.07412	5.24
2.09078	5.23
2.10745	5.23
2.12412	5.22
2.14078	5.20
2.15745	5.20
2.17412	5.19
2.19078	5.18
2.20745	5.17
2.22412	5.16
2.24078	5.15
2.25745	5.14
2.27412	5.13
2.29078	5.12
2.30745	5.11
2.32412	5.10
2.34078	5.09
2.35745	5.09
2.37412	5.08
2.39078	5.08
2.40745	5.08
2.42412	5.08
2.44078	5.08
2.45745	5.08
2.47412	5.08
2.49078	5.08
2.50745	5.08
2.52412	5.07
2.54078	5.08
2.55745	5.08
2.57412	5.08
2.59078	5.08
2.60745	5.08
2.62412	5.08
2.64078	5.07
2.65745	5.07
2.67412	5.07
2.69078	5.07
2.70745	5.07
2.72412	5.07
2.74078	5.07
2.75745	5.07
2.77412	5.07
2.79078	5.07
2.80745	5.07
2.82412	5.07
2.84078	5.07
2.85745	5.07
2.87412	5.07
2.89078	5.07
2.90745	5.07
2.92412	5.07
2.94078	5.07
2.95745	5.07
2.97412	5.07
2.99078	5.07
3.00745	5.07
3.02412	5.07
3.04078	5.07
3.05745	5.07
3.07412	5.07
3.09078	5.07
3.10745	5.07
3.12412	5.07
3.14078	5.07
3.15745	5.07
3.17412	5.07
3.19078	5.07
3.20745	5.07
3.22412	5.07
3.24078	5.07
3.25745	5.07
3.27412	5.07
3.29078	5.07
3.30745	5.07
3.32412	5.07
3.34078	5.07
3.35745	5.07
3.37412	5.07
3.39078	5.07
3.40745	5.07
3.42412	5.07
3.44078	5.07
3.45745	5.07
3.47412	5.07
3.49078	5.07
3.50745	5.07
3.52412	5.07
3.54078	5.07
3.55745	5.07
3.57412	5.07
3.59078	5.07
3.60745	5.07
3.62412	5.07
3.64078	5.07
3.65745	5.07
3.67412	5.07
3.69078	5.07
3.70745	5.07
3.72412	5.07
3.74078	5.07
3.75745	5.07
3.77412	5.07
3.79078	5.07
3.80745	5.07
3.82412	5.07
3.84078	5.07
3.85745	5.07
3.87412	5.07
3.89078	5.07
3.90745	5.07
3.92412	5.07
3.94078	5.07
3.95745	5.07
3.97412	5.07
3.99078	5.07

[Status Trace (Linear Velocity)]
Interval(msec)	1000
# of Points	240
Start Time(min)	0.007
End Time(min)	3.991
Intensity Units	
Intensity Multiplier	1
R.Time (min)	Intensity
0.00745	39.01
0.02412	37.36
0.04078	38.38
0.05745	39.72
0.07412	39.97
0.09078	39.06
0.10745	39.00
0.12412	39.02
0.14078	39.02
0.15745	39.02
0.17412	39.02
0.19078	39.02
0.20745	39.02
0.22412	39.02
0.24078	39.02
0.25745	39.02
0.27412	39.02
0.29078	39.02
0.30745	39.02
0.32412	39.02
0.34078	39.02
0.35745	39.02
0.37412	39.02
0.39078	39.02
0.40745	39.02
0.42412	39.02
0.44078	39.02
0.45745	39.02
0.47412	39.02
0.49078	39.02
0.50745	39.02
0.52412	39.02
0.54078	39.01
0.55745	39.01
0.57412	39.02
0.59078	39.02
0.60745	39.02
0.62412	39.01
0.64078	39.02
0.65745	39.02
0.67412	39.02
0.69078	39.01
0.70745	39.01
0.72412	39.01
0.74078	39.01
0.75745	39.01
0.77412	39.01
0.79078	39.02
0.80745	39.01
0.82412	39.01
0.84078	39.01
0.85745	39.01
0.87412	39.01
0.89078	39.01
0.90745	39.01
0.92412	39.01
0.94078	39.01
0.95745	39.01
0.97412	39.01
0.99078	39.01
1.00745	39.01
1.02412	39.01
1.04078	39.01
1.05745	39.01
1.07412	39.02
1.09078	39.01
1.10745	39.01
1.12412	39.01
1.14078	39.01
1.15745	39.01
1.17412	39.01
1.19078	39.01
1.20745	39.01
1.22412	39.01
1.24078	39.02
1.25745	39.01
1.27412	39.02
1.29078	39.01
1.30745	39.01
1.32412	39.02
1.34078	39.02
1.35745	39.02
1.37412	39.02
1.39078	39.01
1.40745	39.02
1.42412	39.01
1.44078	39.02
1.45745	39.01
1.47412	39.01
1.49078	39.01
1.50745	39.01
1.52412	39.01
1.54078	39.01
1.55745	39.02
1.57412	39.01
1.59078	39.01
1.60745	39.01
1.62412	39.00
1.64078	38.98
1.65745	38.96
1.67412	38.93
1.69078	38.89
1.70745	38.86
1.72412	38.82
1.74078	38.79
1.75745	38.77
1.77412	38.73
1.79078	38.70
1.80745	38.67
1.82412	38.64
1.84078	38.61
1.85745	38.58
1.87412	38.54
1.89078	38.51
1.90745	38.48
1.92412	38.45
1.94078	38.42
1.95745	38.39
1.97412	38.36
1.99078	38.33
2.00745	38.30
2.02412	38.27
2.04078	38.24
2.05745	38.21
2.07412	38.18
2.09078	38.15
2.10745	38.12
2.12412	38.09
2.14078	38.06
2.15745	38.03
2.17412	38.00
2.19078	37.97
2.20745	37.94
2.22412	37.91
2.24078	37.88
2.25745	37.85
2.27412	37.82
2.29078	37.79
2.30745	37.77
2.32412	37.74
2.34078	37.70
2.35745	37.68
2.37412	37.66
2.39078	37.65
2.40745	37.65
2.42412	37.66
2.44078	37.66
2.45745	37.66
2.47412	37.66
2.49078	37.65
2.50745	37.65
2.52412	37.63
2.54078	37.65
2.55745	37.65
2.57412	37.65
2.59078	37.65
2.60745	37.65
2.62412	37.65
2.64078	37.65
2.65745	37.65
2.67412	37.64
2.69078	37.64
2.70745	37.64
2.72412	37.65
2.74078	37.64
2.75745	37.64
2.77412	37.64
2.79078	37.64
2.80745	37.64
2.82412	37.64
2.84078	37.64
2.85745	37.64
2.87412	37.64
2.89078	37.64
2.90745	37.64
2.92412	37.64
2.94078	37.64
2.95745	37.63
2.97412	37.63
2.99078	37.63
3.00745	37.63
3.02412	37.63
3.04078	37.63
3.05745	37.63
3.07412	37.63
3.09078	37.63
3.10745	37.63
3.12412	37.63
3.14078	37.63
3.15745	37.63
3.17412	37.63
3.19078	37.63
3.20745	37.63
3.22412	37.63
3.24078	37.62
3.25745	37.62
3.27412	37.62
3.29078	37.62
3.30745	37.62
3.32412	37.62
3.34078	37.62
3.35745	37.62
3.37412	37.62
3.39078	37.62
3.40745	37.62
3.42412	37.63
3.44078	37.63
3.45745	37.63
3.47412	37.63
3.49078	37.63
3.50745	37.63
3.52412	37.63
3.54078	37.63
3.55745	37.63
3.57412	37.63
3.59078	37.63
3.60745	37.63
3.62412	37.63
3.64078	37.63
3.65745	37.63
3.67412	37.63
3.69078	37.63
3.70745	37.63
3.72412	37.63
3.74078	37.63
3.75745	37.63
3.77412	37.63
3.79078	37.63
3.80745	37.63
3.82412	37.63
3.84078	37.63
3.85745	37.63
3.87412	37.63
3.89078	37.63
3.90745	37.63
3.92412	37.63
3.94078	37.63
3.95745	37.63
3.97412	37.63
3.99078	37.63

