[Header]
Application Name	LabSolutions
Version	5.110
Data File Name	C:\Users\User\Desktop\GC Analyses\Jack\UIC Prairie Sampling\9.16.22\220916_099.gcd
Output Date	11/29/2022
Output Time	11:10:22 AM

[File Information]
Type	Data File
Generated	11/28/2022 1:08:55 PM
Generated by	System Administrator
Modified	11/28/2022 1:13:22 PM
Modified by	System Administrator

[Sample Information]
Operator Name	System Administrator
Acquired	11/28/2022 1:09:21 PM
Sample Type	1:Standard
Level	1
Sample Name	220916_UICPrairie
Sample ID	220916_UICPrairie
ISTD Amount1	1
ISTD Amount2	1
ISTD Amount3	1
ISTD Amount4	1
ISTD Amount5	1
ISTD Amount6	1
ISTD Amount7	1
ISTD Amount8	1
ISTD Amount9	1
ISTD Amount10	1
ISTD Amount11	1
ISTD Amount12	1
ISTD Amount13	1
ISTD Amount14	1
ISTD Amount15	1
ISTD Amount16	1
ISTD Amount17	1
ISTD Amount18	1
ISTD Amount19	1
ISTD Amount20	1
ISTD Amount21	1
ISTD Amount22	1
ISTD Amount23	1
ISTD Amount24	1
ISTD Amount25	1
ISTD Amount26	1
ISTD Amount27	1
ISTD Amount28	1
ISTD Amount29	1
ISTD Amount30	1
ISTD Amount31	1
ISTD Amount32	1
Sample Amount	1
Dilution Factor	1
Vial#	1
Injection Volume	1
Injection Count	1
Bar Code	

[Original Files]
Data File	C:\Users\User\Desktop\GC Analyses\Jack\UIC Prairie Sampling\9.16.22\220916_099.gcd
Method File	C:\LabSolutions\Data\GHG_4min_2022\ghg3_togas_w_acet_4 min_new_int.gcm
Batch File	
Report Format File	c:\LabSolutions\System\DEFAULT.lsr

[File Description]


[Configuration]
Instrument Name	C0B7VH3-Instrument1
Instrument #	1
Line #	1
# of Detectors	3
Detector ID	DET#1	DET#2	DET#3
Detector Name	FID	PTCD	ECD
# of Channels	1	1	1

[Peak Table(Ch1)]
# of Peaks	3
Peak#	R.Time	I.Time	F.Time	Area	Height	A/H	Conc.	Mark	ID#	Name	k'	Plate #	Plate Ht.	Tailing	Resolution	Sep.Factor	Area Ratio	Height Ratio	Conc. %	Norm Conc.
1	1.479	1.439	1.538	13708	6169	2.222	100.000	   	1	CO	0.000	8526	17.593	1.207	0.000	0.000	0	0	16.667	16.667
2	1.571	1.538	1.633	4918	2444	2.012	100.000	 V 	2	CH4	0.062	11142	13.463	0.000	1.483	0.000	0	0	16.667	16.667
3	2.000	1.956	2.367	1087949	519544	2.094	400.000	   	3	CO2	0.352	17592	8.527	1.320	7.159	5.680	0	0	66.667	66.667

[Peak Table(Ch2)]
# of Peaks	0

[Peak Table(Ch3)]
# of Peaks	4
Peak#	R.Time	I.Time	F.Time	Area	Height	A/H	Conc.	Mark	ID#	Name	k'	Plate #	Plate Ht.	Tailing	Resolution	Sep.Factor	Area Ratio	Height Ratio	Conc. %	Norm Conc.
1	2.455	1.608	2.590	9563	415	23.022	0.000	   			0.000	205	733.027	0.000	0.000	0.000	0	0	0.000	0.000
2	2.601	2.590	2.631	271	142	1.902	0.000	 V 			0.060	6308	23.781	0.000	0.359	0.000	0	0	0.000	0.000
3	2.733	2.634	2.829	7080	775	9.141	0.223	   	1	N2O	0.114	636	235.757	0.000	0.468	1.900	0	0	22.328	22.328
4	2.887	2.829	3.254	24628	5131	4.799	0.777	 V 	1	N2O	0.176	11578	12.955	0.000	0.570	1.553	0	0	77.672	77.672

[Compound Results(Ch1)]
# of IDs	6
ID#	Name	R.Time	Area	Height	Conc.	Curve	3rd	2nd	1st	Constant	Area Ratio	Height Ratio	Conc. %	Norm Conc.
1	CO	1.479	13708	6169	100.000	Linear	0.000000e+00	0.000000e+00	1.370819e+002	0.000000e+00	0	0	16.667	16.667
2	CH4	1.571	4918	2444	100.000	Linear	0.000000e+00	0.000000e+00	4.917740e+001	0.000000e+00	0	0	16.667	16.667
3	CO2	2.000	1087949	519544	400.000	Linear	0.000000e+00	0.000000e+00	2.719872e+003	0.000000e+00	0	0	66.667	66.667
4	Ethylene	0.000	0	0	0.000	Linear	0.000000e+00	0.000000e+00	0.000000e+00	0.000000e+00	0	0	0.000	0.000
5	Acetylene	0.000	0	0	0.000	Linear	0.000000e+00	0.000000e+00	0.000000e+00	0.000000e+00	0	0	0.000	0.000
6	Ethane	0.000	0	0	0.000	Linear	0.000000e+00	0.000000e+00	0.000000e+00	0.000000e+00	0	0	0.000	0.000

[Compound Results(Ch2)]
# of IDs	5
ID#	Name	R.Time	Area	Height	Conc.	Curve	3rd	2nd	1st	Constant	Area Ratio	Height Ratio	Conc. %	Norm Conc.
1	Hydrogen	0.000	0	0	0.000	Linear	0.000000e+00	0.000000e+00	0.000000e+00	0.000000e+00	0	0	0.000	0.000
2	Oxygen	0.000	0	0	0.000	Linear	0.000000e+00	0.000000e+00	0.000000e+00	0.000000e+00	0	0	0.000	0.000
3	Nitrogen	0.000	0	0	0.000	Linear	0.000000e+00	0.000000e+00	0.000000e+00	0.000000e+00	0	0	0.000	0.000
4	Methane	0.000	0	0	0.000	Linear	0.000000e+00	0.000000e+00	0.000000e+00	0.000000e+00	0	0	0.000	0.000
5	Carbon Monoxide	0.000	0	0	0.000	Linear	0.000000e+00	0.000000e+00	0.000000e+00	0.000000e+00	0	0	0.000	0.000

[Compound Results(Ch3)]
# of IDs	2
ID#	Name	R.Time	Area	Height	Conc.	Curve	3rd	2nd	1st	Constant	Area Ratio	Height Ratio	Conc. %	Norm Conc.
1	N2O	2.887	31707	5906	1.000	Linear	0.000000e+00	0.000000e+00	3.170746e+004	0.000000e+00	0	0	100.000	100.000
2	SF6	0.000	0	0	0.000	Linear	0.000000e+00	0.000000e+00	0.000000e+00	0.000000e+00	0	0	0.000	0.000

[Group Results(Ch1)]
# of Groups	0

[Group Results(Ch2)]
# of Groups	0

[Group Results(Ch3)]
# of Groups	0

[Chromatogram (Ch1)]
Interval(msec)	220
# of Points	1091
Start Time(min)	0.002
End Time(min)	3.998
R.Time (min)	Intensity
0.00167	-8
0.00533	-7
0.00900	-6
0.01267	-7
0.01633	-5
0.02000	-2
0.02367	0
0.02733	0
0.03100	0
0.03467	-0
0.03833	-2
0.04200	-5
0.04567	-6
0.04933	-2
0.05300	6
0.05667	9
0.06033	-2
0.06400	-18
0.06767	-30
0.07133	-35
0.07500	-36
0.07867	-38
0.08233	-38
0.08600	-33
0.08967	-23
0.09333	-16
0.09700	-14
0.10067	-15
0.10433	-17
0.10800	-20
0.11167	-24
0.11533	-28
0.11900	-31
0.12267	-34
0.12633	-37
0.13000	-41
0.13367	-44
0.13733	-43
0.14100	-41
0.14467	-39
0.14833	-39
0.15200	-37
0.15567	-31
0.15933	-26
0.16300	-25
0.16667	-26
0.17033	-28
0.17400	-31
0.17767	-32
0.18133	-28
0.18500	-24
0.18867	-22
0.19233	-21
0.19600	-20
0.19967	-22
0.20333	-28
0.20700	-36
0.21067	-44
0.21433	-48
0.21800	-49
0.22167	-48
0.22533	-45
0.22900	-39
0.23267	-37
0.23633	-39
0.24000	-42
0.24367	-48
0.24733	-55
0.25100	-58
0.25467	-56
0.25833	-55
0.26200	-54
0.26567	-53
0.26933	-51
0.27300	-47
0.27667	-42
0.28033	-38
0.28400	-35
0.28767	-34
0.29133	-34
0.29500	-32
0.29867	-32
0.30233	-31
0.30600	-26
0.30967	-20
0.31333	-17
0.31700	-20
0.32067	-28
0.32433	-36
0.32800	-46
0.33167	-54
0.33533	-57
0.33900	-56
0.34267	-55
0.34633	-55
0.35000	-54
0.35367	-55
0.35733	-57
0.36100	-59
0.36467	-63
0.36833	-66
0.37200	-66
0.37567	-64
0.37933	-64
0.38300	-66
0.38667	-67
0.39033	-69
0.39400	-70
0.39767	-70
0.40133	-68
0.40500	-66
0.40867	-63
0.41233	-60
0.41600	-55
0.41967	-52
0.42333	-52
0.42700	-54
0.43067	-56
0.43433	-62
0.43800	-68
0.44167	-71
0.44533	-73
0.44900	-72
0.45267	-74
0.45633	-77
0.46000	-77
0.46367	-73
0.46733	-63
0.47100	-52
0.47467	-45
0.47833	-43
0.48200	-45
0.48567	-47
0.48933	-51
0.49300	-57
0.49667	-63
0.50033	-70
0.50400	-79
0.50767	-85
0.51133	-88
0.51500	-89
0.51867	-88
0.52233	-83
0.52600	-77
0.52967	-74
0.53333	-75
0.53700	-81
0.54067	-84
0.54433	-83
0.54800	-81
0.55167	-80
0.55533	-79
0.55900	-77
0.56267	-76
0.56633	-74
0.57000	-72
0.57367	-71
0.57733	-73
0.58100	-76
0.58467	-75
0.58833	-73
0.59200	-73
0.59567	-75
0.59933	-82
0.60300	-93
0.60667	-104
0.61033	-112
0.61400	-116
0.61767	-118
0.62133	-118
0.62500	-116
0.62867	-114
0.63233	-108
0.63600	-97
0.63967	-85
0.64333	-77
0.64700	-74
0.65067	-75
0.65433	-80
0.65800	-87
0.66167	-92
0.66533	-96
0.66900	-97
0.67267	-99
0.67633	-96
0.68000	-93
0.68367	-93
0.68733	-95
0.69100	-95
0.69467	-90
0.69833	-81
0.70200	-73
0.70567	-72
0.70933	-79
0.71300	-89
0.71667	-97
0.72033	-101
0.72400	-102
0.72767	-101
0.73133	-98
0.73500	-93
0.73867	-90
0.74233	-92
0.74600	-97
0.74967	-100
0.75333	-100
0.75700	-97
0.76067	-96
0.76433	-99
0.76800	-104
0.77167	-104
0.77533	-101
0.77900	-100
0.78267	-100
0.78633	-99
0.79000	-96
0.79367	-94
0.79733	-94
0.80100	-92
0.80467	-90
0.80833	-90
0.81200	-92
0.81567	-96
0.81933	-101
0.82300	-103
0.82667	-105
0.83033	-108
0.83400	-112
0.83767	-112
0.84133	-109
0.84500	-102
0.84867	-96
0.85233	-92
0.85600	-93
0.85967	-97
0.86333	-104
0.86700	-110
0.87067	-114
0.87433	-115
0.87800	-115
0.88167	-114
0.88533	-114
0.88900	-117
0.89267	-121
0.89633	-126
0.90000	-130
0.90367	-133
0.90733	-132
0.91100	-128
0.91467	-126
0.91833	-129
0.92200	-130
0.92567	-130
0.92933	-128
0.93300	-126
0.93667	-122
0.94033	-119
0.94400	-118
0.94767	-119
0.95133	-121
0.95500	-120
0.95867	-114
0.96233	-106
0.96600	-98
0.96967	-92
0.97333	-91
0.97700	-96
0.98067	-105
0.98433	-119
0.98800	-135
0.99167	-144
0.99533	-143
0.99900	-137
1.00267	-132
1.00633	-129
1.01000	-125
1.01367	-118
1.01733	-112
1.02100	-106
1.02467	-107
1.02833	-117
1.03200	-129
1.03567	-139
1.03933	-146
1.04300	-150
1.04667	-151
1.05033	-148
1.05400	-144
1.05767	-141
1.06133	-141
1.06500	-144
1.06867	-147
1.07233	-148
1.07600	-148
1.07967	-145
1.08333	-141
1.08700	-137
1.09067	-135
1.09433	-132
1.09800	-131
1.10167	-134
1.10533	-138
1.10900	-141
1.11267	-142
1.11633	-141
1.12000	-137
1.12367	-130
1.12733	-124
1.13100	-124
1.13467	-129
1.13833	-133
1.14200	-136
1.14567	-137
1.14933	-138
1.15300	-139
1.15667	-140
1.16033	-144
1.16400	-150
1.16767	-153
1.17133	-151
1.17500	-148
1.17867	-146
1.18233	-145
1.18600	-146
1.18967	-148
1.19333	-150
1.19700	-149
1.20067	-147
1.20433	-143
1.20800	-141
1.21167	-139
1.21533	-138
1.21900	-137
1.22267	-136
1.22633	-135
1.23000	-137
1.23367	-141
1.23733	-145
1.24100	-149
1.24467	-151
1.24833	-154
1.25200	-155
1.25567	-156
1.25933	-157
1.26300	-156
1.26667	-152
1.27033	-145
1.27400	-141
1.27767	-141
1.28133	-144
1.28500	-147
1.28867	-149
1.29233	-153
1.29600	-157
1.29967	-161
1.30333	-162
1.30700	-163
1.31067	-164
1.31433	-165
1.31800	-166
1.32167	-165
1.32533	-165
1.32900	-169
1.33267	-171
1.33633	-175
1.34000	-180
1.34367	-184
1.34733	-185
1.35100	-183
1.35467	-179
1.35833	-175
1.36200	-171
1.36567	-165
1.36933	-161
1.37300	-160
1.37667	-161
1.38033	-165
1.38400	-167
1.38767	-168
1.39133	-170
1.39500	-171
1.39867	-169
1.40233	-164
1.40600	-160
1.40967	-159
1.41333	-161
1.41700	-165
1.42067	-166
1.42433	-169
1.42800	-174
1.43167	-177
1.43533	-174
1.43900	-162
1.44267	-118
1.44633	25
1.45000	319
1.45367	786
1.45733	1516
1.46100	2518
1.46467	3615
1.46833	4600
1.47200	5362
1.47567	5846
1.47933	6006
1.48300	5798
1.48667	5238
1.49033	4428
1.49400	3526
1.49767	2671
1.50133	1946
1.50500	1377
1.50867	955
1.51233	650
1.51600	430
1.51967	271
1.52333	156
1.52700	76
1.53067	21
1.53433	-17
1.53800	-42
1.54167	-42
1.54533	24
1.54900	217
1.55267	567
1.55633	1020
1.56000	1478
1.56367	1864
1.56733	2140
1.57100	2278
1.57467	2244
1.57833	2030
1.58200	1680
1.58567	1278
1.58933	902
1.59300	592
1.59667	357
1.60033	186
1.60400	66
1.60767	-14
1.61133	-65
1.61500	-99
1.61867	-122
1.62233	-138
1.62600	-150
1.62967	-160
1.63333	-168
1.63700	-170
1.64067	-172
1.64433	-175
1.64800	-175
1.65167	-174
1.65533	-175
1.65900	-179
1.66267	-183
1.66633	-186
1.67000	-186
1.67367	-185
1.67733	-187
1.68100	-189
1.68467	-190
1.68833	-187
1.69200	-186
1.69567	-179
1.69933	-179
1.70300	-183
1.70667	-189
1.71033	-192
1.71400	-194
1.71767	-194
1.72133	-194
1.72500	-193
1.72867	-191
1.73233	-191
1.73600	-193
1.73967	-196
1.74333	-198
1.74700	-198
1.75067	-202
1.75433	-206
1.75800	-208
1.76167	-209
1.76533	-208
1.76900	-207
1.77267	-206
1.77633	-205
1.78000	-202
1.78367	-197
1.78733	-194
1.79100	-194
1.79467	-196
1.79833	-197
1.80200	-198
1.80567	-198
1.80933	-197
1.81300	-193
1.81667	-188
1.82033	-183
1.82400	-177
1.82767	-172
1.83133	-169
1.83500	-168
1.83867	-166
1.84233	-165
1.84600	-166
1.84967	-171
1.85333	-180
1.85700	-188
1.86067	-196
1.86433	-203
1.86800	-209
1.87167	-210
1.87533	-206
1.87900	-201
1.88267	-195
1.88633	-190
1.89000	-186
1.89367	-182
1.89733	-179
1.90100	-178
1.90467	-182
1.90833	-185
1.91200	-185
1.91567	-186
1.91933	-188
1.92300	-191
1.92667	-194
1.93033	-195
1.93400	-194
1.93767	-192
1.94133	-194
1.94500	-196
1.94867	-197
1.95233	-195
1.95600	-180
1.95967	-97
1.96333	354
1.96700	2395
1.97067	9575
1.97433	28955
1.97800	69644
1.98167	137122
1.98533	227037
1.98900	325786
1.99267	416457
1.99633	484369
2.00000	519399
2.00367	516676
2.00733	478369
2.01100	413706
2.01467	336225
2.01833	259112
2.02200	191460
2.02567	137246
2.02933	96517
2.03300	67271
2.03667	46894
2.04033	32962
2.04400	23530
2.04767	17156
2.05133	12829
2.05500	9862
2.05867	7795
2.06233	6329
2.06600	5263
2.06967	4467
2.07333	3856
2.07700	3376
2.08067	2993
2.08433	2680
2.08800	2419
2.09167	2204
2.09533	2027
2.09900	1874
2.10267	1739
2.10633	1619
2.11000	1513
2.11367	1417
2.11733	1331
2.12100	1252
2.12467	1176
2.12833	1110
2.13200	1053
2.13567	1003
2.13933	956
2.14300	914
2.14667	874
2.15033	834
2.15400	795
2.15767	758
2.16133	722
2.16500	687
2.16867	652
2.17233	621
2.17600	593
2.17967	572
2.18333	556
2.18700	543
2.19067	529
2.19433	509
2.19800	485
2.20167	464
2.20533	446
2.20900	432
2.21267	424
2.21633	418
2.22000	409
2.22367	397
2.22733	386
2.23100	374
2.23467	361
2.23833	347
2.24200	334
2.24567	321
2.24933	305
2.25300	289
2.25667	277
2.26033	269
2.26400	265
2.26767	263
2.27133	261
2.27500	260
2.27867	260
2.28233	258
2.28600	251
2.28967	240
2.29333	225
2.29700	215
2.30067	211
2.30433	213
2.30800	216
2.31167	219
2.31533	217
2.31900	210
2.32267	197
2.32633	182
2.33000	170
2.33367	162
2.33733	159
2.34100	159
2.34467	157
2.34833	156
2.35200	155
2.35567	151
2.35933	144
2.36300	139
2.36667	138
2.37033	136
2.37400	134
2.37767	132
2.38133	130
2.38500	131
2.38867	132
2.39233	135
2.39600	140
2.39967	142
2.40333	138
2.40700	132
2.41067	126
2.41433	121
2.41800	116
2.42167	113
2.42533	110
2.42900	108
2.43267	107
2.43633	109
2.44000	112
2.44367	117
2.44733	121
2.45100	123
2.45467	122
2.45833	118
2.46200	111
2.46567	100
2.46933	90
2.47300	85
2.47667	85
2.48033	84
2.48400	81
2.48767	80
2.49133	77
2.49500	77
2.49867	75
2.50233	72
2.50600	70
2.50967	69
2.51333	71
2.51700	79
2.52067	86
2.52433	88
2.52800	85
2.53167	80
2.53533	75
2.53900	71
2.54267	70
2.54633	71
2.55000	74
2.55367	82
2.55733	87
2.56100	86
2.56467	79
2.56833	67
2.57200	55
2.57567	46
2.57933	42
2.58300	41
2.58667	42
2.59033	43
2.59400	46
2.59767	50
2.60133	55
2.60500	59
2.60867	59
2.61233	53
2.61600	44
2.61967	35
2.62333	29
2.62700	28
2.63067	29
2.63433	28
2.63800	21
2.64167	13
2.64533	7
2.64900	6
2.65267	7
2.65633	7
2.66000	4
2.66367	4
2.66733	7
2.67100	11
2.67467	17
2.67833	23
2.68200	27
2.68567	31
2.68933	35
2.69300	37
2.69667	36
2.70033	32
2.70400	23
2.70767	13
2.71133	4
2.71500	-3
2.71867	-8
2.72233	-8
2.72600	-3
2.72967	4
2.73333	10
2.73700	15
2.74067	18
2.74433	20
2.74800	20
2.75167	19
2.75533	18
2.75900	17
2.76267	13
2.76633	11
2.77000	6
2.77367	-3
2.77733	-11
2.78100	-13
2.78467	-10
2.78833	-9
2.79200	-11
2.79567	-10
2.79933	-7
2.80300	-2
2.80667	1
2.81033	4
2.81400	5
2.81767	5
2.82133	1
2.82500	-5
2.82867	-10
2.83233	-16
2.83600	-19
2.83967	-18
2.84333	-14
2.84700	-10
2.85067	-9
2.85433	-8
2.85800	-7
2.86167	-9
2.86533	-12
2.86900	-14
2.87267	-15
2.87633	-14
2.88000	-13
2.88367	-13
2.88733	-14
2.89100	-13
2.89467	-12
2.89833	-6
2.90200	1
2.90567	4
2.90933	2
2.91300	-3
2.91667	-9
2.92033	-18
2.92400	-29
2.92767	-38
2.93133	-40
2.93500	-39
2.93867	-37
2.94233	-33
2.94600	-27
2.94967	-19
2.95333	-11
2.95700	-8
2.96067	-11
2.96433	-13
2.96800	-12
2.97167	-9
2.97533	-4
2.97900	0
2.98267	6
2.98633	7
2.99000	7
2.99367	4
2.99733	-0
3.00100	-3
3.00467	-2
3.00833	0
3.01200	2
3.01567	1
3.01933	-4
3.02300	-8
3.02667	-8
3.03033	-7
3.03400	-5
3.03767	-4
3.04133	-4
3.04500	-4
3.04867	-4
3.05233	-2
3.05600	3
3.05967	8
3.06333	10
3.06700	6
3.07067	-1
3.07433	-9
3.07800	-14
3.08167	-16
3.08533	-16
3.08900	-19
3.09267	-25
3.09633	-33
3.10000	-35
3.10367	-32
3.10733	-27
3.11100	-24
3.11467	-23
3.11833	-23
3.12200	-20
3.12567	-16
3.12933	-15
3.13300	-16
3.13667	-16
3.14033	-12
3.14400	-10
3.14767	-11
3.15133	-17
3.15500	-24
3.15867	-27
3.16233	-27
3.16600	-28
3.16967	-31
3.17333	-35
3.17700	-39
3.18067	-41
3.18433	-40
3.18800	-37
3.19167	-32
3.19533	-29
3.19900	-28
3.20267	-28
3.20633	-27
3.21000	-25
3.21367	-26
3.21733	-29
3.22100	-33
3.22467	-35
3.22833	-34
3.23200	-30
3.23567	-24
3.23933	-17
3.24300	-14
3.24667	-16
3.25033	-21
3.25400	-24
3.25767	-25
3.26133	-24
3.26500	-25
3.26867	-28
3.27233	-32
3.27600	-32
3.27967	-32
3.28333	-37
3.28700	-46
3.29067	-53
3.29433	-54
3.29800	-52
3.30167	-51
3.30533	-51
3.30900	-51
3.31267	-48
3.31633	-46
3.32000	-45
3.32367	-46
3.32733	-47
3.33100	-47
3.33467	-47
3.33833	-43
3.34200	-37
3.34567	-30
3.34933	-25
3.35300	-26
3.35667	-31
3.36033	-33
3.36400	-32
3.36767	-29
3.37133	-27
3.37500	-28
3.37867	-33
3.38233	-37
3.38600	-37
3.38967	-32
3.39333	-25
3.39700	-22
3.40067	-25
3.40433	-31
3.40800	-36
3.41167	-39
3.41533	-41
3.41900	-42
3.42267	-40
3.42633	-40
3.43000	-45
3.43367	-48
3.43733	-47
3.44100	-42
3.44467	-39
3.44833	-37
3.45200	-39
3.45567	-45
3.45933	-50
3.46300	-55
3.46667	-57
3.47033	-57
3.47400	-59
3.47767	-59
3.48133	-58
3.48500	-56
3.48867	-51
3.49233	-47
3.49600	-45
3.49967	-43
3.50333	-40
3.50700	-38
3.51067	-38
3.51433	-42
3.51800	-46
3.52167	-47
3.52533	-50
3.52900	-54
3.53267	-59
3.53633	-60
3.54000	-63
3.54367	-68
3.54733	-71
3.55100	-67
3.55467	-57
3.55833	-50
3.56200	-47
3.56567	-48
3.56933	-49
3.57300	-53
3.57667	-57
3.58033	-59
3.58400	-58
3.58767	-56
3.59133	-54
3.59500	-56
3.59867	-62
3.60233	-67
3.60600	-69
3.60967	-67
3.61333	-65
3.61700	-63
3.62067	-61
3.62433	-56
3.62800	-50
3.63167	-48
3.63533	-51
3.63900	-58
3.64267	-67
3.64633	-75
3.65000	-81
3.65367	-83
3.65733	-79
3.66100	-74
3.66467	-72
3.66833	-70
3.67200	-67
3.67567	-63
3.67933	-60
3.68300	-59
3.68667	-61
3.69033	-65
3.69400	-68
3.69767	-70
3.70133	-69
3.70500	-69
3.70867	-69
3.71233	-68
3.71600	-64
3.71967	-59
3.72333	-56
3.72700	-56
3.73067	-56
3.73433	-57
3.73800	-59
3.74167	-60
3.74533	-61
3.74900	-65
3.75267	-70
3.75633	-74
3.76000	-78
3.76367	-81
3.76733	-82
3.77100	-82
3.77467	-79
3.77833	-73
3.78200	-68
3.78567	-63
3.78933	-60
3.79300	-59
3.79667	-60
3.80033	-62
3.80400	-64
3.80767	-63
3.81133	-60
3.81500	-56
3.81867	-54
3.82233	-53
3.82600	-53
3.82967	-54
3.83333	-56
3.83700	-58
3.84067	-58
3.84433	-55
3.84800	-49
3.85167	-44
3.85533	-44
3.85900	-50
3.86267	-56
3.86633	-61
3.87000	-66
3.87367	-71
3.87733	-72
3.88100	-72
3.88467	-70
3.88833	-66
3.89200	-61
3.89567	-58
3.89933	-56
3.90300	-56
3.90667	-57
3.91033	-60
3.91400	-62
3.91767	-64
3.92133	-67
3.92500	-74
3.92867	-80
3.93233	-79
3.93600	-75
3.93967	-67
3.94333	-60
3.94700	-55
3.95067	-49
3.95433	-44
3.95800	-40
3.96167	-37
3.96533	-34
3.96900	-32
3.97267	-30
3.97633	-28
3.98000	-27
3.98367	-27
3.98733	-30
3.99100	-35
3.99467	-37
3.99833	-40

[Chromatogram (Ch2)]
Interval(msec)	220
# of Points	1091
Start Time(min)	0.002
End Time(min)	3.998
R.Time (min)	Intensity
0.00167	-1
0.00533	-1
0.00900	-1
0.01267	-0
0.01633	-0
0.02000	-0
0.02367	0
0.02733	0
0.03100	0
0.03467	1
0.03833	1
0.04200	1
0.04567	1
0.04933	0
0.05300	0
0.05667	-0
0.06033	-0
0.06400	-1
0.06767	-1
0.07133	-1
0.07500	-1
0.07867	-1
0.08233	-1
0.08600	-0
0.08967	-0
0.09333	-0
0.09700	0
0.10067	0
0.10433	0
0.10800	1
0.11167	1
0.11533	1
0.11900	2
0.12267	2
0.12633	2
0.13000	2
0.13367	2
0.13733	2
0.14100	2
0.14467	2
0.14833	2
0.15200	2
0.15567	2
0.15933	2
0.16300	2
0.16667	1
0.17033	1
0.17400	1
0.17767	1
0.18133	1
0.18500	1
0.18867	1
0.19233	1
0.19600	1
0.19967	2
0.20333	2
0.20700	2
0.21067	1
0.21433	1
0.21800	1
0.22167	1
0.22533	0
0.22900	-0
0.23267	-1
0.23633	-1
0.24000	-1
0.24367	-2
0.24733	-2
0.25100	-2
0.25467	-2
0.25833	-2
0.26200	-2
0.26567	-2
0.26933	-2
0.27300	-2
0.27667	-3
0.28033	-3
0.28400	-2
0.28767	-2
0.29133	-2
0.29500	-1
0.29867	-1
0.30233	-1
0.30600	-1
0.30967	-0
0.31333	-0
0.31700	-0
0.32067	-0
0.32433	-0
0.32800	-0
0.33167	-0
0.33533	-0
0.33900	0
0.34267	0
0.34633	0
0.35000	-0
0.35367	-0
0.35733	-0
0.36100	-0
0.36467	-0
0.36833	-0
0.37200	-0
0.37567	-0
0.37933	-0
0.38300	0
0.38667	0
0.39033	1
0.39400	1
0.39767	1
0.40133	1
0.40500	2
0.40867	2
0.41233	2
0.41600	2
0.41967	2
0.42333	2
0.42700	2
0.43067	1
0.43433	2
0.43800	2
0.44167	2
0.44533	2
0.44900	2
0.45267	2
0.45633	2
0.46000	1
0.46367	1
0.46733	1
0.47100	1
0.47467	1
0.47833	1
0.48200	0
0.48567	0
0.48933	0
0.49300	-0
0.49667	-0
0.50033	-0
0.50400	-1
0.50767	-1
0.51133	-0
0.51500	-0
0.51867	-0
0.52233	0
0.52600	0
0.52967	0
0.53333	0
0.53700	0
0.54067	0
0.54433	0
0.54800	0
0.55167	0
0.55533	0
0.55900	0
0.56267	0
0.56633	-0
0.57000	-0
0.57367	-1
0.57733	-1
0.58100	-1
0.58467	-1
0.58833	-1
0.59200	-1
0.59567	-1
0.59933	-1
0.60300	-2
0.60667	-2
0.61033	-2
0.61400	-2
0.61767	-2
0.62133	-2
0.62500	-2
0.62867	-2
0.63233	-2
0.63600	-2
0.63967	-2
0.64333	-1
0.64700	-1
0.65067	-1
0.65433	-1
0.65800	-1
0.66167	-1
0.66533	-0
0.66900	-0
0.67267	-0
0.67633	0
0.68000	0
0.68367	0
0.68733	-0
0.69100	-0
0.69467	-0
0.69833	0
0.70200	0
0.70567	0
0.70933	1
0.71300	0
0.71667	0
0.72033	0
0.72400	0
0.72767	0
0.73133	0
0.73500	0
0.73867	0
0.74233	0
0.74600	0
0.74967	0
0.75333	-0
0.75700	-0
0.76067	-1
0.76433	-1
0.76800	-1
0.77167	-1
0.77533	-1
0.77900	-1
0.78267	-1
0.78633	-1
0.79000	-0
0.79367	-0
0.79733	-1
0.80100	-1
0.80467	-1
0.80833	-1
0.81200	-1
0.81567	-1
0.81933	-1
0.82300	-0
0.82667	-0
0.83033	-0
0.83400	-0
0.83767	-0
0.84133	-0
0.84500	-0
0.84867	0
0.85233	0
0.85600	0
0.85967	0
0.86333	1
0.86700	1
0.87067	1
0.87433	1
0.87800	1
0.88167	0
0.88533	0
0.88900	-0
0.89267	-1
0.89633	-1
0.90000	-1
0.90367	-1
0.90733	-1
0.91100	-1
0.91467	-1
0.91833	-1
0.92200	-1
0.92567	-1
0.92933	-1
0.93300	-1
0.93667	-1
0.94033	-1
0.94400	-1
0.94767	-1
0.95133	-2
0.95500	-2
0.95867	-2
0.96233	-3
0.96600	-3
0.96967	-3
0.97333	-3
0.97700	-3
0.98067	-3
0.98433	-3
0.98800	-4
0.99167	-3
0.99533	-3
0.99900	-3
1.00267	-3
1.00633	-3
1.01000	-3
1.01367	-2
1.01733	-2
1.02100	-2
1.02467	-2
1.02833	-2
1.03200	-2
1.03567	-2
1.03933	-2
1.04300	-2
1.04667	-2
1.05033	-2
1.05400	-2
1.05767	-2
1.06133	-1
1.06500	-1
1.06867	-1
1.07233	-1
1.07600	-1
1.07967	-1
1.08333	-1
1.08700	-1
1.09067	-0
1.09433	-0
1.09800	-1
1.10167	-1
1.10533	-1
1.10900	-1
1.11267	-1
1.11633	-1
1.12000	-1
1.12367	-1
1.12733	-1
1.13100	-1
1.13467	-1
1.13833	-1
1.14200	-1
1.14567	-1
1.14933	-1
1.15300	-1
1.15667	-1
1.16033	-1
1.16400	-1
1.16767	-1
1.17133	-1
1.17500	-1
1.17867	-1
1.18233	-1
1.18600	-1
1.18967	-1
1.19333	-1
1.19700	-1
1.20067	-1
1.20433	-1
1.20800	-1
1.21167	-1
1.21533	-1
1.21900	-1
1.22267	-1
1.22633	-2
1.23000	-2
1.23367	-2
1.23733	-2
1.24100	-2
1.24467	-2
1.24833	-2
1.25200	-2
1.25567	-2
1.25933	-2
1.26300	-2
1.26667	-2
1.27033	-2
1.27400	-2
1.27767	-2
1.28133	-2
1.28500	-1
1.28867	-1
1.29233	-2
1.29600	-2
1.29967	-2
1.30333	-2
1.30700	-2
1.31067	-2
1.31433	-2
1.31800	-2
1.32167	-2
1.32533	-2
1.32900	-2
1.33267	-2
1.33633	-2
1.34000	-2
1.34367	-2
1.34733	-2
1.35100	-2
1.35467	-2
1.35833	-2
1.36200	-2
1.36567	-2
1.36933	-2
1.37300	-2
1.37667	-3
1.38033	-3
1.38400	-3
1.38767	-3
1.39133	-3
1.39500	-3
1.39867	-3
1.40233	-3
1.40600	-3
1.40967	-3
1.41333	-3
1.41700	-3
1.42067	-3
1.42433	-3
1.42800	-3
1.43167	-3
1.43533	-3
1.43900	-4
1.44267	-4
1.44633	-4
1.45000	-4
1.45367	-4
1.45733	-4
1.46100	-3
1.46467	-3
1.46833	-3
1.47200	-3
1.47567	-3
1.47933	-3
1.48300	-3
1.48667	-3
1.49033	-3
1.49400	-3
1.49767	-2
1.50133	-2
1.50500	-2
1.50867	-2
1.51233	-2
1.51600	-2
1.51967	-2
1.52333	-2
1.52700	-1
1.53067	-1
1.53433	-1
1.53800	-1
1.54167	-1
1.54533	-0
1.54900	-0
1.55267	-0
1.55633	-0
1.56000	-0
1.56367	-0
1.56733	-0
1.57100	-1
1.57467	-1
1.57833	-1
1.58200	-1
1.58567	-1
1.58933	-1
1.59300	-2
1.59667	-3
1.60033	-3
1.60400	-5
1.60767	-6
1.61133	-8
1.61500	-10
1.61867	-12
1.62233	-14
1.62600	-17
1.62967	-20
1.63333	-23
1.63700	-27
1.64067	-30
1.64433	-34
1.64800	-38
1.65167	-41
1.65533	-45
1.65900	-48
1.66267	-52
1.66633	-56
1.67000	-60
1.67367	-65
1.67733	-70
1.68100	-75
1.68467	-79
1.68833	-84
1.69200	-88
1.69567	-92
1.69933	-95
1.70300	-98
1.70667	-100
1.71033	-102
1.71400	-104
1.71767	-105
1.72133	-106
1.72500	-107
1.72867	-108
1.73233	-109
1.73600	-110
1.73967	-111
1.74333	-112
1.74700	-113
1.75067	-114
1.75433	-114
1.75800	-115
1.76167	-116
1.76533	-116
1.76900	-116
1.77267	-117
1.77633	-117
1.78000	-118
1.78367	-118
1.78733	-118
1.79100	-119
1.79467	-119
1.79833	-120
1.80200	-120
1.80567	-120
1.80933	-120
1.81300	-121
1.81667	-121
1.82033	-121
1.82400	-121
1.82767	-121
1.83133	-121
1.83500	-121
1.83867	-121
1.84233	-121
1.84600	-121
1.84967	-120
1.85333	-120
1.85700	-120
1.86067	-120
1.86433	-119
1.86800	-119
1.87167	-119
1.87533	-119
1.87900	-119
1.88267	-119
1.88633	-119
1.89000	-119
1.89367	-119
1.89733	-120
1.90100	-120
1.90467	-120
1.90833	-120
1.91200	-120
1.91567	-120
1.91933	-120
1.92300	-120
1.92667	-120
1.93033	-120
1.93400	-119
1.93767	-119
1.94133	-118
1.94500	-118
1.94867	-118
1.95233	-117
1.95600	-117
1.95967	-116
1.96333	-116
1.96700	-115
1.97067	-115
1.97433	-115
1.97800	-115
1.98167	-114
1.98533	-114
1.98900	-114
1.99267	-114
1.99633	-113
2.00000	-113
2.00367	-113
2.00733	-113
2.01100	-112
2.01467	-112
2.01833	-111
2.02200	-111
2.02567	-111
2.02933	-110
2.03300	-110
2.03667	-111
2.04033	-111
2.04400	-111
2.04767	-111
2.05133	-111
2.05500	-111
2.05867	-111
2.06233	-110
2.06600	-110
2.06967	-109
2.07333	-109
2.07700	-109
2.08067	-108
2.08433	-107
2.08800	-107
2.09167	-106
2.09533	-106
2.09900	-106
2.10267	-106
2.10633	-105
2.11000	-105
2.11367	-104
2.11733	-104
2.12100	-103
2.12467	-103
2.12833	-103
2.13200	-103
2.13567	-102
2.13933	-102
2.14300	-102
2.14667	-101
2.15033	-101
2.15400	-101
2.15767	-101
2.16133	-101
2.16500	-100
2.16867	-100
2.17233	-99
2.17600	-99
2.17967	-98
2.18333	-98
2.18700	-97
2.19067	-97
2.19433	-97
2.19800	-97
2.20167	-97
2.20533	-97
2.20900	-97
2.21267	-97
2.21633	-97
2.22000	-97
2.22367	-97
2.22733	-96
2.23100	-96
2.23467	-96
2.23833	-96
2.24200	-97
2.24567	-97
2.24933	-97
2.25300	-97
2.25667	-97
2.26033	-96
2.26400	-95
2.26767	-94
2.27133	-93
2.27500	-92
2.27867	-91
2.28233	-91
2.28600	-90
2.28967	-89
2.29333	-88
2.29700	-88
2.30067	-88
2.30433	-88
2.30800	-88
2.31167	-87
2.31533	-87
2.31900	-86
2.32267	-86
2.32633	-85
2.33000	-85
2.33367	-85
2.33733	-85
2.34100	-85
2.34467	-84
2.34833	-84
2.35200	-84
2.35567	-84
2.35933	-84
2.36300	-84
2.36667	-84
2.37033	-83
2.37400	-81
2.37767	-79
2.38133	-77
2.38500	-74
2.38867	-71
2.39233	-67
2.39600	-63
2.39967	-59
2.40333	-54
2.40700	-49
2.41067	-45
2.41433	-40
2.41800	-36
2.42167	-32
2.42533	-29
2.42900	-26
2.43267	-24
2.43633	-21
2.44000	-18
2.44367	-15
2.44733	-13
2.45100	-11
2.45467	-9
2.45833	-7
2.46200	-5
2.46567	-4
2.46933	-3
2.47300	-2
2.47667	-1
2.48033	0
2.48400	1
2.48767	2
2.49133	3
2.49500	4
2.49867	4
2.50233	5
2.50600	5
2.50967	5
2.51333	6
2.51700	7
2.52067	7
2.52433	8
2.52800	9
2.53167	9
2.53533	10
2.53900	10
2.54267	11
2.54633	12
2.55000	13
2.55367	13
2.55733	14
2.56100	14
2.56467	14
2.56833	15
2.57200	15
2.57567	15
2.57933	15
2.58300	15
2.58667	15
2.59033	15
2.59400	15
2.59767	15
2.60133	15
2.60500	15
2.60867	15
2.61233	15
2.61600	15
2.61967	16
2.62333	16
2.62700	16
2.63067	17
2.63433	17
2.63800	17
2.64167	17
2.64533	17
2.64900	17
2.65267	17
2.65633	17
2.66000	17
2.66367	17
2.66733	17
2.67100	18
2.67467	18
2.67833	19
2.68200	19
2.68567	19
2.68933	19
2.69300	19
2.69667	19
2.70033	19
2.70400	19
2.70767	19
2.71133	19
2.71500	20
2.71867	20
2.72233	21
2.72600	21
2.72967	22
2.73333	22
2.73700	22
2.74067	23
2.74433	22
2.74800	22
2.75167	22
2.75533	22
2.75900	23
2.76267	23
2.76633	23
2.77000	23
2.77367	23
2.77733	23
2.78100	22
2.78467	22
2.78833	22
2.79200	22
2.79567	22
2.79933	22
2.80300	22
2.80667	22
2.81033	22
2.81400	22
2.81767	22
2.82133	23
2.82500	23
2.82867	23
2.83233	23
2.83600	23
2.83967	24
2.84333	24
2.84700	24
2.85067	24
2.85433	24
2.85800	22
2.86167	19
2.86533	14
2.86900	7
2.87267	-4
2.87633	-17
2.88000	-35
2.88367	-56
2.88733	-81
2.89100	-110
2.89467	-143
2.89833	-179
2.90200	-219
2.90567	-261
2.90933	-305
2.91300	-352
2.91667	-400
2.92033	-449
2.92400	-499
2.92767	-549
2.93133	-599
2.93500	-650
2.93867	-700
2.94233	-749
2.94600	-798
2.94967	-849
2.95333	-904
2.95700	-965
2.96067	-1025
2.96433	-1074
2.96800	-1100
2.97167	-1101
2.97533	-1076
2.97900	-1029
2.98267	-967
2.98633	-893
2.99000	-814
2.99367	-733
2.99733	-654
3.00100	-579
3.00467	-508
3.00833	-444
3.01200	-386
3.01567	-333
3.01933	-287
3.02300	-246
3.02667	-210
3.03033	-179
3.03400	-152
3.03767	-129
3.04133	-109
3.04500	-91
3.04867	-77
3.05233	-64
3.05600	-53
3.05967	-44
3.06333	-36
3.06700	-29
3.07067	-23
3.07433	-18
3.07800	-13
3.08167	-10
3.08533	-7
3.08900	-4
3.09267	-2
3.09633	0
3.10000	2
3.10367	3
3.10733	5
3.11100	6
3.11467	7
3.11833	8
3.12200	9
3.12567	9
3.12933	10
3.13300	10
3.13667	11
3.14033	11
3.14400	12
3.14767	12
3.15133	13
3.15500	13
3.15867	14
3.16233	14
3.16600	14
3.16967	15
3.17333	15
3.17700	15
3.18067	16
3.18433	16
3.18800	16
3.19167	16
3.19533	16
3.19900	17
3.20267	17
3.20633	17
3.21000	17
3.21367	17
3.21733	17
3.22100	17
3.22467	17
3.22833	17
3.23200	17
3.23567	17
3.23933	18
3.24300	18
3.24667	18
3.25033	18
3.25400	18
3.25767	18
3.26133	18
3.26500	19
3.26867	19
3.27233	19
3.27600	20
3.27967	20
3.28333	20
3.28700	21
3.29067	21
3.29433	21
3.29800	22
3.30167	22
3.30533	22
3.30900	22
3.31267	22
3.31633	22
3.32000	22
3.32367	22
3.32733	22
3.33100	22
3.33467	22
3.33833	22
3.34200	22
3.34567	22
3.34933	22
3.35300	22
3.35667	22
3.36033	22
3.36400	22
3.36767	22
3.37133	22
3.37500	22
3.37867	22
3.38233	22
3.38600	22
3.38967	22
3.39333	22
3.39700	22
3.40067	23
3.40433	23
3.40800	23
3.41167	24
3.41533	24
3.41900	24
3.42267	25
3.42633	25
3.43000	25
3.43367	25
3.43733	26
3.44100	26
3.44467	26
3.44833	26
3.45200	26
3.45567	26
3.45933	26
3.46300	26
3.46667	26
3.47033	26
3.47400	26
3.47767	26
3.48133	26
3.48500	26
3.48867	26
3.49233	26
3.49600	26
3.49967	26
3.50333	26
3.50700	26
3.51067	26
3.51433	26
3.51800	26
3.52167	26
3.52533	25
3.52900	25
3.53267	25
3.53633	26
3.54000	26
3.54367	26
3.54733	26
3.55100	26
3.55467	26
3.55833	26
3.56200	26
3.56567	26
3.56933	26
3.57300	26
3.57667	26
3.58033	26
3.58400	25
3.58767	25
3.59133	25
3.59500	25
3.59867	25
3.60233	25
3.60600	25
3.60967	25
3.61333	25
3.61700	24
3.62067	24
3.62433	24
3.62800	24
3.63167	24
3.63533	24
3.63900	24
3.64267	24
3.64633	24
3.65000	24
3.65367	24
3.65733	24
3.66100	24
3.66467	24
3.66833	24
3.67200	24
3.67567	24
3.67933	24
3.68300	24
3.68667	24
3.69033	24
3.69400	24
3.69767	24
3.70133	24
3.70500	24
3.70867	24
3.71233	24
3.71600	24
3.71967	24
3.72333	24
3.72700	24
3.73067	24
3.73433	24
3.73800	23
3.74167	23
3.74533	23
3.74900	24
3.75267	24
3.75633	24
3.76000	24
3.76367	24
3.76733	24
3.77100	24
3.77467	24
3.77833	25
3.78200	25
3.78567	25
3.78933	25
3.79300	25
3.79667	25
3.80033	25
3.80400	25
3.80767	25
3.81133	25
3.81500	25
3.81867	25
3.82233	25
3.82600	25
3.82967	25
3.83333	25
3.83700	24
3.84067	24
3.84433	24
3.84800	24
3.85167	23
3.85533	23
3.85900	23
3.86267	23
3.86633	23
3.87000	23
3.87367	23
3.87733	24
3.88100	24
3.88467	24
3.88833	24
3.89200	24
3.89567	24
3.89933	24
3.90300	24
3.90667	24
3.91033	24
3.91400	24
3.91767	24
3.92133	24
3.92500	24
3.92867	24
3.93233	24
3.93600	24
3.93967	24
3.94333	23
3.94700	23
3.95067	23
3.95433	24
3.95800	24
3.96167	24
3.96533	24
3.96900	25
3.97267	25
3.97633	25
3.98000	25
3.98367	25
3.98733	25
3.99100	24
3.99467	24
3.99833	24

[Chromatogram (Ch3)]
Interval(msec)	220
# of Points	1091
Start Time(min)	0.002
End Time(min)	3.998
R.Time (min)	Intensity
0.00167	1
0.00533	-0
0.00900	-4
0.01267	-6
0.01633	-6
0.02000	-5
0.02367	-4
0.02733	-4
0.03100	-2
0.03467	-2
0.03833	-3
0.04200	-3
0.04567	-4
0.04933	-4
0.05300	-2
0.05667	0
0.06033	1
0.06400	0
0.06767	2
0.07133	1
0.07500	-1
0.07867	1
0.08233	3
0.08600	4
0.08967	4
0.09333	4
0.09700	2
0.10067	3
0.10433	5
0.10800	5
0.11167	3
0.11533	0
0.11900	-1
0.12267	-1
0.12633	-2
0.13000	-2
0.13367	0
0.13733	3
0.14100	3
0.14467	3
0.14833	3
0.15200	4
0.15567	5
0.15933	4
0.16300	1
0.16667	-0
0.17033	-0
0.17400	3
0.17767	7
0.18133	8
0.18500	7
0.18867	6
0.19233	3
0.19600	1
0.19967	0
0.20333	2
0.20700	4
0.21067	3
0.21433	2
0.21800	3
0.22167	4
0.22533	5
0.22900	6
0.23267	8
0.23633	7
0.24000	6
0.24367	6
0.24733	8
0.25100	10
0.25467	10
0.25833	9
0.26200	7
0.26567	6
0.26933	3
0.27300	0
0.27667	1
0.28033	3
0.28400	6
0.28767	7
0.29133	8
0.29500	7
0.29867	8
0.30233	9
0.30600	10
0.30967	7
0.31333	7
0.31700	7
0.32067	10
0.32433	10
0.32800	8
0.33167	7
0.33533	5
0.33900	5
0.34267	4
0.34633	3
0.35000	5
0.35367	7
0.35733	8
0.36100	7
0.36467	5
0.36833	4
0.37200	5
0.37567	7
0.37933	10
0.38300	12
0.38667	13
0.39033	12
0.39400	8
0.39767	5
0.40133	4
0.40500	4
0.40867	5
0.41233	4
0.41600	2
0.41967	1
0.42333	4
0.42700	7
0.43067	11
0.43433	15
0.43800	16
0.44167	12
0.44533	9
0.44900	8
0.45267	10
0.45633	10
0.46000	11
0.46367	12
0.46733	12
0.47100	10
0.47467	10
0.47833	11
0.48200	12
0.48567	13
0.48933	13
0.49300	14
0.49667	13
0.50033	12
0.50400	9
0.50767	8
0.51133	8
0.51500	10
0.51867	8
0.52233	7
0.52600	10
0.52967	13
0.53333	13
0.53700	14
0.54067	14
0.54433	14
0.54800	15
0.55167	15
0.55533	13
0.55900	9
0.56267	5
0.56633	8
0.57000	12
0.57367	14
0.57733	14
0.58100	15
0.58467	15
0.58833	15
0.59200	17
0.59567	18
0.59933	20
0.60300	20
0.60667	18
0.61033	15
0.61400	13
0.61767	11
0.62133	11
0.62500	10
0.62867	9
0.63233	10
0.63600	10
0.63967	8
0.64333	8
0.64700	10
0.65067	14
0.65433	17
0.65800	17
0.66167	17
0.66533	16
0.66900	15
0.67267	14
0.67633	13
0.68000	14
0.68367	15
0.68733	15
0.69100	13
0.69467	10
0.69833	10
0.70200	13
0.70567	13
0.70933	12
0.71300	13
0.71667	12
0.72033	10
0.72400	9
0.72767	9
0.73133	11
0.73500	11
0.73867	9
0.74233	8
0.74600	8
0.74967	9
0.75333	11
0.75700	12
0.76067	13
0.76433	14
0.76800	14
0.77167	14
0.77533	13
0.77900	14
0.78267	16
0.78633	19
0.79000	21
0.79367	22
0.79733	21
0.80100	18
0.80467	17
0.80833	17
0.81200	16
0.81567	16
0.81933	15
0.82300	14
0.82667	15
0.83033	14
0.83400	13
0.83767	15
0.84133	16
0.84500	16
0.84867	16
0.85233	16
0.85600	17
0.85967	19
0.86333	19
0.86700	20
0.87067	19
0.87433	17
0.87800	16
0.88167	16
0.88533	15
0.88900	16
0.89267	18
0.89633	20
0.90000	21
0.90367	21
0.90733	20
0.91100	22
0.91467	22
0.91833	21
0.92200	19
0.92567	17
0.92933	15
0.93300	16
0.93667	18
0.94033	19
0.94400	18
0.94767	17
0.95133	17
0.95500	18
0.95867	21
0.96233	25
0.96600	26
0.96967	24
0.97333	21
0.97700	20
0.98067	18
0.98433	14
0.98800	11
0.99167	11
0.99533	14
0.99900	18
1.00267	21
1.00633	21
1.01000	20
1.01367	20
1.01733	17
1.02100	17
1.02467	18
1.02833	18
1.03200	17
1.03567	17
1.03933	16
1.04300	15
1.04667	15
1.05033	16
1.05400	19
1.05767	19
1.06133	20
1.06500	21
1.06867	20
1.07233	18
1.07600	16
1.07967	17
1.08333	16
1.08700	17
1.09067	16
1.09433	14
1.09800	15
1.10167	16
1.10533	17
1.10900	17
1.11267	17
1.11633	17
1.12000	18
1.12367	20
1.12733	20
1.13100	17
1.13467	16
1.13833	15
1.14200	14
1.14567	14
1.14933	14
1.15300	16
1.15667	18
1.16033	18
1.16400	19
1.16767	16
1.17133	15
1.17500	16
1.17867	16
1.18233	16
1.18600	14
1.18967	14
1.19333	15
1.19700	17
1.20067	17
1.20433	15
1.20800	16
1.21167	16
1.21533	17
1.21900	21
1.22267	23
1.22633	22
1.23000	22
1.23367	22
1.23733	23
1.24100	23
1.24467	21
1.24833	19
1.25200	22
1.25567	24
1.25933	23
1.26300	24
1.26667	25
1.27033	24
1.27400	26
1.27767	25
1.28133	24
1.28500	24
1.28867	25
1.29233	27
1.29600	26
1.29967	26
1.30333	28
1.30700	29
1.31067	28
1.31433	25
1.31800	22
1.32167	19
1.32533	18
1.32900	17
1.33267	16
1.33633	17
1.34000	19
1.34367	20
1.34733	22
1.35100	20
1.35467	20
1.35833	22
1.36200	23
1.36567	23
1.36933	23
1.37300	26
1.37667	29
1.38033	31
1.38400	32
1.38767	31
1.39133	28
1.39500	27
1.39867	28
1.40233	28
1.40600	28
1.40967	25
1.41333	22
1.41700	22
1.42067	22
1.42433	24
1.42800	24
1.43167	24
1.43533	25
1.43900	26
1.44267	28
1.44633	29
1.45000	28
1.45367	28
1.45733	28
1.46100	27
1.46467	26
1.46833	25
1.47200	22
1.47567	21
1.47933	22
1.48300	25
1.48667	25
1.49033	26
1.49400	24
1.49767	24
1.50133	24
1.50500	25
1.50867	27
1.51233	29
1.51600	31
1.51967	30
1.52333	28
1.52700	26
1.53067	26
1.53433	27
1.53800	27
1.54167	26
1.54533	25
1.54900	26
1.55267	29
1.55633	31
1.56000	30
1.56367	30
1.56733	30
1.57100	29
1.57467	27
1.57833	26
1.58200	28
1.58567	28
1.58933	26
1.59300	25
1.59667	26
1.60033	26
1.60400	25
1.60767	27
1.61133	28
1.61500	28
1.61867	27
1.62233	30
1.62600	32
1.62967	34
1.63333	35
1.63700	35
1.64067	37
1.64433	38
1.64800	37
1.65167	38
1.65533	40
1.65900	43
1.66267	46
1.66633	47
1.67000	46
1.67367	48
1.67733	47
1.68100	47
1.68467	45
1.68833	44
1.69200	44
1.69567	45
1.69933	46
1.70300	46
1.70667	46
1.71033	47
1.71400	50
1.71767	52
1.72133	53
1.72500	54
1.72867	55
1.73233	53
1.73600	54
1.73967	55
1.74333	55
1.74700	56
1.75067	54
1.75433	51
1.75800	52
1.76167	54
1.76533	57
1.76900	57
1.77267	60
1.77633	59
1.78000	58
1.78367	61
1.78733	63
1.79100	61
1.79467	61
1.79833	63
1.80200	63
1.80567	63
1.80933	64
1.81300	64
1.81667	65
1.82033	68
1.82400	71
1.82767	74
1.83133	73
1.83500	72
1.83867	72
1.84233	72
1.84600	71
1.84967	68
1.85333	68
1.85700	69
1.86067	72
1.86433	75
1.86800	76
1.87167	76
1.87533	75
1.87900	78
1.88267	80
1.88633	82
1.89000	85
1.89367	88
1.89733	90
1.90100	91
1.90467	90
1.90833	90
1.91200	92
1.91567	94
1.91933	96
1.92300	98
1.92667	100
1.93033	102
1.93400	104
1.93767	103
1.94133	104
1.94500	104
1.94867	105
1.95233	106
1.95600	106
1.95967	108
1.96333	111
1.96700	113
1.97067	113
1.97433	111
1.97800	111
1.98167	111
1.98533	112
1.98900	115
1.99267	117
1.99633	118
2.00000	120
2.00367	122
2.00733	121
2.01100	122
2.01467	121
2.01833	121
2.02200	122
2.02567	127
2.02933	131
2.03300	136
2.03667	139
2.04033	141
2.04400	143
2.04767	144
2.05133	145
2.05500	145
2.05867	143
2.06233	143
2.06600	146
2.06967	149
2.07333	150
2.07700	152
2.08067	154
2.08433	155
2.08800	154
2.09167	154
2.09533	155
2.09900	154
2.10267	157
2.10633	159
2.11000	160
2.11367	162
2.11733	163
2.12100	164
2.12467	165
2.12833	166
2.13200	169
2.13567	173
2.13933	173
2.14300	173
2.14667	175
2.15033	177
2.15400	179
2.15767	181
2.16133	181
2.16500	182
2.16867	184
2.17233	187
2.17600	188
2.17967	187
2.18333	189
2.18700	191
2.19067	190
2.19433	190
2.19800	194
2.20167	198
2.20533	200
2.20900	200
2.21267	200
2.21633	204
2.22000	210
2.22367	216
2.22733	217
2.23100	215
2.23467	215
2.23833	215
2.24200	217
2.24567	219
2.24933	221
2.25300	222
2.25667	226
2.26033	229
2.26400	229
2.26767	228
2.27133	229
2.27500	230
2.27867	232
2.28233	234
2.28600	237
2.28967	237
2.29333	239
2.29700	243
2.30067	245
2.30433	246
2.30800	246
2.31167	248
2.31533	251
2.31900	254
2.32267	256
2.32633	258
2.33000	259
2.33367	260
2.33733	260
2.34100	260
2.34467	260
2.34833	261
2.35200	263
2.35567	268
2.35933	270
2.36300	271
2.36667	271
2.37033	273
2.37400	277
2.37767	278
2.38133	281
2.38500	284
2.38867	285
2.39233	283
2.39600	284
2.39967	284
2.40333	284
2.40700	285
2.41067	283
2.41433	282
2.41800	282
2.42167	283
2.42533	285
2.42900	288
2.43267	290
2.43633	292
2.44000	294
2.44367	309
2.44733	340
2.45100	366
2.45467	375
2.45833	370
2.46200	353
2.46567	337
2.46933	322
2.47300	309
2.47667	292
2.48033	272
2.48400	250
2.48767	227
2.49133	207
2.49500	193
2.49867	181
2.50233	170
2.50600	165
2.50967	162
2.51333	159
2.51700	158
2.52067	157
2.52433	155
2.52800	149
2.53167	140
2.53533	131
2.53900	120
2.54267	112
2.54633	109
2.55000	104
2.55367	97
2.55733	94
2.56100	93
2.56467	91
2.56833	89
2.57200	87
2.57567	86
2.57933	85
2.58300	84
2.58667	82
2.59033	81
2.59400	86
2.59767	89
2.60133	90
2.60500	89
2.60867	87
2.61233	83
2.61600	74
2.61967	57
2.62333	12
2.62700	-36
2.63067	-55
2.63433	-40
2.63800	-0
2.64167	53
2.64533	109
2.64900	161
2.65267	211
2.65633	265
2.66000	320
2.66367	370
2.66733	415
2.67100	459
2.67467	503
2.67833	544
2.68200	579
2.68567	611
2.68933	640
2.69300	666
2.69667	689
2.70033	708
2.70400	725
2.70767	742
2.71133	756
2.71500	767
2.71867	776
2.72233	785
2.72600	792
2.72967	797
2.73333	802
2.73700	805
2.74067	805
2.74433	805
2.74800	802
2.75167	799
2.75533	796
2.75900	789
2.76267	782
2.76633	776
2.77000	772
2.77367	767
2.77733	766
2.78100	768
2.78467	765
2.78833	759
2.79200	750
2.79567	741
2.79933	733
2.80300	729
2.80667	724
2.81033	720
2.81400	717
2.81767	714
2.82133	712
2.82500	709
2.82867	709
2.83233	714
2.83600	733
2.83967	771
2.84333	846
2.84700	980
2.85067	1193
2.85433	1502
2.85800	1910
2.86167	2408
2.86533	2964
2.86900	3540
2.87267	4090
2.87633	4569
2.88000	4938
2.88367	5171
2.88733	5265
2.89100	5225
2.89467	5072
2.89833	4831
2.90200	4529
2.90567	4196
2.90933	3849
2.91300	3508
2.91667	3183
2.92033	2879
2.92400	2597
2.92767	2342
2.93133	2115
2.93500	1913
2.93867	1735
2.94233	1580
2.94600	1444
2.94967	1326
2.95333	1224
2.95700	1133
2.96067	1052
2.96433	984
2.96800	927
2.97167	877
2.97533	835
2.97900	797
2.98267	760
2.98633	728
2.99000	701
2.99367	680
2.99733	661
3.00100	645
3.00467	633
3.00833	622
3.01200	612
3.01567	602
3.01933	593
3.02300	586
3.02667	579
3.03033	574
3.03400	568
3.03767	563
3.04133	562
3.04500	560
3.04867	559
3.05233	557
3.05600	551
3.05967	546
3.06333	542
3.06700	540
3.07067	536
3.07433	529
3.07800	524
3.08167	523
3.08533	522
3.08900	521
3.09267	517
3.09633	511
3.10000	508
3.10367	504
3.10733	500
3.11100	498
3.11467	495
3.11833	491
3.12200	487
3.12567	482
3.12933	479
3.13300	477
3.13667	474
3.14033	472
3.14400	469
3.14767	466
3.15133	464
3.15500	460
3.15867	457
3.16233	452
3.16600	446
3.16967	441
3.17333	438
3.17700	435
3.18067	435
3.18433	434
3.18800	433
3.19167	434
3.19533	433
3.19900	431
3.20267	429
3.20633	426
3.21000	425
3.21367	424
3.21733	420
3.22100	415
3.22467	409
3.22833	406
3.23200	405
3.23567	404
3.23933	401
3.24300	398
3.24667	393
3.25033	389
3.25400	386
3.25767	381
3.26133	378
3.26500	375
3.26867	372
3.27233	370
3.27600	367
3.27967	363
3.28333	358
3.28700	355
3.29067	352
3.29433	350
3.29800	345
3.30167	338
3.30533	332
3.30900	328
3.31267	326
3.31633	323
3.32000	320
3.32367	317
3.32733	313
3.33100	309
3.33467	307
3.33833	303
3.34200	299
3.34567	294
3.34933	291
3.35300	290
3.35667	288
3.36033	288
3.36400	286
3.36767	283
3.37133	280
3.37500	276
3.37867	273
3.38233	269
3.38600	265
3.38967	261
3.39333	255
3.39700	253
3.40067	252
3.40433	251
3.40800	249
3.41167	247
3.41533	245
3.41900	241
3.42267	236
3.42633	233
3.43000	229
3.43367	225
3.43733	222
3.44100	219
3.44467	216
3.44833	212
3.45200	211
3.45567	211
3.45933	208
3.46300	205
3.46667	203
3.47033	202
3.47400	202
3.47767	198
3.48133	194
3.48500	190
3.48867	187
3.49233	184
3.49600	183
3.49967	182
3.50333	179
3.50700	176
3.51067	173
3.51433	171
3.51800	169
3.52167	166
3.52533	162
3.52900	160
3.53267	158
3.53633	157
3.54000	157
3.54367	156
3.54733	154
3.55100	154
3.55467	153
3.55833	152
3.56200	149
3.56567	146
3.56933	143
3.57300	142
3.57667	139
3.58033	134
3.58400	131
3.58767	130
3.59133	131
3.59500	129
3.59867	128
3.60233	128
3.60600	128
3.60967	125
3.61333	122
3.61700	121
3.62067	121
3.62433	120
3.62800	114
3.63167	111
3.63533	111
3.63900	112
3.64267	114
3.64633	115
3.65000	113
3.65367	110
3.65733	108
3.66100	106
3.66467	105
3.66833	106
3.67200	109
3.67567	107
3.67933	102
3.68300	99
3.68667	97
3.69033	95
3.69400	93
3.69767	91
3.70133	89
3.70500	85
3.70867	83
3.71233	83
3.71600	84
3.71967	84
3.72333	81
3.72700	78
3.73067	76
3.73433	74
3.73800	73
3.74167	73
3.74533	71
3.74900	69
3.75267	67
3.75633	65
3.76000	65
3.76367	66
3.76733	67
3.77100	66
3.77467	65
3.77833	62
3.78200	60
3.78567	60
3.78933	61
3.79300	61
3.79667	59
3.80033	59
3.80400	61
3.80767	60
3.81133	56
3.81500	53
3.81867	51
3.82233	49
3.82600	45
3.82967	43
3.83333	45
3.83700	47
3.84067	46
3.84433	44
3.84800	44
3.85167	43
3.85533	42
3.85900	41
3.86267	40
3.86633	39
3.87000	40
3.87367	40
3.87733	38
3.88100	35
3.88467	31
3.88833	31
3.89200	32
3.89567	33
3.89933	35
3.90300	37
3.90667	37
3.91033	33
3.91400	30
3.91767	28
3.92133	25
3.92500	20
3.92867	19
3.93233	19
3.93600	18
3.93967	17
3.94333	16
3.94700	17
3.95067	18
3.95433	17
3.95800	15
3.96167	12
3.96533	10
3.96900	11
3.97267	12
3.97633	13
3.98000	13
3.98367	13
3.98733	13
3.99100	13
3.99467	11
3.99833	10

[Status Trace (Column Oven Temperature)]
Interval(msec)	1000
# of Points	240
Start Time(min)	0.015
End Time(min)	3.998
Intensity Units	
Intensity Multiplier	1
R.Time (min)	Intensity
0.01475	35.01
0.03142	35.02
0.04808	35.02
0.06475	35.03
0.08142	35.02
0.09808	35.03
0.11475	35.02
0.13142	35.01
0.14808	35.00
0.16475	35.00
0.18142	35.00
0.19808	35.00
0.21475	35.00
0.23142	35.01
0.24808	35.02
0.26475	35.03
0.28142	35.04
0.29808	35.03
0.31475	35.02
0.33142	35.02
0.34808	35.02
0.36475	35.02
0.38142	35.01
0.39808	35.00
0.41475	34.99
0.43142	34.98
0.44808	34.98
0.46475	34.98
0.48142	34.99
0.49808	34.99
0.51475	34.99
0.53142	34.99
0.54808	34.98
0.56475	34.98
0.58142	35.00
0.59808	35.01
0.61475	35.00
0.63142	35.00
0.64808	35.00
0.66475	34.99
0.68142	35.00
0.69808	34.99
0.71475	34.98
0.73142	34.98
0.74808	34.97
0.76475	34.99
0.78142	34.98
0.79808	34.99
0.81475	34.99
0.83142	34.98
0.84808	34.98
0.86475	34.99
0.88142	34.99
0.89808	34.99
0.91475	34.97
0.93142	34.98
0.94808	34.98
0.96475	34.99
0.98142	35.00
0.99808	35.00
1.01475	35.00
1.03142	35.00
1.04808	35.01
1.06475	35.00
1.08142	35.01
1.09808	35.01
1.11475	35.00
1.13142	35.00
1.14808	34.99
1.16475	34.99
1.18142	34.99
1.19808	34.99
1.21475	34.99
1.23142	34.99
1.24808	35.00
1.26475	35.00
1.28142	34.99
1.29808	35.00
1.31475	35.00
1.33142	34.99
1.34808	34.99
1.36475	34.99
1.38142	35.00
1.39808	35.00
1.41475	35.00
1.43142	35.01
1.44808	35.01
1.46475	35.00
1.48142	35.00
1.49808	35.00
1.51475	35.00
1.53142	34.99
1.54808	34.98
1.56475	34.98
1.58142	34.98
1.59808	35.01
1.61475	35.10
1.63142	35.24
1.64808	35.45
1.66475	35.72
1.68142	36.07
1.69808	36.43
1.71475	36.77
1.73142	37.10
1.74808	37.44
1.76475	37.77
1.78142	38.11
1.79808	38.45
1.81475	38.77
1.83142	39.12
1.84808	39.44
1.86475	39.76
1.88142	40.09
1.89808	40.43
1.91475	40.75
1.93142	41.08
1.94808	41.40
1.96475	41.73
1.98142	42.04
1.99808	42.38
2.01475	42.69
2.03142	43.01
2.04808	43.33
2.06475	43.67
2.08142	43.99
2.09808	44.33
2.11475	44.63
2.13142	44.96
2.14808	45.30
2.16475	45.62
2.18142	45.94
2.19808	46.27
2.21475	46.61
2.23142	46.94
2.24808	47.30
2.26475	47.62
2.28142	47.96
2.29808	48.29
2.31475	48.62
2.33142	48.93
2.34808	49.26
2.36475	49.57
2.38142	49.72
2.39808	49.77
2.41475	49.75
2.43142	49.77
2.44808	49.75
2.46475	49.76
2.48142	49.77
2.49808	49.77
2.51475	49.78
2.53142	49.80
2.54808	49.80
2.56475	49.81
2.58142	49.80
2.59808	49.80
2.61475	49.80
2.63142	49.80
2.64808	49.83
2.66475	49.84
2.68142	49.84
2.69808	49.85
2.71475	49.85
2.73142	49.85
2.74808	49.85
2.76475	49.85
2.78142	49.88
2.79808	49.88
2.81475	49.88
2.83142	49.88
2.84808	49.87
2.86475	49.86
2.88142	49.88
2.89808	49.88
2.91475	49.90
2.93142	49.91
2.94808	49.92
2.96475	49.93
2.98142	49.94
2.99808	49.96
3.01475	49.97
3.03142	49.99
3.04808	50.00
3.06475	50.00
3.08142	50.01
3.09808	50.01
3.11475	50.02
3.13142	50.04
3.14808	50.05
3.16475	50.05
3.18142	50.06
3.19808	50.06
3.21475	50.07
3.23142	50.08
3.24808	50.09
3.26475	50.10
3.28142	50.10
3.29808	50.09
3.31475	50.09
3.33142	50.09
3.34808	50.09
3.36475	50.10
3.38142	50.10
3.39808	50.11
3.41475	50.10
3.43142	50.08
3.44808	50.07
3.46475	50.06
3.48142	50.05
3.49808	50.05
3.51475	50.04
3.53142	50.04
3.54808	50.03
3.56475	50.04
3.58142	50.03
3.59808	50.03
3.61475	50.03
3.63142	50.03
3.64808	50.03
3.66475	50.03
3.68142	50.03
3.69808	50.03
3.71475	50.03
3.73142	50.05
3.74808	50.05
3.76475	50.04
3.78142	50.04
3.79808	50.05
3.81475	50.05
3.83142	50.05
3.84808	50.06
3.86475	50.07
3.88142	50.07
3.89808	50.07
3.91475	50.08
3.93142	50.07
3.94808	50.07
3.96475	50.07
3.98142	50.06
3.99808	50.06

[Status Trace (Injection Unit Temperature)]
Interval(msec)	1000
# of Points	240
Start Time(min)	0.015
End Time(min)	3.998
Intensity Units	
Intensity Multiplier	1
R.Time (min)	Intensity
0.01475	99.99
0.03142	99.98
0.04808	99.99
0.06475	99.99
0.08142	99.99
0.09808	99.99
0.11475	99.99
0.13142	99.99
0.14808	99.99
0.16475	99.99
0.18142	99.99
0.19808	99.99
0.21475	99.99
0.23142	99.99
0.24808	99.99
0.26475	99.99
0.28142	99.98
0.29808	99.99
0.31475	99.99
0.33142	99.99
0.34808	99.98
0.36475	99.98
0.38142	99.98
0.39808	99.99
0.41475	99.98
0.43142	99.98
0.44808	99.99
0.46475	99.98
0.48142	99.98
0.49808	99.98
0.51475	99.98
0.53142	99.98
0.54808	99.99
0.56475	99.98
0.58142	99.98
0.59808	99.98
0.61475	99.98
0.63142	99.98
0.64808	99.98
0.66475	99.99
0.68142	99.98
0.69808	99.99
0.71475	99.98
0.73142	99.98
0.74808	99.99
0.76475	99.98
0.78142	99.99
0.79808	99.98
0.81475	99.98
0.83142	99.98
0.84808	99.99
0.86475	99.98
0.88142	99.98
0.89808	99.98
0.91475	99.98
0.93142	99.98
0.94808	99.99
0.96475	99.99
0.98142	99.98
0.99808	99.98
1.01475	99.98
1.03142	99.99
1.04808	99.99
1.06475	99.99
1.08142	99.99
1.09808	99.99
1.11475	99.98
1.13142	99.99
1.14808	99.99
1.16475	99.99
1.18142	99.99
1.19808	99.99
1.21475	99.99
1.23142	99.99
1.24808	99.99
1.26475	99.99
1.28142	99.99
1.29808	99.99
1.31475	99.99
1.33142	99.99
1.34808	99.99
1.36475	99.99
1.38142	99.99
1.39808	99.99
1.41475	99.99
1.43142	99.99
1.44808	99.99
1.46475	99.99
1.48142	99.99
1.49808	99.99
1.51475	99.99
1.53142	99.99
1.54808	99.99
1.56475	99.99
1.58142	99.99
1.59808	99.99
1.61475	99.99
1.63142	99.99
1.64808	99.99
1.66475	99.99
1.68142	99.99
1.69808	99.99
1.71475	99.99
1.73142	99.99
1.74808	99.99
1.76475	99.98
1.78142	99.99
1.79808	99.99
1.81475	99.98
1.83142	99.98
1.84808	99.99
1.86475	99.98
1.88142	99.98
1.89808	99.98
1.91475	99.98
1.93142	99.98
1.94808	99.98
1.96475	99.98
1.98142	99.97
1.99808	99.98
2.01475	99.97
2.03142	99.98
2.04808	99.97
2.06475	99.97
2.08142	99.97
2.09808	99.97
2.11475	99.97
2.13142	99.97
2.14808	99.97
2.16475	99.97
2.18142	99.97
2.19808	99.97
2.21475	99.97
2.23142	99.97
2.24808	99.97
2.26475	99.97
2.28142	99.97
2.29808	99.97
2.31475	99.97
2.33142	99.97
2.34808	99.97
2.36475	99.97
2.38142	99.97
2.39808	99.97
2.41475	99.97
2.43142	99.97
2.44808	99.97
2.46475	99.97
2.48142	99.97
2.49808	99.97
2.51475	99.97
2.53142	99.97
2.54808	99.98
2.56475	99.98
2.58142	99.98
2.59808	99.98
2.61475	99.98
2.63142	99.98
2.64808	99.98
2.66475	99.98
2.68142	99.99
2.69808	99.99
2.71475	99.99
2.73142	99.99
2.74808	99.99
2.76475	99.99
2.78142	99.99
2.79808	99.99
2.81475	99.99
2.83142	100.00
2.84808	100.00
2.86475	100.00
2.88142	100.00
2.89808	100.00
2.91475	100.00
2.93142	100.00
2.94808	100.00
2.96475	100.00
2.98142	100.00
2.99808	100.01
3.01475	100.00
3.03142	100.01
3.04808	100.01
3.06475	100.01
3.08142	100.01
3.09808	100.01
3.11475	100.01
3.13142	100.01
3.14808	100.02
3.16475	100.01
3.18142	100.02
3.19808	100.02
3.21475	100.02
3.23142	100.02
3.24808	100.02
3.26475	100.02
3.28142	100.02
3.29808	100.02
3.31475	100.02
3.33142	100.02
3.34808	100.02
3.36475	100.02
3.38142	100.03
3.39808	100.02
3.41475	100.02
3.43142	100.03
3.44808	100.03
3.46475	100.03
3.48142	100.03
3.49808	100.03
3.51475	100.03
3.53142	100.03
3.54808	100.03
3.56475	100.03
3.58142	100.04
3.59808	100.04
3.61475	100.04
3.63142	100.04
3.64808	100.04
3.66475	100.04
3.68142	100.04
3.69808	100.04
3.71475	100.04
3.73142	100.04
3.74808	100.05
3.76475	100.04
3.78142	100.04
3.79808	100.05
3.81475	100.04
3.83142	100.04
3.84808	100.05
3.86475	100.05
3.88142	100.05
3.89808	100.05
3.91475	100.05
3.93142	100.05
3.94808	100.05
3.96475	100.05
3.98142	100.05
3.99808	100.05

[Status Trace (Carrier Gas Pressure)]
Interval(msec)	1000
# of Points	240
Start Time(min)	0.015
End Time(min)	3.998
Intensity Units	
Intensity Multiplier	1
R.Time (min)	Intensity
0.01475	57.30
0.03142	55.65
0.04808	57.93
0.06475	59.84
0.08142	58.67
0.09808	57.98
0.11475	58.00
0.13142	58.01
0.14808	58.01
0.16475	58.00
0.18142	58.00
0.19808	58.00
0.21475	58.00
0.23142	58.00
0.24808	58.00
0.26475	58.00
0.28142	58.00
0.29808	58.00
0.31475	58.00
0.33142	58.00
0.34808	58.00
0.36475	58.00
0.38142	58.00
0.39808	58.00
0.41475	58.00
0.43142	58.00
0.44808	58.00
0.46475	58.00
0.48142	58.00
0.49808	58.00
0.51475	58.00
0.53142	58.00
0.54808	58.00
0.56475	58.00
0.58142	58.00
0.59808	58.00
0.61475	58.00
0.63142	58.00
0.64808	58.00
0.66475	58.00
0.68142	58.00
0.69808	58.00
0.71475	58.00
0.73142	58.00
0.74808	58.00
0.76475	58.00
0.78142	58.00
0.79808	58.00
0.81475	58.00
0.83142	58.00
0.84808	58.00
0.86475	58.00
0.88142	58.00
0.89808	58.00
0.91475	58.00
0.93142	58.00
0.94808	58.00
0.96475	58.00
0.98142	58.00
0.99808	58.00
1.01475	58.00
1.03142	58.00
1.04808	58.00
1.06475	58.00
1.08142	58.00
1.09808	58.00
1.11475	58.00
1.13142	58.00
1.14808	58.00
1.16475	58.00
1.18142	58.00
1.19808	58.00
1.21475	58.00
1.23142	58.00
1.24808	58.00
1.26475	58.00
1.28142	58.00
1.29808	58.00
1.31475	58.00
1.33142	58.00
1.34808	58.00
1.36475	58.00
1.38142	58.00
1.39808	58.00
1.41475	58.00
1.43142	58.00
1.44808	58.00
1.46475	58.00
1.48142	58.00
1.49808	58.00
1.51475	58.00
1.53142	58.00
1.54808	58.00
1.56475	58.00
1.58142	58.00
1.59808	58.00
1.61475	58.00
1.63142	58.01
1.64808	58.00
1.66475	58.01
1.68142	58.01
1.69808	58.00
1.71475	58.00
1.73142	58.00
1.74808	58.00
1.76475	58.00
1.78142	58.00
1.79808	58.00
1.81475	58.00
1.83142	58.00
1.84808	58.00
1.86475	58.00
1.88142	58.00
1.89808	58.00
1.91475	58.00
1.93142	58.00
1.94808	58.00
1.96475	58.00
1.98142	58.00
1.99808	58.00
2.01475	58.00
2.03142	58.00
2.04808	58.00
2.06475	58.00
2.08142	58.00
2.09808	58.00
2.11475	58.00
2.13142	58.00
2.14808	58.00
2.16475	58.00
2.18142	58.00
2.19808	58.00
2.21475	58.00
2.23142	58.00
2.24808	58.00
2.26475	58.00
2.28142	58.00
2.29808	58.00
2.31475	58.00
2.33142	58.00
2.34808	58.00
2.36475	58.00
2.38142	57.99
2.39808	57.99
2.41475	58.00
2.43142	58.00
2.44808	58.00
2.46475	58.00
2.48142	58.00
2.49808	58.00
2.51475	57.99
2.53142	57.99
2.54808	58.00
2.56475	58.00
2.58142	58.00
2.59808	58.00
2.61475	58.00
2.63142	58.00
2.64808	58.00
2.66475	58.00
2.68142	58.00
2.69808	58.00
2.71475	58.00
2.73142	58.00
2.74808	58.00
2.76475	58.00
2.78142	58.00
2.79808	58.00
2.81475	58.00
2.83142	58.00
2.84808	58.00
2.86475	58.00
2.88142	58.00
2.89808	58.00
2.91475	58.00
2.93142	58.00
2.94808	58.00
2.96475	58.00
2.98142	58.00
2.99808	58.00
3.01475	58.00
3.03142	58.00
3.04808	58.00
3.06475	58.00
3.08142	58.00
3.09808	58.00
3.11475	58.00
3.13142	58.00
3.14808	58.00
3.16475	58.00
3.18142	58.00
3.19808	58.00
3.21475	58.00
3.23142	58.00
3.24808	58.00
3.26475	58.00
3.28142	58.00
3.29808	58.00
3.31475	58.00
3.33142	58.00
3.34808	58.00
3.36475	58.00
3.38142	58.00
3.39808	58.00
3.41475	58.00
3.43142	58.00
3.44808	58.00
3.46475	58.00
3.48142	58.00
3.49808	58.00
3.51475	58.00
3.53142	58.00
3.54808	58.00
3.56475	58.00
3.58142	58.00
3.59808	58.00
3.61475	58.00
3.63142	58.00
3.64808	58.00
3.66475	58.00
3.68142	58.00
3.69808	58.00
3.71475	58.00
3.73142	58.00
3.74808	58.00
3.76475	58.00
3.78142	58.00
3.79808	58.00
3.81475	58.00
3.83142	58.00
3.84808	58.00
3.86475	58.00
3.88142	58.00
3.89808	58.00
3.91475	58.00
3.93142	58.00
3.94808	58.00
3.96475	58.00
3.98142	58.00
3.99808	58.00

[Status Trace (Carrier Gas Flow)]
Interval(msec)	1000
# of Points	240
Start Time(min)	0.015
End Time(min)	3.998
Intensity Units	
Intensity Multiplier	1
R.Time (min)	Intensity
0.01475	34.03
0.03142	34.53
0.04808	34.55
0.06475	34.52
0.08142	34.50
0.09808	34.52
0.11475	34.52
0.13142	34.52
0.14808	34.52
0.16475	34.52
0.18142	34.52
0.19808	34.52
0.21475	34.52
0.23142	34.52
0.24808	34.52
0.26475	34.52
0.28142	34.52
0.29808	34.52
0.31475	34.52
0.33142	34.52
0.34808	34.52
0.36475	34.52
0.38142	34.52
0.39808	34.52
0.41475	34.52
0.43142	34.52
0.44808	34.52
0.46475	34.52
0.48142	34.52
0.49808	34.52
0.51475	34.52
0.53142	34.52
0.54808	34.52
0.56475	34.52
0.58142	34.52
0.59808	34.52
0.61475	34.52
0.63142	34.52
0.64808	34.52
0.66475	34.52
0.68142	34.52
0.69808	34.52
0.71475	34.52
0.73142	34.52
0.74808	34.52
0.76475	34.52
0.78142	34.52
0.79808	34.52
0.81475	34.52
0.83142	34.52
0.84808	34.52
0.86475	34.52
0.88142	34.52
0.89808	34.52
0.91475	34.52
0.93142	34.52
0.94808	34.52
0.96475	34.52
0.98142	34.52
0.99808	34.52
1.01475	34.52
1.03142	34.52
1.04808	34.52
1.06475	34.52
1.08142	34.52
1.09808	34.52
1.11475	34.52
1.13142	34.52
1.14808	34.52
1.16475	34.52
1.18142	34.52
1.19808	34.52
1.21475	34.52
1.23142	34.52
1.24808	34.52
1.26475	34.52
1.28142	34.52
1.29808	34.52
1.31475	34.52
1.33142	34.52
1.34808	34.52
1.36475	34.52
1.38142	34.52
1.39808	34.52
1.41475	34.52
1.43142	34.52
1.44808	34.52
1.46475	34.52
1.48142	34.52
1.49808	34.52
1.51475	34.52
1.53142	34.52
1.54808	34.52
1.56475	34.52
1.58142	34.52
1.59808	34.52
1.61475	34.52
1.63142	34.52
1.64808	34.52
1.66475	34.52
1.68142	34.52
1.69808	34.52
1.71475	34.52
1.73142	34.52
1.74808	34.52
1.76475	34.52
1.78142	34.52
1.79808	34.52
1.81475	34.52
1.83142	34.52
1.84808	34.52
1.86475	34.52
1.88142	34.52
1.89808	34.52
1.91475	34.52
1.93142	34.52
1.94808	34.52
1.96475	34.52
1.98142	34.52
1.99808	34.52
2.01475	34.52
2.03142	34.52
2.04808	34.52
2.06475	34.52
2.08142	34.52
2.09808	34.52
2.11475	34.52
2.13142	34.52
2.14808	34.52
2.16475	34.52
2.18142	34.52
2.19808	34.52
2.21475	34.52
2.23142	34.52
2.24808	34.52
2.26475	34.52
2.28142	34.52
2.29808	34.52
2.31475	34.52
2.33142	34.52
2.34808	34.52
2.36475	34.52
2.38142	34.52
2.39808	34.52
2.41475	34.52
2.43142	34.52
2.44808	34.52
2.46475	34.52
2.48142	34.52
2.49808	34.52
2.51475	34.52
2.53142	34.52
2.54808	34.52
2.56475	34.52
2.58142	34.52
2.59808	34.52
2.61475	34.52
2.63142	34.52
2.64808	34.52
2.66475	34.52
2.68142	34.52
2.69808	34.52
2.71475	34.52
2.73142	34.52
2.74808	34.52
2.76475	34.52
2.78142	34.52
2.79808	34.52
2.81475	34.52
2.83142	34.52
2.84808	34.52
2.86475	34.52
2.88142	34.52
2.89808	34.52
2.91475	34.52
2.93142	34.52
2.94808	34.52
2.96475	34.52
2.98142	34.52
2.99808	34.52
3.01475	34.52
3.03142	34.52
3.04808	34.52
3.06475	34.52
3.08142	34.52
3.09808	34.52
3.11475	34.52
3.13142	34.52
3.14808	34.52
3.16475	34.52
3.18142	34.52
3.19808	34.52
3.21475	34.52
3.23142	34.52
3.24808	34.52
3.26475	34.52
3.28142	34.52
3.29808	34.52
3.31475	34.52
3.33142	34.52
3.34808	34.52
3.36475	34.52
3.38142	34.52
3.39808	34.52
3.41475	34.52
3.43142	34.52
3.44808	34.52
3.46475	34.52
3.48142	34.52
3.49808	34.52
3.51475	34.52
3.53142	34.52
3.54808	34.52
3.56475	34.52
3.58142	34.52
3.59808	34.52
3.61475	34.52
3.63142	34.52
3.64808	34.51
3.66475	34.51
3.68142	34.51
3.69808	34.52
3.71475	34.52
3.73142	34.52
3.74808	34.52
3.76475	34.52
3.78142	34.52
3.79808	34.53
3.81475	34.52
3.83142	34.52
3.84808	34.52
3.86475	34.52
3.88142	34.52
3.89808	34.52
3.91475	34.52
3.93142	34.52
3.94808	34.52
3.96475	34.52
3.98142	34.50
3.99808	34.53

[Status Trace (Column Flow)]
Interval(msec)	1000
# of Points	240
Start Time(min)	0.015
End Time(min)	3.998
Intensity Units	
Intensity Multiplier	1
R.Time (min)	Intensity
0.01475	5.41
0.03142	5.22
0.04808	5.49
0.06475	5.71
0.08142	5.57
0.09808	5.49
0.11475	5.49
0.13142	5.50
0.14808	5.50
0.16475	5.50
0.18142	5.50
0.19808	5.50
0.21475	5.50
0.23142	5.49
0.24808	5.49
0.26475	5.49
0.28142	5.49
0.29808	5.49
0.31475	5.49
0.33142	5.49
0.34808	5.49
0.36475	5.49
0.38142	5.49
0.39808	5.50
0.41475	5.50
0.43142	5.50
0.44808	5.50
0.46475	5.50
0.48142	5.50
0.49808	5.50
0.51475	5.50
0.53142	5.50
0.54808	5.50
0.56475	5.50
0.58142	5.49
0.59808	5.49
0.61475	5.49
0.63142	5.50
0.64808	5.50
0.66475	5.50
0.68142	5.50
0.69808	5.50
0.71475	5.50
0.73142	5.50
0.74808	5.50
0.76475	5.50
0.78142	5.50
0.79808	5.50
0.81475	5.50
0.83142	5.50
0.84808	5.50
0.86475	5.50
0.88142	5.50
0.89808	5.50
0.91475	5.50
0.93142	5.50
0.94808	5.50
0.96475	5.50
0.98142	5.49
0.99808	5.49
1.01475	5.49
1.03142	5.49
1.04808	5.49
1.06475	5.49
1.08142	5.49
1.09808	5.49
1.11475	5.49
1.13142	5.50
1.14808	5.50
1.16475	5.50
1.18142	5.50
1.19808	5.50
1.21475	5.50
1.23142	5.50
1.24808	5.50
1.26475	5.50
1.28142	5.50
1.29808	5.50
1.31475	5.50
1.33142	5.50
1.34808	5.49
1.36475	5.50
1.38142	5.49
1.39808	5.49
1.41475	5.49
1.43142	5.49
1.44808	5.49
1.46475	5.49
1.48142	5.49
1.49808	5.50
1.51475	5.49
1.53142	5.50
1.54808	5.50
1.56475	5.50
1.58142	5.50
1.59808	5.49
1.61475	5.49
1.63142	5.49
1.64808	5.48
1.66475	5.47
1.68142	5.46
1.69808	5.45
1.71475	5.44
1.73142	5.43
1.74808	5.42
1.76475	5.41
1.78142	5.40
1.79808	5.39
1.81475	5.38
1.83142	5.37
1.84808	5.36
1.86475	5.35
1.88142	5.34
1.89808	5.33
1.91475	5.32
1.93142	5.31
1.94808	5.30
1.96475	5.29
1.98142	5.28
1.99808	5.27
2.01475	5.26
2.03142	5.25
2.04808	5.24
2.06475	5.23
2.08142	5.22
2.09808	5.21
2.11475	5.20
2.13142	5.20
2.14808	5.19
2.16475	5.18
2.18142	5.17
2.19808	5.16
2.21475	5.15
2.23142	5.14
2.24808	5.13
2.26475	5.12
2.28142	5.11
2.29808	5.10
2.31475	5.09
2.33142	5.08
2.34808	5.07
2.36475	5.07
2.38142	5.06
2.39808	5.06
2.41475	5.06
2.43142	5.06
2.44808	5.06
2.46475	5.06
2.48142	5.06
2.49808	5.06
2.51475	5.06
2.53142	5.06
2.54808	5.06
2.56475	5.06
2.58142	5.06
2.59808	5.06
2.61475	5.06
2.63142	5.06
2.64808	5.06
2.66475	5.06
2.68142	5.06
2.69808	5.06
2.71475	5.06
2.73142	5.06
2.74808	5.06
2.76475	5.06
2.78142	5.06
2.79808	5.06
2.81475	5.06
2.83142	5.06
2.84808	5.06
2.86475	5.06
2.88142	5.06
2.89808	5.06
2.91475	5.06
2.93142	5.06
2.94808	5.06
2.96475	5.06
2.98142	5.06
2.99808	5.05
3.01475	5.05
3.03142	5.05
3.04808	5.05
3.06475	5.05
3.08142	5.05
3.09808	5.05
3.11475	5.05
3.13142	5.05
3.14808	5.05
3.16475	5.05
3.18142	5.05
3.19808	5.05
3.21475	5.05
3.23142	5.05
3.24808	5.05
3.26475	5.05
3.28142	5.05
3.29808	5.05
3.31475	5.05
3.33142	5.05
3.34808	5.05
3.36475	5.05
3.38142	5.05
3.39808	5.05
3.41475	5.05
3.43142	5.05
3.44808	5.05
3.46475	5.05
3.48142	5.05
3.49808	5.05
3.51475	5.05
3.53142	5.05
3.54808	5.05
3.56475	5.05
3.58142	5.05
3.59808	5.05
3.61475	5.05
3.63142	5.05
3.64808	5.05
3.66475	5.05
3.68142	5.05
3.69808	5.05
3.71475	5.05
3.73142	5.05
3.74808	5.05
3.76475	5.05
3.78142	5.05
3.79808	5.05
3.81475	5.05
3.83142	5.05
3.84808	5.05
3.86475	5.05
3.88142	5.05
3.89808	5.05
3.91475	5.05
3.93142	5.05
3.94808	5.05
3.96475	5.05
3.98142	5.05
3.99808	5.05

[Status Trace (Linear Velocity)]
Interval(msec)	1000
# of Points	240
Start Time(min)	0.015
End Time(min)	3.998
Intensity Units	
Intensity Multiplier	1
R.Time (min)	Intensity
0.01475	38.55
0.03142	37.46
0.04808	38.96
0.06475	40.21
0.08142	39.45
0.09808	38.99
0.11475	39.01
0.13142	39.02
0.14808	39.02
0.16475	39.01
0.18142	39.01
0.19808	39.01
0.21475	39.01
0.23142	39.01
0.24808	39.01
0.26475	39.01
0.28142	39.01
0.29808	39.01
0.31475	39.01
0.33142	39.01
0.34808	39.01
0.36475	39.01
0.38142	39.01
0.39808	39.01
0.41475	39.01
0.43142	39.01
0.44808	39.01
0.46475	39.01
0.48142	39.01
0.49808	39.01
0.51475	39.01
0.53142	39.01
0.54808	39.01
0.56475	39.01
0.58142	39.01
0.59808	39.01
0.61475	39.01
0.63142	39.01
0.64808	39.01
0.66475	39.01
0.68142	39.01
0.69808	39.01
0.71475	39.01
0.73142	39.01
0.74808	39.01
0.76475	39.01
0.78142	39.01
0.79808	39.01
0.81475	39.01
0.83142	39.01
0.84808	39.01
0.86475	39.01
0.88142	39.01
0.89808	39.01
0.91475	39.01
0.93142	39.01
0.94808	39.01
0.96475	39.01
0.98142	39.01
0.99808	39.01
1.01475	39.01
1.03142	39.01
1.04808	39.01
1.06475	39.01
1.08142	39.01
1.09808	39.01
1.11475	39.01
1.13142	39.01
1.14808	39.01
1.16475	39.01
1.18142	39.01
1.19808	39.01
1.21475	39.01
1.23142	39.01
1.24808	39.01
1.26475	39.01
1.28142	39.01
1.29808	39.01
1.31475	39.01
1.33142	39.01
1.34808	39.01
1.36475	39.01
1.38142	39.01
1.39808	39.01
1.41475	39.01
1.43142	39.01
1.44808	39.01
1.46475	39.01
1.48142	39.01
1.49808	39.01
1.51475	39.01
1.53142	39.01
1.54808	39.01
1.56475	39.01
1.58142	39.01
1.59808	39.01
1.61475	39.00
1.63142	38.99
1.64808	38.97
1.66475	38.94
1.68142	38.91
1.69808	38.87
1.71475	38.84
1.73142	38.81
1.74808	38.78
1.76475	38.75
1.78142	38.71
1.79808	38.68
1.81475	38.65
1.83142	38.62
1.84808	38.59
1.86475	38.56
1.88142	38.53
1.89808	38.50
1.91475	38.47
1.93142	38.43
1.94808	38.40
1.96475	38.37
1.98142	38.35
1.99808	38.31
2.01475	38.29
2.03142	38.26
2.04808	38.23
2.06475	38.20
2.08142	38.17
2.09808	38.14
2.11475	38.11
2.13142	38.08
2.14808	38.05
2.16475	38.02
2.18142	37.99
2.19808	37.96
2.21475	37.93
2.23142	37.90
2.24808	37.87
2.26475	37.84
2.28142	37.81
2.29808	37.78
2.31475	37.75
2.33142	37.72
2.34808	37.69
2.36475	37.66
2.38142	37.65
2.39808	37.64
2.41475	37.65
2.43142	37.65
2.44808	37.65
2.46475	37.65
2.48142	37.65
2.49808	37.65
2.51475	37.64
2.53142	37.64
2.54808	37.64
2.56475	37.64
2.58142	37.64
2.59808	37.64
2.61475	37.64
2.63142	37.64
2.64808	37.64
2.66475	37.64
2.68142	37.64
2.69808	37.64
2.71475	37.64
2.73142	37.64
2.74808	37.64
2.76475	37.64
2.78142	37.64
2.79808	37.64
2.81475	37.64
2.83142	37.64
2.84808	37.64
2.86475	37.64
2.88142	37.64
2.89808	37.64
2.91475	37.63
2.93142	37.63
2.94808	37.63
2.96475	37.63
2.98142	37.63
2.99808	37.63
3.01475	37.63
3.03142	37.63
3.04808	37.63
3.06475	37.63
3.08142	37.63
3.09808	37.63
3.11475	37.62
3.13142	37.62
3.14808	37.62
3.16475	37.62
3.18142	37.62
3.19808	37.62
3.21475	37.62
3.23142	37.62
3.24808	37.62
3.26475	37.62
3.28142	37.62
3.29808	37.62
3.31475	37.62
3.33142	37.62
3.34808	37.62
3.36475	37.62
3.38142	37.62
3.39808	37.62
3.41475	37.62
3.43142	37.62
3.44808	37.62
3.46475	37.62
3.48142	37.62
3.49808	37.62
3.51475	37.62
3.53142	37.62
3.54808	37.62
3.56475	37.62
3.58142	37.62
3.59808	37.62
3.61475	37.62
3.63142	37.62
3.64808	37.62
3.66475	37.62
3.68142	37.62
3.69808	37.62
3.71475	37.62
3.73142	37.62
3.74808	37.62
3.76475	37.62
3.78142	37.62
3.79808	37.62
3.81475	37.62
3.83142	37.62
3.84808	37.62
3.86475	37.62
3.88142	37.62
3.89808	37.62
3.91475	37.62
3.93142	37.62
3.94808	37.62
3.96475	37.62
3.98142	37.62
3.99808	37.62

