[Header]
Application Name	LabSolutions
Version	5.110
Data File Name	C:\Users\User\Desktop\GC Analyses\Jack\UIC Prairie Sampling\9.16.22\220916_026.gcd
Output Date	11/29/2022
Output Time	11:10:16 AM

[File Information]
Type	Data File
Generated	11/14/2022 12:33:07 PM
Generated by	System Administrator
Modified	11/14/2022 12:38:00 PM
Modified by	System Administrator

[Sample Information]
Operator Name	System Administrator
Acquired	11/14/2022 12:33:59 PM
Sample Type	1:Standard
Level	1
Sample Name	220916_UICPrairie
Sample ID	220916_UICPrairie
ISTD Amount1	1
ISTD Amount2	1
ISTD Amount3	1
ISTD Amount4	1
ISTD Amount5	1
ISTD Amount6	1
ISTD Amount7	1
ISTD Amount8	1
ISTD Amount9	1
ISTD Amount10	1
ISTD Amount11	1
ISTD Amount12	1
ISTD Amount13	1
ISTD Amount14	1
ISTD Amount15	1
ISTD Amount16	1
ISTD Amount17	1
ISTD Amount18	1
ISTD Amount19	1
ISTD Amount20	1
ISTD Amount21	1
ISTD Amount22	1
ISTD Amount23	1
ISTD Amount24	1
ISTD Amount25	1
ISTD Amount26	1
ISTD Amount27	1
ISTD Amount28	1
ISTD Amount29	1
ISTD Amount30	1
ISTD Amount31	1
ISTD Amount32	1
Sample Amount	1
Dilution Factor	1
Vial#	1
Injection Volume	1
Injection Count	1
Bar Code	

[Original Files]
Data File	C:\Users\User\Desktop\GC Analyses\Jack\UIC Prairie Sampling\9.16.22\220916_026.gcd
Method File	C:\LabSolutions\Data\GHG_4min_2022\ghg3_togas_w_acet_4 min_new_int.gcm
Batch File	
Report Format File	c:\LabSolutions\System\DEFAULT.lsr

[File Description]


[Configuration]
Instrument Name	C0B7VH3-Instrument1
Instrument #	1
Line #	1
# of Detectors	3
Detector ID	DET#1	DET#2	DET#3
Detector Name	FID	PTCD	ECD
# of Channels	1	1	1

[Peak Table(Ch1)]
# of Peaks	3
Peak#	R.Time	I.Time	F.Time	Area	Height	A/H	Conc.	Mark	ID#	Name	k'	Plate #	Plate Ht.	Tailing	Resolution	Sep.Factor	Area Ratio	Height Ratio	Conc. %	Norm Conc.
1	1.472	1.439	1.534	5597	1998	2.801	100.000	   	1	CO	0.000	6266	23.939	0.000	0.000	0.000	0	0	16.667	16.667
2	1.571	1.534	1.641	20965	10381	2.020	100.000	 V 	2	CH4	0.067	11012	13.622	1.228	1.475	0.000	0	0	16.667	16.667
3	2.000	1.952	2.433	2170560	1034287	2.099	400.000	   	3	CO2	0.359	17041	8.802	1.260	7.081	5.333	0	0	66.667	66.667

[Peak Table(Ch2)]
# of Peaks	0

[Peak Table(Ch3)]
# of Peaks	2
Peak#	R.Time	I.Time	F.Time	Area	Height	A/H	Conc.	Mark	ID#	Name	k'	Plate #	Plate Ht.	Tailing	Resolution	Sep.Factor	Area Ratio	Height Ratio	Conc. %	Norm Conc.
1	2.605	2.506	2.645	866	212	4.094	0.000	   			0.000	7936	18.901	0.691	0.000	0.000	0	0	0.000	0.000
2	2.884	2.660	3.866	66362	15313	4.334	1.000	   	1	N2O	0.107	12680	11.829	1.654	2.540	0.000	0	0	100.000	100.000

[Compound Results(Ch1)]
# of IDs	6
ID#	Name	R.Time	Area	Height	Conc.	Curve	3rd	2nd	1st	Constant	Area Ratio	Height Ratio	Conc. %	Norm Conc.
1	CO	1.472	5597	1998	100.000	Linear	0.000000e+00	0.000000e+00	5.596812e+001	0.000000e+00	0	0	16.667	16.667
2	CH4	1.571	20965	10381	100.000	Linear	0.000000e+00	0.000000e+00	2.096495e+002	0.000000e+00	0	0	16.667	16.667
3	CO2	2.000	2170560	1034287	400.000	Linear	0.000000e+00	0.000000e+00	5.426399e+003	0.000000e+00	0	0	66.667	66.667
4	Ethylene	0.000	0	0	0.000	Linear	0.000000e+00	0.000000e+00	0.000000e+00	0.000000e+00	0	0	0.000	0.000
5	Acetylene	0.000	0	0	0.000	Linear	0.000000e+00	0.000000e+00	0.000000e+00	0.000000e+00	0	0	0.000	0.000
6	Ethane	0.000	0	0	0.000	Linear	0.000000e+00	0.000000e+00	0.000000e+00	0.000000e+00	0	0	0.000	0.000

[Compound Results(Ch2)]
# of IDs	5
ID#	Name	R.Time	Area	Height	Conc.	Curve	3rd	2nd	1st	Constant	Area Ratio	Height Ratio	Conc. %	Norm Conc.
1	Hydrogen	0.000	0	0	0.000	Linear	0.000000e+00	0.000000e+00	0.000000e+00	0.000000e+00	0	0	0.000	0.000
2	Oxygen	0.000	0	0	0.000	Linear	0.000000e+00	0.000000e+00	0.000000e+00	0.000000e+00	0	0	0.000	0.000
3	Nitrogen	0.000	0	0	0.000	Linear	0.000000e+00	0.000000e+00	0.000000e+00	0.000000e+00	0	0	0.000	0.000
4	Methane	0.000	0	0	0.000	Linear	0.000000e+00	0.000000e+00	0.000000e+00	0.000000e+00	0	0	0.000	0.000
5	Carbon Monoxide	0.000	0	0	0.000	Linear	0.000000e+00	0.000000e+00	0.000000e+00	0.000000e+00	0	0	0.000	0.000

[Compound Results(Ch3)]
# of IDs	2
ID#	Name	R.Time	Area	Height	Conc.	Curve	3rd	2nd	1st	Constant	Area Ratio	Height Ratio	Conc. %	Norm Conc.
1	N2O	2.884	66362	15313	1.000	Linear	0.000000e+00	0.000000e+00	6.636205e+004	0.000000e+00	0	0	100.000	100.000
2	SF6	0.000	0	0	0.000	Linear	0.000000e+00	0.000000e+00	0.000000e+00	0.000000e+00	0	0	0.000	0.000

[Group Results(Ch1)]
# of Groups	0

[Group Results(Ch2)]
# of Groups	0

[Group Results(Ch3)]
# of Groups	0

[Chromatogram (Ch1)]
Interval(msec)	220
# of Points	1091
Start Time(min)	0.002
End Time(min)	3.998
R.Time (min)	Intensity
0.00167	-5
0.00533	-3
0.00900	-2
0.01267	-3
0.01633	-4
0.02000	-6
0.02367	-8
0.02733	-8
0.03100	-6
0.03467	-3
0.03833	4
0.04200	10
0.04567	14
0.04933	13
0.05300	10
0.05667	9
0.06033	10
0.06400	15
0.06767	23
0.07133	26
0.07500	24
0.07867	20
0.08233	18
0.08600	14
0.08967	11
0.09333	10
0.09700	11
0.10067	14
0.10433	15
0.10800	14
0.11167	9
0.11533	2
0.11900	-2
0.12267	-2
0.12633	1
0.13000	4
0.13367	4
0.13733	4
0.14100	4
0.14467	3
0.14833	5
0.15200	8
0.15567	8
0.15933	4
0.16300	-0
0.16667	-4
0.17033	-6
0.17400	-10
0.17767	-14
0.18133	-15
0.18500	-13
0.18867	-9
0.19233	-4
0.19600	-1
0.19967	-1
0.20333	-0
0.20700	0
0.21067	-1
0.21433	-3
0.21800	-6
0.22167	-8
0.22533	-6
0.22900	1
0.23267	9
0.23633	13
0.24000	15
0.24367	18
0.24733	23
0.25100	29
0.25467	31
0.25833	30
0.26200	24
0.26567	17
0.26933	10
0.27300	8
0.27667	7
0.28033	5
0.28400	4
0.28767	3
0.29133	4
0.29500	5
0.29867	7
0.30233	8
0.30600	8
0.30967	5
0.31333	3
0.31700	4
0.32067	5
0.32433	6
0.32800	9
0.33167	14
0.33533	18
0.33900	18
0.34267	11
0.34633	7
0.35000	5
0.35367	1
0.35733	-4
0.36100	-7
0.36467	-4
0.36833	1
0.37200	4
0.37567	3
0.37933	-1
0.38300	-2
0.38667	-2
0.39033	0
0.39400	2
0.39767	5
0.40133	10
0.40500	12
0.40867	10
0.41233	6
0.41600	3
0.41967	1
0.42333	-2
0.42700	-4
0.43067	-7
0.43433	-8
0.43800	-7
0.44167	-6
0.44533	-6
0.44900	-4
0.45267	-0
0.45633	4
0.46000	5
0.46367	3
0.46733	1
0.47100	1
0.47467	-0
0.47833	-2
0.48200	-0
0.48567	4
0.48933	9
0.49300	11
0.49667	12
0.50033	9
0.50400	3
0.50767	-2
0.51133	-7
0.51500	-8
0.51867	-6
0.52233	-2
0.52600	3
0.52967	8
0.53333	10
0.53700	11
0.54067	11
0.54433	9
0.54800	3
0.55167	-4
0.55533	-10
0.55900	-17
0.56267	-25
0.56633	-31
0.57000	-31
0.57367	-28
0.57733	-26
0.58100	-23
0.58467	-19
0.58833	-15
0.59200	-14
0.59567	-13
0.59933	-12
0.60300	-8
0.60667	-4
0.61033	-3
0.61400	-1
0.61767	-3
0.62133	-10
0.62500	-19
0.62867	-27
0.63233	-31
0.63600	-32
0.63967	-34
0.64333	-34
0.64700	-36
0.65067	-37
0.65433	-37
0.65800	-34
0.66167	-32
0.66533	-26
0.66900	-17
0.67267	-8
0.67633	-5
0.68000	-3
0.68367	-3
0.68733	-6
0.69100	-8
0.69467	-13
0.69833	-23
0.70200	-37
0.70567	-48
0.70933	-54
0.71300	-56
0.71667	-57
0.72033	-56
0.72400	-52
0.72767	-47
0.73133	-39
0.73500	-33
0.73867	-33
0.74233	-38
0.74600	-40
0.74967	-36
0.75333	-32
0.75700	-31
0.76067	-35
0.76433	-41
0.76800	-45
0.77167	-45
0.77533	-43
0.77900	-38
0.78267	-35
0.78633	-37
0.79000	-39
0.79367	-40
0.79733	-38
0.80100	-33
0.80467	-29
0.80833	-29
0.81200	-31
0.81567	-33
0.81933	-35
0.82300	-37
0.82667	-37
0.83033	-37
0.83400	-35
0.83767	-30
0.84133	-22
0.84500	-14
0.84867	-9
0.85233	-11
0.85600	-15
0.85967	-17
0.86333	-17
0.86700	-17
0.87067	-19
0.87433	-19
0.87800	-17
0.88167	-15
0.88533	-15
0.88900	-15
0.89267	-16
0.89633	-16
0.90000	-16
0.90367	-14
0.90733	-13
0.91100	-10
0.91467	-8
0.91833	-8
0.92200	-9
0.92567	-9
0.92933	-9
0.93300	-9
0.93667	-11
0.94033	-13
0.94400	-18
0.94767	-25
0.95133	-31
0.95500	-35
0.95867	-39
0.96233	-38
0.96600	-33
0.96967	-26
0.97333	-20
0.97700	-20
0.98067	-24
0.98433	-26
0.98800	-28
0.99167	-31
0.99533	-32
0.99900	-32
1.00267	-31
1.00633	-29
1.01000	-27
1.01367	-28
1.01733	-30
1.02100	-28
1.02467	-23
1.02833	-18
1.03200	-17
1.03567	-20
1.03933	-23
1.04300	-26
1.04667	-28
1.05033	-28
1.05400	-27
1.05767	-27
1.06133	-25
1.06500	-23
1.06867	-21
1.07233	-23
1.07600	-31
1.07967	-35
1.08333	-35
1.08700	-35
1.09067	-37
1.09433	-37
1.09800	-34
1.10167	-30
1.10533	-29
1.10900	-30
1.11267	-33
1.11633	-33
1.12000	-30
1.12367	-25
1.12733	-20
1.13100	-16
1.13467	-13
1.13833	-15
1.14200	-22
1.14567	-28
1.14933	-31
1.15300	-30
1.15667	-26
1.16033	-25
1.16400	-26
1.16767	-24
1.17133	-23
1.17500	-24
1.17867	-23
1.18233	-21
1.18600	-18
1.18967	-17
1.19333	-18
1.19700	-22
1.20067	-25
1.20433	-27
1.20800	-25
1.21167	-20
1.21533	-15
1.21900	-13
1.22267	-11
1.22633	-11
1.23000	-11
1.23367	-13
1.23733	-18
1.24100	-21
1.24467	-24
1.24833	-32
1.25200	-41
1.25567	-47
1.25933	-51
1.26300	-51
1.26667	-47
1.27033	-43
1.27400	-39
1.27767	-35
1.28133	-31
1.28500	-32
1.28867	-36
1.29233	-38
1.29600	-36
1.29967	-35
1.30333	-39
1.30700	-43
1.31067	-45
1.31433	-45
1.31800	-44
1.32167	-42
1.32533	-42
1.32900	-43
1.33267	-43
1.33633	-41
1.34000	-37
1.34367	-29
1.34733	-18
1.35100	-13
1.35467	-17
1.35833	-24
1.36200	-30
1.36567	-35
1.36933	-38
1.37300	-39
1.37667	-42
1.38033	-45
1.38400	-48
1.38767	-50
1.39133	-48
1.39500	-48
1.39867	-50
1.40233	-48
1.40600	-41
1.40967	-33
1.41333	-29
1.41700	-34
1.42067	-43
1.42433	-54
1.42800	-63
1.43167	-67
1.43533	-65
1.43900	-54
1.44267	12
1.44633	240
1.45000	641
1.45367	1073
1.45733	1436
1.46100	1699
1.46467	1860
1.46833	1934
1.47200	1950
1.47567	1926
1.47933	1862
1.48300	1753
1.48667	1590
1.49033	1378
1.49400	1146
1.49767	920
1.50133	720
1.50500	555
1.50867	426
1.51233	327
1.51600	252
1.51967	193
1.52333	147
1.52700	113
1.53067	89
1.53433	75
1.53800	81
1.54167	185
1.54533	608
1.54900	1624
1.55267	3279
1.55633	5263
1.56000	7162
1.56367	8717
1.56733	9812
1.57100	10351
1.57467	10197
1.57833	9296
1.58200	7823
1.58567	6123
1.58933	4519
1.59300	3190
1.59667	2181
1.60033	1459
1.60400	964
1.60767	632
1.61133	411
1.61500	265
1.61867	165
1.62233	98
1.62600	54
1.62967	24
1.63333	3
1.63700	-11
1.64067	-17
1.64433	-18
1.64800	-18
1.65167	-18
1.65533	-17
1.65900	-14
1.66267	-16
1.66633	-21
1.67000	-24
1.67367	-27
1.67733	-30
1.68100	-33
1.68467	-35
1.68833	-34
1.69200	-33
1.69567	-32
1.69933	-31
1.70300	-31
1.70667	-33
1.71033	-33
1.71400	-29
1.71767	-25
1.72133	-22
1.72500	-22
1.72867	-21
1.73233	-18
1.73600	-16
1.73967	-14
1.74333	-11
1.74700	-10
1.75067	-12
1.75433	-19
1.75800	-28
1.76167	-37
1.76533	-40
1.76900	-40
1.77267	-38
1.77633	-35
1.78000	-33
1.78367	-33
1.78733	-34
1.79100	-34
1.79467	-33
1.79833	-32
1.80200	-28
1.80567	-26
1.80933	-24
1.81300	-20
1.81667	-17
1.82033	-16
1.82400	-16
1.82767	-17
1.83133	-17
1.83500	-17
1.83867	-16
1.84233	-15
1.84600	-15
1.84967	-16
1.85333	-17
1.85700	-19
1.86067	-22
1.86433	-26
1.86800	-27
1.87167	-24
1.87533	-18
1.87900	-10
1.88267	-7
1.88633	-11
1.89000	-16
1.89367	-22
1.89733	-24
1.90100	-21
1.90467	-13
1.90833	-5
1.91200	2
1.91567	9
1.91933	11
1.92300	9
1.92667	6
1.93033	3
1.93400	1
1.93767	0
1.94133	-1
1.94500	-4
1.94867	-5
1.95233	1
1.95600	38
1.95967	278
1.96333	1611
1.96700	7423
1.97067	26732
1.97433	76002
1.97800	173216
1.98167	323820
1.98533	511560
1.98900	704703
1.99267	870767
1.99633	985495
2.00000	1034329
2.00367	1012280
2.00733	926037
2.01100	793881
2.01467	640902
2.01833	491006
2.02200	360532
2.02567	256514
2.02933	178741
2.03300	123185
2.03667	84718
2.04033	58613
2.04400	41093
2.04767	29373
2.05133	21508
2.05500	16181
2.05867	12527
2.06233	9975
2.06600	8154
2.06967	6824
2.07333	5831
2.07700	5070
2.08067	4472
2.08433	3993
2.08800	3600
2.09167	3272
2.09533	2999
2.09900	2772
2.10267	2576
2.10633	2403
2.11000	2249
2.11367	2112
2.11733	1990
2.12100	1883
2.12467	1789
2.12833	1709
2.13200	1632
2.13567	1559
2.13933	1492
2.14300	1429
2.14667	1368
2.15033	1309
2.15400	1251
2.15767	1198
2.16133	1150
2.16500	1106
2.16867	1067
2.17233	1034
2.17600	1005
2.17967	978
2.18333	950
2.18700	925
2.19067	903
2.19433	882
2.19800	860
2.20167	839
2.20533	821
2.20900	803
2.21267	786
2.21633	767
2.22000	749
2.22367	733
2.22733	717
2.23100	702
2.23467	690
2.23833	678
2.24200	668
2.24567	658
2.24933	649
2.25300	636
2.25667	621
2.26033	607
2.26400	596
2.26767	586
2.27133	578
2.27500	571
2.27867	563
2.28233	554
2.28600	547
2.28967	544
2.29333	541
2.29700	536
2.30067	533
2.30433	529
2.30800	523
2.31167	515
2.31533	505
2.31900	495
2.32267	488
2.32633	482
2.33000	476
2.33367	472
2.33733	470
2.34100	467
2.34467	459
2.34833	451
2.35200	448
2.35567	447
2.35933	448
2.36300	451
2.36667	451
2.37033	447
2.37400	439
2.37767	432
2.38133	428
2.38500	427
2.38867	422
2.39233	417
2.39600	411
2.39967	408
2.40333	409
2.40700	412
2.41067	415
2.41433	414
2.41800	415
2.42167	414
2.42533	412
2.42900	409
2.43267	409
2.43633	407
2.44000	403
2.44367	401
2.44733	400
2.45100	398
2.45467	396
2.45833	395
2.46200	395
2.46567	397
2.46933	397
2.47300	393
2.47667	389
2.48033	383
2.48400	376
2.48767	367
2.49133	358
2.49500	352
2.49867	350
2.50233	350
2.50600	348
2.50967	348
2.51333	354
2.51700	365
2.52067	374
2.52433	382
2.52800	393
2.53167	402
2.53533	404
2.53900	400
2.54267	393
2.54633	386
2.55000	379
2.55367	374
2.55733	370
2.56100	365
2.56467	358
2.56833	352
2.57200	348
2.57567	347
2.57933	346
2.58300	345
2.58667	345
2.59033	347
2.59400	349
2.59767	347
2.60133	340
2.60500	335
2.60867	336
2.61233	340
2.61600	344
2.61967	348
2.62333	351
2.62700	349
2.63067	344
2.63433	339
2.63800	331
2.64167	320
2.64533	310
2.64900	301
2.65267	298
2.65633	301
2.66000	309
2.66367	319
2.66733	327
2.67100	327
2.67467	323
2.67833	319
2.68200	315
2.68567	309
2.68933	304
2.69300	303
2.69667	306
2.70033	312
2.70400	318
2.70767	323
2.71133	330
2.71500	338
2.71867	342
2.72233	342
2.72600	339
2.72967	331
2.73333	320
2.73700	313
2.74067	312
2.74433	312
2.74800	313
2.75167	310
2.75533	305
2.75900	302
2.76267	304
2.76633	309
2.77000	314
2.77367	314
2.77733	311
2.78100	311
2.78467	312
2.78833	312
2.79200	311
2.79567	309
2.79933	306
2.80300	301
2.80667	299
2.81033	298
2.81400	302
2.81767	309
2.82133	317
2.82500	321
2.82867	320
2.83233	318
2.83600	315
2.83967	312
2.84333	310
2.84700	309
2.85067	307
2.85433	301
2.85800	298
2.86167	299
2.86533	305
2.86900	311
2.87267	316
2.87633	315
2.88000	312
2.88367	313
2.88733	315
2.89100	315
2.89467	314
2.89833	315
2.90200	317
2.90567	321
2.90933	325
2.91300	326
2.91667	322
2.92033	319
2.92400	319
2.92767	317
2.93133	316
2.93500	313
2.93867	310
2.94233	307
2.94600	306
2.94967	308
2.95333	313
2.95700	317
2.96067	320
2.96433	323
2.96800	328
2.97167	333
2.97533	332
2.97900	327
2.98267	327
2.98633	331
2.99000	340
2.99367	347
2.99733	347
3.00100	345
3.00467	352
3.00833	359
3.01200	357
3.01567	350
3.01933	338
3.02300	325
3.02667	317
3.03033	315
3.03400	315
3.03767	313
3.04133	313
3.04500	316
3.04867	319
3.05233	320
3.05600	323
3.05967	326
3.06333	324
3.06700	318
3.07067	312
3.07433	313
3.07800	319
3.08167	324
3.08533	327
3.08900	327
3.09267	319
3.09633	307
3.10000	298
3.10367	294
3.10733	298
3.11100	304
3.11467	306
3.11833	302
3.12200	296
3.12567	289
3.12933	287
3.13300	289
3.13667	293
3.14033	299
3.14400	305
3.14767	311
3.15133	314
3.15500	313
3.15867	313
3.16233	311
3.16600	306
3.16967	301
3.17333	298
3.17700	298
3.18067	302
3.18433	310
3.18800	317
3.19167	322
3.19533	326
3.19900	327
3.20267	327
3.20633	329
3.21000	332
3.21367	333
3.21733	332
3.22100	330
3.22467	325
3.22833	323
3.23200	323
3.23567	323
3.23933	324
3.24300	325
3.24667	324
3.25033	321
3.25400	317
3.25767	316
3.26133	318
3.26500	320
3.26867	318
3.27233	311
3.27600	305
3.27967	300
3.28333	299
3.28700	299
3.29067	303
3.29433	309
3.29800	314
3.30167	317
3.30533	318
3.30900	317
3.31267	317
3.31633	317
3.32000	318
3.32367	317
3.32733	313
3.33100	310
3.33467	307
3.33833	306
3.34200	305
3.34567	304
3.34933	299
3.35300	294
3.35667	289
3.36033	287
3.36400	289
3.36767	290
3.37133	293
3.37500	297
3.37867	300
3.38233	303
3.38600	304
3.38967	308
3.39333	313
3.39700	314
3.40067	314
3.40433	313
3.40800	313
3.41167	314
3.41533	315
3.41900	314
3.42267	310
3.42633	304
3.43000	303
3.43367	305
3.43733	309
3.44100	312
3.44467	313
3.44833	311
3.45200	307
3.45567	305
3.45933	308
3.46300	312
3.46667	312
3.47033	309
3.47400	304
3.47767	301
3.48133	302
3.48500	305
3.48867	306
3.49233	305
3.49600	303
3.49967	305
3.50333	306
3.50700	303
3.51067	297
3.51433	293
3.51800	290
3.52167	287
3.52533	286
3.52900	287
3.53267	291
3.53633	297
3.54000	304
3.54367	310
3.54733	313
3.55100	312
3.55467	307
3.55833	299
3.56200	289
3.56567	277
3.56933	267
3.57300	266
3.57667	273
3.58033	282
3.58400	287
3.58767	288
3.59133	285
3.59500	281
3.59867	277
3.60233	276
3.60600	281
3.60967	288
3.61333	294
3.61700	295
3.62067	293
3.62433	290
3.62800	290
3.63167	290
3.63533	290
3.63900	288
3.64267	286
3.64633	286
3.65000	290
3.65367	294
3.65733	293
3.66100	287
3.66467	278
3.66833	270
3.67200	266
3.67567	266
3.67933	270
3.68300	274
3.68667	274
3.69033	274
3.69400	278
3.69767	281
3.70133	282
3.70500	285
3.70867	287
3.71233	289
3.71600	291
3.71967	291
3.72333	283
3.72700	271
3.73067	262
3.73433	256
3.73800	252
3.74167	250
3.74533	249
3.74900	249
3.75267	250
3.75633	250
3.76000	253
3.76367	256
3.76733	258
3.77100	260
3.77467	262
3.77833	262
3.78200	264
3.78567	266
3.78933	267
3.79300	265
3.79667	262
3.80033	261
3.80400	263
3.80767	265
3.81133	270
3.81500	276
3.81867	279
3.82233	278
3.82600	276
3.82967	275
3.83333	272
3.83700	266
3.84067	257
3.84433	250
3.84800	246
3.85167	245
3.85533	244
3.85900	246
3.86267	252
3.86633	262
3.87000	270
3.87367	272
3.87733	270
3.88100	268
3.88467	266
3.88833	259
3.89200	248
3.89567	239
3.89933	237
3.90300	242
3.90667	246
3.91033	246
3.91400	244
3.91767	246
3.92133	250
3.92500	254
3.92867	255
3.93233	254
3.93600	254
3.93967	255
3.94333	254
3.94700	252
3.95067	249
3.95433	248
3.95800	251
3.96167	258
3.96533	268
3.96900	273
3.97267	271
3.97633	266
3.98000	262
3.98367	259
3.98733	254
3.99100	248
3.99467	244
3.99833	241

[Chromatogram (Ch2)]
Interval(msec)	220
# of Points	1091
Start Time(min)	0.002
End Time(min)	3.998
R.Time (min)	Intensity
0.00167	-0
0.00533	0
0.00900	0
0.01267	0
0.01633	0
0.02000	0
0.02367	0
0.02733	-0
0.03100	-0
0.03467	-0
0.03833	-0
0.04200	-0
0.04567	-0
0.04933	-0
0.05300	-0
0.05667	0
0.06033	0
0.06400	0
0.06767	1
0.07133	1
0.07500	1
0.07867	1
0.08233	1
0.08600	1
0.08967	2
0.09333	2
0.09700	2
0.10067	2
0.10433	2
0.10800	2
0.11167	1
0.11533	1
0.11900	1
0.12267	2
0.12633	2
0.13000	2
0.13367	2
0.13733	2
0.14100	1
0.14467	1
0.14833	1
0.15200	1
0.15567	1
0.15933	0
0.16300	0
0.16667	0
0.17033	0
0.17400	0
0.17767	0
0.18133	-0
0.18500	-0
0.18867	-0
0.19233	-0
0.19600	0
0.19967	0
0.20333	1
0.20700	1
0.21067	1
0.21433	1
0.21800	1
0.22167	2
0.22533	2
0.22900	2
0.23267	2
0.23633	2
0.24000	3
0.24367	3
0.24733	2
0.25100	2
0.25467	2
0.25833	2
0.26200	2
0.26567	3
0.26933	3
0.27300	3
0.27667	3
0.28033	3
0.28400	3
0.28767	3
0.29133	2
0.29500	2
0.29867	2
0.30233	2
0.30600	2
0.30967	2
0.31333	2
0.31700	2
0.32067	2
0.32433	2
0.32800	2
0.33167	2
0.33533	2
0.33900	2
0.34267	2
0.34633	2
0.35000	2
0.35367	2
0.35733	2
0.36100	2
0.36467	2
0.36833	2
0.37200	2
0.37567	1
0.37933	1
0.38300	1
0.38667	1
0.39033	1
0.39400	1
0.39767	2
0.40133	1
0.40500	1
0.40867	1
0.41233	1
0.41600	1
0.41967	0
0.42333	0
0.42700	0
0.43067	-0
0.43433	-0
0.43800	-1
0.44167	-1
0.44533	-1
0.44900	-1
0.45267	-1
0.45633	-1
0.46000	-1
0.46367	-0
0.46733	-0
0.47100	-0
0.47467	-0
0.47833	0
0.48200	0
0.48567	0
0.48933	0
0.49300	0
0.49667	0
0.50033	0
0.50400	0
0.50767	1
0.51133	1
0.51500	1
0.51867	2
0.52233	2
0.52600	2
0.52967	1
0.53333	1
0.53700	1
0.54067	0
0.54433	-0
0.54800	-0
0.55167	-0
0.55533	-0
0.55900	-0
0.56267	-0
0.56633	-0
0.57000	-0
0.57367	-0
0.57733	0
0.58100	0
0.58467	0
0.58833	0
0.59200	0
0.59567	0
0.59933	0
0.60300	0
0.60667	0
0.61033	0
0.61400	0
0.61767	0
0.62133	0
0.62500	0
0.62867	0
0.63233	0
0.63600	1
0.63967	1
0.64333	1
0.64700	1
0.65067	1
0.65433	2
0.65800	2
0.66167	2
0.66533	2
0.66900	2
0.67267	2
0.67633	2
0.68000	2
0.68367	2
0.68733	2
0.69100	2
0.69467	2
0.69833	1
0.70200	1
0.70567	1
0.70933	1
0.71300	1
0.71667	1
0.72033	2
0.72400	2
0.72767	2
0.73133	2
0.73500	2
0.73867	2
0.74233	2
0.74600	1
0.74967	1
0.75333	1
0.75700	0
0.76067	0
0.76433	-0
0.76800	-0
0.77167	-0
0.77533	-1
0.77900	-1
0.78267	-1
0.78633	-1
0.79000	-0
0.79367	-0
0.79733	0
0.80100	0
0.80467	1
0.80833	1
0.81200	1
0.81567	1
0.81933	1
0.82300	1
0.82667	1
0.83033	1
0.83400	1
0.83767	1
0.84133	1
0.84500	1
0.84867	1
0.85233	1
0.85600	1
0.85967	1
0.86333	1
0.86700	1
0.87067	1
0.87433	1
0.87800	1
0.88167	1
0.88533	2
0.88900	2
0.89267	2
0.89633	2
0.90000	1
0.90367	1
0.90733	1
0.91100	1
0.91467	1
0.91833	1
0.92200	1
0.92567	2
0.92933	2
0.93300	1
0.93667	1
0.94033	1
0.94400	1
0.94767	1
0.95133	1
0.95500	1
0.95867	1
0.96233	1
0.96600	1
0.96967	1
0.97333	2
0.97700	2
0.98067	2
0.98433	2
0.98800	2
0.99167	2
0.99533	2
0.99900	2
1.00267	2
1.00633	2
1.01000	2
1.01367	2
1.01733	2
1.02100	2
1.02467	2
1.02833	2
1.03200	1
1.03567	1
1.03933	1
1.04300	1
1.04667	1
1.05033	1
1.05400	1
1.05767	1
1.06133	1
1.06500	1
1.06867	1
1.07233	1
1.07600	0
1.07967	0
1.08333	0
1.08700	-0
1.09067	-0
1.09433	-0
1.09800	-1
1.10167	-1
1.10533	-1
1.10900	-1
1.11267	-1
1.11633	-1
1.12000	-1
1.12367	-1
1.12733	-1
1.13100	-0
1.13467	-0
1.13833	-0
1.14200	-0
1.14567	-0
1.14933	0
1.15300	0
1.15667	0
1.16033	0
1.16400	-0
1.16767	-0
1.17133	-0
1.17500	0
1.17867	-0
1.18233	0
1.18600	0
1.18967	0
1.19333	1
1.19700	1
1.20067	1
1.20433	2
1.20800	2
1.21167	2
1.21533	3
1.21900	3
1.22267	3
1.22633	3
1.23000	3
1.23367	3
1.23733	3
1.24100	3
1.24467	3
1.24833	3
1.25200	3
1.25567	3
1.25933	3
1.26300	2
1.26667	2
1.27033	2
1.27400	1
1.27767	1
1.28133	1
1.28500	1
1.28867	1
1.29233	1
1.29600	1
1.29967	1
1.30333	1
1.30700	1
1.31067	1
1.31433	1
1.31800	1
1.32167	2
1.32533	2
1.32900	2
1.33267	3
1.33633	3
1.34000	3
1.34367	3
1.34733	3
1.35100	3
1.35467	3
1.35833	3
1.36200	3
1.36567	3
1.36933	3
1.37300	3
1.37667	2
1.38033	2
1.38400	2
1.38767	2
1.39133	2
1.39500	2
1.39867	2
1.40233	2
1.40600	2
1.40967	2
1.41333	2
1.41700	2
1.42067	2
1.42433	2
1.42800	2
1.43167	2
1.43533	2
1.43900	3
1.44267	3
1.44633	3
1.45000	3
1.45367	3
1.45733	2
1.46100	2
1.46467	2
1.46833	2
1.47200	2
1.47567	2
1.47933	3
1.48300	3
1.48667	3
1.49033	3
1.49400	3
1.49767	3
1.50133	3
1.50500	3
1.50867	3
1.51233	3
1.51600	3
1.51967	2
1.52333	2
1.52700	2
1.53067	2
1.53433	2
1.53800	2
1.54167	2
1.54533	2
1.54900	2
1.55267	2
1.55633	2
1.56000	2
1.56367	2
1.56733	1
1.57100	1
1.57467	1
1.57833	0
1.58200	-0
1.58567	-0
1.58933	-1
1.59300	-1
1.59667	-1
1.60033	-1
1.60400	-2
1.60767	-3
1.61133	-4
1.61500	-6
1.61867	-8
1.62233	-11
1.62600	-14
1.62967	-17
1.63333	-20
1.63700	-23
1.64067	-27
1.64433	-30
1.64800	-34
1.65167	-38
1.65533	-41
1.65900	-45
1.66267	-49
1.66633	-53
1.67000	-58
1.67367	-63
1.67733	-68
1.68100	-73
1.68467	-78
1.68833	-83
1.69200	-88
1.69567	-92
1.69933	-95
1.70300	-99
1.70667	-101
1.71033	-104
1.71400	-106
1.71767	-107
1.72133	-108
1.72500	-108
1.72867	-109
1.73233	-109
1.73600	-109
1.73967	-109
1.74333	-108
1.74700	-108
1.75067	-107
1.75433	-108
1.75800	-108
1.76167	-110
1.76533	-111
1.76900	-112
1.77267	-114
1.77633	-115
1.78000	-116
1.78367	-117
1.78733	-117
1.79100	-117
1.79467	-118
1.79833	-118
1.80200	-119
1.80567	-119
1.80933	-119
1.81300	-119
1.81667	-119
1.82033	-119
1.82400	-119
1.82767	-119
1.83133	-118
1.83500	-118
1.83867	-119
1.84233	-119
1.84600	-119
1.84967	-120
1.85333	-120
1.85700	-120
1.86067	-120
1.86433	-119
1.86800	-120
1.87167	-120
1.87533	-120
1.87900	-121
1.88267	-122
1.88633	-122
1.89000	-122
1.89367	-122
1.89733	-121
1.90100	-121
1.90467	-120
1.90833	-120
1.91200	-119
1.91567	-119
1.91933	-118
1.92300	-119
1.92667	-119
1.93033	-119
1.93400	-118
1.93767	-118
1.94133	-117
1.94500	-117
1.94867	-116
1.95233	-116
1.95600	-115
1.95967	-115
1.96333	-114
1.96700	-114
1.97067	-114
1.97433	-113
1.97800	-113
1.98167	-113
1.98533	-112
1.98900	-111
1.99267	-111
1.99633	-110
2.00000	-110
2.00367	-110
2.00733	-110
2.01100	-111
2.01467	-111
2.01833	-111
2.02200	-112
2.02567	-112
2.02933	-112
2.03300	-111
2.03667	-111
2.04033	-111
2.04400	-110
2.04767	-110
2.05133	-109
2.05500	-109
2.05867	-109
2.06233	-109
2.06600	-109
2.06967	-108
2.07333	-108
2.07700	-108
2.08067	-108
2.08433	-108
2.08800	-107
2.09167	-106
2.09533	-104
2.09900	-103
2.10267	-102
2.10633	-101
2.11000	-101
2.11367	-101
2.11733	-101
2.12100	-102
2.12467	-102
2.12833	-103
2.13200	-103
2.13567	-103
2.13933	-103
2.14300	-102
2.14667	-101
2.15033	-99
2.15400	-98
2.15767	-97
2.16133	-97
2.16500	-96
2.16867	-96
2.17233	-96
2.17600	-97
2.17967	-97
2.18333	-96
2.18700	-96
2.19067	-96
2.19433	-95
2.19800	-95
2.20167	-94
2.20533	-94
2.20900	-94
2.21267	-93
2.21633	-93
2.22000	-93
2.22367	-92
2.22733	-92
2.23100	-92
2.23467	-91
2.23833	-91
2.24200	-90
2.24567	-90
2.24933	-89
2.25300	-88
2.25667	-88
2.26033	-87
2.26400	-86
2.26767	-86
2.27133	-86
2.27500	-86
2.27867	-86
2.28233	-85
2.28600	-85
2.28967	-84
2.29333	-84
2.29700	-83
2.30067	-83
2.30433	-83
2.30800	-83
2.31167	-82
2.31533	-82
2.31900	-82
2.32267	-82
2.32633	-82
2.33000	-82
2.33367	-81
2.33733	-81
2.34100	-81
2.34467	-82
2.34833	-82
2.35200	-83
2.35567	-83
2.35933	-82
2.36300	-82
2.36667	-80
2.37033	-79
2.37400	-76
2.37767	-74
2.38133	-70
2.38500	-67
2.38867	-62
2.39233	-58
2.39600	-53
2.39967	-48
2.40333	-43
2.40700	-38
2.41067	-34
2.41433	-30
2.41800	-26
2.42167	-23
2.42533	-19
2.42900	-16
2.43267	-14
2.43633	-11
2.44000	-9
2.44367	-7
2.44733	-5
2.45100	-3
2.45467	-2
2.45833	-0
2.46200	1
2.46567	3
2.46933	4
2.47300	6
2.47667	7
2.48033	8
2.48400	9
2.48767	10
2.49133	10
2.49500	11
2.49867	12
2.50233	13
2.50600	14
2.50967	15
2.51333	16
2.51700	16
2.52067	16
2.52433	16
2.52800	16
2.53167	16
2.53533	16
2.53900	17
2.54267	18
2.54633	18
2.55000	19
2.55367	20
2.55733	20
2.56100	21
2.56467	21
2.56833	22
2.57200	22
2.57567	22
2.57933	22
2.58300	21
2.58667	21
2.59033	21
2.59400	21
2.59767	21
2.60133	21
2.60500	21
2.60867	21
2.61233	22
2.61600	22
2.61967	23
2.62333	23
2.62700	24
2.63067	24
2.63433	24
2.63800	25
2.64167	25
2.64533	26
2.64900	26
2.65267	26
2.65633	26
2.66000	26
2.66367	26
2.66733	26
2.67100	25
2.67467	25
2.67833	26
2.68200	26
2.68567	26
2.68933	27
2.69300	27
2.69667	28
2.70033	29
2.70400	29
2.70767	29
2.71133	29
2.71500	29
2.71867	29
2.72233	28
2.72600	27
2.72967	27
2.73333	27
2.73700	27
2.74067	27
2.74433	27
2.74800	27
2.75167	27
2.75533	27
2.75900	27
2.76267	28
2.76633	28
2.77000	29
2.77367	29
2.77733	29
2.78100	30
2.78467	31
2.78833	31
2.79200	32
2.79567	32
2.79933	32
2.80300	32
2.80667	32
2.81033	31
2.81400	31
2.81767	30
2.82133	29
2.82500	29
2.82867	29
2.83233	29
2.83600	29
2.83967	29
2.84333	29
2.84700	28
2.85067	27
2.85433	24
2.85800	19
2.86167	12
2.86533	2
2.86900	-12
2.87267	-31
2.87633	-54
2.88000	-83
2.88367	-116
2.88733	-154
2.89100	-198
2.89467	-245
2.89833	-298
2.90200	-354
2.90567	-415
2.90933	-478
2.91300	-545
2.91667	-614
2.92033	-687
2.92400	-761
2.92767	-838
2.93133	-917
2.93500	-998
2.93867	-1080
2.94233	-1164
2.94600	-1250
2.94967	-1337
2.95333	-1419
2.95700	-1486
2.96067	-1525
2.96433	-1529
2.96800	-1498
2.97167	-1437
2.97533	-1353
2.97900	-1253
2.98267	-1144
2.98633	-1033
2.99000	-924
2.99367	-819
2.99733	-721
3.00100	-631
3.00467	-549
3.00833	-476
3.01200	-410
3.01567	-353
3.01933	-302
3.02300	-258
3.02667	-220
3.03033	-186
3.03400	-158
3.03767	-133
3.04133	-112
3.04500	-94
3.04867	-78
3.05233	-65
3.05600	-53
3.05967	-44
3.06333	-35
3.06700	-28
3.07067	-22
3.07433	-17
3.07800	-13
3.08167	-9
3.08533	-6
3.08900	-3
3.09267	-1
3.09633	1
3.10000	3
3.10367	4
3.10733	6
3.11100	7
3.11467	8
3.11833	8
3.12200	9
3.12567	10
3.12933	10
3.13300	11
3.13667	12
3.14033	12
3.14400	13
3.14767	13
3.15133	14
3.15500	14
3.15867	15
3.16233	16
3.16600	16
3.16967	17
3.17333	18
3.17700	18
3.18067	19
3.18433	19
3.18800	20
3.19167	21
3.19533	21
3.19900	21
3.20267	22
3.20633	22
3.21000	22
3.21367	22
3.21733	23
3.22100	23
3.22467	23
3.22833	23
3.23200	24
3.23567	24
3.23933	24
3.24300	25
3.24667	25
3.25033	25
3.25400	25
3.25767	25
3.26133	25
3.26500	26
3.26867	26
3.27233	26
3.27600	27
3.27967	27
3.28333	27
3.28700	27
3.29067	27
3.29433	27
3.29800	27
3.30167	27
3.30533	27
3.30900	27
3.31267	27
3.31633	26
3.32000	26
3.32367	26
3.32733	27
3.33100	27
3.33467	27
3.33833	27
3.34200	28
3.34567	28
3.34933	29
3.35300	29
3.35667	30
3.36033	30
3.36400	31
3.36767	32
3.37133	32
3.37500	32
3.37867	33
3.38233	33
3.38600	33
3.38967	34
3.39333	34
3.39700	34
3.40067	34
3.40433	34
3.40800	33
3.41167	33
3.41533	32
3.41900	32
3.42267	31
3.42633	31
3.43000	31
3.43367	31
3.43733	31
3.44100	31
3.44467	31
3.44833	31
3.45200	31
3.45567	31
3.45933	31
3.46300	31
3.46667	32
3.47033	32
3.47400	32
3.47767	32
3.48133	32
3.48500	32
3.48867	32
3.49233	32
3.49600	32
3.49967	32
3.50333	32
3.50700	32
3.51067	32
3.51433	32
3.51800	32
3.52167	32
3.52533	31
3.52900	31
3.53267	31
3.53633	31
3.54000	30
3.54367	30
3.54733	30
3.55100	30
3.55467	30
3.55833	30
3.56200	30
3.56567	30
3.56933	30
3.57300	30
3.57667	30
3.58033	29
3.58400	29
3.58767	29
3.59133	29
3.59500	29
3.59867	30
3.60233	30
3.60600	30
3.60967	30
3.61333	30
3.61700	30
3.62067	30
3.62433	30
3.62800	30
3.63167	30
3.63533	30
3.63900	30
3.64267	30
3.64633	31
3.65000	31
3.65367	31
3.65733	31
3.66100	32
3.66467	31
3.66833	31
3.67200	31
3.67567	31
3.67933	31
3.68300	31
3.68667	31
3.69033	31
3.69400	31
3.69767	31
3.70133	31
3.70500	31
3.70867	31
3.71233	31
3.71600	31
3.71967	31
3.72333	31
3.72700	31
3.73067	31
3.73433	32
3.73800	32
3.74167	32
3.74533	32
3.74900	32
3.75267	31
3.75633	31
3.76000	31
3.76367	31
3.76733	31
3.77100	31
3.77467	31
3.77833	31
3.78200	31
3.78567	31
3.78933	31
3.79300	31
3.79667	31
3.80033	31
3.80400	31
3.80767	31
3.81133	31
3.81500	31
3.81867	30
3.82233	30
3.82600	30
3.82967	30
3.83333	30
3.83700	30
3.84067	30
3.84433	30
3.84800	30
3.85167	29
3.85533	29
3.85900	29
3.86267	29
3.86633	29
3.87000	29
3.87367	29
3.87733	29
3.88100	28
3.88467	29
3.88833	29
3.89200	29
3.89567	29
3.89933	29
3.90300	29
3.90667	29
3.91033	29
3.91400	29
3.91767	29
3.92133	29
3.92500	29
3.92867	29
3.93233	29
3.93600	29
3.93967	29
3.94333	29
3.94700	29
3.95067	29
3.95433	29
3.95800	29
3.96167	29
3.96533	29
3.96900	29
3.97267	30
3.97633	30
3.98000	30
3.98367	30
3.98733	30
3.99100	29
3.99467	29
3.99833	29

[Chromatogram (Ch3)]
Interval(msec)	220
# of Points	1091
Start Time(min)	0.002
End Time(min)	3.998
R.Time (min)	Intensity
0.00167	-0
0.00533	1
0.00900	2
0.01267	4
0.01633	5
0.02000	6
0.02367	7
0.02733	6
0.03100	8
0.03467	6
0.03833	3
0.04200	3
0.04567	5
0.04933	4
0.05300	5
0.05667	5
0.06033	4
0.06400	2
0.06767	-1
0.07133	-1
0.07500	0
0.07867	3
0.08233	4
0.08600	4
0.08967	3
0.09333	1
0.09700	0
0.10067	0
0.10433	1
0.10800	4
0.11167	4
0.11533	3
0.11900	1
0.12267	-1
0.12633	1
0.13000	2
0.13367	2
0.13733	3
0.14100	2
0.14467	0
0.14833	0
0.15200	0
0.15567	-0
0.15933	-2
0.16300	-4
0.16667	-5
0.17033	-5
0.17400	-6
0.17767	-5
0.18133	-5
0.18500	-5
0.18867	-5
0.19233	-6
0.19600	-5
0.19967	-4
0.20333	-4
0.20700	-3
0.21067	-3
0.21433	-4
0.21800	-3
0.22167	-1
0.22533	1
0.22900	2
0.23267	0
0.23633	-1
0.24000	-1
0.24367	-2
0.24733	-1
0.25100	-0
0.25467	-1
0.25833	-1
0.26200	-1
0.26567	-1
0.26933	1
0.27300	2
0.27667	1
0.28033	-2
0.28400	-4
0.28767	-4
0.29133	-3
0.29500	-3
0.29867	-4
0.30233	-4
0.30600	-1
0.30967	-0
0.31333	-2
0.31700	-2
0.32067	-3
0.32433	-2
0.32800	-1
0.33167	0
0.33533	-1
0.33900	-2
0.34267	-2
0.34633	-4
0.35000	-4
0.35367	-4
0.35733	-3
0.36100	-3
0.36467	-3
0.36833	-4
0.37200	-5
0.37567	-6
0.37933	-3
0.38300	-1
0.38667	-0
0.39033	-3
0.39400	-7
0.39767	-8
0.40133	-7
0.40500	-8
0.40867	-7
0.41233	-7
0.41600	-7
0.41967	-4
0.42333	-2
0.42700	-3
0.43067	-5
0.43433	-6
0.43800	-6
0.44167	-8
0.44533	-9
0.44900	-8
0.45267	-6
0.45633	-5
0.46000	-4
0.46367	-4
0.46733	-3
0.47100	-2
0.47467	-3
0.47833	-4
0.48200	-4
0.48567	-7
0.48933	-10
0.49300	-11
0.49667	-9
0.50033	-8
0.50400	-9
0.50767	-9
0.51133	-9
0.51500	-5
0.51867	-4
0.52233	-5
0.52600	-8
0.52967	-8
0.53333	-8
0.53700	-7
0.54067	-7
0.54433	-6
0.54800	-5
0.55167	-3
0.55533	-1
0.55900	0
0.56267	0
0.56633	-1
0.57000	-4
0.57367	-5
0.57733	-4
0.58100	-5
0.58467	-4
0.58833	-6
0.59200	-5
0.59567	-6
0.59933	-5
0.60300	-3
0.60667	0
0.61033	2
0.61400	1
0.61767	3
0.62133	3
0.62500	1
0.62867	-2
0.63233	-6
0.63600	-9
0.63967	-11
0.64333	-10
0.64700	-8
0.65067	-6
0.65433	-4
0.65800	-2
0.66167	-1
0.66533	-0
0.66900	-2
0.67267	-4
0.67633	-3
0.68000	-3
0.68367	-2
0.68733	1
0.69100	3
0.69467	3
0.69833	1
0.70200	1
0.70567	-4
0.70933	-5
0.71300	-4
0.71667	-4
0.72033	-5
0.72400	-8
0.72767	-8
0.73133	-7
0.73500	-7
0.73867	-8
0.74233	-8
0.74600	-7
0.74967	-7
0.75333	-7
0.75700	-8
0.76067	-8
0.76433	-6
0.76800	-7
0.77167	-7
0.77533	-6
0.77900	-5
0.78267	-4
0.78633	-4
0.79000	-5
0.79367	-8
0.79733	-8
0.80100	-6
0.80467	-3
0.80833	-2
0.81200	-4
0.81567	-3
0.81933	-5
0.82300	-6
0.82667	-5
0.83033	-3
0.83400	-3
0.83767	-5
0.84133	-6
0.84500	-5
0.84867	-2
0.85233	1
0.85600	2
0.85967	0
0.86333	-3
0.86700	-5
0.87067	-5
0.87433	-4
0.87800	-3
0.88167	-3
0.88533	-3
0.88900	-3
0.89267	-3
0.89633	-3
0.90000	-2
0.90367	-4
0.90733	-2
0.91100	-2
0.91467	-3
0.91833	-2
0.92200	-2
0.92567	-3
0.92933	-3
0.93300	-4
0.93667	-4
0.94033	-5
0.94400	-4
0.94767	-3
0.95133	-1
0.95500	-0
0.95867	-2
0.96233	-4
0.96600	-5
0.96967	-5
0.97333	-6
0.97700	-4
0.98067	-3
0.98433	-4
0.98800	-6
0.99167	-5
0.99533	-4
0.99900	-4
1.00267	-5
1.00633	-4
1.01000	-4
1.01367	-5
1.01733	-6
1.02100	-5
1.02467	-4
1.02833	-4
1.03200	-4
1.03567	-4
1.03933	-5
1.04300	-8
1.04667	-12
1.05033	-13
1.05400	-12
1.05767	-9
1.06133	-7
1.06500	-5
1.06867	-4
1.07233	-2
1.07600	0
1.07967	2
1.08333	-2
1.08700	-3
1.09067	-4
1.09433	-5
1.09800	-8
1.10167	-10
1.10533	-10
1.10900	-7
1.11267	-6
1.11633	-6
1.12000	-9
1.12367	-9
1.12733	-8
1.13100	-8
1.13467	-7
1.13833	-6
1.14200	-8
1.14567	-7
1.14933	-6
1.15300	-4
1.15667	-4
1.16033	-3
1.16400	-5
1.16767	-8
1.17133	-11
1.17500	-11
1.17867	-10
1.18233	-9
1.18600	-7
1.18967	-6
1.19333	-7
1.19700	-9
1.20067	-9
1.20433	-8
1.20800	-8
1.21167	-7
1.21533	-5
1.21900	-5
1.22267	-4
1.22633	-3
1.23000	-3
1.23367	-5
1.23733	-8
1.24100	-10
1.24467	-9
1.24833	-7
1.25200	-7
1.25567	-9
1.25933	-11
1.26300	-11
1.26667	-12
1.27033	-10
1.27400	-8
1.27767	-8
1.28133	-7
1.28500	-6
1.28867	-5
1.29233	-6
1.29600	-7
1.29967	-9
1.30333	-8
1.30700	-9
1.31067	-7
1.31433	-5
1.31800	-6
1.32167	-6
1.32533	-6
1.32900	-6
1.33267	-5
1.33633	-3
1.34000	-4
1.34367	-7
1.34733	-9
1.35100	-10
1.35467	-11
1.35833	-12
1.36200	-13
1.36567	-11
1.36933	-9
1.37300	-8
1.37667	-8
1.38033	-9
1.38400	-12
1.38767	-13
1.39133	-13
1.39500	-13
1.39867	-15
1.40233	-17
1.40600	-18
1.40967	-15
1.41333	-14
1.41700	-15
1.42067	-16
1.42433	-16
1.42800	-13
1.43167	-11
1.43533	-12
1.43900	-13
1.44267	-15
1.44633	-16
1.45000	-15
1.45367	-13
1.45733	-12
1.46100	-10
1.46467	-8
1.46833	-8
1.47200	-11
1.47567	-14
1.47933	-17
1.48300	-15
1.48667	-12
1.49033	-12
1.49400	-13
1.49767	-15
1.50133	-15
1.50500	-15
1.50867	-17
1.51233	-16
1.51600	-16
1.51967	-16
1.52333	-16
1.52700	-14
1.53067	-13
1.53433	-14
1.53800	-14
1.54167	-13
1.54533	-14
1.54900	-15
1.55267	-15
1.55633	-15
1.56000	-16
1.56367	-15
1.56733	-12
1.57100	-12
1.57467	-9
1.57833	-7
1.58200	-7
1.58567	-9
1.58933	-11
1.59300	-11
1.59667	-11
1.60033	-13
1.60400	-13
1.60767	-12
1.61133	-12
1.61500	-13
1.61867	-14
1.62233	-14
1.62600	-14
1.62967	-15
1.63333	-13
1.63700	-12
1.64067	-13
1.64433	-13
1.64800	-10
1.65167	-6
1.65533	-3
1.65900	-4
1.66267	-4
1.66633	-4
1.67000	-5
1.67367	-3
1.67733	-2
1.68100	-1
1.68467	1
1.68833	1
1.69200	2
1.69567	5
1.69933	7
1.70300	7
1.70667	6
1.71033	4
1.71400	2
1.71767	2
1.72133	2
1.72500	3
1.72867	4
1.73233	3
1.73600	4
1.73967	4
1.74333	5
1.74700	8
1.75067	10
1.75433	11
1.75800	12
1.76167	11
1.76533	8
1.76900	10
1.77267	13
1.77633	17
1.78000	20
1.78367	19
1.78733	17
1.79100	15
1.79467	15
1.79833	16
1.80200	20
1.80567	23
1.80933	22
1.81300	21
1.81667	20
1.82033	22
1.82400	24
1.82767	27
1.83133	28
1.83500	29
1.83867	29
1.84233	28
1.84600	28
1.84967	28
1.85333	28
1.85700	27
1.86067	29
1.86433	31
1.86800	35
1.87167	37
1.87533	38
1.87900	41
1.88267	42
1.88633	41
1.89000	40
1.89367	41
1.89733	40
1.90100	41
1.90467	40
1.90833	39
1.91200	41
1.91567	45
1.91933	48
1.92300	50
1.92667	49
1.93033	48
1.93400	48
1.93767	49
1.94133	50
1.94500	50
1.94867	49
1.95233	48
1.95600	52
1.95967	57
1.96333	60
1.96700	61
1.97067	62
1.97433	62
1.97800	58
1.98167	57
1.98533	57
1.98900	56
1.99267	55
1.99633	57
2.00000	60
2.00367	65
2.00733	68
2.01100	72
2.01467	76
2.01833	79
2.02200	81
2.02567	81
2.02933	80
2.03300	79
2.03667	77
2.04033	76
2.04400	75
2.04767	74
2.05133	75
2.05500	78
2.05867	82
2.06233	85
2.06600	87
2.06967	90
2.07333	91
2.07700	94
2.08067	94
2.08433	92
2.08800	93
2.09167	96
2.09533	97
2.09900	97
2.10267	97
2.10633	96
2.11000	98
2.11367	99
2.11733	99
2.12100	100
2.12467	104
2.12833	105
2.13200	105
2.13567	107
2.13933	109
2.14300	109
2.14667	109
2.15033	108
2.15400	108
2.15767	107
2.16133	106
2.16500	106
2.16867	110
2.17233	113
2.17600	116
2.17967	118
2.18333	121
2.18700	125
2.19067	128
2.19433	129
2.19800	132
2.20167	133
2.20533	130
2.20900	130
2.21267	130
2.21633	129
2.22000	133
2.22367	138
2.22733	143
2.23100	145
2.23467	146
2.23833	147
2.24200	148
2.24567	149
2.24933	152
2.25300	156
2.25667	159
2.26033	161
2.26400	163
2.26767	163
2.27133	162
2.27500	162
2.27867	164
2.28233	166
2.28600	168
2.28967	171
2.29333	172
2.29700	174
2.30067	178
2.30433	183
2.30800	186
2.31167	187
2.31533	190
2.31900	193
2.32267	193
2.32633	193
2.33000	195
2.33367	197
2.33733	199
2.34100	198
2.34467	198
2.34833	198
2.35200	201
2.35567	203
2.35933	205
2.36300	207
2.36667	207
2.37033	208
2.37400	210
2.37767	209
2.38133	210
2.38500	210
2.38867	210
2.39233	211
2.39600	214
2.39967	215
2.40333	216
2.40700	219
2.41067	222
2.41433	226
2.41800	229
2.42167	228
2.42533	227
2.42900	228
2.43267	229
2.43633	231
2.44000	234
2.44367	239
2.44733	250
2.45100	257
2.45467	258
2.45833	249
2.46200	235
2.46567	222
2.46933	211
2.47300	202
2.47667	194
2.48033	186
2.48400	176
2.48767	166
2.49133	154
2.49500	143
2.49867	133
2.50233	126
2.50600	122
2.50967	122
2.51333	124
2.51700	123
2.52067	121
2.52433	116
2.52800	110
2.53167	104
2.53533	100
2.53900	99
2.54267	97
2.54633	95
2.55000	93
2.55367	92
2.55733	90
2.56100	87
2.56467	85
2.56833	84
2.57200	82
2.57567	81
2.57933	82
2.58300	80
2.58667	79
2.59033	80
2.59400	83
2.59767	85
2.60133	83
2.60500	75
2.60867	61
2.61233	36
2.61600	5
2.61967	-30
2.62333	-67
2.62700	-102
2.63067	-138
2.63433	-171
2.63800	-199
2.64167	-223
2.64533	-241
2.64900	-257
2.65267	-265
2.65633	-267
2.66000	-263
2.66367	-257
2.66733	-249
2.67100	-241
2.67467	-233
2.67833	-223
2.68200	-210
2.68567	-197
2.68933	-184
2.69300	-172
2.69667	-162
2.70033	-151
2.70400	-141
2.70767	-131
2.71133	-121
2.71500	-112
2.71867	-105
2.72233	-95
2.72600	-86
2.72967	-78
2.73333	-73
2.73700	-69
2.74067	-64
2.74433	-61
2.74800	-58
2.75167	-55
2.75533	-50
2.75900	-48
2.76267	-46
2.76633	-42
2.77000	-38
2.77367	-37
2.77733	-36
2.78100	-34
2.78467	-35
2.78833	-35
2.79200	-33
2.79567	-32
2.79933	-31
2.80300	-30
2.80667	-28
2.81033	-26
2.81400	-25
2.81767	-24
2.82133	-20
2.82500	-9
2.82867	19
2.83233	85
2.83600	226
2.83967	494
2.84333	960
2.84700	1684
2.85067	2711
2.85433	4042
2.85800	5637
2.86167	7419
2.86533	9268
2.86900	11047
2.87267	12611
2.87633	13846
2.88000	14678
2.88367	15078
2.88733	15059
2.89100	14666
2.89467	13985
2.89833	13104
2.90200	12094
2.90567	11025
2.90933	9947
2.91300	8900
2.91667	7911
2.92033	6994
2.92400	6156
2.92767	5399
2.93133	4719
2.93500	4112
2.93867	3572
2.94233	3099
2.94600	2684
2.94967	2321
2.95333	2004
2.95700	1729
2.96067	1489
2.96433	1279
2.96800	1099
2.97167	944
2.97533	808
2.97900	689
2.98267	589
2.98633	504
2.99000	429
2.99367	366
2.99733	314
3.00100	269
3.00467	230
3.00833	194
3.01200	165
3.01567	142
3.01933	122
3.02300	103
3.02667	86
3.03033	71
3.03400	56
3.03767	42
3.04133	31
3.04500	21
3.04867	16
3.05233	13
3.05600	9
3.05967	5
3.06333	0
3.06700	-2
3.07067	-6
3.07433	-10
3.07800	-12
3.08167	-14
3.08533	-16
3.08900	-17
3.09267	-19
3.09633	-21
3.10000	-20
3.10367	-21
3.10733	-20
3.11100	-20
3.11467	-19
3.11833	-19
3.12200	-21
3.12567	-21
3.12933	-23
3.13300	-24
3.13667	-24
3.14033	-23
3.14400	-22
3.14767	-22
3.15133	-22
3.15500	-20
3.15867	-20
3.16233	-20
3.16600	-24
3.16967	-28
3.17333	-33
3.17700	-33
3.18067	-33
3.18433	-32
3.18800	-31
3.19167	-30
3.19533	-30
3.19900	-31
3.20267	-31
3.20633	-30
3.21000	-29
3.21367	-30
3.21733	-31
3.22100	-32
3.22467	-32
3.22833	-31
3.23200	-32
3.23567	-31
3.23933	-31
3.24300	-31
3.24667	-29
3.25033	-28
3.25400	-26
3.25767	-25
3.26133	-29
3.26500	-31
3.26867	-31
3.27233	-33
3.27600	-33
3.27967	-32
3.28333	-31
3.28700	-33
3.29067	-33
3.29433	-32
3.29800	-32
3.30167	-32
3.30533	-32
3.30900	-33
3.31267	-33
3.31633	-34
3.32000	-34
3.32367	-35
3.32733	-36
3.33100	-37
3.33467	-36
3.33833	-35
3.34200	-37
3.34567	-40
3.34933	-42
3.35300	-44
3.35667	-44
3.36033	-45
3.36400	-48
3.36767	-51
3.37133	-53
3.37500	-56
3.37867	-58
3.38233	-60
3.38600	-60
3.38967	-62
3.39333	-63
3.39700	-65
3.40067	-69
3.40433	-71
3.40800	-70
3.41167	-68
3.41533	-69
3.41900	-69
3.42267	-66
3.42633	-65
3.43000	-66
3.43367	-68
3.43733	-70
3.44100	-73
3.44467	-73
3.44833	-72
3.45200	-74
3.45567	-75
3.45933	-75
3.46300	-77
3.46667	-82
3.47033	-85
3.47400	-85
3.47767	-85
3.48133	-85
3.48500	-84
3.48867	-84
3.49233	-83
3.49600	-86
3.49967	-90
3.50333	-89
3.50700	-85
3.51067	-81
3.51433	-78
3.51800	-80
3.52167	-84
3.52533	-86
3.52900	-89
3.53267	-89
3.53633	-90
3.54000	-92
3.54367	-92
3.54733	-91
3.55100	-92
3.55467	-94
3.55833	-95
3.56200	-97
3.56567	-98
3.56933	-98
3.57300	-97
3.57667	-96
3.58033	-98
3.58400	-101
3.58767	-101
3.59133	-98
3.59500	-96
3.59867	-94
3.60233	-95
3.60600	-98
3.60967	-99
3.61333	-100
3.61700	-101
3.62067	-100
3.62433	-99
3.62800	-101
3.63167	-103
3.63533	-104
3.63900	-103
3.64267	-103
3.64633	-104
3.65000	-104
3.65367	-104
3.65733	-104
3.66100	-103
3.66467	-100
3.66833	-101
3.67200	-104
3.67567	-106
3.67933	-107
3.68300	-108
3.68667	-108
3.69033	-107
3.69400	-108
3.69767	-109
3.70133	-109
3.70500	-107
3.70867	-106
3.71233	-106
3.71600	-105
3.71967	-104
3.72333	-104
3.72700	-104
3.73067	-105
3.73433	-108
3.73800	-109
3.74167	-107
3.74533	-106
3.74900	-107
3.75267	-110
3.75633	-114
3.76000	-116
3.76367	-113
3.76733	-110
3.77100	-110
3.77467	-110
3.77833	-112
3.78200	-112
3.78567	-113
3.78933	-110
3.79300	-107
3.79667	-108
3.80033	-106
3.80400	-106
3.80767	-106
3.81133	-106
3.81500	-107
3.81867	-107
3.82233	-107
3.82600	-107
3.82967	-107
3.83333	-108
3.83700	-108
3.84067	-106
3.84433	-107
3.84800	-109
3.85167	-111
3.85533	-112
3.85900	-111
3.86267	-110
3.86633	-112
3.87000	-113
3.87367	-113
3.87733	-112
3.88100	-111
3.88467	-111
3.88833	-113
3.89200	-111
3.89567	-109
3.89933	-108
3.90300	-108
3.90667	-108
3.91033	-108
3.91400	-110
3.91767	-109
3.92133	-107
3.92500	-107
3.92867	-106
3.93233	-107
3.93600	-108
3.93967	-109
3.94333	-109
3.94700	-111
3.95067	-112
3.95433	-110
3.95800	-109
3.96167	-108
3.96533	-109
3.96900	-111
3.97267	-115
3.97633	-115
3.98000	-116
3.98367	-118
3.98733	-118
3.99100	-119
3.99467	-118
3.99833	-119

[Status Trace (Column Oven Temperature)]
Interval(msec)	1000
# of Points	240
Start Time(min)	0.014
End Time(min)	3.997
Intensity Units	
Intensity Multiplier	1
R.Time (min)	Intensity
0.01373	35.00
0.03040	35.01
0.04707	35.00
0.06373	35.00
0.08040	35.01
0.09707	35.01
0.11373	35.02
0.13040	35.03
0.14707	35.03
0.16373	35.03
0.18040	35.04
0.19707	35.03
0.21373	35.02
0.23040	35.01
0.24707	35.00
0.26373	34.99
0.28040	34.99
0.29707	34.98
0.31373	34.98
0.33040	34.98
0.34707	34.97
0.36373	34.97
0.38040	34.98
0.39707	34.98
0.41373	34.98
0.43040	34.98
0.44707	35.00
0.46373	35.00
0.48040	35.00
0.49707	35.00
0.51373	35.00
0.53040	35.00
0.54707	35.00
0.56373	35.00
0.58040	35.01
0.59707	35.00
0.61373	35.01
0.63040	35.01
0.64707	34.99
0.66373	34.99
0.68040	34.99
0.69707	34.99
0.71373	34.98
0.73040	34.98
0.74707	34.98
0.76373	35.00
0.78040	35.00
0.79707	35.00
0.81373	35.00
0.83040	34.99
0.84707	34.98
0.86373	34.99
0.88040	34.99
0.89707	35.00
0.91373	35.01
0.93040	35.02
0.94707	35.01
0.96373	35.00
0.98040	34.99
0.99707	34.99
1.01373	34.99
1.03040	34.98
1.04707	34.98
1.06373	34.99
1.08040	35.00
1.09707	35.00
1.11373	35.01
1.13040	35.01
1.14707	35.01
1.16373	35.01
1.18040	35.02
1.19707	35.02
1.21373	35.01
1.23040	35.00
1.24707	35.00
1.26373	35.01
1.28040	35.01
1.29707	35.02
1.31373	35.02
1.33040	35.01
1.34707	35.01
1.36373	35.01
1.38040	35.01
1.39707	35.00
1.41373	35.00
1.43040	35.00
1.44707	35.00
1.46373	35.00
1.48040	34.99
1.49707	34.99
1.51373	34.99
1.53040	34.99
1.54707	34.99
1.56373	35.00
1.58040	35.01
1.59707	35.03
1.61373	35.11
1.63040	35.26
1.64707	35.46
1.66373	35.73
1.68040	36.08
1.69707	36.45
1.71373	36.81
1.73040	37.13
1.74707	37.43
1.76373	37.77
1.78040	38.10
1.79707	38.45
1.81373	38.78
1.83040	39.11
1.84707	39.45
1.86373	39.77
1.88040	40.11
1.89707	40.45
1.91373	40.76
1.93040	41.11
1.94707	41.43
1.96373	41.76
1.98040	42.08
1.99707	42.39
2.01373	42.72
2.03040	43.06
2.04707	43.37
2.06373	43.70
2.08040	44.03
2.09707	44.35
2.11373	44.68
2.13040	45.02
2.14707	45.33
2.16373	45.65
2.18040	45.99
2.19707	46.30
2.21373	46.64
2.23040	46.96
2.24707	47.28
2.26373	47.60
2.28040	47.93
2.29707	48.27
2.31373	48.60
2.33040	48.91
2.34707	49.27
2.36373	49.54
2.38040	49.67
2.39707	49.68
2.41373	49.68
2.43040	49.67
2.44707	49.70
2.46373	49.70
2.48040	49.72
2.49707	49.72
2.51373	49.72
2.53040	49.75
2.54707	49.76
2.56373	49.76
2.58040	49.79
2.59707	49.81
2.61373	49.82
2.63040	49.83
2.64707	49.84
2.66373	49.86
2.68040	49.85
2.69707	49.85
2.71373	49.86
2.73040	49.87
2.74707	49.87
2.76373	49.86
2.78040	49.85
2.79707	49.84
2.81373	49.87
2.83040	49.90
2.84707	49.90
2.86373	49.91
2.88040	49.91
2.89707	49.90
2.91373	49.90
2.93040	49.92
2.94707	49.93
2.96373	49.94
2.98040	49.96
2.99707	49.97
3.01373	49.98
3.03040	49.99
3.04707	49.99
3.06373	50.00
3.08040	50.01
3.09707	50.02
3.11373	50.04
3.13040	50.07
3.14707	50.09
3.16373	50.09
3.18040	50.09
3.19707	50.09
3.21373	50.10
3.23040	50.10
3.24707	50.10
3.26373	50.10
3.28040	50.09
3.29707	50.11
3.31373	50.11
3.33040	50.11
3.34707	50.10
3.36373	50.08
3.38040	50.05
3.39707	50.03
3.41373	50.03
3.43040	50.03
3.44707	50.02
3.46373	50.02
3.48040	50.01
3.49707	50.00
3.51373	50.00
3.53040	50.01
3.54707	50.01
3.56373	50.01
3.58040	50.02
3.59707	50.03
3.61373	50.02
3.63040	50.02
3.64707	50.02
3.66373	50.02
3.68040	50.03
3.69707	50.03
3.71373	50.02
3.73040	50.02
3.74707	50.01
3.76373	50.01
3.78040	50.01
3.79707	50.00
3.81373	50.00
3.83040	50.01
3.84707	50.02
3.86373	50.02
3.88040	50.03
3.89707	50.02
3.91373	50.03
3.93040	50.03
3.94707	50.04
3.96373	50.04
3.98040	50.04
3.99707	50.06

[Status Trace (Injection Unit Temperature)]
Interval(msec)	1000
# of Points	240
Start Time(min)	0.014
End Time(min)	3.997
Intensity Units	
Intensity Multiplier	1
R.Time (min)	Intensity
0.01373	100.00
0.03040	100.00
0.04707	100.00
0.06373	100.00
0.08040	100.00
0.09707	100.00
0.11373	100.00
0.13040	100.00
0.14707	100.00
0.16373	100.00
0.18040	100.00
0.19707	100.00
0.21373	100.00
0.23040	100.00
0.24707	100.00
0.26373	100.00
0.28040	100.00
0.29707	100.00
0.31373	100.00
0.33040	100.00
0.34707	100.00
0.36373	100.00
0.38040	99.99
0.39707	100.00
0.41373	100.00
0.43040	100.00
0.44707	100.00
0.46373	100.00
0.48040	100.00
0.49707	100.00
0.51373	100.00
0.53040	100.00
0.54707	100.00
0.56373	100.00
0.58040	100.00
0.59707	100.00
0.61373	100.00
0.63040	100.00
0.64707	100.00
0.66373	100.00
0.68040	100.00
0.69707	100.00
0.71373	100.00
0.73040	100.00
0.74707	100.00
0.76373	100.00
0.78040	100.00
0.79707	100.01
0.81373	100.00
0.83040	100.00
0.84707	100.00
0.86373	100.00
0.88040	100.00
0.89707	100.00
0.91373	100.00
0.93040	100.00
0.94707	100.00
0.96373	100.00
0.98040	100.00
0.99707	100.00
1.01373	100.00
1.03040	100.00
1.04707	100.00
1.06373	100.00
1.08040	100.00
1.09707	100.00
1.11373	100.00
1.13040	100.00
1.14707	100.00
1.16373	100.00
1.18040	100.00
1.19707	100.00
1.21373	100.00
1.23040	100.00
1.24707	100.00
1.26373	100.00
1.28040	100.00
1.29707	100.00
1.31373	100.00
1.33040	100.00
1.34707	100.00
1.36373	100.00
1.38040	100.00
1.39707	100.00
1.41373	100.00
1.43040	100.00
1.44707	100.00
1.46373	99.99
1.48040	100.00
1.49707	100.00
1.51373	100.00
1.53040	100.00
1.54707	100.00
1.56373	100.00
1.58040	100.00
1.59707	100.00
1.61373	100.00
1.63040	99.99
1.64707	100.00
1.66373	99.99
1.68040	100.00
1.69707	100.00
1.71373	100.00
1.73040	100.00
1.74707	100.00
1.76373	100.00
1.78040	100.00
1.79707	100.00
1.81373	99.99
1.83040	100.00
1.84707	100.00
1.86373	100.00
1.88040	99.99
1.89707	99.99
1.91373	99.99
1.93040	100.00
1.94707	99.99
1.96373	99.99
1.98040	99.99
1.99707	99.99
2.01373	99.99
2.03040	99.99
2.04707	99.99
2.06373	99.99
2.08040	99.99
2.09707	99.98
2.11373	99.99
2.13040	99.98
2.14707	99.98
2.16373	99.98
2.18040	99.99
2.19707	99.98
2.21373	99.98
2.23040	99.98
2.24707	99.98
2.26373	99.98
2.28040	99.98
2.29707	99.98
2.31373	99.98
2.33040	99.98
2.34707	99.98
2.36373	99.98
2.38040	99.98
2.39707	99.98
2.41373	99.98
2.43040	99.98
2.44707	99.98
2.46373	99.98
2.48040	99.98
2.49707	99.98
2.51373	99.98
2.53040	99.99
2.54707	99.99
2.56373	99.99
2.58040	99.99
2.59707	99.99
2.61373	99.99
2.63040	99.99
2.64707	99.99
2.66373	99.99
2.68040	100.00
2.69707	100.00
2.71373	99.99
2.73040	99.99
2.74707	100.00
2.76373	100.00
2.78040	100.00
2.79707	100.00
2.81373	100.00
2.83040	100.01
2.84707	100.01
2.86373	100.01
2.88040	100.01
2.89707	100.01
2.91373	100.02
2.93040	100.01
2.94707	100.02
2.96373	100.02
2.98040	100.02
2.99707	100.02
3.01373	100.02
3.03040	100.03
3.04707	100.03
3.06373	100.03
3.08040	100.03
3.09707	100.03
3.11373	100.03
3.13040	100.04
3.14707	100.03
3.16373	100.03
3.18040	100.03
3.19707	100.04
3.21373	100.04
3.23040	100.04
3.24707	100.04
3.26373	100.04
3.28040	100.04
3.29707	100.04
3.31373	100.04
3.33040	100.04
3.34707	100.05
3.36373	100.04
3.38040	100.05
3.39707	100.05
3.41373	100.05
3.43040	100.05
3.44707	100.05
3.46373	100.05
3.48040	100.05
3.49707	100.05
3.51373	100.05
3.53040	100.05
3.54707	100.05
3.56373	100.05
3.58040	100.05
3.59707	100.06
3.61373	100.05
3.63040	100.05
3.64707	100.06
3.66373	100.06
3.68040	100.06
3.69707	100.06
3.71373	100.06
3.73040	100.06
3.74707	100.06
3.76373	100.06
3.78040	100.06
3.79707	100.06
3.81373	100.07
3.83040	100.06
3.84707	100.07
3.86373	100.06
3.88040	100.06
3.89707	100.06
3.91373	100.06
3.93040	100.06
3.94707	100.06
3.96373	100.06
3.98040	100.06
3.99707	100.06

[Status Trace (Carrier Gas Pressure)]
Interval(msec)	1000
# of Points	240
Start Time(min)	0.014
End Time(min)	3.997
Intensity Units	
Intensity Multiplier	1
R.Time (min)	Intensity
0.01373	57.69
0.03040	55.43
0.04707	57.80
0.06373	59.76
0.08040	58.70
0.09707	57.99
0.11373	58.00
0.13040	58.01
0.14707	58.01
0.16373	58.00
0.18040	58.00
0.19707	58.00
0.21373	58.00
0.23040	58.00
0.24707	58.00
0.26373	58.00
0.28040	58.00
0.29707	58.00
0.31373	58.00
0.33040	58.00
0.34707	58.00
0.36373	58.00
0.38040	58.00
0.39707	58.00
0.41373	58.00
0.43040	58.00
0.44707	58.00
0.46373	58.00
0.48040	58.00
0.49707	58.00
0.51373	58.00
0.53040	58.00
0.54707	58.00
0.56373	58.00
0.58040	58.00
0.59707	58.00
0.61373	58.00
0.63040	58.00
0.64707	58.00
0.66373	58.00
0.68040	58.00
0.69707	58.00
0.71373	58.00
0.73040	58.00
0.74707	58.00
0.76373	58.00
0.78040	58.00
0.79707	58.00
0.81373	58.00
0.83040	58.00
0.84707	58.00
0.86373	58.00
0.88040	58.00
0.89707	58.00
0.91373	58.00
0.93040	58.00
0.94707	58.00
0.96373	58.00
0.98040	58.00
0.99707	58.00
1.01373	58.00
1.03040	58.00
1.04707	58.00
1.06373	58.00
1.08040	58.00
1.09707	58.00
1.11373	58.00
1.13040	58.00
1.14707	58.00
1.16373	58.00
1.18040	58.00
1.19707	58.00
1.21373	58.00
1.23040	58.00
1.24707	58.00
1.26373	58.00
1.28040	58.00
1.29707	58.00
1.31373	58.00
1.33040	58.00
1.34707	58.00
1.36373	58.00
1.38040	58.00
1.39707	58.00
1.41373	58.00
1.43040	58.00
1.44707	58.00
1.46373	58.00
1.48040	58.00
1.49707	58.00
1.51373	58.00
1.53040	58.00
1.54707	58.00
1.56373	58.00
1.58040	58.00
1.59707	58.00
1.61373	58.00
1.63040	58.00
1.64707	58.00
1.66373	58.00
1.68040	58.01
1.69707	58.00
1.71373	58.00
1.73040	58.00
1.74707	58.00
1.76373	58.00
1.78040	58.00
1.79707	58.00
1.81373	58.00
1.83040	58.00
1.84707	58.00
1.86373	58.00
1.88040	58.00
1.89707	58.00
1.91373	58.00
1.93040	58.00
1.94707	58.00
1.96373	58.00
1.98040	58.00
1.99707	58.00
2.01373	58.00
2.03040	58.00
2.04707	58.00
2.06373	58.00
2.08040	58.00
2.09707	58.00
2.11373	58.00
2.13040	58.00
2.14707	58.00
2.16373	58.00
2.18040	58.00
2.19707	58.00
2.21373	58.00
2.23040	58.00
2.24707	58.00
2.26373	58.00
2.28040	58.00
2.29707	58.00
2.31373	58.00
2.33040	58.00
2.34707	58.00
2.36373	58.00
2.38040	57.99
2.39707	57.99
2.41373	58.00
2.43040	58.00
2.44707	58.00
2.46373	58.00
2.48040	58.00
2.49707	58.00
2.51373	57.98
2.53040	57.99
2.54707	58.00
2.56373	58.00
2.58040	58.00
2.59707	58.00
2.61373	58.00
2.63040	58.00
2.64707	58.00
2.66373	58.00
2.68040	58.00
2.69707	58.00
2.71373	58.00
2.73040	58.00
2.74707	58.00
2.76373	58.00
2.78040	58.00
2.79707	58.00
2.81373	58.00
2.83040	58.00
2.84707	58.00
2.86373	58.00
2.88040	58.00
2.89707	58.00
2.91373	58.00
2.93040	58.00
2.94707	58.00
2.96373	58.00
2.98040	58.00
2.99707	58.00
3.01373	58.00
3.03040	58.00
3.04707	58.00
3.06373	58.00
3.08040	58.00
3.09707	58.00
3.11373	58.00
3.13040	58.00
3.14707	58.00
3.16373	58.00
3.18040	58.00
3.19707	58.00
3.21373	58.00
3.23040	58.00
3.24707	58.00
3.26373	58.00
3.28040	58.00
3.29707	58.00
3.31373	58.00
3.33040	58.00
3.34707	58.00
3.36373	58.00
3.38040	58.00
3.39707	58.00
3.41373	58.00
3.43040	58.00
3.44707	58.00
3.46373	58.00
3.48040	58.00
3.49707	58.00
3.51373	58.00
3.53040	58.00
3.54707	58.00
3.56373	58.00
3.58040	58.00
3.59707	58.00
3.61373	58.00
3.63040	58.00
3.64707	58.00
3.66373	58.00
3.68040	58.00
3.69707	58.00
3.71373	58.00
3.73040	58.00
3.74707	58.00
3.76373	58.00
3.78040	58.00
3.79707	58.00
3.81373	58.00
3.83040	58.00
3.84707	58.00
3.86373	58.00
3.88040	58.00
3.89707	58.00
3.91373	58.00
3.93040	58.00
3.94707	58.00
3.96373	58.00
3.98040	58.00
3.99707	58.00

[Status Trace (Carrier Gas Flow)]
Interval(msec)	1000
# of Points	240
Start Time(min)	0.014
End Time(min)	3.997
Intensity Units	
Intensity Multiplier	1
R.Time (min)	Intensity
0.01373	34.48
0.03040	34.55
0.04707	34.54
0.06373	34.52
0.08040	34.52
0.09707	34.51
0.11373	34.52
0.13040	34.52
0.14707	34.52
0.16373	34.51
0.18040	34.52
0.19707	34.52
0.21373	34.52
0.23040	34.52
0.24707	34.52
0.26373	34.52
0.28040	34.52
0.29707	34.52
0.31373	34.52
0.33040	34.52
0.34707	34.52
0.36373	34.52
0.38040	34.52
0.39707	34.52
0.41373	34.52
0.43040	34.52
0.44707	34.52
0.46373	34.52
0.48040	34.52
0.49707	34.52
0.51373	34.52
0.53040	34.52
0.54707	34.52
0.56373	34.52
0.58040	34.52
0.59707	34.52
0.61373	34.52
0.63040	34.52
0.64707	34.52
0.66373	34.52
0.68040	34.52
0.69707	34.52
0.71373	34.52
0.73040	34.52
0.74707	34.52
0.76373	34.52
0.78040	34.52
0.79707	34.52
0.81373	34.52
0.83040	34.52
0.84707	34.51
0.86373	34.52
0.88040	34.52
0.89707	34.52
0.91373	34.52
0.93040	34.52
0.94707	34.52
0.96373	34.52
0.98040	34.52
0.99707	34.52
1.01373	34.52
1.03040	34.52
1.04707	34.52
1.06373	34.52
1.08040	34.52
1.09707	34.52
1.11373	34.52
1.13040	34.52
1.14707	34.52
1.16373	34.52
1.18040	34.52
1.19707	34.52
1.21373	34.52
1.23040	34.52
1.24707	34.52
1.26373	34.52
1.28040	34.52
1.29707	34.52
1.31373	34.52
1.33040	34.52
1.34707	34.52
1.36373	34.53
1.38040	34.52
1.39707	34.52
1.41373	34.52
1.43040	34.51
1.44707	34.51
1.46373	34.52
1.48040	34.52
1.49707	34.53
1.51373	34.51
1.53040	34.51
1.54707	34.52
1.56373	34.52
1.58040	34.52
1.59707	34.51
1.61373	34.52
1.63040	34.51
1.64707	34.52
1.66373	34.52
1.68040	34.52
1.69707	34.51
1.71373	34.52
1.73040	34.51
1.74707	34.52
1.76373	34.52
1.78040	34.52
1.79707	34.52
1.81373	34.52
1.83040	34.52
1.84707	34.52
1.86373	34.52
1.88040	34.52
1.89707	34.52
1.91373	34.52
1.93040	34.52
1.94707	34.52
1.96373	34.52
1.98040	34.52
1.99707	34.52
2.01373	34.52
2.03040	34.52
2.04707	34.52
2.06373	34.52
2.08040	34.52
2.09707	34.52
2.11373	34.52
2.13040	34.52
2.14707	34.52
2.16373	34.52
2.18040	34.52
2.19707	34.52
2.21373	34.52
2.23040	34.52
2.24707	34.50
2.26373	34.52
2.28040	34.51
2.29707	34.52
2.31373	34.52
2.33040	34.52
2.34707	34.52
2.36373	34.51
2.38040	34.52
2.39707	34.52
2.41373	34.52
2.43040	34.52
2.44707	34.52
2.46373	34.52
2.48040	34.51
2.49707	34.52
2.51373	34.52
2.53040	34.50
2.54707	34.52
2.56373	34.52
2.58040	34.52
2.59707	34.52
2.61373	34.52
2.63040	34.52
2.64707	34.50
2.66373	34.52
2.68040	34.52
2.69707	34.52
2.71373	34.51
2.73040	34.52
2.74707	34.52
2.76373	34.52
2.78040	34.52
2.79707	34.52
2.81373	34.52
2.83040	34.52
2.84707	34.52
2.86373	34.52
2.88040	34.52
2.89707	34.52
2.91373	34.52
2.93040	34.52
2.94707	34.52
2.96373	34.52
2.98040	34.52
2.99707	34.52
3.01373	34.52
3.03040	34.52
3.04707	34.50
3.06373	34.52
3.08040	34.53
3.09707	34.52
3.11373	34.52
3.13040	34.52
3.14707	34.52
3.16373	34.52
3.18040	34.52
3.19707	34.52
3.21373	34.52
3.23040	34.52
3.24707	34.52
3.26373	34.53
3.28040	34.52
3.29707	34.52
3.31373	34.52
3.33040	34.52
3.34707	34.52
3.36373	34.50
3.38040	34.52
3.39707	34.51
3.41373	34.53
3.43040	34.52
3.44707	34.52
3.46373	34.52
3.48040	34.51
3.49707	34.52
3.51373	34.52
3.53040	34.52
3.54707	34.52
3.56373	34.52
3.58040	34.52
3.59707	34.52
3.61373	34.52
3.63040	34.52
3.64707	34.52
3.66373	34.52
3.68040	34.52
3.69707	34.52
3.71373	34.52
3.73040	34.52
3.74707	34.52
3.76373	34.52
3.78040	34.52
3.79707	34.52
3.81373	34.52
3.83040	34.52
3.84707	34.52
3.86373	34.52
3.88040	34.52
3.89707	34.52
3.91373	34.52
3.93040	34.52
3.94707	34.52
3.96373	34.51
3.98040	34.52
3.99707	34.53

[Status Trace (Column Flow)]
Interval(msec)	1000
# of Points	240
Start Time(min)	0.014
End Time(min)	3.997
Intensity Units	
Intensity Multiplier	1
R.Time (min)	Intensity
0.01373	5.51
0.03040	5.25
0.04707	5.53
0.06373	5.76
0.08040	5.63
0.09707	5.55
0.11373	5.55
0.13040	5.55
0.14707	5.55
0.16373	5.55
0.18040	5.55
0.19707	5.55
0.21373	5.55
0.23040	5.55
0.24707	5.55
0.26373	5.55
0.28040	5.55
0.29707	5.55
0.31373	5.55
0.33040	5.55
0.34707	5.55
0.36373	5.55
0.38040	5.55
0.39707	5.55
0.41373	5.55
0.43040	5.55
0.44707	5.55
0.46373	5.55
0.48040	5.55
0.49707	5.55
0.51373	5.55
0.53040	5.55
0.54707	5.55
0.56373	5.55
0.58040	5.55
0.59707	5.55
0.61373	5.55
0.63040	5.55
0.64707	5.55
0.66373	5.55
0.68040	5.55
0.69707	5.55
0.71373	5.55
0.73040	5.55
0.74707	5.55
0.76373	5.55
0.78040	5.55
0.79707	5.55
0.81373	5.55
0.83040	5.55
0.84707	5.55
0.86373	5.55
0.88040	5.55
0.89707	5.55
0.91373	5.55
0.93040	5.55
0.94707	5.55
0.96373	5.55
0.98040	5.55
0.99707	5.55
1.01373	5.55
1.03040	5.55
1.04707	5.55
1.06373	5.55
1.08040	5.55
1.09707	5.55
1.11373	5.55
1.13040	5.55
1.14707	5.55
1.16373	5.55
1.18040	5.55
1.19707	5.55
1.21373	5.55
1.23040	5.55
1.24707	5.55
1.26373	5.55
1.28040	5.55
1.29707	5.55
1.31373	5.55
1.33040	5.55
1.34707	5.55
1.36373	5.55
1.38040	5.55
1.39707	5.55
1.41373	5.55
1.43040	5.55
1.44707	5.55
1.46373	5.55
1.48040	5.55
1.49707	5.55
1.51373	5.55
1.53040	5.55
1.54707	5.55
1.56373	5.55
1.58040	5.55
1.59707	5.55
1.61373	5.55
1.63040	5.54
1.64707	5.54
1.66373	5.53
1.68040	5.52
1.69707	5.50
1.71373	5.49
1.73040	5.48
1.74707	5.47
1.76373	5.46
1.78040	5.45
1.79707	5.44
1.81373	5.43
1.83040	5.42
1.84707	5.41
1.86373	5.40
1.88040	5.39
1.89707	5.38
1.91373	5.37
1.93040	5.36
1.94707	5.35
1.96373	5.34
1.98040	5.33
1.99707	5.32
2.01373	5.31
2.03040	5.30
2.04707	5.29
2.06373	5.28
2.08040	5.27
2.09707	5.27
2.11373	5.26
2.13040	5.25
2.14707	5.24
2.16373	5.23
2.18040	5.22
2.19707	5.21
2.21373	5.20
2.23040	5.19
2.24707	5.18
2.26373	5.17
2.28040	5.16
2.29707	5.15
2.31373	5.14
2.33040	5.13
2.34707	5.13
2.36373	5.12
2.38040	5.11
2.39707	5.11
2.41373	5.11
2.43040	5.11
2.44707	5.11
2.46373	5.11
2.48040	5.11
2.49707	5.11
2.51373	5.11
2.53040	5.11
2.54707	5.11
2.56373	5.11
2.58040	5.11
2.59707	5.11
2.61373	5.11
2.63040	5.11
2.64707	5.11
2.66373	5.11
2.68040	5.11
2.69707	5.11
2.71373	5.11
2.73040	5.11
2.74707	5.11
2.76373	5.11
2.78040	5.11
2.79707	5.11
2.81373	5.11
2.83040	5.11
2.84707	5.11
2.86373	5.11
2.88040	5.11
2.89707	5.11
2.91373	5.11
2.93040	5.11
2.94707	5.11
2.96373	5.11
2.98040	5.11
2.99707	5.11
3.01373	5.11
3.03040	5.10
3.04707	5.10
3.06373	5.10
3.08040	5.10
3.09707	5.10
3.11373	5.10
3.13040	5.10
3.14707	5.10
3.16373	5.10
3.18040	5.10
3.19707	5.10
3.21373	5.10
3.23040	5.10
3.24707	5.10
3.26373	5.10
3.28040	5.10
3.29707	5.10
3.31373	5.10
3.33040	5.10
3.34707	5.10
3.36373	5.10
3.38040	5.10
3.39707	5.10
3.41373	5.10
3.43040	5.10
3.44707	5.10
3.46373	5.10
3.48040	5.10
3.49707	5.10
3.51373	5.10
3.53040	5.10
3.54707	5.10
3.56373	5.10
3.58040	5.10
3.59707	5.10
3.61373	5.10
3.63040	5.10
3.64707	5.10
3.66373	5.10
3.68040	5.10
3.69707	5.10
3.71373	5.10
3.73040	5.10
3.74707	5.10
3.76373	5.10
3.78040	5.10
3.79707	5.10
3.81373	5.10
3.83040	5.10
3.84707	5.10
3.86373	5.10
3.88040	5.10
3.89707	5.10
3.91373	5.10
3.93040	5.10
3.94707	5.10
3.96373	5.10
3.98040	5.10
3.99707	5.10

[Status Trace (Linear Velocity)]
Interval(msec)	1000
# of Points	240
Start Time(min)	0.014
End Time(min)	3.997
Intensity Units	
Intensity Multiplier	1
R.Time (min)	Intensity
0.01373	38.82
0.03040	37.34
0.04707	38.89
0.06373	40.18
0.08040	39.48
0.09707	39.02
0.11373	39.02
0.13040	39.03
0.14707	39.02
0.16373	39.02
0.18040	39.02
0.19707	39.02
0.21373	39.02
0.23040	39.02
0.24707	39.02
0.26373	39.03
0.28040	39.03
0.29707	39.03
0.31373	39.03
0.33040	39.03
0.34707	39.03
0.36373	39.03
0.38040	39.03
0.39707	39.02
0.41373	39.03
0.43040	39.03
0.44707	39.02
0.46373	39.02
0.48040	39.02
0.49707	39.02
0.51373	39.02
0.53040	39.02
0.54707	39.02
0.56373	39.02
0.58040	39.02
0.59707	39.02
0.61373	39.02
0.63040	39.02
0.64707	39.02
0.66373	39.02
0.68040	39.03
0.69707	39.02
0.71373	39.03
0.73040	39.03
0.74707	39.03
0.76373	39.02
0.78040	39.02
0.79707	39.02
0.81373	39.02
0.83040	39.02
0.84707	39.03
0.86373	39.02
0.88040	39.02
0.89707	39.02
0.91373	39.02
0.93040	39.02
0.94707	39.02
0.96373	39.02
0.98040	39.02
0.99707	39.02
1.01373	39.02
1.03040	39.03
1.04707	39.03
1.06373	39.02
1.08040	39.02
1.09707	39.02
1.11373	39.02
1.13040	39.02
1.14707	39.02
1.16373	39.02
1.18040	39.02
1.19707	39.02
1.21373	39.02
1.23040	39.02
1.24707	39.02
1.26373	39.02
1.28040	39.02
1.29707	39.02
1.31373	39.02
1.33040	39.02
1.34707	39.02
1.36373	39.02
1.38040	39.02
1.39707	39.02
1.41373	39.02
1.43040	39.02
1.44707	39.02
1.46373	39.02
1.48040	39.02
1.49707	39.02
1.51373	39.02
1.53040	39.02
1.54707	39.02
1.56373	39.02
1.58040	39.02
1.59707	39.02
1.61373	39.01
1.63040	39.00
1.64707	38.98
1.66373	38.96
1.68040	38.92
1.69707	38.89
1.71373	38.85
1.73040	38.82
1.74707	38.79
1.76373	38.76
1.78040	38.73
1.79707	38.69
1.81373	38.66
1.83040	38.63
1.84707	38.60
1.86373	38.57
1.88040	38.54
1.89707	38.51
1.91373	38.48
1.93040	38.45
1.94707	38.41
1.96373	38.38
1.98040	38.35
1.99707	38.33
2.01373	38.30
2.03040	38.27
2.04707	38.24
2.06373	38.21
2.08040	38.17
2.09707	38.15
2.11373	38.12
2.13040	38.09
2.14707	38.06
2.16373	38.03
2.18040	38.00
2.19707	37.97
2.21373	37.94
2.23040	37.91
2.24707	37.88
2.26373	37.85
2.28040	37.82
2.29707	37.79
2.31373	37.76
2.33040	37.74
2.34707	37.70
2.36373	37.68
2.38040	37.66
2.39707	37.66
2.41373	37.67
2.43040	37.67
2.44707	37.66
2.46373	37.66
2.48040	37.66
2.49707	37.66
2.51373	37.65
2.53040	37.65
2.54707	37.66
2.56373	37.66
2.58040	37.66
2.59707	37.66
2.61373	37.66
2.63040	37.65
2.64707	37.65
2.66373	37.65
2.68040	37.65
2.69707	37.65
2.71373	37.65
2.73040	37.65
2.74707	37.65
2.76373	37.65
2.78040	37.65
2.79707	37.65
2.81373	37.65
2.83040	37.65
2.84707	37.65
2.86373	37.65
2.88040	37.65
2.89707	37.65
2.91373	37.65
2.93040	37.65
2.94707	37.65
2.96373	37.64
2.98040	37.64
2.99707	37.64
3.01373	37.64
3.03040	37.64
3.04707	37.64
3.06373	37.64
3.08040	37.64
3.09707	37.64
3.11373	37.64
3.13040	37.63
3.14707	37.63
3.16373	37.63
3.18040	37.63
3.19707	37.63
3.21373	37.63
3.23040	37.63
3.24707	37.63
3.26373	37.63
3.28040	37.63
3.29707	37.63
3.31373	37.63
3.33040	37.63
3.34707	37.63
3.36373	37.63
3.38040	37.63
3.39707	37.64
3.41373	37.64
3.43040	37.64
3.44707	37.64
3.46373	37.64
3.48040	37.64
3.49707	37.64
3.51373	37.64
3.53040	37.64
3.54707	37.64
3.56373	37.64
3.58040	37.64
3.59707	37.64
3.61373	37.64
3.63040	37.64
3.64707	37.64
3.66373	37.64
3.68040	37.64
3.69707	37.64
3.71373	37.64
3.73040	37.64
3.74707	37.64
3.76373	37.64
3.78040	37.64
3.79707	37.64
3.81373	37.64
3.83040	37.64
3.84707	37.64
3.86373	37.64
3.88040	37.64
3.89707	37.64
3.91373	37.64
3.93040	37.64
3.94707	37.64
3.96373	37.64
3.98040	37.64
3.99707	37.63

