[Header]
Application Name	LabSolutions
Version	5.110
Data File Name	C:\Users\User\Desktop\GC Analyses\Jack\UIC Prairie Sampling\9.16.22\220916_078.gcd
Output Date	11/29/2022
Output Time	11:10:20 AM

[File Information]
Type	Data File
Generated	11/16/2022 12:08:14 PM
Generated by	System Administrator
Modified	11/16/2022 12:12:52 PM
Modified by	System Administrator

[Sample Information]
Operator Name	System Administrator
Acquired	11/16/2022 12:08:50 PM
Sample Type	1:Standard
Level	1
Sample Name	220916_UICPrairie
Sample ID	220916_UICPrairie
ISTD Amount1	1
ISTD Amount2	1
ISTD Amount3	1
ISTD Amount4	1
ISTD Amount5	1
ISTD Amount6	1
ISTD Amount7	1
ISTD Amount8	1
ISTD Amount9	1
ISTD Amount10	1
ISTD Amount11	1
ISTD Amount12	1
ISTD Amount13	1
ISTD Amount14	1
ISTD Amount15	1
ISTD Amount16	1
ISTD Amount17	1
ISTD Amount18	1
ISTD Amount19	1
ISTD Amount20	1
ISTD Amount21	1
ISTD Amount22	1
ISTD Amount23	1
ISTD Amount24	1
ISTD Amount25	1
ISTD Amount26	1
ISTD Amount27	1
ISTD Amount28	1
ISTD Amount29	1
ISTD Amount30	1
ISTD Amount31	1
ISTD Amount32	1
Sample Amount	1
Dilution Factor	1
Vial#	1
Injection Volume	1
Injection Count	1
Bar Code	

[Original Files]
Data File	C:\Users\User\Desktop\GC Analyses\Jack\UIC Prairie Sampling\9.16.22\220916_078.gcd
Method File	C:\LabSolutions\Data\GHG_4min_2022\ghg3_togas_w_acet_4 min_new_int.gcm
Batch File	
Report Format File	c:\LabSolutions\System\DEFAULT.lsr

[File Description]


[Configuration]
Instrument Name	C0B7VH3-Instrument1
Instrument #	1
Line #	1
# of Detectors	3
Detector ID	DET#1	DET#2	DET#3
Detector Name	FID	PTCD	ECD
# of Channels	1	1	1

[Peak Table(Ch1)]
# of Peaks	3
Peak#	R.Time	I.Time	F.Time	Area	Height	A/H	Conc.	Mark	ID#	Name	k'	Plate #	Plate Ht.	Tailing	Resolution	Sep.Factor	Area Ratio	Height Ratio	Conc. %	Norm Conc.
1	1.479	1.439	1.538	13807	6136	2.250	100.000	   	1	CO	0.000	8535	17.574	1.178	0.000	0.000	0	0	16.667	16.667
2	1.571	1.538	1.626	5473	2763	1.981	100.000	 V 	2	CH4	0.062	11325	13.245	1.101	1.489	0.000	0	0	16.667	16.667
3	2.000	1.952	2.367	1074272	515876	2.082	400.000	   	3	CO2	0.352	17466	8.588	1.212	7.175	5.680	0	0	66.667	66.667

[Peak Table(Ch2)]
# of Peaks	0

[Peak Table(Ch3)]
# of Peaks	4
Peak#	R.Time	I.Time	F.Time	Area	Height	A/H	Conc.	Mark	ID#	Name	k'	Plate #	Plate Ht.	Tailing	Resolution	Sep.Factor	Area Ratio	Height Ratio	Conc. %	Norm Conc.
1	2.473	1.883	2.480	1819	254	7.152	0.000	   			0.000	2396	62.601	0.000	0.000	0.000	0	0	0.000	0.000
2	2.521	2.480	2.528	776	301	2.583	0.000	 V 			0.019	957	156.714	0.000	0.181	0.000	0	0	0.000	0.000
3	2.598	2.528	2.656	2240	388	5.768	0.000	 V 			0.050	1678	89.387	0.000	0.266	2.615	0	0	0.000	0.000
4	2.884	2.656	3.877	35774	6127	5.839	1.000	 V 	1	N2O	0.166	12309	12.186	1.602	1.599	3.294	0	0	100.000	100.000

[Compound Results(Ch1)]
# of IDs	6
ID#	Name	R.Time	Area	Height	Conc.	Curve	3rd	2nd	1st	Constant	Area Ratio	Height Ratio	Conc. %	Norm Conc.
1	CO	1.479	13807	6136	100.000	Linear	0.000000e+00	0.000000e+00	1.380712e+002	0.000000e+00	0	0	16.667	16.667
2	CH4	1.571	5473	2763	100.000	Linear	0.000000e+00	0.000000e+00	5.472834e+001	0.000000e+00	0	0	16.667	16.667
3	CO2	2.000	1074272	515876	400.000	Linear	0.000000e+00	0.000000e+00	2.685681e+003	0.000000e+00	0	0	66.667	66.667
4	Ethylene	0.000	0	0	0.000	Linear	0.000000e+00	0.000000e+00	0.000000e+00	0.000000e+00	0	0	0.000	0.000
5	Acetylene	0.000	0	0	0.000	Linear	0.000000e+00	0.000000e+00	0.000000e+00	0.000000e+00	0	0	0.000	0.000
6	Ethane	0.000	0	0	0.000	Linear	0.000000e+00	0.000000e+00	0.000000e+00	0.000000e+00	0	0	0.000	0.000

[Compound Results(Ch2)]
# of IDs	5
ID#	Name	R.Time	Area	Height	Conc.	Curve	3rd	2nd	1st	Constant	Area Ratio	Height Ratio	Conc. %	Norm Conc.
1	Hydrogen	0.000	0	0	0.000	Linear	0.000000e+00	0.000000e+00	0.000000e+00	0.000000e+00	0	0	0.000	0.000
2	Oxygen	0.000	0	0	0.000	Linear	0.000000e+00	0.000000e+00	0.000000e+00	0.000000e+00	0	0	0.000	0.000
3	Nitrogen	0.000	0	0	0.000	Linear	0.000000e+00	0.000000e+00	0.000000e+00	0.000000e+00	0	0	0.000	0.000
4	Methane	0.000	0	0	0.000	Linear	0.000000e+00	0.000000e+00	0.000000e+00	0.000000e+00	0	0	0.000	0.000
5	Carbon Monoxide	0.000	0	0	0.000	Linear	0.000000e+00	0.000000e+00	0.000000e+00	0.000000e+00	0	0	0.000	0.000

[Compound Results(Ch3)]
# of IDs	2
ID#	Name	R.Time	Area	Height	Conc.	Curve	3rd	2nd	1st	Constant	Area Ratio	Height Ratio	Conc. %	Norm Conc.
1	N2O	2.884	35774	6127	1.000	Linear	0.000000e+00	0.000000e+00	3.577369e+004	0.000000e+00	0	0	100.000	100.000
2	SF6	0.000	0	0	0.000	Linear	0.000000e+00	0.000000e+00	0.000000e+00	0.000000e+00	0	0	0.000	0.000

[Group Results(Ch1)]
# of Groups	0

[Group Results(Ch2)]
# of Groups	0

[Group Results(Ch3)]
# of Groups	0

[Chromatogram (Ch1)]
Interval(msec)	220
# of Points	1091
Start Time(min)	0.002
End Time(min)	3.998
R.Time (min)	Intensity
0.00167	20
0.00533	12
0.00900	7
0.01267	8
0.01633	12
0.02000	13
0.02367	14
0.02733	12
0.03100	11
0.03467	8
0.03833	7
0.04200	7
0.04567	8
0.04933	9
0.05300	6
0.05667	-0
0.06033	-6
0.06400	-9
0.06767	-8
0.07133	-5
0.07500	0
0.07867	5
0.08233	8
0.08600	11
0.08967	13
0.09333	11
0.09700	5
0.10067	-4
0.10433	-12
0.10800	-19
0.11167	-27
0.11533	-32
0.11900	-30
0.12267	-24
0.12633	-16
0.13000	-9
0.13367	-3
0.13733	-1
0.14100	-1
0.14467	-2
0.14833	-6
0.15200	-13
0.15567	-21
0.15933	-23
0.16300	-21
0.16667	-16
0.17033	-13
0.17400	-13
0.17767	-16
0.18133	-22
0.18500	-22
0.18867	-18
0.19233	-14
0.19600	-11
0.19967	-12
0.20333	-15
0.20700	-18
0.21067	-19
0.21433	-20
0.21800	-21
0.22167	-27
0.22533	-33
0.22900	-38
0.23267	-40
0.23633	-41
0.24000	-39
0.24367	-35
0.24733	-28
0.25100	-22
0.25467	-19
0.25833	-21
0.26200	-27
0.26567	-32
0.26933	-34
0.27300	-34
0.27667	-30
0.28033	-25
0.28400	-22
0.28767	-24
0.29133	-28
0.29500	-30
0.29867	-31
0.30233	-29
0.30600	-26
0.30967	-21
0.31333	-15
0.31700	-10
0.32067	-9
0.32433	-11
0.32800	-15
0.33167	-18
0.33533	-21
0.33900	-23
0.34267	-24
0.34633	-25
0.35000	-24
0.35367	-25
0.35733	-22
0.36100	-13
0.36467	-6
0.36833	-8
0.37200	-19
0.37567	-32
0.37933	-42
0.38300	-46
0.38667	-46
0.39033	-44
0.39400	-43
0.39767	-40
0.40133	-34
0.40500	-27
0.40867	-20
0.41233	-18
0.41600	-24
0.41967	-33
0.42333	-46
0.42700	-56
0.43067	-61
0.43433	-60
0.43800	-58
0.44167	-57
0.44533	-61
0.44900	-66
0.45267	-67
0.45633	-66
0.46000	-64
0.46367	-63
0.46733	-61
0.47100	-57
0.47467	-49
0.47833	-38
0.48200	-29
0.48567	-27
0.48933	-32
0.49300	-41
0.49667	-50
0.50033	-55
0.50400	-58
0.50767	-60
0.51133	-63
0.51500	-64
0.51867	-64
0.52233	-65
0.52600	-64
0.52967	-62
0.53333	-58
0.53700	-55
0.54067	-52
0.54433	-54
0.54800	-57
0.55167	-58
0.55533	-58
0.55900	-57
0.56267	-55
0.56633	-53
0.57000	-50
0.57367	-47
0.57733	-42
0.58100	-38
0.58467	-34
0.58833	-32
0.59200	-33
0.59567	-39
0.59933	-47
0.60300	-54
0.60667	-59
0.61033	-62
0.61400	-59
0.61767	-52
0.62133	-49
0.62500	-51
0.62867	-54
0.63233	-59
0.63600	-61
0.63967	-61
0.64333	-62
0.64700	-64
0.65067	-63
0.65433	-61
0.65800	-56
0.66167	-53
0.66533	-50
0.66900	-44
0.67267	-39
0.67633	-39
0.68000	-44
0.68367	-51
0.68733	-54
0.69100	-55
0.69467	-54
0.69833	-51
0.70200	-50
0.70567	-50
0.70933	-55
0.71300	-59
0.71667	-60
0.72033	-62
0.72400	-67
0.72767	-70
0.73133	-72
0.73500	-71
0.73867	-67
0.74233	-61
0.74600	-55
0.74967	-50
0.75333	-50
0.75700	-54
0.76067	-60
0.76433	-67
0.76800	-71
0.77167	-71
0.77533	-68
0.77900	-67
0.78267	-66
0.78633	-67
0.79000	-72
0.79367	-77
0.79733	-81
0.80100	-83
0.80467	-84
0.80833	-82
0.81200	-78
0.81567	-72
0.81933	-61
0.82300	-53
0.82667	-52
0.83033	-56
0.83400	-62
0.83767	-66
0.84133	-68
0.84500	-71
0.84867	-74
0.85233	-76
0.85600	-75
0.85967	-72
0.86333	-71
0.86700	-71
0.87067	-73
0.87433	-73
0.87800	-72
0.88167	-72
0.88533	-73
0.88900	-74
0.89267	-72
0.89633	-70
0.90000	-73
0.90367	-76
0.90733	-79
0.91100	-81
0.91467	-84
0.91833	-91
0.92200	-97
0.92567	-97
0.92933	-94
0.93300	-92
0.93667	-90
0.94033	-87
0.94400	-84
0.94767	-82
0.95133	-79
0.95500	-79
0.95867	-79
0.96233	-80
0.96600	-84
0.96967	-89
0.97333	-94
0.97700	-99
0.98067	-99
0.98433	-97
0.98800	-92
0.99167	-87
0.99533	-87
0.99900	-89
1.00267	-92
1.00633	-92
1.01000	-90
1.01367	-83
1.01733	-76
1.02100	-74
1.02467	-77
1.02833	-82
1.03200	-85
1.03567	-86
1.03933	-86
1.04300	-84
1.04667	-82
1.05033	-83
1.05400	-88
1.05767	-97
1.06133	-104
1.06500	-107
1.06867	-107
1.07233	-103
1.07600	-99
1.07967	-93
1.08333	-90
1.08700	-91
1.09067	-94
1.09433	-96
1.09800	-96
1.10167	-91
1.10533	-87
1.10900	-88
1.11267	-96
1.11633	-106
1.12000	-111
1.12367	-106
1.12733	-99
1.13100	-92
1.13467	-88
1.13833	-86
1.14200	-88
1.14567	-89
1.14933	-89
1.15300	-88
1.15667	-91
1.16033	-101
1.16400	-111
1.16767	-119
1.17133	-124
1.17500	-124
1.17867	-120
1.18233	-110
1.18600	-102
1.18967	-98
1.19333	-94
1.19700	-95
1.20067	-98
1.20433	-102
1.20800	-103
1.21167	-103
1.21533	-104
1.21900	-104
1.22267	-102
1.22633	-99
1.23000	-96
1.23367	-92
1.23733	-92
1.24100	-97
1.24467	-105
1.24833	-109
1.25200	-112
1.25567	-116
1.25933	-117
1.26300	-116
1.26667	-115
1.27033	-118
1.27400	-121
1.27767	-122
1.28133	-120
1.28500	-117
1.28867	-115
1.29233	-115
1.29600	-117
1.29967	-119
1.30333	-122
1.30700	-126
1.31067	-127
1.31433	-124
1.31800	-120
1.32167	-113
1.32533	-104
1.32900	-101
1.33267	-102
1.33633	-103
1.34000	-103
1.34367	-105
1.34733	-109
1.35100	-107
1.35467	-102
1.35833	-99
1.36200	-99
1.36567	-101
1.36933	-105
1.37300	-111
1.37667	-117
1.38033	-122
1.38400	-122
1.38767	-120
1.39133	-118
1.39500	-115
1.39867	-108
1.40233	-103
1.40600	-105
1.40967	-110
1.41333	-116
1.41700	-121
1.42067	-122
1.42433	-120
1.42800	-119
1.43167	-123
1.43533	-129
1.43900	-123
1.44267	-56
1.44633	145
1.45000	509
1.45367	1105
1.45733	2002
1.46100	3095
1.46467	4160
1.46833	5041
1.47200	5673
1.47567	6015
1.47933	6019
1.48300	5656
1.48667	4975
1.49033	4107
1.49400	3210
1.49767	2407
1.50133	1750
1.50500	1246
1.50867	876
1.51233	610
1.51600	424
1.51967	296
1.52333	201
1.52700	129
1.53067	72
1.53433	30
1.53800	8
1.54167	34
1.54533	171
1.54900	485
1.55267	959
1.55633	1490
1.56000	1971
1.56367	2347
1.56733	2589
1.57100	2660
1.57467	2528
1.57833	2208
1.58200	1773
1.58567	1319
1.58933	917
1.59300	600
1.59667	369
1.60033	208
1.60400	98
1.60767	22
1.61133	-26
1.61500	-57
1.61867	-78
1.62233	-90
1.62600	-94
1.62967	-96
1.63333	-100
1.63700	-106
1.64067	-111
1.64433	-113
1.64800	-114
1.65167	-114
1.65533	-116
1.65900	-118
1.66267	-116
1.66633	-111
1.67000	-106
1.67367	-106
1.67733	-112
1.68100	-120
1.68467	-127
1.68833	-133
1.69200	-138
1.69567	-140
1.69933	-138
1.70300	-136
1.70667	-138
1.71033	-139
1.71400	-138
1.71767	-134
1.72133	-129
1.72500	-127
1.72867	-129
1.73233	-132
1.73600	-133
1.73967	-135
1.74333	-137
1.74700	-139
1.75067	-140
1.75433	-138
1.75800	-134
1.76167	-132
1.76533	-132
1.76900	-136
1.77267	-142
1.77633	-143
1.78000	-139
1.78367	-135
1.78733	-132
1.79100	-132
1.79467	-134
1.79833	-135
1.80200	-135
1.80567	-134
1.80933	-133
1.81300	-130
1.81667	-127
1.82033	-126
1.82400	-124
1.82767	-121
1.83133	-119
1.83500	-119
1.83867	-119
1.84233	-122
1.84600	-127
1.84967	-132
1.85333	-137
1.85700	-137
1.86067	-134
1.86433	-132
1.86800	-129
1.87167	-128
1.87533	-127
1.87900	-124
1.88267	-120
1.88633	-117
1.89000	-114
1.89367	-112
1.89733	-112
1.90100	-113
1.90467	-115
1.90833	-117
1.91200	-121
1.91567	-125
1.91933	-127
1.92300	-129
1.92667	-133
1.93033	-134
1.93400	-132
1.93767	-130
1.94133	-126
1.94500	-123
1.94867	-121
1.95233	-114
1.95600	-73
1.95967	158
1.96333	1287
1.96700	5689
1.97067	18853
1.97433	49393
1.97800	105016
1.98167	185611
1.98533	280911
1.98900	375145
1.99267	452831
1.99633	502035
2.00000	515789
2.00367	492993
2.00733	439522
2.01100	367042
2.01467	289203
2.01833	217182
2.02200	157240
2.02567	111027
2.02933	77284
2.03300	53550
2.03667	37258
2.04033	26232
2.04400	18812
2.04767	13811
2.05133	10417
2.05500	8081
2.05867	6445
2.06233	5273
2.06600	4416
2.06967	3773
2.07333	3280
2.07700	2888
2.08067	2566
2.08433	2303
2.08800	2085
2.09167	1901
2.09533	1742
2.09900	1604
2.10267	1482
2.10633	1378
2.11000	1291
2.11367	1215
2.11733	1150
2.12100	1092
2.12467	1038
2.12833	987
2.13200	936
2.13567	888
2.13933	846
2.14300	807
2.14667	773
2.15033	740
2.15400	708
2.15767	678
2.16133	648
2.16500	619
2.16867	591
2.17233	565
2.17600	543
2.17967	523
2.18333	502
2.18700	482
2.19067	466
2.19433	453
2.19800	442
2.20167	432
2.20533	421
2.20900	410
2.21267	398
2.21633	384
2.22000	365
2.22367	349
2.22733	341
2.23100	338
2.23467	337
2.23833	333
2.24200	322
2.24567	308
2.24933	295
2.25300	287
2.25667	278
2.26033	269
2.26400	259
2.26767	248
2.27133	238
2.27500	233
2.27867	232
2.28233	232
2.28600	233
2.28967	231
2.29333	227
2.29700	219
2.30067	209
2.30433	201
2.30800	199
2.31167	196
2.31533	191
2.31900	186
2.32267	182
2.32633	175
2.33000	169
2.33367	164
2.33733	160
2.34100	158
2.34467	157
2.34833	157
2.35200	154
2.35567	147
2.35933	138
2.36300	129
2.36667	126
2.37033	128
2.37400	133
2.37767	134
2.38133	132
2.38500	127
2.38867	126
2.39233	130
2.39600	131
2.39967	131
2.40333	131
2.40700	132
2.41067	134
2.41433	140
2.41800	143
2.42167	140
2.42533	132
2.42900	122
2.43267	113
2.43633	107
2.44000	104
2.44367	106
2.44733	110
2.45100	114
2.45467	114
2.45833	112
2.46200	105
2.46567	101
2.46933	102
2.47300	106
2.47667	109
2.48033	107
2.48400	99
2.48767	93
2.49133	90
2.49500	91
2.49867	90
2.50233	90
2.50600	94
2.50967	101
2.51333	106
2.51700	108
2.52067	108
2.52433	106
2.52800	104
2.53167	102
2.53533	99
2.53900	97
2.54267	95
2.54633	91
2.55000	88
2.55367	85
2.55733	82
2.56100	82
2.56467	81
2.56833	80
2.57200	80
2.57567	81
2.57933	79
2.58300	75
2.58667	70
2.59033	64
2.59400	55
2.59767	48
2.60133	44
2.60500	45
2.60867	46
2.61233	46
2.61600	44
2.61967	42
2.62333	41
2.62700	36
2.63067	34
2.63433	33
2.63800	34
2.64167	34
2.64533	36
2.64900	39
2.65267	42
2.65633	42
2.66000	43
2.66367	48
2.66733	54
2.67100	54
2.67467	49
2.67833	43
2.68200	39
2.68567	38
2.68933	40
2.69300	46
2.69667	53
2.70033	56
2.70400	54
2.70767	53
2.71133	52
2.71500	52
2.71867	52
2.72233	51
2.72600	51
2.72967	48
2.73333	41
2.73700	35
2.74067	35
2.74433	38
2.74800	41
2.75167	43
2.75533	46
2.75900	48
2.76267	47
2.76633	43
2.77000	42
2.77367	43
2.77733	44
2.78100	44
2.78467	43
2.78833	43
2.79200	41
2.79567	41
2.79933	40
2.80300	36
2.80667	29
2.81033	26
2.81400	31
2.81767	38
2.82133	43
2.82500	46
2.82867	47
2.83233	45
2.83600	43
2.83967	41
2.84333	39
2.84700	36
2.85067	36
2.85433	38
2.85800	42
2.86167	46
2.86533	48
2.86900	51
2.87267	54
2.87633	59
2.88000	63
2.88367	64
2.88733	63
2.89100	60
2.89467	57
2.89833	53
2.90200	48
2.90567	47
2.90933	52
2.91300	58
2.91667	59
2.92033	59
2.92400	55
2.92767	50
2.93133	47
2.93500	47
2.93867	49
2.94233	50
2.94600	47
2.94967	42
2.95333	40
2.95700	42
2.96067	47
2.96433	52
2.96800	58
2.97167	65
2.97533	65
2.97900	61
2.98267	58
2.98633	54
2.99000	52
2.99367	54
2.99733	59
3.00100	65
3.00467	70
3.00833	74
3.01200	79
3.01567	86
3.01933	92
3.02300	91
3.02667	84
3.03033	73
3.03400	64
3.03767	55
3.04133	45
3.04500	35
3.04867	30
3.05233	30
3.05600	32
3.05967	37
3.06333	46
3.06700	56
3.07067	63
3.07433	64
3.07800	63
3.08167	60
3.08533	59
3.08900	59
3.09267	59
3.09633	56
3.10000	52
3.10367	51
3.10733	53
3.11100	56
3.11467	58
3.11833	59
3.12200	57
3.12567	55
3.12933	56
3.13300	56
3.13667	56
3.14033	56
3.14400	54
3.14767	50
3.15133	46
3.15500	43
3.15867	42
3.16233	43
3.16600	44
3.16967	46
3.17333	46
3.17700	45
3.18067	48
3.18433	55
3.18800	62
3.19167	64
3.19533	61
3.19900	56
3.20267	52
3.20633	53
3.21000	56
3.21367	60
3.21733	62
3.22100	62
3.22467	62
3.22833	64
3.23200	69
3.23567	73
3.23933	75
3.24300	75
3.24667	75
3.25033	72
3.25400	67
3.25767	62
3.26133	60
3.26500	62
3.26867	64
3.27233	62
3.27600	56
3.27967	50
3.28333	47
3.28700	50
3.29067	55
3.29433	59
3.29800	63
3.30167	65
3.30533	65
3.30900	63
3.31267	61
3.31633	56
3.32000	51
3.32367	46
3.32733	42
3.33100	40
3.33467	39
3.33833	41
3.34200	48
3.34567	56
3.34933	61
3.35300	60
3.35667	52
3.36033	42
3.36400	34
3.36767	31
3.37133	33
3.37500	36
3.37867	39
3.38233	40
3.38600	42
3.38967	43
3.39333	43
3.39700	42
3.40067	43
3.40433	43
3.40800	45
3.41167	47
3.41533	50
3.41900	51
3.42267	51
3.42633	50
3.43000	48
3.43367	47
3.43733	48
3.44100	52
3.44467	57
3.44833	57
3.45200	52
3.45567	45
3.45933	37
3.46300	32
3.46667	33
3.47033	40
3.47400	47
3.47767	52
3.48133	55
3.48500	57
3.48867	60
3.49233	62
3.49600	62
3.49967	59
3.50333	54
3.50700	48
3.51067	42
3.51433	39
3.51800	39
3.52167	41
3.52533	45
3.52900	45
3.53267	38
3.53633	30
3.54000	24
3.54367	21
3.54733	21
3.55100	24
3.55467	27
3.55833	31
3.56200	34
3.56567	38
3.56933	41
3.57300	44
3.57667	48
3.58033	48
3.58400	45
3.58767	45
3.59133	43
3.59500	43
3.59867	42
3.60233	41
3.60600	39
3.60967	40
3.61333	40
3.61700	41
3.62067	41
3.62433	39
3.62800	39
3.63167	42
3.63533	45
3.63900	47
3.64267	48
3.64633	48
3.65000	47
3.65367	47
3.65733	45
3.66100	42
3.66467	37
3.66833	30
3.67200	24
3.67567	17
3.67933	14
3.68300	16
3.68667	21
3.69033	24
3.69400	24
3.69767	23
3.70133	22
3.70500	22
3.70867	24
3.71233	23
3.71600	22
3.71967	23
3.72333	23
3.72700	23
3.73067	22
3.73433	23
3.73800	23
3.74167	24
3.74533	24
3.74900	28
3.75267	34
3.75633	39
3.76000	40
3.76367	39
3.76733	38
3.77100	37
3.77467	36
3.77833	38
3.78200	43
3.78567	46
3.78933	47
3.79300	43
3.79667	38
3.80033	34
3.80400	30
3.80767	25
3.81133	19
3.81500	15
3.81867	12
3.82233	16
3.82600	23
3.82967	28
3.83333	32
3.83700	30
3.84067	26
3.84433	25
3.84800	27
3.85167	29
3.85533	29
3.85900	27
3.86267	26
3.86633	25
3.87000	24
3.87367	21
3.87733	21
3.88100	22
3.88467	22
3.88833	20
3.89200	14
3.89567	8
3.89933	3
3.90300	2
3.90667	5
3.91033	10
3.91400	14
3.91767	18
3.92133	23
3.92500	27
3.92867	28
3.93233	28
3.93600	29
3.93967	33
3.94333	39
3.94700	41
3.95067	39
3.95433	39
3.95800	41
3.96167	44
3.96533	45
3.96900	43
3.97267	38
3.97633	32
3.98000	28
3.98367	26
3.98733	25
3.99100	26
3.99467	25
3.99833	21

[Chromatogram (Ch2)]
Interval(msec)	220
# of Points	1091
Start Time(min)	0.002
End Time(min)	3.998
R.Time (min)	Intensity
0.00167	-0
0.00533	-0
0.00900	-0
0.01267	-0
0.01633	-0
0.02000	-0
0.02367	0
0.02733	0
0.03100	1
0.03467	1
0.03833	1
0.04200	2
0.04567	2
0.04933	2
0.05300	2
0.05667	2
0.06033	2
0.06400	3
0.06767	3
0.07133	3
0.07500	3
0.07867	3
0.08233	3
0.08600	3
0.08967	3
0.09333	3
0.09700	3
0.10067	4
0.10433	4
0.10800	4
0.11167	4
0.11533	3
0.11900	3
0.12267	3
0.12633	3
0.13000	2
0.13367	2
0.13733	1
0.14100	1
0.14467	1
0.14833	1
0.15200	1
0.15567	1
0.15933	1
0.16300	1
0.16667	1
0.17033	1
0.17400	1
0.17767	1
0.18133	1
0.18500	1
0.18867	1
0.19233	1
0.19600	0
0.19967	0
0.20333	-0
0.20700	-1
0.21067	-1
0.21433	-1
0.21800	-2
0.22167	-2
0.22533	-2
0.22900	-2
0.23267	-2
0.23633	-2
0.24000	-2
0.24367	-2
0.24733	-1
0.25100	-1
0.25467	-1
0.25833	-0
0.26200	-0
0.26567	0
0.26933	0
0.27300	0
0.27667	0
0.28033	0
0.28400	0
0.28767	0
0.29133	0
0.29500	0
0.29867	-0
0.30233	-0
0.30600	-0
0.30967	-1
0.31333	-1
0.31700	-1
0.32067	-1
0.32433	-1
0.32800	-1
0.33167	-1
0.33533	-1
0.33900	-1
0.34267	-1
0.34633	-1
0.35000	-1
0.35367	-0
0.35733	-0
0.36100	-0
0.36467	0
0.36833	0
0.37200	1
0.37567	1
0.37933	2
0.38300	2
0.38667	2
0.39033	2
0.39400	2
0.39767	2
0.40133	2
0.40500	2
0.40867	2
0.41233	2
0.41600	2
0.41967	1
0.42333	1
0.42700	0
0.43067	-1
0.43433	-1
0.43800	-1
0.44167	-1
0.44533	-2
0.44900	-2
0.45267	-2
0.45633	-2
0.46000	-2
0.46367	-2
0.46733	-1
0.47100	-1
0.47467	-1
0.47833	-0
0.48200	0
0.48567	1
0.48933	1
0.49300	1
0.49667	2
0.50033	2
0.50400	2
0.50767	2
0.51133	2
0.51500	2
0.51867	2
0.52233	2
0.52600	2
0.52967	2
0.53333	2
0.53700	1
0.54067	1
0.54433	1
0.54800	1
0.55167	1
0.55533	1
0.55900	1
0.56267	1
0.56633	1
0.57000	0
0.57367	-0
0.57733	-1
0.58100	-1
0.58467	-1
0.58833	-2
0.59200	-2
0.59567	-3
0.59933	-3
0.60300	-3
0.60667	-3
0.61033	-3
0.61400	-2
0.61767	-2
0.62133	-2
0.62500	-2
0.62867	-2
0.63233	-1
0.63600	-1
0.63967	-0
0.64333	0
0.64700	0
0.65067	0
0.65433	1
0.65800	1
0.66167	1
0.66533	1
0.66900	2
0.67267	2
0.67633	2
0.68000	2
0.68367	2
0.68733	2
0.69100	3
0.69467	3
0.69833	3
0.70200	3
0.70567	3
0.70933	2
0.71300	2
0.71667	2
0.72033	2
0.72400	2
0.72767	2
0.73133	2
0.73500	3
0.73867	3
0.74233	3
0.74600	3
0.74967	3
0.75333	2
0.75700	2
0.76067	2
0.76433	2
0.76800	2
0.77167	1
0.77533	1
0.77900	1
0.78267	1
0.78633	1
0.79000	1
0.79367	1
0.79733	1
0.80100	1
0.80467	1
0.80833	1
0.81200	1
0.81567	1
0.81933	0
0.82300	0
0.82667	-0
0.83033	-0
0.83400	-1
0.83767	-1
0.84133	-1
0.84500	-1
0.84867	-1
0.85233	-1
0.85600	-1
0.85967	-1
0.86333	-1
0.86700	-1
0.87067	-1
0.87433	-1
0.87800	-1
0.88167	-1
0.88533	-1
0.88900	-1
0.89267	-1
0.89633	-1
0.90000	-1
0.90367	-1
0.90733	-1
0.91100	-1
0.91467	-1
0.91833	-1
0.92200	-1
0.92567	-1
0.92933	-1
0.93300	-1
0.93667	-1
0.94033	-1
0.94400	-1
0.94767	-0
0.95133	-0
0.95500	-0
0.95867	0
0.96233	0
0.96600	-0
0.96967	-0
0.97333	-0
0.97700	-0
0.98067	-0
0.98433	-0
0.98800	-0
0.99167	-0
0.99533	-0
0.99900	-0
1.00267	-0
1.00633	-0
1.01000	0
1.01367	0
1.01733	-0
1.02100	-0
1.02467	-0
1.02833	-0
1.03200	-0
1.03567	0
1.03933	0
1.04300	-0
1.04667	-0
1.05033	-0
1.05400	-0
1.05767	-1
1.06133	-1
1.06500	-1
1.06867	-1
1.07233	-1
1.07600	-2
1.07967	-2
1.08333	-2
1.08700	-1
1.09067	-1
1.09433	-1
1.09800	-1
1.10167	-2
1.10533	-2
1.10900	-2
1.11267	-3
1.11633	-3
1.12000	-3
1.12367	-3
1.12733	-3
1.13100	-3
1.13467	-3
1.13833	-2
1.14200	-2
1.14567	-2
1.14933	-2
1.15300	-2
1.15667	-2
1.16033	-2
1.16400	-2
1.16767	-2
1.17133	-1
1.17500	-1
1.17867	-1
1.18233	-1
1.18600	-1
1.18967	-1
1.19333	-2
1.19700	-2
1.20067	-2
1.20433	-2
1.20800	-2
1.21167	-2
1.21533	-2
1.21900	-2
1.22267	-2
1.22633	-2
1.23000	-2
1.23367	-2
1.23733	-2
1.24100	-2
1.24467	-2
1.24833	-2
1.25200	-2
1.25567	-2
1.25933	-2
1.26300	-2
1.26667	-1
1.27033	-1
1.27400	-1
1.27767	-2
1.28133	-2
1.28500	-2
1.28867	-2
1.29233	-2
1.29600	-2
1.29967	-2
1.30333	-3
1.30700	-3
1.31067	-3
1.31433	-3
1.31800	-3
1.32167	-3
1.32533	-3
1.32900	-3
1.33267	-3
1.33633	-3
1.34000	-3
1.34367	-3
1.34733	-3
1.35100	-3
1.35467	-3
1.35833	-3
1.36200	-4
1.36567	-4
1.36933	-4
1.37300	-4
1.37667	-4
1.38033	-4
1.38400	-4
1.38767	-4
1.39133	-4
1.39500	-3
1.39867	-3
1.40233	-3
1.40600	-3
1.40967	-3
1.41333	-3
1.41700	-3
1.42067	-3
1.42433	-3
1.42800	-3
1.43167	-3
1.43533	-3
1.43900	-3
1.44267	-3
1.44633	-3
1.45000	-3
1.45367	-3
1.45733	-3
1.46100	-3
1.46467	-2
1.46833	-2
1.47200	-2
1.47567	-2
1.47933	-2
1.48300	-2
1.48667	-2
1.49033	-2
1.49400	-2
1.49767	-2
1.50133	-2
1.50500	-2
1.50867	-2
1.51233	-2
1.51600	-2
1.51967	-2
1.52333	-2
1.52700	-3
1.53067	-3
1.53433	-3
1.53800	-2
1.54167	-2
1.54533	-2
1.54900	-2
1.55267	-2
1.55633	-2
1.56000	-2
1.56367	-2
1.56733	-2
1.57100	-2
1.57467	-2
1.57833	-2
1.58200	-2
1.58567	-2
1.58933	-3
1.59300	-3
1.59667	-4
1.60033	-5
1.60400	-6
1.60767	-7
1.61133	-9
1.61500	-11
1.61867	-13
1.62233	-15
1.62600	-18
1.62967	-21
1.63333	-24
1.63700	-27
1.64067	-31
1.64433	-34
1.64800	-38
1.65167	-41
1.65533	-45
1.65900	-49
1.66267	-53
1.66633	-57
1.67000	-61
1.67367	-66
1.67733	-71
1.68100	-76
1.68467	-81
1.68833	-86
1.69200	-90
1.69567	-94
1.69933	-97
1.70300	-100
1.70667	-102
1.71033	-104
1.71400	-106
1.71767	-107
1.72133	-108
1.72500	-109
1.72867	-111
1.73233	-112
1.73600	-113
1.73967	-115
1.74333	-116
1.74700	-117
1.75067	-118
1.75433	-118
1.75800	-118
1.76167	-117
1.76533	-117
1.76900	-117
1.77267	-116
1.77633	-116
1.78000	-115
1.78367	-115
1.78733	-116
1.79100	-116
1.79467	-117
1.79833	-118
1.80200	-119
1.80567	-119
1.80933	-120
1.81300	-120
1.81667	-121
1.82033	-121
1.82400	-121
1.82767	-122
1.83133	-122
1.83500	-123
1.83867	-123
1.84233	-123
1.84600	-123
1.84967	-123
1.85333	-123
1.85700	-123
1.86067	-123
1.86433	-123
1.86800	-124
1.87167	-124
1.87533	-124
1.87900	-125
1.88267	-125
1.88633	-124
1.89000	-124
1.89367	-123
1.89733	-122
1.90100	-122
1.90467	-121
1.90833	-121
1.91200	-120
1.91567	-120
1.91933	-120
1.92300	-120
1.92667	-119
1.93033	-118
1.93400	-118
1.93767	-117
1.94133	-117
1.94500	-117
1.94867	-117
1.95233	-117
1.95600	-117
1.95967	-117
1.96333	-117
1.96700	-117
1.97067	-116
1.97433	-116
1.97800	-115
1.98167	-115
1.98533	-114
1.98900	-114
1.99267	-113
1.99633	-113
2.00000	-113
2.00367	-113
2.00733	-113
2.01100	-113
2.01467	-114
2.01833	-114
2.02200	-114
2.02567	-114
2.02933	-114
2.03300	-113
2.03667	-112
2.04033	-112
2.04400	-111
2.04767	-111
2.05133	-110
2.05500	-110
2.05867	-110
2.06233	-110
2.06600	-109
2.06967	-109
2.07333	-109
2.07700	-109
2.08067	-109
2.08433	-108
2.08800	-107
2.09167	-107
2.09533	-106
2.09900	-105
2.10267	-105
2.10633	-105
2.11000	-105
2.11367	-104
2.11733	-104
2.12100	-104
2.12467	-103
2.12833	-102
2.13200	-102
2.13567	-101
2.13933	-101
2.14300	-100
2.14667	-100
2.15033	-101
2.15400	-101
2.15767	-102
2.16133	-102
2.16500	-102
2.16867	-101
2.17233	-101
2.17600	-101
2.17967	-101
2.18333	-100
2.18700	-100
2.19067	-99
2.19433	-99
2.19800	-98
2.20167	-98
2.20533	-97
2.20900	-96
2.21267	-95
2.21633	-94
2.22000	-93
2.22367	-93
2.22733	-92
2.23100	-92
2.23467	-92
2.23833	-92
2.24200	-93
2.24567	-93
2.24933	-93
2.25300	-93
2.25667	-92
2.26033	-92
2.26400	-91
2.26767	-91
2.27133	-90
2.27500	-89
2.27867	-88
2.28233	-88
2.28600	-88
2.28967	-88
2.29333	-88
2.29700	-88
2.30067	-89
2.30433	-88
2.30800	-88
2.31167	-87
2.31533	-86
2.31900	-86
2.32267	-86
2.32633	-86
2.33000	-85
2.33367	-85
2.33733	-85
2.34100	-84
2.34467	-83
2.34833	-82
2.35200	-81
2.35567	-80
2.35933	-79
2.36300	-78
2.36667	-77
2.37033	-76
2.37400	-73
2.37767	-71
2.38133	-68
2.38500	-65
2.38867	-61
2.39233	-57
2.39600	-53
2.39967	-49
2.40333	-45
2.40700	-40
2.41067	-36
2.41433	-32
2.41800	-29
2.42167	-26
2.42533	-23
2.42900	-20
2.43267	-18
2.43633	-16
2.44000	-14
2.44367	-12
2.44733	-10
2.45100	-8
2.45467	-7
2.45833	-5
2.46200	-4
2.46567	-3
2.46933	-1
2.47300	0
2.47667	2
2.48033	3
2.48400	4
2.48767	5
2.49133	6
2.49500	7
2.49867	8
2.50233	8
2.50600	9
2.50967	10
2.51333	10
2.51700	11
2.52067	11
2.52433	11
2.52800	12
2.53167	13
2.53533	13
2.53900	13
2.54267	13
2.54633	13
2.55000	13
2.55367	13
2.55733	13
2.56100	13
2.56467	13
2.56833	13
2.57200	13
2.57567	14
2.57933	14
2.58300	14
2.58667	14
2.59033	15
2.59400	15
2.59767	15
2.60133	15
2.60500	15
2.60867	16
2.61233	16
2.61600	16
2.61967	16
2.62333	16
2.62700	16
2.63067	17
2.63433	17
2.63800	17
2.64167	18
2.64533	18
2.64900	19
2.65267	19
2.65633	19
2.66000	19
2.66367	20
2.66733	20
2.67100	21
2.67467	21
2.67833	21
2.68200	22
2.68567	22
2.68933	21
2.69300	21
2.69667	21
2.70033	22
2.70400	22
2.70767	22
2.71133	23
2.71500	23
2.71867	23
2.72233	24
2.72600	24
2.72967	24
2.73333	24
2.73700	24
2.74067	24
2.74433	23
2.74800	23
2.75167	23
2.75533	23
2.75900	23
2.76267	23
2.76633	23
2.77000	23
2.77367	23
2.77733	23
2.78100	24
2.78467	24
2.78833	25
2.79200	25
2.79567	25
2.79933	26
2.80300	26
2.80667	27
2.81033	27
2.81400	27
2.81767	27
2.82133	27
2.82500	27
2.82867	28
2.83233	28
2.83600	28
2.83967	28
2.84333	27
2.84700	27
2.85067	25
2.85433	23
2.85800	18
2.86167	12
2.86533	3
2.86900	-10
2.87267	-25
2.87633	-45
2.88000	-69
2.88367	-97
2.88733	-129
2.89100	-164
2.89467	-203
2.89833	-245
2.90200	-290
2.90567	-336
2.90933	-385
2.91300	-434
2.91667	-485
2.92033	-536
2.92400	-587
2.92767	-638
2.93133	-689
2.93500	-739
2.93867	-789
2.94233	-839
2.94600	-893
2.94967	-952
2.95333	-1014
2.95700	-1069
2.96067	-1107
2.96433	-1120
2.96800	-1106
2.97167	-1068
2.97533	-1010
2.97900	-939
2.98267	-859
2.98633	-777
2.99000	-695
2.99367	-616
2.99733	-542
3.00100	-474
3.00467	-411
3.00833	-355
3.01200	-306
3.01567	-262
3.01933	-224
3.02300	-190
3.02667	-161
3.03033	-136
3.03400	-115
3.03767	-96
3.04133	-80
3.04500	-67
3.04867	-55
3.05233	-45
3.05600	-37
3.05967	-30
3.06333	-24
3.06700	-19
3.07067	-15
3.07433	-11
3.07800	-8
3.08167	-5
3.08533	-2
3.08900	-0
3.09267	2
3.09633	3
3.10000	5
3.10367	6
3.10733	8
3.11100	9
3.11467	10
3.11833	11
3.12200	12
3.12567	12
3.12933	13
3.13300	14
3.13667	14
3.14033	15
3.14400	15
3.14767	16
3.15133	17
3.15500	17
3.15867	17
3.16233	18
3.16600	18
3.16967	19
3.17333	19
3.17700	20
3.18067	20
3.18433	20
3.18800	21
3.19167	21
3.19533	21
3.19900	21
3.20267	21
3.20633	21
3.21000	21
3.21367	21
3.21733	21
3.22100	21
3.22467	21
3.22833	22
3.23200	22
3.23567	22
3.23933	22
3.24300	22
3.24667	22
3.25033	22
3.25400	22
3.25767	22
3.26133	22
3.26500	22
3.26867	22
3.27233	22
3.27600	22
3.27967	22
3.28333	22
3.28700	23
3.29067	23
3.29433	23
3.29800	23
3.30167	23
3.30533	24
3.30900	24
3.31267	24
3.31633	24
3.32000	24
3.32367	24
3.32733	25
3.33100	25
3.33467	25
3.33833	25
3.34200	25
3.34567	25
3.34933	25
3.35300	25
3.35667	25
3.36033	25
3.36400	25
3.36767	25
3.37133	25
3.37500	25
3.37867	25
3.38233	26
3.38600	26
3.38967	26
3.39333	26
3.39700	26
3.40067	26
3.40433	26
3.40800	26
3.41167	26
3.41533	26
3.41900	26
3.42267	26
3.42633	26
3.43000	26
3.43367	26
3.43733	26
3.44100	26
3.44467	26
3.44833	26
3.45200	26
3.45567	25
3.45933	25
3.46300	25
3.46667	25
3.47033	26
3.47400	26
3.47767	26
3.48133	26
3.48500	26
3.48867	27
3.49233	27
3.49600	27
3.49967	27
3.50333	27
3.50700	27
3.51067	28
3.51433	28
3.51800	28
3.52167	28
3.52533	28
3.52900	29
3.53267	29
3.53633	29
3.54000	29
3.54367	28
3.54733	28
3.55100	28
3.55467	28
3.55833	28
3.56200	28
3.56567	28
3.56933	28
3.57300	27
3.57667	28
3.58033	28
3.58400	28
3.58767	28
3.59133	28
3.59500	28
3.59867	28
3.60233	28
3.60600	28
3.60967	28
3.61333	28
3.61700	28
3.62067	28
3.62433	28
3.62800	28
3.63167	28
3.63533	28
3.63900	29
3.64267	29
3.64633	28
3.65000	28
3.65367	28
3.65733	28
3.66100	28
3.66467	28
3.66833	28
3.67200	28
3.67567	27
3.67933	27
3.68300	27
3.68667	27
3.69033	27
3.69400	27
3.69767	27
3.70133	27
3.70500	27
3.70867	27
3.71233	27
3.71600	27
3.71967	27
3.72333	28
3.72700	28
3.73067	28
3.73433	28
3.73800	28
3.74167	28
3.74533	28
3.74900	27
3.75267	28
3.75633	28
3.76000	28
3.76367	28
3.76733	27
3.77100	27
3.77467	27
3.77833	27
3.78200	27
3.78567	27
3.78933	27
3.79300	28
3.79667	28
3.80033	28
3.80400	28
3.80767	28
3.81133	28
3.81500	28
3.81867	28
3.82233	28
3.82600	28
3.82967	28
3.83333	28
3.83700	28
3.84067	28
3.84433	28
3.84800	28
3.85167	28
3.85533	28
3.85900	28
3.86267	28
3.86633	27
3.87000	27
3.87367	27
3.87733	27
3.88100	26
3.88467	26
3.88833	26
3.89200	27
3.89567	27
3.89933	27
3.90300	27
3.90667	27
3.91033	28
3.91400	28
3.91767	28
3.92133	28
3.92500	28
3.92867	28
3.93233	28
3.93600	28
3.93967	28
3.94333	28
3.94700	28
3.95067	28
3.95433	28
3.95800	28
3.96167	28
3.96533	28
3.96900	28
3.97267	28
3.97633	28
3.98000	28
3.98367	28
3.98733	29
3.99100	29
3.99467	29
3.99833	29

[Chromatogram (Ch3)]
Interval(msec)	220
# of Points	1091
Start Time(min)	0.002
End Time(min)	3.998
R.Time (min)	Intensity
0.00167	-1
0.00533	-2
0.00900	-2
0.01267	-0
0.01633	-0
0.02000	2
0.02367	2
0.02733	0
0.03100	-4
0.03467	-5
0.03833	-3
0.04200	-2
0.04567	-2
0.04933	-5
0.05300	-7
0.05667	-8
0.06033	-7
0.06400	-5
0.06767	-3
0.07133	-3
0.07500	-3
0.07867	-2
0.08233	-2
0.08600	-2
0.08967	-5
0.09333	-5
0.09700	-3
0.10067	-3
0.10433	-1
0.10800	2
0.11167	-0
0.11533	-4
0.11900	-6
0.12267	-7
0.12633	-4
0.13000	-0
0.13367	1
0.13733	1
0.14100	0
0.14467	0
0.14833	-1
0.15200	-0
0.15567	-2
0.15933	-3
0.16300	-3
0.16667	-3
0.17033	-2
0.17400	-2
0.17767	-4
0.18133	-5
0.18500	-5
0.18867	-4
0.19233	-2
0.19600	-2
0.19967	-3
0.20333	-2
0.20700	-2
0.21067	-2
0.21433	-1
0.21800	0
0.22167	-0
0.22533	-2
0.22900	-2
0.23267	-1
0.23633	0
0.24000	-1
0.24367	-1
0.24733	-2
0.25100	-3
0.25467	-3
0.25833	-0
0.26200	1
0.26567	2
0.26933	4
0.27300	4
0.27667	1
0.28033	-2
0.28400	-4
0.28767	-5
0.29133	-5
0.29500	-5
0.29867	-4
0.30233	-5
0.30600	-6
0.30967	-5
0.31333	-5
0.31700	-8
0.32067	-8
0.32433	-4
0.32800	-2
0.33167	-1
0.33533	-1
0.33900	-1
0.34267	-2
0.34633	-3
0.35000	-3
0.35367	-2
0.35733	-2
0.36100	-3
0.36467	-4
0.36833	-4
0.37200	-4
0.37567	-3
0.37933	-2
0.38300	-1
0.38667	-2
0.39033	-4
0.39400	-5
0.39767	-4
0.40133	-4
0.40500	-3
0.40867	-3
0.41233	-3
0.41600	-3
0.41967	-2
0.42333	-3
0.42700	-5
0.43067	-5
0.43433	-5
0.43800	-6
0.44167	-6
0.44533	-7
0.44900	-7
0.45267	-9
0.45633	-10
0.46000	-7
0.46367	-8
0.46733	-7
0.47100	-8
0.47467	-9
0.47833	-9
0.48200	-7
0.48567	-5
0.48933	-3
0.49300	-3
0.49667	-5
0.50033	-7
0.50400	-8
0.50767	-9
0.51133	-7
0.51500	-4
0.51867	-4
0.52233	-5
0.52600	-6
0.52967	-8
0.53333	-9
0.53700	-10
0.54067	-11
0.54433	-10
0.54800	-10
0.55167	-10
0.55533	-9
0.55900	-9
0.56267	-11
0.56633	-12
0.57000	-12
0.57367	-12
0.57733	-11
0.58100	-10
0.58467	-10
0.58833	-8
0.59200	-7
0.59567	-7
0.59933	-7
0.60300	-7
0.60667	-8
0.61033	-9
0.61400	-10
0.61767	-11
0.62133	-11
0.62500	-10
0.62867	-10
0.63233	-9
0.63600	-11
0.63967	-11
0.64333	-11
0.64700	-13
0.65067	-15
0.65433	-15
0.65800	-16
0.66167	-16
0.66533	-16
0.66900	-15
0.67267	-12
0.67633	-11
0.68000	-12
0.68367	-14
0.68733	-14
0.69100	-13
0.69467	-13
0.69833	-12
0.70200	-10
0.70567	-10
0.70933	-11
0.71300	-12
0.71667	-12
0.72033	-11
0.72400	-11
0.72767	-12
0.73133	-13
0.73500	-16
0.73867	-15
0.74233	-13
0.74600	-12
0.74967	-12
0.75333	-12
0.75700	-12
0.76067	-11
0.76433	-11
0.76800	-11
0.77167	-11
0.77533	-10
0.77900	-10
0.78267	-13
0.78633	-16
0.79000	-16
0.79367	-17
0.79733	-16
0.80100	-14
0.80467	-13
0.80833	-12
0.81200	-12
0.81567	-12
0.81933	-11
0.82300	-10
0.82667	-8
0.83033	-7
0.83400	-8
0.83767	-10
0.84133	-14
0.84500	-13
0.84867	-10
0.85233	-9
0.85600	-9
0.85967	-9
0.86333	-9
0.86700	-11
0.87067	-12
0.87433	-13
0.87800	-15
0.88167	-15
0.88533	-14
0.88900	-11
0.89267	-10
0.89633	-10
0.90000	-12
0.90367	-14
0.90733	-15
0.91100	-16
0.91467	-17
0.91833	-17
0.92200	-17
0.92567	-17
0.92933	-17
0.93300	-17
0.93667	-17
0.94033	-15
0.94400	-12
0.94767	-11
0.95133	-13
0.95500	-14
0.95867	-15
0.96233	-15
0.96600	-12
0.96967	-10
0.97333	-10
0.97700	-11
0.98067	-12
0.98433	-12
0.98800	-12
0.99167	-12
0.99533	-13
0.99900	-11
1.00267	-11
1.00633	-13
1.01000	-12
1.01367	-10
1.01733	-10
1.02100	-13
1.02467	-14
1.02833	-14
1.03200	-13
1.03567	-13
1.03933	-13
1.04300	-14
1.04667	-14
1.05033	-13
1.05400	-12
1.05767	-12
1.06133	-10
1.06500	-9
1.06867	-10
1.07233	-11
1.07600	-11
1.07967	-13
1.08333	-12
1.08700	-11
1.09067	-11
1.09433	-12
1.09800	-10
1.10167	-10
1.10533	-10
1.10900	-11
1.11267	-11
1.11633	-12
1.12000	-12
1.12367	-12
1.12733	-10
1.13100	-9
1.13467	-9
1.13833	-10
1.14200	-13
1.14567	-15
1.14933	-15
1.15300	-15
1.15667	-17
1.16033	-16
1.16400	-15
1.16767	-15
1.17133	-14
1.17500	-14
1.17867	-14
1.18233	-12
1.18600	-11
1.18967	-12
1.19333	-12
1.19700	-13
1.20067	-12
1.20433	-11
1.20800	-11
1.21167	-11
1.21533	-11
1.21900	-11
1.22267	-13
1.22633	-13
1.23000	-14
1.23367	-14
1.23733	-13
1.24100	-12
1.24467	-13
1.24833	-15
1.25200	-17
1.25567	-15
1.25933	-13
1.26300	-15
1.26667	-14
1.27033	-14
1.27400	-14
1.27767	-15
1.28133	-13
1.28500	-10
1.28867	-9
1.29233	-8
1.29600	-9
1.29967	-10
1.30333	-9
1.30700	-10
1.31067	-12
1.31433	-16
1.31800	-17
1.32167	-18
1.32533	-19
1.32900	-18
1.33267	-17
1.33633	-15
1.34000	-14
1.34367	-12
1.34733	-11
1.35100	-10
1.35467	-10
1.35833	-11
1.36200	-13
1.36567	-14
1.36933	-11
1.37300	-9
1.37667	-7
1.38033	-8
1.38400	-9
1.38767	-12
1.39133	-10
1.39500	-10
1.39867	-10
1.40233	-9
1.40600	-6
1.40967	-7
1.41333	-8
1.41700	-11
1.42067	-11
1.42433	-11
1.42800	-12
1.43167	-14
1.43533	-13
1.43900	-11
1.44267	-10
1.44633	-12
1.45000	-12
1.45367	-11
1.45733	-10
1.46100	-10
1.46467	-11
1.46833	-12
1.47200	-11
1.47567	-11
1.47933	-10
1.48300	-10
1.48667	-10
1.49033	-11
1.49400	-13
1.49767	-16
1.50133	-16
1.50500	-16
1.50867	-16
1.51233	-15
1.51600	-15
1.51967	-14
1.52333	-14
1.52700	-16
1.53067	-17
1.53433	-18
1.53800	-19
1.54167	-17
1.54533	-16
1.54900	-16
1.55267	-14
1.55633	-14
1.56000	-15
1.56367	-16
1.56733	-15
1.57100	-14
1.57467	-14
1.57833	-13
1.58200	-14
1.58567	-15
1.58933	-15
1.59300	-15
1.59667	-15
1.60033	-15
1.60400	-16
1.60767	-17
1.61133	-18
1.61500	-18
1.61867	-15
1.62233	-12
1.62600	-8
1.62967	-7
1.63333	-5
1.63700	-3
1.64067	-3
1.64433	-4
1.64800	-5
1.65167	-8
1.65533	-9
1.65900	-8
1.66267	-7
1.66633	-8
1.67000	-9
1.67367	-9
1.67733	-8
1.68100	-7
1.68467	-7
1.68833	-8
1.69200	-7
1.69567	-6
1.69933	-5
1.70300	-4
1.70667	-2
1.71033	-2
1.71400	-4
1.71767	-6
1.72133	-6
1.72500	-6
1.72867	-6
1.73233	-7
1.73600	-6
1.73967	-4
1.74333	-3
1.74700	-1
1.75067	0
1.75433	1
1.75800	2
1.76167	2
1.76533	-1
1.76900	-5
1.77267	-5
1.77633	-6
1.78000	-6
1.78367	-6
1.78733	-6
1.79100	-4
1.79467	-0
1.79833	1
1.80200	4
1.80567	5
1.80933	7
1.81300	9
1.81667	9
1.82033	9
1.82400	9
1.82767	10
1.83133	12
1.83500	12
1.83867	11
1.84233	10
1.84600	10
1.84967	9
1.85333	7
1.85700	7
1.86067	8
1.86433	7
1.86800	6
1.87167	5
1.87533	7
1.87900	8
1.88267	9
1.88633	10
1.89000	11
1.89367	11
1.89733	11
1.90100	12
1.90467	13
1.90833	14
1.91200	14
1.91567	14
1.91933	15
1.92300	15
1.92667	15
1.93033	16
1.93400	17
1.93767	17
1.94133	19
1.94500	22
1.94867	23
1.95233	22
1.95600	22
1.95967	21
1.96333	20
1.96700	21
1.97067	23
1.97433	25
1.97800	24
1.98167	24
1.98533	22
1.98900	23
1.99267	23
1.99633	26
2.00000	28
2.00367	28
2.00733	30
2.01100	31
2.01467	31
2.01833	32
2.02200	34
2.02567	33
2.02933	36
2.03300	37
2.03667	36
2.04033	36
2.04400	35
2.04767	34
2.05133	34
2.05500	36
2.05867	35
2.06233	34
2.06600	35
2.06967	36
2.07333	39
2.07700	42
2.08067	43
2.08433	44
2.08800	46
2.09167	45
2.09533	43
2.09900	43
2.10267	43
2.10633	44
2.11000	45
2.11367	46
2.11733	48
2.12100	48
2.12467	49
2.12833	52
2.13200	53
2.13567	52
2.13933	53
2.14300	54
2.14667	55
2.15033	54
2.15400	54
2.15767	56
2.16133	56
2.16500	58
2.16867	58
2.17233	60
2.17600	61
2.17967	61
2.18333	64
2.18700	66
2.19067	67
2.19433	68
2.19800	69
2.20167	71
2.20533	72
2.20900	73
2.21267	73
2.21633	74
2.22000	76
2.22367	77
2.22733	76
2.23100	76
2.23467	75
2.23833	76
2.24200	77
2.24567	77
2.24933	75
2.25300	75
2.25667	76
2.26033	77
2.26400	78
2.26767	80
2.27133	82
2.27500	82
2.27867	82
2.28233	83
2.28600	84
2.28967	85
2.29333	86
2.29700	89
2.30067	92
2.30433	93
2.30800	94
2.31167	95
2.31533	98
2.31900	100
2.32267	102
2.32633	103
2.33000	103
2.33367	104
2.33733	103
2.34100	102
2.34467	103
2.34833	104
2.35200	105
2.35567	105
2.35933	104
2.36300	107
2.36667	109
2.37033	112
2.37400	112
2.37767	113
2.38133	114
2.38500	115
2.38867	115
2.39233	115
2.39600	117
2.39967	119
2.40333	123
2.40700	124
2.41067	123
2.41433	122
2.41800	124
2.42167	127
2.42533	131
2.42900	133
2.43267	134
2.43633	136
2.44000	136
2.44367	145
2.44733	179
2.45100	219
2.45467	253
2.45833	271
2.46200	277
2.46567	283
2.46933	291
2.47300	293
2.47667	288
2.48033	282
2.48400	278
2.48767	278
2.49133	281
2.49500	289
2.49867	299
2.50233	310
2.50600	322
2.50967	331
2.51333	336
2.51700	341
2.52067	341
2.52433	336
2.52800	330
2.53167	329
2.53533	330
2.53900	331
2.54267	336
2.54633	342
2.55000	349
2.55367	357
2.55733	366
2.56100	375
2.56467	383
2.56833	390
2.57200	396
2.57567	402
2.57933	411
2.58300	420
2.58667	424
2.59033	429
2.59400	432
2.59767	433
2.60133	430
2.60500	423
2.60867	412
2.61233	395
2.61600	370
2.61967	342
2.62333	309
2.62700	278
2.63067	247
2.63433	218
2.63800	193
2.64167	172
2.64533	159
2.64900	152
2.65267	149
2.65633	149
2.66000	152
2.66367	156
2.66733	160
2.67100	164
2.67467	169
2.67833	177
2.68200	184
2.68567	193
2.68933	205
2.69300	217
2.69667	229
2.70033	237
2.70400	246
2.70767	254
2.71133	260
2.71500	266
2.71867	273
2.72233	281
2.72600	288
2.72967	295
2.73333	301
2.73700	308
2.74067	313
2.74433	316
2.74800	320
2.75167	324
2.75533	328
2.75900	332
2.76267	337
2.76633	342
2.77000	347
2.77367	352
2.77733	356
2.78100	359
2.78467	360
2.78833	362
2.79200	360
2.79567	359
2.79933	361
2.80300	363
2.80667	366
2.81033	367
2.81400	366
2.81767	366
2.82133	368
2.82500	372
2.82867	381
2.83233	405
2.83600	456
2.83967	559
2.84333	740
2.84700	1020
2.85067	1423
2.85433	1951
2.85800	2586
2.86167	3292
2.86533	4018
2.86900	4706
2.87267	5304
2.87633	5766
2.88000	6062
2.88367	6185
2.88733	6144
2.89100	5963
2.89467	5675
2.89833	5313
2.90200	4905
2.90567	4482
2.90933	4060
2.91300	3653
2.91667	3271
2.92033	2921
2.92400	2603
2.92767	2317
2.93133	2064
2.93500	1839
2.93867	1640
2.94233	1465
2.94600	1315
2.94967	1186
2.95333	1075
2.95700	975
2.96067	890
2.96433	817
2.96800	752
2.97167	697
2.97533	650
2.97900	611
2.98267	578
2.98633	549
2.99000	523
2.99367	501
2.99733	481
3.00100	464
3.00467	450
3.00833	437
3.01200	428
3.01567	420
3.01933	413
3.02300	405
3.02667	396
3.03033	390
3.03400	386
3.03767	382
3.04133	381
3.04500	381
3.04867	380
3.05233	379
3.05600	378
3.05967	378
3.06333	377
3.06700	375
3.07067	375
3.07433	373
3.07800	371
3.08167	369
3.08533	367
3.08900	369
3.09267	370
3.09633	369
3.10000	365
3.10367	362
3.10733	362
3.11100	361
3.11467	362
3.11833	364
3.12200	364
3.12567	365
3.12933	368
3.13300	367
3.13667	366
3.14033	363
3.14400	361
3.14767	360
3.15133	361
3.15500	362
3.15867	363
3.16233	364
3.16600	364
3.16967	363
3.17333	363
3.17700	361
3.18067	359
3.18433	359
3.18800	358
3.19167	357
3.19533	357
3.19900	358
3.20267	358
3.20633	356
3.21000	352
3.21367	349
3.21733	349
3.22100	350
3.22467	351
3.22833	350
3.23200	347
3.23567	347
3.23933	347
3.24300	345
3.24667	344
3.25033	346
3.25400	345
3.25767	343
3.26133	340
3.26500	340
3.26867	340
3.27233	337
3.27600	335
3.27967	335
3.28333	335
3.28700	333
3.29067	329
3.29433	325
3.29800	324
3.30167	319
3.30533	315
3.30900	314
3.31267	312
3.31633	311
3.32000	310
3.32367	307
3.32733	303
3.33100	300
3.33467	297
3.33833	296
3.34200	294
3.34567	293
3.34933	291
3.35300	289
3.35667	285
3.36033	281
3.36400	278
3.36767	277
3.37133	274
3.37500	271
3.37867	268
3.38233	267
3.38600	268
3.38967	269
3.39333	267
3.39700	263
3.40067	259
3.40433	258
3.40800	257
3.41167	256
3.41533	258
3.41900	257
3.42267	253
3.42633	249
3.43000	246
3.43367	243
3.43733	240
3.44100	239
3.44467	237
3.44833	235
3.45200	233
3.45567	232
3.45933	229
3.46300	230
3.46667	229
3.47033	227
3.47400	223
3.47767	220
3.48133	220
3.48500	221
3.48867	220
3.49233	217
3.49600	215
3.49967	213
3.50333	210
3.50700	208
3.51067	205
3.51433	202
3.51800	200
3.52167	198
3.52533	197
3.52900	198
3.53267	197
3.53633	195
3.54000	192
3.54367	188
3.54733	186
3.55100	186
3.55467	187
3.55833	188
3.56200	188
3.56567	186
3.56933	185
3.57300	184
3.57667	183
3.58033	185
3.58400	186
3.58767	185
3.59133	184
3.59500	182
3.59867	180
3.60233	178
3.60600	175
3.60967	173
3.61333	171
3.61700	171
3.62067	169
3.62433	166
3.62800	166
3.63167	165
3.63533	165
3.63900	166
3.64267	166
3.64633	165
3.65000	163
3.65367	161
3.65733	159
3.66100	155
3.66467	153
3.66833	153
3.67200	154
3.67567	152
3.67933	151
3.68300	149
3.68667	148
3.69033	147
3.69400	147
3.69767	148
3.70133	147
3.70500	146
3.70867	145
3.71233	144
3.71600	145
3.71967	145
3.72333	143
3.72700	140
3.73067	138
3.73433	137
3.73800	138
3.74167	138
3.74533	137
3.74900	134
3.75267	134
3.75633	134
3.76000	132
3.76367	129
3.76733	129
3.77100	130
3.77467	130
3.77833	131
3.78200	133
3.78567	131
3.78933	126
3.79300	123
3.79667	122
3.80033	122
3.80400	122
3.80767	120
3.81133	119
3.81500	117
3.81867	118
3.82233	120
3.82600	120
3.82967	118
3.83333	117
3.83700	116
3.84067	116
3.84433	115
3.84800	114
3.85167	112
3.85533	110
3.85900	108
3.86267	108
3.86633	109
3.87000	108
3.87367	107
3.87733	107
3.88100	106
3.88467	107
3.88833	105
3.89200	104
3.89567	103
3.89933	103
3.90300	104
3.90667	102
3.91033	101
3.91400	99
3.91767	99
3.92133	99
3.92500	97
3.92867	97
3.93233	97
3.93600	97
3.93967	96
3.94333	93
3.94700	92
3.95067	90
3.95433	89
3.95800	90
3.96167	88
3.96533	85
3.96900	82
3.97267	82
3.97633	82
3.98000	83
3.98367	83
3.98733	84
3.99100	84
3.99467	83
3.99833	84

[Status Trace (Column Oven Temperature)]
Interval(msec)	1000
# of Points	240
Start Time(min)	0.015
End Time(min)	3.999
Intensity Units	
Intensity Multiplier	1
R.Time (min)	Intensity
0.01533	35.00
0.03200	34.99
0.04867	34.98
0.06533	34.97
0.08200	34.97
0.09867	34.97
0.11533	34.97
0.13200	34.98
0.14867	34.98
0.16533	34.99
0.18200	34.99
0.19867	35.00
0.21533	35.00
0.23200	35.01
0.24867	35.00
0.26533	35.00
0.28200	34.99
0.29867	35.00
0.31533	35.01
0.33200	35.01
0.34867	35.01
0.36533	35.00
0.38200	35.00
0.39867	34.99
0.41533	35.00
0.43200	35.00
0.44867	35.01
0.46533	35.01
0.48200	35.00
0.49867	34.99
0.51533	34.99
0.53200	34.99
0.54867	35.00
0.56533	35.00
0.58200	35.02
0.59867	35.03
0.61533	35.03
0.63200	35.02
0.64867	35.01
0.66533	35.00
0.68200	35.00
0.69867	34.99
0.71533	34.99
0.73200	34.97
0.74867	34.98
0.76533	34.97
0.78200	34.97
0.79867	34.97
0.81533	34.98
0.83200	34.99
0.84867	34.98
0.86533	34.98
0.88200	34.99
0.89867	34.98
0.91533	34.98
0.93200	34.97
0.94867	34.97
0.96533	34.98
0.98200	34.98
0.99867	34.97
1.01533	34.98
1.03200	34.98
1.04867	34.98
1.06533	34.99
1.08200	34.98
1.09867	34.99
1.11533	34.99
1.13200	34.99
1.14867	34.99
1.16533	34.99
1.18200	35.00
1.19867	34.98
1.21533	34.99
1.23200	34.99
1.24867	34.99
1.26533	34.99
1.28200	34.99
1.29867	35.00
1.31533	35.00
1.33200	35.01
1.34867	35.00
1.36533	35.00
1.38200	35.00
1.39867	34.99
1.41533	35.00
1.43200	35.00
1.44867	34.99
1.46533	34.99
1.48200	34.99
1.49867	35.00
1.51533	35.00
1.53200	35.00
1.54867	35.00
1.56533	35.00
1.58200	35.00
1.59867	35.03
1.61533	35.12
1.63200	35.26
1.64867	35.47
1.66533	35.75
1.68200	36.11
1.69867	36.47
1.71533	36.81
1.73200	37.16
1.74867	37.50
1.76533	37.82
1.78200	38.13
1.79867	38.47
1.81533	38.81
1.83200	39.16
1.84867	39.46
1.86533	39.79
1.88200	40.13
1.89867	40.46
1.91533	40.80
1.93200	41.11
1.94867	41.45
1.96533	41.78
1.98200	42.09
1.99867	42.41
2.01533	42.76
2.03200	43.08
2.04867	43.41
2.06533	43.73
2.08200	44.06
2.09867	44.38
2.11533	44.72
2.13200	45.03
2.14867	45.37
2.16533	45.69
2.18200	46.01
2.19867	46.35
2.21533	46.66
2.23200	46.99
2.24867	47.33
2.26533	47.66
2.28200	47.99
2.29867	48.34
2.31533	48.66
2.33200	49.00
2.34867	49.30
2.36533	49.51
2.38200	49.61
2.39867	49.61
2.41533	49.62
2.43200	49.63
2.44867	49.64
2.46533	49.66
2.48200	49.66
2.49867	49.68
2.51533	49.69
2.53200	49.70
2.54867	49.74
2.56533	49.76
2.58200	49.77
2.59867	49.79
2.61533	49.80
2.63200	49.82
2.64867	49.83
2.66533	49.83
2.68200	49.84
2.69867	49.86
2.71533	49.84
2.73200	49.85
2.74867	49.89
2.76533	49.90
2.78200	49.90
2.79867	49.89
2.81533	49.89
2.83200	49.90
2.84867	49.90
2.86533	49.90
2.88200	49.91
2.89867	49.94
2.91533	49.94
2.93200	49.94
2.94867	49.95
2.96533	49.94
2.98200	49.94
2.99867	49.94
3.01533	49.95
3.03200	49.96
3.04867	49.98
3.06533	49.99
3.08200	50.01
3.09867	50.02
3.11533	50.04
3.13200	50.04
3.14867	50.05
3.16533	50.06
3.18200	50.06
3.19867	50.06
3.21533	50.07
3.23200	50.07
3.24867	50.08
3.26533	50.09
3.28200	50.09
3.29867	50.09
3.31533	50.09
3.33200	50.10
3.34867	50.10
3.36533	50.10
3.38200	50.10
3.39867	50.10
3.41533	50.10
3.43200	50.09
3.44867	50.10
3.46533	50.11
3.48200	50.10
3.49867	50.10
3.51533	50.08
3.53200	50.08
3.54867	50.07
3.56533	50.07
3.58200	50.07
3.59867	50.07
3.61533	50.07
3.63200	50.07
3.64867	50.06
3.66533	50.06
3.68200	50.06
3.69867	50.06
3.71533	50.07
3.73200	50.06
3.74867	50.06
3.76533	50.06
3.78200	50.07
3.79867	50.08
3.81533	50.08
3.83200	50.07
3.84867	50.06
3.86533	50.06
3.88200	50.07
3.89867	50.06
3.91533	50.05
3.93200	50.05
3.94867	50.06
3.96533	50.05
3.98200	50.05
3.99867	50.05

[Status Trace (Injection Unit Temperature)]
Interval(msec)	1000
# of Points	240
Start Time(min)	0.015
End Time(min)	3.999
Intensity Units	
Intensity Multiplier	1
R.Time (min)	Intensity
0.01533	99.99
0.03200	99.99
0.04867	99.99
0.06533	99.99
0.08200	99.99
0.09867	99.99
0.11533	99.99
0.13200	99.99
0.14867	99.99
0.16533	99.98
0.18200	99.99
0.19867	99.99
0.21533	99.99
0.23200	99.99
0.24867	99.99
0.26533	99.99
0.28200	99.99
0.29867	99.99
0.31533	100.00
0.33200	99.99
0.34867	99.99
0.36533	99.99
0.38200	99.99
0.39867	100.00
0.41533	99.99
0.43200	99.99
0.44867	99.99
0.46533	99.98
0.48200	99.99
0.49867	100.00
0.51533	99.99
0.53200	99.99
0.54867	100.00
0.56533	99.99
0.58200	99.99
0.59867	99.99
0.61533	100.00
0.63200	99.99
0.64867	99.99
0.66533	99.99
0.68200	99.99
0.69867	99.99
0.71533	100.00
0.73200	99.99
0.74867	99.99
0.76533	99.99
0.78200	100.00
0.79867	100.00
0.81533	100.00
0.83200	99.99
0.84867	99.99
0.86533	100.00
0.88200	100.00
0.89867	99.99
0.91533	99.99
0.93200	100.00
0.94867	99.99
0.96533	100.00
0.98200	100.00
0.99867	99.99
1.01533	99.99
1.03200	99.99
1.04867	99.99
1.06533	99.99
1.08200	99.99
1.09867	100.00
1.11533	99.99
1.13200	99.99
1.14867	99.99
1.16533	99.99
1.18200	99.99
1.19867	99.99
1.21533	100.00
1.23200	99.99
1.24867	99.99
1.26533	99.99
1.28200	99.99
1.29867	99.99
1.31533	99.99
1.33200	99.99
1.34867	99.99
1.36533	100.00
1.38200	99.99
1.39867	100.00
1.41533	100.00
1.43200	100.00
1.44867	100.00
1.46533	100.00
1.48200	99.99
1.49867	100.00
1.51533	100.00
1.53200	100.00
1.54867	100.00
1.56533	99.99
1.58200	99.99
1.59867	99.99
1.61533	100.00
1.63200	100.00
1.64867	99.99
1.66533	100.00
1.68200	100.00
1.69867	99.99
1.71533	100.00
1.73200	99.99
1.74867	99.99
1.76533	100.00
1.78200	99.99
1.79867	99.99
1.81533	100.00
1.83200	99.99
1.84867	99.99
1.86533	99.99
1.88200	99.99
1.89867	99.99
1.91533	99.99
1.93200	99.99
1.94867	99.99
1.96533	99.99
1.98200	99.99
1.99867	99.99
2.01533	99.99
2.03200	99.99
2.04867	99.99
2.06533	99.98
2.08200	99.98
2.09867	99.98
2.11533	99.98
2.13200	99.98
2.14867	99.98
2.16533	99.98
2.18200	99.98
2.19867	99.97
2.21533	99.98
2.23200	99.98
2.24867	99.97
2.26533	99.98
2.28200	99.98
2.29867	99.98
2.31533	99.98
2.33200	99.97
2.34867	99.97
2.36533	99.98
2.38200	99.97
2.39867	99.97
2.41533	99.98
2.43200	99.98
2.44867	99.97
2.46533	99.98
2.48200	99.97
2.49867	99.98
2.51533	99.98
2.53200	99.98
2.54867	99.98
2.56533	99.98
2.58200	99.98
2.59867	99.98
2.61533	99.98
2.63200	99.98
2.64867	99.98
2.66533	99.98
2.68200	99.99
2.69867	99.98
2.71533	99.98
2.73200	99.98
2.74867	99.99
2.76533	99.98
2.78200	99.99
2.79867	99.99
2.81533	99.99
2.83200	99.99
2.84867	100.00
2.86533	99.99
2.88200	100.00
2.89867	100.00
2.91533	100.01
2.93200	100.00
2.94867	100.00
2.96533	100.01
2.98200	100.01
2.99867	100.01
3.01533	100.01
3.03200	100.01
3.04867	100.02
3.06533	100.02
3.08200	100.02
3.09867	100.02
3.11533	100.02
3.13200	100.02
3.14867	100.02
3.16533	100.02
3.18200	100.03
3.19867	100.03
3.21533	100.03
3.23200	100.03
3.24867	100.03
3.26533	100.03
3.28200	100.03
3.29867	100.04
3.31533	100.04
3.33200	100.04
3.34867	100.04
3.36533	100.04
3.38200	100.04
3.39867	100.04
3.41533	100.04
3.43200	100.04
3.44867	100.04
3.46533	100.05
3.48200	100.05
3.49867	100.04
3.51533	100.05
3.53200	100.05
3.54867	100.05
3.56533	100.04
3.58200	100.05
3.59867	100.05
3.61533	100.05
3.63200	100.05
3.64867	100.05
3.66533	100.06
3.68200	100.05
3.69867	100.05
3.71533	100.05
3.73200	100.05
3.74867	100.06
3.76533	100.05
3.78200	100.06
3.79867	100.05
3.81533	100.06
3.83200	100.05
3.84867	100.05
3.86533	100.06
3.88200	100.06
3.89867	100.05
3.91533	100.05
3.93200	100.06
3.94867	100.06
3.96533	100.06
3.98200	100.06
3.99867	100.06

[Status Trace (Carrier Gas Pressure)]
Interval(msec)	1000
# of Points	240
Start Time(min)	0.015
End Time(min)	3.999
Intensity Units	
Intensity Multiplier	1
R.Time (min)	Intensity
0.01533	57.24
0.03200	55.67
0.04867	58.08
0.06533	59.85
0.08200	58.66
0.09867	57.98
0.11533	58.00
0.13200	58.01
0.14867	58.01
0.16533	58.00
0.18200	58.00
0.19867	58.00
0.21533	58.00
0.23200	58.00
0.24867	58.00
0.26533	58.00
0.28200	58.00
0.29867	58.00
0.31533	58.00
0.33200	58.00
0.34867	58.00
0.36533	58.00
0.38200	58.00
0.39867	58.00
0.41533	58.00
0.43200	58.00
0.44867	58.00
0.46533	58.00
0.48200	58.00
0.49867	58.00
0.51533	58.00
0.53200	58.00
0.54867	58.00
0.56533	58.00
0.58200	58.00
0.59867	58.00
0.61533	58.00
0.63200	58.00
0.64867	58.00
0.66533	58.00
0.68200	58.00
0.69867	58.00
0.71533	58.00
0.73200	58.00
0.74867	58.00
0.76533	58.00
0.78200	58.00
0.79867	58.00
0.81533	58.00
0.83200	58.00
0.84867	58.00
0.86533	58.00
0.88200	58.00
0.89867	58.00
0.91533	58.00
0.93200	58.00
0.94867	58.00
0.96533	58.00
0.98200	58.00
0.99867	58.00
1.01533	58.00
1.03200	58.00
1.04867	58.00
1.06533	58.00
1.08200	58.00
1.09867	58.00
1.11533	58.00
1.13200	58.00
1.14867	58.00
1.16533	58.00
1.18200	58.00
1.19867	58.00
1.21533	58.00
1.23200	58.00
1.24867	58.00
1.26533	58.00
1.28200	58.00
1.29867	58.00
1.31533	58.00
1.33200	58.00
1.34867	58.00
1.36533	58.00
1.38200	58.00
1.39867	58.00
1.41533	58.00
1.43200	58.00
1.44867	58.00
1.46533	58.00
1.48200	58.00
1.49867	58.00
1.51533	58.00
1.53200	58.00
1.54867	58.00
1.56533	58.00
1.58200	58.00
1.59867	58.00
1.61533	58.00
1.63200	58.00
1.64867	58.00
1.66533	58.00
1.68200	58.01
1.69867	58.00
1.71533	58.00
1.73200	58.00
1.74867	58.00
1.76533	58.00
1.78200	58.00
1.79867	58.00
1.81533	58.00
1.83200	58.00
1.84867	58.00
1.86533	58.00
1.88200	58.00
1.89867	58.00
1.91533	58.00
1.93200	58.00
1.94867	58.00
1.96533	58.00
1.98200	58.00
1.99867	58.00
2.01533	58.00
2.03200	58.00
2.04867	58.00
2.06533	58.00
2.08200	58.00
2.09867	58.00
2.11533	58.00
2.13200	58.00
2.14867	58.00
2.16533	58.00
2.18200	58.00
2.19867	58.00
2.21533	58.00
2.23200	58.00
2.24867	58.00
2.26533	58.00
2.28200	58.00
2.29867	58.00
2.31533	58.00
2.33200	58.00
2.34867	58.00
2.36533	58.00
2.38200	57.99
2.39867	57.99
2.41533	58.00
2.43200	58.00
2.44867	58.00
2.46533	58.00
2.48200	58.00
2.49867	58.00
2.51533	57.99
2.53200	57.99
2.54867	58.00
2.56533	58.00
2.58200	58.00
2.59867	58.00
2.61533	58.00
2.63200	58.00
2.64867	58.00
2.66533	58.00
2.68200	58.00
2.69867	58.00
2.71533	58.00
2.73200	58.00
2.74867	58.00
2.76533	58.00
2.78200	58.00
2.79867	58.00
2.81533	58.00
2.83200	58.00
2.84867	58.00
2.86533	58.00
2.88200	58.00
2.89867	58.00
2.91533	58.00
2.93200	58.00
2.94867	58.00
2.96533	58.00
2.98200	58.00
2.99867	58.00
3.01533	58.00
3.03200	58.00
3.04867	58.00
3.06533	58.00
3.08200	58.00
3.09867	58.00
3.11533	58.00
3.13200	58.00
3.14867	58.00
3.16533	58.00
3.18200	58.00
3.19867	58.00
3.21533	58.00
3.23200	58.00
3.24867	58.00
3.26533	58.00
3.28200	58.00
3.29867	58.00
3.31533	58.00
3.33200	58.00
3.34867	58.00
3.36533	58.00
3.38200	58.00
3.39867	58.00
3.41533	58.00
3.43200	58.00
3.44867	58.00
3.46533	58.00
3.48200	58.00
3.49867	58.00
3.51533	58.00
3.53200	58.00
3.54867	58.00
3.56533	58.00
3.58200	58.00
3.59867	58.00
3.61533	58.00
3.63200	58.00
3.64867	58.00
3.66533	58.00
3.68200	58.00
3.69867	58.00
3.71533	58.00
3.73200	58.00
3.74867	58.00
3.76533	58.00
3.78200	58.00
3.79867	58.00
3.81533	58.00
3.83200	58.00
3.84867	58.00
3.86533	58.00
3.88200	58.00
3.89867	58.00
3.91533	58.00
3.93200	58.00
3.94867	58.00
3.96533	58.00
3.98200	58.00
3.99867	58.00

[Status Trace (Carrier Gas Flow)]
Interval(msec)	1000
# of Points	240
Start Time(min)	0.015
End Time(min)	3.999
Intensity Units	
Intensity Multiplier	1
R.Time (min)	Intensity
0.01533	34.03
0.03200	34.53
0.04867	34.55
0.06533	34.52
0.08200	34.50
0.09867	34.52
0.11533	34.52
0.13200	34.52
0.14867	34.52
0.16533	34.52
0.18200	34.52
0.19867	34.52
0.21533	34.52
0.23200	34.52
0.24867	34.52
0.26533	34.52
0.28200	34.52
0.29867	34.52
0.31533	34.52
0.33200	34.52
0.34867	34.52
0.36533	34.52
0.38200	34.52
0.39867	34.52
0.41533	34.52
0.43200	34.52
0.44867	34.52
0.46533	34.52
0.48200	34.52
0.49867	34.52
0.51533	34.52
0.53200	34.52
0.54867	34.52
0.56533	34.52
0.58200	34.52
0.59867	34.52
0.61533	34.52
0.63200	34.52
0.64867	34.52
0.66533	34.52
0.68200	34.52
0.69867	34.52
0.71533	34.52
0.73200	34.52
0.74867	34.52
0.76533	34.52
0.78200	34.52
0.79867	34.52
0.81533	34.52
0.83200	34.52
0.84867	34.52
0.86533	34.52
0.88200	34.52
0.89867	34.52
0.91533	34.52
0.93200	34.52
0.94867	34.52
0.96533	34.52
0.98200	34.52
0.99867	34.52
1.01533	34.52
1.03200	34.52
1.04867	34.52
1.06533	34.52
1.08200	34.52
1.09867	34.52
1.11533	34.52
1.13200	34.52
1.14867	34.52
1.16533	34.53
1.18200	34.51
1.19867	34.51
1.21533	34.51
1.23200	34.51
1.24867	34.51
1.26533	34.52
1.28200	34.51
1.29867	34.52
1.31533	34.53
1.33200	34.52
1.34867	34.53
1.36533	34.51
1.38200	34.51
1.39867	34.52
1.41533	34.52
1.43200	34.53
1.44867	34.51
1.46533	34.52
1.48200	34.51
1.49867	34.52
1.51533	34.52
1.53200	34.52
1.54867	34.52
1.56533	34.51
1.58200	34.52
1.59867	34.52
1.61533	34.52
1.63200	34.51
1.64867	34.51
1.66533	34.52
1.68200	34.52
1.69867	34.52
1.71533	34.52
1.73200	34.52
1.74867	34.52
1.76533	34.52
1.78200	34.52
1.79867	34.52
1.81533	34.52
1.83200	34.52
1.84867	34.52
1.86533	34.52
1.88200	34.52
1.89867	34.52
1.91533	34.52
1.93200	34.52
1.94867	34.52
1.96533	34.52
1.98200	34.52
1.99867	34.52
2.01533	34.52
2.03200	34.52
2.04867	34.52
2.06533	34.52
2.08200	34.52
2.09867	34.52
2.11533	34.52
2.13200	34.52
2.14867	34.52
2.16533	34.52
2.18200	34.52
2.19867	34.52
2.21533	34.52
2.23200	34.52
2.24867	34.52
2.26533	34.52
2.28200	34.52
2.29867	34.52
2.31533	34.52
2.33200	34.52
2.34867	34.52
2.36533	34.52
2.38200	34.52
2.39867	34.52
2.41533	34.52
2.43200	34.52
2.44867	34.52
2.46533	34.52
2.48200	34.52
2.49867	34.52
2.51533	34.51
2.53200	34.52
2.54867	34.51
2.56533	34.54
2.58200	34.52
2.59867	34.51
2.61533	34.51
2.63200	34.52
2.64867	34.53
2.66533	34.51
2.68200	34.52
2.69867	34.51
2.71533	34.52
2.73200	34.52
2.74867	34.51
2.76533	34.52
2.78200	34.52
2.79867	34.51
2.81533	34.51
2.83200	34.52
2.84867	34.51
2.86533	34.51
2.88200	34.52
2.89867	34.52
2.91533	34.52
2.93200	34.52
2.94867	34.52
2.96533	34.51
2.98200	34.52
2.99867	34.52
3.01533	34.50
3.03200	34.52
3.04867	34.51
3.06533	34.52
3.08200	34.51
3.09867	34.52
3.11533	34.54
3.13200	34.52
3.14867	34.52
3.16533	34.52
3.18200	34.53
3.19867	34.52
3.21533	34.52
3.23200	34.52
3.24867	34.52
3.26533	34.52
3.28200	34.52
3.29867	34.52
3.31533	34.52
3.33200	34.52
3.34867	34.52
3.36533	34.52
3.38200	34.52
3.39867	34.52
3.41533	34.52
3.43200	34.52
3.44867	34.52
3.46533	34.52
3.48200	34.52
3.49867	34.52
3.51533	34.52
3.53200	34.52
3.54867	34.52
3.56533	34.52
3.58200	34.52
3.59867	34.52
3.61533	34.52
3.63200	34.52
3.64867	34.52
3.66533	34.52
3.68200	34.52
3.69867	34.52
3.71533	34.52
3.73200	34.52
3.74867	34.52
3.76533	34.52
3.78200	34.52
3.79867	34.52
3.81533	34.52
3.83200	34.52
3.84867	34.52
3.86533	34.52
3.88200	34.52
3.89867	34.52
3.91533	34.52
3.93200	34.52
3.94867	34.52
3.96533	34.52
3.98200	34.52
3.99867	34.51

[Status Trace (Column Flow)]
Interval(msec)	1000
# of Points	240
Start Time(min)	0.015
End Time(min)	3.999
Intensity Units	
Intensity Multiplier	1
R.Time (min)	Intensity
0.01533	5.43
0.03200	5.25
0.04867	5.52
0.06533	5.73
0.08200	5.59
0.09867	5.51
0.11533	5.52
0.13200	5.52
0.14867	5.52
0.16533	5.52
0.18200	5.52
0.19867	5.52
0.21533	5.51
0.23200	5.51
0.24867	5.51
0.26533	5.51
0.28200	5.51
0.29867	5.51
0.31533	5.51
0.33200	5.51
0.34867	5.51
0.36533	5.51
0.38200	5.51
0.39867	5.51
0.41533	5.51
0.43200	5.51
0.44867	5.51
0.46533	5.51
0.48200	5.51
0.49867	5.51
0.51533	5.51
0.53200	5.51
0.54867	5.51
0.56533	5.51
0.58200	5.51
0.59867	5.51
0.61533	5.51
0.63200	5.51
0.64867	5.51
0.66533	5.51
0.68200	5.51
0.69867	5.51
0.71533	5.51
0.73200	5.52
0.74867	5.52
0.76533	5.52
0.78200	5.52
0.79867	5.52
0.81533	5.52
0.83200	5.51
0.84867	5.52
0.86533	5.52
0.88200	5.51
0.89867	5.51
0.91533	5.52
0.93200	5.52
0.94867	5.52
0.96533	5.52
0.98200	5.52
0.99867	5.52
1.01533	5.52
1.03200	5.52
1.04867	5.52
1.06533	5.52
1.08200	5.52
1.09867	5.52
1.11533	5.52
1.13200	5.51
1.14867	5.51
1.16533	5.51
1.18200	5.51
1.19867	5.52
1.21533	5.52
1.23200	5.52
1.24867	5.51
1.26533	5.51
1.28200	5.51
1.29867	5.51
1.31533	5.51
1.33200	5.51
1.34867	5.51
1.36533	5.51
1.38200	5.51
1.39867	5.51
1.41533	5.51
1.43200	5.51
1.44867	5.51
1.46533	5.51
1.48200	5.51
1.49867	5.51
1.51533	5.51
1.53200	5.51
1.54867	5.51
1.56533	5.51
1.58200	5.51
1.59867	5.51
1.61533	5.51
1.63200	5.51
1.64867	5.50
1.66533	5.49
1.68200	5.48
1.69867	5.47
1.71533	5.46
1.73200	5.45
1.74867	5.44
1.76533	5.43
1.78200	5.42
1.79867	5.41
1.81533	5.40
1.83200	5.39
1.84867	5.38
1.86533	5.37
1.88200	5.36
1.89867	5.35
1.91533	5.34
1.93200	5.33
1.94867	5.32
1.96533	5.31
1.98200	5.30
1.99867	5.29
2.01533	5.28
2.03200	5.27
2.04867	5.26
2.06533	5.25
2.08200	5.24
2.09867	5.23
2.11533	5.22
2.13200	5.21
2.14867	5.20
2.16533	5.19
2.18200	5.18
2.19867	5.17
2.21533	5.17
2.23200	5.16
2.24867	5.15
2.26533	5.14
2.28200	5.13
2.29867	5.12
2.31533	5.11
2.33200	5.10
2.34867	5.09
2.36533	5.09
2.38200	5.08
2.39867	5.08
2.41533	5.08
2.43200	5.08
2.44867	5.08
2.46533	5.08
2.48200	5.08
2.49867	5.08
2.51533	5.08
2.53200	5.08
2.54867	5.08
2.56533	5.08
2.58200	5.08
2.59867	5.08
2.61533	5.08
2.63200	5.08
2.64867	5.08
2.66533	5.08
2.68200	5.08
2.69867	5.08
2.71533	5.08
2.73200	5.08
2.74867	5.08
2.76533	5.07
2.78200	5.07
2.79867	5.07
2.81533	5.08
2.83200	5.07
2.84867	5.07
2.86533	5.07
2.88200	5.07
2.89867	5.07
2.91533	5.07
2.93200	5.07
2.94867	5.07
2.96533	5.07
2.98200	5.07
2.99867	5.07
3.01533	5.07
3.03200	5.07
3.04867	5.07
3.06533	5.07
3.08200	5.07
3.09867	5.07
3.11533	5.07
3.13200	5.07
3.14867	5.07
3.16533	5.07
3.18200	5.07
3.19867	5.07
3.21533	5.07
3.23200	5.07
3.24867	5.07
3.26533	5.07
3.28200	5.07
3.29867	5.07
3.31533	5.07
3.33200	5.07
3.34867	5.07
3.36533	5.07
3.38200	5.07
3.39867	5.07
3.41533	5.07
3.43200	5.07
3.44867	5.07
3.46533	5.07
3.48200	5.07
3.49867	5.07
3.51533	5.07
3.53200	5.07
3.54867	5.07
3.56533	5.07
3.58200	5.07
3.59867	5.07
3.61533	5.07
3.63200	5.07
3.64867	5.07
3.66533	5.07
3.68200	5.07
3.69867	5.07
3.71533	5.07
3.73200	5.07
3.74867	5.07
3.76533	5.07
3.78200	5.07
3.79867	5.07
3.81533	5.07
3.83200	5.07
3.84867	5.07
3.86533	5.07
3.88200	5.07
3.89867	5.07
3.91533	5.07
3.93200	5.07
3.94867	5.07
3.96533	5.07
3.98200	5.07
3.99867	5.07

[Status Trace (Linear Velocity)]
Interval(msec)	1000
# of Points	240
Start Time(min)	0.015
End Time(min)	3.999
Intensity Units	
Intensity Multiplier	1
R.Time (min)	Intensity
0.01533	38.52
0.03200	37.49
0.04867	39.07
0.06533	40.23
0.08200	39.45
0.09867	39.00
0.11533	39.02
0.13200	39.02
0.14867	39.02
0.16533	39.02
0.18200	39.02
0.19867	39.02
0.21533	39.02
0.23200	39.02
0.24867	39.02
0.26533	39.02
0.28200	39.02
0.29867	39.02
0.31533	39.02
0.33200	39.02
0.34867	39.01
0.36533	39.01
0.38200	39.01
0.39867	39.02
0.41533	39.02
0.43200	39.02
0.44867	39.01
0.46533	39.01
0.48200	39.02
0.49867	39.02
0.51533	39.02
0.53200	39.02
0.54867	39.02
0.56533	39.02
0.58200	39.01
0.59867	39.01
0.61533	39.01
0.63200	39.01
0.64867	39.01
0.66533	39.02
0.68200	39.01
0.69867	39.02
0.71533	39.02
0.73200	39.02
0.74867	39.02
0.76533	39.02
0.78200	39.02
0.79867	39.02
0.81533	39.02
0.83200	39.02
0.84867	39.02
0.86533	39.02
0.88200	39.02
0.89867	39.02
0.91533	39.02
0.93200	39.02
0.94867	39.02
0.96533	39.02
0.98200	39.02
0.99867	39.02
1.01533	39.02
1.03200	39.02
1.04867	39.02
1.06533	39.02
1.08200	39.02
1.09867	39.02
1.11533	39.02
1.13200	39.02
1.14867	39.02
1.16533	39.02
1.18200	39.02
1.19867	39.02
1.21533	39.02
1.23200	39.02
1.24867	39.02
1.26533	39.02
1.28200	39.02
1.29867	39.02
1.31533	39.01
1.33200	39.01
1.34867	39.02
1.36533	39.01
1.38200	39.01
1.39867	39.02
1.41533	39.01
1.43200	39.02
1.44867	39.02
1.46533	39.02
1.48200	39.02
1.49867	39.02
1.51533	39.01
1.53200	39.02
1.54867	39.01
1.56533	39.01
1.58200	39.02
1.59867	39.01
1.61533	39.01
1.63200	38.99
1.64867	38.97
1.66533	38.95
1.68200	38.91
1.69867	38.88
1.71533	38.84
1.73200	38.81
1.74867	38.78
1.76533	38.74
1.78200	38.72
1.79867	38.69
1.81533	38.65
1.83200	38.62
1.84867	38.59
1.86533	38.56
1.88200	38.53
1.89867	38.50
1.91533	38.47
1.93200	38.44
1.94867	38.41
1.96533	38.37
1.98200	38.35
1.99867	38.32
2.01533	38.28
2.03200	38.25
2.04867	38.22
2.06533	38.19
2.08200	38.16
2.09867	38.14
2.11533	38.11
2.13200	38.08
2.14867	38.05
2.16533	38.02
2.18200	37.99
2.19867	37.96
2.21533	37.93
2.23200	37.90
2.24867	37.87
2.26533	37.84
2.28200	37.81
2.29867	37.78
2.31533	37.75
2.33200	37.72
2.34867	37.69
2.36533	37.67
2.38200	37.66
2.39867	37.66
2.41533	37.66
2.43200	37.66
2.44867	37.66
2.46533	37.66
2.48200	37.66
2.49867	37.66
2.51533	37.65
2.53200	37.65
2.54867	37.66
2.56533	37.65
2.58200	37.65
2.59867	37.65
2.61533	37.65
2.63200	37.65
2.64867	37.65
2.66533	37.65
2.68200	37.65
2.69867	37.64
2.71533	37.64
2.73200	37.64
2.74867	37.64
2.76533	37.64
2.78200	37.64
2.79867	37.64
2.81533	37.64
2.83200	37.64
2.84867	37.64
2.86533	37.64
2.88200	37.64
2.89867	37.64
2.91533	37.64
2.93200	37.64
2.94867	37.64
2.96533	37.64
2.98200	37.64
2.99867	37.64
3.01533	37.64
3.03200	37.63
3.04867	37.63
3.06533	37.63
3.08200	37.63
3.09867	37.63
3.11533	37.63
3.13200	37.63
3.14867	37.63
3.16533	37.63
3.18200	37.63
3.19867	37.63
3.21533	37.63
3.23200	37.62
3.24867	37.62
3.26533	37.62
3.28200	37.62
3.29867	37.62
3.31533	37.62
3.33200	37.62
3.34867	37.62
3.36533	37.62
3.38200	37.62
3.39867	37.62
3.41533	37.62
3.43200	37.62
3.44867	37.62
3.46533	37.62
3.48200	37.62
3.49867	37.62
3.51533	37.62
3.53200	37.62
3.54867	37.63
3.56533	37.62
3.58200	37.63
3.59867	37.62
3.61533	37.63
3.63200	37.62
3.64867	37.63
3.66533	37.63
3.68200	37.63
3.69867	37.63
3.71533	37.63
3.73200	37.63
3.74867	37.63
3.76533	37.63
3.78200	37.63
3.79867	37.62
3.81533	37.62
3.83200	37.63
3.84867	37.63
3.86533	37.63
3.88200	37.63
3.89867	37.63
3.91533	37.63
3.93200	37.63
3.94867	37.63
3.96533	37.63
3.98200	37.63
3.99867	37.63

