[Header]
Application Name	LabSolutions
Version	5.110
Data File Name	C:\Users\User\Desktop\GC Analyses\Jack\UIC Prairie Sampling\9.16.22\220916_084.gcd
Output Date	11/29/2022
Output Time	11:10:20 AM

[File Information]
Type	Data File
Generated	11/16/2022 12:53:01 PM
Generated by	System Administrator
Modified	11/16/2022 12:57:34 PM
Modified by	System Administrator

[Sample Information]
Operator Name	System Administrator
Acquired	11/16/2022 12:53:33 PM
Sample Type	1:Standard
Level	1
Sample Name	220916_UICPrairie
Sample ID	220916_UICPrairie
ISTD Amount1	1
ISTD Amount2	1
ISTD Amount3	1
ISTD Amount4	1
ISTD Amount5	1
ISTD Amount6	1
ISTD Amount7	1
ISTD Amount8	1
ISTD Amount9	1
ISTD Amount10	1
ISTD Amount11	1
ISTD Amount12	1
ISTD Amount13	1
ISTD Amount14	1
ISTD Amount15	1
ISTD Amount16	1
ISTD Amount17	1
ISTD Amount18	1
ISTD Amount19	1
ISTD Amount20	1
ISTD Amount21	1
ISTD Amount22	1
ISTD Amount23	1
ISTD Amount24	1
ISTD Amount25	1
ISTD Amount26	1
ISTD Amount27	1
ISTD Amount28	1
ISTD Amount29	1
ISTD Amount30	1
ISTD Amount31	1
ISTD Amount32	1
Sample Amount	1
Dilution Factor	1
Vial#	1
Injection Volume	1
Injection Count	1
Bar Code	

[Original Files]
Data File	C:\Users\User\Desktop\GC Analyses\Jack\UIC Prairie Sampling\9.16.22\220916_084.gcd
Method File	C:\LabSolutions\Data\GHG_4min_2022\ghg3_togas_w_acet_4 min_new_int.gcm
Batch File	
Report Format File	c:\LabSolutions\System\DEFAULT.lsr

[File Description]


[Configuration]
Instrument Name	C0B7VH3-Instrument1
Instrument #	1
Line #	1
# of Detectors	3
Detector ID	DET#1	DET#2	DET#3
Detector Name	FID	PTCD	ECD
# of Channels	1	1	1

[Peak Table(Ch1)]
# of Peaks	3
Peak#	R.Time	I.Time	F.Time	Area	Height	A/H	Conc.	Mark	ID#	Name	k'	Plate #	Plate Ht.	Tailing	Resolution	Sep.Factor	Area Ratio	Height Ratio	Conc. %	Norm Conc.
1	1.479	1.439	1.538	9942	4567	2.177	100.000	   	1	CO	0.000	8656	17.328	1.188	0.000	0.000	0	0	16.667	16.667
2	1.571	1.538	1.633	4632	2358	1.964	100.000	 V 	2	CH4	0.062	11585	12.948	1.136	1.503	0.000	0	0	16.667	16.667
3	2.000	1.945	2.363	1162755	572935	2.029	400.000	   	3	CO2	0.352	17748	8.452	1.243	7.245	5.680	0	0	66.667	66.667

[Peak Table(Ch2)]
# of Peaks	0

[Peak Table(Ch3)]
# of Peaks	5
Peak#	R.Time	I.Time	F.Time	Area	Height	A/H	Conc.	Mark	ID#	Name	k'	Plate #	Plate Ht.	Tailing	Resolution	Sep.Factor	Area Ratio	Height Ratio	Conc. %	Norm Conc.
1	2.469	2.315	2.502	1259	279	4.512	0.000	   			0.000	2879	52.110	0.000	0.000	0.000	0	0	0.000	0.000
2	2.524	2.502	2.557	770	252	3.054	0.000	 V 			0.022	722	207.885	0.000	0.196	0.000	0	0	0.000	0.000
3	2.605	2.557	2.656	1035	250	4.138	0.000	 V 			0.055	546	274.970	0.000	0.196	2.467	0	0	0.000	0.000
4	2.884	2.671	2.979	20326	5107	3.980	1.000	   	1	N2O	0.168	13147	11.410	0.000	1.019	3.054	0	0	50.000	50.000
5	3.232	2.979	3.995	29847	789	37.846	1.000	 V 	2	SF6	0.309	155	970.692	0.000	0.611	1.841	0	0	50.000	50.000

[Compound Results(Ch1)]
# of IDs	6
ID#	Name	R.Time	Area	Height	Conc.	Curve	3rd	2nd	1st	Constant	Area Ratio	Height Ratio	Conc. %	Norm Conc.
1	CO	1.479	9942	4567	100.000	Linear	0.000000e+00	0.000000e+00	9.942104e+001	0.000000e+00	0	0	16.667	16.667
2	CH4	1.571	4632	2358	100.000	Linear	0.000000e+00	0.000000e+00	4.631879e+001	0.000000e+00	0	0	16.667	16.667
3	CO2	2.000	1162755	572935	400.000	Linear	0.000000e+00	0.000000e+00	2.906888e+003	0.000000e+00	0	0	66.667	66.667
4	Ethylene	0.000	0	0	0.000	Linear	0.000000e+00	0.000000e+00	0.000000e+00	0.000000e+00	0	0	0.000	0.000
5	Acetylene	0.000	0	0	0.000	Linear	0.000000e+00	0.000000e+00	0.000000e+00	0.000000e+00	0	0	0.000	0.000
6	Ethane	0.000	0	0	0.000	Linear	0.000000e+00	0.000000e+00	0.000000e+00	0.000000e+00	0	0	0.000	0.000

[Compound Results(Ch2)]
# of IDs	5
ID#	Name	R.Time	Area	Height	Conc.	Curve	3rd	2nd	1st	Constant	Area Ratio	Height Ratio	Conc. %	Norm Conc.
1	Hydrogen	0.000	0	0	0.000	Linear	0.000000e+00	0.000000e+00	0.000000e+00	0.000000e+00	0	0	0.000	0.000
2	Oxygen	0.000	0	0	0.000	Linear	0.000000e+00	0.000000e+00	0.000000e+00	0.000000e+00	0	0	0.000	0.000
3	Nitrogen	0.000	0	0	0.000	Linear	0.000000e+00	0.000000e+00	0.000000e+00	0.000000e+00	0	0	0.000	0.000
4	Methane	0.000	0	0	0.000	Linear	0.000000e+00	0.000000e+00	0.000000e+00	0.000000e+00	0	0	0.000	0.000
5	Carbon Monoxide	0.000	0	0	0.000	Linear	0.000000e+00	0.000000e+00	0.000000e+00	0.000000e+00	0	0	0.000	0.000

[Compound Results(Ch3)]
# of IDs	2
ID#	Name	R.Time	Area	Height	Conc.	Curve	3rd	2nd	1st	Constant	Area Ratio	Height Ratio	Conc. %	Norm Conc.
1	N2O	2.884	20326	5107	1.000	Linear	0.000000e+00	0.000000e+00	2.032642e+004	0.000000e+00	0	0	50.000	50.000
2	SF6	3.232	29847	789	1.000	Linear	0.000000e+00	0.000000e+00	2.984675e+004	0.000000e+00	0	0	50.000	50.000

[Group Results(Ch1)]
# of Groups	0

[Group Results(Ch2)]
# of Groups	0

[Group Results(Ch3)]
# of Groups	0

[Chromatogram (Ch1)]
Interval(msec)	220
# of Points	1091
Start Time(min)	0.002
End Time(min)	3.998
R.Time (min)	Intensity
0.00167	-23
0.00533	-21
0.00900	-23
0.01267	-26
0.01633	-28
0.02000	-26
0.02367	-27
0.02733	-32
0.03100	-37
0.03467	-42
0.03833	-49
0.04200	-62
0.04567	-74
0.04933	-80
0.05300	-81
0.05667	-82
0.06033	-87
0.06400	-91
0.06767	-93
0.07133	-95
0.07500	-98
0.07867	-101
0.08233	-104
0.08600	-105
0.08967	-105
0.09333	-104
0.09700	-102
0.10067	-98
0.10433	-96
0.10800	-95
0.11167	-99
0.11533	-107
0.11900	-112
0.12267	-111
0.12633	-109
0.13000	-107
0.13367	-105
0.13733	-101
0.14100	-96
0.14467	-95
0.14833	-98
0.15200	-107
0.15567	-111
0.15933	-116
0.16300	-119
0.16667	-121
0.17033	-124
0.17400	-126
0.17767	-126
0.18133	-127
0.18500	-128
0.18867	-131
0.19233	-134
0.19600	-134
0.19967	-133
0.20333	-132
0.20700	-130
0.21067	-126
0.21433	-123
0.21800	-121
0.22167	-120
0.22533	-121
0.22900	-118
0.23267	-114
0.23633	-113
0.24000	-115
0.24367	-119
0.24733	-122
0.25100	-121
0.25467	-120
0.25833	-118
0.26200	-115
0.26567	-112
0.26933	-107
0.27300	-104
0.27667	-101
0.28033	-97
0.28400	-96
0.28767	-98
0.29133	-106
0.29500	-119
0.29867	-132
0.30233	-142
0.30600	-147
0.30967	-148
0.31333	-148
0.31700	-151
0.32067	-152
0.32433	-149
0.32800	-143
0.33167	-137
0.33533	-131
0.33900	-124
0.34267	-122
0.34633	-122
0.35000	-122
0.35367	-122
0.35733	-125
0.36100	-128
0.36467	-131
0.36833	-133
0.37200	-134
0.37567	-137
0.37933	-141
0.38300	-140
0.38667	-135
0.39033	-129
0.39400	-124
0.39767	-124
0.40133	-125
0.40500	-126
0.40867	-126
0.41233	-124
0.41600	-122
0.41967	-121
0.42333	-124
0.42700	-132
0.43067	-140
0.43433	-147
0.43800	-150
0.44167	-151
0.44533	-149
0.44900	-148
0.45267	-148
0.45633	-149
0.46000	-152
0.46367	-154
0.46733	-155
0.47100	-155
0.47467	-157
0.47833	-158
0.48200	-156
0.48567	-151
0.48933	-146
0.49300	-141
0.49667	-139
0.50033	-142
0.50400	-143
0.50767	-144
0.51133	-145
0.51500	-148
0.51867	-151
0.52233	-150
0.52600	-146
0.52967	-143
0.53333	-143
0.53700	-144
0.54067	-141
0.54433	-136
0.54800	-134
0.55167	-134
0.55533	-139
0.55900	-149
0.56267	-157
0.56633	-160
0.57000	-160
0.57367	-157
0.57733	-153
0.58100	-150
0.58467	-149
0.58833	-152
0.59200	-160
0.59567	-170
0.59933	-177
0.60300	-179
0.60667	-173
0.61033	-167
0.61400	-160
0.61767	-151
0.62133	-144
0.62500	-139
0.62867	-138
0.63233	-139
0.63600	-142
0.63967	-147
0.64333	-152
0.64700	-155
0.65067	-156
0.65433	-156
0.65800	-158
0.66167	-160
0.66533	-155
0.66900	-151
0.67267	-146
0.67633	-141
0.68000	-140
0.68367	-143
0.68733	-148
0.69100	-156
0.69467	-159
0.69833	-160
0.70200	-158
0.70567	-157
0.70933	-160
0.71300	-165
0.71667	-169
0.72033	-169
0.72400	-165
0.72767	-160
0.73133	-159
0.73500	-159
0.73867	-158
0.74233	-156
0.74600	-158
0.74967	-163
0.75333	-164
0.75700	-161
0.76067	-158
0.76433	-155
0.76800	-154
0.77167	-156
0.77533	-159
0.77900	-161
0.78267	-163
0.78633	-164
0.79000	-164
0.79367	-166
0.79733	-172
0.80100	-175
0.80467	-177
0.80833	-178
0.81200	-177
0.81567	-175
0.81933	-170
0.82300	-162
0.82667	-154
0.83033	-149
0.83400	-147
0.83767	-151
0.84133	-162
0.84500	-172
0.84867	-179
0.85233	-185
0.85600	-185
0.85967	-182
0.86333	-182
0.86700	-186
0.87067	-191
0.87433	-188
0.87800	-180
0.88167	-171
0.88533	-163
0.88900	-160
0.89267	-162
0.89633	-167
0.90000	-173
0.90367	-178
0.90733	-181
0.91100	-184
0.91467	-186
0.91833	-183
0.92200	-179
0.92567	-176
0.92933	-175
0.93300	-175
0.93667	-176
0.94033	-175
0.94400	-175
0.94767	-173
0.95133	-168
0.95500	-165
0.95867	-166
0.96233	-172
0.96600	-180
0.96967	-188
0.97333	-193
0.97700	-198
0.98067	-203
0.98433	-207
0.98800	-208
0.99167	-203
0.99533	-193
0.99900	-180
1.00267	-169
1.00633	-164
1.01000	-168
1.01367	-174
1.01733	-178
1.02100	-182
1.02467	-182
1.02833	-181
1.03200	-181
1.03567	-180
1.03933	-186
1.04300	-193
1.04667	-198
1.05033	-199
1.05400	-196
1.05767	-193
1.06133	-192
1.06500	-191
1.06867	-188
1.07233	-187
1.07600	-186
1.07967	-189
1.08333	-193
1.08700	-196
1.09067	-197
1.09433	-196
1.09800	-192
1.10167	-190
1.10533	-188
1.10900	-189
1.11267	-187
1.11633	-190
1.12000	-194
1.12367	-198
1.12733	-203
1.13100	-209
1.13467	-210
1.13833	-207
1.14200	-202
1.14567	-198
1.14933	-192
1.15300	-184
1.15667	-175
1.16033	-172
1.16400	-172
1.16767	-174
1.17133	-177
1.17500	-180
1.17867	-183
1.18233	-189
1.18600	-196
1.18967	-200
1.19333	-200
1.19700	-198
1.20067	-198
1.20433	-200
1.20800	-201
1.21167	-202
1.21533	-200
1.21900	-197
1.22267	-196
1.22633	-199
1.23000	-202
1.23367	-205
1.23733	-203
1.24100	-193
1.24467	-184
1.24833	-180
1.25200	-180
1.25567	-182
1.25933	-186
1.26300	-189
1.26667	-190
1.27033	-191
1.27400	-191
1.27767	-193
1.28133	-196
1.28500	-198
1.28867	-196
1.29233	-196
1.29600	-196
1.29967	-197
1.30333	-196
1.30700	-194
1.31067	-191
1.31433	-190
1.31800	-190
1.32167	-190
1.32533	-192
1.32900	-196
1.33267	-198
1.33633	-199
1.34000	-199
1.34367	-198
1.34733	-199
1.35100	-201
1.35467	-205
1.35833	-207
1.36200	-207
1.36567	-207
1.36933	-206
1.37300	-205
1.37667	-206
1.38033	-205
1.38400	-202
1.38767	-199
1.39133	-194
1.39500	-189
1.39867	-187
1.40233	-188
1.40600	-193
1.40967	-197
1.41333	-197
1.41700	-194
1.42067	-193
1.42433	-195
1.42800	-198
1.43167	-197
1.43533	-193
1.43900	-186
1.44267	-143
1.44633	-1
1.45000	258
1.45367	603
1.45733	1069
1.46100	1696
1.46467	2436
1.46833	3179
1.47200	3811
1.47567	4236
1.47933	4379
1.48300	4205
1.48667	3748
1.49033	3113
1.49400	2436
1.49767	1814
1.50133	1296
1.50500	892
1.50867	592
1.51233	376
1.51600	225
1.51967	121
1.52333	47
1.52700	-9
1.53067	-51
1.53433	-81
1.53800	-97
1.54167	-83
1.54533	13
1.54900	249
1.55267	629
1.55633	1079
1.56000	1510
1.56367	1858
1.56733	2087
1.57100	2166
1.57467	2063
1.57833	1791
1.58200	1416
1.58567	1028
1.58933	688
1.59300	423
1.59667	228
1.60033	90
1.60400	-8
1.60767	-74
1.61133	-119
1.61500	-148
1.61867	-165
1.62233	-176
1.62600	-183
1.62967	-190
1.63333	-196
1.63700	-200
1.64067	-200
1.64433	-200
1.64800	-199
1.65167	-194
1.65533	-191
1.65900	-190
1.66267	-189
1.66633	-187
1.67000	-187
1.67367	-189
1.67733	-193
1.68100	-197
1.68467	-201
1.68833	-206
1.69200	-211
1.69567	-212
1.69933	-211
1.70300	-211
1.70667	-212
1.71033	-213
1.71400	-215
1.71767	-221
1.72133	-224
1.72500	-223
1.72867	-221
1.73233	-220
1.73600	-219
1.73967	-219
1.74333	-217
1.74700	-213
1.75067	-207
1.75433	-202
1.75800	-198
1.76167	-194
1.76533	-193
1.76900	-194
1.77267	-200
1.77633	-206
1.78000	-213
1.78367	-218
1.78733	-222
1.79100	-224
1.79467	-224
1.79833	-224
1.80200	-225
1.80567	-224
1.80933	-225
1.81300	-224
1.81667	-223
1.82033	-225
1.82400	-228
1.82767	-227
1.83133	-225
1.83500	-217
1.83867	-210
1.84233	-205
1.84600	-206
1.84967	-209
1.85333	-215
1.85700	-219
1.86067	-225
1.86433	-229
1.86800	-231
1.87167	-231
1.87533	-226
1.87900	-221
1.88267	-219
1.88633	-221
1.89000	-223
1.89367	-220
1.89733	-215
1.90100	-211
1.90467	-209
1.90833	-210
1.91200	-211
1.91567	-212
1.91933	-211
1.92300	-210
1.92667	-207
1.93033	-205
1.93400	-207
1.93767	-213
1.94133	-215
1.94500	-210
1.94867	-204
1.95233	-197
1.95600	-173
1.95967	-31
1.96333	725
1.96700	3938
1.97067	14377
1.97433	40508
1.97800	91882
1.98167	172642
1.98533	275998
1.98900	385475
1.99267	481625
1.99633	547734
2.00000	572759
2.00367	553618
2.00733	496732
2.01100	416143
2.01467	328267
2.01833	246461
2.02200	178213
2.02567	125569
2.02933	87157
2.03300	60179
2.03667	41697
2.04033	29218
2.04400	20841
2.04767	15212
2.05133	11401
2.05500	8789
2.05867	6969
2.06233	5670
2.06600	4719
2.06967	4003
2.07333	3456
2.07700	3029
2.08067	2686
2.08433	2403
2.08800	2169
2.09167	1973
2.09533	1808
2.09900	1667
2.10267	1545
2.10633	1439
2.11000	1347
2.11367	1263
2.11733	1179
2.12100	1099
2.12467	1026
2.12833	962
2.13200	904
2.13567	852
2.13933	808
2.14300	768
2.14667	731
2.15033	697
2.15400	667
2.15767	641
2.16133	619
2.16500	598
2.16867	574
2.17233	549
2.17600	524
2.17967	499
2.18333	473
2.18700	447
2.19067	424
2.19433	404
2.19800	387
2.20167	372
2.20533	357
2.20900	343
2.21267	329
2.21633	317
2.22000	306
2.22367	294
2.22733	285
2.23100	278
2.23467	269
2.23833	253
2.24200	234
2.24567	219
2.24933	208
2.25300	201
2.25667	197
2.26033	197
2.26400	202
2.26767	204
2.27133	198
2.27500	185
2.27867	173
2.28233	160
2.28600	149
2.28967	138
2.29333	129
2.29700	125
2.30067	122
2.30433	117
2.30800	114
2.31167	112
2.31533	109
2.31900	105
2.32267	101
2.32633	99
2.33000	99
2.33367	102
2.33733	103
2.34100	99
2.34467	91
2.34833	84
2.35200	78
2.35567	70
2.35933	62
2.36300	56
2.36667	54
2.37033	58
2.37400	60
2.37767	58
2.38133	54
2.38500	53
2.38867	53
2.39233	57
2.39600	61
2.39967	60
2.40333	54
2.40700	49
2.41067	45
2.41433	41
2.41800	39
2.42167	40
2.42533	39
2.42900	36
2.43267	31
2.43633	28
2.44000	25
2.44367	22
2.44733	18
2.45100	14
2.45467	11
2.45833	8
2.46200	5
2.46567	2
2.46933	-3
2.47300	-7
2.47667	-6
2.48033	0
2.48400	7
2.48767	9
2.49133	7
2.49500	7
2.49867	8
2.50233	7
2.50600	4
2.50967	2
2.51333	-0
2.51700	-3
2.52067	-3
2.52433	1
2.52800	2
2.53167	-2
2.53533	-9
2.53900	-16
2.54267	-21
2.54633	-21
2.55000	-15
2.55367	-6
2.55733	-1
2.56100	0
2.56467	-2
2.56833	-7
2.57200	-17
2.57567	-32
2.57933	-48
2.58300	-61
2.58667	-69
2.59033	-71
2.59400	-70
2.59767	-66
2.60133	-59
2.60500	-49
2.60867	-39
2.61233	-31
2.61600	-27
2.61967	-26
2.62333	-28
2.62700	-35
2.63067	-42
2.63433	-49
2.63800	-54
2.64167	-55
2.64533	-52
2.64900	-49
2.65267	-49
2.65633	-50
2.66000	-51
2.66367	-52
2.66733	-50
2.67100	-43
2.67467	-38
2.67833	-38
2.68200	-40
2.68567	-41
2.68933	-44
2.69300	-47
2.69667	-49
2.70033	-49
2.70400	-49
2.70767	-47
2.71133	-44
2.71500	-42
2.71867	-43
2.72233	-48
2.72600	-53
2.72967	-58
2.73333	-62
2.73700	-64
2.74067	-65
2.74433	-65
2.74800	-61
2.75167	-58
2.75533	-55
2.75900	-49
2.76267	-44
2.76633	-44
2.77000	-47
2.77367	-53
2.77733	-59
2.78100	-62
2.78467	-61
2.78833	-59
2.79200	-57
2.79567	-54
2.79933	-49
2.80300	-44
2.80667	-41
2.81033	-40
2.81400	-38
2.81767	-39
2.82133	-43
2.82500	-45
2.82867	-43
2.83233	-42
2.83600	-41
2.83967	-41
2.84333	-42
2.84700	-47
2.85067	-53
2.85433	-59
2.85800	-64
2.86167	-65
2.86533	-60
2.86900	-52
2.87267	-49
2.87633	-51
2.88000	-53
2.88367	-53
2.88733	-54
2.89100	-59
2.89467	-65
2.89833	-73
2.90200	-81
2.90567	-86
2.90933	-84
2.91300	-79
2.91667	-75
2.92033	-70
2.92400	-62
2.92767	-55
2.93133	-47
2.93500	-41
2.93867	-38
2.94233	-38
2.94600	-43
2.94967	-52
2.95333	-59
2.95700	-65
2.96067	-72
2.96433	-76
2.96800	-76
2.97167	-72
2.97533	-67
2.97900	-61
2.98267	-53
2.98633	-46
2.99000	-42
2.99367	-42
2.99733	-42
3.00100	-44
3.00467	-48
3.00833	-51
3.01200	-51
3.01567	-51
3.01933	-51
3.02300	-50
3.02667	-46
3.03033	-44
3.03400	-45
3.03767	-51
3.04133	-61
3.04500	-68
3.04867	-70
3.05233	-69
3.05600	-63
3.05967	-54
3.06333	-48
3.06700	-48
3.07067	-52
3.07433	-57
3.07800	-62
3.08167	-63
3.08533	-62
3.08900	-60
3.09267	-61
3.09633	-63
3.10000	-63
3.10367	-62
3.10733	-60
3.11100	-59
3.11467	-62
3.11833	-69
3.12200	-77
3.12567	-86
3.12933	-93
3.13300	-93
3.13667	-89
3.14033	-85
3.14400	-82
3.14767	-80
3.15133	-77
3.15500	-70
3.15867	-62
3.16233	-59
3.16600	-58
3.16967	-61
3.17333	-62
3.17700	-59
3.18067	-59
3.18433	-56
3.18800	-50
3.19167	-44
3.19533	-41
3.19900	-41
3.20267	-45
3.20633	-51
3.21000	-57
3.21367	-61
3.21733	-62
3.22100	-60
3.22467	-54
3.22833	-47
3.23200	-42
3.23567	-38
3.23933	-39
3.24300	-45
3.24667	-53
3.25033	-61
3.25400	-69
3.25767	-73
3.26133	-75
3.26500	-77
3.26867	-78
3.27233	-78
3.27600	-76
3.27967	-73
3.28333	-68
3.28700	-63
3.29067	-60
3.29433	-59
3.29800	-61
3.30167	-64
3.30533	-67
3.30900	-68
3.31267	-72
3.31633	-77
3.32000	-80
3.32367	-79
3.32733	-75
3.33100	-73
3.33467	-74
3.33833	-74
3.34200	-71
3.34567	-65
3.34933	-58
3.35300	-53
3.35667	-50
3.36033	-50
3.36400	-48
3.36767	-45
3.37133	-44
3.37500	-50
3.37867	-59
3.38233	-66
3.38600	-69
3.38967	-69
3.39333	-73
3.39700	-78
3.40067	-82
3.40433	-85
3.40800	-85
3.41167	-83
3.41533	-79
3.41900	-72
3.42267	-63
3.42633	-57
3.43000	-55
3.43367	-55
3.43733	-55
3.44100	-55
3.44467	-55
3.44833	-56
3.45200	-57
3.45567	-63
3.45933	-71
3.46300	-79
3.46667	-86
3.47033	-91
3.47400	-94
3.47767	-93
3.48133	-92
3.48500	-93
3.48867	-88
3.49233	-80
3.49600	-70
3.49967	-65
3.50333	-64
3.50700	-66
3.51067	-71
3.51433	-75
3.51800	-78
3.52167	-81
3.52533	-84
3.52900	-81
3.53267	-76
3.53633	-74
3.54000	-77
3.54367	-81
3.54733	-83
3.55100	-81
3.55467	-76
3.55833	-72
3.56200	-70
3.56567	-70
3.56933	-71
3.57300	-75
3.57667	-79
3.58033	-84
3.58400	-90
3.58767	-97
3.59133	-99
3.59500	-96
3.59867	-89
3.60233	-84
3.60600	-80
3.60967	-76
3.61333	-74
3.61700	-71
3.62067	-69
3.62433	-68
3.62800	-67
3.63167	-67
3.63533	-66
3.63900	-66
3.64267	-66
3.64633	-66
3.65000	-66
3.65367	-67
3.65733	-68
3.66100	-67
3.66467	-63
3.66833	-60
3.67200	-61
3.67567	-63
3.67933	-65
3.68300	-66
3.68667	-66
3.69033	-67
3.69400	-68
3.69767	-69
3.70133	-67
3.70500	-65
3.70867	-65
3.71233	-66
3.71600	-70
3.71967	-74
3.72333	-73
3.72700	-71
3.73067	-71
3.73433	-76
3.73800	-85
3.74167	-96
3.74533	-102
3.74900	-104
3.75267	-102
3.75633	-98
3.76000	-94
3.76367	-92
3.76733	-92
3.77100	-92
3.77467	-92
3.77833	-91
3.78200	-93
3.78567	-97
3.78933	-97
3.79300	-92
3.79667	-86
3.80033	-81
3.80400	-76
3.80767	-72
3.81133	-71
3.81500	-73
3.81867	-80
3.82233	-89
3.82600	-97
3.82967	-103
3.83333	-107
3.83700	-106
3.84067	-101
3.84433	-93
3.84800	-87
3.85167	-84
3.85533	-82
3.85900	-82
3.86267	-83
3.86633	-79
3.87000	-74
3.87367	-72
3.87733	-75
3.88100	-80
3.88467	-86
3.88833	-86
3.89200	-86
3.89567	-84
3.89933	-82
3.90300	-82
3.90667	-82
3.91033	-81
3.91400	-82
3.91767	-85
3.92133	-92
3.92500	-99
3.92867	-105
3.93233	-108
3.93600	-106
3.93967	-101
3.94333	-96
3.94700	-96
3.95067	-99
3.95433	-101
3.95800	-100
3.96167	-97
3.96533	-97
3.96900	-98
3.97267	-97
3.97633	-97
3.98000	-100
3.98367	-101
3.98733	-98
3.99100	-94
3.99467	-88
3.99833	-84

[Chromatogram (Ch2)]
Interval(msec)	220
# of Points	1091
Start Time(min)	0.002
End Time(min)	3.998
R.Time (min)	Intensity
0.00167	0
0.00533	0
0.00900	1
0.01267	1
0.01633	1
0.02000	1
0.02367	1
0.02733	1
0.03100	1
0.03467	2
0.03833	2
0.04200	2
0.04567	2
0.04933	2
0.05300	2
0.05667	2
0.06033	2
0.06400	2
0.06767	2
0.07133	3
0.07500	3
0.07867	3
0.08233	3
0.08600	3
0.08967	4
0.09333	4
0.09700	4
0.10067	4
0.10433	4
0.10800	4
0.11167	4
0.11533	5
0.11900	5
0.12267	5
0.12633	5
0.13000	5
0.13367	5
0.13733	6
0.14100	6
0.14467	6
0.14833	6
0.15200	6
0.15567	6
0.15933	5
0.16300	5
0.16667	4
0.17033	4
0.17400	4
0.17767	3
0.18133	3
0.18500	3
0.18867	3
0.19233	2
0.19600	2
0.19967	2
0.20333	2
0.20700	2
0.21067	2
0.21433	3
0.21800	3
0.22167	3
0.22533	3
0.22900	3
0.23267	3
0.23633	2
0.24000	2
0.24367	3
0.24733	2
0.25100	2
0.25467	2
0.25833	2
0.26200	2
0.26567	2
0.26933	1
0.27300	1
0.27667	1
0.28033	1
0.28400	1
0.28767	1
0.29133	1
0.29500	1
0.29867	1
0.30233	1
0.30600	1
0.30967	1
0.31333	1
0.31700	1
0.32067	1
0.32433	1
0.32800	2
0.33167	2
0.33533	1
0.33900	1
0.34267	1
0.34633	1
0.35000	1
0.35367	1
0.35733	1
0.36100	1
0.36467	1
0.36833	1
0.37200	0
0.37567	0
0.37933	0
0.38300	0
0.38667	0
0.39033	0
0.39400	1
0.39767	1
0.40133	1
0.40500	1
0.40867	1
0.41233	1
0.41600	1
0.41967	1
0.42333	1
0.42700	1
0.43067	1
0.43433	1
0.43800	1
0.44167	1
0.44533	1
0.44900	1
0.45267	1
0.45633	2
0.46000	2
0.46367	2
0.46733	2
0.47100	2
0.47467	2
0.47833	3
0.48200	3
0.48567	3
0.48933	4
0.49300	4
0.49667	4
0.50033	4
0.50400	3
0.50767	3
0.51133	2
0.51500	2
0.51867	1
0.52233	1
0.52600	1
0.52967	1
0.53333	1
0.53700	1
0.54067	1
0.54433	1
0.54800	2
0.55167	2
0.55533	2
0.55900	2
0.56267	2
0.56633	3
0.57000	3
0.57367	3
0.57733	4
0.58100	4
0.58467	4
0.58833	4
0.59200	4
0.59567	4
0.59933	4
0.60300	5
0.60667	4
0.61033	4
0.61400	4
0.61767	3
0.62133	3
0.62500	3
0.62867	3
0.63233	3
0.63600	2
0.63967	2
0.64333	2
0.64700	1
0.65067	1
0.65433	1
0.65800	0
0.66167	-0
0.66533	-0
0.66900	-0
0.67267	-0
0.67633	-0
0.68000	0
0.68367	0
0.68733	1
0.69100	1
0.69467	1
0.69833	1
0.70200	1
0.70567	1
0.70933	1
0.71300	2
0.71667	2
0.72033	2
0.72400	3
0.72767	3
0.73133	3
0.73500	3
0.73867	3
0.74233	2
0.74600	2
0.74967	2
0.75333	2
0.75700	2
0.76067	2
0.76433	2
0.76800	2
0.77167	2
0.77533	2
0.77900	2
0.78267	2
0.78633	2
0.79000	2
0.79367	2
0.79733	2
0.80100	2
0.80467	2
0.80833	2
0.81200	2
0.81567	2
0.81933	2
0.82300	2
0.82667	2
0.83033	2
0.83400	2
0.83767	2
0.84133	2
0.84500	2
0.84867	2
0.85233	2
0.85600	2
0.85967	2
0.86333	2
0.86700	2
0.87067	2
0.87433	2
0.87800	2
0.88167	1
0.88533	1
0.88900	1
0.89267	1
0.89633	1
0.90000	1
0.90367	1
0.90733	2
0.91100	2
0.91467	2
0.91833	2
0.92200	2
0.92567	2
0.92933	1
0.93300	1
0.93667	1
0.94033	1
0.94400	1
0.94767	1
0.95133	1
0.95500	0
0.95867	1
0.96233	1
0.96600	1
0.96967	1
0.97333	1
0.97700	1
0.98067	1
0.98433	1
0.98800	1
0.99167	0
0.99533	0
0.99900	0
1.00267	-0
1.00633	-0
1.01000	-1
1.01367	-1
1.01733	-1
1.02100	-1
1.02467	-2
1.02833	-2
1.03200	-2
1.03567	-1
1.03933	-1
1.04300	-1
1.04667	-1
1.05033	-0
1.05400	-0
1.05767	-0
1.06133	-0
1.06500	0
1.06867	0
1.07233	0
1.07600	0
1.07967	1
1.08333	1
1.08700	1
1.09067	1
1.09433	1
1.09800	1
1.10167	1
1.10533	2
1.10900	2
1.11267	2
1.11633	2
1.12000	1
1.12367	1
1.12733	1
1.13100	0
1.13467	0
1.13833	0
1.14200	0
1.14567	0
1.14933	0
1.15300	0
1.15667	0
1.16033	1
1.16400	1
1.16767	1
1.17133	1
1.17500	1
1.17867	1
1.18233	2
1.18600	2
1.18967	2
1.19333	2
1.19700	1
1.20067	1
1.20433	1
1.20800	1
1.21167	1
1.21533	1
1.21900	1
1.22267	0
1.22633	0
1.23000	0
1.23367	0
1.23733	0
1.24100	0
1.24467	0
1.24833	0
1.25200	0
1.25567	0
1.25933	0
1.26300	1
1.26667	1
1.27033	1
1.27400	1
1.27767	1
1.28133	1
1.28500	1
1.28867	1
1.29233	2
1.29600	1
1.29967	1
1.30333	1
1.30700	1
1.31067	0
1.31433	0
1.31800	-0
1.32167	-1
1.32533	-1
1.32900	-1
1.33267	-2
1.33633	-2
1.34000	-2
1.34367	-2
1.34733	-1
1.35100	-1
1.35467	-0
1.35833	0
1.36200	0
1.36567	1
1.36933	1
1.37300	1
1.37667	1
1.38033	1
1.38400	1
1.38767	1
1.39133	1
1.39500	0
1.39867	0
1.40233	0
1.40600	-0
1.40967	-0
1.41333	-0
1.41700	-0
1.42067	-0
1.42433	-0
1.42800	0
1.43167	1
1.43533	1
1.43900	2
1.44267	2
1.44633	2
1.45000	2
1.45367	2
1.45733	2
1.46100	3
1.46467	3
1.46833	2
1.47200	2
1.47567	2
1.47933	2
1.48300	2
1.48667	2
1.49033	1
1.49400	1
1.49767	1
1.50133	1
1.50500	1
1.50867	1
1.51233	1
1.51600	1
1.51967	1
1.52333	1
1.52700	0
1.53067	0
1.53433	0
1.53800	1
1.54167	1
1.54533	1
1.54900	1
1.55267	1
1.55633	1
1.56000	1
1.56367	1
1.56733	1
1.57100	0
1.57467	0
1.57833	0
1.58200	0
1.58567	0
1.58933	0
1.59300	0
1.59667	-0
1.60033	-1
1.60400	-2
1.60767	-3
1.61133	-5
1.61500	-7
1.61867	-10
1.62233	-12
1.62600	-15
1.62967	-18
1.63333	-22
1.63700	-25
1.64067	-29
1.64433	-33
1.64800	-37
1.65167	-40
1.65533	-44
1.65900	-48
1.66267	-52
1.66633	-57
1.67000	-61
1.67367	-66
1.67733	-71
1.68100	-76
1.68467	-81
1.68833	-85
1.69200	-90
1.69567	-93
1.69933	-96
1.70300	-99
1.70667	-101
1.71033	-103
1.71400	-105
1.71767	-106
1.72133	-107
1.72500	-108
1.72867	-108
1.73233	-109
1.73600	-110
1.73967	-111
1.74333	-112
1.74700	-114
1.75067	-115
1.75433	-116
1.75800	-117
1.76167	-117
1.76533	-117
1.76900	-117
1.77267	-117
1.77633	-116
1.78000	-115
1.78367	-115
1.78733	-114
1.79100	-114
1.79467	-114
1.79833	-114
1.80200	-115
1.80567	-115
1.80933	-116
1.81300	-117
1.81667	-117
1.82033	-118
1.82400	-118
1.82767	-118
1.83133	-118
1.83500	-119
1.83867	-119
1.84233	-119
1.84600	-119
1.84967	-119
1.85333	-119
1.85700	-119
1.86067	-119
1.86433	-119
1.86800	-119
1.87167	-119
1.87533	-119
1.87900	-118
1.88267	-118
1.88633	-119
1.89000	-119
1.89367	-119
1.89733	-119
1.90100	-119
1.90467	-119
1.90833	-118
1.91200	-118
1.91567	-117
1.91933	-117
1.92300	-117
1.92667	-117
1.93033	-117
1.93400	-118
1.93767	-118
1.94133	-118
1.94500	-117
1.94867	-117
1.95233	-116
1.95600	-116
1.95967	-115
1.96333	-115
1.96700	-114
1.97067	-114
1.97433	-113
1.97800	-112
1.98167	-111
1.98533	-110
1.98900	-110
1.99267	-110
1.99633	-110
2.00000	-110
2.00367	-111
2.00733	-111
2.01100	-111
2.01467	-111
2.01833	-111
2.02200	-111
2.02567	-111
2.02933	-110
2.03300	-110
2.03667	-109
2.04033	-108
2.04400	-107
2.04767	-107
2.05133	-107
2.05500	-106
2.05867	-106
2.06233	-106
2.06600	-106
2.06967	-106
2.07333	-106
2.07700	-106
2.08067	-106
2.08433	-105
2.08800	-105
2.09167	-105
2.09533	-104
2.09900	-104
2.10267	-104
2.10633	-104
2.11000	-104
2.11367	-104
2.11733	-104
2.12100	-103
2.12467	-103
2.12833	-103
2.13200	-103
2.13567	-103
2.13933	-102
2.14300	-102
2.14667	-102
2.15033	-101
2.15400	-101
2.15767	-101
2.16133	-100
2.16500	-100
2.16867	-100
2.17233	-99
2.17600	-99
2.17967	-98
2.18333	-98
2.18700	-97
2.19067	-97
2.19433	-96
2.19800	-96
2.20167	-95
2.20533	-95
2.20900	-95
2.21267	-95
2.21633	-95
2.22000	-95
2.22367	-94
2.22733	-94
2.23100	-94
2.23467	-94
2.23833	-93
2.24200	-93
2.24567	-92
2.24933	-92
2.25300	-92
2.25667	-91
2.26033	-91
2.26400	-90
2.26767	-90
2.27133	-90
2.27500	-90
2.27867	-90
2.28233	-90
2.28600	-89
2.28967	-89
2.29333	-88
2.29700	-88
2.30067	-87
2.30433	-85
2.30800	-84
2.31167	-83
2.31533	-83
2.31900	-82
2.32267	-82
2.32633	-82
2.33000	-82
2.33367	-83
2.33733	-83
2.34100	-82
2.34467	-82
2.34833	-81
2.35200	-81
2.35567	-80
2.35933	-79
2.36300	-78
2.36667	-77
2.37033	-75
2.37400	-74
2.37767	-71
2.38133	-68
2.38500	-65
2.38867	-62
2.39233	-58
2.39600	-54
2.39967	-49
2.40333	-45
2.40700	-41
2.41067	-36
2.41433	-33
2.41800	-29
2.42167	-26
2.42533	-23
2.42900	-20
2.43267	-18
2.43633	-16
2.44000	-14
2.44367	-12
2.44733	-10
2.45100	-9
2.45467	-7
2.45833	-5
2.46200	-4
2.46567	-3
2.46933	-1
2.47300	-0
2.47667	1
2.48033	2
2.48400	3
2.48767	4
2.49133	5
2.49500	7
2.49867	8
2.50233	8
2.50600	9
2.50967	9
2.51333	10
2.51700	10
2.52067	10
2.52433	11
2.52800	12
2.53167	12
2.53533	13
2.53900	14
2.54267	15
2.54633	16
2.55000	16
2.55367	16
2.55733	17
2.56100	17
2.56467	17
2.56833	18
2.57200	18
2.57567	17
2.57933	17
2.58300	16
2.58667	16
2.59033	15
2.59400	15
2.59767	15
2.60133	16
2.60500	17
2.60867	17
2.61233	18
2.61600	19
2.61967	19
2.62333	19
2.62700	19
2.63067	19
2.63433	19
2.63800	19
2.64167	20
2.64533	20
2.64900	20
2.65267	20
2.65633	20
2.66000	21
2.66367	22
2.66733	23
2.67100	24
2.67467	24
2.67833	25
2.68200	25
2.68567	25
2.68933	25
2.69300	25
2.69667	25
2.70033	25
2.70400	25
2.70767	25
2.71133	25
2.71500	25
2.71867	25
2.72233	26
2.72600	26
2.72967	27
2.73333	27
2.73700	28
2.74067	28
2.74433	28
2.74800	28
2.75167	27
2.75533	27
2.75900	26
2.76267	26
2.76633	25
2.77000	25
2.77367	25
2.77733	25
2.78100	25
2.78467	25
2.78833	25
2.79200	25
2.79567	26
2.79933	26
2.80300	26
2.80667	26
2.81033	27
2.81400	27
2.81767	27
2.82133	27
2.82500	27
2.82867	27
2.83233	27
2.83600	27
2.83967	27
2.84333	27
2.84700	27
2.85067	26
2.85433	25
2.85800	22
2.86167	17
2.86533	10
2.86900	-1
2.87267	-14
2.87633	-31
2.88000	-52
2.88367	-77
2.88733	-106
2.89100	-139
2.89467	-174
2.89833	-213
2.90200	-255
2.90567	-298
2.90933	-344
2.91300	-391
2.91667	-439
2.92033	-487
2.92400	-536
2.92767	-585
2.93133	-633
2.93500	-682
2.93867	-730
2.94233	-779
2.94600	-833
2.94967	-892
2.95333	-952
2.95700	-1000
2.96067	-1029
2.96433	-1033
2.96800	-1011
2.97167	-969
2.97533	-910
2.97900	-841
2.98267	-766
2.98633	-690
2.99000	-615
2.99367	-543
2.99733	-477
3.00100	-415
3.00467	-360
3.00833	-310
3.01200	-266
3.01567	-227
3.01933	-193
3.02300	-163
3.02667	-137
3.03033	-115
3.03400	-96
3.03767	-79
3.04133	-66
3.04500	-54
3.04867	-44
3.05233	-35
3.05600	-27
3.05967	-21
3.06333	-15
3.06700	-10
3.07067	-6
3.07433	-3
3.07800	-0
3.08167	2
3.08533	4
3.08900	6
3.09267	8
3.09633	9
3.10000	11
3.10367	11
3.10733	12
3.11100	13
3.11467	14
3.11833	14
3.12200	15
3.12567	15
3.12933	16
3.13300	17
3.13667	17
3.14033	17
3.14400	18
3.14767	18
3.15133	18
3.15500	18
3.15867	19
3.16233	19
3.16600	19
3.16967	20
3.17333	20
3.17700	20
3.18067	21
3.18433	21
3.18800	21
3.19167	21
3.19533	21
3.19900	22
3.20267	22
3.20633	22
3.21000	22
3.21367	22
3.21733	23
3.22100	23
3.22467	24
3.22833	24
3.23200	24
3.23567	24
3.23933	24
3.24300	24
3.24667	24
3.25033	24
3.25400	24
3.25767	24
3.26133	24
3.26500	24
3.26867	24
3.27233	24
3.27600	24
3.27967	24
3.28333	24
3.28700	24
3.29067	24
3.29433	24
3.29800	24
3.30167	25
3.30533	25
3.30900	25
3.31267	25
3.31633	25
3.32000	25
3.32367	25
3.32733	25
3.33100	25
3.33467	25
3.33833	26
3.34200	26
3.34567	26
3.34933	26
3.35300	26
3.35667	26
3.36033	26
3.36400	26
3.36767	26
3.37133	26
3.37500	26
3.37867	26
3.38233	26
3.38600	26
3.38967	26
3.39333	26
3.39700	26
3.40067	26
3.40433	26
3.40800	26
3.41167	26
3.41533	26
3.41900	26
3.42267	26
3.42633	26
3.43000	26
3.43367	26
3.43733	26
3.44100	27
3.44467	27
3.44833	27
3.45200	27
3.45567	27
3.45933	28
3.46300	28
3.46667	28
3.47033	28
3.47400	28
3.47767	28
3.48133	28
3.48500	28
3.48867	28
3.49233	28
3.49600	28
3.49967	29
3.50333	29
3.50700	29
3.51067	29
3.51433	29
3.51800	29
3.52167	29
3.52533	29
3.52900	29
3.53267	29
3.53633	29
3.54000	29
3.54367	29
3.54733	29
3.55100	29
3.55467	28
3.55833	29
3.56200	29
3.56567	29
3.56933	29
3.57300	29
3.57667	29
3.58033	29
3.58400	29
3.58767	29
3.59133	29
3.59500	29
3.59867	29
3.60233	29
3.60600	28
3.60967	28
3.61333	28
3.61700	27
3.62067	27
3.62433	26
3.62800	26
3.63167	26
3.63533	26
3.63900	26
3.64267	26
3.64633	26
3.65000	27
3.65367	27
3.65733	27
3.66100	27
3.66467	27
3.66833	27
3.67200	27
3.67567	28
3.67933	28
3.68300	28
3.68667	28
3.69033	28
3.69400	28
3.69767	28
3.70133	28
3.70500	28
3.70867	28
3.71233	28
3.71600	27
3.71967	27
3.72333	28
3.72700	28
3.73067	28
3.73433	28
3.73800	28
3.74167	28
3.74533	28
3.74900	28
3.75267	28
3.75633	28
3.76000	28
3.76367	28
3.76733	29
3.77100	29
3.77467	29
3.77833	29
3.78200	29
3.78567	29
3.78933	29
3.79300	29
3.79667	29
3.80033	29
3.80400	29
3.80767	29
3.81133	29
3.81500	29
3.81867	29
3.82233	29
3.82600	29
3.82967	29
3.83333	29
3.83700	28
3.84067	28
3.84433	28
3.84800	28
3.85167	28
3.85533	28
3.85900	28
3.86267	27
3.86633	27
3.87000	27
3.87367	28
3.87733	28
3.88100	28
3.88467	28
3.88833	28
3.89200	28
3.89567	28
3.89933	28
3.90300	28
3.90667	28
3.91033	28
3.91400	28
3.91767	28
3.92133	28
3.92500	28
3.92867	28
3.93233	28
3.93600	28
3.93967	28
3.94333	29
3.94700	28
3.95067	28
3.95433	28
3.95800	28
3.96167	28
3.96533	28
3.96900	28
3.97267	28
3.97633	28
3.98000	28
3.98367	28
3.98733	28
3.99100	28
3.99467	28
3.99833	28

[Chromatogram (Ch3)]
Interval(msec)	220
# of Points	1091
Start Time(min)	0.002
End Time(min)	3.998
R.Time (min)	Intensity
0.00167	1
0.00533	2
0.00900	1
0.01267	-0
0.01633	-2
0.02000	-3
0.02367	-4
0.02733	-4
0.03100	-3
0.03467	-5
0.03833	-7
0.04200	-6
0.04567	-4
0.04933	-0
0.05300	2
0.05667	2
0.06033	-2
0.06400	-5
0.06767	-7
0.07133	-7
0.07500	-7
0.07867	-5
0.08233	-4
0.08600	-2
0.08967	-2
0.09333	-2
0.09700	0
0.10067	4
0.10433	5
0.10800	3
0.11167	2
0.11533	3
0.11900	1
0.12267	-0
0.12633	0
0.13000	2
0.13367	2
0.13733	-0
0.14100	-1
0.14467	-0
0.14833	1
0.15200	2
0.15567	5
0.15933	5
0.16300	4
0.16667	3
0.17033	3
0.17400	3
0.17767	3
0.18133	2
0.18500	3
0.18867	4
0.19233	5
0.19600	4
0.19967	5
0.20333	5
0.20700	5
0.21067	4
0.21433	3
0.21800	1
0.22167	-0
0.22533	1
0.22900	4
0.23267	6
0.23633	7
0.24000	8
0.24367	8
0.24733	9
0.25100	10
0.25467	12
0.25833	12
0.26200	11
0.26567	11
0.26933	11
0.27300	10
0.27667	10
0.28033	10
0.28400	11
0.28767	10
0.29133	9
0.29500	10
0.29867	11
0.30233	11
0.30600	12
0.30967	14
0.31333	14
0.31700	14
0.32067	15
0.32433	14
0.32800	16
0.33167	17
0.33533	16
0.33900	17
0.34267	16
0.34633	16
0.35000	19
0.35367	20
0.35733	21
0.36100	22
0.36467	22
0.36833	22
0.37200	23
0.37567	21
0.37933	17
0.38300	15
0.38667	14
0.39033	14
0.39400	15
0.39767	15
0.40133	14
0.40500	12
0.40867	14
0.41233	16
0.41600	18
0.41967	18
0.42333	19
0.42700	21
0.43067	21
0.43433	21
0.43800	20
0.44167	22
0.44533	22
0.44900	23
0.45267	24
0.45633	25
0.46000	24
0.46367	22
0.46733	22
0.47100	24
0.47467	27
0.47833	27
0.48200	25
0.48567	24
0.48933	24
0.49300	24
0.49667	25
0.50033	25
0.50400	26
0.50767	25
0.51133	25
0.51500	27
0.51867	28
0.52233	28
0.52600	27
0.52967	25
0.53333	23
0.53700	22
0.54067	23
0.54433	25
0.54800	25
0.55167	23
0.55533	22
0.55900	21
0.56267	22
0.56633	22
0.57000	24
0.57367	26
0.57733	26
0.58100	26
0.58467	26
0.58833	27
0.59200	26
0.59567	26
0.59933	25
0.60300	25
0.60667	26
0.61033	28
0.61400	29
0.61767	31
0.62133	32
0.62500	33
0.62867	33
0.63233	32
0.63600	31
0.63967	33
0.64333	34
0.64700	36
0.65067	36
0.65433	36
0.65800	37
0.66167	38
0.66533	36
0.66900	35
0.67267	34
0.67633	32
0.68000	33
0.68367	34
0.68733	33
0.69100	33
0.69467	33
0.69833	31
0.70200	30
0.70567	31
0.70933	33
0.71300	35
0.71667	35
0.72033	33
0.72400	33
0.72767	33
0.73133	34
0.73500	35
0.73867	36
0.74233	34
0.74600	34
0.74967	36
0.75333	36
0.75700	37
0.76067	39
0.76433	41
0.76800	43
0.77167	44
0.77533	41
0.77900	38
0.78267	35
0.78633	34
0.79000	34
0.79367	32
0.79733	33
0.80100	36
0.80467	39
0.80833	39
0.81200	39
0.81567	41
0.81933	41
0.82300	40
0.82667	38
0.83033	39
0.83400	39
0.83767	38
0.84133	39
0.84500	40
0.84867	39
0.85233	39
0.85600	39
0.85967	38
0.86333	38
0.86700	40
0.87067	41
0.87433	42
0.87800	42
0.88167	44
0.88533	45
0.88900	43
0.89267	45
0.89633	47
0.90000	46
0.90367	47
0.90733	46
0.91100	45
0.91467	45
0.91833	44
0.92200	43
0.92567	44
0.92933	45
0.93300	46
0.93667	48
0.94033	50
0.94400	48
0.94767	48
0.95133	49
0.95500	50
0.95867	50
0.96233	48
0.96600	47
0.96967	44
0.97333	42
0.97700	41
0.98067	43
0.98433	44
0.98800	44
0.99167	44
0.99533	42
0.99900	41
1.00267	41
1.00633	44
1.01000	47
1.01367	50
1.01733	50
1.02100	50
1.02467	48
1.02833	50
1.03200	51
1.03567	51
1.03933	52
1.04300	54
1.04667	53
1.05033	51
1.05400	48
1.05767	48
1.06133	50
1.06500	52
1.06867	51
1.07233	51
1.07600	51
1.07967	51
1.08333	51
1.08700	52
1.09067	51
1.09433	50
1.09800	50
1.10167	51
1.10533	49
1.10900	46
1.11267	46
1.11633	48
1.12000	49
1.12367	49
1.12733	48
1.13100	47
1.13467	48
1.13833	50
1.14200	53
1.14567	55
1.14933	55
1.15300	55
1.15667	56
1.16033	56
1.16400	55
1.16767	56
1.17133	56
1.17500	57
1.17867	57
1.18233	58
1.18600	58
1.18967	58
1.19333	57
1.19700	56
1.20067	55
1.20433	54
1.20800	54
1.21167	54
1.21533	52
1.21900	52
1.22267	52
1.22633	54
1.23000	55
1.23367	55
1.23733	56
1.24100	53
1.24467	51
1.24833	52
1.25200	52
1.25567	53
1.25933	57
1.26300	61
1.26667	61
1.27033	60
1.27400	58
1.27767	56
1.28133	55
1.28500	55
1.28867	55
1.29233	56
1.29600	58
1.29967	57
1.30333	55
1.30700	53
1.31067	50
1.31433	52
1.31800	56
1.32167	59
1.32533	60
1.32900	62
1.33267	64
1.33633	64
1.34000	64
1.34367	63
1.34733	62
1.35100	60
1.35467	57
1.35833	56
1.36200	57
1.36567	56
1.36933	55
1.37300	55
1.37667	56
1.38033	56
1.38400	55
1.38767	53
1.39133	54
1.39500	55
1.39867	56
1.40233	58
1.40600	59
1.40967	59
1.41333	59
1.41700	57
1.42067	55
1.42433	53
1.42800	51
1.43167	50
1.43533	51
1.43900	53
1.44267	53
1.44633	53
1.45000	52
1.45367	50
1.45733	50
1.46100	53
1.46467	55
1.46833	57
1.47200	57
1.47567	56
1.47933	54
1.48300	54
1.48667	55
1.49033	58
1.49400	58
1.49767	57
1.50133	57
1.50500	57
1.50867	56
1.51233	58
1.51600	58
1.51967	60
1.52333	62
1.52700	61
1.53067	62
1.53433	61
1.53800	60
1.54167	58
1.54533	54
1.54900	54
1.55267	55
1.55633	56
1.56000	55
1.56367	54
1.56733	54
1.57100	55
1.57467	55
1.57833	54
1.58200	55
1.58567	56
1.58933	56
1.59300	58
1.59667	57
1.60033	57
1.60400	55
1.60767	54
1.61133	54
1.61500	54
1.61867	55
1.62233	55
1.62600	56
1.62967	58
1.63333	61
1.63700	64
1.64067	66
1.64433	65
1.64800	64
1.65167	64
1.65533	63
1.65900	66
1.66267	68
1.66633	68
1.67000	68
1.67367	67
1.67733	67
1.68100	68
1.68467	69
1.68833	68
1.69200	67
1.69567	70
1.69933	71
1.70300	70
1.70667	69
1.71033	70
1.71400	72
1.71767	75
1.72133	75
1.72500	75
1.72867	74
1.73233	73
1.73600	70
1.73967	69
1.74333	66
1.74700	65
1.75067	66
1.75433	67
1.75800	68
1.76167	69
1.76533	71
1.76900	72
1.77267	75
1.77633	78
1.78000	78
1.78367	76
1.78733	75
1.79100	74
1.79467	76
1.79833	78
1.80200	80
1.80567	81
1.80933	79
1.81300	77
1.81667	77
1.82033	76
1.82400	78
1.82767	81
1.83133	82
1.83500	82
1.83867	81
1.84233	79
1.84600	78
1.84967	79
1.85333	80
1.85700	80
1.86067	80
1.86433	81
1.86800	81
1.87167	82
1.87533	82
1.87900	85
1.88267	84
1.88633	83
1.89000	84
1.89367	85
1.89733	87
1.90100	89
1.90467	88
1.90833	89
1.91200	90
1.91567	90
1.91933	89
1.92300	89
1.92667	88
1.93033	88
1.93400	88
1.93767	89
1.94133	92
1.94500	95
1.94867	95
1.95233	94
1.95600	94
1.95967	96
1.96333	97
1.96700	98
1.97067	98
1.97433	97
1.97800	98
1.98167	99
1.98533	101
1.98900	101
1.99267	99
1.99633	100
2.00000	102
2.00367	106
2.00733	108
2.01100	110
2.01467	111
2.01833	111
2.02200	111
2.02567	111
2.02933	111
2.03300	111
2.03667	112
2.04033	110
2.04400	108
2.04767	111
2.05133	114
2.05500	117
2.05867	117
2.06233	119
2.06600	120
2.06967	121
2.07333	122
2.07700	121
2.08067	120
2.08433	122
2.08800	125
2.09167	127
2.09533	128
2.09900	129
2.10267	127
2.10633	125
2.11000	125
2.11367	126
2.11733	127
2.12100	129
2.12467	130
2.12833	131
2.13200	131
2.13567	132
2.13933	133
2.14300	134
2.14667	134
2.15033	132
2.15400	131
2.15767	132
2.16133	133
2.16500	133
2.16867	135
2.17233	138
2.17600	139
2.17967	140
2.18333	142
2.18700	143
2.19067	143
2.19433	144
2.19800	145
2.20167	145
2.20533	146
2.20900	145
2.21267	144
2.21633	144
2.22000	145
2.22367	145
2.22733	147
2.23100	150
2.23467	151
2.23833	151
2.24200	152
2.24567	153
2.24933	153
2.25300	152
2.25667	150
2.26033	150
2.26400	151
2.26767	150
2.27133	151
2.27500	152
2.27867	156
2.28233	159
2.28600	162
2.28967	164
2.29333	163
2.29700	162
2.30067	161
2.30433	160
2.30800	161
2.31167	164
2.31533	166
2.31900	167
2.32267	166
2.32633	167
2.33000	166
2.33367	167
2.33733	166
2.34100	167
2.34467	169
2.34833	170
2.35200	171
2.35567	172
2.35933	173
2.36300	174
2.36667	173
2.37033	172
2.37400	172
2.37767	172
2.38133	172
2.38500	172
2.38867	169
2.39233	170
2.39600	172
2.39967	175
2.40333	178
2.40700	181
2.41067	184
2.41433	187
2.41800	188
2.42167	190
2.42533	189
2.42900	190
2.43267	193
2.43633	195
2.44000	196
2.44367	207
2.44733	244
2.45100	288
2.45467	325
2.45833	345
2.46200	349
2.46567	347
2.46933	345
2.47300	342
2.47667	335
2.48033	325
2.48400	312
2.48767	296
2.49133	284
2.49500	278
2.49867	275
2.50233	272
2.50600	272
2.50967	274
2.51333	277
2.51700	280
2.52067	282
2.52433	283
2.52800	277
2.53167	270
2.53533	262
2.53900	252
2.54267	242
2.54633	233
2.55000	228
2.55367	224
2.55733	222
2.56100	221
2.56467	220
2.56833	222
2.57200	221
2.57567	219
2.57933	217
2.58300	217
2.58667	219
2.59033	220
2.59400	224
2.59767	227
2.60133	229
2.60500	228
2.60867	223
2.61233	214
2.61600	199
2.61967	176
2.62333	146
2.62700	113
2.63067	81
2.63433	50
2.63800	21
2.64167	-5
2.64533	-24
2.64900	-38
2.65267	-48
2.65633	-55
2.66000	-61
2.66367	-63
2.66733	-61
2.67100	-57
2.67467	-53
2.67833	-45
2.68200	-37
2.68567	-29
2.68933	-21
2.69300	-12
2.69667	-7
2.70033	-0
2.70400	8
2.70767	17
2.71133	28
2.71500	38
2.71867	46
2.72233	52
2.72600	56
2.72967	59
2.73333	63
2.73700	69
2.74067	75
2.74433	81
2.74800	84
2.75167	86
2.75533	88
2.75900	92
2.76267	95
2.76633	98
2.77000	101
2.77367	104
2.77733	107
2.78100	110
2.78467	115
2.78833	116
2.79200	118
2.79567	122
2.79933	127
2.80300	131
2.80667	133
2.81033	137
2.81400	140
2.81767	142
2.82133	145
2.82500	146
2.82867	151
2.83233	165
2.83600	201
2.83967	272
2.84333	399
2.84700	607
2.85067	919
2.85433	1344
2.85800	1869
2.86167	2469
2.86533	3100
2.86900	3716
2.87267	4260
2.87633	4686
2.88000	4969
2.88367	5101
2.88733	5087
2.89100	4945
2.89467	4707
2.89833	4402
2.90200	4057
2.90567	3693
2.90933	3328
2.91300	2977
2.91667	2644
2.92033	2342
2.92400	2068
2.92767	1823
2.93133	1602
2.93500	1406
2.93867	1234
2.94233	1084
2.94600	951
2.94967	831
2.95333	731
2.95700	657
2.96067	603
2.96433	565
2.96800	539
2.97167	520
2.97533	511
2.97900	511
2.98267	524
2.98633	543
2.99000	565
2.99367	590
2.99733	613
3.00100	636
3.00467	656
3.00833	672
3.01200	686
3.01567	699
3.01933	710
3.02300	719
3.02667	730
3.03033	736
3.03400	741
3.03767	747
3.04133	752
3.04500	757
3.04867	763
3.05233	767
3.05600	772
3.05967	774
3.06333	775
3.06700	779
3.07067	784
3.07433	790
3.07800	795
3.08167	798
3.08533	799
3.08900	798
3.09267	801
3.09633	805
3.10000	808
3.10367	812
3.10733	814
3.11100	814
3.11467	816
3.11833	819
3.12200	819
3.12567	821
3.12933	823
3.13300	826
3.13667	828
3.14033	831
3.14400	835
3.14767	836
3.15133	838
3.15500	839
3.15867	839
3.16233	839
3.16600	838
3.16967	838
3.17333	840
3.17700	844
3.18067	846
3.18433	846
3.18800	848
3.19167	850
3.19533	851
3.19900	853
3.20267	855
3.20633	855
3.21000	857
3.21367	858
3.21733	858
3.22100	860
3.22467	863
3.22833	865
3.23200	866
3.23567	866
3.23933	865
3.24300	864
3.24667	864
3.25033	865
3.25400	864
3.25767	862
3.26133	862
3.26500	862
3.26867	863
3.27233	862
3.27600	860
3.27967	859
3.28333	857
3.28700	855
3.29067	851
3.29433	847
3.29800	843
3.30167	839
3.30533	837
3.30900	834
3.31267	833
3.31633	834
3.32000	834
3.32367	833
3.32733	831
3.33100	829
3.33467	828
3.33833	823
3.34200	818
3.34567	814
3.34933	810
3.35300	804
3.35667	798
3.36033	793
3.36400	789
3.36767	786
3.37133	787
3.37500	786
3.37867	785
3.38233	782
3.38600	779
3.38967	775
3.39333	771
3.39700	767
3.40067	766
3.40433	766
3.40800	765
3.41167	763
3.41533	760
3.41900	755
3.42267	751
3.42633	749
3.43000	747
3.43367	744
3.43733	739
3.44100	737
3.44467	734
3.44833	729
3.45200	724
3.45567	717
3.45933	713
3.46300	711
3.46667	708
3.47033	706
3.47400	703
3.47767	701
3.48133	698
3.48500	698
3.48867	697
3.49233	695
3.49600	693
3.49967	690
3.50333	689
3.50700	685
3.51067	679
3.51433	671
3.51800	666
3.52167	662
3.52533	657
3.52900	650
3.53267	647
3.53633	642
3.54000	637
3.54367	635
3.54733	635
3.55100	635
3.55467	633
3.55833	631
3.56200	630
3.56567	629
3.56933	627
3.57300	621
3.57667	616
3.58033	611
3.58400	606
3.58767	605
3.59133	603
3.59500	600
3.59867	596
3.60233	590
3.60600	585
3.60967	581
3.61333	579
3.61700	577
3.62067	575
3.62433	572
3.62800	568
3.63167	565
3.63533	562
3.63900	559
3.64267	557
3.64633	554
3.65000	549
3.65367	545
3.65733	543
3.66100	539
3.66467	537
3.66833	534
3.67200	530
3.67567	530
3.67933	529
3.68300	523
3.68667	519
3.69033	514
3.69400	508
3.69767	504
3.70133	502
3.70500	499
3.70867	495
3.71233	492
3.71600	489
3.71967	485
3.72333	478
3.72700	474
3.73067	470
3.73433	466
3.73800	461
3.74167	457
3.74533	456
3.74900	454
3.75267	452
3.75633	450
3.76000	448
3.76367	445
3.76733	442
3.77100	439
3.77467	435
3.77833	430
3.78200	423
3.78567	420
3.78933	418
3.79300	417
3.79667	414
3.80033	411
3.80400	408
3.80767	406
3.81133	404
3.81500	403
3.81867	399
3.82233	395
3.82600	394
3.82967	390
3.83333	386
3.83700	381
3.84067	379
3.84433	375
3.84800	371
3.85167	368
3.85533	365
3.85900	361
3.86267	357
3.86633	356
3.87000	354
3.87367	352
3.87733	351
3.88100	350
3.88467	349
3.88833	346
3.89200	341
3.89567	335
3.89933	330
3.90300	325
3.90667	320
3.91033	316
3.91400	313
3.91767	311
3.92133	309
3.92500	307
3.92867	304
3.93233	303
3.93600	303
3.93967	301
3.94333	299
3.94700	295
3.95067	291
3.95433	284
3.95800	280
3.96167	277
3.96533	273
3.96900	271
3.97267	270
3.97633	268
3.98000	266
3.98367	266
3.98733	265
3.99100	265
3.99467	261
3.99833	256

[Status Trace (Column Oven Temperature)]
Interval(msec)	1000
# of Points	239
Start Time(min)	0.016
End Time(min)	3.983
Intensity Units	
Intensity Multiplier	1
R.Time (min)	Intensity
0.01633	35.01
0.03300	35.01
0.04967	35.02
0.06633	35.02
0.08300	35.01
0.09967	35.00
0.11633	34.99
0.13300	34.99
0.14967	34.98
0.16633	34.99
0.18300	34.99
0.19967	34.99
0.21633	34.98
0.23300	34.99
0.24967	34.99
0.26633	34.99
0.28300	34.99
0.29967	34.99
0.31633	34.99
0.33300	35.00
0.34967	34.99
0.36633	35.01
0.38300	35.00
0.39967	35.00
0.41633	35.01
0.43300	35.01
0.44967	35.01
0.46633	35.01
0.48300	35.00
0.49967	35.01
0.51633	35.01
0.53300	35.00
0.54967	34.99
0.56633	35.00
0.58300	34.99
0.59967	34.98
0.61633	34.97
0.63300	34.98
0.64967	34.99
0.66633	34.99
0.68300	35.00
0.69967	34.99
0.71633	34.99
0.73300	34.98
0.74967	34.99
0.76633	35.00
0.78300	35.00
0.79967	34.99
0.81633	34.99
0.83300	34.98
0.84967	34.97
0.86633	34.97
0.88300	34.98
0.89967	34.97
0.91633	34.97
0.93300	34.97
0.94967	34.98
0.96633	34.98
0.98300	34.99
0.99967	34.99
1.01633	35.00
1.03300	35.00
1.04967	35.00
1.06633	34.99
1.08300	34.99
1.09967	34.99
1.11633	34.99
1.13300	35.00
1.14967	34.99
1.16633	34.99
1.18300	34.99
1.19967	34.99
1.21633	34.99
1.23300	34.99
1.24967	34.99
1.26633	34.98
1.28300	34.98
1.29967	34.99
1.31633	35.00
1.33300	35.01
1.34967	35.00
1.36633	35.00
1.38300	35.00
1.39967	35.01
1.41633	35.00
1.43300	34.99
1.44967	34.99
1.46633	34.98
1.48300	34.97
1.49967	34.97
1.51633	34.98
1.53300	34.98
1.54967	34.98
1.56633	34.98
1.58300	34.99
1.59967	35.02
1.61633	35.11
1.63300	35.26
1.64967	35.48
1.66633	35.78
1.68300	36.14
1.69967	36.51
1.71633	36.84
1.73300	37.18
1.74967	37.53
1.76633	37.85
1.78300	38.16
1.79967	38.49
1.81633	38.83
1.83300	39.16
1.84967	39.49
1.86633	39.82
1.88300	40.16
1.89967	40.47
1.91633	40.78
1.93300	41.14
1.94967	41.46
1.96633	41.77
1.98300	42.08
1.99967	42.41
2.01633	42.75
2.03300	43.06
2.04967	43.39
2.06633	43.73
2.08300	44.05
2.09967	44.39
2.11633	44.71
2.13300	45.03
2.14967	45.37
2.16633	45.70
2.18300	46.02
2.19967	46.35
2.21633	46.68
2.23300	47.02
2.24967	47.33
2.26633	47.67
2.28300	48.01
2.29967	48.33
2.31633	48.66
2.33300	49.00
2.34967	49.29
2.36633	49.52
2.38300	49.64
2.39967	49.66
2.41633	49.65
2.43300	49.67
2.44967	49.69
2.46633	49.70
2.48300	49.71
2.49967	49.72
2.51633	49.76
2.53300	49.77
2.54967	49.79
2.56633	49.79
2.58300	49.82
2.59967	49.82
2.61633	49.83
2.63300	49.84
2.64967	49.86
2.66633	49.84
2.68300	49.85
2.69967	49.86
2.71633	49.86
2.73300	49.84
2.74967	49.86
2.76633	49.89
2.78300	49.90
2.79967	49.92
2.81633	49.93
2.83300	49.94
2.84967	49.95
2.86633	49.96
2.88300	49.96
2.89967	49.95
2.91633	49.95
2.93300	49.95
2.94967	49.95
2.96633	49.96
2.98300	49.98
2.99967	49.99
3.01633	49.98
3.03300	49.99
3.04967	49.99
3.06633	49.99
3.08300	50.00
3.09967	50.02
3.11633	50.02
3.13300	50.03
3.14967	50.04
3.16633	50.05
3.18300	50.04
3.19967	50.05
3.21633	50.05
3.23300	50.05
3.24967	50.06
3.26633	50.07
3.28300	50.07
3.29967	50.08
3.31633	50.08
3.33300	50.08
3.34967	50.08
3.36633	50.08
3.38300	50.09
3.39967	50.09
3.41633	50.10
3.43300	50.10
3.44967	50.10
3.46633	50.09
3.48300	50.09
3.49967	50.08
3.51633	50.08
3.53300	50.07
3.54967	50.08
3.56633	50.08
3.58300	50.07
3.59967	50.07
3.61633	50.08
3.63300	50.09
3.64967	50.09
3.66633	50.08
3.68300	50.08
3.69967	50.07
3.71633	50.08
3.73300	50.08
3.74967	50.07
3.76633	50.07
3.78300	50.07
3.79967	50.08
3.81633	50.08
3.83300	50.07
3.84967	50.07
3.86633	50.07
3.88300	50.07
3.89967	50.07
3.91633	50.07
3.93300	50.06
3.94967	50.06
3.96633	50.07
3.98300	50.06

[Status Trace (Injection Unit Temperature)]
Interval(msec)	1000
# of Points	239
Start Time(min)	0.016
End Time(min)	3.983
Intensity Units	
Intensity Multiplier	1
R.Time (min)	Intensity
0.01633	99.98
0.03300	99.98
0.04967	99.99
0.06633	99.98
0.08300	99.98
0.09967	99.98
0.11633	99.98
0.13300	99.98
0.14967	99.98
0.16633	99.97
0.18300	99.98
0.19967	99.98
0.21633	99.98
0.23300	99.98
0.24967	99.97
0.26633	99.98
0.28300	99.98
0.29967	99.98
0.31633	99.98
0.33300	99.98
0.34967	99.98
0.36633	99.98
0.38300	99.98
0.39967	99.98
0.41633	99.98
0.43300	99.98
0.44967	99.99
0.46633	99.98
0.48300	99.98
0.49967	99.98
0.51633	99.98
0.53300	99.98
0.54967	99.98
0.56633	99.97
0.58300	99.98
0.59967	99.98
0.61633	99.98
0.63300	99.98
0.64967	99.98
0.66633	99.98
0.68300	99.98
0.69967	99.98
0.71633	99.98
0.73300	99.98
0.74967	99.98
0.76633	99.98
0.78300	99.98
0.79967	99.98
0.81633	99.98
0.83300	99.98
0.84967	99.98
0.86633	99.98
0.88300	99.98
0.89967	99.98
0.91633	99.98
0.93300	99.99
0.94967	99.99
0.96633	99.99
0.98300	99.98
0.99967	99.99
1.01633	99.99
1.03300	99.99
1.04967	99.98
1.06633	99.98
1.08300	99.98
1.09967	99.98
1.11633	99.99
1.13300	99.98
1.14967	99.99
1.16633	99.99
1.18300	99.99
1.19967	99.98
1.21633	99.99
1.23300	99.99
1.24967	99.99
1.26633	99.98
1.28300	99.99
1.29967	99.99
1.31633	99.99
1.33300	99.99
1.34967	99.99
1.36633	99.99
1.38300	99.99
1.39967	99.99
1.41633	99.99
1.43300	99.99
1.44967	99.99
1.46633	99.98
1.48300	99.99
1.49967	99.99
1.51633	99.99
1.53300	99.99
1.54967	99.98
1.56633	99.98
1.58300	99.98
1.59967	99.98
1.61633	99.99
1.63300	99.99
1.64967	99.99
1.66633	99.98
1.68300	99.99
1.69967	99.99
1.71633	99.98
1.73300	99.99
1.74967	99.99
1.76633	99.99
1.78300	99.98
1.79967	99.98
1.81633	99.98
1.83300	99.98
1.84967	99.98
1.86633	99.98
1.88300	99.98
1.89967	99.98
1.91633	99.98
1.93300	99.98
1.94967	99.98
1.96633	99.98
1.98300	99.97
1.99967	99.98
2.01633	99.97
2.03300	99.97
2.04967	99.97
2.06633	99.97
2.08300	99.98
2.09967	99.98
2.11633	99.97
2.13300	99.97
2.14967	99.97
2.16633	99.97
2.18300	99.97
2.19967	99.97
2.21633	99.97
2.23300	99.96
2.24967	99.97
2.26633	99.96
2.28300	99.96
2.29967	99.97
2.31633	99.96
2.33300	99.97
2.34967	99.96
2.36633	99.97
2.38300	99.97
2.39967	99.96
2.41633	99.97
2.43300	99.96
2.44967	99.96
2.46633	99.96
2.48300	99.96
2.49967	99.97
2.51633	99.97
2.53300	99.97
2.54967	99.97
2.56633	99.97
2.58300	99.97
2.59967	99.97
2.61633	99.97
2.63300	99.97
2.64967	99.98
2.66633	99.97
2.68300	99.98
2.69967	99.98
2.71633	99.98
2.73300	99.98
2.74967	99.98
2.76633	99.98
2.78300	99.99
2.79967	99.99
2.81633	99.98
2.83300	99.99
2.84967	99.99
2.86633	99.99
2.88300	99.99
2.89967	99.99
2.91633	99.99
2.93300	100.00
2.94967	100.00
2.96633	100.00
2.98300	100.00
2.99967	100.01
3.01633	100.01
3.03300	100.00
3.04967	100.01
3.06633	100.01
3.08300	100.01
3.09967	100.01
3.11633	100.01
3.13300	100.01
3.14967	100.02
3.16633	100.01
3.18300	100.02
3.19967	100.02
3.21633	100.02
3.23300	100.03
3.24967	100.02
3.26633	100.02
3.28300	100.02
3.29967	100.03
3.31633	100.03
3.33300	100.03
3.34967	100.03
3.36633	100.03
3.38300	100.03
3.39967	100.04
3.41633	100.03
3.43300	100.04
3.44967	100.04
3.46633	100.04
3.48300	100.04
3.49967	100.04
3.51633	100.04
3.53300	100.04
3.54967	100.04
3.56633	100.04
3.58300	100.03
3.59967	100.04
3.61633	100.05
3.63300	100.04
3.64967	100.05
3.66633	100.04
3.68300	100.05
3.69967	100.05
3.71633	100.05
3.73300	100.04
3.74967	100.05
3.76633	100.05
3.78300	100.04
3.79967	100.04
3.81633	100.04
3.83300	100.05
3.84967	100.05
3.86633	100.05
3.88300	100.04
3.89967	100.04
3.91633	100.05
3.93300	100.04
3.94967	100.05
3.96633	100.04
3.98300	100.04

[Status Trace (Carrier Gas Pressure)]
Interval(msec)	1000
# of Points	239
Start Time(min)	0.016
End Time(min)	3.983
Intensity Units	
Intensity Multiplier	1
R.Time (min)	Intensity
0.01633	56.89
0.03300	55.90
0.04967	58.12
0.06633	59.89
0.08300	58.62
0.09967	57.97
0.11633	58.00
0.13300	58.01
0.14967	58.01
0.16633	58.01
0.18300	58.00
0.19967	58.00
0.21633	58.00
0.23300	58.00
0.24967	58.00
0.26633	58.00
0.28300	58.00
0.29967	58.00
0.31633	58.00
0.33300	58.00
0.34967	58.00
0.36633	58.00
0.38300	58.00
0.39967	58.00
0.41633	58.00
0.43300	58.00
0.44967	58.00
0.46633	58.00
0.48300	58.00
0.49967	58.00
0.51633	58.00
0.53300	58.00
0.54967	58.00
0.56633	58.00
0.58300	58.00
0.59967	58.00
0.61633	58.00
0.63300	58.00
0.64967	58.00
0.66633	58.00
0.68300	58.00
0.69967	58.00
0.71633	58.00
0.73300	58.00
0.74967	58.00
0.76633	58.00
0.78300	58.00
0.79967	58.00
0.81633	58.00
0.83300	58.00
0.84967	58.00
0.86633	58.00
0.88300	58.00
0.89967	58.00
0.91633	58.00
0.93300	58.00
0.94967	58.00
0.96633	58.00
0.98300	58.00
0.99967	58.00
1.01633	58.00
1.03300	58.00
1.04967	58.00
1.06633	58.00
1.08300	58.00
1.09967	58.00
1.11633	58.00
1.13300	58.00
1.14967	58.00
1.16633	58.00
1.18300	58.00
1.19967	58.00
1.21633	58.00
1.23300	58.00
1.24967	58.00
1.26633	58.00
1.28300	58.00
1.29967	58.00
1.31633	58.00
1.33300	58.00
1.34967	58.00
1.36633	58.00
1.38300	58.00
1.39967	58.00
1.41633	58.00
1.43300	58.00
1.44967	58.00
1.46633	58.00
1.48300	58.00
1.49967	58.00
1.51633	58.00
1.53300	58.00
1.54967	58.00
1.56633	58.00
1.58300	58.00
1.59967	58.00
1.61633	58.00
1.63300	58.01
1.64967	58.00
1.66633	58.01
1.68300	58.01
1.69967	58.00
1.71633	58.00
1.73300	58.00
1.74967	58.00
1.76633	58.00
1.78300	58.00
1.79967	58.00
1.81633	58.00
1.83300	58.00
1.84967	58.00
1.86633	58.00
1.88300	58.00
1.89967	58.00
1.91633	58.00
1.93300	58.00
1.94967	58.00
1.96633	58.00
1.98300	58.00
1.99967	58.00
2.01633	58.00
2.03300	58.00
2.04967	58.00
2.06633	58.00
2.08300	58.00
2.09967	58.00
2.11633	58.00
2.13300	58.00
2.14967	58.00
2.16633	58.00
2.18300	58.00
2.19967	58.00
2.21633	58.00
2.23300	58.00
2.24967	58.00
2.26633	58.00
2.28300	58.00
2.29967	58.00
2.31633	58.00
2.33300	58.00
2.34967	58.00
2.36633	58.00
2.38300	57.99
2.39967	57.99
2.41633	58.00
2.43300	58.00
2.44967	58.00
2.46633	58.00
2.48300	58.00
2.49967	58.00
2.51633	57.99
2.53300	57.99
2.54967	58.00
2.56633	58.00
2.58300	58.00
2.59967	58.00
2.61633	58.00
2.63300	58.00
2.64967	58.00
2.66633	58.00
2.68300	58.00
2.69967	58.00
2.71633	58.00
2.73300	58.00
2.74967	58.00
2.76633	58.00
2.78300	58.00
2.79967	58.00
2.81633	58.00
2.83300	58.00
2.84967	58.00
2.86633	58.00
2.88300	58.00
2.89967	58.00
2.91633	58.00
2.93300	58.00
2.94967	58.00
2.96633	58.00
2.98300	58.00
2.99967	58.00
3.01633	58.00
3.03300	58.00
3.04967	58.00
3.06633	58.00
3.08300	58.00
3.09967	58.00
3.11633	58.00
3.13300	58.00
3.14967	58.00
3.16633	58.00
3.18300	58.00
3.19967	58.00
3.21633	58.00
3.23300	58.00
3.24967	58.00
3.26633	58.00
3.28300	58.00
3.29967	58.00
3.31633	58.00
3.33300	58.00
3.34967	58.00
3.36633	58.00
3.38300	58.00
3.39967	58.00
3.41633	58.00
3.43300	58.00
3.44967	58.00
3.46633	58.00
3.48300	58.00
3.49967	58.00
3.51633	58.00
3.53300	58.00
3.54967	58.00
3.56633	58.00
3.58300	58.00
3.59967	58.00
3.61633	58.00
3.63300	58.00
3.64967	58.00
3.66633	58.00
3.68300	58.00
3.69967	58.00
3.71633	58.00
3.73300	58.00
3.74967	58.00
3.76633	58.00
3.78300	58.00
3.79967	58.00
3.81633	58.00
3.83300	58.00
3.84967	58.00
3.86633	58.00
3.88300	58.00
3.89967	58.00
3.91633	58.00
3.93300	58.00
3.94967	58.00
3.96633	58.00
3.98300	58.00

[Status Trace (Carrier Gas Flow)]
Interval(msec)	1000
# of Points	239
Start Time(min)	0.016
End Time(min)	3.983
Intensity Units	
Intensity Multiplier	1
R.Time (min)	Intensity
0.01633	33.93
0.03300	34.54
0.04967	34.54
0.06633	34.51
0.08300	34.51
0.09967	34.52
0.11633	34.52
0.13300	34.52
0.14967	34.52
0.16633	34.52
0.18300	34.52
0.19967	34.52
0.21633	34.51
0.23300	34.53
0.24967	34.51
0.26633	34.53
0.28300	34.51
0.29967	34.53
0.31633	34.53
0.33300	34.52
0.34967	34.52
0.36633	34.52
0.38300	34.52
0.39967	34.52
0.41633	34.52
0.43300	34.52
0.44967	34.52
0.46633	34.52
0.48300	34.52
0.49967	34.52
0.51633	34.52
0.53300	34.52
0.54967	34.52
0.56633	34.52
0.58300	34.52
0.59967	34.52
0.61633	34.51
0.63300	34.52
0.64967	34.52
0.66633	34.52
0.68300	34.52
0.69967	34.52
0.71633	34.52
0.73300	34.52
0.74967	34.52
0.76633	34.52
0.78300	34.52
0.79967	34.52
0.81633	34.52
0.83300	34.52
0.84967	34.52
0.86633	34.52
0.88300	34.52
0.89967	34.52
0.91633	34.52
0.93300	34.52
0.94967	34.52
0.96633	34.52
0.98300	34.52
0.99967	34.52
1.01633	34.52
1.03300	34.52
1.04967	34.52
1.06633	34.52
1.08300	34.52
1.09967	34.52
1.11633	34.52
1.13300	34.52
1.14967	34.52
1.16633	34.52
1.18300	34.52
1.19967	34.52
1.21633	34.52
1.23300	34.52
1.24967	34.52
1.26633	34.52
1.28300	34.52
1.29967	34.52
1.31633	34.52
1.33300	34.52
1.34967	34.52
1.36633	34.52
1.38300	34.52
1.39967	34.52
1.41633	34.52
1.43300	34.52
1.44967	34.52
1.46633	34.52
1.48300	34.52
1.49967	34.52
1.51633	34.52
1.53300	34.52
1.54967	34.52
1.56633	34.52
1.58300	34.52
1.59967	34.52
1.61633	34.52
1.63300	34.52
1.64967	34.52
1.66633	34.52
1.68300	34.52
1.69967	34.52
1.71633	34.52
1.73300	34.52
1.74967	34.52
1.76633	34.52
1.78300	34.52
1.79967	34.52
1.81633	34.52
1.83300	34.52
1.84967	34.52
1.86633	34.52
1.88300	34.52
1.89967	34.52
1.91633	34.52
1.93300	34.52
1.94967	34.52
1.96633	34.52
1.98300	34.52
1.99967	34.52
2.01633	34.52
2.03300	34.52
2.04967	34.52
2.06633	34.52
2.08300	34.52
2.09967	34.52
2.11633	34.52
2.13300	34.52
2.14967	34.52
2.16633	34.52
2.18300	34.52
2.19967	34.52
2.21633	34.52
2.23300	34.52
2.24967	34.52
2.26633	34.52
2.28300	34.52
2.29967	34.52
2.31633	34.52
2.33300	34.52
2.34967	34.52
2.36633	34.52
2.38300	34.52
2.39967	34.52
2.41633	34.52
2.43300	34.52
2.44967	34.52
2.46633	34.52
2.48300	34.52
2.49967	34.52
2.51633	34.51
2.53300	34.52
2.54967	34.51
2.56633	34.52
2.58300	34.52
2.59967	34.52
2.61633	34.52
2.63300	34.52
2.64967	34.52
2.66633	34.52
2.68300	34.52
2.69967	34.52
2.71633	34.52
2.73300	34.52
2.74967	34.52
2.76633	34.52
2.78300	34.52
2.79967	34.52
2.81633	34.52
2.83300	34.52
2.84967	34.52
2.86633	34.52
2.88300	34.52
2.89967	34.52
2.91633	34.52
2.93300	34.52
2.94967	34.52
2.96633	34.52
2.98300	34.52
2.99967	34.52
3.01633	34.52
3.03300	34.52
3.04967	34.52
3.06633	34.52
3.08300	34.52
3.09967	34.52
3.11633	34.52
3.13300	34.52
3.14967	34.52
3.16633	34.52
3.18300	34.52
3.19967	34.52
3.21633	34.52
3.23300	34.52
3.24967	34.52
3.26633	34.52
3.28300	34.52
3.29967	34.52
3.31633	34.52
3.33300	34.52
3.34967	34.52
3.36633	34.52
3.38300	34.52
3.39967	34.52
3.41633	34.52
3.43300	34.52
3.44967	34.52
3.46633	34.52
3.48300	34.52
3.49967	34.52
3.51633	34.52
3.53300	34.52
3.54967	34.52
3.56633	34.52
3.58300	34.52
3.59967	34.52
3.61633	34.52
3.63300	34.52
3.64967	34.52
3.66633	34.52
3.68300	34.52
3.69967	34.52
3.71633	34.52
3.73300	34.52
3.74967	34.52
3.76633	34.52
3.78300	34.52
3.79967	34.52
3.81633	34.52
3.83300	34.52
3.84967	34.52
3.86633	34.52
3.88300	34.52
3.89967	34.52
3.91633	34.52
3.93300	34.52
3.94967	34.52
3.96633	34.52
3.98300	34.52

[Status Trace (Column Flow)]
Interval(msec)	1000
# of Points	239
Start Time(min)	0.016
End Time(min)	3.983
Intensity Units	
Intensity Multiplier	1
R.Time (min)	Intensity
0.01633	5.38
0.03300	5.27
0.04967	5.53
0.06633	5.74
0.08300	5.59
0.09967	5.51
0.11633	5.51
0.13300	5.52
0.14967	5.52
0.16633	5.51
0.18300	5.51
0.19967	5.51
0.21633	5.51
0.23300	5.51
0.24967	5.51
0.26633	5.51
0.28300	5.51
0.29967	5.51
0.31633	5.51
0.33300	5.51
0.34967	5.51
0.36633	5.51
0.38300	5.51
0.39967	5.51
0.41633	5.51
0.43300	5.51
0.44967	5.51
0.46633	5.51
0.48300	5.51
0.49967	5.51
0.51633	5.51
0.53300	5.51
0.54967	5.51
0.56633	5.51
0.58300	5.51
0.59967	5.51
0.61633	5.51
0.63300	5.51
0.64967	5.51
0.66633	5.51
0.68300	5.51
0.69967	5.51
0.71633	5.51
0.73300	5.51
0.74967	5.51
0.76633	5.51
0.78300	5.51
0.79967	5.51
0.81633	5.51
0.83300	5.51
0.84967	5.51
0.86633	5.51
0.88300	5.51
0.89967	5.51
0.91633	5.51
0.93300	5.51
0.94967	5.51
0.96633	5.51
0.98300	5.51
0.99967	5.51
1.01633	5.51
1.03300	5.51
1.04967	5.51
1.06633	5.51
1.08300	5.51
1.09967	5.51
1.11633	5.51
1.13300	5.51
1.14967	5.51
1.16633	5.51
1.18300	5.51
1.19967	5.51
1.21633	5.51
1.23300	5.51
1.24967	5.51
1.26633	5.51
1.28300	5.51
1.29967	5.51
1.31633	5.51
1.33300	5.51
1.34967	5.51
1.36633	5.51
1.38300	5.51
1.39967	5.51
1.41633	5.51
1.43300	5.51
1.44967	5.51
1.46633	5.51
1.48300	5.51
1.49967	5.51
1.51633	5.51
1.53300	5.51
1.54967	5.51
1.56633	5.51
1.58300	5.51
1.59967	5.51
1.61633	5.51
1.63300	5.51
1.64967	5.50
1.66633	5.49
1.68300	5.48
1.69967	5.47
1.71633	5.46
1.73300	5.45
1.74967	5.44
1.76633	5.42
1.78300	5.42
1.79967	5.41
1.81633	5.40
1.83300	5.39
1.84967	5.38
1.86633	5.37
1.88300	5.35
1.89967	5.35
1.91633	5.34
1.93300	5.33
1.94967	5.32
1.96633	5.31
1.98300	5.30
1.99967	5.29
2.01633	5.28
2.03300	5.27
2.04967	5.26
2.06633	5.25
2.08300	5.24
2.09967	5.23
2.11633	5.22
2.13300	5.21
2.14967	5.20
2.16633	5.19
2.18300	5.18
2.19967	5.17
2.21633	5.16
2.23300	5.15
2.24967	5.15
2.26633	5.14
2.28300	5.13
2.29967	5.12
2.31633	5.11
2.33300	5.10
2.34967	5.09
2.36633	5.08
2.38300	5.08
2.39967	5.08
2.41633	5.08
2.43300	5.08
2.44967	5.08
2.46633	5.08
2.48300	5.08
2.49967	5.08
2.51633	5.08
2.53300	5.08
2.54967	5.08
2.56633	5.08
2.58300	5.08
2.59967	5.08
2.61633	5.08
2.63300	5.08
2.64967	5.08
2.66633	5.08
2.68300	5.08
2.69967	5.08
2.71633	5.08
2.73300	5.08
2.74967	5.08
2.76633	5.07
2.78300	5.07
2.79967	5.07
2.81633	5.07
2.83300	5.07
2.84967	5.07
2.86633	5.07
2.88300	5.07
2.89967	5.07
2.91633	5.07
2.93300	5.07
2.94967	5.07
2.96633	5.07
2.98300	5.07
2.99967	5.07
3.01633	5.07
3.03300	5.07
3.04967	5.07
3.06633	5.07
3.08300	5.07
3.09967	5.07
3.11633	5.07
3.13300	5.07
3.14967	5.07
3.16633	5.07
3.18300	5.07
3.19967	5.07
3.21633	5.07
3.23300	5.07
3.24967	5.07
3.26633	5.07
3.28300	5.07
3.29967	5.07
3.31633	5.07
3.33300	5.07
3.34967	5.07
3.36633	5.07
3.38300	5.07
3.39967	5.07
3.41633	5.07
3.43300	5.07
3.44967	5.07
3.46633	5.07
3.48300	5.07
3.49967	5.07
3.51633	5.07
3.53300	5.07
3.54967	5.07
3.56633	5.07
3.58300	5.07
3.59967	5.07
3.61633	5.07
3.63300	5.07
3.64967	5.07
3.66633	5.07
3.68300	5.07
3.69967	5.07
3.71633	5.07
3.73300	5.07
3.74967	5.07
3.76633	5.07
3.78300	5.07
3.79967	5.07
3.81633	5.07
3.83300	5.07
3.84967	5.07
3.86633	5.07
3.88300	5.07
3.89967	5.07
3.91633	5.07
3.93300	5.07
3.94967	5.07
3.96633	5.07
3.98300	5.07

[Status Trace (Linear Velocity)]
Interval(msec)	1000
# of Points	239
Start Time(min)	0.016
End Time(min)	3.983
Intensity Units	
Intensity Multiplier	1
R.Time (min)	Intensity
0.01633	38.28
0.03300	37.64
0.04967	39.09
0.06633	40.25
0.08300	39.42
0.09967	39.00
0.11633	39.02
0.13300	39.02
0.14967	39.02
0.16633	39.02
0.18300	39.02
0.19967	39.02
0.21633	39.02
0.23300	39.02
0.24967	39.02
0.26633	39.02
0.28300	39.02
0.29967	39.02
0.31633	39.02
0.33300	39.02
0.34967	39.02
0.36633	39.01
0.38300	39.01
0.39967	39.01
0.41633	39.01
0.43300	39.01
0.44967	39.01
0.46633	39.01
0.48300	39.01
0.49967	39.02
0.51633	39.01
0.53300	39.01
0.54967	39.02
0.56633	39.02
0.58300	39.02
0.59967	39.02
0.61633	39.02
0.63300	39.02
0.64967	39.02
0.66633	39.02
0.68300	39.02
0.69967	39.02
0.71633	39.02
0.73300	39.02
0.74967	39.02
0.76633	39.02
0.78300	39.02
0.79967	39.02
0.81633	39.02
0.83300	39.02
0.84967	39.02
0.86633	39.02
0.88300	39.02
0.89967	39.02
0.91633	39.02
0.93300	39.02
0.94967	39.02
0.96633	39.02
0.98300	39.02
0.99967	39.02
1.01633	39.02
1.03300	39.01
1.04967	39.01
1.06633	39.02
1.08300	39.02
1.09967	39.02
1.11633	39.02
1.13300	39.01
1.14967	39.01
1.16633	39.02
1.18300	39.02
1.19967	39.02
1.21633	39.02
1.23300	39.02
1.24967	39.02
1.26633	39.02
1.28300	39.02
1.29967	39.02
1.31633	39.02
1.33300	39.01
1.34967	39.01
1.36633	39.01
1.38300	39.02
1.39967	39.01
1.41633	39.01
1.43300	39.02
1.44967	39.02
1.46633	39.02
1.48300	39.02
1.49967	39.02
1.51633	39.02
1.53300	39.02
1.54967	39.02
1.56633	39.02
1.58300	39.02
1.59967	39.01
1.61633	39.01
1.63300	38.99
1.64967	38.97
1.66633	38.94
1.68300	38.91
1.69967	38.87
1.71633	38.84
1.73300	38.81
1.74967	38.77
1.76633	38.74
1.78300	38.71
1.79967	38.68
1.81633	38.65
1.83300	38.62
1.84967	38.59
1.86633	38.56
1.88300	38.53
1.89967	38.50
1.91633	38.47
1.93300	38.44
1.94967	38.40
1.96633	38.37
1.98300	38.35
1.99967	38.32
2.01633	38.28
2.03300	38.26
2.04967	38.23
2.06633	38.20
2.08300	38.17
2.09967	38.13
2.11633	38.10
2.13300	38.08
2.14967	38.05
2.16633	38.02
2.18300	37.99
2.19967	37.96
2.21633	37.93
2.23300	37.90
2.24967	37.87
2.26633	37.84
2.28300	37.81
2.29967	37.78
2.31633	37.75
2.33300	37.72
2.34967	37.69
2.36633	37.67
2.38300	37.66
2.39967	37.66
2.41633	37.66
2.43300	37.66
2.44967	37.66
2.46633	37.66
2.48300	37.66
2.49967	37.65
2.51633	37.64
2.53300	37.64
2.54967	37.65
2.56633	37.65
2.58300	37.65
2.59967	37.65
2.61633	37.65
2.63300	37.65
2.64967	37.64
2.66633	37.64
2.68300	37.64
2.69967	37.64
2.71633	37.64
2.73300	37.64
2.74967	37.64
2.76633	37.64
2.78300	37.64
2.79967	37.64
2.81633	37.64
2.83300	37.64
2.84967	37.63
2.86633	37.64
2.88300	37.63
2.89967	37.64
2.91633	37.64
2.93300	37.64
2.94967	37.64
2.96633	37.63
2.98300	37.63
2.99967	37.63
3.01633	37.63
3.03300	37.63
3.04967	37.63
3.06633	37.63
3.08300	37.63
3.09967	37.63
3.11633	37.63
3.13300	37.63
3.14967	37.63
3.16633	37.63
3.18300	37.63
3.19967	37.63
3.21633	37.63
3.23300	37.63
3.24967	37.63
3.26633	37.63
3.28300	37.62
3.29967	37.62
3.31633	37.62
3.33300	37.62
3.34967	37.62
3.36633	37.62
3.38300	37.62
3.39967	37.62
3.41633	37.62
3.43300	37.62
3.44967	37.62
3.46633	37.62
3.48300	37.62
3.49967	37.62
3.51633	37.62
3.53300	37.62
3.54967	37.62
3.56633	37.62
3.58300	37.62
3.59967	37.62
3.61633	37.62
3.63300	37.62
3.64967	37.62
3.66633	37.62
3.68300	37.62
3.69967	37.62
3.71633	37.62
3.73300	37.62
3.74967	37.62
3.76633	37.62
3.78300	37.62
3.79967	37.62
3.81633	37.62
3.83300	37.62
3.84967	37.62
3.86633	37.62
3.88300	37.62
3.89967	37.62
3.91633	37.62
3.93300	37.63
3.94967	37.63
3.96633	37.63
3.98300	37.63

