[Header]
Application Name	LabSolutions
Version	5.110
Data File Name	C:\Users\User\Desktop\GC Analyses\Jack\UIC Prairie Sampling\9.16.22\220916_101.gcd
Output Date	11/29/2022
Output Time	11:10:22 AM

[File Information]
Type	Data File
Generated	11/28/2022 1:24:20 PM
Generated by	System Administrator
Modified	11/28/2022 1:28:45 PM
Modified by	System Administrator

[Sample Information]
Operator Name	System Administrator
Acquired	11/28/2022 1:24:43 PM
Sample Type	1:Standard
Level	1
Sample Name	220916_UICPrairie
Sample ID	220916_UICPrairie
ISTD Amount1	1
ISTD Amount2	1
ISTD Amount3	1
ISTD Amount4	1
ISTD Amount5	1
ISTD Amount6	1
ISTD Amount7	1
ISTD Amount8	1
ISTD Amount9	1
ISTD Amount10	1
ISTD Amount11	1
ISTD Amount12	1
ISTD Amount13	1
ISTD Amount14	1
ISTD Amount15	1
ISTD Amount16	1
ISTD Amount17	1
ISTD Amount18	1
ISTD Amount19	1
ISTD Amount20	1
ISTD Amount21	1
ISTD Amount22	1
ISTD Amount23	1
ISTD Amount24	1
ISTD Amount25	1
ISTD Amount26	1
ISTD Amount27	1
ISTD Amount28	1
ISTD Amount29	1
ISTD Amount30	1
ISTD Amount31	1
ISTD Amount32	1
Sample Amount	1
Dilution Factor	1
Vial#	1
Injection Volume	1
Injection Count	1
Bar Code	

[Original Files]
Data File	C:\Users\User\Desktop\GC Analyses\Jack\UIC Prairie Sampling\9.16.22\220916_101.gcd
Method File	C:\LabSolutions\Data\GHG_4min_2022\ghg3_togas_w_acet_4 min_new_int.gcm
Batch File	
Report Format File	c:\LabSolutions\System\DEFAULT.lsr

[File Description]


[Configuration]
Instrument Name	C0B7VH3-Instrument1
Instrument #	1
Line #	1
# of Detectors	3
Detector ID	DET#1	DET#2	DET#3
Detector Name	FID	PTCD	ECD
# of Channels	1	1	1

[Peak Table(Ch1)]
# of Peaks	3
Peak#	R.Time	I.Time	F.Time	Area	Height	A/H	Conc.	Mark	ID#	Name	k'	Plate #	Plate Ht.	Tailing	Resolution	Sep.Factor	Area Ratio	Height Ratio	Conc. %	Norm Conc.
1	1.479	1.439	1.542	14050	6346	2.214	100.000	   	1	CO	0.000	8589	17.465	1.210	0.000	0.000	0	0	16.667	16.667
2	1.571	1.542	1.622	4631	2356	1.965	100.000	 V 	2	CH4	0.062	11396	13.163	1.147	1.494	0.000	0	0	16.667	16.667
3	2.000	1.956	2.444	1635619	782870	2.089	400.000	   	3	CO2	0.352	17543	8.550	1.308	7.194	5.680	0	0	66.667	66.667

[Peak Table(Ch2)]
# of Peaks	0

[Peak Table(Ch3)]
# of Peaks	4
Peak#	R.Time	I.Time	F.Time	Area	Height	A/H	Conc.	Mark	ID#	Name	k'	Plate #	Plate Ht.	Tailing	Resolution	Sep.Factor	Area Ratio	Height Ratio	Conc. %	Norm Conc.
1	2.458	2.348	2.554	1442	238	6.069	0.000	   			0.000	6424	23.349	0.000	0.000	0.000	0	0	0.000	0.000
2	2.609	2.554	2.653	751	177	4.230	0.000	 V 			0.061	3155	47.550	0.000	0.975	0.000	0	0	0.000	0.000
3	2.788	2.671	2.825	5154	860	5.992	0.100	   	1	N2O	0.134	75	1991.749	0.000	0.244	2.195	0	0	10.022	10.022
4	2.887	2.825	3.954	46274	5468	8.462	0.900	 V 	1	N2O	0.175	10397	14.427	0.000	0.142	1.300	0	0	89.978	89.978

[Compound Results(Ch1)]
# of IDs	6
ID#	Name	R.Time	Area	Height	Conc.	Curve	3rd	2nd	1st	Constant	Area Ratio	Height Ratio	Conc. %	Norm Conc.
1	CO	1.479	14050	6346	100.000	Linear	0.000000e+00	0.000000e+00	1.405012e+002	0.000000e+00	0	0	16.667	16.667
2	CH4	1.571	4631	2356	100.000	Linear	0.000000e+00	0.000000e+00	4.631302e+001	0.000000e+00	0	0	16.667	16.667
3	CO2	2.000	1635619	782870	400.000	Linear	0.000000e+00	0.000000e+00	4.089046e+003	0.000000e+00	0	0	66.667	66.667
4	Ethylene	0.000	0	0	0.000	Linear	0.000000e+00	0.000000e+00	0.000000e+00	0.000000e+00	0	0	0.000	0.000
5	Acetylene	0.000	0	0	0.000	Linear	0.000000e+00	0.000000e+00	0.000000e+00	0.000000e+00	0	0	0.000	0.000
6	Ethane	0.000	0	0	0.000	Linear	0.000000e+00	0.000000e+00	0.000000e+00	0.000000e+00	0	0	0.000	0.000

[Compound Results(Ch2)]
# of IDs	5
ID#	Name	R.Time	Area	Height	Conc.	Curve	3rd	2nd	1st	Constant	Area Ratio	Height Ratio	Conc. %	Norm Conc.
1	Hydrogen	0.000	0	0	0.000	Linear	0.000000e+00	0.000000e+00	0.000000e+00	0.000000e+00	0	0	0.000	0.000
2	Oxygen	0.000	0	0	0.000	Linear	0.000000e+00	0.000000e+00	0.000000e+00	0.000000e+00	0	0	0.000	0.000
3	Nitrogen	0.000	0	0	0.000	Linear	0.000000e+00	0.000000e+00	0.000000e+00	0.000000e+00	0	0	0.000	0.000
4	Methane	0.000	0	0	0.000	Linear	0.000000e+00	0.000000e+00	0.000000e+00	0.000000e+00	0	0	0.000	0.000
5	Carbon Monoxide	0.000	0	0	0.000	Linear	0.000000e+00	0.000000e+00	0.000000e+00	0.000000e+00	0	0	0.000	0.000

[Compound Results(Ch3)]
# of IDs	2
ID#	Name	R.Time	Area	Height	Conc.	Curve	3rd	2nd	1st	Constant	Area Ratio	Height Ratio	Conc. %	Norm Conc.
1	N2O	2.887	51429	6328	1.000	Linear	0.000000e+00	0.000000e+00	5.142894e+004	0.000000e+00	0	0	100.000	100.000
2	SF6	0.000	0	0	0.000	Linear	0.000000e+00	0.000000e+00	0.000000e+00	0.000000e+00	0	0	0.000	0.000

[Group Results(Ch1)]
# of Groups	0

[Group Results(Ch2)]
# of Groups	0

[Group Results(Ch3)]
# of Groups	0

[Chromatogram (Ch1)]
Interval(msec)	220
# of Points	1091
Start Time(min)	0.002
End Time(min)	3.998
R.Time (min)	Intensity
0.00167	-15
0.00533	-18
0.00900	-23
0.01267	-29
0.01633	-34
0.02000	-38
0.02367	-42
0.02733	-41
0.03100	-38
0.03467	-31
0.03833	-26
0.04200	-21
0.04567	-17
0.04933	-12
0.05300	-11
0.05667	-10
0.06033	-10
0.06400	-13
0.06767	-19
0.07133	-24
0.07500	-26
0.07867	-25
0.08233	-21
0.08600	-16
0.08967	-11
0.09333	-9
0.09700	-12
0.10067	-17
0.10433	-23
0.10800	-26
0.11167	-27
0.11533	-31
0.11900	-34
0.12267	-37
0.12633	-39
0.13000	-39
0.13367	-37
0.13733	-33
0.14100	-28
0.14467	-26
0.14833	-26
0.15200	-29
0.15567	-31
0.15933	-34
0.16300	-36
0.16667	-34
0.17033	-29
0.17400	-24
0.17767	-21
0.18133	-22
0.18500	-27
0.18867	-35
0.19233	-43
0.19600	-47
0.19967	-43
0.20333	-38
0.20700	-33
0.21067	-28
0.21433	-26
0.21800	-26
0.22167	-29
0.22533	-32
0.22900	-35
0.23267	-39
0.23633	-43
0.24000	-46
0.24367	-49
0.24733	-51
0.25100	-49
0.25467	-44
0.25833	-38
0.26200	-33
0.26567	-30
0.26933	-32
0.27300	-37
0.27667	-43
0.28033	-48
0.28400	-52
0.28767	-53
0.29133	-51
0.29500	-47
0.29867	-47
0.30233	-48
0.30600	-50
0.30967	-50
0.31333	-48
0.31700	-46
0.32067	-50
0.32433	-55
0.32800	-57
0.33167	-57
0.33533	-57
0.33900	-57
0.34267	-59
0.34633	-60
0.35000	-58
0.35367	-56
0.35733	-56
0.36100	-60
0.36467	-67
0.36833	-70
0.37200	-69
0.37567	-66
0.37933	-60
0.38300	-57
0.38667	-55
0.39033	-54
0.39400	-56
0.39767	-61
0.40133	-67
0.40500	-69
0.40867	-69
0.41233	-67
0.41600	-64
0.41967	-63
0.42333	-66
0.42700	-69
0.43067	-69
0.43433	-68
0.43800	-65
0.44167	-60
0.44533	-56
0.44900	-52
0.45267	-50
0.45633	-51
0.46000	-56
0.46367	-61
0.46733	-61
0.47100	-61
0.47467	-63
0.47833	-62
0.48200	-60
0.48567	-61
0.48933	-69
0.49300	-77
0.49667	-84
0.50033	-88
0.50400	-87
0.50767	-84
0.51133	-82
0.51500	-82
0.51867	-82
0.52233	-82
0.52600	-80
0.52967	-76
0.53333	-71
0.53700	-66
0.54067	-65
0.54433	-65
0.54800	-66
0.55167	-66
0.55533	-66
0.55900	-65
0.56267	-67
0.56633	-67
0.57000	-62
0.57367	-58
0.57733	-55
0.58100	-58
0.58467	-64
0.58833	-68
0.59200	-67
0.59567	-64
0.59933	-62
0.60300	-65
0.60667	-72
0.61033	-82
0.61400	-89
0.61767	-91
0.62133	-89
0.62500	-85
0.62867	-81
0.63233	-78
0.63600	-79
0.63967	-80
0.64333	-78
0.64700	-74
0.65067	-70
0.65433	-68
0.65800	-69
0.66167	-73
0.66533	-78
0.66900	-81
0.67267	-81
0.67633	-84
0.68000	-88
0.68367	-91
0.68733	-92
0.69100	-90
0.69467	-86
0.69833	-82
0.70200	-80
0.70567	-82
0.70933	-83
0.71300	-87
0.71667	-93
0.72033	-98
0.72400	-99
0.72767	-99
0.73133	-96
0.73500	-94
0.73867	-93
0.74233	-94
0.74600	-97
0.74967	-97
0.75333	-95
0.75700	-93
0.76067	-93
0.76433	-96
0.76800	-99
0.77167	-104
0.77533	-108
0.77900	-109
0.78267	-107
0.78633	-102
0.79000	-97
0.79367	-93
0.79733	-88
0.80100	-83
0.80467	-80
0.80833	-78
0.81200	-78
0.81567	-82
0.81933	-88
0.82300	-96
0.82667	-102
0.83033	-101
0.83400	-94
0.83767	-89
0.84133	-87
0.84500	-88
0.84867	-90
0.85233	-91
0.85600	-90
0.85967	-88
0.86333	-87
0.86700	-88
0.87067	-91
0.87433	-96
0.87800	-97
0.88167	-96
0.88533	-93
0.88900	-91
0.89267	-93
0.89633	-94
0.90000	-95
0.90367	-95
0.90733	-93
0.91100	-93
0.91467	-95
0.91833	-100
0.92200	-106
0.92567	-111
0.92933	-117
0.93300	-123
0.93667	-126
0.94033	-129
0.94400	-132
0.94767	-133
0.95133	-131
0.95500	-127
0.95867	-121
0.96233	-114
0.96600	-106
0.96967	-96
0.97333	-88
0.97700	-84
0.98067	-87
0.98433	-89
0.98800	-86
0.99167	-83
0.99533	-82
0.99900	-84
1.00267	-86
1.00633	-89
1.01000	-91
1.01367	-94
1.01733	-100
1.02100	-111
1.02467	-124
1.02833	-133
1.03200	-135
1.03567	-130
1.03933	-122
1.04300	-117
1.04667	-115
1.05033	-118
1.05400	-123
1.05767	-128
1.06133	-130
1.06500	-131
1.06867	-128
1.07233	-124
1.07600	-120
1.07967	-116
1.08333	-113
1.08700	-112
1.09067	-112
1.09433	-113
1.09800	-112
1.10167	-109
1.10533	-107
1.10900	-107
1.11267	-109
1.11633	-110
1.12000	-112
1.12367	-117
1.12733	-125
1.13100	-131
1.13467	-135
1.13833	-137
1.14200	-136
1.14567	-134
1.14933	-134
1.15300	-133
1.15667	-133
1.16033	-136
1.16400	-138
1.16767	-138
1.17133	-131
1.17500	-121
1.17867	-112
1.18233	-107
1.18600	-106
1.18967	-110
1.19333	-115
1.19700	-118
1.20067	-122
1.20433	-125
1.20800	-126
1.21167	-124
1.21533	-123
1.21900	-122
1.22267	-118
1.22633	-112
1.23000	-109
1.23367	-108
1.23733	-107
1.24100	-104
1.24467	-103
1.24833	-108
1.25200	-115
1.25567	-119
1.25933	-119
1.26300	-116
1.26667	-111
1.27033	-109
1.27400	-113
1.27767	-123
1.28133	-132
1.28500	-138
1.28867	-145
1.29233	-154
1.29600	-161
1.29967	-162
1.30333	-159
1.30700	-156
1.31067	-154
1.31433	-155
1.31800	-157
1.32167	-153
1.32533	-146
1.32900	-136
1.33267	-125
1.33633	-120
1.34000	-119
1.34367	-124
1.34733	-129
1.35100	-133
1.35467	-134
1.35833	-137
1.36200	-142
1.36567	-146
1.36933	-146
1.37300	-142
1.37667	-137
1.38033	-135
1.38400	-137
1.38767	-142
1.39133	-149
1.39500	-152
1.39867	-151
1.40233	-145
1.40600	-134
1.40967	-127
1.41333	-127
1.41700	-131
1.42067	-134
1.42433	-133
1.42800	-129
1.43167	-127
1.43533	-128
1.43900	-121
1.44267	-86
1.44633	45
1.45000	329
1.45367	793
1.45733	1540
1.46100	2576
1.46467	3713
1.46833	4740
1.47200	5538
1.47567	6050
1.47933	6225
1.48300	6017
1.48667	5445
1.49033	4612
1.49400	3684
1.49767	2808
1.50133	2065
1.50500	1480
1.50867	1041
1.51233	721
1.51600	488
1.51967	319
1.52333	198
1.52700	113
1.53067	58
1.53433	21
1.53800	-4
1.54167	-7
1.54533	48
1.54900	225
1.55267	557
1.55633	992
1.56000	1435
1.56367	1815
1.56733	2092
1.57100	2235
1.57467	2206
1.57833	1998
1.58200	1658
1.58567	1268
1.58933	899
1.59300	592
1.59667	361
1.60033	199
1.60400	87
1.60767	11
1.61133	-41
1.61500	-78
1.61867	-106
1.62233	-121
1.62600	-125
1.62967	-126
1.63333	-130
1.63700	-135
1.64067	-140
1.64433	-148
1.64800	-155
1.65167	-164
1.65533	-172
1.65900	-178
1.66267	-180
1.66633	-180
1.67000	-171
1.67367	-160
1.67733	-151
1.68100	-146
1.68467	-146
1.68833	-149
1.69200	-151
1.69567	-150
1.69933	-148
1.70300	-148
1.70667	-150
1.71033	-156
1.71400	-160
1.71767	-160
1.72133	-160
1.72500	-162
1.72867	-165
1.73233	-171
1.73600	-179
1.73967	-187
1.74333	-192
1.74700	-194
1.75067	-191
1.75433	-181
1.75800	-170
1.76167	-160
1.76533	-154
1.76900	-151
1.77267	-151
1.77633	-153
1.78000	-155
1.78367	-157
1.78733	-158
1.79100	-158
1.79467	-158
1.79833	-158
1.80200	-162
1.80567	-167
1.80933	-173
1.81300	-176
1.81667	-177
1.82033	-179
1.82400	-181
1.82767	-180
1.83133	-177
1.83500	-173
1.83867	-169
1.84233	-167
1.84600	-170
1.84967	-175
1.85333	-178
1.85700	-178
1.86067	-177
1.86433	-175
1.86800	-173
1.87167	-171
1.87533	-168
1.87900	-167
1.88267	-169
1.88633	-171
1.89000	-170
1.89367	-168
1.89733	-166
1.90100	-164
1.90467	-163
1.90833	-162
1.91200	-163
1.91567	-167
1.91933	-175
1.92300	-182
1.92667	-184
1.93033	-179
1.93400	-170
1.93767	-162
1.94133	-155
1.94500	-151
1.94867	-149
1.95233	-148
1.95600	-136
1.95967	-24
1.96333	655
1.96700	3813
1.97067	15006
1.97433	45308
1.97800	108928
1.98167	213801
1.98533	352088
1.98900	501836
1.99267	636946
1.99633	735354
2.00000	782764
2.00367	773711
2.00733	712595
2.01100	613894
2.01467	497530
2.01833	382661
2.02200	282310
2.02567	202069
2.02933	141878
2.03300	98710
2.03667	68673
2.04033	48159
2.04400	34291
2.04767	24937
2.05133	18599
2.05500	14261
2.05867	11249
2.06233	9114
2.06600	7570
2.06967	6428
2.07333	5561
2.07700	4887
2.08067	4354
2.08433	3919
2.08800	3558
2.09167	3251
2.09533	2988
2.09900	2760
2.10267	2562
2.10633	2390
2.11000	2240
2.11367	2104
2.11733	1980
2.12100	1869
2.12467	1769
2.12833	1675
2.13200	1589
2.13567	1516
2.13933	1450
2.14300	1387
2.14667	1326
2.15033	1264
2.15400	1205
2.15767	1147
2.16133	1091
2.16500	1046
2.16867	1010
2.17233	980
2.17600	949
2.17967	915
2.18333	883
2.18700	853
2.19067	827
2.19433	803
2.19800	775
2.20167	744
2.20533	715
2.20900	691
2.21267	672
2.21633	656
2.22000	638
2.22367	622
2.22733	606
2.23100	592
2.23467	581
2.23833	570
2.24200	555
2.24567	538
2.24933	520
2.25300	503
2.25667	487
2.26033	471
2.26400	455
2.26767	438
2.27133	423
2.27500	411
2.27867	405
2.28233	401
2.28600	397
2.28967	392
2.29333	385
2.29700	374
2.30067	362
2.30433	350
2.30800	340
2.31167	332
2.31533	325
2.31900	322
2.32267	318
2.32633	312
2.33000	303
2.33367	294
2.33733	287
2.34100	281
2.34467	275
2.34833	269
2.35200	263
2.35567	257
2.35933	252
2.36300	248
2.36667	244
2.37033	243
2.37400	242
2.37767	241
2.38133	239
2.38500	236
2.38867	231
2.39233	225
2.39600	217
2.39967	211
2.40333	209
2.40700	205
2.41067	201
2.41433	199
2.41800	198
2.42167	197
2.42533	200
2.42900	203
2.43267	203
2.43633	200
2.44000	196
2.44367	190
2.44733	183
2.45100	179
2.45467	173
2.45833	166
2.46200	162
2.46567	164
2.46933	166
2.47300	167
2.47667	165
2.48033	161
2.48400	156
2.48767	151
2.49133	149
2.49500	149
2.49867	148
2.50233	145
2.50600	140
2.50967	134
2.51333	126
2.51700	119
2.52067	113
2.52433	109
2.52800	108
2.53167	109
2.53533	111
2.53900	114
2.54267	118
2.54633	122
2.55000	125
2.55367	124
2.55733	120
2.56100	113
2.56467	105
2.56833	100
2.57200	98
2.57567	99
2.57933	101
2.58300	103
2.58667	103
2.59033	101
2.59400	99
2.59767	97
2.60133	93
2.60500	87
2.60867	82
2.61233	81
2.61600	78
2.61967	76
2.62333	74
2.62700	72
2.63067	68
2.63433	65
2.63800	67
2.64167	71
2.64533	71
2.64900	69
2.65267	68
2.65633	68
2.66000	70
2.66367	72
2.66733	71
2.67100	67
2.67467	60
2.67833	52
2.68200	49
2.68567	48
2.68933	49
2.69300	53
2.69667	60
2.70033	67
2.70400	72
2.70767	74
2.71133	70
2.71500	68
2.71867	70
2.72233	70
2.72600	66
2.72967	61
2.73333	60
2.73700	60
2.74067	60
2.74433	60
2.74800	58
2.75167	52
2.75533	46
2.75900	44
2.76267	45
2.76633	43
2.77000	34
2.77367	20
2.77733	9
2.78100	5
2.78467	11
2.78833	22
2.79200	29
2.79567	30
2.79933	28
2.80300	26
2.80667	22
2.81033	20
2.81400	20
2.81767	24
2.82133	29
2.82500	33
2.82867	37
2.83233	35
2.83600	30
2.83967	28
2.84333	27
2.84700	24
2.85067	20
2.85433	16
2.85800	16
2.86167	18
2.86533	20
2.86900	22
2.87267	24
2.87633	25
2.88000	25
2.88367	27
2.88733	30
2.89100	31
2.89467	29
2.89833	26
2.90200	21
2.90567	15
2.90933	9
2.91300	8
2.91667	13
2.92033	22
2.92400	31
2.92767	35
2.93133	35
2.93500	34
2.93867	35
2.94233	31
2.94600	24
2.94967	17
2.95333	14
2.95700	16
2.96067	17
2.96433	14
2.96800	11
2.97167	10
2.97533	13
2.97900	16
2.98267	16
2.98633	16
2.99000	18
2.99367	23
2.99733	29
3.00100	32
3.00467	29
3.00833	21
3.01200	14
3.01567	15
3.01933	20
3.02300	24
3.02667	26
3.03033	28
3.03400	29
3.03767	28
3.04133	25
3.04500	24
3.04867	24
3.05233	24
3.05600	21
3.05967	19
3.06333	15
3.06700	13
3.07067	13
3.07433	13
3.07800	13
3.08167	12
3.08533	9
3.08900	4
3.09267	0
3.09633	-4
3.10000	-10
3.10367	-17
3.10733	-21
3.11100	-24
3.11467	-24
3.11833	-22
3.12200	-17
3.12567	-14
3.12933	-13
3.13300	-13
3.13667	-9
3.14033	-1
3.14400	6
3.14767	9
3.15133	6
3.15500	1
3.15867	-2
3.16233	-5
3.16600	-8
3.16967	-12
3.17333	-17
3.17700	-24
3.18067	-28
3.18433	-24
3.18800	-16
3.19167	-7
3.19533	-1
3.19900	-2
3.20267	-7
3.20633	-9
3.21000	-6
3.21367	-2
3.21733	1
3.22100	0
3.22467	-2
3.22833	-6
3.23200	-11
3.23567	-15
3.23933	-16
3.24300	-18
3.24667	-21
3.25033	-21
3.25400	-19
3.25767	-16
3.26133	-15
3.26500	-13
3.26867	-9
3.27233	-2
3.27600	-1
3.27967	-2
3.28333	-3
3.28700	-3
3.29067	-6
3.29433	-11
3.29800	-14
3.30167	-15
3.30533	-14
3.30900	-13
3.31267	-13
3.31633	-13
3.32000	-15
3.32367	-17
3.32733	-18
3.33100	-20
3.33467	-24
3.33833	-32
3.34200	-35
3.34567	-34
3.34933	-31
3.35300	-28
3.35667	-25
3.36033	-23
3.36400	-23
3.36767	-25
3.37133	-29
3.37500	-32
3.37867	-35
3.38233	-36
3.38600	-40
3.38967	-46
3.39333	-47
3.39700	-41
3.40067	-36
3.40433	-30
3.40800	-26
3.41167	-26
3.41533	-31
3.41900	-34
3.42267	-35
3.42633	-36
3.43000	-39
3.43367	-43
3.43733	-46
3.44100	-46
3.44467	-42
3.44833	-36
3.45200	-33
3.45567	-34
3.45933	-37
3.46300	-44
3.46667	-49
3.47033	-53
3.47400	-58
3.47767	-64
3.48133	-66
3.48500	-63
3.48867	-52
3.49233	-38
3.49600	-24
3.49967	-10
3.50333	-3
3.50700	-3
3.51067	-10
3.51433	-19
3.51800	-27
3.52167	-35
3.52533	-42
3.52900	-46
3.53267	-48
3.53633	-45
3.54000	-39
3.54367	-35
3.54733	-33
3.55100	-34
3.55467	-36
3.55833	-38
3.56200	-40
3.56567	-41
3.56933	-43
3.57300	-44
3.57667	-44
3.58033	-42
3.58400	-41
3.58767	-38
3.59133	-38
3.59500	-41
3.59867	-42
3.60233	-39
3.60600	-34
3.60967	-30
3.61333	-26
3.61700	-22
3.62067	-20
3.62433	-22
3.62800	-25
3.63167	-28
3.63533	-29
3.63900	-25
3.64267	-21
3.64633	-20
3.65000	-21
3.65367	-25
3.65733	-25
3.66100	-21
3.66467	-17
3.66833	-18
3.67200	-23
3.67567	-31
3.67933	-40
3.68300	-46
3.68667	-47
3.69033	-47
3.69400	-44
3.69767	-39
3.70133	-35
3.70500	-33
3.70867	-36
3.71233	-41
3.71600	-45
3.71967	-47
3.72333	-49
3.72700	-51
3.73067	-51
3.73433	-46
3.73800	-36
3.74167	-26
3.74533	-18
3.74900	-14
3.75267	-13
3.75633	-15
3.76000	-18
3.76367	-18
3.76733	-19
3.77100	-23
3.77467	-27
3.77833	-26
3.78200	-26
3.78567	-23
3.78933	-18
3.79300	-14
3.79667	-14
3.80033	-22
3.80400	-32
3.80767	-38
3.81133	-42
3.81500	-45
3.81867	-47
3.82233	-48
3.82600	-49
3.82967	-47
3.83333	-41
3.83700	-33
3.84067	-28
3.84433	-26
3.84800	-28
3.85167	-33
3.85533	-37
3.85900	-41
3.86267	-42
3.86633	-43
3.87000	-41
3.87367	-37
3.87733	-31
3.88100	-26
3.88467	-20
3.88833	-15
3.89200	-11
3.89567	-12
3.89933	-19
3.90300	-30
3.90667	-38
3.91033	-41
3.91400	-41
3.91767	-41
3.92133	-45
3.92500	-49
3.92867	-49
3.93233	-45
3.93600	-42
3.93967	-43
3.94333	-45
3.94700	-45
3.95067	-45
3.95433	-44
3.95800	-42
3.96167	-42
3.96533	-46
3.96900	-53
3.97267	-61
3.97633	-64
3.98000	-58
3.98367	-45
3.98733	-31
3.99100	-23
3.99467	-18
3.99833	-15

[Chromatogram (Ch2)]
Interval(msec)	220
# of Points	1091
Start Time(min)	0.002
End Time(min)	3.998
R.Time (min)	Intensity
0.00167	0
0.00533	0
0.00900	0
0.01267	0
0.01633	1
0.02000	1
0.02367	0
0.02733	0
0.03100	0
0.03467	0
0.03833	-0
0.04200	-0
0.04567	-1
0.04933	-1
0.05300	-1
0.05667	-1
0.06033	-1
0.06400	-1
0.06767	-1
0.07133	-1
0.07500	-1
0.07867	-1
0.08233	-1
0.08600	-1
0.08967	-1
0.09333	-1
0.09700	-0
0.10067	-0
0.10433	-0
0.10800	-0
0.11167	-0
0.11533	-0
0.11900	-0
0.12267	-0
0.12633	-1
0.13000	-1
0.13367	-1
0.13733	-1
0.14100	-1
0.14467	-1
0.14833	-1
0.15200	-1
0.15567	-1
0.15933	-1
0.16300	-1
0.16667	-2
0.17033	-2
0.17400	-2
0.17767	-3
0.18133	-3
0.18500	-3
0.18867	-3
0.19233	-3
0.19600	-3
0.19967	-3
0.20333	-3
0.20700	-3
0.21067	-3
0.21433	-3
0.21800	-3
0.22167	-3
0.22533	-3
0.22900	-3
0.23267	-3
0.23633	-3
0.24000	-3
0.24367	-3
0.24733	-2
0.25100	-2
0.25467	-2
0.25833	-2
0.26200	-2
0.26567	-2
0.26933	-2
0.27300	-2
0.27667	-2
0.28033	-2
0.28400	-1
0.28767	-1
0.29133	-1
0.29500	-1
0.29867	-1
0.30233	-1
0.30600	-1
0.30967	-1
0.31333	-1
0.31700	-1
0.32067	-1
0.32433	-1
0.32800	-1
0.33167	-1
0.33533	-1
0.33900	-1
0.34267	-2
0.34633	-2
0.35000	-2
0.35367	-2
0.35733	-2
0.36100	-2
0.36467	-1
0.36833	-1
0.37200	-1
0.37567	-1
0.37933	-1
0.38300	-1
0.38667	-1
0.39033	-1
0.39400	-1
0.39767	-1
0.40133	-1
0.40500	-1
0.40867	-2
0.41233	-2
0.41600	-2
0.41967	-2
0.42333	-2
0.42700	-1
0.43067	-1
0.43433	-1
0.43800	-1
0.44167	-1
0.44533	-1
0.44900	-1
0.45267	-1
0.45633	-1
0.46000	-1
0.46367	-1
0.46733	-1
0.47100	-1
0.47467	-1
0.47833	-1
0.48200	-1
0.48567	-1
0.48933	-1
0.49300	-1
0.49667	-1
0.50033	-2
0.50400	-2
0.50767	-2
0.51133	-2
0.51500	-2
0.51867	-2
0.52233	-1
0.52600	-1
0.52967	-1
0.53333	-1
0.53700	-1
0.54067	-1
0.54433	-1
0.54800	-1
0.55167	-1
0.55533	-1
0.55900	-1
0.56267	-1
0.56633	-1
0.57000	-1
0.57367	-1
0.57733	-1
0.58100	-1
0.58467	-1
0.58833	-1
0.59200	-1
0.59567	-2
0.59933	-2
0.60300	-2
0.60667	-2
0.61033	-2
0.61400	-2
0.61767	-2
0.62133	-2
0.62500	-2
0.62867	-3
0.63233	-3
0.63600	-3
0.63967	-3
0.64333	-3
0.64700	-3
0.65067	-3
0.65433	-3
0.65800	-3
0.66167	-3
0.66533	-3
0.66900	-3
0.67267	-3
0.67633	-3
0.68000	-3
0.68367	-3
0.68733	-3
0.69100	-2
0.69467	-2
0.69833	-2
0.70200	-2
0.70567	-2
0.70933	-2
0.71300	-2
0.71667	-2
0.72033	-2
0.72400	-2
0.72767	-2
0.73133	-2
0.73500	-2
0.73867	-1
0.74233	-1
0.74600	-1
0.74967	-2
0.75333	-2
0.75700	-2
0.76067	-2
0.76433	-2
0.76800	-2
0.77167	-2
0.77533	-3
0.77900	-3
0.78267	-3
0.78633	-3
0.79000	-4
0.79367	-4
0.79733	-4
0.80100	-4
0.80467	-4
0.80833	-5
0.81200	-5
0.81567	-5
0.81933	-5
0.82300	-5
0.82667	-5
0.83033	-5
0.83400	-5
0.83767	-5
0.84133	-5
0.84500	-5
0.84867	-5
0.85233	-5
0.85600	-5
0.85967	-5
0.86333	-5
0.86700	-5
0.87067	-5
0.87433	-5
0.87800	-4
0.88167	-4
0.88533	-4
0.88900	-4
0.89267	-3
0.89633	-3
0.90000	-3
0.90367	-2
0.90733	-2
0.91100	-2
0.91467	-2
0.91833	-2
0.92200	-2
0.92567	-2
0.92933	-2
0.93300	-2
0.93667	-1
0.94033	-1
0.94400	-1
0.94767	-1
0.95133	-1
0.95500	-1
0.95867	-1
0.96233	-2
0.96600	-2
0.96967	-2
0.97333	-2
0.97700	-2
0.98067	-2
0.98433	-2
0.98800	-2
0.99167	-2
0.99533	-2
0.99900	-2
1.00267	-2
1.00633	-2
1.01000	-2
1.01367	-2
1.01733	-2
1.02100	-3
1.02467	-3
1.02833	-3
1.03200	-3
1.03567	-3
1.03933	-3
1.04300	-3
1.04667	-3
1.05033	-3
1.05400	-3
1.05767	-3
1.06133	-3
1.06500	-3
1.06867	-3
1.07233	-3
1.07600	-3
1.07967	-4
1.08333	-4
1.08700	-4
1.09067	-4
1.09433	-4
1.09800	-4
1.10167	-4
1.10533	-4
1.10900	-4
1.11267	-3
1.11633	-3
1.12000	-3
1.12367	-3
1.12733	-4
1.13100	-4
1.13467	-4
1.13833	-4
1.14200	-4
1.14567	-4
1.14933	-4
1.15300	-4
1.15667	-4
1.16033	-4
1.16400	-4
1.16767	-3
1.17133	-3
1.17500	-3
1.17867	-3
1.18233	-3
1.18600	-3
1.18967	-3
1.19333	-3
1.19700	-3
1.20067	-3
1.20433	-3
1.20800	-3
1.21167	-4
1.21533	-4
1.21900	-4
1.22267	-4
1.22633	-4
1.23000	-4
1.23367	-4
1.23733	-3
1.24100	-3
1.24467	-3
1.24833	-3
1.25200	-3
1.25567	-3
1.25933	-3
1.26300	-4
1.26667	-4
1.27033	-4
1.27400	-5
1.27767	-5
1.28133	-5
1.28500	-4
1.28867	-4
1.29233	-4
1.29600	-4
1.29967	-4
1.30333	-4
1.30700	-4
1.31067	-4
1.31433	-4
1.31800	-4
1.32167	-4
1.32533	-4
1.32900	-4
1.33267	-4
1.33633	-4
1.34000	-4
1.34367	-4
1.34733	-4
1.35100	-4
1.35467	-4
1.35833	-5
1.36200	-5
1.36567	-5
1.36933	-5
1.37300	-5
1.37667	-5
1.38033	-4
1.38400	-4
1.38767	-4
1.39133	-4
1.39500	-4
1.39867	-4
1.40233	-4
1.40600	-4
1.40967	-4
1.41333	-5
1.41700	-5
1.42067	-5
1.42433	-5
1.42800	-6
1.43167	-6
1.43533	-6
1.43900	-6
1.44267	-6
1.44633	-6
1.45000	-6
1.45367	-6
1.45733	-6
1.46100	-5
1.46467	-5
1.46833	-5
1.47200	-5
1.47567	-5
1.47933	-5
1.48300	-5
1.48667	-5
1.49033	-5
1.49400	-4
1.49767	-4
1.50133	-4
1.50500	-4
1.50867	-4
1.51233	-4
1.51600	-4
1.51967	-4
1.52333	-4
1.52700	-4
1.53067	-4
1.53433	-4
1.53800	-4
1.54167	-4
1.54533	-4
1.54900	-4
1.55267	-4
1.55633	-4
1.56000	-4
1.56367	-4
1.56733	-4
1.57100	-4
1.57467	-4
1.57833	-4
1.58200	-4
1.58567	-4
1.58933	-4
1.59300	-4
1.59667	-5
1.60033	-6
1.60400	-7
1.60767	-8
1.61133	-10
1.61500	-12
1.61867	-14
1.62233	-17
1.62600	-19
1.62967	-22
1.63333	-25
1.63700	-29
1.64067	-32
1.64433	-35
1.64800	-39
1.65167	-42
1.65533	-46
1.65900	-49
1.66267	-53
1.66633	-57
1.67000	-62
1.67367	-67
1.67733	-72
1.68100	-77
1.68467	-82
1.68833	-86
1.69200	-91
1.69567	-94
1.69933	-98
1.70300	-100
1.70667	-103
1.71033	-105
1.71400	-107
1.71767	-109
1.72133	-110
1.72500	-111
1.72867	-112
1.73233	-113
1.73600	-114
1.73967	-115
1.74333	-115
1.74700	-115
1.75067	-116
1.75433	-116
1.75800	-116
1.76167	-117
1.76533	-117
1.76900	-118
1.77267	-119
1.77633	-120
1.78000	-120
1.78367	-121
1.78733	-122
1.79100	-122
1.79467	-122
1.79833	-122
1.80200	-122
1.80567	-122
1.80933	-122
1.81300	-122
1.81667	-122
1.82033	-122
1.82400	-122
1.82767	-122
1.83133	-122
1.83500	-122
1.83867	-122
1.84233	-122
1.84600	-121
1.84967	-121
1.85333	-121
1.85700	-121
1.86067	-121
1.86433	-121
1.86800	-121
1.87167	-121
1.87533	-121
1.87900	-121
1.88267	-121
1.88633	-121
1.89000	-121
1.89367	-121
1.89733	-121
1.90100	-121
1.90467	-121
1.90833	-120
1.91200	-120
1.91567	-120
1.91933	-119
1.92300	-119
1.92667	-120
1.93033	-120
1.93400	-120
1.93767	-120
1.94133	-120
1.94500	-120
1.94867	-120
1.95233	-119
1.95600	-119
1.95967	-118
1.96333	-118
1.96700	-117
1.97067	-116
1.97433	-115
1.97800	-115
1.98167	-115
1.98533	-114
1.98900	-114
1.99267	-114
1.99633	-114
2.00000	-114
2.00367	-114
2.00733	-114
2.01100	-114
2.01467	-114
2.01833	-114
2.02200	-114
2.02567	-114
2.02933	-113
2.03300	-113
2.03667	-112
2.04033	-112
2.04400	-112
2.04767	-112
2.05133	-111
2.05500	-111
2.05867	-111
2.06233	-111
2.06600	-110
2.06967	-110
2.07333	-109
2.07700	-109
2.08067	-108
2.08433	-108
2.08800	-107
2.09167	-107
2.09533	-107
2.09900	-107
2.10267	-107
2.10633	-107
2.11000	-107
2.11367	-106
2.11733	-106
2.12100	-106
2.12467	-106
2.12833	-105
2.13200	-105
2.13567	-104
2.13933	-104
2.14300	-103
2.14667	-103
2.15033	-103
2.15400	-102
2.15767	-102
2.16133	-102
2.16500	-102
2.16867	-102
2.17233	-101
2.17600	-101
2.17967	-101
2.18333	-100
2.18700	-100
2.19067	-100
2.19433	-99
2.19800	-99
2.20167	-98
2.20533	-98
2.20900	-97
2.21267	-97
2.21633	-96
2.22000	-96
2.22367	-97
2.22733	-97
2.23100	-97
2.23467	-97
2.23833	-97
2.24200	-97
2.24567	-97
2.24933	-96
2.25300	-96
2.25667	-96
2.26033	-95
2.26400	-95
2.26767	-94
2.27133	-93
2.27500	-93
2.27867	-92
2.28233	-92
2.28600	-91
2.28967	-91
2.29333	-90
2.29700	-90
2.30067	-89
2.30433	-89
2.30800	-90
2.31167	-90
2.31533	-91
2.31900	-91
2.32267	-92
2.32633	-92
2.33000	-92
2.33367	-91
2.33733	-90
2.34100	-89
2.34467	-88
2.34833	-87
2.35200	-86
2.35567	-84
2.35933	-83
2.36300	-81
2.36667	-80
2.37033	-78
2.37400	-76
2.37767	-74
2.38133	-71
2.38500	-68
2.38867	-65
2.39233	-62
2.39600	-58
2.39967	-54
2.40333	-50
2.40700	-46
2.41067	-42
2.41433	-38
2.41800	-35
2.42167	-32
2.42533	-29
2.42900	-27
2.43267	-24
2.43633	-22
2.44000	-20
2.44367	-18
2.44733	-16
2.45100	-14
2.45467	-12
2.45833	-11
2.46200	-9
2.46567	-7
2.46933	-6
2.47300	-5
2.47667	-4
2.48033	-3
2.48400	-2
2.48767	-1
2.49133	-0
2.49500	1
2.49867	2
2.50233	3
2.50600	4
2.50967	5
2.51333	6
2.51700	7
2.52067	8
2.52433	9
2.52800	9
2.53167	9
2.53533	9
2.53900	9
2.54267	9
2.54633	9
2.55000	10
2.55367	10
2.55733	11
2.56100	11
2.56467	12
2.56833	12
2.57200	12
2.57567	12
2.57933	12
2.58300	12
2.58667	12
2.59033	12
2.59400	12
2.59767	11
2.60133	11
2.60500	11
2.60867	12
2.61233	12
2.61600	12
2.61967	12
2.62333	12
2.62700	13
2.63067	13
2.63433	13
2.63800	14
2.64167	14
2.64533	15
2.64900	15
2.65267	16
2.65633	16
2.66000	16
2.66367	16
2.66733	16
2.67100	17
2.67467	17
2.67833	17
2.68200	17
2.68567	17
2.68933	17
2.69300	17
2.69667	17
2.70033	17
2.70400	17
2.70767	17
2.71133	17
2.71500	17
2.71867	17
2.72233	17
2.72600	18
2.72967	18
2.73333	19
2.73700	19
2.74067	20
2.74433	20
2.74800	21
2.75167	21
2.75533	21
2.75900	21
2.76267	20
2.76633	20
2.77000	20
2.77367	19
2.77733	19
2.78100	19
2.78467	19
2.78833	19
2.79200	20
2.79567	20
2.79933	20
2.80300	21
2.80667	21
2.81033	21
2.81400	22
2.81767	22
2.82133	22
2.82500	22
2.82867	22
2.83233	23
2.83600	23
2.83967	23
2.84333	23
2.84700	23
2.85067	23
2.85433	22
2.85800	20
2.86167	17
2.86533	12
2.86900	4
2.87267	-6
2.87633	-20
2.88000	-38
2.88367	-60
2.88733	-85
2.89100	-115
2.89467	-148
2.89833	-184
2.90200	-224
2.90567	-266
2.90933	-311
2.91300	-358
2.91667	-406
2.92033	-455
2.92400	-505
2.92767	-555
2.93133	-606
2.93500	-656
2.93867	-706
2.94233	-755
2.94600	-805
2.94967	-856
2.95333	-912
2.95700	-973
2.96067	-1033
2.96433	-1079
2.96800	-1103
2.97167	-1101
2.97533	-1074
2.97900	-1024
2.98267	-960
2.98633	-885
2.99000	-805
2.99367	-724
2.99733	-646
3.00100	-571
3.00467	-501
3.00833	-437
3.01200	-379
3.01567	-328
3.01933	-282
3.02300	-242
3.02667	-207
3.03033	-176
3.03400	-149
3.03767	-126
3.04133	-107
3.04500	-90
3.04867	-75
3.05233	-63
3.05600	-53
3.05967	-43
3.06333	-36
3.06700	-29
3.07067	-23
3.07433	-19
3.07800	-15
3.08167	-11
3.08533	-8
3.08900	-5
3.09267	-3
3.09633	-1
3.10000	0
3.10367	2
3.10733	3
3.11100	4
3.11467	5
3.11833	6
3.12200	7
3.12567	8
3.12933	8
3.13300	9
3.13667	10
3.14033	10
3.14400	10
3.14767	11
3.15133	11
3.15500	12
3.15867	12
3.16233	12
3.16600	13
3.16967	13
3.17333	13
3.17700	13
3.18067	14
3.18433	14
3.18800	14
3.19167	15
3.19533	15
3.19900	15
3.20267	15
3.20633	15
3.21000	15
3.21367	16
3.21733	16
3.22100	16
3.22467	16
3.22833	16
3.23200	17
3.23567	17
3.23933	17
3.24300	17
3.24667	17
3.25033	18
3.25400	18
3.25767	18
3.26133	18
3.26500	18
3.26867	18
3.27233	18
3.27600	18
3.27967	18
3.28333	18
3.28700	18
3.29067	18
3.29433	18
3.29800	18
3.30167	19
3.30533	19
3.30900	19
3.31267	19
3.31633	20
3.32000	20
3.32367	21
3.32733	21
3.33100	22
3.33467	22
3.33833	22
3.34200	23
3.34567	23
3.34933	23
3.35300	23
3.35667	23
3.36033	22
3.36400	22
3.36767	22
3.37133	22
3.37500	22
3.37867	22
3.38233	22
3.38600	22
3.38967	22
3.39333	22
3.39700	22
3.40067	22
3.40433	22
3.40800	22
3.41167	22
3.41533	22
3.41900	22
3.42267	22
3.42633	22
3.43000	22
3.43367	22
3.43733	22
3.44100	22
3.44467	22
3.44833	22
3.45200	22
3.45567	22
3.45933	23
3.46300	23
3.46667	22
3.47033	22
3.47400	23
3.47767	23
3.48133	23
3.48500	23
3.48867	23
3.49233	23
3.49600	23
3.49967	22
3.50333	22
3.50700	22
3.51067	22
3.51433	22
3.51800	22
3.52167	22
3.52533	22
3.52900	22
3.53267	23
3.53633	23
3.54000	23
3.54367	23
3.54733	23
3.55100	23
3.55467	23
3.55833	23
3.56200	23
3.56567	23
3.56933	23
3.57300	23
3.57667	22
3.58033	22
3.58400	22
3.58767	22
3.59133	22
3.59500	22
3.59867	22
3.60233	22
3.60600	22
3.60967	22
3.61333	22
3.61700	22
3.62067	22
3.62433	22
3.62800	22
3.63167	22
3.63533	22
3.63900	22
3.64267	22
3.64633	22
3.65000	22
3.65367	22
3.65733	22
3.66100	22
3.66467	22
3.66833	21
3.67200	21
3.67567	21
3.67933	21
3.68300	22
3.68667	22
3.69033	22
3.69400	23
3.69767	23
3.70133	23
3.70500	23
3.70867	23
3.71233	23
3.71600	23
3.71967	24
3.72333	24
3.72700	24
3.73067	24
3.73433	24
3.73800	24
3.74167	24
3.74533	24
3.74900	24
3.75267	24
3.75633	24
3.76000	24
3.76367	24
3.76733	24
3.77100	24
3.77467	24
3.77833	24
3.78200	24
3.78567	24
3.78933	24
3.79300	24
3.79667	24
3.80033	24
3.80400	24
3.80767	24
3.81133	24
3.81500	24
3.81867	24
3.82233	24
3.82600	24
3.82967	24
3.83333	24
3.83700	23
3.84067	23
3.84433	23
3.84800	23
3.85167	23
3.85533	23
3.85900	23
3.86267	23
3.86633	23
3.87000	23
3.87367	23
3.87733	23
3.88100	23
3.88467	23
3.88833	23
3.89200	23
3.89567	24
3.89933	24
3.90300	24
3.90667	23
3.91033	23
3.91400	23
3.91767	23
3.92133	23
3.92500	23
3.92867	23
3.93233	23
3.93600	22
3.93967	22
3.94333	22
3.94700	22
3.95067	23
3.95433	23
3.95800	23
3.96167	23
3.96533	23
3.96900	23
3.97267	23
3.97633	24
3.98000	23
3.98367	23
3.98733	24
3.99100	24
3.99467	24
3.99833	23

[Chromatogram (Ch3)]
Interval(msec)	220
# of Points	1091
Start Time(min)	0.002
End Time(min)	3.998
R.Time (min)	Intensity
0.00167	0
0.00533	1
0.00900	2
0.01267	4
0.01633	5
0.02000	4
0.02367	4
0.02733	4
0.03100	2
0.03467	2
0.03833	1
0.04200	1
0.04567	0
0.04933	-2
0.05300	-3
0.05667	-3
0.06033	-1
0.06400	1
0.06767	4
0.07133	4
0.07500	2
0.07867	0
0.08233	1
0.08600	0
0.08967	0
0.09333	1
0.09700	2
0.10067	2
0.10433	2
0.10800	3
0.11167	5
0.11533	4
0.11900	3
0.12267	2
0.12633	1
0.13000	0
0.13367	2
0.13733	3
0.14100	3
0.14467	3
0.14833	2
0.15200	2
0.15567	2
0.15933	2
0.16300	2
0.16667	1
0.17033	2
0.17400	4
0.17767	6
0.18133	7
0.18500	8
0.18867	10
0.19233	11
0.19600	12
0.19967	12
0.20333	9
0.20700	5
0.21067	2
0.21433	2
0.21800	2
0.22167	1
0.22533	2
0.22900	3
0.23267	6
0.23633	8
0.24000	9
0.24367	7
0.24733	6
0.25100	5
0.25467	6
0.25833	5
0.26200	5
0.26567	5
0.26933	5
0.27300	4
0.27667	4
0.28033	3
0.28400	3
0.28767	1
0.29133	2
0.29500	6
0.29867	8
0.30233	8
0.30600	7
0.30967	7
0.31333	7
0.31700	7
0.32067	8
0.32433	11
0.32800	12
0.33167	12
0.33533	11
0.33900	12
0.34267	14
0.34633	14
0.35000	13
0.35367	15
0.35733	14
0.36100	11
0.36467	11
0.36833	9
0.37200	8
0.37567	10
0.37933	11
0.38300	11
0.38667	11
0.39033	12
0.39400	11
0.39767	11
0.40133	10
0.40500	9
0.40867	9
0.41233	10
0.41600	10
0.41967	9
0.42333	9
0.42700	8
0.43067	9
0.43433	12
0.43800	13
0.44167	15
0.44533	15
0.44900	15
0.45267	16
0.45633	17
0.46000	16
0.46367	16
0.46733	19
0.47100	21
0.47467	22
0.47833	22
0.48200	18
0.48567	17
0.48933	19
0.49300	19
0.49667	16
0.50033	15
0.50400	14
0.50767	13
0.51133	11
0.51500	10
0.51867	10
0.52233	10
0.52600	12
0.52967	15
0.53333	17
0.53700	18
0.54067	17
0.54433	15
0.54800	15
0.55167	14
0.55533	13
0.55900	12
0.56267	10
0.56633	10
0.57000	11
0.57367	14
0.57733	15
0.58100	16
0.58467	15
0.58833	13
0.59200	12
0.59567	11
0.59933	9
0.60300	8
0.60667	7
0.61033	7
0.61400	8
0.61767	6
0.62133	5
0.62500	3
0.62867	5
0.63233	6
0.63600	9
0.63967	11
0.64333	11
0.64700	12
0.65067	13
0.65433	12
0.65800	12
0.66167	13
0.66533	13
0.66900	11
0.67267	10
0.67633	10
0.68000	11
0.68367	10
0.68733	12
0.69100	14
0.69467	14
0.69833	12
0.70200	10
0.70567	11
0.70933	10
0.71300	10
0.71667	11
0.72033	14
0.72400	13
0.72767	14
0.73133	16
0.73500	18
0.73867	18
0.74233	17
0.74600	20
0.74967	22
0.75333	21
0.75700	19
0.76067	15
0.76433	15
0.76800	18
0.77167	18
0.77533	18
0.77900	19
0.78267	20
0.78633	20
0.79000	21
0.79367	21
0.79733	25
0.80100	26
0.80467	24
0.80833	24
0.81200	23
0.81567	23
0.81933	24
0.82300	24
0.82667	24
0.83033	22
0.83400	21
0.83767	19
0.84133	17
0.84500	16
0.84867	15
0.85233	12
0.85600	11
0.85967	9
0.86333	9
0.86700	11
0.87067	13
0.87433	14
0.87800	16
0.88167	17
0.88533	18
0.88900	19
0.89267	19
0.89633	18
0.90000	21
0.90367	24
0.90733	24
0.91100	26
0.91467	26
0.91833	23
0.92200	21
0.92567	18
0.92933	17
0.93300	17
0.93667	14
0.94033	12
0.94400	14
0.94767	16
0.95133	17
0.95500	18
0.95867	19
0.96233	21
0.96600	25
0.96967	28
0.97333	27
0.97700	26
0.98067	26
0.98433	24
0.98800	24
0.99167	21
0.99533	20
0.99900	19
1.00267	18
1.00633	20
1.01000	21
1.01367	22
1.01733	20
1.02100	17
1.02467	17
1.02833	19
1.03200	19
1.03567	21
1.03933	23
1.04300	25
1.04667	23
1.05033	21
1.05400	22
1.05767	21
1.06133	20
1.06500	18
1.06867	18
1.07233	20
1.07600	22
1.07967	22
1.08333	21
1.08700	22
1.09067	23
1.09433	23
1.09800	23
1.10167	23
1.10533	21
1.10900	21
1.11267	21
1.11633	18
1.12000	20
1.12367	24
1.12733	25
1.13100	24
1.13467	23
1.13833	24
1.14200	24
1.14567	25
1.14933	23
1.15300	21
1.15667	20
1.16033	19
1.16400	19
1.16767	20
1.17133	20
1.17500	19
1.17867	18
1.18233	19
1.18600	20
1.18967	22
1.19333	23
1.19700	23
1.20067	22
1.20433	21
1.20800	20
1.21167	21
1.21533	21
1.21900	21
1.22267	21
1.22633	24
1.23000	27
1.23367	29
1.23733	29
1.24100	29
1.24467	30
1.24833	32
1.25200	31
1.25567	29
1.25933	26
1.26300	24
1.26667	25
1.27033	25
1.27400	28
1.27767	27
1.28133	25
1.28500	23
1.28867	24
1.29233	25
1.29600	25
1.29967	25
1.30333	25
1.30700	27
1.31067	27
1.31433	24
1.31800	21
1.32167	19
1.32533	19
1.32900	21
1.33267	24
1.33633	26
1.34000	27
1.34367	26
1.34733	27
1.35100	29
1.35467	30
1.35833	31
1.36200	29
1.36567	26
1.36933	24
1.37300	24
1.37667	25
1.38033	23
1.38400	22
1.38767	25
1.39133	27
1.39500	28
1.39867	30
1.40233	29
1.40600	28
1.40967	27
1.41333	30
1.41700	32
1.42067	33
1.42433	32
1.42800	30
1.43167	29
1.43533	28
1.43900	30
1.44267	31
1.44633	30
1.45000	28
1.45367	29
1.45733	31
1.46100	33
1.46467	34
1.46833	31
1.47200	29
1.47567	28
1.47933	28
1.48300	29
1.48667	32
1.49033	33
1.49400	34
1.49767	35
1.50133	34
1.50500	35
1.50867	34
1.51233	31
1.51600	29
1.51967	29
1.52333	30
1.52700	32
1.53067	33
1.53433	32
1.53800	32
1.54167	32
1.54533	32
1.54900	34
1.55267	36
1.55633	34
1.56000	31
1.56367	29
1.56733	27
1.57100	26
1.57467	26
1.57833	27
1.58200	30
1.58567	31
1.58933	32
1.59300	31
1.59667	32
1.60033	32
1.60400	29
1.60767	29
1.61133	31
1.61500	32
1.61867	31
1.62233	31
1.62600	31
1.62967	34
1.63333	36
1.63700	36
1.64067	36
1.64433	35
1.64800	36
1.65167	36
1.65533	32
1.65900	31
1.66267	32
1.66633	33
1.67000	34
1.67367	34
1.67733	40
1.68100	44
1.68467	46
1.68833	48
1.69200	48
1.69567	48
1.69933	49
1.70300	51
1.70667	50
1.71033	47
1.71400	46
1.71767	48
1.72133	48
1.72500	46
1.72867	45
1.73233	44
1.73600	45
1.73967	47
1.74333	50
1.74700	53
1.75067	52
1.75433	51
1.75800	53
1.76167	56
1.76533	59
1.76900	58
1.77267	55
1.77633	54
1.78000	55
1.78367	57
1.78733	60
1.79100	60
1.79467	59
1.79833	58
1.80200	58
1.80567	58
1.80933	59
1.81300	59
1.81667	62
1.82033	65
1.82400	65
1.82767	65
1.83133	65
1.83500	66
1.83867	68
1.84233	71
1.84600	72
1.84967	74
1.85333	74
1.85700	74
1.86067	72
1.86433	74
1.86800	75
1.87167	76
1.87533	77
1.87900	79
1.88267	80
1.88633	84
1.89000	85
1.89367	84
1.89733	85
1.90100	88
1.90467	88
1.90833	88
1.91200	89
1.91567	91
1.91933	90
1.92300	89
1.92667	88
1.93033	90
1.93400	92
1.93767	93
1.94133	94
1.94500	97
1.94867	96
1.95233	96
1.95600	97
1.95967	97
1.96333	98
1.96700	99
1.97067	102
1.97433	104
1.97800	103
1.98167	104
1.98533	106
1.98900	109
1.99267	110
1.99633	111
2.00000	113
2.00367	116
2.00733	117
2.01100	116
2.01467	115
2.01833	115
2.02200	116
2.02567	118
2.02933	121
2.03300	122
2.03667	123
2.04033	124
2.04400	124
2.04767	125
2.05133	128
2.05500	131
2.05867	130
2.06233	128
2.06600	131
2.06967	134
2.07333	136
2.07700	137
2.08067	141
2.08433	144
2.08800	145
2.09167	151
2.09533	154
2.09900	154
2.10267	152
2.10633	153
2.11000	154
2.11367	154
2.11733	154
2.12100	156
2.12467	158
2.12833	160
2.13200	163
2.13567	165
2.13933	167
2.14300	168
2.14667	168
2.15033	169
2.15400	171
2.15767	175
2.16133	178
2.16500	178
2.16867	178
2.17233	178
2.17600	180
2.17967	183
2.18333	183
2.18700	185
2.19067	186
2.19433	188
2.19800	190
2.20167	190
2.20533	192
2.20900	196
2.21267	199
2.21633	201
2.22000	201
2.22367	202
2.22733	205
2.23100	206
2.23467	205
2.23833	207
2.24200	209
2.24567	211
2.24933	214
2.25300	220
2.25667	223
2.26033	225
2.26400	226
2.26767	227
2.27133	228
2.27500	229
2.27867	229
2.28233	229
2.28600	228
2.28967	229
2.29333	230
2.29700	233
2.30067	233
2.30433	236
2.30800	237
2.31167	238
2.31533	240
2.31900	241
2.32267	243
2.32633	246
2.33000	249
2.33367	254
2.33733	257
2.34100	257
2.34467	257
2.34833	258
2.35200	256
2.35567	256
2.35933	259
2.36300	262
2.36667	264
2.37033	264
2.37400	265
2.37767	265
2.38133	265
2.38500	263
2.38867	261
2.39233	261
2.39600	264
2.39967	267
2.40333	270
2.40700	272
2.41067	270
2.41433	270
2.41800	272
2.42167	273
2.42533	276
2.42900	277
2.43267	278
2.43633	282
2.44000	285
2.44367	297
2.44733	328
2.45100	359
2.45467	377
2.45833	382
2.46200	374
2.46567	363
2.46933	351
2.47300	341
2.47667	329
2.48033	313
2.48400	295
2.48767	275
2.49133	260
2.49500	249
2.49867	242
2.50233	234
2.50600	226
2.50967	221
2.51333	222
2.51700	224
2.52067	226
2.52433	225
2.52800	223
2.53167	220
2.53533	215
2.53900	207
2.54267	198
2.54633	189
2.55000	180
2.55367	172
2.55733	169
2.56100	169
2.56467	168
2.56833	166
2.57200	163
2.57567	163
2.57933	165
2.58300	166
2.58667	167
2.59033	169
2.59400	170
2.59767	170
2.60133	170
2.60500	168
2.60867	167
2.61233	161
2.61600	151
2.61967	137
2.62333	118
2.62700	94
2.63067	68
2.63433	43
2.63800	17
2.64167	-7
2.64533	-27
2.64900	-44
2.65267	-56
2.65633	-65
2.66000	-69
2.66367	-68
2.66733	-68
2.67100	-66
2.67467	-60
2.67833	-52
2.68200	-43
2.68567	-38
2.68933	-39
2.69300	-36
2.69667	-18
2.70033	21
2.70400	75
2.70767	135
2.71133	196
2.71500	255
2.71867	312
2.72233	367
2.72600	418
2.72967	469
2.73333	518
2.73700	564
2.74067	605
2.74433	640
2.74800	669
2.75167	691
2.75533	710
2.75900	726
2.76267	739
2.76633	750
2.77000	762
2.77367	771
2.77733	777
2.78100	783
2.78467	790
2.78833	797
2.79200	796
2.79567	795
2.79933	794
2.80300	794
2.80667	791
2.81033	789
2.81400	787
2.81767	784
2.82133	781
2.82500	779
2.82867	779
2.83233	783
2.83600	797
2.83967	835
2.84333	914
2.84700	1051
2.85067	1266
2.85433	1577
2.85800	1991
2.86167	2497
2.86533	3067
2.86900	3657
2.87267	4219
2.87633	4704
2.88000	5076
2.88367	5312
2.88733	5407
2.89100	5366
2.89467	5208
2.89833	4963
2.90200	4661
2.90567	4327
2.90933	3981
2.91300	3641
2.91667	3316
2.92033	3012
2.92400	2732
2.92767	2480
2.93133	2254
2.93500	2053
2.93867	1876
2.94233	1720
2.94600	1582
2.94967	1461
2.95333	1359
2.95700	1268
2.96067	1189
2.96433	1120
2.96800	1059
2.97167	1008
2.97533	964
2.97900	927
2.98267	897
2.98633	870
2.99000	844
2.99367	822
2.99733	802
3.00100	783
3.00467	766
3.00833	752
3.01200	742
3.01567	732
3.01933	722
3.02300	713
3.02667	705
3.03033	701
3.03400	699
3.03767	694
3.04133	688
3.04500	688
3.04867	685
3.05233	681
3.05600	680
3.05967	678
3.06333	675
3.06700	669
3.07067	663
3.07433	660
3.07800	660
3.08167	659
3.08533	658
3.08900	656
3.09267	654
3.09633	654
3.10000	654
3.10367	655
3.10733	654
3.11100	650
3.11467	646
3.11833	642
3.12200	640
3.12567	638
3.12933	633
3.13300	628
3.13667	626
3.14033	624
3.14400	622
3.14767	622
3.15133	621
3.15500	619
3.15867	614
3.16233	608
3.16600	603
3.16967	602
3.17333	601
3.17700	599
3.18067	598
3.18433	598
3.18800	598
3.19167	596
3.19533	594
3.19900	587
3.20267	582
3.20633	580
3.21000	579
3.21367	579
3.21733	580
3.22100	577
3.22467	574
3.22833	570
3.23200	565
3.23567	559
3.23933	552
3.24300	550
3.24667	548
3.25033	545
3.25400	544
3.25767	539
3.26133	536
3.26500	534
3.26867	532
3.27233	527
3.27600	522
3.27967	518
3.28333	515
3.28700	512
3.29067	511
3.29433	508
3.29800	502
3.30167	498
3.30533	495
3.30900	492
3.31267	486
3.31633	482
3.32000	476
3.32367	474
3.32733	470
3.33100	465
3.33467	460
3.33833	457
3.34200	454
3.34567	449
3.34933	446
3.35300	442
3.35667	437
3.36033	433
3.36400	426
3.36767	420
3.37133	413
3.37500	409
3.37867	406
3.38233	404
3.38600	405
3.38967	401
3.39333	396
3.39700	392
3.40067	392
3.40433	390
3.40800	387
3.41167	382
3.41533	375
3.41900	368
3.42267	362
3.42633	361
3.43000	358
3.43367	354
3.43733	348
3.44100	342
3.44467	339
3.44833	335
3.45200	331
3.45567	331
3.45933	331
3.46300	325
3.46667	320
3.47033	317
3.47400	313
3.47767	307
3.48133	300
3.48500	292
3.48867	289
3.49233	286
3.49600	282
3.49967	279
3.50333	278
3.50700	276
3.51067	274
3.51433	271
3.51800	268
3.52167	263
3.52533	259
3.52900	256
3.53267	254
3.53633	251
3.54000	247
3.54367	242
3.54733	238
3.55100	234
3.55467	228
3.55833	224
3.56200	221
3.56567	218
3.56933	216
3.57300	215
3.57667	211
3.58033	205
3.58400	200
3.58767	196
3.59133	193
3.59500	190
3.59867	188
3.60233	186
3.60600	182
3.60967	177
3.61333	171
3.61700	165
3.62067	161
3.62433	161
3.62800	160
3.63167	156
3.63533	150
3.63900	145
3.64267	142
3.64633	142
3.65000	139
3.65367	137
3.65733	133
3.66100	129
3.66467	125
3.66833	120
3.67200	117
3.67567	113
3.67933	111
3.68300	108
3.68667	104
3.69033	100
3.69400	96
3.69767	91
3.70133	87
3.70500	87
3.70867	86
3.71233	81
3.71600	76
3.71967	72
3.72333	71
3.72700	67
3.73067	62
3.73433	56
3.73800	50
3.74167	47
3.74533	44
3.74900	44
3.75267	44
3.75633	42
3.76000	39
3.76367	37
3.76733	32
3.77100	28
3.77467	25
3.77833	25
3.78200	26
3.78567	25
3.78933	22
3.79300	19
3.79667	16
3.80033	12
3.80400	8
3.80767	5
3.81133	1
3.81500	-4
3.81867	-8
3.82233	-8
3.82600	-10
3.82967	-11
3.83333	-12
3.83700	-12
3.84067	-12
3.84433	-13
3.84800	-14
3.85167	-14
3.85533	-15
3.85900	-16
3.86267	-19
3.86633	-18
3.87000	-18
3.87367	-20
3.87733	-24
3.88100	-26
3.88467	-28
3.88833	-30
3.89200	-31
3.89567	-30
3.89933	-29
3.90300	-31
3.90667	-32
3.91033	-35
3.91400	-37
3.91767	-36
3.92133	-32
3.92500	-28
3.92867	-25
3.93233	-26
3.93600	-30
3.93967	-33
3.94333	-34
3.94700	-35
3.95067	-37
3.95433	-38
3.95800	-39
3.96167	-37
3.96533	-38
3.96900	-38
3.97267	-38
3.97633	-40
3.98000	-42
3.98367	-43
3.98733	-41
3.99100	-38
3.99467	-39
3.99833	-41

[Status Trace (Column Oven Temperature)]
Interval(msec)	1000
# of Points	240
Start Time(min)	0.009
End Time(min)	3.992
Intensity Units	
Intensity Multiplier	1
R.Time (min)	Intensity
0.00908	35.02
0.02575	35.02
0.04242	35.01
0.05908	35.01
0.07575	35.00
0.09242	35.00
0.10908	35.00
0.12575	35.00
0.14242	35.01
0.15908	35.02
0.17575	35.03
0.19242	35.03
0.20908	35.03
0.22575	35.04
0.24242	35.04
0.25908	35.04
0.27575	35.03
0.29242	35.02
0.30908	35.02
0.32575	35.02
0.34242	35.02
0.35908	35.02
0.37575	35.03
0.39242	35.03
0.40908	35.03
0.42575	35.02
0.44242	35.02
0.45908	35.01
0.47575	35.00
0.49242	34.99
0.50908	35.00
0.52575	34.98
0.54242	34.99
0.55908	34.99
0.57575	34.99
0.59242	34.98
0.60908	34.98
0.62575	34.99
0.64242	35.00
0.65908	34.99
0.67575	35.00
0.69242	35.01
0.70908	35.00
0.72575	34.99
0.74242	34.98
0.75908	34.98
0.77575	34.98
0.79242	35.00
0.80908	35.01
0.82575	35.02
0.84242	35.01
0.85908	35.02
0.87575	35.02
0.89242	35.02
0.90908	35.00
0.92575	35.00
0.94242	35.00
0.95908	34.99
0.97575	34.98
0.99242	34.98
1.00908	34.98
1.02575	34.99
1.04242	34.99
1.05908	34.98
1.07575	34.98
1.09242	34.98
1.10908	34.99
1.12575	34.99
1.14242	34.99
1.15908	34.99
1.17575	34.99
1.19242	34.99
1.20908	34.99
1.22575	34.99
1.24242	34.98
1.25908	34.98
1.27575	34.98
1.29242	34.98
1.30908	34.98
1.32575	34.99
1.34242	34.99
1.35908	34.99
1.37575	35.00
1.39242	34.99
1.40908	34.99
1.42575	35.00
1.44242	35.01
1.45908	35.00
1.47575	35.00
1.49242	34.99
1.50908	35.00
1.52575	35.00
1.54242	35.00
1.55908	35.00
1.57575	34.98
1.59242	35.00
1.60908	35.05
1.62575	35.17
1.64242	35.36
1.65908	35.60
1.67575	35.94
1.69242	36.30
1.70908	36.65
1.72575	36.99
1.74242	37.33
1.75908	37.66
1.77575	38.01
1.79242	38.35
1.80908	38.68
1.82575	39.01
1.84242	39.33
1.85908	39.66
1.87575	39.99
1.89242	40.32
1.90908	40.64
1.92575	40.96
1.94242	41.30
1.95908	41.61
1.97575	41.94
1.99242	42.25
2.00908	42.59
2.02575	42.91
2.04242	43.23
2.05908	43.55
2.07575	43.87
2.09242	44.20
2.10908	44.53
2.12575	44.85
2.14242	45.17
2.15908	45.50
2.17575	45.84
2.19242	46.17
2.20908	46.47
2.22575	46.82
2.24242	47.16
2.25908	47.48
2.27575	47.82
2.29242	48.14
2.30908	48.51
2.32575	48.85
2.34242	49.17
2.35908	49.43
2.37575	49.60
2.39242	49.66
2.40908	49.65
2.42575	49.66
2.44242	49.67
2.45908	49.68
2.47575	49.70
2.49242	49.71
2.50908	49.71
2.52575	49.72
2.54242	49.75
2.55908	49.75
2.57575	49.77
2.59242	49.79
2.60908	49.80
2.62575	49.81
2.64242	49.82
2.65908	49.83
2.67575	49.83
2.69242	49.84
2.70908	49.86
2.72575	49.86
2.74242	49.84
2.75908	49.86
2.77575	49.88
2.79242	49.89
2.80908	49.87
2.82575	49.86
2.84242	49.87
2.85908	49.87
2.87575	49.88
2.89242	49.89
2.90908	49.90
2.92575	49.91
2.94242	49.93
2.95908	49.95
2.97575	49.96
2.99242	49.97
3.00908	49.98
3.02575	49.99
3.04242	50.00
3.05908	50.01
3.07575	50.02
3.09242	50.03
3.10908	50.04
3.12575	50.04
3.14242	50.04
3.15908	50.05
3.17575	50.06
3.19242	50.07
3.20908	50.08
3.22575	50.08
3.24242	50.08
3.25908	50.08
3.27575	50.09
3.29242	50.10
3.30908	50.10
3.32575	50.10
3.34242	50.09
3.35908	50.10
3.37575	50.09
3.39242	50.09
3.40908	50.09
3.42575	50.09
3.44242	50.09
3.45908	50.09
3.47575	50.09
3.49242	50.08
3.50908	50.09
3.52575	50.09
3.54242	50.08
3.55908	50.09
3.57575	50.09
3.59242	50.09
3.60908	50.09
3.62575	50.09
3.64242	50.09
3.65908	50.10
3.67575	50.10
3.69242	50.10
3.70908	50.09
3.72575	50.09
3.74242	50.08
3.75908	50.08
3.77575	50.06
3.79242	50.05
3.80908	50.05
3.82575	50.05
3.84242	50.05
3.85908	50.05
3.87575	50.05
3.89242	50.04
3.90908	50.05
3.92575	50.04
3.94242	50.05
3.95908	50.05
3.97575	50.05
3.99242	50.05

[Status Trace (Injection Unit Temperature)]
Interval(msec)	1000
# of Points	240
Start Time(min)	0.009
End Time(min)	3.992
Intensity Units	
Intensity Multiplier	1
R.Time (min)	Intensity
0.00908	99.98
0.02575	99.98
0.04242	99.99
0.05908	99.98
0.07575	99.99
0.09242	99.99
0.10908	99.99
0.12575	99.99
0.14242	99.99
0.15908	99.99
0.17575	99.99
0.19242	99.99
0.20908	99.99
0.22575	99.99
0.24242	99.99
0.25908	99.99
0.27575	99.99
0.29242	99.99
0.30908	99.99
0.32575	99.99
0.34242	99.99
0.35908	99.99
0.37575	99.99
0.39242	99.99
0.40908	99.99
0.42575	99.99
0.44242	99.99
0.45908	99.99
0.47575	99.99
0.49242	99.99
0.50908	99.99
0.52575	99.99
0.54242	99.98
0.55908	99.99
0.57575	99.98
0.59242	99.98
0.60908	99.98
0.62575	99.98
0.64242	99.98
0.65908	99.98
0.67575	99.98
0.69242	99.98
0.70908	99.98
0.72575	99.98
0.74242	99.98
0.75908	99.98
0.77575	99.98
0.79242	99.98
0.80908	99.98
0.82575	99.98
0.84242	99.98
0.85908	99.98
0.87575	99.98
0.89242	99.98
0.90908	99.97
0.92575	99.98
0.94242	99.98
0.95908	99.98
0.97575	99.98
0.99242	99.98
1.00908	99.98
1.02575	99.98
1.04242	99.98
1.05908	99.98
1.07575	99.98
1.09242	99.98
1.10908	99.98
1.12575	99.98
1.14242	99.98
1.15908	99.98
1.17575	99.98
1.19242	99.98
1.20908	99.98
1.22575	99.98
1.24242	99.98
1.25908	99.99
1.27575	99.98
1.29242	99.98
1.30908	99.98
1.32575	99.98
1.34242	99.99
1.35908	99.98
1.37575	99.98
1.39242	99.99
1.40908	99.98
1.42575	99.99
1.44242	99.98
1.45908	99.99
1.47575	99.99
1.49242	99.99
1.50908	99.99
1.52575	99.99
1.54242	99.99
1.55908	99.99
1.57575	99.99
1.59242	99.99
1.60908	99.99
1.62575	99.99
1.64242	99.99
1.65908	99.99
1.67575	99.99
1.69242	99.99
1.70908	99.99
1.72575	99.99
1.74242	99.99
1.75908	99.99
1.77575	99.98
1.79242	99.99
1.80908	99.99
1.82575	99.99
1.84242	99.99
1.85908	99.99
1.87575	99.99
1.89242	99.98
1.90908	99.98
1.92575	99.98
1.94242	99.98
1.95908	99.98
1.97575	99.98
1.99242	99.98
2.00908	99.98
2.02575	99.98
2.04242	99.98
2.05908	99.98
2.07575	99.98
2.09242	99.98
2.10908	99.97
2.12575	99.97
2.14242	99.97
2.15908	99.97
2.17575	99.97
2.19242	99.97
2.20908	99.97
2.22575	99.97
2.24242	99.97
2.25908	99.97
2.27575	99.97
2.29242	99.97
2.30908	99.97
2.32575	99.97
2.34242	99.97
2.35908	99.97
2.37575	99.97
2.39242	99.97
2.40908	99.97
2.42575	99.97
2.44242	99.97
2.45908	99.97
2.47575	99.97
2.49242	99.97
2.50908	99.97
2.52575	99.97
2.54242	99.97
2.55908	99.97
2.57575	99.98
2.59242	99.98
2.60908	99.98
2.62575	99.98
2.64242	99.98
2.65908	99.98
2.67575	99.98
2.69242	99.99
2.70908	99.99
2.72575	99.99
2.74242	99.99
2.75908	99.99
2.77575	99.99
2.79242	99.99
2.80908	100.00
2.82575	100.00
2.84242	100.00
2.85908	100.00
2.87575	100.00
2.89242	100.00
2.90908	100.00
2.92575	100.01
2.94242	100.01
2.95908	100.01
2.97575	100.01
2.99242	100.01
3.00908	100.02
3.02575	100.02
3.04242	100.02
3.05908	100.02
3.07575	100.02
3.09242	100.02
3.10908	100.02
3.12575	100.03
3.14242	100.02
3.15908	100.03
3.17575	100.03
3.19242	100.03
3.20908	100.03
3.22575	100.03
3.24242	100.03
3.25908	100.03
3.27575	100.04
3.29242	100.04
3.30908	100.03
3.32575	100.04
3.34242	100.04
3.35908	100.04
3.37575	100.04
3.39242	100.04
3.40908	100.04
3.42575	100.04
3.44242	100.04
3.45908	100.04
3.47575	100.04
3.49242	100.05
3.50908	100.04
3.52575	100.05
3.54242	100.05
3.55908	100.05
3.57575	100.05
3.59242	100.05
3.60908	100.05
3.62575	100.05
3.64242	100.05
3.65908	100.05
3.67575	100.05
3.69242	100.05
3.70908	100.05
3.72575	100.05
3.74242	100.05
3.75908	100.05
3.77575	100.05
3.79242	100.05
3.80908	100.05
3.82575	100.05
3.84242	100.05
3.85908	100.05
3.87575	100.05
3.89242	100.05
3.90908	100.05
3.92575	100.05
3.94242	100.04
3.95908	100.05
3.97575	100.05
3.99242	100.05

[Status Trace (Carrier Gas Pressure)]
Interval(msec)	1000
# of Points	240
Start Time(min)	0.009
End Time(min)	3.992
Intensity Units	
Intensity Multiplier	1
R.Time (min)	Intensity
0.00908	58.00
0.02575	55.28
0.04242	57.22
0.05908	59.36
0.07575	59.43
0.09242	58.05
0.10908	57.98
0.12575	58.01
0.14242	58.01
0.15908	58.01
0.17575	58.00
0.19242	58.00
0.20908	58.00
0.22575	58.00
0.24242	58.00
0.25908	58.00
0.27575	58.00
0.29242	58.00
0.30908	58.00
0.32575	58.00
0.34242	58.00
0.35908	58.00
0.37575	58.00
0.39242	58.00
0.40908	58.00
0.42575	58.00
0.44242	58.00
0.45908	58.00
0.47575	58.00
0.49242	58.00
0.50908	58.00
0.52575	58.00
0.54242	58.00
0.55908	58.00
0.57575	58.00
0.59242	58.00
0.60908	58.00
0.62575	58.00
0.64242	58.00
0.65908	58.00
0.67575	58.00
0.69242	58.00
0.70908	58.00
0.72575	58.00
0.74242	58.00
0.75908	58.00
0.77575	58.00
0.79242	58.00
0.80908	58.00
0.82575	58.00
0.84242	58.00
0.85908	58.00
0.87575	58.00
0.89242	58.00
0.90908	58.00
0.92575	58.00
0.94242	58.00
0.95908	58.00
0.97575	58.00
0.99242	58.00
1.00908	58.00
1.02575	58.00
1.04242	58.00
1.05908	58.00
1.07575	58.00
1.09242	58.00
1.10908	58.00
1.12575	58.00
1.14242	58.00
1.15908	58.00
1.17575	58.00
1.19242	58.00
1.20908	58.00
1.22575	58.00
1.24242	58.00
1.25908	58.00
1.27575	58.00
1.29242	58.00
1.30908	58.00
1.32575	58.00
1.34242	58.00
1.35908	58.00
1.37575	58.00
1.39242	58.00
1.40908	58.00
1.42575	58.00
1.44242	58.00
1.45908	58.00
1.47575	58.00
1.49242	58.00
1.50908	58.00
1.52575	58.00
1.54242	58.00
1.55908	58.00
1.57575	58.00
1.59242	58.00
1.60908	58.00
1.62575	58.00
1.64242	58.01
1.65908	58.00
1.67575	58.01
1.69242	58.00
1.70908	58.00
1.72575	58.00
1.74242	58.00
1.75908	58.00
1.77575	58.00
1.79242	58.00
1.80908	58.00
1.82575	58.00
1.84242	58.00
1.85908	58.00
1.87575	58.00
1.89242	58.00
1.90908	58.00
1.92575	58.00
1.94242	58.00
1.95908	58.00
1.97575	58.00
1.99242	58.00
2.00908	58.00
2.02575	58.00
2.04242	58.00
2.05908	58.00
2.07575	58.00
2.09242	58.00
2.10908	58.00
2.12575	58.00
2.14242	58.00
2.15908	58.00
2.17575	58.00
2.19242	58.00
2.20908	58.00
2.22575	58.00
2.24242	58.00
2.25908	58.00
2.27575	58.00
2.29242	58.00
2.30908	58.00
2.32575	58.00
2.34242	58.00
2.35908	58.00
2.37575	58.00
2.39242	57.99
2.40908	57.99
2.42575	58.00
2.44242	58.00
2.45908	58.00
2.47575	58.00
2.49242	58.00
2.50908	57.99
2.52575	57.98
2.54242	58.00
2.55908	58.00
2.57575	58.00
2.59242	58.00
2.60908	58.00
2.62575	58.00
2.64242	58.00
2.65908	58.00
2.67575	58.00
2.69242	58.00
2.70908	58.00
2.72575	58.00
2.74242	58.00
2.75908	58.00
2.77575	58.00
2.79242	58.00
2.80908	58.00
2.82575	58.00
2.84242	58.00
2.85908	58.00
2.87575	58.00
2.89242	58.00
2.90908	58.00
2.92575	58.00
2.94242	58.00
2.95908	58.00
2.97575	58.00
2.99242	58.00
3.00908	58.00
3.02575	58.00
3.04242	58.00
3.05908	58.00
3.07575	58.00
3.09242	58.00
3.10908	58.00
3.12575	58.00
3.14242	58.00
3.15908	58.00
3.17575	58.00
3.19242	58.00
3.20908	58.00
3.22575	58.00
3.24242	58.00
3.25908	58.00
3.27575	58.00
3.29242	58.00
3.30908	58.00
3.32575	58.00
3.34242	58.00
3.35908	58.00
3.37575	58.00
3.39242	58.00
3.40908	58.00
3.42575	58.00
3.44242	58.00
3.45908	58.00
3.47575	58.00
3.49242	58.00
3.50908	58.00
3.52575	58.00
3.54242	58.00
3.55908	58.00
3.57575	58.00
3.59242	58.00
3.60908	58.00
3.62575	58.00
3.64242	58.00
3.65908	58.00
3.67575	58.00
3.69242	58.00
3.70908	58.00
3.72575	58.00
3.74242	58.00
3.75908	58.00
3.77575	58.00
3.79242	58.00
3.80908	58.00
3.82575	58.00
3.84242	58.00
3.85908	58.00
3.87575	58.00
3.89242	58.00
3.90908	58.00
3.92575	58.00
3.94242	58.00
3.95908	58.00
3.97575	58.00
3.99242	58.00

[Status Trace (Carrier Gas Flow)]
Interval(msec)	1000
# of Points	240
Start Time(min)	0.009
End Time(min)	3.992
Intensity Units	
Intensity Multiplier	1
R.Time (min)	Intensity
0.00908	34.52
0.02575	34.54
0.04242	34.55
0.05908	34.55
0.07575	34.50
0.09242	34.51
0.10908	34.52
0.12575	34.52
0.14242	34.52
0.15908	34.52
0.17575	34.52
0.19242	34.52
0.20908	34.52
0.22575	34.52
0.24242	34.52
0.25908	34.52
0.27575	34.52
0.29242	34.52
0.30908	34.52
0.32575	34.52
0.34242	34.52
0.35908	34.52
0.37575	34.52
0.39242	34.52
0.40908	34.52
0.42575	34.52
0.44242	34.52
0.45908	34.52
0.47575	34.52
0.49242	34.52
0.50908	34.52
0.52575	34.52
0.54242	34.52
0.55908	34.52
0.57575	34.52
0.59242	34.52
0.60908	34.52
0.62575	34.52
0.64242	34.52
0.65908	34.52
0.67575	34.52
0.69242	34.52
0.70908	34.52
0.72575	34.52
0.74242	34.52
0.75908	34.52
0.77575	34.52
0.79242	34.52
0.80908	34.52
0.82575	34.52
0.84242	34.52
0.85908	34.52
0.87575	34.52
0.89242	34.52
0.90908	34.52
0.92575	34.52
0.94242	34.52
0.95908	34.52
0.97575	34.52
0.99242	34.52
1.00908	34.52
1.02575	34.52
1.04242	34.52
1.05908	34.52
1.07575	34.52
1.09242	34.52
1.10908	34.52
1.12575	34.52
1.14242	34.52
1.15908	34.52
1.17575	34.52
1.19242	34.52
1.20908	34.52
1.22575	34.52
1.24242	34.52
1.25908	34.52
1.27575	34.52
1.29242	34.52
1.30908	34.52
1.32575	34.52
1.34242	34.52
1.35908	34.52
1.37575	34.52
1.39242	34.52
1.40908	34.52
1.42575	34.52
1.44242	34.52
1.45908	34.52
1.47575	34.52
1.49242	34.52
1.50908	34.52
1.52575	34.52
1.54242	34.52
1.55908	34.52
1.57575	34.52
1.59242	34.52
1.60908	34.52
1.62575	34.52
1.64242	34.52
1.65908	34.52
1.67575	34.52
1.69242	34.52
1.70908	34.52
1.72575	34.52
1.74242	34.52
1.75908	34.52
1.77575	34.52
1.79242	34.52
1.80908	34.52
1.82575	34.52
1.84242	34.52
1.85908	34.52
1.87575	34.52
1.89242	34.52
1.90908	34.52
1.92575	34.52
1.94242	34.52
1.95908	34.52
1.97575	34.52
1.99242	34.52
2.00908	34.52
2.02575	34.52
2.04242	34.52
2.05908	34.52
2.07575	34.52
2.09242	34.52
2.10908	34.52
2.12575	34.52
2.14242	34.52
2.15908	34.52
2.17575	34.52
2.19242	34.52
2.20908	34.52
2.22575	34.52
2.24242	34.52
2.25908	34.52
2.27575	34.52
2.29242	34.52
2.30908	34.52
2.32575	34.52
2.34242	34.52
2.35908	34.52
2.37575	34.52
2.39242	34.52
2.40908	34.52
2.42575	34.52
2.44242	34.52
2.45908	34.52
2.47575	34.52
2.49242	34.52
2.50908	34.49
2.52575	34.52
2.54242	34.52
2.55908	34.52
2.57575	34.52
2.59242	34.52
2.60908	34.52
2.62575	34.52
2.64242	34.52
2.65908	34.52
2.67575	34.52
2.69242	34.52
2.70908	34.52
2.72575	34.52
2.74242	34.52
2.75908	34.52
2.77575	34.52
2.79242	34.52
2.80908	34.52
2.82575	34.52
2.84242	34.52
2.85908	34.52
2.87575	34.52
2.89242	34.52
2.90908	34.52
2.92575	34.52
2.94242	34.52
2.95908	34.52
2.97575	34.52
2.99242	34.52
3.00908	34.52
3.02575	34.52
3.04242	34.52
3.05908	34.52
3.07575	34.52
3.09242	34.52
3.10908	34.52
3.12575	34.52
3.14242	34.52
3.15908	34.52
3.17575	34.52
3.19242	34.52
3.20908	34.52
3.22575	34.52
3.24242	34.52
3.25908	34.52
3.27575	34.52
3.29242	34.52
3.30908	34.52
3.32575	34.52
3.34242	34.52
3.35908	34.52
3.37575	34.52
3.39242	34.52
3.40908	34.52
3.42575	34.52
3.44242	34.52
3.45908	34.52
3.47575	34.52
3.49242	34.52
3.50908	34.52
3.52575	34.52
3.54242	34.52
3.55908	34.52
3.57575	34.52
3.59242	34.52
3.60908	34.52
3.62575	34.52
3.64242	34.52
3.65908	34.52
3.67575	34.52
3.69242	34.52
3.70908	34.52
3.72575	34.52
3.74242	34.52
3.75908	34.52
3.77575	34.52
3.79242	34.52
3.80908	34.52
3.82575	34.52
3.84242	34.52
3.85908	34.52
3.87575	34.52
3.89242	34.52
3.90908	34.51
3.92575	34.51
3.94242	34.52
3.95908	34.52
3.97575	34.52
3.99242	34.52

[Status Trace (Column Flow)]
Interval(msec)	1000
# of Points	240
Start Time(min)	0.009
End Time(min)	3.992
Intensity Units	
Intensity Multiplier	1
R.Time (min)	Intensity
0.00908	5.49
0.02575	5.18
0.04242	5.40
0.05908	5.65
0.07575	5.66
0.09242	5.50
0.10908	5.49
0.12575	5.50
0.14242	5.49
0.15908	5.49
0.17575	5.49
0.19242	5.49
0.20908	5.49
0.22575	5.49
0.24242	5.49
0.25908	5.49
0.27575	5.49
0.29242	5.49
0.30908	5.49
0.32575	5.49
0.34242	5.49
0.35908	5.49
0.37575	5.49
0.39242	5.49
0.40908	5.49
0.42575	5.49
0.44242	5.49
0.45908	5.49
0.47575	5.49
0.49242	5.49
0.50908	5.49
0.52575	5.49
0.54242	5.49
0.55908	5.49
0.57575	5.49
0.59242	5.49
0.60908	5.49
0.62575	5.49
0.64242	5.49
0.65908	5.49
0.67575	5.49
0.69242	5.49
0.70908	5.49
0.72575	5.49
0.74242	5.49
0.75908	5.49
0.77575	5.49
0.79242	5.49
0.80908	5.49
0.82575	5.49
0.84242	5.49
0.85908	5.49
0.87575	5.49
0.89242	5.49
0.90908	5.49
0.92575	5.49
0.94242	5.49
0.95908	5.49
0.97575	5.49
0.99242	5.49
1.00908	5.49
1.02575	5.49
1.04242	5.49
1.05908	5.49
1.07575	5.49
1.09242	5.49
1.10908	5.49
1.12575	5.49
1.14242	5.49
1.15908	5.49
1.17575	5.49
1.19242	5.49
1.20908	5.49
1.22575	5.49
1.24242	5.49
1.25908	5.49
1.27575	5.49
1.29242	5.49
1.30908	5.49
1.32575	5.49
1.34242	5.49
1.35908	5.49
1.37575	5.49
1.39242	5.49
1.40908	5.49
1.42575	5.49
1.44242	5.49
1.45908	5.49
1.47575	5.49
1.49242	5.49
1.50908	5.49
1.52575	5.49
1.54242	5.49
1.55908	5.49
1.57575	5.49
1.59242	5.49
1.60908	5.49
1.62575	5.49
1.64242	5.48
1.65908	5.48
1.67575	5.47
1.69242	5.45
1.70908	5.44
1.72575	5.43
1.74242	5.42
1.75908	5.41
1.77575	5.40
1.79242	5.39
1.80908	5.38
1.82575	5.37
1.84242	5.36
1.85908	5.35
1.87575	5.34
1.89242	5.33
1.90908	5.32
1.92575	5.31
1.94242	5.30
1.95908	5.29
1.97575	5.28
1.99242	5.27
2.00908	5.26
2.02575	5.25
2.04242	5.25
2.05908	5.24
2.07575	5.23
2.09242	5.22
2.10908	5.21
2.12575	5.20
2.14242	5.19
2.15908	5.18
2.17575	5.17
2.19242	5.16
2.20908	5.15
2.22575	5.14
2.24242	5.13
2.25908	5.12
2.27575	5.11
2.29242	5.10
2.30908	5.09
2.32575	5.08
2.34242	5.08
2.35908	5.07
2.37575	5.06
2.39242	5.06
2.40908	5.06
2.42575	5.06
2.44242	5.06
2.45908	5.06
2.47575	5.06
2.49242	5.06
2.50908	5.06
2.52575	5.06
2.54242	5.06
2.55908	5.06
2.57575	5.06
2.59242	5.06
2.60908	5.06
2.62575	5.06
2.64242	5.06
2.65908	5.06
2.67575	5.06
2.69242	5.06
2.70908	5.06
2.72575	5.06
2.74242	5.06
2.75908	5.06
2.77575	5.06
2.79242	5.06
2.80908	5.06
2.82575	5.06
2.84242	5.06
2.85908	5.06
2.87575	5.06
2.89242	5.06
2.90908	5.06
2.92575	5.06
2.94242	5.05
2.95908	5.05
2.97575	5.05
2.99242	5.05
3.00908	5.05
3.02575	5.05
3.04242	5.05
3.05908	5.05
3.07575	5.05
3.09242	5.05
3.10908	5.05
3.12575	5.05
3.14242	5.05
3.15908	5.05
3.17575	5.05
3.19242	5.05
3.20908	5.05
3.22575	5.05
3.24242	5.05
3.25908	5.05
3.27575	5.05
3.29242	5.05
3.30908	5.05
3.32575	5.05
3.34242	5.05
3.35908	5.05
3.37575	5.05
3.39242	5.05
3.40908	5.05
3.42575	5.05
3.44242	5.05
3.45908	5.05
3.47575	5.05
3.49242	5.05
3.50908	5.05
3.52575	5.05
3.54242	5.05
3.55908	5.05
3.57575	5.05
3.59242	5.05
3.60908	5.05
3.62575	5.05
3.64242	5.05
3.65908	5.05
3.67575	5.05
3.69242	5.05
3.70908	5.05
3.72575	5.05
3.74242	5.05
3.75908	5.05
3.77575	5.05
3.79242	5.05
3.80908	5.05
3.82575	5.05
3.84242	5.05
3.85908	5.05
3.87575	5.05
3.89242	5.05
3.90908	5.05
3.92575	5.05
3.94242	5.05
3.95908	5.05
3.97575	5.05
3.99242	5.05

[Status Trace (Linear Velocity)]
Interval(msec)	1000
# of Points	240
Start Time(min)	0.009
End Time(min)	3.992
Intensity Units	
Intensity Multiplier	1
R.Time (min)	Intensity
0.00908	39.01
0.02575	37.23
0.04242	38.50
0.05908	39.90
0.07575	39.95
0.09242	39.04
0.10908	39.00
0.12575	39.02
0.14242	39.02
0.15908	39.01
0.17575	39.01
0.19242	39.01
0.20908	39.01
0.22575	39.01
0.24242	39.01
0.25908	39.01
0.27575	39.01
0.29242	39.01
0.30908	39.01
0.32575	39.01
0.34242	39.01
0.35908	39.01
0.37575	39.01
0.39242	39.01
0.40908	39.01
0.42575	39.01
0.44242	39.01
0.45908	39.01
0.47575	39.01
0.49242	39.01
0.50908	39.01
0.52575	39.01
0.54242	39.01
0.55908	39.01
0.57575	39.01
0.59242	39.01
0.60908	39.01
0.62575	39.01
0.64242	39.01
0.65908	39.01
0.67575	39.01
0.69242	39.01
0.70908	39.01
0.72575	39.01
0.74242	39.01
0.75908	39.01
0.77575	39.01
0.79242	39.01
0.80908	39.01
0.82575	39.01
0.84242	39.01
0.85908	39.01
0.87575	39.01
0.89242	39.01
0.90908	39.01
0.92575	39.01
0.94242	39.01
0.95908	39.01
0.97575	39.01
0.99242	39.01
1.00908	39.01
1.02575	39.01
1.04242	39.01
1.05908	39.01
1.07575	39.01
1.09242	39.01
1.10908	39.01
1.12575	39.01
1.14242	39.01
1.15908	39.01
1.17575	39.01
1.19242	39.01
1.20908	39.01
1.22575	39.01
1.24242	39.01
1.25908	39.01
1.27575	39.01
1.29242	39.01
1.30908	39.01
1.32575	39.01
1.34242	39.01
1.35908	39.01
1.37575	39.01
1.39242	39.01
1.40908	39.01
1.42575	39.01
1.44242	39.01
1.45908	39.01
1.47575	39.01
1.49242	39.01
1.50908	39.01
1.52575	39.01
1.54242	39.01
1.55908	39.01
1.57575	39.01
1.59242	39.01
1.60908	39.01
1.62575	39.00
1.64242	38.98
1.65908	38.95
1.67575	38.92
1.69242	38.89
1.70908	38.85
1.72575	38.82
1.74242	38.79
1.75908	38.76
1.77575	38.72
1.79242	38.69
1.80908	38.66
1.82575	38.63
1.84242	38.60
1.85908	38.57
1.87575	38.54
1.89242	38.50
1.90908	38.48
1.92575	38.45
1.94242	38.42
1.95908	38.38
1.97575	38.35
1.99242	38.33
2.00908	38.30
2.02575	38.26
2.04242	38.24
2.05908	38.21
2.07575	38.18
2.09242	38.15
2.10908	38.12
2.12575	38.09
2.14242	38.06
2.15908	38.03
2.17575	38.00
2.19242	37.97
2.20908	37.94
2.22575	37.91
2.24242	37.88
2.25908	37.85
2.27575	37.82
2.29242	37.79
2.30908	37.76
2.32575	37.73
2.34242	37.70
2.35908	37.68
2.37575	37.66
2.39242	37.65
2.40908	37.65
2.42575	37.66
2.44242	37.65
2.45908	37.65
2.47575	37.65
2.49242	37.65
2.50908	37.65
2.52575	37.64
2.54242	37.65
2.55908	37.65
2.57575	37.65
2.59242	37.64
2.60908	37.64
2.62575	37.64
2.64242	37.64
2.65908	37.64
2.67575	37.64
2.69242	37.64
2.70908	37.64
2.72575	37.64
2.74242	37.64
2.75908	37.64
2.77575	37.64
2.79242	37.64
2.80908	37.64
2.82575	37.64
2.84242	37.64
2.85908	37.64
2.87575	37.64
2.89242	37.64
2.90908	37.64
2.92575	37.63
2.94242	37.63
2.95908	37.63
2.97575	37.63
2.99242	37.63
3.00908	37.63
3.02575	37.63
3.04242	37.63
3.05908	37.63
3.07575	37.62
3.09242	37.62
3.10908	37.62
3.12575	37.62
3.14242	37.62
3.15908	37.62
3.17575	37.62
3.19242	37.62
3.20908	37.62
3.22575	37.62
3.24242	37.62
3.25908	37.62
3.27575	37.62
3.29242	37.62
3.30908	37.62
3.32575	37.62
3.34242	37.62
3.35908	37.62
3.37575	37.62
3.39242	37.62
3.40908	37.62
3.42575	37.62
3.44242	37.62
3.45908	37.62
3.47575	37.62
3.49242	37.62
3.50908	37.62
3.52575	37.62
3.54242	37.62
3.55908	37.62
3.57575	37.62
3.59242	37.62
3.60908	37.62
3.62575	37.62
3.64242	37.62
3.65908	37.62
3.67575	37.62
3.69242	37.62
3.70908	37.62
3.72575	37.62
3.74242	37.62
3.75908	37.62
3.77575	37.62
3.79242	37.62
3.80908	37.62
3.82575	37.62
3.84242	37.62
3.85908	37.62
3.87575	37.62
3.89242	37.62
3.90908	37.62
3.92575	37.62
3.94242	37.62
3.95908	37.62
3.97575	37.62
3.99242	37.62

