[Header]
Application Name	LabSolutions
Version	5.110
Data File Name	C:\Users\User\Desktop\GC Analyses\Jack\UIC Prairie Sampling\9.16.22\220916_079.gcd
Output Date	11/29/2022
Output Time	11:10:20 AM

[File Information]
Type	Data File
Generated	11/16/2022 12:16:11 PM
Generated by	System Administrator
Modified	11/16/2022 12:21:25 PM
Modified by	System Administrator

[Sample Information]
Operator Name	System Administrator
Acquired	11/16/2022 12:17:24 PM
Sample Type	1:Standard
Level	1
Sample Name	220916_UICPrairie
Sample ID	220916_UICPrairie
ISTD Amount1	1
ISTD Amount2	1
ISTD Amount3	1
ISTD Amount4	1
ISTD Amount5	1
ISTD Amount6	1
ISTD Amount7	1
ISTD Amount8	1
ISTD Amount9	1
ISTD Amount10	1
ISTD Amount11	1
ISTD Amount12	1
ISTD Amount13	1
ISTD Amount14	1
ISTD Amount15	1
ISTD Amount16	1
ISTD Amount17	1
ISTD Amount18	1
ISTD Amount19	1
ISTD Amount20	1
ISTD Amount21	1
ISTD Amount22	1
ISTD Amount23	1
ISTD Amount24	1
ISTD Amount25	1
ISTD Amount26	1
ISTD Amount27	1
ISTD Amount28	1
ISTD Amount29	1
ISTD Amount30	1
ISTD Amount31	1
ISTD Amount32	1
Sample Amount	1
Dilution Factor	1
Vial#	1
Injection Volume	1
Injection Count	1
Bar Code	

[Original Files]
Data File	C:\Users\User\Desktop\GC Analyses\Jack\UIC Prairie Sampling\9.16.22\220916_079.gcd
Method File	C:\LabSolutions\Data\GHG_4min_2022\ghg3_togas_w_acet_4 min_new_int.gcm
Batch File	
Report Format File	c:\LabSolutions\System\DEFAULT.lsr

[File Description]


[Configuration]
Instrument Name	C0B7VH3-Instrument1
Instrument #	1
Line #	1
# of Detectors	3
Detector ID	DET#1	DET#2	DET#3
Detector Name	FID	PTCD	ECD
# of Channels	1	1	1

[Peak Table(Ch1)]
# of Peaks	3
Peak#	R.Time	I.Time	F.Time	Area	Height	A/H	Conc.	Mark	ID#	Name	k'	Plate #	Plate Ht.	Tailing	Resolution	Sep.Factor	Area Ratio	Height Ratio	Conc. %	Norm Conc.
1	1.479	1.439	1.538	10423	4526	2.303	100.000	   	1	CO	0.000	8145	18.416	1.157	0.000	0.000	0	0	16.667	16.667
2	1.571	1.538	1.630	5232	2601	2.011	100.000	 V 	2	CH4	0.062	11135	13.470	1.107	1.465	0.000	0	0	16.667	16.667
3	2.000	1.952	2.411	1371653	660550	2.077	400.000	   	3	CO2	0.352	17611	8.517	1.202	7.160	5.680	0	0	66.667	66.667

[Peak Table(Ch2)]
# of Peaks	0

[Peak Table(Ch3)]
# of Peaks	3
Peak#	R.Time	I.Time	F.Time	Area	Height	A/H	Conc.	Mark	ID#	Name	k'	Plate #	Plate Ht.	Tailing	Resolution	Sep.Factor	Area Ratio	Height Ratio	Conc. %	Norm Conc.
1	2.587	1.919	2.656	5951	532	11.180	0.000	   			0.000	1686	88.956	0.000	0.000	0.000	0	0	0.000	0.000
2	2.785	2.656	2.814	3103	392	7.916	0.083	 V 	1	N2O	0.077	106	1413.744	0.000	0.297	0.000	0	0	8.338	8.338
3	2.884	2.814	3.863	34117	5701	5.984	0.917	 V 	1	N2O	0.115	11935	12.568	0.000	0.167	1.500	0	0	91.662	91.662

[Compound Results(Ch1)]
# of IDs	6
ID#	Name	R.Time	Area	Height	Conc.	Curve	3rd	2nd	1st	Constant	Area Ratio	Height Ratio	Conc. %	Norm Conc.
1	CO	1.479	10423	4526	100.000	Linear	0.000000e+00	0.000000e+00	1.042343e+002	0.000000e+00	0	0	16.667	16.667
2	CH4	1.571	5232	2601	100.000	Linear	0.000000e+00	0.000000e+00	5.231650e+001	0.000000e+00	0	0	16.667	16.667
3	CO2	2.000	1371653	660550	400.000	Linear	0.000000e+00	0.000000e+00	3.429134e+003	0.000000e+00	0	0	66.667	66.667
4	Ethylene	0.000	0	0	0.000	Linear	0.000000e+00	0.000000e+00	0.000000e+00	0.000000e+00	0	0	0.000	0.000
5	Acetylene	0.000	0	0	0.000	Linear	0.000000e+00	0.000000e+00	0.000000e+00	0.000000e+00	0	0	0.000	0.000
6	Ethane	0.000	0	0	0.000	Linear	0.000000e+00	0.000000e+00	0.000000e+00	0.000000e+00	0	0	0.000	0.000

[Compound Results(Ch2)]
# of IDs	5
ID#	Name	R.Time	Area	Height	Conc.	Curve	3rd	2nd	1st	Constant	Area Ratio	Height Ratio	Conc. %	Norm Conc.
1	Hydrogen	0.000	0	0	0.000	Linear	0.000000e+00	0.000000e+00	0.000000e+00	0.000000e+00	0	0	0.000	0.000
2	Oxygen	0.000	0	0	0.000	Linear	0.000000e+00	0.000000e+00	0.000000e+00	0.000000e+00	0	0	0.000	0.000
3	Nitrogen	0.000	0	0	0.000	Linear	0.000000e+00	0.000000e+00	0.000000e+00	0.000000e+00	0	0	0.000	0.000
4	Methane	0.000	0	0	0.000	Linear	0.000000e+00	0.000000e+00	0.000000e+00	0.000000e+00	0	0	0.000	0.000
5	Carbon Monoxide	0.000	0	0	0.000	Linear	0.000000e+00	0.000000e+00	0.000000e+00	0.000000e+00	0	0	0.000	0.000

[Compound Results(Ch3)]
# of IDs	2
ID#	Name	R.Time	Area	Height	Conc.	Curve	3rd	2nd	1st	Constant	Area Ratio	Height Ratio	Conc. %	Norm Conc.
1	N2O	2.884	37220	6093	1.000	Linear	0.000000e+00	0.000000e+00	3.722025e+004	0.000000e+00	0	0	100.000	100.000
2	SF6	0.000	0	0	0.000	Linear	0.000000e+00	0.000000e+00	0.000000e+00	0.000000e+00	0	0	0.000	0.000

[Group Results(Ch1)]
# of Groups	0

[Group Results(Ch2)]
# of Groups	0

[Group Results(Ch3)]
# of Groups	0

[Chromatogram (Ch1)]
Interval(msec)	220
# of Points	1091
Start Time(min)	0.002
End Time(min)	3.998
R.Time (min)	Intensity
0.00167	-12
0.00533	-13
0.00900	-12
0.01267	-12
0.01633	-9
0.02000	-4
0.02367	6
0.02733	17
0.03100	25
0.03467	29
0.03833	29
0.04200	24
0.04567	15
0.04933	2
0.05300	-10
0.05667	-19
0.06033	-27
0.06400	-33
0.06767	-34
0.07133	-33
0.07500	-31
0.07867	-26
0.08233	-19
0.08600	-16
0.08967	-13
0.09333	-8
0.09700	-3
0.10067	-0
0.10433	1
0.10800	0
0.11167	-5
0.11533	-10
0.11900	-14
0.12267	-17
0.12633	-18
0.13000	-18
0.13367	-19
0.13733	-21
0.14100	-20
0.14467	-20
0.14833	-21
0.15200	-19
0.15567	-18
0.15933	-21
0.16300	-27
0.16667	-30
0.17033	-30
0.17400	-28
0.17767	-26
0.18133	-25
0.18500	-27
0.18867	-27
0.19233	-29
0.19600	-31
0.19967	-31
0.20333	-27
0.20700	-21
0.21067	-15
0.21433	-12
0.21800	-15
0.22167	-18
0.22533	-19
0.22900	-20
0.23267	-18
0.23633	-15
0.24000	-10
0.24367	-5
0.24733	-1
0.25100	-2
0.25467	-7
0.25833	-12
0.26200	-14
0.26567	-16
0.26933	-20
0.27300	-21
0.27667	-19
0.28033	-16
0.28400	-16
0.28767	-15
0.29133	-12
0.29500	-12
0.29867	-13
0.30233	-13
0.30600	-14
0.30967	-17
0.31333	-20
0.31700	-24
0.32067	-28
0.32433	-32
0.32800	-33
0.33167	-31
0.33533	-26
0.33900	-23
0.34267	-22
0.34633	-23
0.35000	-24
0.35367	-22
0.35733	-19
0.36100	-16
0.36467	-16
0.36833	-18
0.37200	-19
0.37567	-21
0.37933	-23
0.38300	-28
0.38667	-36
0.39033	-43
0.39400	-43
0.39767	-39
0.40133	-34
0.40500	-28
0.40867	-23
0.41233	-20
0.41600	-21
0.41967	-25
0.42333	-33
0.42700	-41
0.43067	-43
0.43433	-40
0.43800	-36
0.44167	-33
0.44533	-32
0.44900	-33
0.45267	-35
0.45633	-33
0.46000	-27
0.46367	-19
0.46733	-16
0.47100	-16
0.47467	-16
0.47833	-16
0.48200	-13
0.48567	-11
0.48933	-12
0.49300	-19
0.49667	-24
0.50033	-26
0.50400	-26
0.50767	-27
0.51133	-30
0.51500	-35
0.51867	-39
0.52233	-42
0.52600	-45
0.52967	-49
0.53333	-53
0.53700	-54
0.54067	-51
0.54433	-43
0.54800	-33
0.55167	-25
0.55533	-18
0.55900	-12
0.56267	-12
0.56633	-18
0.57000	-25
0.57367	-28
0.57733	-31
0.58100	-35
0.58467	-32
0.58833	-27
0.59200	-24
0.59567	-26
0.59933	-31
0.60300	-35
0.60667	-40
0.61033	-42
0.61400	-40
0.61767	-38
0.62133	-36
0.62500	-33
0.62867	-31
0.63233	-32
0.63600	-33
0.63967	-34
0.64333	-36
0.64700	-38
0.65067	-39
0.65433	-39
0.65800	-39
0.66167	-39
0.66533	-39
0.66900	-40
0.67267	-39
0.67633	-35
0.68000	-29
0.68367	-22
0.68733	-16
0.69100	-15
0.69467	-19
0.69833	-27
0.70200	-33
0.70567	-35
0.70933	-35
0.71300	-39
0.71667	-46
0.72033	-54
0.72400	-59
0.72767	-58
0.73133	-52
0.73500	-43
0.73867	-32
0.74233	-23
0.74600	-19
0.74967	-21
0.75333	-24
0.75700	-28
0.76067	-33
0.76433	-38
0.76800	-41
0.77167	-42
0.77533	-42
0.77900	-41
0.78267	-38
0.78633	-31
0.79000	-24
0.79367	-22
0.79733	-25
0.80100	-30
0.80467	-39
0.80833	-45
0.81200	-46
0.81567	-44
0.81933	-42
0.82300	-40
0.82667	-37
0.83033	-38
0.83400	-40
0.83767	-41
0.84133	-36
0.84500	-25
0.84867	-17
0.85233	-15
0.85600	-18
0.85967	-23
0.86333	-28
0.86700	-29
0.87067	-26
0.87433	-24
0.87800	-26
0.88167	-35
0.88533	-42
0.88900	-45
0.89267	-47
0.89633	-47
0.90000	-46
0.90367	-47
0.90733	-50
0.91100	-55
0.91467	-57
0.91833	-55
0.92200	-51
0.92567	-45
0.92933	-38
0.93300	-33
0.93667	-30
0.94033	-32
0.94400	-36
0.94767	-38
0.95133	-40
0.95500	-40
0.95867	-40
0.96233	-39
0.96600	-36
0.96967	-33
0.97333	-35
0.97700	-39
0.98067	-46
0.98433	-51
0.98800	-52
0.99167	-49
0.99533	-44
0.99900	-40
1.00267	-36
1.00633	-35
1.01000	-37
1.01367	-41
1.01733	-43
1.02100	-45
1.02467	-49
1.02833	-53
1.03200	-50
1.03567	-42
1.03933	-33
1.04300	-30
1.04667	-33
1.05033	-44
1.05400	-57
1.05767	-65
1.06133	-68
1.06500	-64
1.06867	-58
1.07233	-55
1.07600	-57
1.07967	-59
1.08333	-57
1.08700	-52
1.09067	-48
1.09433	-47
1.09800	-49
1.10167	-51
1.10533	-54
1.10900	-55
1.11267	-54
1.11633	-52
1.12000	-50
1.12367	-49
1.12733	-50
1.13100	-52
1.13467	-55
1.13833	-55
1.14200	-53
1.14567	-50
1.14933	-46
1.15300	-45
1.15667	-47
1.16033	-53
1.16400	-60
1.16767	-65
1.17133	-66
1.17500	-65
1.17867	-64
1.18233	-64
1.18600	-61
1.18967	-61
1.19333	-61
1.19700	-59
1.20067	-57
1.20433	-58
1.20800	-61
1.21167	-65
1.21533	-68
1.21900	-68
1.22267	-64
1.22633	-58
1.23000	-55
1.23367	-52
1.23733	-52
1.24100	-53
1.24467	-52
1.24833	-49
1.25200	-50
1.25567	-53
1.25933	-61
1.26300	-71
1.26667	-76
1.27033	-78
1.27400	-75
1.27767	-71
1.28133	-66
1.28500	-65
1.28867	-69
1.29233	-72
1.29600	-75
1.29967	-79
1.30333	-81
1.30700	-80
1.31067	-76
1.31433	-67
1.31800	-56
1.32167	-46
1.32533	-39
1.32900	-33
1.33267	-33
1.33633	-44
1.34000	-61
1.34367	-80
1.34733	-95
1.35100	-104
1.35467	-106
1.35833	-105
1.36200	-99
1.36567	-91
1.36933	-81
1.37300	-72
1.37667	-67
1.38033	-68
1.38400	-71
1.38767	-74
1.39133	-76
1.39500	-76
1.39867	-71
1.40233	-65
1.40600	-62
1.40967	-62
1.41333	-64
1.41700	-69
1.42067	-74
1.42433	-79
1.42800	-84
1.43167	-90
1.43533	-96
1.43900	-87
1.44267	-20
1.44633	173
1.45000	502
1.45367	976
1.45733	1628
1.46100	2395
1.46467	3136
1.46833	3752
1.47200	4197
1.47567	4439
1.47933	4442
1.48300	4184
1.48667	3694
1.49033	3064
1.49400	2411
1.49767	1821
1.50133	1336
1.50500	960
1.50867	681
1.51233	477
1.51600	328
1.51967	222
1.52333	146
1.52700	93
1.53067	57
1.53433	34
1.53800	29
1.54167	64
1.54533	200
1.54900	497
1.55267	939
1.55633	1432
1.56000	1879
1.56367	2227
1.56733	2454
1.57100	2522
1.57467	2398
1.57833	2098
1.58200	1691
1.58567	1269
1.58933	895
1.59300	599
1.59667	382
1.60033	232
1.60400	132
1.60767	64
1.61133	19
1.61500	-10
1.61867	-33
1.62233	-52
1.62600	-66
1.62967	-76
1.63333	-80
1.63700	-79
1.64067	-81
1.64433	-84
1.64800	-86
1.65167	-86
1.65533	-86
1.65900	-88
1.66267	-88
1.66633	-88
1.67000	-89
1.67367	-91
1.67733	-93
1.68100	-97
1.68467	-100
1.68833	-101
1.69200	-100
1.69567	-96
1.69933	-88
1.70300	-81
1.70667	-79
1.71033	-81
1.71400	-82
1.71767	-84
1.72133	-90
1.72500	-98
1.72867	-103
1.73233	-106
1.73600	-104
1.73967	-100
1.74333	-93
1.74700	-87
1.75067	-85
1.75433	-86
1.75800	-90
1.76167	-93
1.76533	-93
1.76900	-91
1.77267	-91
1.77633	-93
1.78000	-95
1.78367	-96
1.78733	-95
1.79100	-95
1.79467	-93
1.79833	-89
1.80200	-86
1.80567	-85
1.80933	-84
1.81300	-84
1.81667	-85
1.82033	-88
1.82400	-92
1.82767	-95
1.83133	-97
1.83500	-97
1.83867	-98
1.84233	-100
1.84600	-104
1.84967	-110
1.85333	-114
1.85700	-116
1.86067	-114
1.86433	-109
1.86800	-104
1.87167	-100
1.87533	-96
1.87900	-92
1.88267	-90
1.88633	-88
1.89000	-86
1.89367	-84
1.89733	-81
1.90100	-78
1.90467	-77
1.90833	-75
1.91200	-72
1.91567	-68
1.91933	-66
1.92300	-64
1.92667	-60
1.93033	-56
1.93400	-57
1.93767	-62
1.94133	-71
1.94500	-78
1.94867	-79
1.95233	-71
1.95600	-26
1.95967	262
1.96333	1743
1.96700	7567
1.97067	25018
1.97433	65412
1.97800	138602
1.98167	244155
1.98533	367934
1.98900	488773
1.99267	586691
1.99633	646713
2.00000	660506
2.00367	627595
2.00733	556360
2.01100	462169
2.01467	362435
2.01833	271082
2.02200	195626
2.02567	137773
2.02933	95703
2.03300	66201
2.03667	45993
2.04033	32339
2.04400	23164
2.04767	16987
2.05133	12797
2.05500	9915
2.05867	7898
2.06233	6458
2.06600	5405
2.06967	4616
2.07333	4008
2.07700	3529
2.08067	3143
2.08433	2827
2.08800	2568
2.09167	2357
2.09533	2181
2.09900	2027
2.10267	1885
2.10633	1758
2.11000	1642
2.11367	1540
2.11733	1448
2.12100	1363
2.12467	1286
2.12833	1219
2.13200	1156
2.13567	1097
2.13933	1045
2.14300	1001
2.14667	962
2.15033	925
2.15400	888
2.15767	854
2.16133	818
2.16500	779
2.16867	740
2.17233	708
2.17600	683
2.17967	662
2.18333	643
2.18700	623
2.19067	604
2.19433	588
2.19800	574
2.20167	563
2.20533	554
2.20900	545
2.21267	534
2.21633	517
2.22000	499
2.22367	481
2.22733	464
2.23100	448
2.23467	434
2.23833	423
2.24200	413
2.24567	406
2.24933	400
2.25300	396
2.25667	392
2.26033	389
2.26400	386
2.26767	379
2.27133	368
2.27500	360
2.27867	354
2.28233	347
2.28600	340
2.28967	332
2.29333	325
2.29700	319
2.30067	313
2.30433	303
2.30800	291
2.31167	280
2.31533	267
2.31900	255
2.32267	247
2.32633	243
2.33000	241
2.33367	237
2.33733	234
2.34100	229
2.34467	225
2.34833	226
2.35200	234
2.35567	240
2.35933	240
2.36300	234
2.36667	227
2.37033	219
2.37400	211
2.37767	203
2.38133	200
2.38500	200
2.38867	201
2.39233	203
2.39600	205
2.39967	205
2.40333	202
2.40700	199
2.41067	194
2.41433	188
2.41800	185
2.42167	184
2.42533	185
2.42900	188
2.43267	192
2.43633	193
2.44000	193
2.44367	192
2.44733	192
2.45100	192
2.45467	189
2.45833	180
2.46200	169
2.46567	161
2.46933	155
2.47300	152
2.47667	154
2.48033	159
2.48400	158
2.48767	154
2.49133	146
2.49500	139
2.49867	132
2.50233	127
2.50600	126
2.50967	125
2.51333	127
2.51700	133
2.52067	139
2.52433	142
2.52800	145
2.53167	147
2.53533	148
2.53900	148
2.54267	150
2.54633	149
2.55000	144
2.55367	136
2.55733	129
2.56100	126
2.56467	126
2.56833	125
2.57200	125
2.57567	127
2.57933	132
2.58300	133
2.58667	133
2.59033	136
2.59400	140
2.59767	139
2.60133	133
2.60500	126
2.60867	119
2.61233	114
2.61600	113
2.61967	114
2.62333	112
2.62700	108
2.63067	106
2.63433	106
2.63800	110
2.64167	115
2.64533	116
2.64900	113
2.65267	108
2.65633	105
2.66000	103
2.66367	102
2.66733	102
2.67100	100
2.67467	98
2.67833	95
2.68200	89
2.68567	82
2.68933	75
2.69300	73
2.69667	74
2.70033	76
2.70400	79
2.70767	83
2.71133	87
2.71500	92
2.71867	98
2.72233	102
2.72600	102
2.72967	101
2.73333	99
2.73700	99
2.74067	100
2.74433	101
2.74800	100
2.75167	98
2.75533	92
2.75900	88
2.76267	84
2.76633	81
2.77000	77
2.77367	74
2.77733	74
2.78100	77
2.78467	83
2.78833	89
2.79200	95
2.79567	102
2.79933	107
2.80300	110
2.80667	112
2.81033	112
2.81400	107
2.81767	98
2.82133	89
2.82500	83
2.82867	81
2.83233	81
2.83600	83
2.83967	86
2.84333	87
2.84700	88
2.85067	90
2.85433	88
2.85800	84
2.86167	79
2.86533	76
2.86900	72
2.87267	64
2.87633	60
2.88000	61
2.88367	69
2.88733	77
2.89100	86
2.89467	95
2.89833	105
2.90200	109
2.90567	108
2.90933	105
2.91300	100
2.91667	93
2.92033	85
2.92400	80
2.92767	79
2.93133	81
2.93500	85
2.93867	88
2.94233	90
2.94600	90
2.94967	92
2.95333	95
2.95700	95
2.96067	92
2.96433	87
2.96800	81
2.97167	83
2.97533	91
2.97900	100
2.98267	107
2.98633	114
2.99000	115
2.99367	114
2.99733	113
3.00100	115
3.00467	118
3.00833	122
3.01200	124
3.01567	126
3.01933	127
3.02300	128
3.02667	126
3.03033	121
3.03400	115
3.03767	110
3.04133	107
3.04500	107
3.04867	109
3.05233	109
3.05600	105
3.05967	97
3.06333	88
3.06700	83
3.07067	84
3.07433	88
3.07800	92
3.08167	95
3.08533	95
3.08900	95
3.09267	96
3.09633	98
3.10000	99
3.10367	100
3.10733	98
3.11100	95
3.11467	95
3.11833	95
3.12200	95
3.12567	95
3.12933	95
3.13300	93
3.13667	92
3.14033	92
3.14400	93
3.14767	95
3.15133	99
3.15500	103
3.15867	105
3.16233	104
3.16600	101
3.16967	96
3.17333	93
3.17700	91
3.18067	89
3.18433	90
3.18800	93
3.19167	99
3.19533	103
3.19900	105
3.20267	105
3.20633	106
3.21000	106
3.21367	105
3.21733	103
3.22100	98
3.22467	95
3.22833	94
3.23200	94
3.23567	95
3.23933	95
3.24300	94
3.24667	92
3.25033	91
3.25400	92
3.25767	95
3.26133	101
3.26500	107
3.26867	110
3.27233	108
3.27600	101
3.27967	96
3.28333	95
3.28700	95
3.29067	96
3.29433	97
3.29800	96
3.30167	97
3.30533	99
3.30900	100
3.31267	99
3.31633	98
3.32000	98
3.32367	98
3.32733	97
3.33100	93
3.33467	88
3.33833	88
3.34200	87
3.34567	81
3.34933	78
3.35300	78
3.35667	83
3.36033	88
3.36400	94
3.36767	101
3.37133	107
3.37500	110
3.37867	110
3.38233	110
3.38600	108
3.38967	107
3.39333	106
3.39700	106
3.40067	105
3.40433	100
3.40800	91
3.41167	80
3.41533	71
3.41900	67
3.42267	69
3.42633	77
3.43000	85
3.43367	89
3.43733	89
3.44100	89
3.44467	89
3.44833	88
3.45200	85
3.45567	83
3.45933	84
3.46300	86
3.46667	89
3.47033	91
3.47400	96
3.47767	102
3.48133	105
3.48500	106
3.48867	105
3.49233	103
3.49600	97
3.49967	90
3.50333	84
3.50700	80
3.51067	78
3.51433	78
3.51800	82
3.52167	89
3.52533	96
3.52900	98
3.53267	97
3.53633	97
3.54000	96
3.54367	93
3.54733	92
3.55100	92
3.55467	93
3.55833	92
3.56200	89
3.56567	87
3.56933	84
3.57300	80
3.57667	77
3.58033	75
3.58400	73
3.58767	73
3.59133	74
3.59500	75
3.59867	75
3.60233	74
3.60600	74
3.60967	76
3.61333	79
3.61700	81
3.62067	81
3.62433	79
3.62800	78
3.63167	79
3.63533	80
3.63900	81
3.64267	85
3.64633	88
3.65000	88
3.65367	84
3.65733	80
3.66100	76
3.66467	71
3.66833	64
3.67200	59
3.67567	57
3.67933	59
3.68300	63
3.68667	66
3.69033	69
3.69400	67
3.69767	64
3.70133	60
3.70500	57
3.70867	55
3.71233	56
3.71600	59
3.71967	63
3.72333	66
3.72700	69
3.73067	71
3.73433	72
3.73800	71
3.74167	68
3.74533	64
3.74900	59
3.75267	57
3.75633	58
3.76000	64
3.76367	73
3.76733	82
3.77100	86
3.77467	84
3.77833	81
3.78200	78
3.78567	75
3.78933	72
3.79300	69
3.79667	66
3.80033	69
3.80400	75
3.80767	80
3.81133	78
3.81500	72
3.81867	67
3.82233	58
3.82600	50
3.82967	45
3.83333	45
3.83700	49
3.84067	52
3.84433	53
3.84800	54
3.85167	57
3.85533	55
3.85900	52
3.86267	52
3.86633	53
3.87000	51
3.87367	47
3.87733	44
3.88100	44
3.88467	45
3.88833	46
3.89200	43
3.89567	38
3.89933	34
3.90300	33
3.90667	33
3.91033	35
3.91400	36
3.91767	41
3.92133	48
3.92500	56
3.92867	65
3.93233	72
3.93600	76
3.93967	72
3.94333	66
3.94700	59
3.95067	57
3.95433	57
3.95800	58
3.96167	63
3.96533	64
3.96900	64
3.97267	62
3.97633	56
3.98000	48
3.98367	39
3.98733	34
3.99100	33
3.99467	39
3.99833	46

[Chromatogram (Ch2)]
Interval(msec)	220
# of Points	1091
Start Time(min)	0.002
End Time(min)	3.998
R.Time (min)	Intensity
0.00167	-0
0.00533	-0
0.00900	-0
0.01267	-0
0.01633	-0
0.02000	-0
0.02367	-1
0.02733	-1
0.03100	-1
0.03467	-0
0.03833	-0
0.04200	-0
0.04567	-0
0.04933	-0
0.05300	-0
0.05667	-0
0.06033	-0
0.06400	-0
0.06767	-0
0.07133	-1
0.07500	-1
0.07867	-1
0.08233	-1
0.08600	-1
0.08967	-1
0.09333	-1
0.09700	-1
0.10067	-0
0.10433	0
0.10800	0
0.11167	1
0.11533	1
0.11900	1
0.12267	1
0.12633	1
0.13000	1
0.13367	1
0.13733	1
0.14100	1
0.14467	1
0.14833	1
0.15200	1
0.15567	1
0.15933	1
0.16300	1
0.16667	1
0.17033	1
0.17400	1
0.17767	1
0.18133	1
0.18500	1
0.18867	1
0.19233	1
0.19600	1
0.19967	1
0.20333	1
0.20700	1
0.21067	2
0.21433	2
0.21800	1
0.22167	1
0.22533	0
0.22900	-0
0.23267	-1
0.23633	-1
0.24000	-2
0.24367	-2
0.24733	-2
0.25100	-3
0.25467	-3
0.25833	-3
0.26200	-3
0.26567	-3
0.26933	-3
0.27300	-3
0.27667	-3
0.28033	-3
0.28400	-3
0.28767	-3
0.29133	-3
0.29500	-3
0.29867	-3
0.30233	-2
0.30600	-2
0.30967	-2
0.31333	-1
0.31700	-1
0.32067	-1
0.32433	-1
0.32800	-1
0.33167	-1
0.33533	-1
0.33900	-1
0.34267	-0
0.34633	0
0.35000	0
0.35367	1
0.35733	1
0.36100	1
0.36467	1
0.36833	1
0.37200	1
0.37567	1
0.37933	1
0.38300	1
0.38667	1
0.39033	1
0.39400	1
0.39767	1
0.40133	1
0.40500	1
0.40867	1
0.41233	1
0.41600	1
0.41967	1
0.42333	1
0.42700	1
0.43067	1
0.43433	0
0.43800	0
0.44167	1
0.44533	1
0.44900	1
0.45267	1
0.45633	0
0.46000	0
0.46367	0
0.46733	0
0.47100	0
0.47467	-0
0.47833	-0
0.48200	-0
0.48567	-0
0.48933	-0
0.49300	-1
0.49667	-1
0.50033	-1
0.50400	-1
0.50767	-1
0.51133	-1
0.51500	-1
0.51867	-1
0.52233	-1
0.52600	-1
0.52967	-1
0.53333	-1
0.53700	-1
0.54067	-1
0.54433	-1
0.54800	-2
0.55167	-2
0.55533	-2
0.55900	-2
0.56267	-2
0.56633	-2
0.57000	-2
0.57367	-2
0.57733	-2
0.58100	-2
0.58467	-2
0.58833	-2
0.59200	-2
0.59567	-1
0.59933	-1
0.60300	-1
0.60667	-2
0.61033	-2
0.61400	-2
0.61767	-2
0.62133	-2
0.62500	-2
0.62867	-2
0.63233	-2
0.63600	-2
0.63967	-2
0.64333	-2
0.64700	-2
0.65067	-3
0.65433	-3
0.65800	-3
0.66167	-3
0.66533	-3
0.66900	-3
0.67267	-3
0.67633	-3
0.68000	-3
0.68367	-3
0.68733	-3
0.69100	-4
0.69467	-4
0.69833	-4
0.70200	-3
0.70567	-3
0.70933	-3
0.71300	-3
0.71667	-3
0.72033	-2
0.72400	-2
0.72767	-2
0.73133	-2
0.73500	-2
0.73867	-2
0.74233	-1
0.74600	-1
0.74967	-1
0.75333	-1
0.75700	-0
0.76067	0
0.76433	0
0.76800	0
0.77167	0
0.77533	0
0.77900	0
0.78267	0
0.78633	0
0.79000	0
0.79367	0
0.79733	0
0.80100	0
0.80467	0
0.80833	-0
0.81200	-0
0.81567	-0
0.81933	-1
0.82300	-1
0.82667	-1
0.83033	-1
0.83400	-1
0.83767	-1
0.84133	-1
0.84500	-2
0.84867	-2
0.85233	-2
0.85600	-2
0.85967	-3
0.86333	-2
0.86700	-2
0.87067	-2
0.87433	-2
0.87800	-1
0.88167	-1
0.88533	-0
0.88900	0
0.89267	1
0.89633	1
0.90000	1
0.90367	1
0.90733	0
0.91100	-0
0.91467	-0
0.91833	-0
0.92200	-0
0.92567	-1
0.92933	-1
0.93300	-1
0.93667	-1
0.94033	-1
0.94400	-1
0.94767	-1
0.95133	-2
0.95500	-2
0.95867	-2
0.96233	-2
0.96600	-2
0.96967	-2
0.97333	-2
0.97700	-2
0.98067	-1
0.98433	-1
0.98800	-1
0.99167	-1
0.99533	-1
0.99900	-1
1.00267	-1
1.00633	-1
1.01000	-1
1.01367	-1
1.01733	-1
1.02100	-1
1.02467	-2
1.02833	-2
1.03200	-3
1.03567	-3
1.03933	-3
1.04300	-3
1.04667	-4
1.05033	-3
1.05400	-3
1.05767	-3
1.06133	-3
1.06500	-4
1.06867	-4
1.07233	-3
1.07600	-3
1.07967	-3
1.08333	-2
1.08700	-2
1.09067	-1
1.09433	-1
1.09800	-1
1.10167	-1
1.10533	-1
1.10900	-1
1.11267	-1
1.11633	-1
1.12000	-2
1.12367	-2
1.12733	-2
1.13100	-2
1.13467	-3
1.13833	-3
1.14200	-3
1.14567	-3
1.14933	-3
1.15300	-3
1.15667	-4
1.16033	-4
1.16400	-4
1.16767	-5
1.17133	-5
1.17500	-5
1.17867	-5
1.18233	-5
1.18600	-5
1.18967	-5
1.19333	-5
1.19700	-4
1.20067	-4
1.20433	-4
1.20800	-4
1.21167	-3
1.21533	-3
1.21900	-3
1.22267	-2
1.22633	-2
1.23000	-1
1.23367	-1
1.23733	-1
1.24100	-1
1.24467	-1
1.24833	-1
1.25200	-1
1.25567	-1
1.25933	-1
1.26300	-2
1.26667	-2
1.27033	-2
1.27400	-2
1.27767	-2
1.28133	-2
1.28500	-2
1.28867	-1
1.29233	-1
1.29600	-1
1.29967	-1
1.30333	-0
1.30700	-0
1.31067	-0
1.31433	-0
1.31800	-0
1.32167	-0
1.32533	0
1.32900	0
1.33267	0
1.33633	0
1.34000	-0
1.34367	-0
1.34733	-1
1.35100	-1
1.35467	-1
1.35833	-2
1.36200	-2
1.36567	-2
1.36933	-3
1.37300	-3
1.37667	-3
1.38033	-3
1.38400	-3
1.38767	-2
1.39133	-2
1.39500	-2
1.39867	-2
1.40233	-1
1.40600	-1
1.40967	-2
1.41333	-2
1.41700	-2
1.42067	-1
1.42433	-1
1.42800	-1
1.43167	-1
1.43533	-1
1.43900	-1
1.44267	-2
1.44633	-2
1.45000	-2
1.45367	-2
1.45733	-2
1.46100	-2
1.46467	-2
1.46833	-2
1.47200	-2
1.47567	-2
1.47933	-2
1.48300	-2
1.48667	-2
1.49033	-2
1.49400	-2
1.49767	-2
1.50133	-1
1.50500	-1
1.50867	-1
1.51233	-1
1.51600	-1
1.51967	-1
1.52333	-1
1.52700	-2
1.53067	-2
1.53433	-3
1.53800	-3
1.54167	-3
1.54533	-4
1.54900	-4
1.55267	-4
1.55633	-4
1.56000	-5
1.56367	-5
1.56733	-5
1.57100	-5
1.57467	-6
1.57833	-6
1.58200	-6
1.58567	-6
1.58933	-7
1.59300	-7
1.59667	-7
1.60033	-8
1.60400	-9
1.60767	-10
1.61133	-11
1.61500	-13
1.61867	-15
1.62233	-18
1.62600	-20
1.62967	-23
1.63333	-26
1.63700	-30
1.64067	-34
1.64433	-37
1.64800	-41
1.65167	-44
1.65533	-48
1.65900	-52
1.66267	-55
1.66633	-59
1.67000	-62
1.67367	-65
1.67733	-69
1.68100	-73
1.68467	-77
1.68833	-81
1.69200	-85
1.69567	-89
1.69933	-93
1.70300	-97
1.70667	-100
1.71033	-103
1.71400	-106
1.71767	-108
1.72133	-110
1.72500	-111
1.72867	-112
1.73233	-113
1.73600	-114
1.73967	-114
1.74333	-114
1.74700	-114
1.75067	-113
1.75433	-113
1.75800	-113
1.76167	-113
1.76533	-114
1.76900	-114
1.77267	-115
1.77633	-115
1.78000	-116
1.78367	-117
1.78733	-118
1.79100	-118
1.79467	-119
1.79833	-120
1.80200	-121
1.80567	-121
1.80933	-121
1.81300	-122
1.81667	-121
1.82033	-121
1.82400	-121
1.82767	-121
1.83133	-121
1.83500	-121
1.83867	-121
1.84233	-121
1.84600	-122
1.84967	-123
1.85333	-123
1.85700	-123
1.86067	-123
1.86433	-123
1.86800	-123
1.87167	-123
1.87533	-123
1.87900	-123
1.88267	-123
1.88633	-122
1.89000	-121
1.89367	-120
1.89733	-120
1.90100	-119
1.90467	-120
1.90833	-120
1.91200	-120
1.91567	-120
1.91933	-120
1.92300	-120
1.92667	-120
1.93033	-120
1.93400	-119
1.93767	-119
1.94133	-119
1.94500	-119
1.94867	-119
1.95233	-119
1.95600	-119
1.95967	-119
1.96333	-119
1.96700	-119
1.97067	-119
1.97433	-119
1.97800	-119
1.98167	-119
1.98533	-119
1.98900	-119
1.99267	-119
1.99633	-119
2.00000	-119
2.00367	-118
2.00733	-118
2.01100	-118
2.01467	-117
2.01833	-117
2.02200	-117
2.02567	-117
2.02933	-117
2.03300	-116
2.03667	-115
2.04033	-114
2.04400	-113
2.04767	-113
2.05133	-112
2.05500	-111
2.05867	-110
2.06233	-110
2.06600	-109
2.06967	-108
2.07333	-108
2.07700	-107
2.08067	-107
2.08433	-107
2.08800	-107
2.09167	-107
2.09533	-106
2.09900	-106
2.10267	-106
2.10633	-105
2.11000	-105
2.11367	-105
2.11733	-105
2.12100	-105
2.12467	-105
2.12833	-104
2.13200	-104
2.13567	-104
2.13933	-103
2.14300	-103
2.14667	-103
2.15033	-103
2.15400	-103
2.15767	-103
2.16133	-102
2.16500	-101
2.16867	-101
2.17233	-100
2.17600	-99
2.17967	-99
2.18333	-99
2.18700	-99
2.19067	-99
2.19433	-99
2.19800	-99
2.20167	-99
2.20533	-99
2.20900	-99
2.21267	-98
2.21633	-98
2.22000	-98
2.22367	-97
2.22733	-97
2.23100	-96
2.23467	-95
2.23833	-94
2.24200	-93
2.24567	-92
2.24933	-92
2.25300	-91
2.25667	-91
2.26033	-91
2.26400	-90
2.26767	-90
2.27133	-89
2.27500	-89
2.27867	-89
2.28233	-88
2.28600	-88
2.28967	-88
2.29333	-89
2.29700	-89
2.30067	-90
2.30433	-90
2.30800	-90
2.31167	-89
2.31533	-88
2.31900	-87
2.32267	-86
2.32633	-86
2.33000	-85
2.33367	-85
2.33733	-85
2.34100	-85
2.34467	-84
2.34833	-84
2.35200	-84
2.35567	-84
2.35933	-83
2.36300	-83
2.36667	-82
2.37033	-81
2.37400	-80
2.37767	-79
2.38133	-76
2.38500	-73
2.38867	-69
2.39233	-65
2.39600	-60
2.39967	-56
2.40333	-51
2.40700	-46
2.41067	-41
2.41433	-37
2.41800	-33
2.42167	-29
2.42533	-26
2.42900	-23
2.43267	-20
2.43633	-18
2.44000	-16
2.44367	-15
2.44733	-13
2.45100	-11
2.45467	-9
2.45833	-8
2.46200	-6
2.46567	-5
2.46933	-4
2.47300	-3
2.47667	-2
2.48033	-1
2.48400	0
2.48767	2
2.49133	3
2.49500	4
2.49867	5
2.50233	6
2.50600	7
2.50967	8
2.51333	8
2.51700	9
2.52067	10
2.52433	11
2.52800	12
2.53167	12
2.53533	13
2.53900	13
2.54267	13
2.54633	13
2.55000	13
2.55367	13
2.55733	14
2.56100	14
2.56467	14
2.56833	14
2.57200	14
2.57567	15
2.57933	15
2.58300	14
2.58667	14
2.59033	15
2.59400	15
2.59767	15
2.60133	15
2.60500	15
2.60867	15
2.61233	16
2.61600	16
2.61967	16
2.62333	16
2.62700	16
2.63067	17
2.63433	17
2.63800	18
2.64167	18
2.64533	19
2.64900	19
2.65267	19
2.65633	19
2.66000	20
2.66367	20
2.66733	20
2.67100	20
2.67467	20
2.67833	20
2.68200	21
2.68567	21
2.68933	21
2.69300	21
2.69667	22
2.70033	22
2.70400	22
2.70767	22
2.71133	21
2.71500	21
2.71867	21
2.72233	20
2.72600	20
2.72967	20
2.73333	20
2.73700	20
2.74067	21
2.74433	21
2.74800	22
2.75167	22
2.75533	23
2.75900	23
2.76267	24
2.76633	24
2.77000	25
2.77367	25
2.77733	26
2.78100	26
2.78467	26
2.78833	26
2.79200	26
2.79567	26
2.79933	26
2.80300	26
2.80667	26
2.81033	26
2.81400	26
2.81767	25
2.82133	25
2.82500	25
2.82867	25
2.83233	25
2.83600	25
2.83967	25
2.84333	24
2.84700	24
2.85067	22
2.85433	20
2.85800	16
2.86167	11
2.86533	2
2.86900	-10
2.87267	-25
2.87633	-44
2.88000	-67
2.88367	-95
2.88733	-126
2.89100	-161
2.89467	-199
2.89833	-240
2.90200	-284
2.90567	-330
2.90933	-377
2.91300	-426
2.91667	-476
2.92033	-527
2.92400	-577
2.92767	-627
2.93133	-677
2.93500	-726
2.93867	-775
2.94233	-825
2.94600	-877
2.94967	-935
2.95333	-997
2.95700	-1051
2.96067	-1088
2.96433	-1100
2.96800	-1085
2.97167	-1047
2.97533	-990
2.97900	-920
2.98267	-842
2.98633	-761
2.99000	-681
2.99367	-603
2.99733	-531
3.00100	-463
3.00467	-402
3.00833	-348
3.01200	-299
3.01567	-256
3.01933	-219
3.02300	-186
3.02667	-157
3.03033	-133
3.03400	-111
3.03767	-93
3.04133	-78
3.04500	-65
3.04867	-53
3.05233	-43
3.05600	-35
3.05967	-28
3.06333	-22
3.06700	-17
3.07067	-12
3.07433	-8
3.07800	-5
3.08167	-2
3.08533	0
3.08900	3
3.09267	5
3.09633	6
3.10000	8
3.10367	9
3.10733	10
3.11100	11
3.11467	12
3.11833	12
3.12200	13
3.12567	14
3.12933	14
3.13300	15
3.13667	15
3.14033	16
3.14400	16
3.14767	16
3.15133	16
3.15500	16
3.15867	17
3.16233	17
3.16600	18
3.16967	18
3.17333	18
3.17700	18
3.18067	19
3.18433	19
3.18800	19
3.19167	19
3.19533	19
3.19900	19
3.20267	19
3.20633	19
3.21000	19
3.21367	19
3.21733	19
3.22100	20
3.22467	20
3.22833	20
3.23200	20
3.23567	20
3.23933	21
3.24300	21
3.24667	21
3.25033	21
3.25400	21
3.25767	21
3.26133	22
3.26500	22
3.26867	22
3.27233	22
3.27600	23
3.27967	23
3.28333	23
3.28700	23
3.29067	23
3.29433	24
3.29800	24
3.30167	24
3.30533	24
3.30900	24
3.31267	25
3.31633	25
3.32000	25
3.32367	25
3.32733	25
3.33100	25
3.33467	26
3.33833	26
3.34200	26
3.34567	26
3.34933	26
3.35300	26
3.35667	26
3.36033	26
3.36400	26
3.36767	26
3.37133	26
3.37500	26
3.37867	26
3.38233	26
3.38600	26
3.38967	25
3.39333	25
3.39700	25
3.40067	25
3.40433	25
3.40800	25
3.41167	25
3.41533	26
3.41900	26
3.42267	26
3.42633	26
3.43000	26
3.43367	26
3.43733	26
3.44100	26
3.44467	25
3.44833	25
3.45200	25
3.45567	25
3.45933	25
3.46300	25
3.46667	25
3.47033	25
3.47400	25
3.47767	24
3.48133	24
3.48500	24
3.48867	24
3.49233	24
3.49600	24
3.49967	24
3.50333	25
3.50700	25
3.51067	25
3.51433	25
3.51800	25
3.52167	26
3.52533	26
3.52900	26
3.53267	26
3.53633	26
3.54000	26
3.54367	26
3.54733	25
3.55100	25
3.55467	25
3.55833	25
3.56200	25
3.56567	25
3.56933	25
3.57300	25
3.57667	25
3.58033	25
3.58400	25
3.58767	25
3.59133	25
3.59500	25
3.59867	25
3.60233	26
3.60600	26
3.60967	26
3.61333	26
3.61700	26
3.62067	26
3.62433	26
3.62800	26
3.63167	26
3.63533	27
3.63900	27
3.64267	27
3.64633	27
3.65000	27
3.65367	27
3.65733	27
3.66100	27
3.66467	27
3.66833	28
3.67200	28
3.67567	28
3.67933	28
3.68300	27
3.68667	27
3.69033	27
3.69400	27
3.69767	27
3.70133	27
3.70500	27
3.70867	27
3.71233	27
3.71600	27
3.71967	26
3.72333	26
3.72700	26
3.73067	26
3.73433	26
3.73800	25
3.74167	26
3.74533	26
3.74900	26
3.75267	26
3.75633	27
3.76000	27
3.76367	27
3.76733	27
3.77100	27
3.77467	27
3.77833	27
3.78200	27
3.78567	27
3.78933	27
3.79300	27
3.79667	27
3.80033	27
3.80400	27
3.80767	27
3.81133	27
3.81500	26
3.81867	26
3.82233	26
3.82600	26
3.82967	26
3.83333	26
3.83700	26
3.84067	26
3.84433	26
3.84800	26
3.85167	26
3.85533	26
3.85900	26
3.86267	26
3.86633	26
3.87000	26
3.87367	26
3.87733	26
3.88100	26
3.88467	26
3.88833	26
3.89200	26
3.89567	26
3.89933	26
3.90300	26
3.90667	26
3.91033	26
3.91400	26
3.91767	27
3.92133	27
3.92500	27
3.92867	27
3.93233	27
3.93600	27
3.93967	26
3.94333	26
3.94700	26
3.95067	26
3.95433	26
3.95800	26
3.96167	26
3.96533	26
3.96900	25
3.97267	25
3.97633	25
3.98000	25
3.98367	25
3.98733	25
3.99100	25
3.99467	25
3.99833	25

[Chromatogram (Ch3)]
Interval(msec)	220
# of Points	1091
Start Time(min)	0.002
End Time(min)	3.998
R.Time (min)	Intensity
0.00167	0
0.00533	2
0.00900	3
0.01267	4
0.01633	3
0.02000	-2
0.02367	-5
0.02733	-6
0.03100	-6
0.03467	-6
0.03833	-6
0.04200	-5
0.04567	-4
0.04933	-7
0.05300	-7
0.05667	-8
0.06033	-8
0.06400	-7
0.06767	-5
0.07133	-6
0.07500	-9
0.07867	-9
0.08233	-7
0.08600	-6
0.08967	-6
0.09333	-6
0.09700	-5
0.10067	-5
0.10433	-6
0.10800	-6
0.11167	-5
0.11533	-1
0.11900	-1
0.12267	-1
0.12633	-3
0.13000	-3
0.13367	-2
0.13733	-1
0.14100	0
0.14467	0
0.14833	-1
0.15200	-2
0.15567	-4
0.15933	-5
0.16300	-6
0.16667	-6
0.17033	-5
0.17400	-5
0.17767	-5
0.18133	-5
0.18500	-4
0.18867	-3
0.19233	-2
0.19600	-3
0.19967	-5
0.20333	-5
0.20700	-3
0.21067	-3
0.21433	-3
0.21800	-3
0.22167	-3
0.22533	-4
0.22900	-3
0.23267	-1
0.23633	1
0.24000	2
0.24367	0
0.24733	-2
0.25100	-3
0.25467	-2
0.25833	-2
0.26200	-2
0.26567	-1
0.26933	-3
0.27300	-5
0.27667	-7
0.28033	-9
0.28400	-11
0.28767	-11
0.29133	-9
0.29500	-7
0.29867	-5
0.30233	-4
0.30600	-3
0.30967	-5
0.31333	-6
0.31700	-9
0.32067	-10
0.32433	-10
0.32800	-9
0.33167	-10
0.33533	-11
0.33900	-10
0.34267	-9
0.34633	-7
0.35000	-5
0.35367	-5
0.35733	-6
0.36100	-6
0.36467	-6
0.36833	-6
0.37200	-6
0.37567	-6
0.37933	-6
0.38300	-7
0.38667	-7
0.39033	-6
0.39400	-5
0.39767	-5
0.40133	-5
0.40500	-6
0.40867	-7
0.41233	-9
0.41600	-9
0.41967	-7
0.42333	-8
0.42700	-11
0.43067	-11
0.43433	-11
0.43800	-10
0.44167	-8
0.44533	-8
0.44900	-8
0.45267	-9
0.45633	-9
0.46000	-10
0.46367	-7
0.46733	-7
0.47100	-10
0.47467	-12
0.47833	-11
0.48200	-10
0.48567	-12
0.48933	-13
0.49300	-11
0.49667	-10
0.50033	-10
0.50400	-9
0.50767	-6
0.51133	-3
0.51500	-3
0.51867	-3
0.52233	-3
0.52600	-5
0.52967	-5
0.53333	-5
0.53700	-6
0.54067	-8
0.54433	-10
0.54800	-11
0.55167	-13
0.55533	-12
0.55900	-12
0.56267	-12
0.56633	-12
0.57000	-12
0.57367	-13
0.57733	-12
0.58100	-14
0.58467	-13
0.58833	-13
0.59200	-15
0.59567	-15
0.59933	-13
0.60300	-12
0.60667	-9
0.61033	-8
0.61400	-10
0.61767	-11
0.62133	-11
0.62500	-8
0.62867	-8
0.63233	-10
0.63600	-11
0.63967	-11
0.64333	-13
0.64700	-13
0.65067	-11
0.65433	-12
0.65800	-13
0.66167	-15
0.66533	-14
0.66900	-13
0.67267	-12
0.67633	-12
0.68000	-10
0.68367	-10
0.68733	-9
0.69100	-10
0.69467	-11
0.69833	-13
0.70200	-14
0.70567	-15
0.70933	-19
0.71300	-20
0.71667	-18
0.72033	-16
0.72400	-17
0.72767	-18
0.73133	-18
0.73500	-18
0.73867	-15
0.74233	-14
0.74600	-14
0.74967	-13
0.75333	-14
0.75700	-15
0.76067	-14
0.76433	-15
0.76800	-14
0.77167	-15
0.77533	-17
0.77900	-19
0.78267	-20
0.78633	-20
0.79000	-19
0.79367	-15
0.79733	-13
0.80100	-14
0.80467	-14
0.80833	-14
0.81200	-15
0.81567	-15
0.81933	-16
0.82300	-16
0.82667	-16
0.83033	-14
0.83400	-13
0.83767	-14
0.84133	-16
0.84500	-18
0.84867	-19
0.85233	-18
0.85600	-14
0.85967	-12
0.86333	-12
0.86700	-14
0.87067	-16
0.87433	-17
0.87800	-15
0.88167	-13
0.88533	-12
0.88900	-13
0.89267	-12
0.89633	-12
0.90000	-12
0.90367	-12
0.90733	-13
0.91100	-14
0.91467	-15
0.91833	-15
0.92200	-17
0.92567	-17
0.92933	-17
0.93300	-20
0.93667	-21
0.94033	-20
0.94400	-20
0.94767	-21
0.95133	-22
0.95500	-21
0.95867	-21
0.96233	-21
0.96600	-19
0.96967	-19
0.97333	-18
0.97700	-16
0.98067	-15
0.98433	-15
0.98800	-16
0.99167	-18
0.99533	-20
0.99900	-21
1.00267	-21
1.00633	-19
1.01000	-18
1.01367	-17
1.01733	-14
1.02100	-14
1.02467	-14
1.02833	-15
1.03200	-17
1.03567	-16
1.03933	-16
1.04300	-17
1.04667	-18
1.05033	-18
1.05400	-19
1.05767	-19
1.06133	-19
1.06500	-18
1.06867	-17
1.07233	-16
1.07600	-16
1.07967	-15
1.08333	-15
1.08700	-15
1.09067	-14
1.09433	-15
1.09800	-16
1.10167	-19
1.10533	-19
1.10900	-16
1.11267	-15
1.11633	-17
1.12000	-20
1.12367	-21
1.12733	-19
1.13100	-17
1.13467	-16
1.13833	-17
1.14200	-18
1.14567	-19
1.14933	-21
1.15300	-20
1.15667	-21
1.16033	-22
1.16400	-22
1.16767	-23
1.17133	-23
1.17500	-22
1.17867	-22
1.18233	-22
1.18600	-23
1.18967	-23
1.19333	-21
1.19700	-18
1.20067	-16
1.20433	-16
1.20800	-18
1.21167	-17
1.21533	-18
1.21900	-17
1.22267	-16
1.22633	-17
1.23000	-18
1.23367	-21
1.23733	-22
1.24100	-22
1.24467	-23
1.24833	-23
1.25200	-23
1.25567	-22
1.25933	-22
1.26300	-22
1.26667	-21
1.27033	-20
1.27400	-20
1.27767	-19
1.28133	-19
1.28500	-19
1.28867	-19
1.29233	-20
1.29600	-24
1.29967	-27
1.30333	-29
1.30700	-28
1.31067	-26
1.31433	-25
1.31800	-25
1.32167	-26
1.32533	-25
1.32900	-24
1.33267	-23
1.33633	-24
1.34000	-25
1.34367	-24
1.34733	-23
1.35100	-23
1.35467	-21
1.35833	-22
1.36200	-24
1.36567	-25
1.36933	-24
1.37300	-22
1.37667	-18
1.38033	-17
1.38400	-18
1.38767	-20
1.39133	-21
1.39500	-22
1.39867	-22
1.40233	-21
1.40600	-20
1.40967	-18
1.41333	-17
1.41700	-19
1.42067	-23
1.42433	-25
1.42800	-24
1.43167	-22
1.43533	-22
1.43900	-22
1.44267	-22
1.44633	-21
1.45000	-21
1.45367	-23
1.45733	-26
1.46100	-25
1.46467	-21
1.46833	-19
1.47200	-19
1.47567	-19
1.47933	-20
1.48300	-21
1.48667	-21
1.49033	-21
1.49400	-24
1.49767	-26
1.50133	-26
1.50500	-25
1.50867	-25
1.51233	-25
1.51600	-25
1.51967	-27
1.52333	-27
1.52700	-26
1.53067	-24
1.53433	-23
1.53800	-24
1.54167	-26
1.54533	-27
1.54900	-27
1.55267	-25
1.55633	-25
1.56000	-27
1.56367	-30
1.56733	-30
1.57100	-29
1.57467	-28
1.57833	-27
1.58200	-26
1.58567	-26
1.58933	-24
1.59300	-23
1.59667	-25
1.60033	-27
1.60400	-27
1.60767	-26
1.61133	-26
1.61500	-27
1.61867	-26
1.62233	-24
1.62600	-22
1.62967	-22
1.63333	-22
1.63700	-23
1.64067	-23
1.64433	-24
1.64800	-23
1.65167	-24
1.65533	-26
1.65900	-23
1.66267	-20
1.66633	-19
1.67000	-19
1.67367	-22
1.67733	-23
1.68100	-22
1.68467	-19
1.68833	-18
1.69200	-20
1.69567	-21
1.69933	-21
1.70300	-20
1.70667	-19
1.71033	-17
1.71400	-15
1.71767	-15
1.72133	-16
1.72500	-17
1.72867	-16
1.73233	-15
1.73600	-14
1.73967	-14
1.74333	-13
1.74700	-13
1.75067	-14
1.75433	-15
1.75800	-15
1.76167	-14
1.76533	-15
1.76900	-16
1.77267	-15
1.77633	-13
1.78000	-12
1.78367	-10
1.78733	-8
1.79100	-8
1.79467	-10
1.79833	-11
1.80200	-11
1.80567	-9
1.80933	-9
1.81300	-9
1.81667	-7
1.82033	-6
1.82400	-5
1.82767	-3
1.83133	-3
1.83500	-4
1.83867	-3
1.84233	-3
1.84600	-3
1.84967	-5
1.85333	-4
1.85700	-2
1.86067	-1
1.86433	1
1.86800	1
1.87167	2
1.87533	2
1.87900	1
1.88267	0
1.88633	0
1.89000	-0
1.89367	-3
1.89733	-3
1.90100	-2
1.90467	-2
1.90833	-2
1.91200	-1
1.91567	-1
1.91933	2
1.92300	4
1.92667	4
1.93033	3
1.93400	3
1.93767	5
1.94133	6
1.94500	6
1.94867	6
1.95233	7
1.95600	9
1.95967	10
1.96333	9
1.96700	8
1.97067	9
1.97433	9
1.97800	9
1.98167	8
1.98533	9
1.98900	9
1.99267	10
1.99633	12
2.00000	14
2.00367	16
2.00733	17
2.01100	18
2.01467	18
2.01833	18
2.02200	17
2.02567	16
2.02933	18
2.03300	18
2.03667	19
2.04033	22
2.04400	23
2.04767	23
2.05133	24
2.05500	24
2.05867	24
2.06233	25
2.06600	27
2.06967	29
2.07333	28
2.07700	26
2.08067	27
2.08433	28
2.08800	29
2.09167	31
2.09533	33
2.09900	32
2.10267	31
2.10633	31
2.11000	32
2.11367	33
2.11733	37
2.12100	39
2.12467	38
2.12833	38
2.13200	38
2.13567	41
2.13933	41
2.14300	41
2.14667	39
2.15033	38
2.15400	39
2.15767	41
2.16133	42
2.16500	43
2.16867	46
2.17233	48
2.17600	48
2.17967	48
2.18333	47
2.18700	48
2.19067	49
2.19433	49
2.19800	49
2.20167	49
2.20533	48
2.20900	47
2.21267	49
2.21633	53
2.22000	56
2.22367	59
2.22733	62
2.23100	63
2.23467	62
2.23833	62
2.24200	63
2.24567	66
2.24933	68
2.25300	69
2.25667	70
2.26033	69
2.26400	66
2.26767	66
2.27133	66
2.27500	66
2.27867	66
2.28233	70
2.28600	71
2.28967	71
2.29333	71
2.29700	72
2.30067	73
2.30433	74
2.30800	74
2.31167	74
2.31533	74
2.31900	75
2.32267	76
2.32633	80
2.33000	82
2.33367	83
2.33733	84
2.34100	82
2.34467	82
2.34833	84
2.35200	87
2.35567	91
2.35933	94
2.36300	95
2.36667	96
2.37033	96
2.37400	96
2.37767	96
2.38133	96
2.38500	95
2.38867	94
2.39233	94
2.39600	97
2.39967	100
2.40333	102
2.40700	107
2.41067	109
2.41433	109
2.41800	110
2.42167	110
2.42533	111
2.42900	113
2.43267	113
2.43633	113
2.44000	115
2.44367	128
2.44733	161
2.45100	202
2.45467	234
2.45833	254
2.46200	268
2.46567	282
2.46933	291
2.47300	298
2.47667	303
2.48033	308
2.48400	319
2.48767	335
2.49133	353
2.49500	372
2.49867	391
2.50233	407
2.50600	421
2.50967	432
2.51333	441
2.51700	446
2.52067	448
2.52433	451
2.52800	456
2.53167	464
2.53533	471
2.53900	476
2.54267	483
2.54633	492
2.55000	499
2.55367	508
2.55733	517
2.56100	526
2.56467	533
2.56833	541
2.57200	546
2.57567	553
2.57933	560
2.58300	566
2.58667	566
2.59033	561
2.59400	557
2.59767	551
2.60133	543
2.60500	532
2.60867	514
2.61233	492
2.61600	466
2.61967	436
2.62333	403
2.62700	369
2.63067	336
2.63433	309
2.63800	284
2.64167	261
2.64533	244
2.64900	234
2.65267	228
2.65633	226
2.66000	227
2.66367	233
2.66733	240
2.67100	248
2.67467	258
2.67833	270
2.68200	279
2.68567	287
2.68933	295
2.69300	303
2.69667	312
2.70033	324
2.70400	335
2.70767	345
2.71133	354
2.71500	362
2.71867	370
2.72233	377
2.72600	383
2.72967	389
2.73333	395
2.73700	401
2.74067	405
2.74433	408
2.74800	414
2.75167	422
2.75533	427
2.75900	428
2.76267	429
2.76633	429
2.77000	429
2.77367	430
2.77733	432
2.78100	435
2.78467	436
2.78833	435
2.79200	435
2.79567	434
2.79933	434
2.80300	433
2.80667	432
2.81033	430
2.81400	429
2.81767	431
2.82133	432
2.82500	434
2.82867	443
2.83233	465
2.83600	513
2.83967	606
2.84333	765
2.84700	1018
2.85067	1381
2.85433	1857
2.85800	2432
2.86167	3074
2.86533	3739
2.86900	4373
2.87267	4925
2.87633	5354
2.88000	5633
2.88367	5749
2.88733	5713
2.89100	5550
2.89467	5291
2.89833	4962
2.90200	4594
2.90567	4207
2.90933	3820
2.91300	3445
2.91667	3096
2.92033	2776
2.92400	2485
2.92767	2226
2.93133	1992
2.93500	1785
2.93867	1605
2.94233	1448
2.94600	1311
2.94967	1192
2.95333	1087
2.95700	997
2.96067	920
2.96433	855
2.96800	800
2.97167	752
2.97533	708
2.97900	671
2.98267	641
2.98633	616
2.99000	594
2.99367	574
2.99733	557
3.00100	541
3.00467	527
3.00833	515
3.01200	505
3.01567	495
3.01933	489
3.02300	484
3.02667	482
3.03033	480
3.03400	476
3.03767	470
3.04133	467
3.04500	466
3.04867	462
3.05233	458
3.05600	453
3.05967	449
3.06333	447
3.06700	446
3.07067	447
3.07433	449
3.07800	447
3.08167	444
3.08533	444
3.08900	444
3.09267	444
3.09633	444
3.10000	445
3.10367	443
3.10733	439
3.11100	437
3.11467	436
3.11833	436
3.12200	435
3.12567	432
3.12933	428
3.13300	425
3.13667	422
3.14033	421
3.14400	421
3.14767	421
3.15133	422
3.15500	421
3.15867	419
3.16233	417
3.16600	413
3.16967	411
3.17333	409
3.17700	407
3.18067	408
3.18433	406
3.18800	403
3.19167	400
3.19533	399
3.19900	399
3.20267	400
3.20633	400
3.21000	399
3.21367	397
3.21733	396
3.22100	397
3.22467	396
3.22833	391
3.23200	389
3.23567	386
3.23933	384
3.24300	382
3.24667	381
3.25033	380
3.25400	380
3.25767	377
3.26133	376
3.26500	376
3.26867	373
3.27233	370
3.27600	367
3.27967	363
3.28333	360
3.28700	354
3.29067	352
3.29433	351
3.29800	349
3.30167	346
3.30533	341
3.30900	337
3.31267	333
3.31633	331
3.32000	329
3.32367	326
3.32733	323
3.33100	322
3.33467	319
3.33833	315
3.34200	311
3.34567	305
3.34933	301
3.35300	298
3.35667	296
3.36033	296
3.36400	295
3.36767	294
3.37133	289
3.37500	283
3.37867	281
3.38233	280
3.38600	279
3.38967	278
3.39333	276
3.39700	275
3.40067	272
3.40433	267
3.40800	262
3.41167	258
3.41533	257
3.41900	255
3.42267	250
3.42633	248
3.43000	249
3.43367	249
3.43733	248
3.44100	245
3.44467	243
3.44833	240
3.45200	239
3.45567	240
3.45933	239
3.46300	238
3.46667	234
3.47033	230
3.47400	226
3.47767	223
3.48133	220
3.48500	218
3.48867	216
3.49233	215
3.49600	213
3.49967	210
3.50333	208
3.50700	207
3.51067	207
3.51433	206
3.51800	205
3.52167	204
3.52533	201
3.52900	198
3.53267	194
3.53633	193
3.54000	192
3.54367	191
3.54733	190
3.55100	188
3.55467	186
3.55833	185
3.56200	185
3.56567	185
3.56933	183
3.57300	180
3.57667	178
3.58033	176
3.58400	176
3.58767	175
3.59133	173
3.59500	172
3.59867	170
3.60233	166
3.60600	166
3.60967	165
3.61333	162
3.61700	158
3.62067	157
3.62433	156
3.62800	155
3.63167	155
3.63533	154
3.63900	154
3.64267	154
3.64633	152
3.65000	151
3.65367	150
3.65733	148
3.66100	145
3.66467	144
3.66833	144
3.67200	143
3.67567	144
3.67933	143
3.68300	142
3.68667	141
3.69033	139
3.69400	138
3.69767	139
3.70133	141
3.70500	142
3.70867	140
3.71233	137
3.71600	134
3.71967	135
3.72333	135
3.72700	133
3.73067	130
3.73433	128
3.73800	127
3.74167	125
3.74533	123
3.74900	123
3.75267	121
3.75633	121
3.76000	119
3.76367	119
3.76733	118
3.77100	119
3.77467	119
3.77833	118
3.78200	117
3.78567	114
3.78933	112
3.79300	112
3.79667	110
3.80033	108
3.80400	108
3.80767	108
3.81133	110
3.81500	111
3.81867	107
3.82233	104
3.82600	104
3.82967	103
3.83333	103
3.83700	105
3.84067	104
3.84433	102
3.84800	102
3.85167	102
3.85533	102
3.85900	98
3.86267	95
3.86633	96
3.87000	95
3.87367	96
3.87733	98
3.88100	98
3.88467	98
3.88833	96
3.89200	96
3.89567	96
3.89933	96
3.90300	95
3.90667	94
3.91033	93
3.91400	91
3.91767	90
3.92133	91
3.92500	93
3.92867	92
3.93233	93
3.93600	94
3.93967	93
3.94333	92
3.94700	91
3.95067	89
3.95433	89
3.95800	89
3.96167	89
3.96533	89
3.96900	88
3.97267	89
3.97633	88
3.98000	86
3.98367	85
3.98733	85
3.99100	84
3.99467	83
3.99833	80

[Status Trace (Column Oven Temperature)]
Interval(msec)	1000
# of Points	240
Start Time(min)	0.008
End Time(min)	3.991
Intensity Units	
Intensity Multiplier	1
R.Time (min)	Intensity
0.00767	34.98
0.02433	34.98
0.04100	34.97
0.05767	34.98
0.07433	34.98
0.09100	34.98
0.10767	34.99
0.12433	34.99
0.14100	34.99
0.15767	34.98
0.17433	34.98
0.19100	34.97
0.20767	34.97
0.22433	34.98
0.24100	34.99
0.25767	35.00
0.27433	35.00
0.29100	35.01
0.30767	35.01
0.32433	35.00
0.34100	34.99
0.35767	34.99
0.37433	34.98
0.39100	34.98
0.40767	34.98
0.42433	34.98
0.44100	34.97
0.45767	34.96
0.47433	34.96
0.49100	34.97
0.50767	34.97
0.52433	34.99
0.54100	34.98
0.55767	34.99
0.57433	34.99
0.59100	34.99
0.60767	34.98
0.62433	34.98
0.64100	34.99
0.65767	34.99
0.67433	35.01
0.69100	35.02
0.70767	35.03
0.72433	35.02
0.74100	35.02
0.75767	35.01
0.77433	35.01
0.79100	35.00
0.80767	35.00
0.82433	35.00
0.84100	35.01
0.85767	35.01
0.87433	35.00
0.89100	35.00
0.90767	34.99
0.92433	34.98
0.94100	34.98
0.95767	34.98
0.97433	34.98
0.99100	34.98
1.00767	34.98
1.02433	35.00
1.04100	35.01
1.05767	35.01
1.07433	35.01
1.09100	35.00
1.10767	34.99
1.12433	34.99
1.14100	34.99
1.15767	35.01
1.17433	35.02
1.19100	35.03
1.20767	35.01
1.22433	35.00
1.24100	34.99
1.25767	35.00
1.27433	35.00
1.29100	34.99
1.30767	34.98
1.32433	34.97
1.34100	34.97
1.35767	34.98
1.37433	34.98
1.39100	34.98
1.40767	34.97
1.42433	34.97
1.44100	34.99
1.45767	34.99
1.47433	34.99
1.49100	34.99
1.50767	34.98
1.52433	34.99
1.54100	35.00
1.55767	35.01
1.57433	35.02
1.59100	35.04
1.60767	35.11
1.62433	35.23
1.64100	35.42
1.65767	35.66
1.67433	35.95
1.69100	36.30
1.70767	36.67
1.72433	37.01
1.74100	37.32
1.75767	37.65
1.77433	37.99
1.79100	38.33
1.80767	38.66
1.82433	38.99
1.84100	39.33
1.85767	39.66
1.87433	39.99
1.89100	40.31
1.90767	40.64
1.92433	40.98
1.94100	41.30
1.95767	41.62
1.97433	41.95
1.99100	42.29
2.00767	42.61
2.02433	42.95
2.04100	43.28
2.05767	43.59
2.07433	43.93
2.09100	44.25
2.10767	44.58
2.12433	44.89
2.14100	45.23
2.15767	45.56
2.17433	45.88
2.19100	46.20
2.20767	46.53
2.22433	46.87
2.24100	47.20
2.25767	47.52
2.27433	47.83
2.29100	48.17
2.30767	48.51
2.32433	48.83
2.34100	49.15
2.35767	49.43
2.37433	49.63
2.39100	49.70
2.40767	49.69
2.42433	49.70
2.44100	49.71
2.45767	49.72
2.47433	49.74
2.49100	49.74
2.50767	49.75
2.52433	49.76
2.54100	49.77
2.55767	49.79
2.57433	49.80
2.59100	49.81
2.60767	49.82
2.62433	49.84
2.64100	49.85
2.65767	49.85
2.67433	49.86
2.69100	49.85
2.70767	49.86
2.72433	49.89
2.74100	49.89
2.75767	49.87
2.77433	49.86
2.79100	49.86
2.80767	49.87
2.82433	49.88
2.84100	49.89
2.85767	49.91
2.87433	49.92
2.89100	49.95
2.90767	49.96
2.92433	49.97
2.94100	49.99
2.95767	50.00
2.97433	50.00
2.99100	50.00
3.00767	49.99
3.02433	49.99
3.04100	49.99
3.05767	50.00
3.07433	50.01
3.09100	50.01
3.10767	50.02
3.12433	50.03
3.14100	50.04
3.15767	50.06
3.17433	50.07
3.19100	50.08
3.20767	50.09
3.22433	50.10
3.24100	50.10
3.25767	50.10
3.27433	50.09
3.29100	50.09
3.30767	50.07
3.32433	50.07
3.34100	50.06
3.35767	50.05
3.37433	50.05
3.39100	50.05
3.40767	50.06
3.42433	50.06
3.44100	50.06
3.45767	50.07
3.47433	50.08
3.49100	50.08
3.50767	50.08
3.52433	50.07
3.54100	50.08
3.55767	50.08
3.57433	50.09
3.59100	50.09
3.60767	50.09
3.62433	50.08
3.64100	50.08
3.65767	50.08
3.67433	50.07
3.69100	50.08
3.70767	50.08
3.72433	50.09
3.74100	50.09
3.75767	50.07
3.77433	50.07
3.79100	50.06
3.80767	50.07
3.82433	50.07
3.84100	50.07
3.85767	50.07
3.87433	50.07
3.89100	50.06
3.90767	50.05
3.92433	50.05
3.94100	50.05
3.95767	50.04
3.97433	50.05
3.99100	50.05

[Status Trace (Injection Unit Temperature)]
Interval(msec)	1000
# of Points	240
Start Time(min)	0.008
End Time(min)	3.991
Intensity Units	
Intensity Multiplier	1
R.Time (min)	Intensity
0.00767	99.98
0.02433	99.99
0.04100	99.99
0.05767	99.99
0.07433	99.99
0.09100	99.99
0.10767	99.99
0.12433	99.99
0.14100	99.99
0.15767	99.99
0.17433	99.98
0.19100	99.99
0.20767	99.99
0.22433	99.99
0.24100	99.99
0.25767	99.99
0.27433	99.99
0.29100	99.99
0.30767	99.99
0.32433	99.99
0.34100	99.99
0.35767	99.99
0.37433	99.99
0.39100	99.99
0.40767	99.99
0.42433	99.99
0.44100	99.98
0.45767	99.99
0.47433	99.99
0.49100	99.99
0.50767	99.99
0.52433	99.99
0.54100	99.99
0.55767	99.99
0.57433	99.99
0.59100	99.99
0.60767	99.98
0.62433	99.99
0.64100	99.99
0.65767	99.99
0.67433	99.98
0.69100	99.99
0.70767	99.99
0.72433	99.99
0.74100	99.99
0.75767	99.99
0.77433	99.99
0.79100	99.99
0.80767	99.99
0.82433	99.99
0.84100	99.99
0.85767	99.98
0.87433	99.99
0.89100	99.98
0.90767	99.99
0.92433	99.99
0.94100	99.99
0.95767	99.99
0.97433	99.99
0.99100	99.98
1.00767	99.98
1.02433	99.99
1.04100	99.99
1.05767	99.98
1.07433	99.99
1.09100	99.99
1.10767	99.98
1.12433	99.99
1.14100	99.99
1.15767	99.99
1.17433	99.98
1.19100	99.99
1.20767	99.99
1.22433	99.99
1.24100	99.99
1.25767	99.99
1.27433	99.99
1.29100	99.99
1.30767	99.99
1.32433	99.98
1.34100	99.98
1.35767	99.99
1.37433	99.99
1.39100	99.99
1.40767	99.99
1.42433	99.98
1.44100	99.98
1.45767	99.99
1.47433	99.99
1.49100	99.99
1.50767	99.99
1.52433	99.99
1.54100	99.99
1.55767	100.00
1.57433	99.99
1.59100	99.99
1.60767	99.99
1.62433	100.00
1.64100	99.99
1.65767	99.99
1.67433	99.99
1.69100	99.99
1.70767	99.99
1.72433	99.99
1.74100	99.99
1.75767	99.99
1.77433	99.98
1.79100	99.99
1.80767	99.99
1.82433	99.99
1.84100	99.99
1.85767	99.99
1.87433	99.99
1.89100	99.99
1.90767	100.00
1.92433	99.99
1.94100	99.99
1.95767	99.99
1.97433	99.99
1.99100	99.99
2.00767	99.99
2.02433	99.98
2.04100	99.99
2.05767	99.99
2.07433	99.98
2.09100	99.98
2.10767	99.98
2.12433	99.98
2.14100	99.98
2.15767	99.98
2.17433	99.98
2.19100	99.98
2.20767	99.97
2.22433	99.98
2.24100	99.98
2.25767	99.98
2.27433	99.98
2.29100	99.98
2.30767	99.98
2.32433	99.97
2.34100	99.97
2.35767	99.98
2.37433	99.98
2.39100	99.98
2.40767	99.96
2.42433	99.98
2.44100	99.98
2.45767	99.98
2.47433	99.98
2.49100	99.98
2.50767	99.98
2.52433	99.98
2.54100	99.98
2.55767	99.98
2.57433	99.98
2.59100	99.98
2.60767	99.99
2.62433	99.99
2.64100	99.99
2.65767	99.99
2.67433	99.99
2.69100	99.99
2.70767	99.99
2.72433	99.99
2.74100	99.99
2.75767	100.00
2.77433	99.99
2.79100	100.00
2.80767	100.00
2.82433	100.00
2.84100	100.00
2.85767	100.00
2.87433	100.01
2.89100	100.00
2.90767	100.01
2.92433	100.01
2.94100	100.01
2.95767	100.02
2.97433	100.01
2.99100	100.01
3.00767	100.02
3.02433	100.01
3.04100	100.02
3.05767	100.02
3.07433	100.02
3.09100	100.02
3.10767	100.02
3.12433	100.02
3.14100	100.03
3.15767	100.03
3.17433	100.02
3.19100	100.03
3.20767	100.03
3.22433	100.02
3.24100	100.03
3.25767	100.03
3.27433	100.03
3.29100	100.03
3.30767	100.03
3.32433	100.04
3.34100	100.03
3.35767	100.04
3.37433	100.04
3.39100	100.04
3.40767	100.04
3.42433	100.04
3.44100	100.04
3.45767	100.04
3.47433	100.04
3.49100	100.04
3.50767	100.04
3.52433	100.04
3.54100	100.05
3.55767	100.04
3.57433	100.04
3.59100	100.04
3.60767	100.04
3.62433	100.05
3.64100	100.05
3.65767	100.05
3.67433	100.05
3.69100	100.05
3.70767	100.05
3.72433	100.05
3.74100	100.05
3.75767	100.05
3.77433	100.05
3.79100	100.05
3.80767	100.05
3.82433	100.05
3.84100	100.05
3.85767	100.04
3.87433	100.05
3.89100	100.05
3.90767	100.05
3.92433	100.05
3.94100	100.05
3.95767	100.05
3.97433	100.05
3.99100	100.05

[Status Trace (Carrier Gas Pressure)]
Interval(msec)	1000
# of Points	240
Start Time(min)	0.008
End Time(min)	3.991
Intensity Units	
Intensity Multiplier	1
R.Time (min)	Intensity
0.00767	58.00
0.02433	55.44
0.04100	57.07
0.05767	59.10
0.07433	59.55
0.09100	58.09
0.10767	57.98
0.12433	58.01
0.14100	58.01
0.15767	58.01
0.17433	58.00
0.19100	58.00
0.20767	58.00
0.22433	58.00
0.24100	58.00
0.25767	58.00
0.27433	58.00
0.29100	58.00
0.30767	58.00
0.32433	58.00
0.34100	58.00
0.35767	58.00
0.37433	58.00
0.39100	58.00
0.40767	58.00
0.42433	58.00
0.44100	58.00
0.45767	58.00
0.47433	58.00
0.49100	58.00
0.50767	58.00
0.52433	58.00
0.54100	58.00
0.55767	58.00
0.57433	58.00
0.59100	58.00
0.60767	58.00
0.62433	58.00
0.64100	58.00
0.65767	58.00
0.67433	58.00
0.69100	58.00
0.70767	58.00
0.72433	58.00
0.74100	58.00
0.75767	58.00
0.77433	58.00
0.79100	58.00
0.80767	58.00
0.82433	58.00
0.84100	58.00
0.85767	58.00
0.87433	58.00
0.89100	58.00
0.90767	58.00
0.92433	58.00
0.94100	58.00
0.95767	58.00
0.97433	58.00
0.99100	58.00
1.00767	58.00
1.02433	58.00
1.04100	58.00
1.05767	58.00
1.07433	58.00
1.09100	58.00
1.10767	58.00
1.12433	58.00
1.14100	58.00
1.15767	58.00
1.17433	58.00
1.19100	58.00
1.20767	58.00
1.22433	58.00
1.24100	58.00
1.25767	58.00
1.27433	58.00
1.29100	58.00
1.30767	58.00
1.32433	58.00
1.34100	58.00
1.35767	58.00
1.37433	58.00
1.39100	58.00
1.40767	58.00
1.42433	58.00
1.44100	58.00
1.45767	58.00
1.47433	58.00
1.49100	58.00
1.50767	58.00
1.52433	58.00
1.54100	58.00
1.55767	58.00
1.57433	58.00
1.59100	58.00
1.60767	58.00
1.62433	58.00
1.64100	58.00
1.65767	58.00
1.67433	58.00
1.69100	58.01
1.70767	58.00
1.72433	58.00
1.74100	58.00
1.75767	58.00
1.77433	58.00
1.79100	58.00
1.80767	58.00
1.82433	58.00
1.84100	58.00
1.85767	58.00
1.87433	58.00
1.89100	58.00
1.90767	58.00
1.92433	58.00
1.94100	58.00
1.95767	58.00
1.97433	58.00
1.99100	58.00
2.00767	58.00
2.02433	58.00
2.04100	58.00
2.05767	58.00
2.07433	58.00
2.09100	58.00
2.10767	58.00
2.12433	58.00
2.14100	58.00
2.15767	58.00
2.17433	58.00
2.19100	58.00
2.20767	58.00
2.22433	58.00
2.24100	58.00
2.25767	58.00
2.27433	58.00
2.29100	58.00
2.30767	58.00
2.32433	58.00
2.34100	58.00
2.35767	58.00
2.37433	58.00
2.39100	57.99
2.40767	57.99
2.42433	58.00
2.44100	58.00
2.45767	58.00
2.47433	58.00
2.49100	58.00
2.50767	58.00
2.52433	57.98
2.54100	58.00
2.55767	58.00
2.57433	58.00
2.59100	58.00
2.60767	58.00
2.62433	58.00
2.64100	58.00
2.65767	58.00
2.67433	58.00
2.69100	58.00
2.70767	58.00
2.72433	58.00
2.74100	58.00
2.75767	58.00
2.77433	58.00
2.79100	58.00
2.80767	58.00
2.82433	58.00
2.84100	58.00
2.85767	58.00
2.87433	58.00
2.89100	58.00
2.90767	58.00
2.92433	58.00
2.94100	58.00
2.95767	58.00
2.97433	58.00
2.99100	58.00
3.00767	58.00
3.02433	58.00
3.04100	58.00
3.05767	58.00
3.07433	58.00
3.09100	58.00
3.10767	58.00
3.12433	58.00
3.14100	58.00
3.15767	58.00
3.17433	58.00
3.19100	58.00
3.20767	58.00
3.22433	58.00
3.24100	58.00
3.25767	58.00
3.27433	58.00
3.29100	58.00
3.30767	58.00
3.32433	58.00
3.34100	58.00
3.35767	58.00
3.37433	58.00
3.39100	58.00
3.40767	58.00
3.42433	58.00
3.44100	58.00
3.45767	58.00
3.47433	58.00
3.49100	58.00
3.50767	58.00
3.52433	58.00
3.54100	58.00
3.55767	58.00
3.57433	58.00
3.59100	58.00
3.60767	58.00
3.62433	58.00
3.64100	58.00
3.65767	58.00
3.67433	58.00
3.69100	58.00
3.70767	58.00
3.72433	58.00
3.74100	58.00
3.75767	58.00
3.77433	58.00
3.79100	58.00
3.80767	58.00
3.82433	58.00
3.84100	58.00
3.85767	58.00
3.87433	58.00
3.89100	58.00
3.90767	58.00
3.92433	58.00
3.94100	58.00
3.95767	58.00
3.97433	58.00
3.99100	58.00

[Status Trace (Carrier Gas Flow)]
Interval(msec)	1000
# of Points	240
Start Time(min)	0.008
End Time(min)	3.991
Intensity Units	
Intensity Multiplier	1
R.Time (min)	Intensity
0.00767	34.51
0.02433	34.52
0.04100	34.54
0.05767	34.55
0.07433	34.50
0.09100	34.52
0.10767	34.52
0.12433	34.52
0.14100	34.52
0.15767	34.52
0.17433	34.52
0.19100	34.52
0.20767	34.52
0.22433	34.52
0.24100	34.52
0.25767	34.52
0.27433	34.52
0.29100	34.52
0.30767	34.52
0.32433	34.52
0.34100	34.52
0.35767	34.52
0.37433	34.52
0.39100	34.52
0.40767	34.52
0.42433	34.52
0.44100	34.52
0.45767	34.52
0.47433	34.52
0.49100	34.52
0.50767	34.52
0.52433	34.52
0.54100	34.52
0.55767	34.52
0.57433	34.52
0.59100	34.52
0.60767	34.52
0.62433	34.52
0.64100	34.52
0.65767	34.52
0.67433	34.52
0.69100	34.52
0.70767	34.52
0.72433	34.52
0.74100	34.52
0.75767	34.52
0.77433	34.52
0.79100	34.52
0.80767	34.52
0.82433	34.52
0.84100	34.52
0.85767	34.52
0.87433	34.52
0.89100	34.52
0.90767	34.52
0.92433	34.52
0.94100	34.52
0.95767	34.52
0.97433	34.52
0.99100	34.52
1.00767	34.52
1.02433	34.52
1.04100	34.52
1.05767	34.52
1.07433	34.52
1.09100	34.52
1.10767	34.52
1.12433	34.52
1.14100	34.52
1.15767	34.52
1.17433	34.52
1.19100	34.52
1.20767	34.52
1.22433	34.52
1.24100	34.52
1.25767	34.52
1.27433	34.52
1.29100	34.52
1.30767	34.52
1.32433	34.52
1.34100	34.52
1.35767	34.52
1.37433	34.52
1.39100	34.52
1.40767	34.52
1.42433	34.52
1.44100	34.52
1.45767	34.52
1.47433	34.52
1.49100	34.52
1.50767	34.52
1.52433	34.52
1.54100	34.52
1.55767	34.52
1.57433	34.52
1.59100	34.52
1.60767	34.52
1.62433	34.52
1.64100	34.52
1.65767	34.52
1.67433	34.52
1.69100	34.52
1.70767	34.52
1.72433	34.52
1.74100	34.52
1.75767	34.52
1.77433	34.52
1.79100	34.52
1.80767	34.52
1.82433	34.52
1.84100	34.52
1.85767	34.52
1.87433	34.52
1.89100	34.52
1.90767	34.52
1.92433	34.52
1.94100	34.52
1.95767	34.52
1.97433	34.52
1.99100	34.52
2.00767	34.52
2.02433	34.52
2.04100	34.52
2.05767	34.52
2.07433	34.52
2.09100	34.52
2.10767	34.52
2.12433	34.52
2.14100	34.52
2.15767	34.52
2.17433	34.52
2.19100	34.52
2.20767	34.52
2.22433	34.52
2.24100	34.52
2.25767	34.52
2.27433	34.52
2.29100	34.52
2.30767	34.52
2.32433	34.52
2.34100	34.52
2.35767	34.52
2.37433	34.52
2.39100	34.52
2.40767	34.52
2.42433	34.52
2.44100	34.52
2.45767	34.52
2.47433	34.52
2.49100	34.52
2.50767	34.37
2.52433	34.51
2.54100	34.52
2.55767	34.52
2.57433	34.52
2.59100	34.52
2.60767	34.52
2.62433	34.52
2.64100	34.52
2.65767	34.52
2.67433	34.52
2.69100	34.51
2.70767	34.52
2.72433	34.52
2.74100	34.52
2.75767	34.52
2.77433	34.52
2.79100	34.52
2.80767	34.52
2.82433	34.52
2.84100	34.52
2.85767	34.52
2.87433	34.52
2.89100	34.52
2.90767	34.52
2.92433	34.52
2.94100	34.52
2.95767	34.52
2.97433	34.52
2.99100	34.52
3.00767	34.52
3.02433	34.52
3.04100	34.52
3.05767	34.52
3.07433	34.52
3.09100	34.52
3.10767	34.52
3.12433	34.52
3.14100	34.52
3.15767	34.52
3.17433	34.52
3.19100	34.52
3.20767	34.52
3.22433	34.52
3.24100	34.52
3.25767	34.52
3.27433	34.52
3.29100	34.52
3.30767	34.52
3.32433	34.52
3.34100	34.52
3.35767	34.52
3.37433	34.52
3.39100	34.52
3.40767	34.52
3.42433	34.52
3.44100	34.52
3.45767	34.52
3.47433	34.52
3.49100	34.52
3.50767	34.52
3.52433	34.52
3.54100	34.52
3.55767	34.52
3.57433	34.52
3.59100	34.52
3.60767	34.52
3.62433	34.52
3.64100	34.52
3.65767	34.52
3.67433	34.52
3.69100	34.52
3.70767	34.52
3.72433	34.52
3.74100	34.52
3.75767	34.52
3.77433	34.52
3.79100	34.52
3.80767	34.52
3.82433	34.52
3.84100	34.52
3.85767	34.52
3.87433	34.52
3.89100	34.52
3.90767	34.51
3.92433	34.52
3.94100	34.51
3.95767	34.52
3.97433	34.52
3.99100	34.52

[Status Trace (Column Flow)]
Interval(msec)	1000
# of Points	240
Start Time(min)	0.008
End Time(min)	3.991
Intensity Units	
Intensity Multiplier	1
R.Time (min)	Intensity
0.00767	5.51
0.02433	5.22
0.04100	5.41
0.05767	5.64
0.07433	5.70
0.09100	5.52
0.10767	5.51
0.12433	5.52
0.14100	5.52
0.15767	5.52
0.17433	5.52
0.19100	5.52
0.20767	5.52
0.22433	5.52
0.24100	5.51
0.25767	5.51
0.27433	5.51
0.29100	5.51
0.30767	5.51
0.32433	5.51
0.34100	5.51
0.35767	5.51
0.37433	5.51
0.39100	5.52
0.40767	5.52
0.42433	5.52
0.44100	5.52
0.45767	5.52
0.47433	5.52
0.49100	5.52
0.50767	5.52
0.52433	5.51
0.54100	5.51
0.55767	5.51
0.57433	5.51
0.59100	5.51
0.60767	5.51
0.62433	5.51
0.64100	5.51
0.65767	5.51
0.67433	5.51
0.69100	5.51
0.70767	5.51
0.72433	5.51
0.74100	5.51
0.75767	5.51
0.77433	5.51
0.79100	5.51
0.80767	5.51
0.82433	5.51
0.84100	5.51
0.85767	5.51
0.87433	5.51
0.89100	5.51
0.90767	5.51
0.92433	5.51
0.94100	5.51
0.95767	5.51
0.97433	5.52
0.99100	5.52
1.00767	5.51
1.02433	5.51
1.04100	5.51
1.05767	5.51
1.07433	5.51
1.09100	5.51
1.10767	5.51
1.12433	5.51
1.14100	5.51
1.15767	5.51
1.17433	5.51
1.19100	5.51
1.20767	5.51
1.22433	5.51
1.24100	5.51
1.25767	5.51
1.27433	5.51
1.29100	5.51
1.30767	5.51
1.32433	5.52
1.34100	5.52
1.35767	5.52
1.37433	5.51
1.39100	5.51
1.40767	5.52
1.42433	5.52
1.44100	5.51
1.45767	5.51
1.47433	5.51
1.49100	5.51
1.50767	5.51
1.52433	5.51
1.54100	5.51
1.55767	5.51
1.57433	5.51
1.59100	5.51
1.60767	5.51
1.62433	5.51
1.64100	5.50
1.65767	5.49
1.67433	5.48
1.69100	5.47
1.70767	5.46
1.72433	5.45
1.74100	5.44
1.75767	5.43
1.77433	5.42
1.79100	5.41
1.80767	5.40
1.82433	5.39
1.84100	5.38
1.85767	5.37
1.87433	5.36
1.89100	5.35
1.90767	5.34
1.92433	5.33
1.94100	5.32
1.95767	5.31
1.97433	5.30
1.99100	5.29
2.00767	5.28
2.02433	5.27
2.04100	5.26
2.05767	5.25
2.07433	5.24
2.09100	5.23
2.10767	5.23
2.12433	5.22
2.14100	5.21
2.15767	5.20
2.17433	5.19
2.19100	5.18
2.20767	5.17
2.22433	5.16
2.24100	5.15
2.25767	5.14
2.27433	5.13
2.29100	5.12
2.30767	5.11
2.32433	5.10
2.34100	5.10
2.35767	5.09
2.37433	5.08
2.39100	5.08
2.40767	5.08
2.42433	5.08
2.44100	5.08
2.45767	5.08
2.47433	5.08
2.49100	5.08
2.50767	5.08
2.52433	5.08
2.54100	5.08
2.55767	5.08
2.57433	5.08
2.59100	5.08
2.60767	5.08
2.62433	5.08
2.64100	5.08
2.65767	5.08
2.67433	5.08
2.69100	5.08
2.70767	5.08
2.72433	5.07
2.74100	5.07
2.75767	5.08
2.77433	5.08
2.79100	5.08
2.80767	5.08
2.82433	5.07
2.84100	5.07
2.85767	5.07
2.87433	5.07
2.89100	5.07
2.90767	5.07
2.92433	5.07
2.94100	5.07
2.95767	5.07
2.97433	5.07
2.99100	5.07
3.00767	5.07
3.02433	5.07
3.04100	5.07
3.05767	5.07
3.07433	5.07
3.09100	5.07
3.10767	5.07
3.12433	5.07
3.14100	5.07
3.15767	5.07
3.17433	5.07
3.19100	5.07
3.20767	5.07
3.22433	5.07
3.24100	5.07
3.25767	5.07
3.27433	5.07
3.29100	5.07
3.30767	5.07
3.32433	5.07
3.34100	5.07
3.35767	5.07
3.37433	5.07
3.39100	5.07
3.40767	5.07
3.42433	5.07
3.44100	5.07
3.45767	5.07
3.47433	5.07
3.49100	5.07
3.50767	5.07
3.52433	5.07
3.54100	5.07
3.55767	5.07
3.57433	5.07
3.59100	5.07
3.60767	5.07
3.62433	5.07
3.64100	5.07
3.65767	5.07
3.67433	5.07
3.69100	5.07
3.70767	5.07
3.72433	5.07
3.74100	5.07
3.75767	5.07
3.77433	5.07
3.79100	5.07
3.80767	5.07
3.82433	5.07
3.84100	5.07
3.85767	5.07
3.87433	5.07
3.89100	5.07
3.90767	5.07
3.92433	5.07
3.94100	5.07
3.95767	5.07
3.97433	5.07
3.99100	5.07

[Status Trace (Linear Velocity)]
Interval(msec)	1000
# of Points	240
Start Time(min)	0.008
End Time(min)	3.991
Intensity Units	
Intensity Multiplier	1
R.Time (min)	Intensity
0.00767	39.02
0.02433	37.34
0.04100	38.41
0.05767	39.74
0.07433	40.03
0.09100	39.07
0.10767	39.00
0.12433	39.02
0.14100	39.02
0.15767	39.02
0.17433	39.02
0.19100	39.02
0.20767	39.02
0.22433	39.02
0.24100	39.02
0.25767	39.02
0.27433	39.02
0.29100	39.01
0.30767	39.02
0.32433	39.02
0.34100	39.02
0.35767	39.02
0.37433	39.02
0.39100	39.02
0.40767	39.02
0.42433	39.02
0.44100	39.02
0.45767	39.02
0.47433	39.02
0.49100	39.02
0.50767	39.02
0.52433	39.02
0.54100	39.02
0.55767	39.02
0.57433	39.02
0.59100	39.02
0.60767	39.02
0.62433	39.02
0.64100	39.02
0.65767	39.02
0.67433	39.01
0.69100	39.01
0.70767	39.01
0.72433	39.01
0.74100	39.01
0.75767	39.01
0.77433	39.01
0.79100	39.01
0.80767	39.02
0.82433	39.02
0.84100	39.01
0.85767	39.01
0.87433	39.01
0.89100	39.02
0.90767	39.02
0.92433	39.02
0.94100	39.02
0.95767	39.02
0.97433	39.02
0.99100	39.02
1.00767	39.02
1.02433	39.02
1.04100	39.01
1.05767	39.01
1.07433	39.01
1.09100	39.02
1.10767	39.02
1.12433	39.02
1.14100	39.02
1.15767	39.01
1.17433	39.01
1.19100	39.01
1.20767	39.01
1.22433	39.01
1.24100	39.02
1.25767	39.02
1.27433	39.01
1.29100	39.02
1.30767	39.02
1.32433	39.02
1.34100	39.02
1.35767	39.02
1.37433	39.02
1.39100	39.02
1.40767	39.02
1.42433	39.02
1.44100	39.02
1.45767	39.02
1.47433	39.02
1.49100	39.02
1.50767	39.02
1.52433	39.02
1.54100	39.02
1.55767	39.01
1.57433	39.01
1.59100	39.01
1.60767	39.01
1.62433	39.00
1.64100	38.98
1.65767	38.95
1.67433	38.93
1.69100	38.89
1.70767	38.86
1.72433	38.82
1.74100	38.79
1.75767	38.76
1.77433	38.73
1.79100	38.70
1.80767	38.67
1.82433	38.64
1.84100	38.60
1.85767	38.57
1.87433	38.54
1.89100	38.51
1.90767	38.48
1.92433	38.45
1.94100	38.42
1.95767	38.39
1.97433	38.36
1.99100	38.33
2.00767	38.30
2.02433	38.27
2.04100	38.24
2.05767	38.21
2.07433	38.18
2.09100	38.15
2.10767	38.12
2.12433	38.09
2.14100	38.06
2.15767	38.03
2.17433	38.00
2.19100	37.97
2.20767	37.94
2.22433	37.91
2.24100	37.88
2.25767	37.85
2.27433	37.82
2.29100	37.79
2.30767	37.76
2.32433	37.73
2.34100	37.71
2.35767	37.68
2.37433	37.66
2.39100	37.65
2.40767	37.65
2.42433	37.66
2.44100	37.66
2.45767	37.65
2.47433	37.65
2.49100	37.65
2.50767	37.65
2.52433	37.64
2.54100	37.65
2.55767	37.65
2.57433	37.65
2.59100	37.65
2.60767	37.65
2.62433	37.65
2.64100	37.64
2.65767	37.64
2.67433	37.64
2.69100	37.64
2.70767	37.64
2.72433	37.64
2.74100	37.64
2.75767	37.64
2.77433	37.64
2.79100	37.64
2.80767	37.64
2.82433	37.64
2.84100	37.64
2.85767	37.64
2.87433	37.64
2.89100	37.64
2.90767	37.63
2.92433	37.63
2.94100	37.63
2.95767	37.63
2.97433	37.63
2.99100	37.63
3.00767	37.63
3.02433	37.63
3.04100	37.63
3.05767	37.63
3.07433	37.63
3.09100	37.63
3.10767	37.63
3.12433	37.63
3.14100	37.63
3.15767	37.63
3.17433	37.63
3.19100	37.62
3.20767	37.62
3.22433	37.62
3.24100	37.62
3.25767	37.62
3.27433	37.62
3.29100	37.62
3.30767	37.62
3.32433	37.62
3.34100	37.63
3.35767	37.63
3.37433	37.63
3.39100	37.63
3.40767	37.63
3.42433	37.63
3.44100	37.63
3.45767	37.62
3.47433	37.62
3.49100	37.62
3.50767	37.62
3.52433	37.62
3.54100	37.62
3.55767	37.62
3.57433	37.62
3.59100	37.62
3.60767	37.62
3.62433	37.62
3.64100	37.62
3.65767	37.62
3.67433	37.62
3.69100	37.62
3.70767	37.62
3.72433	37.62
3.74100	37.62
3.75767	37.62
3.77433	37.63
3.79100	37.63
3.80767	37.63
3.82433	37.62
3.84100	37.62
3.85767	37.63
3.87433	37.63
3.89100	37.63
3.90767	37.63
3.92433	37.63
3.94100	37.63
3.95767	37.63
3.97433	37.63
3.99100	37.63

