[Header]
Application Name	LabSolutions
Version	5.110
Data File Name	C:\Users\User\Desktop\GC Analyses\Jack\UIC Prairie Sampling\9.16.22\220916_017.gcd
Output Date	11/29/2022
Output Time	11:10:16 AM

[File Information]
Type	Data File
Generated	11/10/2022 3:24:16 PM
Generated by	System Administrator
Modified	11/10/2022 3:28:53 PM
Modified by	System Administrator

[Sample Information]
Operator Name	System Administrator
Acquired	11/10/2022 3:24:52 PM
Sample Type	1:Standard
Level	1
Sample Name	220916_UICPrairie
Sample ID	220916_UICPrairie
ISTD Amount1	1
ISTD Amount2	1
ISTD Amount3	1
ISTD Amount4	1
ISTD Amount5	1
ISTD Amount6	1
ISTD Amount7	1
ISTD Amount8	1
ISTD Amount9	1
ISTD Amount10	1
ISTD Amount11	1
ISTD Amount12	1
ISTD Amount13	1
ISTD Amount14	1
ISTD Amount15	1
ISTD Amount16	1
ISTD Amount17	1
ISTD Amount18	1
ISTD Amount19	1
ISTD Amount20	1
ISTD Amount21	1
ISTD Amount22	1
ISTD Amount23	1
ISTD Amount24	1
ISTD Amount25	1
ISTD Amount26	1
ISTD Amount27	1
ISTD Amount28	1
ISTD Amount29	1
ISTD Amount30	1
ISTD Amount31	1
ISTD Amount32	1
Sample Amount	1
Dilution Factor	1
Vial#	1
Injection Volume	1
Injection Count	1
Bar Code	

[Original Files]
Data File	C:\Users\User\Desktop\GC Analyses\Jack\UIC Prairie Sampling\9.16.22\220916_017.gcd
Method File	C:\LabSolutions\Data\GHG_4min_2022\ghg3_togas_w_acet_4 min_new_int.gcm
Batch File	
Report Format File	c:\LabSolutions\System\DEFAULT.lsr

[File Description]


[Configuration]
Instrument Name	C0B7VH3-Instrument1
Instrument #	1
Line #	1
# of Detectors	3
Detector ID	DET#1	DET#2	DET#3
Detector Name	FID	PTCD	ECD
# of Channels	1	1	1

[Peak Table(Ch1)]
# of Peaks	3
Peak#	R.Time	I.Time	F.Time	Area	Height	A/H	Conc.	Mark	ID#	Name	k'	Plate #	Plate Ht.	Tailing	Resolution	Sep.Factor	Area Ratio	Height Ratio	Conc. %	Norm Conc.
1	1.476	1.428	1.534	12977	5799	2.238	100.000	   	1	CO	0.000	8285	18.106	1.195	0.000	0.000	0	0	16.667	16.667
2	1.567	1.534	1.633	5001	2484	2.013	100.000	 V 	2	CH4	0.062	10906	13.754	1.166	1.468	0.000	0	0	16.667	16.667
3	1.996	1.949	2.345	1581650	768401	2.058	400.000	   	3	CO2	0.353	17547	8.549	1.222	7.131	5.680	0	0	66.667	66.667

[Peak Table(Ch2)]
# of Peaks	0

[Peak Table(Ch3)]
# of Peaks	3
Peak#	R.Time	I.Time	F.Time	Area	Height	A/H	Conc.	Mark	ID#	Name	k'	Plate #	Plate Ht.	Tailing	Resolution	Sep.Factor	Area Ratio	Height Ratio	Conc. %	Norm Conc.
1	2.462	1.296	2.649	12885	415	31.051	0.000	   			0.000	79	1902.095	0.586	0.000	0.000	0	0	0.000	0.000
2	2.880	2.660	3.225	23121	5631	4.106	1.000	   	1	N2O	0.170	12980	11.557	1.523	0.691	0.000	0	0	50.000	50.000
3	3.511	3.397	3.962	5521	281	19.661	1.000	   	2	SF6	0.426	826	181.643	2.641	2.139	2.509	0	0	50.000	50.000

[Compound Results(Ch1)]
# of IDs	6
ID#	Name	R.Time	Area	Height	Conc.	Curve	3rd	2nd	1st	Constant	Area Ratio	Height Ratio	Conc. %	Norm Conc.
1	CO	1.476	12977	5799	100.000	Linear	0.000000e+00	0.000000e+00	1.297729e+002	0.000000e+00	0	0	16.667	16.667
2	CH4	1.567	5001	2484	100.000	Linear	0.000000e+00	0.000000e+00	5.000650e+001	0.000000e+00	0	0	16.667	16.667
3	CO2	1.996	1581650	768401	400.000	Linear	0.000000e+00	0.000000e+00	3.954125e+003	0.000000e+00	0	0	66.667	66.667
4	Ethylene	0.000	0	0	0.000	Linear	0.000000e+00	0.000000e+00	0.000000e+00	0.000000e+00	0	0	0.000	0.000
5	Acetylene	0.000	0	0	0.000	Linear	0.000000e+00	0.000000e+00	0.000000e+00	0.000000e+00	0	0	0.000	0.000
6	Ethane	0.000	0	0	0.000	Linear	0.000000e+00	0.000000e+00	0.000000e+00	0.000000e+00	0	0	0.000	0.000

[Compound Results(Ch2)]
# of IDs	5
ID#	Name	R.Time	Area	Height	Conc.	Curve	3rd	2nd	1st	Constant	Area Ratio	Height Ratio	Conc. %	Norm Conc.
1	Hydrogen	0.000	0	0	0.000	Linear	0.000000e+00	0.000000e+00	0.000000e+00	0.000000e+00	0	0	0.000	0.000
2	Oxygen	0.000	0	0	0.000	Linear	0.000000e+00	0.000000e+00	0.000000e+00	0.000000e+00	0	0	0.000	0.000
3	Nitrogen	0.000	0	0	0.000	Linear	0.000000e+00	0.000000e+00	0.000000e+00	0.000000e+00	0	0	0.000	0.000
4	Methane	0.000	0	0	0.000	Linear	0.000000e+00	0.000000e+00	0.000000e+00	0.000000e+00	0	0	0.000	0.000
5	Carbon Monoxide	0.000	0	0	0.000	Linear	0.000000e+00	0.000000e+00	0.000000e+00	0.000000e+00	0	0	0.000	0.000

[Compound Results(Ch3)]
# of IDs	2
ID#	Name	R.Time	Area	Height	Conc.	Curve	3rd	2nd	1st	Constant	Area Ratio	Height Ratio	Conc. %	Norm Conc.
1	N2O	2.880	23121	5631	1.000	Linear	0.000000e+00	0.000000e+00	2.312120e+004	0.000000e+00	0	0	50.000	50.000
2	SF6	3.511	5521	281	1.000	Linear	0.000000e+00	0.000000e+00	5.520542e+003	0.000000e+00	0	0	50.000	50.000

[Group Results(Ch1)]
# of Groups	0

[Group Results(Ch2)]
# of Groups	0

[Group Results(Ch3)]
# of Groups	0

[Chromatogram (Ch1)]
Interval(msec)	220
# of Points	1091
Start Time(min)	0.002
End Time(min)	3.998
R.Time (min)	Intensity
0.00167	-9
0.00533	-15
0.00900	-18
0.01267	-15
0.01633	-9
0.02000	-6
0.02367	-6
0.02733	-8
0.03100	-11
0.03467	-10
0.03833	-7
0.04200	-7
0.04567	-10
0.04933	-13
0.05300	-13
0.05667	-12
0.06033	-13
0.06400	-14
0.06767	-13
0.07133	-11
0.07500	-10
0.07867	-10
0.08233	-7
0.08600	2
0.08967	8
0.09333	9
0.09700	6
0.10067	2
0.10433	-2
0.10800	-4
0.11167	-6
0.11533	-7
0.11900	-10
0.12267	-16
0.12633	-20
0.13000	-20
0.13367	-19
0.13733	-19
0.14100	-20
0.14467	-20
0.14833	-20
0.15200	-23
0.15567	-26
0.15933	-26
0.16300	-26
0.16667	-24
0.17033	-23
0.17400	-21
0.17767	-23
0.18133	-26
0.18500	-30
0.18867	-34
0.19233	-39
0.19600	-41
0.19967	-40
0.20333	-39
0.20700	-40
0.21067	-39
0.21433	-33
0.21800	-26
0.22167	-22
0.22533	-19
0.22900	-19
0.23267	-24
0.23633	-30
0.24000	-36
0.24367	-39
0.24733	-42
0.25100	-42
0.25467	-40
0.25833	-37
0.26200	-32
0.26567	-28
0.26933	-23
0.27300	-16
0.27667	-11
0.28033	-9
0.28400	-9
0.28767	-9
0.29133	-8
0.29500	-9
0.29867	-11
0.30233	-14
0.30600	-14
0.30967	-13
0.31333	-13
0.31700	-13
0.32067	-11
0.32433	-10
0.32800	-7
0.33167	-3
0.33533	-1
0.33900	-4
0.34267	-11
0.34633	-20
0.35000	-26
0.35367	-29
0.35733	-27
0.36100	-25
0.36467	-21
0.36833	-16
0.37200	-10
0.37567	-7
0.37933	-6
0.38300	-8
0.38667	-14
0.39033	-21
0.39400	-26
0.39767	-26
0.40133	-21
0.40500	-18
0.40867	-18
0.41233	-16
0.41600	-10
0.41967	-4
0.42333	-0
0.42700	-4
0.43067	-12
0.43433	-18
0.43800	-23
0.44167	-29
0.44533	-32
0.44900	-31
0.45267	-28
0.45633	-24
0.46000	-21
0.46367	-17
0.46733	-12
0.47100	-8
0.47467	-7
0.47833	-4
0.48200	-2
0.48567	-1
0.48933	-1
0.49300	-2
0.49667	-5
0.50033	-13
0.50400	-23
0.50767	-32
0.51133	-37
0.51500	-38
0.51867	-39
0.52233	-42
0.52600	-47
0.52967	-47
0.53333	-43
0.53700	-36
0.54067	-26
0.54433	-17
0.54800	-14
0.55167	-17
0.55533	-18
0.55900	-18
0.56267	-18
0.56633	-18
0.57000	-16
0.57367	-12
0.57733	-11
0.58100	-12
0.58467	-16
0.58833	-21
0.59200	-28
0.59567	-38
0.59933	-50
0.60300	-52
0.60667	-47
0.61033	-41
0.61400	-33
0.61767	-27
0.62133	-23
0.62500	-22
0.62867	-23
0.63233	-23
0.63600	-21
0.63967	-17
0.64333	-14
0.64700	-15
0.65067	-16
0.65433	-18
0.65800	-17
0.66167	-14
0.66533	-10
0.66900	-7
0.67267	-5
0.67633	-6
0.68000	-12
0.68367	-18
0.68733	-25
0.69100	-31
0.69467	-34
0.69833	-32
0.70200	-27
0.70567	-23
0.70933	-20
0.71300	-18
0.71667	-16
0.72033	-13
0.72400	-12
0.72767	-12
0.73133	-13
0.73500	-16
0.73867	-20
0.74233	-24
0.74600	-30
0.74967	-34
0.75333	-38
0.75700	-40
0.76067	-40
0.76433	-39
0.76800	-35
0.77167	-32
0.77533	-30
0.77900	-29
0.78267	-30
0.78633	-32
0.79000	-32
0.79367	-29
0.79733	-29
0.80100	-32
0.80467	-36
0.80833	-40
0.81200	-44
0.81567	-48
0.81933	-49
0.82300	-45
0.82667	-42
0.83033	-39
0.83400	-34
0.83767	-26
0.84133	-18
0.84500	-11
0.84867	-7
0.85233	-4
0.85600	1
0.85967	5
0.86333	3
0.86700	-4
0.87067	-16
0.87433	-27
0.87800	-36
0.88167	-39
0.88533	-36
0.88900	-31
0.89267	-27
0.89633	-26
0.90000	-33
0.90367	-47
0.90733	-62
0.91100	-75
0.91467	-81
0.91833	-81
0.92200	-76
0.92567	-70
0.92933	-62
0.93300	-55
0.93667	-50
0.94033	-48
0.94400	-46
0.94767	-43
0.95133	-41
0.95500	-41
0.95867	-41
0.96233	-40
0.96600	-38
0.96967	-36
0.97333	-34
0.97700	-32
0.98067	-28
0.98433	-25
0.98800	-23
0.99167	-24
0.99533	-29
0.99900	-34
1.00267	-42
1.00633	-48
1.01000	-52
1.01367	-54
1.01733	-52
1.02100	-50
1.02467	-49
1.02833	-46
1.03200	-41
1.03567	-36
1.03933	-30
1.04300	-24
1.04667	-14
1.05033	-7
1.05400	-4
1.05767	-8
1.06133	-15
1.06500	-21
1.06867	-28
1.07233	-34
1.07600	-43
1.07967	-53
1.08333	-61
1.08700	-67
1.09067	-70
1.09433	-73
1.09800	-73
1.10167	-73
1.10533	-73
1.10900	-73
1.11267	-72
1.11633	-70
1.12000	-68
1.12367	-62
1.12733	-55
1.13100	-46
1.13467	-39
1.13833	-34
1.14200	-31
1.14567	-32
1.14933	-36
1.15300	-39
1.15667	-43
1.16033	-44
1.16400	-42
1.16767	-39
1.17133	-34
1.17500	-28
1.17867	-26
1.18233	-28
1.18600	-33
1.18967	-41
1.19333	-49
1.19700	-56
1.20067	-59
1.20433	-61
1.20800	-63
1.21167	-65
1.21533	-64
1.21900	-59
1.22267	-52
1.22633	-48
1.23000	-50
1.23367	-55
1.23733	-61
1.24100	-68
1.24467	-75
1.24833	-80
1.25200	-81
1.25567	-80
1.25933	-78
1.26300	-77
1.26667	-74
1.27033	-70
1.27400	-65
1.27767	-60
1.28133	-53
1.28500	-49
1.28867	-46
1.29233	-42
1.29600	-37
1.29967	-35
1.30333	-35
1.30700	-34
1.31067	-29
1.31433	-23
1.31800	-24
1.32167	-31
1.32533	-42
1.32900	-48
1.33267	-49
1.33633	-54
1.34000	-65
1.34367	-76
1.34733	-85
1.35100	-98
1.35467	-94
1.35833	-81
1.36200	-75
1.36567	-67
1.36933	-61
1.37300	-58
1.37667	-56
1.38033	-54
1.38400	-52
1.38767	-53
1.39133	-56
1.39500	-59
1.39867	-61
1.40233	-59
1.40600	-56
1.40967	-56
1.41333	-62
1.41700	-71
1.42067	-78
1.42433	-79
1.42800	-72
1.43167	-61
1.43533	-48
1.43900	-13
1.44267	118
1.44633	398
1.45000	876
1.45367	1638
1.45733	2639
1.46100	3678
1.46467	4571
1.46833	5236
1.47200	5633
1.47567	5725
1.47933	5479
1.48300	4917
1.48667	4138
1.49033	3288
1.49400	2503
1.49767	1851
1.50133	1344
1.50500	963
1.50867	683
1.51233	476
1.51600	324
1.51967	214
1.52333	137
1.52700	85
1.53067	49
1.53433	27
1.53800	40
1.54167	132
1.54533	361
1.54900	741
1.55267	1206
1.55633	1658
1.56000	2031
1.56367	2290
1.56733	2404
1.57100	2341
1.57467	2098
1.57833	1732
1.58200	1328
1.58567	957
1.58933	656
1.59300	430
1.59667	267
1.60033	153
1.60400	73
1.60767	18
1.61133	-20
1.61500	-45
1.61867	-58
1.62233	-67
1.62600	-73
1.62967	-77
1.63333	-84
1.63700	-90
1.64067	-94
1.64433	-93
1.64800	-91
1.65167	-87
1.65533	-82
1.65900	-80
1.66267	-81
1.66633	-83
1.67000	-83
1.67367	-81
1.67733	-77
1.68100	-78
1.68467	-86
1.68833	-91
1.69200	-91
1.69567	-88
1.69933	-87
1.70300	-88
1.70667	-91
1.71033	-96
1.71400	-101
1.71767	-104
1.72133	-102
1.72500	-97
1.72867	-94
1.73233	-96
1.73600	-98
1.73967	-98
1.74333	-96
1.74700	-94
1.75067	-92
1.75433	-89
1.75800	-86
1.76167	-85
1.76533	-86
1.76900	-86
1.77267	-85
1.77633	-82
1.78000	-79
1.78367	-82
1.78733	-87
1.79100	-90
1.79467	-93
1.79833	-97
1.80200	-100
1.80567	-102
1.80933	-100
1.81300	-98
1.81667	-95
1.82033	-95
1.82400	-97
1.82767	-100
1.83133	-102
1.83500	-99
1.83867	-93
1.84233	-90
1.84600	-89
1.84967	-89
1.85333	-88
1.85700	-87
1.86067	-87
1.86433	-89
1.86800	-90
1.87167	-91
1.87533	-92
1.87900	-92
1.88267	-90
1.88633	-85
1.89000	-80
1.89367	-77
1.89733	-81
1.90100	-89
1.90467	-98
1.90833	-105
1.91200	-108
1.91567	-106
1.91933	-99
1.92300	-94
1.92667	-90
1.93033	-90
1.93400	-95
1.93767	-103
1.94133	-109
1.94500	-110
1.94867	-103
1.95233	-67
1.95600	159
1.95967	1386
1.96333	6531
1.96700	22943
1.97067	63397
1.97433	140998
1.97800	258245
1.98167	400990
1.98533	544843
1.98900	665197
1.99267	743304
1.99633	768338
2.00000	738474
2.00367	662005
2.00733	555689
2.01100	439637
2.01467	330950
2.01833	239685
2.02200	168892
2.02567	116999
2.02933	80434
2.03300	55338
2.03667	38388
2.04033	27031
2.04400	19426
2.04767	14306
2.05133	10826
2.05500	8423
2.05867	6728
2.06233	5504
2.06600	4601
2.06967	3917
2.07333	3389
2.07700	2971
2.08067	2636
2.08433	2366
2.08800	2146
2.09167	1965
2.09533	1808
2.09900	1667
2.10267	1536
2.10633	1418
2.11000	1317
2.11367	1232
2.11733	1158
2.12100	1093
2.12467	1037
2.12833	986
2.13200	939
2.13567	893
2.13933	845
2.14300	797
2.14667	754
2.15033	719
2.15400	687
2.15767	658
2.16133	632
2.16500	608
2.16867	585
2.17233	559
2.17600	532
2.17967	510
2.18333	491
2.18700	474
2.19067	457
2.19433	440
2.19800	423
2.20167	408
2.20533	395
2.20900	383
2.21267	371
2.21633	360
2.22000	348
2.22367	335
2.22733	325
2.23100	319
2.23467	316
2.23833	315
2.24200	313
2.24567	313
2.24933	315
2.25300	314
2.25667	312
2.26033	306
2.26400	303
2.26767	299
2.27133	292
2.27500	282
2.27867	268
2.28233	259
2.28600	259
2.28967	266
2.29333	274
2.29700	276
2.30067	272
2.30433	264
2.30800	256
2.31167	249
2.31533	245
2.31900	241
2.32267	235
2.32633	232
2.33000	233
2.33367	232
2.33733	228
2.34100	225
2.34467	221
2.34833	219
2.35200	217
2.35567	216
2.35933	214
2.36300	213
2.36667	214
2.37033	215
2.37400	218
2.37767	223
2.38133	226
2.38500	226
2.38867	219
2.39233	206
2.39600	189
2.39967	175
2.40333	166
2.40700	161
2.41067	160
2.41433	162
2.41800	162
2.42167	161
2.42533	159
2.42900	159
2.43267	163
2.43633	167
2.44000	170
2.44367	171
2.44733	174
2.45100	175
2.45467	176
2.45833	176
2.46200	175
2.46567	174
2.46933	175
2.47300	179
2.47667	184
2.48033	191
2.48400	194
2.48767	193
2.49133	186
2.49500	177
2.49867	170
2.50233	165
2.50600	162
2.50967	155
2.51333	148
2.51700	144
2.52067	146
2.52433	150
2.52800	152
2.53167	152
2.53533	149
2.53900	147
2.54267	151
2.54633	156
2.55000	160
2.55367	164
2.55733	165
2.56100	161
2.56467	154
2.56833	147
2.57200	140
2.57567	132
2.57933	127
2.58300	127
2.58667	127
2.59033	126
2.59400	127
2.59767	133
2.60133	139
2.60500	143
2.60867	145
2.61233	147
2.61600	149
2.61967	149
2.62333	147
2.62700	144
2.63067	143
2.63433	143
2.63800	140
2.64167	137
2.64533	136
2.64900	136
2.65267	137
2.65633	140
2.66000	143
2.66367	142
2.66733	139
2.67100	136
2.67467	136
2.67833	141
2.68200	149
2.68567	154
2.68933	153
2.69300	146
2.69667	138
2.70033	131
2.70400	129
2.70767	131
2.71133	136
2.71500	139
2.71867	139
2.72233	137
2.72600	133
2.72967	128
2.73333	129
2.73700	136
2.74067	143
2.74433	146
2.74800	148
2.75167	153
2.75533	156
2.75900	154
2.76267	150
2.76633	148
2.77000	147
2.77367	146
2.77733	140
2.78100	132
2.78467	124
2.78833	118
2.79200	116
2.79567	117
2.79933	117
2.80300	117
2.80667	119
2.81033	126
2.81400	132
2.81767	137
2.82133	139
2.82500	135
2.82867	129
2.83233	132
2.83600	134
2.83967	132
2.84333	128
2.84700	124
2.85067	122
2.85433	125
2.85800	131
2.86167	138
2.86533	142
2.86900	141
2.87267	142
2.87633	150
2.88000	162
2.88367	168
2.88733	167
2.89100	157
2.89467	145
2.89833	135
2.90200	130
2.90567	131
2.90933	133
2.91300	134
2.91667	138
2.92033	145
2.92400	151
2.92767	155
2.93133	156
2.93500	153
2.93867	147
2.94233	142
2.94600	141
2.94967	147
2.95333	152
2.95700	155
2.96067	153
2.96433	151
2.96800	151
2.97167	152
2.97533	156
2.97900	159
2.98267	160
2.98633	162
2.99000	165
2.99367	166
2.99733	165
3.00100	162
3.00467	160
3.00833	160
3.01200	164
3.01567	167
3.01933	167
3.02300	164
3.02667	158
3.03033	153
3.03400	150
3.03767	148
3.04133	146
3.04500	143
3.04867	139
3.05233	138
3.05600	140
3.05967	144
3.06333	148
3.06700	151
3.07067	152
3.07433	151
3.07800	150
3.08167	149
3.08533	149
3.08900	150
3.09267	153
3.09633	149
3.10000	143
3.10367	139
3.10733	136
3.11100	134
3.11467	134
3.11833	136
3.12200	138
3.12567	140
3.12933	146
3.13300	156
3.13667	170
3.14033	179
3.14400	181
3.14767	174
3.15133	164
3.15500	158
3.15867	153
3.16233	151
3.16600	151
3.16967	151
3.17333	150
3.17700	150
3.18067	148
3.18433	143
3.18800	138
3.19167	139
3.19533	142
3.19900	145
3.20267	149
3.20633	154
3.21000	158
3.21367	159
3.21733	159
3.22100	157
3.22467	150
3.22833	140
3.23200	134
3.23567	132
3.23933	131
3.24300	131
3.24667	130
3.25033	132
3.25400	137
3.25767	142
3.26133	138
3.26500	137
3.26867	146
3.27233	153
3.27600	154
3.27967	152
3.28333	152
3.28700	151
3.29067	150
3.29433	145
3.29800	147
3.30167	149
3.30533	150
3.30900	148
3.31267	146
3.31633	144
3.32000	143
3.32367	144
3.32733	144
3.33100	144
3.33467	146
3.33833	152
3.34200	153
3.34567	149
3.34933	144
3.35300	143
3.35667	144
3.36033	144
3.36400	140
3.36767	138
3.37133	139
3.37500	142
3.37867	146
3.38233	145
3.38600	142
3.38967	140
3.39333	140
3.39700	144
3.40067	151
3.40433	157
3.40800	158
3.41167	155
3.41533	149
3.41900	144
3.42267	142
3.42633	143
3.43000	141
3.43367	138
3.43733	135
3.44100	132
3.44467	127
3.44833	125
3.45200	127
3.45567	131
3.45933	134
3.46300	136
3.46667	133
3.47033	129
3.47400	129
3.47767	133
3.48133	138
3.48500	140
3.48867	139
3.49233	141
3.49600	143
3.49967	145
3.50333	143
3.50700	140
3.51067	137
3.51433	137
3.51800	137
3.52167	134
3.52533	133
3.52900	131
3.53267	131
3.53633	131
3.54000	134
3.54367	136
3.54733	137
3.55100	138
3.55467	140
3.55833	141
3.56200	142
3.56567	142
3.56933	140
3.57300	138
3.57667	136
3.58033	133
3.58400	131
3.58767	127
3.59133	123
3.59500	123
3.59867	126
3.60233	129
3.60600	132
3.60967	134
3.61333	134
3.61700	135
3.62067	134
3.62433	130
3.62800	126
3.63167	122
3.63533	120
3.63900	120
3.64267	121
3.64633	119
3.65000	116
3.65367	111
3.65733	107
3.66100	106
3.66467	110
3.66833	114
3.67200	119
3.67567	126
3.67933	127
3.68300	125
3.68667	121
3.69033	120
3.69400	120
3.69767	122
3.70133	122
3.70500	123
3.70867	126
3.71233	128
3.71600	124
3.71967	116
3.72333	107
3.72700	101
3.73067	100
3.73433	104
3.73800	112
3.74167	117
3.74533	117
3.74900	116
3.75267	116
3.75633	116
3.76000	116
3.76367	118
3.76733	121
3.77100	124
3.77467	128
3.77833	133
3.78200	134
3.78567	130
3.78933	124
3.79300	120
3.79667	115
3.80033	108
3.80400	101
3.80767	98
3.81133	98
3.81500	102
3.81867	107
3.82233	112
3.82600	116
3.82967	117
3.83333	116
3.83700	112
3.84067	105
3.84433	98
3.84800	95
3.85167	95
3.85533	97
3.85900	100
3.86267	101
3.86633	101
3.87000	103
3.87367	106
3.87733	109
3.88100	108
3.88467	105
3.88833	105
3.89200	107
3.89567	107
3.89933	105
3.90300	103
3.90667	103
3.91033	103
3.91400	104
3.91767	104
3.92133	107
3.92500	111
3.92867	116
3.93233	115
3.93600	108
3.93967	97
3.94333	89
3.94700	84
3.95067	83
3.95433	85
3.95800	92
3.96167	105
3.96533	117
3.96900	121
3.97267	119
3.97633	114
3.98000	109
3.98367	105
3.98733	106
3.99100	105
3.99467	100
3.99833	91

[Chromatogram (Ch2)]
Interval(msec)	220
# of Points	1091
Start Time(min)	0.002
End Time(min)	3.998
R.Time (min)	Intensity
0.00167	-1
0.00533	-1
0.00900	-1
0.01267	-2
0.01633	-2
0.02000	-2
0.02367	-2
0.02733	-3
0.03100	-3
0.03467	-3
0.03833	-3
0.04200	-3
0.04567	-3
0.04933	-3
0.05300	-3
0.05667	-3
0.06033	-3
0.06400	-2
0.06767	-2
0.07133	-2
0.07500	-2
0.07867	-2
0.08233	-2
0.08600	-1
0.08967	-1
0.09333	-1
0.09700	-1
0.10067	-0
0.10433	-0
0.10800	0
0.11167	1
0.11533	1
0.11900	1
0.12267	1
0.12633	1
0.13000	1
0.13367	1
0.13733	1
0.14100	1
0.14467	0
0.14833	0
0.15200	0
0.15567	0
0.15933	-0
0.16300	-0
0.16667	-0
0.17033	-0
0.17400	-0
0.17767	-0
0.18133	-1
0.18500	-1
0.18867	-0
0.19233	-1
0.19600	-1
0.19967	-1
0.20333	-1
0.20700	-1
0.21067	-1
0.21433	-1
0.21800	-1
0.22167	-1
0.22533	-1
0.22900	-1
0.23267	-1
0.23633	-1
0.24000	-1
0.24367	-1
0.24733	-1
0.25100	-1
0.25467	-2
0.25833	-2
0.26200	-2
0.26567	-2
0.26933	-2
0.27300	-1
0.27667	-1
0.28033	-2
0.28400	-2
0.28767	-2
0.29133	-2
0.29500	-3
0.29867	-3
0.30233	-3
0.30600	-3
0.30967	-3
0.31333	-3
0.31700	-3
0.32067	-3
0.32433	-3
0.32800	-3
0.33167	-3
0.33533	-3
0.33900	-3
0.34267	-3
0.34633	-3
0.35000	-3
0.35367	-3
0.35733	-3
0.36100	-3
0.36467	-3
0.36833	-3
0.37200	-3
0.37567	-3
0.37933	-2
0.38300	-2
0.38667	-2
0.39033	-2
0.39400	-2
0.39767	-2
0.40133	-2
0.40500	-2
0.40867	-2
0.41233	-2
0.41600	-3
0.41967	-3
0.42333	-3
0.42700	-3
0.43067	-4
0.43433	-4
0.43800	-4
0.44167	-4
0.44533	-4
0.44900	-4
0.45267	-4
0.45633	-4
0.46000	-4
0.46367	-4
0.46733	-3
0.47100	-3
0.47467	-3
0.47833	-3
0.48200	-3
0.48567	-3
0.48933	-3
0.49300	-3
0.49667	-3
0.50033	-3
0.50400	-3
0.50767	-3
0.51133	-3
0.51500	-3
0.51867	-3
0.52233	-2
0.52600	-3
0.52967	-3
0.53333	-3
0.53700	-3
0.54067	-3
0.54433	-3
0.54800	-3
0.55167	-3
0.55533	-3
0.55900	-3
0.56267	-3
0.56633	-2
0.57000	-2
0.57367	-2
0.57733	-2
0.58100	-2
0.58467	-2
0.58833	-2
0.59200	-2
0.59567	-2
0.59933	-3
0.60300	-3
0.60667	-3
0.61033	-3
0.61400	-3
0.61767	-4
0.62133	-4
0.62500	-4
0.62867	-4
0.63233	-4
0.63600	-4
0.63967	-4
0.64333	-4
0.64700	-4
0.65067	-4
0.65433	-4
0.65800	-4
0.66167	-4
0.66533	-4
0.66900	-4
0.67267	-4
0.67633	-4
0.68000	-4
0.68367	-4
0.68733	-4
0.69100	-4
0.69467	-4
0.69833	-4
0.70200	-4
0.70567	-4
0.70933	-4
0.71300	-4
0.71667	-4
0.72033	-4
0.72400	-4
0.72767	-4
0.73133	-4
0.73500	-4
0.73867	-4
0.74233	-4
0.74600	-3
0.74967	-3
0.75333	-3
0.75700	-3
0.76067	-3
0.76433	-4
0.76800	-4
0.77167	-4
0.77533	-4
0.77900	-4
0.78267	-4
0.78633	-3
0.79000	-3
0.79367	-3
0.79733	-3
0.80100	-3
0.80467	-3
0.80833	-2
0.81200	-2
0.81567	-2
0.81933	-2
0.82300	-2
0.82667	-2
0.83033	-2
0.83400	-3
0.83767	-3
0.84133	-3
0.84500	-3
0.84867	-3
0.85233	-3
0.85600	-3
0.85967	-4
0.86333	-4
0.86700	-4
0.87067	-5
0.87433	-5
0.87800	-5
0.88167	-4
0.88533	-4
0.88900	-4
0.89267	-3
0.89633	-3
0.90000	-3
0.90367	-3
0.90733	-3
0.91100	-3
0.91467	-3
0.91833	-3
0.92200	-3
0.92567	-3
0.92933	-3
0.93300	-3
0.93667	-4
0.94033	-4
0.94400	-4
0.94767	-3
0.95133	-3
0.95500	-3
0.95867	-3
0.96233	-3
0.96600	-3
0.96967	-4
0.97333	-4
0.97700	-4
0.98067	-4
0.98433	-3
0.98800	-3
0.99167	-3
0.99533	-3
0.99900	-3
1.00267	-3
1.00633	-3
1.01000	-3
1.01367	-4
1.01733	-4
1.02100	-4
1.02467	-4
1.02833	-5
1.03200	-5
1.03567	-5
1.03933	-4
1.04300	-4
1.04667	-4
1.05033	-4
1.05400	-4
1.05767	-4
1.06133	-4
1.06500	-4
1.06867	-3
1.07233	-3
1.07600	-3
1.07967	-3
1.08333	-3
1.08700	-3
1.09067	-3
1.09433	-3
1.09800	-3
1.10167	-3
1.10533	-2
1.10900	-3
1.11267	-3
1.11633	-3
1.12000	-4
1.12367	-4
1.12733	-4
1.13100	-5
1.13467	-5
1.13833	-5
1.14200	-5
1.14567	-5
1.14933	-6
1.15300	-6
1.15667	-6
1.16033	-6
1.16400	-6
1.16767	-5
1.17133	-5
1.17500	-5
1.17867	-5
1.18233	-5
1.18600	-5
1.18967	-5
1.19333	-5
1.19700	-5
1.20067	-5
1.20433	-5
1.20800	-5
1.21167	-4
1.21533	-4
1.21900	-4
1.22267	-4
1.22633	-4
1.23000	-3
1.23367	-3
1.23733	-3
1.24100	-2
1.24467	-2
1.24833	-2
1.25200	-2
1.25567	-2
1.25933	-2
1.26300	-2
1.26667	-2
1.27033	-2
1.27400	-3
1.27767	-3
1.28133	-3
1.28500	-3
1.28867	-4
1.29233	-4
1.29600	-4
1.29967	-4
1.30333	-4
1.30700	-4
1.31067	-5
1.31433	-5
1.31800	-5
1.32167	-5
1.32533	-5
1.32900	-5
1.33267	-5
1.33633	-5
1.34000	-4
1.34367	-4
1.34733	-4
1.35100	-4
1.35467	-4
1.35833	-4
1.36200	-4
1.36567	-4
1.36933	-4
1.37300	-4
1.37667	-4
1.38033	-4
1.38400	-4
1.38767	-4
1.39133	-4
1.39500	-4
1.39867	-5
1.40233	-5
1.40600	-5
1.40967	-5
1.41333	-5
1.41700	-6
1.42067	-6
1.42433	-6
1.42800	-6
1.43167	-5
1.43533	-5
1.43900	-5
1.44267	-5
1.44633	-5
1.45000	-6
1.45367	-5
1.45733	-5
1.46100	-5
1.46467	-5
1.46833	-5
1.47200	-4
1.47567	-4
1.47933	-4
1.48300	-4
1.48667	-5
1.49033	-5
1.49400	-5
1.49767	-5
1.50133	-5
1.50500	-5
1.50867	-5
1.51233	-5
1.51600	-5
1.51967	-5
1.52333	-5
1.52700	-5
1.53067	-5
1.53433	-5
1.53800	-5
1.54167	-5
1.54533	-5
1.54900	-5
1.55267	-5
1.55633	-6
1.56000	-6
1.56367	-6
1.56733	-5
1.57100	-5
1.57467	-5
1.57833	-5
1.58200	-5
1.58567	-5
1.58933	-5
1.59300	-5
1.59667	-6
1.60033	-6
1.60400	-8
1.60767	-9
1.61133	-11
1.61500	-13
1.61867	-15
1.62233	-17
1.62600	-20
1.62967	-23
1.63333	-26
1.63700	-29
1.64067	-33
1.64433	-36
1.64800	-39
1.65167	-43
1.65533	-47
1.65900	-50
1.66267	-55
1.66633	-59
1.67000	-64
1.67367	-69
1.67733	-74
1.68100	-80
1.68467	-84
1.68833	-89
1.69200	-93
1.69567	-97
1.69933	-99
1.70300	-102
1.70667	-104
1.71033	-106
1.71400	-107
1.71767	-109
1.72133	-111
1.72500	-113
1.72867	-114
1.73233	-115
1.73600	-116
1.73967	-117
1.74333	-118
1.74700	-118
1.75067	-117
1.75433	-117
1.75800	-116
1.76167	-116
1.76533	-115
1.76900	-115
1.77267	-115
1.77633	-116
1.78000	-116
1.78367	-117
1.78733	-118
1.79100	-120
1.79467	-121
1.79833	-122
1.80200	-123
1.80567	-124
1.80933	-124
1.81300	-124
1.81667	-124
1.82033	-124
1.82400	-123
1.82767	-123
1.83133	-122
1.83500	-122
1.83867	-122
1.84233	-122
1.84600	-123
1.84967	-123
1.85333	-124
1.85700	-124
1.86067	-124
1.86433	-124
1.86800	-123
1.87167	-123
1.87533	-122
1.87900	-122
1.88267	-121
1.88633	-121
1.89000	-121
1.89367	-121
1.89733	-121
1.90100	-121
1.90467	-121
1.90833	-121
1.91200	-121
1.91567	-122
1.91933	-122
1.92300	-122
1.92667	-122
1.93033	-122
1.93400	-122
1.93767	-122
1.94133	-122
1.94500	-122
1.94867	-122
1.95233	-122
1.95600	-121
1.95967	-121
1.96333	-121
1.96700	-120
1.97067	-120
1.97433	-119
1.97800	-118
1.98167	-118
1.98533	-117
1.98900	-117
1.99267	-117
1.99633	-117
2.00000	-117
2.00367	-117
2.00733	-117
2.01100	-117
2.01467	-117
2.01833	-116
2.02200	-116
2.02567	-115
2.02933	-114
2.03300	-113
2.03667	-113
2.04033	-112
2.04400	-112
2.04767	-112
2.05133	-112
2.05500	-112
2.05867	-112
2.06233	-112
2.06600	-111
2.06967	-111
2.07333	-111
2.07700	-111
2.08067	-111
2.08433	-110
2.08800	-110
2.09167	-109
2.09533	-108
2.09900	-108
2.10267	-108
2.10633	-108
2.11000	-108
2.11367	-108
2.11733	-108
2.12100	-107
2.12467	-106
2.12833	-106
2.13200	-105
2.13567	-104
2.13933	-104
2.14300	-104
2.14667	-104
2.15033	-104
2.15400	-104
2.15767	-104
2.16133	-104
2.16500	-103
2.16867	-103
2.17233	-102
2.17600	-101
2.17967	-101
2.18333	-101
2.18700	-100
2.19067	-100
2.19433	-100
2.19800	-99
2.20167	-99
2.20533	-98
2.20900	-98
2.21267	-98
2.21633	-98
2.22000	-98
2.22367	-98
2.22733	-98
2.23100	-98
2.23467	-97
2.23833	-97
2.24200	-96
2.24567	-96
2.24933	-96
2.25300	-95
2.25667	-95
2.26033	-95
2.26400	-95
2.26767	-95
2.27133	-95
2.27500	-94
2.27867	-94
2.28233	-94
2.28600	-93
2.28967	-93
2.29333	-93
2.29700	-92
2.30067	-92
2.30433	-92
2.30800	-92
2.31167	-92
2.31533	-91
2.31900	-91
2.32267	-90
2.32633	-90
2.33000	-90
2.33367	-89
2.33733	-89
2.34100	-88
2.34467	-87
2.34833	-87
2.35200	-87
2.35567	-86
2.35933	-86
2.36300	-85
2.36667	-84
2.37033	-83
2.37400	-81
2.37767	-80
2.38133	-77
2.38500	-74
2.38867	-71
2.39233	-67
2.39600	-63
2.39967	-58
2.40333	-53
2.40700	-49
2.41067	-44
2.41433	-39
2.41800	-35
2.42167	-31
2.42533	-28
2.42900	-25
2.43267	-22
2.43633	-19
2.44000	-16
2.44367	-13
2.44733	-11
2.45100	-9
2.45467	-7
2.45833	-7
2.46200	-6
2.46567	-5
2.46933	-4
2.47300	-3
2.47667	-2
2.48033	-1
2.48400	0
2.48767	2
2.49133	3
2.49500	4
2.49867	5
2.50233	5
2.50600	6
2.50967	6
2.51333	7
2.51700	7
2.52067	8
2.52433	8
2.52800	9
2.53167	9
2.53533	9
2.53900	9
2.54267	9
2.54633	9
2.55000	9
2.55367	9
2.55733	10
2.56100	10
2.56467	11
2.56833	11
2.57200	11
2.57567	12
2.57933	12
2.58300	12
2.58667	12
2.59033	12
2.59400	13
2.59767	13
2.60133	13
2.60500	13
2.60867	13
2.61233	13
2.61600	14
2.61967	14
2.62333	15
2.62700	15
2.63067	16
2.63433	16
2.63800	16
2.64167	17
2.64533	17
2.64900	17
2.65267	18
2.65633	18
2.66000	18
2.66367	18
2.66733	18
2.67100	19
2.67467	19
2.67833	19
2.68200	19
2.68567	19
2.68933	19
2.69300	19
2.69667	20
2.70033	20
2.70400	21
2.70767	21
2.71133	21
2.71500	22
2.71867	22
2.72233	22
2.72600	23
2.72967	23
2.73333	23
2.73700	23
2.74067	22
2.74433	22
2.74800	22
2.75167	21
2.75533	21
2.75900	21
2.76267	20
2.76633	20
2.77000	20
2.77367	21
2.77733	21
2.78100	21
2.78467	22
2.78833	22
2.79200	22
2.79567	22
2.79933	22
2.80300	23
2.80667	23
2.81033	23
2.81400	23
2.81767	24
2.82133	24
2.82500	24
2.82867	24
2.83233	24
2.83600	24
2.83967	23
2.84333	21
2.84700	19
2.85067	14
2.85433	7
2.85800	-3
2.86167	-16
2.86533	-33
2.86900	-54
2.87267	-78
2.87633	-107
2.88000	-139
2.88367	-175
2.88733	-214
2.89100	-256
2.89467	-300
2.89833	-346
2.90200	-394
2.90567	-443
2.90933	-493
2.91300	-543
2.91667	-593
2.92033	-643
2.92400	-693
2.92767	-742
2.93133	-791
2.93500	-840
2.93867	-894
2.94233	-954
2.94600	-1015
2.94967	-1067
2.95333	-1100
2.95700	-1107
2.96067	-1088
2.96433	-1045
2.96800	-985
2.97167	-912
2.97533	-833
2.97900	-752
2.98267	-671
2.98633	-594
2.99000	-522
2.99367	-456
2.99733	-396
3.00100	-342
3.00467	-295
3.00833	-253
3.01200	-216
3.01567	-184
3.01933	-156
3.02300	-132
3.02667	-112
3.03033	-94
3.03400	-79
3.03767	-66
3.04133	-54
3.04500	-45
3.04867	-37
3.05233	-29
3.05600	-23
3.05967	-18
3.06333	-14
3.06700	-10
3.07067	-7
3.07433	-4
3.07800	-1
3.08167	1
3.08533	3
3.08900	4
3.09267	6
3.09633	7
3.10000	8
3.10367	9
3.10733	10
3.11100	10
3.11467	11
3.11833	11
3.12200	12
3.12567	12
3.12933	13
3.13300	13
3.13667	14
3.14033	14
3.14400	15
3.14767	15
3.15133	15
3.15500	15
3.15867	16
3.16233	16
3.16600	16
3.16967	16
3.17333	16
3.17700	16
3.18067	17
3.18433	17
3.18800	17
3.19167	17
3.19533	18
3.19900	18
3.20267	18
3.20633	18
3.21000	18
3.21367	18
3.21733	18
3.22100	18
3.22467	18
3.22833	18
3.23200	18
3.23567	18
3.23933	19
3.24300	19
3.24667	20
3.25033	20
3.25400	20
3.25767	21
3.26133	21
3.26500	22
3.26867	22
3.27233	23
3.27600	23
3.27967	23
3.28333	24
3.28700	24
3.29067	23
3.29433	23
3.29800	23
3.30167	23
3.30533	23
3.30900	23
3.31267	23
3.31633	23
3.32000	23
3.32367	23
3.32733	23
3.33100	23
3.33467	24
3.33833	24
3.34200	24
3.34567	24
3.34933	24
3.35300	25
3.35667	25
3.36033	25
3.36400	25
3.36767	25
3.37133	25
3.37500	25
3.37867	25
3.38233	25
3.38600	25
3.38967	25
3.39333	25
3.39700	25
3.40067	24
3.40433	24
3.40800	24
3.41167	24
3.41533	24
3.41900	24
3.42267	24
3.42633	24
3.43000	23
3.43367	23
3.43733	23
3.44100	23
3.44467	23
3.44833	24
3.45200	24
3.45567	23
3.45933	23
3.46300	23
3.46667	23
3.47033	23
3.47400	23
3.47767	23
3.48133	23
3.48500	23
3.48867	23
3.49233	23
3.49600	23
3.49967	23
3.50333	23
3.50700	24
3.51067	24
3.51433	23
3.51800	23
3.52167	23
3.52533	23
3.52900	23
3.53267	23
3.53633	23
3.54000	23
3.54367	23
3.54733	23
3.55100	23
3.55467	23
3.55833	23
3.56200	23
3.56567	24
3.56933	24
3.57300	24
3.57667	24
3.58033	25
3.58400	25
3.58767	25
3.59133	25
3.59500	25
3.59867	25
3.60233	25
3.60600	25
3.60967	25
3.61333	24
3.61700	24
3.62067	24
3.62433	24
3.62800	24
3.63167	24
3.63533	24
3.63900	24
3.64267	24
3.64633	24
3.65000	24
3.65367	24
3.65733	24
3.66100	24
3.66467	24
3.66833	24
3.67200	24
3.67567	24
3.67933	24
3.68300	24
3.68667	24
3.69033	24
3.69400	24
3.69767	24
3.70133	24
3.70500	24
3.70867	24
3.71233	23
3.71600	23
3.71967	23
3.72333	23
3.72700	24
3.73067	24
3.73433	24
3.73800	24
3.74167	24
3.74533	24
3.74900	24
3.75267	24
3.75633	24
3.76000	24
3.76367	24
3.76733	24
3.77100	24
3.77467	24
3.77833	24
3.78200	24
3.78567	24
3.78933	24
3.79300	24
3.79667	24
3.80033	24
3.80400	24
3.80767	24
3.81133	24
3.81500	24
3.81867	24
3.82233	24
3.82600	24
3.82967	24
3.83333	24
3.83700	24
3.84067	24
3.84433	24
3.84800	24
3.85167	24
3.85533	24
3.85900	24
3.86267	24
3.86633	25
3.87000	24
3.87367	24
3.87733	24
3.88100	24
3.88467	23
3.88833	23
3.89200	23
3.89567	23
3.89933	23
3.90300	23
3.90667	24
3.91033	24
3.91400	24
3.91767	24
3.92133	24
3.92500	24
3.92867	24
3.93233	24
3.93600	24
3.93967	24
3.94333	24
3.94700	24
3.95067	24
3.95433	23
3.95800	23
3.96167	23
3.96533	23
3.96900	23
3.97267	23
3.97633	23
3.98000	23
3.98367	23
3.98733	23
3.99100	23
3.99467	23
3.99833	23

[Chromatogram (Ch3)]
Interval(msec)	220
# of Points	1091
Start Time(min)	0.002
End Time(min)	3.998
R.Time (min)	Intensity
0.00167	1
0.00533	1
0.00900	-1
0.01267	-1
0.01633	-0
0.02000	1
0.02367	0
0.02733	0
0.03100	-1
0.03467	-1
0.03833	-1
0.04200	-1
0.04567	-1
0.04933	-2
0.05300	-1
0.05667	0
0.06033	1
0.06400	1
0.06767	0
0.07133	-0
0.07500	3
0.07867	4
0.08233	3
0.08600	2
0.08967	1
0.09333	1
0.09700	3
0.10067	4
0.10433	5
0.10800	5
0.11167	4
0.11533	3
0.11900	3
0.12267	3
0.12633	4
0.13000	5
0.13367	6
0.13733	6
0.14100	7
0.14467	8
0.14833	9
0.15200	8
0.15567	7
0.15933	8
0.16300	10
0.16667	11
0.17033	12
0.17400	14
0.17767	14
0.18133	12
0.18500	12
0.18867	13
0.19233	12
0.19600	12
0.19967	12
0.20333	11
0.20700	10
0.21067	9
0.21433	8
0.21800	9
0.22167	10
0.22533	13
0.22900	13
0.23267	12
0.23633	11
0.24000	11
0.24367	13
0.24733	13
0.25100	13
0.25467	11
0.25833	10
0.26200	11
0.26567	11
0.26933	10
0.27300	9
0.27667	9
0.28033	9
0.28400	11
0.28767	11
0.29133	9
0.29500	8
0.29867	9
0.30233	11
0.30600	10
0.30967	9
0.31333	9
0.31700	7
0.32067	6
0.32433	6
0.32800	7
0.33167	9
0.33533	11
0.33900	12
0.34267	13
0.34633	13
0.35000	12
0.35367	13
0.35733	12
0.36100	12
0.36467	14
0.36833	15
0.37200	17
0.37567	18
0.37933	18
0.38300	17
0.38667	17
0.39033	16
0.39400	16
0.39767	17
0.40133	17
0.40500	17
0.40867	18
0.41233	17
0.41600	17
0.41967	17
0.42333	16
0.42700	15
0.43067	14
0.43433	15
0.43800	14
0.44167	11
0.44533	9
0.44900	10
0.45267	14
0.45633	17
0.46000	20
0.46367	23
0.46733	24
0.47100	23
0.47467	21
0.47833	21
0.48200	21
0.48567	20
0.48933	18
0.49300	18
0.49667	21
0.50033	23
0.50400	26
0.50767	27
0.51133	25
0.51500	21
0.51867	20
0.52233	19
0.52600	18
0.52967	19
0.53333	20
0.53700	21
0.54067	23
0.54433	25
0.54800	23
0.55167	22
0.55533	22
0.55900	22
0.56267	22
0.56633	22
0.57000	21
0.57367	19
0.57733	19
0.58100	19
0.58467	18
0.58833	19
0.59200	22
0.59567	23
0.59933	23
0.60300	25
0.60667	27
0.61033	28
0.61400	26
0.61767	25
0.62133	24
0.62500	23
0.62867	25
0.63233	26
0.63600	27
0.63967	27
0.64333	26
0.64700	25
0.65067	25
0.65433	25
0.65800	24
0.66167	24
0.66533	23
0.66900	23
0.67267	26
0.67633	28
0.68000	31
0.68367	33
0.68733	34
0.69100	33
0.69467	32
0.69833	31
0.70200	30
0.70567	31
0.70933	30
0.71300	30
0.71667	30
0.72033	30
0.72400	30
0.72767	31
0.73133	33
0.73500	35
0.73867	35
0.74233	36
0.74600	36
0.74967	35
0.75333	33
0.75700	33
0.76067	33
0.76433	33
0.76800	32
0.77167	32
0.77533	33
0.77900	34
0.78267	35
0.78633	36
0.79000	36
0.79367	37
0.79733	37
0.80100	37
0.80467	37
0.80833	37
0.81200	37
0.81567	36
0.81933	33
0.82300	33
0.82667	33
0.83033	34
0.83400	33
0.83767	34
0.84133	36
0.84500	36
0.84867	35
0.85233	36
0.85600	38
0.85967	40
0.86333	41
0.86700	41
0.87067	41
0.87433	42
0.87800	43
0.88167	42
0.88533	40
0.88900	39
0.89267	40
0.89633	42
0.90000	44
0.90367	43
0.90733	41
0.91100	39
0.91467	38
0.91833	37
0.92200	37
0.92567	37
0.92933	35
0.93300	34
0.93667	35
0.94033	36
0.94400	36
0.94767	36
0.95133	35
0.95500	34
0.95867	36
0.96233	38
0.96600	38
0.96967	40
0.97333	40
0.97700	40
0.98067	40
0.98433	38
0.98800	37
0.99167	38
0.99533	40
0.99900	42
1.00267	43
1.00633	44
1.01000	44
1.01367	44
1.01733	44
1.02100	43
1.02467	41
1.02833	40
1.03200	40
1.03567	44
1.03933	46
1.04300	45
1.04667	44
1.05033	45
1.05400	45
1.05767	45
1.06133	45
1.06500	46
1.06867	48
1.07233	48
1.07600	48
1.07967	49
1.08333	50
1.08700	50
1.09067	50
1.09433	49
1.09800	48
1.10167	48
1.10533	48
1.10900	48
1.11267	50
1.11633	48
1.12000	47
1.12367	47
1.12733	46
1.13100	46
1.13467	47
1.13833	48
1.14200	50
1.14567	52
1.14933	52
1.15300	53
1.15667	53
1.16033	54
1.16400	55
1.16767	55
1.17133	55
1.17500	53
1.17867	53
1.18233	53
1.18600	52
1.18967	52
1.19333	52
1.19700	49
1.20067	47
1.20433	46
1.20800	44
1.21167	43
1.21533	43
1.21900	43
1.22267	43
1.22633	46
1.23000	49
1.23367	49
1.23733	49
1.24100	49
1.24467	50
1.24833	52
1.25200	53
1.25567	54
1.25933	54
1.26300	54
1.26667	52
1.27033	50
1.27400	50
1.27767	51
1.28133	53
1.28500	51
1.28867	51
1.29233	51
1.29600	51
1.29967	52
1.30333	53
1.30700	52
1.31067	51
1.31433	50
1.31800	49
1.32167	50
1.32533	51
1.32900	51
1.33267	51
1.33633	50
1.34000	51
1.34367	52
1.34733	54
1.35100	54
1.35467	54
1.35833	53
1.36200	52
1.36567	51
1.36933	51
1.37300	52
1.37667	50
1.38033	50
1.38400	47
1.38767	46
1.39133	48
1.39500	50
1.39867	53
1.40233	55
1.40600	55
1.40967	54
1.41333	52
1.41700	51
1.42067	50
1.42433	52
1.42800	53
1.43167	55
1.43533	56
1.43900	55
1.44267	55
1.44633	55
1.45000	55
1.45367	52
1.45733	50
1.46100	50
1.46467	51
1.46833	50
1.47200	52
1.47567	54
1.47933	54
1.48300	54
1.48667	55
1.49033	57
1.49400	59
1.49767	59
1.50133	58
1.50500	56
1.50867	55
1.51233	57
1.51600	58
1.51967	57
1.52333	57
1.52700	58
1.53067	58
1.53433	55
1.53800	53
1.54167	52
1.54533	53
1.54900	52
1.55267	51
1.55633	51
1.56000	54
1.56367	56
1.56733	55
1.57100	54
1.57467	53
1.57833	53
1.58200	53
1.58567	52
1.58933	53
1.59300	55
1.59667	56
1.60033	56
1.60400	56
1.60767	57
1.61133	58
1.61500	59
1.61867	59
1.62233	59
1.62600	58
1.62967	57
1.63333	56
1.63700	55
1.64067	57
1.64433	58
1.64800	59
1.65167	59
1.65533	60
1.65900	63
1.66267	65
1.66633	67
1.67000	67
1.67367	69
1.67733	70
1.68100	71
1.68467	71
1.68833	72
1.69200	73
1.69567	74
1.69933	73
1.70300	72
1.70667	70
1.71033	68
1.71400	67
1.71767	66
1.72133	68
1.72500	70
1.72867	71
1.73233	75
1.73600	78
1.73967	78
1.74333	76
1.74700	75
1.75067	74
1.75433	75
1.75800	76
1.76167	80
1.76533	81
1.76900	82
1.77267	82
1.77633	81
1.78000	81
1.78367	83
1.78733	80
1.79100	80
1.79467	81
1.79833	81
1.80200	83
1.80567	87
1.80933	89
1.81300	91
1.81667	92
1.82033	93
1.82400	93
1.82767	90
1.83133	88
1.83500	86
1.83867	88
1.84233	90
1.84600	90
1.84967	89
1.85333	87
1.85700	87
1.86067	87
1.86433	89
1.86800	90
1.87167	90
1.87533	91
1.87900	92
1.88267	91
1.88633	89
1.89000	90
1.89367	91
1.89733	92
1.90100	93
1.90467	94
1.90833	94
1.91200	94
1.91567	96
1.91933	96
1.92300	95
1.92667	95
1.93033	95
1.93400	96
1.93767	96
1.94133	96
1.94500	95
1.94867	92
1.95233	90
1.95600	91
1.95967	93
1.96333	96
1.96700	98
1.97067	101
1.97433	103
1.97800	105
1.98167	102
1.98533	100
1.98900	100
1.99267	103
1.99633	109
2.00000	113
2.00367	115
2.00733	116
2.01100	116
2.01467	117
2.01833	116
2.02200	114
2.02567	112
2.02933	114
2.03300	116
2.03667	119
2.04033	122
2.04400	122
2.04767	121
2.05133	122
2.05500	124
2.05867	126
2.06233	125
2.06600	123
2.06967	123
2.07333	126
2.07700	127
2.08067	127
2.08433	129
2.08800	131
2.09167	132
2.09533	131
2.09900	133
2.10267	133
2.10633	133
2.11000	134
2.11367	133
2.11733	134
2.12100	133
2.12467	134
2.12833	138
2.13200	142
2.13567	142
2.13933	142
2.14300	144
2.14667	148
2.15033	151
2.15400	151
2.15767	150
2.16133	150
2.16500	149
2.16867	150
2.17233	151
2.17600	152
2.17967	154
2.18333	152
2.18700	149
2.19067	151
2.19433	153
2.19800	154
2.20167	158
2.20533	160
2.20900	161
2.21267	163
2.21633	163
2.22000	163
2.22367	161
2.22733	161
2.23100	163
2.23467	167
2.23833	168
2.24200	168
2.24567	166
2.24933	168
2.25300	169
2.25667	169
2.26033	169
2.26400	169
2.26767	169
2.27133	168
2.27500	168
2.27867	170
2.28233	169
2.28600	167
2.28967	168
2.29333	168
2.29700	170
2.30067	170
2.30433	169
2.30800	170
2.31167	170
2.31533	170
2.31900	172
2.32267	176
2.32633	177
2.33000	178
2.33367	178
2.33733	176
2.34100	174
2.34467	174
2.34833	176
2.35200	178
2.35567	179
2.35933	179
2.36300	177
2.36667	177
2.37033	178
2.37400	179
2.37767	179
2.38133	178
2.38500	178
2.38867	176
2.39233	175
2.39600	177
2.39967	181
2.40333	183
2.40700	185
2.41067	188
2.41433	190
2.41800	190
2.42167	193
2.42533	193
2.42900	192
2.43267	194
2.43633	197
2.44000	200
2.44367	211
2.44733	234
2.45100	260
2.45467	283
2.45833	295
2.46200	297
2.46567	294
2.46933	289
2.47300	284
2.47667	278
2.48033	269
2.48400	259
2.48767	248
2.49133	239
2.49500	235
2.49867	230
2.50233	225
2.50600	222
2.50967	221
2.51333	222
2.51700	221
2.52067	222
2.52433	223
2.52800	222
2.53167	219
2.53533	215
2.53900	210
2.54267	203
2.54633	199
2.55000	194
2.55367	187
2.55733	179
2.56100	174
2.56467	173
2.56833	173
2.57200	172
2.57567	170
2.57933	167
2.58300	166
2.58667	167
2.59033	165
2.59400	161
2.59767	156
2.60133	144
2.60500	125
2.60867	101
2.61233	73
2.61600	42
2.61967	10
2.62333	-21
2.62700	-52
2.63067	-79
2.63433	-100
2.63800	-115
2.64167	-126
2.64533	-137
2.64900	-145
2.65267	-147
2.65633	-148
2.66000	-145
2.66367	-140
2.66733	-137
2.67100	-131
2.67467	-123
2.67833	-115
2.68200	-108
2.68567	-99
2.68933	-92
2.69300	-85
2.69667	-77
2.70033	-71
2.70400	-66
2.70767	-57
2.71133	-50
2.71500	-45
2.71867	-38
2.72233	-30
2.72600	-25
2.72967	-21
2.73333	-17
2.73700	-14
2.74067	-9
2.74433	-5
2.74800	-0
2.75167	4
2.75533	9
2.75900	12
2.76267	15
2.76633	18
2.77000	22
2.77367	27
2.77733	28
2.78100	27
2.78467	29
2.78833	33
2.79200	36
2.79567	38
2.79933	41
2.80300	44
2.80667	48
2.81033	52
2.81400	54
2.81767	57
2.82133	64
2.82500	82
2.82867	123
2.83233	206
2.83600	355
2.83967	597
2.84333	950
2.84700	1418
2.85067	1993
2.85433	2646
2.85800	3335
2.86167	4005
2.86533	4601
2.86900	5077
2.87267	5404
2.87633	5568
2.88000	5572
2.88367	5435
2.88733	5187
2.89100	4858
2.89467	4480
2.89833	4080
2.90200	3679
2.90567	3290
2.90933	2923
2.91300	2584
2.91667	2276
2.92033	1995
2.92400	1743
2.92767	1522
2.93133	1330
2.93500	1161
2.93867	1014
2.94233	885
2.94600	771
2.94967	673
2.95333	589
2.95700	516
2.96067	454
2.96433	401
2.96800	354
2.97167	314
2.97533	279
2.97900	250
2.98267	228
2.98633	208
2.99000	190
2.99367	173
2.99733	156
3.00100	142
3.00467	130
3.00833	120
3.01200	112
3.01567	106
3.01933	101
3.02300	97
3.02667	94
3.03033	91
3.03400	87
3.03767	85
3.04133	85
3.04500	84
3.04867	80
3.05233	76
3.05600	74
3.05967	73
3.06333	72
3.06700	71
3.07067	70
3.07433	69
3.07800	67
3.08167	66
3.08533	66
3.08900	67
3.09267	67
3.09633	68
3.10000	68
3.10367	68
3.10733	67
3.11100	66
3.11467	66
3.11833	70
3.12200	72
3.12567	70
3.12933	68
3.13300	67
3.13667	67
3.14033	65
3.14400	65
3.14767	67
3.15133	68
3.15500	67
3.15867	69
3.16233	71
3.16600	70
3.16967	70
3.17333	70
3.17700	71
3.18067	72
3.18433	76
3.18800	76
3.19167	76
3.19533	75
3.19900	74
3.20267	74
3.20633	74
3.21000	76
3.21367	78
3.21733	78
3.22100	77
3.22467	75
3.22833	72
3.23200	72
3.23567	74
3.23933	77
3.24300	81
3.24667	82
3.25033	83
3.25400	86
3.25767	89
3.26133	92
3.26500	92
3.26867	91
3.27233	91
3.27600	91
3.27967	89
3.28333	85
3.28700	84
3.29067	84
3.29433	84
3.29800	84
3.30167	85
3.30533	88
3.30900	90
3.31267	90
3.31633	88
3.32000	85
3.32367	84
3.32733	83
3.33100	81
3.33467	80
3.33833	80
3.34200	78
3.34567	76
3.34933	77
3.35300	78
3.35667	80
3.36033	80
3.36400	77
3.36767	76
3.37133	76
3.37500	71
3.37867	66
3.38233	64
3.38600	62
3.38967	62
3.39333	64
3.39700	69
3.40067	77
3.40433	82
3.40800	88
3.41167	95
3.41533	104
3.41900	115
3.42267	128
3.42633	146
3.43000	162
3.43367	175
3.43733	189
3.44100	205
3.44467	221
3.44833	239
3.45200	259
3.45567	276
3.45933	293
3.46300	307
3.46667	319
3.47033	328
3.47400	340
3.47767	352
3.48133	360
3.48500	364
3.48867	367
3.49233	374
3.49600	380
3.49967	385
3.50333	391
3.50700	398
3.51067	402
3.51433	403
3.51800	403
3.52167	403
3.52533	402
3.52900	406
3.53267	411
3.53633	411
3.54000	410
3.54367	413
3.54733	412
3.55100	409
3.55467	407
3.55833	406
3.56200	408
3.56567	411
3.56933	413
3.57300	415
3.57667	417
3.58033	416
3.58400	413
3.58767	413
3.59133	415
3.59500	416
3.59867	414
3.60233	412
3.60600	414
3.60967	415
3.61333	415
3.61700	415
3.62067	415
3.62433	415
3.62800	416
3.63167	414
3.63533	413
3.63900	411
3.64267	409
3.64633	408
3.65000	409
3.65367	410
3.65733	410
3.66100	410
3.66467	410
3.66833	409
3.67200	408
3.67567	407
3.67933	408
3.68300	407
3.68667	405
3.69033	404
3.69400	403
3.69767	404
3.70133	405
3.70500	406
3.70867	406
3.71233	407
3.71600	406
3.71967	402
3.72333	399
3.72700	398
3.73067	395
3.73433	393
3.73800	393
3.74167	393
3.74533	394
3.74900	395
3.75267	395
3.75633	394
3.76000	396
3.76367	396
3.76733	394
3.77100	392
3.77467	390
3.77833	390
3.78200	390
3.78567	390
3.78933	389
3.79300	388
3.79667	386
3.80033	384
3.80400	383
3.80767	382
3.81133	381
3.81500	380
3.81867	379
3.82233	379
3.82600	379
3.82967	379
3.83333	378
3.83700	378
3.84067	379
3.84433	378
3.84800	376
3.85167	373
3.85533	373
3.85900	371
3.86267	371
3.86633	372
3.87000	371
3.87367	368
3.87733	364
3.88100	361
3.88467	358
3.88833	356
3.89200	356
3.89567	356
3.89933	358
3.90300	356
3.90667	353
3.91033	351
3.91400	351
3.91767	350
3.92133	348
3.92500	346
3.92867	344
3.93233	343
3.93600	343
3.93967	342
3.94333	342
3.94700	340
3.95067	337
3.95433	333
3.95800	330
3.96167	328
3.96533	328
3.96900	330
3.97267	328
3.97633	326
3.98000	324
3.98367	322
3.98733	321
3.99100	322
3.99467	322
3.99833	319

[Status Trace (Column Oven Temperature)]
Interval(msec)	1000
# of Points	240
Start Time(min)	0.002
End Time(min)	3.986
Intensity Units	
Intensity Multiplier	1
R.Time (min)	Intensity
0.00218	35.01
0.01885	35.02
0.03552	35.02
0.05218	35.03
0.06885	35.03
0.08552	35.02
0.10218	35.02
0.11885	35.01
0.13552	35.00
0.15218	35.00
0.16885	34.99
0.18552	34.99
0.20218	34.98
0.21885	34.97
0.23552	34.97
0.25218	34.97
0.26885	34.97
0.28552	34.97
0.30218	34.98
0.31885	34.99
0.33552	34.99
0.35218	34.99
0.36885	34.99
0.38552	34.98
0.40218	34.99
0.41885	34.99
0.43552	34.99
0.45218	34.99
0.46885	35.00
0.48552	35.00
0.50218	34.98
0.51885	34.98
0.53552	34.99
0.55218	34.99
0.56885	34.98
0.58552	34.99
0.60218	34.98
0.61885	34.98
0.63552	34.99
0.65218	34.99
0.66885	34.99
0.68552	35.00
0.70218	35.00
0.71885	35.01
0.73552	35.00
0.75218	35.00
0.76885	34.99
0.78552	34.99
0.80218	34.98
0.81885	34.99
0.83552	34.98
0.85218	34.98
0.86885	34.99
0.88552	34.99
0.90218	34.99
0.91885	35.00
0.93552	35.00
0.95218	35.00
0.96885	35.00
0.98552	35.00
1.00218	34.99
1.01885	34.98
1.03552	34.99
1.05218	34.99
1.06885	34.98
1.08552	34.98
1.10218	34.97
1.11885	34.98
1.13552	34.98
1.15218	34.99
1.16885	35.00
1.18552	35.00
1.20218	35.00
1.21885	35.00
1.23552	35.00
1.25218	34.99
1.26885	34.98
1.28552	34.99
1.30218	34.99
1.31885	34.99
1.33552	34.99
1.35218	34.98
1.36885	34.98
1.38552	34.99
1.40218	34.99
1.41885	34.99
1.43552	34.98
1.45218	34.99
1.46885	34.98
1.48552	34.98
1.50218	34.99
1.51885	34.99
1.53552	34.99
1.55218	34.99
1.56885	34.99
1.58552	35.01
1.60218	35.05
1.61885	35.15
1.63552	35.30
1.65218	35.52
1.66885	35.82
1.68552	36.19
1.70218	36.54
1.71885	36.89
1.73552	37.23
1.75218	37.55
1.76885	37.86
1.78552	38.21
1.80218	38.55
1.81885	38.87
1.83552	39.19
1.85218	39.54
1.86885	39.86
1.88552	40.19
1.90218	40.51
1.91885	40.84
1.93552	41.17
1.95218	41.50
1.96885	41.83
1.98552	42.15
2.00218	42.50
2.01885	42.82
2.03552	43.13
2.05218	43.45
2.06885	43.79
2.08552	44.09
2.10218	44.43
2.11885	44.76
2.13552	45.09
2.15218	45.44
2.16885	45.75
2.18552	46.08
2.20218	46.40
2.21885	46.74
2.23552	47.06
2.25218	47.39
2.26885	47.73
2.28552	48.05
2.30218	48.38
2.31885	48.71
2.33552	49.04
2.35218	49.32
2.36885	49.56
2.38552	49.67
2.40218	49.70
2.41885	49.70
2.43552	49.70
2.45218	49.70
2.46885	49.72
2.48552	49.72
2.50218	49.73
2.51885	49.75
2.53552	49.78
2.55218	49.80
2.56885	49.81
2.58552	49.81
2.60218	49.82
2.61885	49.83
2.63552	49.84
2.65218	49.85
2.66885	49.85
2.68552	49.85
2.70218	49.86
2.71885	49.85
2.73552	49.85
2.75218	49.88
2.76885	49.88
2.78552	49.88
2.80218	49.88
2.81885	49.88
2.83552	49.89
2.85218	49.91
2.86885	49.93
2.88552	49.95
2.90218	49.95
2.91885	49.96
2.93552	49.97
2.95218	49.98
2.96885	49.99
2.98552	50.00
3.00218	50.00
3.01885	50.03
3.03552	50.04
3.05218	50.04
3.06885	50.04
3.08552	50.04
3.10218	50.05
3.11885	50.05
3.13552	50.06
3.15218	50.07
3.16885	50.07
3.18552	50.08
3.20218	50.10
3.21885	50.11
3.23552	50.11
3.25218	50.10
3.26885	50.09
3.28552	50.09
3.30218	50.09
3.31885	50.09
3.33552	50.08
3.35218	50.07
3.36885	50.05
3.38552	50.04
3.40218	50.04
3.41885	50.04
3.43552	50.04
3.45218	50.05
3.46885	50.06
3.48552	50.05
3.50218	50.05
3.51885	50.07
3.53552	50.06
3.55218	50.07
3.56885	50.06
3.58552	50.06
3.60218	50.06
3.61885	50.05
3.63552	50.04
3.65218	50.04
3.66885	50.04
3.68552	50.04
3.70218	50.05
3.71885	50.05
3.73552	50.05
3.75218	50.06
3.76885	50.06
3.78552	50.06
3.80218	50.06
3.81885	50.06
3.83552	50.06
3.85218	50.06
3.86885	50.06
3.88552	50.06
3.90218	50.06
3.91885	50.06
3.93552	50.07
3.95218	50.06
3.96885	50.06
3.98552	50.06

[Status Trace (Injection Unit Temperature)]
Interval(msec)	1000
# of Points	240
Start Time(min)	0.002
End Time(min)	3.986
Intensity Units	
Intensity Multiplier	1
R.Time (min)	Intensity
0.00218	99.98
0.01885	99.98
0.03552	99.99
0.05218	99.98
0.06885	99.98
0.08552	99.98
0.10218	99.98
0.11885	99.98
0.13552	99.98
0.15218	99.98
0.16885	99.98
0.18552	99.98
0.20218	99.98
0.21885	99.98
0.23552	99.98
0.25218	99.99
0.26885	99.98
0.28552	99.98
0.30218	99.99
0.31885	99.98
0.33552	99.98
0.35218	99.98
0.36885	99.98
0.38552	99.98
0.40218	99.99
0.41885	99.99
0.43552	99.98
0.45218	99.98
0.46885	99.98
0.48552	99.98
0.50218	99.98
0.51885	99.98
0.53552	99.98
0.55218	99.98
0.56885	99.98
0.58552	99.98
0.60218	99.98
0.61885	99.98
0.63552	99.98
0.65218	99.98
0.66885	99.98
0.68552	99.99
0.70218	99.98
0.71885	99.98
0.73552	99.98
0.75218	99.98
0.76885	99.98
0.78552	99.98
0.80218	99.98
0.81885	99.98
0.83552	99.98
0.85218	99.98
0.86885	99.98
0.88552	99.98
0.90218	99.98
0.91885	99.98
0.93552	99.98
0.95218	99.98
0.96885	99.98
0.98552	99.99
1.00218	99.98
1.01885	99.98
1.03552	99.98
1.05218	99.98
1.06885	99.98
1.08552	99.98
1.10218	99.98
1.11885	99.98
1.13552	99.98
1.15218	99.98
1.16885	99.98
1.18552	99.98
1.20218	99.98
1.21885	99.98
1.23552	99.98
1.25218	99.98
1.26885	99.98
1.28552	99.99
1.30218	99.99
1.31885	99.99
1.33552	99.99
1.35218	99.99
1.36885	99.99
1.38552	99.99
1.40218	99.99
1.41885	99.99
1.43552	99.99
1.45218	99.99
1.46885	99.99
1.48552	99.99
1.50218	99.99
1.51885	99.99
1.53552	99.99
1.55218	99.99
1.56885	99.99
1.58552	99.99
1.60218	99.99
1.61885	99.99
1.63552	99.99
1.65218	99.99
1.66885	99.99
1.68552	99.99
1.70218	99.99
1.71885	99.99
1.73552	99.99
1.75218	99.99
1.76885	99.99
1.78552	99.99
1.80218	99.99
1.81885	99.99
1.83552	99.99
1.85218	99.99
1.86885	99.99
1.88552	99.98
1.90218	99.99
1.91885	99.98
1.93552	99.98
1.95218	99.98
1.96885	99.98
1.98552	99.98
2.00218	99.98
2.01885	99.98
2.03552	99.98
2.05218	99.98
2.06885	99.98
2.08552	99.97
2.10218	99.97
2.11885	99.97
2.13552	99.97
2.15218	99.97
2.16885	99.97
2.18552	99.97
2.20218	99.97
2.21885	99.97
2.23552	99.97
2.25218	99.97
2.26885	99.97
2.28552	99.97
2.30218	99.97
2.31885	99.97
2.33552	99.97
2.35218	99.97
2.36885	99.97
2.38552	99.97
2.40218	99.97
2.41885	99.97
2.43552	99.97
2.45218	99.97
2.46885	99.97
2.48552	99.97
2.50218	99.97
2.51885	99.97
2.53552	99.97
2.55218	99.97
2.56885	99.98
2.58552	99.98
2.60218	99.98
2.61885	99.98
2.63552	99.97
2.65218	99.98
2.66885	99.98
2.68552	99.98
2.70218	99.98
2.71885	99.98
2.73552	99.98
2.75218	99.97
2.76885	99.98
2.78552	99.99
2.80218	99.99
2.81885	99.99
2.83552	99.99
2.85218	99.99
2.86885	99.99
2.88552	100.00
2.90218	99.99
2.91885	99.99
2.93552	100.00
2.95218	100.00
2.96885	100.00
2.98552	100.00
3.00218	100.01
3.01885	100.01
3.03552	100.01
3.05218	100.01
3.06885	100.01
3.08552	100.02
3.10218	100.01
3.11885	100.01
3.13552	100.01
3.15218	100.02
3.16885	100.02
3.18552	100.02
3.20218	100.02
3.21885	100.02
3.23552	100.02
3.25218	100.02
3.26885	100.03
3.28552	100.03
3.30218	100.03
3.31885	100.02
3.33552	100.03
3.35218	100.03
3.36885	100.03
3.38552	100.03
3.40218	100.03
3.41885	100.03
3.43552	100.03
3.45218	100.03
3.46885	100.04
3.48552	100.04
3.50218	100.04
3.51885	100.04
3.53552	100.04
3.55218	100.04
3.56885	100.05
3.58552	100.05
3.60218	100.04
3.61885	100.04
3.63552	100.04
3.65218	100.05
3.66885	100.05
3.68552	100.04
3.70218	100.05
3.71885	100.05
3.73552	100.05
3.75218	100.05
3.76885	100.05
3.78552	100.04
3.80218	100.05
3.81885	100.05
3.83552	100.05
3.85218	100.04
3.86885	100.05
3.88552	100.05
3.90218	100.05
3.91885	100.05
3.93552	100.05
3.95218	100.05
3.96885	100.05
3.98552	100.05

[Status Trace (Carrier Gas Pressure)]
Interval(msec)	1000
# of Points	240
Start Time(min)	0.002
End Time(min)	3.986
Intensity Units	
Intensity Multiplier	1
R.Time (min)	Intensity
0.00218	58.00
0.01885	56.35
0.03552	56.27
0.05218	58.41
0.06885	59.91
0.08552	58.36
0.10218	57.97
0.11885	58.00
0.13552	58.01
0.15218	58.01
0.16885	58.00
0.18552	58.00
0.20218	58.00
0.21885	58.00
0.23552	58.00
0.25218	58.00
0.26885	58.00
0.28552	58.00
0.30218	58.00
0.31885	58.00
0.33552	58.00
0.35218	58.00
0.36885	58.00
0.38552	58.00
0.40218	58.00
0.41885	58.00
0.43552	58.00
0.45218	58.00
0.46885	58.00
0.48552	58.00
0.50218	58.00
0.51885	58.00
0.53552	58.00
0.55218	58.00
0.56885	58.00
0.58552	58.00
0.60218	58.00
0.61885	58.00
0.63552	58.00
0.65218	58.00
0.66885	58.00
0.68552	58.00
0.70218	58.00
0.71885	58.00
0.73552	58.00
0.75218	58.00
0.76885	58.00
0.78552	58.00
0.80218	58.00
0.81885	58.00
0.83552	58.00
0.85218	58.00
0.86885	58.00
0.88552	58.00
0.90218	58.00
0.91885	58.00
0.93552	58.00
0.95218	58.00
0.96885	58.00
0.98552	58.00
1.00218	58.00
1.01885	58.00
1.03552	58.00
1.05218	58.00
1.06885	58.00
1.08552	58.00
1.10218	58.00
1.11885	58.00
1.13552	58.00
1.15218	58.00
1.16885	58.00
1.18552	58.00
1.20218	58.00
1.21885	58.00
1.23552	58.00
1.25218	58.00
1.26885	58.00
1.28552	58.00
1.30218	58.00
1.31885	58.00
1.33552	58.00
1.35218	58.00
1.36885	58.00
1.38552	58.00
1.40218	58.00
1.41885	58.00
1.43552	58.00
1.45218	58.00
1.46885	58.00
1.48552	58.00
1.50218	58.00
1.51885	58.00
1.53552	58.00
1.55218	58.00
1.56885	58.00
1.58552	58.00
1.60218	58.00
1.61885	58.00
1.63552	58.00
1.65218	58.00
1.66885	58.01
1.68552	58.01
1.70218	58.00
1.71885	58.00
1.73552	58.00
1.75218	58.00
1.76885	58.00
1.78552	58.00
1.80218	58.00
1.81885	58.00
1.83552	58.00
1.85218	58.00
1.86885	58.00
1.88552	58.00
1.90218	58.00
1.91885	58.00
1.93552	58.00
1.95218	58.00
1.96885	58.00
1.98552	58.00
2.00218	58.00
2.01885	58.00
2.03552	58.00
2.05218	58.00
2.06885	58.00
2.08552	58.00
2.10218	58.00
2.11885	58.00
2.13552	58.00
2.15218	58.00
2.16885	58.00
2.18552	58.00
2.20218	58.00
2.21885	58.00
2.23552	58.00
2.25218	58.00
2.26885	58.00
2.28552	58.00
2.30218	58.00
2.31885	58.00
2.33552	58.00
2.35218	58.00
2.36885	58.00
2.38552	57.99
2.40218	57.99
2.41885	58.00
2.43552	58.00
2.45218	58.00
2.46885	58.00
2.48552	58.00
2.50218	58.00
2.51885	58.02
2.53552	57.99
2.55218	58.00
2.56885	58.00
2.58552	58.00
2.60218	58.00
2.61885	58.00
2.63552	58.00
2.65218	58.00
2.66885	58.00
2.68552	58.00
2.70218	58.00
2.71885	58.00
2.73552	58.00
2.75218	58.00
2.76885	58.00
2.78552	58.00
2.80218	58.00
2.81885	58.00
2.83552	58.00
2.85218	58.00
2.86885	58.00
2.88552	58.00
2.90218	58.00
2.91885	58.00
2.93552	58.00
2.95218	58.00
2.96885	58.00
2.98552	58.00
3.00218	58.00
3.01885	58.00
3.03552	58.00
3.05218	58.00
3.06885	58.00
3.08552	58.00
3.10218	58.00
3.11885	58.00
3.13552	58.00
3.15218	58.00
3.16885	58.00
3.18552	58.00
3.20218	58.00
3.21885	58.00
3.23552	58.00
3.25218	58.00
3.26885	58.00
3.28552	58.00
3.30218	58.00
3.31885	58.00
3.33552	58.00
3.35218	58.00
3.36885	58.00
3.38552	58.00
3.40218	58.00
3.41885	58.00
3.43552	58.00
3.45218	58.00
3.46885	58.00
3.48552	58.00
3.50218	58.00
3.51885	58.00
3.53552	58.00
3.55218	58.00
3.56885	58.00
3.58552	58.00
3.60218	58.00
3.61885	58.00
3.63552	58.00
3.65218	58.00
3.66885	58.00
3.68552	58.00
3.70218	58.00
3.71885	58.00
3.73552	58.00
3.75218	58.00
3.76885	58.00
3.78552	58.00
3.80218	58.00
3.81885	58.00
3.83552	58.00
3.85218	58.00
3.86885	58.00
3.88552	58.00
3.90218	58.00
3.91885	58.00
3.93552	58.00
3.95218	58.00
3.96885	58.00
3.98552	58.00

[Status Trace (Carrier Gas Flow)]
Interval(msec)	1000
# of Points	240
Start Time(min)	0.002
End Time(min)	3.986
Intensity Units	
Intensity Multiplier	1
R.Time (min)	Intensity
0.00218	34.52
0.01885	34.52
0.03552	34.53
0.05218	34.55
0.06885	34.51
0.08552	34.50
0.10218	34.52
0.11885	34.52
0.13552	34.52
0.15218	34.52
0.16885	34.52
0.18552	34.52
0.20218	34.52
0.21885	34.52
0.23552	34.52
0.25218	34.52
0.26885	34.52
0.28552	34.52
0.30218	34.52
0.31885	34.52
0.33552	34.52
0.35218	34.52
0.36885	34.52
0.38552	34.52
0.40218	34.52
0.41885	34.52
0.43552	34.52
0.45218	34.52
0.46885	34.52
0.48552	34.52
0.50218	34.52
0.51885	34.52
0.53552	34.52
0.55218	34.52
0.56885	34.52
0.58552	34.52
0.60218	34.52
0.61885	34.52
0.63552	34.52
0.65218	34.52
0.66885	34.52
0.68552	34.52
0.70218	34.52
0.71885	34.51
0.73552	34.52
0.75218	34.52
0.76885	34.52
0.78552	34.52
0.80218	34.51
0.81885	34.52
0.83552	34.52
0.85218	34.52
0.86885	34.52
0.88552	34.52
0.90218	34.52
0.91885	34.52
0.93552	34.52
0.95218	34.52
0.96885	34.52
0.98552	34.52
1.00218	34.52
1.01885	34.52
1.03552	34.52
1.05218	34.52
1.06885	34.52
1.08552	34.52
1.10218	34.52
1.11885	34.52
1.13552	34.52
1.15218	34.52
1.16885	34.52
1.18552	34.52
1.20218	34.52
1.21885	34.52
1.23552	34.52
1.25218	34.52
1.26885	34.52
1.28552	34.52
1.30218	34.52
1.31885	34.52
1.33552	34.52
1.35218	34.52
1.36885	34.52
1.38552	34.52
1.40218	34.52
1.41885	34.52
1.43552	34.52
1.45218	34.52
1.46885	34.52
1.48552	34.52
1.50218	34.52
1.51885	34.52
1.53552	34.52
1.55218	34.52
1.56885	34.52
1.58552	34.52
1.60218	34.52
1.61885	34.52
1.63552	34.52
1.65218	34.52
1.66885	34.52
1.68552	34.52
1.70218	34.52
1.71885	34.52
1.73552	34.52
1.75218	34.52
1.76885	34.52
1.78552	34.52
1.80218	34.52
1.81885	34.52
1.83552	34.52
1.85218	34.52
1.86885	34.52
1.88552	34.52
1.90218	34.52
1.91885	34.52
1.93552	34.52
1.95218	34.52
1.96885	34.52
1.98552	34.52
2.00218	34.52
2.01885	34.52
2.03552	34.52
2.05218	34.52
2.06885	34.52
2.08552	34.52
2.10218	34.52
2.11885	34.52
2.13552	34.52
2.15218	34.52
2.16885	34.52
2.18552	34.52
2.20218	34.52
2.21885	34.52
2.23552	34.52
2.25218	34.52
2.26885	34.52
2.28552	34.52
2.30218	34.52
2.31885	34.52
2.33552	34.52
2.35218	34.52
2.36885	34.52
2.38552	34.53
2.40218	34.52
2.41885	34.52
2.43552	34.52
2.45218	34.52
2.46885	34.52
2.48552	34.52
2.50218	34.52
2.51885	34.52
2.53552	34.52
2.55218	34.52
2.56885	34.52
2.58552	34.52
2.60218	34.52
2.61885	34.52
2.63552	34.52
2.65218	34.52
2.66885	34.52
2.68552	34.52
2.70218	34.52
2.71885	34.52
2.73552	34.52
2.75218	34.52
2.76885	34.52
2.78552	34.52
2.80218	34.52
2.81885	34.52
2.83552	34.52
2.85218	34.52
2.86885	34.52
2.88552	34.52
2.90218	34.52
2.91885	34.52
2.93552	34.52
2.95218	34.52
2.96885	34.52
2.98552	34.52
3.00218	34.52
3.01885	34.52
3.03552	34.52
3.05218	34.52
3.06885	34.52
3.08552	34.52
3.10218	34.52
3.11885	34.52
3.13552	34.52
3.15218	34.52
3.16885	34.52
3.18552	34.52
3.20218	34.52
3.21885	34.52
3.23552	34.52
3.25218	34.52
3.26885	34.52
3.28552	34.52
3.30218	34.52
3.31885	34.52
3.33552	34.52
3.35218	34.52
3.36885	34.52
3.38552	34.52
3.40218	34.52
3.41885	34.52
3.43552	34.52
3.45218	34.52
3.46885	34.52
3.48552	34.52
3.50218	34.52
3.51885	34.52
3.53552	34.52
3.55218	34.52
3.56885	34.52
3.58552	34.52
3.60218	34.52
3.61885	34.52
3.63552	34.52
3.65218	34.52
3.66885	34.52
3.68552	34.52
3.70218	34.52
3.71885	34.52
3.73552	34.52
3.75218	34.52
3.76885	34.52
3.78552	34.52
3.80218	34.52
3.81885	34.52
3.83552	34.52
3.85218	34.52
3.86885	34.52
3.88552	34.52
3.90218	34.52
3.91885	34.52
3.93552	34.52
3.95218	34.52
3.96885	34.52
3.98552	34.52

[Status Trace (Column Flow)]
Interval(msec)	1000
# of Points	240
Start Time(min)	0.002
End Time(min)	3.986
Intensity Units	
Intensity Multiplier	1
R.Time (min)	Intensity
0.00218	5.49
0.01885	5.30
0.03552	5.29
0.05218	5.54
0.06885	5.72
0.08552	5.53
0.10218	5.49
0.11885	5.49
0.13552	5.49
0.15218	5.49
0.16885	5.49
0.18552	5.49
0.20218	5.49
0.21885	5.49
0.23552	5.49
0.25218	5.49
0.26885	5.49
0.28552	5.49
0.30218	5.49
0.31885	5.49
0.33552	5.49
0.35218	5.49
0.36885	5.49
0.38552	5.49
0.40218	5.49
0.41885	5.49
0.43552	5.49
0.45218	5.49
0.46885	5.49
0.48552	5.49
0.50218	5.49
0.51885	5.49
0.53552	5.49
0.55218	5.49
0.56885	5.49
0.58552	5.49
0.60218	5.49
0.61885	5.49
0.63552	5.49
0.65218	5.49
0.66885	5.49
0.68552	5.49
0.70218	5.49
0.71885	5.49
0.73552	5.49
0.75218	5.49
0.76885	5.49
0.78552	5.49
0.80218	5.49
0.81885	5.49
0.83552	5.49
0.85218	5.49
0.86885	5.49
0.88552	5.49
0.90218	5.49
0.91885	5.49
0.93552	5.49
0.95218	5.49
0.96885	5.49
0.98552	5.49
1.00218	5.49
1.01885	5.49
1.03552	5.49
1.05218	5.49
1.06885	5.49
1.08552	5.49
1.10218	5.49
1.11885	5.49
1.13552	5.49
1.15218	5.49
1.16885	5.49
1.18552	5.49
1.20218	5.49
1.21885	5.49
1.23552	5.49
1.25218	5.49
1.26885	5.49
1.28552	5.49
1.30218	5.49
1.31885	5.49
1.33552	5.49
1.35218	5.49
1.36885	5.49
1.38552	5.49
1.40218	5.49
1.41885	5.49
1.43552	5.49
1.45218	5.49
1.46885	5.49
1.48552	5.49
1.50218	5.49
1.51885	5.49
1.53552	5.49
1.55218	5.49
1.56885	5.49
1.58552	5.49
1.60218	5.49
1.61885	5.49
1.63552	5.48
1.65218	5.48
1.66885	5.47
1.68552	5.46
1.70218	5.44
1.71885	5.43
1.73552	5.42
1.75218	5.41
1.76885	5.40
1.78552	5.39
1.80218	5.38
1.81885	5.37
1.83552	5.36
1.85218	5.35
1.86885	5.34
1.88552	5.33
1.90218	5.32
1.91885	5.31
1.93552	5.30
1.95218	5.29
1.96885	5.29
1.98552	5.28
2.00218	5.27
2.01885	5.26
2.03552	5.25
2.05218	5.24
2.06885	5.23
2.08552	5.22
2.10218	5.21
2.11885	5.20
2.13552	5.19
2.15218	5.18
2.16885	5.17
2.18552	5.16
2.20218	5.15
2.21885	5.14
2.23552	5.13
2.25218	5.12
2.26885	5.12
2.28552	5.11
2.30218	5.10
2.31885	5.09
2.33552	5.08
2.35218	5.07
2.36885	5.06
2.38552	5.06
2.40218	5.06
2.41885	5.06
2.43552	5.06
2.45218	5.06
2.46885	5.06
2.48552	5.06
2.50218	5.06
2.51885	5.06
2.53552	5.06
2.55218	5.06
2.56885	5.06
2.58552	5.06
2.60218	5.06
2.61885	5.06
2.63552	5.06
2.65218	5.06
2.66885	5.06
2.68552	5.06
2.70218	5.06
2.71885	5.06
2.73552	5.06
2.75218	5.06
2.76885	5.06
2.78552	5.06
2.80218	5.06
2.81885	5.06
2.83552	5.06
2.85218	5.05
2.86885	5.05
2.88552	5.05
2.90218	5.05
2.91885	5.05
2.93552	5.05
2.95218	5.05
2.96885	5.05
2.98552	5.05
3.00218	5.05
3.01885	5.05
3.03552	5.05
3.05218	5.05
3.06885	5.05
3.08552	5.05
3.10218	5.05
3.11885	5.05
3.13552	5.05
3.15218	5.05
3.16885	5.05
3.18552	5.05
3.20218	5.05
3.21885	5.05
3.23552	5.05
3.25218	5.05
3.26885	5.05
3.28552	5.05
3.30218	5.05
3.31885	5.05
3.33552	5.05
3.35218	5.05
3.36885	5.05
3.38552	5.05
3.40218	5.05
3.41885	5.05
3.43552	5.05
3.45218	5.05
3.46885	5.05
3.48552	5.05
3.50218	5.05
3.51885	5.05
3.53552	5.05
3.55218	5.05
3.56885	5.05
3.58552	5.05
3.60218	5.05
3.61885	5.05
3.63552	5.05
3.65218	5.05
3.66885	5.05
3.68552	5.05
3.70218	5.05
3.71885	5.05
3.73552	5.05
3.75218	5.05
3.76885	5.05
3.78552	5.05
3.80218	5.05
3.81885	5.05
3.83552	5.05
3.85218	5.05
3.86885	5.05
3.88552	5.05
3.90218	5.05
3.91885	5.05
3.93552	5.05
3.95218	5.05
3.96885	5.05
3.98552	5.05

[Status Trace (Linear Velocity)]
Interval(msec)	1000
# of Points	240
Start Time(min)	0.002
End Time(min)	3.986
Intensity Units	
Intensity Multiplier	1
R.Time (min)	Intensity
0.00218	39.01
0.01885	37.93
0.03552	37.87
0.05218	39.28
0.06885	40.26
0.08552	39.24
0.10218	38.99
0.11885	39.01
0.13552	39.02
0.15218	39.01
0.16885	39.01
0.18552	39.01
0.20218	39.01
0.21885	39.01
0.23552	39.01
0.25218	39.01
0.26885	39.01
0.28552	39.01
0.30218	39.01
0.31885	39.01
0.33552	39.01
0.35218	39.01
0.36885	39.01
0.38552	39.01
0.40218	39.01
0.41885	39.01
0.43552	39.01
0.45218	39.01
0.46885	39.01
0.48552	39.01
0.50218	39.01
0.51885	39.01
0.53552	39.01
0.55218	39.01
0.56885	39.01
0.58552	39.01
0.60218	39.01
0.61885	39.01
0.63552	39.01
0.65218	39.01
0.66885	39.01
0.68552	39.01
0.70218	39.01
0.71885	39.01
0.73552	39.01
0.75218	39.01
0.76885	39.01
0.78552	39.01
0.80218	39.01
0.81885	39.01
0.83552	39.01
0.85218	39.01
0.86885	39.01
0.88552	39.01
0.90218	39.01
0.91885	39.01
0.93552	39.01
0.95218	39.01
0.96885	39.01
0.98552	39.01
1.00218	39.01
1.01885	39.01
1.03552	39.01
1.05218	39.01
1.06885	39.01
1.08552	39.01
1.10218	39.01
1.11885	39.01
1.13552	39.01
1.15218	39.01
1.16885	39.01
1.18552	39.01
1.20218	39.01
1.21885	39.01
1.23552	39.01
1.25218	39.01
1.26885	39.01
1.28552	39.01
1.30218	39.01
1.31885	39.01
1.33552	39.01
1.35218	39.01
1.36885	39.01
1.38552	39.01
1.40218	39.01
1.41885	39.01
1.43552	39.01
1.45218	39.01
1.46885	39.01
1.48552	39.01
1.50218	39.01
1.51885	39.01
1.53552	39.01
1.55218	39.01
1.56885	39.01
1.58552	39.01
1.60218	39.01
1.61885	39.00
1.63552	38.98
1.65218	38.96
1.66885	38.93
1.68552	38.90
1.70218	38.86
1.71885	38.83
1.73552	38.80
1.75218	38.77
1.76885	38.74
1.78552	38.71
1.80218	38.67
1.81885	38.64
1.83552	38.61
1.85218	38.58
1.86885	38.55
1.88552	38.52
1.90218	38.49
1.91885	38.46
1.93552	38.43
1.95218	38.40
1.96885	38.36
1.98552	38.33
2.00218	38.30
2.01885	38.27
2.03552	38.24
2.05218	38.22
2.06885	38.18
2.08552	38.16
2.10218	38.13
2.11885	38.10
2.13552	38.07
2.15218	38.03
2.16885	38.01
2.18552	37.98
2.20218	37.95
2.21885	37.92
2.23552	37.89
2.25218	37.86
2.26885	37.83
2.28552	37.80
2.30218	37.77
2.31885	37.74
2.33552	37.71
2.35218	37.69
2.36885	37.66
2.38552	37.65
2.40218	37.65
2.41885	37.65
2.43552	37.65
2.45218	37.65
2.46885	37.65
2.48552	37.65
2.50218	37.65
2.51885	37.66
2.53552	37.64
2.55218	37.64
2.56885	37.64
2.58552	37.64
2.60218	37.64
2.61885	37.64
2.63552	37.64
2.65218	37.64
2.66885	37.64
2.68552	37.64
2.70218	37.64
2.71885	37.64
2.73552	37.64
2.75218	37.64
2.76885	37.64
2.78552	37.64
2.80218	37.64
2.81885	37.64
2.83552	37.64
2.85218	37.63
2.86885	37.63
2.88552	37.63
2.90218	37.63
2.91885	37.63
2.93552	37.63
2.95218	37.63
2.96885	37.63
2.98552	37.63
3.00218	37.63
3.01885	37.62
3.03552	37.62
3.05218	37.62
3.06885	37.62
3.08552	37.62
3.10218	37.62
3.11885	37.62
3.13552	37.62
3.15218	37.62
3.16885	37.62
3.18552	37.62
3.20218	37.62
3.21885	37.62
3.23552	37.62
3.25218	37.62
3.26885	37.62
3.28552	37.62
3.30218	37.62
3.31885	37.62
3.33552	37.62
3.35218	37.62
3.36885	37.62
3.38552	37.62
3.40218	37.62
3.41885	37.62
3.43552	37.62
3.45218	37.62
3.46885	37.62
3.48552	37.62
3.50218	37.62
3.51885	37.62
3.53552	37.62
3.55218	37.62
3.56885	37.62
3.58552	37.62
3.60218	37.62
3.61885	37.62
3.63552	37.62
3.65218	37.62
3.66885	37.62
3.68552	37.62
3.70218	37.62
3.71885	37.62
3.73552	37.62
3.75218	37.62
3.76885	37.62
3.78552	37.62
3.80218	37.62
3.81885	37.62
3.83552	37.62
3.85218	37.62
3.86885	37.62
3.88552	37.62
3.90218	37.62
3.91885	37.62
3.93552	37.62
3.95218	37.62
3.96885	37.62
3.98552	37.62

