[Header]
Application Name	LabSolutions
Version	5.110
Data File Name	C:\Users\User\Desktop\GC Analyses\Jack\UIC Prairie Sampling\9.16.22\220916_041.gcd
Output Date	11/29/2022
Output Time	11:10:17 AM

[File Information]
Type	Data File
Generated	11/15/2022 9:25:27 AM
Generated by	System Administrator
Modified	11/15/2022 9:29:49 AM
Modified by	System Administrator

[Sample Information]
Operator Name	System Administrator
Acquired	11/15/2022 9:25:49 AM
Sample Type	1:Standard
Level	1
Sample Name	220916_UICPrairie
Sample ID	220916_UICPrairie
ISTD Amount1	1
ISTD Amount2	1
ISTD Amount3	1
ISTD Amount4	1
ISTD Amount5	1
ISTD Amount6	1
ISTD Amount7	1
ISTD Amount8	1
ISTD Amount9	1
ISTD Amount10	1
ISTD Amount11	1
ISTD Amount12	1
ISTD Amount13	1
ISTD Amount14	1
ISTD Amount15	1
ISTD Amount16	1
ISTD Amount17	1
ISTD Amount18	1
ISTD Amount19	1
ISTD Amount20	1
ISTD Amount21	1
ISTD Amount22	1
ISTD Amount23	1
ISTD Amount24	1
ISTD Amount25	1
ISTD Amount26	1
ISTD Amount27	1
ISTD Amount28	1
ISTD Amount29	1
ISTD Amount30	1
ISTD Amount31	1
ISTD Amount32	1
Sample Amount	1
Dilution Factor	1
Vial#	1
Injection Volume	1
Injection Count	1
Bar Code	

[Original Files]
Data File	C:\Users\User\Desktop\GC Analyses\Jack\UIC Prairie Sampling\9.16.22\220916_041.gcd
Method File	C:\LabSolutions\Data\GHG_4min_2022\ghg3_togas_w_acet_4 min_new_int.gcm
Batch File	
Report Format File	c:\LabSolutions\System\DEFAULT.lsr

[File Description]


[Configuration]
Instrument Name	C0B7VH3-Instrument1
Instrument #	1
Line #	1
# of Detectors	3
Detector ID	DET#1	DET#2	DET#3
Detector Name	FID	PTCD	ECD
# of Channels	1	1	1

[Peak Table(Ch1)]
# of Peaks	3
Peak#	R.Time	I.Time	F.Time	Area	Height	A/H	Conc.	Mark	ID#	Name	k'	Plate #	Plate Ht.	Tailing	Resolution	Sep.Factor	Area Ratio	Height Ratio	Conc. %	Norm Conc.
1	1.468	1.439	1.534	4106	1369	2.999	100.000	   	1	CO	0.000	5460	27.471	0.000	0.000	0.000	0	0	16.667	16.667
2	1.571	1.534	1.655	21367	10640	2.008	100.000	 V 	2	CH4	0.070	11230	13.358	1.197	1.480	0.000	0	0	16.667	16.667
3	2.000	1.952	2.425	2187173	1044768	2.093	400.000	   	3	CO2	0.362	17228	8.707	1.217	7.135	5.179	0	0	66.667	66.667

[Peak Table(Ch2)]
# of Peaks	0

[Peak Table(Ch3)]
# of Peaks	4
Peak#	R.Time	I.Time	F.Time	Area	Height	A/H	Conc.	Mark	ID#	Name	k'	Plate #	Plate Ht.	Tailing	Resolution	Sep.Factor	Area Ratio	Height Ratio	Conc. %	Norm Conc.
1	2.466	2.114	2.649	6315	383	16.484	0.000	   			0.000	407	368.363	0.777	0.000	0.000	0	0	0.000	0.000
2	2.774	2.664	2.796	978	178	5.491	0.015	   	1	N2O	0.125	422	355.082	0.000	0.599	0.000	0	0	0.749	0.749
3	2.884	2.796	3.056	64286	16299	3.944	0.985	 V 	1	N2O	0.170	12428	12.069	1.594	0.342	1.357	0	0	49.251	49.251
4	3.214	3.056	3.995	15157	529	28.643	1.000	 V 	2	SF6	0.303	282	532.748	0.000	0.759	1.789	0	0	50.000	50.000

[Compound Results(Ch1)]
# of IDs	6
ID#	Name	R.Time	Area	Height	Conc.	Curve	3rd	2nd	1st	Constant	Area Ratio	Height Ratio	Conc. %	Norm Conc.
1	CO	1.468	4106	1369	100.000	Linear	0.000000e+00	0.000000e+00	4.105580e+001	0.000000e+00	0	0	16.667	16.667
2	CH4	1.571	21367	10640	100.000	Linear	0.000000e+00	0.000000e+00	2.136662e+002	0.000000e+00	0	0	16.667	16.667
3	CO2	2.000	2187173	1044768	400.000	Linear	0.000000e+00	0.000000e+00	5.467933e+003	0.000000e+00	0	0	66.667	66.667
4	Ethylene	0.000	0	0	0.000	Linear	0.000000e+00	0.000000e+00	0.000000e+00	0.000000e+00	0	0	0.000	0.000
5	Acetylene	0.000	0	0	0.000	Linear	0.000000e+00	0.000000e+00	0.000000e+00	0.000000e+00	0	0	0.000	0.000
6	Ethane	0.000	0	0	0.000	Linear	0.000000e+00	0.000000e+00	0.000000e+00	0.000000e+00	0	0	0.000	0.000

[Compound Results(Ch2)]
# of IDs	5
ID#	Name	R.Time	Area	Height	Conc.	Curve	3rd	2nd	1st	Constant	Area Ratio	Height Ratio	Conc. %	Norm Conc.
1	Hydrogen	0.000	0	0	0.000	Linear	0.000000e+00	0.000000e+00	0.000000e+00	0.000000e+00	0	0	0.000	0.000
2	Oxygen	0.000	0	0	0.000	Linear	0.000000e+00	0.000000e+00	0.000000e+00	0.000000e+00	0	0	0.000	0.000
3	Nitrogen	0.000	0	0	0.000	Linear	0.000000e+00	0.000000e+00	0.000000e+00	0.000000e+00	0	0	0.000	0.000
4	Methane	0.000	0	0	0.000	Linear	0.000000e+00	0.000000e+00	0.000000e+00	0.000000e+00	0	0	0.000	0.000
5	Carbon Monoxide	0.000	0	0	0.000	Linear	0.000000e+00	0.000000e+00	0.000000e+00	0.000000e+00	0	0	0.000	0.000

[Compound Results(Ch3)]
# of IDs	2
ID#	Name	R.Time	Area	Height	Conc.	Curve	3rd	2nd	1st	Constant	Area Ratio	Height Ratio	Conc. %	Norm Conc.
1	N2O	2.884	65264	16477	1.000	Linear	0.000000e+00	0.000000e+00	6.526371e+004	0.000000e+00	0	0	50.000	50.000
2	SF6	3.214	15157	529	1.000	Linear	0.000000e+00	0.000000e+00	1.515681e+004	0.000000e+00	0	0	50.000	50.000

[Group Results(Ch1)]
# of Groups	0

[Group Results(Ch2)]
# of Groups	0

[Group Results(Ch3)]
# of Groups	0

[Chromatogram (Ch1)]
Interval(msec)	220
# of Points	1091
Start Time(min)	0.002
End Time(min)	3.998
R.Time (min)	Intensity
0.00167	-8
0.00533	-13
0.00900	-16
0.01267	-19
0.01633	-21
0.02000	-23
0.02367	-26
0.02733	-28
0.03100	-24
0.03467	-17
0.03833	-11
0.04200	-5
0.04567	-2
0.04933	-4
0.05300	-5
0.05667	-8
0.06033	-10
0.06400	-9
0.06767	-5
0.07133	-0
0.07500	4
0.07867	8
0.08233	9
0.08600	7
0.08967	1
0.09333	-5
0.09700	-11
0.10067	-13
0.10433	-10
0.10800	-7
0.11167	-4
0.11533	-1
0.11900	1
0.12267	3
0.12633	4
0.13000	1
0.13367	-3
0.13733	-7
0.14100	-8
0.14467	-8
0.14833	-13
0.15200	-18
0.15567	-20
0.15933	-19
0.16300	-18
0.16667	-14
0.17033	-7
0.17400	-2
0.17767	2
0.18133	3
0.18500	6
0.18867	6
0.19233	5
0.19600	2
0.19967	-0
0.20333	-1
0.20700	-1
0.21067	-3
0.21433	-6
0.21800	-7
0.22167	-6
0.22533	-3
0.22900	3
0.23267	7
0.23633	10
0.24000	14
0.24367	17
0.24733	20
0.25100	19
0.25467	14
0.25833	7
0.26200	-0
0.26567	-3
0.26933	1
0.27300	10
0.27667	17
0.28033	22
0.28400	22
0.28767	19
0.29133	17
0.29500	15
0.29867	13
0.30233	14
0.30600	16
0.30967	17
0.31333	15
0.31700	14
0.32067	15
0.32433	16
0.32800	17
0.33167	19
0.33533	19
0.33900	17
0.34267	15
0.34633	16
0.35000	18
0.35367	17
0.35733	14
0.36100	13
0.36467	11
0.36833	9
0.37200	7
0.37567	4
0.37933	5
0.38300	8
0.38667	13
0.39033	17
0.39400	21
0.39767	22
0.40133	24
0.40500	24
0.40867	24
0.41233	23
0.41600	22
0.41967	21
0.42333	20
0.42700	20
0.43067	22
0.43433	22
0.43800	21
0.44167	16
0.44533	14
0.44900	17
0.45267	22
0.45633	26
0.46000	32
0.46367	37
0.46733	37
0.47100	31
0.47467	23
0.47833	17
0.48200	17
0.48567	18
0.48933	17
0.49300	17
0.49667	17
0.50033	15
0.50400	14
0.50767	13
0.51133	16
0.51500	19
0.51867	21
0.52233	26
0.52600	31
0.52967	37
0.53333	41
0.53700	40
0.54067	39
0.54433	39
0.54800	41
0.55167	41
0.55533	39
0.55900	38
0.56267	39
0.56633	38
0.57000	35
0.57367	32
0.57733	31
0.58100	32
0.58467	32
0.58833	33
0.59200	36
0.59567	38
0.59933	38
0.60300	37
0.60667	36
0.61033	37
0.61400	39
0.61767	43
0.62133	46
0.62500	47
0.62867	47
0.63233	50
0.63600	53
0.63967	52
0.64333	49
0.64700	45
0.65067	39
0.65433	36
0.65800	35
0.66167	33
0.66533	31
0.66900	32
0.67267	36
0.67633	43
0.68000	49
0.68367	55
0.68733	58
0.69100	58
0.69467	55
0.69833	50
0.70200	45
0.70567	43
0.70933	41
0.71300	39
0.71667	38
0.72033	38
0.72400	38
0.72767	39
0.73133	43
0.73500	45
0.73867	44
0.74233	44
0.74600	41
0.74967	35
0.75333	31
0.75700	33
0.76067	38
0.76433	40
0.76800	43
0.77167	45
0.77533	45
0.77900	43
0.78267	41
0.78633	42
0.79000	46
0.79367	50
0.79733	50
0.80100	48
0.80467	47
0.80833	45
0.81200	44
0.81567	44
0.81933	43
0.82300	42
0.82667	43
0.83033	45
0.83400	50
0.83767	54
0.84133	57
0.84500	62
0.84867	66
0.85233	63
0.85600	55
0.85967	50
0.86333	51
0.86700	56
0.87067	60
0.87433	57
0.87800	50
0.88167	43
0.88533	39
0.88900	37
0.89267	39
0.89633	41
0.90000	43
0.90367	46
0.90733	56
0.91100	65
0.91467	73
0.91833	75
0.92200	73
0.92567	69
0.92933	62
0.93300	56
0.93667	52
0.94033	47
0.94400	46
0.94767	51
0.95133	58
0.95500	67
0.95867	74
0.96233	79
0.96600	81
0.96967	78
0.97333	72
0.97700	64
0.98067	60
0.98433	62
0.98800	65
0.99167	68
0.99533	67
0.99900	63
1.00267	58
1.00633	56
1.01000	60
1.01367	67
1.01733	73
1.02100	72
1.02467	69
1.02833	68
1.03200	71
1.03567	74
1.03933	75
1.04300	74
1.04667	76
1.05033	79
1.05400	82
1.05767	83
1.06133	82
1.06500	80
1.06867	76
1.07233	74
1.07600	75
1.07967	78
1.08333	83
1.08700	85
1.09067	84
1.09433	81
1.09800	79
1.10167	76
1.10533	73
1.10900	70
1.11267	68
1.11633	69
1.12000	72
1.12367	76
1.12733	80
1.13100	83
1.13467	84
1.13833	85
1.14200	86
1.14567	88
1.14933	92
1.15300	96
1.15667	100
1.16033	100
1.16400	95
1.16767	85
1.17133	74
1.17500	69
1.17867	71
1.18233	73
1.18600	75
1.18967	75
1.19333	74
1.19700	73
1.20067	72
1.20433	76
1.20800	83
1.21167	91
1.21533	97
1.21900	102
1.22267	104
1.22633	103
1.23000	98
1.23367	92
1.23733	85
1.24100	81
1.24467	81
1.24833	86
1.25200	90
1.25567	93
1.25933	95
1.26300	97
1.26667	97
1.27033	95
1.27400	93
1.27767	90
1.28133	89
1.28500	92
1.28867	100
1.29233	105
1.29600	107
1.29967	106
1.30333	105
1.30700	103
1.31067	96
1.31433	82
1.31800	70
1.32167	62
1.32533	60
1.32900	61
1.33267	62
1.33633	65
1.34000	73
1.34367	82
1.34733	87
1.35100	90
1.35467	92
1.35833	94
1.36200	96
1.36567	96
1.36933	95
1.37300	95
1.37667	97
1.38033	103
1.38400	109
1.38767	109
1.39133	107
1.39500	102
1.39867	95
1.40233	89
1.40600	88
1.40967	86
1.41333	88
1.41700	95
1.42067	101
1.42433	103
1.42800	100
1.43167	95
1.43533	90
1.43900	96
1.44267	154
1.44633	344
1.45000	656
1.45367	978
1.45733	1227
1.46100	1379
1.46467	1450
1.46833	1468
1.47200	1454
1.47567	1425
1.47933	1383
1.48300	1322
1.48667	1234
1.49033	1115
1.49400	978
1.49767	842
1.50133	716
1.50500	606
1.50867	511
1.51233	430
1.51600	366
1.51967	318
1.52333	280
1.52700	253
1.53067	235
1.53433	224
1.53800	236
1.54167	371
1.54533	877
1.54900	2038
1.55267	3837
1.55633	5906
1.56000	7823
1.56367	9339
1.56733	10350
1.57100	10750
1.57467	10406
1.57833	9318
1.58200	7722
1.58567	5982
1.58933	4398
1.59300	3118
1.59667	2164
1.60033	1489
1.60400	1029
1.60767	727
1.61133	533
1.61500	404
1.61867	316
1.62233	254
1.62600	214
1.62967	188
1.63333	168
1.63700	152
1.64067	144
1.64433	141
1.64800	137
1.65167	129
1.65533	119
1.65900	114
1.66267	113
1.66633	116
1.67000	118
1.67367	114
1.67733	108
1.68100	108
1.68467	111
1.68833	113
1.69200	115
1.69567	116
1.69933	115
1.70300	114
1.70667	111
1.71033	105
1.71400	102
1.71767	105
1.72133	110
1.72500	116
1.72867	121
1.73233	125
1.73600	126
1.73967	125
1.74333	122
1.74700	121
1.75067	122
1.75433	124
1.75800	125
1.76167	127
1.76533	128
1.76900	131
1.77267	133
1.77633	132
1.78000	130
1.78367	126
1.78733	126
1.79100	128
1.79467	130
1.79833	132
1.80200	135
1.80567	139
1.80933	141
1.81300	140
1.81667	135
1.82033	129
1.82400	128
1.82767	130
1.83133	134
1.83500	140
1.83867	143
1.84233	141
1.84600	141
1.84967	144
1.85333	144
1.85700	143
1.86067	143
1.86433	145
1.86800	150
1.87167	149
1.87533	143
1.87900	139
1.88267	138
1.88633	137
1.89000	133
1.89367	128
1.89733	125
1.90100	125
1.90467	129
1.90833	136
1.91200	144
1.91567	152
1.91933	159
1.92300	162
1.92667	163
1.93033	162
1.93400	158
1.93767	153
1.94133	150
1.94500	150
1.94867	153
1.95233	163
1.95600	215
1.95967	573
1.96333	2527
1.96700	10613
1.97067	36006
1.97433	97112
1.97800	210779
1.98167	377101
1.98533	573698
1.98900	765716
1.99267	921285
1.99633	1018229
2.00000	1044972
2.00367	1000704
2.00733	896404
2.01100	753477
2.01467	597813
2.01833	451629
2.02200	328302
2.02567	232195
2.02933	161486
2.03300	111515
2.03667	77141
2.04033	53880
2.04400	38258
2.04767	27773
2.05133	20699
2.05500	15872
2.05867	12527
2.06233	10162
2.06600	8452
2.06967	7184
2.07333	6220
2.07700	5472
2.08067	4877
2.08433	4398
2.08800	4003
2.09167	3672
2.09533	3393
2.09900	3152
2.10267	2938
2.10633	2750
2.11000	2586
2.11367	2439
2.11733	2306
2.12100	2184
2.12467	2074
2.12833	1973
2.13200	1881
2.13567	1802
2.13933	1730
2.14300	1667
2.14667	1612
2.15033	1558
2.15400	1508
2.15767	1463
2.16133	1419
2.16500	1375
2.16867	1331
2.17233	1292
2.17600	1257
2.17967	1222
2.18333	1184
2.18700	1147
2.19067	1113
2.19433	1081
2.19800	1052
2.20167	1027
2.20533	1002
2.20900	979
2.21267	961
2.21633	948
2.22000	938
2.22367	923
2.22733	904
2.23100	882
2.23467	864
2.23833	847
2.24200	829
2.24567	811
2.24933	796
2.25300	786
2.25667	777
2.26033	770
2.26400	767
2.26767	765
2.27133	761
2.27500	752
2.27867	741
2.28233	727
2.28600	712
2.28967	698
2.29333	687
2.29700	675
2.30067	665
2.30433	659
2.30800	655
2.31167	650
2.31533	646
2.31900	643
2.32267	638
2.32633	633
2.33000	628
2.33367	625
2.33733	622
2.34100	616
2.34467	611
2.34833	610
2.35200	614
2.35567	618
2.35933	617
2.36300	611
2.36667	604
2.37033	596
2.37400	588
2.37767	579
2.38133	572
2.38500	567
2.38867	563
2.39233	561
2.39600	560
2.39967	560
2.40333	561
2.40700	562
2.41067	563
2.41433	564
2.41800	563
2.42167	564
2.42533	565
2.42900	561
2.43267	554
2.43633	547
2.44000	543
2.44367	543
2.44733	545
2.45100	547
2.45467	544
2.45833	537
2.46200	531
2.46567	527
2.46933	525
2.47300	521
2.47667	514
2.48033	509
2.48400	508
2.48767	510
2.49133	513
2.49500	515
2.49867	513
2.50233	508
2.50600	503
2.50967	496
2.51333	488
2.51700	482
2.52067	478
2.52433	477
2.52800	479
2.53167	481
2.53533	487
2.53900	496
2.54267	502
2.54633	503
2.55000	500
2.55367	495
2.55733	488
2.56100	484
2.56467	479
2.56833	474
2.57200	470
2.57567	469
2.57933	471
2.58300	472
2.58667	469
2.59033	466
2.59400	465
2.59767	463
2.60133	464
2.60500	466
2.60867	468
2.61233	471
2.61600	472
2.61967	470
2.62333	470
2.62700	471
2.63067	470
2.63433	468
2.63800	465
2.64167	460
2.64533	458
2.64900	459
2.65267	460
2.65633	463
2.66000	467
2.66367	472
2.66733	475
2.67100	475
2.67467	474
2.67833	472
2.68200	470
2.68567	468
2.68933	468
2.69300	468
2.69667	464
2.70033	454
2.70400	452
2.70767	444
2.71133	441
2.71500	452
2.71867	469
2.72233	479
2.72600	484
2.72967	484
2.73333	482
2.73700	479
2.74067	472
2.74433	465
2.74800	458
2.75167	453
2.75533	450
2.75900	453
2.76267	457
2.76633	461
2.77000	466
2.77367	466
2.77733	465
2.78100	464
2.78467	467
2.78833	468
2.79200	470
2.79567	470
2.79933	469
2.80300	471
2.80667	474
2.81033	475
2.81400	473
2.81767	473
2.82133	472
2.82500	468
2.82867	462
2.83233	458
2.83600	456
2.83967	455
2.84333	456
2.84700	462
2.85067	469
2.85433	475
2.85800	478
2.86167	480
2.86533	478
2.86900	471
2.87267	464
2.87633	462
2.88000	463
2.88367	465
2.88733	468
2.89100	468
2.89467	468
2.89833	468
2.90200	471
2.90567	475
2.90933	477
2.91300	476
2.91667	473
2.92033	472
2.92400	472
2.92767	472
2.93133	475
2.93500	481
2.93867	485
2.94233	488
2.94600	489
2.94967	493
2.95333	496
2.95700	499
2.96067	499
2.96433	495
2.96800	488
2.97167	478
2.97533	473
2.97900	472
2.98267	476
2.98633	483
2.99000	489
2.99367	492
2.99733	494
3.00100	493
3.00467	494
3.00833	496
3.01200	496
3.01567	494
3.01933	494
3.02300	495
3.02667	499
3.03033	502
3.03400	503
3.03767	502
3.04133	498
3.04500	495
3.04867	493
3.05233	491
3.05600	486
3.05967	482
3.06333	481
3.06700	482
3.07067	480
3.07433	478
3.07800	474
3.08167	474
3.08533	475
3.08900	477
3.09267	480
3.09633	485
3.10000	487
3.10367	487
3.10733	485
3.11100	482
3.11467	480
3.11833	478
3.12200	477
3.12567	478
3.12933	481
3.13300	483
3.13667	484
3.14033	483
3.14400	483
3.14767	489
3.15133	500
3.15500	509
3.15867	511
3.16233	507
3.16600	503
3.16967	500
3.17333	498
3.17700	498
3.18067	502
3.18433	507
3.18800	513
3.19167	515
3.19533	510
3.19900	502
3.20267	494
3.20633	488
3.21000	487
3.21367	487
3.21733	486
3.22100	485
3.22467	484
3.22833	483
3.23200	484
3.23567	486
3.23933	490
3.24300	495
3.24667	496
3.25033	494
3.25400	492
3.25767	492
3.26133	494
3.26500	497
3.26867	499
3.27233	498
3.27600	498
3.27967	500
3.28333	503
3.28700	505
3.29067	504
3.29433	504
3.29800	504
3.30167	502
3.30533	499
3.30900	499
3.31267	500
3.31633	501
3.32000	501
3.32367	501
3.32733	503
3.33100	503
3.33467	498
3.33833	490
3.34200	488
3.34567	491
3.34933	497
3.35300	498
3.35667	494
3.36033	489
3.36400	487
3.36767	487
3.37133	488
3.37500	488
3.37867	489
3.38233	490
3.38600	494
3.38967	500
3.39333	508
3.39700	512
3.40067	513
3.40433	512
3.40800	511
3.41167	511
3.41533	514
3.41900	517
3.42267	518
3.42633	517
3.43000	513
3.43367	510
3.43733	506
3.44100	501
3.44467	495
3.44833	490
3.45200	486
3.45567	488
3.45933	495
3.46300	501
3.46667	504
3.47033	503
3.47400	503
3.47767	505
3.48133	506
3.48500	504
3.48867	502
3.49233	502
3.49600	500
3.49967	497
3.50333	495
3.50700	494
3.51067	496
3.51433	500
3.51800	502
3.52167	502
3.52533	502
3.52900	502
3.53267	504
3.53633	509
3.54000	512
3.54367	513
3.54733	515
3.55100	517
3.55467	515
3.55833	510
3.56200	507
3.56567	508
3.56933	511
3.57300	514
3.57667	516
3.58033	512
3.58400	507
3.58767	502
3.59133	500
3.59500	501
3.59867	503
3.60233	504
3.60600	505
3.60967	505
3.61333	507
3.61700	508
3.62067	508
3.62433	508
3.62800	507
3.63167	505
3.63533	508
3.63900	514
3.64267	518
3.64633	521
3.65000	526
3.65367	530
3.65733	534
3.66100	537
3.66467	536
3.66833	529
3.67200	520
3.67567	512
3.67933	507
3.68300	506
3.68667	508
3.69033	513
3.69400	516
3.69767	513
3.70133	505
3.70500	500
3.70867	497
3.71233	499
3.71600	501
3.71967	503
3.72333	507
3.72700	510
3.73067	512
3.73433	513
3.73800	511
3.74167	511
3.74533	515
3.74900	518
3.75267	519
3.75633	520
3.76000	521
3.76367	523
3.76733	524
3.77100	524
3.77467	524
3.77833	525
3.78200	530
3.78567	531
3.78933	530
3.79300	526
3.79667	521
3.80033	517
3.80400	517
3.80767	521
3.81133	525
3.81500	526
3.81867	522
3.82233	516
3.82600	512
3.82967	508
3.83333	507
3.83700	504
3.84067	503
3.84433	503
3.84800	507
3.85167	512
3.85533	519
3.85900	524
3.86267	525
3.86633	522
3.87000	518
3.87367	519
3.87733	527
3.88100	537
3.88467	543
3.88833	540
3.89200	530
3.89567	515
3.89933	502
3.90300	496
3.90667	499
3.91033	506
3.91400	511
3.91767	514
3.92133	516
3.92500	516
3.92867	514
3.93233	516
3.93600	520
3.93967	521
3.94333	521
3.94700	522
3.95067	525
3.95433	531
3.95800	535
3.96167	538
3.96533	539
3.96900	539
3.97267	540
3.97633	542
3.98000	542
3.98367	541
3.98733	542
3.99100	545
3.99467	548
3.99833	548

[Chromatogram (Ch2)]
Interval(msec)	220
# of Points	1091
Start Time(min)	0.002
End Time(min)	3.998
R.Time (min)	Intensity
0.00167	-2
0.00533	-3
0.00900	-3
0.01267	-4
0.01633	-4
0.02000	-5
0.02367	-5
0.02733	-6
0.03100	-7
0.03467	-7
0.03833	-8
0.04200	-8
0.04567	-9
0.04933	-10
0.05300	-11
0.05667	-11
0.06033	-12
0.06400	-13
0.06767	-13
0.07133	-14
0.07500	-14
0.07867	-15
0.08233	-15
0.08600	-16
0.08967	-16
0.09333	-17
0.09700	-17
0.10067	-18
0.10433	-18
0.10800	-19
0.11167	-19
0.11533	-19
0.11900	-19
0.12267	-19
0.12633	-20
0.13000	-20
0.13367	-21
0.13733	-22
0.14100	-22
0.14467	-23
0.14833	-24
0.15200	-24
0.15567	-25
0.15933	-26
0.16300	-27
0.16667	-27
0.17033	-28
0.17400	-29
0.17767	-29
0.18133	-30
0.18500	-30
0.18867	-31
0.19233	-32
0.19600	-32
0.19967	-33
0.20333	-34
0.20700	-34
0.21067	-35
0.21433	-35
0.21800	-36
0.22167	-36
0.22533	-37
0.22900	-37
0.23267	-37
0.23633	-38
0.24000	-39
0.24367	-39
0.24733	-40
0.25100	-40
0.25467	-41
0.25833	-42
0.26200	-42
0.26567	-43
0.26933	-44
0.27300	-44
0.27667	-45
0.28033	-45
0.28400	-46
0.28767	-47
0.29133	-47
0.29500	-48
0.29867	-48
0.30233	-49
0.30600	-49
0.30967	-49
0.31333	-50
0.31700	-50
0.32067	-51
0.32433	-51
0.32800	-51
0.33167	-52
0.33533	-53
0.33900	-53
0.34267	-53
0.34633	-54
0.35000	-54
0.35367	-54
0.35733	-54
0.36100	-55
0.36467	-55
0.36833	-55
0.37200	-56
0.37567	-56
0.37933	-57
0.38300	-58
0.38667	-59
0.39033	-59
0.39400	-60
0.39767	-61
0.40133	-61
0.40500	-62
0.40867	-63
0.41233	-64
0.41600	-64
0.41967	-65
0.42333	-66
0.42700	-66
0.43067	-67
0.43433	-67
0.43800	-68
0.44167	-69
0.44533	-69
0.44900	-70
0.45267	-71
0.45633	-72
0.46000	-73
0.46367	-73
0.46733	-74
0.47100	-75
0.47467	-75
0.47833	-76
0.48200	-76
0.48567	-77
0.48933	-77
0.49300	-78
0.49667	-78
0.50033	-79
0.50400	-79
0.50767	-80
0.51133	-80
0.51500	-81
0.51867	-82
0.52233	-83
0.52600	-83
0.52967	-84
0.53333	-84
0.53700	-85
0.54067	-85
0.54433	-85
0.54800	-86
0.55167	-86
0.55533	-86
0.55900	-87
0.56267	-87
0.56633	-88
0.57000	-88
0.57367	-89
0.57733	-89
0.58100	-90
0.58467	-90
0.58833	-90
0.59200	-91
0.59567	-91
0.59933	-92
0.60300	-92
0.60667	-93
0.61033	-93
0.61400	-94
0.61767	-95
0.62133	-96
0.62500	-96
0.62867	-97
0.63233	-98
0.63600	-98
0.63967	-98
0.64333	-99
0.64700	-99
0.65067	-100
0.65433	-100
0.65800	-101
0.66167	-102
0.66533	-102
0.66900	-103
0.67267	-104
0.67633	-105
0.68000	-106
0.68367	-106
0.68733	-107
0.69100	-108
0.69467	-108
0.69833	-109
0.70200	-109
0.70567	-110
0.70933	-110
0.71300	-111
0.71667	-112
0.72033	-112
0.72400	-113
0.72767	-113
0.73133	-113
0.73500	-113
0.73867	-113
0.74233	-113
0.74600	-113
0.74967	-114
0.75333	-114
0.75700	-115
0.76067	-115
0.76433	-116
0.76800	-117
0.77167	-118
0.77533	-118
0.77900	-118
0.78267	-119
0.78633	-119
0.79000	-119
0.79367	-120
0.79733	-120
0.80100	-121
0.80467	-122
0.80833	-122
0.81200	-123
0.81567	-123
0.81933	-123
0.82300	-123
0.82667	-123
0.83033	-124
0.83400	-124
0.83767	-125
0.84133	-125
0.84500	-126
0.84867	-126
0.85233	-126
0.85600	-127
0.85967	-128
0.86333	-128
0.86700	-129
0.87067	-130
0.87433	-130
0.87800	-131
0.88167	-131
0.88533	-131
0.88900	-132
0.89267	-132
0.89633	-133
0.90000	-133
0.90367	-134
0.90733	-134
0.91100	-134
0.91467	-135
0.91833	-135
0.92200	-136
0.92567	-136
0.92933	-137
0.93300	-137
0.93667	-137
0.94033	-138
0.94400	-138
0.94767	-138
0.95133	-139
0.95500	-139
0.95867	-139
0.96233	-140
0.96600	-140
0.96967	-141
0.97333	-141
0.97700	-141
0.98067	-142
0.98433	-142
0.98800	-143
0.99167	-143
0.99533	-143
0.99900	-144
1.00267	-144
1.00633	-145
1.01000	-145
1.01367	-146
1.01733	-147
1.02100	-147
1.02467	-148
1.02833	-149
1.03200	-149
1.03567	-150
1.03933	-150
1.04300	-150
1.04667	-151
1.05033	-151
1.05400	-152
1.05767	-153
1.06133	-153
1.06500	-154
1.06867	-154
1.07233	-155
1.07600	-156
1.07967	-156
1.08333	-157
1.08700	-157
1.09067	-158
1.09433	-158
1.09800	-159
1.10167	-159
1.10533	-160
1.10900	-160
1.11267	-161
1.11633	-161
1.12000	-161
1.12367	-161
1.12733	-162
1.13100	-162
1.13467	-162
1.13833	-163
1.14200	-163
1.14567	-164
1.14933	-164
1.15300	-165
1.15667	-165
1.16033	-166
1.16400	-166
1.16767	-167
1.17133	-168
1.17500	-168
1.17867	-169
1.18233	-170
1.18600	-171
1.18967	-171
1.19333	-171
1.19700	-172
1.20067	-172
1.20433	-172
1.20800	-173
1.21167	-173
1.21533	-174
1.21900	-174
1.22267	-175
1.22633	-175
1.23000	-176
1.23367	-176
1.23733	-176
1.24100	-177
1.24467	-177
1.24833	-177
1.25200	-178
1.25567	-178
1.25933	-179
1.26300	-179
1.26667	-180
1.27033	-180
1.27400	-181
1.27767	-181
1.28133	-182
1.28500	-182
1.28867	-182
1.29233	-183
1.29600	-183
1.29967	-184
1.30333	-184
1.30700	-185
1.31067	-185
1.31433	-186
1.31800	-186
1.32167	-186
1.32533	-187
1.32900	-187
1.33267	-187
1.33633	-187
1.34000	-188
1.34367	-188
1.34733	-189
1.35100	-189
1.35467	-190
1.35833	-190
1.36200	-190
1.36567	-191
1.36933	-191
1.37300	-192
1.37667	-192
1.38033	-193
1.38400	-193
1.38767	-194
1.39133	-194
1.39500	-195
1.39867	-195
1.40233	-196
1.40600	-196
1.40967	-197
1.41333	-197
1.41700	-198
1.42067	-198
1.42433	-199
1.42800	-199
1.43167	-199
1.43533	-199
1.43900	-200
1.44267	-200
1.44633	-201
1.45000	-202
1.45367	-202
1.45733	-202
1.46100	-203
1.46467	-203
1.46833	-204
1.47200	-204
1.47567	-204
1.47933	-205
1.48300	-205
1.48667	-205
1.49033	-206
1.49400	-206
1.49767	-206
1.50133	-207
1.50500	-207
1.50867	-208
1.51233	-208
1.51600	-209
1.51967	-209
1.52333	-210
1.52700	-210
1.53067	-211
1.53433	-211
1.53800	-212
1.54167	-212
1.54533	-213
1.54900	-213
1.55267	-214
1.55633	-214
1.56000	-214
1.56367	-215
1.56733	-215
1.57100	-216
1.57467	-216
1.57833	-217
1.58200	-217
1.58567	-218
1.58933	-218
1.59300	-219
1.59667	-220
1.60033	-221
1.60400	-223
1.60767	-224
1.61133	-226
1.61500	-228
1.61867	-231
1.62233	-233
1.62600	-236
1.62967	-240
1.63333	-244
1.63700	-248
1.64067	-252
1.64433	-256
1.64800	-260
1.65167	-264
1.65533	-268
1.65900	-273
1.66267	-277
1.66633	-282
1.67000	-287
1.67367	-293
1.67733	-298
1.68100	-304
1.68467	-309
1.68833	-314
1.69200	-319
1.69567	-323
1.69933	-327
1.70300	-330
1.70667	-333
1.71033	-335
1.71400	-337
1.71767	-339
1.72133	-340
1.72500	-341
1.72867	-343
1.73233	-344
1.73600	-345
1.73967	-346
1.74333	-346
1.74700	-347
1.75067	-348
1.75433	-348
1.75800	-348
1.76167	-349
1.76533	-350
1.76900	-351
1.77267	-352
1.77633	-353
1.78000	-354
1.78367	-355
1.78733	-356
1.79100	-356
1.79467	-356
1.79833	-356
1.80200	-357
1.80567	-357
1.80933	-358
1.81300	-359
1.81667	-360
1.82033	-360
1.82400	-361
1.82767	-361
1.83133	-362
1.83500	-363
1.83867	-363
1.84233	-363
1.84600	-364
1.84967	-364
1.85333	-364
1.85700	-365
1.86067	-366
1.86433	-366
1.86800	-366
1.87167	-367
1.87533	-367
1.87900	-367
1.88267	-368
1.88633	-368
1.89000	-368
1.89367	-368
1.89733	-369
1.90100	-369
1.90467	-369
1.90833	-369
1.91200	-368
1.91567	-368
1.91933	-368
1.92300	-368
1.92667	-368
1.93033	-368
1.93400	-368
1.93767	-369
1.94133	-369
1.94500	-370
1.94867	-370
1.95233	-371
1.95600	-371
1.95967	-371
1.96333	-371
1.96700	-371
1.97067	-371
1.97433	-371
1.97800	-371
1.98167	-371
1.98533	-372
1.98900	-372
1.99267	-372
1.99633	-372
2.00000	-372
2.00367	-373
2.00733	-373
2.01100	-373
2.01467	-373
2.01833	-373
2.02200	-373
2.02567	-373
2.02933	-373
2.03300	-373
2.03667	-373
2.04033	-373
2.04400	-373
2.04767	-373
2.05133	-373
2.05500	-373
2.05867	-373
2.06233	-373
2.06600	-373
2.06967	-373
2.07333	-373
2.07700	-373
2.08067	-373
2.08433	-373
2.08800	-373
2.09167	-373
2.09533	-374
2.09900	-374
2.10267	-374
2.10633	-374
2.11000	-374
2.11367	-374
2.11733	-374
2.12100	-374
2.12467	-374
2.12833	-374
2.13200	-374
2.13567	-374
2.13933	-374
2.14300	-374
2.14667	-374
2.15033	-374
2.15400	-375
2.15767	-375
2.16133	-375
2.16500	-375
2.16867	-375
2.17233	-375
2.17600	-375
2.17967	-375
2.18333	-375
2.18700	-375
2.19067	-375
2.19433	-375
2.19800	-376
2.20167	-376
2.20533	-376
2.20900	-376
2.21267	-376
2.21633	-375
2.22000	-374
2.22367	-374
2.22733	-374
2.23100	-374
2.23467	-374
2.23833	-375
2.24200	-376
2.24567	-376
2.24933	-376
2.25300	-376
2.25667	-377
2.26033	-377
2.26400	-377
2.26767	-377
2.27133	-377
2.27500	-377
2.27867	-376
2.28233	-376
2.28600	-376
2.28967	-376
2.29333	-376
2.29700	-375
2.30067	-375
2.30433	-375
2.30800	-375
2.31167	-375
2.31533	-375
2.31900	-375
2.32267	-375
2.32633	-375
2.33000	-375
2.33367	-375
2.33733	-375
2.34100	-374
2.34467	-374
2.34833	-374
2.35200	-373
2.35567	-373
2.35933	-373
2.36300	-373
2.36667	-373
2.37033	-372
2.37400	-371
2.37767	-369
2.38133	-366
2.38500	-364
2.38867	-361
2.39233	-357
2.39600	-354
2.39967	-349
2.40333	-345
2.40700	-341
2.41067	-336
2.41433	-332
2.41800	-329
2.42167	-325
2.42533	-322
2.42900	-320
2.43267	-318
2.43633	-316
2.44000	-314
2.44367	-313
2.44733	-312
2.45100	-310
2.45467	-309
2.45833	-307
2.46200	-306
2.46567	-304
2.46933	-303
2.47300	-302
2.47667	-301
2.48033	-301
2.48400	-300
2.48767	-299
2.49133	-299
2.49500	-298
2.49867	-297
2.50233	-296
2.50600	-296
2.50967	-295
2.51333	-295
2.51700	-295
2.52067	-295
2.52433	-295
2.52800	-295
2.53167	-294
2.53533	-295
2.53900	-295
2.54267	-296
2.54633	-296
2.55000	-296
2.55367	-296
2.55733	-296
2.56100	-295
2.56467	-295
2.56833	-295
2.57200	-294
2.57567	-294
2.57933	-295
2.58300	-295
2.58667	-296
2.59033	-297
2.59400	-297
2.59767	-297
2.60133	-298
2.60500	-298
2.60867	-298
2.61233	-298
2.61600	-297
2.61967	-297
2.62333	-297
2.62700	-298
2.63067	-298
2.63433	-298
2.63800	-297
2.64167	-297
2.64533	-297
2.64900	-296
2.65267	-296
2.65633	-296
2.66000	-295
2.66367	-295
2.66733	-295
2.67100	-294
2.67467	-294
2.67833	-295
2.68200	-296
2.68567	-296
2.68933	-297
2.69300	-298
2.69667	-299
2.70033	-299
2.70400	-300
2.70767	-300
2.71133	-300
2.71500	-301
2.71867	-301
2.72233	-301
2.72600	-301
2.72967	-301
2.73333	-301
2.73700	-301
2.74067	-301
2.74433	-301
2.74800	-301
2.75167	-301
2.75533	-301
2.75900	-301
2.76267	-301
2.76633	-301
2.77000	-301
2.77367	-301
2.77733	-301
2.78100	-301
2.78467	-302
2.78833	-302
2.79200	-302
2.79567	-303
2.79933	-303
2.80300	-303
2.80667	-304
2.81033	-304
2.81400	-305
2.81767	-305
2.82133	-306
2.82500	-307
2.82867	-307
2.83233	-308
2.83600	-309
2.83967	-310
2.84333	-311
2.84700	-313
2.85067	-315
2.85433	-319
2.85800	-325
2.86167	-334
2.86533	-347
2.86900	-364
2.87267	-386
2.87633	-412
2.88000	-444
2.88367	-480
2.88733	-522
2.89100	-569
2.89467	-620
2.89833	-676
2.90200	-736
2.90567	-799
2.90933	-866
2.91300	-936
2.91667	-1009
2.92033	-1083
2.92400	-1160
2.92767	-1240
2.93133	-1321
2.93500	-1404
2.93867	-1489
2.94233	-1575
2.94600	-1662
2.94967	-1748
2.95333	-1821
2.95700	-1871
2.96067	-1887
2.96433	-1868
2.96800	-1816
2.97167	-1738
2.97533	-1642
2.97900	-1536
2.98267	-1425
2.98633	-1314
2.99000	-1207
2.99367	-1106
2.99733	-1013
3.00100	-928
3.00467	-852
3.00833	-784
3.01200	-724
3.01567	-671
3.01933	-625
3.02300	-585
3.02667	-550
3.03033	-520
3.03400	-494
3.03767	-472
3.04133	-453
3.04500	-437
3.04867	-423
3.05233	-411
3.05600	-401
3.05967	-392
3.06333	-385
3.06700	-378
3.07067	-373
3.07433	-368
3.07800	-364
3.08167	-361
3.08533	-358
3.08900	-355
3.09267	-353
3.09633	-351
3.10000	-350
3.10367	-349
3.10733	-348
3.11100	-347
3.11467	-346
3.11833	-346
3.12200	-346
3.12567	-346
3.12933	-345
3.13300	-345
3.13667	-345
3.14033	-344
3.14400	-344
3.14767	-343
3.15133	-343
3.15500	-343
3.15867	-342
3.16233	-341
3.16600	-341
3.16967	-340
3.17333	-340
3.17700	-339
3.18067	-339
3.18433	-339
3.18800	-339
3.19167	-339
3.19533	-339
3.19900	-338
3.20267	-338
3.20633	-338
3.21000	-338
3.21367	-338
3.21733	-338
3.22100	-338
3.22467	-338
3.22833	-339
3.23200	-339
3.23567	-339
3.23933	-339
3.24300	-339
3.24667	-339
3.25033	-339
3.25400	-339
3.25767	-340
3.26133	-340
3.26500	-340
3.26867	-340
3.27233	-341
3.27600	-341
3.27967	-341
3.28333	-341
3.28700	-341
3.29067	-341
3.29433	-341
3.29800	-341
3.30167	-341
3.30533	-341
3.30900	-342
3.31267	-342
3.31633	-342
3.32000	-342
3.32367	-343
3.32733	-343
3.33100	-343
3.33467	-343
3.33833	-344
3.34200	-344
3.34567	-344
3.34933	-345
3.35300	-345
3.35667	-345
3.36033	-345
3.36400	-346
3.36767	-346
3.37133	-346
3.37500	-346
3.37867	-346
3.38233	-347
3.38600	-347
3.38967	-348
3.39333	-348
3.39700	-349
3.40067	-349
3.40433	-350
3.40800	-350
3.41167	-350
3.41533	-351
3.41900	-351
3.42267	-351
3.42633	-351
3.43000	-351
3.43367	-351
3.43733	-351
3.44100	-351
3.44467	-351
3.44833	-352
3.45200	-352
3.45567	-352
3.45933	-352
3.46300	-353
3.46667	-353
3.47033	-353
3.47400	-354
3.47767	-354
3.48133	-354
3.48500	-354
3.48867	-354
3.49233	-354
3.49600	-354
3.49967	-354
3.50333	-354
3.50700	-354
3.51067	-354
3.51433	-354
3.51800	-354
3.52167	-354
3.52533	-354
3.52900	-355
3.53267	-355
3.53633	-355
3.54000	-355
3.54367	-356
3.54733	-356
3.55100	-355
3.55467	-355
3.55833	-355
3.56200	-355
3.56567	-355
3.56933	-356
3.57300	-356
3.57667	-357
3.58033	-357
3.58400	-357
3.58767	-358
3.59133	-358
3.59500	-358
3.59867	-358
3.60233	-358
3.60600	-358
3.60967	-359
3.61333	-359
3.61700	-359
3.62067	-359
3.62433	-359
3.62800	-360
3.63167	-360
3.63533	-360
3.63900	-361
3.64267	-361
3.64633	-361
3.65000	-362
3.65367	-362
3.65733	-363
3.66100	-364
3.66467	-364
3.66833	-365
3.67200	-365
3.67567	-366
3.67933	-366
3.68300	-366
3.68667	-366
3.69033	-366
3.69400	-366
3.69767	-366
3.70133	-366
3.70500	-366
3.70867	-366
3.71233	-366
3.71600	-366
3.71967	-367
3.72333	-367
3.72700	-367
3.73067	-368
3.73433	-368
3.73800	-368
3.74167	-368
3.74533	-369
3.74900	-369
3.75267	-370
3.75633	-370
3.76000	-370
3.76367	-371
3.76733	-371
3.77100	-371
3.77467	-372
3.77833	-372
3.78200	-372
3.78567	-372
3.78933	-373
3.79300	-373
3.79667	-373
3.80033	-373
3.80400	-374
3.80767	-374
3.81133	-374
3.81500	-374
3.81867	-374
3.82233	-375
3.82600	-375
3.82967	-376
3.83333	-376
3.83700	-377
3.84067	-377
3.84433	-378
3.84800	-378
3.85167	-378
3.85533	-378
3.85900	-378
3.86267	-378
3.86633	-378
3.87000	-379
3.87367	-379
3.87733	-379
3.88100	-379
3.88467	-379
3.88833	-379
3.89200	-379
3.89567	-380
3.89933	-380
3.90300	-380
3.90667	-381
3.91033	-381
3.91400	-381
3.91767	-382
3.92133	-382
3.92500	-382
3.92867	-382
3.93233	-382
3.93600	-382
3.93967	-382
3.94333	-382
3.94700	-382
3.95067	-382
3.95433	-382
3.95800	-382
3.96167	-382
3.96533	-383
3.96900	-383
3.97267	-383
3.97633	-383
3.98000	-383
3.98367	-384
3.98733	-384
3.99100	-384
3.99467	-384
3.99833	-384

[Chromatogram (Ch3)]
Interval(msec)	220
# of Points	1091
Start Time(min)	0.002
End Time(min)	3.998
R.Time (min)	Intensity
0.00167	-1
0.00533	-3
0.00900	1
0.01267	4
0.01633	6
0.02000	7
0.02367	7
0.02733	6
0.03100	4
0.03467	3
0.03833	1
0.04200	-1
0.04567	-0
0.04933	0
0.05300	1
0.05667	1
0.06033	3
0.06400	5
0.06767	7
0.07133	5
0.07500	5
0.07867	6
0.08233	7
0.08600	7
0.08967	5
0.09333	3
0.09700	2
0.10067	2
0.10433	1
0.10800	3
0.11167	3
0.11533	4
0.11900	4
0.12267	5
0.12633	6
0.13000	7
0.13367	7
0.13733	9
0.14100	8
0.14467	9
0.14833	8
0.15200	5
0.15567	5
0.15933	4
0.16300	3
0.16667	4
0.17033	4
0.17400	3
0.17767	2
0.18133	2
0.18500	4
0.18867	10
0.19233	12
0.19600	11
0.19967	11
0.20333	10
0.20700	10
0.21067	9
0.21433	10
0.21800	9
0.22167	7
0.22533	9
0.22900	11
0.23267	13
0.23633	15
0.24000	14
0.24367	14
0.24733	14
0.25100	14
0.25467	13
0.25833	11
0.26200	12
0.26567	13
0.26933	15
0.27300	14
0.27667	16
0.28033	17
0.28400	15
0.28767	14
0.29133	14
0.29500	15
0.29867	17
0.30233	17
0.30600	16
0.30967	16
0.31333	13
0.31700	10
0.32067	9
0.32433	8
0.32800	10
0.33167	13
0.33533	12
0.33900	11
0.34267	10
0.34633	9
0.35000	9
0.35367	11
0.35733	12
0.36100	11
0.36467	12
0.36833	12
0.37200	11
0.37567	13
0.37933	14
0.38300	15
0.38667	16
0.39033	17
0.39400	17
0.39767	16
0.40133	13
0.40500	10
0.40867	7
0.41233	6
0.41600	7
0.41967	9
0.42333	11
0.42700	11
0.43067	12
0.43433	13
0.43800	15
0.44167	15
0.44533	15
0.44900	14
0.45267	11
0.45633	9
0.46000	8
0.46367	6
0.46733	6
0.47100	9
0.47467	10
0.47833	11
0.48200	15
0.48567	17
0.48933	15
0.49300	13
0.49667	11
0.50033	10
0.50400	8
0.50767	10
0.51133	12
0.51500	13
0.51867	11
0.52233	10
0.52600	10
0.52967	10
0.53333	9
0.53700	11
0.54067	11
0.54433	8
0.54800	9
0.55167	10
0.55533	9
0.55900	9
0.56267	8
0.56633	7
0.57000	7
0.57367	9
0.57733	10
0.58100	12
0.58467	12
0.58833	12
0.59200	13
0.59567	13
0.59933	12
0.60300	13
0.60667	14
0.61033	15
0.61400	15
0.61767	15
0.62133	14
0.62500	13
0.62867	15
0.63233	15
0.63600	14
0.63967	14
0.64333	15
0.64700	15
0.65067	13
0.65433	9
0.65800	8
0.66167	7
0.66533	8
0.66900	10
0.67267	9
0.67633	9
0.68000	9
0.68367	11
0.68733	12
0.69100	13
0.69467	13
0.69833	15
0.70200	13
0.70567	12
0.70933	12
0.71300	12
0.71667	12
0.72033	9
0.72400	9
0.72767	8
0.73133	9
0.73500	10
0.73867	12
0.74233	15
0.74600	17
0.74967	18
0.75333	16
0.75700	13
0.76067	13
0.76433	13
0.76800	14
0.77167	17
0.77533	19
0.77900	19
0.78267	18
0.78633	16
0.79000	13
0.79367	12
0.79733	14
0.80100	15
0.80467	17
0.80833	17
0.81200	17
0.81567	18
0.81933	18
0.82300	17
0.82667	15
0.83033	12
0.83400	10
0.83767	10
0.84133	9
0.84500	8
0.84867	10
0.85233	13
0.85600	15
0.85967	14
0.86333	11
0.86700	11
0.87067	13
0.87433	16
0.87800	16
0.88167	17
0.88533	17
0.88900	16
0.89267	16
0.89633	16
0.90000	17
0.90367	18
0.90733	18
0.91100	18
0.91467	17
0.91833	17
0.92200	16
0.92567	16
0.92933	16
0.93300	14
0.93667	13
0.94033	15
0.94400	17
0.94767	19
0.95133	18
0.95500	18
0.95867	18
0.96233	19
0.96600	19
0.96967	17
0.97333	16
0.97700	15
0.98067	14
0.98433	12
0.98800	9
0.99167	9
0.99533	11
0.99900	12
1.00267	14
1.00633	14
1.01000	16
1.01367	15
1.01733	15
1.02100	17
1.02467	17
1.02833	15
1.03200	16
1.03567	16
1.03933	16
1.04300	16
1.04667	18
1.05033	20
1.05400	18
1.05767	15
1.06133	15
1.06500	15
1.06867	16
1.07233	18
1.07600	19
1.07967	17
1.08333	15
1.08700	16
1.09067	17
1.09433	16
1.09800	16
1.10167	17
1.10533	19
1.10900	20
1.11267	18
1.11633	18
1.12000	20
1.12367	19
1.12733	18
1.13100	18
1.13467	18
1.13833	18
1.14200	16
1.14567	16
1.14933	18
1.15300	19
1.15667	17
1.16033	16
1.16400	14
1.16767	13
1.17133	12
1.17500	13
1.17867	14
1.18233	13
1.18600	14
1.18967	16
1.19333	19
1.19700	20
1.20067	21
1.20433	21
1.20800	19
1.21167	17
1.21533	16
1.21900	16
1.22267	16
1.22633	15
1.23000	15
1.23367	17
1.23733	17
1.24100	16
1.24467	16
1.24833	15
1.25200	17
1.25567	19
1.25933	20
1.26300	22
1.26667	22
1.27033	20
1.27400	20
1.27767	19
1.28133	19
1.28500	20
1.28867	20
1.29233	19
1.29600	18
1.29967	20
1.30333	21
1.30700	21
1.31067	21
1.31433	19
1.31800	19
1.32167	19
1.32533	20
1.32900	20
1.33267	21
1.33633	23
1.34000	24
1.34367	24
1.34733	22
1.35100	19
1.35467	18
1.35833	18
1.36200	18
1.36567	20
1.36933	21
1.37300	21
1.37667	19
1.38033	16
1.38400	14
1.38767	16
1.39133	17
1.39500	16
1.39867	16
1.40233	18
1.40600	19
1.40967	19
1.41333	21
1.41700	22
1.42067	23
1.42433	22
1.42800	22
1.43167	21
1.43533	21
1.43900	20
1.44267	17
1.44633	16
1.45000	16
1.45367	15
1.45733	15
1.46100	17
1.46467	19
1.46833	20
1.47200	19
1.47567	17
1.47933	15
1.48300	15
1.48667	17
1.49033	22
1.49400	24
1.49767	23
1.50133	21
1.50500	21
1.50867	20
1.51233	23
1.51600	25
1.51967	27
1.52333	27
1.52700	27
1.53067	25
1.53433	22
1.53800	19
1.54167	17
1.54533	15
1.54900	15
1.55267	16
1.55633	17
1.56000	16
1.56367	14
1.56733	15
1.57100	17
1.57467	19
1.57833	20
1.58200	20
1.58567	21
1.58933	21
1.59300	19
1.59667	17
1.60033	19
1.60400	21
1.60767	23
1.61133	22
1.61500	23
1.61867	25
1.62233	26
1.62600	27
1.62967	26
1.63333	24
1.63700	23
1.64067	22
1.64433	24
1.64800	25
1.65167	24
1.65533	21
1.65900	20
1.66267	21
1.66633	23
1.67000	26
1.67367	28
1.67733	28
1.68100	28
1.68467	30
1.68833	33
1.69200	33
1.69567	34
1.69933	35
1.70300	37
1.70667	37
1.71033	38
1.71400	38
1.71767	38
1.72133	40
1.72500	41
1.72867	42
1.73233	43
1.73600	44
1.73967	45
1.74333	46
1.74700	44
1.75067	43
1.75433	42
1.75800	41
1.76167	42
1.76533	44
1.76900	46
1.77267	49
1.77633	49
1.78000	47
1.78367	47
1.78733	46
1.79100	46
1.79467	47
1.79833	46
1.80200	44
1.80567	42
1.80933	44
1.81300	48
1.81667	51
1.82033	52
1.82400	52
1.82767	53
1.83133	55
1.83500	57
1.83867	59
1.84233	60
1.84600	61
1.84967	59
1.85333	58
1.85700	57
1.86067	58
1.86433	58
1.86800	59
1.87167	57
1.87533	57
1.87900	59
1.88267	61
1.88633	62
1.89000	62
1.89367	63
1.89733	63
1.90100	61
1.90467	61
1.90833	60
1.91200	61
1.91567	63
1.91933	63
1.92300	65
1.92667	65
1.93033	66
1.93400	68
1.93767	69
1.94133	68
1.94500	68
1.94867	69
1.95233	71
1.95600	74
1.95967	77
1.96333	79
1.96700	79
1.97067	79
1.97433	78
1.97800	76
1.98167	75
1.98533	76
1.98900	78
1.99267	80
1.99633	81
2.00000	83
2.00367	84
2.00733	84
2.01100	84
2.01467	84
2.01833	85
2.02200	86
2.02567	87
2.02933	89
2.03300	91
2.03667	93
2.04033	94
2.04400	95
2.04767	96
2.05133	96
2.05500	98
2.05867	97
2.06233	98
2.06600	97
2.06967	97
2.07333	99
2.07700	102
2.08067	106
2.08433	108
2.08800	110
2.09167	110
2.09533	111
2.09900	113
2.10267	115
2.10633	116
2.11000	115
2.11367	116
2.11733	116
2.12100	115
2.12467	113
2.12833	112
2.13200	112
2.13567	111
2.13933	112
2.14300	115
2.14667	120
2.15033	122
2.15400	123
2.15767	124
2.16133	127
2.16500	131
2.16867	132
2.17233	131
2.17600	129
2.17967	129
2.18333	128
2.18700	129
2.19067	130
2.19433	132
2.19800	134
2.20167	136
2.20533	138
2.20900	142
2.21267	145
2.21633	146
2.22000	146
2.22367	147
2.22733	148
2.23100	148
2.23467	144
2.23833	144
2.24200	146
2.24567	149
2.24933	151
2.25300	152
2.25667	152
2.26033	154
2.26400	157
2.26767	158
2.27133	159
2.27500	159
2.27867	159
2.28233	161
2.28600	163
2.28967	165
2.29333	167
2.29700	169
2.30067	169
2.30433	170
2.30800	171
2.31167	173
2.31533	174
2.31900	174
2.32267	175
2.32633	175
2.33000	177
2.33367	180
2.33733	182
2.34100	184
2.34467	187
2.34833	189
2.35200	191
2.35567	194
2.35933	195
2.36300	195
2.36667	196
2.37033	197
2.37400	200
2.37767	203
2.38133	205
2.38500	207
2.38867	204
2.39233	201
2.39600	203
2.39967	205
2.40333	208
2.40700	211
2.41067	213
2.41433	215
2.41800	215
2.42167	215
2.42533	215
2.42900	216
2.43267	216
2.43633	217
2.44000	217
2.44367	227
2.44733	251
2.45100	277
2.45467	300
2.45833	311
2.46200	314
2.46567	312
2.46933	309
2.47300	305
2.47667	298
2.48033	288
2.48400	276
2.48767	265
2.49133	254
2.49500	246
2.49867	240
2.50233	239
2.50600	240
2.50967	239
2.51333	239
2.51700	238
2.52067	234
2.52433	231
2.52800	225
2.53167	219
2.53533	210
2.53900	204
2.54267	201
2.54633	199
2.55000	199
2.55367	197
2.55733	194
2.56100	191
2.56467	189
2.56833	188
2.57200	190
2.57567	189
2.57933	187
2.58300	185
2.58667	186
2.59033	186
2.59400	187
2.59767	188
2.60133	184
2.60500	174
2.60867	157
2.61233	134
2.61600	103
2.61967	65
2.62333	26
2.62700	-13
2.63067	-52
2.63433	-87
2.63800	-118
2.64167	-140
2.64533	-157
2.64900	-169
2.65267	-173
2.65633	-172
2.66000	-170
2.66367	-166
2.66733	-160
2.67100	-153
2.67467	-143
2.67833	-131
2.68200	-120
2.68567	-107
2.68933	-96
2.69300	-85
2.69667	-74
2.70033	-63
2.70400	-56
2.70767	-49
2.71133	-40
2.71500	-31
2.71867	-24
2.72233	-17
2.72600	-10
2.72967	-3
2.73333	2
2.73700	7
2.74067	11
2.74433	14
2.74800	17
2.75167	23
2.75533	27
2.75900	29
2.76267	31
2.76633	32
2.77000	35
2.77367	38
2.77733	39
2.78100	39
2.78467	38
2.78833	36
2.79200	37
2.79567	37
2.79933	37
2.80300	39
2.80667	40
2.81033	44
2.81400	49
2.81767	54
2.82133	62
2.82500	81
2.82867	123
2.83233	218
2.83600	416
2.83967	783
2.84333	1388
2.84700	2291
2.85067	3516
2.85433	5049
2.85800	6832
2.86167	8759
2.86533	10697
2.86900	12504
2.87267	14041
2.87633	15202
2.88000	15921
2.88367	16185
2.88733	16022
2.89100	15504
2.89467	14710
2.89833	13731
2.90200	12649
2.90567	11523
2.90933	10404
2.91300	9324
2.91667	8302
2.92033	7355
2.92400	6487
2.92767	5704
2.93133	5002
2.93500	4374
2.93867	3819
2.94233	3330
2.94600	2900
2.94967	2521
2.95333	2188
2.95700	1899
2.96067	1648
2.96433	1429
2.96800	1240
2.97167	1078
2.97533	937
2.97900	813
2.98267	704
2.98633	611
2.99000	533
2.99367	467
2.99733	408
3.00100	358
3.00467	316
3.00833	280
3.01200	249
3.01567	223
3.01933	200
3.02300	181
3.02667	162
3.03033	143
3.03400	128
3.03767	119
3.04133	117
3.04500	111
3.04867	104
3.05233	98
3.05600	95
3.05967	99
3.06333	108
3.06700	115
3.07067	123
3.07433	129
3.07800	138
3.08167	151
3.08533	163
3.08900	178
3.09267	192
3.09633	210
3.10000	229
3.10367	249
3.10733	268
3.11100	288
3.11467	307
3.11833	327
3.12200	345
3.12567	361
3.12933	374
3.13300	385
3.13667	395
3.14033	404
3.14400	413
3.14767	422
3.15133	429
3.15500	436
3.15867	440
3.16233	446
3.16600	452
3.16967	457
3.17333	461
3.17700	462
3.18067	465
3.18433	468
3.18800	471
3.19167	475
3.19533	477
3.19900	480
3.20267	485
3.20633	489
3.21000	491
3.21367	492
3.21733	491
3.22100	487
3.22467	487
3.22833	489
3.23200	491
3.23567	490
3.23933	490
3.24300	491
3.24667	489
3.25033	486
3.25400	486
3.25767	485
3.26133	484
3.26500	482
3.26867	480
3.27233	479
3.27600	478
3.27967	479
3.28333	479
3.28700	478
3.29067	476
3.29433	474
3.29800	474
3.30167	474
3.30533	470
3.30900	465
3.31267	462
3.31633	458
3.32000	456
3.32367	457
3.32733	456
3.33100	455
3.33467	453
3.33833	448
3.34200	444
3.34567	442
3.34933	441
3.35300	440
3.35667	437
3.36033	434
3.36400	431
3.36767	426
3.37133	421
3.37500	417
3.37867	414
3.38233	410
3.38600	407
3.38967	406
3.39333	406
3.39700	407
3.40067	408
3.40433	406
3.40800	401
3.41167	396
3.41533	393
3.41900	392
3.42267	389
3.42633	386
3.43000	382
3.43367	378
3.43733	374
3.44100	371
3.44467	368
3.44833	367
3.45200	366
3.45567	366
3.45933	364
3.46300	361
3.46667	358
3.47033	355
3.47400	352
3.47767	349
3.48133	347
3.48500	345
3.48867	342
3.49233	339
3.49600	337
3.49967	334
3.50333	331
3.50700	332
3.51067	332
3.51433	329
3.51800	326
3.52167	321
3.52533	317
3.52900	315
3.53267	314
3.53633	313
3.54000	311
3.54367	311
3.54733	310
3.55100	306
3.55467	303
3.55833	302
3.56200	302
3.56567	301
3.56933	299
3.57300	296
3.57667	292
3.58033	287
3.58400	284
3.58767	284
3.59133	284
3.59500	282
3.59867	281
3.60233	280
3.60600	276
3.60967	270
3.61333	266
3.61700	265
3.62067	263
3.62433	261
3.62800	259
3.63167	258
3.63533	257
3.63900	254
3.64267	254
3.64633	254
3.65000	253
3.65367	250
3.65733	247
3.66100	246
3.66467	246
3.66833	247
3.67200	246
3.67567	245
3.67933	245
3.68300	246
3.68667	245
3.69033	242
3.69400	241
3.69767	239
3.70133	235
3.70500	231
3.70867	228
3.71233	226
3.71600	225
3.71967	222
3.72333	222
3.72700	222
3.73067	220
3.73433	217
3.73800	215
3.74167	215
3.74533	216
3.74900	216
3.75267	214
3.75633	212
3.76000	211
3.76367	208
3.76733	207
3.77100	206
3.77467	204
3.77833	201
3.78200	198
3.78567	198
3.78933	199
3.79300	201
3.79667	200
3.80033	199
3.80400	198
3.80767	199
3.81133	201
3.81500	202
3.81867	200
3.82233	197
3.82600	194
3.82967	191
3.83333	188
3.83700	186
3.84067	185
3.84433	185
3.84800	185
3.85167	185
3.85533	183
3.85900	180
3.86267	179
3.86633	179
3.87000	179
3.87367	178
3.87733	179
3.88100	180
3.88467	180
3.88833	179
3.89200	179
3.89567	175
3.89933	172
3.90300	170
3.90667	169
3.91033	169
3.91400	170
3.91767	171
3.92133	168
3.92500	165
3.92867	164
3.93233	163
3.93600	162
3.93967	162
3.94333	159
3.94700	159
3.95067	158
3.95433	156
3.95800	156
3.96167	154
3.96533	152
3.96900	153
3.97267	153
3.97633	155
3.98000	157
3.98367	158
3.98733	153
3.99100	149
3.99467	147
3.99833	146

[Status Trace (Column Oven Temperature)]
Interval(msec)	1000
# of Points	240
Start Time(min)	0.012
End Time(min)	3.996
Intensity Units	
Intensity Multiplier	1
R.Time (min)	Intensity
0.01233	35.00
0.02900	34.99
0.04567	35.00
0.06233	35.00
0.07900	35.01
0.09567	35.01
0.11233	35.01
0.12900	35.01
0.14567	35.02
0.16233	35.02
0.17900	35.02
0.19567	35.02
0.21233	35.02
0.22900	35.01
0.24567	35.01
0.26233	35.00
0.27900	35.01
0.29567	35.01
0.31233	35.01
0.32900	35.00
0.34567	34.98
0.36233	34.97
0.37900	34.97
0.39567	34.96
0.41233	34.96
0.42900	34.96
0.44567	34.97
0.46233	34.98
0.47900	34.98
0.49567	34.99
0.51233	34.99
0.52900	34.99
0.54567	34.99
0.56233	34.99
0.57900	34.99
0.59567	34.98
0.61233	34.98
0.62900	34.98
0.64567	34.99
0.66233	35.00
0.67900	35.01
0.69567	35.03
0.71233	35.03
0.72900	35.02
0.74567	35.03
0.76233	35.03
0.77900	35.04
0.79567	35.04
0.81233	35.03
0.82900	35.03
0.84567	35.02
0.86233	35.02
0.87900	35.03
0.89567	35.02
0.91233	35.01
0.92900	35.01
0.94567	35.00
0.96233	34.99
0.97900	34.98
0.99567	34.97
1.01233	34.98
1.02900	34.97
1.04567	34.98
1.06233	34.98
1.07900	34.97
1.09567	34.98
1.11233	34.98
1.12900	34.98
1.14567	34.97
1.16233	34.97
1.17900	34.98
1.19567	34.98
1.21233	34.98
1.22900	34.99
1.24567	34.99
1.26233	34.99
1.27900	34.99
1.29567	34.99
1.31233	34.98
1.32900	34.98
1.34567	34.98
1.36233	34.98
1.37900	34.98
1.39567	34.98
1.41233	34.98
1.42900	34.99
1.44567	34.98
1.46233	34.99
1.47900	34.98
1.49567	34.99
1.51233	34.98
1.52900	34.99
1.54567	34.99
1.56233	35.00
1.57900	35.01
1.59567	35.03
1.61233	35.10
1.62900	35.23
1.64567	35.44
1.66233	35.72
1.67900	36.07
1.69567	36.43
1.71233	36.77
1.72900	37.12
1.74567	37.43
1.76233	37.76
1.77900	38.11
1.79567	38.42
1.81233	38.76
1.82900	39.10
1.84567	39.43
1.86233	39.75
1.87900	40.09
1.89567	40.43
1.91233	40.75
1.92900	41.07
1.94567	41.41
1.96233	41.73
1.97900	42.06
1.99567	42.38
2.01233	42.70
2.02900	43.03
2.04567	43.37
2.06233	43.68
2.07900	43.99
2.09567	44.33
2.11233	44.65
2.12900	44.98
2.14567	45.31
2.16233	45.63
2.17900	45.95
2.19567	46.29
2.21233	46.60
2.22900	46.93
2.24567	47.26
2.26233	47.62
2.27900	47.95
2.29567	48.27
2.31233	48.60
2.32900	48.93
2.34567	49.23
2.36233	49.50
2.37900	49.65
2.39567	49.69
2.41233	49.68
2.42900	49.70
2.44567	49.71
2.46233	49.71
2.47900	49.73
2.49567	49.73
2.51233	49.75
2.52900	49.77
2.54567	49.80
2.56233	49.79
2.57900	49.83
2.59567	49.84
2.61233	49.85
2.62900	49.87
2.64567	49.86
2.66233	49.84
2.67900	49.85
2.69567	49.87
2.71233	49.88
2.72900	49.88
2.74567	49.88
2.76233	49.88
2.77900	49.87
2.79567	49.88
2.81233	49.88
2.82900	49.91
2.84567	49.94
2.86233	49.96
2.87900	49.97
2.89567	49.98
2.91233	49.99
2.92900	50.00
2.94567	50.00
2.96233	50.01
2.97900	50.02
2.99567	50.03
3.01233	50.04
3.02900	50.04
3.04567	50.05
3.06233	50.06
3.07900	50.06
3.09567	50.07
3.11233	50.10
3.12900	50.11
3.14567	50.11
3.16233	50.10
3.17900	50.09
3.19567	50.08
3.21233	50.06
3.22900	50.06
3.24567	50.06
3.26233	50.06
3.27900	50.05
3.29567	50.04
3.31233	50.04
3.32900	50.05
3.34567	50.05
3.36233	50.05
3.37900	50.05
3.39567	50.06
3.41233	50.07
3.42900	50.08
3.44567	50.08
3.46233	50.10
3.47900	50.11
3.49567	50.10
3.51233	50.09
3.52900	50.09
3.54567	50.08
3.56233	50.07
3.57900	50.07
3.59567	50.06
3.61233	50.04
3.62900	50.04
3.64567	50.04
3.66233	50.04
3.67900	50.04
3.69567	50.04
3.71233	50.04
3.72900	50.03
3.74567	50.04
3.76233	50.04
3.77900	50.04
3.79567	50.04
3.81233	50.03
3.82900	50.04
3.84567	50.04
3.86233	50.05
3.87900	50.05
3.89567	50.06
3.91233	50.07
3.92900	50.06
3.94567	50.06
3.96233	50.05
3.97900	50.06
3.99567	50.06

[Status Trace (Injection Unit Temperature)]
Interval(msec)	1000
# of Points	240
Start Time(min)	0.012
End Time(min)	3.996
Intensity Units	
Intensity Multiplier	1
R.Time (min)	Intensity
0.01233	99.98
0.02900	99.98
0.04567	99.98
0.06233	99.98
0.07900	99.98
0.09567	99.98
0.11233	99.98
0.12900	99.98
0.14567	99.99
0.16233	99.98
0.17900	99.98
0.19567	99.99
0.21233	99.98
0.22900	99.99
0.24567	99.99
0.26233	99.99
0.27900	99.99
0.29567	99.99
0.31233	99.99
0.32900	99.99
0.34567	99.99
0.36233	99.99
0.37900	99.99
0.39567	99.99
0.41233	99.99
0.42900	99.99
0.44567	99.99
0.46233	99.99
0.47900	99.99
0.49567	99.99
0.51233	99.99
0.52900	99.99
0.54567	99.99
0.56233	99.99
0.57900	99.99
0.59567	99.99
0.61233	99.99
0.62900	99.99
0.64567	99.99
0.66233	99.99
0.67900	99.99
0.69567	99.99
0.71233	99.99
0.72900	99.99
0.74567	99.99
0.76233	99.98
0.77900	99.99
0.79567	99.99
0.81233	99.99
0.82900	99.99
0.84567	99.99
0.86233	99.99
0.87900	99.99
0.89567	99.99
0.91233	99.99
0.92900	99.99
0.94567	99.99
0.96233	99.99
0.97900	99.99
0.99567	99.99
1.01233	99.99
1.02900	99.98
1.04567	99.99
1.06233	99.99
1.07900	99.99
1.09567	99.99
1.11233	99.98
1.12900	99.99
1.14567	99.99
1.16233	99.99
1.17900	99.99
1.19567	99.99
1.21233	99.99
1.22900	99.98
1.24567	99.99
1.26233	99.99
1.27900	99.99
1.29567	99.99
1.31233	99.99
1.32900	99.99
1.34567	99.99
1.36233	99.99
1.37900	99.98
1.39567	99.99
1.41233	99.99
1.42900	99.99
1.44567	99.99
1.46233	99.99
1.47900	99.98
1.49567	99.99
1.51233	99.99
1.52900	99.99
1.54567	99.99
1.56233	99.99
1.57900	99.99
1.59567	99.99
1.61233	99.98
1.62900	99.99
1.64567	99.99
1.66233	99.99
1.67900	99.99
1.69567	99.99
1.71233	99.98
1.72900	99.99
1.74567	99.99
1.76233	99.99
1.77900	99.99
1.79567	99.99
1.81233	99.98
1.82900	99.99
1.84567	99.99
1.86233	99.99
1.87900	99.98
1.89567	99.98
1.91233	99.98
1.92900	99.98
1.94567	99.98
1.96233	99.98
1.97900	99.98
1.99567	99.98
2.01233	99.98
2.02900	99.98
2.04567	99.98
2.06233	99.98
2.07900	99.98
2.09567	99.97
2.11233	99.97
2.12900	99.97
2.14567	99.97
2.16233	99.97
2.17900	99.97
2.19567	99.97
2.21233	99.97
2.22900	99.97
2.24567	99.97
2.26233	99.96
2.27900	99.97
2.29567	99.97
2.31233	99.96
2.32900	99.96
2.34567	99.96
2.36233	99.97
2.37900	99.96
2.39567	99.96
2.41233	99.96
2.42900	99.96
2.44567	99.97
2.46233	99.96
2.47900	99.96
2.49567	99.96
2.51233	99.97
2.52900	99.96
2.54567	99.97
2.56233	99.97
2.57900	99.97
2.59567	99.98
2.61233	99.97
2.62900	99.98
2.64567	99.98
2.66233	99.98
2.67900	99.98
2.69567	99.99
2.71233	99.99
2.72900	99.99
2.74567	99.99
2.76233	99.99
2.77900	99.99
2.79567	100.00
2.81233	100.00
2.82900	100.00
2.84567	100.00
2.86233	100.00
2.87900	100.01
2.89567	100.00
2.91233	100.01
2.92900	100.01
2.94567	100.01
2.96233	100.01
2.97900	100.02
2.99567	100.02
3.01233	100.02
3.02900	100.02
3.04567	100.02
3.06233	100.03
3.07900	100.02
3.09567	100.02
3.11233	100.02
3.12900	100.03
3.14567	100.03
3.16233	100.03
3.17900	100.03
3.19567	100.03
3.21233	100.03
3.22900	100.03
3.24567	100.04
3.26233	100.03
3.27900	100.04
3.29567	100.04
3.31233	100.04
3.32900	100.04
3.34567	100.04
3.36233	100.04
3.37900	100.04
3.39567	100.04
3.41233	100.03
3.42900	100.04
3.44567	100.04
3.46233	100.04
3.47900	100.04
3.49567	100.04
3.51233	100.04
3.52900	100.04
3.54567	100.04
3.56233	100.04
3.57900	100.04
3.59567	100.04
3.61233	100.04
3.62900	100.04
3.64567	100.04
3.66233	100.05
3.67900	100.04
3.69567	100.04
3.71233	100.05
3.72900	100.05
3.74567	100.05
3.76233	100.04
3.77900	100.05
3.79567	100.04
3.81233	100.04
3.82900	100.05
3.84567	100.05
3.86233	100.05
3.87900	100.05
3.89567	100.05
3.91233	100.05
3.92900	100.05
3.94567	100.05
3.96233	100.05
3.97900	100.05
3.99567	100.05

[Status Trace (Carrier Gas Pressure)]
Interval(msec)	1000
# of Points	240
Start Time(min)	0.012
End Time(min)	3.996
Intensity Units	
Intensity Multiplier	1
R.Time (min)	Intensity
0.01233	57.98
0.02900	55.01
0.04567	57.64
0.06233	59.69
0.07900	58.88
0.09567	58.00
0.11233	58.00
0.12900	58.01
0.14567	58.01
0.16233	58.00
0.17900	58.00
0.19567	58.00
0.21233	58.00
0.22900	58.00
0.24567	58.00
0.26233	58.00
0.27900	58.00
0.29567	58.00
0.31233	58.00
0.32900	58.00
0.34567	58.00
0.36233	58.00
0.37900	58.00
0.39567	58.00
0.41233	58.00
0.42900	58.00
0.44567	58.00
0.46233	58.00
0.47900	58.00
0.49567	58.00
0.51233	58.00
0.52900	58.00
0.54567	58.00
0.56233	58.00
0.57900	58.00
0.59567	58.00
0.61233	58.00
0.62900	58.00
0.64567	58.00
0.66233	58.00
0.67900	58.00
0.69567	58.00
0.71233	58.00
0.72900	58.00
0.74567	58.00
0.76233	58.00
0.77900	58.00
0.79567	58.00
0.81233	58.00
0.82900	58.00
0.84567	58.00
0.86233	58.00
0.87900	58.00
0.89567	58.00
0.91233	58.00
0.92900	58.00
0.94567	58.00
0.96233	58.00
0.97900	58.00
0.99567	58.00
1.01233	58.00
1.02900	58.00
1.04567	58.00
1.06233	58.00
1.07900	58.00
1.09567	58.00
1.11233	58.00
1.12900	58.00
1.14567	58.00
1.16233	58.00
1.17900	58.00
1.19567	58.00
1.21233	58.00
1.22900	58.00
1.24567	58.00
1.26233	58.00
1.27900	58.00
1.29567	58.00
1.31233	58.00
1.32900	58.00
1.34567	58.00
1.36233	58.00
1.37900	58.00
1.39567	58.00
1.41233	58.00
1.42900	58.00
1.44567	58.00
1.46233	58.00
1.47900	58.00
1.49567	58.00
1.51233	58.00
1.52900	58.00
1.54567	58.00
1.56233	58.00
1.57900	58.00
1.59567	58.00
1.61233	58.00
1.62900	58.00
1.64567	58.00
1.66233	58.00
1.67900	58.01
1.69567	58.00
1.71233	58.00
1.72900	58.00
1.74567	58.00
1.76233	58.00
1.77900	58.00
1.79567	58.00
1.81233	58.00
1.82900	58.00
1.84567	58.00
1.86233	58.00
1.87900	58.00
1.89567	58.00
1.91233	58.00
1.92900	58.00
1.94567	58.00
1.96233	58.00
1.97900	58.00
1.99567	58.00
2.01233	58.00
2.02900	58.00
2.04567	58.00
2.06233	58.00
2.07900	58.00
2.09567	58.00
2.11233	58.00
2.12900	58.00
2.14567	58.00
2.16233	58.00
2.17900	58.00
2.19567	58.00
2.21233	58.00
2.22900	58.00
2.24567	58.00
2.26233	58.00
2.27900	58.00
2.29567	58.00
2.31233	58.00
2.32900	58.00
2.34567	58.00
2.36233	58.00
2.37900	58.00
2.39567	57.99
2.41233	57.99
2.42900	58.00
2.44567	58.00
2.46233	58.00
2.47900	58.00
2.49567	58.00
2.51233	57.99
2.52900	57.98
2.54567	58.00
2.56233	58.00
2.57900	58.00
2.59567	58.00
2.61233	58.00
2.62900	58.00
2.64567	58.00
2.66233	58.00
2.67900	58.00
2.69567	58.00
2.71233	58.00
2.72900	58.00
2.74567	58.00
2.76233	58.00
2.77900	58.00
2.79567	58.00
2.81233	58.00
2.82900	58.00
2.84567	58.00
2.86233	58.00
2.87900	58.00
2.89567	58.00
2.91233	58.00
2.92900	58.00
2.94567	58.00
2.96233	58.00
2.97900	58.00
2.99567	58.00
3.01233	58.00
3.02900	58.00
3.04567	58.00
3.06233	58.00
3.07900	58.00
3.09567	58.00
3.11233	58.00
3.12900	58.00
3.14567	58.00
3.16233	58.00
3.17900	58.00
3.19567	58.00
3.21233	58.00
3.22900	58.00
3.24567	58.00
3.26233	58.00
3.27900	58.00
3.29567	58.00
3.31233	58.00
3.32900	58.00
3.34567	58.00
3.36233	58.00
3.37900	58.00
3.39567	58.00
3.41233	58.00
3.42900	58.00
3.44567	58.00
3.46233	58.00
3.47900	58.00
3.49567	58.00
3.51233	58.00
3.52900	58.00
3.54567	58.00
3.56233	58.00
3.57900	58.00
3.59567	58.00
3.61233	58.00
3.62900	58.00
3.64567	58.00
3.66233	58.00
3.67900	58.00
3.69567	58.00
3.71233	58.00
3.72900	58.00
3.74567	58.00
3.76233	58.00
3.77900	58.00
3.79567	58.00
3.81233	58.00
3.82900	58.00
3.84567	58.00
3.86233	58.00
3.87900	58.00
3.89567	58.00
3.91233	58.00
3.92900	58.00
3.94567	58.00
3.96233	58.00
3.97900	58.00
3.99567	58.00

[Status Trace (Carrier Gas Flow)]
Interval(msec)	1000
# of Points	240
Start Time(min)	0.012
End Time(min)	3.996
Intensity Units	
Intensity Multiplier	1
R.Time (min)	Intensity
0.01233	34.57
0.02900	34.53
0.04567	34.54
0.06233	34.53
0.07900	34.50
0.09567	34.53
0.11233	34.52
0.12900	34.52
0.14567	34.52
0.16233	34.52
0.17900	34.52
0.19567	34.51
0.21233	34.51
0.22900	34.52
0.24567	34.51
0.26233	34.52
0.27900	34.53
0.29567	34.51
0.31233	34.52
0.32900	34.51
0.34567	34.52
0.36233	34.52
0.37900	34.52
0.39567	34.52
0.41233	34.52
0.42900	34.52
0.44567	34.52
0.46233	34.52
0.47900	34.52
0.49567	34.52
0.51233	34.52
0.52900	34.52
0.54567	34.52
0.56233	34.52
0.57900	34.52
0.59567	34.53
0.61233	34.52
0.62900	34.52
0.64567	34.52
0.66233	34.52
0.67900	34.52
0.69567	34.53
0.71233	34.52
0.72900	34.52
0.74567	34.52
0.76233	34.52
0.77900	34.52
0.79567	34.52
0.81233	34.52
0.82900	34.52
0.84567	34.52
0.86233	34.52
0.87900	34.52
0.89567	34.52
0.91233	34.52
0.92900	34.52
0.94567	34.52
0.96233	34.52
0.97900	34.52
0.99567	34.52
1.01233	34.52
1.02900	34.52
1.04567	34.52
1.06233	34.52
1.07900	34.52
1.09567	34.52
1.11233	34.53
1.12900	34.52
1.14567	34.52
1.16233	34.52
1.17900	34.52
1.19567	34.52
1.21233	34.52
1.22900	34.52
1.24567	34.52
1.26233	34.52
1.27900	34.52
1.29567	34.52
1.31233	34.52
1.32900	34.52
1.34567	34.52
1.36233	34.52
1.37900	34.52
1.39567	34.52
1.41233	34.52
1.42900	34.52
1.44567	34.52
1.46233	34.52
1.47900	34.52
1.49567	34.51
1.51233	34.52
1.52900	34.51
1.54567	34.52
1.56233	34.51
1.57900	34.52
1.59567	34.54
1.61233	34.51
1.62900	34.52
1.64567	34.52
1.66233	34.52
1.67900	34.52
1.69567	34.52
1.71233	34.52
1.72900	34.52
1.74567	34.52
1.76233	34.52
1.77900	34.52
1.79567	34.52
1.81233	34.52
1.82900	34.52
1.84567	34.52
1.86233	34.52
1.87900	34.52
1.89567	34.51
1.91233	34.52
1.92900	34.52
1.94567	34.52
1.96233	34.52
1.97900	34.52
1.99567	34.51
2.01233	34.52
2.02900	34.52
2.04567	34.52
2.06233	34.52
2.07900	34.52
2.09567	34.52
2.11233	34.52
2.12900	34.52
2.14567	34.52
2.16233	34.52
2.17900	34.52
2.19567	34.52
2.21233	34.52
2.22900	34.52
2.24567	34.52
2.26233	34.52
2.27900	34.52
2.29567	34.52
2.31233	34.52
2.32900	34.51
2.34567	34.52
2.36233	34.52
2.37900	34.52
2.39567	34.52
2.41233	34.52
2.42900	34.52
2.44567	34.52
2.46233	34.52
2.47900	34.52
2.49567	34.52
2.51233	34.52
2.52900	34.52
2.54567	34.52
2.56233	34.52
2.57900	34.52
2.59567	34.52
2.61233	34.52
2.62900	34.52
2.64567	34.52
2.66233	34.52
2.67900	34.52
2.69567	34.52
2.71233	34.52
2.72900	34.52
2.74567	34.52
2.76233	34.52
2.77900	34.52
2.79567	34.53
2.81233	34.52
2.82900	34.51
2.84567	34.52
2.86233	34.52
2.87900	34.52
2.89567	34.52
2.91233	34.52
2.92900	34.52
2.94567	34.52
2.96233	34.52
2.97900	34.52
2.99567	34.52
3.01233	34.52
3.02900	34.52
3.04567	34.52
3.06233	34.52
3.07900	34.52
3.09567	34.52
3.11233	34.51
3.12900	34.52
3.14567	34.52
3.16233	34.52
3.17900	34.52
3.19567	34.52
3.21233	34.52
3.22900	34.51
3.24567	34.52
3.26233	34.52
3.27900	34.52
3.29567	34.52
3.31233	34.52
3.32900	34.52
3.34567	34.52
3.36233	34.52
3.37900	34.52
3.39567	34.52
3.41233	34.52
3.42900	34.52
3.44567	34.52
3.46233	34.52
3.47900	34.52
3.49567	34.52
3.51233	34.52
3.52900	34.52
3.54567	34.52
3.56233	34.52
3.57900	34.51
3.59567	34.52
3.61233	34.52
3.62900	34.52
3.64567	34.52
3.66233	34.52
3.67900	34.52
3.69567	34.52
3.71233	34.52
3.72900	34.52
3.74567	34.52
3.76233	34.52
3.77900	34.52
3.79567	34.52
3.81233	34.52
3.82900	34.52
3.84567	34.52
3.86233	34.52
3.87900	34.52
3.89567	34.52
3.91233	34.51
3.92900	34.52
3.94567	34.52
3.96233	34.52
3.97900	34.52
3.99567	34.53

[Status Trace (Column Flow)]
Interval(msec)	1000
# of Points	240
Start Time(min)	0.012
End Time(min)	3.996
Intensity Units	
Intensity Multiplier	1
R.Time (min)	Intensity
0.01233	5.53
0.02900	5.19
0.04567	5.49
0.06233	5.73
0.07900	5.64
0.09567	5.53
0.11233	5.53
0.12900	5.53
0.14567	5.53
0.16233	5.53
0.17900	5.53
0.19567	5.53
0.21233	5.53
0.22900	5.53
0.24567	5.53
0.26233	5.53
0.27900	5.53
0.29567	5.53
0.31233	5.53
0.32900	5.53
0.34567	5.53
0.36233	5.53
0.37900	5.53
0.39567	5.53
0.41233	5.53
0.42900	5.53
0.44567	5.53
0.46233	5.53
0.47900	5.53
0.49567	5.53
0.51233	5.53
0.52900	5.53
0.54567	5.53
0.56233	5.53
0.57900	5.53
0.59567	5.53
0.61233	5.53
0.62900	5.53
0.64567	5.53
0.66233	5.53
0.67900	5.53
0.69567	5.53
0.71233	5.53
0.72900	5.53
0.74567	5.53
0.76233	5.53
0.77900	5.53
0.79567	5.53
0.81233	5.53
0.82900	5.53
0.84567	5.53
0.86233	5.53
0.87900	5.53
0.89567	5.53
0.91233	5.53
0.92900	5.53
0.94567	5.53
0.96233	5.53
0.97900	5.53
0.99567	5.53
1.01233	5.53
1.02900	5.53
1.04567	5.53
1.06233	5.53
1.07900	5.53
1.09567	5.53
1.11233	5.53
1.12900	5.53
1.14567	5.53
1.16233	5.53
1.17900	5.53
1.19567	5.53
1.21233	5.53
1.22900	5.53
1.24567	5.53
1.26233	5.53
1.27900	5.53
1.29567	5.53
1.31233	5.53
1.32900	5.53
1.34567	5.53
1.36233	5.53
1.37900	5.53
1.39567	5.53
1.41233	5.53
1.42900	5.53
1.44567	5.53
1.46233	5.53
1.47900	5.53
1.49567	5.53
1.51233	5.53
1.52900	5.53
1.54567	5.53
1.56233	5.53
1.57900	5.53
1.59567	5.53
1.61233	5.53
1.62900	5.53
1.64567	5.52
1.66233	5.51
1.67900	5.50
1.69567	5.49
1.71233	5.48
1.72900	5.47
1.74567	5.46
1.76233	5.45
1.77900	5.44
1.79567	5.43
1.81233	5.42
1.82900	5.41
1.84567	5.40
1.86233	5.39
1.87900	5.38
1.89567	5.37
1.91233	5.36
1.92900	5.35
1.94567	5.34
1.96233	5.33
1.97900	5.32
1.99567	5.31
2.01233	5.30
2.02900	5.29
2.04567	5.28
2.06233	5.27
2.07900	5.26
2.09567	5.25
2.11233	5.24
2.12900	5.23
2.14567	5.22
2.16233	5.21
2.17900	5.20
2.19567	5.19
2.21233	5.18
2.22900	5.18
2.24567	5.17
2.26233	5.16
2.27900	5.15
2.29567	5.14
2.31233	5.13
2.32900	5.12
2.34567	5.11
2.36233	5.10
2.37900	5.10
2.39567	5.10
2.41233	5.10
2.42900	5.10
2.44567	5.10
2.46233	5.10
2.47900	5.10
2.49567	5.10
2.51233	5.09
2.52900	5.09
2.54567	5.09
2.56233	5.09
2.57900	5.09
2.59567	5.09
2.61233	5.09
2.62900	5.09
2.64567	5.09
2.66233	5.09
2.67900	5.09
2.69567	5.09
2.71233	5.09
2.72900	5.09
2.74567	5.09
2.76233	5.09
2.77900	5.09
2.79567	5.09
2.81233	5.09
2.82900	5.09
2.84567	5.09
2.86233	5.09
2.87900	5.09
2.89567	5.09
2.91233	5.09
2.92900	5.09
2.94567	5.09
2.96233	5.09
2.97900	5.09
2.99567	5.09
3.01233	5.09
3.02900	5.09
3.04567	5.09
3.06233	5.09
3.07900	5.09
3.09567	5.09
3.11233	5.09
3.12900	5.09
3.14567	5.09
3.16233	5.09
3.17900	5.09
3.19567	5.09
3.21233	5.09
3.22900	5.09
3.24567	5.09
3.26233	5.09
3.27900	5.09
3.29567	5.09
3.31233	5.09
3.32900	5.09
3.34567	5.09
3.36233	5.09
3.37900	5.09
3.39567	5.09
3.41233	5.09
3.42900	5.09
3.44567	5.09
3.46233	5.09
3.47900	5.09
3.49567	5.09
3.51233	5.09
3.52900	5.09
3.54567	5.09
3.56233	5.09
3.57900	5.09
3.59567	5.09
3.61233	5.09
3.62900	5.09
3.64567	5.09
3.66233	5.09
3.67900	5.09
3.69567	5.09
3.71233	5.09
3.72900	5.09
3.74567	5.09
3.76233	5.09
3.77900	5.09
3.79567	5.09
3.81233	5.09
3.82900	5.09
3.84567	5.09
3.86233	5.09
3.87900	5.09
3.89567	5.09
3.91233	5.09
3.92900	5.09
3.94567	5.09
3.96233	5.09
3.97900	5.09
3.99567	5.09

[Status Trace (Linear Velocity)]
Interval(msec)	1000
# of Points	240
Start Time(min)	0.012
End Time(min)	3.996
Intensity Units	
Intensity Multiplier	1
R.Time (min)	Intensity
0.01233	39.01
0.02900	37.06
0.04567	38.79
0.06233	40.13
0.07900	39.59
0.09567	39.02
0.11233	39.02
0.12900	39.03
0.14567	39.02
0.16233	39.02
0.17900	39.02
0.19567	39.02
0.21233	39.02
0.22900	39.02
0.24567	39.02
0.26233	39.02
0.27900	39.02
0.29567	39.02
0.31233	39.02
0.32900	39.02
0.34567	39.02
0.36233	39.02
0.37900	39.02
0.39567	39.02
0.41233	39.02
0.42900	39.02
0.44567	39.02
0.46233	39.02
0.47900	39.02
0.49567	39.02
0.51233	39.02
0.52900	39.02
0.54567	39.02
0.56233	39.02
0.57900	39.02
0.59567	39.02
0.61233	39.02
0.62900	39.02
0.64567	39.02
0.66233	39.02
0.67900	39.02
0.69567	39.02
0.71233	39.02
0.72900	39.02
0.74567	39.02
0.76233	39.02
0.77900	39.02
0.79567	39.02
0.81233	39.02
0.82900	39.02
0.84567	39.02
0.86233	39.02
0.87900	39.02
0.89567	39.02
0.91233	39.02
0.92900	39.02
0.94567	39.02
0.96233	39.02
0.97900	39.02
0.99567	39.02
1.01233	39.02
1.02900	39.02
1.04567	39.02
1.06233	39.02
1.07900	39.02
1.09567	39.02
1.11233	39.02
1.12900	39.02
1.14567	39.02
1.16233	39.02
1.17900	39.02
1.19567	39.02
1.21233	39.02
1.22900	39.02
1.24567	39.02
1.26233	39.02
1.27900	39.02
1.29567	39.02
1.31233	39.02
1.32900	39.02
1.34567	39.02
1.36233	39.02
1.37900	39.02
1.39567	39.02
1.41233	39.02
1.42900	39.02
1.44567	39.02
1.46233	39.02
1.47900	39.02
1.49567	39.02
1.51233	39.02
1.52900	39.02
1.54567	39.02
1.56233	39.02
1.57900	39.02
1.59567	39.02
1.61233	39.01
1.62900	39.00
1.64567	38.98
1.66233	38.95
1.67900	38.92
1.69567	38.89
1.71233	38.85
1.72900	38.82
1.74567	38.79
1.76233	38.76
1.77900	38.72
1.79567	38.70
1.81233	38.66
1.82900	38.63
1.84567	38.60
1.86233	38.57
1.87900	38.54
1.89567	38.51
1.91233	38.47
1.92900	38.44
1.94567	38.42
1.96233	38.38
1.97900	38.35
1.99567	38.33
2.01233	38.29
2.02900	38.26
2.04567	38.24
2.06233	38.20
2.07900	38.18
2.09567	38.15
2.11233	38.11
2.12900	38.09
2.14567	38.06
2.16233	38.03
2.17900	38.00
2.19567	37.97
2.21233	37.94
2.22900	37.91
2.24567	37.88
2.26233	37.85
2.27900	37.82
2.29567	37.79
2.31233	37.76
2.32900	37.73
2.34567	37.71
2.36233	37.68
2.37900	37.66
2.39567	37.66
2.41233	37.66
2.42900	37.66
2.44567	37.66
2.46233	37.66
2.47900	37.66
2.49567	37.66
2.51233	37.65
2.52900	37.64
2.54567	37.65
2.56233	37.65
2.57900	37.65
2.59567	37.65
2.61233	37.65
2.62900	37.65
2.64567	37.65
2.66233	37.65
2.67900	37.65
2.69567	37.65
2.71233	37.65
2.72900	37.65
2.74567	37.65
2.76233	37.65
2.77900	37.65
2.79567	37.65
2.81233	37.65
2.82900	37.64
2.84567	37.64
2.86233	37.64
2.87900	37.64
2.89567	37.64
2.91233	37.64
2.92900	37.64
2.94567	37.63
2.96233	37.63
2.97900	37.63
2.99567	37.63
3.01233	37.63
3.02900	37.63
3.04567	37.63
3.06233	37.63
3.07900	37.63
3.09567	37.63
3.11233	37.63
3.12900	37.63
3.14567	37.62
3.16233	37.63
3.17900	37.63
3.19567	37.63
3.21233	37.63
3.22900	37.63
3.24567	37.63
3.26233	37.63
3.27900	37.63
3.29567	37.63
3.31233	37.63
3.32900	37.63
3.34567	37.63
3.36233	37.63
3.37900	37.63
3.39567	37.63
3.41233	37.63
3.42900	37.63
3.44567	37.63
3.46233	37.63
3.47900	37.63
3.49567	37.63
3.51233	37.63
3.52900	37.63
3.54567	37.63
3.56233	37.63
3.57900	37.63
3.59567	37.63
3.61233	37.63
3.62900	37.63
3.64567	37.63
3.66233	37.63
3.67900	37.63
3.69567	37.63
3.71233	37.63
3.72900	37.63
3.74567	37.63
3.76233	37.63
3.77900	37.63
3.79567	37.63
3.81233	37.63
3.82900	37.63
3.84567	37.63
3.86233	37.63
3.87900	37.63
3.89567	37.63
3.91233	37.63
3.92900	37.63
3.94567	37.63
3.96233	37.63
3.97900	37.63
3.99567	37.63

