[Header]
Application Name	LabSolutions
Version	5.110
Data File Name	C:\Users\User\Desktop\GC Analyses\Jack\UIC Prairie Sampling\9.16.22\220916_060.gcd
Output Date	11/29/2022
Output Time	11:10:19 AM

[File Information]
Type	Data File
Generated	11/15/2022 1:57:09 PM
Generated by	System Administrator
Modified	11/15/2022 2:01:23 PM
Modified by	System Administrator

[Sample Information]
Operator Name	System Administrator
Acquired	11/15/2022 1:57:23 PM
Sample Type	1:Standard
Level	1
Sample Name	220916_UICPrairie
Sample ID	220916_UICPrairie
ISTD Amount1	1
ISTD Amount2	1
ISTD Amount3	1
ISTD Amount4	1
ISTD Amount5	1
ISTD Amount6	1
ISTD Amount7	1
ISTD Amount8	1
ISTD Amount9	1
ISTD Amount10	1
ISTD Amount11	1
ISTD Amount12	1
ISTD Amount13	1
ISTD Amount14	1
ISTD Amount15	1
ISTD Amount16	1
ISTD Amount17	1
ISTD Amount18	1
ISTD Amount19	1
ISTD Amount20	1
ISTD Amount21	1
ISTD Amount22	1
ISTD Amount23	1
ISTD Amount24	1
ISTD Amount25	1
ISTD Amount26	1
ISTD Amount27	1
ISTD Amount28	1
ISTD Amount29	1
ISTD Amount30	1
ISTD Amount31	1
ISTD Amount32	1
Sample Amount	1
Dilution Factor	1
Vial#	1
Injection Volume	1
Injection Count	1
Bar Code	

[Original Files]
Data File	C:\Users\User\Desktop\GC Analyses\Jack\UIC Prairie Sampling\9.16.22\220916_060.gcd
Method File	C:\LabSolutions\Data\GHG_4min_2022\ghg3_togas_w_acet_4 min_new_int.gcm
Batch File	
Report Format File	c:\LabSolutions\System\DEFAULT.lsr

[File Description]


[Configuration]
Instrument Name	C0B7VH3-Instrument1
Instrument #	1
Line #	1
# of Detectors	3
Detector ID	DET#1	DET#2	DET#3
Detector Name	FID	PTCD	ECD
# of Channels	1	1	1

[Peak Table(Ch1)]
# of Peaks	3
Peak#	R.Time	I.Time	F.Time	Area	Height	A/H	Conc.	Mark	ID#	Name	k'	Plate #	Plate Ht.	Tailing	Resolution	Sep.Factor	Area Ratio	Height Ratio	Conc. %	Norm Conc.
1	1.476	1.435	1.538	15168	6384	2.376	100.000	   	1	CO	0.000	7594	19.751	1.245	0.000	0.000	0	0	16.667	16.667
2	1.571	1.538	1.633	4809	2344	2.052	100.000	 V 	2	CH4	0.065	10747	13.957	0.000	1.486	0.000	0	0	16.667	16.667
3	2.000	1.952	2.396	2447185	1178250	2.077	400.000	   	3	CO2	0.355	17514	8.565	1.204	7.087	5.500	0	0	66.667	66.667

[Peak Table(Ch2)]
# of Peaks	0

[Peak Table(Ch3)]
# of Peaks	3
Peak#	R.Time	I.Time	F.Time	Area	Height	A/H	Conc.	Mark	ID#	Name	k'	Plate #	Plate Ht.	Tailing	Resolution	Sep.Factor	Area Ratio	Height Ratio	Conc. %	Norm Conc.
1	2.462	2.264	2.499	1781	298	5.979	0.000	   			0.000	1277	117.477	0.000	0.000	0.000	0	0	0.000	0.000
2	2.598	2.499	2.649	2221	310	7.172	0.000	 V 			0.055	817	183.575	0.000	0.425	0.000	0	0	0.000	0.000
3	2.884	2.667	3.940	33422	5634	5.933	1.000	   	1	N2O	0.171	12195	12.300	2.232	1.222	3.108	0	0	100.000	100.000

[Compound Results(Ch1)]
# of IDs	6
ID#	Name	R.Time	Area	Height	Conc.	Curve	3rd	2nd	1st	Constant	Area Ratio	Height Ratio	Conc. %	Norm Conc.
1	CO	1.476	15168	6384	100.000	Linear	0.000000e+00	0.000000e+00	1.516768e+002	0.000000e+00	0	0	16.667	16.667
2	CH4	1.571	4809	2344	100.000	Linear	0.000000e+00	0.000000e+00	4.809129e+001	0.000000e+00	0	0	16.667	16.667
3	CO2	2.000	2447185	1178250	400.000	Linear	0.000000e+00	0.000000e+00	6.117963e+003	0.000000e+00	0	0	66.667	66.667
4	Ethylene	0.000	0	0	0.000	Linear	0.000000e+00	0.000000e+00	0.000000e+00	0.000000e+00	0	0	0.000	0.000
5	Acetylene	0.000	0	0	0.000	Linear	0.000000e+00	0.000000e+00	0.000000e+00	0.000000e+00	0	0	0.000	0.000
6	Ethane	0.000	0	0	0.000	Linear	0.000000e+00	0.000000e+00	0.000000e+00	0.000000e+00	0	0	0.000	0.000

[Compound Results(Ch2)]
# of IDs	5
ID#	Name	R.Time	Area	Height	Conc.	Curve	3rd	2nd	1st	Constant	Area Ratio	Height Ratio	Conc. %	Norm Conc.
1	Hydrogen	0.000	0	0	0.000	Linear	0.000000e+00	0.000000e+00	0.000000e+00	0.000000e+00	0	0	0.000	0.000
2	Oxygen	0.000	0	0	0.000	Linear	0.000000e+00	0.000000e+00	0.000000e+00	0.000000e+00	0	0	0.000	0.000
3	Nitrogen	0.000	0	0	0.000	Linear	0.000000e+00	0.000000e+00	0.000000e+00	0.000000e+00	0	0	0.000	0.000
4	Methane	0.000	0	0	0.000	Linear	0.000000e+00	0.000000e+00	0.000000e+00	0.000000e+00	0	0	0.000	0.000
5	Carbon Monoxide	0.000	0	0	0.000	Linear	0.000000e+00	0.000000e+00	0.000000e+00	0.000000e+00	0	0	0.000	0.000

[Compound Results(Ch3)]
# of IDs	2
ID#	Name	R.Time	Area	Height	Conc.	Curve	3rd	2nd	1st	Constant	Area Ratio	Height Ratio	Conc. %	Norm Conc.
1	N2O	2.884	33422	5634	1.000	Linear	0.000000e+00	0.000000e+00	3.342234e+004	0.000000e+00	0	0	100.000	100.000
2	SF6	0.000	0	0	0.000	Linear	0.000000e+00	0.000000e+00	0.000000e+00	0.000000e+00	0	0	0.000	0.000

[Group Results(Ch1)]
# of Groups	0

[Group Results(Ch2)]
# of Groups	0

[Group Results(Ch3)]
# of Groups	0

[Chromatogram (Ch1)]
Interval(msec)	220
# of Points	1091
Start Time(min)	0.002
End Time(min)	3.998
R.Time (min)	Intensity
0.00167	37
0.00533	42
0.00900	45
0.01267	44
0.01633	40
0.02000	35
0.02367	36
0.02733	42
0.03100	49
0.03467	53
0.03833	50
0.04200	43
0.04567	39
0.04933	35
0.05300	35
0.05667	40
0.06033	46
0.06400	47
0.06767	43
0.07133	35
0.07500	27
0.07867	21
0.08233	18
0.08600	18
0.08967	20
0.09333	21
0.09700	23
0.10067	27
0.10433	28
0.10800	29
0.11167	30
0.11533	30
0.11900	29
0.12267	28
0.12633	32
0.13000	35
0.13367	39
0.13733	41
0.14100	40
0.14467	37
0.14833	34
0.15200	35
0.15567	37
0.15933	37
0.16300	36
0.16667	34
0.17033	36
0.17400	44
0.17767	53
0.18133	56
0.18500	56
0.18867	56
0.19233	56
0.19600	54
0.19967	49
0.20333	44
0.20700	42
0.21067	40
0.21433	34
0.21800	23
0.22167	13
0.22533	7
0.22900	4
0.23267	5
0.23633	13
0.24000	24
0.24367	34
0.24733	42
0.25100	48
0.25467	50
0.25833	50
0.26200	47
0.26567	40
0.26933	34
0.27300	32
0.27667	33
0.28033	36
0.28400	35
0.28767	33
0.29133	31
0.29500	29
0.29867	31
0.30233	34
0.30600	37
0.30967	41
0.31333	44
0.31700	48
0.32067	48
0.32433	45
0.32800	43
0.33167	41
0.33533	38
0.33900	36
0.34267	37
0.34633	42
0.35000	47
0.35367	51
0.35733	53
0.36100	52
0.36467	52
0.36833	51
0.37200	46
0.37567	40
0.37933	37
0.38300	35
0.38667	31
0.39033	28
0.39400	27
0.39767	30
0.40133	34
0.40500	39
0.40867	44
0.41233	47
0.41600	50
0.41967	54
0.42333	57
0.42700	57
0.43067	53
0.43433	45
0.43800	39
0.44167	35
0.44533	34
0.44900	34
0.45267	32
0.45633	32
0.46000	34
0.46367	36
0.46733	37
0.47100	38
0.47467	39
0.47833	40
0.48200	40
0.48567	38
0.48933	37
0.49300	35
0.49667	31
0.50033	28
0.50400	28
0.50767	32
0.51133	37
0.51500	44
0.51867	50
0.52233	55
0.52600	57
0.52967	56
0.53333	53
0.53700	49
0.54067	45
0.54433	40
0.54800	34
0.55167	28
0.55533	24
0.55900	22
0.56267	23
0.56633	24
0.57000	24
0.57367	25
0.57733	27
0.58100	27
0.58467	26
0.58833	26
0.59200	30
0.59567	35
0.59933	40
0.60300	39
0.60667	37
0.61033	33
0.61400	32
0.61767	32
0.62133	32
0.62500	32
0.62867	36
0.63233	42
0.63600	46
0.63967	46
0.64333	41
0.64700	31
0.65067	27
0.65433	28
0.65800	28
0.66167	27
0.66533	27
0.66900	29
0.67267	31
0.67633	32
0.68000	33
0.68367	39
0.68733	47
0.69100	52
0.69467	51
0.69833	50
0.70200	49
0.70567	47
0.70933	44
0.71300	42
0.71667	39
0.72033	38
0.72400	35
0.72767	32
0.73133	28
0.73500	24
0.73867	23
0.74233	27
0.74600	28
0.74967	27
0.75333	24
0.75700	22
0.76067	23
0.76433	27
0.76800	32
0.77167	35
0.77533	37
0.77900	40
0.78267	42
0.78633	42
0.79000	42
0.79367	44
0.79733	47
0.80100	49
0.80467	53
0.80833	54
0.81200	52
0.81567	51
0.81933	49
0.82300	44
0.82667	39
0.83033	38
0.83400	39
0.83767	36
0.84133	35
0.84500	36
0.84867	36
0.85233	35
0.85600	30
0.85967	25
0.86333	24
0.86700	28
0.87067	34
0.87433	37
0.87800	38
0.88167	37
0.88533	37
0.88900	39
0.89267	44
0.89633	51
0.90000	55
0.90367	54
0.90733	55
0.91100	56
0.91467	55
0.91833	51
0.92200	47
0.92567	44
0.92933	46
0.93300	50
0.93667	50
0.94033	47
0.94400	44
0.94767	39
0.95133	32
0.95500	26
0.95867	28
0.96233	33
0.96600	34
0.96967	28
0.97333	21
0.97700	18
0.98067	22
0.98433	28
0.98800	33
0.99167	37
0.99533	38
0.99900	38
1.00267	39
1.00633	41
1.01000	43
1.01367	42
1.01733	38
1.02100	34
1.02467	32
1.02833	33
1.03200	38
1.03567	43
1.03933	47
1.04300	46
1.04667	44
1.05033	44
1.05400	47
1.05767	49
1.06133	51
1.06500	49
1.06867	44
1.07233	40
1.07600	37
1.07967	35
1.08333	35
1.08700	33
1.09067	30
1.09433	29
1.09800	31
1.10167	36
1.10533	41
1.10900	43
1.11267	39
1.11633	31
1.12000	27
1.12367	27
1.12733	29
1.13100	34
1.13467	39
1.13833	41
1.14200	41
1.14567	41
1.14933	44
1.15300	44
1.15667	40
1.16033	36
1.16400	34
1.16767	34
1.17133	37
1.17500	42
1.17867	45
1.18233	47
1.18600	45
1.18967	43
1.19333	42
1.19700	43
1.20067	44
1.20433	45
1.20800	47
1.21167	52
1.21533	54
1.21900	55
1.22267	52
1.22633	49
1.23000	43
1.23367	38
1.23733	36
1.24100	38
1.24467	40
1.24833	40
1.25200	38
1.25567	38
1.25933	39
1.26300	41
1.26667	42
1.27033	40
1.27400	36
1.27767	34
1.28133	32
1.28500	33
1.28867	36
1.29233	41
1.29600	43
1.29967	43
1.30333	43
1.30700	45
1.31067	49
1.31433	51
1.31800	49
1.32167	43
1.32533	38
1.32900	32
1.33267	27
1.33633	26
1.34000	27
1.34367	31
1.34733	37
1.35100	44
1.35467	46
1.35833	46
1.36200	45
1.36567	44
1.36933	43
1.37300	41
1.37667	41
1.38033	39
1.38400	35
1.38767	30
1.39133	27
1.39500	31
1.39867	40
1.40233	51
1.40600	58
1.40967	57
1.41333	51
1.41700	46
1.42067	42
1.42433	39
1.42800	36
1.43167	33
1.43533	36
1.43900	66
1.44267	216
1.44633	648
1.45000	1338
1.45367	2143
1.45733	3067
1.46100	4068
1.46467	4992
1.46833	5721
1.47200	6207
1.47567	6425
1.47933	6336
1.48300	5915
1.48667	5204
1.49033	4323
1.49400	3419
1.49767	2606
1.50133	1937
1.50500	1422
1.50867	1042
1.51233	769
1.51600	579
1.51967	449
1.52333	359
1.52700	294
1.53067	245
1.53433	212
1.53800	195
1.54167	214
1.54533	318
1.54900	565
1.55267	946
1.55633	1383
1.56000	1788
1.56367	2108
1.56733	2320
1.57100	2395
1.57467	2300
1.57833	2046
1.58200	1694
1.58567	1321
1.58933	989
1.59300	722
1.59667	518
1.60033	373
1.60400	274
1.60767	207
1.61133	163
1.61500	131
1.61867	108
1.62233	91
1.62600	76
1.62967	64
1.63333	58
1.63700	56
1.64067	59
1.64433	62
1.64800	63
1.65167	62
1.65533	60
1.65900	60
1.66267	61
1.66633	62
1.67000	61
1.67367	60
1.67733	60
1.68100	61
1.68467	63
1.68833	64
1.69200	63
1.69567	59
1.69933	55
1.70300	53
1.70667	58
1.71033	61
1.71400	58
1.71767	54
1.72133	49
1.72500	44
1.72867	42
1.73233	43
1.73600	46
1.73967	48
1.74333	49
1.74700	50
1.75067	52
1.75433	52
1.75800	54
1.76167	55
1.76533	57
1.76900	58
1.77267	57
1.77633	55
1.78000	54
1.78367	56
1.78733	62
1.79100	76
1.79467	89
1.79833	92
1.80200	85
1.80567	72
1.80933	58
1.81300	48
1.81667	39
1.82033	33
1.82400	32
1.82767	33
1.83133	37
1.83500	40
1.83867	42
1.84233	49
1.84600	59
1.84967	65
1.85333	66
1.85700	61
1.86067	57
1.86433	56
1.86800	56
1.87167	54
1.87533	54
1.87900	57
1.88267	62
1.88633	64
1.89000	64
1.89367	61
1.89733	59
1.90100	58
1.90467	62
1.90833	67
1.91200	73
1.91567	77
1.91933	82
1.92300	88
1.92667	90
1.93033	84
1.93400	76
1.93767	69
1.94133	65
1.94500	60
1.94867	56
1.95233	59
1.95600	122
1.95967	545
1.96333	2821
1.96700	12213
1.97067	41649
1.97433	112418
1.97800	243901
1.98167	435422
1.98533	660056
1.98900	877476
1.99267	1050883
1.99633	1155450
2.00000	1178350
2.00367	1119753
2.00733	994752
2.01100	829458
2.01467	653380
2.01833	490584
2.02200	354800
2.02567	249853
2.02933	173096
2.03300	119086
2.03667	82043
2.04033	57033
2.04400	40282
2.04767	29076
2.05133	21539
2.05500	16415
2.05867	12876
2.06233	10381
2.06600	8581
2.06967	7249
2.07333	6243
2.07700	5463
2.08067	4844
2.08433	4344
2.08800	3933
2.09167	3594
2.09533	3306
2.09900	3059
2.10267	2846
2.10633	2661
2.11000	2497
2.11367	2355
2.11733	2229
2.12100	2116
2.12467	2012
2.12833	1918
2.13200	1828
2.13567	1742
2.13933	1662
2.14300	1592
2.14667	1529
2.15033	1471
2.15400	1416
2.15767	1364
2.16133	1319
2.16500	1280
2.16867	1247
2.17233	1213
2.17600	1176
2.17967	1138
2.18333	1099
2.18700	1062
2.19067	1028
2.19433	996
2.19800	966
2.20167	937
2.20533	911
2.20900	889
2.21267	872
2.21633	856
2.22000	843
2.22367	831
2.22733	815
2.23100	797
2.23467	781
2.23833	765
2.24200	754
2.24567	748
2.24933	744
2.25300	738
2.25667	727
2.26033	711
2.26400	691
2.26767	670
2.27133	652
2.27500	637
2.27867	624
2.28233	612
2.28600	599
2.28967	587
2.29333	576
2.29700	568
2.30067	561
2.30433	557
2.30800	554
2.31167	553
2.31533	553
2.31900	551
2.32267	548
2.32633	545
2.33000	540
2.33367	536
2.33733	534
2.34100	529
2.34467	522
2.34833	513
2.35200	505
2.35567	496
2.35933	489
2.36300	485
2.36667	482
2.37033	480
2.37400	479
2.37767	479
2.38133	473
2.38500	463
2.38867	453
2.39233	443
2.39600	437
2.39967	435
2.40333	435
2.40700	438
2.41067	446
2.41433	455
2.41800	460
2.42167	459
2.42533	455
2.42900	449
2.43267	440
2.43633	432
2.44000	427
2.44367	426
2.44733	427
2.45100	431
2.45467	435
2.45833	434
2.46200	429
2.46567	421
2.46933	409
2.47300	399
2.47667	392
2.48033	389
2.48400	389
2.48767	390
2.49133	391
2.49500	394
2.49867	402
2.50233	410
2.50600	413
2.50967	412
2.51333	409
2.51700	405
2.52067	399
2.52433	392
2.52800	387
2.53167	387
2.53533	390
2.53900	393
2.54267	394
2.54633	393
2.55000	388
2.55367	382
2.55733	378
2.56100	379
2.56467	384
2.56833	390
2.57200	394
2.57567	394
2.57933	394
2.58300	390
2.58667	381
2.59033	371
2.59400	363
2.59767	360
2.60133	359
2.60500	355
2.60867	349
2.61233	343
2.61600	343
2.61967	348
2.62333	356
2.62700	359
2.63067	359
2.63433	359
2.63800	359
2.64167	357
2.64533	349
2.64900	338
2.65267	321
2.65633	306
2.66000	296
2.66367	292
2.66733	293
2.67100	301
2.67467	309
2.67833	316
2.68200	325
2.68567	335
2.68933	343
2.69300	347
2.69667	346
2.70033	343
2.70400	342
2.70767	341
2.71133	342
2.71500	344
2.71867	344
2.72233	346
2.72600	350
2.72967	352
2.73333	351
2.73700	351
2.74067	353
2.74433	353
2.74800	347
2.75167	341
2.75533	337
2.75900	335
2.76267	332
2.76633	328
2.77000	323
2.77367	322
2.77733	324
2.78100	332
2.78467	338
2.78833	341
2.79200	341
2.79567	342
2.79933	347
2.80300	353
2.80667	357
2.81033	360
2.81400	362
2.81767	360
2.82133	357
2.82500	355
2.82867	354
2.83233	355
2.83600	354
2.83967	352
2.84333	350
2.84700	349
2.85067	350
2.85433	354
2.85800	356
2.86167	356
2.86533	352
2.86900	346
2.87267	344
2.87633	343
2.88000	345
2.88367	349
2.88733	351
2.89100	352
2.89467	351
2.89833	348
2.90200	344
2.90567	343
2.90933	344
2.91300	344
2.91667	346
2.92033	348
2.92400	349
2.92767	348
2.93133	344
2.93500	341
2.93867	340
2.94233	340
2.94600	339
2.94967	340
2.95333	338
2.95700	341
2.96067	346
2.96433	349
2.96800	348
2.97167	346
2.97533	343
2.97900	342
2.98267	341
2.98633	342
2.99000	345
2.99367	352
2.99733	361
3.00100	367
3.00467	369
3.00833	369
3.01200	369
3.01567	370
3.01933	369
3.02300	366
3.02667	364
3.03033	360
3.03400	359
3.03767	359
3.04133	361
3.04500	364
3.04867	368
3.05233	375
3.05600	378
3.05967	376
3.06333	370
3.06700	361
3.07067	349
3.07433	339
3.07800	331
3.08167	327
3.08533	328
3.08900	332
3.09267	340
3.09633	347
3.10000	351
3.10367	352
3.10733	348
3.11100	344
3.11467	340
3.11833	333
3.12200	326
3.12567	322
3.12933	324
3.13300	330
3.13667	337
3.14033	343
3.14400	345
3.14767	346
3.15133	348
3.15500	352
3.15867	358
3.16233	362
3.16600	360
3.16967	354
3.17333	351
3.17700	348
3.18067	344
3.18433	344
3.18800	345
3.19167	345
3.19533	342
3.19900	338
3.20267	339
3.20633	340
3.21000	341
3.21367	343
3.21733	344
3.22100	342
3.22467	339
3.22833	338
3.23200	337
3.23567	337
3.23933	338
3.24300	342
3.24667	347
3.25033	352
3.25400	358
3.25767	361
3.26133	365
3.26500	368
3.26867	368
3.27233	363
3.27600	358
3.27967	355
3.28333	353
3.28700	352
3.29067	353
3.29433	358
3.29800	363
3.30167	364
3.30533	359
3.30900	354
3.31267	352
3.31633	350
3.32000	346
3.32367	342
3.32733	339
3.33100	337
3.33467	334
3.33833	332
3.34200	333
3.34567	336
3.34933	339
3.35300	340
3.35667	338
3.36033	334
3.36400	334
3.36767	335
3.37133	332
3.37500	324
3.37867	316
3.38233	312
3.38600	314
3.38967	321
3.39333	330
3.39700	337
3.40067	343
3.40433	350
3.40800	355
3.41167	358
3.41533	358
3.41900	356
3.42267	350
3.42633	342
3.43000	334
3.43367	328
3.43733	325
3.44100	322
3.44467	321
3.44833	322
3.45200	323
3.45567	326
3.45933	329
3.46300	332
3.46667	335
3.47033	337
3.47400	335
3.47767	332
3.48133	332
3.48500	335
3.48867	337
3.49233	339
3.49600	341
3.49967	341
3.50333	335
3.50700	328
3.51067	325
3.51433	329
3.51800	333
3.52167	332
3.52533	329
3.52900	329
3.53267	330
3.53633	329
3.54000	326
3.54367	325
3.54733	325
3.55100	325
3.55467	325
3.55833	322
3.56200	321
3.56567	322
3.56933	321
3.57300	318
3.57667	313
3.58033	307
3.58400	302
3.58767	302
3.59133	305
3.59500	310
3.59867	314
3.60233	318
3.60600	319
3.60967	318
3.61333	318
3.61700	319
3.62067	321
3.62433	324
3.62800	324
3.63167	323
3.63533	323
3.63900	324
3.64267	326
3.64633	327
3.65000	328
3.65367	327
3.65733	319
3.66100	311
3.66467	308
3.66833	311
3.67200	314
3.67567	316
3.67933	315
3.68300	314
3.68667	315
3.69033	319
3.69400	323
3.69767	324
3.70133	322
3.70500	320
3.70867	318
3.71233	313
3.71600	306
3.71967	302
3.72333	300
3.72700	301
3.73067	307
3.73433	313
3.73800	318
3.74167	323
3.74533	329
3.74900	331
3.75267	331
3.75633	329
3.76000	324
3.76367	318
3.76733	314
3.77100	311
3.77467	310
3.77833	306
3.78200	302
3.78567	298
3.78933	292
3.79300	288
3.79667	288
3.80033	293
3.80400	300
3.80767	308
3.81133	312
3.81500	314
3.81867	313
3.82233	309
3.82600	305
3.82967	303
3.83333	303
3.83700	300
3.84067	296
3.84433	294
3.84800	299
3.85167	308
3.85533	319
3.85900	325
3.86267	326
3.86633	322
3.87000	319
3.87367	319
3.87733	319
3.88100	316
3.88467	311
3.88833	306
3.89200	302
3.89567	299
3.89933	296
3.90300	295
3.90667	298
3.91033	302
3.91400	302
3.91767	302
3.92133	305
3.92500	314
3.92867	322
3.93233	323
3.93600	321
3.93967	319
3.94333	316
3.94700	311
3.95067	305
3.95433	301
3.95800	296
3.96167	293
3.96533	292
3.96900	293
3.97267	290
3.97633	286
3.98000	284
3.98367	282
3.98733	280
3.99100	282
3.99467	287
3.99833	294

[Chromatogram (Ch2)]
Interval(msec)	220
# of Points	1091
Start Time(min)	0.002
End Time(min)	3.998
R.Time (min)	Intensity
0.00167	0
0.00533	0
0.00900	0
0.01267	-0
0.01633	-0
0.02000	-0
0.02367	-0
0.02733	0
0.03100	1
0.03467	1
0.03833	1
0.04200	1
0.04567	1
0.04933	1
0.05300	0
0.05667	0
0.06033	0
0.06400	0
0.06767	-0
0.07133	0
0.07500	0
0.07867	0
0.08233	1
0.08600	1
0.08967	1
0.09333	2
0.09700	2
0.10067	2
0.10433	2
0.10800	2
0.11167	2
0.11533	1
0.11900	1
0.12267	1
0.12633	1
0.13000	0
0.13367	0
0.13733	0
0.14100	0
0.14467	0
0.14833	0
0.15200	0
0.15567	1
0.15933	1
0.16300	1
0.16667	2
0.17033	2
0.17400	2
0.17767	2
0.18133	2
0.18500	1
0.18867	1
0.19233	1
0.19600	1
0.19967	1
0.20333	1
0.20700	1
0.21067	1
0.21433	1
0.21800	1
0.22167	1
0.22533	1
0.22900	1
0.23267	0
0.23633	0
0.24000	0
0.24367	0
0.24733	0
0.25100	0
0.25467	1
0.25833	1
0.26200	1
0.26567	1
0.26933	1
0.27300	1
0.27667	1
0.28033	1
0.28400	1
0.28767	1
0.29133	1
0.29500	1
0.29867	1
0.30233	1
0.30600	1
0.30967	0
0.31333	0
0.31700	0
0.32067	0
0.32433	0
0.32800	0
0.33167	0
0.33533	0
0.33900	0
0.34267	0
0.34633	0
0.35000	0
0.35367	0
0.35733	-0
0.36100	-0
0.36467	-0
0.36833	-0
0.37200	-0
0.37567	-0
0.37933	-0
0.38300	-0
0.38667	0
0.39033	1
0.39400	1
0.39767	1
0.40133	1
0.40500	2
0.40867	2
0.41233	2
0.41600	2
0.41967	2
0.42333	2
0.42700	2
0.43067	2
0.43433	2
0.43800	2
0.44167	2
0.44533	2
0.44900	1
0.45267	1
0.45633	1
0.46000	1
0.46367	1
0.46733	1
0.47100	1
0.47467	1
0.47833	1
0.48200	1
0.48567	1
0.48933	1
0.49300	1
0.49667	1
0.50033	1
0.50400	1
0.50767	1
0.51133	1
0.51500	1
0.51867	1
0.52233	1
0.52600	1
0.52967	1
0.53333	1
0.53700	0
0.54067	0
0.54433	0
0.54800	0
0.55167	0
0.55533	1
0.55900	1
0.56267	0
0.56633	0
0.57000	-0
0.57367	-0
0.57733	-0
0.58100	-0
0.58467	-1
0.58833	-1
0.59200	-1
0.59567	-1
0.59933	-1
0.60300	-1
0.60667	-0
0.61033	-0
0.61400	0
0.61767	0
0.62133	0
0.62500	1
0.62867	0
0.63233	0
0.63600	-0
0.63967	-0
0.64333	-0
0.64700	-0
0.65067	-0
0.65433	-0
0.65800	-0
0.66167	-0
0.66533	-0
0.66900	-0
0.67267	-0
0.67633	-0
0.68000	0
0.68367	0
0.68733	1
0.69100	1
0.69467	1
0.69833	1
0.70200	1
0.70567	1
0.70933	0
0.71300	0
0.71667	0
0.72033	0
0.72400	0
0.72767	0
0.73133	0
0.73500	0
0.73867	0
0.74233	0
0.74600	0
0.74967	0
0.75333	0
0.75700	1
0.76067	1
0.76433	1
0.76800	1
0.77167	1
0.77533	1
0.77900	1
0.78267	1
0.78633	1
0.79000	1
0.79367	1
0.79733	1
0.80100	1
0.80467	1
0.80833	1
0.81200	1
0.81567	1
0.81933	1
0.82300	1
0.82667	1
0.83033	0
0.83400	-0
0.83767	-0
0.84133	-1
0.84500	-1
0.84867	-1
0.85233	-0
0.85600	-0
0.85967	-0
0.86333	-0
0.86700	-0
0.87067	-1
0.87433	-1
0.87800	-1
0.88167	-1
0.88533	-1
0.88900	-1
0.89267	-1
0.89633	-1
0.90000	-1
0.90367	-1
0.90733	-1
0.91100	-1
0.91467	-1
0.91833	-1
0.92200	-1
0.92567	-1
0.92933	-1
0.93300	-1
0.93667	-1
0.94033	-1
0.94400	-1
0.94767	-1
0.95133	-1
0.95500	-1
0.95867	-1
0.96233	-1
0.96600	-1
0.96967	-1
0.97333	-1
0.97700	-1
0.98067	-1
0.98433	-1
0.98800	-1
0.99167	-1
0.99533	-1
0.99900	-1
1.00267	-0
1.00633	-0
1.01000	-0
1.01367	0
1.01733	0
1.02100	0
1.02467	1
1.02833	1
1.03200	1
1.03567	1
1.03933	1
1.04300	1
1.04667	0
1.05033	1
1.05400	1
1.05767	1
1.06133	1
1.06500	1
1.06867	1
1.07233	1
1.07600	1
1.07967	1
1.08333	1
1.08700	1
1.09067	1
1.09433	1
1.09800	1
1.10167	1
1.10533	0
1.10900	0
1.11267	0
1.11633	0
1.12000	-0
1.12367	-0
1.12733	-1
1.13100	-1
1.13467	-1
1.13833	-1
1.14200	-1
1.14567	-1
1.14933	-1
1.15300	-1
1.15667	-1
1.16033	-1
1.16400	-1
1.16767	-1
1.17133	-2
1.17500	-2
1.17867	-2
1.18233	-2
1.18600	-2
1.18967	-2
1.19333	-2
1.19700	-1
1.20067	-1
1.20433	-1
1.20800	-1
1.21167	-1
1.21533	-1
1.21900	-1
1.22267	-1
1.22633	-1
1.23000	-0
1.23367	-0
1.23733	-0
1.24100	-0
1.24467	0
1.24833	0
1.25200	-0
1.25567	-0
1.25933	-0
1.26300	-0
1.26667	0
1.27033	0
1.27400	0
1.27767	0
1.28133	0
1.28500	0
1.28867	0
1.29233	0
1.29600	0
1.29967	0
1.30333	0
1.30700	0
1.31067	0
1.31433	-0
1.31800	-0
1.32167	-1
1.32533	-1
1.32900	-1
1.33267	-2
1.33633	-2
1.34000	-2
1.34367	-2
1.34733	-2
1.35100	-1
1.35467	-1
1.35833	-1
1.36200	-1
1.36567	-1
1.36933	-0
1.37300	0
1.37667	0
1.38033	1
1.38400	1
1.38767	1
1.39133	1
1.39500	1
1.39867	1
1.40233	0
1.40600	0
1.40967	0
1.41333	0
1.41700	0
1.42067	0
1.42433	0
1.42800	0
1.43167	0
1.43533	0
1.43900	0
1.44267	0
1.44633	1
1.45000	1
1.45367	1
1.45733	1
1.46100	1
1.46467	1
1.46833	2
1.47200	2
1.47567	2
1.47933	2
1.48300	2
1.48667	2
1.49033	2
1.49400	1
1.49767	2
1.50133	2
1.50500	2
1.50867	1
1.51233	1
1.51600	1
1.51967	1
1.52333	1
1.52700	0
1.53067	0
1.53433	0
1.53800	0
1.54167	0
1.54533	-0
1.54900	-0
1.55267	-0
1.55633	-0
1.56000	-0
1.56367	-0
1.56733	-0
1.57100	-0
1.57467	0
1.57833	0
1.58200	0
1.58567	0
1.58933	0
1.59300	0
1.59667	0
1.60033	-0
1.60400	-1
1.60767	-2
1.61133	-3
1.61500	-5
1.61867	-7
1.62233	-9
1.62600	-12
1.62967	-15
1.63333	-18
1.63700	-22
1.64067	-25
1.64433	-29
1.64800	-33
1.65167	-36
1.65533	-40
1.65900	-44
1.66267	-48
1.66633	-53
1.67000	-57
1.67367	-63
1.67733	-68
1.68100	-74
1.68467	-79
1.68833	-84
1.69200	-88
1.69567	-92
1.69933	-95
1.70300	-98
1.70667	-100
1.71033	-102
1.71400	-104
1.71767	-105
1.72133	-106
1.72500	-107
1.72867	-108
1.73233	-108
1.73600	-109
1.73967	-109
1.74333	-110
1.74700	-110
1.75067	-111
1.75433	-112
1.75800	-113
1.76167	-114
1.76533	-115
1.76900	-116
1.77267	-116
1.77633	-116
1.78000	-116
1.78367	-116
1.78733	-116
1.79100	-116
1.79467	-116
1.79833	-117
1.80200	-117
1.80567	-117
1.80933	-118
1.81300	-118
1.81667	-119
1.82033	-119
1.82400	-119
1.82767	-119
1.83133	-119
1.83500	-119
1.83867	-119
1.84233	-119
1.84600	-118
1.84967	-118
1.85333	-118
1.85700	-118
1.86067	-118
1.86433	-118
1.86800	-118
1.87167	-118
1.87533	-118
1.87900	-118
1.88267	-118
1.88633	-117
1.89000	-117
1.89367	-116
1.89733	-116
1.90100	-116
1.90467	-116
1.90833	-116
1.91200	-116
1.91567	-116
1.91933	-116
1.92300	-116
1.92667	-115
1.93033	-115
1.93400	-115
1.93767	-115
1.94133	-114
1.94500	-114
1.94867	-114
1.95233	-114
1.95600	-113
1.95967	-113
1.96333	-113
1.96700	-113
1.97067	-112
1.97433	-112
1.97800	-112
1.98167	-112
1.98533	-112
1.98900	-112
1.99267	-111
1.99633	-111
2.00000	-111
2.00367	-110
2.00733	-110
2.01100	-110
2.01467	-110
2.01833	-110
2.02200	-110
2.02567	-110
2.02933	-109
2.03300	-109
2.03667	-108
2.04033	-107
2.04400	-106
2.04767	-105
2.05133	-105
2.05500	-105
2.05867	-106
2.06233	-105
2.06600	-105
2.06967	-104
2.07333	-104
2.07700	-103
2.08067	-102
2.08433	-102
2.08800	-101
2.09167	-101
2.09533	-102
2.09900	-102
2.10267	-102
2.10633	-101
2.11000	-101
2.11367	-101
2.11733	-100
2.12100	-100
2.12467	-100
2.12833	-100
2.13200	-99
2.13567	-99
2.13933	-98
2.14300	-98
2.14667	-98
2.15033	-98
2.15400	-98
2.15767	-98
2.16133	-98
2.16500	-98
2.16867	-98
2.17233	-97
2.17600	-97
2.17967	-96
2.18333	-96
2.18700	-96
2.19067	-95
2.19433	-95
2.19800	-94
2.20167	-93
2.20533	-93
2.20900	-93
2.21267	-93
2.21633	-93
2.22000	-92
2.22367	-92
2.22733	-91
2.23100	-91
2.23467	-90
2.23833	-90
2.24200	-90
2.24567	-90
2.24933	-90
2.25300	-89
2.25667	-89
2.26033	-89
2.26400	-89
2.26767	-89
2.27133	-89
2.27500	-88
2.27867	-88
2.28233	-88
2.28600	-87
2.28967	-87
2.29333	-86
2.29700	-86
2.30067	-86
2.30433	-86
2.30800	-85
2.31167	-85
2.31533	-84
2.31900	-83
2.32267	-83
2.32633	-82
2.33000	-82
2.33367	-82
2.33733	-81
2.34100	-81
2.34467	-81
2.34833	-81
2.35200	-81
2.35567	-81
2.35933	-82
2.36300	-82
2.36667	-81
2.37033	-80
2.37400	-78
2.37767	-76
2.38133	-73
2.38500	-70
2.38867	-67
2.39233	-63
2.39600	-58
2.39967	-53
2.40333	-48
2.40700	-43
2.41067	-39
2.41433	-34
2.41800	-30
2.42167	-26
2.42533	-23
2.42900	-20
2.43267	-17
2.43633	-14
2.44000	-12
2.44367	-10
2.44733	-7
2.45100	-6
2.45467	-4
2.45833	-2
2.46200	-1
2.46567	0
2.46933	2
2.47300	3
2.47667	4
2.48033	5
2.48400	6
2.48767	7
2.49133	8
2.49500	9
2.49867	10
2.50233	10
2.50600	11
2.50967	11
2.51333	12
2.51700	13
2.52067	14
2.52433	15
2.52800	15
2.53167	15
2.53533	15
2.53900	15
2.54267	15
2.54633	15
2.55000	16
2.55367	16
2.55733	17
2.56100	18
2.56467	19
2.56833	20
2.57200	21
2.57567	21
2.57933	21
2.58300	22
2.58667	22
2.59033	22
2.59400	22
2.59767	22
2.60133	21
2.60500	21
2.60867	21
2.61233	21
2.61600	21
2.61967	21
2.62333	22
2.62700	22
2.63067	22
2.63433	22
2.63800	22
2.64167	23
2.64533	23
2.64900	23
2.65267	23
2.65633	23
2.66000	24
2.66367	24
2.66733	24
2.67100	25
2.67467	25
2.67833	25
2.68200	26
2.68567	27
2.68933	27
2.69300	28
2.69667	29
2.70033	29
2.70400	30
2.70767	30
2.71133	30
2.71500	29
2.71867	29
2.72233	28
2.72600	28
2.72967	28
2.73333	29
2.73700	29
2.74067	29
2.74433	29
2.74800	28
2.75167	28
2.75533	29
2.75900	29
2.76267	29
2.76633	29
2.77000	29
2.77367	29
2.77733	30
2.78100	30
2.78467	30
2.78833	30
2.79200	30
2.79567	31
2.79933	31
2.80300	31
2.80667	30
2.81033	30
2.81400	29
2.81767	29
2.82133	29
2.82500	28
2.82867	28
2.83233	29
2.83600	29
2.83967	29
2.84333	29
2.84700	29
2.85067	27
2.85433	25
2.85800	20
2.86167	14
2.86533	4
2.86900	-10
2.87267	-27
2.87633	-47
2.88000	-72
2.88367	-100
2.88733	-132
2.89100	-168
2.89467	-207
2.89833	-248
2.90200	-293
2.90567	-339
2.90933	-387
2.91300	-436
2.91667	-486
2.92033	-536
2.92400	-586
2.92767	-636
2.93133	-686
2.93500	-736
2.93867	-784
2.94233	-835
2.94600	-889
2.94967	-949
2.95333	-1009
2.95700	-1060
2.96067	-1091
2.96433	-1095
2.96800	-1073
2.97167	-1029
2.97533	-967
2.97900	-895
2.98267	-815
2.98633	-735
2.99000	-655
2.99367	-579
2.99733	-507
3.00100	-442
3.00467	-383
3.00833	-330
3.01200	-283
3.01567	-242
3.01933	-206
3.02300	-174
3.02667	-147
3.03033	-123
3.03400	-103
3.03767	-85
3.04133	-70
3.04500	-57
3.04867	-45
3.05233	-36
3.05600	-28
3.05967	-21
3.06333	-15
3.06700	-10
3.07067	-5
3.07433	-2
3.07800	1
3.08167	4
3.08533	7
3.08900	9
3.09267	11
3.09633	12
3.10000	13
3.10367	14
3.10733	15
3.11100	16
3.11467	17
3.11833	18
3.12200	18
3.12567	19
3.12933	20
3.13300	20
3.13667	20
3.14033	20
3.14400	21
3.14767	21
3.15133	21
3.15500	21
3.15867	22
3.16233	22
3.16600	22
3.16967	22
3.17333	23
3.17700	23
3.18067	23
3.18433	23
3.18800	23
3.19167	24
3.19533	24
3.19900	24
3.20267	24
3.20633	25
3.21000	25
3.21367	25
3.21733	25
3.22100	25
3.22467	26
3.22833	26
3.23200	26
3.23567	26
3.23933	26
3.24300	27
3.24667	27
3.25033	27
3.25400	28
3.25767	28
3.26133	29
3.26500	29
3.26867	29
3.27233	30
3.27600	30
3.27967	30
3.28333	30
3.28700	31
3.29067	31
3.29433	31
3.29800	31
3.30167	31
3.30533	32
3.30900	32
3.31267	32
3.31633	32
3.32000	33
3.32367	33
3.32733	33
3.33100	33
3.33467	33
3.33833	33
3.34200	33
3.34567	33
3.34933	33
3.35300	33
3.35667	32
3.36033	32
3.36400	32
3.36767	32
3.37133	33
3.37500	33
3.37867	33
3.38233	33
3.38600	33
3.38967	33
3.39333	33
3.39700	33
3.40067	32
3.40433	32
3.40800	32
3.41167	32
3.41533	32
3.41900	32
3.42267	32
3.42633	32
3.43000	32
3.43367	32
3.43733	32
3.44100	32
3.44467	32
3.44833	32
3.45200	32
3.45567	32
3.45933	32
3.46300	32
3.46667	32
3.47033	32
3.47400	32
3.47767	32
3.48133	32
3.48500	32
3.48867	32
3.49233	32
3.49600	32
3.49967	32
3.50333	32
3.50700	32
3.51067	32
3.51433	32
3.51800	32
3.52167	32
3.52533	32
3.52900	32
3.53267	32
3.53633	32
3.54000	32
3.54367	32
3.54733	32
3.55100	32
3.55467	32
3.55833	32
3.56200	32
3.56567	32
3.56933	32
3.57300	33
3.57667	33
3.58033	33
3.58400	33
3.58767	33
3.59133	33
3.59500	33
3.59867	33
3.60233	33
3.60600	33
3.60967	33
3.61333	33
3.61700	33
3.62067	33
3.62433	32
3.62800	32
3.63167	32
3.63533	32
3.63900	32
3.64267	32
3.64633	32
3.65000	32
3.65367	32
3.65733	32
3.66100	32
3.66467	32
3.66833	32
3.67200	33
3.67567	32
3.67933	32
3.68300	32
3.68667	32
3.69033	32
3.69400	32
3.69767	32
3.70133	32
3.70500	32
3.70867	32
3.71233	32
3.71600	32
3.71967	32
3.72333	32
3.72700	32
3.73067	32
3.73433	32
3.73800	32
3.74167	32
3.74533	32
3.74900	32
3.75267	32
3.75633	32
3.76000	32
3.76367	32
3.76733	32
3.77100	32
3.77467	32
3.77833	32
3.78200	32
3.78567	32
3.78933	32
3.79300	32
3.79667	32
3.80033	32
3.80400	32
3.80767	32
3.81133	32
3.81500	33
3.81867	33
3.82233	33
3.82600	33
3.82967	33
3.83333	34
3.83700	34
3.84067	34
3.84433	34
3.84800	34
3.85167	34
3.85533	34
3.85900	34
3.86267	35
3.86633	35
3.87000	35
3.87367	35
3.87733	35
3.88100	35
3.88467	35
3.88833	36
3.89200	36
3.89567	36
3.89933	36
3.90300	36
3.90667	36
3.91033	36
3.91400	36
3.91767	36
3.92133	35
3.92500	35
3.92867	35
3.93233	34
3.93600	34
3.93967	34
3.94333	33
3.94700	33
3.95067	33
3.95433	33
3.95800	33
3.96167	33
3.96533	33
3.96900	33
3.97267	33
3.97633	33
3.98000	33
3.98367	34
3.98733	34
3.99100	33
3.99467	33
3.99833	33

[Chromatogram (Ch3)]
Interval(msec)	220
# of Points	1091
Start Time(min)	0.002
End Time(min)	3.998
R.Time (min)	Intensity
0.00167	1
0.00533	1
0.00900	1
0.01267	0
0.01633	-0
0.02000	1
0.02367	4
0.02733	6
0.03100	6
0.03467	4
0.03833	5
0.04200	4
0.04567	2
0.04933	1
0.05300	0
0.05667	2
0.06033	3
0.06400	5
0.06767	5
0.07133	6
0.07500	4
0.07867	3
0.08233	3
0.08600	3
0.08967	3
0.09333	2
0.09700	1
0.10067	0
0.10433	0
0.10800	-0
0.11167	0
0.11533	2
0.11900	3
0.12267	4
0.12633	4
0.13000	5
0.13367	4
0.13733	3
0.14100	4
0.14467	7
0.14833	9
0.15200	10
0.15567	9
0.15933	6
0.16300	7
0.16667	5
0.17033	4
0.17400	4
0.17767	5
0.18133	5
0.18500	3
0.18867	3
0.19233	2
0.19600	-0
0.19967	-2
0.20333	-0
0.20700	2
0.21067	4
0.21433	3
0.21800	3
0.22167	3
0.22533	4
0.22900	6
0.23267	5
0.23633	1
0.24000	-1
0.24367	-0
0.24733	-2
0.25100	-4
0.25467	-2
0.25833	-2
0.26200	-4
0.26567	-4
0.26933	-2
0.27300	-3
0.27667	-2
0.28033	-0
0.28400	2
0.28767	2
0.29133	-0
0.29500	-0
0.29867	-0
0.30233	-2
0.30600	-1
0.30967	0
0.31333	-0
0.31700	-1
0.32067	-1
0.32433	-2
0.32800	-0
0.33167	1
0.33533	2
0.33900	6
0.34267	7
0.34633	6
0.35000	4
0.35367	3
0.35733	5
0.36100	6
0.36467	6
0.36833	5
0.37200	6
0.37567	4
0.37933	4
0.38300	5
0.38667	4
0.39033	4
0.39400	6
0.39767	6
0.40133	7
0.40500	6
0.40867	5
0.41233	7
0.41600	6
0.41967	5
0.42333	4
0.42700	4
0.43067	3
0.43433	3
0.43800	4
0.44167	4
0.44533	5
0.44900	5
0.45267	4
0.45633	3
0.46000	2
0.46367	2
0.46733	2
0.47100	5
0.47467	7
0.47833	6
0.48200	5
0.48567	6
0.48933	7
0.49300	9
0.49667	10
0.50033	7
0.50400	4
0.50767	3
0.51133	4
0.51500	6
0.51867	5
0.52233	5
0.52600	4
0.52967	3
0.53333	1
0.53700	1
0.54067	2
0.54433	3
0.54800	5
0.55167	7
0.55533	9
0.55900	9
0.56267	7
0.56633	4
0.57000	2
0.57367	2
0.57733	2
0.58100	4
0.58467	4
0.58833	5
0.59200	6
0.59567	7
0.59933	7
0.60300	7
0.60667	7
0.61033	6
0.61400	5
0.61767	6
0.62133	5
0.62500	4
0.62867	5
0.63233	6
0.63600	5
0.63967	4
0.64333	3
0.64700	3
0.65067	3
0.65433	1
0.65800	0
0.66167	2
0.66533	1
0.66900	1
0.67267	3
0.67633	3
0.68000	4
0.68367	6
0.68733	4
0.69100	3
0.69467	4
0.69833	6
0.70200	5
0.70567	5
0.70933	5
0.71300	6
0.71667	7
0.72033	8
0.72400	6
0.72767	3
0.73133	0
0.73500	-3
0.73867	-3
0.74233	-2
0.74600	1
0.74967	1
0.75333	-0
0.75700	-1
0.76067	-2
0.76433	-3
0.76800	-4
0.77167	-5
0.77533	-5
0.77900	-2
0.78267	-0
0.78633	0
0.79000	-0
0.79367	1
0.79733	3
0.80100	3
0.80467	5
0.80833	6
0.81200	6
0.81567	5
0.81933	5
0.82300	4
0.82667	4
0.83033	5
0.83400	6
0.83767	5
0.84133	4
0.84500	3
0.84867	2
0.85233	2
0.85600	2
0.85967	2
0.86333	0
0.86700	-1
0.87067	-1
0.87433	-1
0.87800	-1
0.88167	1
0.88533	2
0.88900	3
0.89267	5
0.89633	6
0.90000	7
0.90367	9
0.90733	10
0.91100	10
0.91467	10
0.91833	10
0.92200	8
0.92567	5
0.92933	1
0.93300	0
0.93667	0
0.94033	2
0.94400	3
0.94767	3
0.95133	3
0.95500	2
0.95867	1
0.96233	2
0.96600	3
0.96967	5
0.97333	5
0.97700	4
0.98067	3
0.98433	2
0.98800	1
0.99167	0
0.99533	1
0.99900	2
1.00267	3
1.00633	2
1.01000	2
1.01367	3
1.01733	3
1.02100	2
1.02467	1
1.02833	4
1.03200	4
1.03567	3
1.03933	2
1.04300	1
1.04667	-0
1.05033	-1
1.05400	-0
1.05767	1
1.06133	1
1.06500	-1
1.06867	-3
1.07233	-2
1.07600	1
1.07967	2
1.08333	3
1.08700	4
1.09067	5
1.09433	5
1.09800	5
1.10167	4
1.10533	2
1.10900	1
1.11267	-0
1.11633	-2
1.12000	-4
1.12367	-5
1.12733	-3
1.13100	-1
1.13467	-0
1.13833	1
1.14200	1
1.14567	1
1.14933	2
1.15300	3
1.15667	1
1.16033	2
1.16400	3
1.16767	2
1.17133	1
1.17500	0
1.17867	-1
1.18233	-2
1.18600	-2
1.18967	-1
1.19333	0
1.19700	-1
1.20067	-1
1.20433	0
1.20800	-2
1.21167	-4
1.21533	-4
1.21900	-5
1.22267	-3
1.22633	-1
1.23000	-1
1.23367	-1
1.23733	1
1.24100	0
1.24467	-4
1.24833	-6
1.25200	-5
1.25567	-2
1.25933	-1
1.26300	1
1.26667	0
1.27033	-3
1.27400	-3
1.27767	-2
1.28133	-3
1.28500	-4
1.28867	-3
1.29233	-1
1.29600	-0
1.29967	1
1.30333	2
1.30700	4
1.31067	4
1.31433	1
1.31800	-2
1.32167	-2
1.32533	-1
1.32900	1
1.33267	1
1.33633	-1
1.34000	-0
1.34367	-1
1.34733	-2
1.35100	-0
1.35467	-0
1.35833	-0
1.36200	1
1.36567	2
1.36933	0
1.37300	-1
1.37667	-1
1.38033	-1
1.38400	-0
1.38767	0
1.39133	0
1.39500	2
1.39867	6
1.40233	8
1.40600	9
1.40967	10
1.41333	9
1.41700	6
1.42067	5
1.42433	4
1.42800	1
1.43167	-0
1.43533	-2
1.43900	-5
1.44267	-4
1.44633	-2
1.45000	-0
1.45367	2
1.45733	2
1.46100	-0
1.46467	-2
1.46833	-2
1.47200	-2
1.47567	-3
1.47933	-4
1.48300	-5
1.48667	-5
1.49033	-3
1.49400	-3
1.49767	-3
1.50133	1
1.50500	5
1.50867	6
1.51233	6
1.51600	5
1.51967	5
1.52333	4
1.52700	2
1.53067	2
1.53433	4
1.53800	4
1.54167	0
1.54533	-2
1.54900	-1
1.55267	0
1.55633	2
1.56000	1
1.56367	-0
1.56733	-1
1.57100	-2
1.57467	-1
1.57833	1
1.58200	4
1.58567	3
1.58933	2
1.59300	2
1.59667	1
1.60033	1
1.60400	3
1.60767	3
1.61133	3
1.61500	2
1.61867	-1
1.62233	-0
1.62600	3
1.62967	6
1.63333	9
1.63700	9
1.64067	9
1.64433	7
1.64800	7
1.65167	8
1.65533	8
1.65900	8
1.66267	9
1.66633	11
1.67000	12
1.67367	14
1.67733	17
1.68100	20
1.68467	20
1.68833	19
1.69200	18
1.69567	18
1.69933	19
1.70300	18
1.70667	18
1.71033	18
1.71400	19
1.71767	19
1.72133	18
1.72500	17
1.72867	19
1.73233	22
1.73600	26
1.73967	27
1.74333	25
1.74700	23
1.75067	23
1.75433	24
1.75800	26
1.76167	27
1.76533	28
1.76900	28
1.77267	28
1.77633	28
1.78000	30
1.78367	30
1.78733	30
1.79100	31
1.79467	31
1.79833	31
1.80200	30
1.80567	29
1.80933	30
1.81300	33
1.81667	35
1.82033	36
1.82400	38
1.82767	38
1.83133	36
1.83500	35
1.83867	34
1.84233	34
1.84600	32
1.84967	30
1.85333	30
1.85700	32
1.86067	34
1.86433	36
1.86800	35
1.87167	34
1.87533	35
1.87900	36
1.88267	35
1.88633	35
1.89000	36
1.89367	35
1.89733	35
1.90100	35
1.90467	33
1.90833	31
1.91200	30
1.91567	31
1.91933	32
1.92300	35
1.92667	36
1.93033	39
1.93400	40
1.93767	41
1.94133	43
1.94500	42
1.94867	42
1.95233	44
1.95600	46
1.95967	47
1.96333	46
1.96700	45
1.97067	45
1.97433	44
1.97800	46
1.98167	47
1.98533	48
1.98900	48
1.99267	51
1.99633	52
2.00000	53
2.00367	55
2.00733	56
2.01100	55
2.01467	56
2.01833	56
2.02200	56
2.02567	56
2.02933	56
2.03300	58
2.03667	60
2.04033	61
2.04400	60
2.04767	61
2.05133	64
2.05500	64
2.05867	66
2.06233	68
2.06600	68
2.06967	67
2.07333	68
2.07700	69
2.08067	70
2.08433	70
2.08800	68
2.09167	69
2.09533	70
2.09900	71
2.10267	75
2.10633	76
2.11000	76
2.11367	75
2.11733	75
2.12100	77
2.12467	79
2.12833	79
2.13200	79
2.13567	79
2.13933	80
2.14300	84
2.14667	85
2.15033	87
2.15400	89
2.15767	89
2.16133	89
2.16500	92
2.16867	95
2.17233	98
2.17600	102
2.17967	103
2.18333	103
2.18700	103
2.19067	102
2.19433	102
2.19800	105
2.20167	107
2.20533	112
2.20900	114
2.21267	115
2.21633	114
2.22000	113
2.22367	112
2.22733	113
2.23100	116
2.23467	116
2.23833	114
2.24200	112
2.24567	112
2.24933	115
2.25300	121
2.25667	124
2.26033	126
2.26400	127
2.26767	127
2.27133	128
2.27500	127
2.27867	127
2.28233	127
2.28600	126
2.28967	127
2.29333	128
2.29700	127
2.30067	127
2.30433	129
2.30800	130
2.31167	131
2.31533	132
2.31900	133
2.32267	136
2.32633	139
2.33000	142
2.33367	145
2.33733	145
2.34100	145
2.34467	147
2.34833	150
2.35200	151
2.35567	151
2.35933	150
2.36300	150
2.36667	151
2.37033	152
2.37400	154
2.37767	155
2.38133	158
2.38500	158
2.38867	156
2.39233	155
2.39600	157
2.39967	159
2.40333	161
2.40700	163
2.41067	165
2.41433	167
2.41800	168
2.42167	169
2.42533	172
2.42900	175
2.43267	176
2.43633	176
2.44000	176
2.44367	187
2.44733	214
2.45100	245
2.45467	274
2.45833	290
2.46200	292
2.46567	285
2.46933	282
2.47300	279
2.47667	278
2.48033	271
2.48400	260
2.48767	251
2.49133	244
2.49500	239
2.49867	234
2.50233	233
2.50600	233
2.50967	234
2.51333	238
2.51700	240
2.52067	243
2.52433	245
2.52800	247
2.53167	245
2.53533	243
2.53900	239
2.54267	232
2.54633	226
2.55000	222
2.55367	219
2.55733	215
2.56100	213
2.56467	211
2.56833	209
2.57200	209
2.57567	210
2.57933	212
2.58300	212
2.58667	211
2.59033	211
2.59400	211
2.59767	212
2.60133	209
2.60500	195
2.60867	176
2.61233	152
2.61600	122
2.61967	87
2.62333	49
2.62700	11
2.63067	-24
2.63433	-54
2.63800	-83
2.64167	-106
2.64533	-122
2.64900	-133
2.65267	-140
2.65633	-142
2.66000	-141
2.66367	-140
2.66733	-137
2.67100	-130
2.67467	-120
2.67833	-110
2.68200	-99
2.68567	-88
2.68933	-78
2.69300	-66
2.69667	-57
2.70033	-47
2.70400	-37
2.70767	-28
2.71133	-17
2.71500	-6
2.71867	4
2.72233	12
2.72600	21
2.72967	31
2.73333	40
2.73700	49
2.74067	57
2.74433	64
2.74800	73
2.75167	80
2.75533	85
2.75900	91
2.76267	98
2.76633	103
2.77000	107
2.77367	113
2.77733	118
2.78100	123
2.78467	128
2.78833	133
2.79200	138
2.79567	139
2.79933	141
2.80300	146
2.80667	153
2.81033	158
2.81400	160
2.81767	163
2.82133	167
2.82500	174
2.82867	188
2.83233	216
2.83600	275
2.83967	384
2.84333	568
2.84700	849
2.85067	1242
2.85433	1747
2.85800	2343
2.86167	2994
2.86533	3654
2.86900	4271
2.87267	4796
2.87633	5192
2.88000	5432
2.88367	5512
2.88733	5447
2.89100	5256
2.89467	4971
2.89833	4628
2.90200	4250
2.90567	3858
2.90933	3472
2.91300	3106
2.91667	2766
2.92033	2454
2.92400	2171
2.92767	1916
2.93133	1692
2.93500	1495
2.93867	1320
2.94233	1167
2.94600	1034
2.94967	921
2.95333	823
2.95700	736
2.96067	662
2.96433	597
2.96800	540
2.97167	490
2.97533	446
2.97900	410
2.98267	380
2.98633	356
2.99000	334
2.99367	315
2.99733	300
3.00100	284
3.00467	270
3.00833	261
3.01200	252
3.01567	245
3.01933	239
3.02300	232
3.02667	227
3.03033	221
3.03400	215
3.03767	212
3.04133	211
3.04500	209
3.04867	207
3.05233	206
3.05600	205
3.05967	204
3.06333	201
3.06700	198
3.07067	196
3.07433	195
3.07800	194
3.08167	193
3.08533	193
3.08900	191
3.09267	190
3.09633	189
3.10000	188
3.10367	190
3.10733	190
3.11100	191
3.11467	192
3.11833	191
3.12200	189
3.12567	187
3.12933	185
3.13300	183
3.13667	181
3.14033	182
3.14400	180
3.14767	177
3.15133	177
3.15500	177
3.15867	176
3.16233	176
3.16600	178
3.16967	179
3.17333	179
3.17700	179
3.18067	181
3.18433	180
3.18800	179
3.19167	178
3.19533	178
3.19900	176
3.20267	174
3.20633	174
3.21000	174
3.21367	175
3.21733	176
3.22100	176
3.22467	176
3.22833	175
3.23200	175
3.23567	172
3.23933	171
3.24300	171
3.24667	173
3.25033	174
3.25400	174
3.25767	175
3.26133	175
3.26500	174
3.26867	171
3.27233	168
3.27600	165
3.27967	163
3.28333	163
3.28700	162
3.29067	161
3.29433	161
3.29800	159
3.30167	157
3.30533	154
3.30900	153
3.31267	153
3.31633	154
3.32000	154
3.32367	150
3.32733	148
3.33100	145
3.33467	142
3.33833	142
3.34200	142
3.34567	140
3.34933	138
3.35300	135
3.35667	133
3.36033	130
3.36400	129
3.36767	129
3.37133	128
3.37500	126
3.37867	124
3.38233	124
3.38600	122
3.38967	121
3.39333	117
3.39700	113
3.40067	111
3.40433	107
3.40800	105
3.41167	101
3.41533	99
3.41900	97
3.42267	95
3.42633	95
3.43000	95
3.43367	95
3.43733	94
3.44100	90
3.44467	85
3.44833	82
3.45200	82
3.45567	82
3.45933	78
3.46300	76
3.46667	73
3.47033	68
3.47400	62
3.47767	59
3.48133	58
3.48500	59
3.48867	59
3.49233	58
3.49600	55
3.49967	52
3.50333	50
3.50700	51
3.51067	52
3.51433	50
3.51800	49
3.52167	50
3.52533	51
3.52900	48
3.53267	44
3.53633	41
3.54000	37
3.54367	34
3.54733	33
3.55100	31
3.55467	29
3.55833	29
3.56200	29
3.56567	26
3.56933	22
3.57300	22
3.57667	22
3.58033	20
3.58400	19
3.58767	18
3.59133	17
3.59500	17
3.59867	17
3.60233	15
3.60600	13
3.60967	12
3.61333	10
3.61700	9
3.62067	7
3.62433	4
3.62800	2
3.63167	3
3.63533	4
3.63900	5
3.64267	5
3.64633	5
3.65000	4
3.65367	2
3.65733	-1
3.66100	-4
3.66467	-8
3.66833	-10
3.67200	-11
3.67567	-13
3.67933	-15
3.68300	-17
3.68667	-17
3.69033	-21
3.69400	-22
3.69767	-22
3.70133	-21
3.70500	-20
3.70867	-19
3.71233	-20
3.71600	-21
3.71967	-20
3.72333	-21
3.72700	-21
3.73067	-21
3.73433	-22
3.73800	-23
3.74167	-25
3.74533	-24
3.74900	-23
3.75267	-22
3.75633	-24
3.76000	-26
3.76367	-29
3.76733	-30
3.77100	-28
3.77467	-27
3.77833	-29
3.78200	-30
3.78567	-31
3.78933	-34
3.79300	-35
3.79667	-35
3.80033	-35
3.80400	-34
3.80767	-36
3.81133	-35
3.81500	-35
3.81867	-35
3.82233	-35
3.82600	-35
3.82967	-34
3.83333	-33
3.83700	-33
3.84067	-33
3.84433	-34
3.84800	-33
3.85167	-33
3.85533	-33
3.85900	-36
3.86267	-39
3.86633	-40
3.87000	-42
3.87367	-42
3.87733	-43
3.88100	-44
3.88467	-43
3.88833	-42
3.89200	-43
3.89567	-43
3.89933	-44
3.90300	-46
3.90667	-45
3.91033	-44
3.91400	-43
3.91767	-43
3.92133	-43
3.92500	-45
3.92867	-45
3.93233	-45
3.93600	-44
3.93967	-45
3.94333	-46
3.94700	-45
3.95067	-43
3.95433	-43
3.95800	-42
3.96167	-41
3.96533	-42
3.96900	-44
3.97267	-47
3.97633	-47
3.98000	-45
3.98367	-42
3.98733	-40
3.99100	-39
3.99467	-39
3.99833	-40

[Status Trace (Column Oven Temperature)]
Interval(msec)	1000
# of Points	240
Start Time(min)	0.005
End Time(min)	3.988
Intensity Units	
Intensity Multiplier	1
R.Time (min)	Intensity
0.00508	35.02
0.02175	35.01
0.03842	35.02
0.05508	35.02
0.07175	35.02
0.08842	35.01
0.10508	35.00
0.12175	35.00
0.13842	35.00
0.15508	34.99
0.17175	35.00
0.18842	34.99
0.20508	35.00
0.22175	35.00
0.23842	35.00
0.25508	35.00
0.27175	35.00
0.28842	35.00
0.30508	35.01
0.32175	35.01
0.33842	35.01
0.35508	35.01
0.37175	35.01
0.38842	35.02
0.40508	35.01
0.42175	35.00
0.43842	34.99
0.45508	34.98
0.47175	34.98
0.48842	34.98
0.50508	34.99
0.52175	34.98
0.53842	34.98
0.55508	34.99
0.57175	34.99
0.58842	35.00
0.60508	35.00
0.62175	35.01
0.63842	35.01
0.65508	35.00
0.67175	35.00
0.68842	35.00
0.70508	35.00
0.72175	35.01
0.73842	35.00
0.75508	35.00
0.77175	34.99
0.78842	34.99
0.80508	34.99
0.82175	34.99
0.83842	34.99
0.85508	34.99
0.87175	35.00
0.88842	35.00
0.90508	35.00
0.92175	35.00
0.93842	35.01
0.95508	35.01
0.97175	35.00
0.98842	35.00
1.00508	35.00
1.02175	35.00
1.03842	34.99
1.05508	34.98
1.07175	34.98
1.08842	34.98
1.10508	34.98
1.12175	34.98
1.13842	34.98
1.15508	34.99
1.17175	34.99
1.18842	35.00
1.20508	35.00
1.22175	35.00
1.23842	35.00
1.25508	35.00
1.27175	35.01
1.28842	35.02
1.30508	35.01
1.32175	35.02
1.33842	35.02
1.35508	35.02
1.37175	35.02
1.38842	35.01
1.40508	35.01
1.42175	35.01
1.43842	35.01
1.45508	35.01
1.47175	35.01
1.48842	35.00
1.50508	35.01
1.52175	35.02
1.53842	35.02
1.55508	35.01
1.57175	35.01
1.58842	35.02
1.60508	35.05
1.62175	35.15
1.63842	35.33
1.65508	35.57
1.67175	35.89
1.68842	36.25
1.70508	36.61
1.72175	36.95
1.73842	37.28
1.75508	37.62
1.77175	37.96
1.78842	38.28
1.80508	38.60
1.82175	38.95
1.83842	39.28
1.85508	39.62
1.87175	39.96
1.88842	40.27
1.90508	40.60
1.92175	40.93
1.93842	41.26
1.95508	41.59
1.97175	41.90
1.98842	42.23
2.00508	42.55
2.02175	42.89
2.03842	43.19
2.05508	43.54
2.07175	43.84
2.08842	44.18
2.10508	44.50
2.12175	44.83
2.13842	45.15
2.15508	45.49
2.17175	45.79
2.18842	46.13
2.20508	46.46
2.22175	46.78
2.23842	47.10
2.25508	47.45
2.27175	47.79
2.28842	48.11
2.30508	48.45
2.32175	48.77
2.33842	49.09
2.35508	49.44
2.37175	49.65
2.38842	49.73
2.40508	49.74
2.42175	49.75
2.43842	49.75
2.45508	49.77
2.47175	49.77
2.48842	49.78
2.50508	49.79
2.52175	49.79
2.53842	49.82
2.55508	49.82
2.57175	49.82
2.58842	49.82
2.60508	49.82
2.62175	49.83
2.63842	49.84
2.65508	49.86
2.67175	49.86
2.68842	49.85
2.70508	49.85
2.72175	49.87
2.73842	49.86
2.75508	49.86
2.77175	49.86
2.78842	49.85
2.80508	49.87
2.82175	49.88
2.83842	49.88
2.85508	49.89
2.87175	49.91
2.88842	49.93
2.90508	49.95
2.92175	49.96
2.93842	49.97
2.95508	49.97
2.97175	49.98
2.98842	50.00
3.00508	50.01
3.02175	50.02
3.03842	50.02
3.05508	50.02
3.07175	50.03
3.08842	50.04
3.10508	50.05
3.12175	50.05
3.13842	50.06
3.15508	50.07
3.17175	50.08
3.18842	50.09
3.20508	50.11
3.22175	50.11
3.23842	50.10
3.25508	50.10
3.27175	50.09
3.28842	50.08
3.30508	50.07
3.32175	50.06
3.33842	50.06
3.35508	50.05
3.37175	50.04
3.38842	50.03
3.40508	50.04
3.42175	50.04
3.43842	50.05
3.45508	50.05
3.47175	50.05
3.48842	50.05
3.50508	50.06
3.52175	50.05
3.53842	50.06
3.55508	50.05
3.57175	50.05
3.58842	50.06
3.60508	50.07
3.62175	50.07
3.63842	50.08
3.65508	50.09
3.67175	50.08
3.68842	50.08
3.70508	50.09
3.72175	50.10
3.73842	50.10
3.75508	50.09
3.77175	50.10
3.78842	50.10
3.80508	50.10
3.82175	50.09
3.83842	50.09
3.85508	50.08
3.87175	50.07
3.88842	50.05
3.90508	50.05
3.92175	50.05
3.93842	50.05
3.95508	50.05
3.97175	50.04
3.98842	50.05

[Status Trace (Injection Unit Temperature)]
Interval(msec)	1000
# of Points	240
Start Time(min)	0.005
End Time(min)	3.988
Intensity Units	
Intensity Multiplier	1
R.Time (min)	Intensity
0.00508	100.00
0.02175	100.00
0.03842	100.00
0.05508	100.00
0.07175	100.00
0.08842	100.00
0.10508	100.00
0.12175	100.00
0.13842	100.00
0.15508	100.00
0.17175	100.00
0.18842	100.00
0.20508	100.00
0.22175	100.00
0.23842	100.00
0.25508	100.00
0.27175	100.00
0.28842	100.00
0.30508	100.00
0.32175	100.00
0.33842	100.00
0.35508	100.00
0.37175	100.00
0.38842	99.99
0.40508	100.00
0.42175	100.00
0.43842	100.00
0.45508	100.00
0.47175	100.00
0.48842	100.00
0.50508	100.00
0.52175	100.00
0.53842	99.99
0.55508	100.00
0.57175	100.00
0.58842	99.99
0.60508	100.00
0.62175	100.00
0.63842	99.99
0.65508	100.00
0.67175	100.00
0.68842	100.00
0.70508	100.00
0.72175	100.00
0.73842	100.00
0.75508	100.00
0.77175	100.00
0.78842	99.99
0.80508	100.00
0.82175	100.00
0.83842	100.00
0.85508	100.00
0.87175	100.00
0.88842	100.00
0.90508	100.00
0.92175	100.00
0.93842	100.00
0.95508	100.00
0.97175	100.00
0.98842	100.00
1.00508	100.00
1.02175	100.00
1.03842	100.00
1.05508	100.00
1.07175	100.00
1.08842	100.00
1.10508	100.00
1.12175	100.00
1.13842	100.00
1.15508	100.00
1.17175	100.00
1.18842	100.01
1.20508	100.00
1.22175	100.00
1.23842	100.00
1.25508	100.00
1.27175	100.00
1.28842	100.00
1.30508	100.00
1.32175	100.00
1.33842	100.00
1.35508	100.00
1.37175	100.00
1.38842	100.00
1.40508	100.00
1.42175	100.00
1.43842	100.00
1.45508	100.00
1.47175	100.00
1.48842	100.00
1.50508	100.00
1.52175	100.00
1.53842	100.00
1.55508	100.00
1.57175	100.00
1.58842	100.00
1.60508	100.00
1.62175	100.00
1.63842	100.00
1.65508	100.00
1.67175	100.00
1.68842	100.00
1.70508	100.00
1.72175	100.00
1.73842	100.00
1.75508	100.00
1.77175	100.00
1.78842	100.00
1.80508	100.00
1.82175	99.99
1.83842	100.00
1.85508	100.00
1.87175	99.99
1.88842	99.99
1.90508	100.00
1.92175	99.99
1.93842	99.99
1.95508	99.99
1.97175	99.99
1.98842	99.99
2.00508	99.99
2.02175	99.99
2.03842	99.99
2.05508	99.99
2.07175	99.99
2.08842	99.99
2.10508	99.98
2.12175	99.98
2.13842	99.98
2.15508	99.98
2.17175	99.98
2.18842	99.98
2.20508	99.98
2.22175	99.98
2.23842	99.99
2.25508	99.98
2.27175	99.98
2.28842	99.98
2.30508	99.98
2.32175	99.98
2.33842	99.98
2.35508	99.98
2.37175	99.98
2.38842	99.98
2.40508	99.98
2.42175	99.98
2.43842	99.98
2.45508	99.98
2.47175	99.98
2.48842	99.97
2.50508	99.98
2.52175	99.98
2.53842	99.98
2.55508	99.98
2.57175	99.98
2.58842	99.98
2.60508	99.98
2.62175	99.99
2.63842	99.99
2.65508	99.99
2.67175	99.99
2.68842	99.98
2.70508	99.99
2.72175	99.98
2.73842	99.99
2.75508	99.99
2.77175	99.99
2.78842	99.99
2.80508	100.00
2.82175	99.99
2.83842	100.00
2.85508	100.00
2.87175	100.00
2.88842	100.01
2.90508	100.00
2.92175	100.01
2.93842	100.00
2.95508	100.01
2.97175	100.01
2.98842	100.01
3.00508	100.02
3.02175	100.02
3.03842	100.02
3.05508	100.02
3.07175	100.02
3.08842	100.02
3.10508	100.03
3.12175	100.03
3.13842	100.02
3.15508	100.03
3.17175	100.03
3.18842	100.03
3.20508	100.03
3.22175	100.03
3.23842	100.04
3.25508	100.04
3.27175	100.04
3.28842	100.04
3.30508	100.04
3.32175	100.05
3.33842	100.04
3.35508	100.04
3.37175	100.05
3.38842	100.05
3.40508	100.05
3.42175	100.05
3.43842	100.05
3.45508	100.05
3.47175	100.05
3.48842	100.06
3.50508	100.05
3.52175	100.05
3.53842	100.06
3.55508	100.05
3.57175	100.05
3.58842	100.06
3.60508	100.06
3.62175	100.06
3.63842	100.06
3.65508	100.06
3.67175	100.06
3.68842	100.06
3.70508	100.06
3.72175	100.06
3.73842	100.06
3.75508	100.06
3.77175	100.06
3.78842	100.06
3.80508	100.06
3.82175	100.06
3.83842	100.06
3.85508	100.06
3.87175	100.07
3.88842	100.06
3.90508	100.06
3.92175	100.06
3.93842	100.06
3.95508	100.06
3.97175	100.06
3.98842	100.06

[Status Trace (Carrier Gas Pressure)]
Interval(msec)	1000
# of Points	240
Start Time(min)	0.005
End Time(min)	3.988
Intensity Units	
Intensity Multiplier	1
R.Time (min)	Intensity
0.00508	58.00
0.02175	55.75
0.03842	56.64
0.05508	58.86
0.07175	59.72
0.08842	58.19
0.10508	57.97
0.12175	58.01
0.13842	58.01
0.15508	58.01
0.17175	58.00
0.18842	58.00
0.20508	58.00
0.22175	58.00
0.23842	58.00
0.25508	58.00
0.27175	58.00
0.28842	58.00
0.30508	58.00
0.32175	58.00
0.33842	58.00
0.35508	58.00
0.37175	58.00
0.38842	58.00
0.40508	58.00
0.42175	58.00
0.43842	58.00
0.45508	58.00
0.47175	58.00
0.48842	58.00
0.50508	58.00
0.52175	58.00
0.53842	58.00
0.55508	58.00
0.57175	58.00
0.58842	58.00
0.60508	58.00
0.62175	58.00
0.63842	58.00
0.65508	58.00
0.67175	58.00
0.68842	58.00
0.70508	58.00
0.72175	58.00
0.73842	58.00
0.75508	58.00
0.77175	58.00
0.78842	58.00
0.80508	58.00
0.82175	58.00
0.83842	58.00
0.85508	58.00
0.87175	58.00
0.88842	58.00
0.90508	58.00
0.92175	58.00
0.93842	58.00
0.95508	58.00
0.97175	58.00
0.98842	58.00
1.00508	58.00
1.02175	58.00
1.03842	58.00
1.05508	58.00
1.07175	58.00
1.08842	58.00
1.10508	58.00
1.12175	58.00
1.13842	58.00
1.15508	58.00
1.17175	58.00
1.18842	58.00
1.20508	58.00
1.22175	58.00
1.23842	58.00
1.25508	58.00
1.27175	58.00
1.28842	58.00
1.30508	58.00
1.32175	58.00
1.33842	58.00
1.35508	58.00
1.37175	58.00
1.38842	58.00
1.40508	58.00
1.42175	58.00
1.43842	58.00
1.45508	58.00
1.47175	58.00
1.48842	58.00
1.50508	58.00
1.52175	58.00
1.53842	58.00
1.55508	58.00
1.57175	58.00
1.58842	58.00
1.60508	58.00
1.62175	58.00
1.63842	58.01
1.65508	58.00
1.67175	58.01
1.68842	58.01
1.70508	58.00
1.72175	58.00
1.73842	58.00
1.75508	58.00
1.77175	58.00
1.78842	58.00
1.80508	58.00
1.82175	58.00
1.83842	58.00
1.85508	58.00
1.87175	58.00
1.88842	58.00
1.90508	58.00
1.92175	58.00
1.93842	58.00
1.95508	58.00
1.97175	58.00
1.98842	58.00
2.00508	58.00
2.02175	58.00
2.03842	58.00
2.05508	58.00
2.07175	58.00
2.08842	58.00
2.10508	58.00
2.12175	58.00
2.13842	58.00
2.15508	58.00
2.17175	58.00
2.18842	58.00
2.20508	58.00
2.22175	58.00
2.23842	58.00
2.25508	58.00
2.27175	58.00
2.28842	58.00
2.30508	58.00
2.32175	58.00
2.33842	58.00
2.35508	58.00
2.37175	58.00
2.38842	57.99
2.40508	57.99
2.42175	58.00
2.43842	58.00
2.45508	58.00
2.47175	58.00
2.48842	58.00
2.50508	57.99
2.52175	57.98
2.53842	58.00
2.55508	58.00
2.57175	58.00
2.58842	58.00
2.60508	58.00
2.62175	58.00
2.63842	58.00
2.65508	58.00
2.67175	58.00
2.68842	58.00
2.70508	58.00
2.72175	58.00
2.73842	58.00
2.75508	58.00
2.77175	58.00
2.78842	58.00
2.80508	58.00
2.82175	58.00
2.83842	58.00
2.85508	58.00
2.87175	58.00
2.88842	58.00
2.90508	58.00
2.92175	58.00
2.93842	58.00
2.95508	58.00
2.97175	58.00
2.98842	58.00
3.00508	58.00
3.02175	58.00
3.03842	58.00
3.05508	58.00
3.07175	58.00
3.08842	58.00
3.10508	58.00
3.12175	58.00
3.13842	58.00
3.15508	58.00
3.17175	58.00
3.18842	58.00
3.20508	58.00
3.22175	58.00
3.23842	58.00
3.25508	58.00
3.27175	58.00
3.28842	58.00
3.30508	58.00
3.32175	58.00
3.33842	58.00
3.35508	58.00
3.37175	58.00
3.38842	58.00
3.40508	58.00
3.42175	58.00
3.43842	58.00
3.45508	58.00
3.47175	58.00
3.48842	58.00
3.50508	58.00
3.52175	58.00
3.53842	58.00
3.55508	58.00
3.57175	58.00
3.58842	58.00
3.60508	58.00
3.62175	58.00
3.63842	58.00
3.65508	58.00
3.67175	58.00
3.68842	58.00
3.70508	58.00
3.72175	58.00
3.73842	58.00
3.75508	58.00
3.77175	58.00
3.78842	58.00
3.80508	58.00
3.82175	58.00
3.83842	58.00
3.85508	58.00
3.87175	58.00
3.88842	58.00
3.90508	58.00
3.92175	58.00
3.93842	58.00
3.95508	58.00
3.97175	58.00
3.98842	58.00

[Status Trace (Carrier Gas Flow)]
Interval(msec)	1000
# of Points	240
Start Time(min)	0.005
End Time(min)	3.988
Intensity Units	
Intensity Multiplier	1
R.Time (min)	Intensity
0.00508	34.52
0.02175	34.53
0.03842	34.54
0.05508	34.54
0.07175	34.49
0.08842	34.51
0.10508	34.52
0.12175	34.52
0.13842	34.52
0.15508	34.52
0.17175	34.52
0.18842	34.52
0.20508	34.52
0.22175	34.52
0.23842	34.53
0.25508	34.52
0.27175	34.52
0.28842	34.50
0.30508	34.52
0.32175	34.52
0.33842	34.52
0.35508	34.52
0.37175	34.52
0.38842	34.52
0.40508	34.52
0.42175	34.52
0.43842	34.52
0.45508	34.52
0.47175	34.52
0.48842	34.52
0.50508	34.52
0.52175	34.52
0.53842	34.52
0.55508	34.52
0.57175	34.52
0.58842	34.52
0.60508	34.52
0.62175	34.52
0.63842	34.52
0.65508	34.52
0.67175	34.52
0.68842	34.52
0.70508	34.52
0.72175	34.52
0.73842	34.52
0.75508	34.52
0.77175	34.52
0.78842	34.52
0.80508	34.52
0.82175	34.52
0.83842	34.52
0.85508	34.52
0.87175	34.52
0.88842	34.52
0.90508	34.52
0.92175	34.52
0.93842	34.52
0.95508	34.52
0.97175	34.52
0.98842	34.52
1.00508	34.52
1.02175	34.52
1.03842	34.52
1.05508	34.52
1.07175	34.52
1.08842	34.52
1.10508	34.52
1.12175	34.52
1.13842	34.52
1.15508	34.52
1.17175	34.52
1.18842	34.52
1.20508	34.52
1.22175	34.52
1.23842	34.52
1.25508	34.52
1.27175	34.52
1.28842	34.52
1.30508	34.52
1.32175	34.52
1.33842	34.52
1.35508	34.52
1.37175	34.52
1.38842	34.52
1.40508	34.52
1.42175	34.52
1.43842	34.52
1.45508	34.52
1.47175	34.52
1.48842	34.52
1.50508	34.52
1.52175	34.52
1.53842	34.52
1.55508	34.52
1.57175	34.52
1.58842	34.52
1.60508	34.52
1.62175	34.52
1.63842	34.52
1.65508	34.52
1.67175	34.52
1.68842	34.51
1.70508	34.52
1.72175	34.51
1.73842	34.52
1.75508	34.52
1.77175	34.53
1.78842	34.52
1.80508	34.51
1.82175	34.52
1.83842	34.52
1.85508	34.52
1.87175	34.52
1.88842	34.53
1.90508	34.52
1.92175	34.52
1.93842	34.51
1.95508	34.52
1.97175	34.51
1.98842	34.52
2.00508	34.52
2.02175	34.52
2.03842	34.51
2.05508	34.51
2.07175	34.52
2.08842	34.52
2.10508	34.52
2.12175	34.52
2.13842	34.52
2.15508	34.51
2.17175	34.52
2.18842	34.52
2.20508	34.52
2.22175	34.52
2.23842	34.52
2.25508	34.52
2.27175	34.52
2.28842	34.51
2.30508	34.52
2.32175	34.52
2.33842	34.52
2.35508	34.52
2.37175	34.52
2.38842	34.55
2.40508	34.52
2.42175	34.52
2.43842	34.52
2.45508	34.52
2.47175	34.52
2.48842	34.52
2.50508	34.56
2.52175	34.52
2.53842	34.52
2.55508	34.52
2.57175	34.52
2.58842	34.52
2.60508	34.52
2.62175	34.52
2.63842	34.52
2.65508	34.52
2.67175	34.52
2.68842	34.52
2.70508	34.52
2.72175	34.52
2.73842	34.52
2.75508	34.52
2.77175	34.52
2.78842	34.52
2.80508	34.52
2.82175	34.52
2.83842	34.52
2.85508	34.52
2.87175	34.52
2.88842	34.52
2.90508	34.52
2.92175	34.52
2.93842	34.52
2.95508	34.52
2.97175	34.52
2.98842	34.52
3.00508	34.52
3.02175	34.52
3.03842	34.52
3.05508	34.52
3.07175	34.52
3.08842	34.52
3.10508	34.52
3.12175	34.52
3.13842	34.52
3.15508	34.52
3.17175	34.52
3.18842	34.52
3.20508	34.52
3.22175	34.52
3.23842	34.52
3.25508	34.52
3.27175	34.52
3.28842	34.52
3.30508	34.52
3.32175	34.52
3.33842	34.52
3.35508	34.52
3.37175	34.52
3.38842	34.52
3.40508	34.52
3.42175	34.52
3.43842	34.52
3.45508	34.52
3.47175	34.52
3.48842	34.52
3.50508	34.52
3.52175	34.52
3.53842	34.52
3.55508	34.52
3.57175	34.51
3.58842	34.51
3.60508	34.52
3.62175	34.52
3.63842	34.52
3.65508	34.52
3.67175	34.52
3.68842	34.52
3.70508	34.52
3.72175	34.52
3.73842	34.51
3.75508	34.51
3.77175	34.51
3.78842	34.53
3.80508	34.52
3.82175	34.52
3.83842	34.52
3.85508	34.52
3.87175	34.51
3.88842	34.52
3.90508	34.52
3.92175	34.52
3.93842	34.52
3.95508	34.52
3.97175	34.52
3.98842	34.52

[Status Trace (Column Flow)]
Interval(msec)	1000
# of Points	240
Start Time(min)	0.005
End Time(min)	3.988
Intensity Units	
Intensity Multiplier	1
R.Time (min)	Intensity
0.00508	5.52
0.02175	5.26
0.03842	5.36
0.05508	5.62
0.07175	5.72
0.08842	5.54
0.10508	5.52
0.12175	5.52
0.13842	5.52
0.15508	5.52
0.17175	5.52
0.18842	5.52
0.20508	5.52
0.22175	5.52
0.23842	5.52
0.25508	5.52
0.27175	5.52
0.28842	5.52
0.30508	5.52
0.32175	5.52
0.33842	5.52
0.35508	5.52
0.37175	5.52
0.38842	5.52
0.40508	5.52
0.42175	5.52
0.43842	5.52
0.45508	5.52
0.47175	5.52
0.48842	5.52
0.50508	5.52
0.52175	5.52
0.53842	5.52
0.55508	5.52
0.57175	5.52
0.58842	5.52
0.60508	5.52
0.62175	5.52
0.63842	5.52
0.65508	5.52
0.67175	5.52
0.68842	5.52
0.70508	5.52
0.72175	5.52
0.73842	5.52
0.75508	5.52
0.77175	5.52
0.78842	5.52
0.80508	5.52
0.82175	5.52
0.83842	5.52
0.85508	5.52
0.87175	5.52
0.88842	5.52
0.90508	5.52
0.92175	5.52
0.93842	5.52
0.95508	5.52
0.97175	5.52
0.98842	5.52
1.00508	5.52
1.02175	5.52
1.03842	5.52
1.05508	5.52
1.07175	5.52
1.08842	5.52
1.10508	5.52
1.12175	5.52
1.13842	5.52
1.15508	5.52
1.17175	5.52
1.18842	5.52
1.20508	5.52
1.22175	5.52
1.23842	5.52
1.25508	5.52
1.27175	5.52
1.28842	5.52
1.30508	5.52
1.32175	5.52
1.33842	5.52
1.35508	5.52
1.37175	5.52
1.38842	5.52
1.40508	5.52
1.42175	5.52
1.43842	5.52
1.45508	5.52
1.47175	5.52
1.48842	5.52
1.50508	5.52
1.52175	5.52
1.53842	5.52
1.55508	5.52
1.57175	5.52
1.58842	5.52
1.60508	5.52
1.62175	5.52
1.63842	5.51
1.65508	5.50
1.67175	5.49
1.68842	5.48
1.70508	5.47
1.72175	5.46
1.73842	5.45
1.75508	5.44
1.77175	5.43
1.78842	5.42
1.80508	5.41
1.82175	5.40
1.83842	5.39
1.85508	5.38
1.87175	5.37
1.88842	5.36
1.90508	5.35
1.92175	5.34
1.93842	5.33
1.95508	5.32
1.97175	5.31
1.98842	5.30
2.00508	5.29
2.02175	5.28
2.03842	5.27
2.05508	5.26
2.07175	5.25
2.08842	5.24
2.10508	5.23
2.12175	5.22
2.13842	5.22
2.15508	5.21
2.17175	5.20
2.18842	5.19
2.20508	5.18
2.22175	5.17
2.23842	5.16
2.25508	5.15
2.27175	5.14
2.28842	5.13
2.30508	5.12
2.32175	5.11
2.33842	5.10
2.35508	5.09
2.37175	5.09
2.38842	5.09
2.40508	5.09
2.42175	5.09
2.43842	5.09
2.45508	5.08
2.47175	5.08
2.48842	5.08
2.50508	5.08
2.52175	5.08
2.53842	5.08
2.55508	5.08
2.57175	5.08
2.58842	5.08
2.60508	5.08
2.62175	5.08
2.63842	5.08
2.65508	5.08
2.67175	5.08
2.68842	5.08
2.70508	5.08
2.72175	5.08
2.73842	5.08
2.75508	5.08
2.77175	5.08
2.78842	5.08
2.80508	5.08
2.82175	5.08
2.83842	5.08
2.85508	5.08
2.87175	5.08
2.88842	5.08
2.90508	5.08
2.92175	5.08
2.93842	5.08
2.95508	5.08
2.97175	5.08
2.98842	5.08
3.00508	5.08
3.02175	5.08
3.03842	5.08
3.05508	5.08
3.07175	5.08
3.08842	5.08
3.10508	5.08
3.12175	5.08
3.13842	5.08
3.15508	5.08
3.17175	5.08
3.18842	5.08
3.20508	5.08
3.22175	5.08
3.23842	5.08
3.25508	5.08
3.27175	5.08
3.28842	5.08
3.30508	5.08
3.32175	5.08
3.33842	5.08
3.35508	5.08
3.37175	5.08
3.38842	5.08
3.40508	5.08
3.42175	5.08
3.43842	5.08
3.45508	5.08
3.47175	5.08
3.48842	5.08
3.50508	5.08
3.52175	5.08
3.53842	5.08
3.55508	5.08
3.57175	5.08
3.58842	5.08
3.60508	5.08
3.62175	5.08
3.63842	5.08
3.65508	5.08
3.67175	5.08
3.68842	5.08
3.70508	5.08
3.72175	5.08
3.73842	5.08
3.75508	5.08
3.77175	5.08
3.78842	5.08
3.80508	5.08
3.82175	5.08
3.83842	5.08
3.85508	5.08
3.87175	5.08
3.88842	5.08
3.90508	5.08
3.92175	5.08
3.93842	5.08
3.95508	5.08
3.97175	5.08
3.98842	5.08

[Status Trace (Linear Velocity)]
Interval(msec)	1000
# of Points	240
Start Time(min)	0.005
End Time(min)	3.988
Intensity Units	
Intensity Multiplier	1
R.Time (min)	Intensity
0.00508	39.02
0.02175	37.54
0.03842	38.13
0.05508	39.57
0.07175	40.14
0.08842	39.14
0.10508	39.00
0.12175	39.02
0.13842	39.02
0.15508	39.02
0.17175	39.02
0.18842	39.02
0.20508	39.02
0.22175	39.02
0.23842	39.02
0.25508	39.02
0.27175	39.02
0.28842	39.02
0.30508	39.02
0.32175	39.02
0.33842	39.02
0.35508	39.02
0.37175	39.01
0.38842	39.01
0.40508	39.02
0.42175	39.02
0.43842	39.02
0.45508	39.02
0.47175	39.02
0.48842	39.02
0.50508	39.02
0.52175	39.02
0.53842	39.02
0.55508	39.02
0.57175	39.02
0.58842	39.02
0.60508	39.02
0.62175	39.02
0.63842	39.02
0.65508	39.02
0.67175	39.02
0.68842	39.02
0.70508	39.02
0.72175	39.02
0.73842	39.02
0.75508	39.02
0.77175	39.02
0.78842	39.02
0.80508	39.02
0.82175	39.02
0.83842	39.02
0.85508	39.02
0.87175	39.02
0.88842	39.02
0.90508	39.02
0.92175	39.02
0.93842	39.02
0.95508	39.02
0.97175	39.02
0.98842	39.02
1.00508	39.02
1.02175	39.02
1.03842	39.02
1.05508	39.02
1.07175	39.02
1.08842	39.02
1.10508	39.02
1.12175	39.02
1.13842	39.02
1.15508	39.02
1.17175	39.02
1.18842	39.02
1.20508	39.02
1.22175	39.02
1.23842	39.02
1.25508	39.02
1.27175	39.02
1.28842	39.02
1.30508	39.02
1.32175	39.01
1.33842	39.01
1.35508	39.01
1.37175	39.02
1.38842	39.02
1.40508	39.02
1.42175	39.02
1.43842	39.02
1.45508	39.02
1.47175	39.02
1.48842	39.02
1.50508	39.02
1.52175	39.01
1.53842	39.01
1.55508	39.02
1.57175	39.02
1.58842	39.02
1.60508	39.01
1.62175	39.00
1.63842	38.99
1.65508	38.96
1.67175	38.93
1.68842	38.90
1.70508	38.86
1.72175	38.83
1.73842	38.80
1.75508	38.77
1.77175	38.74
1.78842	38.71
1.80508	38.67
1.82175	38.64
1.83842	38.61
1.85508	38.58
1.87175	38.55
1.88842	38.52
1.90508	38.49
1.92175	38.46
1.93842	38.43
1.95508	38.39
1.97175	38.36
1.98842	38.34
2.00508	38.30
2.02175	38.27
2.03842	38.25
2.05508	38.21
2.07175	38.19
2.08842	38.16
2.10508	38.13
2.12175	38.10
2.13842	38.07
2.15508	38.04
2.17175	38.01
2.18842	37.98
2.20508	37.95
2.22175	37.92
2.23842	37.89
2.25508	37.86
2.27175	37.83
2.28842	37.80
2.30508	37.77
2.32175	37.74
2.33842	37.72
2.35508	37.68
2.37175	37.66
2.38842	37.65
2.40508	37.65
2.42175	37.65
2.43842	37.65
2.45508	37.65
2.47175	37.65
2.48842	37.65
2.50508	37.65
2.52175	37.64
2.53842	37.65
2.55508	37.65
2.57175	37.65
2.58842	37.65
2.60508	37.65
2.62175	37.65
2.63842	37.65
2.65508	37.65
2.67175	37.65
2.68842	37.65
2.70508	37.65
2.72175	37.65
2.73842	37.64
2.75508	37.64
2.77175	37.65
2.78842	37.65
2.80508	37.65
2.82175	37.64
2.83842	37.64
2.85508	37.64
2.87175	37.64
2.88842	37.64
2.90508	37.64
2.92175	37.64
2.93842	37.64
2.95508	37.64
2.97175	37.63
2.98842	37.63
3.00508	37.63
3.02175	37.63
3.03842	37.63
3.05508	37.63
3.07175	37.63
3.08842	37.63
3.10508	37.63
3.12175	37.63
3.13842	37.63
3.15508	37.63
3.17175	37.63
3.18842	37.63
3.20508	37.62
3.22175	37.62
3.23842	37.62
3.25508	37.62
3.27175	37.62
3.28842	37.63
3.30508	37.63
3.32175	37.63
3.33842	37.63
3.35508	37.63
3.37175	37.63
3.38842	37.63
3.40508	37.63
3.42175	37.63
3.43842	37.63
3.45508	37.63
3.47175	37.63
3.48842	37.63
3.50508	37.63
3.52175	37.63
3.53842	37.63
3.55508	37.63
3.57175	37.63
3.58842	37.63
3.60508	37.63
3.62175	37.63
3.63842	37.63
3.65508	37.63
3.67175	37.63
3.68842	37.63
3.70508	37.62
3.72175	37.62
3.73842	37.62
3.75508	37.62
3.77175	37.62
3.78842	37.62
3.80508	37.62
3.82175	37.62
3.83842	37.62
3.85508	37.63
3.87175	37.63
3.88842	37.63
3.90508	37.63
3.92175	37.63
3.93842	37.63
3.95508	37.63
3.97175	37.63
3.98842	37.63

