[Header]
Application Name	LabSolutions
Version	5.110
Data File Name	C:\Users\User\Desktop\GC Analyses\Jack\UIC Prairie Sampling\9.16.22\220916_034.gcd
Output Date	11/29/2022
Output Time	11:10:17 AM

[File Information]
Type	Data File
Generated	11/14/2022 1:31:25 PM
Generated by	System Administrator
Modified	11/14/2022 1:35:55 PM
Modified by	System Administrator

[Sample Information]
Operator Name	System Administrator
Acquired	11/14/2022 1:31:53 PM
Sample Type	1:Standard
Level	1
Sample Name	220916_UICPrairie
Sample ID	220916_UICPrairie
ISTD Amount1	1
ISTD Amount2	1
ISTD Amount3	1
ISTD Amount4	1
ISTD Amount5	1
ISTD Amount6	1
ISTD Amount7	1
ISTD Amount8	1
ISTD Amount9	1
ISTD Amount10	1
ISTD Amount11	1
ISTD Amount12	1
ISTD Amount13	1
ISTD Amount14	1
ISTD Amount15	1
ISTD Amount16	1
ISTD Amount17	1
ISTD Amount18	1
ISTD Amount19	1
ISTD Amount20	1
ISTD Amount21	1
ISTD Amount22	1
ISTD Amount23	1
ISTD Amount24	1
ISTD Amount25	1
ISTD Amount26	1
ISTD Amount27	1
ISTD Amount28	1
ISTD Amount29	1
ISTD Amount30	1
ISTD Amount31	1
ISTD Amount32	1
Sample Amount	1
Dilution Factor	1
Vial#	1
Injection Volume	1
Injection Count	1
Bar Code	

[Original Files]
Data File	C:\Users\User\Desktop\GC Analyses\Jack\UIC Prairie Sampling\9.16.22\220916_034.gcd
Method File	C:\LabSolutions\Data\GHG_4min_2022\ghg3_togas_w_acet_4 min_new_int.gcm
Batch File	
Report Format File	c:\LabSolutions\System\DEFAULT.lsr

[File Description]


[Configuration]
Instrument Name	C0B7VH3-Instrument1
Instrument #	1
Line #	1
# of Detectors	3
Detector ID	DET#1	DET#2	DET#3
Detector Name	FID	PTCD	ECD
# of Channels	1	1	1

[Peak Table(Ch1)]
# of Peaks	3
Peak#	R.Time	I.Time	F.Time	Area	Height	A/H	Conc.	Mark	ID#	Name	k'	Plate #	Plate Ht.	Tailing	Resolution	Sep.Factor	Area Ratio	Height Ratio	Conc. %	Norm Conc.
1	1.479	1.439	1.538	11974	5291	2.263	100.000	   	1	CO	0.000	8279	18.118	1.209	0.000	0.000	0	0	16.667	16.667
2	1.571	1.538	1.622	4819	2393	2.014	100.000	 V 	2	CH4	0.062	11086	13.531	1.160	1.470	0.000	0	0	16.667	16.667
3	2.000	1.952	2.425	2073013	992651	2.088	400.000	   	3	CO2	0.352	17313	8.664	1.283	7.121	5.680	0	0	66.667	66.667

[Peak Table(Ch2)]
# of Peaks	0

[Peak Table(Ch3)]
# of Peaks	6
Peak#	R.Time	I.Time	F.Time	Area	Height	A/H	Conc.	Mark	ID#	Name	k'	Plate #	Plate Ht.	Tailing	Resolution	Sep.Factor	Area Ratio	Height Ratio	Conc. %	Norm Conc.
1	1.083	0.922	1.351	188	12	15.104	0.000	   			0.000	1416	105.950	1.252	0.000	0.000	0	0	0.000	0.000
2	2.458	2.363	2.491	845	206	4.103	0.000	   			1.269	3356	44.700	0.000	9.652	0.000	0	0	0.000	0.000
3	2.601	2.491	2.649	1715	248	6.906	0.000	 V 			1.401	1615	92.887	0.000	0.667	1.104	0	0	0.000	0.000
4	2.730	2.678	2.788	184	48	3.865	0.010	   	1	N2O	1.520	8650	17.342	1.063	0.682	1.085	0	0	0.488	0.488
5	2.887	2.825	2.990	18635	5134	3.630	0.990	   	1	N2O	1.665	13832	10.844	1.455	1.463	1.096	0	0	49.512	49.512
6	3.199	2.990	3.995	25849	813	31.780	1.000	 V 	2	SF6	1.953	208	721.463	0.000	0.632	1.173	0	0	50.000	50.000

[Compound Results(Ch1)]
# of IDs	6
ID#	Name	R.Time	Area	Height	Conc.	Curve	3rd	2nd	1st	Constant	Area Ratio	Height Ratio	Conc. %	Norm Conc.
1	CO	1.479	11974	5291	100.000	Linear	0.000000e+00	0.000000e+00	1.197362e+002	0.000000e+00	0	0	16.667	16.667
2	CH4	1.571	4819	2393	100.000	Linear	0.000000e+00	0.000000e+00	4.819397e+001	0.000000e+00	0	0	16.667	16.667
3	CO2	2.000	2073013	992651	400.000	Linear	0.000000e+00	0.000000e+00	5.182533e+003	0.000000e+00	0	0	66.667	66.667
4	Ethylene	0.000	0	0	0.000	Linear	0.000000e+00	0.000000e+00	0.000000e+00	0.000000e+00	0	0	0.000	0.000
5	Acetylene	0.000	0	0	0.000	Linear	0.000000e+00	0.000000e+00	0.000000e+00	0.000000e+00	0	0	0.000	0.000
6	Ethane	0.000	0	0	0.000	Linear	0.000000e+00	0.000000e+00	0.000000e+00	0.000000e+00	0	0	0.000	0.000

[Compound Results(Ch2)]
# of IDs	5
ID#	Name	R.Time	Area	Height	Conc.	Curve	3rd	2nd	1st	Constant	Area Ratio	Height Ratio	Conc. %	Norm Conc.
1	Hydrogen	0.000	0	0	0.000	Linear	0.000000e+00	0.000000e+00	0.000000e+00	0.000000e+00	0	0	0.000	0.000
2	Oxygen	0.000	0	0	0.000	Linear	0.000000e+00	0.000000e+00	0.000000e+00	0.000000e+00	0	0	0.000	0.000
3	Nitrogen	0.000	0	0	0.000	Linear	0.000000e+00	0.000000e+00	0.000000e+00	0.000000e+00	0	0	0.000	0.000
4	Methane	0.000	0	0	0.000	Linear	0.000000e+00	0.000000e+00	0.000000e+00	0.000000e+00	0	0	0.000	0.000
5	Carbon Monoxide	0.000	0	0	0.000	Linear	0.000000e+00	0.000000e+00	0.000000e+00	0.000000e+00	0	0	0.000	0.000

[Compound Results(Ch3)]
# of IDs	2
ID#	Name	R.Time	Area	Height	Conc.	Curve	3rd	2nd	1st	Constant	Area Ratio	Height Ratio	Conc. %	Norm Conc.
1	N2O	2.887	18819	5182	1.000	Linear	0.000000e+00	0.000000e+00	1.881859e+004	0.000000e+00	0	0	50.000	50.000
2	SF6	3.199	25849	813	1.000	Linear	0.000000e+00	0.000000e+00	2.584870e+004	0.000000e+00	0	0	50.000	50.000

[Group Results(Ch1)]
# of Groups	0

[Group Results(Ch2)]
# of Groups	0

[Group Results(Ch3)]
# of Groups	0

[Chromatogram (Ch1)]
Interval(msec)	220
# of Points	1091
Start Time(min)	0.002
End Time(min)	3.998
R.Time (min)	Intensity
0.00167	5
0.00533	11
0.00900	18
0.01267	25
0.01633	32
0.02000	36
0.02367	36
0.02733	32
0.03100	29
0.03467	29
0.03833	29
0.04200	30
0.04567	31
0.04933	34
0.05300	36
0.05667	38
0.06033	39
0.06400	39
0.06767	39
0.07133	37
0.07500	33
0.07867	29
0.08233	25
0.08600	22
0.08967	18
0.09333	12
0.09700	8
0.10067	8
0.10433	8
0.10800	7
0.11167	6
0.11533	4
0.11900	-2
0.12267	-8
0.12633	-13
0.13000	-14
0.13367	-14
0.13733	-12
0.14100	-11
0.14467	-14
0.14833	-19
0.15200	-26
0.15567	-33
0.15933	-38
0.16300	-38
0.16667	-35
0.17033	-33
0.17400	-31
0.17767	-28
0.18133	-25
0.18500	-21
0.18867	-18
0.19233	-20
0.19600	-28
0.19967	-38
0.20333	-44
0.20700	-46
0.21067	-42
0.21433	-37
0.21800	-35
0.22167	-35
0.22533	-40
0.22900	-46
0.23267	-51
0.23633	-53
0.24000	-51
0.24367	-47
0.24733	-42
0.25100	-37
0.25467	-32
0.25833	-29
0.26200	-28
0.26567	-29
0.26933	-34
0.27300	-40
0.27667	-42
0.28033	-38
0.28400	-33
0.28767	-31
0.29133	-32
0.29500	-37
0.29867	-41
0.30233	-41
0.30600	-39
0.30967	-36
0.31333	-34
0.31700	-36
0.32067	-41
0.32433	-42
0.32800	-41
0.33167	-36
0.33533	-29
0.33900	-24
0.34267	-23
0.34633	-24
0.35000	-28
0.35367	-36
0.35733	-44
0.36100	-52
0.36467	-58
0.36833	-61
0.37200	-62
0.37567	-62
0.37933	-60
0.38300	-57
0.38667	-53
0.39033	-49
0.39400	-48
0.39767	-50
0.40133	-53
0.40500	-52
0.40867	-44
0.41233	-37
0.41600	-32
0.41967	-30
0.42333	-32
0.42700	-36
0.43067	-42
0.43433	-47
0.43800	-53
0.44167	-56
0.44533	-57
0.44900	-56
0.45267	-53
0.45633	-48
0.46000	-46
0.46367	-47
0.46733	-51
0.47100	-54
0.47467	-54
0.47833	-55
0.48200	-54
0.48567	-53
0.48933	-51
0.49300	-48
0.49667	-49
0.50033	-51
0.50400	-50
0.50767	-46
0.51133	-44
0.51500	-45
0.51867	-48
0.52233	-52
0.52600	-58
0.52967	-60
0.53333	-58
0.53700	-55
0.54067	-55
0.54433	-54
0.54800	-54
0.55167	-56
0.55533	-54
0.55900	-50
0.56267	-46
0.56633	-45
0.57000	-45
0.57367	-44
0.57733	-39
0.58100	-31
0.58467	-27
0.58833	-29
0.59200	-32
0.59567	-34
0.59933	-36
0.60300	-41
0.60667	-48
0.61033	-56
0.61400	-60
0.61767	-60
0.62133	-55
0.62500	-52
0.62867	-54
0.63233	-61
0.63600	-69
0.63967	-75
0.64333	-75
0.64700	-72
0.65067	-70
0.65433	-67
0.65800	-61
0.66167	-57
0.66533	-57
0.66900	-59
0.67267	-60
0.67633	-61
0.68000	-60
0.68367	-58
0.68733	-57
0.69100	-56
0.69467	-54
0.69833	-53
0.70200	-54
0.70567	-57
0.70933	-60
0.71300	-60
0.71667	-56
0.72033	-51
0.72400	-47
0.72767	-46
0.73133	-47
0.73500	-43
0.73867	-39
0.74233	-38
0.74600	-41
0.74967	-46
0.75333	-50
0.75700	-53
0.76067	-51
0.76433	-42
0.76800	-32
0.77167	-23
0.77533	-18
0.77900	-16
0.78267	-16
0.78633	-18
0.79000	-22
0.79367	-26
0.79733	-27
0.80100	-21
0.80467	-10
0.80833	-1
0.81200	-1
0.81567	-7
0.81933	-19
0.82300	-30
0.82667	-35
0.83033	-37
0.83400	-34
0.83767	-27
0.84133	-18
0.84500	-11
0.84867	-7
0.85233	-5
0.85600	-4
0.85967	-2
0.86333	-1
0.86700	1
0.87067	1
0.87433	-1
0.87800	-6
0.88167	-11
0.88533	-17
0.88900	-23
0.89267	-26
0.89633	-26
0.90000	-25
0.90367	-22
0.90733	-18
0.91100	-15
0.91467	-14
0.91833	-16
0.92200	-17
0.92567	-15
0.92933	-12
0.93300	-15
0.93667	-20
0.94033	-24
0.94400	-25
0.94767	-24
0.95133	-19
0.95500	-14
0.95867	-14
0.96233	-16
0.96600	-16
0.96967	-14
0.97333	-14
0.97700	-14
0.98067	-16
0.98433	-20
0.98800	-26
0.99167	-28
0.99533	-28
0.99900	-27
1.00267	-25
1.00633	-23
1.01000	-19
1.01367	-12
1.01733	-4
1.02100	0
1.02467	-0
1.02833	-4
1.03200	-7
1.03567	-6
1.03933	-6
1.04300	-7
1.04667	-10
1.05033	-13
1.05400	-17
1.05767	-18
1.06133	-19
1.06500	-19
1.06867	-20
1.07233	-22
1.07600	-23
1.07967	-21
1.08333	-20
1.08700	-20
1.09067	-22
1.09433	-28
1.09800	-33
1.10167	-38
1.10533	-40
1.10900	-36
1.11267	-29
1.11633	-21
1.12000	-19
1.12367	-20
1.12733	-20
1.13100	-23
1.13467	-28
1.13833	-34
1.14200	-39
1.14567	-45
1.14933	-50
1.15300	-51
1.15667	-48
1.16033	-44
1.16400	-36
1.16767	-31
1.17133	-32
1.17500	-36
1.17867	-39
1.18233	-42
1.18600	-45
1.18967	-49
1.19333	-51
1.19700	-53
1.20067	-56
1.20433	-56
1.20800	-53
1.21167	-51
1.21533	-52
1.21900	-52
1.22267	-49
1.22633	-45
1.23000	-45
1.23367	-47
1.23733	-48
1.24100	-45
1.24467	-41
1.24833	-37
1.25200	-35
1.25567	-36
1.25933	-37
1.26300	-37
1.26667	-36
1.27033	-32
1.27400	-30
1.27767	-31
1.28133	-33
1.28500	-36
1.28867	-40
1.29233	-42
1.29600	-43
1.29967	-47
1.30333	-55
1.30700	-63
1.31067	-67
1.31433	-70
1.31800	-73
1.32167	-76
1.32533	-75
1.32900	-73
1.33267	-71
1.33633	-66
1.34000	-59
1.34367	-52
1.34733	-44
1.35100	-40
1.35467	-39
1.35833	-41
1.36200	-45
1.36567	-49
1.36933	-51
1.37300	-52
1.37667	-53
1.38033	-53
1.38400	-52
1.38767	-49
1.39133	-49
1.39500	-50
1.39867	-52
1.40233	-51
1.40600	-48
1.40967	-44
1.41333	-43
1.41700	-45
1.42067	-49
1.42433	-54
1.42800	-57
1.43167	-57
1.43533	-56
1.43900	-50
1.44267	-13
1.44633	116
1.45000	385
1.45367	815
1.45733	1471
1.46100	2340
1.46467	3264
1.46833	4080
1.47200	4703
1.47567	5100
1.47933	5243
1.48300	5096
1.48667	4656
1.49033	3989
1.49400	3219
1.49767	2474
1.50133	1837
1.50500	1332
1.50867	950
1.51233	670
1.51600	472
1.51967	333
1.52333	235
1.52700	163
1.53067	112
1.53433	78
1.53800	55
1.54167	57
1.54533	123
1.54900	318
1.55267	665
1.55633	1106
1.56000	1548
1.56367	1923
1.56733	2197
1.57100	2347
1.57467	2339
1.57833	2156
1.58200	1829
1.58567	1435
1.58933	1052
1.59300	726
1.59667	474
1.60033	293
1.60400	169
1.60767	87
1.61133	33
1.61500	-5
1.61867	-31
1.62233	-45
1.62600	-51
1.62967	-51
1.63333	-49
1.63700	-46
1.64067	-45
1.64433	-48
1.64800	-57
1.65167	-63
1.65533	-62
1.65900	-59
1.66267	-60
1.66633	-68
1.67000	-79
1.67367	-88
1.67733	-93
1.68100	-96
1.68467	-96
1.68833	-95
1.69200	-92
1.69567	-88
1.69933	-87
1.70300	-89
1.70667	-91
1.71033	-93
1.71400	-96
1.71767	-100
1.72133	-102
1.72500	-101
1.72867	-99
1.73233	-97
1.73600	-96
1.73967	-95
1.74333	-91
1.74700	-85
1.75067	-81
1.75433	-74
1.75800	-69
1.76167	-70
1.76533	-73
1.76900	-74
1.77267	-76
1.77633	-77
1.78000	-80
1.78367	-82
1.78733	-83
1.79100	-84
1.79467	-85
1.79833	-86
1.80200	-87
1.80567	-87
1.80933	-85
1.81300	-83
1.81667	-82
1.82033	-82
1.82400	-81
1.82767	-80
1.83133	-80
1.83500	-79
1.83867	-76
1.84233	-72
1.84600	-68
1.84967	-62
1.85333	-59
1.85700	-63
1.86067	-70
1.86433	-79
1.86800	-85
1.87167	-86
1.87533	-83
1.87900	-78
1.88267	-76
1.88633	-79
1.89000	-84
1.89367	-90
1.89733	-91
1.90100	-91
1.90467	-90
1.90833	-88
1.91200	-86
1.91567	-86
1.91933	-87
1.92300	-86
1.92667	-84
1.93033	-83
1.93400	-84
1.93767	-84
1.94133	-83
1.94500	-80
1.94867	-79
1.95233	-76
1.95600	-50
1.95967	125
1.96333	1133
1.96700	5714
1.97067	21545
1.97433	63514
1.97800	149619
1.98167	288313
1.98533	466912
1.98900	655607
1.99267	821639
1.99633	939243
2.00000	992608
2.00367	976289
2.00733	896696
2.01100	771355
2.01467	624500
2.01833	479567
2.02200	352845
2.02567	251501
2.02933	175558
2.03300	121223
2.03667	83551
2.04033	57947
2.04400	40732
2.04767	29199
2.05133	21447
2.05500	16184
2.05867	12558
2.06233	10013
2.06600	8184
2.06967	6838
2.07333	5825
2.07700	5048
2.08067	4439
2.08433	3953
2.08800	3557
2.09167	3226
2.09533	2944
2.09900	2702
2.10267	2491
2.10633	2308
2.11000	2145
2.11367	2002
2.11733	1877
2.12100	1769
2.12467	1672
2.12833	1585
2.13200	1509
2.13567	1442
2.13933	1379
2.14300	1319
2.14667	1262
2.15033	1207
2.15400	1150
2.15767	1096
2.16133	1048
2.16500	1002
2.16867	957
2.17233	915
2.17600	879
2.17967	849
2.18333	823
2.18700	798
2.19067	776
2.19433	756
2.19800	736
2.20167	716
2.20533	691
2.20900	667
2.21267	647
2.21633	630
2.22000	615
2.22367	602
2.22733	593
2.23100	585
2.23467	576
2.23833	565
2.24200	552
2.24567	536
2.24933	518
2.25300	498
2.25667	483
2.26033	472
2.26400	463
2.26767	452
2.27133	441
2.27500	432
2.27867	427
2.28233	422
2.28600	413
2.28967	399
2.29333	386
2.29700	376
2.30067	367
2.30433	359
2.30800	351
2.31167	344
2.31533	334
2.31900	325
2.32267	319
2.32633	316
2.33000	311
2.33367	308
2.33733	307
2.34100	306
2.34467	305
2.34833	304
2.35200	304
2.35567	304
2.35933	305
2.36300	303
2.36667	298
2.37033	289
2.37400	282
2.37767	278
2.38133	273
2.38500	269
2.38867	263
2.39233	255
2.39600	251
2.39967	251
2.40333	253
2.40700	256
2.41067	255
2.41433	254
2.41800	251
2.42167	248
2.42533	246
2.42900	246
2.43267	248
2.43633	252
2.44000	253
2.44367	253
2.44733	252
2.45100	250
2.45467	246
2.45833	240
2.46200	233
2.46567	225
2.46933	218
2.47300	212
2.47667	207
2.48033	205
2.48400	205
2.48767	204
2.49133	202
2.49500	201
2.49867	203
2.50233	205
2.50600	206
2.50967	208
2.51333	210
2.51700	211
2.52067	209
2.52433	202
2.52800	195
2.53167	187
2.53533	179
2.53900	176
2.54267	177
2.54633	183
2.55000	192
2.55367	197
2.55733	196
2.56100	195
2.56467	192
2.56833	186
2.57200	176
2.57567	166
2.57933	162
2.58300	161
2.58667	158
2.59033	154
2.59400	154
2.59767	158
2.60133	162
2.60500	164
2.60867	164
2.61233	164
2.61600	165
2.61967	165
2.62333	163
2.62700	159
2.63067	156
2.63433	156
2.63800	161
2.64167	166
2.64533	169
2.64900	170
2.65267	170
2.65633	172
2.66000	174
2.66367	176
2.66733	174
2.67100	169
2.67467	163
2.67833	159
2.68200	159
2.68567	160
2.68933	159
2.69300	154
2.69667	150
2.70033	146
2.70400	144
2.70767	142
2.71133	141
2.71500	143
2.71867	143
2.72233	143
2.72600	139
2.72967	135
2.73333	130
2.73700	126
2.74067	122
2.74433	118
2.74800	115
2.75167	115
2.75533	117
2.75900	122
2.76267	127
2.76633	133
2.77000	140
2.77367	144
2.77733	146
2.78100	149
2.78467	152
2.78833	156
2.79200	158
2.79567	156
2.79933	150
2.80300	142
2.80667	137
2.81033	135
2.81400	137
2.81767	139
2.82133	141
2.82500	142
2.82867	142
2.83233	145
2.83600	147
2.83967	146
2.84333	144
2.84700	140
2.85067	136
2.85433	134
2.85800	138
2.86167	143
2.86533	147
2.86900	148
2.87267	150
2.87633	152
2.88000	153
2.88367	152
2.88733	150
2.89100	149
2.89467	153
2.89833	155
2.90200	153
2.90567	153
2.90933	153
2.91300	153
2.91667	150
2.92033	145
2.92400	143
2.92767	142
2.93133	144
2.93500	147
2.93867	150
2.94233	154
2.94600	158
2.94967	161
2.95333	161
2.95700	156
2.96067	150
2.96433	144
2.96800	140
2.97167	138
2.97533	135
2.97900	132
2.98267	131
2.98633	131
2.99000	131
2.99367	133
2.99733	138
3.00100	147
3.00467	158
3.00833	166
3.01200	173
3.01567	177
3.01933	179
3.02300	174
3.02667	164
3.03033	155
3.03400	152
3.03767	152
3.04133	153
3.04500	149
3.04867	146
3.05233	144
3.05600	144
3.05967	147
3.06333	147
3.06700	148
3.07067	148
3.07433	148
3.07800	147
3.08167	147
3.08533	146
3.08900	141
3.09267	134
3.09633	129
3.10000	127
3.10367	128
3.10733	133
3.11100	139
3.11467	147
3.11833	153
3.12200	158
3.12567	162
3.12933	163
3.13300	158
3.13667	150
3.14033	143
3.14400	141
3.14767	144
3.15133	147
3.15500	151
3.15867	151
3.16233	146
3.16600	144
3.16967	141
3.17333	136
3.17700	133
3.18067	132
3.18433	133
3.18800	134
3.19167	131
3.19533	128
3.19900	126
3.20267	125
3.20633	124
3.21000	127
3.21367	130
3.21733	132
3.22100	134
3.22467	137
3.22833	140
3.23200	143
3.23567	145
3.23933	146
3.24300	146
3.24667	146
3.25033	145
3.25400	142
3.25767	137
3.26133	132
3.26500	128
3.26867	122
3.27233	117
3.27600	115
3.27967	116
3.28333	117
3.28700	117
3.29067	118
3.29433	120
3.29800	124
3.30167	128
3.30533	134
3.30900	137
3.31267	136
3.31633	135
3.32000	132
3.32367	130
3.32733	130
3.33100	131
3.33467	134
3.33833	136
3.34200	138
3.34567	140
3.34933	140
3.35300	141
3.35667	138
3.36033	133
3.36400	129
3.36767	127
3.37133	129
3.37500	130
3.37867	130
3.38233	130
3.38600	131
3.38967	131
3.39333	129
3.39700	129
3.40067	130
3.40433	133
3.40800	134
3.41167	135
3.41533	137
3.41900	136
3.42267	131
3.42633	126
3.43000	124
3.43367	124
3.43733	124
3.44100	127
3.44467	128
3.44833	127
3.45200	125
3.45567	124
3.45933	124
3.46300	124
3.46667	121
3.47033	114
3.47400	108
3.47767	104
3.48133	102
3.48500	102
3.48867	107
3.49233	112
3.49600	113
3.49967	116
3.50333	123
3.50700	134
3.51067	140
3.51433	140
3.51800	140
3.52167	140
3.52533	139
3.52900	134
3.53267	126
3.53633	116
3.54000	108
3.54367	104
3.54733	100
3.55100	94
3.55467	90
3.55833	90
3.56200	94
3.56567	101
3.56933	106
3.57300	108
3.57667	109
3.58033	107
3.58400	103
3.58767	99
3.59133	97
3.59500	96
3.59867	99
3.60233	101
3.60600	99
3.60967	98
3.61333	97
3.61700	95
3.62067	94
3.62433	98
3.62800	105
3.63167	113
3.63533	117
3.63900	116
3.64267	112
3.64633	109
3.65000	105
3.65367	105
3.65733	111
3.66100	118
3.66467	121
3.66833	120
3.67200	116
3.67567	115
3.67933	117
3.68300	121
3.68667	123
3.69033	118
3.69400	109
3.69767	102
3.70133	96
3.70500	93
3.70867	93
3.71233	94
3.71600	92
3.71967	89
3.72333	83
3.72700	79
3.73067	78
3.73433	82
3.73800	87
3.74167	87
3.74533	83
3.74900	81
3.75267	81
3.75633	83
3.76000	84
3.76367	84
3.76733	84
3.77100	85
3.77467	84
3.77833	81
3.78200	78
3.78567	75
3.78933	73
3.79300	74
3.79667	76
3.80033	74
3.80400	74
3.80767	78
3.81133	82
3.81500	82
3.81867	80
3.82233	79
3.82600	80
3.82967	81
3.83333	84
3.83700	85
3.84067	85
3.84433	85
3.84800	83
3.85167	79
3.85533	76
3.85900	78
3.86267	84
3.86633	93
3.87000	96
3.87367	93
3.87733	84
3.88100	74
3.88467	69
3.88833	67
3.89200	66
3.89567	63
3.89933	62
3.90300	68
3.90667	79
3.91033	96
3.91400	111
3.91767	116
3.92133	108
3.92500	92
3.92867	75
3.93233	64
3.93600	59
3.93967	61
3.94333	65
3.94700	66
3.95067	62
3.95433	55
3.95800	50
3.96167	51
3.96533	54
3.96900	58
3.97267	63
3.97633	66
3.98000	69
3.98367	68
3.98733	67
3.99100	67
3.99467	66
3.99833	64

[Chromatogram (Ch2)]
Interval(msec)	220
# of Points	1091
Start Time(min)	0.002
End Time(min)	3.998
R.Time (min)	Intensity
0.00167	0
0.00533	0
0.00900	0
0.01267	0
0.01633	0
0.02000	0
0.02367	0
0.02733	0
0.03100	-0
0.03467	-0
0.03833	-0
0.04200	-0
0.04567	-0
0.04933	-0
0.05300	-0
0.05667	-1
0.06033	-1
0.06400	-1
0.06767	-1
0.07133	-1
0.07500	-1
0.07867	-1
0.08233	-2
0.08600	-2
0.08967	-2
0.09333	-1
0.09700	-1
0.10067	-1
0.10433	-1
0.10800	-1
0.11167	-1
0.11533	-1
0.11900	-1
0.12267	-1
0.12633	-1
0.13000	-1
0.13367	-1
0.13733	-1
0.14100	-1
0.14467	-1
0.14833	-1
0.15200	-1
0.15567	-1
0.15933	-1
0.16300	-1
0.16667	-1
0.17033	-1
0.17400	-1
0.17767	-2
0.18133	-2
0.18500	-2
0.18867	-2
0.19233	-3
0.19600	-3
0.19967	-3
0.20333	-3
0.20700	-3
0.21067	-3
0.21433	-3
0.21800	-3
0.22167	-3
0.22533	-3
0.22900	-3
0.23267	-3
0.23633	-3
0.24000	-3
0.24367	-3
0.24733	-3
0.25100	-3
0.25467	-3
0.25833	-3
0.26200	-3
0.26567	-3
0.26933	-3
0.27300	-3
0.27667	-3
0.28033	-3
0.28400	-3
0.28767	-3
0.29133	-3
0.29500	-3
0.29867	-3
0.30233	-3
0.30600	-2
0.30967	-2
0.31333	-2
0.31700	-2
0.32067	-2
0.32433	-2
0.32800	-2
0.33167	-2
0.33533	-2
0.33900	-2
0.34267	-3
0.34633	-3
0.35000	-3
0.35367	-4
0.35733	-4
0.36100	-4
0.36467	-4
0.36833	-4
0.37200	-3
0.37567	-3
0.37933	-3
0.38300	-2
0.38667	-2
0.39033	-1
0.39400	-1
0.39767	-1
0.40133	-1
0.40500	-1
0.40867	-0
0.41233	-0
0.41600	-0
0.41967	-0
0.42333	-0
0.42700	-0
0.43067	0
0.43433	0
0.43800	0
0.44167	0
0.44533	-0
0.44900	-0
0.45267	-1
0.45633	-1
0.46000	-1
0.46367	-1
0.46733	-1
0.47100	-2
0.47467	-2
0.47833	-2
0.48200	-2
0.48567	-2
0.48933	-2
0.49300	-3
0.49667	-3
0.50033	-3
0.50400	-3
0.50767	-3
0.51133	-4
0.51500	-4
0.51867	-4
0.52233	-3
0.52600	-3
0.52967	-3
0.53333	-3
0.53700	-3
0.54067	-3
0.54433	-3
0.54800	-3
0.55167	-3
0.55533	-3
0.55900	-3
0.56267	-3
0.56633	-3
0.57000	-3
0.57367	-3
0.57733	-3
0.58100	-3
0.58467	-3
0.58833	-3
0.59200	-3
0.59567	-3
0.59933	-3
0.60300	-3
0.60667	-3
0.61033	-3
0.61400	-3
0.61767	-3
0.62133	-3
0.62500	-4
0.62867	-4
0.63233	-4
0.63600	-4
0.63967	-4
0.64333	-4
0.64700	-4
0.65067	-4
0.65433	-4
0.65800	-3
0.66167	-3
0.66533	-3
0.66900	-3
0.67267	-3
0.67633	-3
0.68000	-3
0.68367	-3
0.68733	-3
0.69100	-3
0.69467	-2
0.69833	-2
0.70200	-1
0.70567	-1
0.70933	-1
0.71300	-0
0.71667	-0
0.72033	0
0.72400	0
0.72767	0
0.73133	0
0.73500	-0
0.73867	-0
0.74233	-0
0.74600	-1
0.74967	-1
0.75333	-1
0.75700	-2
0.76067	-2
0.76433	-2
0.76800	-3
0.77167	-3
0.77533	-4
0.77900	-4
0.78267	-5
0.78633	-5
0.79000	-6
0.79367	-6
0.79733	-6
0.80100	-6
0.80467	-6
0.80833	-6
0.81200	-6
0.81567	-6
0.81933	-6
0.82300	-6
0.82667	-6
0.83033	-6
0.83400	-6
0.83767	-6
0.84133	-6
0.84500	-6
0.84867	-6
0.85233	-6
0.85600	-6
0.85967	-5
0.86333	-5
0.86700	-5
0.87067	-5
0.87433	-5
0.87800	-5
0.88167	-5
0.88533	-5
0.88900	-5
0.89267	-4
0.89633	-4
0.90000	-4
0.90367	-4
0.90733	-3
0.91100	-3
0.91467	-3
0.91833	-2
0.92200	-2
0.92567	-2
0.92933	-1
0.93300	-1
0.93667	-1
0.94033	-1
0.94400	-1
0.94767	-1
0.95133	-1
0.95500	-1
0.95867	-1
0.96233	-1
0.96600	-0
0.96967	-0
0.97333	-0
0.97700	0
0.98067	0
0.98433	1
0.98800	1
0.99167	1
0.99533	1
0.99900	1
1.00267	1
1.00633	1
1.01000	1
1.01367	1
1.01733	1
1.02100	1
1.02467	1
1.02833	1
1.03200	1
1.03567	1
1.03933	1
1.04300	1
1.04667	1
1.05033	1
1.05400	1
1.05767	1
1.06133	1
1.06500	0
1.06867	-0
1.07233	-0
1.07600	-1
1.07967	-1
1.08333	-1
1.08700	-1
1.09067	-1
1.09433	-1
1.09800	-1
1.10167	-2
1.10533	-2
1.10900	-2
1.11267	-2
1.11633	-2
1.12000	-3
1.12367	-3
1.12733	-3
1.13100	-3
1.13467	-3
1.13833	-3
1.14200	-3
1.14567	-3
1.14933	-3
1.15300	-3
1.15667	-3
1.16033	-3
1.16400	-4
1.16767	-4
1.17133	-4
1.17500	-5
1.17867	-5
1.18233	-5
1.18600	-5
1.18967	-6
1.19333	-6
1.19700	-5
1.20067	-5
1.20433	-5
1.20800	-5
1.21167	-5
1.21533	-5
1.21900	-5
1.22267	-5
1.22633	-4
1.23000	-4
1.23367	-4
1.23733	-4
1.24100	-4
1.24467	-4
1.24833	-4
1.25200	-4
1.25567	-4
1.25933	-4
1.26300	-3
1.26667	-4
1.27033	-4
1.27400	-4
1.27767	-4
1.28133	-4
1.28500	-4
1.28867	-4
1.29233	-4
1.29600	-3
1.29967	-3
1.30333	-3
1.30700	-3
1.31067	-3
1.31433	-3
1.31800	-3
1.32167	-2
1.32533	-2
1.32900	-2
1.33267	-2
1.33633	-2
1.34000	-2
1.34367	-2
1.34733	-2
1.35100	-2
1.35467	-3
1.35833	-3
1.36200	-3
1.36567	-3
1.36933	-3
1.37300	-3
1.37667	-4
1.38033	-4
1.38400	-4
1.38767	-4
1.39133	-5
1.39500	-5
1.39867	-5
1.40233	-5
1.40600	-5
1.40967	-6
1.41333	-6
1.41700	-6
1.42067	-6
1.42433	-6
1.42800	-6
1.43167	-6
1.43533	-6
1.43900	-6
1.44267	-6
1.44633	-6
1.45000	-6
1.45367	-6
1.45733	-6
1.46100	-6
1.46467	-6
1.46833	-6
1.47200	-6
1.47567	-6
1.47933	-6
1.48300	-6
1.48667	-6
1.49033	-6
1.49400	-6
1.49767	-6
1.50133	-6
1.50500	-6
1.50867	-5
1.51233	-5
1.51600	-4
1.51967	-4
1.52333	-3
1.52700	-2
1.53067	-2
1.53433	-1
1.53800	-0
1.54167	0
1.54533	0
1.54900	1
1.55267	1
1.55633	1
1.56000	0
1.56367	0
1.56733	-0
1.57100	-1
1.57467	-1
1.57833	-2
1.58200	-2
1.58567	-3
1.58933	-3
1.59300	-4
1.59667	-5
1.60033	-6
1.60400	-7
1.60767	-9
1.61133	-11
1.61500	-13
1.61867	-16
1.62233	-19
1.62600	-22
1.62967	-25
1.63333	-28
1.63700	-32
1.64067	-36
1.64433	-39
1.64800	-42
1.65167	-46
1.65533	-49
1.65900	-52
1.66267	-56
1.66633	-59
1.67000	-62
1.67367	-65
1.67733	-69
1.68100	-73
1.68467	-77
1.68833	-82
1.69200	-87
1.69567	-91
1.69933	-96
1.70300	-100
1.70667	-103
1.71033	-106
1.71400	-108
1.71767	-110
1.72133	-112
1.72500	-114
1.72867	-116
1.73233	-117
1.73600	-118
1.73967	-118
1.74333	-119
1.74700	-119
1.75067	-119
1.75433	-119
1.75800	-120
1.76167	-120
1.76533	-120
1.76900	-120
1.77267	-120
1.77633	-121
1.78000	-121
1.78367	-121
1.78733	-122
1.79100	-122
1.79467	-122
1.79833	-122
1.80200	-122
1.80567	-123
1.80933	-123
1.81300	-124
1.81667	-124
1.82033	-124
1.82400	-124
1.82767	-123
1.83133	-123
1.83500	-123
1.83867	-123
1.84233	-124
1.84600	-124
1.84967	-124
1.85333	-124
1.85700	-124
1.86067	-125
1.86433	-125
1.86800	-125
1.87167	-125
1.87533	-125
1.87900	-126
1.88267	-126
1.88633	-125
1.89000	-125
1.89367	-124
1.89733	-124
1.90100	-124
1.90467	-123
1.90833	-123
1.91200	-122
1.91567	-122
1.91933	-122
1.92300	-121
1.92667	-121
1.93033	-121
1.93400	-121
1.93767	-121
1.94133	-121
1.94500	-121
1.94867	-121
1.95233	-121
1.95600	-121
1.95967	-121
1.96333	-120
1.96700	-120
1.97067	-119
1.97433	-119
1.97800	-119
1.98167	-119
1.98533	-118
1.98900	-118
1.99267	-118
1.99633	-118
2.00000	-118
2.00367	-118
2.00733	-117
2.01100	-116
2.01467	-115
2.01833	-114
2.02200	-113
2.02567	-113
2.02933	-112
2.03300	-112
2.03667	-112
2.04033	-112
2.04400	-112
2.04767	-112
2.05133	-112
2.05500	-112
2.05867	-113
2.06233	-113
2.06600	-113
2.06967	-113
2.07333	-112
2.07700	-112
2.08067	-111
2.08433	-111
2.08800	-111
2.09167	-110
2.09533	-110
2.09900	-110
2.10267	-110
2.10633	-110
2.11000	-109
2.11367	-109
2.11733	-108
2.12100	-108
2.12467	-107
2.12833	-107
2.13200	-106
2.13567	-106
2.13933	-106
2.14300	-106
2.14667	-106
2.15033	-106
2.15400	-106
2.15767	-106
2.16133	-105
2.16500	-105
2.16867	-105
2.17233	-104
2.17600	-104
2.17967	-104
2.18333	-103
2.18700	-103
2.19067	-102
2.19433	-102
2.19800	-101
2.20167	-101
2.20533	-100
2.20900	-100
2.21267	-99
2.21633	-99
2.22000	-98
2.22367	-97
2.22733	-97
2.23100	-96
2.23467	-95
2.23833	-95
2.24200	-94
2.24567	-94
2.24933	-94
2.25300	-94
2.25667	-93
2.26033	-93
2.26400	-93
2.26767	-93
2.27133	-93
2.27500	-93
2.27867	-94
2.28233	-94
2.28600	-95
2.28967	-95
2.29333	-96
2.29700	-96
2.30067	-96
2.30433	-95
2.30800	-95
2.31167	-94
2.31533	-93
2.31900	-93
2.32267	-92
2.32633	-92
2.33000	-92
2.33367	-91
2.33733	-91
2.34100	-91
2.34467	-90
2.34833	-90
2.35200	-89
2.35567	-89
2.35933	-88
2.36300	-87
2.36667	-86
2.37033	-85
2.37400	-84
2.37767	-82
2.38133	-79
2.38500	-76
2.38867	-72
2.39233	-68
2.39600	-64
2.39967	-60
2.40333	-55
2.40700	-50
2.41067	-46
2.41433	-41
2.41800	-37
2.42167	-33
2.42533	-29
2.42900	-26
2.43267	-23
2.43633	-20
2.44000	-17
2.44367	-15
2.44733	-13
2.45100	-11
2.45467	-9
2.45833	-8
2.46200	-7
2.46567	-6
2.46933	-5
2.47300	-4
2.47667	-3
2.48033	-2
2.48400	-1
2.48767	-0
2.49133	1
2.49500	2
2.49867	3
2.50233	3
2.50600	4
2.50967	5
2.51333	5
2.51700	6
2.52067	6
2.52433	7
2.52800	7
2.53167	8
2.53533	8
2.53900	8
2.54267	9
2.54633	9
2.55000	9
2.55367	10
2.55733	10
2.56100	11
2.56467	12
2.56833	12
2.57200	12
2.57567	12
2.57933	12
2.58300	12
2.58667	12
2.59033	12
2.59400	12
2.59767	12
2.60133	12
2.60500	12
2.60867	13
2.61233	13
2.61600	13
2.61967	14
2.62333	14
2.62700	15
2.63067	15
2.63433	15
2.63800	16
2.64167	16
2.64533	16
2.64900	16
2.65267	16
2.65633	16
2.66000	16
2.66367	17
2.66733	17
2.67100	17
2.67467	17
2.67833	17
2.68200	17
2.68567	17
2.68933	17
2.69300	18
2.69667	18
2.70033	18
2.70400	19
2.70767	19
2.71133	19
2.71500	19
2.71867	19
2.72233	19
2.72600	19
2.72967	20
2.73333	20
2.73700	20
2.74067	21
2.74433	21
2.74800	21
2.75167	22
2.75533	22
2.75900	22
2.76267	22
2.76633	22
2.77000	22
2.77367	22
2.77733	22
2.78100	21
2.78467	21
2.78833	20
2.79200	20
2.79567	20
2.79933	19
2.80300	19
2.80667	19
2.81033	19
2.81400	19
2.81767	19
2.82133	20
2.82500	20
2.82867	20
2.83233	21
2.83600	21
2.83967	21
2.84333	21
2.84700	21
2.85067	21
2.85433	19
2.85800	16
2.86167	11
2.86533	4
2.86900	-7
2.87267	-21
2.87633	-39
2.88000	-60
2.88367	-86
2.88733	-115
2.89100	-148
2.89467	-184
2.89833	-224
2.90200	-266
2.90567	-310
2.90933	-356
2.91300	-403
2.91667	-452
2.92033	-501
2.92400	-551
2.92767	-600
2.93133	-649
2.93500	-698
2.93867	-746
2.94233	-794
2.94600	-844
2.94967	-897
2.95333	-957
2.95700	-1017
2.96067	-1067
2.96433	-1097
2.96800	-1101
2.97167	-1079
2.97533	-1035
2.97900	-974
2.98267	-901
2.98633	-822
2.99000	-741
2.99367	-662
2.99733	-586
3.00100	-515
3.00467	-450
3.00833	-391
3.01200	-339
3.01567	-292
3.01933	-251
3.02300	-215
3.02667	-184
3.03033	-157
3.03400	-133
3.03767	-113
3.04133	-95
3.04500	-80
3.04867	-67
3.05233	-56
3.05600	-46
3.05967	-38
3.06333	-31
3.06700	-25
3.07067	-20
3.07433	-15
3.07800	-12
3.08167	-8
3.08533	-5
3.08900	-3
3.09267	-1
3.09633	1
3.10000	2
3.10367	3
3.10733	4
3.11100	5
3.11467	5
3.11833	6
3.12200	7
3.12567	8
3.12933	9
3.13300	9
3.13667	10
3.14033	11
3.14400	11
3.14767	12
3.15133	12
3.15500	13
3.15867	13
3.16233	14
3.16600	14
3.16967	15
3.17333	15
3.17700	15
3.18067	15
3.18433	15
3.18800	15
3.19167	16
3.19533	16
3.19900	16
3.20267	17
3.20633	17
3.21000	17
3.21367	17
3.21733	17
3.22100	17
3.22467	18
3.22833	18
3.23200	18
3.23567	18
3.23933	18
3.24300	18
3.24667	18
3.25033	18
3.25400	18
3.25767	18
3.26133	18
3.26500	18
3.26867	18
3.27233	18
3.27600	18
3.27967	18
3.28333	18
3.28700	18
3.29067	18
3.29433	18
3.29800	18
3.30167	18
3.30533	19
3.30900	19
3.31267	20
3.31633	20
3.32000	21
3.32367	21
3.32733	22
3.33100	23
3.33467	23
3.33833	24
3.34200	24
3.34567	25
3.34933	25
3.35300	25
3.35667	26
3.36033	26
3.36400	26
3.36767	26
3.37133	27
3.37500	27
3.37867	27
3.38233	27
3.38600	26
3.38967	26
3.39333	26
3.39700	26
3.40067	26
3.40433	25
3.40800	25
3.41167	25
3.41533	25
3.41900	25
3.42267	25
3.42633	25
3.43000	25
3.43367	26
3.43733	26
3.44100	26
3.44467	27
3.44833	27
3.45200	27
3.45567	26
3.45933	26
3.46300	26
3.46667	26
3.47033	26
3.47400	26
3.47767	25
3.48133	25
3.48500	25
3.48867	25
3.49233	25
3.49600	25
3.49967	25
3.50333	25
3.50700	25
3.51067	25
3.51433	25
3.51800	25
3.52167	25
3.52533	24
3.52900	24
3.53267	24
3.53633	24
3.54000	24
3.54367	24
3.54733	24
3.55100	24
3.55467	24
3.55833	24
3.56200	24
3.56567	24
3.56933	24
3.57300	24
3.57667	24
3.58033	23
3.58400	23
3.58767	23
3.59133	23
3.59500	23
3.59867	23
3.60233	24
3.60600	24
3.60967	24
3.61333	24
3.61700	24
3.62067	24
3.62433	24
3.62800	24
3.63167	24
3.63533	24
3.63900	24
3.64267	23
3.64633	23
3.65000	23
3.65367	23
3.65733	23
3.66100	23
3.66467	22
3.66833	22
3.67200	22
3.67567	22
3.67933	22
3.68300	22
3.68667	23
3.69033	23
3.69400	23
3.69767	23
3.70133	23
3.70500	23
3.70867	24
3.71233	24
3.71600	24
3.71967	24
3.72333	24
3.72700	24
3.73067	24
3.73433	24
3.73800	24
3.74167	24
3.74533	23
3.74900	23
3.75267	23
3.75633	23
3.76000	23
3.76367	23
3.76733	23
3.77100	22
3.77467	22
3.77833	22
3.78200	22
3.78567	22
3.78933	22
3.79300	22
3.79667	22
3.80033	22
3.80400	22
3.80767	22
3.81133	22
3.81500	22
3.81867	22
3.82233	22
3.82600	22
3.82967	22
3.83333	21
3.83700	21
3.84067	21
3.84433	21
3.84800	21
3.85167	21
3.85533	21
3.85900	21
3.86267	21
3.86633	22
3.87000	22
3.87367	22
3.87733	22
3.88100	22
3.88467	22
3.88833	22
3.89200	23
3.89567	23
3.89933	23
3.90300	23
3.90667	23
3.91033	24
3.91400	24
3.91767	24
3.92133	24
3.92500	24
3.92867	24
3.93233	24
3.93600	25
3.93967	25
3.94333	25
3.94700	25
3.95067	25
3.95433	24
3.95800	24
3.96167	24
3.96533	24
3.96900	24
3.97267	24
3.97633	24
3.98000	24
3.98367	24
3.98733	24
3.99100	25
3.99467	24
3.99833	24

[Chromatogram (Ch3)]
Interval(msec)	220
# of Points	1091
Start Time(min)	0.002
End Time(min)	3.998
R.Time (min)	Intensity
0.00167	1
0.00533	3
0.00900	5
0.01267	3
0.01633	3
0.02000	2
0.02367	3
0.02733	3
0.03100	2
0.03467	5
0.03833	8
0.04200	9
0.04567	9
0.04933	8
0.05300	6
0.05667	6
0.06033	6
0.06400	5
0.06767	4
0.07133	5
0.07500	5
0.07867	5
0.08233	7
0.08600	7
0.08967	6
0.09333	6
0.09700	5
0.10067	5
0.10433	4
0.10800	3
0.11167	4
0.11533	5
0.11900	6
0.12267	9
0.12633	12
0.13000	13
0.13367	15
0.13733	15
0.14100	14
0.14467	12
0.14833	9
0.15200	8
0.15567	7
0.15933	7
0.16300	9
0.16667	11
0.17033	12
0.17400	12
0.17767	9
0.18133	6
0.18500	8
0.18867	11
0.19233	14
0.19600	14
0.19967	13
0.20333	10
0.20700	10
0.21067	11
0.21433	14
0.21800	13
0.22167	14
0.22533	16
0.22900	14
0.23267	14
0.23633	12
0.24000	12
0.24367	13
0.24733	13
0.25100	13
0.25467	12
0.25833	10
0.26200	9
0.26567	9
0.26933	11
0.27300	12
0.27667	13
0.28033	10
0.28400	10
0.28767	13
0.29133	15
0.29500	16
0.29867	16
0.30233	15
0.30600	16
0.30967	16
0.31333	17
0.31700	17
0.32067	17
0.32433	15
0.32800	14
0.33167	13
0.33533	13
0.33900	15
0.34267	17
0.34633	17
0.35000	16
0.35367	15
0.35733	16
0.36100	16
0.36467	17
0.36833	18
0.37200	18
0.37567	19
0.37933	20
0.38300	19
0.38667	17
0.39033	15
0.39400	14
0.39767	17
0.40133	19
0.40500	19
0.40867	18
0.41233	19
0.41600	19
0.41967	21
0.42333	22
0.42700	23
0.43067	22
0.43433	20
0.43800	18
0.44167	17
0.44533	18
0.44900	17
0.45267	17
0.45633	17
0.46000	15
0.46367	13
0.46733	13
0.47100	13
0.47467	13
0.47833	13
0.48200	13
0.48567	14
0.48933	14
0.49300	11
0.49667	10
0.50033	8
0.50400	8
0.50767	11
0.51133	12
0.51500	11
0.51867	10
0.52233	9
0.52600	10
0.52967	9
0.53333	10
0.53700	13
0.54067	14
0.54433	15
0.54800	17
0.55167	17
0.55533	16
0.55900	15
0.56267	16
0.56633	16
0.57000	16
0.57367	16
0.57733	17
0.58100	19
0.58467	18
0.58833	21
0.59200	23
0.59567	21
0.59933	21
0.60300	22
0.60667	19
0.61033	18
0.61400	18
0.61767	22
0.62133	24
0.62500	25
0.62867	24
0.63233	23
0.63600	25
0.63967	24
0.64333	22
0.64700	20
0.65067	21
0.65433	22
0.65800	22
0.66167	23
0.66533	23
0.66900	22
0.67267	24
0.67633	25
0.68000	26
0.68367	26
0.68733	25
0.69100	25
0.69467	24
0.69833	24
0.70200	25
0.70567	24
0.70933	27
0.71300	29
0.71667	31
0.72033	31
0.72400	30
0.72767	28
0.73133	27
0.73500	26
0.73867	22
0.74233	22
0.74600	25
0.74967	28
0.75333	31
0.75700	31
0.76067	30
0.76433	31
0.76800	31
0.77167	30
0.77533	28
0.77900	28
0.78267	30
0.78633	32
0.79000	34
0.79367	35
0.79733	34
0.80100	34
0.80467	34
0.80833	35
0.81200	35
0.81567	35
0.81933	34
0.82300	33
0.82667	33
0.83033	35
0.83400	36
0.83767	37
0.84133	37
0.84500	37
0.84867	37
0.85233	37
0.85600	37
0.85967	35
0.86333	33
0.86700	35
0.87067	36
0.87433	37
0.87800	36
0.88167	36
0.88533	36
0.88900	35
0.89267	36
0.89633	38
0.90000	37
0.90367	36
0.90733	36
0.91100	35
0.91467	35
0.91833	36
0.92200	38
0.92567	41
0.92933	42
0.93300	42
0.93667	42
0.94033	42
0.94400	44
0.94767	47
0.95133	49
0.95500	51
0.95867	51
0.96233	51
0.96600	50
0.96967	49
0.97333	48
0.97700	48
0.98067	47
0.98433	46
0.98800	45
0.99167	45
0.99533	46
0.99900	48
1.00267	49
1.00633	49
1.01000	49
1.01367	48
1.01733	48
1.02100	51
1.02467	54
1.02833	55
1.03200	55
1.03567	54
1.03933	54
1.04300	51
1.04667	50
1.05033	49
1.05400	48
1.05767	50
1.06133	52
1.06500	53
1.06867	53
1.07233	54
1.07600	55
1.07967	57
1.08333	58
1.08700	57
1.09067	56
1.09433	57
1.09800	57
1.10167	57
1.10533	57
1.10900	58
1.11267	57
1.11633	56
1.12000	53
1.12367	52
1.12733	51
1.13100	51
1.13467	54
1.13833	57
1.14200	58
1.14567	59
1.14933	58
1.15300	59
1.15667	60
1.16033	57
1.16400	56
1.16767	57
1.17133	57
1.17500	58
1.17867	56
1.18233	56
1.18600	59
1.18967	59
1.19333	58
1.19700	60
1.20067	61
1.20433	62
1.20800	61
1.21167	61
1.21533	62
1.21900	63
1.22267	63
1.22633	63
1.23000	60
1.23367	59
1.23733	60
1.24100	62
1.24467	62
1.24833	63
1.25200	62
1.25567	62
1.25933	62
1.26300	61
1.26667	62
1.27033	61
1.27400	61
1.27767	60
1.28133	60
1.28500	59
1.28867	58
1.29233	61
1.29600	61
1.29967	61
1.30333	60
1.30700	59
1.31067	59
1.31433	58
1.31800	59
1.32167	59
1.32533	57
1.32900	58
1.33267	59
1.33633	58
1.34000	58
1.34367	58
1.34733	58
1.35100	58
1.35467	56
1.35833	57
1.36200	59
1.36567	60
1.36933	62
1.37300	62
1.37667	61
1.38033	61
1.38400	61
1.38767	59
1.39133	58
1.39500	58
1.39867	58
1.40233	57
1.40600	58
1.40967	59
1.41333	59
1.41700	60
1.42067	62
1.42433	63
1.42800	63
1.43167	64
1.43533	62
1.43900	63
1.44267	64
1.44633	63
1.45000	62
1.45367	63
1.45733	63
1.46100	66
1.46467	68
1.46833	65
1.47200	63
1.47567	63
1.47933	64
1.48300	65
1.48667	66
1.49033	66
1.49400	66
1.49767	65
1.50133	65
1.50500	67
1.50867	66
1.51233	66
1.51600	68
1.51967	67
1.52333	64
1.52700	62
1.53067	63
1.53433	66
1.53800	68
1.54167	69
1.54533	68
1.54900	66
1.55267	66
1.55633	65
1.56000	63
1.56367	63
1.56733	63
1.57100	64
1.57467	66
1.57833	66
1.58200	66
1.58567	68
1.58933	69
1.59300	72
1.59667	73
1.60033	72
1.60400	68
1.60767	65
1.61133	66
1.61500	66
1.61867	68
1.62233	71
1.62600	74
1.62967	75
1.63333	76
1.63700	77
1.64067	76
1.64433	74
1.64800	73
1.65167	73
1.65533	74
1.65900	74
1.66267	74
1.66633	77
1.67000	79
1.67367	80
1.67733	80
1.68100	81
1.68467	81
1.68833	80
1.69200	82
1.69567	84
1.69933	83
1.70300	82
1.70667	79
1.71033	76
1.71400	75
1.71767	76
1.72133	80
1.72500	81
1.72867	81
1.73233	80
1.73600	81
1.73967	82
1.74333	84
1.74700	84
1.75067	84
1.75433	83
1.75800	82
1.76167	81
1.76533	81
1.76900	81
1.77267	84
1.77633	85
1.78000	86
1.78367	87
1.78733	86
1.79100	87
1.79467	88
1.79833	87
1.80200	88
1.80567	90
1.80933	90
1.81300	91
1.81667	93
1.82033	94
1.82400	95
1.82767	94
1.83133	94
1.83500	95
1.83867	98
1.84233	99
1.84600	98
1.84967	98
1.85333	97
1.85700	97
1.86067	96
1.86433	96
1.86800	96
1.87167	96
1.87533	96
1.87900	99
1.88267	100
1.88633	100
1.89000	99
1.89367	99
1.89733	100
1.90100	102
1.90467	104
1.90833	104
1.91200	104
1.91567	104
1.91933	104
1.92300	104
1.92667	106
1.93033	107
1.93400	108
1.93767	107
1.94133	106
1.94500	107
1.94867	109
1.95233	110
1.95600	115
1.95967	119
1.96333	119
1.96700	119
1.97067	117
1.97433	117
1.97800	118
1.98167	119
1.98533	118
1.98900	116
1.99267	116
1.99633	118
2.00000	118
2.00367	119
2.00733	120
2.01100	123
2.01467	123
2.01833	124
2.02200	126
2.02567	127
2.02933	127
2.03300	127
2.03667	128
2.04033	128
2.04400	129
2.04767	130
2.05133	132
2.05500	134
2.05867	135
2.06233	134
2.06600	135
2.06967	136
2.07333	138
2.07700	139
2.08067	138
2.08433	136
2.08800	137
2.09167	140
2.09533	143
2.09900	147
2.10267	148
2.10633	148
2.11000	149
2.11367	150
2.11733	151
2.12100	150
2.12467	150
2.12833	152
2.13200	151
2.13567	152
2.13933	153
2.14300	156
2.14667	160
2.15033	162
2.15400	164
2.15767	163
2.16133	161
2.16500	161
2.16867	164
2.17233	166
2.17600	168
2.17967	170
2.18333	172
2.18700	174
2.19067	175
2.19433	172
2.19800	169
2.20167	168
2.20533	168
2.20900	170
2.21267	172
2.21633	173
2.22000	175
2.22367	176
2.22733	177
2.23100	179
2.23467	181
2.23833	184
2.24200	185
2.24567	185
2.24933	184
2.25300	182
2.25667	183
2.26033	185
2.26400	186
2.26767	188
2.27133	189
2.27500	192
2.27867	192
2.28233	194
2.28600	197
2.28967	198
2.29333	200
2.29700	203
2.30067	205
2.30433	207
2.30800	207
2.31167	208
2.31533	209
2.31900	211
2.32267	215
2.32633	216
2.33000	216
2.33367	215
2.33733	213
2.34100	215
2.34467	215
2.34833	216
2.35200	217
2.35567	218
2.35933	221
2.36300	224
2.36667	227
2.37033	229
2.37400	229
2.37767	227
2.38133	225
2.38500	223
2.38867	222
2.39233	223
2.39600	223
2.39967	223
2.40333	226
2.40700	229
2.41067	231
2.41433	234
2.41800	235
2.42167	234
2.42533	234
2.42900	234
2.43267	236
2.43633	241
2.44000	244
2.44367	250
2.44733	264
2.45100	279
2.45467	288
2.45833	286
2.46200	274
2.46567	261
2.46933	252
2.47300	241
2.47667	228
2.48033	218
2.48400	209
2.48767	200
2.49133	193
2.49500	187
2.49867	182
2.50233	178
2.50600	175
2.50967	173
2.51333	172
2.51700	173
2.52067	175
2.52433	176
2.52800	173
2.53167	170
2.53533	162
2.53900	155
2.54267	150
2.54633	147
2.55000	144
2.55367	139
2.55733	134
2.56100	130
2.56467	128
2.56833	127
2.57200	126
2.57567	123
2.57933	122
2.58300	121
2.58667	119
2.59033	116
2.59400	114
2.59767	112
2.60133	111
2.60500	105
2.60867	94
2.61233	77
2.61600	52
2.61967	20
2.62333	-16
2.62700	-53
2.63067	-91
2.63433	-126
2.63800	-156
2.64167	-179
2.64533	-196
2.64900	-209
2.65267	-218
2.65633	-220
2.66000	-219
2.66367	-216
2.66733	-211
2.67100	-206
2.67467	-199
2.67833	-190
2.68200	-177
2.68567	-165
2.68933	-156
2.69300	-147
2.69667	-135
2.70033	-123
2.70400	-115
2.70767	-107
2.71133	-98
2.71500	-90
2.71867	-82
2.72233	-71
2.72600	-61
2.72967	-53
2.73333	-48
2.73700	-43
2.74067	-38
2.74433	-34
2.74800	-28
2.75167	-24
2.75533	-20
2.75900	-18
2.76267	-16
2.76633	-14
2.77000	-12
2.77367	-12
2.77733	-9
2.78100	-5
2.78467	-2
2.78833	1
2.79200	5
2.79567	6
2.79933	8
2.80300	8
2.80667	9
2.81033	13
2.81400	17
2.81767	19
2.82133	20
2.82500	23
2.82867	29
2.83233	45
2.83600	83
2.83967	157
2.84333	293
2.84700	514
2.85067	839
2.85433	1274
2.85800	1811
2.86167	2423
2.86533	3070
2.86900	3701
2.87267	4263
2.87633	4713
2.88000	5018
2.88367	5171
2.88733	5176
2.89100	5048
2.89467	4813
2.89833	4504
2.90200	4148
2.90567	3771
2.90933	3391
2.91300	3022
2.91667	2674
2.92033	2354
2.92400	2064
2.92767	1804
2.93133	1571
2.93500	1367
2.93867	1185
2.94233	1026
2.94600	888
2.94967	767
2.95333	662
2.95700	570
2.96067	494
2.96433	430
2.96800	374
2.97167	326
2.97533	284
2.97900	248
2.98267	216
2.98633	188
2.99000	175
2.99367	179
2.99733	196
3.00100	223
3.00467	256
3.00833	295
3.01200	337
3.01567	382
3.01933	425
3.02300	469
3.02667	515
3.03033	559
3.03400	598
3.03767	635
3.04133	668
3.04500	696
3.04867	722
3.05233	745
3.05600	762
3.05967	775
3.06333	787
3.06700	797
3.07067	806
3.07433	813
3.07800	817
3.08167	823
3.08533	831
3.08900	838
3.09267	845
3.09633	849
3.10000	854
3.10367	859
3.10733	861
3.11100	864
3.11467	869
3.11833	873
3.12200	876
3.12567	881
3.12933	885
3.13300	889
3.13667	894
3.14033	898
3.14400	901
3.14767	906
3.15133	912
3.15500	916
3.15867	919
3.16233	921
3.16600	926
3.16967	930
3.17333	933
3.17700	934
3.18067	937
3.18433	942
3.18800	945
3.19167	947
3.19533	950
3.19900	951
3.20267	952
3.20633	951
3.21000	948
3.21367	946
3.21733	947
3.22100	947
3.22467	944
3.22833	941
3.23200	938
3.23567	937
3.23933	938
3.24300	938
3.24667	935
3.25033	931
3.25400	929
3.25767	927
3.26133	922
3.26500	917
3.26867	913
3.27233	909
3.27600	904
3.27967	900
3.28333	895
3.28700	889
3.29067	883
3.29433	880
3.29800	877
3.30167	873
3.30533	868
3.30900	864
3.31267	860
3.31633	856
3.32000	851
3.32367	847
3.32733	844
3.33100	843
3.33467	840
3.33833	834
3.34200	827
3.34567	822
3.34933	818
3.35300	812
3.35667	806
3.36033	801
3.36400	798
3.36767	797
3.37133	796
3.37500	795
3.37867	794
3.38233	790
3.38600	786
3.38967	783
3.39333	781
3.39700	778
3.40067	773
3.40433	769
3.40800	765
3.41167	761
3.41533	758
3.41900	756
3.42267	753
3.42633	749
3.43000	745
3.43367	742
3.43733	741
3.44100	739
3.44467	734
3.44833	731
3.45200	730
3.45567	726
3.45933	720
3.46300	715
3.46667	715
3.47033	714
3.47400	709
3.47767	703
3.48133	698
3.48500	696
3.48867	694
3.49233	692
3.49600	687
3.49967	682
3.50333	679
3.50700	676
3.51067	674
3.51433	670
3.51800	666
3.52167	663
3.52533	661
3.52900	658
3.53267	655
3.53633	651
3.54000	648
3.54367	648
3.54733	646
3.55100	644
3.55467	641
3.55833	639
3.56200	635
3.56567	630
3.56933	624
3.57300	619
3.57667	617
3.58033	620
3.58400	620
3.58767	618
3.59133	614
3.59500	612
3.59867	610
3.60233	608
3.60600	604
3.60967	599
3.61333	594
3.61700	590
3.62067	588
3.62433	587
3.62800	585
3.63167	583
3.63533	583
3.63900	583
3.64267	580
3.64633	578
3.65000	576
3.65367	572
3.65733	570
3.66100	567
3.66467	564
3.66833	561
3.67200	558
3.67567	555
3.67933	552
3.68300	551
3.68667	548
3.69033	546
3.69400	544
3.69767	541
3.70133	537
3.70500	531
3.70867	529
3.71233	529
3.71600	528
3.71967	526
3.72333	525
3.72700	522
3.73067	519
3.73433	516
3.73800	515
3.74167	515
3.74533	512
3.74900	508
3.75267	506
3.75633	502
3.76000	499
3.76367	500
3.76733	499
3.77100	497
3.77467	494
3.77833	490
3.78200	490
3.78567	489
3.78933	489
3.79300	486
3.79667	482
3.80033	478
3.80400	475
3.80767	474
3.81133	472
3.81500	468
3.81867	467
3.82233	466
3.82600	463
3.82967	461
3.83333	461
3.83700	461
3.84067	458
3.84433	458
3.84800	456
3.85167	453
3.85533	451
3.85900	447
3.86267	444
3.86633	442
3.87000	441
3.87367	439
3.87733	436
3.88100	434
3.88467	433
3.88833	433
3.89200	432
3.89567	429
3.89933	425
3.90300	422
3.90667	420
3.91033	418
3.91400	418
3.91767	418
3.92133	416
3.92500	412
3.92867	409
3.93233	407
3.93600	407
3.93967	406
3.94333	405
3.94700	405
3.95067	404
3.95433	403
3.95800	402
3.96167	400
3.96533	398
3.96900	397
3.97267	396
3.97633	394
3.98000	393
3.98367	390
3.98733	386
3.99100	385
3.99467	383
3.99833	383

[Status Trace (Column Oven Temperature)]
Interval(msec)	1000
# of Points	240
Start Time(min)	0.002
End Time(min)	3.986
Intensity Units	
Intensity Multiplier	1
R.Time (min)	Intensity
0.00240	34.98
0.01907	34.97
0.03573	34.98
0.05240	34.98
0.06907	34.98
0.08573	34.97
0.10240	34.97
0.11907	34.97
0.13573	34.97
0.15240	34.98
0.16907	34.98
0.18573	34.98
0.20240	34.99
0.21907	34.98
0.23573	34.98
0.25240	34.99
0.26907	34.99
0.28573	35.00
0.30240	35.00
0.31907	35.00
0.33573	35.00
0.35240	35.01
0.36907	35.01
0.38573	34.99
0.40240	34.99
0.41907	34.97
0.43573	34.97
0.45240	34.98
0.46907	34.98
0.48573	34.98
0.50240	34.97
0.51907	34.99
0.53573	34.99
0.55240	34.99
0.56907	34.99
0.58573	35.00
0.60240	35.00
0.61907	35.01
0.63573	35.01
0.65240	35.02
0.66907	35.02
0.68573	35.01
0.70240	34.99
0.71907	34.99
0.73573	34.99
0.75240	34.98
0.76907	34.99
0.78573	35.00
0.80240	35.02
0.81907	35.02
0.83573	35.04
0.85240	35.04
0.86907	35.05
0.88573	35.05
0.90240	35.04
0.91907	35.04
0.93573	35.03
0.95240	35.02
0.96907	35.02
0.98573	35.00
1.00240	34.99
1.01907	34.99
1.03573	34.98
1.05240	34.97
1.06907	34.96
1.08573	34.96
1.10240	34.96
1.11907	34.97
1.13573	34.97
1.15240	34.97
1.16907	34.99
1.18573	35.00
1.20240	35.00
1.21907	35.01
1.23573	35.01
1.25240	35.01
1.26907	35.01
1.28573	35.00
1.30240	34.99
1.31907	34.99
1.33573	34.98
1.35240	34.98
1.36907	35.00
1.38573	35.00
1.40240	35.01
1.41907	35.03
1.43573	35.04
1.45240	35.04
1.46907	35.05
1.48573	35.05
1.50240	35.04
1.51907	35.03
1.53573	35.01
1.55240	34.99
1.56907	34.99
1.58573	35.01
1.60240	35.06
1.61907	35.18
1.63573	35.35
1.65240	35.57
1.66907	35.82
1.68573	36.17
1.70240	36.54
1.71907	36.89
1.73573	37.24
1.75240	37.55
1.76907	37.90
1.78573	38.23
1.80240	38.57
1.81907	38.89
1.83573	39.22
1.85240	39.55
1.86907	39.89
1.88573	40.22
1.90240	40.54
1.91907	40.87
1.93573	41.20
1.95240	41.54
1.96907	41.84
1.98573	42.17
2.00240	42.51
2.01907	42.81
2.03573	43.15
2.05240	43.48
2.06907	43.80
2.08573	44.11
2.10240	44.45
2.11907	44.77
2.13573	45.09
2.15240	45.42
2.16907	45.76
2.18573	46.08
2.20240	46.41
2.21907	46.73
2.23573	47.05
2.25240	47.37
2.26907	47.70
2.28573	48.06
2.30240	48.40
2.31907	48.72
2.33573	49.05
2.35240	49.35
2.36907	49.58
2.38573	49.69
2.40240	49.70
2.41907	49.69
2.43573	49.70
2.45240	49.70
2.46907	49.71
2.48573	49.72
2.50240	49.73
2.51907	49.75
2.53573	49.77
2.55240	49.77
2.56907	49.79
2.58573	49.80
2.60240	49.81
2.61907	49.82
2.63573	49.83
2.65240	49.83
2.66907	49.84
2.68573	49.85
2.70240	49.85
2.71907	49.86
2.73573	49.86
2.75240	49.85
2.76907	49.86
2.78573	49.88
2.80240	49.91
2.81907	49.92
2.83573	49.91
2.85240	49.92
2.86907	49.94
2.88573	49.94
2.90240	49.94
2.91907	49.93
2.93573	49.93
2.95240	49.93
2.96907	49.96
2.98573	49.96
3.00240	49.97
3.01907	49.99
3.03573	50.01
3.05240	50.02
3.06907	50.03
3.08573	50.04
3.10240	50.04
3.11907	50.05
3.13573	50.06
3.15240	50.06
3.16907	50.06
3.18573	50.06
3.20240	50.07
3.21907	50.06
3.23573	50.08
3.25240	50.09
3.26907	50.11
3.28573	50.12
3.30240	50.12
3.31907	50.11
3.33573	50.10
3.35240	50.08
3.36907	50.06
3.38573	50.06
3.40240	50.05
3.41907	50.05
3.43573	50.04
3.45240	50.04
3.46907	50.03
3.48573	50.02
3.50240	50.02
3.51907	50.02
3.53573	50.01
3.55240	50.02
3.56907	50.03
3.58573	50.02
3.60240	50.02
3.61907	50.03
3.63573	50.03
3.65240	50.03
3.66907	50.03
3.68573	50.03
3.70240	50.02
3.71907	50.02
3.73573	50.02
3.75240	50.02
3.76907	50.04
3.78573	50.04
3.80240	50.04
3.81907	50.06
3.83573	50.07
3.85240	50.08
3.86907	50.08
3.88573	50.07
3.90240	50.06
3.91907	50.05
3.93573	50.04
3.95240	50.04
3.96907	50.03
3.98573	50.02

[Status Trace (Injection Unit Temperature)]
Interval(msec)	1000
# of Points	240
Start Time(min)	0.002
End Time(min)	3.986
Intensity Units	
Intensity Multiplier	1
R.Time (min)	Intensity
0.00240	99.99
0.01907	99.99
0.03573	99.99
0.05240	99.99
0.06907	99.99
0.08573	99.99
0.10240	99.99
0.11907	99.99
0.13573	99.99
0.15240	99.99
0.16907	99.99
0.18573	99.99
0.20240	99.99
0.21907	99.99
0.23573	99.99
0.25240	99.99
0.26907	99.98
0.28573	99.98
0.30240	99.99
0.31907	99.98
0.33573	99.99
0.35240	99.98
0.36907	99.98
0.38573	99.99
0.40240	99.98
0.41907	99.98
0.43573	99.98
0.45240	99.98
0.46907	99.98
0.48573	99.98
0.50240	99.98
0.51907	99.98
0.53573	99.98
0.55240	99.98
0.56907	99.98
0.58573	99.98
0.60240	99.98
0.61907	99.98
0.63573	99.99
0.65240	99.98
0.66907	99.97
0.68573	99.98
0.70240	99.98
0.71907	99.98
0.73573	99.98
0.75240	99.98
0.76907	99.98
0.78573	99.98
0.80240	99.98
0.81907	99.98
0.83573	99.98
0.85240	99.98
0.86907	99.99
0.88573	99.98
0.90240	99.98
0.91907	99.98
0.93573	99.98
0.95240	99.98
0.96907	99.98
0.98573	99.98
1.00240	99.98
1.01907	99.98
1.03573	99.98
1.05240	99.98
1.06907	99.98
1.08573	99.98
1.10240	99.98
1.11907	99.98
1.13573	99.98
1.15240	99.98
1.16907	99.98
1.18573	99.98
1.20240	99.98
1.21907	99.98
1.23573	99.98
1.25240	99.97
1.26907	99.98
1.28573	99.98
1.30240	99.98
1.31907	99.98
1.33573	99.98
1.35240	99.98
1.36907	99.97
1.38573	99.98
1.40240	99.98
1.41907	99.98
1.43573	99.98
1.45240	99.98
1.46907	99.98
1.48573	99.98
1.50240	99.98
1.51907	99.98
1.53573	99.98
1.55240	99.98
1.56907	99.98
1.58573	99.98
1.60240	99.98
1.61907	99.98
1.63573	99.98
1.65240	99.98
1.66907	99.98
1.68573	99.98
1.70240	99.98
1.71907	99.98
1.73573	99.98
1.75240	99.98
1.76907	99.98
1.78573	99.98
1.80240	99.98
1.81907	99.98
1.83573	99.98
1.85240	99.98
1.86907	99.98
1.88573	99.98
1.90240	99.98
1.91907	99.98
1.93573	99.98
1.95240	99.98
1.96907	99.98
1.98573	99.98
2.00240	99.97
2.01907	99.97
2.03573	99.97
2.05240	99.97
2.06907	99.98
2.08573	99.98
2.10240	99.97
2.11907	99.97
2.13573	99.97
2.15240	99.97
2.16907	99.98
2.18573	99.97
2.20240	99.98
2.21907	99.97
2.23573	99.97
2.25240	99.97
2.26907	99.97
2.28573	99.97
2.30240	99.97
2.31907	99.97
2.33573	99.97
2.35240	99.97
2.36907	99.97
2.38573	99.97
2.40240	99.97
2.41907	99.97
2.43573	99.97
2.45240	99.98
2.46907	99.97
2.48573	99.97
2.50240	99.97
2.51907	99.97
2.53573	99.97
2.55240	99.97
2.56907	99.97
2.58573	99.97
2.60240	99.98
2.61907	99.97
2.63573	99.98
2.65240	99.98
2.66907	99.97
2.68573	99.98
2.70240	99.98
2.71907	99.98
2.73573	99.98
2.75240	99.98
2.76907	99.98
2.78573	99.99
2.80240	99.99
2.81907	99.99
2.83573	99.99
2.85240	99.99
2.86907	99.99
2.88573	100.00
2.90240	99.99
2.91907	99.99
2.93573	100.00
2.95240	100.00
2.96907	100.00
2.98573	100.00
3.00240	100.00
3.01907	100.01
3.03573	100.01
3.05240	100.01
3.06907	100.00
3.08573	100.01
3.10240	100.01
3.11907	100.02
3.13573	100.01
3.15240	100.01
3.16907	100.01
3.18573	100.01
3.20240	100.01
3.21907	100.02
3.23573	100.02
3.25240	100.02
3.26907	100.02
3.28573	100.03
3.30240	100.02
3.31907	100.02
3.33573	100.02
3.35240	100.03
3.36907	100.03
3.38573	100.04
3.40240	100.03
3.41907	100.03
3.43573	100.04
3.45240	100.04
3.46907	100.03
3.48573	100.03
3.50240	100.04
3.51907	100.03
3.53573	100.04
3.55240	100.04
3.56907	100.04
3.58573	100.04
3.60240	100.04
3.61907	100.04
3.63573	100.05
3.65240	100.04
3.66907	100.04
3.68573	100.04
3.70240	100.05
3.71907	100.05
3.73573	100.05
3.75240	100.05
3.76907	100.05
3.78573	100.05
3.80240	100.05
3.81907	100.05
3.83573	100.06
3.85240	100.05
3.86907	100.05
3.88573	100.04
3.90240	100.05
3.91907	100.05
3.93573	100.05
3.95240	100.05
3.96907	100.05
3.98573	100.06

[Status Trace (Carrier Gas Pressure)]
Interval(msec)	1000
# of Points	240
Start Time(min)	0.002
End Time(min)	3.986
Intensity Units	
Intensity Multiplier	1
R.Time (min)	Intensity
0.00240	58.00
0.01907	56.22
0.03573	56.24
0.05240	58.52
0.06907	59.88
0.08573	58.36
0.10240	57.97
0.11907	58.01
0.13573	58.01
0.15240	58.01
0.16907	58.00
0.18573	58.00
0.20240	58.00
0.21907	58.00
0.23573	58.00
0.25240	58.00
0.26907	58.00
0.28573	58.00
0.30240	58.00
0.31907	58.00
0.33573	58.00
0.35240	58.00
0.36907	58.00
0.38573	58.00
0.40240	58.00
0.41907	58.00
0.43573	58.00
0.45240	58.00
0.46907	58.00
0.48573	58.00
0.50240	58.00
0.51907	58.00
0.53573	58.00
0.55240	58.00
0.56907	58.00
0.58573	58.00
0.60240	58.00
0.61907	58.00
0.63573	58.00
0.65240	58.00
0.66907	58.00
0.68573	58.00
0.70240	58.00
0.71907	58.00
0.73573	58.00
0.75240	58.00
0.76907	58.00
0.78573	58.00
0.80240	58.00
0.81907	58.00
0.83573	58.00
0.85240	58.00
0.86907	58.00
0.88573	58.00
0.90240	58.00
0.91907	58.00
0.93573	58.00
0.95240	58.00
0.96907	58.00
0.98573	58.00
1.00240	58.00
1.01907	58.00
1.03573	58.00
1.05240	58.00
1.06907	58.00
1.08573	58.00
1.10240	58.00
1.11907	58.00
1.13573	58.00
1.15240	58.00
1.16907	58.00
1.18573	58.00
1.20240	58.00
1.21907	58.00
1.23573	58.00
1.25240	58.00
1.26907	58.00
1.28573	58.00
1.30240	58.00
1.31907	58.00
1.33573	58.00
1.35240	58.00
1.36907	58.00
1.38573	58.00
1.40240	58.00
1.41907	58.00
1.43573	58.00
1.45240	58.00
1.46907	58.00
1.48573	58.00
1.50240	58.00
1.51907	58.00
1.53573	58.00
1.55240	58.00
1.56907	58.00
1.58573	58.00
1.60240	58.00
1.61907	58.00
1.63573	58.00
1.65240	58.00
1.66907	58.00
1.68573	58.01
1.70240	58.00
1.71907	58.00
1.73573	58.00
1.75240	58.00
1.76907	58.00
1.78573	58.00
1.80240	58.00
1.81907	58.00
1.83573	58.00
1.85240	58.00
1.86907	58.00
1.88573	58.00
1.90240	58.00
1.91907	58.00
1.93573	58.00
1.95240	58.00
1.96907	58.00
1.98573	58.00
2.00240	58.00
2.01907	58.00
2.03573	58.00
2.05240	58.00
2.06907	58.00
2.08573	58.00
2.10240	58.00
2.11907	58.00
2.13573	58.00
2.15240	58.00
2.16907	58.00
2.18573	58.00
2.20240	58.00
2.21907	58.00
2.23573	58.00
2.25240	58.00
2.26907	58.00
2.28573	58.00
2.30240	58.00
2.31907	58.00
2.33573	58.00
2.35240	58.00
2.36907	58.00
2.38573	57.99
2.40240	57.99
2.41907	58.00
2.43573	58.00
2.45240	58.00
2.46907	58.00
2.48573	58.00
2.50240	57.98
2.51907	58.01
2.53573	57.99
2.55240	58.00
2.56907	58.00
2.58573	58.00
2.60240	58.00
2.61907	58.00
2.63573	58.00
2.65240	58.00
2.66907	58.00
2.68573	58.00
2.70240	58.00
2.71907	58.00
2.73573	58.00
2.75240	58.00
2.76907	58.00
2.78573	58.00
2.80240	58.00
2.81907	58.00
2.83573	58.00
2.85240	58.00
2.86907	58.00
2.88573	58.00
2.90240	58.00
2.91907	58.00
2.93573	58.00
2.95240	58.00
2.96907	58.00
2.98573	58.00
3.00240	58.00
3.01907	58.00
3.03573	58.00
3.05240	58.00
3.06907	58.00
3.08573	58.00
3.10240	58.00
3.11907	58.00
3.13573	58.00
3.15240	58.00
3.16907	58.00
3.18573	58.00
3.20240	58.00
3.21907	58.00
3.23573	58.00
3.25240	58.00
3.26907	58.00
3.28573	58.00
3.30240	58.00
3.31907	58.00
3.33573	58.00
3.35240	58.00
3.36907	58.00
3.38573	58.00
3.40240	58.00
3.41907	58.00
3.43573	58.00
3.45240	58.00
3.46907	58.00
3.48573	58.00
3.50240	58.00
3.51907	58.00
3.53573	58.00
3.55240	58.00
3.56907	58.00
3.58573	58.00
3.60240	58.00
3.61907	58.00
3.63573	58.00
3.65240	58.00
3.66907	58.00
3.68573	58.00
3.70240	58.00
3.71907	58.00
3.73573	58.00
3.75240	58.00
3.76907	58.00
3.78573	58.00
3.80240	58.00
3.81907	58.00
3.83573	58.00
3.85240	58.00
3.86907	58.00
3.88573	58.00
3.90240	58.00
3.91907	58.00
3.93573	58.00
3.95240	58.00
3.96907	58.00
3.98573	58.00

[Status Trace (Carrier Gas Flow)]
Interval(msec)	1000
# of Points	240
Start Time(min)	0.002
End Time(min)	3.986
Intensity Units	
Intensity Multiplier	1
R.Time (min)	Intensity
0.00240	34.52
0.01907	34.60
0.03573	34.54
0.05240	34.55
0.06907	34.49
0.08573	34.50
0.10240	34.52
0.11907	34.52
0.13573	34.52
0.15240	34.52
0.16907	34.52
0.18573	34.52
0.20240	34.51
0.21907	34.52
0.23573	34.52
0.25240	34.52
0.26907	34.52
0.28573	34.52
0.30240	34.52
0.31907	34.52
0.33573	34.52
0.35240	34.52
0.36907	34.52
0.38573	34.52
0.40240	34.52
0.41907	34.52
0.43573	34.52
0.45240	34.52
0.46907	34.52
0.48573	34.52
0.50240	34.52
0.51907	34.52
0.53573	34.52
0.55240	34.52
0.56907	34.52
0.58573	34.52
0.60240	34.52
0.61907	34.52
0.63573	34.52
0.65240	34.52
0.66907	34.52
0.68573	34.54
0.70240	34.52
0.71907	34.52
0.73573	34.52
0.75240	34.52
0.76907	34.52
0.78573	34.52
0.80240	34.52
0.81907	34.52
0.83573	34.52
0.85240	34.51
0.86907	34.52
0.88573	34.52
0.90240	34.52
0.91907	34.52
0.93573	34.52
0.95240	34.52
0.96907	34.52
0.98573	34.52
1.00240	34.51
1.01907	34.52
1.03573	34.52
1.05240	34.52
1.06907	34.52
1.08573	34.52
1.10240	34.52
1.11907	34.52
1.13573	34.52
1.15240	34.52
1.16907	34.52
1.18573	34.52
1.20240	34.52
1.21907	34.52
1.23573	34.52
1.25240	34.52
1.26907	34.52
1.28573	34.52
1.30240	34.52
1.31907	34.52
1.33573	34.52
1.35240	34.52
1.36907	34.52
1.38573	34.52
1.40240	34.52
1.41907	34.52
1.43573	34.52
1.45240	34.52
1.46907	34.52
1.48573	34.52
1.50240	34.52
1.51907	34.52
1.53573	34.52
1.55240	34.52
1.56907	34.52
1.58573	34.52
1.60240	34.52
1.61907	34.52
1.63573	34.52
1.65240	34.52
1.66907	34.52
1.68573	34.51
1.70240	34.52
1.71907	34.52
1.73573	34.52
1.75240	34.52
1.76907	34.52
1.78573	34.52
1.80240	34.52
1.81907	34.52
1.83573	34.52
1.85240	34.52
1.86907	34.52
1.88573	34.52
1.90240	34.52
1.91907	34.52
1.93573	34.52
1.95240	34.52
1.96907	34.52
1.98573	34.52
2.00240	34.52
2.01907	34.52
2.03573	34.52
2.05240	34.52
2.06907	34.52
2.08573	34.52
2.10240	34.52
2.11907	34.52
2.13573	34.51
2.15240	34.52
2.16907	34.52
2.18573	34.52
2.20240	34.52
2.21907	34.52
2.23573	34.52
2.25240	34.52
2.26907	34.52
2.28573	34.51
2.30240	34.52
2.31907	34.52
2.33573	34.52
2.35240	34.52
2.36907	34.52
2.38573	34.57
2.40240	34.52
2.41907	34.52
2.43573	34.52
2.45240	34.52
2.46907	34.52
2.48573	34.52
2.50240	34.58
2.51907	34.52
2.53573	34.52
2.55240	34.52
2.56907	34.52
2.58573	34.52
2.60240	34.52
2.61907	34.52
2.63573	34.52
2.65240	34.52
2.66907	34.52
2.68573	34.52
2.70240	34.52
2.71907	34.52
2.73573	34.52
2.75240	34.52
2.76907	34.52
2.78573	34.52
2.80240	34.52
2.81907	34.52
2.83573	34.52
2.85240	34.52
2.86907	34.52
2.88573	34.52
2.90240	34.52
2.91907	34.52
2.93573	34.52
2.95240	34.52
2.96907	34.52
2.98573	34.52
3.00240	34.52
3.01907	34.52
3.03573	34.52
3.05240	34.52
3.06907	34.52
3.08573	34.52
3.10240	34.52
3.11907	34.52
3.13573	34.52
3.15240	34.52
3.16907	34.52
3.18573	34.52
3.20240	34.52
3.21907	34.52
3.23573	34.52
3.25240	34.52
3.26907	34.52
3.28573	34.52
3.30240	34.52
3.31907	34.52
3.33573	34.52
3.35240	34.52
3.36907	34.52
3.38573	34.52
3.40240	34.52
3.41907	34.52
3.43573	34.52
3.45240	34.52
3.46907	34.52
3.48573	34.52
3.50240	34.52
3.51907	34.52
3.53573	34.52
3.55240	34.52
3.56907	34.52
3.58573	34.52
3.60240	34.52
3.61907	34.52
3.63573	34.52
3.65240	34.52
3.66907	34.52
3.68573	34.52
3.70240	34.52
3.71907	34.52
3.73573	34.52
3.75240	34.52
3.76907	34.52
3.78573	34.52
3.80240	34.52
3.81907	34.52
3.83573	34.52
3.85240	34.52
3.86907	34.52
3.88573	34.52
3.90240	34.52
3.91907	34.52
3.93573	34.52
3.95240	34.52
3.96907	34.52
3.98573	34.52

[Status Trace (Column Flow)]
Interval(msec)	1000
# of Points	240
Start Time(min)	0.002
End Time(min)	3.986
Intensity Units	
Intensity Multiplier	1
R.Time (min)	Intensity
0.00240	5.55
0.01907	5.34
0.03573	5.34
0.05240	5.61
0.06907	5.77
0.08573	5.59
0.10240	5.55
0.11907	5.55
0.13573	5.55
0.15240	5.55
0.16907	5.55
0.18573	5.55
0.20240	5.55
0.21907	5.55
0.23573	5.55
0.25240	5.55
0.26907	5.55
0.28573	5.55
0.30240	5.55
0.31907	5.55
0.33573	5.55
0.35240	5.55
0.36907	5.55
0.38573	5.55
0.40240	5.55
0.41907	5.55
0.43573	5.55
0.45240	5.55
0.46907	5.55
0.48573	5.55
0.50240	5.55
0.51907	5.55
0.53573	5.55
0.55240	5.55
0.56907	5.55
0.58573	5.55
0.60240	5.55
0.61907	5.55
0.63573	5.55
0.65240	5.55
0.66907	5.55
0.68573	5.55
0.70240	5.55
0.71907	5.55
0.73573	5.55
0.75240	5.55
0.76907	5.55
0.78573	5.55
0.80240	5.55
0.81907	5.55
0.83573	5.55
0.85240	5.55
0.86907	5.55
0.88573	5.55
0.90240	5.55
0.91907	5.55
0.93573	5.55
0.95240	5.55
0.96907	5.55
0.98573	5.55
1.00240	5.55
1.01907	5.55
1.03573	5.55
1.05240	5.55
1.06907	5.55
1.08573	5.55
1.10240	5.55
1.11907	5.55
1.13573	5.55
1.15240	5.55
1.16907	5.55
1.18573	5.55
1.20240	5.55
1.21907	5.55
1.23573	5.55
1.25240	5.55
1.26907	5.55
1.28573	5.55
1.30240	5.55
1.31907	5.55
1.33573	5.55
1.35240	5.55
1.36907	5.55
1.38573	5.55
1.40240	5.55
1.41907	5.55
1.43573	5.55
1.45240	5.55
1.46907	5.55
1.48573	5.55
1.50240	5.55
1.51907	5.55
1.53573	5.55
1.55240	5.55
1.56907	5.55
1.58573	5.55
1.60240	5.55
1.61907	5.54
1.63573	5.54
1.65240	5.53
1.66907	5.52
1.68573	5.51
1.70240	5.50
1.71907	5.49
1.73573	5.48
1.75240	5.47
1.76907	5.46
1.78573	5.45
1.80240	5.44
1.81907	5.43
1.83573	5.42
1.85240	5.41
1.86907	5.40
1.88573	5.39
1.90240	5.38
1.91907	5.37
1.93573	5.36
1.95240	5.35
1.96907	5.34
1.98573	5.33
2.00240	5.32
2.01907	5.31
2.03573	5.30
2.05240	5.29
2.06907	5.28
2.08573	5.27
2.10240	5.26
2.11907	5.25
2.13573	5.24
2.15240	5.23
2.16907	5.22
2.18573	5.21
2.20240	5.20
2.21907	5.19
2.23573	5.19
2.25240	5.18
2.26907	5.17
2.28573	5.16
2.30240	5.15
2.31907	5.14
2.33573	5.13
2.35240	5.12
2.36907	5.11
2.38573	5.11
2.40240	5.11
2.41907	5.11
2.43573	5.11
2.45240	5.11
2.46907	5.11
2.48573	5.11
2.50240	5.11
2.51907	5.11
2.53573	5.11
2.55240	5.11
2.56907	5.11
2.58573	5.11
2.60240	5.11
2.61907	5.11
2.63573	5.11
2.65240	5.11
2.66907	5.11
2.68573	5.11
2.70240	5.11
2.71907	5.11
2.73573	5.11
2.75240	5.11
2.76907	5.11
2.78573	5.11
2.80240	5.11
2.81907	5.10
2.83573	5.11
2.85240	5.11
2.86907	5.10
2.88573	5.10
2.90240	5.10
2.91907	5.10
2.93573	5.10
2.95240	5.10
2.96907	5.10
2.98573	5.10
3.00240	5.10
3.01907	5.10
3.03573	5.10
3.05240	5.10
3.06907	5.10
3.08573	5.10
3.10240	5.10
3.11907	5.10
3.13573	5.10
3.15240	5.10
3.16907	5.10
3.18573	5.10
3.20240	5.10
3.21907	5.10
3.23573	5.10
3.25240	5.10
3.26907	5.10
3.28573	5.10
3.30240	5.10
3.31907	5.10
3.33573	5.10
3.35240	5.10
3.36907	5.10
3.38573	5.10
3.40240	5.10
3.41907	5.10
3.43573	5.10
3.45240	5.10
3.46907	5.10
3.48573	5.10
3.50240	5.10
3.51907	5.10
3.53573	5.10
3.55240	5.10
3.56907	5.10
3.58573	5.10
3.60240	5.10
3.61907	5.10
3.63573	5.10
3.65240	5.10
3.66907	5.10
3.68573	5.10
3.70240	5.10
3.71907	5.10
3.73573	5.10
3.75240	5.10
3.76907	5.10
3.78573	5.10
3.80240	5.10
3.81907	5.10
3.83573	5.10
3.85240	5.10
3.86907	5.10
3.88573	5.10
3.90240	5.10
3.91907	5.10
3.93573	5.10
3.95240	5.10
3.96907	5.10
3.98573	5.10

[Status Trace (Linear Velocity)]
Interval(msec)	1000
# of Points	240
Start Time(min)	0.002
End Time(min)	3.986
Intensity Units	
Intensity Multiplier	1
R.Time (min)	Intensity
0.00240	39.03
0.01907	37.86
0.03573	37.87
0.05240	39.36
0.06907	40.25
0.08573	39.26
0.10240	39.01
0.11907	39.03
0.13573	39.03
0.15240	39.03
0.16907	39.03
0.18573	39.03
0.20240	39.03
0.21907	39.03
0.23573	39.03
0.25240	39.03
0.26907	39.03
0.28573	39.02
0.30240	39.02
0.31907	39.02
0.33573	39.02
0.35240	39.02
0.36907	39.02
0.38573	39.02
0.40240	39.02
0.41907	39.03
0.43573	39.03
0.45240	39.03
0.46907	39.03
0.48573	39.03
0.50240	39.03
0.51907	39.02
0.53573	39.02
0.55240	39.02
0.56907	39.02
0.58573	39.02
0.60240	39.02
0.61907	39.02
0.63573	39.02
0.65240	39.02
0.66907	39.02
0.68573	39.02
0.70240	39.02
0.71907	39.02
0.73573	39.02
0.75240	39.03
0.76907	39.03
0.78573	39.02
0.80240	39.02
0.81907	39.02
0.83573	39.02
0.85240	39.02
0.86907	39.02
0.88573	39.02
0.90240	39.02
0.91907	39.02
0.93573	39.02
0.95240	39.02
0.96907	39.02
0.98573	39.02
1.00240	39.02
1.01907	39.02
1.03573	39.03
1.05240	39.03
1.06907	39.03
1.08573	39.03
1.10240	39.03
1.11907	39.03
1.13573	39.03
1.15240	39.03
1.16907	39.02
1.18573	39.02
1.20240	39.02
1.21907	39.02
1.23573	39.02
1.25240	39.02
1.26907	39.02
1.28573	39.02
1.30240	39.02
1.31907	39.02
1.33573	39.02
1.35240	39.02
1.36907	39.02
1.38573	39.02
1.40240	39.02
1.41907	39.02
1.43573	39.02
1.45240	39.02
1.46907	39.02
1.48573	39.02
1.50240	39.02
1.51907	39.02
1.53573	39.02
1.55240	39.02
1.56907	39.02
1.58573	39.02
1.60240	39.02
1.61907	39.01
1.63573	38.99
1.65240	38.97
1.66907	38.95
1.68573	38.91
1.70240	38.88
1.71907	38.84
1.73573	38.81
1.75240	38.78
1.76907	38.75
1.78573	38.71
1.80240	38.68
1.81907	38.65
1.83573	38.62
1.85240	38.59
1.86907	38.56
1.88573	38.53
1.90240	38.50
1.91907	38.47
1.93573	38.44
1.95240	38.40
1.96907	38.38
1.98573	38.35
2.00240	38.32
2.01907	38.29
2.03573	38.26
2.05240	38.23
2.06907	38.20
2.08573	38.17
2.10240	38.14
2.11907	38.11
2.13573	38.08
2.15240	38.05
2.16907	38.02
2.18573	37.99
2.20240	37.96
2.21907	37.93
2.23573	37.90
2.25240	37.87
2.26907	37.84
2.28573	37.81
2.30240	37.78
2.31907	37.75
2.33573	37.72
2.35240	37.70
2.36907	37.67
2.38573	37.66
2.40240	37.66
2.41907	37.66
2.43573	37.66
2.45240	37.66
2.46907	37.66
2.48573	37.66
2.50240	37.65
2.51907	37.67
2.53573	37.65
2.55240	37.66
2.56907	37.66
2.58573	37.66
2.60240	37.66
2.61907	37.65
2.63573	37.65
2.65240	37.65
2.66907	37.65
2.68573	37.65
2.70240	37.65
2.71907	37.65
2.73573	37.65
2.75240	37.65
2.76907	37.65
2.78573	37.65
2.80240	37.65
2.81907	37.65
2.83573	37.65
2.85240	37.65
2.86907	37.64
2.88573	37.64
2.90240	37.64
2.91907	37.64
2.93573	37.64
2.95240	37.64
2.96907	37.64
2.98573	37.64
3.00240	37.64
3.01907	37.64
3.03573	37.64
3.05240	37.64
3.06907	37.64
3.08573	37.64
3.10240	37.64
3.11907	37.63
3.13573	37.63
3.15240	37.63
3.16907	37.63
3.18573	37.63
3.20240	37.63
3.21907	37.63
3.23573	37.63
3.25240	37.63
3.26907	37.63
3.28573	37.63
3.30240	37.63
3.31907	37.63
3.33573	37.63
3.35240	37.63
3.36907	37.63
3.38573	37.63
3.40240	37.63
3.41907	37.63
3.43573	37.63
3.45240	37.64
3.46907	37.64
3.48573	37.64
3.50240	37.64
3.51907	37.64
3.53573	37.64
3.55240	37.64
3.56907	37.64
3.58573	37.64
3.60240	37.64
3.61907	37.64
3.63573	37.64
3.65240	37.64
3.66907	37.64
3.68573	37.64
3.70240	37.64
3.71907	37.64
3.73573	37.64
3.75240	37.64
3.76907	37.64
3.78573	37.63
3.80240	37.63
3.81907	37.63
3.83573	37.63
3.85240	37.63
3.86907	37.63
3.88573	37.63
3.90240	37.63
3.91907	37.63
3.93573	37.63
3.95240	37.63
3.96907	37.64
3.98573	37.64

