[Header]
Application Name	LabSolutions
Version	5.110
Data File Name	C:\Users\User\Desktop\GC Analyses\Jack\UIC Prairie Sampling\9.16.22\220916_033.gcd
Output Date	11/29/2022
Output Time	11:10:17 AM

[File Information]
Type	Data File
Generated	11/14/2022 1:24:16 PM
Generated by	System Administrator
Modified	11/14/2022 1:28:52 PM
Modified by	System Administrator

[Sample Information]
Operator Name	System Administrator
Acquired	11/14/2022 1:24:51 PM
Sample Type	1:Standard
Level	1
Sample Name	220916_UICPrairie
Sample ID	220916_UICPrairie
ISTD Amount1	1
ISTD Amount2	1
ISTD Amount3	1
ISTD Amount4	1
ISTD Amount5	1
ISTD Amount6	1
ISTD Amount7	1
ISTD Amount8	1
ISTD Amount9	1
ISTD Amount10	1
ISTD Amount11	1
ISTD Amount12	1
ISTD Amount13	1
ISTD Amount14	1
ISTD Amount15	1
ISTD Amount16	1
ISTD Amount17	1
ISTD Amount18	1
ISTD Amount19	1
ISTD Amount20	1
ISTD Amount21	1
ISTD Amount22	1
ISTD Amount23	1
ISTD Amount24	1
ISTD Amount25	1
ISTD Amount26	1
ISTD Amount27	1
ISTD Amount28	1
ISTD Amount29	1
ISTD Amount30	1
ISTD Amount31	1
ISTD Amount32	1
Sample Amount	1
Dilution Factor	1
Vial#	1
Injection Volume	1
Injection Count	1
Bar Code	

[Original Files]
Data File	C:\Users\User\Desktop\GC Analyses\Jack\UIC Prairie Sampling\9.16.22\220916_033.gcd
Method File	C:\LabSolutions\Data\GHG_4min_2022\ghg3_togas_w_acet_4 min_new_int.gcm
Batch File	
Report Format File	c:\LabSolutions\System\DEFAULT.lsr

[File Description]


[Configuration]
Instrument Name	C0B7VH3-Instrument1
Instrument #	1
Line #	1
# of Detectors	3
Detector ID	DET#1	DET#2	DET#3
Detector Name	FID	PTCD	ECD
# of Channels	1	1	1

[Peak Table(Ch1)]
# of Peaks	4
Peak#	R.Time	I.Time	F.Time	Area	Height	A/H	Conc.	Mark	ID#	Name	k'	Plate #	Plate Ht.	Tailing	Resolution	Sep.Factor	Area Ratio	Height Ratio	Conc. %	Norm Conc.
1	0.805	0.515	1.010	986	66	14.837	0.000	   			0.000	650	230.721	0.769	0.000	0.000	0	0	0.000	0.000
2	1.479	1.439	1.542	12628	5574	2.266	100.000	   	1	CO	0.838	8249	18.183	1.203	7.050	0.000	0	0	16.667	16.667
3	1.571	1.542	1.622	4783	2403	1.991	100.000	 V 	2	CH4	0.952	11179	13.418	1.164	1.472	1.136	0	0	16.667	16.667
4	2.000	1.952	2.451	1802037	861013	2.093	400.000	   	3	CO2	1.486	17323	8.659	1.288	7.137	1.560	0	0	66.667	66.667

[Peak Table(Ch2)]
# of Peaks	0

[Peak Table(Ch3)]
# of Peaks	4
Peak#	R.Time	I.Time	F.Time	Area	Height	A/H	Conc.	Mark	ID#	Name	k'	Plate #	Plate Ht.	Tailing	Resolution	Sep.Factor	Area Ratio	Height Ratio	Conc. %	Norm Conc.
1	2.605	2.499	2.645	839	187	4.497	0.000	   			0.000	6361	23.582	0.683	0.000	0.000	0	0	0.000	0.000
2	2.730	2.678	2.803	265	62	4.261	0.014	   	1	N2O	0.048	6760	22.190	1.207	0.946	0.000	0	0	1.413	1.413
3	2.884	2.825	2.997	18513	5102	3.628	0.986	   	1	N2O	0.107	13825	10.850	1.560	1.334	2.235	0	0	98.587	98.587
4	3.118	2.997	3.771	16634	638	26.077	0.000	 V 			0.197	334	449.439	0.000	0.601	1.842	0	0	0.000	0.000

[Compound Results(Ch1)]
# of IDs	6
ID#	Name	R.Time	Area	Height	Conc.	Curve	3rd	2nd	1st	Constant	Area Ratio	Height Ratio	Conc. %	Norm Conc.
1	CO	1.479	12628	5574	100.000	Linear	0.000000e+00	0.000000e+00	1.262837e+002	0.000000e+00	0	0	16.667	16.667
2	CH4	1.571	4783	2403	100.000	Linear	0.000000e+00	0.000000e+00	4.783137e+001	0.000000e+00	0	0	16.667	16.667
3	CO2	2.000	1802037	861013	400.000	Linear	0.000000e+00	0.000000e+00	4.505093e+003	0.000000e+00	0	0	66.667	66.667
4	Ethylene	0.000	0	0	0.000	Linear	0.000000e+00	0.000000e+00	0.000000e+00	0.000000e+00	0	0	0.000	0.000
5	Acetylene	0.000	0	0	0.000	Linear	0.000000e+00	0.000000e+00	0.000000e+00	0.000000e+00	0	0	0.000	0.000
6	Ethane	0.000	0	0	0.000	Linear	0.000000e+00	0.000000e+00	0.000000e+00	0.000000e+00	0	0	0.000	0.000

[Compound Results(Ch2)]
# of IDs	5
ID#	Name	R.Time	Area	Height	Conc.	Curve	3rd	2nd	1st	Constant	Area Ratio	Height Ratio	Conc. %	Norm Conc.
1	Hydrogen	0.000	0	0	0.000	Linear	0.000000e+00	0.000000e+00	0.000000e+00	0.000000e+00	0	0	0.000	0.000
2	Oxygen	0.000	0	0	0.000	Linear	0.000000e+00	0.000000e+00	0.000000e+00	0.000000e+00	0	0	0.000	0.000
3	Nitrogen	0.000	0	0	0.000	Linear	0.000000e+00	0.000000e+00	0.000000e+00	0.000000e+00	0	0	0.000	0.000
4	Methane	0.000	0	0	0.000	Linear	0.000000e+00	0.000000e+00	0.000000e+00	0.000000e+00	0	0	0.000	0.000
5	Carbon Monoxide	0.000	0	0	0.000	Linear	0.000000e+00	0.000000e+00	0.000000e+00	0.000000e+00	0	0	0.000	0.000

[Compound Results(Ch3)]
# of IDs	2
ID#	Name	R.Time	Area	Height	Conc.	Curve	3rd	2nd	1st	Constant	Area Ratio	Height Ratio	Conc. %	Norm Conc.
1	N2O	2.884	18778	5165	1.000	Linear	0.000000e+00	0.000000e+00	1.877803e+004	0.000000e+00	0	0	100.000	100.000
2	SF6	0.000	0	0	0.000	Linear	0.000000e+00	0.000000e+00	0.000000e+00	0.000000e+00	0	0	0.000	0.000

[Group Results(Ch1)]
# of Groups	0

[Group Results(Ch2)]
# of Groups	0

[Group Results(Ch3)]
# of Groups	0

[Chromatogram (Ch1)]
Interval(msec)	220
# of Points	1091
Start Time(min)	0.002
End Time(min)	3.998
R.Time (min)	Intensity
0.00167	-15
0.00533	-22
0.00900	-20
0.01267	-14
0.01633	-7
0.02000	-3
0.02367	-1
0.02733	-3
0.03100	-5
0.03467	-4
0.03833	1
0.04200	7
0.04567	11
0.04933	11
0.05300	9
0.05667	5
0.06033	1
0.06400	-3
0.06767	-8
0.07133	-15
0.07500	-17
0.07867	-14
0.08233	-8
0.08600	-0
0.08967	5
0.09333	8
0.09700	5
0.10067	-1
0.10433	-7
0.10800	-12
0.11167	-9
0.11533	-1
0.11900	5
0.12267	10
0.12633	12
0.13000	11
0.13367	7
0.13733	1
0.14100	-6
0.14467	-10
0.14833	-9
0.15200	-6
0.15567	-2
0.15933	-1
0.16300	-1
0.16667	-2
0.17033	-4
0.17400	-7
0.17767	-9
0.18133	-9
0.18500	-6
0.18867	0
0.19233	5
0.19600	7
0.19967	9
0.20333	8
0.20700	7
0.21067	5
0.21433	-0
0.21800	-6
0.22167	-8
0.22533	-6
0.22900	-5
0.23267	-7
0.23633	-13
0.24000	-20
0.24367	-24
0.24733	-28
0.25100	-29
0.25467	-26
0.25833	-21
0.26200	-15
0.26567	-9
0.26933	-4
0.27300	-0
0.27667	2
0.28033	1
0.28400	-2
0.28767	-5
0.29133	-5
0.29500	-5
0.29867	-9
0.30233	-14
0.30600	-15
0.30967	-14
0.31333	-13
0.31700	-15
0.32067	-17
0.32433	-16
0.32800	-13
0.33167	-11
0.33533	-10
0.33900	-11
0.34267	-16
0.34633	-23
0.35000	-27
0.35367	-25
0.35733	-16
0.36100	-4
0.36467	4
0.36833	5
0.37200	-1
0.37567	-11
0.37933	-24
0.38300	-35
0.38667	-41
0.39033	-43
0.39400	-39
0.39767	-35
0.40133	-33
0.40500	-35
0.40867	-37
0.41233	-38
0.41600	-37
0.41967	-34
0.42333	-31
0.42700	-26
0.43067	-21
0.43433	-17
0.43800	-14
0.44167	-13
0.44533	-13
0.44900	-13
0.45267	-16
0.45633	-18
0.46000	-20
0.46367	-23
0.46733	-26
0.47100	-28
0.47467	-27
0.47833	-23
0.48200	-20
0.48567	-21
0.48933	-25
0.49300	-31
0.49667	-38
0.50033	-43
0.50400	-42
0.50767	-36
0.51133	-30
0.51500	-26
0.51867	-23
0.52233	-20
0.52600	-17
0.52967	-16
0.53333	-15
0.53700	-13
0.54067	-8
0.54433	-0
0.54800	7
0.55167	12
0.55533	10
0.55900	1
0.56267	-7
0.56633	-9
0.57000	-2
0.57367	9
0.57733	21
0.58100	31
0.58467	36
0.58833	36
0.59200	32
0.59567	29
0.59933	26
0.60300	25
0.60667	25
0.61033	27
0.61400	27
0.61767	27
0.62133	30
0.62500	34
0.62867	38
0.63233	42
0.63600	46
0.63967	48
0.64333	44
0.64700	36
0.65067	28
0.65433	23
0.65800	20
0.66167	19
0.66533	16
0.66900	16
0.67267	16
0.67633	17
0.68000	19
0.68367	24
0.68733	32
0.69100	39
0.69467	45
0.69833	49
0.70200	50
0.70567	48
0.70933	45
0.71300	44
0.71667	45
0.72033	50
0.72400	53
0.72767	48
0.73133	41
0.73500	35
0.73867	28
0.74233	21
0.74600	20
0.74967	23
0.75333	25
0.75700	27
0.76067	30
0.76433	33
0.76800	37
0.77167	41
0.77533	43
0.77900	41
0.78267	39
0.78633	42
0.79000	48
0.79367	50
0.79733	52
0.80100	57
0.80467	60
0.80833	55
0.81200	44
0.81567	33
0.81933	25
0.82300	20
0.82667	16
0.83033	12
0.83400	12
0.83767	16
0.84133	20
0.84500	19
0.84867	17
0.85233	13
0.85600	11
0.85967	12
0.86333	15
0.86700	21
0.87067	28
0.87433	34
0.87800	36
0.88167	34
0.88533	32
0.88900	32
0.89267	33
0.89633	32
0.90000	28
0.90367	25
0.90733	25
0.91100	25
0.91467	22
0.91833	16
0.92200	11
0.92567	10
0.92933	13
0.93300	18
0.93667	26
0.94033	31
0.94400	28
0.94767	22
0.95133	15
0.95500	10
0.95867	6
0.96233	5
0.96600	7
0.96967	8
0.97333	9
0.97700	10
0.98067	12
0.98433	14
0.98800	17
0.99167	18
0.99533	18
0.99900	14
1.00267	11
1.00633	9
1.01000	7
1.01367	7
1.01733	12
1.02100	19
1.02467	23
1.02833	21
1.03200	13
1.03567	6
1.03933	3
1.04300	4
1.04667	7
1.05033	9
1.05400	9
1.05767	8
1.06133	9
1.06500	10
1.06867	11
1.07233	12
1.07600	15
1.07967	17
1.08333	17
1.08700	17
1.09067	16
1.09433	16
1.09800	15
1.10167	10
1.10533	6
1.10900	3
1.11267	-2
1.11633	-3
1.12000	1
1.12367	6
1.12733	7
1.13100	4
1.13467	1
1.13833	-0
1.14200	-3
1.14567	-3
1.14933	-2
1.15300	-0
1.15667	3
1.16033	5
1.16400	2
1.16767	-4
1.17133	-12
1.17500	-16
1.17867	-17
1.18233	-18
1.18600	-18
1.18967	-16
1.19333	-13
1.19700	-12
1.20067	-11
1.20433	-8
1.20800	-7
1.21167	-9
1.21533	-11
1.21900	-9
1.22267	-7
1.22633	-8
1.23000	-12
1.23367	-13
1.23733	-11
1.24100	-8
1.24467	-6
1.24833	-5
1.25200	-4
1.25567	-4
1.25933	-8
1.26300	-18
1.26667	-27
1.27033	-35
1.27400	-37
1.27767	-38
1.28133	-37
1.28500	-35
1.28867	-29
1.29233	-21
1.29600	-14
1.29967	-9
1.30333	-7
1.30700	-7
1.31067	-9
1.31433	-13
1.31800	-18
1.32167	-23
1.32533	-24
1.32900	-21
1.33267	-13
1.33633	-3
1.34000	6
1.34367	10
1.34733	9
1.35100	8
1.35467	6
1.35833	0
1.36200	-8
1.36567	-17
1.36933	-24
1.37300	-27
1.37667	-30
1.38033	-33
1.38400	-35
1.38767	-36
1.39133	-33
1.39500	-29
1.39867	-25
1.40233	-23
1.40600	-21
1.40967	-19
1.41333	-16
1.41700	-13
1.42067	-10
1.42433	-9
1.42800	-11
1.43167	-14
1.43533	-15
1.43900	-7
1.44267	35
1.44633	177
1.45000	462
1.45367	922
1.45733	1635
1.46100	2568
1.46467	3546
1.46833	4397
1.47200	5040
1.47567	5441
1.47933	5565
1.48300	5378
1.48667	4887
1.49033	4173
1.49400	3369
1.49767	2600
1.50133	1942
1.50500	1421
1.50867	1029
1.51233	739
1.51600	529
1.51967	381
1.52333	281
1.52700	212
1.53067	161
1.53433	122
1.53800	93
1.54167	89
1.54533	156
1.54900	360
1.55267	717
1.55633	1167
1.56000	1613
1.56367	1986
1.56733	2254
1.57100	2391
1.57467	2368
1.57833	2168
1.58200	1831
1.58567	1432
1.58933	1049
1.59300	728
1.59667	486
1.60033	316
1.60400	199
1.60767	119
1.61133	64
1.61500	27
1.61867	1
1.62233	-14
1.62600	-18
1.62967	-19
1.63333	-18
1.63700	-16
1.64067	-15
1.64433	-16
1.64800	-21
1.65167	-28
1.65533	-37
1.65900	-46
1.66267	-54
1.66633	-59
1.67000	-61
1.67367	-65
1.67733	-72
1.68100	-75
1.68467	-74
1.68833	-70
1.69200	-63
1.69567	-55
1.69933	-53
1.70300	-56
1.70667	-61
1.71033	-65
1.71400	-65
1.71767	-64
1.72133	-63
1.72500	-61
1.72867	-58
1.73233	-57
1.73600	-55
1.73967	-51
1.74333	-51
1.74700	-56
1.75067	-63
1.75433	-67
1.75800	-68
1.76167	-70
1.76533	-72
1.76900	-71
1.77267	-68
1.77633	-62
1.78000	-57
1.78367	-55
1.78733	-54
1.79100	-53
1.79467	-52
1.79833	-52
1.80200	-55
1.80567	-59
1.80933	-61
1.81300	-59
1.81667	-55
1.82033	-52
1.82400	-49
1.82767	-48
1.83133	-47
1.83500	-45
1.83867	-40
1.84233	-37
1.84600	-35
1.84967	-34
1.85333	-37
1.85700	-41
1.86067	-46
1.86433	-49
1.86800	-51
1.87167	-54
1.87533	-56
1.87900	-54
1.88267	-51
1.88633	-48
1.89000	-43
1.89367	-42
1.89733	-45
1.90100	-47
1.90467	-49
1.90833	-50
1.91200	-49
1.91567	-45
1.91933	-39
1.92300	-32
1.92667	-27
1.93033	-23
1.93400	-21
1.93767	-20
1.94133	-20
1.94500	-20
1.94867	-17
1.95233	-13
1.95600	5
1.95967	153
1.96333	1019
1.96700	4948
1.97067	18519
1.97433	54445
1.97800	128190
1.98167	246878
1.98533	399956
1.98900	562808
1.99267	707594
1.99633	811739
2.00000	861023
2.00367	849871
2.00733	782812
2.01100	674803
2.01467	547183
2.01833	420735
2.02200	309902
2.02567	221121
2.02933	154517
2.03300	106808
2.03667	73688
2.04033	51158
2.04400	36001
2.04767	25837
2.05133	18999
2.05500	14355
2.05867	11156
2.06233	8912
2.06600	7299
2.06967	6114
2.07333	5223
2.07700	4535
2.08067	3993
2.08433	3558
2.08800	3206
2.09167	2915
2.09533	2670
2.09900	2463
2.10267	2287
2.10633	2131
2.11000	1987
2.11367	1854
2.11733	1731
2.12100	1621
2.12467	1524
2.12833	1442
2.13200	1371
2.13567	1306
2.13933	1244
2.14300	1186
2.14667	1130
2.15033	1078
2.15400	1031
2.15767	987
2.16133	947
2.16500	911
2.16867	878
2.17233	851
2.17600	828
2.17967	808
2.18333	787
2.18700	764
2.19067	739
2.19433	713
2.19800	687
2.20167	664
2.20533	645
2.20900	627
2.21267	609
2.21633	590
2.22000	573
2.22367	560
2.22733	551
2.23100	543
2.23467	534
2.23833	522
2.24200	508
2.24567	494
2.24933	480
2.25300	467
2.25667	455
2.26033	444
2.26400	434
2.26767	425
2.27133	417
2.27500	410
2.27867	403
2.28233	397
2.28600	397
2.28967	396
2.29333	395
2.29700	393
2.30067	389
2.30433	382
2.30800	376
2.31167	372
2.31533	367
2.31900	359
2.32267	353
2.32633	349
2.33000	347
2.33367	344
2.33733	340
2.34100	334
2.34467	327
2.34833	315
2.35200	301
2.35567	289
2.35933	283
2.36300	284
2.36667	285
2.37033	287
2.37400	289
2.37767	292
2.38133	293
2.38500	290
2.38867	286
2.39233	283
2.39600	279
2.39967	275
2.40333	269
2.40700	261
2.41067	257
2.41433	256
2.41800	258
2.42167	259
2.42533	255
2.42900	247
2.43267	240
2.43633	235
2.44000	229
2.44367	227
2.44733	226
2.45100	226
2.45467	225
2.45833	224
2.46200	224
2.46567	228
2.46933	232
2.47300	235
2.47667	234
2.48033	229
2.48400	223
2.48767	218
2.49133	213
2.49500	210
2.49867	211
2.50233	209
2.50600	206
2.50967	202
2.51333	202
2.51700	204
2.52067	209
2.52433	215
2.52800	224
2.53167	232
2.53533	234
2.53900	230
2.54267	223
2.54633	214
2.55000	207
2.55367	202
2.55733	199
2.56100	195
2.56467	187
2.56833	179
2.57200	174
2.57567	172
2.57933	174
2.58300	175
2.58667	175
2.59033	175
2.59400	177
2.59767	181
2.60133	185
2.60500	185
2.60867	180
2.61233	174
2.61600	172
2.61967	174
2.62333	175
2.62700	171
2.63067	164
2.63433	159
2.63800	157
2.64167	159
2.64533	161
2.64900	166
2.65267	173
2.65633	179
2.66000	182
2.66367	182
2.66733	180
2.67100	173
2.67467	166
2.67833	162
2.68200	161
2.68567	163
2.68933	168
2.69300	172
2.69667	175
2.70033	173
2.70400	171
2.70767	171
2.71133	171
2.71500	171
2.71867	172
2.72233	173
2.72600	173
2.72967	173
2.73333	172
2.73700	171
2.74067	167
2.74433	164
2.74800	167
2.75167	170
2.75533	167
2.75900	160
2.76267	154
2.76633	148
2.77000	144
2.77367	142
2.77733	145
2.78100	150
2.78467	156
2.78833	162
2.79200	165
2.79567	166
2.79933	166
2.80300	164
2.80667	162
2.81033	161
2.81400	160
2.81767	160
2.82133	160
2.82500	161
2.82867	165
2.83233	169
2.83600	173
2.83967	174
2.84333	171
2.84700	170
2.85067	167
2.85433	162
2.85800	157
2.86167	154
2.86533	154
2.86900	153
2.87267	152
2.87633	153
2.88000	156
2.88367	158
2.88733	161
2.89100	165
2.89467	168
2.89833	169
2.90200	169
2.90567	167
2.90933	164
2.91300	161
2.91667	160
2.92033	161
2.92400	167
2.92767	171
2.93133	172
2.93500	171
2.93867	166
2.94233	158
2.94600	151
2.94967	147
2.95333	145
2.95700	144
2.96067	145
2.96433	151
2.96800	160
2.97167	166
2.97533	169
2.97900	167
2.98267	163
2.98633	158
2.99000	151
2.99367	147
2.99733	147
3.00100	152
3.00467	162
3.00833	173
3.01200	181
3.01567	186
3.01933	188
3.02300	185
3.02667	178
3.03033	173
3.03400	173
3.03767	174
3.04133	175
3.04500	175
3.04867	172
3.05233	168
3.05600	164
3.05967	163
3.06333	163
3.06700	167
3.07067	169
3.07433	166
3.07800	162
3.08167	163
3.08533	164
3.08900	162
3.09267	160
3.09633	159
3.10000	159
3.10367	157
3.10733	156
3.11100	154
3.11467	152
3.11833	153
3.12200	160
3.12567	169
3.12933	174
3.13300	171
3.13667	162
3.14033	155
3.14400	150
3.14767	148
3.15133	151
3.15500	157
3.15867	160
3.16233	163
3.16600	166
3.16967	172
3.17333	178
3.17700	182
3.18067	181
3.18433	179
3.18800	180
3.19167	182
3.19533	185
3.19900	183
3.20267	177
3.20633	170
3.21000	166
3.21367	166
3.21733	164
3.22100	158
3.22467	149
3.22833	142
3.23200	139
3.23567	140
3.23933	144
3.24300	151
3.24667	159
3.25033	162
3.25400	163
3.25767	160
3.26133	157
3.26500	158
3.26867	161
3.27233	165
3.27600	170
3.27967	172
3.28333	171
3.28700	170
3.29067	169
3.29433	167
3.29800	165
3.30167	162
3.30533	160
3.30900	159
3.31267	160
3.31633	160
3.32000	156
3.32367	150
3.32733	145
3.33100	143
3.33467	140
3.33833	139
3.34200	138
3.34567	138
3.34933	142
3.35300	146
3.35667	148
3.36033	148
3.36400	149
3.36767	151
3.37133	154
3.37500	157
3.37867	157
3.38233	154
3.38600	149
3.38967	146
3.39333	148
3.39700	154
3.40067	161
3.40433	167
3.40800	167
3.41167	162
3.41533	158
3.41900	155
3.42267	152
3.42633	149
3.43000	148
3.43367	148
3.43733	150
3.44100	151
3.44467	151
3.44833	151
3.45200	148
3.45567	146
3.45933	143
3.46300	142
3.46667	143
3.47033	147
3.47400	149
3.47767	151
3.48133	150
3.48500	147
3.48867	145
3.49233	143
3.49600	142
3.49967	139
3.50333	135
3.50700	130
3.51067	132
3.51433	138
3.51800	140
3.52167	137
3.52533	132
3.52900	132
3.53267	138
3.53633	146
3.54000	153
3.54367	154
3.54733	148
3.55100	139
3.55467	129
3.55833	121
3.56200	116
3.56567	118
3.56933	122
3.57300	128
3.57667	131
3.58033	131
3.58400	130
3.58767	127
3.59133	123
3.59500	119
3.59867	116
3.60233	118
3.60600	119
3.60967	120
3.61333	124
3.61700	127
3.62067	129
3.62433	131
3.62800	134
3.63167	136
3.63533	139
3.63900	146
3.64267	154
3.64633	158
3.65000	154
3.65367	143
3.65733	130
3.66100	119
3.66467	112
3.66833	107
3.67200	104
3.67567	106
3.67933	111
3.68300	116
3.68667	119
3.69033	120
3.69400	120
3.69767	120
3.70133	122
3.70500	123
3.70867	122
3.71233	125
3.71600	134
3.71967	144
3.72333	148
3.72700	149
3.73067	148
3.73433	145
3.73800	140
3.74167	130
3.74533	118
3.74900	109
3.75267	107
3.75633	109
3.76000	110
3.76367	112
3.76733	113
3.77100	114
3.77467	115
3.77833	115
3.78200	115
3.78567	116
3.78933	119
3.79300	120
3.79667	119
3.80033	118
3.80400	115
3.80767	114
3.81133	115
3.81500	116
3.81867	114
3.82233	114
3.82600	113
3.82967	109
3.83333	101
3.83700	95
3.84067	92
3.84433	90
3.84800	91
3.85167	93
3.85533	97
3.85900	101
3.86267	102
3.86633	104
3.87000	109
3.87367	113
3.87733	115
3.88100	116
3.88467	112
3.88833	106
3.89200	102
3.89567	102
3.89933	105
3.90300	107
3.90667	108
3.91033	108
3.91400	110
3.91767	109
3.92133	105
3.92500	102
3.92867	103
3.93233	105
3.93600	105
3.93967	101
3.94333	97
3.94700	94
3.95067	92
3.95433	92
3.95800	94
3.96167	97
3.96533	101
3.96900	105
3.97267	106
3.97633	105
3.98000	105
3.98367	107
3.98733	111
3.99100	112
3.99467	111
3.99833	108

[Chromatogram (Ch2)]
Interval(msec)	220
# of Points	1091
Start Time(min)	0.002
End Time(min)	3.998
R.Time (min)	Intensity
0.00167	-1
0.00533	-1
0.00900	-1
0.01267	-1
0.01633	-1
0.02000	-1
0.02367	-1
0.02733	-1
0.03100	-1
0.03467	-1
0.03833	-0
0.04200	0
0.04567	1
0.04933	1
0.05300	2
0.05667	3
0.06033	3
0.06400	3
0.06767	4
0.07133	4
0.07500	3
0.07867	3
0.08233	3
0.08600	3
0.08967	3
0.09333	3
0.09700	3
0.10067	3
0.10433	3
0.10800	3
0.11167	3
0.11533	3
0.11900	4
0.12267	4
0.12633	5
0.13000	5
0.13367	5
0.13733	5
0.14100	5
0.14467	4
0.14833	4
0.15200	4
0.15567	4
0.15933	4
0.16300	4
0.16667	4
0.17033	4
0.17400	3
0.17767	3
0.18133	3
0.18500	3
0.18867	2
0.19233	2
0.19600	2
0.19967	2
0.20333	2
0.20700	2
0.21067	2
0.21433	2
0.21800	2
0.22167	2
0.22533	2
0.22900	2
0.23267	2
0.23633	2
0.24000	1
0.24367	1
0.24733	1
0.25100	1
0.25467	1
0.25833	0
0.26200	0
0.26567	0
0.26933	-0
0.27300	-0
0.27667	-0
0.28033	-0
0.28400	-0
0.28767	-0
0.29133	-0
0.29500	-0
0.29867	-0
0.30233	-0
0.30600	-0
0.30967	-0
0.31333	-0
0.31700	0
0.32067	0
0.32433	1
0.32800	1
0.33167	1
0.33533	2
0.33900	2
0.34267	2
0.34633	2
0.35000	2
0.35367	2
0.35733	2
0.36100	2
0.36467	2
0.36833	2
0.37200	2
0.37567	2
0.37933	2
0.38300	2
0.38667	2
0.39033	2
0.39400	2
0.39767	2
0.40133	2
0.40500	1
0.40867	1
0.41233	1
0.41600	1
0.41967	1
0.42333	1
0.42700	1
0.43067	1
0.43433	1
0.43800	1
0.44167	0
0.44533	0
0.44900	0
0.45267	0
0.45633	-0
0.46000	-0
0.46367	-0
0.46733	-0
0.47100	-0
0.47467	0
0.47833	0
0.48200	1
0.48567	1
0.48933	1
0.49300	1
0.49667	1
0.50033	1
0.50400	1
0.50767	1
0.51133	2
0.51500	2
0.51867	1
0.52233	1
0.52600	1
0.52967	1
0.53333	1
0.53700	0
0.54067	-0
0.54433	-1
0.54800	-1
0.55167	-1
0.55533	-1
0.55900	-1
0.56267	-1
0.56633	-1
0.57000	-1
0.57367	-1
0.57733	-1
0.58100	-1
0.58467	-1
0.58833	-0
0.59200	-0
0.59567	0
0.59933	1
0.60300	1
0.60667	1
0.61033	1
0.61400	1
0.61767	1
0.62133	1
0.62500	0
0.62867	0
0.63233	0
0.63600	0
0.63967	1
0.64333	1
0.64700	1
0.65067	1
0.65433	1
0.65800	1
0.66167	1
0.66533	1
0.66900	1
0.67267	1
0.67633	2
0.68000	2
0.68367	2
0.68733	2
0.69100	2
0.69467	2
0.69833	2
0.70200	2
0.70567	2
0.70933	2
0.71300	2
0.71667	1
0.72033	1
0.72400	1
0.72767	0
0.73133	0
0.73500	0
0.73867	0
0.74233	-0
0.74600	-0
0.74967	-0
0.75333	-0
0.75700	-0
0.76067	-0
0.76433	-0
0.76800	-0
0.77167	-0
0.77533	-0
0.77900	-0
0.78267	-0
0.78633	-0
0.79000	-1
0.79367	-1
0.79733	-1
0.80100	-1
0.80467	-2
0.80833	-2
0.81200	-2
0.81567	-2
0.81933	-2
0.82300	-2
0.82667	-2
0.83033	-2
0.83400	-2
0.83767	-2
0.84133	-2
0.84500	-2
0.84867	-2
0.85233	-3
0.85600	-3
0.85967	-3
0.86333	-3
0.86700	-3
0.87067	-3
0.87433	-3
0.87800	-3
0.88167	-3
0.88533	-2
0.88900	-2
0.89267	-1
0.89633	-1
0.90000	-1
0.90367	-0
0.90733	-0
0.91100	0
0.91467	0
0.91833	0
0.92200	0
0.92567	0
0.92933	0
0.93300	0
0.93667	-0
0.94033	-0
0.94400	-0
0.94767	-0
0.95133	-0
0.95500	-0
0.95867	-0
0.96233	-0
0.96600	0
0.96967	0
0.97333	1
0.97700	1
0.98067	1
0.98433	1
0.98800	2
0.99167	2
0.99533	2
0.99900	2
1.00267	2
1.00633	2
1.01000	2
1.01367	2
1.01733	2
1.02100	2
1.02467	2
1.02833	2
1.03200	1
1.03567	1
1.03933	1
1.04300	1
1.04667	0
1.05033	0
1.05400	0
1.05767	-0
1.06133	-0
1.06500	-1
1.06867	-1
1.07233	-1
1.07600	-1
1.07967	-1
1.08333	-1
1.08700	-1
1.09067	-1
1.09433	-1
1.09800	-2
1.10167	-2
1.10533	-2
1.10900	-2
1.11267	-2
1.11633	-2
1.12000	-2
1.12367	-1
1.12733	-1
1.13100	-0
1.13467	-0
1.13833	0
1.14200	0
1.14567	0
1.14933	0
1.15300	0
1.15667	1
1.16033	1
1.16400	1
1.16767	1
1.17133	2
1.17500	2
1.17867	2
1.18233	2
1.18600	2
1.18967	2
1.19333	2
1.19700	2
1.20067	2
1.20433	2
1.20800	2
1.21167	2
1.21533	2
1.21900	2
1.22267	2
1.22633	2
1.23000	2
1.23367	2
1.23733	1
1.24100	1
1.24467	1
1.24833	1
1.25200	0
1.25567	0
1.25933	-0
1.26300	-0
1.26667	-1
1.27033	-1
1.27400	-2
1.27767	-2
1.28133	-2
1.28500	-2
1.28867	-2
1.29233	-2
1.29600	-2
1.29967	-2
1.30333	-2
1.30700	-2
1.31067	-2
1.31433	-2
1.31800	-2
1.32167	-2
1.32533	-2
1.32900	-2
1.33267	-2
1.33633	-2
1.34000	-2
1.34367	-2
1.34733	-2
1.35100	-2
1.35467	-2
1.35833	-2
1.36200	-2
1.36567	-1
1.36933	-1
1.37300	-1
1.37667	-1
1.38033	-0
1.38400	-0
1.38767	-0
1.39133	-0
1.39500	-0
1.39867	-0
1.40233	-0
1.40600	-0
1.40967	-0
1.41333	-1
1.41700	-1
1.42067	-1
1.42433	-1
1.42800	-1
1.43167	-1
1.43533	-2
1.43900	-2
1.44267	-2
1.44633	-3
1.45000	-3
1.45367	-4
1.45733	-4
1.46100	-5
1.46467	-5
1.46833	-5
1.47200	-5
1.47567	-6
1.47933	-6
1.48300	-5
1.48667	-5
1.49033	-5
1.49400	-5
1.49767	-5
1.50133	-4
1.50500	-4
1.50867	-4
1.51233	-4
1.51600	-3
1.51967	-3
1.52333	-3
1.52700	-2
1.53067	-2
1.53433	-2
1.53800	-2
1.54167	-1
1.54533	-1
1.54900	-1
1.55267	-1
1.55633	-0
1.56000	-1
1.56367	-1
1.56733	-1
1.57100	-2
1.57467	-2
1.57833	-2
1.58200	-3
1.58567	-3
1.58933	-3
1.59300	-3
1.59667	-3
1.60033	-4
1.60400	-4
1.60767	-5
1.61133	-6
1.61500	-8
1.61867	-9
1.62233	-12
1.62600	-14
1.62967	-17
1.63333	-20
1.63700	-24
1.64067	-27
1.64433	-31
1.64800	-35
1.65167	-39
1.65533	-43
1.65900	-47
1.66267	-52
1.66633	-57
1.67000	-62
1.67367	-68
1.67733	-73
1.68100	-78
1.68467	-84
1.68833	-88
1.69200	-93
1.69567	-96
1.69933	-99
1.70300	-102
1.70667	-105
1.71033	-107
1.71400	-109
1.71767	-110
1.72133	-112
1.72500	-113
1.72867	-114
1.73233	-114
1.73600	-114
1.73967	-114
1.74333	-113
1.74700	-113
1.75067	-112
1.75433	-112
1.75800	-112
1.76167	-113
1.76533	-113
1.76900	-114
1.77267	-116
1.77633	-117
1.78000	-118
1.78367	-119
1.78733	-119
1.79100	-120
1.79467	-120
1.79833	-121
1.80200	-122
1.80567	-122
1.80933	-123
1.81300	-123
1.81667	-123
1.82033	-123
1.82400	-123
1.82767	-123
1.83133	-123
1.83500	-123
1.83867	-122
1.84233	-122
1.84600	-122
1.84967	-122
1.85333	-122
1.85700	-122
1.86067	-121
1.86433	-121
1.86800	-121
1.87167	-121
1.87533	-120
1.87900	-120
1.88267	-121
1.88633	-121
1.89000	-121
1.89367	-122
1.89733	-122
1.90100	-122
1.90467	-121
1.90833	-121
1.91200	-120
1.91567	-119
1.91933	-119
1.92300	-119
1.92667	-119
1.93033	-118
1.93400	-118
1.93767	-119
1.94133	-119
1.94500	-119
1.94867	-119
1.95233	-119
1.95600	-118
1.95967	-118
1.96333	-117
1.96700	-117
1.97067	-116
1.97433	-116
1.97800	-115
1.98167	-114
1.98533	-114
1.98900	-114
1.99267	-113
1.99633	-113
2.00000	-113
2.00367	-112
2.00733	-112
2.01100	-112
2.01467	-112
2.01833	-111
2.02200	-111
2.02567	-112
2.02933	-112
2.03300	-112
2.03667	-112
2.04033	-112
2.04400	-111
2.04767	-111
2.05133	-110
2.05500	-110
2.05867	-109
2.06233	-109
2.06600	-110
2.06967	-110
2.07333	-110
2.07700	-110
2.08067	-110
2.08433	-109
2.08800	-109
2.09167	-108
2.09533	-108
2.09900	-108
2.10267	-108
2.10633	-108
2.11000	-107
2.11367	-107
2.11733	-106
2.12100	-105
2.12467	-104
2.12833	-104
2.13200	-103
2.13567	-102
2.13933	-101
2.14300	-100
2.14667	-100
2.15033	-99
2.15400	-99
2.15767	-100
2.16133	-100
2.16500	-101
2.16867	-101
2.17233	-101
2.17600	-101
2.17967	-100
2.18333	-100
2.18700	-100
2.19067	-100
2.19433	-99
2.19800	-99
2.20167	-99
2.20533	-98
2.20900	-98
2.21267	-97
2.21633	-97
2.22000	-96
2.22367	-95
2.22733	-94
2.23100	-93
2.23467	-92
2.23833	-91
2.24200	-91
2.24567	-91
2.24933	-91
2.25300	-91
2.25667	-91
2.26033	-91
2.26400	-91
2.26767	-91
2.27133	-91
2.27500	-91
2.27867	-91
2.28233	-90
2.28600	-90
2.28967	-90
2.29333	-89
2.29700	-89
2.30067	-89
2.30433	-89
2.30800	-89
2.31167	-88
2.31533	-88
2.31900	-87
2.32267	-86
2.32633	-86
2.33000	-86
2.33367	-86
2.33733	-87
2.34100	-86
2.34467	-86
2.34833	-85
2.35200	-84
2.35567	-83
2.35933	-81
2.36300	-80
2.36667	-79
2.37033	-77
2.37400	-75
2.37767	-72
2.38133	-69
2.38500	-66
2.38867	-62
2.39233	-59
2.39600	-54
2.39967	-50
2.40333	-45
2.40700	-41
2.41067	-37
2.41433	-33
2.41800	-30
2.42167	-27
2.42533	-25
2.42900	-22
2.43267	-20
2.43633	-18
2.44000	-16
2.44367	-15
2.44733	-13
2.45100	-11
2.45467	-9
2.45833	-7
2.46200	-5
2.46567	-3
2.46933	-2
2.47300	-1
2.47667	-0
2.48033	0
2.48400	1
2.48767	3
2.49133	4
2.49500	5
2.49867	6
2.50233	7
2.50600	8
2.50967	9
2.51333	9
2.51700	9
2.52067	10
2.52433	10
2.52800	11
2.53167	11
2.53533	12
2.53900	12
2.54267	13
2.54633	13
2.55000	12
2.55367	12
2.55733	12
2.56100	12
2.56467	13
2.56833	13
2.57200	13
2.57567	13
2.57933	13
2.58300	13
2.58667	13
2.59033	13
2.59400	13
2.59767	13
2.60133	14
2.60500	14
2.60867	15
2.61233	15
2.61600	15
2.61967	15
2.62333	15
2.62700	15
2.63067	15
2.63433	16
2.63800	16
2.64167	16
2.64533	17
2.64900	17
2.65267	18
2.65633	18
2.66000	18
2.66367	19
2.66733	19
2.67100	19
2.67467	19
2.67833	20
2.68200	20
2.68567	20
2.68933	21
2.69300	21
2.69667	21
2.70033	21
2.70400	21
2.70767	21
2.71133	21
2.71500	21
2.71867	20
2.72233	20
2.72600	21
2.72967	21
2.73333	22
2.73700	22
2.74067	22
2.74433	23
2.74800	24
2.75167	24
2.75533	24
2.75900	25
2.76267	25
2.76633	25
2.77000	25
2.77367	26
2.77733	26
2.78100	26
2.78467	26
2.78833	25
2.79200	25
2.79567	24
2.79933	23
2.80300	23
2.80667	22
2.81033	22
2.81400	22
2.81767	22
2.82133	22
2.82500	22
2.82867	22
2.83233	23
2.83600	23
2.83967	24
2.84333	24
2.84700	24
2.85067	23
2.85433	21
2.85800	18
2.86167	13
2.86533	5
2.86900	-6
2.87267	-20
2.87633	-38
2.88000	-60
2.88367	-86
2.88733	-116
2.89100	-149
2.89467	-186
2.89833	-226
2.90200	-269
2.90567	-314
2.90933	-361
2.91300	-409
2.91667	-459
2.92033	-508
2.92400	-559
2.92767	-608
2.93133	-658
2.93500	-708
2.93867	-757
2.94233	-806
2.94600	-856
2.94967	-912
2.95333	-973
2.95700	-1033
2.96067	-1080
2.96433	-1105
2.96800	-1105
2.97167	-1078
2.97533	-1029
2.97900	-965
2.98267	-890
2.98633	-810
2.99000	-729
2.99367	-650
2.99733	-574
3.00100	-504
3.00467	-440
3.00833	-382
3.01200	-330
3.01567	-284
3.01933	-243
3.02300	-208
3.02667	-177
3.03033	-150
3.03400	-127
3.03767	-107
3.04133	-90
3.04500	-75
3.04867	-63
3.05233	-52
3.05600	-43
3.05967	-35
3.06333	-28
3.06700	-23
3.07067	-18
3.07433	-14
3.07800	-10
3.08167	-7
3.08533	-4
3.08900	-2
3.09267	-0
3.09633	2
3.10000	3
3.10367	4
3.10733	6
3.11100	7
3.11467	8
3.11833	9
3.12200	10
3.12567	11
3.12933	12
3.13300	13
3.13667	13
3.14033	14
3.14400	15
3.14767	15
3.15133	16
3.15500	16
3.15867	16
3.16233	16
3.16600	16
3.16967	16
3.17333	16
3.17700	17
3.18067	17
3.18433	17
3.18800	17
3.19167	17
3.19533	17
3.19900	17
3.20267	17
3.20633	18
3.21000	18
3.21367	18
3.21733	19
3.22100	19
3.22467	19
3.22833	19
3.23200	19
3.23567	20
3.23933	20
3.24300	20
3.24667	20
3.25033	20
3.25400	21
3.25767	21
3.26133	21
3.26500	21
3.26867	20
3.27233	20
3.27600	20
3.27967	20
3.28333	20
3.28700	20
3.29067	20
3.29433	20
3.29800	20
3.30167	20
3.30533	20
3.30900	20
3.31267	21
3.31633	21
3.32000	21
3.32367	21
3.32733	21
3.33100	22
3.33467	22
3.33833	22
3.34200	22
3.34567	23
3.34933	23
3.35300	23
3.35667	24
3.36033	24
3.36400	25
3.36767	25
3.37133	25
3.37500	25
3.37867	25
3.38233	25
3.38600	26
3.38967	26
3.39333	26
3.39700	26
3.40067	26
3.40433	27
3.40800	27
3.41167	27
3.41533	27
3.41900	27
3.42267	28
3.42633	28
3.43000	28
3.43367	28
3.43733	28
3.44100	29
3.44467	29
3.44833	29
3.45200	29
3.45567	29
3.45933	29
3.46300	29
3.46667	29
3.47033	29
3.47400	28
3.47767	28
3.48133	28
3.48500	28
3.48867	28
3.49233	28
3.49600	28
3.49967	28
3.50333	28
3.50700	29
3.51067	29
3.51433	29
3.51800	28
3.52167	28
3.52533	29
3.52900	29
3.53267	29
3.53633	29
3.54000	29
3.54367	29
3.54733	29
3.55100	29
3.55467	29
3.55833	29
3.56200	28
3.56567	28
3.56933	28
3.57300	28
3.57667	27
3.58033	27
3.58400	27
3.58767	27
3.59133	27
3.59500	27
3.59867	26
3.60233	26
3.60600	26
3.60967	25
3.61333	25
3.61700	25
3.62067	25
3.62433	25
3.62800	25
3.63167	25
3.63533	25
3.63900	25
3.64267	25
3.64633	25
3.65000	25
3.65367	25
3.65733	25
3.66100	25
3.66467	25
3.66833	25
3.67200	25
3.67567	24
3.67933	24
3.68300	23
3.68667	23
3.69033	23
3.69400	23
3.69767	23
3.70133	24
3.70500	24
3.70867	24
3.71233	24
3.71600	24
3.71967	25
3.72333	24
3.72700	25
3.73067	25
3.73433	25
3.73800	25
3.74167	25
3.74533	25
3.74900	25
3.75267	25
3.75633	25
3.76000	25
3.76367	26
3.76733	26
3.77100	26
3.77467	26
3.77833	26
3.78200	26
3.78567	25
3.78933	25
3.79300	25
3.79667	25
3.80033	25
3.80400	25
3.80767	25
3.81133	26
3.81500	26
3.81867	26
3.82233	26
3.82600	25
3.82967	25
3.83333	25
3.83700	24
3.84067	24
3.84433	24
3.84800	24
3.85167	24
3.85533	24
3.85900	24
3.86267	24
3.86633	24
3.87000	24
3.87367	24
3.87733	24
3.88100	24
3.88467	24
3.88833	24
3.89200	23
3.89567	23
3.89933	23
3.90300	23
3.90667	23
3.91033	22
3.91400	22
3.91767	22
3.92133	22
3.92500	22
3.92867	22
3.93233	22
3.93600	22
3.93967	23
3.94333	23
3.94700	24
3.95067	24
3.95433	24
3.95800	24
3.96167	24
3.96533	24
3.96900	24
3.97267	24
3.97633	24
3.98000	24
3.98367	24
3.98733	24
3.99100	24
3.99467	24
3.99833	24

[Chromatogram (Ch3)]
Interval(msec)	220
# of Points	1091
Start Time(min)	0.002
End Time(min)	3.998
R.Time (min)	Intensity
0.00167	1
0.00533	3
0.00900	4
0.01267	2
0.01633	2
0.02000	-1
0.02367	-2
0.02733	-1
0.03100	-0
0.03467	2
0.03833	2
0.04200	1
0.04567	1
0.04933	2
0.05300	3
0.05667	6
0.06033	5
0.06400	4
0.06767	2
0.07133	2
0.07500	2
0.07867	2
0.08233	4
0.08600	5
0.08967	4
0.09333	3
0.09700	3
0.10067	5
0.10433	5
0.10800	7
0.11167	9
0.11533	9
0.11900	10
0.12267	9
0.12633	8
0.13000	7
0.13367	7
0.13733	8
0.14100	9
0.14467	9
0.14833	10
0.15200	10
0.15567	11
0.15933	13
0.16300	13
0.16667	13
0.17033	12
0.17400	12
0.17767	11
0.18133	10
0.18500	9
0.18867	7
0.19233	7
0.19600	8
0.19967	7
0.20333	7
0.20700	8
0.21067	8
0.21433	8
0.21800	6
0.22167	5
0.22533	7
0.22900	6
0.23267	7
0.23633	9
0.24000	12
0.24367	13
0.24733	12
0.25100	10
0.25467	9
0.25833	9
0.26200	8
0.26567	8
0.26933	9
0.27300	9
0.27667	9
0.28033	10
0.28400	13
0.28767	16
0.29133	18
0.29500	17
0.29867	17
0.30233	18
0.30600	17
0.30967	14
0.31333	11
0.31700	10
0.32067	12
0.32433	13
0.32800	16
0.33167	18
0.33533	20
0.33900	17
0.34267	12
0.34633	9
0.35000	12
0.35367	15
0.35733	17
0.36100	16
0.36467	15
0.36833	13
0.37200	11
0.37567	12
0.37933	14
0.38300	13
0.38667	10
0.39033	9
0.39400	10
0.39767	13
0.40133	16
0.40500	16
0.40867	14
0.41233	15
0.41600	16
0.41967	16
0.42333	17
0.42700	19
0.43067	22
0.43433	23
0.43800	24
0.44167	23
0.44533	23
0.44900	22
0.45267	22
0.45633	22
0.46000	23
0.46367	24
0.46733	25
0.47100	26
0.47467	25
0.47833	23
0.48200	23
0.48567	24
0.48933	24
0.49300	25
0.49667	24
0.50033	22
0.50400	24
0.50767	24
0.51133	24
0.51500	24
0.51867	25
0.52233	26
0.52600	26
0.52967	24
0.53333	25
0.53700	26
0.54067	26
0.54433	24
0.54800	22
0.55167	21
0.55533	19
0.55900	16
0.56267	14
0.56633	16
0.57000	19
0.57367	20
0.57733	18
0.58100	17
0.58467	19
0.58833	21
0.59200	19
0.59567	20
0.59933	21
0.60300	22
0.60667	24
0.61033	23
0.61400	21
0.61767	20
0.62133	23
0.62500	25
0.62867	26
0.63233	27
0.63600	27
0.63967	25
0.64333	25
0.64700	27
0.65067	26
0.65433	25
0.65800	26
0.66167	27
0.66533	25
0.66900	22
0.67267	21
0.67633	23
0.68000	24
0.68367	24
0.68733	26
0.69100	30
0.69467	33
0.69833	32
0.70200	30
0.70567	28
0.70933	25
0.71300	24
0.71667	22
0.72033	22
0.72400	24
0.72767	25
0.73133	24
0.73500	25
0.73867	26
0.74233	25
0.74600	22
0.74967	21
0.75333	24
0.75700	27
0.76067	28
0.76433	28
0.76800	26
0.77167	24
0.77533	24
0.77900	24
0.78267	23
0.78633	22
0.79000	23
0.79367	22
0.79733	25
0.80100	28
0.80467	28
0.80833	27
0.81200	30
0.81567	31
0.81933	30
0.82300	31
0.82667	30
0.83033	30
0.83400	32
0.83767	33
0.84133	33
0.84500	33
0.84867	33
0.85233	33
0.85600	34
0.85967	32
0.86333	31
0.86700	31
0.87067	29
0.87433	29
0.87800	30
0.88167	31
0.88533	31
0.88900	29
0.89267	28
0.89633	28
0.90000	29
0.90367	29
0.90733	28
0.91100	28
0.91467	27
0.91833	28
0.92200	30
0.92567	35
0.92933	37
0.93300	36
0.93667	36
0.94033	36
0.94400	37
0.94767	39
0.95133	41
0.95500	41
0.95867	37
0.96233	34
0.96600	34
0.96967	34
0.97333	34
0.97700	33
0.98067	32
0.98433	32
0.98800	30
0.99167	28
0.99533	26
0.99900	28
1.00267	30
1.00633	31
1.01000	30
1.01367	31
1.01733	32
1.02100	32
1.02467	31
1.02833	33
1.03200	31
1.03567	29
1.03933	29
1.04300	31
1.04667	35
1.05033	36
1.05400	35
1.05767	36
1.06133	36
1.06500	34
1.06867	31
1.07233	31
1.07600	30
1.07967	29
1.08333	30
1.08700	29
1.09067	29
1.09433	28
1.09800	28
1.10167	28
1.10533	30
1.10900	28
1.11267	28
1.11633	30
1.12000	31
1.12367	30
1.12733	31
1.13100	32
1.13467	32
1.13833	33
1.14200	32
1.14567	32
1.14933	33
1.15300	33
1.15667	31
1.16033	30
1.16400	29
1.16767	28
1.17133	28
1.17500	30
1.17867	30
1.18233	29
1.18600	29
1.18967	30
1.19333	31
1.19700	32
1.20067	34
1.20433	36
1.20800	35
1.21167	34
1.21533	33
1.21900	34
1.22267	35
1.22633	37
1.23000	38
1.23367	39
1.23733	37
1.24100	34
1.24467	34
1.24833	33
1.25200	33
1.25567	31
1.25933	26
1.26300	25
1.26667	28
1.27033	29
1.27400	31
1.27767	32
1.28133	32
1.28500	33
1.28867	33
1.29233	32
1.29600	33
1.29967	34
1.30333	34
1.30700	34
1.31067	34
1.31433	34
1.31800	33
1.32167	33
1.32533	33
1.32900	33
1.33267	33
1.33633	34
1.34000	34
1.34367	34
1.34733	34
1.35100	33
1.35467	32
1.35833	31
1.36200	29
1.36567	25
1.36933	23
1.37300	23
1.37667	27
1.38033	32
1.38400	32
1.38767	29
1.39133	28
1.39500	29
1.39867	32
1.40233	34
1.40600	37
1.40967	38
1.41333	37
1.41700	36
1.42067	34
1.42433	33
1.42800	34
1.43167	34
1.43533	33
1.43900	32
1.44267	33
1.44633	34
1.45000	34
1.45367	34
1.45733	33
1.46100	32
1.46467	33
1.46833	34
1.47200	33
1.47567	33
1.47933	32
1.48300	33
1.48667	35
1.49033	35
1.49400	37
1.49767	39
1.50133	41
1.50500	39
1.50867	36
1.51233	34
1.51600	34
1.51967	33
1.52333	34
1.52700	37
1.53067	39
1.53433	38
1.53800	39
1.54167	40
1.54533	40
1.54900	41
1.55267	41
1.55633	40
1.56000	39
1.56367	40
1.56733	40
1.57100	40
1.57467	40
1.57833	40
1.58200	37
1.58567	34
1.58933	36
1.59300	37
1.59667	37
1.60033	40
1.60400	43
1.60767	45
1.61133	46
1.61500	42
1.61867	41
1.62233	40
1.62600	42
1.62967	42
1.63333	41
1.63700	42
1.64067	45
1.64433	46
1.64800	45
1.65167	47
1.65533	47
1.65900	46
1.66267	45
1.66633	47
1.67000	50
1.67367	49
1.67733	47
1.68100	46
1.68467	46
1.68833	48
1.69200	50
1.69567	53
1.69933	58
1.70300	63
1.70667	62
1.71033	61
1.71400	60
1.71767	61
1.72133	60
1.72500	59
1.72867	60
1.73233	60
1.73600	59
1.73967	60
1.74333	57
1.74700	54
1.75067	55
1.75433	57
1.75800	59
1.76167	62
1.76533	64
1.76900	64
1.77267	63
1.77633	64
1.78000	65
1.78367	68
1.78733	70
1.79100	73
1.79467	77
1.79833	77
1.80200	74
1.80567	73
1.80933	73
1.81300	73
1.81667	73
1.82033	73
1.82400	73
1.82767	72
1.83133	71
1.83500	70
1.83867	70
1.84233	70
1.84600	69
1.84967	67
1.85333	68
1.85700	70
1.86067	72
1.86433	73
1.86800	72
1.87167	71
1.87533	71
1.87900	72
1.88267	73
1.88633	77
1.89000	81
1.89367	82
1.89733	83
1.90100	82
1.90467	83
1.90833	82
1.91200	80
1.91567	81
1.91933	80
1.92300	79
1.92667	80
1.93033	80
1.93400	79
1.93767	79
1.94133	80
1.94500	81
1.94867	82
1.95233	85
1.95600	87
1.95967	89
1.96333	89
1.96700	88
1.97067	88
1.97433	88
1.97800	89
1.98167	91
1.98533	95
1.98900	96
1.99267	93
1.99633	91
2.00000	90
2.00367	93
2.00733	97
2.01100	98
2.01467	99
2.01833	101
2.02200	103
2.02567	105
2.02933	108
2.03300	110
2.03667	109
2.04033	111
2.04400	113
2.04767	113
2.05133	113
2.05500	112
2.05867	110
2.06233	111
2.06600	114
2.06967	114
2.07333	117
2.07700	119
2.08067	119
2.08433	120
2.08800	120
2.09167	120
2.09533	120
2.09900	120
2.10267	123
2.10633	125
2.11000	124
2.11367	124
2.11733	124
2.12100	124
2.12467	124
2.12833	126
2.13200	130
2.13567	131
2.13933	128
2.14300	126
2.14667	128
2.15033	131
2.15400	132
2.15767	133
2.16133	137
2.16500	141
2.16867	145
2.17233	146
2.17600	144
2.17967	144
2.18333	144
2.18700	146
2.19067	149
2.19433	151
2.19800	151
2.20167	152
2.20533	150
2.20900	148
2.21267	147
2.21633	148
2.22000	149
2.22367	149
2.22733	150
2.23100	151
2.23467	154
2.23833	155
2.24200	156
2.24567	157
2.24933	159
2.25300	160
2.25667	163
2.26033	165
2.26400	166
2.26767	166
2.27133	165
2.27500	165
2.27867	165
2.28233	168
2.28600	168
2.28967	168
2.29333	166
2.29700	164
2.30067	164
2.30433	166
2.30800	166
2.31167	166
2.31533	170
2.31900	175
2.32267	179
2.32633	183
2.33000	186
2.33367	189
2.33733	191
2.34100	190
2.34467	191
2.34833	192
2.35200	191
2.35567	192
2.35933	196
2.36300	196
2.36667	196
2.37033	195
2.37400	194
2.37767	196
2.38133	199
2.38500	202
2.38867	202
2.39233	201
2.39600	199
2.39967	200
2.40333	203
2.40700	208
2.41067	211
2.41433	213
2.41800	214
2.42167	214
2.42533	214
2.42900	215
2.43267	215
2.43633	212
2.44000	210
2.44367	214
2.44733	229
2.45100	245
2.45467	254
2.45833	252
2.46200	240
2.46567	227
2.46933	215
2.47300	204
2.47667	196
2.48033	185
2.48400	173
2.48767	162
2.49133	152
2.49500	145
2.49867	141
2.50233	138
2.50600	135
2.50967	132
2.51333	130
2.51700	128
2.52067	125
2.52433	125
2.52800	124
2.53167	123
2.53533	119
2.53900	114
2.54267	111
2.54633	106
2.55000	100
2.55367	95
2.55733	93
2.56100	93
2.56467	91
2.56833	91
2.57200	90
2.57567	89
2.57933	87
2.58300	85
2.58667	85
2.59033	84
2.59400	83
2.59767	80
2.60133	76
2.60500	69
2.60867	59
2.61233	42
2.61600	19
2.61967	-11
2.62333	-47
2.62700	-82
2.63067	-115
2.63433	-146
2.63800	-173
2.64167	-197
2.64533	-216
2.64900	-227
2.65267	-235
2.65633	-238
2.66000	-237
2.66367	-234
2.66733	-229
2.67100	-224
2.67467	-219
2.67833	-213
2.68200	-200
2.68567	-185
2.68933	-172
2.69300	-163
2.69667	-154
2.70033	-146
2.70400	-136
2.70767	-128
2.71133	-120
2.71500	-110
2.71867	-102
2.72233	-92
2.72600	-82
2.72967	-75
2.73333	-71
2.73700	-71
2.74067	-69
2.74433	-65
2.74800	-61
2.75167	-59
2.75533	-57
2.75900	-52
2.76267	-48
2.76633	-43
2.77000	-39
2.77367	-36
2.77733	-36
2.78100	-38
2.78467	-37
2.78833	-36
2.79200	-35
2.79567	-32
2.79933	-31
2.80300	-29
2.80667	-28
2.81033	-27
2.81400	-26
2.81767	-25
2.82133	-27
2.82500	-24
2.82867	-14
2.83233	7
2.83600	49
2.83967	130
2.84333	272
2.84700	497
2.85067	827
2.85433	1264
2.85800	1799
2.86167	2407
2.86533	3048
2.86900	3671
2.87267	4222
2.87633	4662
2.88000	4960
2.88367	5103
2.88733	5098
2.89100	4961
2.89467	4722
2.89833	4409
2.90200	4052
2.90567	3675
2.90933	3299
2.91300	2934
2.91667	2590
2.92033	2272
2.92400	1985
2.92767	1728
2.93133	1501
2.93500	1300
2.93867	1125
2.94233	972
2.94600	837
2.94967	717
2.95333	612
2.95700	525
2.96067	452
2.96433	389
2.96800	333
2.97167	285
2.97533	246
2.97900	213
2.98267	184
2.98633	157
2.99000	130
2.99367	113
2.99733	108
3.00100	115
3.00467	129
3.00833	150
3.01200	175
3.01567	204
3.01933	236
3.02300	271
3.02667	307
3.03033	343
3.03400	378
3.03767	414
3.04133	451
3.04500	487
3.04867	520
3.05233	553
3.05600	582
3.05967	606
3.06333	627
3.06700	645
3.07067	663
3.07433	678
3.07800	692
3.08167	704
3.08533	713
3.08900	718
3.09267	722
3.09633	726
3.10000	728
3.10367	731
3.10733	734
3.11100	736
3.11467	739
3.11833	741
3.12200	742
3.12567	742
3.12933	740
3.13300	740
3.13667	739
3.14033	738
3.14400	737
3.14767	736
3.15133	733
3.15500	732
3.15867	732
3.16233	730
3.16600	725
3.16967	722
3.17333	720
3.17700	723
3.18067	725
3.18433	725
3.18800	726
3.19167	726
3.19533	723
3.19900	722
3.20267	721
3.20633	720
3.21000	717
3.21367	715
3.21733	716
3.22100	715
3.22467	716
3.22833	715
3.23200	714
3.23567	714
3.23933	714
3.24300	713
3.24667	713
3.25033	714
3.25400	714
3.25767	714
3.26133	713
3.26500	715
3.26867	715
3.27233	715
3.27600	713
3.27967	711
3.28333	709
3.28700	710
3.29067	710
3.29433	709
3.29800	707
3.30167	706
3.30533	704
3.30900	701
3.31267	699
3.31633	699
3.32000	696
3.32367	693
3.32733	691
3.33100	689
3.33467	685
3.33833	684
3.34200	683
3.34567	681
3.34933	678
3.35300	675
3.35667	671
3.36033	670
3.36400	670
3.36767	668
3.37133	664
3.37500	659
3.37867	656
3.38233	652
3.38600	649
3.38967	647
3.39333	645
3.39700	640
3.40067	635
3.40433	634
3.40800	631
3.41167	627
3.41533	624
3.41900	620
3.42267	616
3.42633	612
3.43000	608
3.43367	605
3.43733	601
3.44100	597
3.44467	595
3.44833	594
3.45200	592
3.45567	590
3.45933	588
3.46300	584
3.46667	581
3.47033	578
3.47400	573
3.47767	569
3.48133	567
3.48500	565
3.48867	562
3.49233	558
3.49600	556
3.49967	554
3.50333	551
3.50700	548
3.51067	544
3.51433	542
3.51800	543
3.52167	542
3.52533	540
3.52900	536
3.53267	533
3.53633	531
3.54000	529
3.54367	528
3.54733	525
3.55100	524
3.55467	521
3.55833	517
3.56200	513
3.56567	508
3.56933	504
3.57300	501
3.57667	499
3.58033	499
3.58400	498
3.58767	497
3.59133	496
3.59500	494
3.59867	490
3.60233	487
3.60600	484
3.60967	481
3.61333	479
3.61700	475
3.62067	470
3.62433	469
3.62800	470
3.63167	467
3.63533	463
3.63900	461
3.64267	458
3.64633	457
3.65000	456
3.65367	455
3.65733	453
3.66100	452
3.66467	450
3.66833	447
3.67200	446
3.67567	446
3.67933	445
3.68300	442
3.68667	438
3.69033	437
3.69400	436
3.69767	433
3.70133	429
3.70500	427
3.70867	426
3.71233	424
3.71600	422
3.71967	418
3.72333	415
3.72700	411
3.73067	408
3.73433	406
3.73800	405
3.74167	404
3.74533	399
3.74900	394
3.75267	391
3.75633	387
3.76000	388
3.76367	388
3.76733	390
3.77100	387
3.77467	384
3.77833	382
3.78200	380
3.78567	379
3.78933	379
3.79300	379
3.79667	380
3.80033	379
3.80400	377
3.80767	375
3.81133	374
3.81500	371
3.81867	369
3.82233	369
3.82600	366
3.82967	364
3.83333	363
3.83700	363
3.84067	360
3.84433	355
3.84800	353
3.85167	351
3.85533	350
3.85900	348
3.86267	347
3.86633	346
3.87000	347
3.87367	347
3.87733	346
3.88100	345
3.88467	340
3.88833	337
3.89200	335
3.89567	334
3.89933	330
3.90300	326
3.90667	325
3.91033	324
3.91400	323
3.91767	322
3.92133	321
3.92500	320
3.92867	319
3.93233	317
3.93600	317
3.93967	316
3.94333	313
3.94700	313
3.95067	313
3.95433	313
3.95800	311
3.96167	309
3.96533	307
3.96900	306
3.97267	305
3.97633	302
3.98000	300
3.98367	299
3.98733	299
3.99100	301
3.99467	301
3.99833	299

[Status Trace (Column Oven Temperature)]
Interval(msec)	1000
# of Points	240
Start Time(min)	0.012
End Time(min)	3.995
Intensity Units	
Intensity Multiplier	1
R.Time (min)	Intensity
0.01207	35.06
0.02873	35.06
0.04540	35.04
0.06207	35.03
0.07873	35.04
0.09540	35.03
0.11207	35.02
0.12873	35.00
0.14540	34.99
0.16207	34.99
0.17873	34.98
0.19540	34.98
0.21207	34.98
0.22873	34.98
0.24540	35.00
0.26207	35.00
0.27873	35.00
0.29540	34.99
0.31207	34.99
0.32873	34.99
0.34540	34.99
0.36207	34.98
0.37873	34.97
0.39540	34.97
0.41207	34.96
0.42873	34.97
0.44540	34.97
0.46207	34.98
0.47873	34.97
0.49540	34.98
0.51207	34.97
0.52873	34.97
0.54540	34.98
0.56207	34.99
0.57873	34.99
0.59540	34.98
0.61207	34.98
0.62873	34.98
0.64540	34.98
0.66207	34.98
0.67873	34.97
0.69540	34.97
0.71207	34.97
0.72873	34.98
0.74540	34.99
0.76207	34.99
0.77873	35.00
0.79540	35.00
0.81207	35.00
0.82873	35.01
0.84540	35.02
0.86207	35.03
0.87873	35.04
0.89540	35.03
0.91207	35.03
0.92873	35.02
0.94540	35.02
0.96207	35.02
0.97873	35.01
0.99540	35.00
1.01207	34.99
1.02873	34.99
1.04540	35.00
1.06207	35.00
1.07873	35.01
1.09540	35.02
1.11207	35.02
1.12873	35.02
1.14540	35.00
1.16207	34.99
1.17873	34.98
1.19540	34.96
1.21207	34.95
1.22873	34.95
1.24540	34.95
1.26207	34.96
1.27873	34.97
1.29540	34.98
1.31207	34.98
1.32873	34.99
1.34540	34.99
1.36207	34.98
1.37873	34.97
1.39540	34.98
1.41207	34.98
1.42873	34.97
1.44540	34.99
1.46207	35.01
1.47873	35.03
1.49540	35.03
1.51207	35.02
1.52873	35.00
1.54540	35.00
1.56207	35.00
1.57873	35.00
1.59540	35.02
1.61207	35.07
1.62873	35.21
1.64540	35.41
1.66207	35.68
1.67873	36.05
1.69540	36.40
1.71207	36.76
1.72873	37.10
1.74540	37.40
1.76207	37.73
1.77873	38.08
1.79540	38.42
1.81207	38.74
1.82873	39.08
1.84540	39.41
1.86207	39.74
1.87873	40.06
1.89540	40.39
1.91207	40.72
1.92873	41.05
1.94540	41.38
1.96207	41.70
1.97873	42.03
1.99540	42.35
2.01207	42.69
2.02873	43.02
2.04540	43.34
2.06207	43.67
2.07873	44.00
2.09540	44.32
2.11207	44.65
2.12873	44.97
2.14540	45.27
2.16207	45.62
2.17873	45.95
2.19540	46.27
2.21207	46.61
2.22873	46.91
2.24540	47.24
2.26207	47.58
2.27873	47.91
2.29540	48.25
2.31207	48.56
2.32873	48.93
2.34540	49.24
2.36207	49.47
2.37873	49.59
2.39540	49.61
2.41207	49.61
2.42873	49.62
2.44540	49.65
2.46207	49.66
2.47873	49.68
2.49540	49.68
2.51207	49.71
2.52873	49.72
2.54540	49.74
2.56207	49.74
2.57873	49.77
2.59540	49.78
2.61207	49.80
2.62873	49.83
2.64540	49.84
2.66207	49.84
2.67873	49.85
2.69540	49.85
2.71207	49.86
2.72873	49.87
2.74540	49.86
2.76207	49.85
2.77873	49.85
2.79540	49.88
2.81207	49.88
2.82873	49.89
2.84540	49.90
2.86207	49.92
2.87873	49.91
2.89540	49.92
2.91207	49.94
2.92873	49.95
2.94540	49.96
2.96207	49.96
2.97873	49.96
2.99540	49.96
3.01207	49.96
3.02873	49.97
3.04540	49.98
3.06207	49.99
3.07873	50.00
3.09540	50.01
3.11207	50.01
3.12873	50.01
3.14540	50.02
3.16207	50.03
3.17873	50.04
3.19540	50.06
3.21207	50.06
3.22873	50.06
3.24540	50.07
3.26207	50.08
3.27873	50.10
3.29540	50.10
3.31207	50.11
3.32873	50.12
3.34540	50.11
3.36207	50.11
3.37873	50.11
3.39540	50.09
3.41207	50.08
3.42873	50.06
3.44540	50.05
3.46207	50.04
3.47873	50.02
3.49540	50.00
3.51207	49.99
3.52873	49.97
3.54540	49.96
3.56207	49.95
3.57873	49.96
3.59540	49.97
3.61207	49.97
3.62873	49.97
3.64540	49.97
3.66207	49.98
3.67873	50.00
3.69540	50.00
3.71207	50.00
3.72873	50.00
3.74540	50.00
3.76207	49.99
3.77873	50.00
3.79540	50.00
3.81207	50.01
3.82873	50.01
3.84540	50.01
3.86207	50.01
3.87873	50.02
3.89540	50.03
3.91207	50.04
3.92873	50.05
3.94540	50.05
3.96207	50.06
3.97873	50.06
3.99540	50.07

[Status Trace (Injection Unit Temperature)]
Interval(msec)	1000
# of Points	240
Start Time(min)	0.012
End Time(min)	3.995
Intensity Units	
Intensity Multiplier	1
R.Time (min)	Intensity
0.01207	99.98
0.02873	99.98
0.04540	99.98
0.06207	99.97
0.07873	99.98
0.09540	99.98
0.11207	99.98
0.12873	99.98
0.14540	99.99
0.16207	99.98
0.17873	99.98
0.19540	99.99
0.21207	99.98
0.22873	99.98
0.24540	99.98
0.26207	99.98
0.27873	99.98
0.29540	99.99
0.31207	99.98
0.32873	99.98
0.34540	99.98
0.36207	99.99
0.37873	99.98
0.39540	99.98
0.41207	99.98
0.42873	99.98
0.44540	99.98
0.46207	99.97
0.47873	99.98
0.49540	99.98
0.51207	99.98
0.52873	99.98
0.54540	99.98
0.56207	99.98
0.57873	99.98
0.59540	99.98
0.61207	99.99
0.62873	99.98
0.64540	99.99
0.66207	99.99
0.67873	99.98
0.69540	99.99
0.71207	99.99
0.72873	99.99
0.74540	99.99
0.76207	99.99
0.77873	99.99
0.79540	99.99
0.81207	99.99
0.82873	99.99
0.84540	99.98
0.86207	99.99
0.87873	99.99
0.89540	99.99
0.91207	99.99
0.92873	99.99
0.94540	99.99
0.96207	99.99
0.97873	99.99
0.99540	99.99
1.01207	99.99
1.02873	99.98
1.04540	99.99
1.06207	99.99
1.07873	99.99
1.09540	99.99
1.11207	99.98
1.12873	99.98
1.14540	99.98
1.16207	99.98
1.17873	99.98
1.19540	99.98
1.21207	99.98
1.22873	99.98
1.24540	99.98
1.26207	99.98
1.27873	99.98
1.29540	99.98
1.31207	99.98
1.32873	99.98
1.34540	99.98
1.36207	99.98
1.37873	99.98
1.39540	99.98
1.41207	99.98
1.42873	99.98
1.44540	99.97
1.46207	99.98
1.47873	99.98
1.49540	99.98
1.51207	99.98
1.52873	99.98
1.54540	99.99
1.56207	99.98
1.57873	99.98
1.59540	99.98
1.61207	99.98
1.62873	99.99
1.64540	99.98
1.66207	99.98
1.67873	99.98
1.69540	99.99
1.71207	99.98
1.72873	99.99
1.74540	99.99
1.76207	99.98
1.77873	99.99
1.79540	99.98
1.81207	99.99
1.82873	99.98
1.84540	99.99
1.86207	99.99
1.87873	99.98
1.89540	99.98
1.91207	99.99
1.92873	99.98
1.94540	99.98
1.96207	99.98
1.97873	99.98
1.99540	99.98
2.01207	99.98
2.02873	99.98
2.04540	99.98
2.06207	99.98
2.07873	99.98
2.09540	99.97
2.11207	99.97
2.12873	99.98
2.14540	99.98
2.16207	99.97
2.17873	99.98
2.19540	99.98
2.21207	99.98
2.22873	99.96
2.24540	99.97
2.26207	99.97
2.27873	99.96
2.29540	99.97
2.31207	99.97
2.32873	99.97
2.34540	99.97
2.36207	99.96
2.37873	99.96
2.39540	99.97
2.41207	99.97
2.42873	99.96
2.44540	99.97
2.46207	99.96
2.47873	99.96
2.49540	99.97
2.51207	99.96
2.52873	99.97
2.54540	99.97
2.56207	99.96
2.57873	99.97
2.59540	99.97
2.61207	99.97
2.62873	99.97
2.64540	99.97
2.66207	99.98
2.67873	99.97
2.69540	99.97
2.71207	99.98
2.72873	99.98
2.74540	99.98
2.76207	99.98
2.77873	99.98
2.79540	99.98
2.81207	99.99
2.82873	99.99
2.84540	99.99
2.86207	99.99
2.87873	99.99
2.89540	99.99
2.91207	100.00
2.92873	100.00
2.94540	100.00
2.96207	100.00
2.97873	100.00
2.99540	100.00
3.01207	100.01
3.02873	100.01
3.04540	100.01
3.06207	100.01
3.07873	100.01
3.09540	100.02
3.11207	100.01
3.12873	100.02
3.14540	100.02
3.16207	100.02
3.17873	100.02
3.19540	100.02
3.21207	100.02
3.22873	100.02
3.24540	100.03
3.26207	100.03
3.27873	100.03
3.29540	100.03
3.31207	100.03
3.32873	100.03
3.34540	100.04
3.36207	100.04
3.37873	100.04
3.39540	100.04
3.41207	100.04
3.42873	100.04
3.44540	100.04
3.46207	100.04
3.47873	100.04
3.49540	100.04
3.51207	100.04
3.52873	100.04
3.54540	100.04
3.56207	100.05
3.57873	100.05
3.59540	100.05
3.61207	100.05
3.62873	100.05
3.64540	100.05
3.66207	100.05
3.67873	100.05
3.69540	100.05
3.71207	100.05
3.72873	100.05
3.74540	100.05
3.76207	100.05
3.77873	100.05
3.79540	100.05
3.81207	100.05
3.82873	100.05
3.84540	100.05
3.86207	100.05
3.87873	100.05
3.89540	100.05
3.91207	100.05
3.92873	100.05
3.94540	100.05
3.96207	100.05
3.97873	100.05
3.99540	100.05

[Status Trace (Carrier Gas Pressure)]
Interval(msec)	1000
# of Points	240
Start Time(min)	0.012
End Time(min)	3.995
Intensity Units	
Intensity Multiplier	1
R.Time (min)	Intensity
0.01207	57.98
0.02873	54.95
0.04540	57.67
0.06207	59.61
0.07873	59.01
0.09540	58.00
0.11207	57.99
0.12873	58.01
0.14540	58.01
0.16207	58.01
0.17873	58.00
0.19540	58.00
0.21207	58.00
0.22873	58.00
0.24540	58.00
0.26207	58.00
0.27873	58.00
0.29540	58.00
0.31207	58.00
0.32873	58.00
0.34540	58.00
0.36207	58.00
0.37873	58.00
0.39540	58.00
0.41207	58.00
0.42873	58.00
0.44540	58.00
0.46207	58.00
0.47873	58.00
0.49540	58.00
0.51207	58.00
0.52873	58.00
0.54540	58.00
0.56207	58.00
0.57873	58.00
0.59540	58.00
0.61207	58.00
0.62873	58.00
0.64540	58.00
0.66207	58.00
0.67873	58.00
0.69540	58.00
0.71207	58.00
0.72873	58.00
0.74540	58.00
0.76207	58.00
0.77873	58.00
0.79540	58.00
0.81207	58.00
0.82873	58.00
0.84540	58.00
0.86207	58.00
0.87873	58.00
0.89540	58.00
0.91207	58.00
0.92873	58.00
0.94540	58.00
0.96207	58.00
0.97873	58.00
0.99540	58.00
1.01207	58.00
1.02873	58.00
1.04540	58.00
1.06207	58.00
1.07873	58.00
1.09540	58.00
1.11207	58.00
1.12873	58.00
1.14540	58.00
1.16207	58.00
1.17873	58.00
1.19540	58.00
1.21207	58.00
1.22873	58.00
1.24540	58.00
1.26207	58.00
1.27873	58.00
1.29540	58.00
1.31207	58.00
1.32873	58.00
1.34540	58.00
1.36207	58.00
1.37873	58.00
1.39540	58.00
1.41207	58.00
1.42873	58.00
1.44540	58.00
1.46207	58.00
1.47873	58.00
1.49540	58.00
1.51207	58.00
1.52873	58.00
1.54540	58.00
1.56207	58.00
1.57873	58.00
1.59540	58.00
1.61207	58.00
1.62873	58.00
1.64540	58.01
1.66207	58.00
1.67873	58.01
1.69540	58.00
1.71207	58.00
1.72873	58.00
1.74540	58.00
1.76207	58.00
1.77873	58.00
1.79540	58.00
1.81207	58.00
1.82873	58.00
1.84540	58.00
1.86207	58.00
1.87873	58.00
1.89540	58.00
1.91207	58.00
1.92873	58.00
1.94540	58.00
1.96207	58.00
1.97873	58.00
1.99540	58.00
2.01207	58.00
2.02873	58.00
2.04540	58.00
2.06207	58.00
2.07873	58.00
2.09540	58.00
2.11207	58.00
2.12873	58.00
2.14540	58.00
2.16207	58.00
2.17873	58.00
2.19540	58.00
2.21207	58.00
2.22873	58.00
2.24540	58.00
2.26207	58.00
2.27873	58.00
2.29540	58.00
2.31207	58.00
2.32873	58.00
2.34540	58.00
2.36207	58.00
2.37873	58.00
2.39540	57.99
2.41207	58.00
2.42873	58.00
2.44540	58.00
2.46207	58.00
2.47873	58.00
2.49540	58.00
2.51207	57.99
2.52873	57.98
2.54540	58.00
2.56207	58.00
2.57873	58.00
2.59540	58.00
2.61207	58.00
2.62873	58.00
2.64540	58.00
2.66207	58.00
2.67873	58.00
2.69540	58.00
2.71207	58.00
2.72873	58.00
2.74540	58.00
2.76207	58.00
2.77873	58.00
2.79540	58.00
2.81207	58.00
2.82873	58.00
2.84540	58.00
2.86207	58.00
2.87873	58.00
2.89540	58.00
2.91207	58.00
2.92873	58.00
2.94540	58.00
2.96207	58.00
2.97873	58.00
2.99540	58.00
3.01207	58.00
3.02873	58.00
3.04540	58.00
3.06207	58.00
3.07873	58.00
3.09540	58.00
3.11207	58.00
3.12873	58.00
3.14540	58.00
3.16207	58.00
3.17873	58.00
3.19540	58.00
3.21207	58.00
3.22873	58.00
3.24540	58.00
3.26207	58.00
3.27873	58.00
3.29540	58.00
3.31207	58.00
3.32873	58.00
3.34540	58.00
3.36207	58.00
3.37873	58.00
3.39540	58.00
3.41207	58.00
3.42873	58.00
3.44540	58.00
3.46207	58.00
3.47873	58.00
3.49540	58.00
3.51207	58.00
3.52873	58.00
3.54540	58.00
3.56207	58.00
3.57873	58.00
3.59540	58.00
3.61207	58.00
3.62873	58.00
3.64540	58.00
3.66207	58.00
3.67873	58.00
3.69540	58.00
3.71207	58.00
3.72873	58.00
3.74540	58.00
3.76207	58.00
3.77873	58.00
3.79540	58.00
3.81207	58.00
3.82873	58.00
3.84540	58.00
3.86207	58.00
3.87873	58.00
3.89540	58.00
3.91207	58.00
3.92873	58.00
3.94540	58.00
3.96207	58.00
3.97873	58.00
3.99540	58.00

[Status Trace (Carrier Gas Flow)]
Interval(msec)	1000
# of Points	240
Start Time(min)	0.012
End Time(min)	3.995
Intensity Units	
Intensity Multiplier	1
R.Time (min)	Intensity
0.01207	34.57
0.02873	34.53
0.04540	34.55
0.06207	34.55
0.07873	34.50
0.09540	34.52
0.11207	34.52
0.12873	34.52
0.14540	34.52
0.16207	34.52
0.17873	34.52
0.19540	34.52
0.21207	34.52
0.22873	34.51
0.24540	34.52
0.26207	34.52
0.27873	34.52
0.29540	34.52
0.31207	34.52
0.32873	34.52
0.34540	34.52
0.36207	34.52
0.37873	34.52
0.39540	34.52
0.41207	34.52
0.42873	34.52
0.44540	34.51
0.46207	34.51
0.47873	34.52
0.49540	34.52
0.51207	34.52
0.52873	34.52
0.54540	34.52
0.56207	34.52
0.57873	34.52
0.59540	34.52
0.61207	34.52
0.62873	34.52
0.64540	34.52
0.66207	34.52
0.67873	34.52
0.69540	34.52
0.71207	34.52
0.72873	34.52
0.74540	34.52
0.76207	34.52
0.77873	34.52
0.79540	34.51
0.81207	34.52
0.82873	34.52
0.84540	34.52
0.86207	34.52
0.87873	34.54
0.89540	34.51
0.91207	34.52
0.92873	34.52
0.94540	34.54
0.96207	34.52
0.97873	34.52
0.99540	34.52
1.01207	34.51
1.02873	34.52
1.04540	34.52
1.06207	34.52
1.07873	34.52
1.09540	34.52
1.11207	34.51
1.12873	34.52
1.14540	34.52
1.16207	34.52
1.17873	34.54
1.19540	34.52
1.21207	34.51
1.22873	34.52
1.24540	34.52
1.26207	34.53
1.27873	34.51
1.29540	34.52
1.31207	34.52
1.32873	34.52
1.34540	34.51
1.36207	34.52
1.37873	34.52
1.39540	34.52
1.41207	34.52
1.42873	34.52
1.44540	34.51
1.46207	34.52
1.47873	34.52
1.49540	34.51
1.51207	34.52
1.52873	34.52
1.54540	34.52
1.56207	34.52
1.57873	34.52
1.59540	34.52
1.61207	34.52
1.62873	34.51
1.64540	34.52
1.66207	34.52
1.67873	34.51
1.69540	34.52
1.71207	34.52
1.72873	34.51
1.74540	34.52
1.76207	34.52
1.77873	34.51
1.79540	34.52
1.81207	34.52
1.82873	34.52
1.84540	34.51
1.86207	34.52
1.87873	34.52
1.89540	34.51
1.91207	34.52
1.92873	34.52
1.94540	34.52
1.96207	34.52
1.97873	34.52
1.99540	34.52
2.01207	34.52
2.02873	34.52
2.04540	34.54
2.06207	34.51
2.07873	34.52
2.09540	34.52
2.11207	34.50
2.12873	34.52
2.14540	34.52
2.16207	34.52
2.17873	34.52
2.19540	34.52
2.21207	34.53
2.22873	34.52
2.24540	34.52
2.26207	34.52
2.27873	34.52
2.29540	34.52
2.31207	34.52
2.32873	34.52
2.34540	34.52
2.36207	34.52
2.37873	34.52
2.39540	34.52
2.41207	34.52
2.42873	34.52
2.44540	34.52
2.46207	34.52
2.47873	34.52
2.49540	34.52
2.51207	34.50
2.52873	34.52
2.54540	34.52
2.56207	34.52
2.57873	34.52
2.59540	34.52
2.61207	34.52
2.62873	34.52
2.64540	34.52
2.66207	34.53
2.67873	34.52
2.69540	34.53
2.71207	34.52
2.72873	34.52
2.74540	34.52
2.76207	34.52
2.77873	34.52
2.79540	34.52
2.81207	34.52
2.82873	34.52
2.84540	34.52
2.86207	34.52
2.87873	34.52
2.89540	34.52
2.91207	34.52
2.92873	34.52
2.94540	34.52
2.96207	34.52
2.97873	34.52
2.99540	34.52
3.01207	34.52
3.02873	34.52
3.04540	34.52
3.06207	34.52
3.07873	34.52
3.09540	34.52
3.11207	34.52
3.12873	34.52
3.14540	34.52
3.16207	34.52
3.17873	34.52
3.19540	34.52
3.21207	34.52
3.22873	34.52
3.24540	34.52
3.26207	34.52
3.27873	34.52
3.29540	34.52
3.31207	34.52
3.32873	34.52
3.34540	34.52
3.36207	34.52
3.37873	34.52
3.39540	34.52
3.41207	34.52
3.42873	34.52
3.44540	34.52
3.46207	34.52
3.47873	34.52
3.49540	34.52
3.51207	34.52
3.52873	34.52
3.54540	34.52
3.56207	34.52
3.57873	34.52
3.59540	34.52
3.61207	34.52
3.62873	34.52
3.64540	34.52
3.66207	34.52
3.67873	34.52
3.69540	34.52
3.71207	34.52
3.72873	34.52
3.74540	34.52
3.76207	34.52
3.77873	34.52
3.79540	34.52
3.81207	34.52
3.82873	34.52
3.84540	34.52
3.86207	34.52
3.87873	34.52
3.89540	34.52
3.91207	34.51
3.92873	34.52
3.94540	34.52
3.96207	34.52
3.97873	34.52
3.99540	34.57

[Status Trace (Column Flow)]
Interval(msec)	1000
# of Points	240
Start Time(min)	0.012
End Time(min)	3.995
Intensity Units	
Intensity Multiplier	1
R.Time (min)	Intensity
0.01207	5.54
0.02873	5.19
0.04540	5.51
0.06207	5.74
0.07873	5.67
0.09540	5.55
0.11207	5.55
0.12873	5.55
0.14540	5.55
0.16207	5.55
0.17873	5.55
0.19540	5.55
0.21207	5.55
0.22873	5.55
0.24540	5.55
0.26207	5.55
0.27873	5.55
0.29540	5.55
0.31207	5.55
0.32873	5.55
0.34540	5.55
0.36207	5.55
0.37873	5.55
0.39540	5.55
0.41207	5.55
0.42873	5.55
0.44540	5.55
0.46207	5.55
0.47873	5.55
0.49540	5.55
0.51207	5.55
0.52873	5.55
0.54540	5.55
0.56207	5.55
0.57873	5.55
0.59540	5.55
0.61207	5.55
0.62873	5.55
0.64540	5.55
0.66207	5.55
0.67873	5.55
0.69540	5.55
0.71207	5.55
0.72873	5.55
0.74540	5.55
0.76207	5.55
0.77873	5.55
0.79540	5.55
0.81207	5.55
0.82873	5.55
0.84540	5.55
0.86207	5.55
0.87873	5.55
0.89540	5.55
0.91207	5.55
0.92873	5.55
0.94540	5.55
0.96207	5.55
0.97873	5.55
0.99540	5.55
1.01207	5.55
1.02873	5.55
1.04540	5.55
1.06207	5.55
1.07873	5.55
1.09540	5.55
1.11207	5.55
1.12873	5.55
1.14540	5.55
1.16207	5.55
1.17873	5.55
1.19540	5.55
1.21207	5.55
1.22873	5.55
1.24540	5.55
1.26207	5.55
1.27873	5.55
1.29540	5.55
1.31207	5.55
1.32873	5.55
1.34540	5.55
1.36207	5.55
1.37873	5.55
1.39540	5.55
1.41207	5.55
1.42873	5.55
1.44540	5.55
1.46207	5.55
1.47873	5.55
1.49540	5.55
1.51207	5.55
1.52873	5.55
1.54540	5.55
1.56207	5.55
1.57873	5.55
1.59540	5.55
1.61207	5.55
1.62873	5.54
1.64540	5.54
1.66207	5.53
1.67873	5.52
1.69540	5.50
1.71207	5.49
1.72873	5.48
1.74540	5.47
1.76207	5.46
1.77873	5.45
1.79540	5.44
1.81207	5.43
1.82873	5.42
1.84540	5.41
1.86207	5.40
1.87873	5.39
1.89540	5.38
1.91207	5.37
1.92873	5.36
1.94540	5.35
1.96207	5.34
1.97873	5.33
1.99540	5.32
2.01207	5.31
2.02873	5.30
2.04540	5.29
2.06207	5.28
2.07873	5.27
2.09540	5.26
2.11207	5.26
2.12873	5.25
2.14540	5.24
2.16207	5.23
2.17873	5.22
2.19540	5.21
2.21207	5.20
2.22873	5.19
2.24540	5.18
2.26207	5.17
2.27873	5.16
2.29540	5.15
2.31207	5.14
2.32873	5.13
2.34540	5.12
2.36207	5.12
2.37873	5.11
2.39540	5.11
2.41207	5.11
2.42873	5.11
2.44540	5.11
2.46207	5.11
2.47873	5.11
2.49540	5.11
2.51207	5.11
2.52873	5.11
2.54540	5.11
2.56207	5.11
2.57873	5.11
2.59540	5.11
2.61207	5.11
2.62873	5.11
2.64540	5.11
2.66207	5.11
2.67873	5.11
2.69540	5.11
2.71207	5.11
2.72873	5.11
2.74540	5.11
2.76207	5.11
2.77873	5.11
2.79540	5.11
2.81207	5.11
2.82873	5.11
2.84540	5.11
2.86207	5.11
2.87873	5.11
2.89540	5.11
2.91207	5.10
2.92873	5.10
2.94540	5.10
2.96207	5.10
2.97873	5.10
2.99540	5.10
3.01207	5.10
3.02873	5.10
3.04540	5.10
3.06207	5.10
3.07873	5.10
3.09540	5.10
3.11207	5.10
3.12873	5.10
3.14540	5.10
3.16207	5.10
3.17873	5.10
3.19540	5.10
3.21207	5.10
3.22873	5.10
3.24540	5.10
3.26207	5.10
3.27873	5.10
3.29540	5.10
3.31207	5.10
3.32873	5.10
3.34540	5.10
3.36207	5.10
3.37873	5.10
3.39540	5.10
3.41207	5.10
3.42873	5.10
3.44540	5.10
3.46207	5.10
3.47873	5.10
3.49540	5.10
3.51207	5.10
3.52873	5.10
3.54540	5.10
3.56207	5.10
3.57873	5.10
3.59540	5.10
3.61207	5.10
3.62873	5.10
3.64540	5.10
3.66207	5.10
3.67873	5.10
3.69540	5.10
3.71207	5.10
3.72873	5.10
3.74540	5.10
3.76207	5.10
3.77873	5.10
3.79540	5.10
3.81207	5.10
3.82873	5.10
3.84540	5.10
3.86207	5.10
3.87873	5.10
3.89540	5.10
3.91207	5.10
3.92873	5.10
3.94540	5.10
3.96207	5.10
3.97873	5.10
3.99540	5.10

[Status Trace (Linear Velocity)]
Interval(msec)	1000
# of Points	240
Start Time(min)	0.012
End Time(min)	3.995
Intensity Units	
Intensity Multiplier	1
R.Time (min)	Intensity
0.01207	39.00
0.02873	37.02
0.04540	38.80
0.06207	40.07
0.07873	39.68
0.09540	39.02
0.11207	39.01
0.12873	39.03
0.14540	39.03
0.16207	39.03
0.17873	39.03
0.19540	39.03
0.21207	39.03
0.22873	39.03
0.24540	39.02
0.26207	39.02
0.27873	39.02
0.29540	39.02
0.31207	39.02
0.32873	39.03
0.34540	39.02
0.36207	39.02
0.37873	39.03
0.39540	39.03
0.41207	39.03
0.42873	39.03
0.44540	39.03
0.46207	39.03
0.47873	39.03
0.49540	39.03
0.51207	39.03
0.52873	39.03
0.54540	39.03
0.56207	39.02
0.57873	39.02
0.59540	39.03
0.61207	39.03
0.62873	39.03
0.64540	39.03
0.66207	39.03
0.67873	39.03
0.69540	39.03
0.71207	39.03
0.72873	39.03
0.74540	39.02
0.76207	39.02
0.77873	39.02
0.79540	39.02
0.81207	39.02
0.82873	39.02
0.84540	39.02
0.86207	39.02
0.87873	39.02
0.89540	39.02
0.91207	39.02
0.92873	39.02
0.94540	39.02
0.96207	39.02
0.97873	39.02
0.99540	39.02
1.01207	39.02
1.02873	39.02
1.04540	39.02
1.06207	39.02
1.07873	39.02
1.09540	39.02
1.11207	39.02
1.12873	39.02
1.14540	39.02
1.16207	39.02
1.17873	39.03
1.19540	39.03
1.21207	39.03
1.22873	39.03
1.24540	39.03
1.26207	39.03
1.27873	39.03
1.29540	39.03
1.31207	39.02
1.32873	39.02
1.34540	39.02
1.36207	39.02
1.37873	39.03
1.39540	39.03
1.41207	39.03
1.42873	39.03
1.44540	39.02
1.46207	39.02
1.47873	39.02
1.49540	39.02
1.51207	39.02
1.52873	39.02
1.54540	39.02
1.56207	39.02
1.57873	39.02
1.59540	39.02
1.61207	39.02
1.62873	39.01
1.64540	38.99
1.66207	38.96
1.67873	38.93
1.69540	38.89
1.71207	38.85
1.72873	38.82
1.74540	38.79
1.76207	38.76
1.77873	38.73
1.79540	38.70
1.81207	38.67
1.82873	38.64
1.84540	38.60
1.86207	38.57
1.87873	38.54
1.89540	38.51
1.91207	38.48
1.92873	38.45
1.94540	38.42
1.96207	38.39
1.97873	38.36
1.99540	38.33
2.01207	38.30
2.02873	38.27
2.04540	38.24
2.06207	38.21
2.07873	38.18
2.09540	38.15
2.11207	38.12
2.12873	38.09
2.14540	38.06
2.16207	38.03
2.17873	38.00
2.19540	37.97
2.21207	37.94
2.22873	37.91
2.24540	37.89
2.26207	37.85
2.27873	37.82
2.29540	37.79
2.31207	37.77
2.32873	37.73
2.34540	37.71
2.36207	37.68
2.37873	37.67
2.39540	37.67
2.41207	37.67
2.42873	37.67
2.44540	37.67
2.46207	37.67
2.47873	37.67
2.49540	37.67
2.51207	37.66
2.52873	37.65
2.54540	37.66
2.56207	37.66
2.57873	37.66
2.59540	37.66
2.61207	37.66
2.62873	37.65
2.64540	37.65
2.66207	37.65
2.67873	37.65
2.69540	37.65
2.71207	37.65
2.72873	37.65
2.74540	37.65
2.76207	37.65
2.77873	37.65
2.79540	37.65
2.81207	37.65
2.82873	37.65
2.84540	37.65
2.86207	37.65
2.87873	37.65
2.89540	37.65
2.91207	37.64
2.92873	37.64
2.94540	37.64
2.96207	37.64
2.97873	37.64
2.99540	37.64
3.01207	37.64
3.02873	37.64
3.04540	37.64
3.06207	37.64
3.07873	37.64
3.09540	37.64
3.11207	37.64
3.12873	37.64
3.14540	37.64
3.16207	37.64
3.17873	37.63
3.19540	37.63
3.21207	37.63
3.22873	37.63
3.24540	37.63
3.26207	37.63
3.27873	37.63
3.29540	37.63
3.31207	37.63
3.32873	37.63
3.34540	37.63
3.36207	37.63
3.37873	37.63
3.39540	37.63
3.41207	37.63
3.42873	37.63
3.44540	37.63
3.46207	37.64
3.47873	37.64
3.49540	37.64
3.51207	37.64
3.52873	37.64
3.54540	37.64
3.56207	37.64
3.57873	37.64
3.59540	37.64
3.61207	37.64
3.62873	37.64
3.64540	37.64
3.66207	37.64
3.67873	37.64
3.69540	37.64
3.71207	37.64
3.72873	37.64
3.74540	37.64
3.76207	37.64
3.77873	37.64
3.79540	37.64
3.81207	37.64
3.82873	37.64
3.84540	37.64
3.86207	37.64
3.87873	37.64
3.89540	37.64
3.91207	37.64
3.92873	37.63
3.94540	37.63
3.96207	37.63
3.97873	37.63
3.99540	37.63

