[Header]
Application Name	LabSolutions
Version	5.110
Data File Name	C:\Users\User\Desktop\GC Analyses\Jack\UIC Prairie Sampling\9.16.22\220916_058.gcd
Output Date	11/29/2022
Output Time	11:10:19 AM

[File Information]
Type	Data File
Generated	11/15/2022 11:48:32 AM
Generated by	System Administrator
Modified	11/15/2022 11:53:44 AM
Modified by	System Administrator

[Sample Information]
Operator Name	System Administrator
Acquired	11/15/2022 11:49:44 AM
Sample Type	1:Standard
Level	1
Sample Name	220916_UICPrairie
Sample ID	220916_UICPrairie
ISTD Amount1	1
ISTD Amount2	1
ISTD Amount3	1
ISTD Amount4	1
ISTD Amount5	1
ISTD Amount6	1
ISTD Amount7	1
ISTD Amount8	1
ISTD Amount9	1
ISTD Amount10	1
ISTD Amount11	1
ISTD Amount12	1
ISTD Amount13	1
ISTD Amount14	1
ISTD Amount15	1
ISTD Amount16	1
ISTD Amount17	1
ISTD Amount18	1
ISTD Amount19	1
ISTD Amount20	1
ISTD Amount21	1
ISTD Amount22	1
ISTD Amount23	1
ISTD Amount24	1
ISTD Amount25	1
ISTD Amount26	1
ISTD Amount27	1
ISTD Amount28	1
ISTD Amount29	1
ISTD Amount30	1
ISTD Amount31	1
ISTD Amount32	1
Sample Amount	1
Dilution Factor	1
Vial#	1
Injection Volume	1
Injection Count	1
Bar Code	

[Original Files]
Data File	C:\Users\User\Desktop\GC Analyses\Jack\UIC Prairie Sampling\9.16.22\220916_058.gcd
Method File	C:\LabSolutions\Data\GHG_4min_2022\ghg3_togas_w_acet_4 min_new_int.gcm
Batch File	
Report Format File	c:\LabSolutions\System\DEFAULT.lsr

[File Description]


[Configuration]
Instrument Name	C0B7VH3-Instrument1
Instrument #	1
Line #	1
# of Detectors	3
Detector ID	DET#1	DET#2	DET#3
Detector Name	FID	PTCD	ECD
# of Channels	1	1	1

[Peak Table(Ch1)]
# of Peaks	3
Peak#	R.Time	I.Time	F.Time	Area	Height	A/H	Conc.	Mark	ID#	Name	k'	Plate #	Plate Ht.	Tailing	Resolution	Sep.Factor	Area Ratio	Height Ratio	Conc. %	Norm Conc.
1	1.479	1.439	1.538	12725	5669	2.245	100.000	   	1	CO	0.000	8288	18.099	1.183	0.000	0.000	0	0	16.667	16.667
2	1.571	1.538	1.641	5072	2532	2.003	100.000	 V 	2	CH4	0.062	11204	13.388	1.144	1.474	0.000	0	0	16.667	16.667
3	2.000	1.952	2.425	1511780	729939	2.071	400.000	   	3	CO2	0.352	17748	8.452	1.230	7.185	5.680	0	0	66.667	66.667

[Peak Table(Ch2)]
# of Peaks	0

[Peak Table(Ch3)]
# of Peaks	5
Peak#	R.Time	I.Time	F.Time	Area	Height	A/H	Conc.	Mark	ID#	Name	k'	Plate #	Plate Ht.	Tailing	Resolution	Sep.Factor	Area Ratio	Height Ratio	Conc. %	Norm Conc.
1	2.458	2.198	2.513	1837	263	6.988	0.000	   			0.000	5477	27.386	0.000	0.000	0.000	0	0	0.000	0.000
2	2.521	2.513	2.550	257	150	1.720	0.000	 V 			0.025	2541	59.040	0.000	0.374	0.000	0	0	0.000	0.000
3	2.609	2.554	2.653	2349	592	3.967	0.000	   			0.061	4696	31.941	0.000	0.500	2.412	0	0	0.000	0.000
4	2.763	2.653	2.821	5533	617	8.964	0.125	 V 	1	N2O	0.124	175	857.207	0.000	0.312	2.024	0	0	12.454	12.454
5	2.884	2.821	3.932	38898	5767	6.744	0.875	 V 	1	N2O	0.173	11421	13.134	0.000	0.257	1.398	0	0	87.546	87.546

[Compound Results(Ch1)]
# of IDs	6
ID#	Name	R.Time	Area	Height	Conc.	Curve	3rd	2nd	1st	Constant	Area Ratio	Height Ratio	Conc. %	Norm Conc.
1	CO	1.479	12725	5669	100.000	Linear	0.000000e+00	0.000000e+00	1.272537e+002	0.000000e+00	0	0	16.667	16.667
2	CH4	1.571	5072	2532	100.000	Linear	0.000000e+00	0.000000e+00	5.071908e+001	0.000000e+00	0	0	16.667	16.667
3	CO2	2.000	1511780	729939	400.000	Linear	0.000000e+00	0.000000e+00	3.779451e+003	0.000000e+00	0	0	66.667	66.667
4	Ethylene	0.000	0	0	0.000	Linear	0.000000e+00	0.000000e+00	0.000000e+00	0.000000e+00	0	0	0.000	0.000
5	Acetylene	0.000	0	0	0.000	Linear	0.000000e+00	0.000000e+00	0.000000e+00	0.000000e+00	0	0	0.000	0.000
6	Ethane	0.000	0	0	0.000	Linear	0.000000e+00	0.000000e+00	0.000000e+00	0.000000e+00	0	0	0.000	0.000

[Compound Results(Ch2)]
# of IDs	5
ID#	Name	R.Time	Area	Height	Conc.	Curve	3rd	2nd	1st	Constant	Area Ratio	Height Ratio	Conc. %	Norm Conc.
1	Hydrogen	0.000	0	0	0.000	Linear	0.000000e+00	0.000000e+00	0.000000e+00	0.000000e+00	0	0	0.000	0.000
2	Oxygen	0.000	0	0	0.000	Linear	0.000000e+00	0.000000e+00	0.000000e+00	0.000000e+00	0	0	0.000	0.000
3	Nitrogen	0.000	0	0	0.000	Linear	0.000000e+00	0.000000e+00	0.000000e+00	0.000000e+00	0	0	0.000	0.000
4	Methane	0.000	0	0	0.000	Linear	0.000000e+00	0.000000e+00	0.000000e+00	0.000000e+00	0	0	0.000	0.000
5	Carbon Monoxide	0.000	0	0	0.000	Linear	0.000000e+00	0.000000e+00	0.000000e+00	0.000000e+00	0	0	0.000	0.000

[Compound Results(Ch3)]
# of IDs	2
ID#	Name	R.Time	Area	Height	Conc.	Curve	3rd	2nd	1st	Constant	Area Ratio	Height Ratio	Conc. %	Norm Conc.
1	N2O	2.884	44431	6385	1.000	Linear	0.000000e+00	0.000000e+00	4.443100e+004	0.000000e+00	0	0	100.000	100.000
2	SF6	0.000	0	0	0.000	Linear	0.000000e+00	0.000000e+00	0.000000e+00	0.000000e+00	0	0	0.000	0.000

[Group Results(Ch1)]
# of Groups	0

[Group Results(Ch2)]
# of Groups	0

[Group Results(Ch3)]
# of Groups	0

[Chromatogram (Ch1)]
Interval(msec)	220
# of Points	1091
Start Time(min)	0.002
End Time(min)	3.998
R.Time (min)	Intensity
0.00167	-12
0.00533	-16
0.00900	-20
0.01267	-20
0.01633	-18
0.02000	-19
0.02367	-23
0.02733	-29
0.03100	-34
0.03467	-39
0.03833	-41
0.04200	-42
0.04567	-42
0.04933	-41
0.05300	-39
0.05667	-36
0.06033	-31
0.06400	-27
0.06767	-27
0.07133	-29
0.07500	-34
0.07867	-39
0.08233	-41
0.08600	-38
0.08967	-30
0.09333	-23
0.09700	-20
0.10067	-19
0.10433	-20
0.10800	-21
0.11167	-23
0.11533	-26
0.11900	-29
0.12267	-32
0.12633	-32
0.13000	-31
0.13367	-26
0.13733	-21
0.14100	-17
0.14467	-15
0.14833	-17
0.15200	-23
0.15567	-30
0.15933	-36
0.16300	-39
0.16667	-40
0.17033	-36
0.17400	-31
0.17767	-27
0.18133	-24
0.18500	-24
0.18867	-27
0.19233	-30
0.19600	-32
0.19967	-38
0.20333	-47
0.20700	-53
0.21067	-55
0.21433	-54
0.21800	-51
0.22167	-50
0.22533	-48
0.22900	-43
0.23267	-36
0.23633	-29
0.24000	-24
0.24367	-22
0.24733	-20
0.25100	-22
0.25467	-23
0.25833	-22
0.26200	-24
0.26567	-28
0.26933	-32
0.27300	-36
0.27667	-40
0.28033	-43
0.28400	-45
0.28767	-47
0.29133	-47
0.29500	-42
0.29867	-35
0.30233	-29
0.30600	-31
0.30967	-37
0.31333	-45
0.31700	-51
0.32067	-52
0.32433	-51
0.32800	-50
0.33167	-48
0.33533	-46
0.33900	-48
0.34267	-50
0.34633	-50
0.35000	-53
0.35367	-58
0.35733	-63
0.36100	-69
0.36467	-72
0.36833	-72
0.37200	-70
0.37567	-65
0.37933	-60
0.38300	-54
0.38667	-47
0.39033	-39
0.39400	-36
0.39767	-37
0.40133	-42
0.40500	-43
0.40867	-43
0.41233	-42
0.41600	-39
0.41967	-37
0.42333	-39
0.42700	-46
0.43067	-52
0.43433	-58
0.43800	-61
0.44167	-60
0.44533	-55
0.44900	-48
0.45267	-44
0.45633	-41
0.46000	-39
0.46367	-38
0.46733	-38
0.47100	-40
0.47467	-42
0.47833	-44
0.48200	-44
0.48567	-42
0.48933	-41
0.49300	-38
0.49667	-34
0.50033	-30
0.50400	-29
0.50767	-34
0.51133	-41
0.51500	-49
0.51867	-55
0.52233	-64
0.52600	-73
0.52967	-81
0.53333	-82
0.53700	-80
0.54067	-79
0.54433	-79
0.54800	-75
0.55167	-68
0.55533	-58
0.55900	-50
0.56267	-48
0.56633	-48
0.57000	-50
0.57367	-50
0.57733	-55
0.58100	-61
0.58467	-63
0.58833	-62
0.59200	-60
0.59567	-60
0.59933	-64
0.60300	-67
0.60667	-69
0.61033	-70
0.61400	-68
0.61767	-59
0.62133	-56
0.62500	-46
0.62867	-18
0.63233	12
0.63600	33
0.63967	40
0.64333	39
0.64700	34
0.65067	23
0.65433	12
0.65800	4
0.66167	-2
0.66533	-8
0.66900	-13
0.67267	-19
0.67633	-26
0.68000	-30
0.68367	-29
0.68733	-24
0.69100	-18
0.69467	-14
0.69833	-13
0.70200	-14
0.70567	-15
0.70933	-17
0.71300	-22
0.71667	-27
0.72033	-31
0.72400	-31
0.72767	-27
0.73133	-24
0.73500	-26
0.73867	-34
0.74233	-40
0.74600	-43
0.74967	-44
0.75333	-40
0.75700	-35
0.76067	-32
0.76433	-28
0.76800	-25
0.77167	-21
0.77533	-17
0.77900	-14
0.78267	-13
0.78633	-12
0.79000	-14
0.79367	-20
0.79733	-24
0.80100	-27
0.80467	-31
0.80833	-36
0.81200	-41
0.81567	-41
0.81933	-40
0.82300	-41
0.82667	-41
0.83033	-43
0.83400	-47
0.83767	-52
0.84133	-57
0.84500	-58
0.84867	-57
0.85233	-53
0.85600	-46
0.85967	-41
0.86333	-38
0.86700	-39
0.87067	-41
0.87433	-44
0.87800	-48
0.88167	-51
0.88533	-52
0.88900	-51
0.89267	-50
0.89633	-50
0.90000	-49
0.90367	-50
0.90733	-54
0.91100	-56
0.91467	-54
0.91833	-48
0.92200	-43
0.92567	-38
0.92933	-34
0.93300	-31
0.93667	-31
0.94033	-34
0.94400	-38
0.94767	-42
0.95133	-44
0.95500	-44
0.95867	-43
0.96233	-42
0.96600	-43
0.96967	-45
0.97333	-49
0.97700	-52
0.98067	-54
0.98433	-54
0.98800	-56
0.99167	-59
0.99533	-58
0.99900	-49
1.00267	-35
1.00633	-23
1.01000	-16
1.01367	-18
1.01733	-27
1.02100	-41
1.02467	-53
1.02833	-64
1.03200	-73
1.03567	-78
1.03933	-77
1.04300	-75
1.04667	-69
1.05033	-57
1.05400	-44
1.05767	-37
1.06133	-35
1.06500	-39
1.06867	-46
1.07233	-51
1.07600	-52
1.07967	-51
1.08333	-51
1.08700	-53
1.09067	-53
1.09433	-51
1.09800	-49
1.10167	-47
1.10533	-45
1.10900	-43
1.11267	-43
1.11633	-44
1.12000	-45
1.12367	-43
1.12733	-40
1.13100	-41
1.13467	-47
1.13833	-52
1.14200	-54
1.14567	-56
1.14933	-57
1.15300	-60
1.15667	-66
1.16033	-72
1.16400	-74
1.16767	-70
1.17133	-64
1.17500	-58
1.17867	-54
1.18233	-53
1.18600	-56
1.18967	-62
1.19333	-65
1.19700	-66
1.20067	-68
1.20433	-71
1.20800	-74
1.21167	-73
1.21533	-69
1.21900	-65
1.22267	-64
1.22633	-65
1.23000	-65
1.23367	-63
1.23733	-60
1.24100	-56
1.24467	-54
1.24833	-56
1.25200	-62
1.25567	-72
1.25933	-81
1.26300	-88
1.26667	-92
1.27033	-95
1.27400	-96
1.27767	-97
1.28133	-101
1.28500	-103
1.28867	-101
1.29233	-94
1.29600	-87
1.29967	-83
1.30333	-81
1.30700	-79
1.31067	-76
1.31433	-73
1.31800	-73
1.32167	-74
1.32533	-74
1.32900	-72
1.33267	-68
1.33633	-65
1.34000	-66
1.34367	-70
1.34733	-77
1.35100	-84
1.35467	-90
1.35833	-93
1.36200	-93
1.36567	-93
1.36933	-92
1.37300	-89
1.37667	-92
1.38033	-99
1.38400	-102
1.38767	-100
1.39133	-94
1.39500	-88
1.39867	-83
1.40233	-83
1.40600	-88
1.40967	-90
1.41333	-90
1.41700	-88
1.42067	-83
1.42433	-81
1.42800	-79
1.43167	-78
1.43533	-79
1.43900	-72
1.44267	-22
1.44633	141
1.45000	450
1.45367	949
1.45733	1721
1.46100	2707
1.46467	3706
1.46833	4555
1.47200	5176
1.47567	5535
1.47933	5595
1.48300	5328
1.48667	4756
1.49033	3981
1.49400	3151
1.49767	2386
1.50133	1752
1.50500	1262
1.50867	900
1.51233	635
1.51600	445
1.51967	308
1.52333	206
1.52700	132
1.53067	79
1.53433	41
1.53800	18
1.54167	32
1.54533	137
1.54900	395
1.55267	808
1.55633	1291
1.56000	1746
1.56367	2110
1.56733	2355
1.57100	2455
1.57467	2379
1.57833	2122
1.58200	1738
1.58567	1317
1.58933	935
1.59300	629
1.59667	399
1.60033	235
1.60400	124
1.60767	51
1.61133	5
1.61500	-23
1.61867	-38
1.62233	-50
1.62600	-58
1.62967	-62
1.63333	-65
1.63700	-71
1.64067	-80
1.64433	-90
1.64800	-95
1.65167	-93
1.65533	-86
1.65900	-78
1.66267	-72
1.66633	-75
1.67000	-84
1.67367	-94
1.67733	-105
1.68100	-110
1.68467	-113
1.68833	-114
1.69200	-113
1.69567	-112
1.69933	-107
1.70300	-104
1.70667	-102
1.71033	-102
1.71400	-105
1.71767	-109
1.72133	-114
1.72500	-116
1.72867	-112
1.73233	-107
1.73600	-102
1.73967	-101
1.74333	-101
1.74700	-101
1.75067	-102
1.75433	-105
1.75800	-107
1.76167	-109
1.76533	-112
1.76900	-115
1.77267	-113
1.77633	-108
1.78000	-101
1.78367	-96
1.78733	-94
1.79100	-94
1.79467	-94
1.79833	-94
1.80200	-95
1.80567	-92
1.80933	-91
1.81300	-94
1.81667	-101
1.82033	-106
1.82400	-108
1.82767	-109
1.83133	-112
1.83500	-116
1.83867	-120
1.84233	-117
1.84600	-111
1.84967	-108
1.85333	-107
1.85700	-110
1.86067	-115
1.86433	-117
1.86800	-116
1.87167	-115
1.87533	-114
1.87900	-109
1.88267	-98
1.88633	-91
1.89000	-87
1.89367	-85
1.89733	-89
1.90100	-97
1.90467	-108
1.90833	-112
1.91200	-112
1.91567	-108
1.91933	-102
1.92300	-99
1.92667	-99
1.93033	-98
1.93400	-98
1.93767	-96
1.94133	-94
1.94500	-94
1.94867	-96
1.95233	-96
1.95600	-64
1.95967	155
1.96333	1336
1.96700	6264
1.97067	21921
1.97433	60242
1.97800	133268
1.98167	243465
1.98533	378114
1.98900	514266
1.99267	628784
1.99633	704188
2.00000	729871
2.00367	703522
2.00733	632492
2.01100	532466
2.01467	422543
2.01833	319014
2.02200	231678
2.02567	163694
2.02933	113737
2.03300	78475
2.03667	54237
2.04033	37843
2.04400	26841
2.04767	19460
2.05133	14476
2.05500	11071
2.05867	8706
2.06233	7026
2.06600	5804
2.06967	4896
2.07333	4205
2.07700	3668
2.08067	3240
2.08433	2896
2.08800	2611
2.09167	2368
2.09533	2162
2.09900	1985
2.10267	1835
2.10633	1707
2.11000	1590
2.11367	1483
2.11733	1391
2.12100	1311
2.12467	1243
2.12833	1181
2.13200	1124
2.13567	1071
2.13933	1022
2.14300	973
2.14667	926
2.15033	881
2.15400	838
2.15767	797
2.16133	760
2.16500	727
2.16867	700
2.17233	680
2.17600	667
2.17967	655
2.18333	640
2.18700	617
2.19067	589
2.19433	561
2.19800	540
2.20167	523
2.20533	511
2.20900	502
2.21267	490
2.21633	473
2.22000	456
2.22367	440
2.22733	427
2.23100	417
2.23467	404
2.23833	390
2.24200	380
2.24567	375
2.24933	372
2.25300	368
2.25667	358
2.26033	344
2.26400	331
2.26767	320
2.27133	315
2.27500	311
2.27867	305
2.28233	295
2.28600	285
2.28967	276
2.29333	270
2.29700	266
2.30067	265
2.30433	267
2.30800	269
2.31167	265
2.31533	260
2.31900	255
2.32267	251
2.32633	246
2.33000	243
2.33367	244
2.33733	244
2.34100	244
2.34467	246
2.34833	246
2.35200	243
2.35567	237
2.35933	231
2.36300	227
2.36667	223
2.37033	218
2.37400	210
2.37767	207
2.38133	205
2.38500	204
2.38867	203
2.39233	202
2.39600	202
2.39967	203
2.40333	202
2.40700	200
2.41067	197
2.41433	191
2.41800	188
2.42167	186
2.42533	184
2.42900	183
2.43267	185
2.43633	189
2.44000	192
2.44367	193
2.44733	189
2.45100	185
2.45467	181
2.45833	178
2.46200	175
2.46567	174
2.46933	175
2.47300	175
2.47667	171
2.48033	164
2.48400	158
2.48767	152
2.49133	146
2.49500	143
2.49867	142
2.50233	144
2.50600	148
2.50967	153
2.51333	154
2.51700	151
2.52067	146
2.52433	142
2.52800	140
2.53167	142
2.53533	144
2.53900	147
2.54267	148
2.54633	143
2.55000	137
2.55367	132
2.55733	131
2.56100	134
2.56467	135
2.56833	138
2.57200	143
2.57567	150
2.57933	154
2.58300	155
2.58667	152
2.59033	151
2.59400	149
2.59767	148
2.60133	147
2.60500	147
2.60867	145
2.61233	143
2.61600	142
2.61967	141
2.62333	140
2.62700	139
2.63067	142
2.63433	146
2.63800	151
2.64167	154
2.64533	151
2.64900	144
2.65267	136
2.65633	129
2.66000	123
2.66367	120
2.66733	118
2.67100	119
2.67467	125
2.67833	135
2.68200	143
2.68567	149
2.68933	152
2.69300	155
2.69667	156
2.70033	154
2.70400	148
2.70767	141
2.71133	134
2.71500	132
2.71867	134
2.72233	141
2.72600	147
2.72967	152
2.73333	160
2.73700	167
2.74067	173
2.74433	171
2.74800	163
2.75167	153
2.75533	148
2.75900	147
2.76267	144
2.76633	138
2.77000	135
2.77367	133
2.77733	133
2.78100	135
2.78467	137
2.78833	137
2.79200	134
2.79567	131
2.79933	131
2.80300	131
2.80667	132
2.81033	135
2.81400	141
2.81767	149
2.82133	154
2.82500	154
2.82867	154
2.83233	155
2.83600	156
2.83967	159
2.84333	159
2.84700	156
2.85067	152
2.85433	151
2.85800	153
2.86167	158
2.86533	164
2.86900	169
2.87267	171
2.87633	165
2.88000	156
2.88367	148
2.88733	141
2.89100	138
2.89467	137
2.89833	140
2.90200	144
2.90567	150
2.90933	158
2.91300	163
2.91667	164
2.92033	160
2.92400	156
2.92767	154
2.93133	154
2.93500	157
2.93867	162
2.94233	166
2.94600	168
2.94967	170
2.95333	177
2.95700	185
2.96067	187
2.96433	186
2.96800	182
2.97167	178
2.97533	175
2.97900	172
2.98267	168
2.98633	165
2.99000	166
2.99367	169
2.99733	170
3.00100	170
3.00467	174
3.00833	181
3.01200	192
3.01567	201
3.01933	206
3.02300	205
3.02667	201
3.03033	198
3.03400	197
3.03767	198
3.04133	199
3.04500	200
3.04867	202
3.05233	203
3.05600	204
3.05967	206
3.06333	207
3.06700	206
3.07067	205
3.07433	203
3.07800	204
3.08167	203
3.08533	200
3.08900	194
3.09267	191
3.09633	193
3.10000	197
3.10367	199
3.10733	198
3.11100	197
3.11467	199
3.11833	201
3.12200	201
3.12567	200
3.12933	199
3.13300	201
3.13667	203
3.14033	201
3.14400	197
3.14767	193
3.15133	193
3.15500	199
3.15867	205
3.16233	205
3.16600	201
3.16967	198
3.17333	202
3.17700	207
3.18067	212
3.18433	212
3.18800	209
3.19167	208
3.19533	210
3.19900	214
3.20267	218
3.20633	223
3.21000	226
3.21367	226
3.21733	225
3.22100	224
3.22467	222
3.22833	220
3.23200	217
3.23567	216
3.23933	217
3.24300	218
3.24667	218
3.25033	216
3.25400	215
3.25767	215
3.26133	215
3.26500	218
3.26867	222
3.27233	225
3.27600	230
3.27967	237
3.28333	243
3.28700	247
3.29067	246
3.29433	244
3.29800	243
3.30167	247
3.30533	254
3.30900	257
3.31267	256
3.31633	254
3.32000	252
3.32367	252
3.32733	253
3.33100	254
3.33467	253
3.33833	255
3.34200	259
3.34567	266
3.34933	271
3.35300	274
3.35667	273
3.36033	271
3.36400	269
3.36767	271
3.37133	273
3.37500	273
3.37867	271
3.38233	267
3.38600	263
3.38967	259
3.39333	256
3.39700	255
3.40067	258
3.40433	260
3.40800	260
3.41167	263
3.41533	272
3.41900	283
3.42267	288
3.42633	285
3.43000	281
3.43367	277
3.43733	273
3.44100	269
3.44467	263
3.44833	259
3.45200	262
3.45567	265
3.45933	270
3.46300	276
3.46667	278
3.47033	277
3.47400	276
3.47767	279
3.48133	283
3.48500	287
3.48867	287
3.49233	286
3.49600	284
3.49967	278
3.50333	271
3.50700	266
3.51067	264
3.51433	266
3.51800	270
3.52167	272
3.52533	273
3.52900	272
3.53267	270
3.53633	270
3.54000	273
3.54367	276
3.54733	276
3.55100	275
3.55467	275
3.55833	277
3.56200	276
3.56567	272
3.56933	265
3.57300	260
3.57667	255
3.58033	249
3.58400	244
3.58767	246
3.59133	249
3.59500	251
3.59867	255
3.60233	260
3.60600	266
3.60967	273
3.61333	276
3.61700	277
3.62067	276
3.62433	272
3.62800	264
3.63167	258
3.63533	255
3.63900	254
3.64267	254
3.64633	256
3.65000	258
3.65367	260
3.65733	262
3.66100	265
3.66467	268
3.66833	270
3.67200	271
3.67567	271
3.67933	267
3.68300	262
3.68667	260
3.69033	265
3.69400	272
3.69767	275
3.70133	272
3.70500	265
3.70867	258
3.71233	253
3.71600	248
3.71967	242
3.72333	235
3.72700	231
3.73067	230
3.73433	231
3.73800	234
3.74167	236
3.74533	238
3.74900	239
3.75267	243
3.75633	250
3.76000	256
3.76367	260
3.76733	259
3.77100	255
3.77467	251
3.77833	247
3.78200	243
3.78567	239
3.78933	236
3.79300	236
3.79667	235
3.80033	235
3.80400	237
3.80767	237
3.81133	232
3.81500	226
3.81867	221
3.82233	218
3.82600	219
3.82967	223
3.83333	225
3.83700	228
3.84067	234
3.84433	238
3.84800	239
3.85167	241
3.85533	244
3.85900	250
3.86267	255
3.86633	253
3.87000	246
3.87367	235
3.87733	222
3.88100	212
3.88467	204
3.88833	204
3.89200	212
3.89567	221
3.89933	228
3.90300	233
3.90667	239
3.91033	246
3.91400	246
3.91767	241
3.92133	235
3.92500	230
3.92867	227
3.93233	223
3.93600	220
3.93967	221
3.94333	225
3.94700	230
3.95067	234
3.95433	237
3.95800	239
3.96167	241
3.96533	239
3.96900	235
3.97267	230
3.97633	225
3.98000	222
3.98367	220
3.98733	222
3.99100	226
3.99467	227
3.99833	226

[Chromatogram (Ch2)]
Interval(msec)	220
# of Points	1091
Start Time(min)	0.002
End Time(min)	3.998
R.Time (min)	Intensity
0.00167	-0
0.00533	-0
0.00900	-0
0.01267	-0
0.01633	0
0.02000	0
0.02367	1
0.02733	1
0.03100	1
0.03467	1
0.03833	1
0.04200	1
0.04567	1
0.04933	1
0.05300	1
0.05667	1
0.06033	1
0.06400	0
0.06767	-0
0.07133	-0
0.07500	-0
0.07867	-1
0.08233	-1
0.08600	-1
0.08967	-1
0.09333	-2
0.09700	-2
0.10067	-2
0.10433	-2
0.10800	-2
0.11167	-2
0.11533	-1
0.11900	-1
0.12267	-1
0.12633	-0
0.13000	-0
0.13367	0
0.13733	-0
0.14100	-0
0.14467	-1
0.14833	-1
0.15200	-1
0.15567	-2
0.15933	-2
0.16300	-2
0.16667	-2
0.17033	-2
0.17400	-2
0.17767	-2
0.18133	-2
0.18500	-1
0.18867	-1
0.19233	-1
0.19600	-1
0.19967	-0
0.20333	-0
0.20700	0
0.21067	1
0.21433	1
0.21800	1
0.22167	1
0.22533	1
0.22900	1
0.23267	1
0.23633	0
0.24000	0
0.24367	-0
0.24733	-1
0.25100	-1
0.25467	-2
0.25833	-2
0.26200	-2
0.26567	-1
0.26933	-1
0.27300	-1
0.27667	-1
0.28033	-1
0.28400	-1
0.28767	-2
0.29133	-2
0.29500	-2
0.29867	-2
0.30233	-2
0.30600	-2
0.30967	-2
0.31333	-2
0.31700	-1
0.32067	-1
0.32433	-1
0.32800	-1
0.33167	-1
0.33533	-1
0.33900	-1
0.34267	-1
0.34633	-1
0.35000	-1
0.35367	-1
0.35733	-1
0.36100	-1
0.36467	-1
0.36833	-1
0.37200	-1
0.37567	-1
0.37933	-1
0.38300	-0
0.38667	-0
0.39033	-0
0.39400	-0
0.39767	-0
0.40133	-0
0.40500	-0
0.40867	-0
0.41233	-0
0.41600	-0
0.41967	-0
0.42333	-0
0.42700	-0
0.43067	-0
0.43433	-0
0.43800	-0
0.44167	0
0.44533	0
0.44900	-0
0.45267	-0
0.45633	-1
0.46000	-1
0.46367	-1
0.46733	-2
0.47100	-2
0.47467	-2
0.47833	-3
0.48200	-3
0.48567	-3
0.48933	-3
0.49300	-3
0.49667	-4
0.50033	-4
0.50400	-4
0.50767	-4
0.51133	-4
0.51500	-3
0.51867	-3
0.52233	-3
0.52600	-3
0.52967	-2
0.53333	-2
0.53700	-2
0.54067	-2
0.54433	-2
0.54800	-2
0.55167	-2
0.55533	-2
0.55900	-2
0.56267	-2
0.56633	-2
0.57000	-2
0.57367	-2
0.57733	-2
0.58100	-2
0.58467	-2
0.58833	-2
0.59200	-2
0.59567	-2
0.59933	-2
0.60300	-2
0.60667	-2
0.61033	-3
0.61400	-3
0.61767	-3
0.62133	-3
0.62500	-3
0.62867	-3
0.63233	-2
0.63600	-2
0.63967	-2
0.64333	-2
0.64700	-2
0.65067	-3
0.65433	-3
0.65800	-3
0.66167	-3
0.66533	-3
0.66900	-3
0.67267	-3
0.67633	-2
0.68000	-2
0.68367	-2
0.68733	-2
0.69100	-2
0.69467	-2
0.69833	-2
0.70200	-2
0.70567	-1
0.70933	-1
0.71300	-1
0.71667	-1
0.72033	-1
0.72400	-1
0.72767	-1
0.73133	-1
0.73500	-1
0.73867	-1
0.74233	-1
0.74600	-1
0.74967	-1
0.75333	-1
0.75700	-1
0.76067	-1
0.76433	-1
0.76800	-1
0.77167	-0
0.77533	-0
0.77900	-0
0.78267	-0
0.78633	-0
0.79000	-0
0.79367	-0
0.79733	0
0.80100	0
0.80467	0
0.80833	-0
0.81200	-0
0.81567	-0
0.81933	-0
0.82300	-1
0.82667	-1
0.83033	-1
0.83400	-1
0.83767	-1
0.84133	-2
0.84500	-2
0.84867	-2
0.85233	-2
0.85600	-2
0.85967	-2
0.86333	-2
0.86700	-2
0.87067	-3
0.87433	-3
0.87800	-3
0.88167	-3
0.88533	-3
0.88900	-2
0.89267	-2
0.89633	-2
0.90000	-2
0.90367	-2
0.90733	-2
0.91100	-2
0.91467	-3
0.91833	-3
0.92200	-3
0.92567	-3
0.92933	-3
0.93300	-3
0.93667	-3
0.94033	-3
0.94400	-3
0.94767	-3
0.95133	-4
0.95500	-4
0.95867	-4
0.96233	-4
0.96600	-5
0.96967	-4
0.97333	-4
0.97700	-4
0.98067	-4
0.98433	-4
0.98800	-4
0.99167	-4
0.99533	-4
0.99900	-4
1.00267	-4
1.00633	-4
1.01000	-4
1.01367	-3
1.01733	-3
1.02100	-3
1.02467	-4
1.02833	-3
1.03200	-3
1.03567	-3
1.03933	-3
1.04300	-3
1.04667	-2
1.05033	-2
1.05400	-2
1.05767	-2
1.06133	-2
1.06500	-1
1.06867	-1
1.07233	-1
1.07600	-1
1.07967	-1
1.08333	-1
1.08700	-1
1.09067	-1
1.09433	-1
1.09800	-1
1.10167	-1
1.10533	-1
1.10900	-1
1.11267	-2
1.11633	-2
1.12000	-2
1.12367	-2
1.12733	-1
1.13100	-1
1.13467	-1
1.13833	-1
1.14200	-1
1.14567	-1
1.14933	-1
1.15300	-1
1.15667	-1
1.16033	-1
1.16400	-1
1.16767	-1
1.17133	-0
1.17500	-0
1.17867	-0
1.18233	-0
1.18600	-0
1.18967	-0
1.19333	-0
1.19700	-0
1.20067	-1
1.20433	-1
1.20800	-1
1.21167	-1
1.21533	-1
1.21900	-1
1.22267	-1
1.22633	-1
1.23000	-1
1.23367	-2
1.23733	-2
1.24100	-2
1.24467	-2
1.24833	-2
1.25200	-3
1.25567	-3
1.25933	-3
1.26300	-2
1.26667	-2
1.27033	-2
1.27400	-2
1.27767	-2
1.28133	-2
1.28500	-2
1.28867	-2
1.29233	-2
1.29600	-3
1.29967	-3
1.30333	-3
1.30700	-3
1.31067	-3
1.31433	-3
1.31800	-3
1.32167	-3
1.32533	-3
1.32900	-3
1.33267	-3
1.33633	-3
1.34000	-3
1.34367	-3
1.34733	-2
1.35100	-2
1.35467	-2
1.35833	-2
1.36200	-2
1.36567	-2
1.36933	-2
1.37300	-2
1.37667	-2
1.38033	-2
1.38400	-2
1.38767	-2
1.39133	-2
1.39500	-2
1.39867	-2
1.40233	-3
1.40600	-3
1.40967	-3
1.41333	-3
1.41700	-3
1.42067	-3
1.42433	-3
1.42800	-4
1.43167	-4
1.43533	-4
1.43900	-4
1.44267	-4
1.44633	-4
1.45000	-5
1.45367	-5
1.45733	-5
1.46100	-5
1.46467	-5
1.46833	-5
1.47200	-5
1.47567	-5
1.47933	-5
1.48300	-4
1.48667	-4
1.49033	-4
1.49400	-4
1.49767	-3
1.50133	-3
1.50500	-4
1.50867	-4
1.51233	-4
1.51600	-4
1.51967	-4
1.52333	-5
1.52700	-5
1.53067	-5
1.53433	-5
1.53800	-5
1.54167	-5
1.54533	-5
1.54900	-5
1.55267	-4
1.55633	-4
1.56000	-4
1.56367	-4
1.56733	-4
1.57100	-4
1.57467	-3
1.57833	-3
1.58200	-3
1.58567	-3
1.58933	-3
1.59300	-4
1.59667	-4
1.60033	-5
1.60400	-6
1.60767	-8
1.61133	-9
1.61500	-11
1.61867	-14
1.62233	-16
1.62600	-19
1.62967	-22
1.63333	-25
1.63700	-28
1.64067	-32
1.64433	-35
1.64800	-39
1.65167	-43
1.65533	-46
1.65900	-50
1.66267	-54
1.66633	-59
1.67000	-63
1.67367	-69
1.67733	-74
1.68100	-79
1.68467	-85
1.68833	-89
1.69200	-94
1.69567	-98
1.69933	-101
1.70300	-104
1.70667	-106
1.71033	-108
1.71400	-110
1.71767	-111
1.72133	-112
1.72500	-113
1.72867	-114
1.73233	-114
1.73600	-114
1.73967	-114
1.74333	-114
1.74700	-115
1.75067	-115
1.75433	-116
1.75800	-117
1.76167	-118
1.76533	-118
1.76900	-119
1.77267	-119
1.77633	-119
1.78000	-119
1.78367	-119
1.78733	-120
1.79100	-121
1.79467	-122
1.79833	-122
1.80200	-122
1.80567	-122
1.80933	-122
1.81300	-123
1.81667	-123
1.82033	-123
1.82400	-123
1.82767	-124
1.83133	-124
1.83500	-124
1.83867	-124
1.84233	-124
1.84600	-124
1.84967	-124
1.85333	-124
1.85700	-125
1.86067	-125
1.86433	-125
1.86800	-125
1.87167	-124
1.87533	-124
1.87900	-124
1.88267	-123
1.88633	-123
1.89000	-123
1.89367	-123
1.89733	-122
1.90100	-122
1.90467	-122
1.90833	-121
1.91200	-121
1.91567	-121
1.91933	-121
1.92300	-121
1.92667	-121
1.93033	-120
1.93400	-120
1.93767	-120
1.94133	-120
1.94500	-120
1.94867	-120
1.95233	-121
1.95600	-121
1.95967	-122
1.96333	-121
1.96700	-121
1.97067	-120
1.97433	-120
1.97800	-120
1.98167	-119
1.98533	-119
1.98900	-118
1.99267	-118
1.99633	-117
2.00000	-116
2.00367	-116
2.00733	-116
2.01100	-116
2.01467	-116
2.01833	-116
2.02200	-116
2.02567	-115
2.02933	-115
2.03300	-114
2.03667	-113
2.04033	-113
2.04400	-112
2.04767	-112
2.05133	-112
2.05500	-112
2.05867	-112
2.06233	-112
2.06600	-112
2.06967	-112
2.07333	-111
2.07700	-111
2.08067	-110
2.08433	-110
2.08800	-110
2.09167	-109
2.09533	-109
2.09900	-109
2.10267	-109
2.10633	-108
2.11000	-108
2.11367	-108
2.11733	-108
2.12100	-108
2.12467	-108
2.12833	-107
2.13200	-107
2.13567	-106
2.13933	-105
2.14300	-105
2.14667	-105
2.15033	-105
2.15400	-105
2.15767	-105
2.16133	-105
2.16500	-105
2.16867	-104
2.17233	-103
2.17600	-103
2.17967	-102
2.18333	-101
2.18700	-101
2.19067	-100
2.19433	-99
2.19800	-99
2.20167	-99
2.20533	-99
2.20900	-98
2.21267	-98
2.21633	-97
2.22000	-97
2.22367	-97
2.22733	-97
2.23100	-97
2.23467	-97
2.23833	-97
2.24200	-97
2.24567	-97
2.24933	-96
2.25300	-96
2.25667	-95
2.26033	-95
2.26400	-94
2.26767	-93
2.27133	-93
2.27500	-92
2.27867	-91
2.28233	-91
2.28600	-91
2.28967	-91
2.29333	-90
2.29700	-90
2.30067	-90
2.30433	-90
2.30800	-89
2.31167	-89
2.31533	-88
2.31900	-88
2.32267	-88
2.32633	-89
2.33000	-89
2.33367	-90
2.33733	-90
2.34100	-90
2.34467	-90
2.34833	-89
2.35200	-88
2.35567	-87
2.35933	-86
2.36300	-84
2.36667	-83
2.37033	-81
2.37400	-78
2.37767	-76
2.38133	-73
2.38500	-69
2.38867	-65
2.39233	-61
2.39600	-56
2.39967	-51
2.40333	-47
2.40700	-43
2.41067	-39
2.41433	-35
2.41800	-31
2.42167	-28
2.42533	-25
2.42900	-22
2.43267	-20
2.43633	-17
2.44000	-16
2.44367	-14
2.44733	-12
2.45100	-11
2.45467	-9
2.45833	-8
2.46200	-6
2.46567	-5
2.46933	-3
2.47300	-2
2.47667	-1
2.48033	0
2.48400	1
2.48767	2
2.49133	3
2.49500	3
2.49867	4
2.50233	4
2.50600	5
2.50967	5
2.51333	6
2.51700	7
2.52067	8
2.52433	8
2.52800	8
2.53167	8
2.53533	8
2.53900	8
2.54267	8
2.54633	8
2.55000	8
2.55367	9
2.55733	10
2.56100	10
2.56467	11
2.56833	11
2.57200	11
2.57567	12
2.57933	12
2.58300	12
2.58667	11
2.59033	11
2.59400	11
2.59767	10
2.60133	10
2.60500	10
2.60867	11
2.61233	12
2.61600	12
2.61967	13
2.62333	14
2.62700	14
2.63067	15
2.63433	15
2.63800	16
2.64167	16
2.64533	16
2.64900	16
2.65267	16
2.65633	16
2.66000	17
2.66367	17
2.66733	18
2.67100	18
2.67467	19
2.67833	19
2.68200	19
2.68567	19
2.68933	19
2.69300	18
2.69667	19
2.70033	19
2.70400	19
2.70767	19
2.71133	20
2.71500	20
2.71867	20
2.72233	20
2.72600	21
2.72967	21
2.73333	21
2.73700	22
2.74067	22
2.74433	22
2.74800	23
2.75167	23
2.75533	23
2.75900	23
2.76267	23
2.76633	22
2.77000	21
2.77367	21
2.77733	20
2.78100	20
2.78467	20
2.78833	20
2.79200	20
2.79567	20
2.79933	20
2.80300	20
2.80667	20
2.81033	20
2.81400	21
2.81767	21
2.82133	21
2.82500	22
2.82867	22
2.83233	23
2.83600	23
2.83967	23
2.84333	24
2.84700	23
2.85067	22
2.85433	19
2.85800	15
2.86167	8
2.86533	-1
2.86900	-14
2.87267	-31
2.87633	-51
2.88000	-75
2.88367	-103
2.88733	-134
2.89100	-170
2.89467	-208
2.89833	-250
2.90200	-294
2.90567	-340
2.90933	-387
2.91300	-436
2.91667	-485
2.92033	-535
2.92400	-585
2.92767	-635
2.93133	-685
2.93500	-734
2.93867	-782
2.94233	-832
2.94600	-885
2.94967	-943
2.95333	-1005
2.95700	-1058
2.96067	-1093
2.96433	-1103
2.96800	-1087
2.97167	-1047
2.97533	-988
2.97900	-918
2.98267	-840
2.98633	-759
2.99000	-679
2.99367	-602
2.99733	-529
3.00100	-463
3.00467	-403
3.00833	-348
3.01200	-300
3.01567	-258
3.01933	-221
3.02300	-188
3.02667	-160
3.03033	-136
3.03400	-115
3.03767	-97
3.04133	-82
3.04500	-68
3.04867	-57
3.05233	-47
3.05600	-39
3.05967	-32
3.06333	-26
3.06700	-20
3.07067	-16
3.07433	-12
3.07800	-8
3.08167	-6
3.08533	-3
3.08900	-1
3.09267	1
3.09633	3
3.10000	4
3.10367	5
3.10733	6
3.11100	7
3.11467	8
3.11833	8
3.12200	9
3.12567	10
3.12933	11
3.13300	11
3.13667	11
3.14033	12
3.14400	12
3.14767	12
3.15133	13
3.15500	13
3.15867	13
3.16233	14
3.16600	14
3.16967	14
3.17333	14
3.17700	15
3.18067	15
3.18433	16
3.18800	16
3.19167	16
3.19533	16
3.19900	17
3.20267	17
3.20633	17
3.21000	17
3.21367	18
3.21733	18
3.22100	18
3.22467	18
3.22833	19
3.23200	19
3.23567	20
3.23933	20
3.24300	21
3.24667	21
3.25033	21
3.25400	22
3.25767	22
3.26133	22
3.26500	23
3.26867	23
3.27233	23
3.27600	23
3.27967	23
3.28333	23
3.28700	23
3.29067	23
3.29433	23
3.29800	23
3.30167	24
3.30533	24
3.30900	24
3.31267	24
3.31633	24
3.32000	23
3.32367	23
3.32733	23
3.33100	23
3.33467	23
3.33833	24
3.34200	24
3.34567	24
3.34933	24
3.35300	24
3.35667	23
3.36033	23
3.36400	23
3.36767	23
3.37133	23
3.37500	23
3.37867	23
3.38233	23
3.38600	23
3.38967	23
3.39333	23
3.39700	23
3.40067	23
3.40433	23
3.40800	23
3.41167	23
3.41533	23
3.41900	23
3.42267	23
3.42633	23
3.43000	23
3.43367	23
3.43733	23
3.44100	23
3.44467	23
3.44833	23
3.45200	23
3.45567	23
3.45933	23
3.46300	23
3.46667	23
3.47033	23
3.47400	23
3.47767	23
3.48133	23
3.48500	23
3.48867	23
3.49233	23
3.49600	23
3.49967	22
3.50333	22
3.50700	22
3.51067	22
3.51433	22
3.51800	22
3.52167	22
3.52533	22
3.52900	22
3.53267	22
3.53633	22
3.54000	22
3.54367	22
3.54733	22
3.55100	23
3.55467	23
3.55833	23
3.56200	23
3.56567	23
3.56933	23
3.57300	23
3.57667	23
3.58033	23
3.58400	23
3.58767	23
3.59133	23
3.59500	23
3.59867	23
3.60233	24
3.60600	24
3.60967	24
3.61333	24
3.61700	24
3.62067	24
3.62433	23
3.62800	23
3.63167	23
3.63533	23
3.63900	23
3.64267	23
3.64633	23
3.65000	23
3.65367	23
3.65733	24
3.66100	24
3.66467	24
3.66833	24
3.67200	24
3.67567	24
3.67933	24
3.68300	24
3.68667	24
3.69033	24
3.69400	24
3.69767	24
3.70133	24
3.70500	24
3.70867	25
3.71233	25
3.71600	25
3.71967	25
3.72333	25
3.72700	24
3.73067	24
3.73433	24
3.73800	24
3.74167	24
3.74533	23
3.74900	23
3.75267	23
3.75633	23
3.76000	23
3.76367	23
3.76733	23
3.77100	24
3.77467	24
3.77833	24
3.78200	25
3.78567	25
3.78933	25
3.79300	25
3.79667	25
3.80033	25
3.80400	25
3.80767	25
3.81133	25
3.81500	25
3.81867	26
3.82233	26
3.82600	26
3.82967	26
3.83333	26
3.83700	26
3.84067	26
3.84433	26
3.84800	26
3.85167	26
3.85533	26
3.85900	26
3.86267	26
3.86633	26
3.87000	26
3.87367	26
3.87733	25
3.88100	25
3.88467	25
3.88833	25
3.89200	25
3.89567	25
3.89933	25
3.90300	25
3.90667	25
3.91033	25
3.91400	25
3.91767	25
3.92133	25
3.92500	25
3.92867	25
3.93233	25
3.93600	25
3.93967	25
3.94333	25
3.94700	25
3.95067	24
3.95433	25
3.95800	25
3.96167	25
3.96533	25
3.96900	25
3.97267	25
3.97633	24
3.98000	24
3.98367	24
3.98733	23
3.99100	23
3.99467	23
3.99833	23

[Chromatogram (Ch3)]
Interval(msec)	220
# of Points	1091
Start Time(min)	0.002
End Time(min)	3.998
R.Time (min)	Intensity
0.00167	0
0.00533	0
0.00900	2
0.01267	3
0.01633	2
0.02000	2
0.02367	1
0.02733	-1
0.03100	-2
0.03467	-0
0.03833	0
0.04200	1
0.04567	2
0.04933	2
0.05300	5
0.05667	9
0.06033	10
0.06400	9
0.06767	8
0.07133	7
0.07500	8
0.07867	10
0.08233	8
0.08600	7
0.08967	7
0.09333	8
0.09700	8
0.10067	9
0.10433	10
0.10800	11
0.11167	9
0.11533	9
0.11900	9
0.12267	10
0.12633	11
0.13000	10
0.13367	10
0.13733	11
0.14100	10
0.14467	9
0.14833	6
0.15200	4
0.15567	3
0.15933	3
0.16300	4
0.16667	6
0.17033	8
0.17400	9
0.17767	10
0.18133	11
0.18500	11
0.18867	10
0.19233	10
0.19600	9
0.19967	9
0.20333	8
0.20700	8
0.21067	8
0.21433	10
0.21800	9
0.22167	9
0.22533	9
0.22900	12
0.23267	15
0.23633	16
0.24000	17
0.24367	16
0.24733	14
0.25100	14
0.25467	15
0.25833	17
0.26200	19
0.26567	19
0.26933	18
0.27300	18
0.27667	16
0.28033	15
0.28400	16
0.28767	17
0.29133	16
0.29500	16
0.29867	17
0.30233	17
0.30600	16
0.30967	15
0.31333	14
0.31700	15
0.32067	16
0.32433	18
0.32800	17
0.33167	18
0.33533	20
0.33900	19
0.34267	17
0.34633	15
0.35000	16
0.35367	18
0.35733	20
0.36100	21
0.36467	20
0.36833	19
0.37200	19
0.37567	19
0.37933	18
0.38300	18
0.38667	19
0.39033	19
0.39400	19
0.39767	17
0.40133	16
0.40500	17
0.40867	18
0.41233	19
0.41600	19
0.41967	21
0.42333	23
0.42700	22
0.43067	22
0.43433	23
0.43800	24
0.44167	25
0.44533	23
0.44900	21
0.45267	20
0.45633	20
0.46000	21
0.46367	23
0.46733	21
0.47100	19
0.47467	19
0.47833	19
0.48200	19
0.48567	19
0.48933	21
0.49300	22
0.49667	24
0.50033	25
0.50400	24
0.50767	24
0.51133	24
0.51500	23
0.51867	23
0.52233	25
0.52600	27
0.52967	28
0.53333	26
0.53700	24
0.54067	23
0.54433	24
0.54800	23
0.55167	21
0.55533	21
0.55900	20
0.56267	21
0.56633	21
0.57000	20
0.57367	21
0.57733	21
0.58100	23
0.58467	25
0.58833	25
0.59200	22
0.59567	24
0.59933	24
0.60300	22
0.60667	22
0.61033	22
0.61400	22
0.61767	24
0.62133	25
0.62500	25
0.62867	26
0.63233	25
0.63600	24
0.63967	25
0.64333	26
0.64700	29
0.65067	30
0.65433	29
0.65800	27
0.66167	24
0.66533	23
0.66900	21
0.67267	22
0.67633	23
0.68000	25
0.68367	25
0.68733	24
0.69100	25
0.69467	27
0.69833	28
0.70200	26
0.70567	23
0.70933	23
0.71300	23
0.71667	24
0.72033	25
0.72400	26
0.72767	26
0.73133	26
0.73500	24
0.73867	20
0.74233	18
0.74600	19
0.74967	21
0.75333	23
0.75700	24
0.76067	24
0.76433	25
0.76800	28
0.77167	30
0.77533	32
0.77900	30
0.78267	27
0.78633	24
0.79000	25
0.79367	27
0.79733	29
0.80100	30
0.80467	30
0.80833	29
0.81200	29
0.81567	30
0.81933	31
0.82300	30
0.82667	30
0.83033	29
0.83400	29
0.83767	30
0.84133	29
0.84500	29
0.84867	30
0.85233	30
0.85600	28
0.85967	25
0.86333	25
0.86700	28
0.87067	30
0.87433	31
0.87800	30
0.88167	28
0.88533	27
0.88900	28
0.89267	29
0.89633	30
0.90000	31
0.90367	32
0.90733	32
0.91100	33
0.91467	34
0.91833	34
0.92200	34
0.92567	33
0.92933	31
0.93300	27
0.93667	25
0.94033	26
0.94400	24
0.94767	22
0.95133	24
0.95500	26
0.95867	29
0.96233	32
0.96600	32
0.96967	30
0.97333	30
0.97700	30
0.98067	30
0.98433	29
0.98800	28
0.99167	26
0.99533	24
0.99900	25
1.00267	27
1.00633	30
1.01000	32
1.01367	32
1.01733	31
1.02100	29
1.02467	28
1.02833	25
1.03200	23
1.03567	26
1.03933	28
1.04300	28
1.04667	26
1.05033	25
1.05400	26
1.05767	27
1.06133	28
1.06500	29
1.06867	30
1.07233	29
1.07600	30
1.07967	29
1.08333	29
1.08700	29
1.09067	29
1.09433	29
1.09800	29
1.10167	29
1.10533	31
1.10900	32
1.11267	33
1.11633	32
1.12000	30
1.12367	28
1.12733	28
1.13100	27
1.13467	28
1.13833	28
1.14200	27
1.14567	27
1.14933	26
1.15300	26
1.15667	28
1.16033	29
1.16400	29
1.16767	28
1.17133	29
1.17500	28
1.17867	28
1.18233	29
1.18600	30
1.18967	28
1.19333	25
1.19700	25
1.20067	26
1.20433	28
1.20800	27
1.21167	27
1.21533	30
1.21900	32
1.22267	32
1.22633	31
1.23000	30
1.23367	31
1.23733	30
1.24100	28
1.24467	27
1.24833	27
1.25200	27
1.25567	29
1.25933	31
1.26300	30
1.26667	30
1.27033	27
1.27400	23
1.27767	21
1.28133	23
1.28500	26
1.28867	29
1.29233	30
1.29600	30
1.29967	29
1.30333	30
1.30700	30
1.31067	29
1.31433	28
1.31800	27
1.32167	26
1.32533	29
1.32900	30
1.33267	29
1.33633	27
1.34000	26
1.34367	26
1.34733	27
1.35100	29
1.35467	28
1.35833	29
1.36200	30
1.36567	28
1.36933	27
1.37300	25
1.37667	22
1.38033	22
1.38400	23
1.38767	23
1.39133	22
1.39500	20
1.39867	21
1.40233	23
1.40600	23
1.40967	24
1.41333	26
1.41700	26
1.42067	25
1.42433	23
1.42800	21
1.43167	22
1.43533	24
1.43900	26
1.44267	28
1.44633	28
1.45000	26
1.45367	25
1.45733	24
1.46100	22
1.46467	22
1.46833	24
1.47200	27
1.47567	25
1.47933	24
1.48300	24
1.48667	25
1.49033	27
1.49400	28
1.49767	29
1.50133	29
1.50500	28
1.50867	27
1.51233	26
1.51600	25
1.51967	25
1.52333	25
1.52700	26
1.53067	26
1.53433	25
1.53800	24
1.54167	23
1.54533	21
1.54900	17
1.55267	17
1.55633	15
1.56000	14
1.56367	13
1.56733	14
1.57100	16
1.57467	16
1.57833	18
1.58200	19
1.58567	18
1.58933	18
1.59300	20
1.59667	20
1.60033	19
1.60400	20
1.60767	21
1.61133	22
1.61500	19
1.61867	18
1.62233	21
1.62600	25
1.62967	25
1.63333	23
1.63700	22
1.64067	21
1.64433	20
1.64800	20
1.65167	20
1.65533	22
1.65900	24
1.66267	28
1.66633	30
1.67000	29
1.67367	29
1.67733	30
1.68100	33
1.68467	35
1.68833	35
1.69200	32
1.69567	31
1.69933	32
1.70300	35
1.70667	36
1.71033	36
1.71400	36
1.71767	35
1.72133	35
1.72500	33
1.72867	32
1.73233	34
1.73600	37
1.73967	38
1.74333	38
1.74700	37
1.75067	38
1.75433	39
1.75800	40
1.76167	37
1.76533	35
1.76900	34
1.77267	35
1.77633	36
1.78000	37
1.78367	36
1.78733	35
1.79100	35
1.79467	35
1.79833	35
1.80200	38
1.80567	40
1.80933	41
1.81300	44
1.81667	47
1.82033	48
1.82400	48
1.82767	48
1.83133	47
1.83500	46
1.83867	46
1.84233	46
1.84600	47
1.84967	46
1.85333	44
1.85700	44
1.86067	45
1.86433	45
1.86800	46
1.87167	45
1.87533	44
1.87900	43
1.88267	41
1.88633	41
1.89000	42
1.89367	43
1.89733	44
1.90100	43
1.90467	44
1.90833	43
1.91200	41
1.91567	42
1.91933	45
1.92300	47
1.92667	47
1.93033	47
1.93400	48
1.93767	50
1.94133	51
1.94500	51
1.94867	51
1.95233	54
1.95600	57
1.95967	60
1.96333	61
1.96700	61
1.97067	60
1.97433	57
1.97800	56
1.98167	57
1.98533	58
1.98900	58
1.99267	57
1.99633	56
2.00000	55
2.00367	55
2.00733	55
2.01100	55
2.01467	55
2.01833	56
2.02200	58
2.02567	59
2.02933	60
2.03300	61
2.03667	65
2.04033	67
2.04400	69
2.04767	70
2.05133	68
2.05500	68
2.05867	67
2.06233	67
2.06600	67
2.06967	65
2.07333	64
2.07700	65
2.08067	66
2.08433	67
2.08800	71
2.09167	74
2.09533	76
2.09900	76
2.10267	77
2.10633	80
2.11000	84
2.11367	86
2.11733	84
2.12100	82
2.12467	82
2.12833	84
2.13200	86
2.13567	86
2.13933	85
2.14300	86
2.14667	88
2.15033	90
2.15400	88
2.15767	87
2.16133	89
2.16500	91
2.16867	92
2.17233	94
2.17600	98
2.17967	98
2.18333	96
2.18700	94
2.19067	93
2.19433	90
2.19800	90
2.20167	92
2.20533	95
2.20900	95
2.21267	94
2.21633	94
2.22000	95
2.22367	95
2.22733	95
2.23100	94
2.23467	96
2.23833	98
2.24200	101
2.24567	103
2.24933	104
2.25300	105
2.25667	106
2.26033	107
2.26400	107
2.26767	108
2.27133	109
2.27500	110
2.27867	108
2.28233	108
2.28600	107
2.28967	109
2.29333	109
2.29700	110
2.30067	109
2.30433	109
2.30800	109
2.31167	110
2.31533	112
2.31900	115
2.32267	116
2.32633	119
2.33000	121
2.33367	120
2.33733	121
2.34100	123
2.34467	125
2.34833	125
2.35200	124
2.35567	124
2.35933	123
2.36300	120
2.36667	121
2.37033	124
2.37400	123
2.37767	122
2.38133	123
2.38500	124
2.38867	122
2.39233	122
2.39600	123
2.39967	127
2.40333	131
2.40700	133
2.41067	135
2.41433	135
2.41800	136
2.42167	139
2.42533	141
2.42900	143
2.43267	144
2.43633	146
2.44000	147
2.44367	157
2.44733	189
2.45100	226
2.45467	254
2.45833	260
2.46200	249
2.46567	234
2.46933	222
2.47300	212
2.47667	201
2.48033	189
2.48400	175
2.48767	161
2.49133	150
2.49500	141
2.49867	134
2.50233	129
2.50600	125
2.50967	122
2.51333	122
2.51700	124
2.52067	125
2.52433	122
2.52800	119
2.53167	115
2.53533	109
2.53900	86
2.54267	40
2.54633	-2
2.55000	-35
2.55367	-46
2.55733	-27
2.56100	12
2.56467	58
2.56833	106
2.57200	157
2.57567	212
2.57933	267
2.58300	320
2.58667	370
2.59033	418
2.59400	461
2.59767	498
2.60133	525
2.60500	545
2.60867	553
2.61233	550
2.61600	539
2.61967	522
2.62333	498
2.62700	472
2.63067	446
2.63433	422
2.63800	403
2.64167	386
2.64533	373
2.64900	365
2.65267	361
2.65633	363
2.66000	369
2.66367	376
2.66733	383
2.67100	391
2.67467	400
2.67833	412
2.68200	425
2.68567	439
2.68933	450
2.69300	463
2.69667	476
2.70033	490
2.70400	502
2.70767	510
2.71133	517
2.71500	527
2.71867	537
2.72233	546
2.72600	553
2.72967	561
2.73333	569
2.73700	575
2.74067	580
2.74433	581
2.74800	582
2.75167	585
2.75533	590
2.75900	596
2.76267	599
2.76633	599
2.77000	598
2.77367	598
2.77733	595
2.78100	591
2.78467	589
2.78833	587
2.79200	585
2.79567	582
2.79933	580
2.80300	577
2.80667	574
2.81033	569
2.81400	565
2.81767	563
2.82133	562
2.82500	563
2.82867	570
2.83233	592
2.83600	636
2.83967	727
2.84333	886
2.84700	1139
2.85067	1501
2.85433	1970
2.85800	2540
2.86167	3175
2.86533	3830
2.86900	4450
2.87267	4987
2.87633	5396
2.88000	5659
2.88367	5766
2.88733	5726
2.89100	5562
2.89467	5298
2.89833	4966
2.90200	4593
2.90567	4207
2.90933	3827
2.91300	3462
2.91667	3121
2.92033	2808
2.92400	2523
2.92767	2266
2.93133	2038
2.93500	1837
2.93867	1662
2.94233	1505
2.94600	1367
2.94967	1247
2.95333	1146
2.95700	1059
2.96067	984
2.96433	919
2.96800	861
2.97167	811
2.97533	768
2.97900	731
2.98267	701
2.98633	676
2.99000	652
2.99367	633
2.99733	617
3.00100	604
3.00467	591
3.00833	580
3.01200	570
3.01567	563
3.01933	557
3.02300	550
3.02667	544
3.03033	540
3.03400	534
3.03767	529
3.04133	526
3.04500	525
3.04867	525
3.05233	524
3.05600	522
3.05967	520
3.06333	518
3.06700	518
3.07067	517
3.07433	515
3.07800	515
3.08167	514
3.08533	513
3.08900	514
3.09267	514
3.09633	512
3.10000	509
3.10367	506
3.10733	504
3.11100	503
3.11467	500
3.11833	497
3.12200	497
3.12567	495
3.12933	493
3.13300	493
3.13667	494
3.14033	490
3.14400	487
3.14767	485
3.15133	484
3.15500	483
3.15867	483
3.16233	482
3.16600	480
3.16967	479
3.17333	477
3.17700	477
3.18067	476
3.18433	474
3.18800	472
3.19167	472
3.19533	473
3.19900	474
3.20267	472
3.20633	470
3.21000	469
3.21367	466
3.21733	462
3.22100	460
3.22467	462
3.22833	462
3.23200	459
3.23567	457
3.23933	455
3.24300	453
3.24667	451
3.25033	447
3.25400	444
3.25767	443
3.26133	442
3.26500	440
3.26867	437
3.27233	436
3.27600	435
3.27967	430
3.28333	424
3.28700	421
3.29067	420
3.29433	419
3.29800	420
3.30167	419
3.30533	417
3.30900	413
3.31267	409
3.31633	406
3.32000	402
3.32367	399
3.32733	393
3.33100	389
3.33467	386
3.33833	385
3.34200	384
3.34567	383
3.34933	385
3.35300	385
3.35667	381
3.36033	377
3.36400	373
3.36767	370
3.37133	366
3.37500	361
3.37867	357
3.38233	354
3.38600	352
3.38967	348
3.39333	347
3.39700	344
3.40067	340
3.40433	341
3.40800	341
3.41167	341
3.41533	341
3.41900	340
3.42267	337
3.42633	333
3.43000	331
3.43367	330
3.43733	328
3.44100	327
3.44467	325
3.44833	319
3.45200	315
3.45567	311
3.45933	306
3.46300	301
3.46667	301
3.47033	302
3.47400	300
3.47767	302
3.48133	299
3.48500	296
3.48867	296
3.49233	295
3.49600	294
3.49967	293
3.50333	292
3.50700	288
3.51067	284
3.51433	280
3.51800	278
3.52167	275
3.52533	273
3.52900	272
3.53267	270
3.53633	268
3.54000	267
3.54367	265
3.54733	266
3.55100	264
3.55467	263
3.55833	261
3.56200	259
3.56567	255
3.56933	252
3.57300	251
3.57667	252
3.58033	250
3.58400	247
3.58767	244
3.59133	243
3.59500	242
3.59867	240
3.60233	237
3.60600	237
3.60967	233
3.61333	230
3.61700	230
3.62067	229
3.62433	227
3.62800	226
3.63167	224
3.63533	225
3.63900	224
3.64267	222
3.64633	220
3.65000	217
3.65367	216
3.65733	215
3.66100	214
3.66467	213
3.66833	212
3.67200	211
3.67567	211
3.67933	211
3.68300	210
3.68667	210
3.69033	210
3.69400	208
3.69767	206
3.70133	202
3.70500	199
3.70867	195
3.71233	192
3.71600	193
3.71967	195
3.72333	195
3.72700	194
3.73067	193
3.73433	193
3.73800	192
3.74167	191
3.74533	192
3.74900	192
3.75267	192
3.75633	190
3.76000	189
3.76367	187
3.76733	184
3.77100	182
3.77467	183
3.77833	183
3.78200	181
3.78567	178
3.78933	177
3.79300	176
3.79667	173
3.80033	171
3.80400	171
3.80767	172
3.81133	172
3.81500	170
3.81867	167
3.82233	166
3.82600	165
3.82967	166
3.83333	166
3.83700	166
3.84067	164
3.84433	163
3.84800	162
3.85167	162
3.85533	162
3.85900	160
3.86267	158
3.86633	156
3.87000	155
3.87367	154
3.87733	153
3.88100	152
3.88467	152
3.88833	151
3.89200	149
3.89567	148
3.89933	148
3.90300	147
3.90667	146
3.91033	145
3.91400	145
3.91767	145
3.92133	145
3.92500	142
3.92867	140
3.93233	140
3.93600	138
3.93967	139
3.94333	138
3.94700	136
3.95067	136
3.95433	138
3.95800	137
3.96167	138
3.96533	139
3.96900	140
3.97267	139
3.97633	137
3.98000	137
3.98367	135
3.98733	135
3.99100	133
3.99467	130
3.99833	125

[Status Trace (Column Oven Temperature)]
Interval(msec)	1000
# of Points	240
Start Time(min)	0.008
End Time(min)	3.991
Intensity Units	
Intensity Multiplier	1
R.Time (min)	Intensity
0.00767	34.99
0.02433	34.99
0.04100	34.99
0.05767	34.99
0.07433	34.99
0.09100	35.00
0.10767	35.00
0.12433	34.99
0.14100	35.00
0.15767	35.02
0.17433	35.01
0.19100	35.01
0.20767	35.00
0.22433	34.99
0.24100	35.00
0.25767	35.00
0.27433	35.00
0.29100	35.00
0.30767	34.99
0.32433	35.00
0.34100	35.00
0.35767	35.00
0.37433	34.99
0.39100	34.99
0.40767	34.97
0.42433	34.96
0.44100	34.96
0.45767	34.96
0.47433	34.97
0.49100	34.98
0.50767	34.98
0.52433	34.98
0.54100	34.98
0.55767	34.99
0.57433	34.99
0.59100	35.00
0.60767	35.00
0.62433	35.01
0.64100	35.02
0.65767	35.02
0.67433	35.01
0.69100	35.01
0.70767	35.00
0.72433	35.01
0.74100	35.00
0.75767	35.00
0.77433	34.99
0.79100	34.98
0.80767	34.97
0.82433	34.97
0.84100	34.97
0.85767	34.97
0.87433	34.98
0.89100	34.98
0.90767	34.98
0.92433	34.99
0.94100	34.99
0.95767	35.00
0.97433	35.00
0.99100	35.02
1.00767	35.02
1.02433	35.02
1.04100	35.01
1.05767	35.01
1.07433	35.01
1.09100	35.00
1.10767	34.99
1.12433	34.99
1.14100	34.99
1.15767	34.99
1.17433	34.98
1.19100	34.98
1.20767	34.98
1.22433	34.98
1.24100	34.98
1.25767	34.97
1.27433	34.98
1.29100	34.97
1.30767	34.98
1.32433	34.99
1.34100	34.98
1.35767	34.98
1.37433	34.98
1.39100	34.97
1.40767	34.97
1.42433	34.97
1.44100	34.99
1.45767	35.00
1.47433	34.99
1.49100	35.00
1.50767	35.00
1.52433	35.00
1.54100	35.00
1.55767	35.00
1.57433	35.00
1.59100	35.00
1.60767	35.06
1.62433	35.18
1.64100	35.36
1.65767	35.61
1.67433	35.96
1.69100	36.33
1.70767	36.69
1.72433	37.02
1.74100	37.34
1.75767	37.68
1.77433	37.99
1.79100	38.34
1.80767	38.67
1.82433	39.00
1.84100	39.33
1.85767	39.66
1.87433	40.00
1.89100	40.32
1.90767	40.65
1.92433	40.97
1.94100	41.30
1.95767	41.63
1.97433	41.96
1.99100	42.28
2.00767	42.60
2.02433	42.93
2.04100	43.25
2.05767	43.58
2.07433	43.91
2.09100	44.24
2.10767	44.57
2.12433	44.90
2.14100	45.21
2.15767	45.55
2.17433	45.89
2.19100	46.20
2.20767	46.52
2.22433	46.85
2.24100	47.22
2.25767	47.52
2.27433	47.83
2.29100	48.17
2.30767	48.48
2.32433	48.84
2.34100	49.18
2.35767	49.43
2.37433	49.59
2.39100	49.64
2.40767	49.65
2.42433	49.65
2.44100	49.66
2.45767	49.67
2.47433	49.69
2.49100	49.70
2.50767	49.71
2.52433	49.73
2.54100	49.76
2.55767	49.78
2.57433	49.78
2.59100	49.82
2.60767	49.83
2.62433	49.83
2.64100	49.85
2.65767	49.85
2.67433	49.85
2.69100	49.87
2.70767	49.86
2.72433	49.86
2.74100	49.85
2.75767	49.86
2.77433	49.89
2.79100	49.92
2.80767	49.92
2.82433	49.93
2.84100	49.93
2.85767	49.93
2.87433	49.94
2.89100	49.94
2.90767	49.95
2.92433	49.95
2.94100	49.96
2.95767	49.97
2.97433	49.98
2.99100	49.98
3.00767	50.00
3.02433	50.01
3.04100	50.02
3.05767	50.04
3.07433	50.04
3.09100	50.05
3.10767	50.06
3.12433	50.07
3.14100	50.08
3.15767	50.09
3.17433	50.09
3.19100	50.10
3.20767	50.11
3.22433	50.11
3.24100	50.08
3.25767	50.06
3.27433	50.05
3.29100	50.05
3.30767	50.05
3.32433	50.04
3.34100	50.03
3.35767	50.04
3.37433	50.04
3.39100	50.04
3.40767	50.04
3.42433	50.04
3.44100	50.04
3.45767	50.04
3.47433	50.04
3.49100	50.05
3.50767	50.06
3.52433	50.05
3.54100	50.06
3.55767	50.06
3.57433	50.07
3.59100	50.08
3.60767	50.08
3.62433	50.08
3.64100	50.08
3.65767	50.08
3.67433	50.08
3.69100	50.07
3.70767	50.08
3.72433	50.08
3.74100	50.09
3.75767	50.10
3.77433	50.10
3.79100	50.08
3.80767	50.07
3.82433	50.06
3.84100	50.05
3.85767	50.04
3.87433	50.04
3.89100	50.04
3.90767	50.04
3.92433	50.04
3.94100	50.04
3.95767	50.04
3.97433	50.05
3.99100	50.05

[Status Trace (Injection Unit Temperature)]
Interval(msec)	1000
# of Points	240
Start Time(min)	0.008
End Time(min)	3.991
Intensity Units	
Intensity Multiplier	1
R.Time (min)	Intensity
0.00767	99.99
0.02433	99.99
0.04100	99.98
0.05767	99.98
0.07433	99.99
0.09100	99.98
0.10767	99.98
0.12433	99.98
0.14100	99.98
0.15767	99.99
0.17433	99.98
0.19100	99.98
0.20767	99.99
0.22433	99.99
0.24100	99.99
0.25767	99.98
0.27433	99.98
0.29100	99.99
0.30767	99.99
0.32433	99.99
0.34100	99.98
0.35767	99.98
0.37433	99.98
0.39100	99.98
0.40767	99.99
0.42433	99.98
0.44100	99.99
0.45767	99.98
0.47433	99.98
0.49100	99.98
0.50767	99.98
0.52433	99.98
0.54100	99.98
0.55767	99.98
0.57433	99.98
0.59100	99.99
0.60767	99.98
0.62433	99.98
0.64100	99.99
0.65767	99.98
0.67433	99.98
0.69100	99.98
0.70767	99.98
0.72433	99.98
0.74100	99.98
0.75767	99.98
0.77433	99.98
0.79100	99.98
0.80767	99.98
0.82433	99.98
0.84100	99.98
0.85767	99.98
0.87433	99.98
0.89100	99.98
0.90767	99.98
0.92433	99.98
0.94100	99.98
0.95767	99.99
0.97433	99.98
0.99100	99.98
1.00767	99.98
1.02433	99.98
1.04100	99.99
1.05767	99.99
1.07433	99.99
1.09100	99.99
1.10767	99.99
1.12433	99.99
1.14100	99.98
1.15767	99.99
1.17433	99.99
1.19100	99.99
1.20767	99.99
1.22433	99.99
1.24100	99.98
1.25767	99.99
1.27433	99.99
1.29100	99.99
1.30767	99.99
1.32433	99.99
1.34100	99.99
1.35767	99.98
1.37433	99.99
1.39100	99.99
1.40767	99.99
1.42433	99.99
1.44100	99.99
1.45767	99.99
1.47433	99.99
1.49100	99.98
1.50767	99.99
1.52433	99.99
1.54100	99.98
1.55767	99.98
1.57433	99.99
1.59100	99.99
1.60767	99.99
1.62433	99.99
1.64100	99.99
1.65767	99.99
1.67433	99.99
1.69100	99.99
1.70767	99.98
1.72433	99.99
1.74100	99.99
1.75767	99.98
1.77433	99.98
1.79100	99.99
1.80767	99.98
1.82433	99.98
1.84100	99.99
1.85767	99.98
1.87433	99.98
1.89100	99.98
1.90767	99.98
1.92433	99.97
1.94100	99.98
1.95767	99.98
1.97433	99.98
1.99100	99.98
2.00767	99.97
2.02433	99.98
2.04100	99.97
2.05767	99.98
2.07433	99.97
2.09100	99.98
2.10767	99.97
2.12433	99.97
2.14100	99.97
2.15767	99.97
2.17433	99.97
2.19100	99.97
2.20767	99.97
2.22433	99.97
2.24100	99.97
2.25767	99.97
2.27433	99.96
2.29100	99.97
2.30767	99.97
2.32433	99.96
2.34100	99.97
2.35767	99.97
2.37433	99.97
2.39100	99.97
2.40767	99.97
2.42433	99.97
2.44100	99.97
2.45767	99.97
2.47433	99.97
2.49100	99.97
2.50767	99.97
2.52433	99.97
2.54100	99.97
2.55767	99.98
2.57433	99.97
2.59100	99.98
2.60767	99.98
2.62433	99.98
2.64100	99.98
2.65767	99.98
2.67433	99.98
2.69100	99.98
2.70767	99.98
2.72433	99.98
2.74100	99.99
2.75767	99.99
2.77433	99.99
2.79100	99.99
2.80767	99.99
2.82433	99.99
2.84100	99.99
2.85767	100.00
2.87433	99.99
2.89100	100.00
2.90767	100.00
2.92433	100.00
2.94100	100.01
2.95767	100.01
2.97433	100.01
2.99100	100.01
3.00767	100.01
3.02433	100.02
3.04100	100.02
3.05767	100.02
3.07433	100.02
3.09100	100.02
3.10767	100.02
3.12433	100.03
3.14100	100.02
3.15767	100.03
3.17433	100.02
3.19100	100.03
3.20767	100.03
3.22433	100.03
3.24100	100.03
3.25767	100.03
3.27433	100.03
3.29100	100.03
3.30767	100.04
3.32433	100.03
3.34100	100.03
3.35767	100.04
3.37433	100.04
3.39100	100.04
3.40767	100.04
3.42433	100.04
3.44100	100.04
3.45767	100.04
3.47433	100.04
3.49100	100.04
3.50767	100.04
3.52433	100.04
3.54100	100.04
3.55767	100.04
3.57433	100.04
3.59100	100.04
3.60767	100.04
3.62433	100.04
3.64100	100.04
3.65767	100.05
3.67433	100.05
3.69100	100.05
3.70767	100.05
3.72433	100.05
3.74100	100.05
3.75767	100.05
3.77433	100.05
3.79100	100.05
3.80767	100.05
3.82433	100.05
3.84100	100.04
3.85767	100.05
3.87433	100.05
3.89100	100.04
3.90767	100.05
3.92433	100.05
3.94100	100.05
3.95767	100.05
3.97433	100.05
3.99100	100.05

[Status Trace (Carrier Gas Pressure)]
Interval(msec)	1000
# of Points	240
Start Time(min)	0.008
End Time(min)	3.991
Intensity Units	
Intensity Multiplier	1
R.Time (min)	Intensity
0.00767	58.00
0.02433	55.36
0.04100	57.00
0.05767	59.16
0.07433	59.51
0.09100	58.10
0.10767	57.98
0.12433	58.01
0.14100	58.01
0.15767	58.01
0.17433	58.00
0.19100	58.00
0.20767	58.00
0.22433	58.00
0.24100	58.00
0.25767	58.00
0.27433	58.00
0.29100	58.00
0.30767	58.00
0.32433	58.00
0.34100	58.00
0.35767	58.00
0.37433	58.00
0.39100	58.00
0.40767	58.00
0.42433	58.00
0.44100	58.00
0.45767	58.00
0.47433	58.00
0.49100	58.00
0.50767	58.00
0.52433	58.00
0.54100	58.00
0.55767	58.00
0.57433	58.00
0.59100	58.00
0.60767	58.00
0.62433	58.00
0.64100	58.00
0.65767	58.00
0.67433	58.00
0.69100	58.00
0.70767	58.00
0.72433	58.00
0.74100	58.00
0.75767	58.00
0.77433	58.00
0.79100	58.00
0.80767	58.00
0.82433	58.00
0.84100	58.00
0.85767	58.00
0.87433	58.00
0.89100	58.00
0.90767	58.00
0.92433	58.00
0.94100	58.00
0.95767	58.00
0.97433	58.00
0.99100	58.00
1.00767	58.00
1.02433	58.00
1.04100	58.00
1.05767	58.00
1.07433	58.00
1.09100	58.00
1.10767	58.00
1.12433	58.00
1.14100	58.00
1.15767	58.00
1.17433	58.00
1.19100	58.00
1.20767	58.00
1.22433	58.00
1.24100	58.00
1.25767	58.00
1.27433	58.00
1.29100	58.00
1.30767	58.00
1.32433	58.00
1.34100	58.00
1.35767	58.00
1.37433	58.00
1.39100	58.00
1.40767	58.00
1.42433	58.00
1.44100	58.00
1.45767	58.00
1.47433	58.00
1.49100	58.00
1.50767	58.00
1.52433	58.00
1.54100	58.00
1.55767	58.00
1.57433	58.00
1.59100	58.00
1.60767	58.00
1.62433	58.00
1.64100	58.00
1.65767	58.01
1.67433	58.01
1.69100	58.00
1.70767	58.00
1.72433	58.00
1.74100	58.00
1.75767	58.00
1.77433	58.00
1.79100	58.00
1.80767	58.00
1.82433	58.00
1.84100	58.00
1.85767	58.00
1.87433	58.00
1.89100	58.00
1.90767	58.00
1.92433	58.00
1.94100	58.00
1.95767	58.00
1.97433	58.00
1.99100	58.00
2.00767	58.00
2.02433	58.00
2.04100	58.00
2.05767	58.00
2.07433	58.00
2.09100	58.00
2.10767	58.00
2.12433	58.00
2.14100	58.00
2.15767	58.00
2.17433	58.00
2.19100	58.00
2.20767	58.00
2.22433	58.00
2.24100	58.00
2.25767	58.00
2.27433	58.00
2.29100	58.00
2.30767	58.00
2.32433	58.00
2.34100	58.00
2.35767	58.00
2.37433	58.00
2.39100	57.99
2.40767	57.99
2.42433	58.00
2.44100	58.00
2.45767	58.00
2.47433	58.00
2.49100	58.00
2.50767	58.00
2.52433	57.98
2.54100	58.00
2.55767	58.00
2.57433	58.00
2.59100	58.00
2.60767	58.00
2.62433	58.00
2.64100	58.00
2.65767	58.00
2.67433	58.00
2.69100	58.00
2.70767	58.00
2.72433	58.00
2.74100	58.00
2.75767	58.00
2.77433	58.00
2.79100	58.00
2.80767	58.00
2.82433	58.00
2.84100	58.00
2.85767	58.00
2.87433	58.00
2.89100	58.00
2.90767	58.00
2.92433	58.00
2.94100	58.00
2.95767	58.00
2.97433	58.00
2.99100	58.00
3.00767	58.00
3.02433	58.00
3.04100	58.00
3.05767	58.00
3.07433	58.00
3.09100	58.00
3.10767	58.00
3.12433	58.00
3.14100	58.00
3.15767	58.00
3.17433	58.00
3.19100	58.00
3.20767	58.00
3.22433	58.00
3.24100	58.00
3.25767	58.00
3.27433	58.00
3.29100	58.00
3.30767	58.00
3.32433	58.00
3.34100	58.00
3.35767	58.00
3.37433	58.00
3.39100	58.00
3.40767	58.00
3.42433	58.00
3.44100	58.00
3.45767	58.00
3.47433	58.00
3.49100	58.00
3.50767	58.00
3.52433	58.00
3.54100	58.00
3.55767	58.00
3.57433	58.00
3.59100	58.00
3.60767	58.00
3.62433	58.00
3.64100	58.00
3.65767	58.00
3.67433	58.00
3.69100	58.00
3.70767	58.00
3.72433	58.00
3.74100	58.00
3.75767	58.00
3.77433	58.00
3.79100	58.00
3.80767	58.00
3.82433	58.00
3.84100	58.00
3.85767	58.00
3.87433	58.00
3.89100	58.00
3.90767	58.00
3.92433	58.00
3.94100	58.00
3.95767	58.00
3.97433	58.00
3.99100	58.00

[Status Trace (Carrier Gas Flow)]
Interval(msec)	1000
# of Points	240
Start Time(min)	0.008
End Time(min)	3.991
Intensity Units	
Intensity Multiplier	1
R.Time (min)	Intensity
0.00767	34.52
0.02433	34.54
0.04100	34.54
0.05767	34.54
0.07433	34.50
0.09100	34.52
0.10767	34.52
0.12433	34.53
0.14100	34.52
0.15767	34.52
0.17433	34.52
0.19100	34.51
0.20767	34.52
0.22433	34.51
0.24100	34.52
0.25767	34.52
0.27433	34.52
0.29100	34.52
0.30767	34.52
0.32433	34.52
0.34100	34.52
0.35767	34.52
0.37433	34.52
0.39100	34.52
0.40767	34.52
0.42433	34.52
0.44100	34.52
0.45767	34.52
0.47433	34.52
0.49100	34.52
0.50767	34.52
0.52433	34.52
0.54100	34.52
0.55767	34.52
0.57433	34.52
0.59100	34.52
0.60767	34.52
0.62433	34.52
0.64100	34.52
0.65767	34.52
0.67433	34.52
0.69100	34.52
0.70767	34.52
0.72433	34.52
0.74100	34.52
0.75767	34.52
0.77433	34.52
0.79100	34.52
0.80767	34.52
0.82433	34.52
0.84100	34.52
0.85767	34.52
0.87433	34.52
0.89100	34.52
0.90767	34.52
0.92433	34.52
0.94100	34.52
0.95767	34.52
0.97433	34.52
0.99100	34.52
1.00767	34.52
1.02433	34.52
1.04100	34.52
1.05767	34.52
1.07433	34.52
1.09100	34.52
1.10767	34.52
1.12433	34.52
1.14100	34.52
1.15767	34.52
1.17433	34.52
1.19100	34.52
1.20767	34.52
1.22433	34.52
1.24100	34.52
1.25767	34.52
1.27433	34.52
1.29100	34.52
1.30767	34.52
1.32433	34.52
1.34100	34.52
1.35767	34.52
1.37433	34.52
1.39100	34.52
1.40767	34.52
1.42433	34.52
1.44100	34.52
1.45767	34.52
1.47433	34.52
1.49100	34.52
1.50767	34.52
1.52433	34.52
1.54100	34.52
1.55767	34.52
1.57433	34.52
1.59100	34.52
1.60767	34.52
1.62433	34.52
1.64100	34.52
1.65767	34.52
1.67433	34.52
1.69100	34.52
1.70767	34.52
1.72433	34.52
1.74100	34.52
1.75767	34.52
1.77433	34.52
1.79100	34.52
1.80767	34.52
1.82433	34.52
1.84100	34.52
1.85767	34.52
1.87433	34.52
1.89100	34.52
1.90767	34.52
1.92433	34.52
1.94100	34.52
1.95767	34.52
1.97433	34.52
1.99100	34.52
2.00767	34.52
2.02433	34.52
2.04100	34.52
2.05767	34.52
2.07433	34.52
2.09100	34.52
2.10767	34.52
2.12433	34.52
2.14100	34.52
2.15767	34.52
2.17433	34.52
2.19100	34.52
2.20767	34.52
2.22433	34.52
2.24100	34.52
2.25767	34.52
2.27433	34.52
2.29100	34.52
2.30767	34.52
2.32433	34.52
2.34100	34.52
2.35767	34.51
2.37433	34.53
2.39100	34.50
2.40767	34.52
2.42433	34.52
2.44100	34.52
2.45767	34.52
2.47433	34.52
2.49100	34.52
2.50767	34.38
2.52433	34.52
2.54100	34.52
2.55767	34.52
2.57433	34.52
2.59100	34.52
2.60767	34.52
2.62433	34.52
2.64100	34.52
2.65767	34.52
2.67433	34.52
2.69100	34.51
2.70767	34.52
2.72433	34.52
2.74100	34.52
2.75767	34.52
2.77433	34.52
2.79100	34.52
2.80767	34.52
2.82433	34.52
2.84100	34.52
2.85767	34.52
2.87433	34.52
2.89100	34.52
2.90767	34.52
2.92433	34.52
2.94100	34.52
2.95767	34.52
2.97433	34.52
2.99100	34.52
3.00767	34.52
3.02433	34.52
3.04100	34.52
3.05767	34.52
3.07433	34.52
3.09100	34.53
3.10767	34.52
3.12433	34.52
3.14100	34.52
3.15767	34.52
3.17433	34.52
3.19100	34.52
3.20767	34.52
3.22433	34.52
3.24100	34.52
3.25767	34.52
3.27433	34.52
3.29100	34.52
3.30767	34.52
3.32433	34.52
3.34100	34.53
3.35767	34.52
3.37433	34.52
3.39100	34.52
3.40767	34.52
3.42433	34.52
3.44100	34.52
3.45767	34.52
3.47433	34.52
3.49100	34.52
3.50767	34.52
3.52433	34.52
3.54100	34.52
3.55767	34.52
3.57433	34.52
3.59100	34.52
3.60767	34.52
3.62433	34.52
3.64100	34.52
3.65767	34.52
3.67433	34.52
3.69100	34.52
3.70767	34.52
3.72433	34.52
3.74100	34.52
3.75767	34.52
3.77433	34.52
3.79100	34.52
3.80767	34.52
3.82433	34.52
3.84100	34.52
3.85767	34.52
3.87433	34.52
3.89100	34.52
3.90767	34.52
3.92433	34.52
3.94100	34.52
3.95767	34.52
3.97433	34.52
3.99100	34.52

[Status Trace (Column Flow)]
Interval(msec)	1000
# of Points	240
Start Time(min)	0.008
End Time(min)	3.991
Intensity Units	
Intensity Multiplier	1
R.Time (min)	Intensity
0.00767	5.53
0.02433	5.22
0.04100	5.41
0.05767	5.66
0.07433	5.71
0.09100	5.54
0.10767	5.53
0.12433	5.53
0.14100	5.53
0.15767	5.53
0.17433	5.53
0.19100	5.53
0.20767	5.53
0.22433	5.53
0.24100	5.53
0.25767	5.53
0.27433	5.53
0.29100	5.53
0.30767	5.53
0.32433	5.53
0.34100	5.53
0.35767	5.53
0.37433	5.53
0.39100	5.53
0.40767	5.53
0.42433	5.53
0.44100	5.53
0.45767	5.53
0.47433	5.53
0.49100	5.53
0.50767	5.53
0.52433	5.53
0.54100	5.53
0.55767	5.53
0.57433	5.53
0.59100	5.53
0.60767	5.53
0.62433	5.53
0.64100	5.53
0.65767	5.53
0.67433	5.53
0.69100	5.53
0.70767	5.53
0.72433	5.53
0.74100	5.53
0.75767	5.53
0.77433	5.53
0.79100	5.53
0.80767	5.53
0.82433	5.53
0.84100	5.53
0.85767	5.53
0.87433	5.53
0.89100	5.53
0.90767	5.53
0.92433	5.53
0.94100	5.53
0.95767	5.53
0.97433	5.53
0.99100	5.53
1.00767	5.53
1.02433	5.53
1.04100	5.53
1.05767	5.53
1.07433	5.53
1.09100	5.53
1.10767	5.53
1.12433	5.53
1.14100	5.53
1.15767	5.53
1.17433	5.53
1.19100	5.53
1.20767	5.53
1.22433	5.53
1.24100	5.53
1.25767	5.53
1.27433	5.53
1.29100	5.53
1.30767	5.53
1.32433	5.53
1.34100	5.53
1.35767	5.53
1.37433	5.53
1.39100	5.53
1.40767	5.53
1.42433	5.53
1.44100	5.53
1.45767	5.53
1.47433	5.53
1.49100	5.53
1.50767	5.53
1.52433	5.53
1.54100	5.53
1.55767	5.53
1.57433	5.53
1.59100	5.53
1.60767	5.53
1.62433	5.52
1.64100	5.52
1.65767	5.51
1.67433	5.50
1.69100	5.49
1.70767	5.48
1.72433	5.47
1.74100	5.46
1.75767	5.45
1.77433	5.44
1.79100	5.43
1.80767	5.41
1.82433	5.40
1.84100	5.40
1.85767	5.38
1.87433	5.37
1.89100	5.37
1.90767	5.35
1.92433	5.34
1.94100	5.34
1.95767	5.33
1.97433	5.32
1.99100	5.31
2.00767	5.30
2.02433	5.29
2.04100	5.28
2.05767	5.27
2.07433	5.26
2.09100	5.25
2.10767	5.24
2.12433	5.23
2.14100	5.22
2.15767	5.21
2.17433	5.20
2.19100	5.19
2.20767	5.18
2.22433	5.17
2.24100	5.16
2.25767	5.15
2.27433	5.15
2.29100	5.14
2.30767	5.13
2.32433	5.12
2.34100	5.11
2.35767	5.10
2.37433	5.10
2.39100	5.09
2.40767	5.09
2.42433	5.09
2.44100	5.09
2.45767	5.09
2.47433	5.09
2.49100	5.09
2.50767	5.09
2.52433	5.09
2.54100	5.09
2.55767	5.09
2.57433	5.09
2.59100	5.09
2.60767	5.09
2.62433	5.09
2.64100	5.09
2.65767	5.09
2.67433	5.09
2.69100	5.09
2.70767	5.09
2.72433	5.09
2.74100	5.09
2.75767	5.09
2.77433	5.09
2.79100	5.09
2.80767	5.09
2.82433	5.09
2.84100	5.09
2.85767	5.09
2.87433	5.09
2.89100	5.09
2.90767	5.09
2.92433	5.09
2.94100	5.09
2.95767	5.09
2.97433	5.09
2.99100	5.09
3.00767	5.08
3.02433	5.08
3.04100	5.08
3.05767	5.08
3.07433	5.08
3.09100	5.08
3.10767	5.08
3.12433	5.08
3.14100	5.08
3.15767	5.08
3.17433	5.08
3.19100	5.08
3.20767	5.08
3.22433	5.08
3.24100	5.08
3.25767	5.08
3.27433	5.08
3.29100	5.08
3.30767	5.08
3.32433	5.08
3.34100	5.08
3.35767	5.08
3.37433	5.08
3.39100	5.08
3.40767	5.08
3.42433	5.08
3.44100	5.08
3.45767	5.08
3.47433	5.08
3.49100	5.08
3.50767	5.08
3.52433	5.08
3.54100	5.08
3.55767	5.08
3.57433	5.08
3.59100	5.08
3.60767	5.08
3.62433	5.08
3.64100	5.08
3.65767	5.08
3.67433	5.08
3.69100	5.08
3.70767	5.08
3.72433	5.08
3.74100	5.08
3.75767	5.08
3.77433	5.08
3.79100	5.08
3.80767	5.08
3.82433	5.08
3.84100	5.08
3.85767	5.08
3.87433	5.08
3.89100	5.08
3.90767	5.08
3.92433	5.08
3.94100	5.08
3.95767	5.08
3.97433	5.08
3.99100	5.08

[Status Trace (Linear Velocity)]
Interval(msec)	1000
# of Points	240
Start Time(min)	0.008
End Time(min)	3.991
Intensity Units	
Intensity Multiplier	1
R.Time (min)	Intensity
0.00767	39.02
0.02433	37.29
0.04100	38.36
0.05767	39.78
0.07433	40.00
0.09100	39.09
0.10767	39.00
0.12433	39.03
0.14100	39.03
0.15767	39.02
0.17433	39.02
0.19100	39.02
0.20767	39.02
0.22433	39.02
0.24100	39.02
0.25767	39.02
0.27433	39.02
0.29100	39.02
0.30767	39.02
0.32433	39.02
0.34100	39.02
0.35767	39.02
0.37433	39.02
0.39100	39.02
0.40767	39.02
0.42433	39.02
0.44100	39.02
0.45767	39.02
0.47433	39.02
0.49100	39.02
0.50767	39.02
0.52433	39.02
0.54100	39.02
0.55767	39.02
0.57433	39.02
0.59100	39.02
0.60767	39.02
0.62433	39.02
0.64100	39.02
0.65767	39.02
0.67433	39.02
0.69100	39.02
0.70767	39.02
0.72433	39.02
0.74100	39.02
0.75767	39.02
0.77433	39.02
0.79100	39.02
0.80767	39.02
0.82433	39.02
0.84100	39.02
0.85767	39.02
0.87433	39.02
0.89100	39.02
0.90767	39.02
0.92433	39.02
0.94100	39.02
0.95767	39.02
0.97433	39.02
0.99100	39.02
1.00767	39.02
1.02433	39.02
1.04100	39.02
1.05767	39.02
1.07433	39.02
1.09100	39.02
1.10767	39.02
1.12433	39.02
1.14100	39.02
1.15767	39.02
1.17433	39.02
1.19100	39.02
1.20767	39.02
1.22433	39.02
1.24100	39.02
1.25767	39.02
1.27433	39.02
1.29100	39.02
1.30767	39.02
1.32433	39.02
1.34100	39.02
1.35767	39.02
1.37433	39.02
1.39100	39.02
1.40767	39.02
1.42433	39.02
1.44100	39.02
1.45767	39.02
1.47433	39.02
1.49100	39.02
1.50767	39.02
1.52433	39.02
1.54100	39.02
1.55767	39.02
1.57433	39.02
1.59100	39.02
1.60767	39.01
1.62433	39.00
1.64100	38.99
1.65767	38.96
1.67433	38.93
1.69100	38.90
1.70767	38.86
1.72433	38.82
1.74100	38.80
1.75767	38.76
1.77433	38.73
1.79100	38.70
1.80767	38.67
1.82433	38.64
1.84100	38.61
1.85767	38.58
1.87433	38.54
1.89100	38.52
1.90767	38.48
1.92433	38.45
1.94100	38.43
1.95767	38.39
1.97433	38.36
1.99100	38.33
2.00767	38.30
2.02433	38.27
2.04100	38.24
2.05767	38.21
2.07433	38.18
2.09100	38.16
2.10767	38.12
2.12433	38.09
2.14100	38.07
2.15767	38.03
2.17433	38.00
2.19100	37.98
2.20767	37.94
2.22433	37.92
2.24100	37.89
2.25767	37.85
2.27433	37.83
2.29100	37.80
2.30767	37.77
2.32433	37.74
2.34100	37.71
2.35767	37.68
2.37433	37.67
2.39100	37.66
2.40767	37.66
2.42433	37.66
2.44100	37.66
2.45767	37.66
2.47433	37.66
2.49100	37.66
2.50767	37.66
2.52433	37.65
2.54100	37.65
2.55767	37.65
2.57433	37.65
2.59100	37.65
2.60767	37.65
2.62433	37.65
2.64100	37.65
2.65767	37.65
2.67433	37.65
2.69100	37.65
2.70767	37.65
2.72433	37.65
2.74100	37.65
2.75767	37.65
2.77433	37.64
2.79100	37.64
2.80767	37.64
2.82433	37.64
2.84100	37.64
2.85767	37.64
2.87433	37.64
2.89100	37.64
2.90767	37.64
2.92433	37.64
2.94100	37.64
2.95767	37.64
2.97433	37.64
2.99100	37.64
3.00767	37.63
3.02433	37.63
3.04100	37.63
3.05767	37.63
3.07433	37.63
3.09100	37.63
3.10767	37.63
3.12433	37.63
3.14100	37.63
3.15767	37.63
3.17433	37.63
3.19100	37.63
3.20767	37.63
3.22433	37.62
3.24100	37.63
3.25767	37.63
3.27433	37.63
3.29100	37.63
3.30767	37.63
3.32433	37.63
3.34100	37.63
3.35767	37.63
3.37433	37.63
3.39100	37.63
3.40767	37.63
3.42433	37.63
3.44100	37.63
3.45767	37.63
3.47433	37.63
3.49100	37.63
3.50767	37.63
3.52433	37.63
3.54100	37.63
3.55767	37.63
3.57433	37.63
3.59100	37.63
3.60767	37.63
3.62433	37.63
3.64100	37.63
3.65767	37.63
3.67433	37.63
3.69100	37.63
3.70767	37.63
3.72433	37.63
3.74100	37.63
3.75767	37.62
3.77433	37.63
3.79100	37.63
3.80767	37.63
3.82433	37.63
3.84100	37.63
3.85767	37.63
3.87433	37.63
3.89100	37.63
3.90767	37.63
3.92433	37.63
3.94100	37.63
3.95767	37.63
3.97433	37.63
3.99100	37.63

