[Header]
Application Name	LabSolutions
Version	5.110
Data File Name	C:\Users\User\Desktop\GC Analyses\Jack\UIC Prairie Sampling\9.16.22\220916_122.gcd
Output Date	11/29/2022
Output Time	11:10:23 AM

[File Information]
Type	Data File
Generated	11/28/2022 4:11:49 PM
Generated by	System Administrator
Modified	11/28/2022 4:16:17 PM
Modified by	System Administrator

[Sample Information]
Operator Name	System Administrator
Acquired	11/28/2022 4:12:16 PM
Sample Type	1:Standard
Level	1
Sample Name	220916_UICPrairie
Sample ID	220916_UICPrairie
ISTD Amount1	1
ISTD Amount2	1
ISTD Amount3	1
ISTD Amount4	1
ISTD Amount5	1
ISTD Amount6	1
ISTD Amount7	1
ISTD Amount8	1
ISTD Amount9	1
ISTD Amount10	1
ISTD Amount11	1
ISTD Amount12	1
ISTD Amount13	1
ISTD Amount14	1
ISTD Amount15	1
ISTD Amount16	1
ISTD Amount17	1
ISTD Amount18	1
ISTD Amount19	1
ISTD Amount20	1
ISTD Amount21	1
ISTD Amount22	1
ISTD Amount23	1
ISTD Amount24	1
ISTD Amount25	1
ISTD Amount26	1
ISTD Amount27	1
ISTD Amount28	1
ISTD Amount29	1
ISTD Amount30	1
ISTD Amount31	1
ISTD Amount32	1
Sample Amount	1
Dilution Factor	1
Vial#	1
Injection Volume	1
Injection Count	1
Bar Code	

[Original Files]
Data File	C:\Users\User\Desktop\GC Analyses\Jack\UIC Prairie Sampling\9.16.22\220916_122.gcd
Method File	C:\LabSolutions\Data\GHG_4min_2022\ghg3_togas_w_acet_4 min_new_int.gcm
Batch File	
Report Format File	c:\LabSolutions\System\DEFAULT.lsr

[File Description]


[Configuration]
Instrument Name	C0B7VH3-Instrument1
Instrument #	1
Line #	1
# of Detectors	3
Detector ID	DET#1	DET#2	DET#3
Detector Name	FID	PTCD	ECD
# of Channels	1	1	1

[Peak Table(Ch1)]
# of Peaks	3
Peak#	R.Time	I.Time	F.Time	Area	Height	A/H	Conc.	Mark	ID#	Name	k'	Plate #	Plate Ht.	Tailing	Resolution	Sep.Factor	Area Ratio	Height Ratio	Conc. %	Norm Conc.
1	1.479	1.424	1.542	14804	6672	2.219	100.000	   	1	CO	0.000	8629	17.383	1.232	0.000	0.000	0	0	16.667	16.667
2	1.571	1.542	1.626	4820	2423	1.989	100.000	 V 	2	CH4	0.062	11067	13.554	0.000	1.485	0.000	0	0	16.667	16.667
3	2.000	1.952	2.425	1292189	619782	2.085	400.000	   	3	CO2	0.352	17514	8.565	1.287	7.139	5.680	0	0	66.667	66.667

[Peak Table(Ch2)]
# of Peaks	0

[Peak Table(Ch3)]
# of Peaks	6
Peak#	R.Time	I.Time	F.Time	Area	Height	A/H	Conc.	Mark	ID#	Name	k'	Plate #	Plate Ht.	Tailing	Resolution	Sep.Factor	Area Ratio	Height Ratio	Conc. %	Norm Conc.
1	0.724	0.222	1.153	509	19	26.899	0.000	   			0.000	1066	140.715	0.946	0.000	0.000	0	0	0.000	0.000
2	2.458	2.356	2.506	796	223	3.571	0.000	   			2.395	12697	11.814	0.000	19.712	0.000	0	0	0.000	0.000
3	2.528	2.506	2.554	179	81	2.222	0.000	 V 			2.492	15432	9.720	0.000	0.826	1.040	0	0	0.000	0.000
4	2.616	2.557	2.656	2160	551	3.918	0.000	   			2.613	4397	34.112	0.000	0.736	1.049	0	0	0.000	0.000
5	2.755	2.656	2.829	4872	516	9.445	0.140	 V 	1	N2O	2.806	225	665.296	0.000	0.312	1.074	0	0	14.027	14.027
6	2.887	2.829	3.866	29859	5292	5.642	0.860	 V 	1	N2O	2.988	11879	12.627	0.000	0.314	1.065	0	0	85.973	85.973

[Compound Results(Ch1)]
# of IDs	6
ID#	Name	R.Time	Area	Height	Conc.	Curve	3rd	2nd	1st	Constant	Area Ratio	Height Ratio	Conc. %	Norm Conc.
1	CO	1.479	14804	6672	100.000	Linear	0.000000e+00	0.000000e+00	1.480399e+002	0.000000e+00	0	0	16.667	16.667
2	CH4	1.571	4820	2423	100.000	Linear	0.000000e+00	0.000000e+00	4.819854e+001	0.000000e+00	0	0	16.667	16.667
3	CO2	2.000	1292189	619782	400.000	Linear	0.000000e+00	0.000000e+00	3.230473e+003	0.000000e+00	0	0	66.667	66.667
4	Ethylene	0.000	0	0	0.000	Linear	0.000000e+00	0.000000e+00	0.000000e+00	0.000000e+00	0	0	0.000	0.000
5	Acetylene	0.000	0	0	0.000	Linear	0.000000e+00	0.000000e+00	0.000000e+00	0.000000e+00	0	0	0.000	0.000
6	Ethane	0.000	0	0	0.000	Linear	0.000000e+00	0.000000e+00	0.000000e+00	0.000000e+00	0	0	0.000	0.000

[Compound Results(Ch2)]
# of IDs	5
ID#	Name	R.Time	Area	Height	Conc.	Curve	3rd	2nd	1st	Constant	Area Ratio	Height Ratio	Conc. %	Norm Conc.
1	Hydrogen	0.000	0	0	0.000	Linear	0.000000e+00	0.000000e+00	0.000000e+00	0.000000e+00	0	0	0.000	0.000
2	Oxygen	0.000	0	0	0.000	Linear	0.000000e+00	0.000000e+00	0.000000e+00	0.000000e+00	0	0	0.000	0.000
3	Nitrogen	0.000	0	0	0.000	Linear	0.000000e+00	0.000000e+00	0.000000e+00	0.000000e+00	0	0	0.000	0.000
4	Methane	0.000	0	0	0.000	Linear	0.000000e+00	0.000000e+00	0.000000e+00	0.000000e+00	0	0	0.000	0.000
5	Carbon Monoxide	0.000	0	0	0.000	Linear	0.000000e+00	0.000000e+00	0.000000e+00	0.000000e+00	0	0	0.000	0.000

[Compound Results(Ch3)]
# of IDs	2
ID#	Name	R.Time	Area	Height	Conc.	Curve	3rd	2nd	1st	Constant	Area Ratio	Height Ratio	Conc. %	Norm Conc.
1	N2O	2.887	34731	5808	1.000	Linear	0.000000e+00	0.000000e+00	3.473061e+004	0.000000e+00	0	0	100.000	100.000
2	SF6	0.000	0	0	0.000	Linear	0.000000e+00	0.000000e+00	0.000000e+00	0.000000e+00	0	0	0.000	0.000

[Group Results(Ch1)]
# of Groups	0

[Group Results(Ch2)]
# of Groups	0

[Group Results(Ch3)]
# of Groups	0

[Chromatogram (Ch1)]
Interval(msec)	220
# of Points	1091
Start Time(min)	0.002
End Time(min)	3.998
R.Time (min)	Intensity
0.00167	7
0.00533	12
0.00900	19
0.01267	23
0.01633	23
0.02000	19
0.02367	16
0.02733	13
0.03100	10
0.03467	7
0.03833	2
0.04200	-0
0.04567	1
0.04933	4
0.05300	10
0.05667	18
0.06033	24
0.06400	26
0.06767	24
0.07133	21
0.07500	17
0.07867	15
0.08233	13
0.08600	11
0.08967	4
0.09333	-5
0.09700	-7
0.10067	-5
0.10433	-3
0.10800	-1
0.11167	1
0.11533	4
0.11900	7
0.12267	7
0.12633	3
0.13000	-1
0.13367	0
0.13733	4
0.14100	3
0.14467	-2
0.14833	-8
0.15200	-12
0.15567	-14
0.15933	-12
0.16300	-8
0.16667	-6
0.17033	-6
0.17400	-8
0.17767	-11
0.18133	-13
0.18500	-12
0.18867	-9
0.19233	-6
0.19600	-6
0.19967	-5
0.20333	-3
0.20700	-1
0.21067	-2
0.21433	-3
0.21800	-4
0.22167	-5
0.22533	-6
0.22900	-8
0.23267	-6
0.23633	2
0.24000	8
0.24367	10
0.24733	9
0.25100	5
0.25467	5
0.25833	9
0.26200	14
0.26567	18
0.26933	20
0.27300	19
0.27667	18
0.28033	18
0.28400	17
0.28767	11
0.29133	4
0.29500	-5
0.29867	-11
0.30233	-13
0.30600	-9
0.30967	-6
0.31333	-10
0.31700	-16
0.32067	-19
0.32433	-19
0.32800	-19
0.33167	-18
0.33533	-17
0.33900	-18
0.34267	-17
0.34633	-11
0.35000	-7
0.35367	-6
0.35733	-8
0.36100	-11
0.36467	-13
0.36833	-14
0.37200	-12
0.37567	-8
0.37933	-7
0.38300	-10
0.38667	-15
0.39033	-16
0.39400	-15
0.39767	-10
0.40133	-2
0.40500	4
0.40867	7
0.41233	9
0.41600	9
0.41967	7
0.42333	3
0.42700	-5
0.43067	-13
0.43433	-18
0.43800	-16
0.44167	-8
0.44533	-1
0.44900	1
0.45267	-2
0.45633	-7
0.46000	-12
0.46367	-16
0.46733	-16
0.47100	-14
0.47467	-15
0.47833	-21
0.48200	-26
0.48567	-26
0.48933	-24
0.49300	-23
0.49667	-23
0.50033	-24
0.50400	-24
0.50767	-24
0.51133	-24
0.51500	-23
0.51867	-22
0.52233	-21
0.52600	-21
0.52967	-23
0.53333	-26
0.53700	-26
0.54067	-21
0.54433	-14
0.54800	-9
0.55167	-5
0.55533	-3
0.55900	-3
0.56267	-2
0.56633	-1
0.57000	-2
0.57367	-2
0.57733	-2
0.58100	-4
0.58467	-6
0.58833	-10
0.59200	-16
0.59567	-24
0.59933	-29
0.60300	-31
0.60667	-31
0.61033	-29
0.61400	-27
0.61767	-23
0.62133	-17
0.62500	-14
0.62867	-13
0.63233	-13
0.63600	-17
0.63967	-22
0.64333	-25
0.64700	-27
0.65067	-27
0.65433	-26
0.65800	-20
0.66167	-12
0.66533	-7
0.66900	-8
0.67267	-12
0.67633	-14
0.68000	-15
0.68367	-15
0.68733	-16
0.69100	-18
0.69467	-18
0.69833	-18
0.70200	-18
0.70567	-19
0.70933	-19
0.71300	-17
0.71667	-13
0.72033	-11
0.72400	-13
0.72767	-18
0.73133	-21
0.73500	-23
0.73867	-24
0.74233	-24
0.74600	-25
0.74967	-24
0.75333	-22
0.75700	-19
0.76067	-15
0.76433	-12
0.76800	-10
0.77167	-10
0.77533	-13
0.77900	-15
0.78267	-17
0.78633	-20
0.79000	-23
0.79367	-21
0.79733	-19
0.80100	-22
0.80467	-27
0.80833	-31
0.81200	-34
0.81567	-39
0.81933	-42
0.82300	-40
0.82667	-34
0.83033	-29
0.83400	-25
0.83767	-21
0.84133	-19
0.84500	-22
0.84867	-27
0.85233	-34
0.85600	-34
0.85967	-29
0.86333	-24
0.86700	-20
0.87067	-19
0.87433	-19
0.87800	-20
0.88167	-20
0.88533	-20
0.88900	-21
0.89267	-24
0.89633	-26
0.90000	-30
0.90367	-35
0.90733	-41
0.91100	-45
0.91467	-46
0.91833	-44
0.92200	-39
0.92567	-33
0.92933	-27
0.93300	-23
0.93667	-21
0.94033	-16
0.94400	-10
0.94767	-4
0.95133	-3
0.95500	-6
0.95867	-10
0.96233	-19
0.96600	-27
0.96967	-31
0.97333	-35
0.97700	-37
0.98067	-38
0.98433	-39
0.98800	-41
0.99167	-43
0.99533	-45
0.99900	-44
1.00267	-41
1.00633	-39
1.01000	-38
1.01367	-36
1.01733	-34
1.02100	-32
1.02467	-29
1.02833	-26
1.03200	-25
1.03567	-25
1.03933	-28
1.04300	-33
1.04667	-35
1.05033	-34
1.05400	-31
1.05767	-31
1.06133	-35
1.06500	-39
1.06867	-42
1.07233	-43
1.07600	-43
1.07967	-42
1.08333	-44
1.08700	-48
1.09067	-52
1.09433	-53
1.09800	-53
1.10167	-55
1.10533	-57
1.10900	-61
1.11267	-63
1.11633	-60
1.12000	-52
1.12367	-40
1.12733	-32
1.13100	-31
1.13467	-36
1.13833	-43
1.14200	-48
1.14567	-53
1.14933	-55
1.15300	-53
1.15667	-63
1.16033	-62
1.16400	-56
1.16767	-52
1.17133	-56
1.17500	-64
1.17867	-68
1.18233	-70
1.18600	-69
1.18967	-69
1.19333	-66
1.19700	-62
1.20067	-60
1.20433	-58
1.20800	-57
1.21167	-56
1.21533	-55
1.21900	-53
1.22267	-48
1.22633	-45
1.23000	-43
1.23367	-37
1.23733	-28
1.24100	-22
1.24467	-21
1.24833	-22
1.25200	-24
1.25567	-30
1.25933	-39
1.26300	-49
1.26667	-55
1.27033	-57
1.27400	-57
1.27767	-57
1.28133	-56
1.28500	-56
1.28867	-59
1.29233	-65
1.29600	-72
1.29967	-74
1.30333	-71
1.30700	-68
1.31067	-67
1.31433	-67
1.31800	-65
1.32167	-60
1.32533	-55
1.32900	-52
1.33267	-49
1.33633	-50
1.34000	-55
1.34367	-57
1.34733	-61
1.35100	-65
1.35467	-69
1.35833	-73
1.36200	-75
1.36567	-70
1.36933	-66
1.37300	-64
1.37667	-61
1.38033	-55
1.38400	-55
1.38767	-61
1.39133	-64
1.39500	-59
1.39867	-56
1.40233	-63
1.40600	-70
1.40967	-76
1.41333	-81
1.41700	-87
1.42067	-87
1.42433	-81
1.42800	-69
1.43167	-61
1.43533	-54
1.43900	-43
1.44267	-4
1.44633	128
1.45000	397
1.45367	864
1.45733	1661
1.46100	2774
1.46467	3988
1.46833	5075
1.47200	5913
1.47567	6440
1.47933	6602
1.48300	6356
1.48667	5729
1.49033	4843
1.49400	3870
1.49767	2960
1.50133	2195
1.50500	1594
1.50867	1145
1.51233	821
1.51600	592
1.51967	429
1.52333	311
1.52700	229
1.53067	171
1.53433	127
1.53800	97
1.54167	92
1.54533	158
1.54900	360
1.55267	716
1.55633	1168
1.56000	1616
1.56367	1988
1.56733	2250
1.57100	2372
1.57467	2318
1.57833	2086
1.58200	1730
1.58567	1332
1.58933	965
1.59300	669
1.59667	449
1.60033	292
1.60400	182
1.60767	104
1.61133	47
1.61500	9
1.61867	-15
1.62233	-31
1.62600	-40
1.62967	-44
1.63333	-44
1.63700	-40
1.64067	-37
1.64433	-32
1.64800	-32
1.65167	-40
1.65533	-48
1.65900	-54
1.66267	-56
1.66633	-57
1.67000	-62
1.67367	-69
1.67733	-78
1.68100	-79
1.68467	-76
1.68833	-73
1.69200	-71
1.69567	-70
1.69933	-70
1.70300	-71
1.70667	-72
1.71033	-73
1.71400	-72
1.71767	-72
1.72133	-71
1.72500	-73
1.72867	-76
1.73233	-75
1.73600	-70
1.73967	-66
1.74333	-65
1.74700	-65
1.75067	-66
1.75433	-67
1.75800	-68
1.76167	-68
1.76533	-66
1.76900	-62
1.77267	-59
1.77633	-61
1.78000	-70
1.78367	-79
1.78733	-86
1.79100	-86
1.79467	-82
1.79833	-76
1.80200	-72
1.80567	-67
1.80933	-61
1.81300	-57
1.81667	-55
1.82033	-56
1.82400	-60
1.82767	-63
1.83133	-66
1.83500	-66
1.83867	-64
1.84233	-62
1.84600	-61
1.84967	-61
1.85333	-63
1.85700	-63
1.86067	-59
1.86433	-53
1.86800	-45
1.87167	-40
1.87533	-39
1.87900	-38
1.88267	-38
1.88633	-38
1.89000	-37
1.89367	-40
1.89733	-41
1.90100	-41
1.90467	-42
1.90833	-42
1.91200	-42
1.91567	-42
1.91933	-38
1.92300	-36
1.92667	-38
1.93033	-38
1.93400	-35
1.93767	-34
1.94133	-35
1.94500	-40
1.94867	-43
1.95233	-41
1.95600	-22
1.95967	98
1.96333	752
1.96700	3667
1.97067	13620
1.97433	39725
1.97800	92970
1.98167	178502
1.98533	288990
1.98900	406569
1.99267	511081
1.99633	585816
2.00000	619773
2.00367	608911
2.00733	557333
2.01100	477034
2.01467	384244
2.01833	293942
2.02200	215925
2.02567	154085
2.02933	108005
2.03300	75120
2.03667	52312
2.04033	36771
2.04400	26275
2.04767	19199
2.05133	14404
2.05500	11119
2.05867	8830
2.06233	7205
2.06600	6025
2.06967	5145
2.07333	4475
2.07700	3951
2.08067	3532
2.08433	3190
2.08800	2905
2.09167	2662
2.09533	2456
2.09900	2279
2.10267	2125
2.10633	1992
2.11000	1875
2.11367	1768
2.11733	1671
2.12100	1582
2.12467	1505
2.12833	1435
2.13200	1371
2.13567	1313
2.13933	1260
2.14300	1209
2.14667	1160
2.15033	1115
2.15400	1076
2.15767	1043
2.16133	1014
2.16500	983
2.16867	949
2.17233	916
2.17600	889
2.17967	864
2.18333	840
2.18700	815
2.19067	789
2.19433	765
2.19800	743
2.20167	723
2.20533	703
2.20900	682
2.21267	663
2.21633	645
2.22000	627
2.22367	610
2.22733	592
2.23100	574
2.23467	560
2.23833	551
2.24200	541
2.24567	532
2.24933	521
2.25300	511
2.25667	505
2.26033	503
2.26400	502
2.26767	500
2.27133	493
2.27500	484
2.27867	473
2.28233	462
2.28600	453
2.28967	445
2.29333	439
2.29700	435
2.30067	430
2.30433	425
2.30800	419
2.31167	411
2.31533	401
2.31900	393
2.32267	387
2.32633	382
2.33000	374
2.33367	368
2.33733	362
2.34100	358
2.34467	358
2.34833	360
2.35200	362
2.35567	364
2.35933	363
2.36300	361
2.36667	357
2.37033	349
2.37400	338
2.37767	327
2.38133	321
2.38500	321
2.38867	324
2.39233	328
2.39600	330
2.39967	330
2.40333	328
2.40700	324
2.41067	320
2.41433	313
2.41800	303
2.42167	290
2.42533	278
2.42900	279
2.43267	286
2.43633	291
2.44000	289
2.44367	286
2.44733	285
2.45100	287
2.45467	285
2.45833	290
2.46200	293
2.46567	288
2.46933	284
2.47300	278
2.47667	269
2.48033	257
2.48400	248
2.48767	244
2.49133	243
2.49500	244
2.49867	246
2.50233	247
2.50600	246
2.50967	244
2.51333	241
2.51700	238
2.52067	237
2.52433	244
2.52800	257
2.53167	264
2.53533	263
2.53900	259
2.54267	259
2.54633	254
2.55000	247
2.55367	240
2.55733	230
2.56100	223
2.56467	216
2.56833	210
2.57200	205
2.57567	200
2.57933	200
2.58300	199
2.58667	199
2.59033	197
2.59400	197
2.59767	200
2.60133	202
2.60500	200
2.60867	199
2.61233	199
2.61600	196
2.61967	187
2.62333	177
2.62700	168
2.63067	166
2.63433	164
2.63800	173
2.64167	174
2.64533	158
2.64900	146
2.65267	147
2.65633	152
2.66000	153
2.66367	162
2.66733	174
2.67100	179
2.67467	177
2.67833	170
2.68200	173
2.68567	179
2.68933	176
2.69300	168
2.69667	164
2.70033	162
2.70400	162
2.70767	157
2.71133	149
2.71500	142
2.71867	133
2.72233	126
2.72600	131
2.72967	140
2.73333	152
2.73700	166
2.74067	178
2.74433	182
2.74800	176
2.75167	165
2.75533	156
2.75900	148
2.76267	139
2.76633	134
2.77000	131
2.77367	125
2.77733	115
2.78100	106
2.78467	102
2.78833	105
2.79200	114
2.79567	120
2.79933	125
2.80300	127
2.80667	127
2.81033	127
2.81400	129
2.81767	133
2.82133	138
2.82500	139
2.82867	139
2.83233	139
2.83600	137
2.83967	137
2.84333	139
2.84700	141
2.85067	141
2.85433	138
2.85800	131
2.86167	122
2.86533	116
2.86900	115
2.87267	113
2.87633	114
2.88000	117
2.88367	122
2.88733	127
2.89100	128
2.89467	126
2.89833	124
2.90200	126
2.90567	134
2.90933	145
2.91300	150
2.91667	151
2.92033	152
2.92400	149
2.92767	145
2.93133	142
2.93500	136
2.93867	125
2.94233	113
2.94600	103
2.94967	100
2.95333	104
2.95700	111
2.96067	117
2.96433	124
2.96800	129
2.97167	131
2.97533	129
2.97900	126
2.98267	126
2.98633	129
2.99000	130
2.99367	127
2.99733	122
3.00100	121
3.00467	124
3.00833	129
3.01200	136
3.01567	142
3.01933	144
3.02300	141
3.02667	137
3.03033	134
3.03400	132
3.03767	129
3.04133	127
3.04500	124
3.04867	122
3.05233	124
3.05600	126
3.05967	125
3.06333	125
3.06700	126
3.07067	127
3.07433	125
3.07800	125
3.08167	126
3.08533	126
3.08900	125
3.09267	126
3.09633	129
3.10000	129
3.10367	125
3.10733	118
3.11100	117
3.11467	120
3.11833	122
3.12200	121
3.12567	118
3.12933	110
3.13300	102
3.13667	102
3.14033	107
3.14400	111
3.14767	112
3.15133	108
3.15500	101
3.15867	98
3.16233	102
3.16600	107
3.16967	111
3.17333	114
3.17700	114
3.18067	114
3.18433	113
3.18800	112
3.19167	114
3.19533	119
3.19900	126
3.20267	134
3.20633	141
3.21000	147
3.21367	147
3.21733	143
3.22100	135
3.22467	128
3.22833	122
3.23200	119
3.23567	116
3.23933	113
3.24300	114
3.24667	116
3.25033	117
3.25400	115
3.25767	110
3.26133	103
3.26500	97
3.26867	93
3.27233	93
3.27600	96
3.27967	102
3.28333	110
3.28700	115
3.29067	114
3.29433	109
3.29800	107
3.30167	105
3.30533	101
3.30900	96
3.31267	92
3.31633	90
3.32000	88
3.32367	87
3.32733	86
3.33100	88
3.33467	91
3.33833	94
3.34200	96
3.34567	99
3.34933	101
3.35300	104
3.35667	108
3.36033	114
3.36400	116
3.36767	112
3.37133	106
3.37500	103
3.37867	106
3.38233	110
3.38600	115
3.38967	119
3.39333	119
3.39700	114
3.40067	106
3.40433	99
3.40800	92
3.41167	86
3.41533	82
3.41900	79
3.42267	75
3.42633	71
3.43000	66
3.43367	64
3.43733	64
3.44100	67
3.44467	68
3.44833	65
3.45200	60
3.45567	59
3.45933	64
3.46300	72
3.46667	81
3.47033	85
3.47400	84
3.47767	82
3.48133	82
3.48500	82
3.48867	82
3.49233	82
3.49600	83
3.49967	86
3.50333	88
3.50700	86
3.51067	82
3.51433	77
3.51800	72
3.52167	65
3.52533	59
3.52900	56
3.53267	55
3.53633	55
3.54000	54
3.54367	52
3.54733	51
3.55100	52
3.55467	57
3.55833	63
3.56200	68
3.56567	71
3.56933	70
3.57300	65
3.57667	59
3.58033	58
3.58400	60
3.58767	61
3.59133	59
3.59500	56
3.59867	56
3.60233	62
3.60600	71
3.60967	78
3.61333	77
3.61700	70
3.62067	62
3.62433	55
3.62800	48
3.63167	44
3.63533	43
3.63900	45
3.64267	49
3.64633	52
3.65000	50
3.65367	48
3.65733	45
3.66100	42
3.66467	39
3.66833	37
3.67200	33
3.67567	30
3.67933	31
3.68300	35
3.68667	38
3.69033	38
3.69400	35
3.69767	29
3.70133	24
3.70500	21
3.70867	17
3.71233	16
3.71600	20
3.71967	26
3.72333	31
3.72700	34
3.73067	36
3.73433	38
3.73800	37
3.74167	34
3.74533	28
3.74900	23
3.75267	19
3.75633	17
3.76000	18
3.76367	22
3.76733	26
3.77100	32
3.77467	32
3.77833	32
3.78200	35
3.78567	36
3.78933	33
3.79300	31
3.79667	27
3.80033	25
3.80400	26
3.80767	29
3.81133	30
3.81500	29
3.81867	30
3.82233	33
3.82600	37
3.82967	38
3.83333	34
3.83700	29
3.84067	26
3.84433	25
3.84800	26
3.85167	25
3.85533	22
3.85900	17
3.86267	15
3.86633	19
3.87000	27
3.87367	34
3.87733	38
3.88100	39
3.88467	38
3.88833	34
3.89200	28
3.89567	21
3.89933	13
3.90300	10
3.90667	9
3.91033	9
3.91400	12
3.91767	18
3.92133	23
3.92500	26
3.92867	26
3.93233	22
3.93600	16
3.93967	12
3.94333	10
3.94700	8
3.95067	8
3.95433	7
3.95800	4
3.96167	1
3.96533	1
3.96900	3
3.97267	3
3.97633	1
3.98000	2
3.98367	8
3.98733	15
3.99100	17
3.99467	14
3.99833	8

[Chromatogram (Ch2)]
Interval(msec)	220
# of Points	1091
Start Time(min)	0.002
End Time(min)	3.998
R.Time (min)	Intensity
0.00167	-0
0.00533	-0
0.00900	-0
0.01267	-0
0.01633	-1
0.02000	-1
0.02367	-1
0.02733	-1
0.03100	-1
0.03467	-1
0.03833	-1
0.04200	-1
0.04567	-1
0.04933	-1
0.05300	-1
0.05667	-1
0.06033	-1
0.06400	-1
0.06767	-1
0.07133	-1
0.07500	-1
0.07867	-1
0.08233	-1
0.08600	-1
0.08967	-1
0.09333	-1
0.09700	-1
0.10067	-0
0.10433	-0
0.10800	-0
0.11167	-0
0.11533	-0
0.11900	-0
0.12267	-0
0.12633	-1
0.13000	-1
0.13367	-1
0.13733	-1
0.14100	-1
0.14467	-1
0.14833	-1
0.15200	-1
0.15567	-1
0.15933	-1
0.16300	-1
0.16667	-1
0.17033	-1
0.17400	-1
0.17767	-1
0.18133	-1
0.18500	-1
0.18867	-1
0.19233	-1
0.19600	-1
0.19967	-1
0.20333	-1
0.20700	-1
0.21067	-1
0.21433	-1
0.21800	-1
0.22167	-1
0.22533	-1
0.22900	-1
0.23267	-1
0.23633	-2
0.24000	-2
0.24367	-2
0.24733	-2
0.25100	-2
0.25467	-2
0.25833	-2
0.26200	-2
0.26567	-2
0.26933	-2
0.27300	-2
0.27667	-2
0.28033	-2
0.28400	-2
0.28767	-2
0.29133	-2
0.29500	-2
0.29867	-2
0.30233	-2
0.30600	-2
0.30967	-2
0.31333	-3
0.31700	-3
0.32067	-3
0.32433	-3
0.32800	-3
0.33167	-3
0.33533	-3
0.33900	-3
0.34267	-3
0.34633	-3
0.35000	-3
0.35367	-3
0.35733	-2
0.36100	-3
0.36467	-2
0.36833	-2
0.37200	-2
0.37567	-2
0.37933	-2
0.38300	-2
0.38667	-2
0.39033	-2
0.39400	-2
0.39767	-1
0.40133	-1
0.40500	-1
0.40867	-1
0.41233	-1
0.41600	-1
0.41967	-1
0.42333	-1
0.42700	-2
0.43067	-2
0.43433	-2
0.43800	-2
0.44167	-2
0.44533	-2
0.44900	-3
0.45267	-3
0.45633	-3
0.46000	-3
0.46367	-3
0.46733	-3
0.47100	-3
0.47467	-3
0.47833	-3
0.48200	-2
0.48567	-2
0.48933	-2
0.49300	-2
0.49667	-2
0.50033	-2
0.50400	-2
0.50767	-2
0.51133	-2
0.51500	-2
0.51867	-2
0.52233	-2
0.52600	-2
0.52967	-2
0.53333	-2
0.53700	-2
0.54067	-2
0.54433	-2
0.54800	-2
0.55167	-2
0.55533	-2
0.55900	-2
0.56267	-3
0.56633	-3
0.57000	-3
0.57367	-4
0.57733	-4
0.58100	-4
0.58467	-4
0.58833	-4
0.59200	-3
0.59567	-3
0.59933	-3
0.60300	-3
0.60667	-3
0.61033	-3
0.61400	-3
0.61767	-3
0.62133	-3
0.62500	-3
0.62867	-3
0.63233	-3
0.63600	-3
0.63967	-3
0.64333	-3
0.64700	-2
0.65067	-2
0.65433	-3
0.65800	-3
0.66167	-3
0.66533	-3
0.66900	-3
0.67267	-4
0.67633	-4
0.68000	-4
0.68367	-4
0.68733	-4
0.69100	-4
0.69467	-4
0.69833	-4
0.70200	-4
0.70567	-4
0.70933	-4
0.71300	-4
0.71667	-4
0.72033	-4
0.72400	-3
0.72767	-3
0.73133	-3
0.73500	-3
0.73867	-4
0.74233	-4
0.74600	-4
0.74967	-4
0.75333	-4
0.75700	-3
0.76067	-3
0.76433	-3
0.76800	-3
0.77167	-3
0.77533	-3
0.77900	-3
0.78267	-3
0.78633	-2
0.79000	-2
0.79367	-2
0.79733	-2
0.80100	-2
0.80467	-2
0.80833	-2
0.81200	-3
0.81567	-3
0.81933	-3
0.82300	-3
0.82667	-3
0.83033	-3
0.83400	-4
0.83767	-4
0.84133	-4
0.84500	-4
0.84867	-4
0.85233	-4
0.85600	-4
0.85967	-4
0.86333	-4
0.86700	-4
0.87067	-4
0.87433	-4
0.87800	-4
0.88167	-4
0.88533	-4
0.88900	-4
0.89267	-4
0.89633	-4
0.90000	-4
0.90367	-4
0.90733	-4
0.91100	-4
0.91467	-4
0.91833	-4
0.92200	-4
0.92567	-4
0.92933	-4
0.93300	-4
0.93667	-5
0.94033	-5
0.94400	-5
0.94767	-5
0.95133	-5
0.95500	-5
0.95867	-5
0.96233	-5
0.96600	-4
0.96967	-4
0.97333	-4
0.97700	-4
0.98067	-4
0.98433	-4
0.98800	-4
0.99167	-4
0.99533	-4
0.99900	-4
1.00267	-4
1.00633	-3
1.01000	-3
1.01367	-3
1.01733	-3
1.02100	-3
1.02467	-3
1.02833	-3
1.03200	-3
1.03567	-4
1.03933	-4
1.04300	-4
1.04667	-4
1.05033	-4
1.05400	-4
1.05767	-4
1.06133	-4
1.06500	-4
1.06867	-4
1.07233	-4
1.07600	-4
1.07967	-4
1.08333	-4
1.08700	-4
1.09067	-4
1.09433	-4
1.09800	-4
1.10167	-4
1.10533	-4
1.10900	-4
1.11267	-3
1.11633	-3
1.12000	-3
1.12367	-3
1.12733	-3
1.13100	-3
1.13467	-3
1.13833	-3
1.14200	-3
1.14567	-3
1.14933	-3
1.15300	-3
1.15667	-4
1.16033	-4
1.16400	-4
1.16767	-4
1.17133	-4
1.17500	-4
1.17867	-4
1.18233	-4
1.18600	-4
1.18967	-3
1.19333	-3
1.19700	-3
1.20067	-3
1.20433	-3
1.20800	-3
1.21167	-3
1.21533	-3
1.21900	-3
1.22267	-3
1.22633	-3
1.23000	-3
1.23367	-3
1.23733	-3
1.24100	-3
1.24467	-3
1.24833	-3
1.25200	-3
1.25567	-3
1.25933	-3
1.26300	-3
1.26667	-3
1.27033	-3
1.27400	-3
1.27767	-4
1.28133	-4
1.28500	-4
1.28867	-4
1.29233	-4
1.29600	-4
1.29967	-4
1.30333	-4
1.30700	-4
1.31067	-4
1.31433	-4
1.31800	-4
1.32167	-4
1.32533	-4
1.32900	-4
1.33267	-4
1.33633	-4
1.34000	-4
1.34367	-4
1.34733	-4
1.35100	-4
1.35467	-4
1.35833	-4
1.36200	-4
1.36567	-4
1.36933	-4
1.37300	-4
1.37667	-5
1.38033	-5
1.38400	-5
1.38767	-5
1.39133	-5
1.39500	-5
1.39867	-5
1.40233	-5
1.40600	-5
1.40967	-6
1.41333	-6
1.41700	-6
1.42067	-5
1.42433	-5
1.42800	-5
1.43167	-5
1.43533	-5
1.43900	-5
1.44267	-5
1.44633	-5
1.45000	-5
1.45367	-5
1.45733	-5
1.46100	-5
1.46467	-5
1.46833	-5
1.47200	-5
1.47567	-5
1.47933	-5
1.48300	-4
1.48667	-4
1.49033	-4
1.49400	-4
1.49767	-4
1.50133	-4
1.50500	-3
1.50867	-4
1.51233	-4
1.51600	-4
1.51967	-4
1.52333	-4
1.52700	-4
1.53067	-4
1.53433	-5
1.53800	-5
1.54167	-5
1.54533	-5
1.54900	-5
1.55267	-5
1.55633	-5
1.56000	-5
1.56367	-5
1.56733	-5
1.57100	-5
1.57467	-5
1.57833	-5
1.58200	-5
1.58567	-5
1.58933	-5
1.59300	-5
1.59667	-5
1.60033	-6
1.60400	-7
1.60767	-8
1.61133	-10
1.61500	-12
1.61867	-14
1.62233	-17
1.62600	-19
1.62967	-22
1.63333	-26
1.63700	-29
1.64067	-32
1.64433	-36
1.64800	-40
1.65167	-43
1.65533	-47
1.65900	-51
1.66267	-55
1.66633	-59
1.67000	-63
1.67367	-68
1.67733	-73
1.68100	-78
1.68467	-83
1.68833	-87
1.69200	-92
1.69567	-96
1.69933	-99
1.70300	-102
1.70667	-105
1.71033	-107
1.71400	-109
1.71767	-111
1.72133	-112
1.72500	-113
1.72867	-113
1.73233	-114
1.73600	-114
1.73967	-115
1.74333	-115
1.74700	-116
1.75067	-117
1.75433	-117
1.75800	-118
1.76167	-118
1.76533	-118
1.76900	-118
1.77267	-118
1.77633	-118
1.78000	-119
1.78367	-119
1.78733	-119
1.79100	-120
1.79467	-120
1.79833	-120
1.80200	-120
1.80567	-121
1.80933	-121
1.81300	-121
1.81667	-122
1.82033	-122
1.82400	-122
1.82767	-122
1.83133	-122
1.83500	-122
1.83867	-122
1.84233	-121
1.84600	-121
1.84967	-121
1.85333	-121
1.85700	-120
1.86067	-120
1.86433	-121
1.86800	-121
1.87167	-121
1.87533	-122
1.87900	-121
1.88267	-121
1.88633	-121
1.89000	-121
1.89367	-121
1.89733	-121
1.90100	-120
1.90467	-120
1.90833	-119
1.91200	-119
1.91567	-119
1.91933	-119
1.92300	-119
1.92667	-119
1.93033	-119
1.93400	-119
1.93767	-119
1.94133	-118
1.94500	-118
1.94867	-118
1.95233	-118
1.95600	-117
1.95967	-117
1.96333	-117
1.96700	-117
1.97067	-117
1.97433	-117
1.97800	-117
1.98167	-116
1.98533	-116
1.98900	-115
1.99267	-115
1.99633	-114
2.00000	-114
2.00367	-113
2.00733	-113
2.01100	-113
2.01467	-112
2.01833	-113
2.02200	-113
2.02567	-113
2.02933	-113
2.03300	-113
2.03667	-113
2.04033	-113
2.04400	-112
2.04767	-111
2.05133	-111
2.05500	-110
2.05867	-110
2.06233	-109
2.06600	-109
2.06967	-109
2.07333	-108
2.07700	-108
2.08067	-108
2.08433	-107
2.08800	-107
2.09167	-106
2.09533	-106
2.09900	-106
2.10267	-106
2.10633	-105
2.11000	-105
2.11367	-105
2.11733	-105
2.12100	-105
2.12467	-105
2.12833	-105
2.13200	-105
2.13567	-105
2.13933	-104
2.14300	-104
2.14667	-103
2.15033	-103
2.15400	-103
2.15767	-103
2.16133	-103
2.16500	-102
2.16867	-102
2.17233	-101
2.17600	-100
2.17967	-99
2.18333	-99
2.18700	-99
2.19067	-99
2.19433	-98
2.19800	-98
2.20167	-99
2.20533	-98
2.20900	-98
2.21267	-98
2.21633	-98
2.22000	-98
2.22367	-98
2.22733	-98
2.23100	-97
2.23467	-97
2.23833	-96
2.24200	-96
2.24567	-95
2.24933	-94
2.25300	-94
2.25667	-93
2.26033	-92
2.26400	-91
2.26767	-92
2.27133	-92
2.27500	-93
2.27867	-93
2.28233	-94
2.28600	-94
2.28967	-94
2.29333	-93
2.29700	-92
2.30067	-91
2.30433	-89
2.30800	-88
2.31167	-87
2.31533	-87
2.31900	-86
2.32267	-85
2.32633	-84
2.33000	-83
2.33367	-83
2.33733	-83
2.34100	-83
2.34467	-83
2.34833	-83
2.35200	-83
2.35567	-83
2.35933	-82
2.36300	-82
2.36667	-81
2.37033	-79
2.37400	-77
2.37767	-75
2.38133	-72
2.38500	-69
2.38867	-66
2.39233	-62
2.39600	-58
2.39967	-54
2.40333	-50
2.40700	-46
2.41067	-42
2.41433	-38
2.41800	-34
2.42167	-31
2.42533	-28
2.42900	-25
2.43267	-22
2.43633	-19
2.44000	-16
2.44367	-14
2.44733	-12
2.45100	-10
2.45467	-8
2.45833	-7
2.46200	-5
2.46567	-4
2.46933	-3
2.47300	-1
2.47667	-0
2.48033	1
2.48400	1
2.48767	2
2.49133	3
2.49500	3
2.49867	4
2.50233	4
2.50600	5
2.50967	5
2.51333	6
2.51700	6
2.52067	7
2.52433	7
2.52800	8
2.53167	8
2.53533	8
2.53900	9
2.54267	9
2.54633	9
2.55000	10
2.55367	11
2.55733	11
2.56100	12
2.56467	12
2.56833	12
2.57200	12
2.57567	12
2.57933	12
2.58300	12
2.58667	12
2.59033	12
2.59400	12
2.59767	12
2.60133	12
2.60500	11
2.60867	11
2.61233	11
2.61600	11
2.61967	11
2.62333	12
2.62700	12
2.63067	13
2.63433	14
2.63800	14
2.64167	15
2.64533	15
2.64900	16
2.65267	16
2.65633	16
2.66000	16
2.66367	16
2.66733	16
2.67100	16
2.67467	17
2.67833	17
2.68200	18
2.68567	18
2.68933	19
2.69300	20
2.69667	20
2.70033	21
2.70400	22
2.70767	22
2.71133	22
2.71500	23
2.71867	23
2.72233	22
2.72600	22
2.72967	22
2.73333	21
2.73700	21
2.74067	21
2.74433	21
2.74800	21
2.75167	21
2.75533	21
2.75900	22
2.76267	22
2.76633	22
2.77000	23
2.77367	23
2.77733	23
2.78100	24
2.78467	24
2.78833	23
2.79200	23
2.79567	22
2.79933	22
2.80300	22
2.80667	22
2.81033	22
2.81400	21
2.81767	21
2.82133	22
2.82500	21
2.82867	21
2.83233	21
2.83600	22
2.83967	22
2.84333	23
2.84700	23
2.85067	23
2.85433	22
2.85800	21
2.86167	17
2.86533	13
2.86900	5
2.87267	-6
2.87633	-19
2.88000	-37
2.88367	-59
2.88733	-84
2.89100	-113
2.89467	-146
2.89833	-183
2.90200	-222
2.90567	-265
2.90933	-309
2.91300	-356
2.91667	-404
2.92033	-453
2.92400	-503
2.92767	-553
2.93133	-603
2.93500	-653
2.93867	-702
2.94233	-751
2.94600	-800
2.94967	-851
2.95333	-906
2.95700	-966
2.96067	-1026
2.96433	-1075
2.96800	-1102
2.97167	-1104
2.97533	-1079
2.97900	-1033
2.98267	-971
2.98633	-897
2.99000	-818
2.99367	-737
2.99733	-658
3.00100	-582
3.00467	-512
3.00833	-447
3.01200	-389
3.01567	-336
3.01933	-290
3.02300	-249
3.02667	-213
3.03033	-182
3.03400	-154
3.03767	-131
3.04133	-111
3.04500	-93
3.04867	-78
3.05233	-65
3.05600	-54
3.05967	-45
3.06333	-37
3.06700	-30
3.07067	-25
3.07433	-20
3.07800	-16
3.08167	-12
3.08533	-9
3.08900	-6
3.09267	-4
3.09633	-2
3.10000	-0
3.10367	1
3.10733	3
3.11100	4
3.11467	5
3.11833	6
3.12200	7
3.12567	8
3.12933	9
3.13300	9
3.13667	10
3.14033	10
3.14400	11
3.14767	11
3.15133	12
3.15500	12
3.15867	12
3.16233	13
3.16600	13
3.16967	13
3.17333	14
3.17700	14
3.18067	14
3.18433	14
3.18800	14
3.19167	15
3.19533	15
3.19900	15
3.20267	15
3.20633	15
3.21000	16
3.21367	16
3.21733	16
3.22100	16
3.22467	17
3.22833	17
3.23200	17
3.23567	18
3.23933	18
3.24300	18
3.24667	19
3.25033	19
3.25400	19
3.25767	20
3.26133	20
3.26500	20
3.26867	20
3.27233	21
3.27600	21
3.27967	21
3.28333	21
3.28700	21
3.29067	21
3.29433	21
3.29800	21
3.30167	22
3.30533	22
3.30900	22
3.31267	22
3.31633	22
3.32000	22
3.32367	22
3.32733	22
3.33100	22
3.33467	22
3.33833	23
3.34200	23
3.34567	23
3.34933	23
3.35300	23
3.35667	23
3.36033	23
3.36400	23
3.36767	22
3.37133	22
3.37500	22
3.37867	22
3.38233	22
3.38600	22
3.38967	22
3.39333	22
3.39700	22
3.40067	23
3.40433	23
3.40800	23
3.41167	23
3.41533	23
3.41900	23
3.42267	23
3.42633	23
3.43000	24
3.43367	24
3.43733	24
3.44100	24
3.44467	24
3.44833	24
3.45200	24
3.45567	24
3.45933	24
3.46300	24
3.46667	24
3.47033	24
3.47400	24
3.47767	24
3.48133	24
3.48500	24
3.48867	24
3.49233	24
3.49600	23
3.49967	23
3.50333	23
3.50700	23
3.51067	23
3.51433	23
3.51800	23
3.52167	23
3.52533	23
3.52900	23
3.53267	24
3.53633	24
3.54000	24
3.54367	24
3.54733	24
3.55100	24
3.55467	24
3.55833	24
3.56200	24
3.56567	24
3.56933	24
3.57300	24
3.57667	24
3.58033	23
3.58400	23
3.58767	23
3.59133	23
3.59500	23
3.59867	22
3.60233	22
3.60600	22
3.60967	22
3.61333	22
3.61700	22
3.62067	22
3.62433	22
3.62800	22
3.63167	22
3.63533	22
3.63900	22
3.64267	22
3.64633	22
3.65000	22
3.65367	22
3.65733	23
3.66100	23
3.66467	23
3.66833	22
3.67200	22
3.67567	23
3.67933	23
3.68300	23
3.68667	23
3.69033	23
3.69400	24
3.69767	24
3.70133	24
3.70500	24
3.70867	24
3.71233	24
3.71600	24
3.71967	24
3.72333	24
3.72700	24
3.73067	24
3.73433	24
3.73800	24
3.74167	24
3.74533	24
3.74900	24
3.75267	24
3.75633	24
3.76000	24
3.76367	24
3.76733	24
3.77100	24
3.77467	24
3.77833	24
3.78200	24
3.78567	24
3.78933	25
3.79300	25
3.79667	25
3.80033	25
3.80400	24
3.80767	24
3.81133	24
3.81500	24
3.81867	25
3.82233	25
3.82600	25
3.82967	25
3.83333	25
3.83700	25
3.84067	25
3.84433	25
3.84800	25
3.85167	25
3.85533	25
3.85900	25
3.86267	25
3.86633	25
3.87000	25
3.87367	25
3.87733	25
3.88100	25
3.88467	24
3.88833	24
3.89200	24
3.89567	24
3.89933	24
3.90300	24
3.90667	24
3.91033	24
3.91400	24
3.91767	24
3.92133	24
3.92500	23
3.92867	24
3.93233	24
3.93600	24
3.93967	24
3.94333	23
3.94700	23
3.95067	23
3.95433	23
3.95800	23
3.96167	23
3.96533	23
3.96900	23
3.97267	23
3.97633	23
3.98000	23
3.98367	23
3.98733	23
3.99100	24
3.99467	24
3.99833	24

[Chromatogram (Ch3)]
Interval(msec)	220
# of Points	1091
Start Time(min)	0.002
End Time(min)	3.998
R.Time (min)	Intensity
0.00167	-0
0.00533	-1
0.00900	-1
0.01267	-1
0.01633	-1
0.02000	0
0.02367	3
0.02733	3
0.03100	-1
0.03467	-3
0.03833	-4
0.04200	-4
0.04567	-2
0.04933	-0
0.05300	-1
0.05667	-2
0.06033	-1
0.06400	3
0.06767	5
0.07133	5
0.07500	6
0.07867	5
0.08233	3
0.08600	1
0.08967	2
0.09333	3
0.09700	3
0.10067	2
0.10433	2
0.10800	4
0.11167	3
0.11533	4
0.11900	4
0.12267	3
0.12633	4
0.13000	4
0.13367	4
0.13733	5
0.14100	6
0.14467	6
0.14833	7
0.15200	8
0.15567	10
0.15933	11
0.16300	9
0.16667	9
0.17033	8
0.17400	6
0.17767	6
0.18133	5
0.18500	4
0.18867	3
0.19233	4
0.19600	4
0.19967	4
0.20333	4
0.20700	3
0.21067	2
0.21433	4
0.21800	4
0.22167	6
0.22533	9
0.22900	10
0.23267	9
0.23633	8
0.24000	7
0.24367	7
0.24733	8
0.25100	9
0.25467	9
0.25833	9
0.26200	10
0.26567	11
0.26933	10
0.27300	10
0.27667	11
0.28033	11
0.28400	12
0.28767	13
0.29133	14
0.29500	13
0.29867	13
0.30233	13
0.30600	13
0.30967	14
0.31333	15
0.31700	15
0.32067	15
0.32433	16
0.32800	17
0.33167	16
0.33533	14
0.33900	15
0.34267	19
0.34633	20
0.35000	20
0.35367	19
0.35733	17
0.36100	17
0.36467	16
0.36833	16
0.37200	16
0.37567	16
0.37933	16
0.38300	14
0.38667	14
0.39033	15
0.39400	16
0.39767	17
0.40133	19
0.40500	20
0.40867	20
0.41233	21
0.41600	21
0.41967	21
0.42333	19
0.42700	17
0.43067	19
0.43433	19
0.43800	18
0.44167	18
0.44533	18
0.44900	20
0.45267	21
0.45633	19
0.46000	17
0.46367	16
0.46733	15
0.47100	18
0.47467	20
0.47833	20
0.48200	21
0.48567	21
0.48933	21
0.49300	21
0.49667	20
0.50033	19
0.50400	21
0.50767	22
0.51133	21
0.51500	20
0.51867	20
0.52233	22
0.52600	22
0.52967	19
0.53333	16
0.53700	16
0.54067	19
0.54433	21
0.54800	21
0.55167	18
0.55533	17
0.55900	17
0.56267	16
0.56633	15
0.57000	18
0.57367	18
0.57733	18
0.58100	19
0.58467	19
0.58833	18
0.59200	20
0.59567	20
0.59933	19
0.60300	20
0.60667	21
0.61033	20
0.61400	21
0.61767	24
0.62133	24
0.62500	24
0.62867	24
0.63233	22
0.63600	21
0.63967	20
0.64333	21
0.64700	19
0.65067	20
0.65433	20
0.65800	19
0.66167	18
0.66533	19
0.66900	21
0.67267	22
0.67633	21
0.68000	21
0.68367	22
0.68733	24
0.69100	25
0.69467	23
0.69833	21
0.70200	22
0.70567	23
0.70933	22
0.71300	24
0.71667	28
0.72033	31
0.72400	33
0.72767	32
0.73133	30
0.73500	29
0.73867	29
0.74233	26
0.74600	25
0.74967	24
0.75333	24
0.75700	25
0.76067	26
0.76433	27
0.76800	28
0.77167	28
0.77533	27
0.77900	27
0.78267	28
0.78633	29
0.79000	28
0.79367	31
0.79733	32
0.80100	31
0.80467	31
0.80833	31
0.81200	29
0.81567	25
0.81933	22
0.82300	22
0.82667	24
0.83033	25
0.83400	28
0.83767	30
0.84133	29
0.84500	28
0.84867	27
0.85233	28
0.85600	27
0.85967	27
0.86333	26
0.86700	25
0.87067	25
0.87433	24
0.87800	24
0.88167	25
0.88533	27
0.88900	28
0.89267	28
0.89633	27
0.90000	27
0.90367	28
0.90733	29
0.91100	27
0.91467	29
0.91833	31
0.92200	33
0.92567	32
0.92933	30
0.93300	28
0.93667	28
0.94033	29
0.94400	32
0.94767	32
0.95133	31
0.95500	31
0.95867	30
0.96233	28
0.96600	26
0.96967	24
0.97333	24
0.97700	25
0.98067	27
0.98433	27
0.98800	26
0.99167	25
0.99533	27
0.99900	29
1.00267	28
1.00633	28
1.01000	28
1.01367	28
1.01733	27
1.02100	28
1.02467	29
1.02833	28
1.03200	25
1.03567	23
1.03933	23
1.04300	26
1.04667	27
1.05033	28
1.05400	29
1.05767	28
1.06133	28
1.06500	28
1.06867	29
1.07233	29
1.07600	29
1.07967	31
1.08333	31
1.08700	30
1.09067	30
1.09433	31
1.09800	33
1.10167	32
1.10533	30
1.10900	29
1.11267	28
1.11633	27
1.12000	25
1.12367	24
1.12733	23
1.13100	25
1.13467	26
1.13833	26
1.14200	25
1.14567	25
1.14933	22
1.15300	20
1.15667	21
1.16033	24
1.16400	24
1.16767	25
1.17133	26
1.17500	26
1.17867	27
1.18233	27
1.18600	26
1.18967	27
1.19333	25
1.19700	24
1.20067	20
1.20433	20
1.20800	21
1.21167	24
1.21533	26
1.21900	27
1.22267	25
1.22633	22
1.23000	19
1.23367	18
1.23733	19
1.24100	20
1.24467	21
1.24833	23
1.25200	24
1.25567	23
1.25933	23
1.26300	26
1.26667	25
1.27033	25
1.27400	26
1.27767	28
1.28133	29
1.28500	28
1.28867	29
1.29233	29
1.29600	28
1.29967	26
1.30333	25
1.30700	24
1.31067	23
1.31433	21
1.31800	21
1.32167	22
1.32533	23
1.32900	23
1.33267	21
1.33633	20
1.34000	19
1.34367	19
1.34733	21
1.35100	24
1.35467	25
1.35833	24
1.36200	22
1.36567	20
1.36933	19
1.37300	20
1.37667	24
1.38033	27
1.38400	27
1.38767	25
1.39133	23
1.39500	24
1.39867	25
1.40233	24
1.40600	24
1.40967	23
1.41333	24
1.41700	24
1.42067	25
1.42433	25
1.42800	24
1.43167	21
1.43533	20
1.43900	21
1.44267	21
1.44633	20
1.45000	19
1.45367	20
1.45733	22
1.46100	22
1.46467	21
1.46833	23
1.47200	25
1.47567	24
1.47933	24
1.48300	24
1.48667	23
1.49033	22
1.49400	25
1.49767	28
1.50133	30
1.50500	32
1.50867	32
1.51233	30
1.51600	26
1.51967	23
1.52333	23
1.52700	22
1.53067	19
1.53433	18
1.53800	19
1.54167	22
1.54533	23
1.54900	20
1.55267	20
1.55633	22
1.56000	22
1.56367	22
1.56733	20
1.57100	20
1.57467	21
1.57833	22
1.58200	21
1.58567	18
1.58933	17
1.59300	21
1.59667	22
1.60033	22
1.60400	19
1.60767	17
1.61133	17
1.61500	17
1.61867	18
1.62233	19
1.62600	19
1.62967	20
1.63333	22
1.63700	24
1.64067	23
1.64433	21
1.64800	19
1.65167	19
1.65533	18
1.65900	18
1.66267	21
1.66633	24
1.67000	25
1.67367	26
1.67733	27
1.68100	31
1.68467	34
1.68833	33
1.69200	30
1.69567	29
1.69933	29
1.70300	29
1.70667	27
1.71033	27
1.71400	29
1.71767	28
1.72133	27
1.72500	29
1.72867	30
1.73233	31
1.73600	34
1.73967	35
1.74333	35
1.74700	33
1.75067	31
1.75433	32
1.75800	33
1.76167	34
1.76533	35
1.76900	38
1.77267	39
1.77633	39
1.78000	40
1.78367	39
1.78733	39
1.79100	40
1.79467	40
1.79833	39
1.80200	39
1.80567	38
1.80933	37
1.81300	38
1.81667	39
1.82033	41
1.82400	42
1.82767	45
1.83133	49
1.83500	51
1.83867	53
1.84233	53
1.84600	51
1.84967	47
1.85333	46
1.85700	47
1.86067	45
1.86433	45
1.86800	47
1.87167	48
1.87533	48
1.87900	50
1.88267	51
1.88633	52
1.89000	51
1.89367	51
1.89733	51
1.90100	49
1.90467	49
1.90833	51
1.91200	52
1.91567	52
1.91933	53
1.92300	55
1.92667	58
1.93033	58
1.93400	58
1.93767	57
1.94133	55
1.94500	56
1.94867	60
1.95233	62
1.95600	62
1.95967	62
1.96333	60
1.96700	60
1.97067	62
1.97433	65
1.97800	67
1.98167	65
1.98533	63
1.98900	62
1.99267	62
1.99633	64
2.00000	66
2.00367	67
2.00733	69
2.01100	70
2.01467	69
2.01833	69
2.02200	71
2.02567	75
2.02933	80
2.03300	81
2.03667	80
2.04033	81
2.04400	82
2.04767	82
2.05133	84
2.05500	82
2.05867	80
2.06233	81
2.06600	83
2.06967	84
2.07333	87
2.07700	90
2.08067	91
2.08433	90
2.08800	87
2.09167	87
2.09533	90
2.09900	92
2.10267	92
2.10633	93
2.11000	93
2.11367	96
2.11733	98
2.12100	100
2.12467	101
2.12833	101
2.13200	101
2.13567	102
2.13933	102
2.14300	101
2.14667	100
2.15033	99
2.15400	100
2.15767	103
2.16133	105
2.16500	105
2.16867	106
2.17233	109
2.17600	113
2.17967	116
2.18333	119
2.18700	120
2.19067	120
2.19433	120
2.19800	122
2.20167	125
2.20533	127
2.20900	126
2.21267	125
2.21633	126
2.22000	126
2.22367	125
2.22733	125
2.23100	126
2.23467	125
2.23833	125
2.24200	126
2.24567	128
2.24933	130
2.25300	130
2.25667	131
2.26033	131
2.26400	131
2.26767	134
2.27133	137
2.27500	139
2.27867	139
2.28233	138
2.28600	139
2.28967	141
2.29333	142
2.29700	143
2.30067	144
2.30433	147
2.30800	149
2.31167	150
2.31533	150
2.31900	149
2.32267	147
2.32633	147
2.33000	148
2.33367	150
2.33733	153
2.34100	155
2.34467	158
2.34833	161
2.35200	162
2.35567	163
2.35933	164
2.36300	167
2.36667	170
2.37033	171
2.37400	169
2.37767	165
2.38133	163
2.38500	163
2.38867	163
2.39233	164
2.39600	166
2.39967	168
2.40333	169
2.40700	171
2.41067	173
2.41433	173
2.41800	173
2.42167	176
2.42533	180
2.42900	181
2.43267	181
2.43633	180
2.44000	178
2.44367	191
2.44733	225
2.45100	261
2.45467	284
2.45833	282
2.46200	260
2.46567	237
2.46933	220
2.47300	206
2.47667	189
2.48033	167
2.48400	144
2.48767	123
2.49133	105
2.49500	92
2.49867	80
2.50233	69
2.50600	65
2.50967	66
2.51333	70
2.51700	72
2.52067	73
2.52433	72
2.52800	69
2.53167	63
2.53533	55
2.53900	46
2.54267	35
2.54633	19
2.55000	-13
2.55367	-38
2.55733	-40
2.56100	-21
2.56467	13
2.56833	55
2.57200	94
2.57567	132
2.57933	173
2.58300	219
2.58667	267
2.59033	316
2.59400	363
2.59767	405
2.60133	442
2.60500	469
2.60867	493
2.61233	510
2.61600	517
2.61967	510
2.62333	497
2.62700	478
2.63067	454
2.63433	431
2.63800	408
2.64167	388
2.64533	374
2.64900	363
2.65267	355
2.65633	352
2.66000	355
2.66367	360
2.66733	366
2.67100	371
2.67467	379
2.67833	387
2.68200	395
2.68567	404
2.68933	413
2.69300	424
2.69667	432
2.70033	439
2.70400	447
2.70767	452
2.71133	457
2.71500	461
2.71867	466
2.72233	471
2.72600	476
2.72967	481
2.73333	482
2.73700	483
2.74067	486
2.74433	490
2.74800	492
2.75167	493
2.75533	494
2.75900	494
2.76267	490
2.76633	485
2.77000	483
2.77367	482
2.77733	478
2.78100	472
2.78467	468
2.78833	466
2.79200	467
2.79567	464
2.79933	458
2.80300	454
2.80667	452
2.81033	451
2.81400	448
2.81767	444
2.82133	439
2.82500	435
2.82867	433
2.83233	438
2.83600	455
2.83967	496
2.84333	581
2.84700	731
2.85067	968
2.85433	1309
2.85800	1755
2.86167	2292
2.86533	2888
2.86900	3502
2.87267	4083
2.87633	4581
2.88000	4960
2.88367	5194
2.88733	5283
2.89100	5232
2.89467	5067
2.89833	4815
2.90200	4502
2.90567	4153
2.90933	3791
2.91300	3436
2.91667	3099
2.92033	2783
2.92400	2489
2.92767	2222
2.93133	1983
2.93500	1770
2.93867	1581
2.94233	1418
2.94600	1278
2.94967	1154
2.95333	1045
2.95700	950
2.96067	868
2.96433	797
2.96800	736
2.97167	683
2.97533	638
2.97900	599
2.98267	565
2.98633	536
2.99000	512
2.99367	491
2.99733	470
3.00100	449
3.00467	432
3.00833	419
3.01200	407
3.01567	399
3.01933	392
3.02300	386
3.02667	381
3.03033	375
3.03400	368
3.03767	361
3.04133	356
3.04500	354
3.04867	352
3.05233	349
3.05600	344
3.05967	343
3.06333	342
3.06700	339
3.07067	336
3.07433	333
3.07800	331
3.08167	330
3.08533	329
3.08900	325
3.09267	323
3.09633	322
3.10000	319
3.10367	315
3.10733	312
3.11100	310
3.11467	308
3.11833	304
3.12200	302
3.12567	302
3.12933	300
3.13300	297
3.13667	291
3.14033	285
3.14400	279
3.14767	276
3.15133	272
3.15500	270
3.15867	270
3.16233	272
3.16600	275
3.16967	274
3.17333	271
3.17700	267
3.18067	264
3.18433	263
3.18800	264
3.19167	265
3.19533	262
3.19900	259
3.20267	258
3.20633	256
3.21000	255
3.21367	253
3.21733	251
3.22100	250
3.22467	249
3.22833	246
3.23200	243
3.23567	244
3.23933	243
3.24300	244
3.24667	242
3.25033	240
3.25400	242
3.25767	244
3.26133	244
3.26500	239
3.26867	236
3.27233	233
3.27600	230
3.27967	227
3.28333	225
3.28700	225
3.29067	225
3.29433	225
3.29800	223
3.30167	222
3.30533	222
3.30900	219
3.31267	217
3.31633	217
3.32000	218
3.32367	216
3.32733	209
3.33100	205
3.33467	204
3.33833	203
3.34200	200
3.34567	199
3.34933	198
3.35300	198
3.35667	199
3.36033	200
3.36400	199
3.36767	198
3.37133	197
3.37500	195
3.37867	193
3.38233	190
3.38600	189
3.38967	189
3.39333	188
3.39700	185
3.40067	184
3.40433	183
3.40800	183
3.41167	185
3.41533	184
3.41900	180
3.42267	176
3.42633	174
3.43000	172
3.43367	172
3.43733	170
3.44100	169
3.44467	168
3.44833	166
3.45200	165
3.45567	166
3.45933	167
3.46300	167
3.46667	167
3.47033	164
3.47400	162
3.47767	160
3.48133	160
3.48500	159
3.48867	159
3.49233	159
3.49600	158
3.49967	157
3.50333	157
3.50700	157
3.51067	158
3.51433	157
3.51800	156
3.52167	153
3.52533	152
3.52900	150
3.53267	149
3.53633	149
3.54000	147
3.54367	145
3.54733	146
3.55100	146
3.55467	144
3.55833	141
3.56200	140
3.56567	140
3.56933	140
3.57300	139
3.57667	136
3.58033	134
3.58400	130
3.58767	127
3.59133	125
3.59500	123
3.59867	122
3.60233	120
3.60600	119
3.60967	120
3.61333	122
3.61700	123
3.62067	125
3.62433	126
3.62800	126
3.63167	126
3.63533	126
3.63900	125
3.64267	121
3.64633	118
3.65000	117
3.65367	115
3.65733	113
3.66100	110
3.66467	112
3.66833	115
3.67200	116
3.67567	115
3.67933	113
3.68300	113
3.68667	116
3.69033	118
3.69400	117
3.69767	114
3.70133	111
3.70500	109
3.70867	108
3.71233	108
3.71600	108
3.71967	109
3.72333	110
3.72700	109
3.73067	107
3.73433	105
3.73800	106
3.74167	105
3.74533	105
3.74900	104
3.75267	104
3.75633	103
3.76000	103
3.76367	103
3.76733	101
3.77100	98
3.77467	97
3.77833	95
3.78200	93
3.78567	91
3.78933	90
3.79300	88
3.79667	87
3.80033	88
3.80400	90
3.80767	91
3.81133	92
3.81500	94
3.81867	96
3.82233	97
3.82600	95
3.82967	92
3.83333	91
3.83700	90
3.84067	91
3.84433	92
3.84800	93
3.85167	91
3.85533	90
3.85900	89
3.86267	85
3.86633	82
3.87000	82
3.87367	83
3.87733	84
3.88100	85
3.88467	83
3.88833	83
3.89200	84
3.89567	83
3.89933	84
3.90300	85
3.90667	82
3.91033	78
3.91400	75
3.91767	73
3.92133	73
3.92500	76
3.92867	79
3.93233	81
3.93600	82
3.93967	81
3.94333	79
3.94700	75
3.95067	72
3.95433	72
3.95800	71
3.96167	71
3.96533	70
3.96900	68
3.97267	68
3.97633	68
3.98000	67
3.98367	67
3.98733	68
3.99100	67
3.99467	65
3.99833	65

[Status Trace (Column Oven Temperature)]
Interval(msec)	1000
# of Points	240
Start Time(min)	0.006
End Time(min)	3.989
Intensity Units	
Intensity Multiplier	1
R.Time (min)	Intensity
0.00572	35.01
0.02238	35.01
0.03905	35.01
0.05572	35.01
0.07238	35.01
0.08905	35.00
0.10572	35.01
0.12238	35.01
0.13905	35.00
0.15572	35.00
0.17238	34.99
0.18905	34.99
0.20572	34.99
0.22238	34.98
0.23905	34.99
0.25572	35.00
0.27238	34.99
0.28905	35.00
0.30572	35.00
0.32238	35.01
0.33905	35.00
0.35572	35.00
0.37238	34.99
0.38905	35.00
0.40572	34.99
0.42238	34.99
0.43905	34.98
0.45572	34.99
0.47238	34.99
0.48905	34.98
0.50572	34.98
0.52238	34.99
0.53905	34.99
0.55572	34.99
0.57238	34.99
0.58905	34.99
0.60572	34.98
0.62238	34.99
0.63905	35.00
0.65572	34.99
0.67238	34.99
0.68905	35.00
0.70572	35.00
0.72238	35.00
0.73905	35.00
0.75572	35.00
0.77238	34.99
0.78905	34.98
0.80572	34.98
0.82238	34.98
0.83905	34.99
0.85572	35.00
0.87238	35.00
0.88905	35.00
0.90572	35.00
0.92238	35.00
0.93905	35.00
0.95572	35.00
0.97238	35.00
0.98905	35.00
1.00572	35.01
1.02238	35.00
1.03905	35.00
1.05572	35.01
1.07238	35.01
1.08905	35.00
1.10572	35.00
1.12238	35.00
1.13905	35.00
1.15572	35.00
1.17238	35.01
1.18905	35.00
1.20572	35.00
1.22238	35.00
1.23905	35.00
1.25572	34.98
1.27238	34.98
1.28905	34.98
1.30572	34.98
1.32238	34.98
1.33905	34.98
1.35572	34.99
1.37238	35.00
1.38905	35.00
1.40572	35.00
1.42238	35.00
1.43905	35.01
1.45572	35.00
1.47238	35.00
1.48905	35.00
1.50572	35.00
1.52238	34.99
1.53905	34.99
1.55572	34.99
1.57238	35.00
1.58905	35.00
1.60572	35.05
1.62238	35.15
1.63905	35.33
1.65572	35.55
1.67238	35.86
1.68905	36.24
1.70572	36.60
1.72238	36.94
1.73905	37.28
1.75572	37.62
1.77238	37.94
1.78905	38.26
1.80572	38.60
1.82238	38.94
1.83905	39.26
1.85572	39.59
1.87238	39.93
1.88905	40.26
1.90572	40.58
1.92238	40.91
1.93905	41.24
1.95572	41.56
1.97238	41.90
1.98905	42.21
2.00572	42.52
2.02238	42.86
2.03905	43.17
2.05572	43.49
2.07238	43.83
2.08905	44.14
2.10572	44.47
2.12238	44.80
2.13905	45.12
2.15572	45.45
2.17238	45.76
2.18905	46.09
2.20572	46.43
2.22238	46.76
2.23905	47.10
2.25572	47.40
2.27238	47.76
2.28905	48.10
2.30572	48.42
2.32238	48.74
2.33905	49.08
2.35572	49.38
2.37238	49.55
2.38905	49.64
2.40572	49.65
2.42238	49.65
2.43905	49.65
2.45572	49.66
2.47238	49.66
2.48905	49.67
2.50572	49.71
2.52238	49.72
2.53905	49.74
2.55572	49.75
2.57238	49.77
2.58905	49.79
2.60572	49.83
2.62238	49.84
2.63905	49.83
2.65572	49.85
2.67238	49.86
2.68905	49.85
2.70572	49.84
2.72238	49.85
2.73905	49.87
2.75572	49.86
2.77238	49.84
2.78905	49.87
2.80572	49.88
2.82238	49.89
2.83905	49.89
2.85572	49.89
2.87238	49.90
2.88905	49.91
2.90572	49.91
2.92238	49.91
2.93905	49.92
2.95572	49.93
2.97238	49.95
2.98905	49.96
3.00572	49.98
3.02238	49.99
3.03905	50.01
3.05572	50.02
3.07238	50.03
3.08905	50.03
3.10572	50.04
3.12238	50.05
3.13905	50.05
3.15572	50.06
3.17238	50.07
3.18905	50.08
3.20572	50.09
3.22238	50.10
3.23905	50.10
3.25572	50.10
3.27238	50.10
3.28905	50.09
3.30572	50.09
3.32238	50.08
3.33905	50.07
3.35572	50.07
3.37238	50.08
3.38905	50.08
3.40572	50.09
3.42238	50.08
3.43905	50.08
3.45572	50.07
3.47238	50.07
3.48905	50.07
3.50572	50.08
3.52238	50.08
3.53905	50.07
3.55572	50.07
3.57238	50.07
3.58905	50.08
3.60572	50.09
3.62238	50.09
3.63905	50.09
3.65572	50.09
3.67238	50.10
3.68905	50.10
3.70572	50.10
3.72238	50.10
3.73905	50.10
3.75572	50.09
3.77238	50.08
3.78905	50.08
3.80572	50.08
3.82238	50.08
3.83905	50.08
3.85572	50.08
3.87238	50.07
3.88905	50.07
3.90572	50.06
3.92238	50.07
3.93905	50.07
3.95572	50.06
3.97238	50.07
3.98905	50.07

[Status Trace (Injection Unit Temperature)]
Interval(msec)	1000
# of Points	240
Start Time(min)	0.006
End Time(min)	3.989
Intensity Units	
Intensity Multiplier	1
R.Time (min)	Intensity
0.00572	99.98
0.02238	99.98
0.03905	99.99
0.05572	99.98
0.07238	99.98
0.08905	99.99
0.10572	99.98
0.12238	99.99
0.13905	99.98
0.15572	99.99
0.17238	99.98
0.18905	99.98
0.20572	99.99
0.22238	99.98
0.23905	99.98
0.25572	99.99
0.27238	99.99
0.28905	99.99
0.30572	99.98
0.32238	99.99
0.33905	99.99
0.35572	99.99
0.37238	99.98
0.38905	99.99
0.40572	99.99
0.42238	99.98
0.43905	99.99
0.45572	99.99
0.47238	99.99
0.48905	99.98
0.50572	99.99
0.52238	99.98
0.53905	99.98
0.55572	99.98
0.57238	99.98
0.58905	99.98
0.60572	99.99
0.62238	99.99
0.63905	99.99
0.65572	99.99
0.67238	99.98
0.68905	99.98
0.70572	99.99
0.72238	99.98
0.73905	99.99
0.75572	99.99
0.77238	99.98
0.78905	99.99
0.80572	99.98
0.82238	99.98
0.83905	99.99
0.85572	99.98
0.87238	99.98
0.88905	99.98
0.90572	99.98
0.92238	99.98
0.93905	99.99
0.95572	99.98
0.97238	99.99
0.98905	99.98
1.00572	99.98
1.02238	99.98
1.03905	99.99
1.05572	99.99
1.07238	99.99
1.08905	99.99
1.10572	99.99
1.12238	99.98
1.13905	99.99
1.15572	99.99
1.17238	99.98
1.18905	99.99
1.20572	99.98
1.22238	99.99
1.23905	99.99
1.25572	99.99
1.27238	99.99
1.28905	99.99
1.30572	99.99
1.32238	99.99
1.33905	99.99
1.35572	99.99
1.37238	99.99
1.38905	99.99
1.40572	99.99
1.42238	99.99
1.43905	99.98
1.45572	99.99
1.47238	99.99
1.48905	99.99
1.50572	99.99
1.52238	99.99
1.53905	99.99
1.55572	99.99
1.57238	99.99
1.58905	99.99
1.60572	99.98
1.62238	99.99
1.63905	99.99
1.65572	99.99
1.67238	99.99
1.68905	99.98
1.70572	99.99
1.72238	99.99
1.73905	99.99
1.75572	99.99
1.77238	99.99
1.78905	99.99
1.80572	99.99
1.82238	99.98
1.83905	99.98
1.85572	99.98
1.87238	99.98
1.88905	99.98
1.90572	99.97
1.92238	99.98
1.93905	99.98
1.95572	99.98
1.97238	99.98
1.98905	99.98
2.00572	99.98
2.02238	99.98
2.03905	99.98
2.05572	99.97
2.07238	99.97
2.08905	99.97
2.10572	99.97
2.12238	99.97
2.13905	99.97
2.15572	99.97
2.17238	99.97
2.18905	99.97
2.20572	99.97
2.22238	99.97
2.23905	99.97
2.25572	99.97
2.27238	99.97
2.28905	99.97
2.30572	99.97
2.32238	99.97
2.33905	99.98
2.35572	99.97
2.37238	99.98
2.38905	99.97
2.40572	99.98
2.42238	99.98
2.43905	99.98
2.45572	99.98
2.47238	99.98
2.48905	99.98
2.50572	99.98
2.52238	99.98
2.53905	99.98
2.55572	99.98
2.57238	99.98
2.58905	99.98
2.60572	99.98
2.62238	99.98
2.63905	99.98
2.65572	99.98
2.67238	99.98
2.68905	99.99
2.70572	99.99
2.72238	99.99
2.73905	99.99
2.75572	99.99
2.77238	99.99
2.78905	99.99
2.80572	100.00
2.82238	100.00
2.83905	100.00
2.85572	100.00
2.87238	100.00
2.88905	100.00
2.90572	100.00
2.92238	100.01
2.93905	100.01
2.95572	100.01
2.97238	100.01
2.98905	100.01
3.00572	100.01
3.02238	100.01
3.03905	100.01
3.05572	100.02
3.07238	100.01
3.08905	100.02
3.10572	100.02
3.12238	100.02
3.13905	100.02
3.15572	100.02
3.17238	100.03
3.18905	100.03
3.20572	100.02
3.22238	100.03
3.23905	100.03
3.25572	100.03
3.27238	100.03
3.28905	100.03
3.30572	100.03
3.32238	100.03
3.33905	100.03
3.35572	100.03
3.37238	100.03
3.38905	100.03
3.40572	100.03
3.42238	100.04
3.43905	100.04
3.45572	100.04
3.47238	100.04
3.48905	100.04
3.50572	100.04
3.52238	100.04
3.53905	100.04
3.55572	100.04
3.57238	100.04
3.58905	100.04
3.60572	100.04
3.62238	100.04
3.63905	100.04
3.65572	100.04
3.67238	100.04
3.68905	100.05
3.70572	100.05
3.72238	100.04
3.73905	100.05
3.75572	100.05
3.77238	100.04
3.78905	100.05
3.80572	100.05
3.82238	100.05
3.83905	100.04
3.85572	100.05
3.87238	100.05
3.88905	100.05
3.90572	100.05
3.92238	100.05
3.93905	100.05
3.95572	100.05
3.97238	100.05
3.98905	100.05

[Status Trace (Carrier Gas Pressure)]
Interval(msec)	1000
# of Points	240
Start Time(min)	0.006
End Time(min)	3.989
Intensity Units	
Intensity Multiplier	1
R.Time (min)	Intensity
0.00572	58.00
0.02238	55.76
0.03905	56.75
0.05572	58.95
0.07238	59.76
0.08905	58.17
0.10572	57.97
0.12238	58.01
0.13905	58.01
0.15572	58.01
0.17238	58.00
0.18905	58.00
0.20572	58.00
0.22238	58.00
0.23905	58.00
0.25572	58.00
0.27238	58.00
0.28905	58.00
0.30572	58.00
0.32238	58.00
0.33905	58.00
0.35572	58.00
0.37238	58.00
0.38905	58.00
0.40572	58.00
0.42238	58.00
0.43905	58.00
0.45572	58.00
0.47238	58.00
0.48905	58.00
0.50572	58.00
0.52238	58.00
0.53905	58.00
0.55572	58.00
0.57238	58.00
0.58905	58.00
0.60572	58.00
0.62238	58.00
0.63905	58.00
0.65572	58.00
0.67238	58.00
0.68905	58.00
0.70572	58.00
0.72238	58.00
0.73905	58.00
0.75572	58.00
0.77238	58.00
0.78905	58.00
0.80572	58.00
0.82238	58.00
0.83905	58.00
0.85572	58.00
0.87238	58.00
0.88905	58.00
0.90572	58.00
0.92238	58.00
0.93905	58.00
0.95572	58.00
0.97238	58.00
0.98905	58.00
1.00572	58.00
1.02238	58.00
1.03905	58.00
1.05572	58.00
1.07238	58.00
1.08905	58.00
1.10572	58.00
1.12238	58.00
1.13905	58.00
1.15572	58.00
1.17238	58.00
1.18905	58.00
1.20572	58.00
1.22238	58.00
1.23905	58.00
1.25572	58.00
1.27238	58.00
1.28905	58.00
1.30572	58.00
1.32238	58.00
1.33905	58.00
1.35572	58.00
1.37238	58.00
1.38905	58.00
1.40572	58.00
1.42238	58.00
1.43905	58.00
1.45572	58.00
1.47238	58.00
1.48905	58.00
1.50572	58.00
1.52238	58.00
1.53905	58.00
1.55572	58.00
1.57238	58.00
1.58905	58.00
1.60572	58.00
1.62238	58.00
1.63905	58.00
1.65572	58.00
1.67238	58.01
1.68905	58.01
1.70572	58.00
1.72238	58.00
1.73905	58.00
1.75572	58.00
1.77238	58.00
1.78905	58.00
1.80572	58.00
1.82238	58.00
1.83905	58.00
1.85572	58.00
1.87238	58.00
1.88905	58.00
1.90572	58.00
1.92238	58.00
1.93905	58.00
1.95572	58.00
1.97238	58.00
1.98905	58.00
2.00572	58.00
2.02238	58.00
2.03905	58.00
2.05572	58.00
2.07238	58.00
2.08905	58.00
2.10572	58.00
2.12238	58.00
2.13905	58.00
2.15572	58.00
2.17238	58.00
2.18905	58.00
2.20572	58.00
2.22238	58.00
2.23905	58.00
2.25572	58.00
2.27238	58.00
2.28905	58.00
2.30572	58.00
2.32238	58.00
2.33905	58.00
2.35572	58.00
2.37238	58.00
2.38905	57.99
2.40572	57.99
2.42238	58.00
2.43905	58.00
2.45572	58.00
2.47238	58.00
2.48905	58.00
2.50572	58.00
2.52238	57.99
2.53905	58.00
2.55572	58.00
2.57238	58.00
2.58905	58.00
2.60572	58.00
2.62238	58.00
2.63905	58.00
2.65572	58.00
2.67238	58.00
2.68905	58.00
2.70572	58.00
2.72238	58.00
2.73905	58.00
2.75572	58.00
2.77238	58.00
2.78905	58.00
2.80572	58.00
2.82238	58.00
2.83905	58.00
2.85572	58.00
2.87238	58.00
2.88905	58.00
2.90572	58.00
2.92238	58.00
2.93905	58.00
2.95572	58.00
2.97238	58.00
2.98905	58.00
3.00572	58.00
3.02238	58.00
3.03905	58.00
3.05572	58.00
3.07238	58.00
3.08905	58.00
3.10572	58.00
3.12238	58.00
3.13905	58.00
3.15572	58.00
3.17238	58.00
3.18905	58.00
3.20572	58.00
3.22238	58.00
3.23905	58.00
3.25572	58.00
3.27238	58.00
3.28905	58.00
3.30572	58.00
3.32238	58.00
3.33905	58.00
3.35572	58.00
3.37238	58.00
3.38905	58.00
3.40572	58.00
3.42238	58.00
3.43905	58.00
3.45572	58.00
3.47238	58.00
3.48905	58.00
3.50572	58.00
3.52238	58.00
3.53905	58.00
3.55572	58.00
3.57238	58.00
3.58905	58.00
3.60572	58.00
3.62238	58.00
3.63905	58.00
3.65572	58.00
3.67238	58.00
3.68905	58.00
3.70572	58.00
3.72238	58.00
3.73905	58.00
3.75572	58.00
3.77238	58.00
3.78905	58.00
3.80572	58.00
3.82238	58.00
3.83905	58.00
3.85572	58.00
3.87238	58.00
3.88905	58.00
3.90572	58.00
3.92238	58.00
3.93905	58.00
3.95572	58.00
3.97238	58.00
3.98905	58.00

[Status Trace (Carrier Gas Flow)]
Interval(msec)	1000
# of Points	240
Start Time(min)	0.006
End Time(min)	3.989
Intensity Units	
Intensity Multiplier	1
R.Time (min)	Intensity
0.00572	34.52
0.02238	34.55
0.03905	34.54
0.05572	34.54
0.07238	34.49
0.08905	34.52
0.10572	34.52
0.12238	34.52
0.13905	34.52
0.15572	34.52
0.17238	34.52
0.18905	34.52
0.20572	34.52
0.22238	34.52
0.23905	34.52
0.25572	34.52
0.27238	34.52
0.28905	34.52
0.30572	34.52
0.32238	34.52
0.33905	34.52
0.35572	34.52
0.37238	34.52
0.38905	34.52
0.40572	34.52
0.42238	34.52
0.43905	34.52
0.45572	34.52
0.47238	34.52
0.48905	34.52
0.50572	34.52
0.52238	34.52
0.53905	34.52
0.55572	34.52
0.57238	34.52
0.58905	34.52
0.60572	34.52
0.62238	34.52
0.63905	34.52
0.65572	34.52
0.67238	34.52
0.68905	34.52
0.70572	34.52
0.72238	34.52
0.73905	34.52
0.75572	34.52
0.77238	34.52
0.78905	34.52
0.80572	34.52
0.82238	34.52
0.83905	34.52
0.85572	34.52
0.87238	34.52
0.88905	34.52
0.90572	34.52
0.92238	34.52
0.93905	34.52
0.95572	34.52
0.97238	34.52
0.98905	34.52
1.00572	34.52
1.02238	34.52
1.03905	34.52
1.05572	34.52
1.07238	34.52
1.08905	34.52
1.10572	34.52
1.12238	34.52
1.13905	34.52
1.15572	34.52
1.17238	34.52
1.18905	34.52
1.20572	34.52
1.22238	34.52
1.23905	34.52
1.25572	34.52
1.27238	34.52
1.28905	34.52
1.30572	34.52
1.32238	34.52
1.33905	34.52
1.35572	34.52
1.37238	34.52
1.38905	34.52
1.40572	34.52
1.42238	34.52
1.43905	34.52
1.45572	34.52
1.47238	34.52
1.48905	34.52
1.50572	34.52
1.52238	34.52
1.53905	34.52
1.55572	34.52
1.57238	34.52
1.58905	34.52
1.60572	34.52
1.62238	34.52
1.63905	34.52
1.65572	34.52
1.67238	34.52
1.68905	34.51
1.70572	34.52
1.72238	34.52
1.73905	34.52
1.75572	34.52
1.77238	34.52
1.78905	34.52
1.80572	34.52
1.82238	34.52
1.83905	34.52
1.85572	34.52
1.87238	34.52
1.88905	34.52
1.90572	34.52
1.92238	34.52
1.93905	34.52
1.95572	34.52
1.97238	34.52
1.98905	34.52
2.00572	34.52
2.02238	34.52
2.03905	34.52
2.05572	34.52
2.07238	34.52
2.08905	34.52
2.10572	34.52
2.12238	34.52
2.13905	34.52
2.15572	34.52
2.17238	34.52
2.18905	34.52
2.20572	34.52
2.22238	34.52
2.23905	34.52
2.25572	34.52
2.27238	34.52
2.28905	34.51
2.30572	34.52
2.32238	34.52
2.33905	34.52
2.35572	34.52
2.37238	34.52
2.38905	34.52
2.40572	34.52
2.42238	34.52
2.43905	34.52
2.45572	34.52
2.47238	34.52
2.48905	34.52
2.50572	34.52
2.52238	34.52
2.53905	34.52
2.55572	34.52
2.57238	34.52
2.58905	34.52
2.60572	34.52
2.62238	34.52
2.63905	34.52
2.65572	34.52
2.67238	34.52
2.68905	34.52
2.70572	34.52
2.72238	34.52
2.73905	34.52
2.75572	34.52
2.77238	34.52
2.78905	34.52
2.80572	34.52
2.82238	34.52
2.83905	34.52
2.85572	34.52
2.87238	34.52
2.88905	34.52
2.90572	34.52
2.92238	34.52
2.93905	34.52
2.95572	34.52
2.97238	34.52
2.98905	34.52
3.00572	34.52
3.02238	34.52
3.03905	34.52
3.05572	34.52
3.07238	34.52
3.08905	34.52
3.10572	34.52
3.12238	34.52
3.13905	34.52
3.15572	34.52
3.17238	34.52
3.18905	34.52
3.20572	34.51
3.22238	34.52
3.23905	34.52
3.25572	34.52
3.27238	34.52
3.28905	34.52
3.30572	34.52
3.32238	34.52
3.33905	34.52
3.35572	34.52
3.37238	34.52
3.38905	34.52
3.40572	34.52
3.42238	34.52
3.43905	34.52
3.45572	34.52
3.47238	34.52
3.48905	34.52
3.50572	34.52
3.52238	34.52
3.53905	34.52
3.55572	34.52
3.57238	34.52
3.58905	34.52
3.60572	34.52
3.62238	34.52
3.63905	34.52
3.65572	34.52
3.67238	34.52
3.68905	34.52
3.70572	34.52
3.72238	34.52
3.73905	34.52
3.75572	34.52
3.77238	34.52
3.78905	34.52
3.80572	34.52
3.82238	34.52
3.83905	34.52
3.85572	34.52
3.87238	34.52
3.88905	34.52
3.90572	34.52
3.92238	34.52
3.93905	34.52
3.95572	34.52
3.97238	34.52
3.98905	34.52

[Status Trace (Column Flow)]
Interval(msec)	1000
# of Points	240
Start Time(min)	0.006
End Time(min)	3.989
Intensity Units	
Intensity Multiplier	1
R.Time (min)	Intensity
0.00572	5.49
0.02238	5.24
0.03905	5.35
0.05572	5.60
0.07238	5.70
0.08905	5.51
0.10572	5.49
0.12238	5.50
0.13905	5.50
0.15572	5.50
0.17238	5.50
0.18905	5.50
0.20572	5.50
0.22238	5.50
0.23905	5.49
0.25572	5.49
0.27238	5.49
0.28905	5.49
0.30572	5.49
0.32238	5.49
0.33905	5.49
0.35572	5.49
0.37238	5.49
0.38905	5.49
0.40572	5.49
0.42238	5.49
0.43905	5.50
0.45572	5.49
0.47238	5.49
0.48905	5.50
0.50572	5.50
0.52238	5.49
0.53905	5.49
0.55572	5.49
0.57238	5.49
0.58905	5.49
0.60572	5.49
0.62238	5.49
0.63905	5.49
0.65572	5.49
0.67238	5.49
0.68905	5.49
0.70572	5.49
0.72238	5.49
0.73905	5.49
0.75572	5.49
0.77238	5.49
0.78905	5.49
0.80572	5.50
0.82238	5.50
0.83905	5.49
0.85572	5.49
0.87238	5.49
0.88905	5.49
0.90572	5.49
0.92238	5.49
0.93905	5.49
0.95572	5.49
0.97238	5.49
0.98905	5.49
1.00572	5.49
1.02238	5.49
1.03905	5.49
1.05572	5.49
1.07238	5.49
1.08905	5.49
1.10572	5.49
1.12238	5.49
1.13905	5.49
1.15572	5.49
1.17238	5.49
1.18905	5.49
1.20572	5.49
1.22238	5.49
1.23905	5.49
1.25572	5.50
1.27238	5.50
1.28905	5.50
1.30572	5.50
1.32238	5.50
1.33905	5.50
1.35572	5.49
1.37238	5.49
1.38905	5.49
1.40572	5.49
1.42238	5.49
1.43905	5.49
1.45572	5.49
1.47238	5.49
1.48905	5.49
1.50572	5.49
1.52238	5.49
1.53905	5.49
1.55572	5.49
1.57238	5.49
1.58905	5.49
1.60572	5.49
1.62238	5.49
1.63905	5.48
1.65572	5.48
1.67238	5.47
1.68905	5.46
1.70572	5.44
1.72238	5.43
1.73905	5.42
1.75572	5.41
1.77238	5.40
1.78905	5.39
1.80572	5.38
1.82238	5.37
1.83905	5.36
1.85572	5.35
1.87238	5.34
1.88905	5.33
1.90572	5.32
1.92238	5.31
1.93905	5.30
1.95572	5.29
1.97238	5.28
1.98905	5.28
2.00572	5.27
2.02238	5.26
2.03905	5.25
2.05572	5.24
2.07238	5.23
2.08905	5.22
2.10572	5.21
2.12238	5.20
2.13905	5.19
2.15572	5.18
2.17238	5.17
2.18905	5.16
2.20572	5.15
2.22238	5.14
2.23905	5.13
2.25572	5.13
2.27238	5.12
2.28905	5.11
2.30572	5.10
2.32238	5.09
2.33905	5.08
2.35572	5.07
2.37238	5.07
2.38905	5.06
2.40572	5.06
2.42238	5.06
2.43905	5.06
2.45572	5.06
2.47238	5.06
2.48905	5.06
2.50572	5.06
2.52238	5.06
2.53905	5.06
2.55572	5.06
2.57238	5.06
2.58905	5.06
2.60572	5.06
2.62238	5.06
2.63905	5.06
2.65572	5.06
2.67238	5.06
2.68905	5.06
2.70572	5.06
2.72238	5.06
2.73905	5.06
2.75572	5.06
2.77238	5.06
2.78905	5.06
2.80572	5.06
2.82238	5.06
2.83905	5.06
2.85572	5.06
2.87238	5.06
2.88905	5.06
2.90572	5.06
2.92238	5.06
2.93905	5.06
2.95572	5.06
2.97238	5.06
2.98905	5.05
3.00572	5.05
3.02238	5.05
3.03905	5.05
3.05572	5.05
3.07238	5.05
3.08905	5.05
3.10572	5.05
3.12238	5.05
3.13905	5.05
3.15572	5.05
3.17238	5.05
3.18905	5.05
3.20572	5.05
3.22238	5.05
3.23905	5.05
3.25572	5.05
3.27238	5.05
3.28905	5.05
3.30572	5.05
3.32238	5.05
3.33905	5.05
3.35572	5.05
3.37238	5.05
3.38905	5.05
3.40572	5.05
3.42238	5.05
3.43905	5.05
3.45572	5.05
3.47238	5.05
3.48905	5.05
3.50572	5.05
3.52238	5.05
3.53905	5.05
3.55572	5.05
3.57238	5.05
3.58905	5.05
3.60572	5.05
3.62238	5.05
3.63905	5.05
3.65572	5.05
3.67238	5.05
3.68905	5.05
3.70572	5.05
3.72238	5.05
3.73905	5.05
3.75572	5.05
3.77238	5.05
3.78905	5.05
3.80572	5.05
3.82238	5.05
3.83905	5.05
3.85572	5.05
3.87238	5.05
3.88905	5.05
3.90572	5.05
3.92238	5.05
3.93905	5.05
3.95572	5.05
3.97238	5.05
3.98905	5.05

[Status Trace (Linear Velocity)]
Interval(msec)	1000
# of Points	240
Start Time(min)	0.006
End Time(min)	3.989
Intensity Units	
Intensity Multiplier	1
R.Time (min)	Intensity
0.00572	39.01
0.02238	37.54
0.03905	38.19
0.05572	39.63
0.07238	40.16
0.08905	39.12
0.10572	38.99
0.12238	39.01
0.13905	39.02
0.15572	39.01
0.17238	39.01
0.18905	39.01
0.20572	39.01
0.22238	39.01
0.23905	39.01
0.25572	39.01
0.27238	39.01
0.28905	39.01
0.30572	39.01
0.32238	39.01
0.33905	39.01
0.35572	39.01
0.37238	39.01
0.38905	39.01
0.40572	39.01
0.42238	39.01
0.43905	39.01
0.45572	39.01
0.47238	39.01
0.48905	39.01
0.50572	39.01
0.52238	39.01
0.53905	39.01
0.55572	39.01
0.57238	39.01
0.58905	39.01
0.60572	39.01
0.62238	39.01
0.63905	39.01
0.65572	39.01
0.67238	39.01
0.68905	39.01
0.70572	39.01
0.72238	39.01
0.73905	39.01
0.75572	39.01
0.77238	39.01
0.78905	39.01
0.80572	39.01
0.82238	39.01
0.83905	39.01
0.85572	39.01
0.87238	39.01
0.88905	39.01
0.90572	39.01
0.92238	39.01
0.93905	39.01
0.95572	39.01
0.97238	39.01
0.98905	39.01
1.00572	39.01
1.02238	39.01
1.03905	39.01
1.05572	39.01
1.07238	39.01
1.08905	39.01
1.10572	39.01
1.12238	39.01
1.13905	39.01
1.15572	39.01
1.17238	39.01
1.18905	39.01
1.20572	39.01
1.22238	39.01
1.23905	39.01
1.25572	39.01
1.27238	39.01
1.28905	39.01
1.30572	39.01
1.32238	39.01
1.33905	39.01
1.35572	39.01
1.37238	39.01
1.38905	39.01
1.40572	39.01
1.42238	39.01
1.43905	39.01
1.45572	39.01
1.47238	39.01
1.48905	39.01
1.50572	39.01
1.52238	39.01
1.53905	39.01
1.55572	39.01
1.57238	39.01
1.58905	39.01
1.60572	39.01
1.62238	39.00
1.63905	38.98
1.65572	38.96
1.67238	38.93
1.68905	38.90
1.70572	38.86
1.72238	38.82
1.73905	38.79
1.75572	38.76
1.77238	38.73
1.78905	38.70
1.80572	38.67
1.82238	38.64
1.83905	38.60
1.85572	38.57
1.87238	38.54
1.88905	38.51
1.90572	38.48
1.92238	38.45
1.93905	38.42
1.95572	38.39
1.97238	38.36
1.98905	38.33
2.00572	38.30
2.02238	38.27
2.03905	38.24
2.05572	38.21
2.07238	38.18
2.08905	38.15
2.10572	38.12
2.12238	38.09
2.13905	38.06
2.15572	38.03
2.17238	38.01
2.18905	37.98
2.20572	37.95
2.22238	37.92
2.23905	37.88
2.25572	37.86
2.27238	37.83
2.28905	37.79
2.30572	37.77
2.32238	37.74
2.33905	37.71
2.35572	37.68
2.37238	37.66
2.38905	37.65
2.40572	37.65
2.42238	37.66
2.43905	37.66
2.45572	37.66
2.47238	37.66
2.48905	37.65
2.50572	37.65
2.52238	37.64
2.53905	37.65
2.55572	37.65
2.57238	37.65
2.58905	37.64
2.60572	37.64
2.62238	37.64
2.63905	37.64
2.65572	37.64
2.67238	37.64
2.68905	37.64
2.70572	37.64
2.72238	37.64
2.73905	37.64
2.75572	37.64
2.77238	37.64
2.78905	37.64
2.80572	37.64
2.82238	37.64
2.83905	37.64
2.85572	37.64
2.87238	37.64
2.88905	37.64
2.90572	37.63
2.92238	37.63
2.93905	37.63
2.95572	37.63
2.97238	37.63
2.98905	37.63
3.00572	37.63
3.02238	37.63
3.03905	37.63
3.05572	37.62
3.07238	37.62
3.08905	37.62
3.10572	37.62
3.12238	37.62
3.13905	37.62
3.15572	37.62
3.17238	37.62
3.18905	37.62
3.20572	37.62
3.22238	37.62
3.23905	37.62
3.25572	37.62
3.27238	37.62
3.28905	37.62
3.30572	37.62
3.32238	37.62
3.33905	37.62
3.35572	37.62
3.37238	37.62
3.38905	37.62
3.40572	37.62
3.42238	37.62
3.43905	37.62
3.45572	37.62
3.47238	37.62
3.48905	37.62
3.50572	37.62
3.52238	37.62
3.53905	37.62
3.55572	37.62
3.57238	37.62
3.58905	37.62
3.60572	37.62
3.62238	37.62
3.63905	37.62
3.65572	37.62
3.67238	37.62
3.68905	37.62
3.70572	37.62
3.72238	37.62
3.73905	37.62
3.75572	37.62
3.77238	37.62
3.78905	37.62
3.80572	37.62
3.82238	37.62
3.83905	37.62
3.85572	37.62
3.87238	37.62
3.88905	37.62
3.90572	37.62
3.92238	37.62
3.93905	37.62
3.95572	37.62
3.97238	37.62
3.98905	37.62

