[Header]
Application Name	LabSolutions
Version	5.110
Data File Name	C:\Users\User\Desktop\GC Analyses\Jack\UIC Prairie Sampling\9.16.22\220916_059.gcd
Output Date	11/29/2022
Output Time	11:10:19 AM

[File Information]
Type	Data File
Generated	11/15/2022 11:56:28 AM
Generated by	System Administrator
Modified	11/15/2022 12:00:51 PM
Modified by	System Administrator

[Sample Information]
Operator Name	System Administrator
Acquired	11/15/2022 11:56:50 AM
Sample Type	1:Standard
Level	1
Sample Name	220916_UICPrairie
Sample ID	220916_UICPrairie
ISTD Amount1	1
ISTD Amount2	1
ISTD Amount3	1
ISTD Amount4	1
ISTD Amount5	1
ISTD Amount6	1
ISTD Amount7	1
ISTD Amount8	1
ISTD Amount9	1
ISTD Amount10	1
ISTD Amount11	1
ISTD Amount12	1
ISTD Amount13	1
ISTD Amount14	1
ISTD Amount15	1
ISTD Amount16	1
ISTD Amount17	1
ISTD Amount18	1
ISTD Amount19	1
ISTD Amount20	1
ISTD Amount21	1
ISTD Amount22	1
ISTD Amount23	1
ISTD Amount24	1
ISTD Amount25	1
ISTD Amount26	1
ISTD Amount27	1
ISTD Amount28	1
ISTD Amount29	1
ISTD Amount30	1
ISTD Amount31	1
ISTD Amount32	1
Sample Amount	1
Dilution Factor	1
Vial#	1
Injection Volume	1
Injection Count	1
Bar Code	

[Original Files]
Data File	C:\Users\User\Desktop\GC Analyses\Jack\UIC Prairie Sampling\9.16.22\220916_059.gcd
Method File	C:\LabSolutions\Data\GHG_4min_2022\ghg3_togas_w_acet_4 min_new_int.gcm
Batch File	
Report Format File	c:\LabSolutions\System\DEFAULT.lsr

[File Description]


[Configuration]
Instrument Name	C0B7VH3-Instrument1
Instrument #	1
Line #	1
# of Detectors	3
Detector ID	DET#1	DET#2	DET#3
Detector Name	FID	PTCD	ECD
# of Channels	1	1	1

[Peak Table(Ch1)]
# of Peaks	3
Peak#	R.Time	I.Time	F.Time	Area	Height	A/H	Conc.	Mark	ID#	Name	k'	Plate #	Plate Ht.	Tailing	Resolution	Sep.Factor	Area Ratio	Height Ratio	Conc. %	Norm Conc.
1	1.479	1.424	1.538	13574	6061	2.240	100.000	   	1	CO	0.000	8339	17.988	1.185	0.000	0.000	0	0	16.667	16.667
2	1.571	1.538	1.637	4948	2465	2.007	100.000	 V 	2	CH4	0.062	11117	13.493	1.074	1.474	0.000	0	0	16.667	16.667
3	2.000	1.952	2.429	1860409	896139	2.076	400.000	   	3	CO2	0.352	17670	8.489	1.225	7.163	5.680	0	0	66.667	66.667

[Peak Table(Ch2)]
# of Peaks	0

[Peak Table(Ch3)]
# of Peaks	3
Peak#	R.Time	I.Time	F.Time	Area	Height	A/H	Conc.	Mark	ID#	Name	k'	Plate #	Plate Ht.	Tailing	Resolution	Sep.Factor	Area Ratio	Height Ratio	Conc. %	Norm Conc.
1	2.458	0.123	2.653	28627	515	55.581	0.000	   			0.000	47	3182.125	0.544	0.000	0.000	0	0	0.000	0.000
2	2.887	2.671	3.093	30701	5635	5.448	1.000	   	1	N2O	0.175	11020	13.611	0.000	0.556	0.000	0	0	50.000	50.000
3	3.122	3.093	3.965	18178	793	22.909	1.000	 V 	2	SF6	0.270	21	7218.343	0.000	0.165	1.547	0	0	50.000	50.000

[Compound Results(Ch1)]
# of IDs	6
ID#	Name	R.Time	Area	Height	Conc.	Curve	3rd	2nd	1st	Constant	Area Ratio	Height Ratio	Conc. %	Norm Conc.
1	CO	1.479	13574	6061	100.000	Linear	0.000000e+00	0.000000e+00	1.357426e+002	0.000000e+00	0	0	16.667	16.667
2	CH4	1.571	4948	2465	100.000	Linear	0.000000e+00	0.000000e+00	4.948405e+001	0.000000e+00	0	0	16.667	16.667
3	CO2	2.000	1860409	896139	400.000	Linear	0.000000e+00	0.000000e+00	4.651022e+003	0.000000e+00	0	0	66.667	66.667
4	Ethylene	0.000	0	0	0.000	Linear	0.000000e+00	0.000000e+00	0.000000e+00	0.000000e+00	0	0	0.000	0.000
5	Acetylene	0.000	0	0	0.000	Linear	0.000000e+00	0.000000e+00	0.000000e+00	0.000000e+00	0	0	0.000	0.000
6	Ethane	0.000	0	0	0.000	Linear	0.000000e+00	0.000000e+00	0.000000e+00	0.000000e+00	0	0	0.000	0.000

[Compound Results(Ch2)]
# of IDs	5
ID#	Name	R.Time	Area	Height	Conc.	Curve	3rd	2nd	1st	Constant	Area Ratio	Height Ratio	Conc. %	Norm Conc.
1	Hydrogen	0.000	0	0	0.000	Linear	0.000000e+00	0.000000e+00	0.000000e+00	0.000000e+00	0	0	0.000	0.000
2	Oxygen	0.000	0	0	0.000	Linear	0.000000e+00	0.000000e+00	0.000000e+00	0.000000e+00	0	0	0.000	0.000
3	Nitrogen	0.000	0	0	0.000	Linear	0.000000e+00	0.000000e+00	0.000000e+00	0.000000e+00	0	0	0.000	0.000
4	Methane	0.000	0	0	0.000	Linear	0.000000e+00	0.000000e+00	0.000000e+00	0.000000e+00	0	0	0.000	0.000
5	Carbon Monoxide	0.000	0	0	0.000	Linear	0.000000e+00	0.000000e+00	0.000000e+00	0.000000e+00	0	0	0.000	0.000

[Compound Results(Ch3)]
# of IDs	2
ID#	Name	R.Time	Area	Height	Conc.	Curve	3rd	2nd	1st	Constant	Area Ratio	Height Ratio	Conc. %	Norm Conc.
1	N2O	2.887	30701	5635	1.000	Linear	0.000000e+00	0.000000e+00	3.070113e+004	0.000000e+00	0	0	50.000	50.000
2	SF6	3.122	18178	793	1.000	Linear	0.000000e+00	0.000000e+00	1.817829e+004	0.000000e+00	0	0	50.000	50.000

[Group Results(Ch1)]
# of Groups	0

[Group Results(Ch2)]
# of Groups	0

[Group Results(Ch3)]
# of Groups	0

[Chromatogram (Ch1)]
Interval(msec)	220
# of Points	1091
Start Time(min)	0.002
End Time(min)	3.998
R.Time (min)	Intensity
0.00167	-18
0.00533	-24
0.00900	-30
0.01267	-36
0.01633	-42
0.02000	-53
0.02367	-70
0.02733	-87
0.03100	-100
0.03467	-108
0.03833	-112
0.04200	-116
0.04567	-117
0.04933	-111
0.05300	-105
0.05667	-100
0.06033	-100
0.06400	-101
0.06767	-100
0.07133	-99
0.07500	-102
0.07867	-108
0.08233	-114
0.08600	-116
0.08967	-116
0.09333	-117
0.09700	-120
0.10067	-123
0.10433	-127
0.10800	-131
0.11167	-134
0.11533	-137
0.11900	-138
0.12267	-141
0.12633	-143
0.13000	-145
0.13367	-148
0.13733	-151
0.14100	-154
0.14467	-153
0.14833	-150
0.15200	-145
0.15567	-139
0.15933	-137
0.16300	-141
0.16667	-149
0.17033	-157
0.17400	-163
0.17767	-164
0.18133	-163
0.18500	-159
0.18867	-156
0.19233	-155
0.19600	-151
0.19967	-146
0.20333	-142
0.20700	-141
0.21067	-141
0.21433	-144
0.21800	-149
0.22167	-154
0.22533	-152
0.22900	-146
0.23267	-141
0.23633	-138
0.24000	-137
0.24367	-138
0.24733	-145
0.25100	-156
0.25467	-166
0.25833	-172
0.26200	-176
0.26567	-177
0.26933	-174
0.27300	-171
0.27667	-168
0.28033	-164
0.28400	-159
0.28767	-157
0.29133	-161
0.29500	-164
0.29867	-163
0.30233	-159
0.30600	-156
0.30967	-153
0.31333	-149
0.31700	-145
0.32067	-146
0.32433	-151
0.32800	-158
0.33167	-163
0.33533	-162
0.33900	-156
0.34267	-148
0.34633	-145
0.35000	-144
0.35367	-146
0.35733	-147
0.36100	-147
0.36467	-146
0.36833	-145
0.37200	-146
0.37567	-148
0.37933	-150
0.38300	-149
0.38667	-150
0.39033	-155
0.39400	-161
0.39767	-167
0.40133	-171
0.40500	-173
0.40867	-176
0.41233	-178
0.41600	-178
0.41967	-177
0.42333	-176
0.42700	-178
0.43067	-179
0.43433	-179
0.43800	-177
0.44167	-172
0.44533	-167
0.44900	-161
0.45267	-154
0.45633	-152
0.46000	-155
0.46367	-164
0.46733	-173
0.47100	-179
0.47467	-181
0.47833	-182
0.48200	-181
0.48567	-180
0.48933	-177
0.49300	-172
0.49667	-167
0.50033	-164
0.50400	-163
0.50767	-162
0.51133	-159
0.51500	-159
0.51867	-163
0.52233	-169
0.52600	-175
0.52967	-177
0.53333	-177
0.53700	-176
0.54067	-176
0.54433	-175
0.54800	-172
0.55167	-169
0.55533	-168
0.55900	-169
0.56267	-171
0.56633	-173
0.57000	-175
0.57367	-180
0.57733	-187
0.58100	-188
0.58467	-184
0.58833	-179
0.59200	-179
0.59567	-183
0.59933	-190
0.60300	-193
0.60667	-191
0.61033	-187
0.61400	-182
0.61767	-176
0.62133	-174
0.62500	-174
0.62867	-175
0.63233	-176
0.63600	-180
0.63967	-182
0.64333	-183
0.64700	-183
0.65067	-182
0.65433	-185
0.65800	-188
0.66167	-189
0.66533	-187
0.66900	-184
0.67267	-180
0.67633	-177
0.68000	-178
0.68367	-185
0.68733	-192
0.69100	-197
0.69467	-197
0.69833	-192
0.70200	-186
0.70567	-180
0.70933	-177
0.71300	-176
0.71667	-177
0.72033	-182
0.72400	-192
0.72767	-199
0.73133	-203
0.73500	-203
0.73867	-199
0.74233	-194
0.74600	-192
0.74967	-190
0.75333	-189
0.75700	-187
0.76067	-184
0.76433	-178
0.76800	-172
0.77167	-168
0.77533	-167
0.77900	-169
0.78267	-169
0.78633	-169
0.79000	-171
0.79367	-175
0.79733	-178
0.80100	-178
0.80467	-174
0.80833	-163
0.81200	-152
0.81567	-147
0.81933	-149
0.82300	-157
0.82667	-170
0.83033	-180
0.83400	-185
0.83767	-185
0.84133	-180
0.84500	-174
0.84867	-174
0.85233	-183
0.85600	-193
0.85967	-196
0.86333	-193
0.86700	-190
0.87067	-189
0.87433	-190
0.87800	-190
0.88167	-189
0.88533	-188
0.88900	-187
0.89267	-186
0.89633	-184
0.90000	-184
0.90367	-185
0.90733	-185
0.91100	-186
0.91467	-188
0.91833	-192
0.92200	-196
0.92567	-197
0.92933	-194
0.93300	-190
0.93667	-188
0.94033	-187
0.94400	-186
0.94767	-186
0.95133	-188
0.95500	-189
0.95867	-189
0.96233	-188
0.96600	-187
0.96967	-185
0.97333	-183
0.97700	-184
0.98067	-186
0.98433	-191
0.98800	-195
0.99167	-199
0.99533	-201
0.99900	-200
1.00267	-199
1.00633	-199
1.01000	-196
1.01367	-190
1.01733	-183
1.02100	-177
1.02467	-172
1.02833	-169
1.03200	-169
1.03567	-172
1.03933	-177
1.04300	-179
1.04667	-176
1.05033	-173
1.05400	-174
1.05767	-178
1.06133	-185
1.06500	-190
1.06867	-192
1.07233	-193
1.07600	-192
1.07967	-192
1.08333	-195
1.08700	-199
1.09067	-203
1.09433	-203
1.09800	-200
1.10167	-196
1.10533	-192
1.10900	-190
1.11267	-187
1.11633	-184
1.12000	-182
1.12367	-183
1.12733	-187
1.13100	-191
1.13467	-194
1.13833	-196
1.14200	-194
1.14567	-191
1.14933	-190
1.15300	-188
1.15667	-187
1.16033	-189
1.16400	-194
1.16767	-198
1.17133	-202
1.17500	-207
1.17867	-211
1.18233	-211
1.18600	-208
1.18967	-206
1.19333	-206
1.19700	-208
1.20067	-207
1.20433	-203
1.20800	-201
1.21167	-202
1.21533	-201
1.21900	-199
1.22267	-198
1.22633	-198
1.23000	-202
1.23367	-206
1.23733	-208
1.24100	-207
1.24467	-201
1.24833	-197
1.25200	-193
1.25567	-189
1.25933	-189
1.26300	-192
1.26667	-195
1.27033	-198
1.27400	-197
1.27767	-197
1.28133	-198
1.28500	-198
1.28867	-199
1.29233	-201
1.29600	-205
1.29967	-211
1.30333	-217
1.30700	-219
1.31067	-217
1.31433	-214
1.31800	-212
1.32167	-210
1.32533	-205
1.32900	-200
1.33267	-198
1.33633	-196
1.34000	-193
1.34367	-192
1.34733	-193
1.35100	-196
1.35467	-198
1.35833	-202
1.36200	-207
1.36567	-212
1.36933	-215
1.37300	-217
1.37667	-217
1.38033	-216
1.38400	-215
1.38767	-213
1.39133	-209
1.39500	-205
1.39867	-201
1.40233	-199
1.40600	-200
1.40967	-203
1.41333	-208
1.41700	-213
1.42067	-213
1.42433	-207
1.42800	-201
1.43167	-196
1.43533	-194
1.43900	-189
1.44267	-145
1.44633	15
1.45000	328
1.45367	849
1.45733	1668
1.46100	2719
1.46467	3794
1.46833	4714
1.47200	5392
1.47567	5787
1.47933	5857
1.48300	5574
1.48667	4965
1.49033	4141
1.49400	3254
1.49767	2437
1.50133	1759
1.50500	1230
1.50867	836
1.51233	552
1.51600	348
1.51967	201
1.52333	99
1.52700	28
1.53067	-23
1.53433	-59
1.53800	-78
1.54167	-65
1.54533	28
1.54900	262
1.55267	647
1.55633	1113
1.56000	1561
1.56367	1924
1.56733	2168
1.57100	2268
1.57467	2194
1.57833	1947
1.58200	1580
1.58567	1176
1.58933	806
1.59300	505
1.59667	278
1.60033	116
1.60400	6
1.60767	-64
1.61133	-107
1.61500	-133
1.61867	-151
1.62233	-165
1.62600	-176
1.62967	-184
1.63333	-189
1.63700	-192
1.64067	-198
1.64433	-203
1.64800	-208
1.65167	-212
1.65533	-216
1.65900	-221
1.66267	-226
1.66633	-230
1.67000	-227
1.67367	-222
1.67733	-217
1.68100	-215
1.68467	-217
1.68833	-218
1.69200	-215
1.69567	-209
1.69933	-202
1.70300	-199
1.70667	-199
1.71033	-200
1.71400	-205
1.71767	-212
1.72133	-218
1.72500	-222
1.72867	-220
1.73233	-216
1.73600	-211
1.73967	-204
1.74333	-198
1.74700	-198
1.75067	-204
1.75433	-211
1.75800	-217
1.76167	-222
1.76533	-223
1.76900	-222
1.77267	-217
1.77633	-209
1.78000	-202
1.78367	-199
1.78733	-201
1.79100	-205
1.79467	-209
1.79833	-212
1.80200	-212
1.80567	-209
1.80933	-207
1.81300	-206
1.81667	-204
1.82033	-202
1.82400	-201
1.82767	-199
1.83133	-196
1.83500	-194
1.83867	-196
1.84233	-201
1.84600	-203
1.84967	-202
1.85333	-197
1.85700	-191
1.86067	-185
1.86433	-182
1.86800	-182
1.87167	-181
1.87533	-175
1.87900	-170
1.88267	-168
1.88633	-169
1.89000	-171
1.89367	-172
1.89733	-172
1.90100	-173
1.90467	-177
1.90833	-182
1.91200	-186
1.91567	-188
1.91933	-186
1.92300	-180
1.92667	-175
1.93033	-174
1.93400	-174
1.93767	-175
1.94133	-173
1.94500	-172
1.94867	-170
1.95233	-165
1.95600	-124
1.95967	146
1.96333	1614
1.96700	7784
1.97067	27479
1.97433	75835
1.97800	167940
1.98167	306153
1.98533	473222
1.98900	639797
1.99267	778020
1.99633	867375
2.00000	896003
2.00367	861574
2.00733	773395
2.01100	650526
2.01467	515988
2.01833	389467
2.02200	282767
2.02567	199701
2.02933	138650
2.03300	95549
2.03667	65929
2.04033	45909
2.04400	32485
2.04767	23489
2.05133	17418
2.05500	13271
2.05867	10394
2.06233	8359
2.06600	6886
2.06967	5796
2.07333	4968
2.07700	4324
2.08067	3814
2.08433	3399
2.08800	3055
2.09167	2767
2.09533	2525
2.09900	2317
2.10267	2140
2.10633	1989
2.11000	1858
2.11367	1740
2.11733	1633
2.12100	1538
2.12467	1451
2.12833	1367
2.13200	1288
2.13567	1218
2.13933	1156
2.14300	1102
2.14667	1049
2.15033	998
2.15400	950
2.15767	904
2.16133	861
2.16500	822
2.16867	790
2.17233	764
2.17600	736
2.17967	706
2.18333	678
2.18700	654
2.19067	636
2.19433	619
2.19800	601
2.20167	578
2.20533	558
2.20900	541
2.21267	524
2.21633	509
2.22000	494
2.22367	476
2.22733	459
2.23100	444
2.23467	431
2.23833	422
2.24200	418
2.24567	414
2.24933	411
2.25300	407
2.25667	401
2.26033	390
2.26400	372
2.26767	347
2.27133	323
2.27500	306
2.27867	295
2.28233	289
2.28600	284
2.28967	281
2.29333	278
2.29700	274
2.30067	273
2.30433	274
2.30800	270
2.31167	259
2.31533	247
2.31900	236
2.32267	226
2.32633	217
2.33000	211
2.33367	207
2.33733	206
2.34100	207
2.34467	207
2.34833	204
2.35200	195
2.35567	185
2.35933	180
2.36300	178
2.36667	177
2.37033	175
2.37400	173
2.37767	172
2.38133	173
2.38500	174
2.38867	176
2.39233	178
2.39600	177
2.39967	173
2.40333	165
2.40700	155
2.41067	144
2.41433	134
2.41800	127
2.42167	126
2.42533	125
2.42900	125
2.43267	122
2.43633	118
2.44000	116
2.44367	118
2.44733	123
2.45100	127
2.45467	127
2.45833	123
2.46200	120
2.46567	121
2.46933	123
2.47300	125
2.47667	123
2.48033	118
2.48400	112
2.48767	110
2.49133	111
2.49500	109
2.49867	105
2.50233	101
2.50600	100
2.50967	94
2.51333	87
2.51700	79
2.52067	76
2.52433	77
2.52800	80
2.53167	86
2.53533	91
2.53900	95
2.54267	99
2.54633	104
2.55000	110
2.55367	114
2.55733	111
2.56100	99
2.56467	85
2.56833	71
2.57200	62
2.57567	55
2.57933	51
2.58300	51
2.58667	56
2.59033	63
2.59400	71
2.59767	77
2.60133	78
2.60500	75
2.60867	71
2.61233	72
2.61600	72
2.61967	68
2.62333	64
2.62700	60
2.63067	56
2.63433	56
2.63800	64
2.64167	73
2.64533	79
2.64900	80
2.65267	75
2.65633	63
2.66000	61
2.66367	76
2.66733	88
2.67100	92
2.67467	85
2.67833	75
2.68200	71
2.68567	77
2.68933	78
2.69300	73
2.69667	64
2.70033	56
2.70400	50
2.70767	45
2.71133	44
2.71500	46
2.71867	51
2.72233	59
2.72600	67
2.72967	69
2.73333	69
2.73700	69
2.74067	70
2.74433	69
2.74800	65
2.75167	57
2.75533	51
2.75900	50
2.76267	55
2.76633	65
2.77000	75
2.77367	83
2.77733	85
2.78100	79
2.78467	67
2.78833	55
2.79200	47
2.79567	45
2.79933	47
2.80300	51
2.80667	56
2.81033	57
2.81400	58
2.81767	58
2.82133	60
2.82500	65
2.82867	72
2.83233	76
2.83600	78
2.83967	80
2.84333	82
2.84700	83
2.85067	80
2.85433	76
2.85800	70
2.86167	68
2.86533	69
2.86900	73
2.87267	79
2.87633	85
2.88000	90
2.88367	90
2.88733	85
2.89100	81
2.89467	82
2.89833	83
2.90200	83
2.90567	80
2.90933	76
2.91300	72
2.91667	69
2.92033	64
2.92400	61
2.92767	59
2.93133	55
2.93500	52
2.93867	49
2.94233	48
2.94600	51
2.94967	56
2.95333	61
2.95700	64
2.96067	68
2.96433	71
2.96800	72
2.97167	76
2.97533	85
2.97900	92
2.98267	98
2.98633	105
2.99000	108
2.99367	107
2.99733	102
3.00100	97
3.00467	97
3.00833	100
3.01200	104
3.01567	108
3.01933	113
3.02300	114
3.02667	108
3.03033	100
3.03400	93
3.03767	86
3.04133	80
3.04500	78
3.04867	80
3.05233	84
3.05600	87
3.05967	88
3.06333	88
3.06700	87
3.07067	84
3.07433	79
3.07800	74
3.08167	70
3.08533	68
3.08900	68
3.09267	71
3.09633	78
3.10000	85
3.10367	86
3.10733	81
3.11100	74
3.11467	68
3.11833	65
3.12200	62
3.12567	61
3.12933	60
3.13300	59
3.13667	58
3.14033	58
3.14400	61
3.14767	68
3.15133	77
3.15500	85
3.15867	91
3.16233	94
3.16600	91
3.16967	88
3.17333	87
3.17700	88
3.18067	88
3.18433	90
3.18800	92
3.19167	93
3.19533	93
3.19900	90
3.20267	84
3.20633	77
3.21000	71
3.21367	66
3.21733	63
3.22100	66
3.22467	72
3.22833	79
3.23200	87
3.23567	91
3.23933	90
3.24300	85
3.24667	77
3.25033	70
3.25400	67
3.25767	65
3.26133	67
3.26500	73
3.26867	82
3.27233	91
3.27600	96
3.27967	96
3.28333	94
3.28700	90
3.29067	88
3.29433	90
3.29800	93
3.30167	94
3.30533	93
3.30900	90
3.31267	88
3.31633	88
3.32000	87
3.32367	86
3.32733	85
3.33100	88
3.33467	92
3.33833	93
3.34200	92
3.34567	94
3.34933	99
3.35300	103
3.35667	103
3.36033	100
3.36400	98
3.36767	101
3.37133	105
3.37500	108
3.37867	108
3.38233	104
3.38600	99
3.38967	96
3.39333	94
3.39700	94
3.40067	95
3.40433	97
3.40800	98
3.41167	97
3.41533	95
3.41900	95
3.42267	96
3.42633	94
3.43000	92
3.43367	93
3.43733	98
3.44100	103
3.44467	107
3.44833	108
3.45200	109
3.45567	111
3.45933	111
3.46300	108
3.46667	104
3.47033	104
3.47400	108
3.47767	113
3.48133	116
3.48500	119
3.48867	118
3.49233	114
3.49600	110
3.49967	107
3.50333	101
3.50700	97
3.51067	95
3.51433	94
3.51800	94
3.52167	96
3.52533	101
3.52900	108
3.53267	112
3.53633	116
3.54000	122
3.54367	131
3.54733	136
3.55100	134
3.55467	130
3.55833	124
3.56200	118
3.56567	113
3.56933	109
3.57300	108
3.57667	108
3.58033	107
3.58400	105
3.58767	103
3.59133	101
3.59500	103
3.59867	109
3.60233	115
3.60600	119
3.60967	121
3.61333	122
3.61700	122
3.62067	123
3.62433	124
3.62800	125
3.63167	121
3.63533	114
3.63900	107
3.64267	102
3.64633	101
3.65000	102
3.65367	105
3.65733	108
3.66100	109
3.66467	107
3.66833	105
3.67200	104
3.67567	105
3.67933	108
3.68300	110
3.68667	107
3.69033	102
3.69400	98
3.69767	99
3.70133	105
3.70500	113
3.70867	119
3.71233	122
3.71600	126
3.71967	131
3.72333	130
3.72700	124
3.73067	116
3.73433	107
3.73800	97
3.74167	91
3.74533	89
3.74900	87
3.75267	88
3.75633	91
3.76000	94
3.76367	95
3.76733	97
3.77100	100
3.77467	102
3.77833	101
3.78200	98
3.78567	91
3.78933	83
3.79300	79
3.79667	81
3.80033	86
3.80400	92
3.80767	95
3.81133	94
3.81500	89
3.81867	86
3.82233	86
3.82600	84
3.82967	81
3.83333	77
3.83700	73
3.84067	73
3.84433	74
3.84800	75
3.85167	75
3.85533	77
3.85900	79
3.86267	80
3.86633	81
3.87000	84
3.87367	90
3.87733	94
3.88100	91
3.88467	85
3.88833	77
3.89200	70
3.89567	65
3.89933	64
3.90300	64
3.90667	62
3.91033	59
3.91400	56
3.91767	54
3.92133	51
3.92500	50
3.92867	48
3.93233	44
3.93600	41
3.93967	43
3.94333	48
3.94700	49
3.95067	49
3.95433	45
3.95800	39
3.96167	37
3.96533	38
3.96900	39
3.97267	39
3.97633	40
3.98000	38
3.98367	33
3.98733	29
3.99100	30
3.99467	34
3.99833	37

[Chromatogram (Ch2)]
Interval(msec)	220
# of Points	1091
Start Time(min)	0.002
End Time(min)	3.998
R.Time (min)	Intensity
0.00167	-0
0.00533	-0
0.00900	-0
0.01267	-0
0.01633	-1
0.02000	-1
0.02367	-1
0.02733	-1
0.03100	-1
0.03467	-1
0.03833	-1
0.04200	-1
0.04567	-1
0.04933	-0
0.05300	-0
0.05667	0
0.06033	1
0.06400	1
0.06767	1
0.07133	2
0.07500	2
0.07867	2
0.08233	2
0.08600	2
0.08967	2
0.09333	3
0.09700	3
0.10067	3
0.10433	3
0.10800	3
0.11167	2
0.11533	2
0.11900	2
0.12267	2
0.12633	2
0.13000	2
0.13367	2
0.13733	2
0.14100	2
0.14467	3
0.14833	3
0.15200	3
0.15567	3
0.15933	3
0.16300	2
0.16667	2
0.17033	2
0.17400	2
0.17767	2
0.18133	2
0.18500	2
0.18867	2
0.19233	3
0.19600	3
0.19967	3
0.20333	3
0.20700	3
0.21067	2
0.21433	2
0.21800	2
0.22167	2
0.22533	2
0.22900	1
0.23267	1
0.23633	1
0.24000	0
0.24367	0
0.24733	-0
0.25100	-0
0.25467	0
0.25833	0
0.26200	1
0.26567	1
0.26933	1
0.27300	1
0.27667	2
0.28033	2
0.28400	2
0.28767	2
0.29133	2
0.29500	2
0.29867	1
0.30233	1
0.30600	1
0.30967	1
0.31333	1
0.31700	1
0.32067	1
0.32433	0
0.32800	-0
0.33167	-0
0.33533	-0
0.33900	-1
0.34267	-1
0.34633	-0
0.35000	-0
0.35367	-0
0.35733	-1
0.36100	-1
0.36467	-0
0.36833	-0
0.37200	0
0.37567	1
0.37933	1
0.38300	1
0.38667	1
0.39033	2
0.39400	2
0.39767	2
0.40133	2
0.40500	2
0.40867	2
0.41233	2
0.41600	2
0.41967	2
0.42333	2
0.42700	2
0.43067	2
0.43433	1
0.43800	1
0.44167	1
0.44533	1
0.44900	2
0.45267	2
0.45633	2
0.46000	2
0.46367	2
0.46733	2
0.47100	2
0.47467	2
0.47833	2
0.48200	2
0.48567	2
0.48933	1
0.49300	1
0.49667	1
0.50033	1
0.50400	1
0.50767	1
0.51133	1
0.51500	1
0.51867	1
0.52233	1
0.52600	1
0.52967	1
0.53333	1
0.53700	0
0.54067	0
0.54433	0
0.54800	0
0.55167	0
0.55533	0
0.55900	0
0.56267	0
0.56633	0
0.57000	0
0.57367	0
0.57733	0
0.58100	0
0.58467	1
0.58833	1
0.59200	1
0.59567	1
0.59933	1
0.60300	1
0.60667	1
0.61033	1
0.61400	1
0.61767	1
0.62133	1
0.62500	1
0.62867	1
0.63233	1
0.63600	1
0.63967	0
0.64333	-0
0.64700	-0
0.65067	-1
0.65433	-1
0.65800	-1
0.66167	-1
0.66533	-2
0.66900	-2
0.67267	-2
0.67633	-2
0.68000	-2
0.68367	-2
0.68733	-1
0.69100	-1
0.69467	-1
0.69833	-1
0.70200	-1
0.70567	-1
0.70933	-1
0.71300	-1
0.71667	-1
0.72033	-1
0.72400	-1
0.72767	-1
0.73133	-1
0.73500	-1
0.73867	-1
0.74233	-1
0.74600	-2
0.74967	-2
0.75333	-2
0.75700	-1
0.76067	-1
0.76433	-1
0.76800	-1
0.77167	-1
0.77533	-0
0.77900	-0
0.78267	0
0.78633	0
0.79000	1
0.79367	1
0.79733	1
0.80100	2
0.80467	2
0.80833	2
0.81200	2
0.81567	2
0.81933	2
0.82300	2
0.82667	2
0.83033	1
0.83400	1
0.83767	1
0.84133	1
0.84500	1
0.84867	1
0.85233	0
0.85600	-0
0.85967	-1
0.86333	-1
0.86700	-2
0.87067	-2
0.87433	-2
0.87800	-3
0.88167	-3
0.88533	-3
0.88900	-3
0.89267	-4
0.89633	-4
0.90000	-4
0.90367	-4
0.90733	-4
0.91100	-4
0.91467	-4
0.91833	-3
0.92200	-3
0.92567	-3
0.92933	-3
0.93300	-2
0.93667	-2
0.94033	-2
0.94400	-2
0.94767	-2
0.95133	-2
0.95500	-2
0.95867	-2
0.96233	-2
0.96600	-2
0.96967	-2
0.97333	-2
0.97700	-1
0.98067	-1
0.98433	-0
0.98800	0
0.99167	1
0.99533	1
0.99900	1
1.00267	2
1.00633	2
1.01000	2
1.01367	3
1.01733	3
1.02100	3
1.02467	3
1.02833	3
1.03200	4
1.03567	4
1.03933	4
1.04300	4
1.04667	4
1.05033	4
1.05400	4
1.05767	4
1.06133	4
1.06500	4
1.06867	4
1.07233	4
1.07600	4
1.07967	3
1.08333	3
1.08700	3
1.09067	3
1.09433	3
1.09800	4
1.10167	4
1.10533	4
1.10900	4
1.11267	4
1.11633	4
1.12000	4
1.12367	4
1.12733	4
1.13100	4
1.13467	4
1.13833	4
1.14200	3
1.14567	3
1.14933	3
1.15300	2
1.15667	2
1.16033	2
1.16400	2
1.16767	2
1.17133	1
1.17500	1
1.17867	1
1.18233	1
1.18600	1
1.18967	1
1.19333	1
1.19700	1
1.20067	1
1.20433	1
1.20800	1
1.21167	1
1.21533	1
1.21900	1
1.22267	0
1.22633	0
1.23000	-0
1.23367	-0
1.23733	-0
1.24100	-1
1.24467	-1
1.24833	-0
1.25200	-0
1.25567	-0
1.25933	-0
1.26300	-0
1.26667	-0
1.27033	-0
1.27400	-0
1.27767	-0
1.28133	-0
1.28500	-0
1.28867	-0
1.29233	-0
1.29600	-0
1.29967	-0
1.30333	-0
1.30700	0
1.31067	0
1.31433	0
1.31800	1
1.32167	1
1.32533	1
1.32900	1
1.33267	1
1.33633	1
1.34000	1
1.34367	1
1.34733	1
1.35100	1
1.35467	1
1.35833	1
1.36200	1
1.36567	0
1.36933	0
1.37300	0
1.37667	0
1.38033	0
1.38400	0
1.38767	1
1.39133	0
1.39500	0
1.39867	0
1.40233	0
1.40600	0
1.40967	0
1.41333	0
1.41700	0
1.42067	0
1.42433	0
1.42800	0
1.43167	0
1.43533	0
1.43900	0
1.44267	0
1.44633	0
1.45000	0
1.45367	0
1.45733	0
1.46100	0
1.46467	0
1.46833	-0
1.47200	-0
1.47567	-1
1.47933	-1
1.48300	-1
1.48667	-1
1.49033	-1
1.49400	-1
1.49767	-2
1.50133	-2
1.50500	-2
1.50867	-2
1.51233	-2
1.51600	-2
1.51967	-2
1.52333	-2
1.52700	-2
1.53067	-2
1.53433	-2
1.53800	-2
1.54167	-1
1.54533	-1
1.54900	-1
1.55267	-1
1.55633	-1
1.56000	-2
1.56367	-2
1.56733	-2
1.57100	-2
1.57467	-2
1.57833	-2
1.58200	-2
1.58567	-2
1.58933	-2
1.59300	-3
1.59667	-3
1.60033	-4
1.60400	-6
1.60767	-7
1.61133	-9
1.61500	-11
1.61867	-14
1.62233	-16
1.62600	-19
1.62967	-23
1.63333	-26
1.63700	-30
1.64067	-33
1.64433	-37
1.64800	-41
1.65167	-44
1.65533	-47
1.65900	-50
1.66267	-53
1.66633	-56
1.67000	-59
1.67367	-63
1.67733	-67
1.68100	-71
1.68467	-76
1.68833	-81
1.69200	-85
1.69567	-90
1.69933	-94
1.70300	-98
1.70667	-101
1.71033	-103
1.71400	-106
1.71767	-108
1.72133	-109
1.72500	-111
1.72867	-111
1.73233	-112
1.73600	-112
1.73967	-112
1.74333	-112
1.74700	-112
1.75067	-112
1.75433	-111
1.75800	-111
1.76167	-111
1.76533	-112
1.76900	-112
1.77267	-114
1.77633	-115
1.78000	-116
1.78367	-117
1.78733	-118
1.79100	-118
1.79467	-119
1.79833	-118
1.80200	-118
1.80567	-118
1.80933	-119
1.81300	-119
1.81667	-119
1.82033	-119
1.82400	-119
1.82767	-119
1.83133	-119
1.83500	-119
1.83867	-119
1.84233	-119
1.84600	-120
1.84967	-120
1.85333	-120
1.85700	-120
1.86067	-120
1.86433	-120
1.86800	-119
1.87167	-119
1.87533	-119
1.87900	-118
1.88267	-118
1.88633	-118
1.89000	-118
1.89367	-119
1.89733	-120
1.90100	-120
1.90467	-120
1.90833	-120
1.91200	-119
1.91567	-118
1.91933	-117
1.92300	-116
1.92667	-116
1.93033	-115
1.93400	-115
1.93767	-114
1.94133	-114
1.94500	-114
1.94867	-114
1.95233	-114
1.95600	-113
1.95967	-113
1.96333	-112
1.96700	-112
1.97067	-112
1.97433	-112
1.97800	-112
1.98167	-112
1.98533	-113
1.98900	-112
1.99267	-112
1.99633	-112
2.00000	-112
2.00367	-112
2.00733	-112
2.01100	-112
2.01467	-112
2.01833	-112
2.02200	-112
2.02567	-111
2.02933	-111
2.03300	-111
2.03667	-110
2.04033	-109
2.04400	-109
2.04767	-108
2.05133	-108
2.05500	-108
2.05867	-108
2.06233	-108
2.06600	-108
2.06967	-107
2.07333	-107
2.07700	-106
2.08067	-106
2.08433	-106
2.08800	-106
2.09167	-105
2.09533	-105
2.09900	-104
2.10267	-104
2.10633	-104
2.11000	-104
2.11367	-104
2.11733	-104
2.12100	-103
2.12467	-103
2.12833	-102
2.13200	-102
2.13567	-102
2.13933	-102
2.14300	-102
2.14667	-102
2.15033	-102
2.15400	-102
2.15767	-102
2.16133	-101
2.16500	-101
2.16867	-100
2.17233	-100
2.17600	-99
2.17967	-99
2.18333	-98
2.18700	-98
2.19067	-98
2.19433	-97
2.19800	-97
2.20167	-96
2.20533	-95
2.20900	-95
2.21267	-95
2.21633	-94
2.22000	-94
2.22367	-94
2.22733	-93
2.23100	-93
2.23467	-92
2.23833	-92
2.24200	-92
2.24567	-92
2.24933	-92
2.25300	-91
2.25667	-91
2.26033	-91
2.26400	-91
2.26767	-90
2.27133	-90
2.27500	-90
2.27867	-89
2.28233	-88
2.28600	-87
2.28967	-86
2.29333	-86
2.29700	-85
2.30067	-85
2.30433	-85
2.30800	-85
2.31167	-85
2.31533	-86
2.31900	-86
2.32267	-86
2.32633	-86
2.33000	-86
2.33367	-86
2.33733	-86
2.34100	-85
2.34467	-84
2.34833	-83
2.35200	-82
2.35567	-81
2.35933	-80
2.36300	-79
2.36667	-79
2.37033	-78
2.37400	-77
2.37767	-75
2.38133	-73
2.38500	-70
2.38867	-67
2.39233	-63
2.39600	-59
2.39967	-55
2.40333	-50
2.40700	-45
2.41067	-40
2.41433	-35
2.41800	-30
2.42167	-26
2.42533	-23
2.42900	-20
2.43267	-17
2.43633	-14
2.44000	-12
2.44367	-10
2.44733	-9
2.45100	-7
2.45467	-6
2.45833	-5
2.46200	-4
2.46567	-3
2.46933	-2
2.47300	-1
2.47667	0
2.48033	2
2.48400	3
2.48767	5
2.49133	6
2.49500	7
2.49867	8
2.50233	8
2.50600	9
2.50967	10
2.51333	11
2.51700	12
2.52067	13
2.52433	14
2.52800	14
2.53167	15
2.53533	15
2.53900	15
2.54267	15
2.54633	15
2.55000	16
2.55367	16
2.55733	16
2.56100	17
2.56467	17
2.56833	16
2.57200	16
2.57567	17
2.57933	17
2.58300	17
2.58667	17
2.59033	17
2.59400	17
2.59767	17
2.60133	17
2.60500	16
2.60867	16
2.61233	16
2.61600	16
2.61967	16
2.62333	16
2.62700	17
2.63067	17
2.63433	18
2.63800	19
2.64167	20
2.64533	21
2.64900	21
2.65267	22
2.65633	22
2.66000	23
2.66367	23
2.66733	23
2.67100	24
2.67467	24
2.67833	24
2.68200	23
2.68567	23
2.68933	23
2.69300	23
2.69667	23
2.70033	23
2.70400	22
2.70767	22
2.71133	22
2.71500	22
2.71867	23
2.72233	23
2.72600	23
2.72967	23
2.73333	24
2.73700	24
2.74067	24
2.74433	25
2.74800	26
2.75167	26
2.75533	27
2.75900	27
2.76267	27
2.76633	27
2.77000	27
2.77367	27
2.77733	28
2.78100	28
2.78467	28
2.78833	28
2.79200	28
2.79567	28
2.79933	28
2.80300	28
2.80667	27
2.81033	27
2.81400	27
2.81767	26
2.82133	26
2.82500	26
2.82867	26
2.83233	25
2.83600	25
2.83967	25
2.84333	25
2.84700	24
2.85067	23
2.85433	20
2.85800	16
2.86167	9
2.86533	0
2.86900	-12
2.87267	-28
2.87633	-48
2.88000	-72
2.88367	-100
2.88733	-132
2.89100	-167
2.89467	-205
2.89833	-247
2.90200	-290
2.90567	-336
2.90933	-383
2.91300	-431
2.91667	-481
2.92033	-530
2.92400	-580
2.92767	-629
2.93133	-679
2.93500	-728
2.93867	-776
2.94233	-826
2.94600	-879
2.94967	-938
2.95333	-999
2.95700	-1053
2.96067	-1089
2.96433	-1099
2.96800	-1082
2.97167	-1042
2.97533	-983
2.97900	-912
2.98267	-834
2.98633	-753
2.99000	-673
2.99367	-596
2.99733	-524
3.00100	-458
3.00467	-397
3.00833	-343
3.01200	-295
3.01567	-253
3.01933	-216
3.02300	-184
3.02667	-156
3.03033	-132
3.03400	-111
3.03767	-93
3.04133	-78
3.04500	-64
3.04867	-53
3.05233	-43
3.05600	-35
3.05967	-28
3.06333	-22
3.06700	-17
3.07067	-13
3.07433	-9
3.07800	-6
3.08167	-3
3.08533	-0
3.08900	2
3.09267	3
3.09633	5
3.10000	6
3.10367	7
3.10733	9
3.11100	10
3.11467	11
3.11833	12
3.12200	13
3.12567	14
3.12933	15
3.13300	16
3.13667	17
3.14033	18
3.14400	19
3.14767	19
3.15133	20
3.15500	21
3.15867	21
3.16233	22
3.16600	23
3.16967	23
3.17333	23
3.17700	24
3.18067	24
3.18433	24
3.18800	24
3.19167	24
3.19533	25
3.19900	25
3.20267	24
3.20633	24
3.21000	25
3.21367	25
3.21733	25
3.22100	25
3.22467	24
3.22833	24
3.23200	24
3.23567	24
3.23933	24
3.24300	24
3.24667	24
3.25033	25
3.25400	25
3.25767	25
3.26133	25
3.26500	26
3.26867	26
3.27233	26
3.27600	27
3.27967	27
3.28333	27
3.28700	28
3.29067	28
3.29433	28
3.29800	28
3.30167	28
3.30533	28
3.30900	28
3.31267	28
3.31633	28
3.32000	28
3.32367	29
3.32733	29
3.33100	29
3.33467	29
3.33833	29
3.34200	28
3.34567	28
3.34933	28
3.35300	28
3.35667	28
3.36033	28
3.36400	28
3.36767	28
3.37133	28
3.37500	28
3.37867	27
3.38233	28
3.38600	28
3.38967	28
3.39333	28
3.39700	28
3.40067	28
3.40433	28
3.40800	28
3.41167	28
3.41533	28
3.41900	28
3.42267	28
3.42633	28
3.43000	28
3.43367	28
3.43733	27
3.44100	27
3.44467	27
3.44833	27
3.45200	27
3.45567	27
3.45933	27
3.46300	28
3.46667	27
3.47033	27
3.47400	27
3.47767	27
3.48133	27
3.48500	27
3.48867	27
3.49233	27
3.49600	27
3.49967	27
3.50333	27
3.50700	27
3.51067	27
3.51433	27
3.51800	27
3.52167	27
3.52533	27
3.52900	27
3.53267	27
3.53633	27
3.54000	27
3.54367	27
3.54733	27
3.55100	27
3.55467	27
3.55833	27
3.56200	27
3.56567	28
3.56933	28
3.57300	28
3.57667	28
3.58033	28
3.58400	28
3.58767	28
3.59133	28
3.59500	29
3.59867	29
3.60233	29
3.60600	29
3.60967	29
3.61333	29
3.61700	28
3.62067	28
3.62433	28
3.62800	28
3.63167	28
3.63533	28
3.63900	28
3.64267	28
3.64633	28
3.65000	28
3.65367	28
3.65733	29
3.66100	29
3.66467	29
3.66833	29
3.67200	29
3.67567	29
3.67933	29
3.68300	29
3.68667	29
3.69033	29
3.69400	29
3.69767	29
3.70133	29
3.70500	29
3.70867	29
3.71233	29
3.71600	29
3.71967	29
3.72333	29
3.72700	29
3.73067	29
3.73433	29
3.73800	29
3.74167	29
3.74533	29
3.74900	29
3.75267	29
3.75633	29
3.76000	29
3.76367	29
3.76733	29
3.77100	29
3.77467	29
3.77833	29
3.78200	29
3.78567	29
3.78933	29
3.79300	29
3.79667	29
3.80033	29
3.80400	29
3.80767	29
3.81133	29
3.81500	29
3.81867	29
3.82233	29
3.82600	29
3.82967	29
3.83333	29
3.83700	29
3.84067	29
3.84433	29
3.84800	29
3.85167	29
3.85533	29
3.85900	29
3.86267	29
3.86633	29
3.87000	29
3.87367	29
3.87733	29
3.88100	29
3.88467	29
3.88833	29
3.89200	29
3.89567	29
3.89933	29
3.90300	29
3.90667	28
3.91033	28
3.91400	28
3.91767	28
3.92133	28
3.92500	28
3.92867	29
3.93233	29
3.93600	29
3.93967	29
3.94333	29
3.94700	29
3.95067	28
3.95433	28
3.95800	28
3.96167	28
3.96533	28
3.96900	28
3.97267	27
3.97633	28
3.98000	28
3.98367	28
3.98733	27
3.99100	27
3.99467	28
3.99833	27

[Chromatogram (Ch3)]
Interval(msec)	220
# of Points	1091
Start Time(min)	0.002
End Time(min)	3.998
R.Time (min)	Intensity
0.00167	1
0.00533	1
0.00900	0
0.01267	-1
0.01633	-1
0.02000	-0
0.02367	2
0.02733	2
0.03100	1
0.03467	-2
0.03833	-2
0.04200	-2
0.04567	-2
0.04933	-2
0.05300	-4
0.05667	-5
0.06033	-4
0.06400	-3
0.06767	-5
0.07133	-8
0.07500	-6
0.07867	-3
0.08233	-4
0.08600	-5
0.08967	-6
0.09333	-6
0.09700	-6
0.10067	-6
0.10433	-6
0.10800	-6
0.11167	-5
0.11533	-4
0.11900	-1
0.12267	-0
0.12633	0
0.13000	3
0.13367	3
0.13733	2
0.14100	3
0.14467	5
0.14833	8
0.15200	8
0.15567	7
0.15933	9
0.16300	10
0.16667	9
0.17033	9
0.17400	7
0.17767	5
0.18133	4
0.18500	6
0.18867	7
0.19233	6
0.19600	6
0.19967	7
0.20333	6
0.20700	5
0.21067	6
0.21433	6
0.21800	7
0.22167	8
0.22533	8
0.22900	7
0.23267	9
0.23633	10
0.24000	10
0.24367	10
0.24733	10
0.25100	10
0.25467	9
0.25833	9
0.26200	8
0.26567	7
0.26933	7
0.27300	7
0.27667	8
0.28033	10
0.28400	11
0.28767	11
0.29133	11
0.29500	11
0.29867	9
0.30233	8
0.30600	7
0.30967	6
0.31333	5
0.31700	4
0.32067	5
0.32433	8
0.32800	10
0.33167	12
0.33533	14
0.33900	15
0.34267	16
0.34633	14
0.35000	12
0.35367	12
0.35733	12
0.36100	12
0.36467	13
0.36833	12
0.37200	10
0.37567	10
0.37933	12
0.38300	15
0.38667	15
0.39033	16
0.39400	17
0.39767	17
0.40133	18
0.40500	20
0.40867	19
0.41233	18
0.41600	18
0.41967	18
0.42333	17
0.42700	19
0.43067	20
0.43433	20
0.43800	20
0.44167	22
0.44533	23
0.44900	22
0.45267	21
0.45633	20
0.46000	17
0.46367	18
0.46733	20
0.47100	20
0.47467	19
0.47833	17
0.48200	16
0.48567	17
0.48933	17
0.49300	20
0.49667	23
0.50033	23
0.50400	22
0.50767	23
0.51133	24
0.51500	26
0.51867	27
0.52233	27
0.52600	29
0.52967	28
0.53333	26
0.53700	27
0.54067	31
0.54433	32
0.54800	33
0.55167	36
0.55533	38
0.55900	37
0.56267	36
0.56633	34
0.57000	32
0.57367	29
0.57733	30
0.58100	31
0.58467	29
0.58833	29
0.59200	31
0.59567	32
0.59933	30
0.60300	31
0.60667	32
0.61033	32
0.61400	33
0.61767	33
0.62133	32
0.62500	34
0.62867	35
0.63233	35
0.63600	36
0.63967	35
0.64333	34
0.64700	34
0.65067	35
0.65433	36
0.65800	37
0.66167	37
0.66533	38
0.66900	37
0.67267	36
0.67633	34
0.68000	33
0.68367	33
0.68733	34
0.69100	35
0.69467	34
0.69833	34
0.70200	34
0.70567	37
0.70933	41
0.71300	42
0.71667	41
0.72033	40
0.72400	40
0.72767	40
0.73133	39
0.73500	40
0.73867	39
0.74233	37
0.74600	37
0.74967	38
0.75333	38
0.75700	39
0.76067	40
0.76433	41
0.76800	41
0.77167	42
0.77533	44
0.77900	43
0.78267	42
0.78633	43
0.79000	46
0.79367	47
0.79733	48
0.80100	48
0.80467	48
0.80833	49
0.81200	49
0.81567	48
0.81933	48
0.82300	47
0.82667	47
0.83033	48
0.83400	47
0.83767	46
0.84133	46
0.84500	45
0.84867	44
0.85233	43
0.85600	41
0.85967	41
0.86333	40
0.86700	41
0.87067	39
0.87433	37
0.87800	39
0.88167	42
0.88533	44
0.88900	45
0.89267	45
0.89633	43
0.90000	44
0.90367	45
0.90733	48
0.91100	50
0.91467	52
0.91833	55
0.92200	56
0.92567	54
0.92933	53
0.93300	53
0.93667	53
0.94033	52
0.94400	50
0.94767	47
0.95133	49
0.95500	51
0.95867	51
0.96233	54
0.96600	56
0.96967	57
0.97333	57
0.97700	56
0.98067	56
0.98433	53
0.98800	51
0.99167	52
0.99533	53
0.99900	56
1.00267	56
1.00633	54
1.01000	51
1.01367	50
1.01733	52
1.02100	52
1.02467	52
1.02833	52
1.03200	52
1.03567	53
1.03933	52
1.04300	52
1.04667	54
1.05033	56
1.05400	58
1.05767	56
1.06133	55
1.06500	56
1.06867	55
1.07233	54
1.07600	54
1.07967	54
1.08333	55
1.08700	56
1.09067	58
1.09433	56
1.09800	56
1.10167	55
1.10533	54
1.10900	54
1.11267	54
1.11633	52
1.12000	53
1.12367	53
1.12733	54
1.13100	55
1.13467	55
1.13833	53
1.14200	51
1.14567	53
1.14933	55
1.15300	58
1.15667	59
1.16033	61
1.16400	61
1.16767	60
1.17133	58
1.17500	58
1.17867	56
1.18233	56
1.18600	56
1.18967	57
1.19333	57
1.19700	55
1.20067	55
1.20433	54
1.20800	55
1.21167	56
1.21533	57
1.21900	59
1.22267	58
1.22633	58
1.23000	57
1.23367	55
1.23733	53
1.24100	54
1.24467	57
1.24833	57
1.25200	58
1.25567	59
1.25933	61
1.26300	61
1.26667	62
1.27033	63
1.27400	62
1.27767	61
1.28133	61
1.28500	59
1.28867	60
1.29233	60
1.29600	60
1.29967	60
1.30333	56
1.30700	55
1.31067	55
1.31433	56
1.31800	56
1.32167	57
1.32533	58
1.32900	60
1.33267	61
1.33633	62
1.34000	64
1.34367	63
1.34733	62
1.35100	60
1.35467	59
1.35833	62
1.36200	64
1.36567	65
1.36933	65
1.37300	62
1.37667	62
1.38033	62
1.38400	59
1.38767	60
1.39133	61
1.39500	62
1.39867	63
1.40233	62
1.40600	62
1.40967	63
1.41333	64
1.41700	63
1.42067	63
1.42433	63
1.42800	63
1.43167	63
1.43533	63
1.43900	62
1.44267	63
1.44633	63
1.45000	62
1.45367	60
1.45733	59
1.46100	58
1.46467	57
1.46833	59
1.47200	62
1.47567	64
1.47933	66
1.48300	65
1.48667	63
1.49033	63
1.49400	64
1.49767	64
1.50133	64
1.50500	66
1.50867	64
1.51233	62
1.51600	61
1.51967	61
1.52333	62
1.52700	64
1.53067	62
1.53433	62
1.53800	59
1.54167	58
1.54533	60
1.54900	61
1.55267	60
1.55633	61
1.56000	61
1.56367	62
1.56733	61
1.57100	60
1.57467	57
1.57833	56
1.58200	59
1.58567	61
1.58933	62
1.59300	62
1.59667	64
1.60033	66
1.60400	67
1.60767	67
1.61133	66
1.61500	63
1.61867	62
1.62233	62
1.62600	63
1.62967	65
1.63333	65
1.63700	65
1.64067	64
1.64433	63
1.64800	63
1.65167	65
1.65533	67
1.65900	70
1.66267	71
1.66633	72
1.67000	73
1.67367	72
1.67733	73
1.68100	76
1.68467	77
1.68833	78
1.69200	76
1.69567	74
1.69933	76
1.70300	78
1.70667	80
1.71033	80
1.71400	80
1.71767	80
1.72133	80
1.72500	81
1.72867	83
1.73233	84
1.73600	86
1.73967	87
1.74333	89
1.74700	90
1.75067	89
1.75433	89
1.75800	90
1.76167	90
1.76533	90
1.76900	88
1.77267	86
1.77633	89
1.78000	90
1.78367	91
1.78733	93
1.79100	94
1.79467	93
1.79833	92
1.80200	92
1.80567	91
1.80933	91
1.81300	91
1.81667	91
1.82033	94
1.82400	95
1.82767	95
1.83133	95
1.83500	96
1.83867	98
1.84233	97
1.84600	97
1.84967	98
1.85333	99
1.85700	99
1.86067	101
1.86433	101
1.86800	100
1.87167	97
1.87533	96
1.87900	95
1.88267	94
1.88633	93
1.89000	95
1.89367	98
1.89733	101
1.90100	101
1.90467	99
1.90833	97
1.91200	97
1.91567	97
1.91933	96
1.92300	97
1.92667	98
1.93033	100
1.93400	102
1.93767	106
1.94133	108
1.94500	110
1.94867	108
1.95233	105
1.95600	105
1.95967	105
1.96333	105
1.96700	107
1.97067	108
1.97433	110
1.97800	111
1.98167	113
1.98533	115
1.98900	117
1.99267	117
1.99633	118
2.00000	117
2.00367	116
2.00733	115
2.01100	115
2.01467	117
2.01833	120
2.02200	122
2.02567	123
2.02933	124
2.03300	125
2.03667	124
2.04033	124
2.04400	125
2.04767	126
2.05133	126
2.05500	128
2.05867	130
2.06233	131
2.06600	131
2.06967	131
2.07333	132
2.07700	133
2.08067	133
2.08433	134
2.08800	135
2.09167	137
2.09533	139
2.09900	136
2.10267	134
2.10633	134
2.11000	136
2.11367	137
2.11733	139
2.12100	141
2.12467	141
2.12833	141
2.13200	142
2.13567	145
2.13933	147
2.14300	149
2.14667	151
2.15033	152
2.15400	151
2.15767	149
2.16133	149
2.16500	150
2.16867	153
2.17233	157
2.17600	158
2.17967	157
2.18333	156
2.18700	156
2.19067	156
2.19433	155
2.19800	154
2.20167	156
2.20533	158
2.20900	159
2.21267	159
2.21633	159
2.22000	159
2.22367	160
2.22733	160
2.23100	161
2.23467	163
2.23833	164
2.24200	164
2.24567	165
2.24933	166
2.25300	167
2.25667	167
2.26033	165
2.26400	163
2.26767	163
2.27133	163
2.27500	163
2.27867	164
2.28233	164
2.28600	162
2.28967	160
2.29333	161
2.29700	163
2.30067	165
2.30433	168
2.30800	171
2.31167	173
2.31533	175
2.31900	177
2.32267	175
2.32633	175
2.33000	175
2.33367	176
2.33733	176
2.34100	175
2.34467	175
2.34833	175
2.35200	178
2.35567	180
2.35933	183
2.36300	184
2.36667	184
2.37033	183
2.37400	181
2.37767	179
2.38133	177
2.38500	176
2.38867	175
2.39233	176
2.39600	177
2.39967	179
2.40333	182
2.40700	184
2.41067	187
2.41433	189
2.41800	190
2.42167	189
2.42533	191
2.42900	194
2.43267	196
2.43633	194
2.44000	194
2.44367	207
2.44733	239
2.45100	275
2.45467	301
2.45833	305
2.46200	291
2.46567	275
2.46933	263
2.47300	254
2.47667	244
2.48033	230
2.48400	215
2.48767	200
2.49133	188
2.49500	179
2.49867	174
2.50233	169
2.50600	166
2.50967	164
2.51333	166
2.51700	168
2.52067	167
2.52433	167
2.52800	167
2.53167	163
2.53533	154
2.53900	145
2.54267	133
2.54633	125
2.55000	118
2.55367	113
2.55733	110
2.56100	108
2.56467	106
2.56833	103
2.57200	103
2.57567	101
2.57933	98
2.58300	95
2.58667	93
2.59033	94
2.59400	96
2.59767	99
2.60133	100
2.60500	95
2.60867	81
2.61233	60
2.61600	32
2.61967	0
2.62333	-34
2.62700	-69
2.63067	-105
2.63433	-137
2.63800	-166
2.64167	-189
2.64533	-207
2.64900	-220
2.65267	-228
2.65633	-234
2.66000	-235
2.66367	-233
2.66733	-232
2.67100	-228
2.67467	-222
2.67833	-211
2.68200	-198
2.68567	-187
2.68933	-178
2.69300	-170
2.69667	-162
2.70033	-152
2.70400	-144
2.70767	-135
2.71133	-126
2.71500	-118
2.71867	-110
2.72233	-99
2.72600	-90
2.72967	-83
2.73333	-78
2.73700	-74
2.74067	-69
2.74433	-62
2.74800	-57
2.75167	-52
2.75533	-46
2.75900	-42
2.76267	-40
2.76633	-37
2.77000	-35
2.77367	-32
2.77733	-29
2.78100	-27
2.78467	-23
2.78833	-21
2.79200	-21
2.79567	-19
2.79933	-16
2.80300	-11
2.80667	-9
2.81033	-8
2.81400	-8
2.81767	-7
2.82133	-2
2.82500	6
2.82867	20
2.83233	46
2.83600	100
2.83967	200
2.84333	346
2.84700	571
2.85067	930
2.85433	1432
2.85800	2038
2.86167	2694
2.86533	3359
2.86900	3992
2.87267	4553
2.87633	5005
2.88000	5316
2.88367	5473
2.88733	5480
2.89100	5361
2.89467	5143
2.89833	4857
2.90200	4530
2.90567	4178
2.90933	3824
2.91300	3484
2.91667	3163
2.92033	2865
2.92400	2592
2.92767	2348
2.93133	2131
2.93500	1937
2.93867	1766
2.94233	1619
2.94600	1489
2.94967	1377
2.95333	1279
2.95700	1197
2.96067	1127
2.96433	1067
2.96800	1014
2.97167	967
2.97533	927
2.97900	893
2.98267	862
2.98633	834
2.99000	812
2.99367	792
2.99733	776
3.00100	762
3.00467	752
3.00833	745
3.01200	739
3.01567	731
3.01933	724
3.02300	718
3.02667	714
3.03033	712
3.03400	708
3.03767	706
3.04133	701
3.04500	696
3.04867	692
3.05233	691
3.05600	692
3.05967	693
3.06333	694
3.06700	695
3.07067	696
3.07433	697
3.07800	698
3.08167	700
3.08533	702
3.08900	701
3.09267	700
3.09633	701
3.10000	703
3.10367	705
3.10733	709
3.11100	712
3.11467	715
3.11833	717
3.12200	719
3.12567	720
3.12933	721
3.13300	720
3.13667	718
3.14033	717
3.14400	716
3.14767	715
3.15133	714
3.15500	714
3.15867	714
3.16233	713
3.16600	711
3.16967	711
3.17333	708
3.17700	705
3.18067	701
3.18433	699
3.18800	695
3.19167	693
3.19533	691
3.19900	688
3.20267	687
3.20633	684
3.21000	681
3.21367	675
3.21733	670
3.22100	665
3.22467	662
3.22833	659
3.23200	656
3.23567	651
3.23933	649
3.24300	648
3.24667	646
3.25033	645
3.25400	641
3.25767	635
3.26133	630
3.26500	626
3.26867	621
3.27233	616
3.27600	611
3.27967	607
3.28333	605
3.28700	601
3.29067	599
3.29433	597
3.29800	594
3.30167	591
3.30533	591
3.30900	590
3.31267	588
3.31633	583
3.32000	577
3.32367	572
3.32733	567
3.33100	563
3.33467	559
3.33833	557
3.34200	556
3.34567	555
3.34933	552
3.35300	547
3.35667	543
3.36033	539
3.36400	535
3.36767	532
3.37133	527
3.37500	522
3.37867	516
3.38233	511
3.38600	506
3.38967	500
3.39333	498
3.39700	496
3.40067	491
3.40433	487
3.40800	483
3.41167	477
3.41533	470
3.41900	465
3.42267	461
3.42633	457
3.43000	454
3.43367	453
3.43733	450
3.44100	444
3.44467	438
3.44833	433
3.45200	431
3.45567	427
3.45933	422
3.46300	415
3.46667	409
3.47033	405
3.47400	403
3.47767	399
3.48133	395
3.48500	391
3.48867	389
3.49233	388
3.49600	386
3.49967	382
3.50333	378
3.50700	374
3.51067	373
3.51433	370
3.51800	366
3.52167	362
3.52533	360
3.52900	358
3.53267	356
3.53633	354
3.54000	350
3.54367	347
3.54733	346
3.55100	345
3.55467	341
3.55833	338
3.56200	333
3.56567	329
3.56933	326
3.57300	323
3.57667	321
3.58033	320
3.58400	318
3.58767	314
3.59133	310
3.59500	308
3.59867	306
3.60233	305
3.60600	305
3.60967	302
3.61333	301
3.61700	299
3.62067	296
3.62433	291
3.62800	286
3.63167	283
3.63533	280
3.63900	279
3.64267	279
3.64633	277
3.65000	278
3.65367	277
3.65733	275
3.66100	272
3.66467	268
3.66833	266
3.67200	264
3.67567	265
3.67933	264
3.68300	262
3.68667	260
3.69033	261
3.69400	262
3.69767	259
3.70133	256
3.70500	252
3.70867	251
3.71233	250
3.71600	248
3.71967	247
3.72333	246
3.72700	245
3.73067	243
3.73433	240
3.73800	237
3.74167	233
3.74533	230
3.74900	230
3.75267	231
3.75633	231
3.76000	230
3.76367	228
3.76733	227
3.77100	228
3.77467	229
3.77833	232
3.78200	231
3.78567	229
3.78933	228
3.79300	227
3.79667	224
3.80033	221
3.80400	221
3.80767	221
3.81133	220
3.81500	220
3.81867	219
3.82233	217
3.82600	215
3.82967	215
3.83333	215
3.83700	214
3.84067	214
3.84433	214
3.84800	213
3.85167	213
3.85533	214
3.85900	215
3.86267	215
3.86633	215
3.87000	215
3.87367	216
3.87733	216
3.88100	216
3.88467	216
3.88833	214
3.89200	215
3.89567	215
3.89933	213
3.90300	212
3.90667	213
3.91033	213
3.91400	214
3.91767	212
3.92133	210
3.92500	208
3.92867	207
3.93233	207
3.93600	209
3.93967	210
3.94333	210
3.94700	212
3.95067	213
3.95433	213
3.95800	213
3.96167	213
3.96533	213
3.96900	214
3.97267	215
3.97633	216
3.98000	215
3.98367	213
3.98733	211
3.99100	209
3.99467	208
3.99833	208

[Status Trace (Column Oven Temperature)]
Interval(msec)	1000
# of Points	240
Start Time(min)	0.002
End Time(min)	3.985
Intensity Units	
Intensity Multiplier	1
R.Time (min)	Intensity
0.00187	35.00
0.01853	35.01
0.03520	35.02
0.05187	35.02
0.06853	35.01
0.08520	35.01
0.10187	35.01
0.11853	35.00
0.13520	35.01
0.15187	35.01
0.16853	35.00
0.18520	34.99
0.20187	34.98
0.21853	34.99
0.23520	35.00
0.25187	35.00
0.26853	35.00
0.28520	35.00
0.30187	34.99
0.31853	34.99
0.33520	35.00
0.35187	34.99
0.36853	35.00
0.38520	34.99
0.40187	34.97
0.41853	34.97
0.43520	34.98
0.45187	34.98
0.46853	34.98
0.48520	34.98
0.50187	34.98
0.51853	34.98
0.53520	34.98
0.55187	34.98
0.56853	34.98
0.58520	34.98
0.60187	34.98
0.61853	34.98
0.63520	34.98
0.65187	34.98
0.66853	34.99
0.68520	35.00
0.70187	35.00
0.71853	35.00
0.73520	35.01
0.75187	35.01
0.76853	35.01
0.78520	35.00
0.80187	35.00
0.81853	35.00
0.83520	35.00
0.85187	35.01
0.86853	35.02
0.88520	35.05
0.90187	35.06
0.91853	35.08
0.93520	35.08
0.95187	35.07
0.96853	35.07
0.98520	35.06
1.00187	35.04
1.01853	35.03
1.03520	35.01
1.05187	34.99
1.06853	34.98
1.08520	34.99
1.10187	34.98
1.11853	34.98
1.13520	34.97
1.15187	34.97
1.16853	34.97
1.18520	34.97
1.20187	34.97
1.21853	34.97
1.23520	34.98
1.25187	34.98
1.26853	34.98
1.28520	34.98
1.30187	34.97
1.31853	34.97
1.33520	34.96
1.35187	34.96
1.36853	34.97
1.38520	34.97
1.40187	34.98
1.41853	34.98
1.43520	34.99
1.45187	34.98
1.46853	34.97
1.48520	34.98
1.50187	34.99
1.51853	34.98
1.53520	34.99
1.55187	35.00
1.56853	35.00
1.58520	35.01
1.60187	35.05
1.61853	35.16
1.63520	35.35
1.65187	35.56
1.66853	35.83
1.68520	36.19
1.70187	36.57
1.71853	36.92
1.73520	37.24
1.75187	37.55
1.76853	37.89
1.78520	38.23
1.80187	38.56
1.81853	38.89
1.83520	39.22
1.85187	39.56
1.86853	39.88
1.88520	40.20
1.90187	40.54
1.91853	40.85
1.93520	41.18
1.95187	41.50
1.96853	41.83
1.98520	42.16
2.00187	42.48
2.01853	42.80
2.03520	43.12
2.05187	43.47
2.06853	43.79
2.08520	44.12
2.10187	44.45
2.11853	44.77
2.13520	45.11
2.15187	45.44
2.16853	45.75
2.18520	46.09
2.20187	46.39
2.21853	46.71
2.23520	47.04
2.25187	47.38
2.26853	47.72
2.28520	48.04
2.30187	48.37
2.31853	48.72
2.33520	49.06
2.35187	49.32
2.36853	49.55
2.38520	49.66
2.40187	49.68
2.41853	49.66
2.43520	49.68
2.45187	49.70
2.46853	49.72
2.48520	49.72
2.50187	49.74
2.51853	49.74
2.53520	49.76
2.55187	49.76
2.56853	49.78
2.58520	49.79
2.60187	49.83
2.61853	49.85
2.63520	49.85
2.65187	49.84
2.66853	49.85
2.68520	49.86
2.70187	49.88
2.71853	49.90
2.73520	49.89
2.75187	49.88
2.76853	49.87
2.78520	49.88
2.80187	49.89
2.81853	49.90
2.83520	49.92
2.85187	49.94
2.86853	49.96
2.88520	49.96
2.90187	49.96
2.91853	49.97
2.93520	49.99
2.95187	50.00
2.96853	50.00
2.98520	50.00
3.00187	50.01
3.01853	50.03
3.03520	50.05
3.05187	50.07
3.06853	50.09
3.08520	50.10
3.10187	50.11
3.11853	50.12
3.13520	50.10
3.15187	50.08
3.16853	50.06
3.18520	50.06
3.20187	50.07
3.21853	50.08
3.23520	50.08
3.25187	50.08
3.26853	50.07
3.28520	50.06
3.30187	50.06
3.31853	50.05
3.33520	50.05
3.35187	50.05
3.36853	50.05
3.38520	50.04
3.40187	50.04
3.41853	50.04
3.43520	50.05
3.45187	50.05
3.46853	50.06
3.48520	50.06
3.50187	50.06
3.51853	50.06
3.53520	50.06
3.55187	50.07
3.56853	50.07
3.58520	50.06
3.60187	50.07
3.61853	50.08
3.63520	50.08
3.65187	50.08
3.66853	50.08
3.68520	50.09
3.70187	50.09
3.71853	50.09
3.73520	50.09
3.75187	50.09
3.76853	50.09
3.78520	50.09
3.80187	50.08
3.81853	50.08
3.83520	50.08
3.85187	50.08
3.86853	50.07
3.88520	50.06
3.90187	50.06
3.91853	50.06
3.93520	50.06
3.95187	50.07
3.96853	50.07
3.98520	50.08

[Status Trace (Injection Unit Temperature)]
Interval(msec)	1000
# of Points	240
Start Time(min)	0.002
End Time(min)	3.985
Intensity Units	
Intensity Multiplier	1
R.Time (min)	Intensity
0.00187	99.98
0.01853	99.99
0.03520	99.99
0.05187	99.99
0.06853	99.99
0.08520	99.99
0.10187	99.98
0.11853	99.98
0.13520	99.99
0.15187	99.99
0.16853	99.98
0.18520	99.99
0.20187	99.99
0.21853	99.99
0.23520	99.98
0.25187	99.99
0.26853	99.98
0.28520	99.98
0.30187	99.99
0.31853	99.99
0.33520	99.99
0.35187	99.98
0.36853	99.99
0.38520	99.98
0.40187	99.98
0.41853	99.98
0.43520	99.98
0.45187	99.98
0.46853	99.99
0.48520	99.98
0.50187	99.98
0.51853	99.98
0.53520	99.98
0.55187	99.98
0.56853	99.98
0.58520	99.98
0.60187	99.98
0.61853	99.98
0.63520	99.98
0.65187	99.98
0.66853	99.98
0.68520	99.98
0.70187	99.98
0.71853	99.97
0.73520	99.98
0.75187	99.98
0.76853	99.98
0.78520	99.98
0.80187	99.98
0.81853	99.98
0.83520	99.98
0.85187	99.97
0.86853	99.98
0.88520	99.98
0.90187	99.98
0.91853	99.98
0.93520	99.98
0.95187	99.98
0.96853	99.97
0.98520	99.98
1.00187	99.97
1.01853	99.98
1.03520	99.98
1.05187	99.98
1.06853	99.98
1.08520	99.98
1.10187	99.98
1.11853	99.98
1.13520	99.98
1.15187	99.98
1.16853	99.97
1.18520	99.98
1.20187	99.98
1.21853	99.98
1.23520	99.98
1.25187	99.97
1.26853	99.98
1.28520	99.98
1.30187	99.97
1.31853	99.98
1.33520	99.97
1.35187	99.98
1.36853	99.98
1.38520	99.98
1.40187	99.98
1.41853	99.98
1.43520	99.98
1.45187	99.98
1.46853	99.98
1.48520	99.98
1.50187	99.98
1.51853	99.98
1.53520	99.98
1.55187	99.98
1.56853	99.98
1.58520	99.98
1.60187	99.98
1.61853	99.98
1.63520	99.98
1.65187	99.98
1.66853	99.98
1.68520	99.99
1.70187	99.98
1.71853	99.98
1.73520	99.98
1.75187	99.98
1.76853	99.98
1.78520	99.97
1.80187	99.98
1.81853	99.98
1.83520	99.98
1.85187	99.98
1.86853	99.98
1.88520	99.98
1.90187	99.98
1.91853	99.98
1.93520	99.98
1.95187	99.98
1.96853	99.97
1.98520	99.97
2.00187	99.97
2.01853	99.97
2.03520	99.98
2.05187	99.97
2.06853	99.97
2.08520	99.97
2.10187	99.97
2.11853	99.97
2.13520	99.97
2.15187	99.97
2.16853	99.97
2.18520	99.97
2.20187	99.97
2.21853	99.98
2.23520	99.97
2.25187	99.97
2.26853	99.97
2.28520	99.97
2.30187	99.97
2.31853	99.97
2.33520	99.97
2.35187	99.97
2.36853	99.97
2.38520	99.97
2.40187	99.97
2.41853	99.97
2.43520	99.97
2.45187	99.97
2.46853	99.98
2.48520	99.97
2.50187	99.97
2.51853	99.97
2.53520	99.98
2.55187	99.97
2.56853	99.98
2.58520	99.98
2.60187	99.98
2.61853	99.98
2.63520	99.98
2.65187	99.98
2.66853	99.98
2.68520	99.99
2.70187	99.98
2.71853	99.98
2.73520	99.98
2.75187	99.99
2.76853	99.99
2.78520	99.99
2.80187	99.99
2.81853	99.99
2.83520	99.99
2.85187	100.00
2.86853	100.00
2.88520	99.99
2.90187	100.00
2.91853	100.00
2.93520	100.00
2.95187	100.01
2.96853	100.01
2.98520	100.00
3.00187	100.01
3.01853	100.01
3.03520	100.01
3.05187	100.01
3.06853	100.01
3.08520	100.01
3.10187	100.01
3.11853	100.01
3.13520	100.01
3.15187	100.01
3.16853	100.01
3.18520	100.02
3.20187	100.02
3.21853	100.02
3.23520	100.02
3.25187	100.02
3.26853	100.03
3.28520	100.03
3.30187	100.03
3.31853	100.03
3.33520	100.03
3.35187	100.03
3.36853	100.03
3.38520	100.03
3.40187	100.03
3.41853	100.03
3.43520	100.04
3.45187	100.03
3.46853	100.03
3.48520	100.04
3.50187	100.04
3.51853	100.04
3.53520	100.04
3.55187	100.04
3.56853	100.04
3.58520	100.04
3.60187	100.04
3.61853	100.04
3.63520	100.04
3.65187	100.04
3.66853	100.05
3.68520	100.05
3.70187	100.05
3.71853	100.05
3.73520	100.05
3.75187	100.05
3.76853	100.05
3.78520	100.05
3.80187	100.05
3.81853	100.05
3.83520	100.05
3.85187	100.05
3.86853	100.05
3.88520	100.05
3.90187	100.05
3.91853	100.05
3.93520	100.05
3.95187	100.05
3.96853	100.05
3.98520	100.06

[Status Trace (Carrier Gas Pressure)]
Interval(msec)	1000
# of Points	240
Start Time(min)	0.002
End Time(min)	3.985
Intensity Units	
Intensity Multiplier	1
R.Time (min)	Intensity
0.00187	58.00
0.01853	56.46
0.03520	56.21
0.05187	58.49
0.06853	59.91
0.08520	58.38
0.10187	57.97
0.11853	58.00
0.13520	58.01
0.15187	58.01
0.16853	58.00
0.18520	58.00
0.20187	58.00
0.21853	58.00
0.23520	58.00
0.25187	58.00
0.26853	58.00
0.28520	58.00
0.30187	58.00
0.31853	58.00
0.33520	58.00
0.35187	58.00
0.36853	58.00
0.38520	58.00
0.40187	58.00
0.41853	58.00
0.43520	58.00
0.45187	58.00
0.46853	58.00
0.48520	58.00
0.50187	58.00
0.51853	58.00
0.53520	58.00
0.55187	58.00
0.56853	58.00
0.58520	58.00
0.60187	58.00
0.61853	58.00
0.63520	58.00
0.65187	58.00
0.66853	58.00
0.68520	58.00
0.70187	58.00
0.71853	58.00
0.73520	58.00
0.75187	58.00
0.76853	58.00
0.78520	58.00
0.80187	58.00
0.81853	58.00
0.83520	58.00
0.85187	58.00
0.86853	58.00
0.88520	58.00
0.90187	58.00
0.91853	58.00
0.93520	58.00
0.95187	58.00
0.96853	58.00
0.98520	58.00
1.00187	58.00
1.01853	58.00
1.03520	58.00
1.05187	58.00
1.06853	58.00
1.08520	58.00
1.10187	58.00
1.11853	58.00
1.13520	58.00
1.15187	58.00
1.16853	58.00
1.18520	58.00
1.20187	58.00
1.21853	58.00
1.23520	58.00
1.25187	58.00
1.26853	58.00
1.28520	58.00
1.30187	58.00
1.31853	58.00
1.33520	58.00
1.35187	58.00
1.36853	58.00
1.38520	58.00
1.40187	58.00
1.41853	58.00
1.43520	58.00
1.45187	58.00
1.46853	58.00
1.48520	58.00
1.50187	58.00
1.51853	58.00
1.53520	58.00
1.55187	58.00
1.56853	58.00
1.58520	58.00
1.60187	58.00
1.61853	58.00
1.63520	58.01
1.65187	58.00
1.66853	58.00
1.68520	58.01
1.70187	58.00
1.71853	58.00
1.73520	58.00
1.75187	58.00
1.76853	58.00
1.78520	58.00
1.80187	58.00
1.81853	58.00
1.83520	58.00
1.85187	58.00
1.86853	58.00
1.88520	58.00
1.90187	58.00
1.91853	58.00
1.93520	58.00
1.95187	58.00
1.96853	58.00
1.98520	58.00
2.00187	58.00
2.01853	58.00
2.03520	58.00
2.05187	58.00
2.06853	58.00
2.08520	58.00
2.10187	58.00
2.11853	58.00
2.13520	58.00
2.15187	58.00
2.16853	58.00
2.18520	58.00
2.20187	58.00
2.21853	58.00
2.23520	58.00
2.25187	58.00
2.26853	58.00
2.28520	58.00
2.30187	58.00
2.31853	58.00
2.33520	58.00
2.35187	58.00
2.36853	58.00
2.38520	58.00
2.40187	57.99
2.41853	58.00
2.43520	58.00
2.45187	58.00
2.46853	58.00
2.48520	58.00
2.50187	57.99
2.51853	58.00
2.53520	57.99
2.55187	58.00
2.56853	58.00
2.58520	58.00
2.60187	58.00
2.61853	58.00
2.63520	58.00
2.65187	58.00
2.66853	58.00
2.68520	58.00
2.70187	58.00
2.71853	58.00
2.73520	58.00
2.75187	58.00
2.76853	58.00
2.78520	58.00
2.80187	58.00
2.81853	58.00
2.83520	58.00
2.85187	58.00
2.86853	58.00
2.88520	58.00
2.90187	58.00
2.91853	58.00
2.93520	58.00
2.95187	58.00
2.96853	58.00
2.98520	58.00
3.00187	58.00
3.01853	58.00
3.03520	58.00
3.05187	58.00
3.06853	58.00
3.08520	58.00
3.10187	58.00
3.11853	58.00
3.13520	58.00
3.15187	58.00
3.16853	58.00
3.18520	58.00
3.20187	58.00
3.21853	58.00
3.23520	58.00
3.25187	58.00
3.26853	58.00
3.28520	58.00
3.30187	58.00
3.31853	58.00
3.33520	58.00
3.35187	58.00
3.36853	58.00
3.38520	58.00
3.40187	58.00
3.41853	58.00
3.43520	58.00
3.45187	58.00
3.46853	58.00
3.48520	58.00
3.50187	58.00
3.51853	58.00
3.53520	58.00
3.55187	58.00
3.56853	58.00
3.58520	58.00
3.60187	58.00
3.61853	58.00
3.63520	58.00
3.65187	58.00
3.66853	58.00
3.68520	58.00
3.70187	58.00
3.71853	58.00
3.73520	58.00
3.75187	58.00
3.76853	58.00
3.78520	58.00
3.80187	58.00
3.81853	58.00
3.83520	58.00
3.85187	58.00
3.86853	58.00
3.88520	58.00
3.90187	58.00
3.91853	58.00
3.93520	58.00
3.95187	58.00
3.96853	58.00
3.98520	58.00

[Status Trace (Carrier Gas Flow)]
Interval(msec)	1000
# of Points	240
Start Time(min)	0.002
End Time(min)	3.985
Intensity Units	
Intensity Multiplier	1
R.Time (min)	Intensity
0.00187	34.52
0.01853	34.35
0.03520	34.55
0.05187	34.55
0.06853	34.51
0.08520	34.52
0.10187	34.52
0.11853	34.52
0.13520	34.52
0.15187	34.52
0.16853	34.52
0.18520	34.52
0.20187	34.52
0.21853	34.52
0.23520	34.52
0.25187	34.52
0.26853	34.52
0.28520	34.52
0.30187	34.52
0.31853	34.52
0.33520	34.52
0.35187	34.52
0.36853	34.52
0.38520	34.52
0.40187	34.52
0.41853	34.52
0.43520	34.52
0.45187	34.52
0.46853	34.52
0.48520	34.52
0.50187	34.52
0.51853	34.52
0.53520	34.52
0.55187	34.52
0.56853	34.52
0.58520	34.52
0.60187	34.52
0.61853	34.52
0.63520	34.52
0.65187	34.52
0.66853	34.52
0.68520	34.52
0.70187	34.52
0.71853	34.52
0.73520	34.52
0.75187	34.52
0.76853	34.52
0.78520	34.52
0.80187	34.52
0.81853	34.52
0.83520	34.52
0.85187	34.52
0.86853	34.52
0.88520	34.52
0.90187	34.52
0.91853	34.52
0.93520	34.52
0.95187	34.52
0.96853	34.52
0.98520	34.52
1.00187	34.52
1.01853	34.52
1.03520	34.52
1.05187	34.52
1.06853	34.52
1.08520	34.52
1.10187	34.52
1.11853	34.52
1.13520	34.52
1.15187	34.52
1.16853	34.52
1.18520	34.52
1.20187	34.52
1.21853	34.52
1.23520	34.52
1.25187	34.52
1.26853	34.52
1.28520	34.52
1.30187	34.52
1.31853	34.52
1.33520	34.52
1.35187	34.52
1.36853	34.52
1.38520	34.52
1.40187	34.52
1.41853	34.52
1.43520	34.52
1.45187	34.52
1.46853	34.52
1.48520	34.52
1.50187	34.52
1.51853	34.52
1.53520	34.52
1.55187	34.52
1.56853	34.52
1.58520	34.52
1.60187	34.52
1.61853	34.52
1.63520	34.52
1.65187	34.52
1.66853	34.52
1.68520	34.52
1.70187	34.52
1.71853	34.52
1.73520	34.52
1.75187	34.52
1.76853	34.52
1.78520	34.52
1.80187	34.52
1.81853	34.52
1.83520	34.52
1.85187	34.52
1.86853	34.52
1.88520	34.52
1.90187	34.52
1.91853	34.52
1.93520	34.52
1.95187	34.52
1.96853	34.52
1.98520	34.52
2.00187	34.52
2.01853	34.52
2.03520	34.52
2.05187	34.52
2.06853	34.52
2.08520	34.52
2.10187	34.52
2.11853	34.52
2.13520	34.52
2.15187	34.52
2.16853	34.52
2.18520	34.52
2.20187	34.52
2.21853	34.52
2.23520	34.52
2.25187	34.52
2.26853	34.52
2.28520	34.52
2.30187	34.52
2.31853	34.52
2.33520	34.52
2.35187	34.52
2.36853	34.52
2.38520	34.57
2.40187	34.52
2.41853	34.52
2.43520	34.52
2.45187	34.52
2.46853	34.52
2.48520	34.52
2.50187	34.56
2.51853	34.52
2.53520	34.52
2.55187	34.52
2.56853	34.52
2.58520	34.52
2.60187	34.52
2.61853	34.52
2.63520	34.52
2.65187	34.52
2.66853	34.52
2.68520	34.52
2.70187	34.52
2.71853	34.52
2.73520	34.52
2.75187	34.52
2.76853	34.52
2.78520	34.52
2.80187	34.52
2.81853	34.52
2.83520	34.52
2.85187	34.52
2.86853	34.52
2.88520	34.52
2.90187	34.52
2.91853	34.52
2.93520	34.52
2.95187	34.52
2.96853	34.52
2.98520	34.52
3.00187	34.52
3.01853	34.52
3.03520	34.52
3.05187	34.52
3.06853	34.52
3.08520	34.52
3.10187	34.52
3.11853	34.52
3.13520	34.52
3.15187	34.52
3.16853	34.52
3.18520	34.52
3.20187	34.52
3.21853	34.52
3.23520	34.52
3.25187	34.52
3.26853	34.52
3.28520	34.52
3.30187	34.52
3.31853	34.52
3.33520	34.52
3.35187	34.52
3.36853	34.52
3.38520	34.52
3.40187	34.52
3.41853	34.52
3.43520	34.52
3.45187	34.52
3.46853	34.52
3.48520	34.52
3.50187	34.52
3.51853	34.52
3.53520	34.52
3.55187	34.52
3.56853	34.52
3.58520	34.52
3.60187	34.52
3.61853	34.52
3.63520	34.52
3.65187	34.52
3.66853	34.52
3.68520	34.52
3.70187	34.52
3.71853	34.52
3.73520	34.52
3.75187	34.52
3.76853	34.52
3.78520	34.52
3.80187	34.52
3.81853	34.52
3.83520	34.52
3.85187	34.52
3.86853	34.52
3.88520	34.52
3.90187	34.52
3.91853	34.52
3.93520	34.52
3.95187	34.52
3.96853	34.52
3.98520	34.53

[Status Trace (Column Flow)]
Interval(msec)	1000
# of Points	240
Start Time(min)	0.002
End Time(min)	3.985
Intensity Units	
Intensity Multiplier	1
R.Time (min)	Intensity
0.00187	5.53
0.01853	5.35
0.03520	5.32
0.05187	5.58
0.06853	5.75
0.08520	5.57
0.10187	5.52
0.11853	5.53
0.13520	5.53
0.15187	5.53
0.16853	5.53
0.18520	5.53
0.20187	5.53
0.21853	5.53
0.23520	5.53
0.25187	5.53
0.26853	5.53
0.28520	5.53
0.30187	5.53
0.31853	5.53
0.33520	5.53
0.35187	5.53
0.36853	5.53
0.38520	5.53
0.40187	5.53
0.41853	5.53
0.43520	5.53
0.45187	5.53
0.46853	5.53
0.48520	5.53
0.50187	5.53
0.51853	5.53
0.53520	5.53
0.55187	5.53
0.56853	5.53
0.58520	5.53
0.60187	5.53
0.61853	5.53
0.63520	5.53
0.65187	5.53
0.66853	5.53
0.68520	5.53
0.70187	5.53
0.71853	5.53
0.73520	5.53
0.75187	5.53
0.76853	5.53
0.78520	5.53
0.80187	5.53
0.81853	5.53
0.83520	5.53
0.85187	5.53
0.86853	5.53
0.88520	5.53
0.90187	5.53
0.91853	5.52
0.93520	5.52
0.95187	5.53
0.96853	5.53
0.98520	5.53
1.00187	5.53
1.01853	5.53
1.03520	5.53
1.05187	5.53
1.06853	5.53
1.08520	5.53
1.10187	5.53
1.11853	5.53
1.13520	5.53
1.15187	5.53
1.16853	5.53
1.18520	5.53
1.20187	5.53
1.21853	5.53
1.23520	5.53
1.25187	5.53
1.26853	5.53
1.28520	5.53
1.30187	5.53
1.31853	5.53
1.33520	5.53
1.35187	5.53
1.36853	5.53
1.38520	5.53
1.40187	5.53
1.41853	5.53
1.43520	5.53
1.45187	5.53
1.46853	5.53
1.48520	5.53
1.50187	5.53
1.51853	5.53
1.53520	5.53
1.55187	5.53
1.56853	5.53
1.58520	5.53
1.60187	5.53
1.61853	5.52
1.63520	5.52
1.65187	5.51
1.66853	5.50
1.68520	5.49
1.70187	5.48
1.71853	5.47
1.73520	5.46
1.75187	5.45
1.76853	5.44
1.78520	5.43
1.80187	5.42
1.81853	5.41
1.83520	5.40
1.85187	5.39
1.86853	5.38
1.88520	5.37
1.90187	5.36
1.91853	5.35
1.93520	5.34
1.95187	5.33
1.96853	5.32
1.98520	5.31
2.00187	5.30
2.01853	5.29
2.03520	5.28
2.05187	5.27
2.06853	5.26
2.08520	5.25
2.10187	5.24
2.11853	5.23
2.13520	5.22
2.15187	5.21
2.16853	5.20
2.18520	5.19
2.20187	5.19
2.21853	5.18
2.23520	5.17
2.25187	5.16
2.26853	5.15
2.28520	5.14
2.30187	5.13
2.31853	5.12
2.33520	5.11
2.35187	5.10
2.36853	5.10
2.38520	5.09
2.40187	5.09
2.41853	5.09
2.43520	5.09
2.45187	5.09
2.46853	5.09
2.48520	5.09
2.50187	5.09
2.51853	5.09
2.53520	5.09
2.55187	5.09
2.56853	5.09
2.58520	5.09
2.60187	5.09
2.61853	5.09
2.63520	5.09
2.65187	5.09
2.66853	5.09
2.68520	5.09
2.70187	5.09
2.71853	5.09
2.73520	5.09
2.75187	5.09
2.76853	5.09
2.78520	5.09
2.80187	5.09
2.81853	5.09
2.83520	5.09
2.85187	5.09
2.86853	5.08
2.88520	5.08
2.90187	5.08
2.91853	5.08
2.93520	5.08
2.95187	5.08
2.96853	5.08
2.98520	5.08
3.00187	5.08
3.01853	5.08
3.03520	5.08
3.05187	5.08
3.06853	5.08
3.08520	5.08
3.10187	5.08
3.11853	5.08
3.13520	5.08
3.15187	5.08
3.16853	5.08
3.18520	5.08
3.20187	5.08
3.21853	5.08
3.23520	5.08
3.25187	5.08
3.26853	5.08
3.28520	5.08
3.30187	5.08
3.31853	5.08
3.33520	5.08
3.35187	5.08
3.36853	5.08
3.38520	5.08
3.40187	5.08
3.41853	5.08
3.43520	5.08
3.45187	5.08
3.46853	5.08
3.48520	5.08
3.50187	5.08
3.51853	5.08
3.53520	5.08
3.55187	5.08
3.56853	5.08
3.58520	5.08
3.60187	5.08
3.61853	5.08
3.63520	5.08
3.65187	5.08
3.66853	5.08
3.68520	5.08
3.70187	5.08
3.71853	5.08
3.73520	5.08
3.75187	5.08
3.76853	5.08
3.78520	5.08
3.80187	5.08
3.81853	5.08
3.83520	5.08
3.85187	5.08
3.86853	5.08
3.88520	5.08
3.90187	5.08
3.91853	5.08
3.93520	5.08
3.95187	5.08
3.96853	5.08
3.98520	5.08

[Status Trace (Linear Velocity)]
Interval(msec)	1000
# of Points	240
Start Time(min)	0.002
End Time(min)	3.985
Intensity Units	
Intensity Multiplier	1
R.Time (min)	Intensity
0.00187	39.02
0.01853	38.01
0.03520	37.84
0.05187	39.34
0.06853	40.27
0.08520	39.26
0.10187	39.00
0.11853	39.02
0.13520	39.03
0.15187	39.02
0.16853	39.02
0.18520	39.02
0.20187	39.02
0.21853	39.02
0.23520	39.02
0.25187	39.02
0.26853	39.02
0.28520	39.02
0.30187	39.02
0.31853	39.02
0.33520	39.02
0.35187	39.02
0.36853	39.02
0.38520	39.02
0.40187	39.02
0.41853	39.02
0.43520	39.02
0.45187	39.02
0.46853	39.02
0.48520	39.02
0.50187	39.02
0.51853	39.02
0.53520	39.02
0.55187	39.02
0.56853	39.02
0.58520	39.02
0.60187	39.02
0.61853	39.02
0.63520	39.02
0.65187	39.02
0.66853	39.02
0.68520	39.02
0.70187	39.02
0.71853	39.02
0.73520	39.02
0.75187	39.02
0.76853	39.02
0.78520	39.02
0.80187	39.02
0.81853	39.02
0.83520	39.02
0.85187	39.02
0.86853	39.02
0.88520	39.01
0.90187	39.01
0.91853	39.01
0.93520	39.01
0.95187	39.01
0.96853	39.01
0.98520	39.01
1.00187	39.01
1.01853	39.02
1.03520	39.02
1.05187	39.02
1.06853	39.02
1.08520	39.02
1.10187	39.02
1.11853	39.02
1.13520	39.02
1.15187	39.02
1.16853	39.02
1.18520	39.02
1.20187	39.02
1.21853	39.02
1.23520	39.02
1.25187	39.02
1.26853	39.02
1.28520	39.02
1.30187	39.02
1.31853	39.02
1.33520	39.02
1.35187	39.02
1.36853	39.02
1.38520	39.02
1.40187	39.02
1.41853	39.02
1.43520	39.02
1.45187	39.02
1.46853	39.02
1.48520	39.02
1.50187	39.02
1.51853	39.02
1.53520	39.02
1.55187	39.02
1.56853	39.02
1.58520	39.02
1.60187	39.01
1.61853	39.01
1.63520	38.99
1.65187	38.97
1.66853	38.94
1.68520	38.91
1.70187	38.87
1.71853	38.84
1.73520	38.80
1.75187	38.77
1.76853	38.75
1.78520	38.71
1.80187	38.68
1.81853	38.65
1.83520	38.62
1.85187	38.58
1.86853	38.56
1.88520	38.52
1.90187	38.49
1.91853	38.47
1.93520	38.43
1.95187	38.40
1.96853	38.38
1.98520	38.34
2.00187	38.31
2.01853	38.29
2.03520	38.25
2.05187	38.22
2.06853	38.20
2.08520	38.16
2.10187	38.13
2.11853	38.11
2.13520	38.07
2.15187	38.04
2.16853	38.02
2.18520	37.98
2.20187	37.96
2.21853	37.93
2.23520	37.90
2.25187	37.87
2.26853	37.84
2.28520	37.81
2.30187	37.78
2.31853	37.75
2.33520	37.72
2.35187	37.69
2.36853	37.67
2.38520	37.66
2.40187	37.66
2.41853	37.66
2.43520	37.66
2.45187	37.66
2.46853	37.66
2.48520	37.66
2.50187	37.65
2.51853	37.65
2.53520	37.65
2.55187	37.66
2.56853	37.65
2.58520	37.65
2.60187	37.65
2.61853	37.65
2.63520	37.65
2.65187	37.65
2.66853	37.65
2.68520	37.65
2.70187	37.64
2.71853	37.64
2.73520	37.64
2.75187	37.64
2.76853	37.65
2.78520	37.64
2.80187	37.64
2.81853	37.64
2.83520	37.64
2.85187	37.64
2.86853	37.64
2.88520	37.64
2.90187	37.64
2.91853	37.64
2.93520	37.63
2.95187	37.63
2.96853	37.63
2.98520	37.63
3.00187	37.63
3.01853	37.63
3.03520	37.63
3.05187	37.63
3.06853	37.63
3.08520	37.63
3.10187	37.62
3.11853	37.62
3.13520	37.62
3.15187	37.63
3.16853	37.63
3.18520	37.63
3.20187	37.63
3.21853	37.63
3.23520	37.63
3.25187	37.63
3.26853	37.63
3.28520	37.63
3.30187	37.63
3.31853	37.63
3.33520	37.63
3.35187	37.63
3.36853	37.63
3.38520	37.63
3.40187	37.63
3.41853	37.63
3.43520	37.63
3.45187	37.63
3.46853	37.63
3.48520	37.63
3.50187	37.63
3.51853	37.63
3.53520	37.63
3.55187	37.63
3.56853	37.63
3.58520	37.63
3.60187	37.63
3.61853	37.63
3.63520	37.63
3.65187	37.63
3.66853	37.63
3.68520	37.63
3.70187	37.63
3.71853	37.63
3.73520	37.63
3.75187	37.63
3.76853	37.63
3.78520	37.63
3.80187	37.63
3.81853	37.63
3.83520	37.63
3.85187	37.63
3.86853	37.63
3.88520	37.63
3.90187	37.63
3.91853	37.63
3.93520	37.63
3.95187	37.63
3.96853	37.63
3.98520	37.63

