[Header]
Application Name	LabSolutions
Version	5.110
Data File Name	C:\Users\User\Desktop\GC Analyses\Jack\UIC Prairie Sampling\9.16.22\220916_081.gcd
Output Date	11/29/2022
Output Time	11:10:20 AM

[File Information]
Type	Data File
Generated	11/16/2022 12:31:48 PM
Generated by	System Administrator
Modified	11/16/2022 12:36:16 PM
Modified by	System Administrator

[Sample Information]
Operator Name	System Administrator
Acquired	11/16/2022 12:32:14 PM
Sample Type	1:Standard
Level	1
Sample Name	220916_UICPrairie
Sample ID	220916_UICPrairie
ISTD Amount1	1
ISTD Amount2	1
ISTD Amount3	1
ISTD Amount4	1
ISTD Amount5	1
ISTD Amount6	1
ISTD Amount7	1
ISTD Amount8	1
ISTD Amount9	1
ISTD Amount10	1
ISTD Amount11	1
ISTD Amount12	1
ISTD Amount13	1
ISTD Amount14	1
ISTD Amount15	1
ISTD Amount16	1
ISTD Amount17	1
ISTD Amount18	1
ISTD Amount19	1
ISTD Amount20	1
ISTD Amount21	1
ISTD Amount22	1
ISTD Amount23	1
ISTD Amount24	1
ISTD Amount25	1
ISTD Amount26	1
ISTD Amount27	1
ISTD Amount28	1
ISTD Amount29	1
ISTD Amount30	1
ISTD Amount31	1
ISTD Amount32	1
Sample Amount	1
Dilution Factor	1
Vial#	1
Injection Volume	1
Injection Count	1
Bar Code	

[Original Files]
Data File	C:\Users\User\Desktop\GC Analyses\Jack\UIC Prairie Sampling\9.16.22\220916_081.gcd
Method File	C:\LabSolutions\Data\GHG_4min_2022\ghg3_togas_w_acet_4 min_new_int.gcm
Batch File	
Report Format File	c:\LabSolutions\System\DEFAULT.lsr

[File Description]


[Configuration]
Instrument Name	C0B7VH3-Instrument1
Instrument #	1
Line #	1
# of Detectors	3
Detector ID	DET#1	DET#2	DET#3
Detector Name	FID	PTCD	ECD
# of Channels	1	1	1

[Peak Table(Ch1)]
# of Peaks	3
Peak#	R.Time	I.Time	F.Time	Area	Height	A/H	Conc.	Mark	ID#	Name	k'	Plate #	Plate Ht.	Tailing	Resolution	Sep.Factor	Area Ratio	Height Ratio	Conc. %	Norm Conc.
1	1.479	1.439	1.538	12361	5462	2.263	100.000	   	1	CO	0.000	8438	17.776	1.160	0.000	0.000	0	0	16.667	16.667
2	1.571	1.538	1.626	4700	2321	2.025	100.000	 V 	2	CH4	0.062	10920	13.736	0.000	1.472	0.000	0	0	16.667	16.667
3	2.000	1.945	2.436	2141076	1028015	2.083	400.000	   	3	CO2	0.352	17592	8.527	1.194	7.123	5.680	0	0	66.667	66.667

[Peak Table(Ch2)]
# of Peaks	0

[Peak Table(Ch3)]
# of Peaks	5
Peak#	R.Time	I.Time	F.Time	Area	Height	A/H	Conc.	Mark	ID#	Name	k'	Plate #	Plate Ht.	Tailing	Resolution	Sep.Factor	Area Ratio	Height Ratio	Conc. %	Norm Conc.
1	0.929	0.174	1.424	1135	26	43.823	0.000	   			0.000	77	1943.186	0.828	0.000	0.000	0	0	0.000	0.000
2	2.458	2.260	2.502	2262	359	6.302	0.000	   			1.645	2129	70.446	0.000	4.807	0.000	0	0	0.000	0.000
3	2.524	2.502	2.557	999	319	3.133	0.000	 V 			1.716	380	394.307	0.000	0.181	1.043	0	0	0.000	0.000
4	2.601	2.557	2.653	1329	334	3.984	0.000	 V 			1.799	988	151.833	0.000	0.181	1.048	0	0	0.000	0.000
5	2.884	2.664	3.995	56617	6058	9.346	1.000	   	1	N2O	2.103	10763	13.937	7.577	1.277	1.169	0	0	100.000	100.000

[Compound Results(Ch1)]
# of IDs	6
ID#	Name	R.Time	Area	Height	Conc.	Curve	3rd	2nd	1st	Constant	Area Ratio	Height Ratio	Conc. %	Norm Conc.
1	CO	1.479	12361	5462	100.000	Linear	0.000000e+00	0.000000e+00	1.236051e+002	0.000000e+00	0	0	16.667	16.667
2	CH4	1.571	4700	2321	100.000	Linear	0.000000e+00	0.000000e+00	4.699927e+001	0.000000e+00	0	0	16.667	16.667
3	CO2	2.000	2141076	1028015	400.000	Linear	0.000000e+00	0.000000e+00	5.352690e+003	0.000000e+00	0	0	66.667	66.667
4	Ethylene	0.000	0	0	0.000	Linear	0.000000e+00	0.000000e+00	0.000000e+00	0.000000e+00	0	0	0.000	0.000
5	Acetylene	0.000	0	0	0.000	Linear	0.000000e+00	0.000000e+00	0.000000e+00	0.000000e+00	0	0	0.000	0.000
6	Ethane	0.000	0	0	0.000	Linear	0.000000e+00	0.000000e+00	0.000000e+00	0.000000e+00	0	0	0.000	0.000

[Compound Results(Ch2)]
# of IDs	5
ID#	Name	R.Time	Area	Height	Conc.	Curve	3rd	2nd	1st	Constant	Area Ratio	Height Ratio	Conc. %	Norm Conc.
1	Hydrogen	0.000	0	0	0.000	Linear	0.000000e+00	0.000000e+00	0.000000e+00	0.000000e+00	0	0	0.000	0.000
2	Oxygen	0.000	0	0	0.000	Linear	0.000000e+00	0.000000e+00	0.000000e+00	0.000000e+00	0	0	0.000	0.000
3	Nitrogen	0.000	0	0	0.000	Linear	0.000000e+00	0.000000e+00	0.000000e+00	0.000000e+00	0	0	0.000	0.000
4	Methane	0.000	0	0	0.000	Linear	0.000000e+00	0.000000e+00	0.000000e+00	0.000000e+00	0	0	0.000	0.000
5	Carbon Monoxide	0.000	0	0	0.000	Linear	0.000000e+00	0.000000e+00	0.000000e+00	0.000000e+00	0	0	0.000	0.000

[Compound Results(Ch3)]
# of IDs	2
ID#	Name	R.Time	Area	Height	Conc.	Curve	3rd	2nd	1st	Constant	Area Ratio	Height Ratio	Conc. %	Norm Conc.
1	N2O	2.884	56617	6058	1.000	Linear	0.000000e+00	0.000000e+00	5.661665e+004	0.000000e+00	0	0	100.000	100.000
2	SF6	0.000	0	0	0.000	Linear	0.000000e+00	0.000000e+00	0.000000e+00	0.000000e+00	0	0	0.000	0.000

[Group Results(Ch1)]
# of Groups	0

[Group Results(Ch2)]
# of Groups	0

[Group Results(Ch3)]
# of Groups	0

[Chromatogram (Ch1)]
Interval(msec)	220
# of Points	1091
Start Time(min)	0.002
End Time(min)	3.998
R.Time (min)	Intensity
0.00167	4
0.00533	6
0.00900	10
0.01267	13
0.01633	15
0.02000	14
0.02367	11
0.02733	7
0.03100	3
0.03467	-2
0.03833	-6
0.04200	-8
0.04567	-8
0.04933	-8
0.05300	-6
0.05667	-3
0.06033	2
0.06400	8
0.06767	11
0.07133	7
0.07500	-4
0.07867	-19
0.08233	-31
0.08600	-38
0.08967	-38
0.09333	-36
0.09700	-34
0.10067	-34
0.10433	-35
0.10800	-35
0.11167	-34
0.11533	-31
0.11900	-29
0.12267	-26
0.12633	-25
0.13000	-25
0.13367	-24
0.13733	-21
0.14100	-20
0.14467	-15
0.14833	-7
0.15200	-1
0.15567	0
0.15933	2
0.16300	1
0.16667	-1
0.17033	-2
0.17400	1
0.17767	1
0.18133	-1
0.18500	-5
0.18867	-8
0.19233	-9
0.19600	-10
0.19967	-15
0.20333	-22
0.20700	-25
0.21067	-24
0.21433	-23
0.21800	-21
0.22167	-19
0.22533	-19
0.22900	-20
0.23267	-21
0.23633	-24
0.24000	-28
0.24367	-32
0.24733	-36
0.25100	-36
0.25467	-36
0.25833	-38
0.26200	-41
0.26567	-42
0.26933	-36
0.27300	-28
0.27667	-26
0.28033	-34
0.28400	-47
0.28767	-58
0.29133	-63
0.29500	-65
0.29867	-68
0.30233	-69
0.30600	-64
0.30967	-54
0.31333	-46
0.31700	-43
0.32067	-47
0.32433	-49
0.32800	-47
0.33167	-43
0.33533	-37
0.33900	-32
0.34267	-32
0.34633	-34
0.35000	-38
0.35367	-43
0.35733	-48
0.36100	-49
0.36467	-44
0.36833	-36
0.37200	-30
0.37567	-26
0.37933	-26
0.38300	-27
0.38667	-30
0.39033	-31
0.39400	-32
0.39767	-32
0.40133	-34
0.40500	-38
0.40867	-42
0.41233	-45
0.41600	-42
0.41967	-37
0.42333	-38
0.42700	-44
0.43067	-53
0.43433	-61
0.43800	-65
0.44167	-61
0.44533	-53
0.44900	-40
0.45267	-29
0.45633	-23
0.46000	-25
0.46367	-31
0.46733	-37
0.47100	-43
0.47467	-48
0.47833	-52
0.48200	-52
0.48567	-51
0.48933	-50
0.49300	-56
0.49667	-65
0.50033	-69
0.50400	-71
0.50767	-71
0.51133	-70
0.51500	-70
0.51867	-68
0.52233	-64
0.52600	-58
0.52967	-49
0.53333	-41
0.53700	-36
0.54067	-36
0.54433	-39
0.54800	-46
0.55167	-54
0.55533	-61
0.55900	-63
0.56267	-62
0.56633	-63
0.57000	-66
0.57367	-66
0.57733	-60
0.58100	-54
0.58467	-49
0.58833	-45
0.59200	-45
0.59567	-48
0.59933	-52
0.60300	-55
0.60667	-59
0.61033	-62
0.61400	-63
0.61767	-60
0.62133	-56
0.62500	-55
0.62867	-60
0.63233	-68
0.63600	-73
0.63967	-73
0.64333	-69
0.64700	-65
0.65067	-62
0.65433	-58
0.65800	-54
0.66167	-54
0.66533	-59
0.66900	-65
0.67267	-66
0.67633	-60
0.68000	-56
0.68367	-57
0.68733	-57
0.69100	-54
0.69467	-54
0.69833	-56
0.70200	-57
0.70567	-57
0.70933	-55
0.71300	-55
0.71667	-57
0.72033	-59
0.72400	-61
0.72767	-62
0.73133	-64
0.73500	-65
0.73867	-66
0.74233	-65
0.74600	-62
0.74967	-55
0.75333	-48
0.75700	-46
0.76067	-46
0.76433	-49
0.76800	-52
0.77167	-55
0.77533	-59
0.77900	-63
0.78267	-63
0.78633	-60
0.79000	-55
0.79367	-51
0.79733	-50
0.80100	-54
0.80467	-57
0.80833	-57
0.81200	-56
0.81567	-58
0.81933	-63
0.82300	-65
0.82667	-65
0.83033	-65
0.83400	-69
0.83767	-73
0.84133	-76
0.84500	-78
0.84867	-82
0.85233	-88
0.85600	-92
0.85967	-93
0.86333	-91
0.86700	-88
0.87067	-87
0.87433	-86
0.87800	-84
0.88167	-78
0.88533	-71
0.88900	-67
0.89267	-67
0.89633	-69
0.90000	-72
0.90367	-76
0.90733	-79
0.91100	-80
0.91467	-79
0.91833	-77
0.92200	-76
0.92567	-75
0.92933	-76
0.93300	-77
0.93667	-78
0.94033	-80
0.94400	-82
0.94767	-83
0.95133	-81
0.95500	-76
0.95867	-72
0.96233	-70
0.96600	-70
0.96967	-71
0.97333	-72
0.97700	-71
0.98067	-68
0.98433	-66
0.98800	-69
0.99167	-76
0.99533	-86
0.99900	-92
1.00267	-93
1.00633	-91
1.01000	-88
1.01367	-89
1.01733	-89
1.02100	-87
1.02467	-85
1.02833	-81
1.03200	-80
1.03567	-79
1.03933	-80
1.04300	-85
1.04667	-89
1.05033	-93
1.05400	-92
1.05767	-90
1.06133	-87
1.06500	-89
1.06867	-92
1.07233	-94
1.07600	-93
1.07967	-91
1.08333	-88
1.08700	-84
1.09067	-83
1.09433	-84
1.09800	-81
1.10167	-79
1.10533	-80
1.10900	-83
1.11267	-87
1.11633	-92
1.12000	-94
1.12367	-95
1.12733	-95
1.13100	-93
1.13467	-91
1.13833	-91
1.14200	-91
1.14567	-88
1.14933	-86
1.15300	-91
1.15667	-100
1.16033	-108
1.16400	-114
1.16767	-116
1.17133	-111
1.17500	-108
1.17867	-108
1.18233	-106
1.18600	-103
1.18967	-102
1.19333	-100
1.19700	-98
1.20067	-97
1.20433	-99
1.20800	-103
1.21167	-106
1.21533	-109
1.21900	-109
1.22267	-113
1.22633	-113
1.23000	-110
1.23367	-108
1.23733	-109
1.24100	-110
1.24467	-112
1.24833	-116
1.25200	-122
1.25567	-127
1.25933	-128
1.26300	-127
1.26667	-124
1.27033	-123
1.27400	-120
1.27767	-115
1.28133	-111
1.28500	-110
1.28867	-112
1.29233	-116
1.29600	-119
1.29967	-119
1.30333	-120
1.30700	-121
1.31067	-122
1.31433	-123
1.31800	-120
1.32167	-115
1.32533	-111
1.32900	-107
1.33267	-104
1.33633	-104
1.34000	-106
1.34367	-110
1.34733	-112
1.35100	-113
1.35467	-113
1.35833	-110
1.36200	-109
1.36567	-109
1.36933	-110
1.37300	-114
1.37667	-118
1.38033	-119
1.38400	-116
1.38767	-112
1.39133	-111
1.39500	-110
1.39867	-107
1.40233	-103
1.40600	-95
1.40967	-86
1.41333	-83
1.41700	-88
1.42067	-96
1.42433	-104
1.42800	-109
1.43167	-112
1.43533	-112
1.43900	-98
1.44267	-27
1.44633	169
1.45000	505
1.45367	1036
1.45733	1829
1.46100	2791
1.46467	3730
1.46833	4505
1.47200	5059
1.47567	5357
1.47933	5358
1.48300	5038
1.48667	4437
1.49033	3666
1.49400	2869
1.49767	2155
1.50133	1570
1.50500	1117
1.50867	779
1.51233	535
1.51600	363
1.51967	240
1.52333	151
1.52700	88
1.53067	49
1.53433	23
1.53800	8
1.54167	29
1.54533	145
1.54900	409
1.55267	806
1.55633	1250
1.56000	1649
1.56367	1957
1.56733	2150
1.57100	2204
1.57467	2093
1.57833	1829
1.58200	1474
1.58567	1106
1.58933	778
1.59300	512
1.59667	310
1.60033	165
1.60400	65
1.60767	-2
1.61133	-48
1.61500	-79
1.61867	-100
1.62233	-115
1.62600	-124
1.62967	-129
1.63333	-131
1.63700	-129
1.64067	-122
1.64433	-112
1.64800	-106
1.65167	-105
1.65533	-106
1.65900	-108
1.66267	-112
1.66633	-119
1.67000	-126
1.67367	-130
1.67733	-131
1.68100	-131
1.68467	-132
1.68833	-136
1.69200	-140
1.69567	-144
1.69933	-146
1.70300	-143
1.70667	-137
1.71033	-131
1.71400	-128
1.71767	-128
1.72133	-129
1.72500	-130
1.72867	-128
1.73233	-127
1.73600	-128
1.73967	-129
1.74333	-126
1.74700	-118
1.75067	-111
1.75433	-110
1.75800	-115
1.76167	-121
1.76533	-122
1.76900	-122
1.77267	-123
1.77633	-126
1.78000	-128
1.78367	-127
1.78733	-127
1.79100	-132
1.79467	-142
1.79833	-153
1.80200	-160
1.80567	-161
1.80933	-154
1.81300	-145
1.81667	-142
1.82033	-141
1.82400	-140
1.82767	-138
1.83133	-134
1.83500	-130
1.83867	-128
1.84233	-131
1.84600	-138
1.84967	-146
1.85333	-151
1.85700	-152
1.86067	-149
1.86433	-145
1.86800	-144
1.87167	-145
1.87533	-144
1.87900	-141
1.88267	-137
1.88633	-134
1.89000	-133
1.89367	-135
1.89733	-141
1.90100	-150
1.90467	-159
1.90833	-162
1.91200	-158
1.91567	-152
1.91933	-148
1.92300	-144
1.92667	-140
1.93033	-136
1.93400	-128
1.93767	-122
1.94133	-117
1.94500	-113
1.94867	-108
1.95233	-94
1.95600	-26
1.95967	425
1.96333	2802
1.96700	12236
1.97067	40706
1.97433	107035
1.97800	226842
1.98167	397602
1.98533	594387
1.98900	782341
1.99267	930093
1.99633	1015463
2.00000	1027942
2.00367	969386
2.00733	854594
2.01100	707456
2.01467	553782
2.01833	413807
2.02200	298416
2.02567	210002
2.02933	145726
2.03300	100664
2.03667	69813
2.04033	48979
2.04400	34983
2.04767	25570
2.05133	19192
2.05500	14812
2.05867	11752
2.06233	9572
2.06600	7983
2.06967	6800
2.07333	5899
2.07700	5199
2.08067	4640
2.08433	4180
2.08800	3791
2.09167	3457
2.09533	3170
2.09900	2924
2.10267	2711
2.10633	2528
2.11000	2365
2.11367	2217
2.11733	2086
2.12100	1971
2.12467	1870
2.12833	1778
2.13200	1693
2.13567	1615
2.13933	1544
2.14300	1477
2.14667	1414
2.15033	1355
2.15400	1297
2.15767	1243
2.16133	1194
2.16500	1147
2.16867	1100
2.17233	1057
2.17600	1018
2.17967	983
2.18333	950
2.18700	917
2.19067	886
2.19433	860
2.19800	835
2.20167	809
2.20533	786
2.20900	766
2.21267	745
2.21633	718
2.22000	688
2.22367	660
2.22733	640
2.23100	620
2.23467	602
2.23833	585
2.24200	574
2.24567	566
2.24933	558
2.25300	550
2.25667	541
2.26033	528
2.26400	511
2.26767	494
2.27133	481
2.27500	471
2.27867	464
2.28233	459
2.28600	454
2.28967	446
2.29333	436
2.29700	427
2.30067	417
2.30433	407
2.30800	394
2.31167	380
2.31533	370
2.31900	362
2.32267	355
2.32633	346
2.33000	336
2.33367	327
2.33733	318
2.34100	312
2.34467	311
2.34833	310
2.35200	312
2.35567	310
2.35933	304
2.36300	296
2.36667	290
2.37033	288
2.37400	287
2.37767	283
2.38133	276
2.38500	270
2.38867	266
2.39233	262
2.39600	255
2.39967	245
2.40333	235
2.40700	229
2.41067	228
2.41433	230
2.41800	235
2.42167	241
2.42533	246
2.42900	248
2.43267	247
2.43633	245
2.44000	244
2.44367	242
2.44733	235
2.45100	223
2.45467	211
2.45833	207
2.46200	207
2.46567	209
2.46933	210
2.47300	209
2.47667	206
2.48033	204
2.48400	201
2.48767	195
2.49133	189
2.49500	182
2.49867	179
2.50233	179
2.50600	177
2.50967	175
2.51333	174
2.51700	174
2.52067	172
2.52433	169
2.52800	166
2.53167	165
2.53533	166
2.53900	168
2.54267	169
2.54633	167
2.55000	164
2.55367	165
2.55733	163
2.56100	158
2.56467	151
2.56833	145
2.57200	141
2.57567	140
2.57933	141
2.58300	140
2.58667	143
2.59033	147
2.59400	148
2.59767	144
2.60133	141
2.60500	138
2.60867	138
2.61233	137
2.61600	133
2.61967	131
2.62333	130
2.62700	129
2.63067	125
2.63433	118
2.63800	110
2.64167	109
2.64533	112
2.64900	114
2.65267	114
2.65633	114
2.66000	114
2.66367	112
2.66733	107
2.67100	106
2.67467	108
2.67833	113
2.68200	117
2.68567	118
2.68933	118
2.69300	117
2.69667	115
2.70033	112
2.70400	106
2.70767	96
2.71133	86
2.71500	82
2.71867	84
2.72233	90
2.72600	97
2.72967	102
2.73333	105
2.73700	107
2.74067	108
2.74433	109
2.74800	107
2.75167	101
2.75533	95
2.75900	89
2.76267	79
2.76633	71
2.77000	78
2.77367	84
2.77733	86
2.78100	86
2.78467	83
2.78833	78
2.79200	76
2.79567	78
2.79933	83
2.80300	89
2.80667	92
2.81033	94
2.81400	94
2.81767	91
2.82133	85
2.82500	80
2.82867	78
2.83233	80
2.83600	86
2.83967	91
2.84333	95
2.84700	95
2.85067	92
2.85433	90
2.85800	90
2.86167	91
2.86533	91
2.86900	91
2.87267	94
2.87633	96
2.88000	94
2.88367	85
2.88733	74
2.89100	68
2.89467	68
2.89833	67
2.90200	66
2.90567	67
2.90933	72
2.91300	77
2.91667	79
2.92033	78
2.92400	74
2.92767	71
2.93133	70
2.93500	70
2.93867	70
2.94233	69
2.94600	68
2.94967	65
2.95333	64
2.95700	65
2.96067	68
2.96433	73
2.96800	78
2.97167	81
2.97533	81
2.97900	77
2.98267	72
2.98633	68
2.99000	66
2.99367	66
2.99733	67
3.00100	69
3.00467	72
3.00833	78
3.01200	85
3.01567	92
3.01933	96
3.02300	95
3.02667	91
3.03033	82
3.03400	70
3.03767	61
3.04133	56
3.04500	58
3.04867	64
3.05233	72
3.05600	77
3.05967	80
3.06333	83
3.06700	88
3.07067	90
3.07433	87
3.07800	82
3.08167	77
3.08533	73
3.08900	72
3.09267	70
3.09633	69
3.10000	67
3.10367	67
3.10733	66
3.11100	65
3.11467	62
3.11833	58
3.12200	55
3.12567	52
3.12933	50
3.13300	50
3.13667	53
3.14033	61
3.14400	68
3.14767	70
3.15133	68
3.15500	64
3.15867	64
3.16233	67
3.16600	68
3.16967	67
3.17333	65
3.17700	65
3.18067	71
3.18433	77
3.18800	81
3.19167	79
3.19533	75
3.19900	71
3.20267	68
3.20633	68
3.21000	72
3.21367	75
3.21733	76
3.22100	74
3.22467	69
3.22833	65
3.23200	66
3.23567	69
3.23933	72
3.24300	73
3.24667	67
3.25033	54
3.25400	43
3.25767	38
3.26133	38
3.26500	40
3.26867	44
3.27233	47
3.27600	50
3.27967	52
3.28333	52
3.28700	50
3.29067	49
3.29433	50
3.29800	54
3.30167	61
3.30533	69
3.30900	74
3.31267	75
3.31633	75
3.32000	74
3.32367	69
3.32733	63
3.33100	59
3.33467	62
3.33833	69
3.34200	73
3.34567	72
3.34933	71
3.35300	67
3.35667	60
3.36033	51
3.36400	45
3.36767	45
3.37133	52
3.37500	58
3.37867	60
3.38233	59
3.38600	57
3.38967	58
3.39333	62
3.39700	63
3.40067	63
3.40433	62
3.40800	62
3.41167	63
3.41533	63
3.41900	61
3.42267	58
3.42633	55
3.43000	51
3.43367	49
3.43733	50
3.44100	52
3.44467	54
3.44833	54
3.45200	55
3.45567	57
3.45933	60
3.46300	58
3.46667	53
3.47033	47
3.47400	43
3.47767	43
3.48133	47
3.48500	50
3.48867	54
3.49233	59
3.49600	64
3.49967	66
3.50333	67
3.50700	66
3.51067	61
3.51433	54
3.51800	50
3.52167	48
3.52533	43
3.52900	38
3.53267	34
3.53633	35
3.54000	36
3.54367	36
3.54733	34
3.55100	35
3.55467	38
3.55833	40
3.56200	45
3.56567	49
3.56933	50
3.57300	50
3.57667	47
3.58033	45
3.58400	45
3.58767	44
3.59133	46
3.59500	50
3.59867	56
3.60233	62
3.60600	61
3.60967	53
3.61333	40
3.61700	26
3.62067	12
3.62433	3
3.62800	0
3.63167	0
3.63533	-1
3.63900	-1
3.64267	1
3.64633	5
3.65000	11
3.65367	17
3.65733	22
3.66100	24
3.66467	28
3.66833	32
3.67200	33
3.67567	31
3.67933	29
3.68300	27
3.68667	27
3.69033	27
3.69400	29
3.69767	35
3.70133	39
3.70500	40
3.70867	38
3.71233	35
3.71600	31
3.71967	26
3.72333	22
3.72700	23
3.73067	26
3.73433	30
3.73800	30
3.74167	28
3.74533	28
3.74900	30
3.75267	32
3.75633	32
3.76000	29
3.76367	24
3.76733	23
3.77100	26
3.77467	31
3.77833	35
3.78200	36
3.78567	38
3.78933	41
3.79300	42
3.79667	42
3.80033	42
3.80400	39
3.80767	34
3.81133	27
3.81500	21
3.81867	17
3.82233	16
3.82600	16
3.82967	19
3.83333	24
3.83700	28
3.84067	30
3.84433	34
3.84800	38
3.85167	36
3.85533	32
3.85900	25
3.86267	17
3.86633	12
3.87000	14
3.87367	18
3.87733	22
3.88100	24
3.88467	22
3.88833	20
3.89200	18
3.89567	18
3.89933	18
3.90300	16
3.90667	10
3.91033	2
3.91400	-6
3.91767	-12
3.92133	-16
3.92500	-19
3.92867	-15
3.93233	-8
3.93600	2
3.93967	11
3.94333	15
3.94700	14
3.95067	12
3.95433	9
3.95800	5
3.96167	4
3.96533	7
3.96900	12
3.97267	20
3.97633	26
3.98000	26
3.98367	26
3.98733	24
3.99100	22
3.99467	21
3.99833	19

[Chromatogram (Ch2)]
Interval(msec)	220
# of Points	1091
Start Time(min)	0.002
End Time(min)	3.998
R.Time (min)	Intensity
0.00167	0
0.00533	0
0.00900	0
0.01267	0
0.01633	0
0.02000	0
0.02367	1
0.02733	1
0.03100	1
0.03467	1
0.03833	1
0.04200	0
0.04567	0
0.04933	0
0.05300	0
0.05667	0
0.06033	0
0.06400	0
0.06767	-0
0.07133	-0
0.07500	-1
0.07867	-1
0.08233	-1
0.08600	-2
0.08967	-2
0.09333	-2
0.09700	-2
0.10067	-2
0.10433	-1
0.10800	-1
0.11167	-1
0.11533	-0
0.11900	-0
0.12267	0
0.12633	0
0.13000	0
0.13367	0
0.13733	0
0.14100	0
0.14467	0
0.14833	0
0.15200	0
0.15567	0
0.15933	0
0.16300	0
0.16667	0
0.17033	0
0.17400	1
0.17767	1
0.18133	1
0.18500	1
0.18867	1
0.19233	1
0.19600	2
0.19967	2
0.20333	2
0.20700	2
0.21067	2
0.21433	2
0.21800	2
0.22167	2
0.22533	2
0.22900	2
0.23267	2
0.23633	2
0.24000	2
0.24367	2
0.24733	2
0.25100	2
0.25467	2
0.25833	2
0.26200	2
0.26567	2
0.26933	2
0.27300	3
0.27667	3
0.28033	3
0.28400	2
0.28767	2
0.29133	2
0.29500	2
0.29867	2
0.30233	2
0.30600	2
0.30967	1
0.31333	1
0.31700	1
0.32067	1
0.32433	1
0.32800	0
0.33167	1
0.33533	1
0.33900	1
0.34267	1
0.34633	1
0.35000	0
0.35367	-0
0.35733	-1
0.36100	-1
0.36467	-1
0.36833	-1
0.37200	-1
0.37567	-1
0.37933	-1
0.38300	-1
0.38667	-2
0.39033	-2
0.39400	-2
0.39767	-2
0.40133	-2
0.40500	-2
0.40867	-2
0.41233	-3
0.41600	-3
0.41967	-3
0.42333	-3
0.42700	-3
0.43067	-2
0.43433	-2
0.43800	-2
0.44167	-1
0.44533	-1
0.44900	-1
0.45267	-0
0.45633	-0
0.46000	0
0.46367	0
0.46733	1
0.47100	1
0.47467	1
0.47833	1
0.48200	2
0.48567	2
0.48933	2
0.49300	2
0.49667	2
0.50033	2
0.50400	2
0.50767	2
0.51133	2
0.51500	2
0.51867	2
0.52233	1
0.52600	1
0.52967	1
0.53333	1
0.53700	0
0.54067	0
0.54433	0
0.54800	0
0.55167	0
0.55533	0
0.55900	0
0.56267	0
0.56633	1
0.57000	1
0.57367	1
0.57733	1
0.58100	0
0.58467	0
0.58833	0
0.59200	0
0.59567	0
0.59933	-0
0.60300	-0
0.60667	-0
0.61033	-0
0.61400	-0
0.61767	-0
0.62133	-1
0.62500	-1
0.62867	-1
0.63233	-0
0.63600	-0
0.63967	-0
0.64333	-0
0.64700	-0
0.65067	-0
0.65433	-0
0.65800	-0
0.66167	-0
0.66533	-0
0.66900	-0
0.67267	-0
0.67633	-0
0.68000	-0
0.68367	-0
0.68733	-0
0.69100	-0
0.69467	-1
0.69833	-1
0.70200	-1
0.70567	-1
0.70933	-1
0.71300	-1
0.71667	-1
0.72033	-1
0.72400	-1
0.72767	-1
0.73133	-1
0.73500	-1
0.73867	-1
0.74233	-1
0.74600	-1
0.74967	-1
0.75333	-1
0.75700	-1
0.76067	-1
0.76433	-1
0.76800	-1
0.77167	-1
0.77533	-2
0.77900	-2
0.78267	-2
0.78633	-2
0.79000	-2
0.79367	-2
0.79733	-2
0.80100	-2
0.80467	-2
0.80833	-2
0.81200	-2
0.81567	-3
0.81933	-2
0.82300	-2
0.82667	-2
0.83033	-2
0.83400	-1
0.83767	-1
0.84133	-1
0.84500	-0
0.84867	0
0.85233	0
0.85600	1
0.85967	1
0.86333	1
0.86700	1
0.87067	1
0.87433	1
0.87800	1
0.88167	1
0.88533	1
0.88900	2
0.89267	2
0.89633	2
0.90000	2
0.90367	1
0.90733	1
0.91100	1
0.91467	1
0.91833	1
0.92200	0
0.92567	-0
0.92933	-1
0.93300	-1
0.93667	-1
0.94033	-1
0.94400	-1
0.94767	-1
0.95133	-2
0.95500	-2
0.95867	-2
0.96233	-2
0.96600	-2
0.96967	-2
0.97333	-2
0.97700	-2
0.98067	-1
0.98433	-1
0.98800	-1
0.99167	-1
0.99533	-1
0.99900	-1
1.00267	-1
1.00633	-1
1.01000	-1
1.01367	-1
1.01733	-1
1.02100	-1
1.02467	-1
1.02833	-2
1.03200	-2
1.03567	-2
1.03933	-2
1.04300	-2
1.04667	-2
1.05033	-1
1.05400	-1
1.05767	-1
1.06133	-1
1.06500	-1
1.06867	-1
1.07233	-1
1.07600	-1
1.07967	-1
1.08333	-1
1.08700	-1
1.09067	-1
1.09433	-1
1.09800	-1
1.10167	-1
1.10533	-1
1.10900	-1
1.11267	-1
1.11633	-1
1.12000	-1
1.12367	-1
1.12733	-1
1.13100	-1
1.13467	-1
1.13833	-1
1.14200	-1
1.14567	-1
1.14933	-1
1.15300	-1
1.15667	-1
1.16033	-1
1.16400	-1
1.16767	-1
1.17133	-1
1.17500	-1
1.17867	-1
1.18233	-1
1.18600	-1
1.18967	-1
1.19333	-1
1.19700	-1
1.20067	-1
1.20433	-1
1.20800	-2
1.21167	-2
1.21533	-2
1.21900	-3
1.22267	-3
1.22633	-3
1.23000	-4
1.23367	-4
1.23733	-4
1.24100	-4
1.24467	-4
1.24833	-4
1.25200	-4
1.25567	-4
1.25933	-4
1.26300	-4
1.26667	-4
1.27033	-3
1.27400	-3
1.27767	-3
1.28133	-3
1.28500	-3
1.28867	-3
1.29233	-3
1.29600	-3
1.29967	-2
1.30333	-2
1.30700	-3
1.31067	-3
1.31433	-3
1.31800	-4
1.32167	-4
1.32533	-4
1.32900	-4
1.33267	-5
1.33633	-5
1.34000	-5
1.34367	-5
1.34733	-4
1.35100	-4
1.35467	-4
1.35833	-3
1.36200	-3
1.36567	-2
1.36933	-2
1.37300	-2
1.37667	-1
1.38033	-1
1.38400	-1
1.38767	-1
1.39133	-1
1.39500	-1
1.39867	-1
1.40233	-1
1.40600	-1
1.40967	-1
1.41333	-1
1.41700	-0
1.42067	0
1.42433	0
1.42800	1
1.43167	2
1.43533	2
1.43900	3
1.44267	3
1.44633	3
1.45000	3
1.45367	3
1.45733	3
1.46100	3
1.46467	3
1.46833	3
1.47200	2
1.47567	2
1.47933	2
1.48300	2
1.48667	2
1.49033	2
1.49400	2
1.49767	2
1.50133	2
1.50500	2
1.50867	2
1.51233	2
1.51600	2
1.51967	2
1.52333	2
1.52700	2
1.53067	2
1.53433	2
1.53800	1
1.54167	1
1.54533	0
1.54900	-0
1.55267	-1
1.55633	-1
1.56000	-2
1.56367	-3
1.56733	-3
1.57100	-3
1.57467	-3
1.57833	-3
1.58200	-3
1.58567	-3
1.58933	-3
1.59300	-3
1.59667	-3
1.60033	-4
1.60400	-5
1.60767	-6
1.61133	-8
1.61500	-10
1.61867	-12
1.62233	-15
1.62600	-17
1.62967	-20
1.63333	-23
1.63700	-27
1.64067	-30
1.64433	-34
1.64800	-38
1.65167	-42
1.65533	-46
1.65900	-50
1.66267	-54
1.66633	-58
1.67000	-63
1.67367	-67
1.67733	-72
1.68100	-77
1.68467	-82
1.68833	-87
1.69200	-91
1.69567	-94
1.69933	-97
1.70300	-100
1.70667	-102
1.71033	-103
1.71400	-105
1.71767	-106
1.72133	-107
1.72500	-109
1.72867	-110
1.73233	-111
1.73600	-112
1.73967	-114
1.74333	-114
1.74700	-115
1.75067	-115
1.75433	-115
1.75800	-115
1.76167	-115
1.76533	-115
1.76900	-116
1.77267	-116
1.77633	-117
1.78000	-118
1.78367	-119
1.78733	-121
1.79100	-121
1.79467	-122
1.79833	-122
1.80200	-122
1.80567	-122
1.80933	-121
1.81300	-121
1.81667	-121
1.82033	-121
1.82400	-121
1.82767	-121
1.83133	-122
1.83500	-123
1.83867	-123
1.84233	-124
1.84600	-124
1.84967	-124
1.85333	-124
1.85700	-123
1.86067	-122
1.86433	-120
1.86800	-119
1.87167	-118
1.87533	-117
1.87900	-116
1.88267	-116
1.88633	-117
1.89000	-117
1.89367	-117
1.89733	-117
1.90100	-118
1.90467	-118
1.90833	-118
1.91200	-119
1.91567	-119
1.91933	-119
1.92300	-119
1.92667	-118
1.93033	-118
1.93400	-118
1.93767	-118
1.94133	-118
1.94500	-118
1.94867	-118
1.95233	-119
1.95600	-119
1.95967	-118
1.96333	-118
1.96700	-117
1.97067	-117
1.97433	-116
1.97800	-115
1.98167	-115
1.98533	-114
1.98900	-113
1.99267	-113
1.99633	-113
2.00000	-113
2.00367	-113
2.00733	-113
2.01100	-113
2.01467	-113
2.01833	-114
2.02200	-113
2.02567	-113
2.02933	-113
2.03300	-113
2.03667	-112
2.04033	-112
2.04400	-111
2.04767	-111
2.05133	-111
2.05500	-110
2.05867	-109
2.06233	-109
2.06600	-109
2.06967	-109
2.07333	-108
2.07700	-108
2.08067	-108
2.08433	-108
2.08800	-108
2.09167	-108
2.09533	-108
2.09900	-108
2.10267	-107
2.10633	-107
2.11000	-106
2.11367	-106
2.11733	-106
2.12100	-106
2.12467	-105
2.12833	-105
2.13200	-105
2.13567	-104
2.13933	-104
2.14300	-104
2.14667	-103
2.15033	-103
2.15400	-102
2.15767	-102
2.16133	-101
2.16500	-101
2.16867	-101
2.17233	-100
2.17600	-100
2.17967	-99
2.18333	-97
2.18700	-96
2.19067	-95
2.19433	-94
2.19800	-93
2.20167	-92
2.20533	-92
2.20900	-92
2.21267	-93
2.21633	-93
2.22000	-94
2.22367	-94
2.22733	-94
2.23100	-94
2.23467	-94
2.23833	-94
2.24200	-95
2.24567	-95
2.24933	-96
2.25300	-96
2.25667	-95
2.26033	-94
2.26400	-93
2.26767	-92
2.27133	-91
2.27500	-90
2.27867	-90
2.28233	-90
2.28600	-91
2.28967	-92
2.29333	-92
2.29700	-93
2.30067	-93
2.30433	-93
2.30800	-92
2.31167	-92
2.31533	-91
2.31900	-90
2.32267	-89
2.32633	-88
2.33000	-87
2.33367	-86
2.33733	-85
2.34100	-85
2.34467	-84
2.34833	-84
2.35200	-83
2.35567	-82
2.35933	-81
2.36300	-80
2.36667	-79
2.37033	-78
2.37400	-76
2.37767	-74
2.38133	-71
2.38500	-67
2.38867	-64
2.39233	-60
2.39600	-55
2.39967	-51
2.40333	-46
2.40700	-42
2.41067	-38
2.41433	-34
2.41800	-30
2.42167	-26
2.42533	-23
2.42900	-21
2.43267	-18
2.43633	-16
2.44000	-14
2.44367	-12
2.44733	-10
2.45100	-8
2.45467	-6
2.45833	-5
2.46200	-4
2.46567	-3
2.46933	-2
2.47300	-2
2.47667	-1
2.48033	-0
2.48400	1
2.48767	2
2.49133	3
2.49500	4
2.49867	5
2.50233	6
2.50600	6
2.50967	7
2.51333	8
2.51700	9
2.52067	9
2.52433	10
2.52800	11
2.53167	11
2.53533	11
2.53900	12
2.54267	12
2.54633	12
2.55000	13
2.55367	13
2.55733	14
2.56100	14
2.56467	14
2.56833	15
2.57200	15
2.57567	16
2.57933	16
2.58300	16
2.58667	17
2.59033	16
2.59400	16
2.59767	16
2.60133	16
2.60500	16
2.60867	16
2.61233	16
2.61600	17
2.61967	17
2.62333	17
2.62700	17
2.63067	17
2.63433	17
2.63800	17
2.64167	17
2.64533	17
2.64900	18
2.65267	19
2.65633	19
2.66000	20
2.66367	20
2.66733	21
2.67100	21
2.67467	21
2.67833	21
2.68200	21
2.68567	21
2.68933	21
2.69300	21
2.69667	21
2.70033	21
2.70400	22
2.70767	22
2.71133	23
2.71500	23
2.71867	24
2.72233	24
2.72600	25
2.72967	25
2.73333	26
2.73700	26
2.74067	26
2.74433	27
2.74800	27
2.75167	27
2.75533	27
2.75900	27
2.76267	27
2.76633	26
2.77000	26
2.77367	26
2.77733	25
2.78100	25
2.78467	25
2.78833	25
2.79200	25
2.79567	25
2.79933	25
2.80300	25
2.80667	25
2.81033	25
2.81400	25
2.81767	25
2.82133	26
2.82500	26
2.82867	26
2.83233	26
2.83600	26
2.83967	26
2.84333	26
2.84700	26
2.85067	24
2.85433	22
2.85800	18
2.86167	12
2.86533	3
2.86900	-8
2.87267	-24
2.87633	-43
2.88000	-67
2.88367	-94
2.88733	-125
2.89100	-160
2.89467	-198
2.89833	-239
2.90200	-283
2.90567	-329
2.90933	-376
2.91300	-426
2.91667	-475
2.92033	-526
2.92400	-576
2.92767	-626
2.93133	-676
2.93500	-726
2.93867	-775
2.94233	-824
2.94600	-877
2.94967	-936
2.95333	-997
2.95700	-1051
2.96067	-1086
2.96433	-1097
2.96800	-1082
2.97167	-1042
2.97533	-984
2.97900	-914
2.98267	-836
2.98633	-755
2.99000	-675
2.99367	-598
2.99733	-526
3.00100	-460
3.00467	-399
3.00833	-345
3.01200	-296
3.01567	-254
3.01933	-216
3.02300	-184
3.02667	-155
3.03033	-131
3.03400	-110
3.03767	-91
3.04133	-76
3.04500	-63
3.04867	-51
3.05233	-42
3.05600	-33
3.05967	-26
3.06333	-21
3.06700	-16
3.07067	-11
3.07433	-8
3.07800	-4
3.08167	-2
3.08533	1
3.08900	3
3.09267	5
3.09633	6
3.10000	7
3.10367	8
3.10733	9
3.11100	10
3.11467	11
3.11833	12
3.12200	13
3.12567	13
3.12933	14
3.13300	14
3.13667	14
3.14033	15
3.14400	15
3.14767	15
3.15133	16
3.15500	16
3.15867	16
3.16233	17
3.16600	17
3.16967	17
3.17333	17
3.17700	18
3.18067	18
3.18433	18
3.18800	18
3.19167	18
3.19533	18
3.19900	18
3.20267	19
3.20633	19
3.21000	19
3.21367	19
3.21733	19
3.22100	20
3.22467	20
3.22833	20
3.23200	21
3.23567	21
3.23933	21
3.24300	21
3.24667	21
3.25033	21
3.25400	21
3.25767	22
3.26133	22
3.26500	22
3.26867	22
3.27233	22
3.27600	22
3.27967	22
3.28333	22
3.28700	23
3.29067	23
3.29433	23
3.29800	23
3.30167	23
3.30533	23
3.30900	23
3.31267	23
3.31633	23
3.32000	24
3.32367	24
3.32733	24
3.33100	25
3.33467	25
3.33833	25
3.34200	25
3.34567	26
3.34933	26
3.35300	26
3.35667	26
3.36033	27
3.36400	27
3.36767	27
3.37133	27
3.37500	27
3.37867	27
3.38233	27
3.38600	27
3.38967	27
3.39333	28
3.39700	28
3.40067	28
3.40433	28
3.40800	28
3.41167	28
3.41533	27
3.41900	28
3.42267	28
3.42633	28
3.43000	28
3.43367	28
3.43733	28
3.44100	28
3.44467	28
3.44833	28
3.45200	28
3.45567	28
3.45933	28
3.46300	28
3.46667	28
3.47033	28
3.47400	28
3.47767	28
3.48133	28
3.48500	28
3.48867	28
3.49233	27
3.49600	27
3.49967	27
3.50333	27
3.50700	27
3.51067	27
3.51433	27
3.51800	27
3.52167	27
3.52533	27
3.52900	26
3.53267	26
3.53633	26
3.54000	26
3.54367	26
3.54733	26
3.55100	26
3.55467	26
3.55833	27
3.56200	27
3.56567	27
3.56933	27
3.57300	27
3.57667	27
3.58033	27
3.58400	27
3.58767	27
3.59133	27
3.59500	27
3.59867	28
3.60233	28
3.60600	28
3.60967	28
3.61333	27
3.61700	27
3.62067	27
3.62433	27
3.62800	26
3.63167	26
3.63533	25
3.63900	25
3.64267	25
3.64633	25
3.65000	25
3.65367	26
3.65733	26
3.66100	26
3.66467	26
3.66833	26
3.67200	25
3.67567	25
3.67933	25
3.68300	24
3.68667	24
3.69033	24
3.69400	24
3.69767	25
3.70133	25
3.70500	25
3.70867	25
3.71233	25
3.71600	25
3.71967	25
3.72333	26
3.72700	26
3.73067	26
3.73433	26
3.73800	27
3.74167	27
3.74533	27
3.74900	26
3.75267	26
3.75633	26
3.76000	25
3.76367	25
3.76733	25
3.77100	25
3.77467	25
3.77833	26
3.78200	26
3.78567	26
3.78933	26
3.79300	26
3.79667	26
3.80033	26
3.80400	26
3.80767	26
3.81133	26
3.81500	26
3.81867	26
3.82233	26
3.82600	26
3.82967	26
3.83333	25
3.83700	25
3.84067	25
3.84433	25
3.84800	25
3.85167	25
3.85533	26
3.85900	26
3.86267	26
3.86633	26
3.87000	26
3.87367	26
3.87733	26
3.88100	26
3.88467	26
3.88833	26
3.89200	26
3.89567	26
3.89933	26
3.90300	26
3.90667	26
3.91033	26
3.91400	27
3.91767	27
3.92133	27
3.92500	27
3.92867	27
3.93233	27
3.93600	27
3.93967	27
3.94333	27
3.94700	27
3.95067	27
3.95433	27
3.95800	27
3.96167	27
3.96533	27
3.96900	27
3.97267	27
3.97633	27
3.98000	27
3.98367	27
3.98733	27
3.99100	27
3.99467	26
3.99833	26

[Chromatogram (Ch3)]
Interval(msec)	220
# of Points	1091
Start Time(min)	0.002
End Time(min)	3.998
R.Time (min)	Intensity
0.00167	0
0.00533	1
0.00900	0
0.01267	2
0.01633	3
0.02000	2
0.02367	1
0.02733	0
0.03100	1
0.03467	1
0.03833	-1
0.04200	-2
0.04567	-0
0.04933	4
0.05300	6
0.05667	7
0.06033	7
0.06400	8
0.06767	7
0.07133	7
0.07500	6
0.07867	4
0.08233	3
0.08600	3
0.08967	4
0.09333	4
0.09700	6
0.10067	6
0.10433	5
0.10800	6
0.11167	7
0.11533	7
0.11900	6
0.12267	5
0.12633	4
0.13000	5
0.13367	5
0.13733	6
0.14100	7
0.14467	7
0.14833	8
0.15200	8
0.15567	10
0.15933	12
0.16300	11
0.16667	7
0.17033	5
0.17400	5
0.17767	6
0.18133	10
0.18500	12
0.18867	14
0.19233	13
0.19600	10
0.19967	10
0.20333	10
0.20700	11
0.21067	13
0.21433	15
0.21800	16
0.22167	18
0.22533	20
0.22900	21
0.23267	21
0.23633	20
0.24000	19
0.24367	17
0.24733	15
0.25100	15
0.25467	14
0.25833	14
0.26200	14
0.26567	15
0.26933	16
0.27300	15
0.27667	14
0.28033	16
0.28400	18
0.28767	20
0.29133	22
0.29500	24
0.29867	26
0.30233	26
0.30600	27
0.30967	27
0.31333	25
0.31700	23
0.32067	21
0.32433	19
0.32800	16
0.33167	16
0.33533	18
0.33900	17
0.34267	18
0.34633	16
0.35000	18
0.35367	20
0.35733	21
0.36100	21
0.36467	22
0.36833	22
0.37200	22
0.37567	22
0.37933	22
0.38300	23
0.38667	21
0.39033	19
0.39400	20
0.39767	21
0.40133	21
0.40500	20
0.40867	21
0.41233	21
0.41600	22
0.41967	23
0.42333	25
0.42700	26
0.43067	26
0.43433	25
0.43800	23
0.44167	20
0.44533	20
0.44900	21
0.45267	23
0.45633	23
0.46000	24
0.46367	26
0.46733	27
0.47100	27
0.47467	27
0.47833	27
0.48200	29
0.48567	31
0.48933	30
0.49300	27
0.49667	23
0.50033	23
0.50400	23
0.50767	25
0.51133	27
0.51500	30
0.51867	33
0.52233	34
0.52600	34
0.52967	33
0.53333	32
0.53700	32
0.54067	33
0.54433	30
0.54800	27
0.55167	26
0.55533	26
0.55900	25
0.56267	25
0.56633	26
0.57000	29
0.57367	28
0.57733	26
0.58100	24
0.58467	26
0.58833	29
0.59200	29
0.59567	31
0.59933	35
0.60300	35
0.60667	33
0.61033	33
0.61400	33
0.61767	33
0.62133	33
0.62500	32
0.62867	30
0.63233	30
0.63600	30
0.63967	31
0.64333	33
0.64700	32
0.65067	33
0.65433	35
0.65800	34
0.66167	34
0.66533	35
0.66900	35
0.67267	36
0.67633	37
0.68000	38
0.68367	36
0.68733	36
0.69100	37
0.69467	37
0.69833	40
0.70200	41
0.70567	41
0.70933	41
0.71300	39
0.71667	37
0.72033	37
0.72400	37
0.72767	39
0.73133	40
0.73500	40
0.73867	39
0.74233	37
0.74600	36
0.74967	39
0.75333	41
0.75700	40
0.76067	40
0.76433	40
0.76800	39
0.77167	39
0.77533	37
0.77900	36
0.78267	38
0.78633	41
0.79000	44
0.79367	44
0.79733	42
0.80100	40
0.80467	40
0.80833	41
0.81200	41
0.81567	42
0.81933	43
0.82300	42
0.82667	41
0.83033	38
0.83400	37
0.83767	39
0.84133	40
0.84500	41
0.84867	42
0.85233	43
0.85600	43
0.85967	42
0.86333	41
0.86700	41
0.87067	41
0.87433	42
0.87800	42
0.88167	43
0.88533	43
0.88900	42
0.89267	42
0.89633	44
0.90000	43
0.90367	42
0.90733	42
0.91100	44
0.91467	45
0.91833	45
0.92200	46
0.92567	49
0.92933	51
0.93300	51
0.93667	50
0.94033	47
0.94400	47
0.94767	47
0.95133	50
0.95500	51
0.95867	50
0.96233	48
0.96600	46
0.96967	47
0.97333	46
0.97700	45
0.98067	47
0.98433	49
0.98800	49
0.99167	50
0.99533	50
0.99900	48
1.00267	47
1.00633	47
1.01000	48
1.01367	46
1.01733	45
1.02100	45
1.02467	45
1.02833	43
1.03200	43
1.03567	44
1.03933	45
1.04300	45
1.04667	46
1.05033	47
1.05400	48
1.05767	48
1.06133	47
1.06500	47
1.06867	47
1.07233	46
1.07600	45
1.07967	45
1.08333	46
1.08700	46
1.09067	46
1.09433	45
1.09800	46
1.10167	44
1.10533	44
1.10900	45
1.11267	47
1.11633	48
1.12000	50
1.12367	50
1.12733	49
1.13100	47
1.13467	48
1.13833	47
1.14200	45
1.14567	43
1.14933	43
1.15300	44
1.15667	43
1.16033	42
1.16400	42
1.16767	44
1.17133	47
1.17500	47
1.17867	47
1.18233	46
1.18600	45
1.18967	46
1.19333	46
1.19700	46
1.20067	46
1.20433	46
1.20800	46
1.21167	46
1.21533	49
1.21900	49
1.22267	48
1.22633	48
1.23000	48
1.23367	49
1.23733	50
1.24100	50
1.24467	48
1.24833	46
1.25200	46
1.25567	46
1.25933	46
1.26300	45
1.26667	43
1.27033	45
1.27400	49
1.27767	49
1.28133	48
1.28500	47
1.28867	46
1.29233	45
1.29600	45
1.29967	47
1.30333	49
1.30700	50
1.31067	51
1.31433	54
1.31800	54
1.32167	53
1.32533	52
1.32900	52
1.33267	53
1.33633	52
1.34000	50
1.34367	48
1.34733	46
1.35100	46
1.35467	46
1.35833	45
1.36200	47
1.36567	48
1.36933	47
1.37300	46
1.37667	48
1.38033	50
1.38400	52
1.38767	51
1.39133	51
1.39500	52
1.39867	53
1.40233	53
1.40600	51
1.40967	49
1.41333	46
1.41700	43
1.42067	40
1.42433	37
1.42800	42
1.43167	44
1.43533	44
1.43900	47
1.44267	49
1.44633	49
1.45000	47
1.45367	46
1.45733	45
1.46100	45
1.46467	45
1.46833	43
1.47200	43
1.47567	43
1.47933	44
1.48300	43
1.48667	42
1.49033	40
1.49400	40
1.49767	40
1.50133	43
1.50500	47
1.50867	49
1.51233	49
1.51600	50
1.51967	49
1.52333	46
1.52700	42
1.53067	40
1.53433	42
1.53800	43
1.54167	44
1.54533	46
1.54900	46
1.55267	45
1.55633	45
1.56000	45
1.56367	44
1.56733	45
1.57100	46
1.57467	42
1.57833	39
1.58200	39
1.58567	38
1.58933	37
1.59300	37
1.59667	39
1.60033	41
1.60400	42
1.60767	44
1.61133	46
1.61500	46
1.61867	44
1.62233	44
1.62600	44
1.62967	44
1.63333	45
1.63700	46
1.64067	47
1.64433	47
1.64800	47
1.65167	48
1.65533	47
1.65900	46
1.66267	46
1.66633	46
1.67000	46
1.67367	46
1.67733	48
1.68100	48
1.68467	49
1.68833	51
1.69200	55
1.69567	57
1.69933	56
1.70300	54
1.70667	55
1.71033	57
1.71400	58
1.71767	59
1.72133	58
1.72500	56
1.72867	56
1.73233	54
1.73600	53
1.73967	54
1.74333	54
1.74700	54
1.75067	54
1.75433	53
1.75800	52
1.76167	53
1.76533	53
1.76900	57
1.77267	60
1.77633	62
1.78000	62
1.78367	60
1.78733	60
1.79100	62
1.79467	62
1.79833	64
1.80200	64
1.80567	64
1.80933	66
1.81300	66
1.81667	68
1.82033	68
1.82400	69
1.82767	68
1.83133	67
1.83500	68
1.83867	68
1.84233	66
1.84600	65
1.84967	65
1.85333	64
1.85700	64
1.86067	64
1.86433	64
1.86800	64
1.87167	65
1.87533	64
1.87900	65
1.88267	67
1.88633	69
1.89000	70
1.89367	69
1.89733	70
1.90100	69
1.90467	69
1.90833	69
1.91200	69
1.91567	68
1.91933	67
1.92300	69
1.92667	70
1.93033	73
1.93400	76
1.93767	77
1.94133	79
1.94500	79
1.94867	79
1.95233	78
1.95600	76
1.95967	75
1.96333	75
1.96700	77
1.97067	79
1.97433	79
1.97800	79
1.98167	78
1.98533	77
1.98900	79
1.99267	81
1.99633	83
2.00000	84
2.00367	85
2.00733	85
2.01100	86
2.01467	88
2.01833	88
2.02200	89
2.02567	91
2.02933	92
2.03300	92
2.03667	92
2.04033	93
2.04400	95
2.04767	94
2.05133	94
2.05500	94
2.05867	95
2.06233	97
2.06600	96
2.06967	97
2.07333	99
2.07700	101
2.08067	104
2.08433	106
2.08800	108
2.09167	108
2.09533	107
2.09900	108
2.10267	111
2.10633	112
2.11000	111
2.11367	109
2.11733	109
2.12100	110
2.12467	111
2.12833	112
2.13200	113
2.13567	115
2.13933	117
2.14300	117
2.14667	116
2.15033	117
2.15400	118
2.15767	117
2.16133	118
2.16500	121
2.16867	122
2.17233	123
2.17600	124
2.17967	124
2.18333	125
2.18700	126
2.19067	126
2.19433	126
2.19800	126
2.20167	127
2.20533	128
2.20900	128
2.21267	129
2.21633	128
2.22000	126
2.22367	126
2.22733	129
2.23100	132
2.23467	135
2.23833	139
2.24200	140
2.24567	139
2.24933	141
2.25300	139
2.25667	139
2.26033	139
2.26400	138
2.26767	137
2.27133	136
2.27500	137
2.27867	139
2.28233	139
2.28600	139
2.28967	140
2.29333	138
2.29700	139
2.30067	141
2.30433	142
2.30800	144
2.31167	147
2.31533	147
2.31900	148
2.32267	151
2.32633	151
2.33000	150
2.33367	151
2.33733	152
2.34100	152
2.34467	152
2.34833	154
2.35200	156
2.35567	157
2.35933	156
2.36300	157
2.36667	159
2.37033	161
2.37400	161
2.37767	159
2.38133	156
2.38500	155
2.38867	154
2.39233	155
2.39600	158
2.39967	161
2.40333	163
2.40700	163
2.41067	165
2.41433	167
2.41800	170
2.42167	173
2.42533	174
2.42900	173
2.43267	174
2.43633	176
2.44000	178
2.44367	189
2.44733	223
2.45100	265
2.45467	297
2.45833	308
2.46200	303
2.46567	294
2.46933	287
2.47300	279
2.47667	270
2.48033	257
2.48400	243
2.48767	230
2.49133	217
2.49500	206
2.49867	200
2.50233	197
2.50600	194
2.50967	195
2.51333	199
2.51700	203
2.52067	205
2.52433	204
2.52800	198
2.53167	191
2.53533	182
2.53900	173
2.54267	165
2.54633	158
2.55000	153
2.55367	148
2.55733	144
2.56100	142
2.56467	140
2.56833	142
2.57200	143
2.57567	142
2.57933	141
2.58300	140
2.58667	141
2.59033	144
2.59400	147
2.59767	148
2.60133	145
2.60500	136
2.60867	120
2.61233	98
2.61600	68
2.61967	31
2.62333	-10
2.62700	-53
2.63067	-93
2.63433	-131
2.63800	-163
2.64167	-190
2.64533	-212
2.64900	-229
2.65267	-238
2.65633	-244
2.66000	-243
2.66367	-239
2.66733	-234
2.67100	-227
2.67467	-218
2.67833	-211
2.68200	-202
2.68567	-190
2.68933	-180
2.69300	-168
2.69667	-157
2.70033	-144
2.70400	-135
2.70767	-128
2.71133	-117
2.71500	-106
2.71867	-97
2.72233	-89
2.72600	-83
2.72967	-75
2.73333	-69
2.73700	-64
2.74067	-57
2.74433	-51
2.74800	-45
2.75167	-39
2.75533	-33
2.75900	-27
2.76267	-22
2.76633	-18
2.77000	-14
2.77367	-8
2.77733	-5
2.78100	-3
2.78467	0
2.78833	4
2.79200	6
2.79567	10
2.79933	14
2.80300	16
2.80667	19
2.81033	21
2.81400	23
2.81767	22
2.82133	28
2.82500	49
2.82867	92
2.83233	153
2.83600	239
2.83967	371
2.84333	573
2.84700	872
2.85067	1284
2.85433	1807
2.85800	2424
2.86167	3103
2.86533	3798
2.86900	4459
2.87267	5035
2.87633	5482
2.88000	5774
2.88367	5904
2.88733	5881
2.89100	5729
2.89467	5476
2.89833	5156
2.90200	4795
2.90567	4419
2.90933	4042
2.91300	3680
2.91667	3340
2.92033	3025
2.92400	2740
2.92767	2486
2.93133	2260
2.93500	2058
2.93867	1880
2.94233	1725
2.94600	1591
2.94967	1478
2.95333	1378
2.95700	1291
2.96067	1214
2.96433	1148
2.96800	1094
2.97167	1045
2.97533	1002
2.97900	966
2.98267	936
2.98633	911
2.99000	891
2.99367	874
2.99733	857
3.00100	843
3.00467	830
3.00833	820
3.01200	813
3.01567	808
3.01933	803
3.02300	799
3.02667	793
3.03033	788
3.03400	784
3.03767	780
3.04133	777
3.04500	774
3.04867	772
3.05233	770
3.05600	770
3.05967	770
3.06333	771
3.06700	771
3.07067	772
3.07433	772
3.07800	774
3.08167	775
3.08533	777
3.08900	778
3.09267	778
3.09633	776
3.10000	772
3.10367	769
3.10733	769
3.11100	769
3.11467	770
3.11833	772
3.12200	773
3.12567	773
3.12933	773
3.13300	772
3.13667	771
3.14033	771
3.14400	770
3.14767	772
3.15133	774
3.15500	774
3.15867	771
3.16233	769
3.16600	769
3.16967	769
3.17333	769
3.17700	770
3.18067	769
3.18433	768
3.18800	766
3.19167	764
3.19533	765
3.19900	767
3.20267	767
3.20633	767
3.21000	767
3.21367	767
3.21733	767
3.22100	768
3.22467	770
3.22833	768
3.23200	764
3.23567	761
3.23933	761
3.24300	760
3.24667	758
3.25033	756
3.25400	754
3.25767	752
3.26133	751
3.26500	751
3.26867	752
3.27233	750
3.27600	747
3.27967	741
3.28333	736
3.28700	732
3.29067	730
3.29433	728
3.29800	726
3.30167	724
3.30533	722
3.30900	721
3.31267	720
3.31633	717
3.32000	714
3.32367	710
3.32733	707
3.33100	707
3.33467	706
3.33833	702
3.34200	695
3.34567	688
3.34933	684
3.35300	679
3.35667	673
3.36033	670
3.36400	668
3.36767	664
3.37133	658
3.37500	653
3.37867	650
3.38233	646
3.38600	641
3.38967	636
3.39333	632
3.39700	628
3.40067	624
3.40433	620
3.40800	615
3.41167	610
3.41533	608
3.41900	608
3.42267	604
3.42633	600
3.43000	598
3.43367	597
3.43733	596
3.44100	594
3.44467	592
3.44833	588
3.45200	582
3.45567	579
3.45933	574
3.46300	569
3.46667	567
3.47033	567
3.47400	565
3.47767	563
3.48133	558
3.48500	554
3.48867	552
3.49233	550
3.49600	546
3.49967	542
3.50333	538
3.50700	536
3.51067	534
3.51433	530
3.51800	527
3.52167	523
3.52533	520
3.52900	516
3.53267	513
3.53633	509
3.54000	502
3.54367	498
3.54733	494
3.55100	492
3.55467	491
3.55833	488
3.56200	484
3.56567	479
3.56933	476
3.57300	474
3.57667	472
3.58033	471
3.58400	469
3.58767	468
3.59133	467
3.59500	464
3.59867	461
3.60233	458
3.60600	456
3.60967	453
3.61333	449
3.61700	446
3.62067	445
3.62433	443
3.62800	439
3.63167	435
3.63533	433
3.63900	429
3.64267	425
3.64633	424
3.65000	424
3.65367	424
3.65733	423
3.66100	421
3.66467	418
3.66833	414
3.67200	411
3.67567	407
3.67933	405
3.68300	405
3.68667	405
3.69033	405
3.69400	405
3.69767	402
3.70133	399
3.70500	397
3.70867	395
3.71233	392
3.71600	390
3.71967	388
3.72333	387
3.72700	384
3.73067	382
3.73433	379
3.73800	377
3.74167	376
3.74533	376
3.74900	376
3.75267	376
3.75633	374
3.76000	371
3.76367	367
3.76733	364
3.77100	361
3.77467	361
3.77833	360
3.78200	357
3.78567	355
3.78933	354
3.79300	352
3.79667	350
3.80033	350
3.80400	350
3.80767	350
3.81133	349
3.81500	347
3.81867	344
3.82233	341
3.82600	341
3.82967	341
3.83333	340
3.83700	337
3.84067	335
3.84433	333
3.84800	331
3.85167	330
3.85533	329
3.85900	328
3.86267	329
3.86633	330
3.87000	328
3.87367	324
3.87733	321
3.88100	317
3.88467	315
3.88833	313
3.89200	314
3.89567	312
3.89933	312
3.90300	312
3.90667	310
3.91033	308
3.91400	305
3.91767	303
3.92133	303
3.92500	304
3.92867	303
3.93233	300
3.93600	298
3.93967	295
3.94333	294
3.94700	295
3.95067	294
3.95433	294
3.95800	293
3.96167	292
3.96533	291
3.96900	291
3.97267	292
3.97633	288
3.98000	285
3.98367	281
3.98733	277
3.99100	275
3.99467	272
3.99833	270

[Status Trace (Column Oven Temperature)]
Interval(msec)	1000
# of Points	240
Start Time(min)	0.012
End Time(min)	3.995
Intensity Units	
Intensity Multiplier	1
R.Time (min)	Intensity
0.01217	35.00
0.02883	35.00
0.04550	35.00
0.06217	35.00
0.07883	35.01
0.09550	35.02
0.11217	35.02
0.12883	35.01
0.14550	35.01
0.16217	35.01
0.17883	35.00
0.19550	35.00
0.21217	34.98
0.22883	34.98
0.24550	34.97
0.26217	34.97
0.27883	34.97
0.29550	34.97
0.31217	34.97
0.32883	34.97
0.34550	34.97
0.36217	34.99
0.37883	34.99
0.39550	34.99
0.41217	34.99
0.42883	35.00
0.44550	34.99
0.46217	34.98
0.47883	34.98
0.49550	34.98
0.51217	34.98
0.52883	34.99
0.54550	34.98
0.56217	34.97
0.57883	34.96
0.59550	34.97
0.61217	34.98
0.62883	34.98
0.64550	34.98
0.66217	34.97
0.67883	34.97
0.69550	34.98
0.71217	34.99
0.72883	35.00
0.74550	35.01
0.76217	35.01
0.77883	35.01
0.79550	35.01
0.81217	35.01
0.82883	35.01
0.84550	35.00
0.86217	34.99
0.87883	34.98
0.89550	34.98
0.91217	34.98
0.92883	34.98
0.94550	34.99
0.96217	34.99
0.97883	34.99
0.99550	34.98
1.01217	34.98
1.02883	34.98
1.04550	34.98
1.06217	34.99
1.07883	34.99
1.09550	35.00
1.11217	35.00
1.12883	34.99
1.14550	35.00
1.16217	35.00
1.17883	35.00
1.19550	35.01
1.21217	35.02
1.22883	35.03
1.24550	35.04
1.26217	35.04
1.27883	35.04
1.29550	35.05
1.31217	35.05
1.32883	35.06
1.34550	35.07
1.36217	35.06
1.37883	35.06
1.39550	35.06
1.41217	35.05
1.42883	35.04
1.44550	35.01
1.46217	35.00
1.47883	35.00
1.49550	34.99
1.51217	34.97
1.52883	34.96
1.54550	34.98
1.56217	34.99
1.57883	34.99
1.59550	35.00
1.61217	35.07
1.62883	35.22
1.64550	35.42
1.66217	35.69
1.67883	36.04
1.69550	36.40
1.71217	36.74
1.72883	37.08
1.74550	37.42
1.76217	37.74
1.77883	38.09
1.79550	38.43
1.81217	38.74
1.82883	39.09
1.84550	39.44
1.86217	39.73
1.87883	40.05
1.89550	40.38
1.91217	40.71
1.92883	41.03
1.94550	41.36
1.96217	41.70
1.97883	42.00
1.99550	42.33
2.01217	42.66
2.02883	43.01
2.04550	43.32
2.06217	43.66
2.07883	43.99
2.09550	44.30
2.11217	44.63
2.12883	44.97
2.14550	45.30
2.16217	45.64
2.17883	45.95
2.19550	46.23
2.21217	46.57
2.22883	46.90
2.24550	47.26
2.26217	47.56
2.27883	47.90
2.29550	48.26
2.31217	48.60
2.32883	48.92
2.34550	49.25
2.36217	49.51
2.37883	49.63
2.39550	49.67
2.41217	49.66
2.42883	49.67
2.44550	49.68
2.46217	49.69
2.47883	49.70
2.49550	49.71
2.51217	49.72
2.52883	49.74
2.54550	49.76
2.56217	49.78
2.57883	49.78
2.59550	49.80
2.61217	49.80
2.62883	49.83
2.64550	49.85
2.66217	49.85
2.67883	49.87
2.69550	49.87
2.71217	49.87
2.72883	49.86
2.74550	49.84
2.76217	49.85
2.77883	49.87
2.79550	49.87
2.81217	49.88
2.82883	49.88
2.84550	49.89
2.86217	49.90
2.87883	49.91
2.89550	49.93
2.91217	49.96
2.92883	49.96
2.94550	49.97
2.96217	49.97
2.97883	49.98
2.99550	49.98
3.01217	49.99
3.02883	49.99
3.04550	49.99
3.06217	50.01
3.07883	50.00
3.09550	50.00
3.11217	50.00
3.12883	50.02
3.14550	50.03
3.16217	50.03
3.17883	50.04
3.19550	50.06
3.21217	50.07
3.22883	50.08
3.24550	50.08
3.26217	50.09
3.27883	50.09
3.29550	50.10
3.31217	50.10
3.32883	50.10
3.34550	50.09
3.36217	50.08
3.37883	50.07
3.39550	50.06
3.41217	50.05
3.42883	50.04
3.44550	50.03
3.46217	50.03
3.47883	50.03
3.49550	50.04
3.51217	50.04
3.52883	50.04
3.54550	50.04
3.56217	50.04
3.57883	50.04
3.59550	50.05
3.61217	50.05
3.62883	50.05
3.64550	50.06
3.66217	50.05
3.67883	50.06
3.69550	50.06
3.71217	50.06
3.72883	50.05
3.74550	50.05
3.76217	50.05
3.77883	50.05
3.79550	50.06
3.81217	50.07
3.82883	50.07
3.84550	50.08
3.86217	50.07
3.87883	50.07
3.89550	50.08
3.91217	50.07
3.92883	50.07
3.94550	50.08
3.96217	50.08
3.97883	50.08
3.99550	50.07

[Status Trace (Injection Unit Temperature)]
Interval(msec)	1000
# of Points	240
Start Time(min)	0.012
End Time(min)	3.995
Intensity Units	
Intensity Multiplier	1
R.Time (min)	Intensity
0.01217	99.98
0.02883	99.98
0.04550	99.98
0.06217	99.98
0.07883	99.98
0.09550	99.98
0.11217	99.98
0.12883	99.98
0.14550	99.98
0.16217	99.98
0.17883	99.98
0.19550	99.98
0.21217	99.98
0.22883	99.98
0.24550	99.98
0.26217	99.98
0.27883	99.98
0.29550	99.98
0.31217	99.97
0.32883	99.98
0.34550	99.98
0.36217	99.98
0.37883	99.98
0.39550	99.98
0.41217	99.98
0.42883	99.98
0.44550	99.98
0.46217	99.97
0.47883	99.98
0.49550	99.98
0.51217	99.98
0.52883	99.98
0.54550	99.98
0.56217	99.98
0.57883	99.98
0.59550	99.98
0.61217	99.98
0.62883	99.98
0.64550	99.98
0.66217	99.98
0.67883	99.99
0.69550	99.98
0.71217	99.98
0.72883	99.98
0.74550	99.98
0.76217	99.98
0.77883	99.99
0.79550	99.98
0.81217	99.98
0.82883	99.98
0.84550	99.98
0.86217	99.99
0.87883	99.99
0.89550	99.99
0.91217	99.99
0.92883	99.98
0.94550	99.99
0.96217	99.98
0.97883	99.99
0.99550	99.98
1.01217	99.99
1.02883	99.99
1.04550	99.99
1.06217	99.99
1.07883	99.98
1.09550	99.99
1.11217	99.98
1.12883	99.99
1.14550	99.99
1.16217	99.99
1.17883	99.99
1.19550	99.99
1.21217	99.99
1.22883	99.99
1.24550	99.99
1.26217	99.99
1.27883	99.99
1.29550	99.99
1.31217	99.99
1.32883	99.99
1.34550	99.99
1.36217	99.99
1.37883	99.99
1.39550	99.98
1.41217	99.99
1.42883	99.99
1.44550	99.99
1.46217	99.99
1.47883	99.99
1.49550	99.99
1.51217	99.99
1.52883	99.99
1.54550	99.99
1.56217	99.99
1.57883	99.99
1.59550	99.99
1.61217	99.99
1.62883	99.99
1.64550	99.99
1.66217	99.99
1.67883	99.99
1.69550	99.99
1.71217	99.99
1.72883	99.99
1.74550	99.98
1.76217	99.98
1.77883	99.98
1.79550	99.98
1.81217	99.98
1.82883	99.98
1.84550	99.98
1.86217	99.98
1.87883	99.98
1.89550	99.97
1.91217	99.98
1.92883	99.98
1.94550	99.97
1.96217	99.97
1.97883	99.98
1.99550	99.98
2.01217	99.98
2.02883	99.98
2.04550	99.97
2.06217	99.97
2.07883	99.97
2.09550	99.97
2.11217	99.97
2.12883	99.98
2.14550	99.97
2.16217	99.97
2.17883	99.97
2.19550	99.97
2.21217	99.97
2.22883	99.98
2.24550	99.97
2.26217	99.98
2.27883	99.98
2.29550	99.98
2.31217	99.98
2.32883	99.97
2.34550	99.98
2.36217	99.98
2.37883	99.98
2.39550	99.98
2.41217	99.98
2.42883	99.98
2.44550	99.98
2.46217	99.98
2.47883	99.98
2.49550	99.98
2.51217	99.98
2.52883	99.98
2.54550	99.98
2.56217	99.98
2.57883	99.98
2.59550	99.98
2.61217	99.98
2.62883	99.98
2.64550	99.98
2.66217	99.98
2.67883	99.98
2.69550	99.99
2.71217	99.99
2.72883	99.99
2.74550	99.99
2.76217	99.99
2.77883	99.99
2.79550	99.99
2.81217	99.99
2.82883	100.00
2.84550	100.00
2.86217	100.00
2.87883	99.99
2.89550	100.00
2.91217	100.00
2.92883	100.00
2.94550	100.00
2.96217	100.00
2.97883	100.01
2.99550	100.01
3.01217	100.01
3.02883	100.01
3.04550	100.01
3.06217	100.01
3.07883	100.01
3.09550	100.01
3.11217	100.01
3.12883	100.01
3.14550	100.01
3.16217	100.02
3.17883	100.02
3.19550	100.02
3.21217	100.02
3.22883	100.02
3.24550	100.02
3.26217	100.02
3.27883	100.02
3.29550	100.02
3.31217	100.03
3.32883	100.03
3.34550	100.03
3.36217	100.03
3.37883	100.04
3.39550	100.03
3.41217	100.03
3.42883	100.02
3.44550	100.03
3.46217	100.03
3.47883	100.03
3.49550	100.03
3.51217	100.03
3.52883	100.03
3.54550	100.03
3.56217	100.03
3.57883	100.03
3.59550	100.03
3.61217	100.03
3.62883	100.03
3.64550	100.03
3.66217	100.04
3.67883	100.03
3.69550	100.03
3.71217	100.03
3.72883	100.03
3.74550	100.03
3.76217	100.03
3.77883	100.03
3.79550	100.03
3.81217	100.04
3.82883	100.03
3.84550	100.03
3.86217	100.03
3.87883	100.03
3.89550	100.03
3.91217	100.04
3.92883	100.04
3.94550	100.04
3.96217	100.04
3.97883	100.04
3.99550	100.04

[Status Trace (Carrier Gas Pressure)]
Interval(msec)	1000
# of Points	240
Start Time(min)	0.012
End Time(min)	3.995
Intensity Units	
Intensity Multiplier	1
R.Time (min)	Intensity
0.01217	58.00
0.02883	54.94
0.04550	57.68
0.06217	59.61
0.07883	59.00
0.09550	58.00
0.11217	57.99
0.12883	58.01
0.14550	58.01
0.16217	58.00
0.17883	58.00
0.19550	58.00
0.21217	58.00
0.22883	58.00
0.24550	58.00
0.26217	58.00
0.27883	58.00
0.29550	58.00
0.31217	58.00
0.32883	58.00
0.34550	58.00
0.36217	58.00
0.37883	58.00
0.39550	58.00
0.41217	58.00
0.42883	58.00
0.44550	58.00
0.46217	58.00
0.47883	58.00
0.49550	58.00
0.51217	58.00
0.52883	58.00
0.54550	58.00
0.56217	58.00
0.57883	58.00
0.59550	58.00
0.61217	58.00
0.62883	58.00
0.64550	58.00
0.66217	58.00
0.67883	58.00
0.69550	58.00
0.71217	58.00
0.72883	58.00
0.74550	58.00
0.76217	58.00
0.77883	58.00
0.79550	58.00
0.81217	58.00
0.82883	58.00
0.84550	58.00
0.86217	58.00
0.87883	58.00
0.89550	58.00
0.91217	58.00
0.92883	58.00
0.94550	58.00
0.96217	58.00
0.97883	58.00
0.99550	58.00
1.01217	58.00
1.02883	58.00
1.04550	58.00
1.06217	58.00
1.07883	58.00
1.09550	58.00
1.11217	58.00
1.12883	58.00
1.14550	58.00
1.16217	58.00
1.17883	58.00
1.19550	58.00
1.21217	58.00
1.22883	58.00
1.24550	58.00
1.26217	58.00
1.27883	58.00
1.29550	58.00
1.31217	58.00
1.32883	58.00
1.34550	58.00
1.36217	58.00
1.37883	58.00
1.39550	58.00
1.41217	58.00
1.42883	58.00
1.44550	58.00
1.46217	58.00
1.47883	58.00
1.49550	58.00
1.51217	58.00
1.52883	58.00
1.54550	58.00
1.56217	58.00
1.57883	58.00
1.59550	58.00
1.61217	58.00
1.62883	58.00
1.64550	58.00
1.66217	58.00
1.67883	58.01
1.69550	58.00
1.71217	58.00
1.72883	58.00
1.74550	58.00
1.76217	58.00
1.77883	58.00
1.79550	58.00
1.81217	58.00
1.82883	58.00
1.84550	58.00
1.86217	58.00
1.87883	58.00
1.89550	58.00
1.91217	58.00
1.92883	58.00
1.94550	58.00
1.96217	58.00
1.97883	58.00
1.99550	58.00
2.01217	58.00
2.02883	58.00
2.04550	58.00
2.06217	58.00
2.07883	58.00
2.09550	58.00
2.11217	58.00
2.12883	58.00
2.14550	58.00
2.16217	58.00
2.17883	58.00
2.19550	58.00
2.21217	58.00
2.22883	58.00
2.24550	58.00
2.26217	58.00
2.27883	58.00
2.29550	58.00
2.31217	58.00
2.32883	58.00
2.34550	58.00
2.36217	58.00
2.37883	57.99
2.39550	57.99
2.41217	57.99
2.42883	58.00
2.44550	58.00
2.46217	58.00
2.47883	58.00
2.49550	58.00
2.51217	57.99
2.52883	57.98
2.54550	58.00
2.56217	58.00
2.57883	58.00
2.59550	58.00
2.61217	58.00
2.62883	58.00
2.64550	58.00
2.66217	58.00
2.67883	58.00
2.69550	58.00
2.71217	58.00
2.72883	58.00
2.74550	58.00
2.76217	58.00
2.77883	58.00
2.79550	58.00
2.81217	58.00
2.82883	58.00
2.84550	58.00
2.86217	58.00
2.87883	58.00
2.89550	58.00
2.91217	58.00
2.92883	58.00
2.94550	58.00
2.96217	58.00
2.97883	58.00
2.99550	58.00
3.01217	58.00
3.02883	58.00
3.04550	58.00
3.06217	58.00
3.07883	58.00
3.09550	58.00
3.11217	58.00
3.12883	58.00
3.14550	58.00
3.16217	58.00
3.17883	58.00
3.19550	58.00
3.21217	58.00
3.22883	58.00
3.24550	58.00
3.26217	58.00
3.27883	58.00
3.29550	58.00
3.31217	58.00
3.32883	58.00
3.34550	58.00
3.36217	58.00
3.37883	58.00
3.39550	58.00
3.41217	58.00
3.42883	58.00
3.44550	58.00
3.46217	58.00
3.47883	58.00
3.49550	58.00
3.51217	58.00
3.52883	58.00
3.54550	58.00
3.56217	58.00
3.57883	58.00
3.59550	58.00
3.61217	58.00
3.62883	58.00
3.64550	58.00
3.66217	58.00
3.67883	58.00
3.69550	58.00
3.71217	58.00
3.72883	58.00
3.74550	58.00
3.76217	58.00
3.77883	58.00
3.79550	58.00
3.81217	58.00
3.82883	58.00
3.84550	58.00
3.86217	58.00
3.87883	58.00
3.89550	58.00
3.91217	58.00
3.92883	58.00
3.94550	58.00
3.96217	58.00
3.97883	58.00
3.99550	58.00

[Status Trace (Carrier Gas Flow)]
Interval(msec)	1000
# of Points	240
Start Time(min)	0.012
End Time(min)	3.995
Intensity Units	
Intensity Multiplier	1
R.Time (min)	Intensity
0.01217	34.52
0.02883	34.54
0.04550	34.54
0.06217	34.54
0.07883	34.52
0.09550	34.52
0.11217	34.52
0.12883	34.52
0.14550	34.52
0.16217	34.52
0.17883	34.52
0.19550	34.52
0.21217	34.52
0.22883	34.52
0.24550	34.52
0.26217	34.52
0.27883	34.52
0.29550	34.52
0.31217	34.52
0.32883	34.52
0.34550	34.52
0.36217	34.52
0.37883	34.52
0.39550	34.52
0.41217	34.52
0.42883	34.52
0.44550	34.52
0.46217	34.52
0.47883	34.52
0.49550	34.52
0.51217	34.52
0.52883	34.52
0.54550	34.52
0.56217	34.52
0.57883	34.52
0.59550	34.52
0.61217	34.52
0.62883	34.52
0.64550	34.52
0.66217	34.52
0.67883	34.52
0.69550	34.52
0.71217	34.52
0.72883	34.52
0.74550	34.52
0.76217	34.52
0.77883	34.52
0.79550	34.52
0.81217	34.51
0.82883	34.52
0.84550	34.52
0.86217	34.52
0.87883	34.52
0.89550	34.52
0.91217	34.52
0.92883	34.52
0.94550	34.52
0.96217	34.52
0.97883	34.52
0.99550	34.52
1.01217	34.52
1.02883	34.52
1.04550	34.52
1.06217	34.52
1.07883	34.52
1.09550	34.52
1.11217	34.52
1.12883	34.52
1.14550	34.52
1.16217	34.52
1.17883	34.52
1.19550	34.52
1.21217	34.52
1.22883	34.52
1.24550	34.52
1.26217	34.52
1.27883	34.52
1.29550	34.52
1.31217	34.52
1.32883	34.52
1.34550	34.52
1.36217	34.52
1.37883	34.52
1.39550	34.52
1.41217	34.52
1.42883	34.52
1.44550	34.52
1.46217	34.52
1.47883	34.52
1.49550	34.52
1.51217	34.52
1.52883	34.52
1.54550	34.52
1.56217	34.52
1.57883	34.52
1.59550	34.52
1.61217	34.52
1.62883	34.52
1.64550	34.52
1.66217	34.52
1.67883	34.52
1.69550	34.52
1.71217	34.52
1.72883	34.52
1.74550	34.52
1.76217	34.52
1.77883	34.52
1.79550	34.52
1.81217	34.52
1.82883	34.52
1.84550	34.52
1.86217	34.52
1.87883	34.52
1.89550	34.52
1.91217	34.52
1.92883	34.52
1.94550	34.52
1.96217	34.52
1.97883	34.52
1.99550	34.52
2.01217	34.52
2.02883	34.52
2.04550	34.53
2.06217	34.52
2.07883	34.52
2.09550	34.52
2.11217	34.52
2.12883	34.52
2.14550	34.52
2.16217	34.52
2.17883	34.52
2.19550	34.52
2.21217	34.52
2.22883	34.52
2.24550	34.52
2.26217	34.52
2.27883	34.52
2.29550	34.52
2.31217	34.52
2.32883	34.52
2.34550	34.52
2.36217	34.52
2.37883	34.52
2.39550	34.52
2.41217	34.51
2.42883	34.52
2.44550	34.52
2.46217	34.51
2.47883	34.52
2.49550	34.52
2.51217	34.50
2.52883	34.52
2.54550	34.52
2.56217	34.52
2.57883	34.52
2.59550	34.52
2.61217	34.52
2.62883	34.52
2.64550	34.52
2.66217	34.52
2.67883	34.52
2.69550	34.52
2.71217	34.52
2.72883	34.52
2.74550	34.52
2.76217	34.52
2.77883	34.52
2.79550	34.52
2.81217	34.52
2.82883	34.52
2.84550	34.52
2.86217	34.52
2.87883	34.52
2.89550	34.52
2.91217	34.52
2.92883	34.52
2.94550	34.52
2.96217	34.52
2.97883	34.52
2.99550	34.52
3.01217	34.52
3.02883	34.52
3.04550	34.52
3.06217	34.52
3.07883	34.52
3.09550	34.52
3.11217	34.52
3.12883	34.52
3.14550	34.52
3.16217	34.52
3.17883	34.52
3.19550	34.52
3.21217	34.52
3.22883	34.52
3.24550	34.52
3.26217	34.52
3.27883	34.52
3.29550	34.52
3.31217	34.52
3.32883	34.52
3.34550	34.52
3.36217	34.51
3.37883	34.52
3.39550	34.51
3.41217	34.52
3.42883	34.52
3.44550	34.52
3.46217	34.52
3.47883	34.52
3.49550	34.51
3.51217	34.52
3.52883	34.52
3.54550	34.52
3.56217	34.52
3.57883	34.52
3.59550	34.53
3.61217	34.52
3.62883	34.50
3.64550	34.51
3.66217	34.51
3.67883	34.50
3.69550	34.52
3.71217	34.51
3.72883	34.52
3.74550	34.52
3.76217	34.52
3.77883	34.52
3.79550	34.52
3.81217	34.52
3.82883	34.52
3.84550	34.52
3.86217	34.52
3.87883	34.52
3.89550	34.52
3.91217	34.52
3.92883	34.52
3.94550	34.52
3.96217	34.52
3.97883	34.52
3.99550	34.56

[Status Trace (Column Flow)]
Interval(msec)	1000
# of Points	240
Start Time(min)	0.012
End Time(min)	3.995
Intensity Units	
Intensity Multiplier	1
R.Time (min)	Intensity
0.01217	5.51
0.02883	5.16
0.04550	5.48
0.06217	5.70
0.07883	5.63
0.09550	5.51
0.11217	5.51
0.12883	5.52
0.14550	5.51
0.16217	5.51
0.17883	5.51
0.19550	5.51
0.21217	5.52
0.22883	5.52
0.24550	5.52
0.26217	5.52
0.27883	5.52
0.29550	5.52
0.31217	5.52
0.32883	5.52
0.34550	5.52
0.36217	5.51
0.37883	5.51
0.39550	5.51
0.41217	5.51
0.42883	5.51
0.44550	5.51
0.46217	5.51
0.47883	5.51
0.49550	5.51
0.51217	5.51
0.52883	5.51
0.54550	5.51
0.56217	5.52
0.57883	5.52
0.59550	5.52
0.61217	5.51
0.62883	5.51
0.64550	5.51
0.66217	5.51
0.67883	5.51
0.69550	5.51
0.71217	5.51
0.72883	5.51
0.74550	5.51
0.76217	5.51
0.77883	5.51
0.79550	5.51
0.81217	5.51
0.82883	5.51
0.84550	5.51
0.86217	5.51
0.87883	5.51
0.89550	5.51
0.91217	5.51
0.92883	5.51
0.94550	5.51
0.96217	5.51
0.97883	5.51
0.99550	5.51
1.01217	5.51
1.02883	5.51
1.04550	5.51
1.06217	5.51
1.07883	5.51
1.09550	5.51
1.11217	5.51
1.12883	5.51
1.14550	5.51
1.16217	5.51
1.17883	5.51
1.19550	5.51
1.21217	5.51
1.22883	5.51
1.24550	5.51
1.26217	5.51
1.27883	5.51
1.29550	5.51
1.31217	5.51
1.32883	5.51
1.34550	5.51
1.36217	5.51
1.37883	5.51
1.39550	5.51
1.41217	5.51
1.42883	5.51
1.44550	5.51
1.46217	5.51
1.47883	5.51
1.49550	5.51
1.51217	5.51
1.52883	5.52
1.54550	5.51
1.56217	5.51
1.57883	5.51
1.59550	5.51
1.61217	5.51
1.62883	5.51
1.64550	5.50
1.66217	5.49
1.67883	5.48
1.69550	5.47
1.71217	5.46
1.72883	5.45
1.74550	5.44
1.76217	5.43
1.77883	5.42
1.79550	5.41
1.81217	5.40
1.82883	5.39
1.84550	5.38
1.86217	5.37
1.87883	5.36
1.89550	5.35
1.91217	5.34
1.92883	5.33
1.94550	5.32
1.96217	5.31
1.97883	5.30
1.99550	5.29
2.01217	5.28
2.02883	5.27
2.04550	5.26
2.06217	5.25
2.07883	5.24
2.09550	5.23
2.11217	5.22
2.12883	5.21
2.14550	5.20
2.16217	5.19
2.17883	5.19
2.19550	5.18
2.21217	5.17
2.22883	5.16
2.24550	5.15
2.26217	5.14
2.27883	5.13
2.29550	5.12
2.31217	5.11
2.32883	5.10
2.34550	5.09
2.36217	5.08
2.37883	5.08
2.39550	5.08
2.41217	5.08
2.42883	5.08
2.44550	5.08
2.46217	5.08
2.47883	5.08
2.49550	5.08
2.51217	5.08
2.52883	5.08
2.54550	5.08
2.56217	5.08
2.57883	5.08
2.59550	5.08
2.61217	5.08
2.62883	5.08
2.64550	5.08
2.66217	5.08
2.67883	5.07
2.69550	5.07
2.71217	5.07
2.72883	5.08
2.74550	5.08
2.76217	5.08
2.77883	5.08
2.79550	5.07
2.81217	5.07
2.82883	5.07
2.84550	5.07
2.86217	5.07
2.87883	5.07
2.89550	5.07
2.91217	5.07
2.92883	5.07
2.94550	5.07
2.96217	5.07
2.97883	5.07
2.99550	5.07
3.01217	5.07
3.02883	5.07
3.04550	5.07
3.06217	5.07
3.07883	5.07
3.09550	5.07
3.11217	5.07
3.12883	5.07
3.14550	5.07
3.16217	5.07
3.17883	5.07
3.19550	5.07
3.21217	5.07
3.22883	5.07
3.24550	5.07
3.26217	5.07
3.27883	5.07
3.29550	5.07
3.31217	5.07
3.32883	5.07
3.34550	5.07
3.36217	5.07
3.37883	5.07
3.39550	5.07
3.41217	5.07
3.42883	5.07
3.44550	5.07
3.46217	5.07
3.47883	5.07
3.49550	5.07
3.51217	5.07
3.52883	5.07
3.54550	5.07
3.56217	5.07
3.57883	5.07
3.59550	5.07
3.61217	5.07
3.62883	5.07
3.64550	5.07
3.66217	5.07
3.67883	5.07
3.69550	5.07
3.71217	5.07
3.72883	5.07
3.74550	5.07
3.76217	5.07
3.77883	5.07
3.79550	5.07
3.81217	5.07
3.82883	5.07
3.84550	5.07
3.86217	5.07
3.87883	5.07
3.89550	5.07
3.91217	5.07
3.92883	5.07
3.94550	5.07
3.96217	5.07
3.97883	5.07
3.99550	5.07

[Status Trace (Linear Velocity)]
Interval(msec)	1000
# of Points	240
Start Time(min)	0.012
End Time(min)	3.995
Intensity Units	
Intensity Multiplier	1
R.Time (min)	Intensity
0.01217	39.01
0.02883	37.01
0.04550	38.80
0.06217	40.07
0.07883	39.67
0.09550	39.01
0.11217	39.01
0.12883	39.02
0.14550	39.02
0.16217	39.02
0.17883	39.02
0.19550	39.02
0.21217	39.02
0.22883	39.02
0.24550	39.02
0.26217	39.02
0.27883	39.02
0.29550	39.02
0.31217	39.02
0.32883	39.02
0.34550	39.02
0.36217	39.02
0.37883	39.02
0.39550	39.02
0.41217	39.02
0.42883	39.01
0.44550	39.02
0.46217	39.02
0.47883	39.02
0.49550	39.02
0.51217	39.02
0.52883	39.02
0.54550	39.02
0.56217	39.02
0.57883	39.02
0.59550	39.02
0.61217	39.02
0.62883	39.02
0.64550	39.02
0.66217	39.02
0.67883	39.02
0.69550	39.02
0.71217	39.02
0.72883	39.01
0.74550	39.01
0.76217	39.01
0.77883	39.01
0.79550	39.01
0.81217	39.01
0.82883	39.01
0.84550	39.02
0.86217	39.02
0.87883	39.02
0.89550	39.02
0.91217	39.02
0.92883	39.02
0.94550	39.02
0.96217	39.02
0.97883	39.02
0.99550	39.02
1.01217	39.02
1.02883	39.02
1.04550	39.02
1.06217	39.02
1.07883	39.02
1.09550	39.02
1.11217	39.02
1.12883	39.02
1.14550	39.01
1.16217	39.02
1.17883	39.02
1.19550	39.01
1.21217	39.01
1.22883	39.01
1.24550	39.01
1.26217	39.01
1.27883	39.01
1.29550	39.01
1.31217	39.01
1.32883	39.01
1.34550	39.01
1.36217	39.01
1.37883	39.01
1.39550	39.01
1.41217	39.01
1.42883	39.01
1.44550	39.01
1.46217	39.02
1.47883	39.02
1.49550	39.02
1.51217	39.02
1.52883	39.02
1.54550	39.02
1.56217	39.02
1.57883	39.02
1.59550	39.01
1.61217	39.01
1.62883	39.00
1.64550	38.98
1.66217	38.95
1.67883	38.92
1.69550	38.88
1.71217	38.85
1.72883	38.82
1.74550	38.78
1.76217	38.75
1.77883	38.72
1.79550	38.69
1.81217	38.66
1.82883	38.63
1.84550	38.59
1.86217	38.56
1.87883	38.54
1.89550	38.51
1.91217	38.47
1.92883	38.44
1.94550	38.41
1.96217	38.38
1.97883	38.35
1.99550	38.32
2.01217	38.29
2.02883	38.26
2.04550	38.23
2.06217	38.20
2.07883	38.17
2.09550	38.14
2.11217	38.11
2.12883	38.08
2.14550	38.05
2.16217	38.02
2.17883	37.99
2.19550	37.97
2.21217	37.94
2.22883	37.91
2.24550	37.88
2.26217	37.85
2.27883	37.82
2.29550	37.79
2.31217	37.75
2.32883	37.73
2.34550	37.70
2.36217	37.67
2.37883	37.66
2.39550	37.66
2.41217	37.66
2.42883	37.66
2.44550	37.66
2.46217	37.66
2.47883	37.66
2.49550	37.66
2.51217	37.65
2.52883	37.64
2.54550	37.65
2.56217	37.65
2.57883	37.65
2.59550	37.65
2.61217	37.65
2.62883	37.65
2.64550	37.64
2.66217	37.64
2.67883	37.64
2.69550	37.64
2.71217	37.64
2.72883	37.64
2.74550	37.64
2.76217	37.64
2.77883	37.64
2.79550	37.64
2.81217	37.64
2.82883	37.64
2.84550	37.64
2.86217	37.64
2.87883	37.64
2.89550	37.64
2.91217	37.63
2.92883	37.63
2.94550	37.63
2.96217	37.63
2.97883	37.63
2.99550	37.63
3.01217	37.63
3.02883	37.63
3.04550	37.63
3.06217	37.63
3.07883	37.63
3.09550	37.63
3.11217	37.63
3.12883	37.63
3.14550	37.63
3.16217	37.63
3.17883	37.63
3.19550	37.63
3.21217	37.63
3.22883	37.62
3.24550	37.62
3.26217	37.62
3.27883	37.62
3.29550	37.62
3.31217	37.62
3.32883	37.62
3.34550	37.62
3.36217	37.62
3.37883	37.62
3.39550	37.63
3.41217	37.63
3.42883	37.63
3.44550	37.63
3.46217	37.63
3.47883	37.63
3.49550	37.63
3.51217	37.63
3.52883	37.63
3.54550	37.63
3.56217	37.63
3.57883	37.63
3.59550	37.63
3.61217	37.63
3.62883	37.63
3.64550	37.63
3.66217	37.63
3.67883	37.63
3.69550	37.63
3.71217	37.63
3.72883	37.63
3.74550	37.63
3.76217	37.63
3.77883	37.63
3.79550	37.63
3.81217	37.62
3.82883	37.62
3.84550	37.62
3.86217	37.62
3.87883	37.62
3.89550	37.62
3.91217	37.62
3.92883	37.62
3.94550	37.62
3.96217	37.62
3.97883	37.62
3.99550	37.62

