[Header]
Application Name	LabSolutions
Version	5.110
Data File Name	C:\Users\User\Desktop\GC Analyses\Jack\UIC Prairie Sampling\9.16.22\220916_118.gcd
Output Date	11/29/2022
Output Time	11:10:23 AM

[File Information]
Type	Data File
Generated	11/28/2022 3:40:27 PM
Generated by	System Administrator
Modified	11/28/2022 3:44:51 PM
Modified by	System Administrator

[Sample Information]
Operator Name	System Administrator
Acquired	11/28/2022 3:40:50 PM
Sample Type	1:Standard
Level	1
Sample Name	220916_UICPrairie
Sample ID	220916_UICPrairie
ISTD Amount1	1
ISTD Amount2	1
ISTD Amount3	1
ISTD Amount4	1
ISTD Amount5	1
ISTD Amount6	1
ISTD Amount7	1
ISTD Amount8	1
ISTD Amount9	1
ISTD Amount10	1
ISTD Amount11	1
ISTD Amount12	1
ISTD Amount13	1
ISTD Amount14	1
ISTD Amount15	1
ISTD Amount16	1
ISTD Amount17	1
ISTD Amount18	1
ISTD Amount19	1
ISTD Amount20	1
ISTD Amount21	1
ISTD Amount22	1
ISTD Amount23	1
ISTD Amount24	1
ISTD Amount25	1
ISTD Amount26	1
ISTD Amount27	1
ISTD Amount28	1
ISTD Amount29	1
ISTD Amount30	1
ISTD Amount31	1
ISTD Amount32	1
Sample Amount	1
Dilution Factor	1
Vial#	1
Injection Volume	1
Injection Count	1
Bar Code	

[Original Files]
Data File	C:\Users\User\Desktop\GC Analyses\Jack\UIC Prairie Sampling\9.16.22\220916_118.gcd
Method File	C:\LabSolutions\Data\GHG_4min_2022\ghg3_togas_w_acet_4 min_new_int.gcm
Batch File	
Report Format File	c:\LabSolutions\System\DEFAULT.lsr

[File Description]


[Configuration]
Instrument Name	C0B7VH3-Instrument1
Instrument #	1
Line #	1
# of Detectors	3
Detector ID	DET#1	DET#2	DET#3
Detector Name	FID	PTCD	ECD
# of Channels	1	1	1

[Peak Table(Ch1)]
# of Peaks	3
Peak#	R.Time	I.Time	F.Time	Area	Height	A/H	Conc.	Mark	ID#	Name	k'	Plate #	Plate Ht.	Tailing	Resolution	Sep.Factor	Area Ratio	Height Ratio	Conc. %	Norm Conc.
1	1.479	1.439	1.538	11635	5117	2.274	100.000	   	1	CO	0.000	8241	18.202	1.240	0.000	0.000	0	0	16.667	16.667
2	1.571	1.538	1.644	4956	2437	2.033	100.000	 V 	2	CH4	0.062	11024	13.607	0.000	1.466	0.000	0	0	16.667	16.667
3	2.000	1.956	2.422	1380988	662919	2.083	400.000	   	3	CO2	0.352	17524	8.560	1.289	7.133	5.680	0	0	66.667	66.667

[Peak Table(Ch2)]
# of Peaks	0

[Peak Table(Ch3)]
# of Peaks	5
Peak#	R.Time	I.Time	F.Time	Area	Height	A/H	Conc.	Mark	ID#	Name	k'	Plate #	Plate Ht.	Tailing	Resolution	Sep.Factor	Area Ratio	Height Ratio	Conc. %	Norm Conc.
1	2.458	2.348	2.510	671	194	3.461	0.000	   			0.000	15718	9.543	0.000	0.000	0.000	0	0	0.000	0.000
2	2.524	2.510	2.561	146	73	1.991	0.000	 V 			0.027	13126	11.428	0.000	0.792	0.000	0	0	0.000	0.000
3	2.620	2.568	2.656	1459	418	3.490	0.000	   			0.066	4078	36.780	0.000	0.756	2.444	0	0	0.000	0.000
4	2.741	2.656	2.825	4359	475	9.186	0.140	 V 	1	N2O	0.115	399	376.301	0.000	0.339	1.750	0	0	13.989	13.989
5	2.887	2.825	3.782	26804	5308	5.050	0.860	 V 	1	N2O	0.175	12145	12.351	0.000	0.449	1.519	0	0	86.011	86.011

[Compound Results(Ch1)]
# of IDs	6
ID#	Name	R.Time	Area	Height	Conc.	Curve	3rd	2nd	1st	Constant	Area Ratio	Height Ratio	Conc. %	Norm Conc.
1	CO	1.479	11635	5117	100.000	Linear	0.000000e+00	0.000000e+00	1.163505e+002	0.000000e+00	0	0	16.667	16.667
2	CH4	1.571	4956	2437	100.000	Linear	0.000000e+00	0.000000e+00	4.955846e+001	0.000000e+00	0	0	16.667	16.667
3	CO2	2.000	1380988	662919	400.000	Linear	0.000000e+00	0.000000e+00	3.452470e+003	0.000000e+00	0	0	66.667	66.667
4	Ethylene	0.000	0	0	0.000	Linear	0.000000e+00	0.000000e+00	0.000000e+00	0.000000e+00	0	0	0.000	0.000
5	Acetylene	0.000	0	0	0.000	Linear	0.000000e+00	0.000000e+00	0.000000e+00	0.000000e+00	0	0	0.000	0.000
6	Ethane	0.000	0	0	0.000	Linear	0.000000e+00	0.000000e+00	0.000000e+00	0.000000e+00	0	0	0.000	0.000

[Compound Results(Ch2)]
# of IDs	5
ID#	Name	R.Time	Area	Height	Conc.	Curve	3rd	2nd	1st	Constant	Area Ratio	Height Ratio	Conc. %	Norm Conc.
1	Hydrogen	0.000	0	0	0.000	Linear	0.000000e+00	0.000000e+00	0.000000e+00	0.000000e+00	0	0	0.000	0.000
2	Oxygen	0.000	0	0	0.000	Linear	0.000000e+00	0.000000e+00	0.000000e+00	0.000000e+00	0	0	0.000	0.000
3	Nitrogen	0.000	0	0	0.000	Linear	0.000000e+00	0.000000e+00	0.000000e+00	0.000000e+00	0	0	0.000	0.000
4	Methane	0.000	0	0	0.000	Linear	0.000000e+00	0.000000e+00	0.000000e+00	0.000000e+00	0	0	0.000	0.000
5	Carbon Monoxide	0.000	0	0	0.000	Linear	0.000000e+00	0.000000e+00	0.000000e+00	0.000000e+00	0	0	0.000	0.000

[Compound Results(Ch3)]
# of IDs	2
ID#	Name	R.Time	Area	Height	Conc.	Curve	3rd	2nd	1st	Constant	Area Ratio	Height Ratio	Conc. %	Norm Conc.
1	N2O	2.887	31163	5783	1.000	Linear	0.000000e+00	0.000000e+00	3.116333e+004	0.000000e+00	0	0	100.000	100.000
2	SF6	0.000	0	0	0.000	Linear	0.000000e+00	0.000000e+00	0.000000e+00	0.000000e+00	0	0	0.000	0.000

[Group Results(Ch1)]
# of Groups	0

[Group Results(Ch2)]
# of Groups	0

[Group Results(Ch3)]
# of Groups	0

[Chromatogram (Ch1)]
Interval(msec)	220
# of Points	1091
Start Time(min)	0.002
End Time(min)	3.998
R.Time (min)	Intensity
0.00167	14
0.00533	11
0.00900	10
0.01267	9
0.01633	10
0.02000	11
0.02367	10
0.02733	9
0.03100	8
0.03467	10
0.03833	13
0.04200	17
0.04567	20
0.04933	22
0.05300	20
0.05667	15
0.06033	10
0.06400	7
0.06767	3
0.07133	-0
0.07500	-2
0.07867	-2
0.08233	-1
0.08600	0
0.08967	1
0.09333	-1
0.09700	-4
0.10067	-8
0.10433	-10
0.10800	-9
0.11167	-5
0.11533	-3
0.11900	3
0.12267	7
0.12633	7
0.13000	5
0.13367	4
0.13733	4
0.14100	2
0.14467	-4
0.14833	-11
0.15200	-17
0.15567	-17
0.15933	-10
0.16300	-3
0.16667	1
0.17033	6
0.17400	7
0.17767	4
0.18133	-4
0.18500	-15
0.18867	-22
0.19233	-22
0.19600	-18
0.19967	-12
0.20333	-6
0.20700	1
0.21067	5
0.21433	3
0.21800	-3
0.22167	-9
0.22533	-14
0.22900	-12
0.23267	-9
0.23633	-9
0.24000	-9
0.24367	-8
0.24733	-9
0.25100	-11
0.25467	-15
0.25833	-23
0.26200	-32
0.26567	-42
0.26933	-47
0.27300	-48
0.27667	-43
0.28033	-32
0.28400	-19
0.28767	-12
0.29133	-9
0.29500	-9
0.29867	-14
0.30233	-21
0.30600	-27
0.30967	-29
0.31333	-26
0.31700	-20
0.32067	-16
0.32433	-16
0.32800	-21
0.33167	-28
0.33533	-32
0.33900	-36
0.34267	-40
0.34633	-42
0.35000	-41
0.35367	-34
0.35733	-23
0.36100	-13
0.36467	-7
0.36833	-7
0.37200	-8
0.37567	-10
0.37933	-12
0.38300	-13
0.38667	-15
0.39033	-15
0.39400	-12
0.39767	-10
0.40133	-13
0.40500	-16
0.40867	-22
0.41233	-29
0.41600	-30
0.41967	-25
0.42333	-20
0.42700	-18
0.43067	-21
0.43433	-28
0.43800	-34
0.44167	-39
0.44533	-44
0.44900	-50
0.45267	-56
0.45633	-61
0.46000	-64
0.46367	-62
0.46733	-54
0.47100	-41
0.47467	-31
0.47833	-25
0.48200	-24
0.48567	-25
0.48933	-28
0.49300	-31
0.49667	-36
0.50033	-42
0.50400	-47
0.50767	-50
0.51133	-52
0.51500	-53
0.51867	-50
0.52233	-45
0.52600	-43
0.52967	-41
0.53333	-38
0.53700	-33
0.54067	-30
0.54433	-30
0.54800	-33
0.55167	-37
0.55533	-39
0.55900	-42
0.56267	-42
0.56633	-40
0.57000	-37
0.57367	-29
0.57733	-19
0.58100	-11
0.58467	-10
0.58833	-15
0.59200	-20
0.59567	-24
0.59933	-29
0.60300	-36
0.60667	-41
0.61033	-50
0.61400	-57
0.61767	-63
0.62133	-61
0.62500	-54
0.62867	-49
0.63233	-47
0.63600	-48
0.63967	-50
0.64333	-51
0.64700	-52
0.65067	-50
0.65433	-49
0.65800	-49
0.66167	-48
0.66533	-45
0.66900	-40
0.67267	-36
0.67633	-38
0.68000	-42
0.68367	-47
0.68733	-48
0.69100	-47
0.69467	-46
0.69833	-47
0.70200	-48
0.70567	-52
0.70933	-53
0.71300	-54
0.71667	-54
0.72033	-53
0.72400	-49
0.72767	-47
0.73133	-47
0.73500	-48
0.73867	-47
0.74233	-46
0.74600	-49
0.74967	-53
0.75333	-53
0.75700	-49
0.76067	-46
0.76433	-49
0.76800	-59
0.77167	-70
0.77533	-77
0.77900	-79
0.78267	-77
0.78633	-74
0.79000	-72
0.79367	-72
0.79733	-73
0.80100	-75
0.80467	-74
0.80833	-69
0.81200	-64
0.81567	-60
0.81933	-59
0.82300	-60
0.82667	-60
0.83033	-62
0.83400	-65
0.83767	-67
0.84133	-69
0.84500	-73
0.84867	-77
0.85233	-76
0.85600	-72
0.85967	-64
0.86333	-55
0.86700	-51
0.87067	-49
0.87433	-49
0.87800	-54
0.88167	-62
0.88533	-67
0.88900	-70
0.89267	-71
0.89633	-70
0.90000	-68
0.90367	-65
0.90733	-62
0.91100	-61
0.91467	-63
0.91833	-67
0.92200	-65
0.92567	-61
0.92933	-60
0.93300	-65
0.93667	-73
0.94033	-82
0.94400	-90
0.94767	-94
0.95133	-93
0.95500	-90
0.95867	-86
0.96233	-83
0.96600	-83
0.96967	-89
0.97333	-95
0.97700	-97
0.98067	-95
0.98433	-89
0.98800	-86
0.99167	-86
0.99533	-86
0.99900	-88
1.00267	-90
1.00633	-90
1.01000	-86
1.01367	-81
1.01733	-80
1.02100	-84
1.02467	-88
1.02833	-87
1.03200	-81
1.03567	-75
1.03933	-71
1.04300	-71
1.04667	-73
1.05033	-73
1.05400	-72
1.05767	-74
1.06133	-78
1.06500	-81
1.06867	-83
1.07233	-88
1.07600	-97
1.07967	-109
1.08333	-116
1.08700	-116
1.09067	-113
1.09433	-107
1.09800	-101
1.10167	-97
1.10533	-94
1.10900	-92
1.11267	-92
1.11633	-90
1.12000	-85
1.12367	-81
1.12733	-80
1.13100	-84
1.13467	-93
1.13833	-101
1.14200	-105
1.14567	-104
1.14933	-102
1.15300	-96
1.15667	-91
1.16033	-87
1.16400	-83
1.16767	-81
1.17133	-81
1.17500	-83
1.17867	-87
1.18233	-90
1.18600	-90
1.18967	-89
1.19333	-89
1.19700	-91
1.20067	-93
1.20433	-94
1.20800	-92
1.21167	-87
1.21533	-84
1.21900	-87
1.22267	-92
1.22633	-98
1.23000	-99
1.23367	-97
1.23733	-96
1.24100	-95
1.24467	-92
1.24833	-89
1.25200	-87
1.25567	-86
1.25933	-87
1.26300	-90
1.26667	-95
1.27033	-98
1.27400	-100
1.27767	-100
1.28133	-100
1.28500	-99
1.28867	-100
1.29233	-104
1.29600	-111
1.29967	-119
1.30333	-124
1.30700	-124
1.31067	-123
1.31433	-121
1.31800	-118
1.32167	-115
1.32533	-111
1.32900	-107
1.33267	-104
1.33633	-105
1.34000	-110
1.34367	-115
1.34733	-117
1.35100	-117
1.35467	-116
1.35833	-115
1.36200	-115
1.36567	-112
1.36933	-111
1.37300	-110
1.37667	-111
1.38033	-113
1.38400	-115
1.38767	-117
1.39133	-121
1.39500	-123
1.39867	-121
1.40233	-119
1.40600	-119
1.40967	-120
1.41333	-120
1.41700	-118
1.42067	-117
1.42433	-115
1.42800	-115
1.43167	-119
1.43533	-124
1.43900	-118
1.44267	-75
1.44633	62
1.45000	326
1.45367	740
1.45733	1378
1.46100	2227
1.46467	3127
1.46833	3915
1.47200	4513
1.47567	4884
1.47933	4997
1.48300	4818
1.48667	4357
1.49033	3694
1.49400	2957
1.49767	2261
1.50133	1671
1.50500	1207
1.50867	857
1.51233	602
1.51600	421
1.51967	291
1.52333	196
1.52700	125
1.53067	73
1.53433	37
1.53800	14
1.54167	15
1.54533	85
1.54900	288
1.55267	648
1.55633	1102
1.56000	1553
1.56367	1927
1.56733	2188
1.57100	2310
1.57467	2261
1.57833	2034
1.58200	1677
1.58567	1276
1.58933	906
1.59300	604
1.59667	376
1.60033	215
1.60400	105
1.60767	33
1.61133	-14
1.61500	-44
1.61867	-67
1.62233	-83
1.62600	-93
1.62967	-100
1.63333	-106
1.63700	-113
1.64067	-124
1.64433	-132
1.64800	-138
1.65167	-142
1.65533	-144
1.65900	-144
1.66267	-144
1.66633	-145
1.67000	-147
1.67367	-148
1.67733	-145
1.68100	-140
1.68467	-137
1.68833	-137
1.69200	-139
1.69567	-140
1.69933	-141
1.70300	-143
1.70667	-147
1.71033	-150
1.71400	-151
1.71767	-150
1.72133	-152
1.72500	-151
1.72867	-148
1.73233	-145
1.73600	-147
1.73967	-149
1.74333	-149
1.74700	-145
1.75067	-140
1.75433	-137
1.75800	-137
1.76167	-141
1.76533	-146
1.76900	-149
1.77267	-148
1.77633	-147
1.78000	-148
1.78367	-151
1.78733	-152
1.79100	-150
1.79467	-147
1.79833	-148
1.80200	-150
1.80567	-152
1.80933	-153
1.81300	-151
1.81667	-148
1.82033	-142
1.82400	-135
1.82767	-129
1.83133	-125
1.83500	-123
1.83867	-125
1.84233	-129
1.84600	-136
1.84967	-140
1.85333	-141
1.85700	-138
1.86067	-132
1.86433	-130
1.86800	-127
1.87167	-124
1.87533	-123
1.87900	-127
1.88267	-136
1.88633	-146
1.89000	-154
1.89367	-158
1.89733	-159
1.90100	-156
1.90467	-152
1.90833	-148
1.91200	-144
1.91567	-141
1.91933	-138
1.92300	-138
1.92667	-138
1.93033	-141
1.93400	-141
1.93767	-139
1.94133	-133
1.94500	-127
1.94867	-123
1.95233	-122
1.95600	-108
1.95967	8
1.96333	689
1.96700	3767
1.97067	14318
1.97433	41998
1.97800	98500
1.98167	189688
1.98533	308063
1.98900	434268
1.99267	546312
1.99633	626423
2.00000	662837
2.00367	651323
2.00733	596388
2.01100	510775
2.01467	411702
2.01833	315135
2.02200	231579
2.02567	165264
2.02933	115806
2.03300	80486
2.03667	55977
2.04033	39273
2.04400	27995
2.04767	20390
2.05133	15236
2.05500	11707
2.05867	9257
2.06233	7519
2.06600	6256
2.06967	5318
2.07333	4602
2.07700	4042
2.08067	3598
2.08433	3242
2.08800	2950
2.09167	2705
2.09533	2491
2.09900	2298
2.10267	2124
2.10633	1967
2.11000	1829
2.11367	1712
2.11733	1614
2.12100	1530
2.12467	1455
2.12833	1385
2.13200	1316
2.13567	1252
2.13933	1193
2.14300	1137
2.14667	1082
2.15033	1030
2.15400	984
2.15767	951
2.16133	925
2.16500	897
2.16867	869
2.17233	839
2.17600	806
2.17967	773
2.18333	742
2.18700	715
2.19067	691
2.19433	666
2.19800	642
2.20167	619
2.20533	599
2.20900	578
2.21267	557
2.21633	534
2.22000	515
2.22367	503
2.22733	492
2.23100	479
2.23467	464
2.23833	449
2.24200	435
2.24567	422
2.24933	414
2.25300	410
2.25667	408
2.26033	408
2.26400	406
2.26767	397
2.27133	379
2.27500	354
2.27867	328
2.28233	306
2.28600	294
2.28967	289
2.29333	288
2.29700	290
2.30067	291
2.30433	293
2.30800	295
2.31167	296
2.31533	292
2.31900	281
2.32267	268
2.32633	256
2.33000	246
2.33367	240
2.33733	237
2.34100	233
2.34467	229
2.34833	228
2.35200	230
2.35567	233
2.35933	232
2.36300	226
2.36667	215
2.37033	206
2.37400	197
2.37767	191
2.38133	184
2.38500	177
2.38867	173
2.39233	171
2.39600	171
2.39967	171
2.40333	169
2.40700	169
2.41067	171
2.41433	170
2.41800	163
2.42167	156
2.42533	151
2.42900	150
2.43267	152
2.43633	152
2.44000	149
2.44367	145
2.44733	139
2.45100	136
2.45467	137
2.45833	142
2.46200	147
2.46567	148
2.46933	146
2.47300	140
2.47667	137
2.48033	136
2.48400	133
2.48767	127
2.49133	120
2.49500	114
2.49867	109
2.50233	104
2.50600	101
2.50967	96
2.51333	92
2.51700	94
2.52067	99
2.52433	105
2.52800	108
2.53167	107
2.53533	105
2.53900	103
2.54267	98
2.54633	91
2.55000	81
2.55367	72
2.55733	66
2.56100	62
2.56467	61
2.56833	60
2.57200	59
2.57567	62
2.57933	69
2.58300	77
2.58667	82
2.59033	83
2.59400	81
2.59767	75
2.60133	69
2.60500	63
2.60867	56
2.61233	52
2.61600	50
2.61967	49
2.62333	50
2.62700	48
2.63067	47
2.63433	45
2.63800	47
2.64167	52
2.64533	57
2.64900	63
2.65267	71
2.65633	79
2.66000	81
2.66367	79
2.66733	75
2.67100	71
2.67467	66
2.67833	60
2.68200	55
2.68567	51
2.68933	44
2.69300	36
2.69667	31
2.70033	29
2.70400	29
2.70767	32
2.71133	34
2.71500	32
2.71867	26
2.72233	18
2.72600	13
2.72967	10
2.73333	8
2.73700	8
2.74067	12
2.74433	20
2.74800	31
2.75167	38
2.75533	38
2.75900	33
2.76267	28
2.76633	22
2.77000	18
2.77367	15
2.77733	15
2.78100	18
2.78467	22
2.78833	24
2.79200	23
2.79567	21
2.79933	15
2.80300	8
2.80667	4
2.81033	6
2.81400	11
2.81767	15
2.82133	19
2.82500	22
2.82867	25
2.83233	27
2.83600	26
2.83967	24
2.84333	20
2.84700	18
2.85067	16
2.85433	12
2.85800	8
2.86167	7
2.86533	11
2.86900	17
2.87267	26
2.87633	38
2.88000	45
2.88367	44
2.88733	38
2.89100	27
2.89467	14
2.89833	2
2.90200	-4
2.90567	-5
2.90933	-3
2.91300	0
2.91667	2
2.92033	0
2.92400	-4
2.92767	-6
2.93133	-8
2.93500	-6
2.93867	-0
2.94233	5
2.94600	9
2.94967	12
2.95333	13
2.95700	11
2.96067	9
2.96433	7
2.96800	7
2.97167	11
2.97533	20
2.97900	27
2.98267	31
2.98633	31
2.99000	28
2.99367	27
2.99733	26
3.00100	27
3.00467	31
3.00833	35
3.01200	37
3.01567	41
3.01933	45
3.02300	45
3.02667	40
3.03033	32
3.03400	26
3.03767	25
3.04133	26
3.04500	31
3.04867	39
3.05233	45
3.05600	46
3.05967	41
3.06333	32
3.06700	21
3.07067	13
3.07433	5
3.07800	-0
3.08167	0
3.08533	2
3.08900	6
3.09267	9
3.09633	12
3.10000	16
3.10367	24
3.10733	33
3.11100	39
3.11467	40
3.11833	34
3.12200	26
3.12567	19
3.12933	19
3.13300	20
3.13667	20
3.14033	17
3.14400	12
3.14767	10
3.15133	11
3.15500	10
3.15867	18
3.16233	27
3.16600	32
3.16967	32
3.17333	29
3.17700	23
3.18067	19
3.18433	17
3.18800	17
3.19167	18
3.19533	22
3.19900	31
3.20267	42
3.20633	52
3.21000	59
3.21367	59
3.21733	53
3.22100	48
3.22467	45
3.22833	44
3.23200	38
3.23567	23
3.23933	21
3.24300	21
3.24667	27
3.25033	27
3.25400	22
3.25767	16
3.26133	10
3.26500	8
3.26867	9
3.27233	9
3.27600	14
3.27967	21
3.28333	38
3.28700	49
3.29067	52
3.29433	46
3.29800	38
3.30167	34
3.30533	32
3.30900	31
3.31267	31
3.31633	30
3.32000	31
3.32367	34
3.32733	35
3.33100	33
3.33467	28
3.33833	22
3.34200	19
3.34567	17
3.34933	20
3.35300	25
3.35667	32
3.36033	37
3.36400	40
3.36767	42
3.37133	43
3.37500	42
3.37867	36
3.38233	32
3.38600	32
3.38967	34
3.39333	36
3.39700	38
3.40067	40
3.40433	36
3.40800	28
3.41167	22
3.41533	19
3.41900	15
3.42267	16
3.42633	20
3.43000	22
3.43367	20
3.43733	14
3.44100	7
3.44467	2
3.44833	-1
3.45200	-3
3.45567	-2
3.45933	3
3.46300	7
3.46667	10
3.47033	11
3.47400	10
3.47767	9
3.48133	11
3.48500	16
3.48867	20
3.49233	20
3.49600	16
3.49967	13
3.50333	13
3.50700	19
3.51067	25
3.51433	25
3.51800	18
3.52167	15
3.52533	16
3.52900	18
3.53267	19
3.53633	16
3.54000	11
3.54367	5
3.54733	2
3.55100	2
3.55467	6
3.55833	9
3.56200	11
3.56567	10
3.56933	6
3.57300	-3
3.57667	-12
3.58033	-15
3.58400	-17
3.58767	-17
3.59133	-17
3.59500	-16
3.59867	-12
3.60233	-7
3.60600	-4
3.60967	-2
3.61333	-2
3.61700	-1
3.62067	-1
3.62433	-3
3.62800	-9
3.63167	-15
3.63533	-18
3.63900	-20
3.64267	-23
3.64633	-25
3.65000	-26
3.65367	-27
3.65733	-27
3.66100	-24
3.66467	-15
3.66833	-4
3.67200	5
3.67567	6
3.67933	3
3.68300	0
3.68667	-3
3.69033	-6
3.69400	-7
3.69767	-6
3.70133	-8
3.70500	-13
3.70867	-19
3.71233	-24
3.71600	-25
3.71967	-24
3.72333	-20
3.72700	-16
3.73067	-13
3.73433	-12
3.73800	-11
3.74167	-12
3.74533	-15
3.74900	-21
3.75267	-28
3.75633	-34
3.76000	-36
3.76367	-33
3.76733	-31
3.77100	-31
3.77467	-32
3.77833	-33
3.78200	-33
3.78567	-32
3.78933	-28
3.79300	-25
3.79667	-25
3.80033	-26
3.80400	-29
3.80767	-32
3.81133	-34
3.81500	-33
3.81867	-28
3.82233	-24
3.82600	-24
3.82967	-24
3.83333	-23
3.83700	-21
3.84067	-20
3.84433	-17
3.84800	-14
3.85167	-12
3.85533	-14
3.85900	-17
3.86267	-24
3.86633	-31
3.87000	-36
3.87367	-37
3.87733	-32
3.88100	-26
3.88467	-22
3.88833	-24
3.89200	-29
3.89567	-35
3.89933	-42
3.90300	-48
3.90667	-49
3.91033	-47
3.91400	-42
3.91767	-35
3.92133	-31
3.92500	-30
3.92867	-31
3.93233	-26
3.93600	-18
3.93967	-14
3.94333	-18
3.94700	-27
3.95067	-36
3.95433	-44
3.95800	-46
3.96167	-45
3.96533	-41
3.96900	-36
3.97267	-34
3.97633	-36
3.98000	-40
3.98367	-46
3.98733	-52
3.99100	-56
3.99467	-58
3.99833	-59

[Chromatogram (Ch2)]
Interval(msec)	220
# of Points	1091
Start Time(min)	0.002
End Time(min)	3.998
R.Time (min)	Intensity
0.00167	0
0.00533	0
0.00900	0
0.01267	0
0.01633	0
0.02000	-0
0.02367	-0
0.02733	-0
0.03100	-1
0.03467	-1
0.03833	-1
0.04200	-1
0.04567	-1
0.04933	-1
0.05300	-1
0.05667	-0
0.06033	-0
0.06400	0
0.06767	1
0.07133	1
0.07500	1
0.07867	1
0.08233	1
0.08600	1
0.08967	1
0.09333	1
0.09700	2
0.10067	2
0.10433	2
0.10800	3
0.11167	3
0.11533	3
0.11900	3
0.12267	4
0.12633	4
0.13000	4
0.13367	4
0.13733	4
0.14100	4
0.14467	4
0.14833	4
0.15200	4
0.15567	4
0.15933	4
0.16300	3
0.16667	3
0.17033	3
0.17400	3
0.17767	3
0.18133	3
0.18500	3
0.18867	3
0.19233	3
0.19600	3
0.19967	3
0.20333	3
0.20700	2
0.21067	2
0.21433	2
0.21800	2
0.22167	2
0.22533	2
0.22900	2
0.23267	2
0.23633	2
0.24000	2
0.24367	2
0.24733	2
0.25100	2
0.25467	2
0.25833	2
0.26200	2
0.26567	2
0.26933	1
0.27300	1
0.27667	1
0.28033	1
0.28400	1
0.28767	1
0.29133	1
0.29500	0
0.29867	0
0.30233	0
0.30600	0
0.30967	0
0.31333	-0
0.31700	-0
0.32067	0
0.32433	0
0.32800	1
0.33167	1
0.33533	1
0.33900	1
0.34267	1
0.34633	1
0.35000	1
0.35367	1
0.35733	1
0.36100	1
0.36467	1
0.36833	1
0.37200	1
0.37567	1
0.37933	1
0.38300	1
0.38667	1
0.39033	1
0.39400	1
0.39767	1
0.40133	1
0.40500	1
0.40867	1
0.41233	1
0.41600	0
0.41967	0
0.42333	-0
0.42700	-0
0.43067	-0
0.43433	-0
0.43800	-0
0.44167	-0
0.44533	-0
0.44900	-0
0.45267	-0
0.45633	-1
0.46000	-1
0.46367	-1
0.46733	-1
0.47100	-1
0.47467	-1
0.47833	-1
0.48200	-0
0.48567	-0
0.48933	-0
0.49300	-0
0.49667	0
0.50033	0
0.50400	0
0.50767	0
0.51133	0
0.51500	1
0.51867	1
0.52233	1
0.52600	1
0.52967	1
0.53333	1
0.53700	1
0.54067	1
0.54433	1
0.54800	1
0.55167	1
0.55533	1
0.55900	0
0.56267	0
0.56633	0
0.57000	0
0.57367	0
0.57733	0
0.58100	0
0.58467	0
0.58833	0
0.59200	0
0.59567	0
0.59933	-0
0.60300	-0
0.60667	-0
0.61033	-0
0.61400	-0
0.61767	-0
0.62133	-0
0.62500	-0
0.62867	-0
0.63233	0
0.63600	0
0.63967	0
0.64333	0
0.64700	0
0.65067	0
0.65433	0
0.65800	0
0.66167	-0
0.66533	-0
0.66900	-1
0.67267	-1
0.67633	-1
0.68000	-1
0.68367	-1
0.68733	-1
0.69100	-1
0.69467	-1
0.69833	-0
0.70200	-0
0.70567	0
0.70933	0
0.71300	0
0.71667	0
0.72033	1
0.72400	1
0.72767	1
0.73133	1
0.73500	1
0.73867	1
0.74233	1
0.74600	1
0.74967	1
0.75333	1
0.75700	1
0.76067	1
0.76433	1
0.76800	1
0.77167	1
0.77533	2
0.77900	1
0.78267	1
0.78633	1
0.79000	1
0.79367	1
0.79733	0
0.80100	0
0.80467	0
0.80833	0
0.81200	0
0.81567	0
0.81933	0
0.82300	0
0.82667	0
0.83033	1
0.83400	0
0.83767	0
0.84133	0
0.84500	0
0.84867	0
0.85233	1
0.85600	1
0.85967	1
0.86333	1
0.86700	1
0.87067	1
0.87433	1
0.87800	1
0.88167	1
0.88533	1
0.88900	1
0.89267	1
0.89633	1
0.90000	1
0.90367	1
0.90733	1
0.91100	1
0.91467	1
0.91833	1
0.92200	1
0.92567	0
0.92933	0
0.93300	0
0.93667	0
0.94033	0
0.94400	0
0.94767	0
0.95133	0
0.95500	0
0.95867	0
0.96233	0
0.96600	1
0.96967	1
0.97333	1
0.97700	2
0.98067	2
0.98433	2
0.98800	2
0.99167	2
0.99533	2
0.99900	2
1.00267	2
1.00633	2
1.01000	2
1.01367	2
1.01733	2
1.02100	2
1.02467	1
1.02833	1
1.03200	1
1.03567	1
1.03933	1
1.04300	1
1.04667	1
1.05033	1
1.05400	1
1.05767	1
1.06133	1
1.06500	1
1.06867	1
1.07233	1
1.07600	0
1.07967	0
1.08333	0
1.08700	0
1.09067	1
1.09433	1
1.09800	1
1.10167	1
1.10533	1
1.10900	1
1.11267	1
1.11633	1
1.12000	1
1.12367	1
1.12733	1
1.13100	1
1.13467	1
1.13833	1
1.14200	1
1.14567	0
1.14933	0
1.15300	0
1.15667	0
1.16033	-0
1.16400	-0
1.16767	-1
1.17133	-1
1.17500	-1
1.17867	-1
1.18233	-1
1.18600	-1
1.18967	-1
1.19333	-1
1.19700	-1
1.20067	-1
1.20433	-1
1.20800	-1
1.21167	-1
1.21533	-1
1.21900	-1
1.22267	-1
1.22633	-1
1.23000	-1
1.23367	-0
1.23733	-0
1.24100	-0
1.24467	-1
1.24833	-0
1.25200	-0
1.25567	-0
1.25933	-0
1.26300	-0
1.26667	-0
1.27033	-0
1.27400	-1
1.27767	-1
1.28133	-1
1.28500	-0
1.28867	-0
1.29233	-0
1.29600	-0
1.29967	-0
1.30333	-0
1.30700	-0
1.31067	-0
1.31433	0
1.31800	0
1.32167	0
1.32533	0
1.32900	0
1.33267	0
1.33633	0
1.34000	0
1.34367	-0
1.34733	0
1.35100	0
1.35467	0
1.35833	0
1.36200	0
1.36567	0
1.36933	1
1.37300	1
1.37667	1
1.38033	1
1.38400	1
1.38767	1
1.39133	1
1.39500	0
1.39867	0
1.40233	0
1.40600	1
1.40967	1
1.41333	1
1.41700	1
1.42067	1
1.42433	1
1.42800	1
1.43167	1
1.43533	1
1.43900	1
1.44267	1
1.44633	1
1.45000	1
1.45367	1
1.45733	1
1.46100	1
1.46467	1
1.46833	1
1.47200	1
1.47567	0
1.47933	0
1.48300	-0
1.48667	-0
1.49033	-0
1.49400	-0
1.49767	-1
1.50133	-1
1.50500	-1
1.50867	-1
1.51233	-1
1.51600	-1
1.51967	-1
1.52333	-1
1.52700	-1
1.53067	-1
1.53433	-0
1.53800	-0
1.54167	-0
1.54533	-0
1.54900	-0
1.55267	-0
1.55633	-0
1.56000	-1
1.56367	-1
1.56733	-1
1.57100	-2
1.57467	-2
1.57833	-2
1.58200	-2
1.58567	-2
1.58933	-2
1.59300	-3
1.59667	-3
1.60033	-3
1.60400	-4
1.60767	-5
1.61133	-6
1.61500	-7
1.61867	-9
1.62233	-12
1.62600	-15
1.62967	-18
1.63333	-21
1.63700	-24
1.64067	-28
1.64433	-31
1.64800	-35
1.65167	-39
1.65533	-42
1.65900	-45
1.66267	-49
1.66633	-53
1.67000	-58
1.67367	-63
1.67733	-67
1.68100	-73
1.68467	-78
1.68833	-82
1.69200	-87
1.69567	-90
1.69933	-94
1.70300	-96
1.70667	-98
1.71033	-100
1.71400	-101
1.71767	-103
1.72133	-104
1.72500	-105
1.72867	-106
1.73233	-107
1.73600	-108
1.73967	-109
1.74333	-110
1.74700	-111
1.75067	-112
1.75433	-112
1.75800	-113
1.76167	-114
1.76533	-114
1.76900	-115
1.77267	-115
1.77633	-116
1.78000	-116
1.78367	-116
1.78733	-117
1.79100	-117
1.79467	-117
1.79833	-117
1.80200	-117
1.80567	-117
1.80933	-117
1.81300	-117
1.81667	-117
1.82033	-118
1.82400	-118
1.82767	-119
1.83133	-119
1.83500	-120
1.83867	-120
1.84233	-120
1.84600	-120
1.84967	-120
1.85333	-119
1.85700	-119
1.86067	-118
1.86433	-118
1.86800	-118
1.87167	-117
1.87533	-117
1.87900	-118
1.88267	-117
1.88633	-117
1.89000	-117
1.89367	-117
1.89733	-117
1.90100	-117
1.90467	-116
1.90833	-116
1.91200	-115
1.91567	-116
1.91933	-116
1.92300	-115
1.92667	-115
1.93033	-115
1.93400	-115
1.93767	-114
1.94133	-114
1.94500	-114
1.94867	-113
1.95233	-113
1.95600	-113
1.95967	-113
1.96333	-113
1.96700	-113
1.97067	-113
1.97433	-113
1.97800	-113
1.98167	-113
1.98533	-112
1.98900	-112
1.99267	-112
1.99633	-112
2.00000	-111
2.00367	-111
2.00733	-111
2.01100	-110
2.01467	-110
2.01833	-110
2.02200	-110
2.02567	-109
2.02933	-109
2.03300	-109
2.03667	-108
2.04033	-108
2.04400	-107
2.04767	-107
2.05133	-106
2.05500	-106
2.05867	-105
2.06233	-105
2.06600	-105
2.06967	-105
2.07333	-105
2.07700	-105
2.08067	-104
2.08433	-104
2.08800	-104
2.09167	-103
2.09533	-102
2.09900	-102
2.10267	-101
2.10633	-101
2.11000	-101
2.11367	-100
2.11733	-101
2.12100	-101
2.12467	-101
2.12833	-101
2.13200	-101
2.13567	-100
2.13933	-100
2.14300	-99
2.14667	-98
2.15033	-97
2.15400	-97
2.15767	-96
2.16133	-96
2.16500	-96
2.16867	-97
2.17233	-98
2.17600	-99
2.17967	-100
2.18333	-101
2.18700	-101
2.19067	-101
2.19433	-101
2.19800	-100
2.20167	-100
2.20533	-99
2.20900	-99
2.21267	-98
2.21633	-98
2.22000	-98
2.22367	-97
2.22733	-97
2.23100	-96
2.23467	-96
2.23833	-95
2.24200	-94
2.24567	-93
2.24933	-92
2.25300	-92
2.25667	-91
2.26033	-90
2.26400	-89
2.26767	-89
2.27133	-88
2.27500	-88
2.27867	-89
2.28233	-89
2.28600	-90
2.28967	-90
2.29333	-90
2.29700	-91
2.30067	-90
2.30433	-90
2.30800	-89
2.31167	-88
2.31533	-86
2.31900	-85
2.32267	-84
2.32633	-84
2.33000	-83
2.33367	-82
2.33733	-82
2.34100	-81
2.34467	-81
2.34833	-81
2.35200	-81
2.35567	-81
2.35933	-81
2.36300	-81
2.36667	-81
2.37033	-80
2.37400	-79
2.37767	-78
2.38133	-75
2.38500	-72
2.38867	-69
2.39233	-65
2.39600	-61
2.39967	-57
2.40333	-53
2.40700	-48
2.41067	-43
2.41433	-38
2.41800	-34
2.42167	-30
2.42533	-26
2.42900	-23
2.43267	-20
2.43633	-17
2.44000	-14
2.44367	-12
2.44733	-10
2.45100	-8
2.45467	-6
2.45833	-5
2.46200	-3
2.46567	-2
2.46933	-1
2.47300	1
2.47667	2
2.48033	4
2.48400	5
2.48767	6
2.49133	7
2.49500	8
2.49867	9
2.50233	10
2.50600	10
2.50967	10
2.51333	10
2.51700	11
2.52067	11
2.52433	11
2.52800	11
2.53167	12
2.53533	12
2.53900	13
2.54267	14
2.54633	15
2.55000	15
2.55367	16
2.55733	17
2.56100	17
2.56467	17
2.56833	18
2.57200	18
2.57567	18
2.57933	19
2.58300	19
2.58667	18
2.59033	18
2.59400	18
2.59767	17
2.60133	17
2.60500	17
2.60867	17
2.61233	17
2.61600	17
2.61967	18
2.62333	18
2.62700	19
2.63067	19
2.63433	20
2.63800	20
2.64167	21
2.64533	21
2.64900	21
2.65267	21
2.65633	22
2.66000	22
2.66367	22
2.66733	22
2.67100	22
2.67467	23
2.67833	23
2.68200	23
2.68567	23
2.68933	22
2.69300	22
2.69667	22
2.70033	22
2.70400	22
2.70767	22
2.71133	22
2.71500	23
2.71867	23
2.72233	23
2.72600	23
2.72967	24
2.73333	24
2.73700	25
2.74067	25
2.74433	26
2.74800	26
2.75167	26
2.75533	25
2.75900	25
2.76267	24
2.76633	24
2.77000	23
2.77367	23
2.77733	23
2.78100	23
2.78467	23
2.78833	24
2.79200	24
2.79567	25
2.79933	25
2.80300	26
2.80667	26
2.81033	27
2.81400	27
2.81767	27
2.82133	28
2.82500	28
2.82867	28
2.83233	28
2.83600	28
2.83967	28
2.84333	28
2.84700	28
2.85067	28
2.85433	27
2.85800	25
2.86167	22
2.86533	18
2.86900	11
2.87267	1
2.87633	-13
2.88000	-30
2.88367	-51
2.88733	-75
2.89100	-104
2.89467	-137
2.89833	-172
2.90200	-212
2.90567	-253
2.90933	-298
2.91300	-344
2.91667	-393
2.92033	-442
2.92400	-492
2.92767	-542
2.93133	-592
2.93500	-643
2.93867	-693
2.94233	-742
2.94600	-792
2.94967	-843
2.95333	-898
2.95700	-958
2.96067	-1019
2.96433	-1069
2.96800	-1098
2.97167	-1101
2.97533	-1079
2.97900	-1033
2.98267	-971
2.98633	-898
2.99000	-819
2.99367	-738
2.99733	-659
3.00100	-583
3.00467	-512
3.00833	-447
3.01200	-388
3.01567	-335
3.01933	-288
3.02300	-247
3.02667	-211
3.03033	-180
3.03400	-152
3.03767	-129
3.04133	-108
3.04500	-90
3.04867	-75
3.05233	-62
3.05600	-51
3.05967	-42
3.06333	-34
3.06700	-27
3.07067	-21
3.07433	-15
3.07800	-11
3.08167	-7
3.08533	-4
3.08900	-1
3.09267	1
3.09633	3
3.10000	5
3.10367	7
3.10733	9
3.11100	10
3.11467	11
3.11833	12
3.12200	12
3.12567	13
3.12933	14
3.13300	14
3.13667	15
3.14033	15
3.14400	16
3.14767	16
3.15133	17
3.15500	17
3.15867	17
3.16233	17
3.16600	18
3.16967	18
3.17333	18
3.17700	19
3.18067	19
3.18433	19
3.18800	19
3.19167	20
3.19533	20
3.19900	20
3.20267	20
3.20633	20
3.21000	20
3.21367	21
3.21733	21
3.22100	21
3.22467	22
3.22833	22
3.23200	22
3.23567	23
3.23933	23
3.24300	23
3.24667	23
3.25033	24
3.25400	24
3.25767	24
3.26133	24
3.26500	24
3.26867	24
3.27233	24
3.27600	24
3.27967	25
3.28333	25
3.28700	25
3.29067	24
3.29433	24
3.29800	24
3.30167	25
3.30533	25
3.30900	25
3.31267	26
3.31633	26
3.32000	26
3.32367	26
3.32733	27
3.33100	27
3.33467	27
3.33833	27
3.34200	27
3.34567	27
3.34933	27
3.35300	27
3.35667	27
3.36033	27
3.36400	27
3.36767	26
3.37133	26
3.37500	26
3.37867	26
3.38233	26
3.38600	27
3.38967	27
3.39333	27
3.39700	27
3.40067	27
3.40433	27
3.40800	27
3.41167	27
3.41533	26
3.41900	26
3.42267	26
3.42633	27
3.43000	27
3.43367	27
3.43733	27
3.44100	26
3.44467	26
3.44833	26
3.45200	26
3.45567	27
3.45933	27
3.46300	27
3.46667	28
3.47033	28
3.47400	28
3.47767	29
3.48133	29
3.48500	29
3.48867	29
3.49233	29
3.49600	29
3.49967	29
3.50333	29
3.50700	29
3.51067	29
3.51433	29
3.51800	29
3.52167	29
3.52533	29
3.52900	29
3.53267	29
3.53633	29
3.54000	29
3.54367	29
3.54733	29
3.55100	29
3.55467	29
3.55833	29
3.56200	29
3.56567	29
3.56933	29
3.57300	29
3.57667	29
3.58033	29
3.58400	29
3.58767	29
3.59133	28
3.59500	28
3.59867	28
3.60233	28
3.60600	28
3.60967	27
3.61333	27
3.61700	27
3.62067	27
3.62433	27
3.62800	27
3.63167	27
3.63533	27
3.63900	26
3.64267	26
3.64633	26
3.65000	26
3.65367	26
3.65733	26
3.66100	26
3.66467	26
3.66833	27
3.67200	26
3.67567	26
3.67933	26
3.68300	26
3.68667	26
3.69033	26
3.69400	26
3.69767	26
3.70133	26
3.70500	26
3.70867	26
3.71233	26
3.71600	26
3.71967	27
3.72333	27
3.72700	27
3.73067	27
3.73433	27
3.73800	27
3.74167	27
3.74533	27
3.74900	27
3.75267	27
3.75633	27
3.76000	27
3.76367	27
3.76733	27
3.77100	27
3.77467	27
3.77833	27
3.78200	27
3.78567	27
3.78933	27
3.79300	27
3.79667	27
3.80033	27
3.80400	27
3.80767	27
3.81133	28
3.81500	28
3.81867	28
3.82233	28
3.82600	28
3.82967	28
3.83333	28
3.83700	28
3.84067	28
3.84433	28
3.84800	28
3.85167	28
3.85533	28
3.85900	28
3.86267	27
3.86633	27
3.87000	27
3.87367	27
3.87733	27
3.88100	27
3.88467	27
3.88833	27
3.89200	27
3.89567	26
3.89933	26
3.90300	26
3.90667	26
3.91033	26
3.91400	26
3.91767	26
3.92133	26
3.92500	26
3.92867	26
3.93233	26
3.93600	26
3.93967	26
3.94333	26
3.94700	26
3.95067	27
3.95433	27
3.95800	27
3.96167	27
3.96533	27
3.96900	27
3.97267	27
3.97633	27
3.98000	27
3.98367	27
3.98733	27
3.99100	27
3.99467	27
3.99833	27

[Chromatogram (Ch3)]
Interval(msec)	220
# of Points	1091
Start Time(min)	0.002
End Time(min)	3.998
R.Time (min)	Intensity
0.00167	-0
0.00533	0
0.00900	3
0.01267	4
0.01633	4
0.02000	4
0.02367	6
0.02733	6
0.03100	6
0.03467	5
0.03833	5
0.04200	1
0.04567	-2
0.04933	-3
0.05300	-2
0.05667	-1
0.06033	-1
0.06400	-1
0.06767	-0
0.07133	1
0.07500	3
0.07867	7
0.08233	10
0.08600	9
0.08967	8
0.09333	9
0.09700	10
0.10067	10
0.10433	10
0.10800	9
0.11167	7
0.11533	6
0.11900	6
0.12267	5
0.12633	4
0.13000	4
0.13367	6
0.13733	8
0.14100	10
0.14467	11
0.14833	10
0.15200	10
0.15567	8
0.15933	9
0.16300	11
0.16667	13
0.17033	14
0.17400	15
0.17767	16
0.18133	15
0.18500	14
0.18867	12
0.19233	12
0.19600	14
0.19967	16
0.20333	16
0.20700	16
0.21067	18
0.21433	19
0.21800	19
0.22167	17
0.22533	16
0.22900	16
0.23267	15
0.23633	16
0.24000	15
0.24367	14
0.24733	15
0.25100	17
0.25467	20
0.25833	19
0.26200	17
0.26567	15
0.26933	13
0.27300	14
0.27667	13
0.28033	13
0.28400	16
0.28767	18
0.29133	19
0.29500	19
0.29867	19
0.30233	20
0.30600	22
0.30967	22
0.31333	20
0.31700	20
0.32067	18
0.32433	15
0.32800	15
0.33167	15
0.33533	13
0.33900	11
0.34267	12
0.34633	15
0.35000	16
0.35367	15
0.35733	16
0.36100	18
0.36467	20
0.36833	21
0.37200	22
0.37567	24
0.37933	27
0.38300	29
0.38667	27
0.39033	23
0.39400	21
0.39767	21
0.40133	20
0.40500	17
0.40867	16
0.41233	17
0.41600	17
0.41967	16
0.42333	16
0.42700	19
0.43067	25
0.43433	29
0.43800	30
0.44167	28
0.44533	26
0.44900	25
0.45267	23
0.45633	20
0.46000	19
0.46367	19
0.46733	20
0.47100	24
0.47467	26
0.47833	25
0.48200	24
0.48567	24
0.48933	23
0.49300	21
0.49667	20
0.50033	22
0.50400	21
0.50767	20
0.51133	22
0.51500	22
0.51867	20
0.52233	19
0.52600	18
0.52967	17
0.53333	20
0.53700	23
0.54067	25
0.54433	24
0.54800	24
0.55167	24
0.55533	23
0.55900	23
0.56267	23
0.56633	23
0.57000	23
0.57367	22
0.57733	23
0.58100	23
0.58467	20
0.58833	19
0.59200	20
0.59567	22
0.59933	21
0.60300	21
0.60667	21
0.61033	22
0.61400	25
0.61767	28
0.62133	29
0.62500	27
0.62867	24
0.63233	23
0.63600	22
0.63967	22
0.64333	23
0.64700	23
0.65067	22
0.65433	22
0.65800	21
0.66167	21
0.66533	21
0.66900	22
0.67267	25
0.67633	26
0.68000	26
0.68367	26
0.68733	27
0.69100	27
0.69467	27
0.69833	25
0.70200	24
0.70567	24
0.70933	26
0.71300	26
0.71667	27
0.72033	27
0.72400	25
0.72767	21
0.73133	19
0.73500	20
0.73867	21
0.74233	20
0.74600	21
0.74967	23
0.75333	24
0.75700	27
0.76067	28
0.76433	27
0.76800	27
0.77167	26
0.77533	26
0.77900	26
0.78267	24
0.78633	23
0.79000	23
0.79367	22
0.79733	21
0.80100	21
0.80467	23
0.80833	23
0.81200	24
0.81567	25
0.81933	24
0.82300	22
0.82667	23
0.83033	25
0.83400	26
0.83767	27
0.84133	26
0.84500	25
0.84867	25
0.85233	28
0.85600	29
0.85967	30
0.86333	31
0.86700	32
0.87067	32
0.87433	33
0.87800	35
0.88167	35
0.88533	34
0.88900	33
0.89267	32
0.89633	30
0.90000	27
0.90367	26
0.90733	25
0.91100	24
0.91467	23
0.91833	26
0.92200	29
0.92567	30
0.92933	29
0.93300	29
0.93667	28
0.94033	28
0.94400	28
0.94767	25
0.95133	25
0.95500	27
0.95867	25
0.96233	24
0.96600	23
0.96967	23
0.97333	25
0.97700	28
0.98067	29
0.98433	26
0.98800	23
0.99167	22
0.99533	24
0.99900	27
1.00267	28
1.00633	28
1.01000	26
1.01367	23
1.01733	21
1.02100	21
1.02467	23
1.02833	25
1.03200	27
1.03567	27
1.03933	27
1.04300	27
1.04667	27
1.05033	27
1.05400	29
1.05767	29
1.06133	28
1.06500	25
1.06867	23
1.07233	25
1.07600	26
1.07967	28
1.08333	29
1.08700	26
1.09067	23
1.09433	20
1.09800	22
1.10167	24
1.10533	26
1.10900	27
1.11267	26
1.11633	27
1.12000	27
1.12367	28
1.12733	29
1.13100	27
1.13467	24
1.13833	22
1.14200	21
1.14567	22
1.14933	24
1.15300	25
1.15667	26
1.16033	26
1.16400	26
1.16767	24
1.17133	25
1.17500	26
1.17867	26
1.18233	22
1.18600	21
1.18967	22
1.19333	24
1.19700	22
1.20067	21
1.20433	22
1.20800	24
1.21167	26
1.21533	27
1.21900	28
1.22267	28
1.22633	27
1.23000	27
1.23367	27
1.23733	25
1.24100	23
1.24467	21
1.24833	20
1.25200	22
1.25567	24
1.25933	24
1.26300	25
1.26667	24
1.27033	24
1.27400	25
1.27767	26
1.28133	28
1.28500	26
1.28867	23
1.29233	22
1.29600	21
1.29967	19
1.30333	15
1.30700	15
1.31067	18
1.31433	22
1.31800	25
1.32167	25
1.32533	24
1.32900	24
1.33267	24
1.33633	24
1.34000	26
1.34367	28
1.34733	27
1.35100	25
1.35467	25
1.35833	26
1.36200	24
1.36567	22
1.36933	20
1.37300	18
1.37667	18
1.38033	19
1.38400	21
1.38767	24
1.39133	26
1.39500	26
1.39867	24
1.40233	23
1.40600	20
1.40967	18
1.41333	19
1.41700	20
1.42067	21
1.42433	21
1.42800	20
1.43167	22
1.43533	23
1.43900	22
1.44267	23
1.44633	24
1.45000	24
1.45367	24
1.45733	23
1.46100	24
1.46467	26
1.46833	26
1.47200	23
1.47567	19
1.47933	21
1.48300	22
1.48667	21
1.49033	19
1.49400	17
1.49767	15
1.50133	16
1.50500	17
1.50867	19
1.51233	21
1.51600	23
1.51967	24
1.52333	25
1.52700	25
1.53067	22
1.53433	20
1.53800	20
1.54167	22
1.54533	24
1.54900	22
1.55267	24
1.55633	26
1.56000	25
1.56367	24
1.56733	20
1.57100	19
1.57467	20
1.57833	22
1.58200	23
1.58567	24
1.58933	22
1.59300	21
1.59667	20
1.60033	20
1.60400	18
1.60767	17
1.61133	18
1.61500	19
1.61867	21
1.62233	23
1.62600	23
1.62967	22
1.63333	22
1.63700	24
1.64067	26
1.64433	28
1.64800	28
1.65167	27
1.65533	27
1.65900	27
1.66267	25
1.66633	24
1.67000	23
1.67367	24
1.67733	26
1.68100	27
1.68467	27
1.68833	27
1.69200	31
1.69567	34
1.69933	35
1.70300	32
1.70667	30
1.71033	32
1.71400	33
1.71767	33
1.72133	32
1.72500	33
1.72867	36
1.73233	38
1.73600	38
1.73967	37
1.74333	36
1.74700	37
1.75067	37
1.75433	37
1.75800	38
1.76167	37
1.76533	36
1.76900	35
1.77267	35
1.77633	38
1.78000	38
1.78367	38
1.78733	40
1.79100	42
1.79467	43
1.79833	44
1.80200	46
1.80567	50
1.80933	52
1.81300	55
1.81667	57
1.82033	57
1.82400	56
1.82767	54
1.83133	53
1.83500	49
1.83867	46
1.84233	47
1.84600	47
1.84967	47
1.85333	49
1.85700	51
1.86067	52
1.86433	53
1.86800	52
1.87167	52
1.87533	51
1.87900	52
1.88267	52
1.88633	53
1.89000	54
1.89367	57
1.89733	58
1.90100	60
1.90467	60
1.90833	59
1.91200	57
1.91567	58
1.91933	60
1.92300	62
1.92667	61
1.93033	61
1.93400	63
1.93767	63
1.94133	62
1.94500	63
1.94867	62
1.95233	62
1.95600	64
1.95967	64
1.96333	65
1.96700	67
1.97067	69
1.97433	69
1.97800	68
1.98167	68
1.98533	68
1.98900	68
1.99267	69
1.99633	67
2.00000	65
2.00367	66
2.00733	71
2.01100	73
2.01467	76
2.01833	79
2.02200	80
2.02567	78
2.02933	79
2.03300	80
2.03667	81
2.04033	82
2.04400	85
2.04767	88
2.05133	92
2.05500	95
2.05867	96
2.06233	95
2.06600	94
2.06967	94
2.07333	93
2.07700	93
2.08067	95
2.08433	95
2.08800	94
2.09167	94
2.09533	96
2.09900	100
2.10267	102
2.10633	102
2.11000	100
2.11367	99
2.11733	102
2.12100	106
2.12467	108
2.12833	107
2.13200	107
2.13567	107
2.13933	108
2.14300	109
2.14667	111
2.15033	113
2.15400	112
2.15767	113
2.16133	112
2.16500	113
2.16867	115
2.17233	116
2.17600	116
2.17967	115
2.18333	114
2.18700	117
2.19067	121
2.19433	124
2.19800	126
2.20167	127
2.20533	128
2.20900	130
2.21267	133
2.21633	133
2.22000	133
2.22367	133
2.22733	131
2.23100	131
2.23467	130
2.23833	132
2.24200	135
2.24567	137
2.24933	138
2.25300	140
2.25667	141
2.26033	140
2.26400	140
2.26767	138
2.27133	137
2.27500	139
2.27867	143
2.28233	145
2.28600	148
2.28967	150
2.29333	148
2.29700	148
2.30067	149
2.30433	152
2.30800	154
2.31167	156
2.31533	158
2.31900	158
2.32267	161
2.32633	163
2.33000	164
2.33367	165
2.33733	164
2.34100	163
2.34467	160
2.34833	159
2.35200	159
2.35567	160
2.35933	164
2.36300	166
2.36667	168
2.37033	173
2.37400	177
2.37767	179
2.38133	179
2.38500	177
2.38867	176
2.39233	178
2.39600	179
2.39967	179
2.40333	180
2.40700	181
2.41067	182
2.41433	182
2.41800	181
2.42167	184
2.42533	185
2.42900	186
2.43267	185
2.43633	182
2.44000	182
2.44367	197
2.44733	238
2.45100	283
2.45467	314
2.45833	325
2.46200	321
2.46567	313
2.46933	306
2.47300	299
2.47667	286
2.48033	269
2.48400	249
2.48767	228
2.49133	209
2.49500	195
2.49867	186
2.50233	178
2.50600	173
2.50967	173
2.51333	178
2.51700	184
2.52067	188
2.52433	189
2.52800	184
2.53167	177
2.53533	170
2.53900	160
2.54267	150
2.54633	140
2.55000	132
2.55367	126
2.55733	121
2.56100	106
2.56467	95
2.56833	98
2.57200	114
2.57567	142
2.57933	175
2.58300	203
2.58667	231
2.59033	261
2.59400	300
2.59767	341
2.60133	386
2.60500	430
2.60867	467
2.61233	493
2.61600	509
2.61967	517
2.62333	516
2.62700	508
2.63067	493
2.63433	476
2.63800	460
2.64167	443
2.64533	432
2.64900	424
2.65267	420
2.65633	420
2.66000	422
2.66367	426
2.66733	434
2.67100	442
2.67467	450
2.67833	460
2.68200	471
2.68567	482
2.68933	495
2.69300	508
2.69667	517
2.70033	526
2.70400	535
2.70767	543
2.71133	551
2.71500	556
2.71867	559
2.72233	560
2.72600	563
2.72967	568
2.73333	572
2.73700	575
2.74067	575
2.74433	573
2.74800	570
2.75167	569
2.75533	569
2.75900	569
2.76267	571
2.76633	572
2.77000	569
2.77367	566
2.77733	563
2.78100	560
2.78467	560
2.78833	561
2.79200	556
2.79567	548
2.79933	541
2.80300	535
2.80667	531
2.81033	527
2.81400	523
2.81767	521
2.82133	519
2.82500	518
2.82867	519
2.83233	525
2.83600	541
2.83967	584
2.84333	666
2.84700	809
2.85067	1041
2.85433	1378
2.85800	1823
2.86167	2358
2.86533	2956
2.86900	3576
2.87267	4165
2.87633	4673
2.88000	5064
2.88367	5313
2.88733	5410
2.89100	5365
2.89467	5200
2.89833	4942
2.90200	4623
2.90567	4269
2.90933	3903
2.91300	3538
2.91667	3192
2.92033	2871
2.92400	2575
2.92767	2307
2.93133	2069
2.93500	1857
2.93867	1669
2.94233	1503
2.94600	1358
2.94967	1232
2.95333	1122
2.95700	1027
2.96067	944
2.96433	874
2.96800	815
2.97167	763
2.97533	716
2.97900	676
2.98267	640
2.98633	609
2.99000	581
2.99367	557
2.99733	535
3.00100	515
3.00467	498
3.00833	482
3.01200	471
3.01567	461
3.01933	451
3.02300	442
3.02667	432
3.03033	425
3.03400	419
3.03767	415
3.04133	408
3.04500	403
3.04867	398
3.05233	396
3.05600	393
3.05967	389
3.06333	384
3.06700	379
3.07067	376
3.07433	374
3.07800	371
3.08167	367
3.08533	363
3.08900	360
3.09267	356
3.09633	352
3.10000	348
3.10367	345
3.10733	343
3.11100	339
3.11467	334
3.11833	330
3.12200	327
3.12567	323
3.12933	318
3.13300	312
3.13667	309
3.14033	309
3.14400	308
3.14767	308
3.15133	304
3.15500	300
3.15867	297
3.16233	293
3.16600	289
3.16967	287
3.17333	285
3.17700	282
3.18067	280
3.18433	277
3.18800	273
3.19167	271
3.19533	270
3.19900	267
3.20267	266
3.20633	264
3.21000	262
3.21367	261
3.21733	262
3.22100	263
3.22467	261
3.22833	258
3.23200	255
3.23567	252
3.23933	250
3.24300	249
3.24667	248
3.25033	244
3.25400	240
3.25767	238
3.26133	239
3.26500	237
3.26867	237
3.27233	235
3.27600	232
3.27967	229
3.28333	225
3.28700	220
3.29067	218
3.29433	215
3.29800	213
3.30167	212
3.30533	211
3.30900	210
3.31267	207
3.31633	201
3.32000	198
3.32367	198
3.32733	198
3.33100	199
3.33467	199
3.33833	196
3.34200	194
3.34567	193
3.34933	192
3.35300	191
3.35667	188
3.36033	187
3.36400	185
3.36767	184
3.37133	184
3.37500	181
3.37867	181
3.38233	180
3.38600	179
3.38967	178
3.39333	180
3.39700	179
3.40067	177
3.40433	176
3.40800	176
3.41167	175
3.41533	172
3.41900	169
3.42267	167
3.42633	164
3.43000	162
3.43367	164
3.43733	164
3.44100	164
3.44467	162
3.44833	160
3.45200	158
3.45567	156
3.45933	156
3.46300	157
3.46667	156
3.47033	158
3.47400	159
3.47767	158
3.48133	155
3.48500	153
3.48867	152
3.49233	151
3.49600	149
3.49967	149
3.50333	150
3.50700	151
3.51067	154
3.51433	153
3.51800	148
3.52167	143
3.52533	141
3.52900	141
3.53267	139
3.53633	138
3.54000	138
3.54367	138
3.54733	139
3.55100	139
3.55467	138
3.55833	133
3.56200	130
3.56567	130
3.56933	133
3.57300	133
3.57667	131
3.58033	130
3.58400	131
3.58767	132
3.59133	133
3.59500	134
3.59867	135
3.60233	133
3.60600	131
3.60967	132
3.61333	133
3.61700	133
3.62067	135
3.62433	135
3.62800	132
3.63167	129
3.63533	126
3.63900	124
3.64267	124
3.64633	128
3.65000	132
3.65367	133
3.65733	131
3.66100	130
3.66467	131
3.66833	130
3.67200	129
3.67567	127
3.67933	127
3.68300	127
3.68667	126
3.69033	128
3.69400	129
3.69767	130
3.70133	128
3.70500	127
3.70867	126
3.71233	124
3.71600	123
3.71967	121
3.72333	120
3.72700	118
3.73067	119
3.73433	121
3.73800	123
3.74167	123
3.74533	122
3.74900	119
3.75267	118
3.75633	117
3.76000	118
3.76367	117
3.76733	117
3.77100	116
3.77467	116
3.77833	115
3.78200	113
3.78567	114
3.78933	114
3.79300	115
3.79667	113
3.80033	112
3.80400	112
3.80767	113
3.81133	113
3.81500	113
3.81867	114
3.82233	114
3.82600	113
3.82967	113
3.83333	114
3.83700	117
3.84067	118
3.84433	117
3.84800	116
3.85167	115
3.85533	114
3.85900	115
3.86267	114
3.86633	112
3.87000	109
3.87367	107
3.87733	105
3.88100	106
3.88467	108
3.88833	109
3.89200	110
3.89567	108
3.89933	108
3.90300	108
3.90667	108
3.91033	108
3.91400	106
3.91767	105
3.92133	103
3.92500	102
3.92867	104
3.93233	104
3.93600	102
3.93967	100
3.94333	101
3.94700	101
3.95067	101
3.95433	101
3.95800	102
3.96167	101
3.96533	101
3.96900	101
3.97267	101
3.97633	103
3.98000	103
3.98367	104
3.98733	103
3.99100	103
3.99467	102
3.99833	102

[Status Trace (Column Oven Temperature)]
Interval(msec)	1000
# of Points	240
Start Time(min)	0.007
End Time(min)	3.990
Intensity Units	
Intensity Multiplier	1
R.Time (min)	Intensity
0.00697	35.02
0.02363	35.03
0.04030	35.03
0.05697	35.03
0.07363	35.02
0.09030	35.02
0.10697	35.02
0.12363	35.01
0.14030	35.01
0.15697	35.00
0.17363	35.00
0.19030	34.99
0.20697	34.99
0.22363	34.99
0.24030	35.00
0.25697	35.00
0.27363	34.99
0.29030	34.99
0.30697	34.99
0.32363	35.00
0.34030	34.99
0.35697	34.99
0.37363	34.99
0.39030	34.99
0.40697	34.99
0.42363	34.99
0.44030	34.99
0.45697	34.99
0.47363	35.00
0.49030	34.99
0.50697	34.99
0.52363	34.99
0.54030	34.99
0.55697	34.99
0.57363	34.99
0.59030	35.00
0.60697	35.00
0.62363	35.00
0.64030	35.00
0.65697	35.02
0.67363	35.02
0.69030	35.02
0.70697	35.01
0.72363	35.01
0.74030	35.00
0.75697	35.00
0.77363	35.01
0.79030	35.00
0.80697	35.00
0.82363	35.00
0.84030	35.00
0.85697	35.01
0.87363	35.00
0.89030	35.00
0.90697	35.00
0.92363	35.00
0.94030	35.00
0.95697	34.99
0.97363	35.00
0.99030	35.00
1.00697	34.98
1.02363	34.98
1.04030	34.97
1.05697	34.98
1.07363	34.98
1.09030	34.97
1.10697	34.97
1.12363	34.98
1.14030	34.98
1.15697	34.98
1.17363	34.99
1.19030	34.99
1.20697	35.00
1.22363	35.00
1.24030	35.00
1.25697	34.99
1.27363	34.99
1.29030	35.00
1.30697	35.00
1.32363	35.01
1.34030	35.00
1.35697	35.00
1.37363	34.99
1.39030	35.00
1.40697	35.00
1.42363	35.00
1.44030	34.99
1.45697	34.98
1.47363	34.99
1.49030	35.00
1.50697	35.00
1.52363	34.99
1.54030	34.99
1.55697	35.00
1.57363	34.99
1.59030	35.00
1.60697	35.05
1.62363	35.17
1.64030	35.35
1.65697	35.58
1.67363	35.89
1.69030	36.26
1.70697	36.60
1.72363	36.94
1.74030	37.28
1.75697	37.63
1.77363	37.96
1.79030	38.29
1.80697	38.62
1.82363	38.97
1.84030	39.31
1.85697	39.62
1.87363	39.96
1.89030	40.29
1.90697	40.61
1.92363	40.93
1.94030	41.26
1.95697	41.59
1.97363	41.90
1.99030	42.23
2.00697	42.55
2.02363	42.88
2.04030	43.20
2.05697	43.52
2.07363	43.87
2.09030	44.17
2.10697	44.48
2.12363	44.83
2.14030	45.14
2.15697	45.44
2.17363	45.80
2.19030	46.14
2.20697	46.46
2.22363	46.80
2.24030	47.12
2.25697	47.44
2.27363	47.78
2.29030	48.14
2.30697	48.46
2.32363	48.79
2.34030	49.10
2.35697	49.42
2.37363	49.66
2.39030	49.76
2.40697	49.76
2.42363	49.76
2.44030	49.75
2.45697	49.76
2.47363	49.76
2.49030	49.75
2.50697	49.76
2.52363	49.79
2.54030	49.79
2.55697	49.80
2.57363	49.80
2.59030	49.81
2.60697	49.83
2.62363	49.82
2.64030	49.82
2.65697	49.83
2.67363	49.83
2.69030	49.85
2.70697	49.86
2.72363	49.85
2.74030	49.84
2.75697	49.86
2.77363	49.89
2.79030	49.89
2.80697	49.88
2.82363	49.88
2.84030	49.87
2.85697	49.88
2.87363	49.88
2.89030	49.88
2.90697	49.89
2.92363	49.90
2.94030	49.91
2.95697	49.94
2.97363	49.96
2.99030	49.96
3.00697	49.98
3.02363	49.99
3.04030	50.00
3.05697	50.01
3.07363	50.02
3.09030	50.03
3.10697	50.02
3.12363	50.03
3.14030	50.03
3.15697	50.04
3.17363	50.05
3.19030	50.06
3.20697	50.07
3.22363	50.08
3.24030	50.08
3.25697	50.08
3.27363	50.09
3.29030	50.10
3.30697	50.10
3.32363	50.09
3.34030	50.09
3.35697	50.09
3.37363	50.10
3.39030	50.10
3.40697	50.10
3.42363	50.10
3.44030	50.10
3.45697	50.10
3.47363	50.09
3.49030	50.08
3.50697	50.07
3.52363	50.06
3.54030	50.05
3.55697	50.05
3.57363	50.05
3.59030	50.05
3.60697	50.04
3.62363	50.03
3.64030	50.04
3.65697	50.05
3.67363	50.04
3.69030	50.05
3.70697	50.05
3.72363	50.05
3.74030	50.05
3.75697	50.05
3.77363	50.05
3.79030	50.05
3.80697	50.05
3.82363	50.04
3.84030	50.05
3.85697	50.05
3.87363	50.05
3.89030	50.05
3.90697	50.06
3.92363	50.06
3.94030	50.05
3.95697	50.05
3.97363	50.05
3.99030	50.05

[Status Trace (Injection Unit Temperature)]
Interval(msec)	1000
# of Points	240
Start Time(min)	0.007
End Time(min)	3.990
Intensity Units	
Intensity Multiplier	1
R.Time (min)	Intensity
0.00697	99.99
0.02363	99.99
0.04030	99.98
0.05697	99.98
0.07363	99.98
0.09030	99.98
0.10697	99.98
0.12363	99.98
0.14030	99.98
0.15697	99.98
0.17363	99.98
0.19030	99.98
0.20697	99.98
0.22363	99.98
0.24030	99.98
0.25697	99.98
0.27363	99.98
0.29030	99.98
0.30697	99.98
0.32363	99.98
0.34030	99.98
0.35697	99.98
0.37363	99.98
0.39030	99.98
0.40697	99.98
0.42363	99.98
0.44030	99.98
0.45697	99.98
0.47363	99.98
0.49030	99.98
0.50697	99.98
0.52363	99.98
0.54030	99.98
0.55697	99.98
0.57363	99.98
0.59030	99.98
0.60697	99.98
0.62363	99.97
0.64030	99.98
0.65697	99.98
0.67363	99.98
0.69030	99.98
0.70697	99.98
0.72363	99.98
0.74030	99.98
0.75697	99.98
0.77363	99.98
0.79030	99.98
0.80697	99.98
0.82363	99.98
0.84030	99.98
0.85697	99.98
0.87363	99.98
0.89030	99.98
0.90697	99.98
0.92363	99.98
0.94030	99.98
0.95697	99.98
0.97363	99.98
0.99030	99.98
1.00697	99.98
1.02363	99.98
1.04030	99.98
1.05697	99.99
1.07363	99.99
1.09030	99.98
1.10697	99.99
1.12363	99.98
1.14030	99.99
1.15697	99.98
1.17363	99.99
1.19030	99.98
1.20697	99.99
1.22363	99.98
1.24030	99.98
1.25697	99.99
1.27363	99.99
1.29030	99.99
1.30697	99.98
1.32363	99.99
1.34030	99.98
1.35697	99.99
1.37363	99.99
1.39030	99.98
1.40697	99.99
1.42363	99.98
1.44030	99.98
1.45697	99.99
1.47363	99.98
1.49030	99.98
1.50697	99.98
1.52363	99.99
1.54030	99.98
1.55697	99.99
1.57363	99.99
1.59030	99.99
1.60697	99.99
1.62363	99.99
1.64030	99.99
1.65697	99.99
1.67363	99.99
1.69030	99.99
1.70697	99.98
1.72363	99.99
1.74030	99.99
1.75697	99.99
1.77363	99.99
1.79030	99.99
1.80697	99.99
1.82363	99.99
1.84030	99.99
1.85697	99.99
1.87363	99.99
1.89030	99.99
1.90697	99.99
1.92363	99.99
1.94030	99.99
1.95697	99.99
1.97363	99.98
1.99030	99.98
2.00697	99.98
2.02363	99.98
2.04030	99.98
2.05697	99.98
2.07363	99.98
2.09030	99.98
2.10697	99.98
2.12363	99.98
2.14030	99.98
2.15697	99.98
2.17363	99.98
2.19030	99.98
2.20697	99.98
2.22363	99.98
2.24030	99.98
2.25697	99.98
2.27363	99.97
2.29030	99.97
2.30697	99.97
2.32363	99.98
2.34030	99.97
2.35697	99.97
2.37363	99.97
2.39030	99.98
2.40697	99.98
2.42363	99.97
2.44030	99.97
2.45697	99.97
2.47363	99.98
2.49030	99.98
2.50697	99.97
2.52363	99.97
2.54030	99.97
2.55697	99.98
2.57363	99.98
2.59030	99.98
2.60697	99.98
2.62363	99.98
2.64030	99.98
2.65697	99.98
2.67363	99.98
2.69030	99.98
2.70697	99.98
2.72363	99.98
2.74030	99.98
2.75697	99.98
2.77363	99.99
2.79030	99.98
2.80697	99.99
2.82363	99.98
2.84030	99.99
2.85697	99.99
2.87363	99.99
2.89030	100.00
2.90697	100.00
2.92363	100.00
2.94030	100.00
2.95697	100.00
2.97363	100.01
2.99030	100.01
3.00697	100.00
3.02363	100.01
3.04030	100.01
3.05697	100.01
3.07363	100.01
3.09030	100.01
3.10697	100.01
3.12363	100.01
3.14030	100.02
3.15697	100.02
3.17363	100.02
3.19030	100.02
3.20697	100.02
3.22363	100.02
3.24030	100.03
3.25697	100.02
3.27363	100.03
3.29030	100.03
3.30697	100.03
3.32363	100.03
3.34030	100.03
3.35697	100.03
3.37363	100.03
3.39030	100.03
3.40697	100.04
3.42363	100.04
3.44030	100.04
3.45697	100.04
3.47363	100.04
3.49030	100.04
3.50697	100.04
3.52363	100.04
3.54030	100.05
3.55697	100.04
3.57363	100.05
3.59030	100.04
3.60697	100.04
3.62363	100.05
3.64030	100.05
3.65697	100.05
3.67363	100.05
3.69030	100.05
3.70697	100.05
3.72363	100.05
3.74030	100.05
3.75697	100.06
3.77363	100.05
3.79030	100.06
3.80697	100.05
3.82363	100.05
3.84030	100.06
3.85697	100.06
3.87363	100.05
3.89030	100.06
3.90697	100.05
3.92363	100.06
3.94030	100.06
3.95697	100.06
3.97363	100.06
3.99030	100.06

[Status Trace (Carrier Gas Pressure)]
Interval(msec)	1000
# of Points	240
Start Time(min)	0.007
End Time(min)	3.990
Intensity Units	
Intensity Multiplier	1
R.Time (min)	Intensity
0.00697	58.00
0.02363	55.54
0.04030	56.97
0.05697	59.02
0.07363	59.62
0.09030	58.10
0.10697	57.97
0.12363	58.01
0.14030	58.01
0.15697	58.01
0.17363	58.00
0.19030	58.00
0.20697	58.00
0.22363	58.00
0.24030	58.00
0.25697	58.00
0.27363	58.00
0.29030	58.00
0.30697	58.00
0.32363	58.00
0.34030	58.00
0.35697	58.00
0.37363	58.00
0.39030	58.00
0.40697	58.00
0.42363	58.00
0.44030	58.00
0.45697	58.00
0.47363	58.00
0.49030	58.00
0.50697	58.00
0.52363	58.00
0.54030	58.00
0.55697	58.00
0.57363	58.00
0.59030	58.00
0.60697	58.00
0.62363	58.00
0.64030	58.00
0.65697	58.00
0.67363	58.00
0.69030	58.00
0.70697	58.00
0.72363	58.00
0.74030	58.00
0.75697	58.00
0.77363	58.00
0.79030	58.00
0.80697	58.00
0.82363	58.00
0.84030	58.00
0.85697	58.00
0.87363	58.00
0.89030	58.00
0.90697	58.00
0.92363	58.00
0.94030	58.00
0.95697	58.00
0.97363	58.00
0.99030	58.00
1.00697	58.00
1.02363	58.00
1.04030	58.00
1.05697	58.00
1.07363	58.00
1.09030	58.00
1.10697	58.00
1.12363	58.00
1.14030	58.00
1.15697	58.00
1.17363	58.00
1.19030	58.00
1.20697	58.00
1.22363	58.00
1.24030	58.00
1.25697	58.00
1.27363	58.00
1.29030	58.00
1.30697	58.00
1.32363	58.00
1.34030	58.00
1.35697	58.00
1.37363	58.00
1.39030	58.00
1.40697	58.00
1.42363	58.00
1.44030	58.00
1.45697	58.00
1.47363	58.00
1.49030	58.00
1.50697	58.00
1.52363	58.00
1.54030	58.00
1.55697	58.00
1.57363	58.00
1.59030	58.00
1.60697	58.00
1.62363	58.00
1.64030	58.00
1.65697	58.00
1.67363	58.01
1.69030	58.00
1.70697	58.00
1.72363	58.00
1.74030	58.00
1.75697	58.00
1.77363	58.00
1.79030	58.00
1.80697	58.00
1.82363	58.00
1.84030	58.00
1.85697	58.00
1.87363	58.00
1.89030	58.00
1.90697	58.00
1.92363	58.00
1.94030	58.00
1.95697	58.00
1.97363	58.00
1.99030	58.00
2.00697	58.00
2.02363	58.00
2.04030	58.00
2.05697	58.00
2.07363	58.00
2.09030	58.00
2.10697	58.00
2.12363	58.00
2.14030	58.00
2.15697	58.00
2.17363	58.00
2.19030	58.00
2.20697	58.00
2.22363	58.00
2.24030	58.00
2.25697	58.00
2.27363	58.00
2.29030	58.00
2.30697	58.00
2.32363	58.00
2.34030	58.00
2.35697	58.00
2.37363	58.00
2.39030	57.99
2.40697	57.99
2.42363	58.00
2.44030	58.00
2.45697	58.00
2.47363	58.00
2.49030	58.00
2.50697	58.00
2.52363	57.99
2.54030	58.00
2.55697	58.00
2.57363	58.00
2.59030	58.00
2.60697	58.00
2.62363	58.00
2.64030	58.00
2.65697	58.00
2.67363	58.00
2.69030	58.00
2.70697	58.00
2.72363	58.00
2.74030	58.00
2.75697	58.00
2.77363	58.00
2.79030	58.00
2.80697	58.00
2.82363	58.00
2.84030	58.00
2.85697	58.00
2.87363	58.00
2.89030	58.00
2.90697	58.00
2.92363	58.00
2.94030	58.00
2.95697	58.00
2.97363	58.00
2.99030	58.00
3.00697	58.00
3.02363	58.00
3.04030	58.00
3.05697	58.00
3.07363	58.00
3.09030	58.00
3.10697	58.00
3.12363	58.00
3.14030	58.00
3.15697	58.00
3.17363	58.00
3.19030	58.00
3.20697	58.00
3.22363	58.00
3.24030	58.00
3.25697	58.00
3.27363	58.00
3.29030	58.00
3.30697	58.00
3.32363	58.00
3.34030	58.00
3.35697	58.00
3.37363	58.00
3.39030	58.00
3.40697	58.00
3.42363	58.00
3.44030	58.00
3.45697	58.00
3.47363	58.00
3.49030	58.00
3.50697	58.00
3.52363	58.00
3.54030	58.00
3.55697	58.00
3.57363	58.00
3.59030	58.00
3.60697	58.00
3.62363	58.00
3.64030	58.00
3.65697	58.00
3.67363	58.00
3.69030	58.00
3.70697	58.00
3.72363	58.00
3.74030	58.00
3.75697	58.00
3.77363	58.00
3.79030	58.00
3.80697	58.00
3.82363	58.00
3.84030	58.00
3.85697	58.00
3.87363	58.00
3.89030	58.00
3.90697	58.00
3.92363	58.00
3.94030	58.00
3.95697	58.00
3.97363	58.00
3.99030	58.00

[Status Trace (Carrier Gas Flow)]
Interval(msec)	1000
# of Points	240
Start Time(min)	0.007
End Time(min)	3.990
Intensity Units	
Intensity Multiplier	1
R.Time (min)	Intensity
0.00697	34.52
0.02363	34.54
0.04030	34.55
0.05697	34.55
0.07363	34.49
0.09030	34.52
0.10697	34.52
0.12363	34.52
0.14030	34.52
0.15697	34.52
0.17363	34.52
0.19030	34.52
0.20697	34.52
0.22363	34.52
0.24030	34.52
0.25697	34.52
0.27363	34.52
0.29030	34.52
0.30697	34.52
0.32363	34.52
0.34030	34.52
0.35697	34.52
0.37363	34.52
0.39030	34.52
0.40697	34.51
0.42363	34.52
0.44030	34.53
0.45697	34.53
0.47363	34.53
0.49030	34.52
0.50697	34.52
0.52363	34.52
0.54030	34.51
0.55697	34.52
0.57363	34.52
0.59030	34.52
0.60697	34.52
0.62363	34.53
0.64030	34.52
0.65697	34.52
0.67363	34.52
0.69030	34.52
0.70697	34.52
0.72363	34.52
0.74030	34.52
0.75697	34.52
0.77363	34.52
0.79030	34.52
0.80697	34.52
0.82363	34.52
0.84030	34.52
0.85697	34.52
0.87363	34.52
0.89030	34.52
0.90697	34.52
0.92363	34.52
0.94030	34.52
0.95697	34.52
0.97363	34.52
0.99030	34.52
1.00697	34.52
1.02363	34.52
1.04030	34.52
1.05697	34.52
1.07363	34.52
1.09030	34.52
1.10697	34.52
1.12363	34.52
1.14030	34.52
1.15697	34.52
1.17363	34.52
1.19030	34.52
1.20697	34.52
1.22363	34.52
1.24030	34.52
1.25697	34.52
1.27363	34.52
1.29030	34.52
1.30697	34.52
1.32363	34.52
1.34030	34.52
1.35697	34.52
1.37363	34.52
1.39030	34.52
1.40697	34.52
1.42363	34.52
1.44030	34.52
1.45697	34.52
1.47363	34.52
1.49030	34.52
1.50697	34.52
1.52363	34.52
1.54030	34.52
1.55697	34.52
1.57363	34.52
1.59030	34.52
1.60697	34.52
1.62363	34.52
1.64030	34.52
1.65697	34.52
1.67363	34.52
1.69030	34.52
1.70697	34.52
1.72363	34.52
1.74030	34.52
1.75697	34.52
1.77363	34.52
1.79030	34.52
1.80697	34.52
1.82363	34.52
1.84030	34.52
1.85697	34.52
1.87363	34.52
1.89030	34.52
1.90697	34.52
1.92363	34.52
1.94030	34.52
1.95697	34.52
1.97363	34.52
1.99030	34.52
2.00697	34.52
2.02363	34.52
2.04030	34.52
2.05697	34.52
2.07363	34.52
2.09030	34.52
2.10697	34.52
2.12363	34.52
2.14030	34.52
2.15697	34.52
2.17363	34.52
2.19030	34.52
2.20697	34.52
2.22363	34.52
2.24030	34.52
2.25697	34.52
2.27363	34.52
2.29030	34.52
2.30697	34.52
2.32363	34.52
2.34030	34.52
2.35697	34.52
2.37363	34.52
2.39030	34.52
2.40697	34.52
2.42363	34.52
2.44030	34.52
2.45697	34.52
2.47363	34.52
2.49030	34.52
2.50697	34.47
2.52363	34.51
2.54030	34.52
2.55697	34.52
2.57363	34.52
2.59030	34.52
2.60697	34.52
2.62363	34.52
2.64030	34.52
2.65697	34.52
2.67363	34.52
2.69030	34.52
2.70697	34.52
2.72363	34.52
2.74030	34.52
2.75697	34.52
2.77363	34.52
2.79030	34.52
2.80697	34.52
2.82363	34.52
2.84030	34.52
2.85697	34.52
2.87363	34.51
2.89030	34.51
2.90697	34.52
2.92363	34.52
2.94030	34.51
2.95697	34.51
2.97363	34.51
2.99030	34.52
3.00697	34.51
3.02363	34.52
3.04030	34.52
3.05697	34.52
3.07363	34.51
3.09030	34.52
3.10697	34.52
3.12363	34.52
3.14030	34.52
3.15697	34.52
3.17363	34.52
3.19030	34.52
3.20697	34.52
3.22363	34.51
3.24030	34.52
3.25697	34.52
3.27363	34.52
3.29030	34.52
3.30697	34.52
3.32363	34.52
3.34030	34.52
3.35697	34.52
3.37363	34.52
3.39030	34.52
3.40697	34.52
3.42363	34.52
3.44030	34.52
3.45697	34.52
3.47363	34.52
3.49030	34.52
3.50697	34.52
3.52363	34.52
3.54030	34.52
3.55697	34.52
3.57363	34.52
3.59030	34.52
3.60697	34.52
3.62363	34.52
3.64030	34.52
3.65697	34.52
3.67363	34.52
3.69030	34.52
3.70697	34.52
3.72363	34.52
3.74030	34.52
3.75697	34.52
3.77363	34.52
3.79030	34.52
3.80697	34.52
3.82363	34.52
3.84030	34.52
3.85697	34.52
3.87363	34.52
3.89030	34.52
3.90697	34.52
3.92363	34.52
3.94030	34.52
3.95697	34.52
3.97363	34.52
3.99030	34.52

[Status Trace (Column Flow)]
Interval(msec)	1000
# of Points	240
Start Time(min)	0.007
End Time(min)	3.990
Intensity Units	
Intensity Multiplier	1
R.Time (min)	Intensity
0.00697	5.50
0.02363	5.21
0.04030	5.38
0.05697	5.61
0.07363	5.68
0.09030	5.51
0.10697	5.49
0.12363	5.50
0.14030	5.50
0.15697	5.50
0.17363	5.50
0.19030	5.50
0.20697	5.50
0.22363	5.50
0.24030	5.50
0.25697	5.50
0.27363	5.50
0.29030	5.50
0.30697	5.50
0.32363	5.50
0.34030	5.50
0.35697	5.50
0.37363	5.50
0.39030	5.50
0.40697	5.50
0.42363	5.50
0.44030	5.50
0.45697	5.50
0.47363	5.50
0.49030	5.50
0.50697	5.50
0.52363	5.50
0.54030	5.50
0.55697	5.50
0.57363	5.50
0.59030	5.50
0.60697	5.50
0.62363	5.50
0.64030	5.50
0.65697	5.50
0.67363	5.50
0.69030	5.50
0.70697	5.50
0.72363	5.50
0.74030	5.50
0.75697	5.50
0.77363	5.50
0.79030	5.50
0.80697	5.50
0.82363	5.50
0.84030	5.50
0.85697	5.50
0.87363	5.50
0.89030	5.50
0.90697	5.50
0.92363	5.50
0.94030	5.50
0.95697	5.50
0.97363	5.50
0.99030	5.50
1.00697	5.50
1.02363	5.50
1.04030	5.50
1.05697	5.50
1.07363	5.50
1.09030	5.50
1.10697	5.50
1.12363	5.50
1.14030	5.50
1.15697	5.50
1.17363	5.50
1.19030	5.50
1.20697	5.50
1.22363	5.50
1.24030	5.50
1.25697	5.50
1.27363	5.50
1.29030	5.50
1.30697	5.50
1.32363	5.50
1.34030	5.50
1.35697	5.50
1.37363	5.50
1.39030	5.50
1.40697	5.50
1.42363	5.50
1.44030	5.50
1.45697	5.50
1.47363	5.50
1.49030	5.50
1.50697	5.50
1.52363	5.50
1.54030	5.50
1.55697	5.50
1.57363	5.50
1.59030	5.50
1.60697	5.49
1.62363	5.49
1.64030	5.49
1.65697	5.48
1.67363	5.47
1.69030	5.46
1.70697	5.45
1.72363	5.44
1.74030	5.42
1.75697	5.41
1.77363	5.40
1.79030	5.39
1.80697	5.38
1.82363	5.37
1.84030	5.36
1.85697	5.35
1.87363	5.34
1.89030	5.33
1.90697	5.32
1.92363	5.31
1.94030	5.30
1.95697	5.29
1.97363	5.29
1.99030	5.28
2.00697	5.27
2.02363	5.26
2.04030	5.25
2.05697	5.24
2.07363	5.23
2.09030	5.22
2.10697	5.21
2.12363	5.20
2.14030	5.19
2.15697	5.18
2.17363	5.17
2.19030	5.16
2.20697	5.15
2.22363	5.14
2.24030	5.13
2.25697	5.13
2.27363	5.12
2.29030	5.11
2.30697	5.10
2.32363	5.09
2.34030	5.08
2.35697	5.07
2.37363	5.06
2.39030	5.06
2.40697	5.06
2.42363	5.06
2.44030	5.06
2.45697	5.06
2.47363	5.06
2.49030	5.06
2.50697	5.06
2.52363	5.06
2.54030	5.06
2.55697	5.06
2.57363	5.06
2.59030	5.06
2.60697	5.06
2.62363	5.06
2.64030	5.06
2.65697	5.06
2.67363	5.06
2.69030	5.06
2.70697	5.06
2.72363	5.06
2.74030	5.06
2.75697	5.06
2.77363	5.06
2.79030	5.06
2.80697	5.06
2.82363	5.06
2.84030	5.06
2.85697	5.06
2.87363	5.06
2.89030	5.06
2.90697	5.06
2.92363	5.06
2.94030	5.06
2.95697	5.06
2.97363	5.06
2.99030	5.06
3.00697	5.06
3.02363	5.05
3.04030	5.05
3.05697	5.05
3.07363	5.05
3.09030	5.05
3.10697	5.05
3.12363	5.05
3.14030	5.05
3.15697	5.05
3.17363	5.05
3.19030	5.05
3.20697	5.05
3.22363	5.05
3.24030	5.05
3.25697	5.05
3.27363	5.05
3.29030	5.05
3.30697	5.05
3.32363	5.05
3.34030	5.05
3.35697	5.05
3.37363	5.05
3.39030	5.05
3.40697	5.05
3.42363	5.05
3.44030	5.05
3.45697	5.05
3.47363	5.05
3.49030	5.05
3.50697	5.05
3.52363	5.05
3.54030	5.05
3.55697	5.05
3.57363	5.05
3.59030	5.05
3.60697	5.05
3.62363	5.05
3.64030	5.05
3.65697	5.05
3.67363	5.05
3.69030	5.05
3.70697	5.05
3.72363	5.05
3.74030	5.05
3.75697	5.05
3.77363	5.05
3.79030	5.05
3.80697	5.05
3.82363	5.05
3.84030	5.05
3.85697	5.05
3.87363	5.05
3.89030	5.05
3.90697	5.05
3.92363	5.05
3.94030	5.05
3.95697	5.05
3.97363	5.05
3.99030	5.05

[Status Trace (Linear Velocity)]
Interval(msec)	1000
# of Points	240
Start Time(min)	0.007
End Time(min)	3.990
Intensity Units	
Intensity Multiplier	1
R.Time (min)	Intensity
0.00697	39.01
0.02363	37.39
0.04030	38.33
0.05697	39.67
0.07363	40.07
0.09030	39.08
0.10697	38.99
0.12363	39.02
0.14030	39.02
0.15697	39.01
0.17363	39.01
0.19030	39.01
0.20697	39.01
0.22363	39.01
0.24030	39.01
0.25697	39.01
0.27363	39.01
0.29030	39.01
0.30697	39.01
0.32363	39.01
0.34030	39.01
0.35697	39.01
0.37363	39.01
0.39030	39.01
0.40697	39.01
0.42363	39.01
0.44030	39.01
0.45697	39.01
0.47363	39.01
0.49030	39.01
0.50697	39.01
0.52363	39.01
0.54030	39.01
0.55697	39.01
0.57363	39.01
0.59030	39.01
0.60697	39.01
0.62363	39.01
0.64030	39.01
0.65697	39.01
0.67363	39.01
0.69030	39.01
0.70697	39.01
0.72363	39.01
0.74030	39.01
0.75697	39.01
0.77363	39.01
0.79030	39.01
0.80697	39.01
0.82363	39.01
0.84030	39.01
0.85697	39.01
0.87363	39.01
0.89030	39.01
0.90697	39.01
0.92363	39.01
0.94030	39.01
0.95697	39.01
0.97363	39.01
0.99030	39.01
1.00697	39.01
1.02363	39.01
1.04030	39.01
1.05697	39.01
1.07363	39.01
1.09030	39.01
1.10697	39.01
1.12363	39.01
1.14030	39.01
1.15697	39.01
1.17363	39.01
1.19030	39.01
1.20697	39.01
1.22363	39.01
1.24030	39.01
1.25697	39.01
1.27363	39.01
1.29030	39.01
1.30697	39.01
1.32363	39.01
1.34030	39.01
1.35697	39.01
1.37363	39.01
1.39030	39.01
1.40697	39.01
1.42363	39.01
1.44030	39.01
1.45697	39.01
1.47363	39.01
1.49030	39.01
1.50697	39.01
1.52363	39.01
1.54030	39.01
1.55697	39.01
1.57363	39.01
1.59030	39.01
1.60697	39.01
1.62363	39.00
1.64030	38.98
1.65697	38.96
1.67363	38.93
1.69030	38.89
1.70697	38.86
1.72363	38.82
1.74030	38.79
1.75697	38.76
1.77363	38.73
1.79030	38.70
1.80697	38.67
1.82363	38.63
1.84030	38.60
1.85697	38.57
1.87363	38.54
1.89030	38.51
1.90697	38.48
1.92363	38.45
1.94030	38.42
1.95697	38.39
1.97363	38.36
1.99030	38.33
2.00697	38.30
2.02363	38.27
2.04030	38.24
2.05697	38.21
2.07363	38.18
2.09030	38.15
2.10697	38.12
2.12363	38.09
2.14030	38.06
2.15697	38.03
2.17363	38.00
2.19030	37.97
2.20697	37.94
2.22363	37.91
2.24030	37.88
2.25697	37.85
2.27363	37.82
2.29030	37.79
2.30697	37.76
2.32363	37.73
2.34030	37.71
2.35697	37.68
2.37363	37.66
2.39030	37.64
2.40697	37.64
2.42363	37.65
2.44030	37.65
2.45697	37.65
2.47363	37.65
2.49030	37.65
2.50697	37.65
2.52363	37.64
2.54030	37.64
2.55697	37.65
2.57363	37.64
2.59030	37.64
2.60697	37.64
2.62363	37.64
2.64030	37.64
2.65697	37.64
2.67363	37.64
2.69030	37.64
2.70697	37.64
2.72363	37.64
2.74030	37.64
2.75697	37.64
2.77363	37.64
2.79030	37.64
2.80697	37.64
2.82363	37.64
2.84030	37.64
2.85697	37.64
2.87363	37.64
2.89030	37.64
2.90697	37.64
2.92363	37.64
2.94030	37.63
2.95697	37.63
2.97363	37.63
2.99030	37.63
3.00697	37.63
3.02363	37.63
3.04030	37.63
3.05697	37.63
3.07363	37.62
3.09030	37.62
3.10697	37.62
3.12363	37.62
3.14030	37.62
3.15697	37.62
3.17363	37.62
3.19030	37.62
3.20697	37.62
3.22363	37.62
3.24030	37.62
3.25697	37.62
3.27363	37.62
3.29030	37.62
3.30697	37.62
3.32363	37.62
3.34030	37.62
3.35697	37.62
3.37363	37.62
3.39030	37.62
3.40697	37.62
3.42363	37.62
3.44030	37.62
3.45697	37.62
3.47363	37.62
3.49030	37.62
3.50697	37.62
3.52363	37.62
3.54030	37.62
3.55697	37.62
3.57363	37.62
3.59030	37.62
3.60697	37.62
3.62363	37.62
3.64030	37.62
3.65697	37.62
3.67363	37.62
3.69030	37.62
3.70697	37.62
3.72363	37.62
3.74030	37.62
3.75697	37.62
3.77363	37.62
3.79030	37.62
3.80697	37.62
3.82363	37.62
3.84030	37.62
3.85697	37.62
3.87363	37.62
3.89030	37.62
3.90697	37.62
3.92363	37.62
3.94030	37.62
3.95697	37.62
3.97363	37.62
3.99030	37.62

