[Header]
Application Name	LabSolutions
Version	5.110
Data File Name	C:\Users\User\Desktop\GC Analyses\Jack\UIC Prairie Sampling\9.16.22\220916_039.gcd
Output Date	11/29/2022
Output Time	11:10:17 AM

[File Information]
Type	Data File
Generated	11/14/2022 3:30:53 PM
Generated by	System Administrator
Modified	11/14/2022 3:35:11 PM
Modified by	System Administrator

[Sample Information]
Operator Name	System Administrator
Acquired	11/14/2022 3:31:11 PM
Sample Type	1:Standard
Level	1
Sample Name	220916_UICPrairie
Sample ID	220916_UICPrairie
ISTD Amount1	1
ISTD Amount2	1
ISTD Amount3	1
ISTD Amount4	1
ISTD Amount5	1
ISTD Amount6	1
ISTD Amount7	1
ISTD Amount8	1
ISTD Amount9	1
ISTD Amount10	1
ISTD Amount11	1
ISTD Amount12	1
ISTD Amount13	1
ISTD Amount14	1
ISTD Amount15	1
ISTD Amount16	1
ISTD Amount17	1
ISTD Amount18	1
ISTD Amount19	1
ISTD Amount20	1
ISTD Amount21	1
ISTD Amount22	1
ISTD Amount23	1
ISTD Amount24	1
ISTD Amount25	1
ISTD Amount26	1
ISTD Amount27	1
ISTD Amount28	1
ISTD Amount29	1
ISTD Amount30	1
ISTD Amount31	1
ISTD Amount32	1
Sample Amount	1
Dilution Factor	1
Vial#	1
Injection Volume	1
Injection Count	1
Bar Code	

[Original Files]
Data File	C:\Users\User\Desktop\GC Analyses\Jack\UIC Prairie Sampling\9.16.22\220916_039.gcd
Method File	C:\LabSolutions\Data\GHG_4min_2022\ghg3_togas_w_acet_4 min_new_int.gcm
Batch File	
Report Format File	c:\LabSolutions\System\DEFAULT.lsr

[File Description]


[Configuration]
Instrument Name	C0B7VH3-Instrument1
Instrument #	1
Line #	1
# of Detectors	3
Detector ID	DET#1	DET#2	DET#3
Detector Name	FID	PTCD	ECD
# of Channels	1	1	1

[Peak Table(Ch1)]
# of Peaks	3
Peak#	R.Time	I.Time	F.Time	Area	Height	A/H	Conc.	Mark	ID#	Name	k'	Plate #	Plate Ht.	Tailing	Resolution	Sep.Factor	Area Ratio	Height Ratio	Conc. %	Norm Conc.
1	1.479	1.439	1.542	11241	4779	2.352	100.000	   	1	CO	0.000	7506	19.984	1.236	0.000	0.000	0	0	16.667	16.667
2	1.571	1.542	1.633	4708	2350	2.003	100.000	 V 	2	CH4	0.062	11179	13.418	0.000	1.435	0.000	0	0	16.667	16.667
3	2.004	1.952	2.466	1711838	846809	2.022	400.000	   	3	CO2	0.354	18642	8.046	1.173	7.325	5.720	0	0	66.667	66.667

[Peak Table(Ch2)]
# of Peaks	0

[Peak Table(Ch3)]
# of Peaks	2
Peak#	R.Time	I.Time	F.Time	Area	Height	A/H	Conc.	Mark	ID#	Name	k'	Plate #	Plate Ht.	Tailing	Resolution	Sep.Factor	Area Ratio	Height Ratio	Conc. %	Norm Conc.
1	2.609	2.499	2.649	881	199	4.433	0.000	   			0.000	5926	25.312	0.677	0.000	0.000	0	0	0.000	0.000
2	2.887	2.667	3.756	29228	5229	5.590	1.000	   	1	N2O	0.107	12581	11.923	1.929	2.337	0.000	0	0	100.000	100.000

[Compound Results(Ch1)]
# of IDs	6
ID#	Name	R.Time	Area	Height	Conc.	Curve	3rd	2nd	1st	Constant	Area Ratio	Height Ratio	Conc. %	Norm Conc.
1	CO	1.479	11241	4779	100.000	Linear	0.000000e+00	0.000000e+00	1.124056e+002	0.000000e+00	0	0	16.667	16.667
2	CH4	1.571	4708	2350	100.000	Linear	0.000000e+00	0.000000e+00	4.707641e+001	0.000000e+00	0	0	16.667	16.667
3	CO2	2.004	1711838	846809	400.000	Linear	0.000000e+00	0.000000e+00	4.279595e+003	0.000000e+00	0	0	66.667	66.667
4	Ethylene	0.000	0	0	0.000	Linear	0.000000e+00	0.000000e+00	0.000000e+00	0.000000e+00	0	0	0.000	0.000
5	Acetylene	0.000	0	0	0.000	Linear	0.000000e+00	0.000000e+00	0.000000e+00	0.000000e+00	0	0	0.000	0.000
6	Ethane	0.000	0	0	0.000	Linear	0.000000e+00	0.000000e+00	0.000000e+00	0.000000e+00	0	0	0.000	0.000

[Compound Results(Ch2)]
# of IDs	5
ID#	Name	R.Time	Area	Height	Conc.	Curve	3rd	2nd	1st	Constant	Area Ratio	Height Ratio	Conc. %	Norm Conc.
1	Hydrogen	0.000	0	0	0.000	Linear	0.000000e+00	0.000000e+00	0.000000e+00	0.000000e+00	0	0	0.000	0.000
2	Oxygen	0.000	0	0	0.000	Linear	0.000000e+00	0.000000e+00	0.000000e+00	0.000000e+00	0	0	0.000	0.000
3	Nitrogen	0.000	0	0	0.000	Linear	0.000000e+00	0.000000e+00	0.000000e+00	0.000000e+00	0	0	0.000	0.000
4	Methane	0.000	0	0	0.000	Linear	0.000000e+00	0.000000e+00	0.000000e+00	0.000000e+00	0	0	0.000	0.000
5	Carbon Monoxide	0.000	0	0	0.000	Linear	0.000000e+00	0.000000e+00	0.000000e+00	0.000000e+00	0	0	0.000	0.000

[Compound Results(Ch3)]
# of IDs	2
ID#	Name	R.Time	Area	Height	Conc.	Curve	3rd	2nd	1st	Constant	Area Ratio	Height Ratio	Conc. %	Norm Conc.
1	N2O	2.887	29228	5229	1.000	Linear	0.000000e+00	0.000000e+00	2.922760e+004	0.000000e+00	0	0	100.000	100.000
2	SF6	0.000	0	0	0.000	Linear	0.000000e+00	0.000000e+00	0.000000e+00	0.000000e+00	0	0	0.000	0.000

[Group Results(Ch1)]
# of Groups	0

[Group Results(Ch2)]
# of Groups	0

[Group Results(Ch3)]
# of Groups	0

[Chromatogram (Ch1)]
Interval(msec)	220
# of Points	1091
Start Time(min)	0.002
End Time(min)	3.998
R.Time (min)	Intensity
0.00167	-1
0.00533	-4
0.00900	-7
0.01267	-9
0.01633	-13
0.02000	-13
0.02367	-8
0.02733	-1
0.03100	6
0.03467	12
0.03833	15
0.04200	14
0.04567	8
0.04933	2
0.05300	-4
0.05667	-8
0.06033	-9
0.06400	-7
0.06767	-4
0.07133	-2
0.07500	-3
0.07867	-4
0.08233	-5
0.08600	-3
0.08967	1
0.09333	3
0.09700	-0
0.10067	-4
0.10433	-6
0.10800	-5
0.11167	-5
0.11533	-1
0.11900	5
0.12267	7
0.12633	6
0.13000	4
0.13367	2
0.13733	3
0.14100	8
0.14467	14
0.14833	16
0.15200	12
0.15567	7
0.15933	3
0.16300	3
0.16667	6
0.17033	10
0.17400	12
0.17767	12
0.18133	10
0.18500	7
0.18867	4
0.19233	5
0.19600	8
0.19967	11
0.20333	9
0.20700	7
0.21067	4
0.21433	3
0.21800	3
0.22167	3
0.22533	5
0.22900	8
0.23267	10
0.23633	11
0.24000	12
0.24367	8
0.24733	2
0.25100	-4
0.25467	-6
0.25833	-6
0.26200	-6
0.26567	-6
0.26933	-6
0.27300	-3
0.27667	-0
0.28033	3
0.28400	6
0.28767	10
0.29133	13
0.29500	13
0.29867	11
0.30233	9
0.30600	7
0.30967	8
0.31333	13
0.31700	16
0.32067	16
0.32433	12
0.32800	7
0.33167	5
0.33533	7
0.33900	13
0.34267	17
0.34633	15
0.35000	8
0.35367	-2
0.35733	-10
0.36100	-14
0.36467	-12
0.36833	-6
0.37200	2
0.37567	6
0.37933	4
0.38300	-1
0.38667	-5
0.39033	-8
0.39400	-7
0.39767	-4
0.40133	2
0.40500	9
0.40867	16
0.41233	20
0.41600	19
0.41967	13
0.42333	4
0.42700	-3
0.43067	-8
0.43433	-9
0.43800	-10
0.44167	-11
0.44533	-11
0.44900	-7
0.45267	-6
0.45633	-8
0.46000	-9
0.46367	-8
0.46733	-4
0.47100	1
0.47467	4
0.47833	5
0.48200	9
0.48567	16
0.48933	22
0.49300	22
0.49667	17
0.50033	11
0.50400	7
0.50767	7
0.51133	11
0.51500	16
0.51867	20
0.52233	23
0.52600	19
0.52967	12
0.53333	6
0.53700	7
0.54067	11
0.54433	17
0.54800	21
0.55167	23
0.55533	23
0.55900	19
0.56267	14
0.56633	10
0.57000	10
0.57367	12
0.57733	16
0.58100	16
0.58467	13
0.58833	6
0.59200	0
0.59567	-3
0.59933	-6
0.60300	-4
0.60667	2
0.61033	9
0.61400	17
0.61767	20
0.62133	19
0.62500	13
0.62867	7
0.63233	6
0.63600	9
0.63967	16
0.64333	22
0.64700	27
0.65067	28
0.65433	27
0.65800	24
0.66167	21
0.66533	21
0.66900	23
0.67267	27
0.67633	30
0.68000	32
0.68367	33
0.68733	31
0.69100	26
0.69467	24
0.69833	26
0.70200	27
0.70567	26
0.70933	24
0.71300	22
0.71667	21
0.72033	20
0.72400	22
0.72767	26
0.73133	30
0.73500	28
0.73867	24
0.74233	20
0.74600	20
0.74967	20
0.75333	16
0.75700	13
0.76067	10
0.76433	8
0.76800	7
0.77167	7
0.77533	10
0.77900	15
0.78267	20
0.78633	23
0.79000	23
0.79367	20
0.79733	15
0.80100	9
0.80467	5
0.80833	3
0.81200	6
0.81567	11
0.81933	15
0.82300	16
0.82667	13
0.83033	10
0.83400	8
0.83767	7
0.84133	5
0.84500	2
0.84867	2
0.85233	7
0.85600	12
0.85967	14
0.86333	17
0.86700	19
0.87067	21
0.87433	22
0.87800	24
0.88167	23
0.88533	20
0.88900	17
0.89267	20
0.89633	28
0.90000	32
0.90367	30
0.90733	22
0.91100	10
0.91467	0
0.91833	-7
0.92200	-7
0.92567	-1
0.92933	5
0.93300	10
0.93667	15
0.94033	19
0.94400	22
0.94767	26
0.95133	30
0.95500	34
0.95867	36
0.96233	32
0.96600	29
0.96967	23
0.97333	16
0.97700	11
0.98067	11
0.98433	14
0.98800	16
0.99167	18
0.99533	19
0.99900	21
1.00267	25
1.00633	28
1.01000	30
1.01367	30
1.01733	29
1.02100	26
1.02467	25
1.02833	25
1.03200	28
1.03567	32
1.03933	34
1.04300	35
1.04667	35
1.05033	33
1.05400	32
1.05767	30
1.06133	27
1.06500	24
1.06867	21
1.07233	19
1.07600	16
1.07967	13
1.08333	12
1.08700	14
1.09067	18
1.09433	20
1.09800	19
1.10167	19
1.10533	25
1.10900	35
1.11267	43
1.11633	44
1.12000	41
1.12367	36
1.12733	31
1.13100	29
1.13467	31
1.13833	34
1.14200	37
1.14567	38
1.14933	41
1.15300	43
1.15667	40
1.16033	37
1.16400	33
1.16767	30
1.17133	31
1.17500	33
1.17867	35
1.18233	34
1.18600	31
1.18967	27
1.19333	22
1.19700	17
1.20067	15
1.20433	19
1.20800	24
1.21167	30
1.21533	35
1.21900	39
1.22267	43
1.22633	45
1.23000	44
1.23367	41
1.23733	38
1.24100	37
1.24467	38
1.24833	40
1.25200	42
1.25567	41
1.25933	40
1.26300	38
1.26667	36
1.27033	33
1.27400	33
1.27767	35
1.28133	40
1.28500	43
1.28867	43
1.29233	42
1.29600	39
1.29967	36
1.30333	33
1.30700	28
1.31067	23
1.31433	24
1.31800	30
1.32167	35
1.32533	39
1.32900	43
1.33267	49
1.33633	57
1.34000	65
1.34367	74
1.34733	80
1.35100	83
1.35467	78
1.35833	68
1.36200	55
1.36567	43
1.36933	36
1.37300	33
1.37667	37
1.38033	41
1.38400	43
1.38767	42
1.39133	43
1.39500	46
1.39867	52
1.40233	56
1.40600	57
1.40967	54
1.41333	49
1.41700	45
1.42067	43
1.42433	40
1.42800	36
1.43167	28
1.43533	19
1.43900	19
1.44267	75
1.44633	319
1.45000	789
1.45367	1304
1.45733	1751
1.46100	2208
1.46467	2771
1.46833	3421
1.47200	4055
1.47567	4553
1.47933	4810
1.48300	4760
1.48667	4396
1.49033	3796
1.49400	3092
1.49767	2409
1.50133	1825
1.50500	1364
1.50867	1021
1.51233	775
1.51600	600
1.51967	473
1.52333	382
1.52700	316
1.53067	265
1.53433	225
1.53800	195
1.54167	184
1.54533	232
1.54900	403
1.55267	728
1.55633	1159
1.56000	1600
1.56367	1978
1.56733	2258
1.57100	2408
1.57467	2397
1.57833	2208
1.58200	1878
1.58567	1489
1.58933	1122
1.59300	817
1.59667	582
1.60033	411
1.60400	295
1.60767	217
1.61133	165
1.61500	132
1.61867	110
1.62233	96
1.62600	88
1.62967	81
1.63333	77
1.63700	75
1.64067	72
1.64433	67
1.64800	62
1.65167	60
1.65533	61
1.65900	63
1.66267	64
1.66633	62
1.67000	61
1.67367	61
1.67733	63
1.68100	65
1.68467	68
1.68833	71
1.69200	71
1.69567	69
1.69933	66
1.70300	64
1.70667	66
1.71033	73
1.71400	79
1.71767	79
1.72133	75
1.72500	72
1.72867	70
1.73233	67
1.73600	62
1.73967	57
1.74333	55
1.74700	56
1.75067	58
1.75433	59
1.75800	58
1.76167	56
1.76533	61
1.76900	71
1.77267	79
1.77633	80
1.78000	70
1.78367	60
1.78733	58
1.79100	56
1.79467	53
1.79833	51
1.80200	52
1.80567	56
1.80933	62
1.81300	69
1.81667	73
1.82033	73
1.82400	73
1.82767	71
1.83133	71
1.83500	72
1.83867	73
1.84233	77
1.84600	82
1.84967	86
1.85333	85
1.85700	84
1.86067	86
1.86433	85
1.86800	82
1.87167	81
1.87533	82
1.87900	84
1.88267	86
1.88633	91
1.89000	93
1.89367	90
1.89733	86
1.90100	85
1.90467	84
1.90833	80
1.91200	80
1.91567	80
1.91933	79
1.92300	82
1.92667	88
1.93033	95
1.93400	99
1.93767	100
1.94133	99
1.94500	96
1.94867	91
1.95233	92
1.95600	104
1.95967	184
1.96333	646
1.96700	2830
1.97067	10870
1.97433	33880
1.97800	85779
1.98167	179280
1.98533	315226
1.98900	477259
1.99267	637431
1.99633	766181
2.00000	839926
2.00367	846928
2.00733	790194
2.01100	685972
2.01467	557972
2.01833	429174
2.02200	315608
2.02567	224512
2.02933	156251
2.03300	107493
2.03667	73780
2.04033	50944
2.04400	35652
2.04767	25446
2.05133	18613
2.05500	13997
2.05867	10837
2.06233	8635
2.06600	7064
2.06967	5918
2.07333	5062
2.07700	4406
2.08067	3894
2.08433	3484
2.08800	3145
2.09167	2862
2.09533	2623
2.09900	2425
2.10267	2260
2.10633	2120
2.11000	1994
2.11367	1878
2.11733	1771
2.12100	1673
2.12467	1580
2.12833	1494
2.13200	1416
2.13567	1351
2.13933	1297
2.14300	1250
2.14667	1203
2.15033	1157
2.15400	1110
2.15767	1067
2.16133	1030
2.16500	998
2.16867	970
2.17233	943
2.17600	917
2.17967	890
2.18333	868
2.18700	850
2.19067	833
2.19433	815
2.19800	796
2.20167	774
2.20533	750
2.20900	731
2.21267	718
2.21633	706
2.22000	691
2.22367	674
2.22733	659
2.23100	646
2.23467	635
2.23833	625
2.24200	617
2.24567	609
2.24933	601
2.25300	592
2.25667	582
2.26033	572
2.26400	561
2.26767	548
2.27133	538
2.27500	530
2.27867	523
2.28233	518
2.28600	516
2.28967	515
2.29333	512
2.29700	505
2.30067	501
2.30433	500
2.30800	500
2.31167	498
2.31533	494
2.31900	489
2.32267	482
2.32633	473
2.33000	463
2.33367	456
2.33733	453
2.34100	449
2.34467	444
2.34833	442
2.35200	446
2.35567	455
2.35933	465
2.36300	469
2.36667	465
2.37033	453
2.37400	440
2.37767	430
2.38133	422
2.38500	416
2.38867	412
2.39233	412
2.39600	413
2.39967	411
2.40333	410
2.40700	409
2.41067	409
2.41433	408
2.41800	406
2.42167	402
2.42533	396
2.42900	391
2.43267	388
2.43633	389
2.44000	392
2.44367	392
2.44733	390
2.45100	386
2.45467	380
2.45833	375
2.46200	370
2.46567	366
2.46933	364
2.47300	363
2.47667	360
2.48033	356
2.48400	354
2.48767	358
2.49133	364
2.49500	369
2.49867	370
2.50233	369
2.50600	370
2.50967	371
2.51333	370
2.51700	371
2.52067	374
2.52433	378
2.52800	379
2.53167	374
2.53533	365
2.53900	357
2.54267	352
2.54633	349
2.55000	348
2.55367	349
2.55733	351
2.56100	351
2.56467	351
2.56833	351
2.57200	352
2.57567	353
2.57933	354
2.58300	351
2.58667	351
2.59033	350
2.59400	347
2.59767	344
2.60133	340
2.60500	337
2.60867	337
2.61233	337
2.61600	339
2.61967	342
2.62333	345
2.62700	351
2.63067	355
2.63433	354
2.63800	350
2.64167	340
2.64533	328
2.64900	316
2.65267	309
2.65633	308
2.66000	315
2.66367	325
2.66733	334
2.67100	337
2.67467	332
2.67833	325
2.68200	318
2.68567	312
2.68933	306
2.69300	301
2.69667	299
2.70033	302
2.70400	308
2.70767	314
2.71133	319
2.71500	323
2.71867	324
2.72233	326
2.72600	327
2.72967	326
2.73333	324
2.73700	321
2.74067	320
2.74433	322
2.74800	324
2.75167	325
2.75533	323
2.75900	320
2.76267	319
2.76633	322
2.77000	323
2.77367	324
2.77733	323
2.78100	322
2.78467	317
2.78833	314
2.79200	311
2.79567	309
2.79933	309
2.80300	307
2.80667	304
2.81033	302
2.81400	303
2.81767	309
2.82133	315
2.82500	320
2.82867	321
2.83233	320
2.83600	320
2.83967	321
2.84333	327
2.84700	334
2.85067	339
2.85433	340
2.85800	338
2.86167	336
2.86533	338
2.86900	341
2.87267	342
2.87633	337
2.88000	329
2.88367	320
2.88733	315
2.89100	311
2.89467	308
2.89833	305
2.90200	303
2.90567	301
2.90933	303
2.91300	307
2.91667	312
2.92033	317
2.92400	321
2.92767	324
2.93133	323
2.93500	321
2.93867	319
2.94233	316
2.94600	315
2.94967	318
2.95333	322
2.95700	324
2.96067	324
2.96433	325
2.96800	325
2.97167	326
2.97533	324
2.97900	314
2.98267	304
2.98633	302
2.99000	308
2.99367	316
2.99733	322
3.00100	324
3.00467	325
3.00833	326
3.01200	326
3.01567	326
3.01933	325
3.02300	323
3.02667	319
3.03033	317
3.03400	315
3.03767	314
3.04133	317
3.04500	323
3.04867	328
3.05233	331
3.05600	332
3.05967	333
3.06333	329
3.06700	320
3.07067	310
3.07433	300
3.07800	294
3.08167	292
3.08533	293
3.08900	292
3.09267	289
3.09633	292
3.10000	298
3.10367	303
3.10733	307
3.11100	310
3.11467	312
3.11833	310
3.12200	305
3.12567	298
3.12933	294
3.13300	294
3.13667	299
3.14033	308
3.14400	319
3.14767	327
3.15133	332
3.15500	334
3.15867	332
3.16233	328
3.16600	324
3.16967	321
3.17333	320
3.17700	321
3.18067	319
3.18433	314
3.18800	308
3.19167	303
3.19533	299
3.19900	296
3.20267	295
3.20633	295
3.21000	293
3.21367	291
3.21733	289
3.22100	286
3.22467	285
3.22833	284
3.23200	284
3.23567	287
3.23933	295
3.24300	305
3.24667	313
3.25033	319
3.25400	320
3.25767	317
3.26133	311
3.26500	307
3.26867	305
3.27233	303
3.27600	302
3.27967	302
3.28333	305
3.28700	309
3.29067	312
3.29433	315
3.29800	315
3.30167	316
3.30533	319
3.30900	323
3.31267	322
3.31633	317
3.32000	314
3.32367	310
3.32733	306
3.33100	304
3.33467	304
3.33833	304
3.34200	302
3.34567	296
3.34933	289
3.35300	282
3.35667	278
3.36033	274
3.36400	271
3.36767	273
3.37133	283
3.37500	297
3.37867	310
3.38233	316
3.38600	317
3.38967	312
3.39333	303
3.39700	294
3.40067	288
3.40433	287
3.40800	292
3.41167	297
3.41533	298
3.41900	295
3.42267	291
3.42633	286
3.43000	281
3.43367	275
3.43733	271
3.44100	269
3.44467	270
3.44833	273
3.45200	276
3.45567	283
3.45933	290
3.46300	297
3.46667	303
3.47033	302
3.47400	296
3.47767	291
3.48133	289
3.48500	291
3.48867	293
3.49233	298
3.49600	305
3.49967	315
3.50333	320
3.50700	318
3.51067	310
3.51433	300
3.51800	293
3.52167	288
3.52533	279
3.52900	270
3.53267	265
3.53633	267
3.54000	269
3.54367	269
3.54733	269
3.55100	269
3.55467	270
3.55833	269
3.56200	268
3.56567	269
3.56933	274
3.57300	277
3.57667	279
3.58033	279
3.58400	281
3.58767	282
3.59133	279
3.59500	276
3.59867	275
3.60233	273
3.60600	272
3.60967	273
3.61333	276
3.61700	282
3.62067	288
3.62433	293
3.62800	292
3.63167	288
3.63533	285
3.63900	284
3.64267	284
3.64633	283
3.65000	283
3.65367	281
3.65733	277
3.66100	273
3.66467	270
3.66833	267
3.67200	265
3.67567	261
3.67933	260
3.68300	261
3.68667	264
3.69033	269
3.69400	273
3.69767	275
3.70133	273
3.70500	272
3.70867	270
3.71233	269
3.71600	270
3.71967	275
3.72333	280
3.72700	281
3.73067	277
3.73433	270
3.73800	267
3.74167	268
3.74533	265
3.74900	260
3.75267	255
3.75633	252
3.76000	252
3.76367	251
3.76733	252
3.77100	257
3.77467	265
3.77833	273
3.78200	276
3.78567	274
3.78933	270
3.79300	270
3.79667	271
3.80033	273
3.80400	272
3.80767	268
3.81133	264
3.81500	263
3.81867	263
3.82233	261
3.82600	258
3.82967	256
3.83333	258
3.83700	259
3.84067	259
3.84433	260
3.84800	261
3.85167	260
3.85533	259
3.85900	259
3.86267	261
3.86633	262
3.87000	263
3.87367	259
3.87733	251
3.88100	245
3.88467	241
3.88833	243
3.89200	247
3.89567	249
3.89933	252
3.90300	255
3.90667	257
3.91033	256
3.91400	253
3.91767	251
3.92133	252
3.92500	252
3.92867	255
3.93233	256
3.93600	255
3.93967	256
3.94333	254
3.94700	249
3.95067	243
3.95433	242
3.95800	244
3.96167	248
3.96533	248
3.96900	247
3.97267	248
3.97633	249
3.98000	251
3.98367	251
3.98733	246
3.99100	239
3.99467	237
3.99833	240

[Chromatogram (Ch2)]
Interval(msec)	220
# of Points	1091
Start Time(min)	0.002
End Time(min)	3.998
R.Time (min)	Intensity
0.00167	0
0.00533	0
0.00900	-0
0.01267	-1
0.01633	-1
0.02000	-1
0.02367	-1
0.02733	-1
0.03100	-0
0.03467	-0
0.03833	0
0.04200	1
0.04567	1
0.04933	1
0.05300	2
0.05667	2
0.06033	1
0.06400	1
0.06767	1
0.07133	1
0.07500	1
0.07867	2
0.08233	2
0.08600	2
0.08967	2
0.09333	2
0.09700	2
0.10067	2
0.10433	2
0.10800	2
0.11167	2
0.11533	2
0.11900	2
0.12267	3
0.12633	3
0.13000	3
0.13367	3
0.13733	3
0.14100	3
0.14467	3
0.14833	2
0.15200	2
0.15567	2
0.15933	2
0.16300	2
0.16667	2
0.17033	2
0.17400	2
0.17767	1
0.18133	1
0.18500	1
0.18867	1
0.19233	1
0.19600	1
0.19967	1
0.20333	1
0.20700	1
0.21067	1
0.21433	1
0.21800	0
0.22167	0
0.22533	-0
0.22900	-0
0.23267	-1
0.23633	-1
0.24000	-1
0.24367	-1
0.24733	-1
0.25100	-1
0.25467	-0
0.25833	0
0.26200	1
0.26567	2
0.26933	2
0.27300	2
0.27667	2
0.28033	2
0.28400	2
0.28767	2
0.29133	2
0.29500	2
0.29867	2
0.30233	3
0.30600	3
0.30967	3
0.31333	3
0.31700	3
0.32067	2
0.32433	2
0.32800	2
0.33167	1
0.33533	1
0.33900	0
0.34267	0
0.34633	-0
0.35000	-0
0.35367	-1
0.35733	-1
0.36100	-1
0.36467	-1
0.36833	-1
0.37200	-0
0.37567	-0
0.37933	0
0.38300	1
0.38667	1
0.39033	2
0.39400	2
0.39767	2
0.40133	2
0.40500	2
0.40867	2
0.41233	2
0.41600	3
0.41967	2
0.42333	2
0.42700	2
0.43067	2
0.43433	2
0.43800	3
0.44167	3
0.44533	3
0.44900	3
0.45267	3
0.45633	3
0.46000	3
0.46367	3
0.46733	3
0.47100	3
0.47467	3
0.47833	3
0.48200	3
0.48567	3
0.48933	2
0.49300	2
0.49667	2
0.50033	2
0.50400	2
0.50767	2
0.51133	2
0.51500	2
0.51867	2
0.52233	2
0.52600	2
0.52967	2
0.53333	3
0.53700	3
0.54067	3
0.54433	2
0.54800	2
0.55167	2
0.55533	2
0.55900	2
0.56267	2
0.56633	2
0.57000	2
0.57367	2
0.57733	1
0.58100	1
0.58467	1
0.58833	1
0.59200	0
0.59567	0
0.59933	0
0.60300	0
0.60667	0
0.61033	0
0.61400	0
0.61767	0
0.62133	0
0.62500	0
0.62867	1
0.63233	1
0.63600	1
0.63967	1
0.64333	2
0.64700	2
0.65067	2
0.65433	2
0.65800	1
0.66167	1
0.66533	1
0.66900	1
0.67267	1
0.67633	1
0.68000	1
0.68367	1
0.68733	1
0.69100	1
0.69467	1
0.69833	1
0.70200	1
0.70567	1
0.70933	0
0.71300	0
0.71667	0
0.72033	0
0.72400	0
0.72767	0
0.73133	0
0.73500	0
0.73867	0
0.74233	0
0.74600	0
0.74967	0
0.75333	0
0.75700	1
0.76067	1
0.76433	1
0.76800	1
0.77167	2
0.77533	2
0.77900	2
0.78267	2
0.78633	2
0.79000	2
0.79367	1
0.79733	1
0.80100	1
0.80467	1
0.80833	0
0.81200	0
0.81567	0
0.81933	0
0.82300	0
0.82667	1
0.83033	1
0.83400	1
0.83767	1
0.84133	2
0.84500	2
0.84867	2
0.85233	2
0.85600	2
0.85967	2
0.86333	2
0.86700	2
0.87067	2
0.87433	2
0.87800	2
0.88167	2
0.88533	2
0.88900	2
0.89267	2
0.89633	2
0.90000	2
0.90367	2
0.90733	2
0.91100	3
0.91467	3
0.91833	3
0.92200	3
0.92567	3
0.92933	3
0.93300	3
0.93667	3
0.94033	3
0.94400	3
0.94767	3
0.95133	3
0.95500	3
0.95867	3
0.96233	3
0.96600	2
0.96967	2
0.97333	2
0.97700	2
0.98067	2
0.98433	2
0.98800	1
0.99167	1
0.99533	1
0.99900	1
1.00267	0
1.00633	0
1.01000	-0
1.01367	-0
1.01733	-0
1.02100	-1
1.02467	-1
1.02833	-2
1.03200	-2
1.03567	-2
1.03933	-2
1.04300	-2
1.04667	-2
1.05033	-2
1.05400	-2
1.05767	-3
1.06133	-3
1.06500	-3
1.06867	-3
1.07233	-3
1.07600	-3
1.07967	-3
1.08333	-3
1.08700	-3
1.09067	-2
1.09433	-2
1.09800	-2
1.10167	-2
1.10533	-2
1.10900	-2
1.11267	-2
1.11633	-2
1.12000	-1
1.12367	-1
1.12733	-1
1.13100	-1
1.13467	-1
1.13833	-1
1.14200	-1
1.14567	-1
1.14933	-1
1.15300	-1
1.15667	-1
1.16033	-0
1.16400	-0
1.16767	0
1.17133	0
1.17500	0
1.17867	1
1.18233	1
1.18600	1
1.18967	1
1.19333	1
1.19700	1
1.20067	1
1.20433	2
1.20800	2
1.21167	2
1.21533	2
1.21900	1
1.22267	1
1.22633	1
1.23000	1
1.23367	0
1.23733	0
1.24100	-0
1.24467	-0
1.24833	-1
1.25200	-1
1.25567	-1
1.25933	-1
1.26300	-1
1.26667	-1
1.27033	-1
1.27400	-1
1.27767	-1
1.28133	-1
1.28500	-1
1.28867	-0
1.29233	0
1.29600	1
1.29967	1
1.30333	1
1.30700	1
1.31067	2
1.31433	2
1.31800	2
1.32167	2
1.32533	3
1.32900	3
1.33267	3
1.33633	4
1.34000	4
1.34367	5
1.34733	5
1.35100	6
1.35467	6
1.35833	6
1.36200	6
1.36567	6
1.36933	6
1.37300	6
1.37667	6
1.38033	6
1.38400	6
1.38767	6
1.39133	6
1.39500	6
1.39867	6
1.40233	6
1.40600	5
1.40967	5
1.41333	5
1.41700	5
1.42067	5
1.42433	5
1.42800	5
1.43167	6
1.43533	6
1.43900	6
1.44267	5
1.44633	5
1.45000	5
1.45367	5
1.45733	5
1.46100	5
1.46467	5
1.46833	4
1.47200	4
1.47567	4
1.47933	3
1.48300	3
1.48667	3
1.49033	2
1.49400	2
1.49767	2
1.50133	1
1.50500	1
1.50867	1
1.51233	1
1.51600	1
1.51967	0
1.52333	-0
1.52700	-1
1.53067	-1
1.53433	-2
1.53800	-3
1.54167	-3
1.54533	-3
1.54900	-3
1.55267	-3
1.55633	-4
1.56000	-4
1.56367	-3
1.56733	-3
1.57100	-3
1.57467	-3
1.57833	-2
1.58200	-2
1.58567	-1
1.58933	-1
1.59300	-0
1.59667	0
1.60033	-0
1.60400	-1
1.60767	-2
1.61133	-4
1.61500	-5
1.61867	-7
1.62233	-9
1.62600	-11
1.62967	-14
1.63333	-16
1.63700	-19
1.64067	-22
1.64433	-26
1.64800	-29
1.65167	-33
1.65533	-36
1.65900	-40
1.66267	-45
1.66633	-50
1.67000	-55
1.67367	-61
1.67733	-67
1.68100	-73
1.68467	-77
1.68833	-82
1.69200	-86
1.69567	-89
1.69933	-93
1.70300	-95
1.70667	-97
1.71033	-99
1.71400	-101
1.71767	-103
1.72133	-104
1.72500	-106
1.72867	-108
1.73233	-109
1.73600	-110
1.73967	-111
1.74333	-111
1.74700	-111
1.75067	-111
1.75433	-111
1.75800	-111
1.76167	-111
1.76533	-111
1.76900	-111
1.77267	-112
1.77633	-113
1.78000	-114
1.78367	-115
1.78733	-116
1.79100	-117
1.79467	-118
1.79833	-118
1.80200	-119
1.80567	-119
1.80933	-119
1.81300	-119
1.81667	-118
1.82033	-117
1.82400	-117
1.82767	-117
1.83133	-117
1.83500	-117
1.83867	-118
1.84233	-118
1.84600	-119
1.84967	-119
1.85333	-119
1.85700	-119
1.86067	-119
1.86433	-119
1.86800	-119
1.87167	-118
1.87533	-118
1.87900	-119
1.88267	-119
1.88633	-119
1.89000	-120
1.89367	-120
1.89733	-120
1.90100	-119
1.90467	-119
1.90833	-118
1.91200	-118
1.91567	-117
1.91933	-116
1.92300	-115
1.92667	-114
1.93033	-114
1.93400	-114
1.93767	-113
1.94133	-113
1.94500	-113
1.94867	-113
1.95233	-113
1.95600	-113
1.95967	-113
1.96333	-113
1.96700	-113
1.97067	-113
1.97433	-113
1.97800	-112
1.98167	-112
1.98533	-112
1.98900	-112
1.99267	-112
1.99633	-112
2.00000	-113
2.00367	-113
2.00733	-113
2.01100	-112
2.01467	-111
2.01833	-110
2.02200	-110
2.02567	-109
2.02933	-108
2.03300	-108
2.03667	-108
2.04033	-107
2.04400	-107
2.04767	-107
2.05133	-107
2.05500	-106
2.05867	-106
2.06233	-106
2.06600	-106
2.06967	-105
2.07333	-105
2.07700	-105
2.08067	-104
2.08433	-103
2.08800	-103
2.09167	-102
2.09533	-102
2.09900	-102
2.10267	-101
2.10633	-101
2.11000	-100
2.11367	-100
2.11733	-99
2.12100	-99
2.12467	-99
2.12833	-98
2.13200	-98
2.13567	-97
2.13933	-97
2.14300	-97
2.14667	-96
2.15033	-97
2.15400	-97
2.15767	-97
2.16133	-97
2.16500	-97
2.16867	-97
2.17233	-97
2.17600	-97
2.17967	-97
2.18333	-96
2.18700	-96
2.19067	-96
2.19433	-96
2.19800	-96
2.20167	-95
2.20533	-94
2.20900	-94
2.21267	-93
2.21633	-92
2.22000	-92
2.22367	-91
2.22733	-91
2.23100	-90
2.23467	-90
2.23833	-89
2.24200	-89
2.24567	-88
2.24933	-87
2.25300	-87
2.25667	-87
2.26033	-87
2.26400	-87
2.26767	-87
2.27133	-87
2.27500	-87
2.27867	-87
2.28233	-86
2.28600	-85
2.28967	-84
2.29333	-84
2.29700	-84
2.30067	-83
2.30433	-82
2.30800	-82
2.31167	-81
2.31533	-81
2.31900	-81
2.32267	-81
2.32633	-81
2.33000	-81
2.33367	-81
2.33733	-81
2.34100	-81
2.34467	-81
2.34833	-81
2.35200	-81
2.35567	-80
2.35933	-80
2.36300	-79
2.36667	-78
2.37033	-76
2.37400	-74
2.37767	-71
2.38133	-68
2.38500	-65
2.38867	-61
2.39233	-56
2.39600	-51
2.39967	-47
2.40333	-42
2.40700	-37
2.41067	-33
2.41433	-29
2.41800	-26
2.42167	-22
2.42533	-19
2.42900	-17
2.43267	-14
2.43633	-12
2.44000	-9
2.44367	-7
2.44733	-5
2.45100	-4
2.45467	-2
2.45833	-0
2.46200	1
2.46567	2
2.46933	3
2.47300	4
2.47667	5
2.48033	6
2.48400	7
2.48767	8
2.49133	9
2.49500	11
2.49867	12
2.50233	12
2.50600	13
2.50967	12
2.51333	12
2.51700	12
2.52067	12
2.52433	13
2.52800	13
2.53167	14
2.53533	15
2.53900	15
2.54267	16
2.54633	17
2.55000	17
2.55367	18
2.55733	19
2.56100	20
2.56467	20
2.56833	20
2.57200	20
2.57567	19
2.57933	19
2.58300	19
2.58667	18
2.59033	18
2.59400	19
2.59767	19
2.60133	20
2.60500	20
2.60867	21
2.61233	21
2.61600	22
2.61967	22
2.62333	22
2.62700	22
2.63067	22
2.63433	23
2.63800	23
2.64167	24
2.64533	24
2.64900	24
2.65267	25
2.65633	25
2.66000	25
2.66367	25
2.66733	25
2.67100	25
2.67467	25
2.67833	25
2.68200	26
2.68567	26
2.68933	27
2.69300	27
2.69667	27
2.70033	27
2.70400	27
2.70767	27
2.71133	27
2.71500	28
2.71867	28
2.72233	28
2.72600	28
2.72967	27
2.73333	27
2.73700	27
2.74067	27
2.74433	27
2.74800	27
2.75167	28
2.75533	28
2.75900	28
2.76267	29
2.76633	29
2.77000	29
2.77367	30
2.77733	30
2.78100	31
2.78467	31
2.78833	32
2.79200	32
2.79567	32
2.79933	33
2.80300	33
2.80667	33
2.81033	33
2.81400	33
2.81767	33
2.82133	32
2.82500	32
2.82867	31
2.83233	31
2.83600	30
2.83967	30
2.84333	29
2.84700	29
2.85067	28
2.85433	27
2.85800	24
2.86167	19
2.86533	12
2.86900	2
2.87267	-11
2.87633	-28
2.88000	-49
2.88367	-74
2.88733	-102
2.89100	-135
2.89467	-171
2.89833	-210
2.90200	-252
2.90567	-297
2.90933	-343
2.91300	-391
2.91667	-440
2.92033	-490
2.92400	-540
2.92767	-589
2.93133	-639
2.93500	-689
2.93867	-737
2.94233	-786
2.94600	-837
2.94967	-894
2.95333	-955
2.95700	-1013
2.96067	-1057
2.96433	-1077
2.96800	-1071
2.97167	-1040
2.97533	-989
2.97900	-923
2.98267	-848
2.98633	-769
2.99000	-690
2.99367	-613
2.99733	-540
3.00100	-472
3.00467	-410
3.00833	-354
3.01200	-304
3.01567	-260
3.01933	-221
3.02300	-188
3.02667	-158
3.03033	-133
3.03400	-111
3.03767	-92
3.04133	-76
3.04500	-62
3.04867	-51
3.05233	-41
3.05600	-32
3.05967	-25
3.06333	-19
3.06700	-14
3.07067	-9
3.07433	-5
3.07800	-2
3.08167	1
3.08533	4
3.08900	6
3.09267	8
3.09633	10
3.10000	11
3.10367	12
3.10733	13
3.11100	14
3.11467	15
3.11833	16
3.12200	16
3.12567	17
3.12933	18
3.13300	18
3.13667	19
3.14033	20
3.14400	20
3.14767	21
3.15133	21
3.15500	21
3.15867	21
3.16233	22
3.16600	22
3.16967	22
3.17333	23
3.17700	23
3.18067	23
3.18433	23
3.18800	23
3.19167	23
3.19533	23
3.19900	23
3.20267	23
3.20633	23
3.21000	24
3.21367	24
3.21733	24
3.22100	25
3.22467	25
3.22833	25
3.23200	25
3.23567	26
3.23933	26
3.24300	26
3.24667	27
3.25033	27
3.25400	27
3.25767	27
3.26133	27
3.26500	27
3.26867	27
3.27233	27
3.27600	27
3.27967	27
3.28333	27
3.28700	27
3.29067	27
3.29433	27
3.29800	27
3.30167	27
3.30533	27
3.30900	27
3.31267	28
3.31633	28
3.32000	28
3.32367	28
3.32733	28
3.33100	28
3.33467	29
3.33833	29
3.34200	29
3.34567	30
3.34933	30
3.35300	31
3.35667	31
3.36033	32
3.36400	32
3.36767	32
3.37133	32
3.37500	32
3.37867	32
3.38233	33
3.38600	33
3.38967	33
3.39333	33
3.39700	33
3.40067	33
3.40433	33
3.40800	33
3.41167	33
3.41533	33
3.41900	33
3.42267	33
3.42633	33
3.43000	33
3.43367	33
3.43733	33
3.44100	33
3.44467	33
3.44833	33
3.45200	33
3.45567	33
3.45933	33
3.46300	33
3.46667	34
3.47033	34
3.47400	33
3.47767	33
3.48133	33
3.48500	33
3.48867	33
3.49233	33
3.49600	33
3.49967	33
3.50333	33
3.50700	33
3.51067	33
3.51433	33
3.51800	33
3.52167	32
3.52533	32
3.52900	32
3.53267	32
3.53633	32
3.54000	32
3.54367	33
3.54733	33
3.55100	33
3.55467	33
3.55833	33
3.56200	33
3.56567	33
3.56933	33
3.57300	33
3.57667	33
3.58033	33
3.58400	33
3.58767	33
3.59133	33
3.59500	32
3.59867	32
3.60233	32
3.60600	32
3.60967	32
3.61333	32
3.61700	32
3.62067	32
3.62433	32
3.62800	32
3.63167	32
3.63533	32
3.63900	32
3.64267	32
3.64633	32
3.65000	32
3.65367	32
3.65733	32
3.66100	32
3.66467	32
3.66833	31
3.67200	31
3.67567	31
3.67933	31
3.68300	31
3.68667	31
3.69033	31
3.69400	31
3.69767	31
3.70133	31
3.70500	32
3.70867	32
3.71233	32
3.71600	32
3.71967	33
3.72333	33
3.72700	33
3.73067	33
3.73433	33
3.73800	33
3.74167	34
3.74533	34
3.74900	34
3.75267	34
3.75633	34
3.76000	34
3.76367	34
3.76733	34
3.77100	34
3.77467	33
3.77833	33
3.78200	33
3.78567	33
3.78933	33
3.79300	33
3.79667	33
3.80033	33
3.80400	33
3.80767	33
3.81133	32
3.81500	32
3.81867	32
3.82233	32
3.82600	32
3.82967	32
3.83333	32
3.83700	32
3.84067	33
3.84433	33
3.84800	33
3.85167	33
3.85533	33
3.85900	33
3.86267	33
3.86633	33
3.87000	33
3.87367	33
3.87733	33
3.88100	33
3.88467	33
3.88833	32
3.89200	32
3.89567	32
3.89933	32
3.90300	32
3.90667	32
3.91033	32
3.91400	31
3.91767	31
3.92133	31
3.92500	31
3.92867	31
3.93233	30
3.93600	31
3.93967	31
3.94333	31
3.94700	31
3.95067	31
3.95433	31
3.95800	31
3.96167	31
3.96533	31
3.96900	31
3.97267	31
3.97633	31
3.98000	32
3.98367	32
3.98733	32
3.99100	32
3.99467	32
3.99833	32

[Chromatogram (Ch3)]
Interval(msec)	220
# of Points	1091
Start Time(min)	0.002
End Time(min)	3.998
R.Time (min)	Intensity
0.00167	-0
0.00533	-0
0.00900	-1
0.01267	-3
0.01633	-7
0.02000	-6
0.02367	-3
0.02733	-1
0.03100	-0
0.03467	-0
0.03833	1
0.04200	2
0.04567	3
0.04933	3
0.05300	3
0.05667	3
0.06033	2
0.06400	0
0.06767	-0
0.07133	-0
0.07500	-1
0.07867	-0
0.08233	-0
0.08600	-2
0.08967	-5
0.09333	-7
0.09700	-8
0.10067	-7
0.10433	-5
0.10800	-4
0.11167	-3
0.11533	-1
0.11900	-1
0.12267	-1
0.12633	0
0.13000	-1
0.13367	-1
0.13733	-2
0.14100	-1
0.14467	1
0.14833	1
0.15200	1
0.15567	3
0.15933	5
0.16300	4
0.16667	4
0.17033	2
0.17400	-1
0.17767	-2
0.18133	-2
0.18500	-1
0.18867	-1
0.19233	-4
0.19600	-7
0.19967	-7
0.20333	-5
0.20700	-2
0.21067	-1
0.21433	-2
0.21800	-4
0.22167	-6
0.22533	-8
0.22900	-7
0.23267	-5
0.23633	-5
0.24000	-6
0.24367	-6
0.24733	-8
0.25100	-8
0.25467	-5
0.25833	-2
0.26200	1
0.26567	2
0.26933	1
0.27300	-2
0.27667	-4
0.28033	-3
0.28400	-0
0.28767	1
0.29133	-1
0.29500	-2
0.29867	-4
0.30233	-6
0.30600	-8
0.30967	-7
0.31333	-6
0.31700	-2
0.32067	-2
0.32433	-6
0.32800	-6
0.33167	-6
0.33533	-4
0.33900	-3
0.34267	-3
0.34633	-4
0.35000	-3
0.35367	-5
0.35733	-6
0.36100	-4
0.36467	-2
0.36833	-0
0.37200	2
0.37567	2
0.37933	2
0.38300	3
0.38667	2
0.39033	-1
0.39400	-4
0.39767	-5
0.40133	-6
0.40500	-4
0.40867	-5
0.41233	-9
0.41600	-10
0.41967	-9
0.42333	-8
0.42700	-8
0.43067	-9
0.43433	-9
0.43800	-9
0.44167	-10
0.44533	-8
0.44900	-5
0.45267	-5
0.45633	-4
0.46000	-5
0.46367	-6
0.46733	-7
0.47100	-7
0.47467	-8
0.47833	-10
0.48200	-12
0.48567	-11
0.48933	-8
0.49300	-6
0.49667	-5
0.50033	-5
0.50400	-5
0.50767	-6
0.51133	-8
0.51500	-10
0.51867	-9
0.52233	-7
0.52600	-4
0.52967	-3
0.53333	-4
0.53700	-6
0.54067	-7
0.54433	-8
0.54800	-10
0.55167	-14
0.55533	-13
0.55900	-14
0.56267	-14
0.56633	-13
0.57000	-14
0.57367	-16
0.57733	-16
0.58100	-14
0.58467	-10
0.58833	-7
0.59200	-8
0.59567	-10
0.59933	-10
0.60300	-9
0.60667	-11
0.61033	-12
0.61400	-12
0.61767	-11
0.62133	-9
0.62500	-6
0.62867	-6
0.63233	-7
0.63600	-8
0.63967	-8
0.64333	-9
0.64700	-10
0.65067	-10
0.65433	-11
0.65800	-12
0.66167	-12
0.66533	-12
0.66900	-12
0.67267	-12
0.67633	-10
0.68000	-8
0.68367	-11
0.68733	-13
0.69100	-16
0.69467	-16
0.69833	-14
0.70200	-14
0.70567	-14
0.70933	-13
0.71300	-12
0.71667	-13
0.72033	-14
0.72400	-15
0.72767	-16
0.73133	-15
0.73500	-13
0.73867	-12
0.74233	-11
0.74600	-10
0.74967	-11
0.75333	-12
0.75700	-12
0.76067	-11
0.76433	-10
0.76800	-10
0.77167	-10
0.77533	-11
0.77900	-10
0.78267	-10
0.78633	-12
0.79000	-13
0.79367	-14
0.79733	-15
0.80100	-15
0.80467	-14
0.80833	-14
0.81200	-15
0.81567	-13
0.81933	-10
0.82300	-8
0.82667	-7
0.83033	-8
0.83400	-9
0.83767	-12
0.84133	-13
0.84500	-14
0.84867	-13
0.85233	-12
0.85600	-12
0.85967	-12
0.86333	-11
0.86700	-10
0.87067	-12
0.87433	-11
0.87800	-8
0.88167	-7
0.88533	-9
0.88900	-9
0.89267	-12
0.89633	-14
0.90000	-15
0.90367	-13
0.90733	-12
0.91100	-14
0.91467	-15
0.91833	-14
0.92200	-15
0.92567	-19
0.92933	-21
0.93300	-20
0.93667	-18
0.94033	-17
0.94400	-16
0.94767	-13
0.95133	-12
0.95500	-10
0.95867	-10
0.96233	-11
0.96600	-12
0.96967	-12
0.97333	-11
0.97700	-9
0.98067	-8
0.98433	-7
0.98800	-7
0.99167	-8
0.99533	-10
0.99900	-12
1.00267	-12
1.00633	-11
1.01000	-11
1.01367	-13
1.01733	-13
1.02100	-13
1.02467	-11
1.02833	-9
1.03200	-9
1.03567	-8
1.03933	-8
1.04300	-10
1.04667	-12
1.05033	-14
1.05400	-14
1.05767	-13
1.06133	-15
1.06500	-14
1.06867	-14
1.07233	-12
1.07600	-10
1.07967	-11
1.08333	-12
1.08700	-11
1.09067	-10
1.09433	-10
1.09800	-12
1.10167	-15
1.10533	-18
1.10900	-18
1.11267	-19
1.11633	-17
1.12000	-15
1.12367	-12
1.12733	-12
1.13100	-12
1.13467	-14
1.13833	-13
1.14200	-14
1.14567	-16
1.14933	-17
1.15300	-19
1.15667	-20
1.16033	-20
1.16400	-20
1.16767	-19
1.17133	-17
1.17500	-16
1.17867	-16
1.18233	-15
1.18600	-15
1.18967	-14
1.19333	-14
1.19700	-15
1.20067	-16
1.20433	-17
1.20800	-18
1.21167	-18
1.21533	-19
1.21900	-20
1.22267	-18
1.22633	-15
1.23000	-15
1.23367	-15
1.23733	-17
1.24100	-17
1.24467	-15
1.24833	-13
1.25200	-11
1.25567	-11
1.25933	-11
1.26300	-12
1.26667	-13
1.27033	-14
1.27400	-14
1.27767	-14
1.28133	-15
1.28500	-14
1.28867	-16
1.29233	-18
1.29600	-17
1.29967	-18
1.30333	-20
1.30700	-19
1.31067	-17
1.31433	-17
1.31800	-16
1.32167	-16
1.32533	-17
1.32900	-20
1.33267	-20
1.33633	-20
1.34000	-19
1.34367	-18
1.34733	-17
1.35100	-17
1.35467	-16
1.35833	-16
1.36200	-19
1.36567	-19
1.36933	-17
1.37300	-13
1.37667	-12
1.38033	-12
1.38400	-13
1.38767	-15
1.39133	-16
1.39500	-15
1.39867	-19
1.40233	-21
1.40600	-22
1.40967	-23
1.41333	-24
1.41700	-27
1.42067	-28
1.42433	-27
1.42800	-23
1.43167	-21
1.43533	-19
1.43900	-17
1.44267	-15
1.44633	-14
1.45000	-15
1.45367	-16
1.45733	-18
1.46100	-19
1.46467	-18
1.46833	-18
1.47200	-19
1.47567	-20
1.47933	-18
1.48300	-19
1.48667	-19
1.49033	-19
1.49400	-19
1.49767	-19
1.50133	-17
1.50500	-17
1.50867	-18
1.51233	-19
1.51600	-21
1.51967	-21
1.52333	-21
1.52700	-22
1.53067	-20
1.53433	-17
1.53800	-18
1.54167	-18
1.54533	-16
1.54900	-15
1.55267	-17
1.55633	-20
1.56000	-21
1.56367	-22
1.56733	-21
1.57100	-19
1.57467	-20
1.57833	-18
1.58200	-18
1.58567	-17
1.58933	-16
1.59300	-15
1.59667	-16
1.60033	-16
1.60400	-16
1.60767	-15
1.61133	-13
1.61500	-13
1.61867	-13
1.62233	-13
1.62600	-13
1.62967	-14
1.63333	-15
1.63700	-16
1.64067	-15
1.64433	-13
1.64800	-10
1.65167	-6
1.65533	-5
1.65900	-6
1.66267	-3
1.66633	-1
1.67000	-0
1.67367	-1
1.67733	-1
1.68100	1
1.68467	1
1.68833	1
1.69200	1
1.69567	3
1.69933	5
1.70300	7
1.70667	5
1.71033	4
1.71400	2
1.71767	1
1.72133	4
1.72500	6
1.72867	7
1.73233	8
1.73600	9
1.73967	10
1.74333	10
1.74700	9
1.75067	10
1.75433	11
1.75800	12
1.76167	12
1.76533	11
1.76900	13
1.77267	12
1.77633	11
1.78000	11
1.78367	12
1.78733	11
1.79100	10
1.79467	12
1.79833	13
1.80200	14
1.80567	13
1.80933	12
1.81300	15
1.81667	17
1.82033	18
1.82400	17
1.82767	17
1.83133	16
1.83500	15
1.83867	16
1.84233	19
1.84600	20
1.84967	19
1.85333	19
1.85700	20
1.86067	19
1.86433	18
1.86800	16
1.87167	16
1.87533	19
1.87900	24
1.88267	25
1.88633	26
1.89000	26
1.89367	26
1.89733	26
1.90100	24
1.90467	22
1.90833	20
1.91200	21
1.91567	21
1.91933	21
1.92300	21
1.92667	21
1.93033	23
1.93400	25
1.93767	28
1.94133	29
1.94500	32
1.94867	34
1.95233	35
1.95600	36
1.95967	36
1.96333	36
1.96700	37
1.97067	38
1.97433	37
1.97800	36
1.98167	35
1.98533	35
1.98900	35
1.99267	36
1.99633	37
2.00000	39
2.00367	42
2.00733	43
2.01100	43
2.01467	45
2.01833	46
2.02200	48
2.02567	49
2.02933	48
2.03300	47
2.03667	43
2.04033	45
2.04400	49
2.04767	50
2.05133	50
2.05500	53
2.05867	56
2.06233	58
2.06600	59
2.06967	59
2.07333	58
2.07700	59
2.08067	60
2.08433	60
2.08800	62
2.09167	65
2.09533	66
2.09900	66
2.10267	68
2.10633	70
2.11000	71
2.11367	72
2.11733	73
2.12100	73
2.12467	74
2.12833	74
2.13200	73
2.13567	73
2.13933	73
2.14300	74
2.14667	77
2.15033	81
2.15400	83
2.15767	85
2.16133	87
2.16500	88
2.16867	90
2.17233	92
2.17600	95
2.17967	96
2.18333	97
2.18700	96
2.19067	97
2.19433	100
2.19800	103
2.20167	104
2.20533	104
2.20900	104
2.21267	105
2.21633	106
2.22000	106
2.22367	106
2.22733	106
2.23100	109
2.23467	109
2.23833	106
2.24200	106
2.24567	109
2.24933	110
2.25300	112
2.25667	112
2.26033	112
2.26400	114
2.26767	113
2.27133	113
2.27500	113
2.27867	115
2.28233	117
2.28600	120
2.28967	123
2.29333	127
2.29700	127
2.30067	127
2.30433	129
2.30800	129
2.31167	132
2.31533	135
2.31900	135
2.32267	136
2.32633	137
2.33000	136
2.33367	135
2.33733	136
2.34100	138
2.34467	141
2.34833	144
2.35200	146
2.35567	147
2.35933	149
2.36300	150
2.36667	151
2.37033	155
2.37400	157
2.37767	159
2.38133	160
2.38500	158
2.38867	155
2.39233	154
2.39600	157
2.39967	160
2.40333	162
2.40700	165
2.41067	169
2.41433	173
2.41800	177
2.42167	178
2.42533	178
2.42900	176
2.43267	175
2.43633	176
2.44000	178
2.44367	183
2.44733	199
2.45100	212
2.45467	217
2.45833	214
2.46200	204
2.46567	191
2.46933	181
2.47300	173
2.47667	163
2.48033	157
2.48400	151
2.48767	142
2.49133	134
2.49500	128
2.49867	122
2.50233	117
2.50600	116
2.50967	116
2.51333	119
2.51700	123
2.52067	125
2.52433	126
2.52800	126
2.53167	123
2.53533	119
2.53900	117
2.54267	114
2.54633	109
2.55000	105
2.55367	102
2.55733	101
2.56100	101
2.56467	103
2.56833	104
2.57200	103
2.57567	104
2.57933	101
2.58300	98
2.58667	98
2.59033	100
2.59400	101
2.59767	103
2.60133	106
2.60500	107
2.60867	103
2.61233	94
2.61600	76
2.61967	50
2.62333	17
2.62700	-18
2.63067	-54
2.63433	-88
2.63800	-118
2.64167	-141
2.64533	-160
2.64900	-175
2.65267	-184
2.65633	-188
2.66000	-189
2.66367	-187
2.66733	-183
2.67100	-178
2.67467	-169
2.67833	-158
2.68200	-145
2.68567	-133
2.68933	-124
2.69300	-114
2.69667	-102
2.70033	-90
2.70400	-80
2.70767	-72
2.71133	-66
2.71500	-57
2.71867	-47
2.72233	-37
2.72600	-28
2.72967	-18
2.73333	-8
2.73700	-1
2.74067	2
2.74433	8
2.74800	14
2.75167	18
2.75533	22
2.75900	27
2.76267	30
2.76633	35
2.77000	40
2.77367	46
2.77733	51
2.78100	56
2.78467	58
2.78833	61
2.79200	61
2.79567	62
2.79933	63
2.80300	67
2.80667	70
2.81033	71
2.81400	76
2.81767	80
2.82133	83
2.82500	87
2.82867	93
2.83233	109
2.83600	144
2.83967	213
2.84333	338
2.84700	538
2.85067	836
2.85433	1243
2.85800	1749
2.86167	2333
2.86533	2957
2.86900	3574
2.87267	4131
2.87633	4580
2.88000	4891
2.88367	5052
2.88733	5062
2.89100	4937
2.89467	4711
2.89833	4413
2.90200	4072
2.90567	3711
2.90933	3345
2.91300	2993
2.91667	2660
2.92033	2352
2.92400	2072
2.92767	1822
2.93133	1598
2.93500	1400
2.93867	1227
2.94233	1078
2.94600	947
2.94967	829
2.95333	727
2.95700	640
2.96067	565
2.96433	501
2.96800	447
2.97167	399
2.97533	357
2.97900	322
2.98267	293
2.98633	268
2.99000	246
2.99367	227
2.99733	211
3.00100	197
3.00467	184
3.00833	174
3.01200	167
3.01567	160
3.01933	153
3.02300	148
3.02667	142
3.03033	135
3.03400	128
3.03767	122
3.04133	121
3.04500	119
3.04867	115
3.05233	111
3.05600	108
3.05967	107
3.06333	109
3.06700	111
3.07067	111
3.07433	108
3.07800	105
3.08167	102
3.08533	101
3.08900	99
3.09267	98
3.09633	95
3.10000	94
3.10367	95
3.10733	98
3.11100	100
3.11467	100
3.11833	101
3.12200	99
3.12567	99
3.12933	96
3.13300	92
3.13667	91
3.14033	89
3.14400	88
3.14767	86
3.15133	86
3.15500	85
3.15867	83
3.16233	84
3.16600	84
3.16967	82
3.17333	80
3.17700	78
3.18067	78
3.18433	79
3.18800	79
3.19167	79
3.19533	82
3.19900	81
3.20267	78
3.20633	76
3.21000	76
3.21367	77
3.21733	77
3.22100	78
3.22467	78
3.22833	78
3.23200	79
3.23567	81
3.23933	83
3.24300	80
3.24667	77
3.25033	75
3.25400	74
3.25767	76
3.26133	77
3.26500	76
3.26867	75
3.27233	72
3.27600	69
3.27967	69
3.28333	69
3.28700	70
3.29067	70
3.29433	69
3.29800	67
3.30167	67
3.30533	68
3.30900	67
3.31267	65
3.31633	63
3.32000	63
3.32367	62
3.32733	59
3.33100	57
3.33467	53
3.33833	49
3.34200	44
3.34567	42
3.34933	42
3.35300	39
3.35667	40
3.36033	39
3.36400	40
3.36767	40
3.37133	39
3.37500	36
3.37867	32
3.38233	29
3.38600	27
3.38967	26
3.39333	23
3.39700	19
3.40067	17
3.40433	16
3.40800	13
3.41167	9
3.41533	9
3.41900	8
3.42267	6
3.42633	4
3.43000	2
3.43367	-1
3.43733	-3
3.44100	-6
3.44467	-8
3.44833	-8
3.45200	-10
3.45567	-11
3.45933	-13
3.46300	-14
3.46667	-17
3.47033	-18
3.47400	-21
3.47767	-23
3.48133	-25
3.48500	-25
3.48867	-24
3.49233	-27
3.49600	-32
3.49967	-33
3.50333	-33
3.50700	-36
3.51067	-41
3.51433	-45
3.51800	-47
3.52167	-50
3.52533	-49
3.52900	-48
3.53267	-51
3.53633	-53
3.54000	-56
3.54367	-57
3.54733	-57
3.55100	-60
3.55467	-64
3.55833	-65
3.56200	-66
3.56567	-65
3.56933	-64
3.57300	-63
3.57667	-64
3.58033	-65
3.58400	-65
3.58767	-66
3.59133	-67
3.59500	-67
3.59867	-67
3.60233	-67
3.60600	-69
3.60967	-72
3.61333	-75
3.61700	-77
3.62067	-78
3.62433	-80
3.62800	-82
3.63167	-82
3.63533	-81
3.63900	-79
3.64267	-79
3.64633	-80
3.65000	-81
3.65367	-82
3.65733	-84
3.66100	-88
3.66467	-88
3.66833	-87
3.67200	-87
3.67567	-87
3.67933	-90
3.68300	-93
3.68667	-95
3.69033	-97
3.69400	-99
3.69767	-99
3.70133	-98
3.70500	-98
3.70867	-99
3.71233	-99
3.71600	-99
3.71967	-100
3.72333	-99
3.72700	-97
3.73067	-98
3.73433	-100
3.73800	-103
3.74167	-102
3.74533	-103
3.74900	-103
3.75267	-103
3.75633	-104
3.76000	-105
3.76367	-107
3.76733	-107
3.77100	-103
3.77467	-103
3.77833	-102
3.78200	-101
3.78567	-101
3.78933	-101
3.79300	-100
3.79667	-100
3.80033	-99
3.80400	-98
3.80767	-101
3.81133	-102
3.81500	-101
3.81867	-99
3.82233	-100
3.82600	-100
3.82967	-100
3.83333	-101
3.83700	-101
3.84067	-104
3.84433	-107
3.84800	-107
3.85167	-105
3.85533	-102
3.85900	-99
3.86267	-99
3.86633	-99
3.87000	-99
3.87367	-100
3.87733	-101
3.88100	-102
3.88467	-103
3.88833	-104
3.89200	-106
3.89567	-106
3.89933	-106
3.90300	-104
3.90667	-102
3.91033	-103
3.91400	-106
3.91767	-106
3.92133	-106
3.92500	-106
3.92867	-104
3.93233	-105
3.93600	-108
3.93967	-110
3.94333	-110
3.94700	-108
3.95067	-107
3.95433	-107
3.95800	-107
3.96167	-103
3.96533	-100
3.96900	-101
3.97267	-102
3.97633	-102
3.98000	-103
3.98367	-103
3.98733	-101
3.99100	-100
3.99467	-100
3.99833	-101

[Status Trace (Column Oven Temperature)]
Interval(msec)	1000
# of Points	240
Start Time(min)	0.009
End Time(min)	3.992
Intensity Units	
Intensity Multiplier	1
R.Time (min)	Intensity
0.00857	35.01
0.02523	35.01
0.04190	35.00
0.05857	35.00
0.07523	35.01
0.09190	35.01
0.10857	35.01
0.12523	35.00
0.14190	35.01
0.15857	35.01
0.17523	35.01
0.19190	35.01
0.20857	35.00
0.22523	35.02
0.24190	35.03
0.25857	35.02
0.27523	35.01
0.29190	35.00
0.30857	35.00
0.32523	35.00
0.34190	35.02
0.35857	35.03
0.37523	35.02
0.39190	35.01
0.40857	35.01
0.42523	35.00
0.44190	34.99
0.45857	34.98
0.47523	34.99
0.49190	34.99
0.50857	34.99
0.52523	34.98
0.54190	34.98
0.55857	34.98
0.57523	34.99
0.59190	34.99
0.60857	34.99
0.62523	34.99
0.64190	34.99
0.65857	34.99
0.67523	34.99
0.69190	34.99
0.70857	34.99
0.72523	35.00
0.74190	35.00
0.75857	34.99
0.77523	34.99
0.79190	35.00
0.80857	35.00
0.82523	34.99
0.84190	34.99
0.85857	34.99
0.87523	35.00
0.89190	35.00
0.90857	35.00
0.92523	34.98
0.94190	34.97
0.95857	34.97
0.97523	34.97
0.99190	34.97
1.00857	34.98
1.02523	35.00
1.04190	35.01
1.05857	35.03
1.07523	35.05
1.09190	35.05
1.10857	35.06
1.12523	35.05
1.14190	35.06
1.15857	35.05
1.17523	35.05
1.19190	35.05
1.20857	35.04
1.22523	35.04
1.24190	35.05
1.25857	35.06
1.27523	35.07
1.29190	35.06
1.30857	35.04
1.32523	35.03
1.34190	35.02
1.35857	35.01
1.37523	35.00
1.39190	35.00
1.40857	34.98
1.42523	34.97
1.44190	34.97
1.45857	34.96
1.47523	34.97
1.49190	34.97
1.50857	34.97
1.52523	35.00
1.54190	35.03
1.55857	35.05
1.57523	35.06
1.59190	35.06
1.60857	35.11
1.62523	35.21
1.64190	35.38
1.65857	35.62
1.67523	35.96
1.69190	36.33
1.70857	36.67
1.72523	37.03
1.74190	37.36
1.75857	37.68
1.77523	38.00
1.79190	38.34
1.80857	38.67
1.82523	38.99
1.84190	39.33
1.85857	39.66
1.87523	39.99
1.89190	40.33
1.90857	40.66
1.92523	40.96
1.94190	41.31
1.95857	41.65
1.97523	41.97
1.99190	42.30
2.00857	42.62
2.02523	42.95
2.04190	43.28
2.05857	43.60
2.07523	43.92
2.09190	44.25
2.10857	44.56
2.12523	44.89
2.14190	45.20
2.15857	45.53
2.17523	45.86
2.19190	46.21
2.20857	46.53
2.22523	46.86
2.24190	47.17
2.25857	47.52
2.27523	47.84
2.29190	48.17
2.30857	48.49
2.32523	48.84
2.34190	49.17
2.35857	49.45
2.37523	49.62
2.39190	49.65
2.40857	49.65
2.42523	49.67
2.44190	49.68
2.45857	49.69
2.47523	49.71
2.49190	49.70
2.50857	49.75
2.52523	49.76
2.54190	49.77
2.55857	49.79
2.57523	49.81
2.59190	49.81
2.60857	49.81
2.62523	49.82
2.64190	49.82
2.65857	49.84
2.67523	49.84
2.69190	49.85
2.70857	49.85
2.72523	49.87
2.74190	49.88
2.75857	49.88
2.77523	49.87
2.79190	49.86
2.80857	49.85
2.82523	49.87
2.84190	49.89
2.85857	49.89
2.87523	49.92
2.89190	49.94
2.90857	49.95
2.92523	49.95
2.94190	49.95
2.95857	49.95
2.97523	49.95
2.99190	49.96
3.00857	49.97
3.02523	49.97
3.04190	49.97
3.05857	49.99
3.07523	50.00
3.09190	50.00
3.10857	50.02
3.12523	50.03
3.14190	50.04
3.15857	50.05
3.17523	50.05
3.19190	50.06
3.20857	50.06
3.22523	50.07
3.24190	50.08
3.25857	50.09
3.27523	50.09
3.29190	50.10
3.30857	50.11
3.32523	50.10
3.34190	50.09
3.35857	50.07
3.37523	50.06
3.39190	50.06
3.40857	50.05
3.42523	50.04
3.44190	50.04
3.45857	50.03
3.47523	50.02
3.49190	50.02
3.50857	50.02
3.52523	50.02
3.54190	50.03
3.55857	50.02
3.57523	50.02
3.59190	50.03
3.60857	50.04
3.62523	50.04
3.64190	50.05
3.65857	50.05
3.67523	50.06
3.69190	50.06
3.70857	50.06
3.72523	50.06
3.74190	50.05
3.75857	50.05
3.77523	50.04
3.79190	50.05
3.80857	50.05
3.82523	50.06
3.84190	50.05
3.85857	50.05
3.87523	50.05
3.89190	50.05
3.90857	50.06
3.92523	50.08
3.94190	50.08
3.95857	50.08
3.97523	50.08
3.99190	50.07

[Status Trace (Injection Unit Temperature)]
Interval(msec)	1000
# of Points	240
Start Time(min)	0.009
End Time(min)	3.992
Intensity Units	
Intensity Multiplier	1
R.Time (min)	Intensity
0.00857	100.00
0.02523	100.00
0.04190	100.00
0.05857	100.00
0.07523	100.00
0.09190	100.00
0.10857	100.00
0.12523	100.01
0.14190	100.00
0.15857	100.01
0.17523	100.00
0.19190	100.01
0.20857	100.01
0.22523	100.00
0.24190	100.00
0.25857	100.00
0.27523	100.00
0.29190	100.01
0.30857	100.01
0.32523	100.01
0.34190	100.00
0.35857	100.00
0.37523	100.00
0.39190	100.00
0.40857	100.00
0.42523	100.00
0.44190	100.00
0.45857	100.00
0.47523	100.00
0.49190	100.00
0.50857	100.00
0.52523	100.00
0.54190	100.00
0.55857	100.00
0.57523	100.00
0.59190	100.00
0.60857	100.00
0.62523	100.00
0.64190	100.00
0.65857	100.00
0.67523	100.00
0.69190	100.00
0.70857	100.00
0.72523	100.00
0.74190	100.00
0.75857	100.00
0.77523	100.00
0.79190	100.00
0.80857	100.00
0.82523	100.00
0.84190	100.00
0.85857	100.00
0.87523	100.00
0.89190	100.00
0.90857	100.00
0.92523	100.00
0.94190	100.00
0.95857	100.00
0.97523	100.00
0.99190	100.00
1.00857	99.99
1.02523	100.00
1.04190	100.00
1.05857	100.00
1.07523	100.00
1.09190	100.00
1.10857	100.00
1.12523	100.00
1.14190	100.00
1.15857	100.00
1.17523	100.00
1.19190	99.99
1.20857	100.00
1.22523	100.00
1.24190	99.99
1.25857	100.00
1.27523	99.99
1.29190	99.99
1.30857	100.00
1.32523	100.00
1.34190	100.00
1.35857	100.00
1.37523	100.00
1.39190	100.00
1.40857	100.00
1.42523	100.00
1.44190	100.00
1.45857	100.00
1.47523	100.00
1.49190	100.00
1.50857	100.00
1.52523	100.00
1.54190	100.00
1.55857	100.00
1.57523	100.00
1.59190	100.00
1.60857	100.00
1.62523	100.00
1.64190	100.00
1.65857	100.00
1.67523	99.99
1.69190	100.00
1.70857	100.00
1.72523	99.99
1.74190	100.00
1.75857	100.00
1.77523	100.00
1.79190	100.00
1.80857	100.00
1.82523	100.00
1.84190	100.00
1.85857	100.00
1.87523	100.00
1.89190	100.00
1.90857	99.99
1.92523	100.00
1.94190	100.00
1.95857	99.99
1.97523	100.00
1.99190	99.99
2.00857	99.99
2.02523	99.99
2.04190	99.99
2.05857	99.99
2.07523	99.99
2.09190	99.99
2.10857	99.98
2.12523	99.98
2.14190	99.98
2.15857	99.99
2.17523	99.98
2.19190	99.98
2.20857	99.98
2.22523	99.98
2.24190	99.98
2.25857	99.98
2.27523	99.98
2.29190	99.98
2.30857	99.98
2.32523	99.98
2.34190	99.98
2.35857	99.98
2.37523	99.98
2.39190	99.98
2.40857	99.98
2.42523	99.98
2.44190	99.98
2.45857	99.98
2.47523	99.98
2.49190	99.98
2.50857	99.98
2.52523	99.98
2.54190	99.98
2.55857	99.98
2.57523	99.99
2.59190	99.98
2.60857	99.98
2.62523	99.99
2.64190	99.98
2.65857	99.98
2.67523	99.99
2.69190	99.99
2.70857	99.99
2.72523	99.99
2.74190	99.99
2.75857	100.00
2.77523	100.00
2.79190	100.00
2.80857	100.00
2.82523	100.00
2.84190	100.01
2.85857	100.00
2.87523	100.00
2.89190	100.01
2.90857	100.01
2.92523	100.01
2.94190	100.01
2.95857	100.01
2.97523	100.01
2.99190	100.01
3.00857	100.01
3.02523	100.02
3.04190	100.02
3.05857	100.02
3.07523	100.02
3.09190	100.02
3.10857	100.02
3.12523	100.03
3.14190	100.03
3.15857	100.03
3.17523	100.03
3.19190	100.03
3.20857	100.04
3.22523	100.04
3.24190	100.04
3.25857	100.04
3.27523	100.04
3.29190	100.04
3.30857	100.05
3.32523	100.05
3.34190	100.05
3.35857	100.05
3.37523	100.05
3.39190	100.05
3.40857	100.05
3.42523	100.05
3.44190	100.05
3.45857	100.05
3.47523	100.06
3.49190	100.06
3.50857	100.06
3.52523	100.06
3.54190	100.06
3.55857	100.07
3.57523	100.06
3.59190	100.05
3.60857	100.06
3.62523	100.06
3.64190	100.06
3.65857	100.06
3.67523	100.06
3.69190	100.06
3.70857	100.06
3.72523	100.06
3.74190	100.06
3.75857	100.06
3.77523	100.07
3.79190	100.07
3.80857	100.06
3.82523	100.06
3.84190	100.07
3.85857	100.06
3.87523	100.06
3.89190	100.06
3.90857	100.06
3.92523	100.06
3.94190	100.06
3.95857	100.06
3.97523	100.07
3.99190	100.06

[Status Trace (Carrier Gas Pressure)]
Interval(msec)	1000
# of Points	240
Start Time(min)	0.009
End Time(min)	3.992
Intensity Units	
Intensity Multiplier	1
R.Time (min)	Intensity
0.00857	58.00
0.02523	55.27
0.04190	57.11
0.05857	59.26
0.07523	59.39
0.09190	58.07
0.10857	57.98
0.12523	58.01
0.14190	58.01
0.15857	58.01
0.17523	58.00
0.19190	58.00
0.20857	58.00
0.22523	58.00
0.24190	58.00
0.25857	58.00
0.27523	58.00
0.29190	58.00
0.30857	58.00
0.32523	58.00
0.34190	58.00
0.35857	58.00
0.37523	58.00
0.39190	58.00
0.40857	58.00
0.42523	58.00
0.44190	58.00
0.45857	58.00
0.47523	58.00
0.49190	58.00
0.50857	58.00
0.52523	58.00
0.54190	58.00
0.55857	58.00
0.57523	58.00
0.59190	58.00
0.60857	58.00
0.62523	58.00
0.64190	58.00
0.65857	58.00
0.67523	58.00
0.69190	58.00
0.70857	58.00
0.72523	58.00
0.74190	58.00
0.75857	58.00
0.77523	58.00
0.79190	58.00
0.80857	58.00
0.82523	58.00
0.84190	58.00
0.85857	58.00
0.87523	58.00
0.89190	58.00
0.90857	58.00
0.92523	58.00
0.94190	58.00
0.95857	58.00
0.97523	58.00
0.99190	58.00
1.00857	58.00
1.02523	58.00
1.04190	58.00
1.05857	58.00
1.07523	58.00
1.09190	58.00
1.10857	58.00
1.12523	58.00
1.14190	58.00
1.15857	58.00
1.17523	58.00
1.19190	58.00
1.20857	58.00
1.22523	58.00
1.24190	58.00
1.25857	58.00
1.27523	58.00
1.29190	58.00
1.30857	58.00
1.32523	58.00
1.34190	58.00
1.35857	58.00
1.37523	58.00
1.39190	58.00
1.40857	58.00
1.42523	58.00
1.44190	58.00
1.45857	58.00
1.47523	58.00
1.49190	58.00
1.50857	58.00
1.52523	58.00
1.54190	58.00
1.55857	58.00
1.57523	58.00
1.59190	58.00
1.60857	58.00
1.62523	58.00
1.64190	58.00
1.65857	58.00
1.67523	58.01
1.69190	58.00
1.70857	58.00
1.72523	58.00
1.74190	58.00
1.75857	58.00
1.77523	58.00
1.79190	58.00
1.80857	58.00
1.82523	58.00
1.84190	58.00
1.85857	58.00
1.87523	58.00
1.89190	58.00
1.90857	58.00
1.92523	58.00
1.94190	58.00
1.95857	58.00
1.97523	58.00
1.99190	58.00
2.00857	58.00
2.02523	58.00
2.04190	58.00
2.05857	58.00
2.07523	58.00
2.09190	58.00
2.10857	58.00
2.12523	58.00
2.14190	58.00
2.15857	58.00
2.17523	58.00
2.19190	58.00
2.20857	58.00
2.22523	58.00
2.24190	58.00
2.25857	58.00
2.27523	58.00
2.29190	58.00
2.30857	58.00
2.32523	58.00
2.34190	58.00
2.35857	58.00
2.37523	57.99
2.39190	57.99
2.40857	58.00
2.42523	58.00
2.44190	58.00
2.45857	58.00
2.47523	58.00
2.49190	58.00
2.50857	58.00
2.52523	57.98
2.54190	58.00
2.55857	58.00
2.57523	58.00
2.59190	58.00
2.60857	58.00
2.62523	58.00
2.64190	58.00
2.65857	58.00
2.67523	58.00
2.69190	58.00
2.70857	58.00
2.72523	58.00
2.74190	58.00
2.75857	58.00
2.77523	58.00
2.79190	58.00
2.80857	58.00
2.82523	58.00
2.84190	58.00
2.85857	58.00
2.87523	58.00
2.89190	58.00
2.90857	58.00
2.92523	58.00
2.94190	58.00
2.95857	58.00
2.97523	58.00
2.99190	58.00
3.00857	58.00
3.02523	58.00
3.04190	58.00
3.05857	58.00
3.07523	58.00
3.09190	58.00
3.10857	58.00
3.12523	58.00
3.14190	58.00
3.15857	58.00
3.17523	58.00
3.19190	58.00
3.20857	58.00
3.22523	58.00
3.24190	58.00
3.25857	58.00
3.27523	58.00
3.29190	58.00
3.30857	58.00
3.32523	58.00
3.34190	58.00
3.35857	58.00
3.37523	58.00
3.39190	58.00
3.40857	58.00
3.42523	58.00
3.44190	58.00
3.45857	58.00
3.47523	58.00
3.49190	58.00
3.50857	58.00
3.52523	58.00
3.54190	58.00
3.55857	58.00
3.57523	58.00
3.59190	58.00
3.60857	58.00
3.62523	58.00
3.64190	58.00
3.65857	58.00
3.67523	58.00
3.69190	58.00
3.70857	58.00
3.72523	58.00
3.74190	58.00
3.75857	58.00
3.77523	58.00
3.79190	58.00
3.80857	58.00
3.82523	58.00
3.84190	58.00
3.85857	58.00
3.87523	58.00
3.89190	58.00
3.90857	58.00
3.92523	58.00
3.94190	58.00
3.95857	58.00
3.97523	58.00
3.99190	58.00

[Status Trace (Carrier Gas Flow)]
Interval(msec)	1000
# of Points	240
Start Time(min)	0.009
End Time(min)	3.992
Intensity Units	
Intensity Multiplier	1
R.Time (min)	Intensity
0.00857	34.52
0.02523	34.52
0.04190	34.55
0.05857	34.55
0.07523	34.49
0.09190	34.52
0.10857	34.52
0.12523	34.52
0.14190	34.52
0.15857	34.52
0.17523	34.52
0.19190	34.52
0.20857	34.52
0.22523	34.52
0.24190	34.52
0.25857	34.52
0.27523	34.52
0.29190	34.52
0.30857	34.52
0.32523	34.52
0.34190	34.52
0.35857	34.52
0.37523	34.52
0.39190	34.52
0.40857	34.52
0.42523	34.52
0.44190	34.52
0.45857	34.52
0.47523	34.52
0.49190	34.52
0.50857	34.52
0.52523	34.52
0.54190	34.52
0.55857	34.52
0.57523	34.52
0.59190	34.52
0.60857	34.53
0.62523	34.52
0.64190	34.52
0.65857	34.52
0.67523	34.52
0.69190	34.52
0.70857	34.52
0.72523	34.52
0.74190	34.52
0.75857	34.52
0.77523	34.52
0.79190	34.52
0.80857	34.52
0.82523	34.52
0.84190	34.52
0.85857	34.52
0.87523	34.52
0.89190	34.52
0.90857	34.52
0.92523	34.52
0.94190	34.52
0.95857	34.52
0.97523	34.52
0.99190	34.52
1.00857	34.52
1.02523	34.52
1.04190	34.52
1.05857	34.52
1.07523	34.52
1.09190	34.52
1.10857	34.52
1.12523	34.52
1.14190	34.52
1.15857	34.52
1.17523	34.52
1.19190	34.52
1.20857	34.52
1.22523	34.52
1.24190	34.52
1.25857	34.52
1.27523	34.52
1.29190	34.52
1.30857	34.52
1.32523	34.52
1.34190	34.52
1.35857	34.52
1.37523	34.52
1.39190	34.52
1.40857	34.52
1.42523	34.52
1.44190	34.52
1.45857	34.52
1.47523	34.52
1.49190	34.52
1.50857	34.52
1.52523	34.52
1.54190	34.52
1.55857	34.52
1.57523	34.52
1.59190	34.52
1.60857	34.52
1.62523	34.52
1.64190	34.52
1.65857	34.52
1.67523	34.52
1.69190	34.52
1.70857	34.52
1.72523	34.52
1.74190	34.52
1.75857	34.52
1.77523	34.52
1.79190	34.52
1.80857	34.52
1.82523	34.52
1.84190	34.52
1.85857	34.52
1.87523	34.52
1.89190	34.52
1.90857	34.52
1.92523	34.52
1.94190	34.52
1.95857	34.52
1.97523	34.52
1.99190	34.52
2.00857	34.52
2.02523	34.52
2.04190	34.52
2.05857	34.52
2.07523	34.52
2.09190	34.52
2.10857	34.52
2.12523	34.52
2.14190	34.52
2.15857	34.52
2.17523	34.52
2.19190	34.52
2.20857	34.52
2.22523	34.52
2.24190	34.52
2.25857	34.52
2.27523	34.52
2.29190	34.52
2.30857	34.52
2.32523	34.52
2.34190	34.52
2.35857	34.52
2.37523	34.52
2.39190	34.49
2.40857	34.52
2.42523	34.51
2.44190	34.52
2.45857	34.52
2.47523	34.52
2.49190	34.52
2.50857	34.47
2.52523	34.52
2.54190	34.52
2.55857	34.52
2.57523	34.52
2.59190	34.52
2.60857	34.52
2.62523	34.52
2.64190	34.52
2.65857	34.52
2.67523	34.52
2.69190	34.52
2.70857	34.52
2.72523	34.52
2.74190	34.52
2.75857	34.52
2.77523	34.52
2.79190	34.52
2.80857	34.52
2.82523	34.52
2.84190	34.52
2.85857	34.52
2.87523	34.52
2.89190	34.52
2.90857	34.52
2.92523	34.52
2.94190	34.52
2.95857	34.52
2.97523	34.52
2.99190	34.52
3.00857	34.52
3.02523	34.52
3.04190	34.52
3.05857	34.52
3.07523	34.52
3.09190	34.52
3.10857	34.52
3.12523	34.52
3.14190	34.52
3.15857	34.52
3.17523	34.52
3.19190	34.52
3.20857	34.52
3.22523	34.52
3.24190	34.52
3.25857	34.52
3.27523	34.52
3.29190	34.52
3.30857	34.52
3.32523	34.52
3.34190	34.52
3.35857	34.52
3.37523	34.52
3.39190	34.52
3.40857	34.52
3.42523	34.52
3.44190	34.52
3.45857	34.52
3.47523	34.52
3.49190	34.52
3.50857	34.52
3.52523	34.52
3.54190	34.52
3.55857	34.52
3.57523	34.52
3.59190	34.52
3.60857	34.52
3.62523	34.52
3.64190	34.52
3.65857	34.52
3.67523	34.52
3.69190	34.52
3.70857	34.52
3.72523	34.52
3.74190	34.52
3.75857	34.52
3.77523	34.52
3.79190	34.52
3.80857	34.52
3.82523	34.52
3.84190	34.52
3.85857	34.52
3.87523	34.52
3.89190	34.52
3.90857	34.52
3.92523	34.52
3.94190	34.52
3.95857	34.52
3.97523	34.52
3.99190	34.52

[Status Trace (Column Flow)]
Interval(msec)	1000
# of Points	240
Start Time(min)	0.009
End Time(min)	3.992
Intensity Units	
Intensity Multiplier	1
R.Time (min)	Intensity
0.00857	5.55
0.02523	5.23
0.04190	5.44
0.05857	5.69
0.07523	5.71
0.09190	5.55
0.10857	5.54
0.12523	5.55
0.14190	5.55
0.15857	5.55
0.17523	5.55
0.19190	5.55
0.20857	5.55
0.22523	5.55
0.24190	5.55
0.25857	5.55
0.27523	5.55
0.29190	5.55
0.30857	5.55
0.32523	5.55
0.34190	5.55
0.35857	5.55
0.37523	5.55
0.39190	5.55
0.40857	5.55
0.42523	5.55
0.44190	5.55
0.45857	5.55
0.47523	5.55
0.49190	5.55
0.50857	5.55
0.52523	5.55
0.54190	5.55
0.55857	5.55
0.57523	5.55
0.59190	5.55
0.60857	5.55
0.62523	5.55
0.64190	5.55
0.65857	5.55
0.67523	5.55
0.69190	5.55
0.70857	5.55
0.72523	5.55
0.74190	5.55
0.75857	5.55
0.77523	5.55
0.79190	5.55
0.80857	5.55
0.82523	5.55
0.84190	5.55
0.85857	5.55
0.87523	5.55
0.89190	5.55
0.90857	5.55
0.92523	5.55
0.94190	5.55
0.95857	5.55
0.97523	5.55
0.99190	5.55
1.00857	5.55
1.02523	5.55
1.04190	5.55
1.05857	5.55
1.07523	5.54
1.09190	5.54
1.10857	5.54
1.12523	5.54
1.14190	5.54
1.15857	5.54
1.17523	5.54
1.19190	5.54
1.20857	5.54
1.22523	5.55
1.24190	5.54
1.25857	5.54
1.27523	5.54
1.29190	5.54
1.30857	5.55
1.32523	5.55
1.34190	5.55
1.35857	5.55
1.37523	5.55
1.39190	5.55
1.40857	5.55
1.42523	5.55
1.44190	5.55
1.45857	5.55
1.47523	5.55
1.49190	5.55
1.50857	5.55
1.52523	5.55
1.54190	5.55
1.55857	5.54
1.57523	5.54
1.59190	5.54
1.60857	5.54
1.62523	5.54
1.64190	5.53
1.65857	5.53
1.67523	5.52
1.69190	5.51
1.70857	5.49
1.72523	5.48
1.74190	5.47
1.75857	5.46
1.77523	5.45
1.79190	5.44
1.80857	5.43
1.82523	5.42
1.84190	5.41
1.85857	5.40
1.87523	5.39
1.89190	5.38
1.90857	5.37
1.92523	5.36
1.94190	5.35
1.95857	5.34
1.97523	5.33
1.99190	5.32
2.00857	5.31
2.02523	5.30
2.04190	5.29
2.05857	5.28
2.07523	5.27
2.09190	5.26
2.10857	5.26
2.12523	5.25
2.14190	5.24
2.15857	5.23
2.17523	5.22
2.19190	5.21
2.20857	5.20
2.22523	5.19
2.24190	5.18
2.25857	5.17
2.27523	5.16
2.29190	5.15
2.30857	5.14
2.32523	5.13
2.34190	5.12
2.35857	5.12
2.37523	5.11
2.39190	5.11
2.40857	5.11
2.42523	5.11
2.44190	5.11
2.45857	5.11
2.47523	5.11
2.49190	5.11
2.50857	5.11
2.52523	5.11
2.54190	5.11
2.55857	5.11
2.57523	5.11
2.59190	5.11
2.60857	5.11
2.62523	5.11
2.64190	5.11
2.65857	5.11
2.67523	5.11
2.69190	5.11
2.70857	5.11
2.72523	5.10
2.74190	5.10
2.75857	5.10
2.77523	5.10
2.79190	5.11
2.80857	5.11
2.82523	5.11
2.84190	5.10
2.85857	5.10
2.87523	5.10
2.89190	5.10
2.90857	5.10
2.92523	5.10
2.94190	5.10
2.95857	5.10
2.97523	5.10
2.99190	5.10
3.00857	5.10
3.02523	5.10
3.04190	5.10
3.05857	5.10
3.07523	5.10
3.09190	5.10
3.10857	5.10
3.12523	5.10
3.14190	5.10
3.15857	5.10
3.17523	5.10
3.19190	5.10
3.20857	5.10
3.22523	5.10
3.24190	5.10
3.25857	5.10
3.27523	5.10
3.29190	5.10
3.30857	5.10
3.32523	5.10
3.34190	5.10
3.35857	5.10
3.37523	5.10
3.39190	5.10
3.40857	5.10
3.42523	5.10
3.44190	5.10
3.45857	5.10
3.47523	5.10
3.49190	5.10
3.50857	5.10
3.52523	5.10
3.54190	5.10
3.55857	5.10
3.57523	5.10
3.59190	5.10
3.60857	5.10
3.62523	5.10
3.64190	5.10
3.65857	5.10
3.67523	5.10
3.69190	5.10
3.70857	5.10
3.72523	5.10
3.74190	5.10
3.75857	5.10
3.77523	5.10
3.79190	5.10
3.80857	5.10
3.82523	5.10
3.84190	5.10
3.85857	5.10
3.87523	5.10
3.89190	5.10
3.90857	5.10
3.92523	5.10
3.94190	5.10
3.95857	5.10
3.97523	5.10
3.99190	5.10

[Status Trace (Linear Velocity)]
Interval(msec)	1000
# of Points	240
Start Time(min)	0.009
End Time(min)	3.992
Intensity Units	
Intensity Multiplier	1
R.Time (min)	Intensity
0.00857	39.02
0.02523	37.23
0.04190	38.44
0.05857	39.85
0.07523	39.93
0.09190	39.07
0.10857	39.01
0.12523	39.03
0.14190	39.03
0.15857	39.03
0.17523	39.02
0.19190	39.02
0.20857	39.02
0.22523	39.02
0.24190	39.02
0.25857	39.02
0.27523	39.02
0.29190	39.02
0.30857	39.02
0.32523	39.02
0.34190	39.02
0.35857	39.02
0.37523	39.02
0.39190	39.02
0.40857	39.02
0.42523	39.02
0.44190	39.02
0.45857	39.02
0.47523	39.02
0.49190	39.02
0.50857	39.02
0.52523	39.02
0.54190	39.02
0.55857	39.02
0.57523	39.02
0.59190	39.02
0.60857	39.02
0.62523	39.02
0.64190	39.02
0.65857	39.02
0.67523	39.02
0.69190	39.02
0.70857	39.02
0.72523	39.02
0.74190	39.02
0.75857	39.02
0.77523	39.02
0.79190	39.02
0.80857	39.02
0.82523	39.02
0.84190	39.02
0.85857	39.02
0.87523	39.02
0.89190	39.02
0.90857	39.02
0.92523	39.02
0.94190	39.03
0.95857	39.03
0.97523	39.03
0.99190	39.03
1.00857	39.02
1.02523	39.02
1.04190	39.02
1.05857	39.02
1.07523	39.02
1.09190	39.02
1.10857	39.02
1.12523	39.02
1.14190	39.02
1.15857	39.02
1.17523	39.02
1.19190	39.02
1.20857	39.02
1.22523	39.02
1.24190	39.02
1.25857	39.02
1.27523	39.02
1.29190	39.02
1.30857	39.02
1.32523	39.02
1.34190	39.02
1.35857	39.02
1.37523	39.02
1.39190	39.02
1.40857	39.02
1.42523	39.02
1.44190	39.03
1.45857	39.03
1.47523	39.03
1.49190	39.03
1.50857	39.03
1.52523	39.02
1.54190	39.02
1.55857	39.02
1.57523	39.02
1.59190	39.02
1.60857	39.01
1.62523	39.00
1.64190	38.99
1.65857	38.97
1.67523	38.93
1.69190	38.90
1.70857	38.86
1.72523	38.83
1.74190	38.80
1.75857	38.77
1.77523	38.74
1.79190	38.70
1.80857	38.67
1.82523	38.64
1.84190	38.61
1.85857	38.58
1.87523	38.55
1.89190	38.52
1.90857	38.49
1.92523	38.46
1.94190	38.43
1.95857	38.39
1.97523	38.36
1.99190	38.33
2.00857	38.30
2.02523	38.27
2.04190	38.24
2.05857	38.21
2.07523	38.18
2.09190	38.15
2.10857	38.13
2.12523	38.10
2.14190	38.07
2.15857	38.04
2.17523	38.01
2.19190	37.98
2.20857	37.95
2.22523	37.92
2.24190	37.89
2.25857	37.86
2.27523	37.83
2.29190	37.80
2.30857	37.77
2.32523	37.74
2.34190	37.71
2.35857	37.69
2.37523	37.67
2.39190	37.66
2.40857	37.67
2.42523	37.67
2.44190	37.67
2.45857	37.66
2.47523	37.66
2.49190	37.66
2.50857	37.66
2.52523	37.65
2.54190	37.66
2.55857	37.66
2.57523	37.66
2.59190	37.65
2.60857	37.66
2.62523	37.65
2.64190	37.65
2.65857	37.65
2.67523	37.65
2.69190	37.65
2.70857	37.65
2.72523	37.65
2.74190	37.65
2.75857	37.65
2.77523	37.65
2.79190	37.65
2.80857	37.65
2.82523	37.65
2.84190	37.65
2.85857	37.65
2.87523	37.65
2.89190	37.64
2.90857	37.64
2.92523	37.64
2.94190	37.64
2.95857	37.64
2.97523	37.64
2.99190	37.64
3.00857	37.64
3.02523	37.64
3.04190	37.64
3.05857	37.64
3.07523	37.64
3.09190	37.64
3.10857	37.64
3.12523	37.64
3.14190	37.63
3.15857	37.63
3.17523	37.63
3.19190	37.63
3.20857	37.63
3.22523	37.63
3.24190	37.63
3.25857	37.63
3.27523	37.63
3.29190	37.63
3.30857	37.63
3.32523	37.63
3.34190	37.63
3.35857	37.63
3.37523	37.63
3.39190	37.63
3.40857	37.63
3.42523	37.63
3.44190	37.63
3.45857	37.64
3.47523	37.64
3.49190	37.64
3.50857	37.64
3.52523	37.64
3.54190	37.64
3.55857	37.64
3.57523	37.64
3.59190	37.64
3.60857	37.63
3.62523	37.63
3.64190	37.63
3.65857	37.63
3.67523	37.63
3.69190	37.63
3.70857	37.63
3.72523	37.63
3.74190	37.63
3.75857	37.63
3.77523	37.63
3.79190	37.63
3.80857	37.63
3.82523	37.63
3.84190	37.63
3.85857	37.63
3.87523	37.63
3.89190	37.63
3.90857	37.63
3.92523	37.63
3.94190	37.63
3.95857	37.63
3.97523	37.63
3.99190	37.63

