[Header]
Application Name	LabSolutions
Version	5.110
Data File Name	C:\Users\User\Desktop\GC Analyses\Jack\UIC Prairie Sampling\9.16.22\220916_008.gcd
Output Date	11/29/2022
Output Time	11:10:15 AM

[File Information]
Type	Data File
Generated	11/1/2022 12:53:39 PM
Generated by	System Administrator
Modified	11/1/2022 12:58:01 PM
Modified by	System Administrator

[Sample Information]
Operator Name	System Administrator
Acquired	11/1/2022 12:54:00 PM
Sample Type	1:Standard
Level	1
Sample Name	220916_Run
Sample ID	220916_Run
ISTD Amount1	1
ISTD Amount2	1
ISTD Amount3	1
ISTD Amount4	1
ISTD Amount5	1
ISTD Amount6	1
ISTD Amount7	1
ISTD Amount8	1
ISTD Amount9	1
ISTD Amount10	1
ISTD Amount11	1
ISTD Amount12	1
ISTD Amount13	1
ISTD Amount14	1
ISTD Amount15	1
ISTD Amount16	1
ISTD Amount17	1
ISTD Amount18	1
ISTD Amount19	1
ISTD Amount20	1
ISTD Amount21	1
ISTD Amount22	1
ISTD Amount23	1
ISTD Amount24	1
ISTD Amount25	1
ISTD Amount26	1
ISTD Amount27	1
ISTD Amount28	1
ISTD Amount29	1
ISTD Amount30	1
ISTD Amount31	1
ISTD Amount32	1
Sample Amount	1
Dilution Factor	1
Vial#	1
Injection Volume	1
Injection Count	1
Bar Code	

[Original Files]
Data File	C:\Users\User\Desktop\GC Analyses\Jack\UIC Prairie Sampling\9.16.22\220916_008.gcd
Method File	C:\LabSolutions\Data\GHG_4min_2022\ghg3_togas_w_acet_4 min_new_int.gcm
Batch File	
Report Format File	c:\LabSolutions\System\DEFAULT.lsr

[File Description]


[Configuration]
Instrument Name	C0B7VH3-Instrument1
Instrument #	1
Line #	1
# of Detectors	3
Detector ID	DET#1	DET#2	DET#3
Detector Name	FID	PTCD	ECD
# of Channels	1	1	1

[Peak Table(Ch1)]
# of Peaks	3
Peak#	R.Time	I.Time	F.Time	Area	Height	A/H	Conc.	Mark	ID#	Name	k'	Plate #	Plate Ht.	Tailing	Resolution	Sep.Factor	Area Ratio	Height Ratio	Conc. %	Norm Conc.
1	1.465	1.428	1.534	4123	1525	2.705	100.000	   	1	CO	0.000	5632	26.633	1.691	0.000	0.000	0	0	16.667	16.667
2	1.571	1.534	1.648	21132	10646	1.985	100.000	 V 	2	CH4	0.073	11428	13.126	1.151	1.554	0.000	0	0	16.667	16.667
3	1.996	1.949	2.381	2188716	1042949	2.099	400.000	   	3	CO2	0.363	17297	8.672	1.330	7.119	5.000	0	0	66.667	66.667

[Peak Table(Ch2)]
# of Peaks	0

[Peak Table(Ch3)]
# of Peaks	2
Peak#	R.Time	I.Time	F.Time	Area	Height	A/H	Conc.	Mark	ID#	Name	k'	Plate #	Plate Ht.	Tailing	Resolution	Sep.Factor	Area Ratio	Height Ratio	Conc. %	Norm Conc.
1	2.590	2.345	2.645	2651	335	7.908	0.000	   			0.000	2532	59.244	0.637	0.000	0.000	0	0	0.000	0.000
2	2.880	2.656	3.280	65637	16240	4.042	1.000	   	1	N2O	0.112	12417	12.081	1.553	1.873	0.000	0	0	100.000	100.000

[Compound Results(Ch1)]
# of IDs	6
ID#	Name	R.Time	Area	Height	Conc.	Curve	3rd	2nd	1st	Constant	Area Ratio	Height Ratio	Conc. %	Norm Conc.
1	CO	1.465	4123	1525	100.000	Linear	0.000000e+00	0.000000e+00	4.123440e+001	0.000000e+00	0	0	16.667	16.667
2	CH4	1.571	21132	10646	100.000	Linear	0.000000e+00	0.000000e+00	2.113197e+002	0.000000e+00	0	0	16.667	16.667
3	CO2	1.996	2188716	1042949	400.000	Linear	0.000000e+00	0.000000e+00	5.471790e+003	0.000000e+00	0	0	66.667	66.667
4	Ethylene	0.000	0	0	0.000	Linear	0.000000e+00	0.000000e+00	0.000000e+00	0.000000e+00	0	0	0.000	0.000
5	Acetylene	0.000	0	0	0.000	Linear	0.000000e+00	0.000000e+00	0.000000e+00	0.000000e+00	0	0	0.000	0.000
6	Ethane	0.000	0	0	0.000	Linear	0.000000e+00	0.000000e+00	0.000000e+00	0.000000e+00	0	0	0.000	0.000

[Compound Results(Ch2)]
# of IDs	5
ID#	Name	R.Time	Area	Height	Conc.	Curve	3rd	2nd	1st	Constant	Area Ratio	Height Ratio	Conc. %	Norm Conc.
1	Hydrogen	0.000	0	0	0.000	Linear	0.000000e+00	0.000000e+00	0.000000e+00	0.000000e+00	0	0	0.000	0.000
2	Oxygen	0.000	0	0	0.000	Linear	0.000000e+00	0.000000e+00	0.000000e+00	0.000000e+00	0	0	0.000	0.000
3	Nitrogen	0.000	0	0	0.000	Linear	0.000000e+00	0.000000e+00	0.000000e+00	0.000000e+00	0	0	0.000	0.000
4	Methane	0.000	0	0	0.000	Linear	0.000000e+00	0.000000e+00	0.000000e+00	0.000000e+00	0	0	0.000	0.000
5	Carbon Monoxide	0.000	0	0	0.000	Linear	0.000000e+00	0.000000e+00	0.000000e+00	0.000000e+00	0	0	0.000	0.000

[Compound Results(Ch3)]
# of IDs	2
ID#	Name	R.Time	Area	Height	Conc.	Curve	3rd	2nd	1st	Constant	Area Ratio	Height Ratio	Conc. %	Norm Conc.
1	N2O	2.880	65637	16240	1.000	Linear	0.000000e+00	0.000000e+00	6.563707e+004	0.000000e+00	0	0	100.000	100.000
2	SF6	0.000	0	0	0.000	Linear	0.000000e+00	0.000000e+00	0.000000e+00	0.000000e+00	0	0	0.000	0.000

[Group Results(Ch1)]
# of Groups	0

[Group Results(Ch2)]
# of Groups	0

[Group Results(Ch3)]
# of Groups	0

[Chromatogram (Ch1)]
Interval(msec)	220
# of Points	1091
Start Time(min)	0.002
End Time(min)	3.998
R.Time (min)	Intensity
0.00167	-1
0.00533	-2
0.00900	1
0.01267	7
0.01633	14
0.02000	18
0.02367	21
0.02733	21
0.03100	21
0.03467	22
0.03833	21
0.04200	17
0.04567	14
0.04933	13
0.05300	12
0.05667	10
0.06033	7
0.06400	6
0.06767	3
0.07133	-1
0.07500	-2
0.07867	-3
0.08233	-4
0.08600	-3
0.08967	-4
0.09333	-7
0.09700	-6
0.10067	-5
0.10433	-1
0.10800	3
0.11167	5
0.11533	7
0.11900	6
0.12267	3
0.12633	2
0.13000	2
0.13367	1
0.13733	-2
0.14100	-2
0.14467	3
0.14833	10
0.15200	14
0.15567	16
0.15933	16
0.16300	14
0.16667	13
0.17033	13
0.17400	11
0.17767	8
0.18133	8
0.18500	10
0.18867	11
0.19233	7
0.19600	1
0.19967	-5
0.20333	-11
0.20700	-12
0.21067	-7
0.21433	2
0.21800	7
0.22167	7
0.22533	2
0.22900	-3
0.23267	-7
0.23633	-7
0.24000	-8
0.24367	-8
0.24733	-6
0.25100	-4
0.25467	-5
0.25833	-6
0.26200	-9
0.26567	-14
0.26933	-15
0.27300	-11
0.27667	-7
0.28033	-3
0.28400	-0
0.28767	-3
0.29133	-9
0.29500	-15
0.29867	-17
0.30233	-16
0.30600	-15
0.30967	-14
0.31333	-16
0.31700	-18
0.32067	-18
0.32433	-16
0.32800	-10
0.33167	-9
0.33533	-12
0.33900	-17
0.34267	-21
0.34633	-24
0.35000	-28
0.35367	-32
0.35733	-35
0.36100	-39
0.36467	-42
0.36833	-42
0.37200	-43
0.37567	-45
0.37933	-45
0.38300	-43
0.38667	-44
0.39033	-43
0.39400	-36
0.39767	-30
0.40133	-25
0.40500	-22
0.40867	-17
0.41233	-15
0.41600	-18
0.41967	-20
0.42333	-19
0.42700	-17
0.43067	-18
0.43433	-21
0.43800	-21
0.44167	-19
0.44533	-12
0.44900	-8
0.45267	-9
0.45633	-15
0.46000	-21
0.46367	-28
0.46733	-33
0.47100	-31
0.47467	-25
0.47833	-21
0.48200	-21
0.48567	-22
0.48933	-24
0.49300	-23
0.49667	-21
0.50033	-20
0.50400	-23
0.50767	-30
0.51133	-38
0.51500	-42
0.51867	-44
0.52233	-44
0.52600	-40
0.52967	-37
0.53333	-38
0.53700	-42
0.54067	-48
0.54433	-52
0.54800	-53
0.55167	-50
0.55533	-41
0.55900	-36
0.56267	-35
0.56633	-34
0.57000	-32
0.57367	-28
0.57733	-21
0.58100	-16
0.58467	-14
0.58833	-15
0.59200	-21
0.59567	-32
0.59933	-44
0.60300	-55
0.60667	-65
0.61033	-70
0.61400	-68
0.61767	-61
0.62133	-54
0.62500	-49
0.62867	-47
0.63233	-46
0.63600	-43
0.63967	-41
0.64333	-36
0.64700	-30
0.65067	-23
0.65433	-23
0.65800	-27
0.66167	-32
0.66533	-39
0.66900	-46
0.67267	-49
0.67633	-50
0.68000	-50
0.68367	-51
0.68733	-54
0.69100	-60
0.69467	-68
0.69833	-74
0.70200	-77
0.70567	-77
0.70933	-73
0.71300	-67
0.71667	-55
0.72033	-39
0.72400	-22
0.72767	-14
0.73133	-18
0.73500	-31
0.73867	-47
0.74233	-58
0.74600	-64
0.74967	-69
0.75333	-70
0.75700	-64
0.76067	-56
0.76433	-48
0.76800	-42
0.77167	-40
0.77533	-43
0.77900	-49
0.78267	-55
0.78633	-59
0.79000	-66
0.79367	-72
0.79733	-77
0.80100	-78
0.80467	-75
0.80833	-69
0.81200	-63
0.81567	-64
0.81933	-63
0.82300	-61
0.82667	-55
0.83033	-46
0.83400	-41
0.83767	-42
0.84133	-43
0.84500	-46
0.84867	-50
0.85233	-53
0.85600	-55
0.85967	-56
0.86333	-54
0.86700	-57
0.87067	-61
0.87433	-64
0.87800	-64
0.88167	-62
0.88533	-60
0.88900	-58
0.89267	-57
0.89633	-55
0.90000	-53
0.90367	-53
0.90733	-57
0.91100	-59
0.91467	-62
0.91833	-69
0.92200	-77
0.92567	-82
0.92933	-82
0.93300	-77
0.93667	-74
0.94033	-73
0.94400	-72
0.94767	-73
0.95133	-76
0.95500	-77
0.95867	-77
0.96233	-77
0.96600	-75
0.96967	-69
0.97333	-66
0.97700	-66
0.98067	-67
0.98433	-71
0.98800	-76
0.99167	-80
0.99533	-81
0.99900	-81
1.00267	-81
1.00633	-82
1.01000	-86
1.01367	-90
1.01733	-91
1.02100	-85
1.02467	-74
1.02833	-63
1.03200	-54
1.03567	-49
1.03933	-48
1.04300	-48
1.04667	-49
1.05033	-54
1.05400	-62
1.05767	-72
1.06133	-79
1.06500	-83
1.06867	-83
1.07233	-80
1.07600	-76
1.07967	-72
1.08333	-73
1.08700	-76
1.09067	-76
1.09433	-73
1.09800	-71
1.10167	-70
1.10533	-73
1.10900	-76
1.11267	-77
1.11633	-72
1.12000	-66
1.12367	-65
1.12733	-68
1.13100	-71
1.13467	-73
1.13833	-75
1.14200	-75
1.14567	-75
1.14933	-73
1.15300	-74
1.15667	-80
1.16033	-88
1.16400	-96
1.16767	-103
1.17133	-105
1.17500	-102
1.17867	-96
1.18233	-90
1.18600	-88
1.18967	-86
1.19333	-84
1.19700	-80
1.20067	-72
1.20433	-65
1.20800	-66
1.21167	-71
1.21533	-76
1.21900	-80
1.22267	-85
1.22633	-87
1.23000	-89
1.23367	-91
1.23733	-92
1.24100	-92
1.24467	-92
1.24833	-91
1.25200	-91
1.25567	-92
1.25933	-94
1.26300	-94
1.26667	-93
1.27033	-92
1.27400	-90
1.27767	-86
1.28133	-81
1.28500	-76
1.28867	-71
1.29233	-70
1.29600	-75
1.29967	-83
1.30333	-92
1.30700	-97
1.31067	-96
1.31433	-90
1.31800	-85
1.32167	-85
1.32533	-89
1.32900	-91
1.33267	-91
1.33633	-92
1.34000	-95
1.34367	-98
1.34733	-98
1.35100	-98
1.35467	-95
1.35833	-91
1.36200	-88
1.36567	-89
1.36933	-92
1.37300	-96
1.37667	-101
1.38033	-103
1.38400	-103
1.38767	-104
1.39133	-103
1.39500	-106
1.39867	-109
1.40233	-110
1.40600	-108
1.40967	-107
1.41333	-106
1.41700	-108
1.42067	-109
1.42433	-106
1.42800	-102
1.43167	-99
1.43533	-93
1.43900	-69
1.44267	46
1.44633	336
1.45000	733
1.45367	1085
1.45733	1314
1.46100	1415
1.46467	1419
1.46833	1367
1.47200	1291
1.47567	1208
1.47933	1118
1.48300	1017
1.48667	900
1.49033	774
1.49400	645
1.49767	518
1.50133	396
1.50500	284
1.50867	187
1.51233	108
1.51600	44
1.51967	-4
1.52333	-41
1.52700	-68
1.53067	-89
1.53433	-99
1.53800	-60
1.54167	162
1.54533	839
1.54900	2202
1.55267	4128
1.55633	6204
1.56000	8042
1.56367	9446
1.56733	10318
1.57100	10531
1.57467	9965
1.57833	8686
1.58200	6996
1.58567	5262
1.58933	3752
1.59300	2566
1.59667	1697
1.60033	1086
1.60400	670
1.60767	392
1.61133	208
1.61500	88
1.61867	11
1.62233	-39
1.62600	-68
1.62967	-85
1.63333	-94
1.63700	-105
1.64067	-113
1.64433	-119
1.64800	-121
1.65167	-121
1.65533	-127
1.65900	-135
1.66267	-142
1.66633	-143
1.67000	-141
1.67367	-142
1.67733	-144
1.68100	-145
1.68467	-145
1.68833	-143
1.69200	-139
1.69567	-134
1.69933	-129
1.70300	-125
1.70667	-124
1.71033	-125
1.71400	-128
1.71767	-129
1.72133	-130
1.72500	-129
1.72867	-131
1.73233	-133
1.73600	-136
1.73967	-137
1.74333	-138
1.74700	-143
1.75067	-145
1.75433	-147
1.75800	-151
1.76167	-154
1.76533	-157
1.76900	-156
1.77267	-150
1.77633	-142
1.78000	-133
1.78367	-130
1.78733	-129
1.79100	-129
1.79467	-131
1.79833	-132
1.80200	-131
1.80567	-131
1.80933	-133
1.81300	-136
1.81667	-139
1.82033	-139
1.82400	-131
1.82767	-121
1.83133	-115
1.83500	-113
1.83867	-113
1.84233	-113
1.84600	-115
1.84967	-118
1.85333	-120
1.85700	-119
1.86067	-117
1.86433	-117
1.86800	-120
1.87167	-126
1.87533	-130
1.87900	-130
1.88267	-128
1.88633	-130
1.89000	-134
1.89367	-134
1.89733	-129
1.90100	-123
1.90467	-118
1.90833	-115
1.91200	-115
1.91567	-115
1.91933	-114
1.92300	-117
1.92667	-120
1.93033	-123
1.93400	-125
1.93767	-126
1.94133	-127
1.94500	-126
1.94867	-121
1.95233	-100
1.95600	24
1.95967	744
1.96333	4227
1.96700	17094
1.97067	53478
1.97433	132995
1.97800	268224
1.98167	450521
1.98533	650710
1.98900	833428
1.99267	970430
1.99633	1042863
2.00000	1042270
2.00367	972270
2.00733	848911
2.01100	696793
2.01467	541445
2.01833	402070
2.02200	288393
2.02567	201938
2.02933	139403
2.03300	95719
2.03667	65897
2.04033	45816
2.04400	32373
2.04767	23367
2.05133	17290
2.05500	13140
2.05867	10261
2.06233	8229
2.06600	6759
2.06967	5666
2.07333	4832
2.07700	4185
2.08067	3671
2.08433	3254
2.08800	2912
2.09167	2634
2.09533	2405
2.09900	2209
2.10267	2041
2.10633	1891
2.11000	1757
2.11367	1637
2.11733	1531
2.12100	1439
2.12467	1359
2.12833	1286
2.13200	1216
2.13567	1150
2.13933	1088
2.14300	1032
2.14667	978
2.15033	927
2.15400	881
2.15767	840
2.16133	805
2.16500	774
2.16867	747
2.17233	723
2.17600	700
2.17967	673
2.18333	646
2.18700	618
2.19067	591
2.19433	568
2.19800	549
2.20167	533
2.20533	520
2.20900	507
2.21267	497
2.21633	487
2.22000	476
2.22367	465
2.22733	453
2.23100	438
2.23467	419
2.23833	401
2.24200	389
2.24567	383
2.24933	379
2.25300	373
2.25667	366
2.26033	361
2.26400	356
2.26767	351
2.27133	344
2.27500	336
2.27867	327
2.28233	321
2.28600	317
2.28967	311
2.29333	304
2.29700	297
2.30067	290
2.30433	285
2.30800	280
2.31167	272
2.31533	261
2.31900	251
2.32267	245
2.32633	239
2.33000	231
2.33367	224
2.33733	219
2.34100	222
2.34467	225
2.34833	227
2.35200	228
2.35567	229
2.35933	229
2.36300	227
2.36667	223
2.37033	216
2.37400	208
2.37767	202
2.38133	197
2.38500	194
2.38867	192
2.39233	192
2.39600	194
2.39967	198
2.40333	203
2.40700	206
2.41067	206
2.41433	206
2.41800	205
2.42167	199
2.42533	194
2.42900	191
2.43267	194
2.43633	197
2.44000	201
2.44367	203
2.44733	203
2.45100	201
2.45467	198
2.45833	196
2.46200	196
2.46567	197
2.46933	197
2.47300	196
2.47667	194
2.48033	190
2.48400	183
2.48767	173
2.49133	163
2.49500	157
2.49867	155
2.50233	156
2.50600	156
2.50967	154
2.51333	154
2.51700	158
2.52067	164
2.52433	170
2.52800	173
2.53167	176
2.53533	177
2.53900	177
2.54267	176
2.54633	171
2.55000	164
2.55367	158
2.55733	152
2.56100	148
2.56467	146
2.56833	149
2.57200	154
2.57567	154
2.57933	151
2.58300	149
2.58667	149
2.59033	150
2.59400	150
2.59767	153
2.60133	158
2.60500	164
2.60867	168
2.61233	167
2.61600	164
2.61967	162
2.62333	160
2.62700	155
2.63067	148
2.63433	144
2.63800	143
2.64167	141
2.64533	138
2.64900	135
2.65267	135
2.65633	134
2.66000	130
2.66367	126
2.66733	127
2.67100	130
2.67467	131
2.67833	132
2.68200	132
2.68567	132
2.68933	136
2.69300	142
2.69667	147
2.70033	147
2.70400	147
2.70767	151
2.71133	154
2.71500	156
2.71867	158
2.72233	155
2.72600	151
2.72967	144
2.73333	137
2.73700	130
2.74067	126
2.74433	125
2.74800	128
2.75167	133
2.75533	142
2.75900	151
2.76267	158
2.76633	158
2.77000	153
2.77367	147
2.77733	143
2.78100	144
2.78467	147
2.78833	149
2.79200	153
2.79567	157
2.79933	159
2.80300	161
2.80667	162
2.81033	162
2.81400	163
2.81767	167
2.82133	170
2.82500	168
2.82867	162
2.83233	159
2.83600	159
2.83967	161
2.84333	164
2.84700	162
2.85067	160
2.85433	159
2.85800	158
2.86167	155
2.86533	155
2.86900	157
2.87267	159
2.87633	158
2.88000	155
2.88367	154
2.88733	156
2.89100	156
2.89467	156
2.89833	160
2.90200	168
2.90567	176
2.90933	180
2.91300	178
2.91667	168
2.92033	158
2.92400	155
2.92767	160
2.93133	168
2.93500	174
2.93867	175
2.94233	171
2.94600	167
2.94967	162
2.95333	154
2.95700	146
2.96067	141
2.96433	142
2.96800	148
2.97167	155
2.97533	158
2.97900	158
2.98267	156
2.98633	157
2.99000	158
2.99367	158
2.99733	157
3.00100	155
3.00467	157
3.00833	158
3.01200	159
3.01567	156
3.01933	152
3.02300	151
3.02667	152
3.03033	156
3.03400	159
3.03767	161
3.04133	161
3.04500	159
3.04867	157
3.05233	155
3.05600	151
3.05967	147
3.06333	146
3.06700	149
3.07067	153
3.07433	152
3.07800	149
3.08167	149
3.08533	150
3.08900	147
3.09267	143
3.09633	140
3.10000	141
3.10367	143
3.10733	147
3.11100	154
3.11467	162
3.11833	169
3.12200	173
3.12567	174
3.12933	174
3.13300	172
3.13667	169
3.14033	164
3.14400	156
3.14767	147
3.15133	142
3.15500	143
3.15867	148
3.16233	154
3.16600	153
3.16967	149
3.17333	148
3.17700	148
3.18067	145
3.18433	139
3.18800	134
3.19167	135
3.19533	137
3.19900	141
3.20267	147
3.20633	151
3.21000	151
3.21367	151
3.21733	152
3.22100	149
3.22467	146
3.22833	147
3.23200	148
3.23567	145
3.23933	142
3.24300	139
3.24667	136
3.25033	135
3.25400	137
3.25767	141
3.26133	144
3.26500	145
3.26867	143
3.27233	139
3.27600	136
3.27967	135
3.28333	136
3.28700	140
3.29067	147
3.29433	151
3.29800	150
3.30167	147
3.30533	142
3.30900	137
3.31267	133
3.31633	130
3.32000	126
3.32367	122
3.32733	121
3.33100	121
3.33467	124
3.33833	130
3.34200	138
3.34567	147
3.34933	152
3.35300	152
3.35667	149
3.36033	144
3.36400	139
3.36767	135
3.37133	133
3.37500	131
3.37867	133
3.38233	138
3.38600	140
3.38967	139
3.39333	134
3.39700	132
3.40067	131
3.40433	130
3.40800	128
3.41167	130
3.41533	134
3.41900	138
3.42267	140
3.42633	139
3.43000	136
3.43367	133
3.43733	129
3.44100	126
3.44467	124
3.44833	122
3.45200	122
3.45567	125
3.45933	132
3.46300	135
3.46667	138
3.47033	140
3.47400	141
3.47767	141
3.48133	139
3.48500	134
3.48867	128
3.49233	122
3.49600	117
3.49967	114
3.50333	113
3.50700	115
3.51067	122
3.51433	127
3.51800	129
3.52167	128
3.52533	125
3.52900	120
3.53267	115
3.53633	114
3.54000	115
3.54367	114
3.54733	111
3.55100	109
3.55467	113
3.55833	121
3.56200	127
3.56567	127
3.56933	124
3.57300	119
3.57667	117
3.58033	117
3.58400	118
3.58767	123
3.59133	124
3.59500	125
3.59867	126
3.60233	130
3.60600	132
3.60967	130
3.61333	126
3.61700	120
3.62067	114
3.62433	108
3.62800	102
3.63167	96
3.63533	93
3.63900	95
3.64267	102
3.64633	111
3.65000	115
3.65367	112
3.65733	108
3.66100	107
3.66467	110
3.66833	114
3.67200	116
3.67567	119
3.67933	122
3.68300	122
3.68667	121
3.69033	119
3.69400	117
3.69767	118
3.70133	120
3.70500	119
3.70867	114
3.71233	108
3.71600	106
3.71967	107
3.72333	108
3.72700	107
3.73067	103
3.73433	99
3.73800	95
3.74167	91
3.74533	91
3.74900	96
3.75267	103
3.75633	110
3.76000	115
3.76367	117
3.76733	113
3.77100	106
3.77467	101
3.77833	99
3.78200	97
3.78567	97
3.78933	100
3.79300	101
3.79667	98
3.80033	95
3.80400	94
3.80767	94
3.81133	94
3.81500	90
3.81867	85
3.82233	83
3.82600	81
3.82967	80
3.83333	83
3.83700	89
3.84067	93
3.84433	95
3.84800	95
3.85167	92
3.85533	84
3.85900	75
3.86267	72
3.86633	73
3.87000	77
3.87367	82
3.87733	84
3.88100	87
3.88467	90
3.88833	93
3.89200	96
3.89567	99
3.89933	100
3.90300	100
3.90667	101
3.91033	101
3.91400	97
3.91767	91
3.92133	87
3.92500	84
3.92867	85
3.93233	87
3.93600	88
3.93967	88
3.94333	88
3.94700	88
3.95067	89
3.95433	89
3.95800	86
3.96167	84
3.96533	84
3.96900	85
3.97267	85
3.97633	84
3.98000	86
3.98367	89
3.98733	90
3.99100	89
3.99467	85
3.99833	83

[Chromatogram (Ch2)]
Interval(msec)	220
# of Points	1091
Start Time(min)	0.002
End Time(min)	3.998
R.Time (min)	Intensity
0.00167	0
0.00533	0
0.00900	-0
0.01267	-0
0.01633	-1
0.02000	-1
0.02367	-0
0.02733	-0
0.03100	-0
0.03467	0
0.03833	-0
0.04200	-0
0.04567	-0
0.04933	-0
0.05300	-0
0.05667	-1
0.06033	-1
0.06400	-1
0.06767	-1
0.07133	-2
0.07500	-2
0.07867	-2
0.08233	-2
0.08600	-2
0.08967	-1
0.09333	-1
0.09700	-1
0.10067	-0
0.10433	-0
0.10800	0
0.11167	0
0.11533	0
0.11900	0
0.12267	0
0.12633	0
0.13000	0
0.13367	0
0.13733	-0
0.14100	-0
0.14467	-0
0.14833	-0
0.15200	-1
0.15567	-1
0.15933	-1
0.16300	-2
0.16667	-2
0.17033	-1
0.17400	-1
0.17767	-1
0.18133	-1
0.18500	-1
0.18867	-1
0.19233	-1
0.19600	-1
0.19967	-1
0.20333	-1
0.20700	-1
0.21067	-1
0.21433	-2
0.21800	-2
0.22167	-1
0.22533	-1
0.22900	-1
0.23267	-1
0.23633	-1
0.24000	-1
0.24367	-1
0.24733	-1
0.25100	-1
0.25467	-1
0.25833	-1
0.26200	-1
0.26567	-2
0.26933	-2
0.27300	-2
0.27667	-3
0.28033	-3
0.28400	-3
0.28767	-3
0.29133	-3
0.29500	-3
0.29867	-3
0.30233	-3
0.30600	-3
0.30967	-3
0.31333	-3
0.31700	-3
0.32067	-3
0.32433	-2
0.32800	-2
0.33167	-2
0.33533	-3
0.33900	-3
0.34267	-3
0.34633	-3
0.35000	-3
0.35367	-3
0.35733	-3
0.36100	-3
0.36467	-3
0.36833	-3
0.37200	-3
0.37567	-3
0.37933	-3
0.38300	-3
0.38667	-3
0.39033	-3
0.39400	-2
0.39767	-2
0.40133	-2
0.40500	-2
0.40867	-2
0.41233	-2
0.41600	-1
0.41967	-1
0.42333	-2
0.42700	-2
0.43067	-2
0.43433	-3
0.43800	-3
0.44167	-3
0.44533	-3
0.44900	-3
0.45267	-4
0.45633	-4
0.46000	-4
0.46367	-4
0.46733	-4
0.47100	-3
0.47467	-3
0.47833	-3
0.48200	-3
0.48567	-3
0.48933	-3
0.49300	-3
0.49667	-3
0.50033	-3
0.50400	-3
0.50767	-3
0.51133	-3
0.51500	-3
0.51867	-3
0.52233	-3
0.52600	-3
0.52967	-3
0.53333	-2
0.53700	-2
0.54067	-2
0.54433	-2
0.54800	-2
0.55167	-2
0.55533	-2
0.55900	-2
0.56267	-2
0.56633	-2
0.57000	-2
0.57367	-1
0.57733	-1
0.58100	-1
0.58467	-1
0.58833	-1
0.59200	-1
0.59567	-1
0.59933	-1
0.60300	-1
0.60667	-2
0.61033	-2
0.61400	-2
0.61767	-2
0.62133	-2
0.62500	-2
0.62867	-2
0.63233	-2
0.63600	-2
0.63967	-2
0.64333	-2
0.64700	-2
0.65067	-2
0.65433	-2
0.65800	-2
0.66167	-3
0.66533	-3
0.66900	-3
0.67267	-3
0.67633	-3
0.68000	-3
0.68367	-4
0.68733	-4
0.69100	-4
0.69467	-4
0.69833	-4
0.70200	-3
0.70567	-3
0.70933	-3
0.71300	-2
0.71667	-2
0.72033	-2
0.72400	-2
0.72767	-2
0.73133	-3
0.73500	-3
0.73867	-3
0.74233	-3
0.74600	-3
0.74967	-3
0.75333	-3
0.75700	-3
0.76067	-3
0.76433	-3
0.76800	-3
0.77167	-3
0.77533	-3
0.77900	-3
0.78267	-3
0.78633	-3
0.79000	-3
0.79367	-3
0.79733	-3
0.80100	-3
0.80467	-3
0.80833	-2
0.81200	-2
0.81567	-2
0.81933	-2
0.82300	-2
0.82667	-2
0.83033	-2
0.83400	-2
0.83767	-2
0.84133	-2
0.84500	-2
0.84867	-2
0.85233	-2
0.85600	-2
0.85967	-2
0.86333	-2
0.86700	-2
0.87067	-2
0.87433	-3
0.87800	-3
0.88167	-3
0.88533	-3
0.88900	-3
0.89267	-4
0.89633	-4
0.90000	-4
0.90367	-4
0.90733	-4
0.91100	-4
0.91467	-3
0.91833	-3
0.92200	-3
0.92567	-4
0.92933	-4
0.93300	-4
0.93667	-4
0.94033	-3
0.94400	-3
0.94767	-3
0.95133	-3
0.95500	-3
0.95867	-3
0.96233	-3
0.96600	-3
0.96967	-3
0.97333	-3
0.97700	-3
0.98067	-3
0.98433	-3
0.98800	-3
0.99167	-3
0.99533	-3
0.99900	-3
1.00267	-3
1.00633	-3
1.01000	-3
1.01367	-4
1.01733	-4
1.02100	-4
1.02467	-4
1.02833	-4
1.03200	-4
1.03567	-3
1.03933	-3
1.04300	-3
1.04667	-3
1.05033	-3
1.05400	-3
1.05767	-3
1.06133	-3
1.06500	-3
1.06867	-3
1.07233	-3
1.07600	-3
1.07967	-3
1.08333	-3
1.08700	-3
1.09067	-4
1.09433	-4
1.09800	-5
1.10167	-5
1.10533	-5
1.10900	-5
1.11267	-5
1.11633	-5
1.12000	-6
1.12367	-6
1.12733	-6
1.13100	-6
1.13467	-6
1.13833	-6
1.14200	-6
1.14567	-5
1.14933	-5
1.15300	-5
1.15667	-5
1.16033	-4
1.16400	-4
1.16767	-4
1.17133	-4
1.17500	-4
1.17867	-4
1.18233	-4
1.18600	-4
1.18967	-4
1.19333	-4
1.19700	-4
1.20067	-4
1.20433	-3
1.20800	-3
1.21167	-3
1.21533	-3
1.21900	-3
1.22267	-3
1.22633	-2
1.23000	-2
1.23367	-2
1.23733	-2
1.24100	-2
1.24467	-2
1.24833	-2
1.25200	-2
1.25567	-2
1.25933	-2
1.26300	-2
1.26667	-2
1.27033	-2
1.27400	-3
1.27767	-3
1.28133	-3
1.28500	-3
1.28867	-3
1.29233	-3
1.29600	-3
1.29967	-3
1.30333	-3
1.30700	-3
1.31067	-3
1.31433	-3
1.31800	-3
1.32167	-3
1.32533	-3
1.32900	-3
1.33267	-3
1.33633	-3
1.34000	-3
1.34367	-3
1.34733	-3
1.35100	-3
1.35467	-3
1.35833	-3
1.36200	-4
1.36567	-4
1.36933	-4
1.37300	-4
1.37667	-5
1.38033	-5
1.38400	-5
1.38767	-5
1.39133	-5
1.39500	-5
1.39867	-5
1.40233	-5
1.40600	-5
1.40967	-5
1.41333	-5
1.41700	-5
1.42067	-5
1.42433	-6
1.42800	-6
1.43167	-6
1.43533	-7
1.43900	-7
1.44267	-8
1.44633	-8
1.45000	-8
1.45367	-8
1.45733	-8
1.46100	-8
1.46467	-8
1.46833	-8
1.47200	-8
1.47567	-7
1.47933	-7
1.48300	-7
1.48667	-7
1.49033	-6
1.49400	-6
1.49767	-6
1.50133	-5
1.50500	-5
1.50867	-5
1.51233	-4
1.51600	-4
1.51967	-4
1.52333	-4
1.52700	-4
1.53067	-4
1.53433	-4
1.53800	-3
1.54167	-3
1.54533	-3
1.54900	-3
1.55267	-2
1.55633	-2
1.56000	-2
1.56367	-1
1.56733	-1
1.57100	-1
1.57467	-1
1.57833	-1
1.58200	-1
1.58567	-1
1.58933	-1
1.59300	-1
1.59667	-2
1.60033	-2
1.60400	-3
1.60767	-4
1.61133	-6
1.61500	-8
1.61867	-10
1.62233	-12
1.62600	-15
1.62967	-18
1.63333	-22
1.63700	-26
1.64067	-29
1.64433	-33
1.64800	-37
1.65167	-41
1.65533	-45
1.65900	-49
1.66267	-54
1.66633	-59
1.67000	-64
1.67367	-70
1.67733	-75
1.68100	-81
1.68467	-86
1.68833	-92
1.69200	-96
1.69567	-100
1.69933	-103
1.70300	-105
1.70667	-107
1.71033	-108
1.71400	-109
1.71767	-110
1.72133	-111
1.72500	-112
1.72867	-113
1.73233	-114
1.73600	-115
1.73967	-115
1.74333	-115
1.74700	-115
1.75067	-115
1.75433	-115
1.75800	-115
1.76167	-116
1.76533	-117
1.76900	-118
1.77267	-118
1.77633	-119
1.78000	-120
1.78367	-121
1.78733	-121
1.79100	-122
1.79467	-123
1.79833	-124
1.80200	-124
1.80567	-125
1.80933	-125
1.81300	-125
1.81667	-125
1.82033	-124
1.82400	-123
1.82767	-122
1.83133	-121
1.83500	-120
1.83867	-119
1.84233	-119
1.84600	-119
1.84967	-120
1.85333	-121
1.85700	-121
1.86067	-122
1.86433	-123
1.86800	-123
1.87167	-123
1.87533	-124
1.87900	-124
1.88267	-124
1.88633	-124
1.89000	-124
1.89367	-124
1.89733	-124
1.90100	-123
1.90467	-123
1.90833	-123
1.91200	-123
1.91567	-123
1.91933	-122
1.92300	-122
1.92667	-122
1.93033	-122
1.93400	-123
1.93767	-123
1.94133	-122
1.94500	-122
1.94867	-122
1.95233	-121
1.95600	-121
1.95967	-121
1.96333	-120
1.96700	-120
1.97067	-119
1.97433	-119
1.97800	-119
1.98167	-119
1.98533	-118
1.98900	-118
1.99267	-118
1.99633	-117
2.00000	-117
2.00367	-116
2.00733	-116
2.01100	-115
2.01467	-114
2.01833	-114
2.02200	-113
2.02567	-113
2.02933	-112
2.03300	-111
2.03667	-111
2.04033	-111
2.04400	-111
2.04767	-111
2.05133	-112
2.05500	-112
2.05867	-112
2.06233	-112
2.06600	-112
2.06967	-112
2.07333	-112
2.07700	-112
2.08067	-111
2.08433	-111
2.08800	-110
2.09167	-110
2.09533	-109
2.09900	-109
2.10267	-108
2.10633	-108
2.11000	-107
2.11367	-107
2.11733	-107
2.12100	-106
2.12467	-106
2.12833	-106
2.13200	-106
2.13567	-106
2.13933	-105
2.14300	-105
2.14667	-104
2.15033	-104
2.15400	-103
2.15767	-103
2.16133	-103
2.16500	-103
2.16867	-103
2.17233	-103
2.17600	-103
2.17967	-103
2.18333	-103
2.18700	-102
2.19067	-101
2.19433	-101
2.19800	-100
2.20167	-99
2.20533	-99
2.20900	-98
2.21267	-98
2.21633	-98
2.22000	-98
2.22367	-98
2.22733	-97
2.23100	-97
2.23467	-96
2.23833	-96
2.24200	-95
2.24567	-95
2.24933	-95
2.25300	-95
2.25667	-94
2.26033	-94
2.26400	-93
2.26767	-93
2.27133	-92
2.27500	-92
2.27867	-92
2.28233	-92
2.28600	-92
2.28967	-93
2.29333	-93
2.29700	-95
2.30067	-96
2.30433	-98
2.30800	-99
2.31167	-100
2.31533	-100
2.31900	-100
2.32267	-99
2.32633	-98
2.33000	-97
2.33367	-95
2.33733	-94
2.34100	-93
2.34467	-91
2.34833	-90
2.35200	-89
2.35567	-88
2.35933	-87
2.36300	-86
2.36667	-85
2.37033	-84
2.37400	-82
2.37767	-79
2.38133	-76
2.38500	-72
2.38867	-68
2.39233	-64
2.39600	-60
2.39967	-55
2.40333	-50
2.40700	-45
2.41067	-40
2.41433	-35
2.41800	-31
2.42167	-28
2.42533	-24
2.42900	-22
2.43267	-19
2.43633	-17
2.44000	-15
2.44367	-13
2.44733	-11
2.45100	-9
2.45467	-8
2.45833	-6
2.46200	-5
2.46567	-4
2.46933	-2
2.47300	-1
2.47667	0
2.48033	1
2.48400	2
2.48767	2
2.49133	3
2.49500	3
2.49867	4
2.50233	4
2.50600	5
2.50967	6
2.51333	7
2.51700	8
2.52067	8
2.52433	8
2.52800	8
2.53167	9
2.53533	9
2.53900	9
2.54267	10
2.54633	10
2.55000	11
2.55367	11
2.55733	11
2.56100	11
2.56467	11
2.56833	11
2.57200	11
2.57567	12
2.57933	12
2.58300	13
2.58667	13
2.59033	14
2.59400	14
2.59767	14
2.60133	14
2.60500	15
2.60867	15
2.61233	16
2.61600	16
2.61967	17
2.62333	17
2.62700	17
2.63067	18
2.63433	18
2.63800	18
2.64167	18
2.64533	18
2.64900	18
2.65267	17
2.65633	17
2.66000	17
2.66367	16
2.66733	16
2.67100	16
2.67467	16
2.67833	16
2.68200	16
2.68567	16
2.68933	17
2.69300	17
2.69667	18
2.70033	19
2.70400	20
2.70767	21
2.71133	21
2.71500	22
2.71867	22
2.72233	22
2.72600	23
2.72967	23
2.73333	23
2.73700	23
2.74067	23
2.74433	23
2.74800	22
2.75167	22
2.75533	22
2.75900	22
2.76267	22
2.76633	22
2.77000	23
2.77367	23
2.77733	23
2.78100	24
2.78467	24
2.78833	24
2.79200	24
2.79567	24
2.79933	24
2.80300	24
2.80667	24
2.81033	24
2.81400	24
2.81767	24
2.82133	24
2.82500	24
2.82867	24
2.83233	24
2.83600	23
2.83967	23
2.84333	21
2.84700	18
2.85067	12
2.85433	4
2.85800	-7
2.86167	-23
2.86533	-43
2.86900	-68
2.87267	-98
2.87633	-133
2.88000	-174
2.88367	-219
2.88733	-270
2.89100	-325
2.89467	-384
2.89833	-447
2.90200	-514
2.90567	-583
2.90933	-655
2.91300	-730
2.91667	-807
2.92033	-886
2.92400	-968
2.92767	-1051
2.93133	-1136
2.93500	-1222
2.93867	-1310
2.94233	-1397
2.94600	-1475
2.94967	-1533
2.95333	-1559
2.95700	-1549
2.96067	-1506
2.96433	-1434
2.96800	-1342
2.97167	-1236
2.97533	-1124
2.97900	-1012
2.98267	-902
2.98633	-798
2.99000	-702
2.99367	-614
2.99733	-534
3.00100	-463
3.00467	-399
3.00833	-344
3.01200	-295
3.01567	-253
3.01933	-216
3.02300	-184
3.02667	-156
3.03033	-133
3.03400	-113
3.03767	-95
3.04133	-81
3.04500	-68
3.04867	-57
3.05233	-48
3.05600	-40
3.05967	-33
3.06333	-28
3.06700	-23
3.07067	-18
3.07433	-14
3.07800	-11
3.08167	-9
3.08533	-6
3.08900	-4
3.09267	-2
3.09633	-1
3.10000	0
3.10367	1
3.10733	2
3.11100	4
3.11467	4
3.11833	5
3.12200	6
3.12567	7
3.12933	8
3.13300	8
3.13667	9
3.14033	9
3.14400	10
3.14767	10
3.15133	11
3.15500	11
3.15867	12
3.16233	12
3.16600	13
3.16967	13
3.17333	13
3.17700	14
3.18067	14
3.18433	15
3.18800	15
3.19167	15
3.19533	15
3.19900	15
3.20267	15
3.20633	15
3.21000	15
3.21367	15
3.21733	15
3.22100	15
3.22467	15
3.22833	15
3.23200	15
3.23567	16
3.23933	16
3.24300	16
3.24667	16
3.25033	16
3.25400	16
3.25767	17
3.26133	17
3.26500	17
3.26867	18
3.27233	18
3.27600	18
3.27967	19
3.28333	19
3.28700	19
3.29067	20
3.29433	20
3.29800	20
3.30167	21
3.30533	21
3.30900	21
3.31267	21
3.31633	22
3.32000	22
3.32367	22
3.32733	22
3.33100	22
3.33467	22
3.33833	22
3.34200	22
3.34567	22
3.34933	22
3.35300	22
3.35667	22
3.36033	22
3.36400	22
3.36767	22
3.37133	22
3.37500	23
3.37867	23
3.38233	23
3.38600	23
3.38967	23
3.39333	23
3.39700	24
3.40067	24
3.40433	24
3.40800	25
3.41167	25
3.41533	25
3.41900	25
3.42267	25
3.42633	24
3.43000	24
3.43367	24
3.43733	24
3.44100	24
3.44467	24
3.44833	24
3.45200	24
3.45567	24
3.45933	24
3.46300	24
3.46667	24
3.47033	24
3.47400	24
3.47767	24
3.48133	24
3.48500	24
3.48867	24
3.49233	24
3.49600	24
3.49967	24
3.50333	24
3.50700	24
3.51067	24
3.51433	24
3.51800	24
3.52167	24
3.52533	24
3.52900	23
3.53267	23
3.53633	23
3.54000	23
3.54367	23
3.54733	23
3.55100	23
3.55467	23
3.55833	23
3.56200	23
3.56567	24
3.56933	24
3.57300	24
3.57667	24
3.58033	24
3.58400	24
3.58767	24
3.59133	24
3.59500	24
3.59867	24
3.60233	24
3.60600	24
3.60967	24
3.61333	24
3.61700	24
3.62067	24
3.62433	24
3.62800	24
3.63167	24
3.63533	24
3.63900	24
3.64267	24
3.64633	24
3.65000	24
3.65367	24
3.65733	24
3.66100	24
3.66467	24
3.66833	24
3.67200	24
3.67567	24
3.67933	24
3.68300	24
3.68667	24
3.69033	24
3.69400	24
3.69767	25
3.70133	25
3.70500	25
3.70867	25
3.71233	25
3.71600	25
3.71967	25
3.72333	25
3.72700	25
3.73067	25
3.73433	24
3.73800	24
3.74167	24
3.74533	24
3.74900	24
3.75267	24
3.75633	24
3.76000	24
3.76367	24
3.76733	24
3.77100	25
3.77467	25
3.77833	25
3.78200	25
3.78567	25
3.78933	25
3.79300	25
3.79667	25
3.80033	25
3.80400	25
3.80767	25
3.81133	25
3.81500	25
3.81867	25
3.82233	25
3.82600	25
3.82967	25
3.83333	25
3.83700	25
3.84067	25
3.84433	25
3.84800	24
3.85167	24
3.85533	24
3.85900	24
3.86267	24
3.86633	23
3.87000	23
3.87367	23
3.87733	23
3.88100	23
3.88467	23
3.88833	23
3.89200	23
3.89567	23
3.89933	23
3.90300	23
3.90667	23
3.91033	23
3.91400	24
3.91767	24
3.92133	24
3.92500	24
3.92867	24
3.93233	24
3.93600	24
3.93967	23
3.94333	23
3.94700	23
3.95067	23
3.95433	23
3.95800	23
3.96167	23
3.96533	23
3.96900	23
3.97267	23
3.97633	23
3.98000	23
3.98367	23
3.98733	23
3.99100	23
3.99467	23
3.99833	23

[Chromatogram (Ch3)]
Interval(msec)	220
# of Points	1091
Start Time(min)	0.002
End Time(min)	3.998
R.Time (min)	Intensity
0.00167	-1
0.00533	-3
0.00900	-3
0.01267	-3
0.01633	-3
0.02000	-2
0.02367	-2
0.02733	-1
0.03100	-2
0.03467	-3
0.03833	-2
0.04200	0
0.04567	1
0.04933	0
0.05300	1
0.05667	1
0.06033	4
0.06400	8
0.06767	8
0.07133	5
0.07500	2
0.07867	1
0.08233	0
0.08600	1
0.08967	-0
0.09333	-1
0.09700	1
0.10067	2
0.10433	1
0.10800	0
0.11167	0
0.11533	-1
0.11900	-4
0.12267	-7
0.12633	-5
0.13000	-4
0.13367	-4
0.13733	-2
0.14100	-2
0.14467	-3
0.14833	-2
0.15200	-0
0.15567	1
0.15933	3
0.16300	3
0.16667	2
0.17033	2
0.17400	1
0.17767	1
0.18133	0
0.18500	-0
0.18867	-1
0.19233	-2
0.19600	-3
0.19967	-3
0.20333	-2
0.20700	-2
0.21067	-5
0.21433	-6
0.21800	-5
0.22167	-2
0.22533	-2
0.22900	-2
0.23267	-3
0.23633	-4
0.24000	-4
0.24367	-5
0.24733	-4
0.25100	-0
0.25467	-0
0.25833	-1
0.26200	0
0.26567	2
0.26933	0
0.27300	-3
0.27667	-3
0.28033	-3
0.28400	0
0.28767	1
0.29133	1
0.29500	-1
0.29867	-2
0.30233	-3
0.30600	-4
0.30967	-5
0.31333	-4
0.31700	-4
0.32067	-6
0.32433	-7
0.32800	-7
0.33167	-7
0.33533	-6
0.33900	-6
0.34267	-5
0.34633	-5
0.35000	-5
0.35367	-5
0.35733	-6
0.36100	-5
0.36467	-4
0.36833	-3
0.37200	-3
0.37567	-3
0.37933	-1
0.38300	-1
0.38667	-4
0.39033	-6
0.39400	-5
0.39767	-2
0.40133	-2
0.40500	-3
0.40867	-3
0.41233	-2
0.41600	-3
0.41967	-5
0.42333	-5
0.42700	-3
0.43067	-1
0.43433	-1
0.43800	-3
0.44167	-5
0.44533	-4
0.44900	-3
0.45267	-1
0.45633	-1
0.46000	-4
0.46367	-7
0.46733	-9
0.47100	-9
0.47467	-6
0.47833	-4
0.48200	-4
0.48567	-2
0.48933	-1
0.49300	-2
0.49667	-2
0.50033	-1
0.50400	-1
0.50767	-2
0.51133	-3
0.51500	-2
0.51867	-3
0.52233	-4
0.52600	-4
0.52967	-2
0.53333	-1
0.53700	-2
0.54067	-3
0.54433	-1
0.54800	-1
0.55167	-2
0.55533	-5
0.55900	-5
0.56267	-6
0.56633	-7
0.57000	-7
0.57367	-7
0.57733	-5
0.58100	-5
0.58467	-6
0.58833	-6
0.59200	-5
0.59567	-4
0.59933	-6
0.60300	-7
0.60667	-6
0.61033	-5
0.61400	-3
0.61767	-3
0.62133	-7
0.62500	-11
0.62867	-12
0.63233	-11
0.63600	-9
0.63967	-7
0.64333	-6
0.64700	-6
0.65067	-7
0.65433	-7
0.65800	-8
0.66167	-8
0.66533	-7
0.66900	-5
0.67267	-4
0.67633	-4
0.68000	-5
0.68367	-6
0.68733	-5
0.69100	-5
0.69467	-4
0.69833	-3
0.70200	-4
0.70567	-4
0.70933	-2
0.71300	-1
0.71667	-1
0.72033	-1
0.72400	-2
0.72767	-1
0.73133	-1
0.73500	1
0.73867	0
0.74233	-1
0.74600	-1
0.74967	-0
0.75333	-2
0.75700	-4
0.76067	-4
0.76433	-2
0.76800	-3
0.77167	-2
0.77533	-1
0.77900	-4
0.78267	-6
0.78633	-8
0.79000	-8
0.79367	-7
0.79733	-8
0.80100	-7
0.80467	-6
0.80833	-5
0.81200	-6
0.81567	-9
0.81933	-10
0.82300	-11
0.82667	-10
0.83033	-9
0.83400	-7
0.83767	-6
0.84133	-8
0.84500	-10
0.84867	-10
0.85233	-11
0.85600	-11
0.85967	-12
0.86333	-12
0.86700	-11
0.87067	-8
0.87433	-7
0.87800	-8
0.88167	-6
0.88533	-4
0.88900	-5
0.89267	-4
0.89633	-4
0.90000	-4
0.90367	-6
0.90733	-7
0.91100	-7
0.91467	-6
0.91833	-6
0.92200	-6
0.92567	-7
0.92933	-7
0.93300	-7
0.93667	-7
0.94033	-8
0.94400	-8
0.94767	-7
0.95133	-8
0.95500	-7
0.95867	-6
0.96233	-6
0.96600	-4
0.96967	-5
0.97333	-6
0.97700	-8
0.98067	-8
0.98433	-8
0.98800	-9
0.99167	-12
0.99533	-15
0.99900	-15
1.00267	-15
1.00633	-13
1.01000	-12
1.01367	-12
1.01733	-12
1.02100	-11
1.02467	-10
1.02833	-7
1.03200	-5
1.03567	-4
1.03933	-2
1.04300	-1
1.04667	-2
1.05033	-3
1.05400	-4
1.05767	-4
1.06133	-2
1.06500	-1
1.06867	-1
1.07233	-1
1.07600	-1
1.07967	-3
1.08333	-3
1.08700	-3
1.09067	-6
1.09433	-8
1.09800	-6
1.10167	-6
1.10533	-7
1.10900	-6
1.11267	-6
1.11633	-5
1.12000	-4
1.12367	-3
1.12733	-0
1.13100	-1
1.13467	-3
1.13833	-6
1.14200	-9
1.14567	-10
1.14933	-10
1.15300	-9
1.15667	-9
1.16033	-11
1.16400	-10
1.16767	-10
1.17133	-10
1.17500	-9
1.17867	-8
1.18233	-7
1.18600	-5
1.18967	-5
1.19333	-3
1.19700	-3
1.20067	-3
1.20433	-5
1.20800	-5
1.21167	-6
1.21533	-8
1.21900	-8
1.22267	-10
1.22633	-9
1.23000	-9
1.23367	-9
1.23733	-10
1.24100	-10
1.24467	-10
1.24833	-11
1.25200	-12
1.25567	-13
1.25933	-13
1.26300	-14
1.26667	-14
1.27033	-15
1.27400	-14
1.27767	-12
1.28133	-11
1.28500	-12
1.28867	-14
1.29233	-14
1.29600	-11
1.29967	-11
1.30333	-12
1.30700	-15
1.31067	-18
1.31433	-16
1.31800	-13
1.32167	-9
1.32533	-8
1.32900	-8
1.33267	-9
1.33633	-10
1.34000	-9
1.34367	-7
1.34733	-6
1.35100	-6
1.35467	-7
1.35833	-8
1.36200	-10
1.36567	-13
1.36933	-15
1.37300	-15
1.37667	-12
1.38033	-10
1.38400	-9
1.38767	-9
1.39133	-10
1.39500	-10
1.39867	-10
1.40233	-9
1.40600	-8
1.40967	-7
1.41333	-6
1.41700	-6
1.42067	-5
1.42433	-5
1.42800	-6
1.43167	-7
1.43533	-8
1.43900	-11
1.44267	-12
1.44633	-12
1.45000	-10
1.45367	-8
1.45733	-8
1.46100	-9
1.46467	-10
1.46833	-10
1.47200	-8
1.47567	-8
1.47933	-9
1.48300	-10
1.48667	-10
1.49033	-8
1.49400	-8
1.49767	-9
1.50133	-11
1.50500	-11
1.50867	-10
1.51233	-6
1.51600	-5
1.51967	-6
1.52333	-7
1.52700	-9
1.53067	-9
1.53433	-8
1.53800	-7
1.54167	-8
1.54533	-9
1.54900	-10
1.55267	-12
1.55633	-12
1.56000	-12
1.56367	-12
1.56733	-12
1.57100	-11
1.57467	-10
1.57833	-10
1.58200	-10
1.58567	-10
1.58933	-9
1.59300	-9
1.59667	-6
1.60033	-6
1.60400	-7
1.60767	-9
1.61133	-10
1.61500	-12
1.61867	-13
1.62233	-13
1.62600	-14
1.62967	-15
1.63333	-14
1.63700	-14
1.64067	-13
1.64433	-12
1.64800	-13
1.65167	-13
1.65533	-11
1.65900	-10
1.66267	-7
1.66633	-4
1.67000	-3
1.67367	-3
1.67733	-2
1.68100	-1
1.68467	-1
1.68833	0
1.69200	1
1.69567	1
1.69933	-2
1.70300	-3
1.70667	-2
1.71033	-0
1.71400	-0
1.71767	-1
1.72133	-2
1.72500	-2
1.72867	-1
1.73233	2
1.73600	3
1.73967	3
1.74333	3
1.74700	4
1.75067	7
1.75433	9
1.75800	8
1.76167	6
1.76533	6
1.76900	7
1.77267	4
1.77633	1
1.78000	0
1.78367	2
1.78733	5
1.79100	7
1.79467	8
1.79833	8
1.80200	6
1.80567	4
1.80933	2
1.81300	2
1.81667	4
1.82033	7
1.82400	7
1.82767	8
1.83133	9
1.83500	11
1.83867	12
1.84233	12
1.84600	12
1.84967	14
1.85333	14
1.85700	14
1.86067	13
1.86433	11
1.86800	10
1.87167	10
1.87533	11
1.87900	15
1.88267	17
1.88633	18
1.89000	18
1.89367	17
1.89733	18
1.90100	20
1.90467	19
1.90833	18
1.91200	19
1.91567	19
1.91933	19
1.92300	19
1.92667	21
1.93033	23
1.93400	25
1.93767	27
1.94133	30
1.94500	31
1.94867	32
1.95233	31
1.95600	30
1.95967	30
1.96333	30
1.96700	30
1.97067	31
1.97433	31
1.97800	30
1.98167	31
1.98533	34
1.98900	36
1.99267	37
1.99633	36
2.00000	36
2.00367	36
2.00733	38
2.01100	41
2.01467	44
2.01833	47
2.02200	49
2.02567	46
2.02933	44
2.03300	43
2.03667	41
2.04033	40
2.04400	39
2.04767	39
2.05133	39
2.05500	41
2.05867	44
2.06233	46
2.06600	47
2.06967	49
2.07333	51
2.07700	51
2.08067	54
2.08433	57
2.08800	57
2.09167	57
2.09533	55
2.09900	54
2.10267	53
2.10633	55
2.11000	58
2.11367	60
2.11733	61
2.12100	61
2.12467	62
2.12833	63
2.13200	65
2.13567	67
2.13933	67
2.14300	68
2.14667	69
2.15033	71
2.15400	72
2.15767	71
2.16133	71
2.16500	70
2.16867	69
2.17233	71
2.17600	72
2.17967	71
2.18333	72
2.18700	74
2.19067	76
2.19433	78
2.19800	80
2.20167	80
2.20533	81
2.20900	83
2.21267	84
2.21633	86
2.22000	90
2.22367	93
2.22733	95
2.23100	95
2.23467	93
2.23833	93
2.24200	93
2.24567	94
2.24933	94
2.25300	93
2.25667	94
2.26033	94
2.26400	94
2.26767	95
2.27133	98
2.27500	102
2.27867	105
2.28233	106
2.28600	108
2.28967	109
2.29333	109
2.29700	109
2.30067	110
2.30433	112
2.30800	112
2.31167	113
2.31533	112
2.31900	111
2.32267	111
2.32633	111
2.33000	112
2.33367	111
2.33733	111
2.34100	113
2.34467	114
2.34833	117
2.35200	118
2.35567	120
2.35933	122
2.36300	123
2.36667	124
2.37033	126
2.37400	126
2.37767	127
2.38133	129
2.38500	132
2.38867	134
2.39233	134
2.39600	133
2.39967	134
2.40333	133
2.40700	134
2.41067	136
2.41433	138
2.41800	139
2.42167	139
2.42533	139
2.42900	141
2.43267	144
2.43633	145
2.44000	144
2.44367	150
2.44733	171
2.45100	196
2.45467	217
2.45833	228
2.46200	238
2.46567	249
2.46933	261
2.47300	271
2.47667	277
2.48033	283
2.48400	289
2.48767	297
2.49133	307
2.49500	317
2.49867	330
2.50233	344
2.50600	356
2.50967	366
2.51333	376
2.51700	387
2.52067	393
2.52433	395
2.52800	396
2.53167	398
2.53533	404
2.53900	408
2.54267	412
2.54633	415
2.55000	421
2.55367	429
2.55733	436
2.56100	443
2.56467	449
2.56833	451
2.57200	453
2.57567	457
2.57933	462
2.58300	467
2.58667	470
2.59033	471
2.59400	470
2.59767	463
2.60133	451
2.60500	431
2.60867	404
2.61233	372
2.61600	335
2.61967	297
2.62333	261
2.62700	229
2.63067	202
2.63433	179
2.63800	162
2.64167	149
2.64533	141
2.64900	137
2.65267	138
2.65633	143
2.66000	150
2.66367	159
2.66733	168
2.67100	178
2.67467	188
2.67833	199
2.68200	207
2.68567	215
2.68933	223
2.69300	232
2.69667	244
2.70033	253
2.70400	262
2.70767	272
2.71133	280
2.71500	288
2.71867	294
2.72233	301
2.72600	308
2.72967	314
2.73333	317
2.73700	318
2.74067	322
2.74433	326
2.74800	327
2.75167	329
2.75533	328
2.75900	329
2.76267	330
2.76633	332
2.77000	335
2.77367	337
2.77733	337
2.78100	336
2.78467	337
2.78833	338
2.79200	341
2.79567	343
2.79933	346
2.80300	348
2.80667	347
2.81033	345
2.81400	347
2.81767	354
2.82133	376
2.82500	429
2.82867	548
2.83233	786
2.83600	1214
2.83967	1900
2.84333	2890
2.84700	4200
2.85067	5804
2.85433	7632
2.85800	9572
2.86167	11481
2.86533	13221
2.86900	14664
2.87267	15704
2.87633	16294
2.88000	16431
2.88367	16164
2.88733	15563
2.89100	14709
2.89467	13698
2.89833	12596
2.90200	11464
2.90567	10349
2.90933	9285
2.91300	8289
2.91667	7370
2.92033	6532
2.92400	5776
2.92767	5095
2.93133	4490
2.93500	3955
2.93867	3481
2.94233	3065
2.94600	2701
2.94967	2386
2.95333	2108
2.95700	1865
2.96067	1654
2.96433	1472
2.96800	1314
2.97167	1177
2.97533	1060
2.97900	960
2.98267	873
2.98633	798
2.99000	733
2.99367	677
2.99733	631
3.00100	591
3.00467	555
3.00833	527
3.01200	501
3.01567	475
3.01933	455
3.02300	438
3.02667	421
3.03033	406
3.03400	394
3.03767	384
3.04133	373
3.04500	366
3.04867	359
3.05233	356
3.05600	354
3.05967	352
3.06333	349
3.06700	346
3.07067	342
3.07433	339
3.07800	336
3.08167	335
3.08533	335
3.08900	334
3.09267	334
3.09633	334
3.10000	334
3.10367	332
3.10733	329
3.11100	327
3.11467	327
3.11833	327
3.12200	326
3.12567	325
3.12933	322
3.13300	320
3.13667	319
3.14033	319
3.14400	318
3.14767	316
3.15133	316
3.15500	316
3.15867	315
3.16233	314
3.16600	312
3.16967	310
3.17333	306
3.17700	305
3.18067	306
3.18433	308
3.18800	308
3.19167	308
3.19533	308
3.19900	308
3.20267	307
3.20633	306
3.21000	303
3.21367	300
3.21733	298
3.22100	295
3.22467	294
3.22833	292
3.23200	291
3.23567	291
3.23933	289
3.24300	287
3.24667	286
3.25033	289
3.25400	291
3.25767	291
3.26133	292
3.26500	289
3.26867	286
3.27233	283
3.27600	281
3.27967	278
3.28333	279
3.28700	279
3.29067	278
3.29433	276
3.29800	274
3.30167	270
3.30533	266
3.30900	264
3.31267	262
3.31633	258
3.32000	255
3.32367	255
3.32733	254
3.33100	254
3.33467	253
3.33833	252
3.34200	248
3.34567	244
3.34933	244
3.35300	243
3.35667	243
3.36033	241
3.36400	240
3.36767	239
3.37133	237
3.37500	234
3.37867	231
3.38233	229
3.38600	231
3.38967	234
3.39333	233
3.39700	232
3.40067	232
3.40433	231
3.40800	229
3.41167	226
3.41533	222
3.41900	220
3.42267	217
3.42633	218
3.43000	218
3.43367	218
3.43733	219
3.44100	218
3.44467	216
3.44833	213
3.45200	211
3.45567	207
3.45933	203
3.46300	200
3.46667	200
3.47033	201
3.47400	201
3.47767	199
3.48133	199
3.48500	201
3.48867	202
3.49233	199
3.49600	198
3.49967	198
3.50333	194
3.50700	192
3.51067	191
3.51433	188
3.51800	186
3.52167	185
3.52533	183
3.52900	178
3.53267	175
3.53633	177
3.54000	179
3.54367	181
3.54733	181
3.55100	181
3.55467	181
3.55833	178
3.56200	178
3.56567	176
3.56933	174
3.57300	172
3.57667	170
3.58033	169
3.58400	168
3.58767	168
3.59133	169
3.59500	168
3.59867	166
3.60233	167
3.60600	168
3.60967	167
3.61333	166
3.61700	165
3.62067	164
3.62433	163
3.62800	162
3.63167	161
3.63533	162
3.63900	163
3.64267	162
3.64633	161
3.65000	160
3.65367	161
3.65733	161
3.66100	158
3.66467	157
3.66833	157
3.67200	154
3.67567	151
3.67933	149
3.68300	149
3.68667	149
3.69033	150
3.69400	148
3.69767	146
3.70133	145
3.70500	145
3.70867	144
3.71233	145
3.71600	146
3.71967	145
3.72333	143
3.72700	142
3.73067	142
3.73433	142
3.73800	139
3.74167	137
3.74533	137
3.74900	137
3.75267	137
3.75633	136
3.76000	135
3.76367	135
3.76733	135
3.77100	132
3.77467	130
3.77833	131
3.78200	133
3.78567	132
3.78933	134
3.79300	135
3.79667	135
3.80033	133
3.80400	134
3.80767	135
3.81133	135
3.81500	134
3.81867	132
3.82233	131
3.82600	130
3.82967	130
3.83333	127
3.83700	125
3.84067	126
3.84433	125
3.84800	124
3.85167	124
3.85533	123
3.85900	123
3.86267	123
3.86633	124
3.87000	125
3.87367	126
3.87733	129
3.88100	131
3.88467	130
3.88833	128
3.89200	126
3.89567	125
3.89933	124
3.90300	124
3.90667	124
3.91033	123
3.91400	123
3.91767	121
3.92133	119
3.92500	119
3.92867	121
3.93233	124
3.93600	124
3.93967	122
3.94333	121
3.94700	122
3.95067	123
3.95433	121
3.95800	119
3.96167	117
3.96533	116
3.96900	115
3.97267	115
3.97633	114
3.98000	112
3.98367	110
3.98733	108
3.99100	108
3.99467	108
3.99833	108

[Status Trace (Column Oven Temperature)]
Interval(msec)	1000
# of Points	240
Start Time(min)	0.005
End Time(min)	3.988
Intensity Units	
Intensity Multiplier	1
R.Time (min)	Intensity
0.00480	34.98
0.02147	34.98
0.03813	34.99
0.05480	34.99
0.07147	34.99
0.08813	34.99
0.10480	34.98
0.12147	34.98
0.13813	34.98
0.15480	34.97
0.17147	34.99
0.18813	34.98
0.20480	34.99
0.22147	34.99
0.23813	34.98
0.25480	34.98
0.27147	34.98
0.28813	34.99
0.30480	34.99
0.32147	35.00
0.33813	35.00
0.35480	35.00
0.37147	35.00
0.38813	35.00
0.40480	35.00
0.42147	35.00
0.43813	35.00
0.45480	35.00
0.47147	35.01
0.48813	35.01
0.50480	35.01
0.52147	35.01
0.53813	35.01
0.55480	35.01
0.57147	35.00
0.58813	35.00
0.60480	34.99
0.62147	34.99
0.63813	34.99
0.65480	34.99
0.67147	35.00
0.68813	35.00
0.70480	35.00
0.72147	35.00
0.73813	35.00
0.75480	35.00
0.77147	35.00
0.78813	35.01
0.80480	35.00
0.82147	34.99
0.83813	34.99
0.85480	34.99
0.87147	34.99
0.88813	34.98
0.90480	34.98
0.92147	34.98
0.93813	34.99
0.95480	34.98
0.97147	34.98
0.98813	34.98
1.00480	34.99
1.02147	34.98
1.03813	34.99
1.05480	34.98
1.07147	34.99
1.08813	34.99
1.10480	34.99
1.12147	35.00
1.13813	35.01
1.15480	35.02
1.17147	35.01
1.18813	35.01
1.20480	35.01
1.22147	35.00
1.23813	35.00
1.25480	34.99
1.27147	34.99
1.28813	34.98
1.30480	34.99
1.32147	34.99
1.33813	34.99
1.35480	34.99
1.37147	35.00
1.38813	35.01
1.40480	35.01
1.42147	35.02
1.43813	35.04
1.45480	35.05
1.47147	35.06
1.48813	35.05
1.50480	35.05
1.52147	35.04
1.53813	35.04
1.55480	35.02
1.57147	35.01
1.58813	35.01
1.60480	35.05
1.62147	35.15
1.63813	35.31
1.65480	35.56
1.67147	35.90
1.68813	36.28
1.70480	36.63
1.72147	36.97
1.73813	37.29
1.75480	37.62
1.77147	37.95
1.78813	38.29
1.80480	38.64
1.82147	38.95
1.83813	39.26
1.85480	39.61
1.87147	39.94
1.88813	40.27
1.90480	40.59
1.92147	40.92
1.93813	41.25
1.95480	41.57
1.97147	41.90
1.98813	42.23
2.00480	42.54
2.02147	42.86
2.03813	43.18
2.05480	43.51
2.07147	43.86
2.08813	44.17
2.10480	44.50
2.12147	44.81
2.13813	45.13
2.15480	45.45
2.17147	45.80
2.18813	46.12
2.20480	46.45
2.22147	46.79
2.23813	47.12
2.25480	47.44
2.27147	47.77
2.28813	48.11
2.30480	48.51
2.32147	48.85
2.33813	49.14
2.35480	49.42
2.37147	49.60
2.38813	49.68
2.40480	49.67
2.42147	49.67
2.43813	49.68
2.45480	49.69
2.47147	49.70
2.48813	49.73
2.50480	49.73
2.52147	49.76
2.53813	49.76
2.55480	49.78
2.57147	49.80
2.58813	49.81
2.60480	49.82
2.62147	49.83
2.63813	49.83
2.65480	49.85
2.67147	49.88
2.68813	49.87
2.70480	49.85
2.72147	49.85
2.73813	49.86
2.75480	49.87
2.77147	49.86
2.78813	49.86
2.80480	49.87
2.82147	49.87
2.83813	49.88
2.85480	49.89
2.87147	49.91
2.88813	49.93
2.90480	49.94
2.92147	49.95
2.93813	49.96
2.95480	49.97
2.97147	49.98
2.98813	50.00
3.00480	50.00
3.02147	50.00
3.03813	50.00
3.05480	50.01
3.07147	50.01
3.08813	50.02
3.10480	50.03
3.12147	50.04
3.13813	50.05
3.15480	50.06
3.17147	50.06
3.18813	50.06
3.20480	50.07
3.22147	50.09
3.23813	50.09
3.25480	50.10
3.27147	50.09
3.28813	50.09
3.30480	50.09
3.32147	50.08
3.33813	50.09
3.35480	50.10
3.37147	50.10
3.38813	50.09
3.40480	50.08
3.42147	50.08
3.43813	50.08
3.45480	50.08
3.47147	50.09
3.48813	50.08
3.50480	50.08
3.52147	50.08
3.53813	50.09
3.55480	50.09
3.57147	50.09
3.58813	50.08
3.60480	50.08
3.62147	50.08
3.63813	50.08
3.65480	50.07
3.67147	50.08
3.68813	50.07
3.70480	50.06
3.72147	50.06
3.73813	50.07
3.75480	50.07
3.77147	50.07
3.78813	50.07
3.80480	50.06
3.82147	50.06
3.83813	50.06
3.85480	50.07
3.87147	50.07
3.88813	50.06
3.90480	50.07
3.92147	50.06
3.93813	50.07
3.95480	50.08
3.97147	50.08
3.98813	50.08

[Status Trace (Injection Unit Temperature)]
Interval(msec)	1000
# of Points	240
Start Time(min)	0.005
End Time(min)	3.988
Intensity Units	
Intensity Multiplier	1
R.Time (min)	Intensity
0.00480	99.99
0.02147	99.99
0.03813	99.99
0.05480	99.99
0.07147	99.99
0.08813	99.99
0.10480	99.99
0.12147	99.99
0.13813	99.99
0.15480	99.99
0.17147	99.98
0.18813	99.99
0.20480	99.99
0.22147	99.99
0.23813	99.98
0.25480	99.98
0.27147	99.99
0.28813	99.98
0.30480	99.99
0.32147	99.99
0.33813	99.98
0.35480	99.98
0.37147	99.99
0.38813	99.99
0.40480	99.98
0.42147	99.99
0.43813	99.98
0.45480	99.98
0.47147	99.98
0.48813	99.99
0.50480	99.99
0.52147	99.99
0.53813	99.99
0.55480	99.99
0.57147	99.99
0.58813	99.98
0.60480	99.98
0.62147	99.98
0.63813	99.98
0.65480	99.99
0.67147	99.99
0.68813	99.99
0.70480	99.99
0.72147	99.98
0.73813	99.98
0.75480	99.99
0.77147	99.98
0.78813	99.99
0.80480	99.99
0.82147	99.99
0.83813	99.99
0.85480	99.99
0.87147	99.98
0.88813	99.99
0.90480	99.99
0.92147	99.99
0.93813	99.99
0.95480	99.99
0.97147	99.99
0.98813	99.98
1.00480	99.99
1.02147	99.99
1.03813	99.99
1.05480	99.99
1.07147	99.99
1.08813	99.99
1.10480	99.99
1.12147	99.99
1.13813	99.99
1.15480	99.99
1.17147	99.99
1.18813	99.99
1.20480	99.99
1.22147	99.99
1.23813	99.99
1.25480	99.99
1.27147	99.99
1.28813	99.99
1.30480	100.00
1.32147	99.99
1.33813	99.99
1.35480	99.99
1.37147	99.99
1.38813	100.00
1.40480	100.00
1.42147	100.00
1.43813	100.00
1.45480	100.00
1.47147	100.00
1.48813	100.00
1.50480	99.99
1.52147	99.99
1.53813	100.00
1.55480	100.00
1.57147	100.00
1.58813	100.00
1.60480	100.00
1.62147	100.00
1.63813	100.00
1.65480	100.00
1.67147	100.00
1.68813	99.99
1.70480	100.00
1.72147	99.99
1.73813	99.99
1.75480	99.99
1.77147	99.99
1.78813	99.99
1.80480	99.99
1.82147	99.99
1.83813	99.99
1.85480	99.99
1.87147	99.99
1.88813	99.99
1.90480	99.99
1.92147	99.99
1.93813	99.99
1.95480	99.99
1.97147	99.98
1.98813	99.99
2.00480	99.98
2.02147	99.98
2.03813	99.98
2.05480	99.98
2.07147	99.98
2.08813	99.98
2.10480	99.97
2.12147	99.98
2.13813	99.97
2.15480	99.97
2.17147	99.98
2.18813	99.98
2.20480	99.97
2.22147	99.97
2.23813	99.97
2.25480	99.97
2.27147	99.97
2.28813	99.97
2.30480	99.97
2.32147	99.97
2.33813	99.97
2.35480	99.97
2.37147	99.97
2.38813	99.97
2.40480	99.97
2.42147	99.97
2.43813	99.97
2.45480	99.98
2.47147	99.97
2.48813	99.97
2.50480	99.98
2.52147	99.97
2.53813	99.97
2.55480	99.98
2.57147	99.98
2.58813	99.98
2.60480	99.98
2.62147	99.98
2.63813	99.98
2.65480	99.99
2.67147	99.99
2.68813	99.99
2.70480	99.99
2.72147	99.99
2.73813	99.99
2.75480	99.99
2.77147	100.00
2.78813	100.00
2.80480	100.00
2.82147	100.00
2.83813	100.00
2.85480	100.00
2.87147	100.00
2.88813	100.00
2.90480	100.00
2.92147	100.01
2.93813	100.01
2.95480	100.01
2.97147	100.01
2.98813	100.02
3.00480	100.02
3.02147	100.02
3.03813	100.02
3.05480	100.02
3.07147	100.02
3.08813	100.02
3.10480	100.02
3.12147	100.03
3.13813	100.03
3.15480	100.03
3.17147	100.03
3.18813	100.03
3.20480	100.03
3.22147	100.03
3.23813	100.03
3.25480	100.03
3.27147	100.04
3.28813	100.04
3.30480	100.04
3.32147	100.04
3.33813	100.04
3.35480	100.04
3.37147	100.05
3.38813	100.04
3.40480	100.04
3.42147	100.04
3.43813	100.05
3.45480	100.05
3.47147	100.05
3.48813	100.05
3.50480	100.05
3.52147	100.05
3.53813	100.05
3.55480	100.05
3.57147	100.05
3.58813	100.06
3.60480	100.05
3.62147	100.05
3.63813	100.06
3.65480	100.06
3.67147	100.05
3.68813	100.06
3.70480	100.06
3.72147	100.06
3.73813	100.06
3.75480	100.06
3.77147	100.06
3.78813	100.06
3.80480	100.06
3.82147	100.06
3.83813	100.06
3.85480	100.06
3.87147	100.06
3.88813	100.06
3.90480	100.06
3.92147	100.06
3.93813	100.06
3.95480	100.06
3.97147	100.06
3.98813	100.06

[Status Trace (Carrier Gas Pressure)]
Interval(msec)	1000
# of Points	240
Start Time(min)	0.005
End Time(min)	3.988
Intensity Units	
Intensity Multiplier	1
R.Time (min)	Intensity
0.00480	58.00
0.02147	55.95
0.03813	56.59
0.05480	58.81
0.07147	59.83
0.08813	58.22
0.10480	57.97
0.12147	58.01
0.13813	58.01
0.15480	58.01
0.17147	58.00
0.18813	58.00
0.20480	58.00
0.22147	58.00
0.23813	58.00
0.25480	58.00
0.27147	58.00
0.28813	58.00
0.30480	58.00
0.32147	58.00
0.33813	58.00
0.35480	58.00
0.37147	58.00
0.38813	58.00
0.40480	58.00
0.42147	58.00
0.43813	58.00
0.45480	58.00
0.47147	58.00
0.48813	58.00
0.50480	58.00
0.52147	58.00
0.53813	58.00
0.55480	58.00
0.57147	58.00
0.58813	58.00
0.60480	58.00
0.62147	58.00
0.63813	58.00
0.65480	58.00
0.67147	58.00
0.68813	58.00
0.70480	58.00
0.72147	58.00
0.73813	58.00
0.75480	58.00
0.77147	58.00
0.78813	58.00
0.80480	58.00
0.82147	58.00
0.83813	58.00
0.85480	58.00
0.87147	58.00
0.88813	58.00
0.90480	58.00
0.92147	58.00
0.93813	58.00
0.95480	58.00
0.97147	58.00
0.98813	58.00
1.00480	58.00
1.02147	58.00
1.03813	58.00
1.05480	58.00
1.07147	58.00
1.08813	58.00
1.10480	58.00
1.12147	58.00
1.13813	58.00
1.15480	58.00
1.17147	58.00
1.18813	58.00
1.20480	58.00
1.22147	58.00
1.23813	58.00
1.25480	58.00
1.27147	58.00
1.28813	58.00
1.30480	58.00
1.32147	58.00
1.33813	58.00
1.35480	58.00
1.37147	58.00
1.38813	58.00
1.40480	58.00
1.42147	58.00
1.43813	58.00
1.45480	58.00
1.47147	58.00
1.48813	58.00
1.50480	58.00
1.52147	58.00
1.53813	58.00
1.55480	58.00
1.57147	58.00
1.58813	58.00
1.60480	58.00
1.62147	58.00
1.63813	58.00
1.65480	58.01
1.67147	58.01
1.68813	58.01
1.70480	58.00
1.72147	58.00
1.73813	58.00
1.75480	58.00
1.77147	58.00
1.78813	58.00
1.80480	58.00
1.82147	58.00
1.83813	58.00
1.85480	58.00
1.87147	58.00
1.88813	58.00
1.90480	58.00
1.92147	58.00
1.93813	58.00
1.95480	58.00
1.97147	58.00
1.98813	58.00
2.00480	58.00
2.02147	58.00
2.03813	58.00
2.05480	58.00
2.07147	58.00
2.08813	58.00
2.10480	58.00
2.12147	58.00
2.13813	58.00
2.15480	58.00
2.17147	58.00
2.18813	58.00
2.20480	58.00
2.22147	58.00
2.23813	58.00
2.25480	58.00
2.27147	58.00
2.28813	58.00
2.30480	58.00
2.32147	58.00
2.33813	58.00
2.35480	58.00
2.37147	58.00
2.38813	57.99
2.40480	57.99
2.42147	58.00
2.43813	58.00
2.45480	58.00
2.47147	58.00
2.48813	58.00
2.50480	57.99
2.52147	57.99
2.53813	58.00
2.55480	58.00
2.57147	58.00
2.58813	58.00
2.60480	58.00
2.62147	58.00
2.63813	58.00
2.65480	58.00
2.67147	58.00
2.68813	58.00
2.70480	58.00
2.72147	58.00
2.73813	58.00
2.75480	58.00
2.77147	58.00
2.78813	58.00
2.80480	58.00
2.82147	58.00
2.83813	58.00
2.85480	58.00
2.87147	58.00
2.88813	58.00
2.90480	58.00
2.92147	58.00
2.93813	58.00
2.95480	58.00
2.97147	58.00
2.98813	58.00
3.00480	58.00
3.02147	58.00
3.03813	58.00
3.05480	58.00
3.07147	58.00
3.08813	58.00
3.10480	58.00
3.12147	58.00
3.13813	58.00
3.15480	58.00
3.17147	58.00
3.18813	58.00
3.20480	58.00
3.22147	58.00
3.23813	58.00
3.25480	58.00
3.27147	58.00
3.28813	58.00
3.30480	58.00
3.32147	58.00
3.33813	58.00
3.35480	58.00
3.37147	58.00
3.38813	58.00
3.40480	58.00
3.42147	58.00
3.43813	58.00
3.45480	58.00
3.47147	58.00
3.48813	58.00
3.50480	58.00
3.52147	58.00
3.53813	58.00
3.55480	58.00
3.57147	58.00
3.58813	58.00
3.60480	58.00
3.62147	58.00
3.63813	58.00
3.65480	58.00
3.67147	58.00
3.68813	58.00
3.70480	58.00
3.72147	58.00
3.73813	58.00
3.75480	58.00
3.77147	58.00
3.78813	58.00
3.80480	58.00
3.82147	58.00
3.83813	58.00
3.85480	58.00
3.87147	58.00
3.88813	58.00
3.90480	58.00
3.92147	58.00
3.93813	58.00
3.95480	58.00
3.97147	58.00
3.98813	58.00

[Status Trace (Carrier Gas Flow)]
Interval(msec)	1000
# of Points	240
Start Time(min)	0.005
End Time(min)	3.988
Intensity Units	
Intensity Multiplier	1
R.Time (min)	Intensity
0.00480	34.49
0.02147	34.58
0.03813	34.53
0.05480	34.54
0.07147	34.48
0.08813	34.52
0.10480	34.52
0.12147	34.52
0.13813	34.53
0.15480	34.49
0.17147	34.52
0.18813	34.52
0.20480	34.52
0.22147	34.52
0.23813	34.52
0.25480	34.52
0.27147	34.52
0.28813	34.51
0.30480	34.53
0.32147	34.52
0.33813	34.52
0.35480	34.52
0.37147	34.51
0.38813	34.52
0.40480	34.51
0.42147	34.53
0.43813	34.52
0.45480	34.48
0.47147	34.52
0.48813	34.52
0.50480	34.53
0.52147	34.52
0.53813	34.52
0.55480	34.54
0.57147	34.52
0.58813	34.52
0.60480	34.52
0.62147	34.52
0.63813	34.52
0.65480	34.52
0.67147	34.52
0.68813	34.52
0.70480	34.52
0.72147	34.52
0.73813	34.53
0.75480	34.52
0.77147	34.52
0.78813	34.53
0.80480	34.52
0.82147	34.52
0.83813	34.52
0.85480	34.52
0.87147	34.52
0.88813	34.52
0.90480	34.51
0.92147	34.52
0.93813	34.51
0.95480	34.52
0.97147	34.52
0.98813	34.52
1.00480	34.52
1.02147	34.55
1.03813	34.54
1.05480	34.52
1.07147	34.52
1.08813	34.52
1.10480	34.52
1.12147	34.52
1.13813	34.52
1.15480	34.52
1.17147	34.52
1.18813	34.52
1.20480	34.52
1.22147	34.54
1.23813	34.52
1.25480	34.52
1.27147	34.52
1.28813	34.52
1.30480	34.54
1.32147	34.52
1.33813	34.51
1.35480	34.51
1.37147	34.54
1.38813	34.52
1.40480	34.52
1.42147	34.52
1.43813	34.52
1.45480	34.51
1.47147	34.51
1.48813	34.52
1.50480	34.50
1.52147	34.57
1.53813	34.52
1.55480	34.52
1.57147	34.52
1.58813	34.51
1.60480	34.54
1.62147	34.52
1.63813	34.52
1.65480	34.52
1.67147	34.54
1.68813	34.51
1.70480	34.52
1.72147	34.49
1.73813	34.54
1.75480	34.52
1.77147	34.51
1.78813	34.53
1.80480	34.49
1.82147	34.51
1.83813	34.51
1.85480	34.53
1.87147	34.52
1.88813	34.52
1.90480	34.52
1.92147	34.52
1.93813	34.52
1.95480	34.55
1.97147	34.51
1.98813	34.52
2.00480	34.52
2.02147	34.52
2.03813	34.50
2.05480	34.52
2.07147	34.50
2.08813	34.56
2.10480	34.52
2.12147	34.52
2.13813	34.53
2.15480	34.52
2.17147	34.52
2.18813	34.51
2.20480	34.50
2.22147	34.52
2.23813	34.52
2.25480	34.52
2.27147	34.52
2.28813	34.52
2.30480	34.52
2.32147	34.52
2.33813	34.52
2.35480	34.52
2.37147	34.52
2.38813	34.52
2.40480	34.52
2.42147	34.50
2.43813	34.49
2.45480	34.50
2.47147	34.50
2.48813	34.53
2.50480	34.55
2.52147	34.52
2.53813	34.52
2.55480	34.55
2.57147	34.50
2.58813	34.52
2.60480	34.51
2.62147	34.51
2.63813	34.52
2.65480	34.52
2.67147	34.55
2.68813	34.50
2.70480	34.53
2.72147	34.55
2.73813	34.52
2.75480	34.52
2.77147	34.52
2.78813	34.51
2.80480	34.52
2.82147	34.55
2.83813	34.52
2.85480	34.50
2.87147	34.52
2.88813	34.51
2.90480	34.52
2.92147	34.52
2.93813	34.52
2.95480	34.52
2.97147	34.52
2.98813	34.52
3.00480	34.52
3.02147	34.55
3.03813	34.52
3.05480	34.54
3.07147	34.51
3.08813	34.52
3.10480	34.52
3.12147	34.52
3.13813	34.52
3.15480	34.53
3.17147	34.52
3.18813	34.52
3.20480	34.49
3.22147	34.54
3.23813	34.52
3.25480	34.52
3.27147	34.52
3.28813	34.52
3.30480	34.50
3.32147	34.55
3.33813	34.50
3.35480	34.52
3.37147	34.52
3.38813	34.55
3.40480	34.51
3.42147	34.53
3.43813	34.52
3.45480	34.50
3.47147	34.52
3.48813	34.52
3.50480	34.52
3.52147	34.50
3.53813	34.52
3.55480	34.51
3.57147	34.52
3.58813	34.52
3.60480	34.49
3.62147	34.52
3.63813	34.52
3.65480	34.53
3.67147	34.52
3.68813	34.52
3.70480	34.54
3.72147	34.52
3.73813	34.52
3.75480	34.50
3.77147	34.52
3.78813	34.53
3.80480	34.55
3.82147	34.53
3.83813	34.51
3.85480	34.53
3.87147	34.49
3.88813	34.52
3.90480	34.54
3.92147	34.52
3.93813	34.52
3.95480	34.52
3.97147	34.52
3.98813	34.53

[Status Trace (Column Flow)]
Interval(msec)	1000
# of Points	240
Start Time(min)	0.005
End Time(min)	3.988
Intensity Units	
Intensity Multiplier	1
R.Time (min)	Intensity
0.00480	5.53
0.02147	5.29
0.03813	5.36
0.05480	5.62
0.07147	5.74
0.08813	5.55
0.10480	5.52
0.12147	5.53
0.13813	5.53
0.15480	5.53
0.17147	5.53
0.18813	5.53
0.20480	5.53
0.22147	5.53
0.23813	5.53
0.25480	5.53
0.27147	5.53
0.28813	5.53
0.30480	5.53
0.32147	5.53
0.33813	5.53
0.35480	5.53
0.37147	5.53
0.38813	5.53
0.40480	5.53
0.42147	5.53
0.43813	5.53
0.45480	5.53
0.47147	5.53
0.48813	5.53
0.50480	5.53
0.52147	5.53
0.53813	5.53
0.55480	5.53
0.57147	5.53
0.58813	5.53
0.60480	5.53
0.62147	5.53
0.63813	5.53
0.65480	5.53
0.67147	5.53
0.68813	5.53
0.70480	5.53
0.72147	5.53
0.73813	5.53
0.75480	5.53
0.77147	5.53
0.78813	5.53
0.80480	5.53
0.82147	5.53
0.83813	5.53
0.85480	5.53
0.87147	5.53
0.88813	5.53
0.90480	5.53
0.92147	5.53
0.93813	5.53
0.95480	5.53
0.97147	5.53
0.98813	5.53
1.00480	5.53
1.02147	5.53
1.03813	5.53
1.05480	5.53
1.07147	5.53
1.08813	5.53
1.10480	5.53
1.12147	5.53
1.13813	5.53
1.15480	5.53
1.17147	5.53
1.18813	5.53
1.20480	5.53
1.22147	5.53
1.23813	5.53
1.25480	5.53
1.27147	5.53
1.28813	5.53
1.30480	5.53
1.32147	5.53
1.33813	5.53
1.35480	5.53
1.37147	5.53
1.38813	5.53
1.40480	5.53
1.42147	5.53
1.43813	5.52
1.45480	5.52
1.47147	5.52
1.48813	5.52
1.50480	5.52
1.52147	5.52
1.53813	5.52
1.55480	5.52
1.57147	5.53
1.58813	5.53
1.60480	5.52
1.62147	5.52
1.63813	5.52
1.65480	5.51
1.67147	5.50
1.68813	5.49
1.70480	5.48
1.72147	5.46
1.73813	5.46
1.75480	5.45
1.77147	5.43
1.78813	5.42
1.80480	5.41
1.82147	5.40
1.83813	5.39
1.85480	5.38
1.87147	5.37
1.88813	5.36
1.90480	5.35
1.92147	5.34
1.93813	5.33
1.95480	5.33
1.97147	5.31
1.98813	5.31
2.00480	5.30
2.02147	5.29
2.03813	5.28
2.05480	5.27
2.07147	5.26
2.08813	5.25
2.10480	5.24
2.12147	5.23
2.13813	5.22
2.15480	5.21
2.17147	5.20
2.18813	5.19
2.20480	5.18
2.22147	5.17
2.23813	5.16
2.25480	5.16
2.27147	5.14
2.28813	5.14
2.30480	5.13
2.32147	5.12
2.33813	5.11
2.35480	5.10
2.37147	5.09
2.38813	5.09
2.40480	5.09
2.42147	5.09
2.43813	5.09
2.45480	5.09
2.47147	5.09
2.48813	5.09
2.50480	5.09
2.52147	5.09
2.53813	5.09
2.55480	5.09
2.57147	5.09
2.58813	5.09
2.60480	5.09
2.62147	5.09
2.63813	5.09
2.65480	5.09
2.67147	5.09
2.68813	5.09
2.70480	5.09
2.72147	5.09
2.73813	5.09
2.75480	5.09
2.77147	5.09
2.78813	5.09
2.80480	5.09
2.82147	5.09
2.83813	5.09
2.85480	5.09
2.87147	5.08
2.88813	5.08
2.90480	5.08
2.92147	5.08
2.93813	5.08
2.95480	5.08
2.97147	5.08
2.98813	5.08
3.00480	5.08
3.02147	5.08
3.03813	5.08
3.05480	5.08
3.07147	5.08
3.08813	5.08
3.10480	5.08
3.12147	5.08
3.13813	5.08
3.15480	5.08
3.17147	5.08
3.18813	5.08
3.20480	5.08
3.22147	5.08
3.23813	5.08
3.25480	5.08
3.27147	5.08
3.28813	5.08
3.30480	5.08
3.32147	5.08
3.33813	5.08
3.35480	5.08
3.37147	5.08
3.38813	5.08
3.40480	5.08
3.42147	5.08
3.43813	5.08
3.45480	5.08
3.47147	5.08
3.48813	5.08
3.50480	5.08
3.52147	5.08
3.53813	5.08
3.55480	5.08
3.57147	5.08
3.58813	5.08
3.60480	5.08
3.62147	5.08
3.63813	5.08
3.65480	5.08
3.67147	5.08
3.68813	5.08
3.70480	5.08
3.72147	5.08
3.73813	5.08
3.75480	5.08
3.77147	5.08
3.78813	5.08
3.80480	5.08
3.82147	5.08
3.83813	5.08
3.85480	5.08
3.87147	5.08
3.88813	5.08
3.90480	5.08
3.92147	5.08
3.93813	5.08
3.95480	5.08
3.97147	5.08
3.98813	5.08

[Status Trace (Linear Velocity)]
Interval(msec)	1000
# of Points	240
Start Time(min)	0.005
End Time(min)	3.988
Intensity Units	
Intensity Multiplier	1
R.Time (min)	Intensity
0.00480	39.02
0.02147	37.68
0.03813	38.09
0.05480	39.55
0.07147	40.22
0.08813	39.16
0.10480	39.00
0.12147	39.02
0.13813	39.03
0.15480	39.02
0.17147	39.02
0.18813	39.02
0.20480	39.02
0.22147	39.02
0.23813	39.02
0.25480	39.02
0.27147	39.02
0.28813	39.02
0.30480	39.02
0.32147	39.02
0.33813	39.02
0.35480	39.02
0.37147	39.02
0.38813	39.02
0.40480	39.02
0.42147	39.02
0.43813	39.02
0.45480	39.02
0.47147	39.02
0.48813	39.02
0.50480	39.02
0.52147	39.02
0.53813	39.02
0.55480	39.02
0.57147	39.02
0.58813	39.02
0.60480	39.02
0.62147	39.02
0.63813	39.02
0.65480	39.02
0.67147	39.02
0.68813	39.02
0.70480	39.02
0.72147	39.02
0.73813	39.02
0.75480	39.02
0.77147	39.02
0.78813	39.02
0.80480	39.02
0.82147	39.02
0.83813	39.02
0.85480	39.02
0.87147	39.02
0.88813	39.02
0.90480	39.02
0.92147	39.02
0.93813	39.02
0.95480	39.02
0.97147	39.02
0.98813	39.02
1.00480	39.02
1.02147	39.02
1.03813	39.02
1.05480	39.02
1.07147	39.02
1.08813	39.02
1.10480	39.02
1.12147	39.02
1.13813	39.02
1.15480	39.02
1.17147	39.02
1.18813	39.02
1.20480	39.02
1.22147	39.02
1.23813	39.02
1.25480	39.02
1.27147	39.02
1.28813	39.02
1.30480	39.02
1.32147	39.02
1.33813	39.02
1.35480	39.02
1.37147	39.02
1.38813	39.02
1.40480	39.02
1.42147	39.02
1.43813	39.01
1.45480	39.01
1.47147	39.01
1.48813	39.01
1.50480	39.01
1.52147	39.01
1.53813	39.01
1.55480	39.01
1.57147	39.02
1.58813	39.02
1.60480	39.02
1.62147	39.01
1.63813	38.99
1.65480	38.97
1.67147	38.94
1.68813	38.90
1.70480	38.86
1.72147	38.83
1.73813	38.80
1.75480	38.77
1.77147	38.74
1.78813	38.71
1.80480	38.67
1.82147	38.64
1.83813	38.62
1.85480	38.58
1.87147	38.55
1.88813	38.52
1.90480	38.49
1.92147	38.46
1.93813	38.43
1.95480	38.40
1.97147	38.37
1.98813	38.34
2.00480	38.31
2.02147	38.28
2.03813	38.25
2.05480	38.22
2.07147	38.19
2.08813	38.16
2.10480	38.13
2.12147	38.10
2.13813	38.07
2.15480	38.04
2.17147	38.01
2.18813	37.98
2.20480	37.95
2.22147	37.92
2.23813	37.89
2.25480	37.86
2.27147	37.83
2.28813	37.81
2.30480	37.77
2.32147	37.74
2.33813	37.71
2.35480	37.69
2.37147	37.67
2.38813	37.66
2.40480	37.66
2.42147	37.66
2.43813	37.66
2.45480	37.66
2.47147	37.66
2.48813	37.66
2.50480	37.65
2.52147	37.65
2.53813	37.65
2.55480	37.65
2.57147	37.65
2.58813	37.65
2.60480	37.65
2.62147	37.65
2.63813	37.65
2.65480	37.65
2.67147	37.64
2.68813	37.64
2.70480	37.65
2.72147	37.65
2.73813	37.65
2.75480	37.65
2.77147	37.65
2.78813	37.65
2.80480	37.65
2.82147	37.64
2.83813	37.64
2.85480	37.64
2.87147	37.64
2.88813	37.64
2.90480	37.64
2.92147	37.64
2.93813	37.64
2.95480	37.64
2.97147	37.64
2.98813	37.63
3.00480	37.63
3.02147	37.63
3.03813	37.63
3.05480	37.63
3.07147	37.63
3.08813	37.63
3.10480	37.63
3.12147	37.63
3.13813	37.63
3.15480	37.63
3.17147	37.63
3.18813	37.63
3.20480	37.63
3.22147	37.63
3.23813	37.63
3.25480	37.62
3.27147	37.62
3.28813	37.63
3.30480	37.63
3.32147	37.63
3.33813	37.63
3.35480	37.63
3.37147	37.62
3.38813	37.63
3.40480	37.63
3.42147	37.63
3.43813	37.63
3.45480	37.63
3.47147	37.63
3.48813	37.63
3.50480	37.63
3.52147	37.63
3.53813	37.63
3.55480	37.63
3.57147	37.63
3.58813	37.63
3.60480	37.63
3.62147	37.63
3.63813	37.63
3.65480	37.63
3.67147	37.63
3.68813	37.63
3.70480	37.63
3.72147	37.63
3.73813	37.63
3.75480	37.63
3.77147	37.63
3.78813	37.63
3.80480	37.63
3.82147	37.63
3.83813	37.63
3.85480	37.63
3.87147	37.63
3.88813	37.63
3.90480	37.63
3.92147	37.63
3.93813	37.63
3.95480	37.63
3.97147	37.63
3.98813	37.63

