[Header]
Application Name	LabSolutions
Version	5.110
Data File Name	C:\Users\User\Desktop\GC Analyses\Jack\UIC Prairie Sampling\9.16.22\220916_087.gcd
Output Date	11/29/2022
Output Time	11:10:21 AM

[File Information]
Type	Data File
Generated	11/16/2022 1:15:28 PM
Generated by	System Administrator
Modified	11/16/2022 1:19:56 PM
Modified by	System Administrator

[Sample Information]
Operator Name	System Administrator
Acquired	11/16/2022 1:15:55 PM
Sample Type	1:Standard
Level	1
Sample Name	220916_UICPrairie
Sample ID	220916_UICPrairie
ISTD Amount1	1
ISTD Amount2	1
ISTD Amount3	1
ISTD Amount4	1
ISTD Amount5	1
ISTD Amount6	1
ISTD Amount7	1
ISTD Amount8	1
ISTD Amount9	1
ISTD Amount10	1
ISTD Amount11	1
ISTD Amount12	1
ISTD Amount13	1
ISTD Amount14	1
ISTD Amount15	1
ISTD Amount16	1
ISTD Amount17	1
ISTD Amount18	1
ISTD Amount19	1
ISTD Amount20	1
ISTD Amount21	1
ISTD Amount22	1
ISTD Amount23	1
ISTD Amount24	1
ISTD Amount25	1
ISTD Amount26	1
ISTD Amount27	1
ISTD Amount28	1
ISTD Amount29	1
ISTD Amount30	1
ISTD Amount31	1
ISTD Amount32	1
Sample Amount	1
Dilution Factor	1
Vial#	1
Injection Volume	1
Injection Count	1
Bar Code	

[Original Files]
Data File	C:\Users\User\Desktop\GC Analyses\Jack\UIC Prairie Sampling\9.16.22\220916_087.gcd
Method File	C:\LabSolutions\Data\GHG_4min_2022\ghg3_togas_w_acet_4 min_new_int.gcm
Batch File	
Report Format File	c:\LabSolutions\System\DEFAULT.lsr

[File Description]


[Configuration]
Instrument Name	C0B7VH3-Instrument1
Instrument #	1
Line #	1
# of Detectors	3
Detector ID	DET#1	DET#2	DET#3
Detector Name	FID	PTCD	ECD
# of Channels	1	1	1

[Peak Table(Ch1)]
# of Peaks	3
Peak#	R.Time	I.Time	F.Time	Area	Height	A/H	Conc.	Mark	ID#	Name	k'	Plate #	Plate Ht.	Tailing	Resolution	Sep.Factor	Area Ratio	Height Ratio	Conc. %	Norm Conc.
1	1.476	1.428	1.538	13347	5944	2.246	100.000	   	1	CO	0.000	8319	18.031	1.305	0.000	0.000	0	0	16.667	16.667
2	1.571	1.538	1.622	4455	2233	1.995	100.000	 V 	2	CH4	0.065	11236	13.350	0.000	1.538	0.000	0	0	16.667	16.667
3	2.000	1.949	2.506	2318389	1111294	2.086	400.000	   	3	CO2	0.355	17611	8.517	1.190	7.176	5.500	0	0	66.667	66.667

[Peak Table(Ch2)]
# of Peaks	0

[Peak Table(Ch3)]
# of Peaks	5
Peak#	R.Time	I.Time	F.Time	Area	Height	A/H	Conc.	Mark	ID#	Name	k'	Plate #	Plate Ht.	Tailing	Resolution	Sep.Factor	Area Ratio	Height Ratio	Conc. %	Norm Conc.
1	2.458	2.323	2.502	1674	340	4.925	0.000	   			0.000	2571	58.344	0.000	0.000	0.000	0	0	0.000	0.000
2	2.524	2.502	2.554	861	296	2.909	0.000	 V 			0.027	551	272.345	0.000	0.211	0.000	0	0	0.000	0.000
3	2.601	2.554	2.649	1286	313	4.116	0.000	 V 			0.058	1484	101.046	0.000	0.220	2.167	0	0	0.000	0.000
4	2.884	2.667	3.115	31001	5581	5.554	1.000	   	1	N2O	0.173	12722	11.791	0.000	1.517	2.974	0	0	50.000	50.000
5	3.170	3.115	3.995	22945	823	27.893	1.000	 V 	2	SF6	0.289	11	13896.363	0.000	0.144	1.672	0	0	50.000	50.000

[Compound Results(Ch1)]
# of IDs	6
ID#	Name	R.Time	Area	Height	Conc.	Curve	3rd	2nd	1st	Constant	Area Ratio	Height Ratio	Conc. %	Norm Conc.
1	CO	1.476	13347	5944	100.000	Linear	0.000000e+00	0.000000e+00	1.334735e+002	0.000000e+00	0	0	16.667	16.667
2	CH4	1.571	4455	2233	100.000	Linear	0.000000e+00	0.000000e+00	4.455146e+001	0.000000e+00	0	0	16.667	16.667
3	CO2	2.000	2318389	1111294	400.000	Linear	0.000000e+00	0.000000e+00	5.795972e+003	0.000000e+00	0	0	66.667	66.667
4	Ethylene	0.000	0	0	0.000	Linear	0.000000e+00	0.000000e+00	0.000000e+00	0.000000e+00	0	0	0.000	0.000
5	Acetylene	0.000	0	0	0.000	Linear	0.000000e+00	0.000000e+00	0.000000e+00	0.000000e+00	0	0	0.000	0.000
6	Ethane	0.000	0	0	0.000	Linear	0.000000e+00	0.000000e+00	0.000000e+00	0.000000e+00	0	0	0.000	0.000

[Compound Results(Ch2)]
# of IDs	5
ID#	Name	R.Time	Area	Height	Conc.	Curve	3rd	2nd	1st	Constant	Area Ratio	Height Ratio	Conc. %	Norm Conc.
1	Hydrogen	0.000	0	0	0.000	Linear	0.000000e+00	0.000000e+00	0.000000e+00	0.000000e+00	0	0	0.000	0.000
2	Oxygen	0.000	0	0	0.000	Linear	0.000000e+00	0.000000e+00	0.000000e+00	0.000000e+00	0	0	0.000	0.000
3	Nitrogen	0.000	0	0	0.000	Linear	0.000000e+00	0.000000e+00	0.000000e+00	0.000000e+00	0	0	0.000	0.000
4	Methane	0.000	0	0	0.000	Linear	0.000000e+00	0.000000e+00	0.000000e+00	0.000000e+00	0	0	0.000	0.000
5	Carbon Monoxide	0.000	0	0	0.000	Linear	0.000000e+00	0.000000e+00	0.000000e+00	0.000000e+00	0	0	0.000	0.000

[Compound Results(Ch3)]
# of IDs	2
ID#	Name	R.Time	Area	Height	Conc.	Curve	3rd	2nd	1st	Constant	Area Ratio	Height Ratio	Conc. %	Norm Conc.
1	N2O	2.884	31001	5581	1.000	Linear	0.000000e+00	0.000000e+00	3.100071e+004	0.000000e+00	0	0	50.000	50.000
2	SF6	3.170	22945	823	1.000	Linear	0.000000e+00	0.000000e+00	2.294466e+004	0.000000e+00	0	0	50.000	50.000

[Group Results(Ch1)]
# of Groups	0

[Group Results(Ch2)]
# of Groups	0

[Group Results(Ch3)]
# of Groups	0

[Chromatogram (Ch1)]
Interval(msec)	220
# of Points	1091
Start Time(min)	0.002
End Time(min)	3.998
R.Time (min)	Intensity
0.00167	23
0.00533	25
0.00900	26
0.01267	26
0.01633	26
0.02000	25
0.02367	19
0.02733	10
0.03100	-0
0.03467	-9
0.03833	-19
0.04200	-30
0.04567	-37
0.04933	-43
0.05300	-50
0.05667	-56
0.06033	-60
0.06400	-60
0.06767	-58
0.07133	-55
0.07500	-50
0.07867	-46
0.08233	-45
0.08600	-48
0.08967	-52
0.09333	-56
0.09700	-58
0.10067	-61
0.10433	-70
0.10800	-81
0.11167	-89
0.11533	-91
0.11900	-94
0.12267	-101
0.12633	-107
0.13000	-111
0.13367	-110
0.13733	-105
0.14100	-99
0.14467	-97
0.14833	-100
0.15200	-104
0.15567	-109
0.15933	-113
0.16300	-111
0.16667	-106
0.17033	-102
0.17400	-97
0.17767	-93
0.18133	-91
0.18500	-90
0.18867	-90
0.19233	-95
0.19600	-102
0.19967	-108
0.20333	-108
0.20700	-103
0.21067	-96
0.21433	-88
0.21800	-87
0.22167	-93
0.22533	-98
0.22900	-105
0.23267	-109
0.23633	-114
0.24000	-116
0.24367	-114
0.24733	-108
0.25100	-103
0.25467	-100
0.25833	-96
0.26200	-90
0.26567	-89
0.26933	-92
0.27300	-94
0.27667	-94
0.28033	-90
0.28400	-86
0.28767	-85
0.29133	-91
0.29500	-102
0.29867	-113
0.30233	-118
0.30600	-117
0.30967	-114
0.31333	-111
0.31700	-112
0.32067	-116
0.32433	-118
0.32800	-113
0.33167	-107
0.33533	-105
0.33900	-105
0.34267	-107
0.34633	-109
0.35000	-110
0.35367	-112
0.35733	-115
0.36100	-114
0.36467	-107
0.36833	-102
0.37200	-103
0.37567	-104
0.37933	-104
0.38300	-104
0.38667	-106
0.39033	-110
0.39400	-111
0.39767	-108
0.40133	-104
0.40500	-101
0.40867	-102
0.41233	-107
0.41600	-115
0.41967	-124
0.42333	-132
0.42700	-137
0.43067	-134
0.43433	-128
0.43800	-121
0.44167	-115
0.44533	-115
0.44900	-119
0.45267	-121
0.45633	-121
0.46000	-121
0.46367	-120
0.46733	-117
0.47100	-115
0.47467	-115
0.47833	-112
0.48200	-107
0.48567	-104
0.48933	-106
0.49300	-114
0.49667	-121
0.50033	-122
0.50400	-116
0.50767	-109
0.51133	-108
0.51500	-110
0.51867	-112
0.52233	-115
0.52600	-119
0.52967	-125
0.53333	-127
0.53700	-126
0.54067	-124
0.54433	-117
0.54800	-107
0.55167	-98
0.55533	-93
0.55900	-90
0.56267	-90
0.56633	-92
0.57000	-93
0.57367	-96
0.57733	-102
0.58100	-107
0.58467	-112
0.58833	-116
0.59200	-116
0.59567	-112
0.59933	-106
0.60300	-103
0.60667	-101
0.61033	-101
0.61400	-103
0.61767	-107
0.62133	-110
0.62500	-111
0.62867	-113
0.63233	-118
0.63600	-119
0.63967	-113
0.64333	-108
0.64700	-107
0.65067	-110
0.65433	-114
0.65800	-118
0.66167	-122
0.66533	-125
0.66900	-130
0.67267	-136
0.67633	-141
0.68000	-143
0.68367	-143
0.68733	-143
0.69100	-141
0.69467	-135
0.69833	-130
0.70200	-126
0.70567	-122
0.70933	-116
0.71300	-110
0.71667	-108
0.72033	-110
0.72400	-111
0.72767	-109
0.73133	-104
0.73500	-99
0.73867	-98
0.74233	-100
0.74600	-106
0.74967	-115
0.75333	-123
0.75700	-127
0.76067	-129
0.76433	-129
0.76800	-127
0.77167	-123
0.77533	-118
0.77900	-116
0.78267	-119
0.78633	-121
0.79000	-122
0.79367	-120
0.79733	-117
0.80100	-118
0.80467	-119
0.80833	-121
0.81200	-124
0.81567	-125
0.81933	-126
0.82300	-129
0.82667	-132
0.83033	-134
0.83400	-134
0.83767	-134
0.84133	-134
0.84500	-134
0.84867	-136
0.85233	-139
0.85600	-141
0.85967	-143
0.86333	-141
0.86700	-135
0.87067	-129
0.87433	-122
0.87800	-115
0.88167	-113
0.88533	-116
0.88900	-120
0.89267	-124
0.89633	-127
0.90000	-128
0.90367	-129
0.90733	-129
0.91100	-127
0.91467	-127
0.91833	-133
0.92200	-139
0.92567	-141
0.92933	-138
0.93300	-133
0.93667	-128
0.94033	-124
0.94400	-123
0.94767	-127
0.95133	-133
0.95500	-141
0.95867	-145
0.96233	-145
0.96600	-143
0.96967	-141
0.97333	-139
0.97700	-136
0.98067	-134
0.98433	-132
0.98800	-132
0.99167	-130
0.99533	-129
0.99900	-129
1.00267	-129
1.00633	-126
1.01000	-121
1.01367	-115
1.01733	-115
1.02100	-121
1.02467	-132
1.02833	-140
1.03200	-145
1.03567	-142
1.03933	-135
1.04300	-131
1.04667	-130
1.05033	-132
1.05400	-136
1.05767	-139
1.06133	-138
1.06500	-131
1.06867	-123
1.07233	-120
1.07600	-124
1.07967	-131
1.08333	-136
1.08700	-139
1.09067	-139
1.09433	-141
1.09800	-141
1.10167	-140
1.10533	-137
1.10900	-136
1.11267	-139
1.11633	-144
1.12000	-150
1.12367	-152
1.12733	-151
1.13100	-149
1.13467	-147
1.13833	-147
1.14200	-147
1.14567	-144
1.14933	-142
1.15300	-143
1.15667	-146
1.16033	-150
1.16400	-152
1.16767	-151
1.17133	-145
1.17500	-139
1.17867	-138
1.18233	-139
1.18600	-139
1.18967	-138
1.19333	-137
1.19700	-135
1.20067	-136
1.20433	-140
1.20800	-142
1.21167	-141
1.21533	-136
1.21900	-127
1.22267	-116
1.22633	-112
1.23000	-118
1.23367	-128
1.23733	-139
1.24100	-146
1.24467	-149
1.24833	-149
1.25200	-149
1.25567	-148
1.25933	-148
1.26300	-147
1.26667	-145
1.27033	-142
1.27400	-142
1.27767	-143
1.28133	-145
1.28500	-149
1.28867	-150
1.29233	-149
1.29600	-148
1.29967	-147
1.30333	-146
1.30700	-144
1.31067	-141
1.31433	-138
1.31800	-133
1.32167	-128
1.32533	-123
1.32900	-117
1.33267	-113
1.33633	-116
1.34000	-124
1.34367	-131
1.34733	-136
1.35100	-142
1.35467	-149
1.35833	-155
1.36200	-155
1.36567	-148
1.36933	-140
1.37300	-136
1.37667	-138
1.38033	-146
1.38400	-155
1.38767	-157
1.39133	-154
1.39500	-153
1.39867	-153
1.40233	-154
1.40600	-155
1.40967	-156
1.41333	-153
1.41700	-149
1.42067	-147
1.42433	-144
1.42800	-141
1.43167	-135
1.43533	-129
1.43900	-115
1.44267	-47
1.44633	142
1.45000	482
1.45367	1043
1.45733	1903
1.46100	2962
1.46467	4004
1.46833	4868
1.47200	5481
1.47567	5805
1.47933	5798
1.48300	5439
1.48667	4774
1.49033	3930
1.49400	3063
1.49767	2287
1.50133	1653
1.50500	1169
1.50867	811
1.51233	553
1.51600	367
1.51967	235
1.52333	141
1.52700	76
1.53067	31
1.53433	-1
1.53800	-18
1.54167	2
1.54533	110
1.54900	358
1.55267	735
1.55633	1162
1.56000	1552
1.56367	1855
1.56733	2047
1.57100	2098
1.57467	1982
1.57833	1715
1.58200	1361
1.58567	1000
1.58933	686
1.59300	441
1.59667	257
1.60033	127
1.60400	41
1.60767	-21
1.61133	-67
1.61500	-102
1.61867	-123
1.62233	-134
1.62600	-140
1.62967	-142
1.63333	-142
1.63700	-142
1.64067	-140
1.64433	-140
1.64800	-141
1.65167	-143
1.65533	-146
1.65900	-144
1.66267	-139
1.66633	-138
1.67000	-142
1.67367	-146
1.67733	-146
1.68100	-145
1.68467	-146
1.68833	-149
1.69200	-150
1.69567	-152
1.69933	-153
1.70300	-152
1.70667	-153
1.71033	-155
1.71400	-157
1.71767	-159
1.72133	-160
1.72500	-160
1.72867	-163
1.73233	-167
1.73600	-172
1.73967	-174
1.74333	-172
1.74700	-164
1.75067	-154
1.75433	-147
1.75800	-144
1.76167	-146
1.76533	-148
1.76900	-148
1.77267	-150
1.77633	-156
1.78000	-162
1.78367	-169
1.78733	-173
1.79100	-176
1.79467	-177
1.79833	-177
1.80200	-176
1.80567	-173
1.80933	-166
1.81300	-160
1.81667	-156
1.82033	-152
1.82400	-147
1.82767	-146
1.83133	-146
1.83500	-150
1.83867	-157
1.84233	-161
1.84600	-161
1.84967	-160
1.85333	-158
1.85700	-156
1.86067	-154
1.86433	-153
1.86800	-153
1.87167	-156
1.87533	-160
1.87900	-162
1.88267	-160
1.88633	-158
1.89000	-157
1.89367	-157
1.89733	-158
1.90100	-160
1.90467	-161
1.90833	-160
1.91200	-158
1.91567	-156
1.91933	-153
1.92300	-149
1.92667	-148
1.93033	-150
1.93400	-153
1.93767	-157
1.94133	-159
1.94500	-156
1.94867	-150
1.95233	-134
1.95600	-51
1.95967	467
1.96333	3140
1.96700	13683
1.97067	45433
1.97433	119014
1.97800	251100
1.98167	437991
1.98533	651930
1.98900	854392
1.99267	1011750
1.99633	1101032
2.00000	1111170
2.00367	1044730
2.00733	918450
2.01100	758584
2.01467	592802
2.01833	442418
2.02200	318753
2.02567	224157
2.02933	155462
2.03300	107334
2.03667	74388
2.04033	52144
2.04400	37220
2.04767	27197
2.05133	20414
2.05500	15767
2.05867	12524
2.06233	10209
2.06600	8518
2.06967	7253
2.07333	6282
2.07700	5520
2.08067	4911
2.08433	4413
2.08800	3998
2.09167	3648
2.09533	3351
2.09900	3098
2.10267	2880
2.10633	2688
2.11000	2517
2.11367	2365
2.11733	2223
2.12100	2091
2.12467	1970
2.12833	1862
2.13200	1767
2.13567	1682
2.13933	1604
2.14300	1535
2.14667	1471
2.15033	1410
2.15400	1353
2.15767	1299
2.16133	1246
2.16500	1194
2.16867	1146
2.17233	1104
2.17600	1067
2.17967	1030
2.18333	995
2.18700	961
2.19067	929
2.19433	898
2.19800	867
2.20167	841
2.20533	818
2.20900	798
2.21267	777
2.21633	756
2.22000	735
2.22367	714
2.22733	689
2.23100	662
2.23467	638
2.23833	618
2.24200	603
2.24567	589
2.24933	576
2.25300	560
2.25667	541
2.26033	524
2.26400	511
2.26767	500
2.27133	490
2.27500	479
2.27867	470
2.28233	460
2.28600	451
2.28967	441
2.29333	430
2.29700	416
2.30067	402
2.30433	394
2.30800	392
2.31167	389
2.31533	383
2.31900	372
2.32267	359
2.32633	345
2.33000	334
2.33367	322
2.33733	315
2.34100	311
2.34467	306
2.34833	299
2.35200	293
2.35567	290
2.35933	288
2.36300	285
2.36667	280
2.37033	272
2.37400	261
2.37767	252
2.38133	244
2.38500	235
2.38867	229
2.39233	226
2.39600	226
2.39967	228
2.40333	231
2.40700	232
2.41067	232
2.41433	232
2.41800	230
2.42167	227
2.42533	226
2.42900	226
2.43267	221
2.43633	210
2.44000	194
2.44367	176
2.44733	162
2.45100	154
2.45467	148
2.45833	144
2.46200	146
2.46567	153
2.46933	158
2.47300	162
2.47667	164
2.48033	164
2.48400	161
2.48767	161
2.49133	159
2.49500	153
2.49867	144
2.50233	135
2.50600	126
2.50967	121
2.51333	122
2.51700	126
2.52067	131
2.52433	134
2.52800	135
2.53167	132
2.53533	125
2.53900	119
2.54267	115
2.54633	113
2.55000	111
2.55367	113
2.55733	117
2.56100	119
2.56467	117
2.56833	112
2.57200	106
2.57567	101
2.57933	99
2.58300	100
2.58667	102
2.59033	102
2.59400	104
2.59767	106
2.60133	105
2.60500	98
2.60867	89
2.61233	84
2.61600	82
2.61967	81
2.62333	77
2.62700	72
2.63067	69
2.63433	68
2.63800	67
2.64167	65
2.64533	66
2.64900	70
2.65267	73
2.65633	75
2.66000	73
2.66367	67
2.66733	60
2.67100	55
2.67467	56
2.67833	60
2.68200	64
2.68567	64
2.68933	62
2.69300	60
2.69667	56
2.70033	53
2.70400	52
2.70767	54
2.71133	60
2.71500	65
2.71867	69
2.72233	70
2.72600	69
2.72967	66
2.73333	62
2.73700	58
2.74067	53
2.74433	50
2.74800	47
2.75167	45
2.75533	44
2.75900	43
2.76267	43
2.76633	45
2.77000	46
2.77367	46
2.77733	47
2.78100	48
2.78467	46
2.78833	42
2.79200	35
2.79567	27
2.79933	24
2.80300	26
2.80667	30
2.81033	37
2.81400	43
2.81767	46
2.82133	45
2.82500	44
2.82867	44
2.83233	44
2.83600	42
2.83967	40
2.84333	38
2.84700	34
2.85067	25
2.85433	16
2.85800	8
2.86167	9
2.86533	17
2.86900	27
2.87267	37
2.87633	45
2.88000	50
2.88367	52
2.88733	51
2.89100	48
2.89467	42
2.89833	36
2.90200	31
2.90567	29
2.90933	28
2.91300	26
2.91667	27
2.92033	31
2.92400	29
2.92767	22
2.93133	14
2.93500	12
2.93867	20
2.94233	32
2.94600	46
2.94967	60
2.95333	71
2.95700	81
2.96067	88
2.96433	88
2.96800	81
2.97167	74
2.97533	69
2.97900	66
2.98267	64
2.98633	62
2.99000	61
2.99367	61
2.99733	62
3.00100	65
3.00467	67
3.00833	69
3.01200	72
3.01567	75
3.01933	77
3.02300	75
3.02667	72
3.03033	69
3.03400	69
3.03767	73
3.04133	80
3.04500	86
3.04867	90
3.05233	92
3.05600	88
3.05967	83
3.06333	80
3.06700	79
3.07067	76
3.07433	71
3.07800	68
3.08167	66
3.08533	64
3.08900	59
3.09267	53
3.09633	52
3.10000	54
3.10367	57
3.10733	61
3.11100	62
3.11467	60
3.11833	59
3.12200	57
3.12567	59
3.12933	65
3.13300	72
3.13667	76
3.14033	75
3.14400	71
3.14767	65
3.15133	60
3.15500	57
3.15867	56
3.16233	57
3.16600	60
3.16967	61
3.17333	62
3.17700	61
3.18067	60
3.18433	62
3.18800	68
3.19167	72
3.19533	77
3.19900	78
3.20267	77
3.20633	76
3.21000	78
3.21367	80
3.21733	79
3.22100	73
3.22467	68
3.22833	57
3.23200	47
3.23567	39
3.23933	37
3.24300	39
3.24667	45
3.25033	51
3.25400	57
3.25767	60
3.26133	63
3.26500	68
3.26867	71
3.27233	69
3.27600	69
3.27967	73
3.28333	81
3.28700	86
3.29067	85
3.29433	82
3.29800	80
3.30167	79
3.30533	75
3.30900	68
3.31267	62
3.31633	57
3.32000	53
3.32367	50
3.32733	45
3.33100	39
3.33467	38
3.33833	43
3.34200	48
3.34567	52
3.34933	57
3.35300	63
3.35667	64
3.36033	63
3.36400	60
3.36767	54
3.37133	46
3.37500	41
3.37867	40
3.38233	44
3.38600	50
3.38967	56
3.39333	62
3.39700	63
3.40067	62
3.40433	61
3.40800	61
3.41167	56
3.41533	48
3.41900	41
3.42267	35
3.42633	31
3.43000	29
3.43367	28
3.43733	26
3.44100	25
3.44467	28
3.44833	33
3.45200	37
3.45567	41
3.45933	41
3.46300	37
3.46667	32
3.47033	31
3.47400	36
3.47767	45
3.48133	53
3.48500	57
3.48867	56
3.49233	49
3.49600	38
3.49967	30
3.50333	26
3.50700	25
3.51067	29
3.51433	33
3.51800	33
3.52167	30
3.52533	28
3.52900	27
3.53267	28
3.53633	31
3.54000	34
3.54367	38
3.54733	42
3.55100	41
3.55467	38
3.55833	35
3.56200	27
3.56567	18
3.56933	14
3.57300	15
3.57667	18
3.58033	23
3.58400	28
3.58767	31
3.59133	32
3.59500	33
3.59867	34
3.60233	32
3.60600	29
3.60967	27
3.61333	29
3.61700	30
3.62067	30
3.62433	29
3.62800	25
3.63167	24
3.63533	27
3.63900	30
3.64267	30
3.64633	26
3.65000	22
3.65367	19
3.65733	17
3.66100	22
3.66467	30
3.66833	30
3.67200	25
3.67567	17
3.67933	11
3.68300	8
3.68667	3
3.69033	-2
3.69400	-2
3.69767	-2
3.70133	-3
3.70500	-1
3.70867	1
3.71233	2
3.71600	-0
3.71967	-4
3.72333	-7
3.72700	-9
3.73067	-9
3.73433	-5
3.73800	1
3.74167	5
3.74533	5
3.74900	2
3.75267	-2
3.75633	-4
3.76000	-1
3.76367	6
3.76733	13
3.77100	15
3.77467	12
3.77833	8
3.78200	4
3.78567	2
3.78933	1
3.79300	-1
3.79667	-4
3.80033	-8
3.80400	-11
3.80767	-11
3.81133	-7
3.81500	-1
3.81867	2
3.82233	1
3.82600	-2
3.82967	-5
3.83333	-4
3.83700	2
3.84067	11
3.84433	17
3.84800	14
3.85167	9
3.85533	1
3.85900	-7
3.86267	-11
3.86633	-13
3.87000	-13
3.87367	-12
3.87733	-12
3.88100	-10
3.88467	-6
3.88833	-3
3.89200	0
3.89567	3
3.89933	2
3.90300	-5
3.90667	-11
3.91033	-14
3.91400	-12
3.91767	-9
3.92133	-8
3.92500	-10
3.92867	-15
3.93233	-19
3.93600	-17
3.93967	-13
3.94333	-12
3.94700	-11
3.95067	-10
3.95433	-10
3.95800	-10
3.96167	-9
3.96533	-9
3.96900	-10
3.97267	-12
3.97633	-14
3.98000	-14
3.98367	-12
3.98733	-8
3.99100	-5
3.99467	-2
3.99833	-1

[Chromatogram (Ch2)]
Interval(msec)	220
# of Points	1091
Start Time(min)	0.002
End Time(min)	3.998
R.Time (min)	Intensity
0.00167	-0
0.00533	-0
0.00900	-0
0.01267	0
0.01633	0
0.02000	0
0.02367	1
0.02733	1
0.03100	1
0.03467	1
0.03833	1
0.04200	1
0.04567	1
0.04933	1
0.05300	2
0.05667	2
0.06033	2
0.06400	2
0.06767	3
0.07133	3
0.07500	3
0.07867	3
0.08233	3
0.08600	3
0.08967	2
0.09333	2
0.09700	2
0.10067	2
0.10433	2
0.10800	2
0.11167	2
0.11533	2
0.11900	2
0.12267	3
0.12633	3
0.13000	3
0.13367	3
0.13733	4
0.14100	4
0.14467	4
0.14833	4
0.15200	4
0.15567	4
0.15933	3
0.16300	3
0.16667	3
0.17033	3
0.17400	3
0.17767	2
0.18133	2
0.18500	2
0.18867	2
0.19233	2
0.19600	1
0.19967	1
0.20333	1
0.20700	1
0.21067	1
0.21433	1
0.21800	0
0.22167	0
0.22533	0
0.22900	0
0.23267	1
0.23633	1
0.24000	1
0.24367	1
0.24733	1
0.25100	1
0.25467	1
0.25833	1
0.26200	1
0.26567	1
0.26933	1
0.27300	1
0.27667	1
0.28033	1
0.28400	1
0.28767	1
0.29133	1
0.29500	1
0.29867	1
0.30233	1
0.30600	2
0.30967	2
0.31333	2
0.31700	2
0.32067	2
0.32433	2
0.32800	1
0.33167	1
0.33533	1
0.33900	1
0.34267	1
0.34633	1
0.35000	0
0.35367	0
0.35733	-0
0.36100	-0
0.36467	-1
0.36833	-1
0.37200	-1
0.37567	-1
0.37933	-1
0.38300	-1
0.38667	-1
0.39033	-1
0.39400	-2
0.39767	-2
0.40133	-2
0.40500	-3
0.40867	-3
0.41233	-3
0.41600	-2
0.41967	-2
0.42333	-2
0.42700	-2
0.43067	-1
0.43433	-1
0.43800	-1
0.44167	-0
0.44533	-0
0.44900	0
0.45267	0
0.45633	0
0.46000	0
0.46367	0
0.46733	0
0.47100	1
0.47467	1
0.47833	1
0.48200	1
0.48567	1
0.48933	1
0.49300	1
0.49667	1
0.50033	1
0.50400	1
0.50767	1
0.51133	0
0.51500	0
0.51867	-0
0.52233	-1
0.52600	-1
0.52967	-2
0.53333	-2
0.53700	-2
0.54067	-2
0.54433	-2
0.54800	-2
0.55167	-1
0.55533	-1
0.55900	-0
0.56267	-0
0.56633	0
0.57000	0
0.57367	1
0.57733	1
0.58100	1
0.58467	1
0.58833	1
0.59200	1
0.59567	1
0.59933	1
0.60300	1
0.60667	1
0.61033	1
0.61400	1
0.61767	1
0.62133	1
0.62500	1
0.62867	1
0.63233	1
0.63600	1
0.63967	1
0.64333	1
0.64700	1
0.65067	1
0.65433	1
0.65800	1
0.66167	1
0.66533	1
0.66900	1
0.67267	1
0.67633	1
0.68000	1
0.68367	1
0.68733	1
0.69100	1
0.69467	1
0.69833	1
0.70200	1
0.70567	1
0.70933	1
0.71300	0
0.71667	0
0.72033	-0
0.72400	-0
0.72767	-1
0.73133	-1
0.73500	-1
0.73867	-1
0.74233	-1
0.74600	-1
0.74967	-1
0.75333	-1
0.75700	-1
0.76067	-1
0.76433	-1
0.76800	-1
0.77167	-1
0.77533	-1
0.77900	-0
0.78267	-0
0.78633	0
0.79000	0
0.79367	1
0.79733	1
0.80100	1
0.80467	1
0.80833	1
0.81200	1
0.81567	1
0.81933	1
0.82300	1
0.82667	1
0.83033	1
0.83400	1
0.83767	1
0.84133	0
0.84500	0
0.84867	0
0.85233	0
0.85600	0
0.85967	0
0.86333	0
0.86700	0
0.87067	0
0.87433	0
0.87800	0
0.88167	0
0.88533	0
0.88900	0
0.89267	1
0.89633	1
0.90000	1
0.90367	1
0.90733	1
0.91100	1
0.91467	0
0.91833	0
0.92200	-0
0.92567	-0
0.92933	-0
0.93300	-0
0.93667	-0
0.94033	-0
0.94400	-0
0.94767	-0
0.95133	-0
0.95500	-0
0.95867	-0
0.96233	-0
0.96600	0
0.96967	-0
0.97333	-0
0.97700	-0
0.98067	-1
0.98433	-1
0.98800	-1
0.99167	-0
0.99533	-0
0.99900	-0
1.00267	-0
1.00633	-0
1.01000	-0
1.01367	-0
1.01733	-0
1.02100	-0
1.02467	-0
1.02833	-0
1.03200	-0
1.03567	0
1.03933	0
1.04300	0
1.04667	-0
1.05033	-0
1.05400	-0
1.05767	-1
1.06133	-1
1.06500	-1
1.06867	-1
1.07233	-1
1.07600	-1
1.07967	-1
1.08333	-1
1.08700	-2
1.09067	-2
1.09433	-2
1.09800	-2
1.10167	-3
1.10533	-3
1.10900	-4
1.11267	-4
1.11633	-4
1.12000	-4
1.12367	-4
1.12733	-4
1.13100	-4
1.13467	-3
1.13833	-3
1.14200	-3
1.14567	-3
1.14933	-2
1.15300	-2
1.15667	-2
1.16033	-1
1.16400	-1
1.16767	-1
1.17133	-1
1.17500	-1
1.17867	-1
1.18233	-1
1.18600	-1
1.18967	-1
1.19333	-1
1.19700	-1
1.20067	-1
1.20433	-1
1.20800	-1
1.21167	-1
1.21533	-0
1.21900	-0
1.22267	-0
1.22633	0
1.23000	0
1.23367	0
1.23733	1
1.24100	1
1.24467	1
1.24833	2
1.25200	2
1.25567	1
1.25933	1
1.26300	1
1.26667	1
1.27033	1
1.27400	0
1.27767	0
1.28133	1
1.28500	1
1.28867	1
1.29233	1
1.29600	2
1.29967	2
1.30333	2
1.30700	2
1.31067	2
1.31433	2
1.31800	2
1.32167	2
1.32533	2
1.32900	1
1.33267	1
1.33633	1
1.34000	1
1.34367	1
1.34733	1
1.35100	1
1.35467	1
1.35833	0
1.36200	0
1.36567	-0
1.36933	-0
1.37300	-0
1.37667	-1
1.38033	-1
1.38400	-1
1.38767	-1
1.39133	-2
1.39500	-2
1.39867	-2
1.40233	-2
1.40600	-2
1.40967	-2
1.41333	-3
1.41700	-3
1.42067	-3
1.42433	-4
1.42800	-4
1.43167	-4
1.43533	-4
1.43900	-4
1.44267	-4
1.44633	-4
1.45000	-5
1.45367	-5
1.45733	-4
1.46100	-4
1.46467	-4
1.46833	-3
1.47200	-3
1.47567	-3
1.47933	-3
1.48300	-3
1.48667	-3
1.49033	-3
1.49400	-3
1.49767	-2
1.50133	-2
1.50500	-1
1.50867	-1
1.51233	-1
1.51600	-1
1.51967	-0
1.52333	-0
1.52700	-0
1.53067	-0
1.53433	-0
1.53800	-0
1.54167	-0
1.54533	-0
1.54900	-0
1.55267	-0
1.55633	-0
1.56000	-1
1.56367	-1
1.56733	-1
1.57100	-2
1.57467	-2
1.57833	-2
1.58200	-2
1.58567	-2
1.58933	-2
1.59300	-2
1.59667	-3
1.60033	-3
1.60400	-4
1.60767	-5
1.61133	-6
1.61500	-8
1.61867	-10
1.62233	-12
1.62600	-15
1.62967	-18
1.63333	-21
1.63700	-24
1.64067	-28
1.64433	-31
1.64800	-35
1.65167	-38
1.65533	-42
1.65900	-46
1.66267	-49
1.66633	-53
1.67000	-58
1.67367	-63
1.67733	-68
1.68100	-73
1.68467	-78
1.68833	-83
1.69200	-88
1.69567	-92
1.69933	-96
1.70300	-99
1.70667	-102
1.71033	-105
1.71400	-107
1.71767	-108
1.72133	-110
1.72500	-111
1.72867	-112
1.73233	-113
1.73600	-114
1.73967	-114
1.74333	-114
1.74700	-115
1.75067	-115
1.75433	-115
1.75800	-115
1.76167	-114
1.76533	-114
1.76900	-114
1.77267	-114
1.77633	-115
1.78000	-115
1.78367	-115
1.78733	-116
1.79100	-116
1.79467	-117
1.79833	-117
1.80200	-118
1.80567	-119
1.80933	-119
1.81300	-120
1.81667	-120
1.82033	-121
1.82400	-121
1.82767	-121
1.83133	-120
1.83500	-120
1.83867	-119
1.84233	-119
1.84600	-119
1.84967	-118
1.85333	-118
1.85700	-119
1.86067	-119
1.86433	-119
1.86800	-120
1.87167	-120
1.87533	-120
1.87900	-121
1.88267	-121
1.88633	-121
1.89000	-121
1.89367	-121
1.89733	-121
1.90100	-121
1.90467	-120
1.90833	-120
1.91200	-120
1.91567	-119
1.91933	-119
1.92300	-118
1.92667	-118
1.93033	-118
1.93400	-117
1.93767	-116
1.94133	-116
1.94500	-116
1.94867	-116
1.95233	-116
1.95600	-116
1.95967	-116
1.96333	-116
1.96700	-116
1.97067	-116
1.97433	-115
1.97800	-115
1.98167	-114
1.98533	-114
1.98900	-113
1.99267	-113
1.99633	-112
2.00000	-112
2.00367	-112
2.00733	-112
2.01100	-112
2.01467	-112
2.01833	-112
2.02200	-112
2.02567	-111
2.02933	-111
2.03300	-110
2.03667	-110
2.04033	-109
2.04400	-109
2.04767	-108
2.05133	-108
2.05500	-108
2.05867	-107
2.06233	-107
2.06600	-107
2.06967	-107
2.07333	-106
2.07700	-106
2.08067	-106
2.08433	-107
2.08800	-107
2.09167	-107
2.09533	-108
2.09900	-108
2.10267	-108
2.10633	-108
2.11000	-107
2.11367	-106
2.11733	-105
2.12100	-104
2.12467	-103
2.12833	-102
2.13200	-101
2.13567	-101
2.13933	-101
2.14300	-101
2.14667	-101
2.15033	-101
2.15400	-101
2.15767	-101
2.16133	-101
2.16500	-100
2.16867	-100
2.17233	-99
2.17600	-99
2.17967	-98
2.18333	-97
2.18700	-97
2.19067	-97
2.19433	-96
2.19800	-96
2.20167	-96
2.20533	-96
2.20900	-97
2.21267	-96
2.21633	-96
2.22000	-95
2.22367	-95
2.22733	-94
2.23100	-93
2.23467	-93
2.23833	-92
2.24200	-92
2.24567	-92
2.24933	-92
2.25300	-92
2.25667	-91
2.26033	-91
2.26400	-91
2.26767	-90
2.27133	-90
2.27500	-89
2.27867	-89
2.28233	-88
2.28600	-88
2.28967	-87
2.29333	-87
2.29700	-86
2.30067	-85
2.30433	-85
2.30800	-84
2.31167	-84
2.31533	-84
2.31900	-84
2.32267	-84
2.32633	-84
2.33000	-84
2.33367	-84
2.33733	-84
2.34100	-83
2.34467	-83
2.34833	-83
2.35200	-83
2.35567	-83
2.35933	-83
2.36300	-83
2.36667	-83
2.37033	-82
2.37400	-80
2.37767	-78
2.38133	-75
2.38500	-72
2.38867	-68
2.39233	-64
2.39600	-60
2.39967	-56
2.40333	-51
2.40700	-46
2.41067	-41
2.41433	-37
2.41800	-33
2.42167	-29
2.42533	-26
2.42900	-23
2.43267	-21
2.43633	-19
2.44000	-16
2.44367	-14
2.44733	-12
2.45100	-10
2.45467	-8
2.45833	-6
2.46200	-4
2.46567	-2
2.46933	-1
2.47300	1
2.47667	2
2.48033	2
2.48400	3
2.48767	4
2.49133	5
2.49500	6
2.49867	6
2.50233	7
2.50600	8
2.50967	9
2.51333	9
2.51700	9
2.52067	10
2.52433	10
2.52800	11
2.53167	11
2.53533	12
2.53900	12
2.54267	13
2.54633	14
2.55000	15
2.55367	15
2.55733	15
2.56100	15
2.56467	15
2.56833	15
2.57200	15
2.57567	15
2.57933	15
2.58300	15
2.58667	15
2.59033	15
2.59400	15
2.59767	15
2.60133	16
2.60500	16
2.60867	16
2.61233	16
2.61600	17
2.61967	17
2.62333	17
2.62700	18
2.63067	19
2.63433	19
2.63800	19
2.64167	20
2.64533	20
2.64900	20
2.65267	20
2.65633	20
2.66000	20
2.66367	20
2.66733	20
2.67100	21
2.67467	21
2.67833	22
2.68200	23
2.68567	23
2.68933	23
2.69300	23
2.69667	23
2.70033	23
2.70400	23
2.70767	23
2.71133	23
2.71500	23
2.71867	22
2.72233	22
2.72600	22
2.72967	23
2.73333	23
2.73700	23
2.74067	23
2.74433	24
2.74800	24
2.75167	25
2.75533	25
2.75900	25
2.76267	25
2.76633	26
2.77000	26
2.77367	26
2.77733	26
2.78100	26
2.78467	26
2.78833	26
2.79200	26
2.79567	26
2.79933	26
2.80300	26
2.80667	26
2.81033	26
2.81400	26
2.81767	26
2.82133	26
2.82500	26
2.82867	26
2.83233	27
2.83600	27
2.83967	27
2.84333	27
2.84700	26
2.85067	25
2.85433	22
2.85800	18
2.86167	12
2.86533	3
2.86900	-9
2.87267	-24
2.87633	-44
2.88000	-67
2.88367	-94
2.88733	-125
2.89100	-159
2.89467	-197
2.89833	-238
2.90200	-281
2.90567	-327
2.90933	-374
2.91300	-423
2.91667	-473
2.92033	-523
2.92400	-573
2.92767	-624
2.93133	-674
2.93500	-724
2.93867	-773
2.94233	-823
2.94600	-877
2.94967	-936
2.95333	-998
2.95700	-1052
2.96067	-1089
2.96433	-1100
2.96800	-1084
2.97167	-1045
2.97533	-988
2.97900	-917
2.98267	-839
2.98633	-759
2.99000	-679
2.99367	-602
2.99733	-529
3.00100	-463
3.00467	-402
3.00833	-347
3.01200	-299
3.01567	-256
3.01933	-219
3.02300	-186
3.02667	-158
3.03033	-133
3.03400	-112
3.03767	-94
3.04133	-78
3.04500	-64
3.04867	-53
3.05233	-43
3.05600	-34
3.05967	-27
3.06333	-21
3.06700	-15
3.07067	-11
3.07433	-7
3.07800	-3
3.08167	-0
3.08533	2
3.08900	4
3.09267	6
3.09633	7
3.10000	8
3.10367	9
3.10733	10
3.11100	11
3.11467	12
3.11833	13
3.12200	13
3.12567	14
3.12933	15
3.13300	15
3.13667	16
3.14033	17
3.14400	17
3.14767	18
3.15133	18
3.15500	19
3.15867	19
3.16233	20
3.16600	20
3.16967	20
3.17333	21
3.17700	21
3.18067	21
3.18433	22
3.18800	22
3.19167	22
3.19533	22
3.19900	22
3.20267	22
3.20633	23
3.21000	23
3.21367	23
3.21733	23
3.22100	23
3.22467	24
3.22833	24
3.23200	24
3.23567	24
3.23933	24
3.24300	24
3.24667	24
3.25033	24
3.25400	24
3.25767	24
3.26133	24
3.26500	25
3.26867	25
3.27233	25
3.27600	25
3.27967	25
3.28333	25
3.28700	26
3.29067	26
3.29433	26
3.29800	26
3.30167	26
3.30533	26
3.30900	26
3.31267	26
3.31633	26
3.32000	26
3.32367	26
3.32733	26
3.33100	26
3.33467	26
3.33833	27
3.34200	27
3.34567	27
3.34933	27
3.35300	28
3.35667	28
3.36033	28
3.36400	28
3.36767	28
3.37133	28
3.37500	28
3.37867	28
3.38233	28
3.38600	27
3.38967	27
3.39333	27
3.39700	27
3.40067	27
3.40433	27
3.40800	27
3.41167	27
3.41533	26
3.41900	26
3.42267	26
3.42633	26
3.43000	26
3.43367	26
3.43733	26
3.44100	26
3.44467	26
3.44833	26
3.45200	26
3.45567	26
3.45933	26
3.46300	27
3.46667	27
3.47033	27
3.47400	27
3.47767	27
3.48133	27
3.48500	28
3.48867	28
3.49233	29
3.49600	29
3.49967	29
3.50333	29
3.50700	30
3.51067	30
3.51433	30
3.51800	30
3.52167	30
3.52533	30
3.52900	30
3.53267	31
3.53633	31
3.54000	31
3.54367	31
3.54733	31
3.55100	31
3.55467	31
3.55833	31
3.56200	31
3.56567	31
3.56933	31
3.57300	31
3.57667	30
3.58033	30
3.58400	30
3.58767	30
3.59133	30
3.59500	29
3.59867	29
3.60233	29
3.60600	29
3.60967	28
3.61333	28
3.61700	28
3.62067	28
3.62433	28
3.62800	28
3.63167	28
3.63533	28
3.63900	27
3.64267	27
3.64633	27
3.65000	27
3.65367	27
3.65733	27
3.66100	27
3.66467	28
3.66833	28
3.67200	28
3.67567	29
3.67933	29
3.68300	29
3.68667	29
3.69033	29
3.69400	29
3.69767	29
3.70133	29
3.70500	29
3.70867	29
3.71233	29
3.71600	29
3.71967	29
3.72333	29
3.72700	29
3.73067	29
3.73433	29
3.73800	29
3.74167	29
3.74533	29
3.74900	29
3.75267	28
3.75633	28
3.76000	28
3.76367	28
3.76733	28
3.77100	27
3.77467	27
3.77833	27
3.78200	27
3.78567	27
3.78933	27
3.79300	28
3.79667	28
3.80033	28
3.80400	28
3.80767	28
3.81133	28
3.81500	28
3.81867	28
3.82233	28
3.82600	27
3.82967	27
3.83333	27
3.83700	27
3.84067	27
3.84433	27
3.84800	27
3.85167	27
3.85533	27
3.85900	26
3.86267	26
3.86633	26
3.87000	26
3.87367	26
3.87733	26
3.88100	26
3.88467	26
3.88833	26
3.89200	25
3.89567	25
3.89933	25
3.90300	25
3.90667	24
3.91033	24
3.91400	24
3.91767	24
3.92133	25
3.92500	25
3.92867	25
3.93233	25
3.93600	25
3.93967	25
3.94333	25
3.94700	25
3.95067	26
3.95433	26
3.95800	26
3.96167	26
3.96533	26
3.96900	27
3.97267	27
3.97633	28
3.98000	28
3.98367	29
3.98733	30
3.99100	30
3.99467	30
3.99833	30

[Chromatogram (Ch3)]
Interval(msec)	220
# of Points	1091
Start Time(min)	0.002
End Time(min)	3.998
R.Time (min)	Intensity
0.00167	-0
0.00533	-0
0.00900	1
0.01267	2
0.01633	2
0.02000	0
0.02367	-1
0.02733	-1
0.03100	-2
0.03467	1
0.03833	2
0.04200	1
0.04567	-0
0.04933	0
0.05300	0
0.05667	0
0.06033	2
0.06400	4
0.06767	2
0.07133	4
0.07500	4
0.07867	3
0.08233	1
0.08600	2
0.08967	2
0.09333	-1
0.09700	-2
0.10067	-1
0.10433	2
0.10800	3
0.11167	3
0.11533	3
0.11900	3
0.12267	2
0.12633	1
0.13000	1
0.13367	2
0.13733	3
0.14100	3
0.14467	3
0.14833	4
0.15200	8
0.15567	9
0.15933	11
0.16300	13
0.16667	11
0.17033	9
0.17400	6
0.17767	4
0.18133	5
0.18500	4
0.18867	2
0.19233	3
0.19600	4
0.19967	5
0.20333	5
0.20700	5
0.21067	5
0.21433	6
0.21800	7
0.22167	8
0.22533	10
0.22900	10
0.23267	8
0.23633	6
0.24000	4
0.24367	3
0.24733	4
0.25100	5
0.25467	5
0.25833	4
0.26200	5
0.26567	5
0.26933	6
0.27300	7
0.27667	9
0.28033	9
0.28400	9
0.28767	7
0.29133	7
0.29500	6
0.29867	6
0.30233	7
0.30600	8
0.30967	9
0.31333	11
0.31700	11
0.32067	11
0.32433	11
0.32800	11
0.33167	12
0.33533	11
0.33900	9
0.34267	6
0.34633	6
0.35000	8
0.35367	9
0.35733	8
0.36100	8
0.36467	10
0.36833	12
0.37200	12
0.37567	13
0.37933	12
0.38300	12
0.38667	13
0.39033	13
0.39400	16
0.39767	18
0.40133	19
0.40500	20
0.40867	21
0.41233	23
0.41600	23
0.41967	23
0.42333	23
0.42700	22
0.43067	22
0.43433	22
0.43800	22
0.44167	22
0.44533	24
0.44900	25
0.45267	24
0.45633	24
0.46000	23
0.46367	22
0.46733	22
0.47100	20
0.47467	20
0.47833	19
0.48200	19
0.48567	20
0.48933	19
0.49300	19
0.49667	19
0.50033	19
0.50400	22
0.50767	25
0.51133	26
0.51500	24
0.51867	23
0.52233	21
0.52600	19
0.52967	19
0.53333	20
0.53700	22
0.54067	23
0.54433	24
0.54800	25
0.55167	24
0.55533	21
0.55900	21
0.56267	21
0.56633	23
0.57000	24
0.57367	27
0.57733	28
0.58100	25
0.58467	23
0.58833	23
0.59200	22
0.59567	21
0.59933	22
0.60300	20
0.60667	19
0.61033	20
0.61400	23
0.61767	26
0.62133	27
0.62500	26
0.62867	25
0.63233	23
0.63600	23
0.63967	24
0.64333	25
0.64700	24
0.65067	24
0.65433	25
0.65800	26
0.66167	27
0.66533	28
0.66900	27
0.67267	26
0.67633	28
0.68000	30
0.68367	30
0.68733	31
0.69100	30
0.69467	30
0.69833	31
0.70200	33
0.70567	32
0.70933	32
0.71300	30
0.71667	29
0.72033	31
0.72400	34
0.72767	35
0.73133	35
0.73500	33
0.73867	33
0.74233	33
0.74600	34
0.74967	33
0.75333	31
0.75700	29
0.76067	28
0.76433	31
0.76800	33
0.77167	33
0.77533	34
0.77900	35
0.78267	33
0.78633	31
0.79000	31
0.79367	30
0.79733	29
0.80100	29
0.80467	31
0.80833	31
0.81200	30
0.81567	29
0.81933	31
0.82300	34
0.82667	37
0.83033	39
0.83400	41
0.83767	41
0.84133	40
0.84500	38
0.84867	37
0.85233	36
0.85600	36
0.85967	38
0.86333	40
0.86700	41
0.87067	41
0.87433	42
0.87800	43
0.88167	44
0.88533	45
0.88900	44
0.89267	45
0.89633	45
0.90000	46
0.90367	47
0.90733	46
0.91100	47
0.91467	46
0.91833	45
0.92200	42
0.92567	42
0.92933	44
0.93300	46
0.93667	45
0.94033	44
0.94400	45
0.94767	46
0.95133	47
0.95500	47
0.95867	47
0.96233	47
0.96600	44
0.96967	41
0.97333	41
0.97700	44
0.98067	46
0.98433	47
0.98800	48
0.99167	47
0.99533	47
0.99900	48
1.00267	46
1.00633	45
1.01000	44
1.01367	44
1.01733	44
1.02100	43
1.02467	40
1.02833	41
1.03200	43
1.03567	45
1.03933	45
1.04300	45
1.04667	46
1.05033	46
1.05400	45
1.05767	47
1.06133	51
1.06500	50
1.06867	48
1.07233	47
1.07600	46
1.07967	45
1.08333	44
1.08700	43
1.09067	43
1.09433	44
1.09800	46
1.10167	49
1.10533	50
1.10900	50
1.11267	51
1.11633	51
1.12000	51
1.12367	52
1.12733	50
1.13100	49
1.13467	48
1.13833	48
1.14200	48
1.14567	47
1.14933	45
1.15300	46
1.15667	48
1.16033	49
1.16400	49
1.16767	49
1.17133	50
1.17500	50
1.17867	50
1.18233	53
1.18600	54
1.18967	56
1.19333	55
1.19700	53
1.20067	52
1.20433	52
1.20800	52
1.21167	50
1.21533	51
1.21900	52
1.22267	54
1.22633	54
1.23000	53
1.23367	50
1.23733	50
1.24100	50
1.24467	50
1.24833	50
1.25200	52
1.25567	53
1.25933	55
1.26300	56
1.26667	56
1.27033	54
1.27400	50
1.27767	49
1.28133	49
1.28500	48
1.28867	50
1.29233	53
1.29600	53
1.29967	53
1.30333	54
1.30700	55
1.31067	53
1.31433	53
1.31800	53
1.32167	53
1.32533	53
1.32900	53
1.33267	51
1.33633	50
1.34000	51
1.34367	52
1.34733	54
1.35100	54
1.35467	54
1.35833	55
1.36200	54
1.36567	54
1.36933	53
1.37300	52
1.37667	51
1.38033	50
1.38400	50
1.38767	51
1.39133	52
1.39500	53
1.39867	55
1.40233	54
1.40600	55
1.40967	55
1.41333	55
1.41700	54
1.42067	53
1.42433	52
1.42800	54
1.43167	54
1.43533	54
1.43900	56
1.44267	57
1.44633	58
1.45000	60
1.45367	61
1.45733	60
1.46100	59
1.46467	58
1.46833	57
1.47200	56
1.47567	56
1.47933	56
1.48300	57
1.48667	58
1.49033	60
1.49400	61
1.49767	59
1.50133	57
1.50500	58
1.50867	59
1.51233	58
1.51600	59
1.51967	59
1.52333	58
1.52700	59
1.53067	59
1.53433	58
1.53800	56
1.54167	53
1.54533	51
1.54900	51
1.55267	54
1.55633	55
1.56000	53
1.56367	51
1.56733	51
1.57100	51
1.57467	54
1.57833	56
1.58200	56
1.58567	56
1.58933	55
1.59300	55
1.59667	55
1.60033	56
1.60400	57
1.60767	58
1.61133	57
1.61500	56
1.61867	54
1.62233	55
1.62600	55
1.62967	56
1.63333	59
1.63700	62
1.64067	64
1.64433	64
1.64800	61
1.65167	60
1.65533	59
1.65900	59
1.66267	59
1.66633	60
1.67000	60
1.67367	62
1.67733	67
1.68100	69
1.68467	71
1.68833	71
1.69200	70
1.69567	69
1.69933	70
1.70300	70
1.70667	70
1.71033	70
1.71400	70
1.71767	67
1.72133	66
1.72500	68
1.72867	70
1.73233	70
1.73600	72
1.73967	72
1.74333	72
1.74700	73
1.75067	73
1.75433	74
1.75800	72
1.76167	72
1.76533	72
1.76900	72
1.77267	75
1.77633	76
1.78000	78
1.78367	79
1.78733	77
1.79100	77
1.79467	78
1.79833	79
1.80200	81
1.80567	83
1.80933	83
1.81300	84
1.81667	83
1.82033	85
1.82400	85
1.82767	83
1.83133	82
1.83500	84
1.83867	84
1.84233	85
1.84600	87
1.84967	88
1.85333	88
1.85700	88
1.86067	87
1.86433	88
1.86800	88
1.87167	90
1.87533	95
1.87900	95
1.88267	93
1.88633	91
1.89000	89
1.89367	88
1.89733	86
1.90100	86
1.90467	86
1.90833	87
1.91200	87
1.91567	87
1.91933	88
1.92300	91
1.92667	93
1.93033	98
1.93400	100
1.93767	98
1.94133	98
1.94500	100
1.94867	100
1.95233	100
1.95600	100
1.95967	97
1.96333	95
1.96700	95
1.97067	94
1.97433	97
1.97800	100
1.98167	104
1.98533	105
1.98900	106
1.99267	108
1.99633	108
2.00000	107
2.00367	107
2.00733	108
2.01100	112
2.01467	113
2.01833	113
2.02200	111
2.02567	109
2.02933	109
2.03300	111
2.03667	115
2.04033	117
2.04400	116
2.04767	116
2.05133	116
2.05500	116
2.05867	117
2.06233	119
2.06600	118
2.06967	120
2.07333	122
2.07700	124
2.08067	125
2.08433	127
2.08800	127
2.09167	129
2.09533	130
2.09900	130
2.10267	129
2.10633	129
2.11000	131
2.11367	132
2.11733	133
2.12100	135
2.12467	138
2.12833	140
2.13200	140
2.13567	139
2.13933	140
2.14300	140
2.14667	142
2.15033	144
2.15400	145
2.15767	147
2.16133	146
2.16500	145
2.16867	144
2.17233	144
2.17600	144
2.17967	146
2.18333	149
2.18700	153
2.19067	155
2.19433	155
2.19800	155
2.20167	153
2.20533	153
2.20900	154
2.21267	155
2.21633	157
2.22000	157
2.22367	155
2.22733	156
2.23100	159
2.23467	159
2.23833	159
2.24200	157
2.24567	159
2.24933	161
2.25300	164
2.25667	165
2.26033	165
2.26400	166
2.26767	167
2.27133	168
2.27500	166
2.27867	165
2.28233	165
2.28600	166
2.28967	168
2.29333	169
2.29700	168
2.30067	169
2.30433	172
2.30800	174
2.31167	175
2.31533	174
2.31900	174
2.32267	175
2.32633	175
2.33000	176
2.33367	179
2.33733	180
2.34100	181
2.34467	181
2.34833	180
2.35200	179
2.35567	181
2.35933	183
2.36300	184
2.36667	185
2.37033	182
2.37400	181
2.37767	181
2.38133	182
2.38500	182
2.38867	183
2.39233	182
2.39600	182
2.39967	185
2.40333	187
2.40700	187
2.41067	187
2.41433	189
2.41800	191
2.42167	194
2.42533	196
2.42900	197
2.43267	196
2.43633	194
2.44000	194
2.44367	208
2.44733	249
2.45100	298
2.45467	332
2.45833	339
2.46200	328
2.46567	314
2.46933	304
2.47300	296
2.47667	287
2.48033	275
2.48400	260
2.48767	242
2.49133	226
2.49500	215
2.49867	208
2.50233	202
2.50600	199
2.50967	202
2.51333	207
2.51700	210
2.52067	212
2.52433	210
2.52800	204
2.53167	195
2.53533	185
2.53900	175
2.54267	167
2.54633	158
2.55000	151
2.55367	145
2.55733	140
2.56100	137
2.56467	135
2.56833	132
2.57200	129
2.57567	128
2.57933	128
2.58300	130
2.58667	132
2.59033	133
2.59400	133
2.59767	131
2.60133	128
2.60500	120
2.60867	106
2.61233	81
2.61600	48
2.61967	10
2.62333	-30
2.62700	-72
2.63067	-113
2.63433	-151
2.63800	-183
2.64167	-211
2.64533	-232
2.64900	-246
2.65267	-256
2.65633	-260
2.66000	-261
2.66367	-258
2.66733	-253
2.67100	-246
2.67467	-239
2.67833	-233
2.68200	-225
2.68567	-215
2.68933	-204
2.69300	-193
2.69667	-183
2.70033	-171
2.70400	-159
2.70767	-148
2.71133	-138
2.71500	-128
2.71867	-119
2.72233	-111
2.72600	-105
2.72967	-96
2.73333	-87
2.73700	-79
2.74067	-72
2.74433	-64
2.74800	-58
2.75167	-53
2.75533	-50
2.75900	-47
2.76267	-42
2.76633	-40
2.77000	-37
2.77367	-32
2.77733	-28
2.78100	-23
2.78467	-19
2.78833	-16
2.79200	-12
2.79567	-7
2.79933	-3
2.80300	-2
2.80667	-0
2.81033	3
2.81400	4
2.81767	7
2.82133	11
2.82500	17
2.82867	33
2.83233	61
2.83600	114
2.83967	218
2.84333	396
2.84700	668
2.85067	1054
2.85433	1552
2.85800	2146
2.86167	2801
2.86533	3476
2.86900	4110
2.87267	4654
2.87633	5068
2.88000	5328
2.88367	5427
2.88733	5373
2.89100	5189
2.89467	4887
2.89833	4504
2.90200	4091
2.90567	3689
2.90933	3322
2.91300	2998
2.91667	2709
2.92033	2454
2.92400	2228
2.92767	2032
2.93133	1861
2.93500	1716
2.93867	1588
2.94233	1473
2.94600	1372
2.94967	1286
2.95333	1209
2.95700	1144
2.96067	1085
2.96433	1033
2.96800	989
2.97167	951
2.97533	919
2.97900	893
2.98267	870
2.98633	849
2.99000	832
2.99367	818
2.99733	808
3.00100	799
3.00467	791
3.00833	783
3.01200	780
3.01567	778
3.01933	776
3.02300	773
3.02667	770
3.03033	767
3.03400	766
3.03767	764
3.04133	763
3.04500	762
3.04867	760
3.05233	758
3.05600	758
3.05967	756
3.06333	752
3.06700	750
3.07067	749
3.07433	749
3.07800	750
3.08167	750
3.08533	751
3.08900	753
3.09267	754
3.09633	753
3.10000	753
3.10367	753
3.10733	753
3.11100	755
3.11467	758
3.11833	761
3.12200	763
3.12567	763
3.12933	765
3.13300	770
3.13667	774
3.14033	776
3.14400	778
3.14767	780
3.15133	782
3.15500	785
3.15867	787
3.16233	791
3.16600	796
3.16967	799
3.17333	800
3.17700	799
3.18067	800
3.18433	800
3.18800	803
3.19167	805
3.19533	806
3.19900	806
3.20267	808
3.20633	807
3.21000	806
3.21367	805
3.21733	805
3.22100	806
3.22467	806
3.22833	806
3.23200	806
3.23567	804
3.23933	801
3.24300	798
3.24667	795
3.25033	792
3.25400	792
3.25767	794
3.26133	792
3.26500	788
3.26867	787
3.27233	786
3.27600	783
3.27967	782
3.28333	781
3.28700	778
3.29067	774
3.29433	772
3.29800	769
3.30167	767
3.30533	765
3.30900	762
3.31267	760
3.31633	756
3.32000	750
3.32367	745
3.32733	741
3.33100	737
3.33467	736
3.33833	736
3.34200	735
3.34567	733
3.34933	731
3.35300	727
3.35667	725
3.36033	723
3.36400	720
3.36767	717
3.37133	715
3.37500	713
3.37867	711
3.38233	710
3.38600	707
3.38967	704
3.39333	699
3.39700	697
3.40067	694
3.40433	690
3.40800	687
3.41167	685
3.41533	685
3.41900	682
3.42267	677
3.42633	674
3.43000	672
3.43367	670
3.43733	667
3.44100	665
3.44467	662
3.44833	659
3.45200	657
3.45567	654
3.45933	650
3.46300	643
3.46667	640
3.47033	639
3.47400	639
3.47767	638
3.48133	636
3.48500	629
3.48867	625
3.49233	623
3.49600	621
3.49967	618
3.50333	614
3.50700	611
3.51067	608
3.51433	606
3.51800	603
3.52167	597
3.52533	595
3.52900	593
3.53267	588
3.53633	582
3.54000	577
3.54367	573
3.54733	570
3.55100	569
3.55467	567
3.55833	566
3.56200	563
3.56567	558
3.56933	554
3.57300	551
3.57667	550
3.58033	549
3.58400	547
3.58767	544
3.59133	541
3.59500	538
3.59867	536
3.60233	535
3.60600	534
3.60967	533
3.61333	530
3.61700	527
3.62067	525
3.62433	524
3.62800	525
3.63167	524
3.63533	521
3.63900	518
3.64267	515
3.64633	512
3.65000	508
3.65367	503
3.65733	497
3.66100	495
3.66467	493
3.66833	491
3.67200	489
3.67567	490
3.67933	490
3.68300	488
3.68667	485
3.69033	482
3.69400	480
3.69767	477
3.70133	476
3.70500	475
3.70867	474
3.71233	472
3.71600	469
3.71967	467
3.72333	466
3.72700	465
3.73067	464
3.73433	462
3.73800	459
3.74167	457
3.74533	456
3.74900	454
3.75267	452
3.75633	449
3.76000	446
3.76367	447
3.76733	446
3.77100	447
3.77467	448
3.77833	446
3.78200	444
3.78567	444
3.78933	443
3.79300	441
3.79667	438
3.80033	434
3.80400	431
3.80767	429
3.81133	427
3.81500	425
3.81867	425
3.82233	425
3.82600	423
3.82967	421
3.83333	419
3.83700	418
3.84067	417
3.84433	415
3.84800	415
3.85167	416
3.85533	415
3.85900	411
3.86267	409
3.86633	409
3.87000	408
3.87367	407
3.87733	407
3.88100	408
3.88467	407
3.88833	403
3.89200	399
3.89567	396
3.89933	395
3.90300	392
3.90667	388
3.91033	388
3.91400	388
3.91767	387
3.92133	386
3.92500	385
3.92867	383
3.93233	383
3.93600	383
3.93967	384
3.94333	385
3.94700	383
3.95067	380
3.95433	377
3.95800	373
3.96167	369
3.96533	368
3.96900	368
3.97267	366
3.97633	363
3.98000	361
3.98367	358
3.98733	356
3.99100	355
3.99467	352
3.99833	350

[Status Trace (Column Oven Temperature)]
Interval(msec)	1000
# of Points	240
Start Time(min)	0.014
End Time(min)	3.997
Intensity Units	
Intensity Multiplier	1
R.Time (min)	Intensity
0.01367	35.03
0.03033	35.02
0.04700	35.01
0.06367	35.00
0.08033	35.00
0.09700	35.00
0.11367	34.99
0.13033	34.99
0.14700	34.99
0.16367	34.98
0.18033	34.99
0.19700	34.99
0.21367	35.00
0.23033	35.00
0.24700	35.00
0.26367	35.00
0.28033	34.99
0.29700	34.98
0.31367	34.97
0.33033	34.97
0.34700	34.98
0.36367	34.98
0.38033	34.98
0.39700	35.00
0.41367	35.00
0.43033	35.01
0.44700	35.00
0.46367	35.00
0.48033	35.00
0.49700	34.98
0.51367	34.99
0.53033	35.00
0.54700	35.00
0.56367	34.99
0.58033	34.99
0.59700	34.98
0.61367	34.98
0.63033	34.98
0.64700	34.98
0.66367	34.97
0.68033	34.97
0.69700	34.97
0.71367	34.97
0.73033	34.97
0.74700	34.98
0.76367	34.98
0.78033	34.98
0.79700	34.98
0.81367	34.98
0.83033	34.99
0.84700	34.98
0.86367	34.98
0.88033	34.98
0.89700	34.98
0.91367	34.99
0.93033	34.99
0.94700	34.99
0.96367	34.99
0.98033	35.00
0.99700	35.00
1.01367	35.00
1.03033	35.01
1.04700	35.01
1.06367	35.01
1.08033	35.01
1.09700	35.04
1.11367	35.04
1.13033	35.04
1.14700	35.04
1.16367	35.03
1.18033	35.03
1.19700	35.03
1.21367	35.03
1.23033	35.02
1.24700	35.00
1.26367	34.99
1.28033	34.98
1.29700	34.97
1.31367	34.96
1.33033	34.96
1.34700	34.95
1.36367	34.95
1.38033	34.97
1.39700	34.97
1.41367	34.98
1.43033	35.01
1.44700	35.02
1.46367	35.03
1.48033	35.03
1.49700	35.02
1.51367	35.01
1.53033	35.00
1.54700	35.01
1.56367	35.02
1.58033	35.03
1.59700	35.06
1.61367	35.13
1.63033	35.26
1.64700	35.46
1.66367	35.71
1.68033	36.06
1.69700	36.44
1.71367	36.80
1.73033	37.15
1.74700	37.46
1.76367	37.77
1.78033	38.09
1.79700	38.43
1.81367	38.77
1.83033	39.10
1.84700	39.42
1.86367	39.76
1.88033	40.09
1.89700	40.43
1.91367	40.77
1.93033	41.09
1.94700	41.42
1.96367	41.76
1.98033	42.08
1.99700	42.40
2.01367	42.73
2.03033	43.06
2.04700	43.38
2.06367	43.70
2.08033	44.02
2.09700	44.38
2.11367	44.69
2.13033	45.00
2.14700	45.33
2.16367	45.67
2.18033	45.97
2.19700	46.30
2.21367	46.65
2.23033	46.95
2.24700	47.29
2.26367	47.64
2.28033	47.96
2.29700	48.27
2.31367	48.60
2.33033	48.93
2.34700	49.25
2.36367	49.53
2.38033	49.68
2.39700	49.71
2.41367	49.69
2.43033	49.72
2.44700	49.72
2.46367	49.72
2.48033	49.74
2.49700	49.75
2.51367	49.77
2.53033	49.78
2.54700	49.78
2.56367	49.82
2.58033	49.83
2.59700	49.83
2.61367	49.85
2.63033	49.84
2.64700	49.86
2.66367	49.85
2.68033	49.84
2.69700	49.85
2.71367	49.86
2.73033	49.87
2.74700	49.87
2.76367	49.88
2.78033	49.89
2.79700	49.89
2.81367	49.90
2.83033	49.90
2.84700	49.91
2.86367	49.92
2.88033	49.92
2.89700	49.93
2.91367	49.95
2.93033	49.98
2.94700	50.00
2.96367	50.02
2.98033	50.05
2.99700	50.07
3.01367	50.08
3.03033	50.09
3.04700	50.09
3.06367	50.08
3.08033	50.09
3.09700	50.10
3.11367	50.10
3.13033	50.10
3.14700	50.10
3.16367	50.09
3.18033	50.10
3.19700	50.10
3.21367	50.09
3.23033	50.09
3.24700	50.08
3.26367	50.08
3.28033	50.09
3.29700	50.08
3.31367	50.08
3.33033	50.08
3.34700	50.07
3.36367	50.06
3.38033	50.07
3.39700	50.07
3.41367	50.08
3.43033	50.09
3.44700	50.11
3.46367	50.11
3.48033	50.10
3.49700	50.08
3.51367	50.07
3.53033	50.05
3.54700	50.04
3.56367	50.02
3.58033	50.02
3.59700	50.03
3.61367	50.03
3.63033	50.04
3.64700	50.05
3.66367	50.05
3.68033	50.05
3.69700	50.04
3.71367	50.02
3.73033	50.01
3.74700	50.03
3.76367	50.03
3.78033	50.04
3.79700	50.04
3.81367	50.04
3.83033	50.03
3.84700	50.04
3.86367	50.05
3.88033	50.06
3.89700	50.08
3.91367	50.09
3.93033	50.10
3.94700	50.10
3.96367	50.09
3.98033	50.07
3.99700	50.06

[Status Trace (Injection Unit Temperature)]
Interval(msec)	1000
# of Points	240
Start Time(min)	0.014
End Time(min)	3.997
Intensity Units	
Intensity Multiplier	1
R.Time (min)	Intensity
0.01367	99.99
0.03033	99.99
0.04700	99.99
0.06367	99.99
0.08033	99.99
0.09700	99.99
0.11367	99.99
0.13033	99.99
0.14700	99.98
0.16367	99.99
0.18033	99.99
0.19700	99.99
0.21367	99.99
0.23033	99.99
0.24700	99.99
0.26367	99.99
0.28033	99.99
0.29700	99.99
0.31367	99.98
0.33033	99.98
0.34700	99.99
0.36367	99.98
0.38033	99.98
0.39700	99.98
0.41367	99.98
0.43033	99.98
0.44700	99.98
0.46367	99.98
0.48033	99.98
0.49700	99.98
0.51367	99.99
0.53033	99.98
0.54700	99.99
0.56367	99.99
0.58033	99.98
0.59700	99.98
0.61367	99.98
0.63033	99.98
0.64700	99.98
0.66367	99.98
0.68033	99.98
0.69700	99.98
0.71367	99.98
0.73033	99.98
0.74700	99.98
0.76367	99.98
0.78033	99.98
0.79700	99.98
0.81367	99.98
0.83033	99.98
0.84700	99.98
0.86367	99.98
0.88033	99.99
0.89700	99.98
0.91367	99.99
0.93033	99.98
0.94700	99.98
0.96367	99.98
0.98033	99.97
0.99700	99.98
1.01367	99.98
1.03033	99.99
1.04700	99.98
1.06367	99.98
1.08033	99.98
1.09700	99.98
1.11367	99.98
1.13033	99.98
1.14700	99.98
1.16367	99.98
1.18033	99.98
1.19700	99.98
1.21367	99.98
1.23033	99.98
1.24700	99.98
1.26367	99.98
1.28033	99.98
1.29700	99.98
1.31367	99.97
1.33033	99.98
1.34700	99.98
1.36367	99.98
1.38033	99.99
1.39700	99.98
1.41367	99.99
1.43033	99.98
1.44700	99.98
1.46367	99.97
1.48033	99.98
1.49700	99.98
1.51367	99.98
1.53033	99.98
1.54700	99.98
1.56367	99.98
1.58033	99.98
1.59700	99.98
1.61367	99.98
1.63033	99.98
1.64700	99.98
1.66367	99.98
1.68033	99.98
1.69700	99.98
1.71367	99.98
1.73033	99.98
1.74700	99.98
1.76367	99.98
1.78033	99.98
1.79700	99.98
1.81367	99.98
1.83033	99.98
1.84700	99.98
1.86367	99.98
1.88033	99.98
1.89700	99.98
1.91367	99.98
1.93033	99.98
1.94700	99.98
1.96367	99.97
1.98033	99.97
1.99700	99.98
2.01367	99.98
2.03033	99.98
2.04700	99.98
2.06367	99.97
2.08033	99.97
2.09700	99.97
2.11367	99.97
2.13033	99.97
2.14700	99.97
2.16367	99.97
2.18033	99.97
2.19700	99.97
2.21367	99.96
2.23033	99.97
2.24700	99.97
2.26367	99.97
2.28033	99.97
2.29700	99.97
2.31367	99.97
2.33033	99.96
2.34700	99.96
2.36367	99.97
2.38033	99.96
2.39700	99.97
2.41367	99.96
2.43033	99.96
2.44700	99.96
2.46367	99.97
2.48033	99.97
2.49700	99.97
2.51367	99.96
2.53033	99.97
2.54700	99.96
2.56367	99.97
2.58033	99.97
2.59700	99.97
2.61367	99.97
2.63033	99.97
2.64700	99.97
2.66367	99.98
2.68033	99.97
2.69700	99.98
2.71367	99.98
2.73033	99.98
2.74700	99.98
2.76367	99.98
2.78033	99.99
2.79700	99.99
2.81367	99.99
2.83033	99.99
2.84700	99.99
2.86367	99.99
2.88033	100.00
2.89700	100.00
2.91367	100.00
2.93033	100.00
2.94700	100.01
2.96367	100.01
2.98033	100.01
2.99700	100.01
3.01367	100.01
3.03033	100.01
3.04700	100.02
3.06367	100.01
3.08033	100.02
3.09700	100.02
3.11367	100.02
3.13033	100.02
3.14700	100.02
3.16367	100.03
3.18033	100.03
3.19700	100.03
3.21367	100.02
3.23033	100.03
3.24700	100.03
3.26367	100.03
3.28033	100.04
3.29700	100.03
3.31367	100.04
3.33033	100.04
3.34700	100.03
3.36367	100.04
3.38033	100.04
3.39700	100.04
3.41367	100.04
3.43033	100.04
3.44700	100.04
3.46367	100.04
3.48033	100.04
3.49700	100.05
3.51367	100.04
3.53033	100.04
3.54700	100.04
3.56367	100.04
3.58033	100.05
3.59700	100.05
3.61367	100.04
3.63033	100.04
3.64700	100.04
3.66367	100.05
3.68033	100.05
3.69700	100.04
3.71367	100.05
3.73033	100.05
3.74700	100.05
3.76367	100.03
3.78033	100.05
3.79700	100.04
3.81367	100.05
3.83033	100.04
3.84700	100.05
3.86367	100.05
3.88033	100.05
3.89700	100.04
3.91367	100.04
3.93033	100.05
3.94700	100.04
3.96367	100.05
3.98033	100.05
3.99700	100.05

[Status Trace (Carrier Gas Pressure)]
Interval(msec)	1000
# of Points	240
Start Time(min)	0.014
End Time(min)	3.997
Intensity Units	
Intensity Multiplier	1
R.Time (min)	Intensity
0.01367	57.77
0.03033	55.39
0.04700	57.77
0.06367	59.76
0.08033	58.81
0.09700	57.99
0.11367	57.99
0.13033	58.01
0.14700	58.01
0.16367	58.01
0.18033	58.00
0.19700	58.00
0.21367	58.00
0.23033	58.00
0.24700	58.00
0.26367	58.00
0.28033	58.00
0.29700	58.00
0.31367	58.00
0.33033	58.00
0.34700	58.00
0.36367	58.00
0.38033	58.00
0.39700	58.00
0.41367	58.00
0.43033	58.00
0.44700	58.00
0.46367	58.00
0.48033	58.00
0.49700	58.00
0.51367	58.00
0.53033	58.00
0.54700	58.00
0.56367	58.00
0.58033	58.00
0.59700	58.00
0.61367	58.00
0.63033	58.00
0.64700	58.00
0.66367	58.00
0.68033	58.00
0.69700	58.00
0.71367	58.00
0.73033	58.00
0.74700	58.00
0.76367	58.00
0.78033	58.00
0.79700	58.00
0.81367	58.00
0.83033	58.00
0.84700	58.00
0.86367	58.00
0.88033	58.00
0.89700	58.00
0.91367	58.00
0.93033	58.00
0.94700	58.00
0.96367	58.00
0.98033	58.00
0.99700	58.00
1.01367	58.00
1.03033	58.00
1.04700	58.00
1.06367	58.00
1.08033	58.00
1.09700	58.00
1.11367	58.00
1.13033	58.00
1.14700	58.00
1.16367	58.00
1.18033	58.00
1.19700	58.00
1.21367	58.00
1.23033	58.00
1.24700	58.00
1.26367	58.00
1.28033	58.00
1.29700	58.00
1.31367	58.00
1.33033	58.00
1.34700	58.00
1.36367	58.00
1.38033	58.00
1.39700	58.00
1.41367	58.00
1.43033	58.00
1.44700	58.00
1.46367	58.00
1.48033	58.00
1.49700	58.00
1.51367	58.00
1.53033	58.00
1.54700	58.00
1.56367	58.00
1.58033	58.00
1.59700	58.00
1.61367	58.00
1.63033	58.00
1.64700	58.00
1.66367	58.01
1.68033	58.01
1.69700	58.00
1.71367	58.00
1.73033	58.00
1.74700	58.00
1.76367	58.00
1.78033	58.00
1.79700	58.00
1.81367	58.00
1.83033	58.00
1.84700	58.00
1.86367	58.00
1.88033	58.00
1.89700	58.00
1.91367	58.00
1.93033	58.00
1.94700	58.00
1.96367	58.00
1.98033	58.00
1.99700	58.00
2.01367	58.00
2.03033	58.00
2.04700	58.00
2.06367	58.00
2.08033	58.00
2.09700	58.00
2.11367	58.00
2.13033	58.00
2.14700	58.00
2.16367	58.00
2.18033	58.00
2.19700	58.00
2.21367	58.00
2.23033	58.00
2.24700	58.00
2.26367	58.00
2.28033	58.00
2.29700	58.00
2.31367	58.00
2.33033	58.00
2.34700	58.00
2.36367	58.00
2.38033	57.99
2.39700	57.99
2.41367	58.00
2.43033	58.00
2.44700	58.00
2.46367	58.00
2.48033	58.00
2.49700	58.00
2.51367	57.99
2.53033	57.99
2.54700	58.00
2.56367	58.00
2.58033	58.00
2.59700	58.00
2.61367	58.00
2.63033	58.00
2.64700	58.00
2.66367	58.00
2.68033	58.00
2.69700	58.00
2.71367	58.00
2.73033	58.00
2.74700	58.00
2.76367	58.00
2.78033	58.00
2.79700	58.00
2.81367	58.00
2.83033	58.00
2.84700	58.00
2.86367	58.00
2.88033	58.00
2.89700	58.00
2.91367	58.00
2.93033	58.00
2.94700	58.00
2.96367	58.00
2.98033	58.00
2.99700	58.00
3.01367	58.00
3.03033	58.00
3.04700	58.00
3.06367	58.00
3.08033	58.00
3.09700	58.00
3.11367	58.00
3.13033	58.00
3.14700	58.00
3.16367	58.00
3.18033	58.00
3.19700	58.00
3.21367	58.00
3.23033	58.00
3.24700	58.00
3.26367	58.00
3.28033	58.00
3.29700	58.00
3.31367	58.00
3.33033	58.00
3.34700	58.00
3.36367	58.00
3.38033	58.00
3.39700	58.00
3.41367	58.00
3.43033	58.00
3.44700	58.00
3.46367	58.00
3.48033	58.00
3.49700	58.00
3.51367	58.00
3.53033	58.00
3.54700	58.00
3.56367	58.00
3.58033	58.00
3.59700	58.00
3.61367	58.00
3.63033	58.00
3.64700	58.00
3.66367	58.00
3.68033	58.00
3.69700	58.00
3.71367	58.00
3.73033	58.00
3.74700	58.00
3.76367	58.00
3.78033	58.00
3.79700	58.00
3.81367	58.00
3.83033	58.00
3.84700	58.00
3.86367	58.00
3.88033	58.00
3.89700	58.00
3.91367	58.00
3.93033	58.00
3.94700	58.00
3.96367	58.00
3.98033	58.00
3.99700	58.00

[Status Trace (Carrier Gas Flow)]
Interval(msec)	1000
# of Points	240
Start Time(min)	0.014
End Time(min)	3.997
Intensity Units	
Intensity Multiplier	1
R.Time (min)	Intensity
0.01367	34.55
0.03033	34.54
0.04700	34.55
0.06367	34.54
0.08033	34.51
0.09700	34.52
0.11367	34.52
0.13033	34.52
0.14700	34.53
0.16367	34.52
0.18033	34.52
0.19700	34.53
0.21367	34.52
0.23033	34.52
0.24700	34.52
0.26367	34.52
0.28033	34.52
0.29700	34.52
0.31367	34.52
0.33033	34.52
0.34700	34.52
0.36367	34.52
0.38033	34.52
0.39700	34.52
0.41367	34.52
0.43033	34.52
0.44700	34.52
0.46367	34.52
0.48033	34.52
0.49700	34.52
0.51367	34.52
0.53033	34.52
0.54700	34.52
0.56367	34.52
0.58033	34.52
0.59700	34.52
0.61367	34.52
0.63033	34.52
0.64700	34.52
0.66367	34.52
0.68033	34.52
0.69700	34.52
0.71367	34.52
0.73033	34.52
0.74700	34.52
0.76367	34.52
0.78033	34.52
0.79700	34.52
0.81367	34.52
0.83033	34.52
0.84700	34.52
0.86367	34.52
0.88033	34.52
0.89700	34.52
0.91367	34.52
0.93033	34.52
0.94700	34.52
0.96367	34.52
0.98033	34.52
0.99700	34.52
1.01367	34.52
1.03033	34.52
1.04700	34.52
1.06367	34.52
1.08033	34.52
1.09700	34.52
1.11367	34.52
1.13033	34.52
1.14700	34.52
1.16367	34.52
1.18033	34.52
1.19700	34.52
1.21367	34.52
1.23033	34.52
1.24700	34.52
1.26367	34.52
1.28033	34.52
1.29700	34.52
1.31367	34.52
1.33033	34.52
1.34700	34.52
1.36367	34.52
1.38033	34.52
1.39700	34.52
1.41367	34.52
1.43033	34.52
1.44700	34.52
1.46367	34.52
1.48033	34.52
1.49700	34.52
1.51367	34.52
1.53033	34.52
1.54700	34.52
1.56367	34.52
1.58033	34.52
1.59700	34.52
1.61367	34.52
1.63033	34.52
1.64700	34.52
1.66367	34.52
1.68033	34.52
1.69700	34.52
1.71367	34.52
1.73033	34.52
1.74700	34.52
1.76367	34.52
1.78033	34.52
1.79700	34.52
1.81367	34.52
1.83033	34.52
1.84700	34.52
1.86367	34.52
1.88033	34.52
1.89700	34.52
1.91367	34.52
1.93033	34.52
1.94700	34.52
1.96367	34.52
1.98033	34.52
1.99700	34.52
2.01367	34.52
2.03033	34.52
2.04700	34.52
2.06367	34.52
2.08033	34.52
2.09700	34.52
2.11367	34.52
2.13033	34.52
2.14700	34.52
2.16367	34.52
2.18033	34.52
2.19700	34.52
2.21367	34.52
2.23033	34.52
2.24700	34.52
2.26367	34.52
2.28033	34.52
2.29700	34.52
2.31367	34.52
2.33033	34.52
2.34700	34.52
2.36367	34.52
2.38033	34.52
2.39700	34.52
2.41367	34.52
2.43033	34.52
2.44700	34.52
2.46367	34.52
2.48033	34.52
2.49700	34.52
2.51367	34.52
2.53033	34.53
2.54700	34.52
2.56367	34.52
2.58033	34.52
2.59700	34.52
2.61367	34.52
2.63033	34.52
2.64700	34.52
2.66367	34.52
2.68033	34.52
2.69700	34.52
2.71367	34.52
2.73033	34.52
2.74700	34.52
2.76367	34.52
2.78033	34.52
2.79700	34.52
2.81367	34.52
2.83033	34.52
2.84700	34.52
2.86367	34.52
2.88033	34.52
2.89700	34.52
2.91367	34.52
2.93033	34.52
2.94700	34.52
2.96367	34.52
2.98033	34.52
2.99700	34.52
3.01367	34.52
3.03033	34.52
3.04700	34.52
3.06367	34.52
3.08033	34.52
3.09700	34.52
3.11367	34.52
3.13033	34.52
3.14700	34.52
3.16367	34.52
3.18033	34.52
3.19700	34.52
3.21367	34.52
3.23033	34.52
3.24700	34.52
3.26367	34.52
3.28033	34.52
3.29700	34.52
3.31367	34.52
3.33033	34.52
3.34700	34.52
3.36367	34.52
3.38033	34.52
3.39700	34.52
3.41367	34.52
3.43033	34.52
3.44700	34.52
3.46367	34.52
3.48033	34.52
3.49700	34.52
3.51367	34.52
3.53033	34.52
3.54700	34.52
3.56367	34.52
3.58033	34.52
3.59700	34.52
3.61367	34.52
3.63033	34.52
3.64700	34.52
3.66367	34.52
3.68033	34.52
3.69700	34.52
3.71367	34.52
3.73033	34.52
3.74700	34.52
3.76367	34.52
3.78033	34.52
3.79700	34.52
3.81367	34.52
3.83033	34.52
3.84700	34.52
3.86367	34.52
3.88033	34.52
3.89700	34.52
3.91367	34.52
3.93033	34.52
3.94700	34.52
3.96367	34.52
3.98033	34.52
3.99700	34.54

[Status Trace (Column Flow)]
Interval(msec)	1000
# of Points	240
Start Time(min)	0.014
End Time(min)	3.997
Intensity Units	
Intensity Multiplier	1
R.Time (min)	Intensity
0.01367	5.49
0.03033	5.21
0.04700	5.49
0.06367	5.72
0.08033	5.61
0.09700	5.51
0.11367	5.51
0.13033	5.52
0.14700	5.51
0.16367	5.51
0.18033	5.51
0.19700	5.51
0.21367	5.51
0.23033	5.51
0.24700	5.51
0.26367	5.51
0.28033	5.51
0.29700	5.51
0.31367	5.51
0.33033	5.51
0.34700	5.51
0.36367	5.51
0.38033	5.51
0.39700	5.51
0.41367	5.51
0.43033	5.51
0.44700	5.51
0.46367	5.51
0.48033	5.51
0.49700	5.51
0.51367	5.51
0.53033	5.51
0.54700	5.51
0.56367	5.51
0.58033	5.51
0.59700	5.51
0.61367	5.51
0.63033	5.51
0.64700	5.51
0.66367	5.51
0.68033	5.51
0.69700	5.51
0.71367	5.51
0.73033	5.51
0.74700	5.51
0.76367	5.51
0.78033	5.51
0.79700	5.51
0.81367	5.51
0.83033	5.51
0.84700	5.51
0.86367	5.51
0.88033	5.51
0.89700	5.51
0.91367	5.51
0.93033	5.51
0.94700	5.51
0.96367	5.51
0.98033	5.51
0.99700	5.51
1.01367	5.51
1.03033	5.51
1.04700	5.51
1.06367	5.51
1.08033	5.51
1.09700	5.51
1.11367	5.51
1.13033	5.51
1.14700	5.51
1.16367	5.51
1.18033	5.51
1.19700	5.51
1.21367	5.51
1.23033	5.51
1.24700	5.51
1.26367	5.51
1.28033	5.51
1.29700	5.51
1.31367	5.51
1.33033	5.51
1.34700	5.51
1.36367	5.51
1.38033	5.51
1.39700	5.51
1.41367	5.51
1.43033	5.51
1.44700	5.51
1.46367	5.51
1.48033	5.51
1.49700	5.51
1.51367	5.51
1.53033	5.51
1.54700	5.51
1.56367	5.51
1.58033	5.51
1.59700	5.51
1.61367	5.51
1.63033	5.51
1.64700	5.50
1.66367	5.49
1.68033	5.48
1.69700	5.47
1.71367	5.46
1.73033	5.45
1.74700	5.44
1.76367	5.43
1.78033	5.42
1.79700	5.41
1.81367	5.40
1.83033	5.39
1.84700	5.38
1.86367	5.37
1.88033	5.36
1.89700	5.35
1.91367	5.34
1.93033	5.33
1.94700	5.32
1.96367	5.31
1.98033	5.30
1.99700	5.29
2.01367	5.28
2.03033	5.27
2.04700	5.26
2.06367	5.25
2.08033	5.24
2.09700	5.23
2.11367	5.22
2.13033	5.21
2.14700	5.20
2.16367	5.19
2.18033	5.18
2.19700	5.17
2.21367	5.16
2.23033	5.16
2.24700	5.15
2.26367	5.14
2.28033	5.13
2.29700	5.12
2.31367	5.11
2.33033	5.10
2.34700	5.09
2.36367	5.08
2.38033	5.08
2.39700	5.08
2.41367	5.08
2.43033	5.08
2.44700	5.08
2.46367	5.08
2.48033	5.08
2.49700	5.08
2.51367	5.08
2.53033	5.08
2.54700	5.08
2.56367	5.08
2.58033	5.08
2.59700	5.08
2.61367	5.08
2.63033	5.08
2.64700	5.07
2.66367	5.07
2.68033	5.08
2.69700	5.08
2.71367	5.07
2.73033	5.07
2.74700	5.07
2.76367	5.07
2.78033	5.07
2.79700	5.07
2.81367	5.07
2.83033	5.07
2.84700	5.07
2.86367	5.07
2.88033	5.07
2.89700	5.07
2.91367	5.07
2.93033	5.07
2.94700	5.07
2.96367	5.07
2.98033	5.07
2.99700	5.07
3.01367	5.07
3.03033	5.07
3.04700	5.07
3.06367	5.07
3.08033	5.07
3.09700	5.07
3.11367	5.07
3.13033	5.07
3.14700	5.07
3.16367	5.07
3.18033	5.07
3.19700	5.07
3.21367	5.07
3.23033	5.07
3.24700	5.07
3.26367	5.07
3.28033	5.07
3.29700	5.07
3.31367	5.07
3.33033	5.07
3.34700	5.07
3.36367	5.07
3.38033	5.07
3.39700	5.07
3.41367	5.07
3.43033	5.07
3.44700	5.07
3.46367	5.07
3.48033	5.07
3.49700	5.07
3.51367	5.07
3.53033	5.07
3.54700	5.07
3.56367	5.07
3.58033	5.07
3.59700	5.07
3.61367	5.07
3.63033	5.07
3.64700	5.07
3.66367	5.07
3.68033	5.07
3.69700	5.07
3.71367	5.07
3.73033	5.07
3.74700	5.07
3.76367	5.07
3.78033	5.07
3.79700	5.07
3.81367	5.07
3.83033	5.07
3.84700	5.07
3.86367	5.07
3.88033	5.07
3.89700	5.07
3.91367	5.07
3.93033	5.07
3.94700	5.07
3.96367	5.07
3.98033	5.07
3.99700	5.07

[Status Trace (Linear Velocity)]
Interval(msec)	1000
# of Points	240
Start Time(min)	0.014
End Time(min)	3.997
Intensity Units	
Intensity Multiplier	1
R.Time (min)	Intensity
0.01367	38.86
0.03033	37.30
0.04700	38.86
0.06367	40.17
0.08033	39.54
0.09700	39.01
0.11367	39.01
0.13033	39.02
0.14700	39.02
0.16367	39.02
0.18033	39.02
0.19700	39.02
0.21367	39.02
0.23033	39.02
0.24700	39.02
0.26367	39.02
0.28033	39.02
0.29700	39.02
0.31367	39.02
0.33033	39.02
0.34700	39.02
0.36367	39.02
0.38033	39.02
0.39700	39.02
0.41367	39.02
0.43033	39.01
0.44700	39.01
0.46367	39.02
0.48033	39.02
0.49700	39.02
0.51367	39.02
0.53033	39.02
0.54700	39.01
0.56367	39.02
0.58033	39.02
0.59700	39.02
0.61367	39.02
0.63033	39.02
0.64700	39.02
0.66367	39.02
0.68033	39.02
0.69700	39.02
0.71367	39.02
0.73033	39.02
0.74700	39.02
0.76367	39.02
0.78033	39.02
0.79700	39.02
0.81367	39.02
0.83033	39.02
0.84700	39.02
0.86367	39.02
0.88033	39.02
0.89700	39.02
0.91367	39.02
0.93033	39.02
0.94700	39.02
0.96367	39.01
0.98033	39.01
0.99700	39.01
1.01367	39.01
1.03033	39.01
1.04700	39.01
1.06367	39.01
1.08033	39.01
1.09700	39.01
1.11367	39.01
1.13033	39.01
1.14700	39.01
1.16367	39.01
1.18033	39.01
1.19700	39.01
1.21367	39.01
1.23033	39.01
1.24700	39.01
1.26367	39.02
1.28033	39.02
1.29700	39.02
1.31367	39.02
1.33033	39.02
1.34700	39.02
1.36367	39.02
1.38033	39.02
1.39700	39.02
1.41367	39.02
1.43033	39.01
1.44700	39.01
1.46367	39.01
1.48033	39.01
1.49700	39.01
1.51367	39.01
1.53033	39.01
1.54700	39.01
1.56367	39.01
1.58033	39.01
1.59700	39.01
1.61367	39.00
1.63033	38.99
1.64700	38.97
1.66367	38.95
1.68033	38.92
1.69700	38.88
1.71367	38.84
1.73033	38.81
1.74700	38.78
1.76367	38.75
1.78033	38.72
1.79700	38.69
1.81367	38.66
1.83033	38.62
1.84700	38.59
1.86367	38.56
1.88033	38.53
1.89700	38.50
1.91367	38.47
1.93033	38.44
1.94700	38.41
1.96367	38.38
1.98033	38.35
1.99700	38.32
2.01367	38.29
2.03033	38.26
2.04700	38.23
2.06367	38.20
2.08033	38.17
2.09700	38.14
2.11367	38.11
2.13033	38.08
2.14700	38.05
2.16367	38.02
2.18033	37.99
2.19700	37.96
2.21367	37.93
2.23033	37.90
2.24700	37.87
2.26367	37.84
2.28033	37.81
2.29700	37.78
2.31367	37.76
2.33033	37.73
2.34700	37.70
2.36367	37.67
2.38033	37.66
2.39700	37.65
2.41367	37.66
2.43033	37.66
2.44700	37.65
2.46367	37.65
2.48033	37.65
2.49700	37.65
2.51367	37.65
2.53033	37.64
2.54700	37.65
2.56367	37.65
2.58033	37.65
2.59700	37.65
2.61367	37.64
2.63033	37.64
2.64700	37.64
2.66367	37.64
2.68033	37.64
2.69700	37.64
2.71367	37.64
2.73033	37.64
2.74700	37.64
2.76367	37.64
2.78033	37.64
2.79700	37.64
2.81367	37.64
2.83033	37.64
2.84700	37.64
2.86367	37.64
2.88033	37.64
2.89700	37.64
2.91367	37.64
2.93033	37.63
2.94700	37.63
2.96367	37.63
2.98033	37.63
2.99700	37.62
3.01367	37.62
3.03033	37.62
3.04700	37.62
3.06367	37.62
3.08033	37.62
3.09700	37.62
3.11367	37.62
3.13033	37.62
3.14700	37.62
3.16367	37.62
3.18033	37.62
3.19700	37.62
3.21367	37.62
3.23033	37.62
3.24700	37.62
3.26367	37.62
3.28033	37.62
3.29700	37.62
3.31367	37.62
3.33033	37.62
3.34700	37.62
3.36367	37.63
3.38033	37.62
3.39700	37.62
3.41367	37.62
3.43033	37.62
3.44700	37.62
3.46367	37.62
3.48033	37.62
3.49700	37.62
3.51367	37.62
3.53033	37.63
3.54700	37.63
3.56367	37.63
3.58033	37.63
3.59700	37.63
3.61367	37.63
3.63033	37.63
3.64700	37.63
3.66367	37.63
3.68033	37.63
3.69700	37.63
3.71367	37.63
3.73033	37.63
3.74700	37.63
3.76367	37.63
3.78033	37.63
3.79700	37.63
3.81367	37.63
3.83033	37.63
3.84700	37.63
3.86367	37.63
3.88033	37.63
3.89700	37.62
3.91367	37.62
3.93033	37.62
3.94700	37.62
3.96367	37.62
3.98033	37.62
3.99700	37.63

