[Header]
Application Name	LabSolutions
Version	5.110
Data File Name	C:\Users\User\Desktop\GC Analyses\Jack\UIC Prairie Sampling\8.12.22\220812_040.gcd
Output Date	10/14/2022
Output Time	2:33:52 PM

[File Information]
Type	Data File
Generated	10/10/2022 2:10:04 PM
Generated by	System Administrator
Modified	10/10/2022 2:14:29 PM
Modified by	System Administrator

[Sample Information]
Operator Name	System Administrator
Acquired	10/10/2022 2:10:28 PM
Sample Type	1:Standard
Level	1
Sample Name	220812_UICPrairie
Sample ID	220812_UICPrairie
ISTD Amount1	1
ISTD Amount2	1
ISTD Amount3	1
ISTD Amount4	1
ISTD Amount5	1
ISTD Amount6	1
ISTD Amount7	1
ISTD Amount8	1
ISTD Amount9	1
ISTD Amount10	1
ISTD Amount11	1
ISTD Amount12	1
ISTD Amount13	1
ISTD Amount14	1
ISTD Amount15	1
ISTD Amount16	1
ISTD Amount17	1
ISTD Amount18	1
ISTD Amount19	1
ISTD Amount20	1
ISTD Amount21	1
ISTD Amount22	1
ISTD Amount23	1
ISTD Amount24	1
ISTD Amount25	1
ISTD Amount26	1
ISTD Amount27	1
ISTD Amount28	1
ISTD Amount29	1
ISTD Amount30	1
ISTD Amount31	1
ISTD Amount32	1
Sample Amount	1
Dilution Factor	1
Vial#	1
Injection Volume	1
Injection Count	1
Bar Code	

[Original Files]
Data File	C:\Users\User\Desktop\GC Analyses\Jack\UIC Prairie Sampling\8.12.22\220812_040.gcd
Method File	C:\LabSolutions\Data\GHG_4min_2022\ghg3_togas_w_acet_4 min_new_int.gcm
Batch File	
Report Format File	c:\LabSolutions\System\DEFAULT.lsr

[File Description]


[Configuration]
Instrument Name	C0B7VH3-Instrument1
Instrument #	1
Line #	1
# of Detectors	3
Detector ID	DET#1	DET#2	DET#3
Detector Name	FID	PTCD	ECD
# of Channels	1	1	1

[Peak Table(Ch1)]
# of Peaks	3
Peak#	R.Time	I.Time	F.Time	Area	Height	A/H	Conc.	Mark	ID#	Name	k'	Plate #	Plate Ht.	Tailing	Resolution	Sep.Factor	Area Ratio	Height Ratio	Conc. %	Norm Conc.
1	1.479	1.439	1.542	11960	5237	2.284	100.000	   	1	CO	0.000	8100	18.520	1.185	0.000	0.000	0	0	16.667	16.667
2	1.571	1.542	1.622	4297	2185	1.966	100.000	 V 	2	CH4	0.062	11396	13.163	1.198	1.471	0.000	0	0	16.667	16.667
3	2.000	1.952	2.315	1662573	810428	2.051	400.000	   	3	CO2	0.352	17699	8.475	1.271	7.210	5.680	0	0	66.667	66.667

[Peak Table(Ch2)]
# of Peaks	0

[Peak Table(Ch3)]
# of Peaks	2
Peak#	R.Time	I.Time	F.Time	Area	Height	A/H	Conc.	Mark	ID#	Name	k'	Plate #	Plate Ht.	Tailing	Resolution	Sep.Factor	Area Ratio	Height Ratio	Conc. %	Norm Conc.
1	2.447	0.643	2.645	28648	568	50.400	0.000	   			0.000	34	4443.847	0.557	0.000	0.000	0	0	0.000	0.000
2	2.887	2.660	3.932	56525	5131	11.016	1.000	   	1	N2O	0.180	9240	16.234	8.001	0.488	0.000	0	0	100.000	100.000

[Compound Results(Ch1)]
# of IDs	6
ID#	Name	R.Time	Area	Height	Conc.	Curve	3rd	2nd	1st	Constant	Area Ratio	Height Ratio	Conc. %	Norm Conc.
1	CO	1.479	11960	5237	100.000	Linear	0.000000e+00	0.000000e+00	1.195993e+002	0.000000e+00	0	0	16.667	16.667
2	CH4	1.571	4297	2185	100.000	Linear	0.000000e+00	0.000000e+00	4.297130e+001	0.000000e+00	0	0	16.667	16.667
3	CO2	2.000	1662573	810428	400.000	Linear	0.000000e+00	0.000000e+00	4.156433e+003	0.000000e+00	0	0	66.667	66.667
4	Ethylene	0.000	0	0	0.000	Linear	0.000000e+00	0.000000e+00	0.000000e+00	0.000000e+00	0	0	0.000	0.000
5	Acetylene	0.000	0	0	0.000	Linear	0.000000e+00	0.000000e+00	0.000000e+00	0.000000e+00	0	0	0.000	0.000
6	Ethane	0.000	0	0	0.000	Linear	0.000000e+00	0.000000e+00	0.000000e+00	0.000000e+00	0	0	0.000	0.000

[Compound Results(Ch2)]
# of IDs	5
ID#	Name	R.Time	Area	Height	Conc.	Curve	3rd	2nd	1st	Constant	Area Ratio	Height Ratio	Conc. %	Norm Conc.
1	Hydrogen	0.000	0	0	0.000	Linear	0.000000e+00	0.000000e+00	0.000000e+00	0.000000e+00	0	0	0.000	0.000
2	Oxygen	0.000	0	0	0.000	Linear	0.000000e+00	0.000000e+00	0.000000e+00	0.000000e+00	0	0	0.000	0.000
3	Nitrogen	0.000	0	0	0.000	Linear	0.000000e+00	0.000000e+00	0.000000e+00	0.000000e+00	0	0	0.000	0.000
4	Methane	0.000	0	0	0.000	Linear	0.000000e+00	0.000000e+00	0.000000e+00	0.000000e+00	0	0	0.000	0.000
5	Carbon Monoxide	0.000	0	0	0.000	Linear	0.000000e+00	0.000000e+00	0.000000e+00	0.000000e+00	0	0	0.000	0.000

[Compound Results(Ch3)]
# of IDs	2
ID#	Name	R.Time	Area	Height	Conc.	Curve	3rd	2nd	1st	Constant	Area Ratio	Height Ratio	Conc. %	Norm Conc.
1	N2O	2.887	56525	5131	1.000	Linear	0.000000e+00	0.000000e+00	5.652474e+004	0.000000e+00	0	0	100.000	100.000
2	SF6	0.000	0	0	0.000	Linear	0.000000e+00	0.000000e+00	0.000000e+00	0.000000e+00	0	0	0.000	0.000

[Group Results(Ch1)]
# of Groups	0

[Group Results(Ch2)]
# of Groups	0

[Group Results(Ch3)]
# of Groups	0

[Chromatogram (Ch1)]
Interval(msec)	220
# of Points	1091
Start Time(min)	0.002
End Time(min)	3.998
R.Time (min)	Intensity
0.00167	14
0.00533	19
0.00900	22
0.01267	23
0.01633	20
0.02000	13
0.02367	6
0.02733	1
0.03100	-4
0.03467	-7
0.03833	-7
0.04200	-8
0.04567	-9
0.04933	-9
0.05300	-10
0.05667	-6
0.06033	3
0.06400	13
0.06767	22
0.07133	29
0.07500	29
0.07867	22
0.08233	14
0.08600	12
0.08967	14
0.09333	16
0.09700	15
0.10067	11
0.10433	5
0.10800	-3
0.11167	-12
0.11533	-23
0.11900	-27
0.12267	-26
0.12633	-25
0.13000	-21
0.13367	-17
0.13733	-15
0.14100	-16
0.14467	-20
0.14833	-24
0.15200	-26
0.15567	-27
0.15933	-30
0.16300	-37
0.16667	-45
0.17033	-50
0.17400	-53
0.17767	-52
0.18133	-50
0.18500	-48
0.18867	-46
0.19233	-40
0.19600	-31
0.19967	-22
0.20333	-21
0.20700	-23
0.21067	-22
0.21433	-20
0.21800	-18
0.22167	-18
0.22533	-22
0.22900	-27
0.23267	-29
0.23633	-31
0.24000	-32
0.24367	-36
0.24733	-43
0.25100	-49
0.25467	-53
0.25833	-58
0.26200	-65
0.26567	-70
0.26933	-72
0.27300	-70
0.27667	-63
0.28033	-55
0.28400	-52
0.28767	-52
0.29133	-55
0.29500	-57
0.29867	-59
0.30233	-62
0.30600	-66
0.30967	-68
0.31333	-69
0.31700	-69
0.32067	-69
0.32433	-66
0.32800	-62
0.33167	-56
0.33533	-51
0.33900	-49
0.34267	-46
0.34633	-42
0.35000	-40
0.35367	-39
0.35733	-41
0.36100	-45
0.36467	-50
0.36833	-51
0.37200	-53
0.37567	-57
0.37933	-61
0.38300	-67
0.38667	-73
0.39033	-75
0.39400	-69
0.39767	-61
0.40133	-55
0.40500	-53
0.40867	-54
0.41233	-56
0.41600	-59
0.41967	-61
0.42333	-61
0.42700	-64
0.43067	-68
0.43433	-73
0.43800	-78
0.44167	-79
0.44533	-76
0.44900	-70
0.45267	-64
0.45633	-60
0.46000	-60
0.46367	-63
0.46733	-69
0.47100	-72
0.47467	-72
0.47833	-71
0.48200	-72
0.48567	-74
0.48933	-72
0.49300	-66
0.49667	-61
0.50033	-60
0.50400	-61
0.50767	-63
0.51133	-64
0.51500	-65
0.51867	-63
0.52233	-61
0.52600	-61
0.52967	-64
0.53333	-69
0.53700	-74
0.54067	-77
0.54433	-75
0.54800	-71
0.55167	-67
0.55533	-65
0.55900	-61
0.56267	-55
0.56633	-51
0.57000	-48
0.57367	-49
0.57733	-54
0.58100	-60
0.58467	-65
0.58833	-68
0.59200	-66
0.59567	-63
0.59933	-62
0.60300	-61
0.60667	-59
0.61033	-58
0.61400	-60
0.61767	-66
0.62133	-72
0.62500	-78
0.62867	-82
0.63233	-84
0.63600	-81
0.63967	-72
0.64333	-63
0.64700	-59
0.65067	-61
0.65433	-65
0.65800	-70
0.66167	-72
0.66533	-68
0.66900	-66
0.67267	-67
0.67633	-70
0.68000	-71
0.68367	-67
0.68733	-62
0.69100	-56
0.69467	-50
0.69833	-49
0.70200	-50
0.70567	-53
0.70933	-58
0.71300	-64
0.71667	-67
0.72033	-69
0.72400	-73
0.72767	-83
0.73133	-95
0.73500	-104
0.73867	-106
0.74233	-102
0.74600	-96
0.74967	-91
0.75333	-87
0.75700	-85
0.76067	-90
0.76433	-98
0.76800	-101
0.77167	-99
0.77533	-96
0.77900	-95
0.78267	-95
0.78633	-94
0.79000	-93
0.79367	-93
0.79733	-92
0.80100	-91
0.80467	-89
0.80833	-88
0.81200	-85
0.81567	-83
0.81933	-83
0.82300	-85
0.82667	-85
0.83033	-85
0.83400	-88
0.83767	-92
0.84133	-96
0.84500	-96
0.84867	-94
0.85233	-94
0.85600	-98
0.85967	-100
0.86333	-98
0.86700	-91
0.87067	-83
0.87433	-80
0.87800	-81
0.88167	-83
0.88533	-84
0.88900	-85
0.89267	-84
0.89633	-84
0.90000	-85
0.90367	-87
0.90733	-88
0.91100	-89
0.91467	-92
0.91833	-95
0.92200	-96
0.92567	-95
0.92933	-91
0.93300	-87
0.93667	-85
0.94033	-87
0.94400	-90
0.94767	-90
0.95133	-88
0.95500	-85
0.95867	-83
0.96233	-84
0.96600	-87
0.96967	-91
0.97333	-95
0.97700	-98
0.98067	-100
0.98433	-100
0.98800	-97
0.99167	-96
0.99533	-95
0.99900	-93
1.00267	-93
1.00633	-94
1.01000	-98
1.01367	-102
1.01733	-103
1.02100	-101
1.02467	-98
1.02833	-94
1.03200	-94
1.03567	-98
1.03933	-104
1.04300	-107
1.04667	-105
1.05033	-105
1.05400	-106
1.05767	-108
1.06133	-111
1.06500	-112
1.06867	-110
1.07233	-107
1.07600	-103
1.07967	-98
1.08333	-90
1.08700	-81
1.09067	-76
1.09433	-78
1.09800	-85
1.10167	-92
1.10533	-97
1.10900	-104
1.11267	-112
1.11633	-118
1.12000	-119
1.12367	-115
1.12733	-106
1.13100	-101
1.13467	-100
1.13833	-102
1.14200	-102
1.14567	-100
1.14933	-97
1.15300	-97
1.15667	-99
1.16033	-101
1.16400	-104
1.16767	-107
1.17133	-113
1.17500	-119
1.17867	-122
1.18233	-123
1.18600	-123
1.18967	-122
1.19333	-122
1.19700	-120
1.20067	-116
1.20433	-110
1.20800	-104
1.21167	-101
1.21533	-105
1.21900	-111
1.22267	-113
1.22633	-113
1.23000	-111
1.23367	-109
1.23733	-109
1.24100	-107
1.24467	-106
1.24833	-107
1.25200	-108
1.25567	-109
1.25933	-109
1.26300	-110
1.26667	-113
1.27033	-117
1.27400	-122
1.27767	-127
1.28133	-132
1.28500	-138
1.28867	-142
1.29233	-143
1.29600	-139
1.29967	-128
1.30333	-122
1.30700	-121
1.31067	-120
1.31433	-119
1.31800	-116
1.32167	-113
1.32533	-113
1.32900	-114
1.33267	-111
1.33633	-107
1.34000	-106
1.34367	-109
1.34733	-116
1.35100	-121
1.35467	-123
1.35833	-119
1.36200	-117
1.36567	-122
1.36933	-130
1.37300	-134
1.37667	-132
1.38033	-125
1.38400	-118
1.38767	-113
1.39133	-110
1.39500	-112
1.39867	-116
1.40233	-120
1.40600	-124
1.40967	-122
1.41333	-118
1.41700	-115
1.42067	-116
1.42433	-119
1.42800	-123
1.43167	-128
1.43533	-131
1.43900	-124
1.44267	-84
1.44633	59
1.45000	369
1.45367	868
1.45733	1587
1.46100	2481
1.46467	3390
1.46833	4163
1.47200	4726
1.47567	5051
1.47933	5114
1.48300	4897
1.48667	4410
1.49033	3731
1.49400	2979
1.49767	2268
1.50133	1665
1.50500	1187
1.50867	828
1.51233	564
1.51600	373
1.51967	236
1.52333	140
1.52700	72
1.53067	24
1.53433	-14
1.53800	-44
1.54167	-54
1.54533	-1
1.54900	180
1.55267	509
1.55633	925
1.56000	1338
1.56367	1685
1.56733	1936
1.57100	2067
1.57467	2046
1.57833	1863
1.58200	1556
1.58567	1195
1.58933	846
1.59300	555
1.59667	333
1.60033	173
1.60400	65
1.60767	-6
1.61133	-52
1.61500	-83
1.61867	-104
1.62233	-116
1.62600	-119
1.62967	-119
1.63333	-119
1.63700	-118
1.64067	-118
1.64433	-122
1.64800	-128
1.65167	-133
1.65533	-136
1.65900	-140
1.66267	-145
1.66633	-147
1.67000	-148
1.67367	-151
1.67733	-155
1.68100	-154
1.68467	-150
1.68833	-146
1.69200	-141
1.69567	-136
1.69933	-133
1.70300	-133
1.70667	-136
1.71033	-139
1.71400	-143
1.71767	-147
1.72133	-148
1.72500	-145
1.72867	-143
1.73233	-143
1.73600	-146
1.73967	-154
1.74333	-161
1.74700	-159
1.75067	-149
1.75433	-139
1.75800	-132
1.76167	-130
1.76533	-133
1.76900	-138
1.77267	-142
1.77633	-144
1.78000	-142
1.78367	-139
1.78733	-137
1.79100	-138
1.79467	-137
1.79833	-133
1.80200	-129
1.80567	-128
1.80933	-130
1.81300	-133
1.81667	-138
1.82033	-147
1.82400	-155
1.82767	-159
1.83133	-161
1.83500	-162
1.83867	-162
1.84233	-162
1.84600	-162
1.84967	-160
1.85333	-158
1.85700	-156
1.86067	-155
1.86433	-155
1.86800	-154
1.87167	-148
1.87533	-140
1.87900	-130
1.88267	-122
1.88633	-119
1.89000	-119
1.89367	-122
1.89733	-125
1.90100	-125
1.90467	-119
1.90833	-109
1.91200	-102
1.91567	-101
1.91933	-105
1.92300	-113
1.92667	-122
1.93033	-128
1.93400	-135
1.93767	-142
1.94133	-146
1.94500	-145
1.94867	-141
1.95233	-137
1.95600	-115
1.95967	21
1.96333	788
1.96700	4276
1.97067	16447
1.97433	49028
1.97800	116800
1.98167	227515
1.98533	372312
1.98900	527554
1.99267	665773
1.99633	764580
2.00000	810323
2.00367	797804
2.00733	731735
2.01100	627190
2.01467	505115
2.01833	385355
2.02200	281353
2.02567	198751
2.02933	137268
2.03300	93572
2.03667	63489
2.04033	43202
2.04400	29688
2.04767	20726
2.05133	14764
2.05500	10765
2.05867	8052
2.06233	6185
2.06600	4877
2.06967	3943
2.07333	3256
2.07700	2740
2.08067	2342
2.08433	2032
2.08800	1786
2.09167	1588
2.09533	1423
2.09900	1282
2.10267	1162
2.10633	1060
2.11000	970
2.11367	891
2.11733	825
2.12100	766
2.12467	712
2.12833	664
2.13200	625
2.13567	590
2.13933	554
2.14300	518
2.14667	484
2.15033	454
2.15400	432
2.15767	416
2.16133	404
2.16500	396
2.16867	387
2.17233	372
2.17600	354
2.17967	338
2.18333	321
2.18700	303
2.19067	284
2.19433	268
2.19800	254
2.20167	243
2.20533	236
2.20900	229
2.21267	224
2.21633	221
2.22000	215
2.22367	205
2.22733	195
2.23100	188
2.23467	184
2.23833	184
2.24200	183
2.24567	181
2.24933	177
2.25300	171
2.25667	164
2.26033	158
2.26400	154
2.26767	155
2.27133	155
2.27500	148
2.27867	140
2.28233	133
2.28600	131
2.28967	132
2.29333	128
2.29700	121
2.30067	113
2.30433	109
2.30800	108
2.31167	107
2.31533	104
2.31900	101
2.32267	96
2.32633	95
2.33000	98
2.33367	99
2.33733	97
2.34100	92
2.34467	91
2.34833	92
2.35200	92
2.35567	90
2.35933	86
2.36300	83
2.36667	79
2.37033	78
2.37400	79
2.37767	78
2.38133	77
2.38500	77
2.38867	79
2.39233	82
2.39600	83
2.39967	80
2.40333	77
2.40700	73
2.41067	72
2.41433	71
2.41800	74
2.42167	80
2.42533	86
2.42900	85
2.43267	81
2.43633	77
2.44000	73
2.44367	67
2.44733	59
2.45100	54
2.45467	55
2.45833	58
2.46200	63
2.46567	68
2.46933	71
2.47300	77
2.47667	81
2.48033	80
2.48400	74
2.48767	66
2.49133	54
2.49500	47
2.49867	48
2.50233	56
2.50600	63
2.50967	61
2.51333	53
2.51700	46
2.52067	44
2.52433	46
2.52800	48
2.53167	50
2.53533	50
2.53900	46
2.54267	41
2.54633	38
2.55000	35
2.55367	31
2.55733	26
2.56100	19
2.56467	13
2.56833	9
2.57200	10
2.57567	15
2.57933	22
2.58300	29
2.58667	37
2.59033	46
2.59400	50
2.59767	48
2.60133	41
2.60500	30
2.60867	20
2.61233	15
2.61600	17
2.61967	20
2.62333	19
2.62700	19
2.63067	21
2.63433	23
2.63800	27
2.64167	33
2.64533	36
2.64900	32
2.65267	23
2.65633	15
2.66000	14
2.66367	13
2.66733	13
2.67100	12
2.67467	10
2.67833	10
2.68200	9
2.68567	8
2.68933	5
2.69300	4
2.69667	4
2.70033	7
2.70400	11
2.70767	14
2.71133	12
2.71500	8
2.71867	8
2.72233	7
2.72600	5
2.72967	6
2.73333	10
2.73700	13
2.74067	14
2.74433	14
2.74800	12
2.75167	12
2.75533	18
2.75900	30
2.76267	38
2.76633	36
2.77000	26
2.77367	11
2.77733	-3
2.78100	-12
2.78467	-15
2.78833	-14
2.79200	-8
2.79567	-4
2.79933	-1
2.80300	3
2.80667	8
2.81033	12
2.81400	15
2.81767	16
2.82133	15
2.82500	10
2.82867	4
2.83233	1
2.83600	1
2.83967	1
2.84333	1
2.84700	1
2.85067	5
2.85433	12
2.85800	17
2.86167	23
2.86533	29
2.86900	33
2.87267	32
2.87633	25
2.88000	15
2.88367	4
2.88733	0
2.89100	0
2.89467	-0
2.89833	-1
2.90200	-1
2.90567	-0
2.90933	-0
2.91300	-3
2.91667	-13
2.92033	-24
2.92400	-31
2.92767	-31
2.93133	-27
2.93500	-23
2.93867	-19
2.94233	-14
2.94600	-9
2.94967	-4
2.95333	-1
2.95700	-2
2.96067	-2
2.96433	-3
2.96800	-4
2.97167	-3
2.97533	-1
2.97900	1
2.98267	3
2.98633	4
2.99000	2
2.99367	-1
2.99733	-2
3.00100	1
3.00467	3
3.00833	3
3.01200	1
3.01567	-3
3.01933	-7
3.02300	-13
3.02667	-16
3.03033	-17
3.03400	-17
3.03767	-19
3.04133	-21
3.04500	-20
3.04867	-19
3.05233	-19
3.05600	-13
3.05967	-4
3.06333	3
3.06700	7
3.07067	4
3.07433	-6
3.07800	-18
3.08167	-25
3.08533	-26
3.08900	-27
3.09267	-29
3.09633	-28
3.10000	-26
3.10367	-26
3.10733	-27
3.11100	-25
3.11467	-21
3.11833	-18
3.12200	-15
3.12567	-14
3.12933	-15
3.13300	-19
3.13667	-23
3.14033	-26
3.14400	-25
3.14767	-23
3.15133	-22
3.15500	-22
3.15867	-22
3.16233	-21
3.16600	-18
3.16967	-19
3.17333	-21
3.17700	-22
3.18067	-24
3.18433	-29
3.18800	-36
3.19167	-40
3.19533	-40
3.19900	-39
3.20267	-37
3.20633	-34
3.21000	-36
3.21367	-38
3.21733	-35
3.22100	-29
3.22467	-22
3.22833	-14
3.23200	-11
3.23567	-13
3.23933	-15
3.24300	-17
3.24667	-20
3.25033	-20
3.25400	-22
3.25767	-26
3.26133	-31
3.26500	-39
3.26867	-46
3.27233	-45
3.27600	-41
3.27967	-38
3.28333	-37
3.28700	-36
3.29067	-35
3.29433	-34
3.29800	-27
3.30167	-15
3.30533	-5
3.30900	-6
3.31267	-15
3.31633	-28
3.32000	-37
3.32367	-39
3.32733	-37
3.33100	-30
3.33467	-18
3.33833	-9
3.34200	-8
3.34567	-18
3.34933	-32
3.35300	-45
3.35667	-53
3.36033	-58
3.36400	-58
3.36767	-53
3.37133	-49
3.37500	-47
3.37867	-48
3.38233	-49
3.38600	-45
3.38967	-36
3.39333	-26
3.39700	-22
3.40067	-22
3.40433	-24
3.40800	-27
3.41167	-31
3.41533	-37
3.41900	-42
3.42267	-46
3.42633	-47
3.43000	-49
3.43367	-52
3.43733	-53
3.44100	-50
3.44467	-46
3.44833	-43
3.45200	-46
3.45567	-48
3.45933	-46
3.46300	-43
3.46667	-40
3.47033	-39
3.47400	-40
3.47767	-42
3.48133	-41
3.48500	-38
3.48867	-36
3.49233	-35
3.49600	-33
3.49967	-32
3.50333	-32
3.50700	-36
3.51067	-43
3.51433	-47
3.51800	-49
3.52167	-51
3.52533	-50
3.52900	-48
3.53267	-47
3.53633	-47
3.54000	-48
3.54367	-46
3.54733	-43
3.55100	-41
3.55467	-40
3.55833	-39
3.56200	-37
3.56567	-35
3.56933	-37
3.57300	-39
3.57667	-38
3.58033	-37
3.58400	-39
3.58767	-43
3.59133	-47
3.59500	-48
3.59867	-47
3.60233	-43
3.60600	-39
3.60967	-35
3.61333	-33
3.61700	-33
3.62067	-34
3.62433	-34
3.62800	-35
3.63167	-37
3.63533	-43
3.63900	-48
3.64267	-50
3.64633	-50
3.65000	-48
3.65367	-46
3.65733	-44
3.66100	-44
3.66467	-44
3.66833	-44
3.67200	-45
3.67567	-45
3.67933	-43
3.68300	-42
3.68667	-43
3.69033	-44
3.69400	-42
3.69767	-37
3.70133	-35
3.70500	-38
3.70867	-46
3.71233	-54
3.71600	-62
3.71967	-70
3.72333	-70
3.72700	-64
3.73067	-59
3.73433	-57
3.73800	-60
3.74167	-66
3.74533	-72
3.74900	-72
3.75267	-64
3.75633	-53
3.76000	-49
3.76367	-50
3.76733	-54
3.77100	-60
3.77467	-63
3.77833	-64
3.78200	-62
3.78567	-59
3.78933	-52
3.79300	-45
3.79667	-42
3.80033	-41
3.80400	-41
3.80767	-46
3.81133	-52
3.81500	-57
3.81867	-63
3.82233	-65
3.82600	-63
3.82967	-58
3.83333	-52
3.83700	-51
3.84067	-55
3.84433	-57
3.84800	-57
3.85167	-56
3.85533	-57
3.85900	-61
3.86267	-67
3.86633	-70
3.87000	-70
3.87367	-65
3.87733	-59
3.88100	-57
3.88467	-59
3.88833	-66
3.89200	-69
3.89567	-68
3.89933	-65
3.90300	-64
3.90667	-63
3.91033	-63
3.91400	-61
3.91767	-60
3.92133	-56
3.92500	-51
3.92867	-46
3.93233	-40
3.93600	-33
3.93967	-32
3.94333	-37
3.94700	-47
3.95067	-58
3.95433	-68
3.95800	-72
3.96167	-73
3.96533	-70
3.96900	-67
3.97267	-63
3.97633	-61
3.98000	-60
3.98367	-58
3.98733	-56
3.99100	-53
3.99467	-50
3.99833	-48

[Chromatogram (Ch2)]
Interval(msec)	220
# of Points	1091
Start Time(min)	0.002
End Time(min)	3.998
R.Time (min)	Intensity
0.00167	-0
0.00533	-0
0.00900	-0
0.01267	-0
0.01633	-1
0.02000	-1
0.02367	-0
0.02733	-0
0.03100	-0
0.03467	-0
0.03833	-0
0.04200	-0
0.04567	-0
0.04933	-0
0.05300	-0
0.05667	-0
0.06033	-1
0.06400	-1
0.06767	-1
0.07133	-1
0.07500	-1
0.07867	-0
0.08233	-0
0.08600	-1
0.08967	-1
0.09333	-1
0.09700	-1
0.10067	-1
0.10433	-1
0.10800	-1
0.11167	-1
0.11533	-1
0.11900	-1
0.12267	-1
0.12633	-1
0.13000	-1
0.13367	-1
0.13733	-1
0.14100	-0
0.14467	-0
0.14833	0
0.15200	0
0.15567	1
0.15933	1
0.16300	1
0.16667	1
0.17033	2
0.17400	2
0.17767	2
0.18133	2
0.18500	2
0.18867	2
0.19233	2
0.19600	2
0.19967	2
0.20333	2
0.20700	2
0.21067	1
0.21433	1
0.21800	1
0.22167	1
0.22533	1
0.22900	1
0.23267	1
0.23633	1
0.24000	1
0.24367	1
0.24733	1
0.25100	1
0.25467	1
0.25833	0
0.26200	-0
0.26567	-1
0.26933	-1
0.27300	-1
0.27667	-1
0.28033	-1
0.28400	-1
0.28767	-1
0.29133	-1
0.29500	-1
0.29867	-0
0.30233	0
0.30600	0
0.30967	1
0.31333	1
0.31700	1
0.32067	0
0.32433	0
0.32800	0
0.33167	0
0.33533	-0
0.33900	-0
0.34267	-1
0.34633	-1
0.35000	-2
0.35367	-2
0.35733	-2
0.36100	-2
0.36467	-2
0.36833	-2
0.37200	-2
0.37567	-2
0.37933	-2
0.38300	-2
0.38667	-3
0.39033	-3
0.39400	-3
0.39767	-4
0.40133	-4
0.40500	-5
0.40867	-5
0.41233	-5
0.41600	-5
0.41967	-5
0.42333	-5
0.42700	-5
0.43067	-5
0.43433	-5
0.43800	-5
0.44167	-5
0.44533	-5
0.44900	-5
0.45267	-5
0.45633	-5
0.46000	-5
0.46367	-5
0.46733	-5
0.47100	-5
0.47467	-5
0.47833	-4
0.48200	-4
0.48567	-4
0.48933	-3
0.49300	-3
0.49667	-3
0.50033	-2
0.50400	-2
0.50767	-2
0.51133	-2
0.51500	-1
0.51867	-1
0.52233	-1
0.52600	-1
0.52967	-1
0.53333	-1
0.53700	-1
0.54067	-0
0.54433	-0
0.54800	-0
0.55167	-0
0.55533	0
0.55900	0
0.56267	0
0.56633	0
0.57000	0
0.57367	0
0.57733	1
0.58100	1
0.58467	1
0.58833	1
0.59200	1
0.59567	1
0.59933	1
0.60300	1
0.60667	1
0.61033	1
0.61400	1
0.61767	1
0.62133	0
0.62500	0
0.62867	-0
0.63233	-1
0.63600	-1
0.63967	-2
0.64333	-2
0.64700	-2
0.65067	-2
0.65433	-2
0.65800	-2
0.66167	-3
0.66533	-3
0.66900	-3
0.67267	-3
0.67633	-3
0.68000	-3
0.68367	-3
0.68733	-3
0.69100	-3
0.69467	-3
0.69833	-3
0.70200	-3
0.70567	-3
0.70933	-3
0.71300	-3
0.71667	-3
0.72033	-2
0.72400	-2
0.72767	-2
0.73133	-2
0.73500	-1
0.73867	-1
0.74233	-1
0.74600	-0
0.74967	-0
0.75333	0
0.75700	0
0.76067	0
0.76433	0
0.76800	0
0.77167	0
0.77533	0
0.77900	0
0.78267	0
0.78633	0
0.79000	0
0.79367	0
0.79733	0
0.80100	0
0.80467	0
0.80833	0
0.81200	0
0.81567	0
0.81933	-0
0.82300	-0
0.82667	-0
0.83033	-1
0.83400	-1
0.83767	-1
0.84133	-1
0.84500	-2
0.84867	-2
0.85233	-2
0.85600	-2
0.85967	-2
0.86333	-2
0.86700	-2
0.87067	-2
0.87433	-2
0.87800	-2
0.88167	-2
0.88533	-2
0.88900	-2
0.89267	-2
0.89633	-2
0.90000	-3
0.90367	-3
0.90733	-3
0.91100	-3
0.91467	-3
0.91833	-3
0.92200	-3
0.92567	-3
0.92933	-3
0.93300	-3
0.93667	-4
0.94033	-4
0.94400	-4
0.94767	-4
0.95133	-4
0.95500	-4
0.95867	-4
0.96233	-4
0.96600	-4
0.96967	-4
0.97333	-4
0.97700	-4
0.98067	-4
0.98433	-4
0.98800	-3
0.99167	-3
0.99533	-3
0.99900	-3
1.00267	-3
1.00633	-3
1.01000	-3
1.01367	-4
1.01733	-4
1.02100	-4
1.02467	-4
1.02833	-4
1.03200	-3
1.03567	-3
1.03933	-3
1.04300	-2
1.04667	-2
1.05033	-2
1.05400	-1
1.05767	-1
1.06133	-1
1.06500	-1
1.06867	-1
1.07233	-1
1.07600	-1
1.07967	-1
1.08333	-1
1.08700	-2
1.09067	-2
1.09433	-2
1.09800	-2
1.10167	-2
1.10533	-2
1.10900	-1
1.11267	-1
1.11633	-1
1.12000	-2
1.12367	-2
1.12733	-3
1.13100	-3
1.13467	-3
1.13833	-3
1.14200	-4
1.14567	-4
1.14933	-4
1.15300	-4
1.15667	-5
1.16033	-5
1.16400	-5
1.16767	-5
1.17133	-4
1.17500	-4
1.17867	-4
1.18233	-4
1.18600	-4
1.18967	-4
1.19333	-4
1.19700	-4
1.20067	-4
1.20433	-4
1.20800	-4
1.21167	-4
1.21533	-4
1.21900	-4
1.22267	-4
1.22633	-4
1.23000	-4
1.23367	-4
1.23733	-4
1.24100	-4
1.24467	-4
1.24833	-4
1.25200	-4
1.25567	-4
1.25933	-4
1.26300	-4
1.26667	-4
1.27033	-4
1.27400	-4
1.27767	-3
1.28133	-3
1.28500	-3
1.28867	-3
1.29233	-3
1.29600	-2
1.29967	-2
1.30333	-2
1.30700	-2
1.31067	-2
1.31433	-2
1.31800	-2
1.32167	-2
1.32533	-2
1.32900	-2
1.33267	-2
1.33633	-2
1.34000	-2
1.34367	-2
1.34733	-1
1.35100	-1
1.35467	-1
1.35833	-1
1.36200	-1
1.36567	-1
1.36933	-1
1.37300	-2
1.37667	-2
1.38033	-2
1.38400	-2
1.38767	-2
1.39133	-2
1.39500	-3
1.39867	-3
1.40233	-3
1.40600	-3
1.40967	-3
1.41333	-3
1.41700	-3
1.42067	-3
1.42433	-4
1.42800	-4
1.43167	-4
1.43533	-4
1.43900	-4
1.44267	-4
1.44633	-4
1.45000	-4
1.45367	-4
1.45733	-4
1.46100	-4
1.46467	-4
1.46833	-5
1.47200	-5
1.47567	-5
1.47933	-5
1.48300	-5
1.48667	-4
1.49033	-4
1.49400	-4
1.49767	-4
1.50133	-4
1.50500	-4
1.50867	-4
1.51233	-4
1.51600	-4
1.51967	-4
1.52333	-4
1.52700	-4
1.53067	-4
1.53433	-4
1.53800	-4
1.54167	-4
1.54533	-4
1.54900	-4
1.55267	-4
1.55633	-4
1.56000	-4
1.56367	-5
1.56733	-5
1.57100	-5
1.57467	-5
1.57833	-5
1.58200	-5
1.58567	-5
1.58933	-5
1.59300	-6
1.59667	-6
1.60033	-7
1.60400	-8
1.60767	-10
1.61133	-11
1.61500	-13
1.61867	-15
1.62233	-18
1.62600	-21
1.62967	-24
1.63333	-27
1.63700	-30
1.64067	-34
1.64433	-37
1.64800	-41
1.65167	-44
1.65533	-48
1.65900	-51
1.66267	-55
1.66633	-59
1.67000	-64
1.67367	-68
1.67733	-74
1.68100	-79
1.68467	-83
1.68833	-88
1.69200	-92
1.69567	-96
1.69933	-99
1.70300	-101
1.70667	-103
1.71033	-105
1.71400	-107
1.71767	-108
1.72133	-109
1.72500	-111
1.72867	-112
1.73233	-113
1.73600	-114
1.73967	-115
1.74333	-116
1.74700	-117
1.75067	-118
1.75433	-119
1.75800	-120
1.76167	-121
1.76533	-122
1.76900	-122
1.77267	-122
1.77633	-121
1.78000	-121
1.78367	-120
1.78733	-120
1.79100	-120
1.79467	-120
1.79833	-121
1.80200	-121
1.80567	-122
1.80933	-123
1.81300	-124
1.81667	-125
1.82033	-125
1.82400	-126
1.82767	-125
1.83133	-125
1.83500	-125
1.83867	-124
1.84233	-124
1.84600	-124
1.84967	-124
1.85333	-123
1.85700	-123
1.86067	-123
1.86433	-122
1.86800	-122
1.87167	-122
1.87533	-122
1.87900	-122
1.88267	-122
1.88633	-122
1.89000	-122
1.89367	-121
1.89733	-121
1.90100	-121
1.90467	-121
1.90833	-121
1.91200	-121
1.91567	-120
1.91933	-120
1.92300	-120
1.92667	-120
1.93033	-120
1.93400	-120
1.93767	-119
1.94133	-119
1.94500	-119
1.94867	-118
1.95233	-118
1.95600	-118
1.95967	-118
1.96333	-119
1.96700	-119
1.97067	-119
1.97433	-118
1.97800	-118
1.98167	-117
1.98533	-116
1.98900	-116
1.99267	-115
1.99633	-115
2.00000	-116
2.00367	-116
2.00733	-116
2.01100	-117
2.01467	-117
2.01833	-117
2.02200	-117
2.02567	-116
2.02933	-115
2.03300	-114
2.03667	-113
2.04033	-112
2.04400	-112
2.04767	-111
2.05133	-110
2.05500	-110
2.05867	-109
2.06233	-109
2.06600	-108
2.06967	-108
2.07333	-108
2.07700	-108
2.08067	-108
2.08433	-108
2.08800	-108
2.09167	-108
2.09533	-109
2.09900	-108
2.10267	-108
2.10633	-108
2.11000	-108
2.11367	-107
2.11733	-107
2.12100	-107
2.12467	-107
2.12833	-107
2.13200	-107
2.13567	-107
2.13933	-107
2.14300	-106
2.14667	-106
2.15033	-105
2.15400	-105
2.15767	-104
2.16133	-104
2.16500	-103
2.16867	-103
2.17233	-103
2.17600	-102
2.17967	-102
2.18333	-101
2.18700	-101
2.19067	-100
2.19433	-100
2.19800	-100
2.20167	-99
2.20533	-99
2.20900	-99
2.21267	-99
2.21633	-99
2.22000	-99
2.22367	-99
2.22733	-99
2.23100	-98
2.23467	-98
2.23833	-98
2.24200	-98
2.24567	-99
2.24933	-99
2.25300	-100
2.25667	-100
2.26033	-100
2.26400	-99
2.26767	-98
2.27133	-98
2.27500	-97
2.27867	-96
2.28233	-95
2.28600	-95
2.28967	-94
2.29333	-93
2.29700	-93
2.30067	-92
2.30433	-92
2.30800	-92
2.31167	-91
2.31533	-90
2.31900	-90
2.32267	-90
2.32633	-89
2.33000	-89
2.33367	-89
2.33733	-89
2.34100	-88
2.34467	-88
2.34833	-87
2.35200	-87
2.35567	-87
2.35933	-87
2.36300	-88
2.36667	-88
2.37033	-88
2.37400	-87
2.37767	-86
2.38133	-84
2.38500	-82
2.38867	-78
2.39233	-74
2.39600	-70
2.39967	-65
2.40333	-60
2.40700	-55
2.41067	-50
2.41433	-45
2.41800	-41
2.42167	-37
2.42533	-33
2.42900	-29
2.43267	-26
2.43633	-23
2.44000	-21
2.44367	-18
2.44733	-16
2.45100	-15
2.45467	-13
2.45833	-11
2.46200	-10
2.46567	-8
2.46933	-6
2.47300	-5
2.47667	-3
2.48033	-2
2.48400	-0
2.48767	1
2.49133	2
2.49500	3
2.49867	4
2.50233	5
2.50600	6
2.50967	6
2.51333	7
2.51700	8
2.52067	9
2.52433	9
2.52800	10
2.53167	10
2.53533	11
2.53900	12
2.54267	12
2.54633	13
2.55000	13
2.55367	14
2.55733	14
2.56100	14
2.56467	13
2.56833	13
2.57200	13
2.57567	13
2.57933	13
2.58300	13
2.58667	13
2.59033	13
2.59400	12
2.59767	12
2.60133	12
2.60500	12
2.60867	13
2.61233	13
2.61600	13
2.61967	14
2.62333	14
2.62700	14
2.63067	14
2.63433	15
2.63800	15
2.64167	15
2.64533	15
2.64900	16
2.65267	16
2.65633	16
2.66000	16
2.66367	17
2.66733	17
2.67100	18
2.67467	19
2.67833	19
2.68200	20
2.68567	20
2.68933	20
2.69300	20
2.69667	21
2.70033	21
2.70400	20
2.70767	20
2.71133	19
2.71500	19
2.71867	19
2.72233	19
2.72600	19
2.72967	19
2.73333	19
2.73700	20
2.74067	20
2.74433	20
2.74800	21
2.75167	21
2.75533	21
2.75900	22
2.76267	22
2.76633	22
2.77000	23
2.77367	23
2.77733	23
2.78100	23
2.78467	23
2.78833	23
2.79200	23
2.79567	23
2.79933	23
2.80300	23
2.80667	23
2.81033	23
2.81400	22
2.81767	22
2.82133	22
2.82500	22
2.82867	23
2.83233	22
2.83600	22
2.83967	22
2.84333	22
2.84700	21
2.85067	19
2.85433	16
2.85800	11
2.86167	3
2.86533	-8
2.86900	-23
2.87267	-42
2.87633	-64
2.88000	-91
2.88367	-122
2.88733	-156
2.89100	-194
2.89467	-235
2.89833	-278
2.90200	-324
2.90567	-372
2.90933	-421
2.91300	-471
2.91667	-522
2.92033	-572
2.92400	-623
2.92767	-673
2.93133	-722
2.93500	-771
2.93867	-820
2.94233	-873
2.94600	-931
2.94967	-994
2.95333	-1051
2.95700	-1091
2.96067	-1107
2.96433	-1096
2.96800	-1060
2.97167	-1005
2.97533	-936
2.97900	-858
2.98267	-778
2.98633	-697
2.99000	-619
2.99367	-545
2.99733	-477
3.00100	-415
3.00467	-359
3.00833	-310
3.01200	-266
3.01567	-228
3.01933	-195
3.02300	-166
3.02667	-141
3.03033	-119
3.03400	-100
3.03767	-84
3.04133	-70
3.04500	-58
3.04867	-48
3.05233	-39
3.05600	-32
3.05967	-26
3.06333	-20
3.06700	-16
3.07067	-12
3.07433	-9
3.07800	-6
3.08167	-4
3.08533	-2
3.08900	-0
3.09267	1
3.09633	3
3.10000	4
3.10367	5
3.10733	6
3.11100	7
3.11467	8
3.11833	9
3.12200	10
3.12567	10
3.12933	11
3.13300	11
3.13667	11
3.14033	12
3.14400	13
3.14767	13
3.15133	14
3.15500	14
3.15867	15
3.16233	16
3.16600	16
3.16967	17
3.17333	17
3.17700	17
3.18067	18
3.18433	18
3.18800	18
3.19167	19
3.19533	19
3.19900	19
3.20267	20
3.20633	20
3.21000	21
3.21367	21
3.21733	21
3.22100	21
3.22467	22
3.22833	22
3.23200	22
3.23567	22
3.23933	22
3.24300	22
3.24667	22
3.25033	22
3.25400	22
3.25767	22
3.26133	22
3.26500	22
3.26867	21
3.27233	21
3.27600	21
3.27967	22
3.28333	22
3.28700	21
3.29067	21
3.29433	21
3.29800	22
3.30167	22
3.30533	22
3.30900	22
3.31267	22
3.31633	23
3.32000	23
3.32367	23
3.32733	22
3.33100	23
3.33467	23
3.33833	23
3.34200	23
3.34567	23
3.34933	23
3.35300	23
3.35667	23
3.36033	23
3.36400	23
3.36767	23
3.37133	23
3.37500	23
3.37867	23
3.38233	23
3.38600	23
3.38967	23
3.39333	23
3.39700	23
3.40067	23
3.40433	23
3.40800	23
3.41167	23
3.41533	23
3.41900	23
3.42267	23
3.42633	23
3.43000	23
3.43367	23
3.43733	23
3.44100	23
3.44467	23
3.44833	23
3.45200	23
3.45567	23
3.45933	23
3.46300	23
3.46667	23
3.47033	23
3.47400	23
3.47767	23
3.48133	23
3.48500	23
3.48867	23
3.49233	23
3.49600	23
3.49967	23
3.50333	23
3.50700	23
3.51067	23
3.51433	24
3.51800	24
3.52167	24
3.52533	24
3.52900	24
3.53267	24
3.53633	24
3.54000	25
3.54367	25
3.54733	25
3.55100	25
3.55467	25
3.55833	25
3.56200	25
3.56567	25
3.56933	25
3.57300	24
3.57667	24
3.58033	24
3.58400	24
3.58767	24
3.59133	23
3.59500	23
3.59867	23
3.60233	23
3.60600	23
3.60967	23
3.61333	23
3.61700	23
3.62067	23
3.62433	23
3.62800	23
3.63167	23
3.63533	23
3.63900	23
3.64267	23
3.64633	23
3.65000	23
3.65367	23
3.65733	23
3.66100	23
3.66467	23
3.66833	23
3.67200	23
3.67567	23
3.67933	23
3.68300	23
3.68667	23
3.69033	23
3.69400	23
3.69767	23
3.70133	23
3.70500	23
3.70867	23
3.71233	23
3.71600	23
3.71967	23
3.72333	23
3.72700	23
3.73067	23
3.73433	24
3.73800	24
3.74167	24
3.74533	24
3.74900	24
3.75267	24
3.75633	24
3.76000	24
3.76367	24
3.76733	23
3.77100	23
3.77467	24
3.77833	24
3.78200	24
3.78567	24
3.78933	24
3.79300	24
3.79667	24
3.80033	24
3.80400	24
3.80767	24
3.81133	24
3.81500	24
3.81867	24
3.82233	24
3.82600	23
3.82967	23
3.83333	23
3.83700	23
3.84067	23
3.84433	23
3.84800	23
3.85167	23
3.85533	23
3.85900	23
3.86267	23
3.86633	23
3.87000	23
3.87367	23
3.87733	23
3.88100	23
3.88467	24
3.88833	24
3.89200	24
3.89567	24
3.89933	24
3.90300	24
3.90667	24
3.91033	25
3.91400	24
3.91767	24
3.92133	24
3.92500	24
3.92867	24
3.93233	24
3.93600	24
3.93967	24
3.94333	24
3.94700	24
3.95067	24
3.95433	24
3.95800	24
3.96167	24
3.96533	24
3.96900	24
3.97267	24
3.97633	23
3.98000	23
3.98367	23
3.98733	23
3.99100	23
3.99467	24
3.99833	24

[Chromatogram (Ch3)]
Interval(msec)	220
# of Points	1091
Start Time(min)	0.002
End Time(min)	3.998
R.Time (min)	Intensity
0.00167	1
0.00533	0
0.00900	1
0.01267	0
0.01633	2
0.02000	3
0.02367	3
0.02733	3
0.03100	0
0.03467	-1
0.03833	-2
0.04200	-2
0.04567	-2
0.04933	-2
0.05300	-1
0.05667	-0
0.06033	1
0.06400	1
0.06767	-0
0.07133	0
0.07500	2
0.07867	4
0.08233	4
0.08600	4
0.08967	5
0.09333	5
0.09700	4
0.10067	3
0.10433	3
0.10800	5
0.11167	5
0.11533	4
0.11900	4
0.12267	5
0.12633	8
0.13000	9
0.13367	9
0.13733	9
0.14100	9
0.14467	8
0.14833	8
0.15200	7
0.15567	9
0.15933	7
0.16300	3
0.16667	1
0.17033	2
0.17400	3
0.17767	6
0.18133	6
0.18500	6
0.18867	8
0.19233	10
0.19600	12
0.19967	10
0.20333	9
0.20700	9
0.21067	9
0.21433	9
0.21800	10
0.22167	8
0.22533	8
0.22900	11
0.23267	15
0.23633	17
0.24000	15
0.24367	15
0.24733	16
0.25100	16
0.25467	17
0.25833	18
0.26200	18
0.26567	17
0.26933	15
0.27300	12
0.27667	13
0.28033	14
0.28400	14
0.28767	13
0.29133	12
0.29500	12
0.29867	11
0.30233	12
0.30600	14
0.30967	14
0.31333	15
0.31700	20
0.32067	22
0.32433	22
0.32800	22
0.33167	23
0.33533	22
0.33900	21
0.34267	22
0.34633	22
0.35000	21
0.35367	22
0.35733	23
0.36100	22
0.36467	21
0.36833	20
0.37200	19
0.37567	20
0.37933	22
0.38300	23
0.38667	21
0.39033	21
0.39400	21
0.39767	19
0.40133	17
0.40500	17
0.40867	19
0.41233	21
0.41600	24
0.41967	27
0.42333	26
0.42700	24
0.43067	25
0.43433	25
0.43800	27
0.44167	29
0.44533	28
0.44900	28
0.45267	30
0.45633	30
0.46000	31
0.46367	33
0.46733	33
0.47100	32
0.47467	30
0.47833	28
0.48200	26
0.48567	26
0.48933	26
0.49300	27
0.49667	28
0.50033	30
0.50400	30
0.50767	30
0.51133	29
0.51500	29
0.51867	29
0.52233	30
0.52600	32
0.52967	35
0.53333	38
0.53700	37
0.54067	34
0.54433	33
0.54800	34
0.55167	35
0.55533	35
0.55900	36
0.56267	36
0.56633	36
0.57000	36
0.57367	33
0.57733	32
0.58100	30
0.58467	29
0.58833	30
0.59200	30
0.59567	29
0.59933	30
0.60300	29
0.60667	30
0.61033	28
0.61400	26
0.61767	25
0.62133	26
0.62500	27
0.62867	26
0.63233	22
0.63600	21
0.63967	24
0.64333	26
0.64700	27
0.65067	27
0.65433	25
0.65800	24
0.66167	24
0.66533	26
0.66900	27
0.67267	30
0.67633	31
0.68000	30
0.68367	29
0.68733	26
0.69100	23
0.69467	26
0.69833	30
0.70200	32
0.70567	32
0.70933	32
0.71300	30
0.71667	28
0.72033	28
0.72400	28
0.72767	28
0.73133	30
0.73500	29
0.73867	28
0.74233	26
0.74600	26
0.74967	25
0.75333	24
0.75700	25
0.76067	28
0.76433	29
0.76800	31
0.77167	31
0.77533	32
0.77900	31
0.78267	31
0.78633	29
0.79000	28
0.79367	29
0.79733	31
0.80100	33
0.80467	35
0.80833	35
0.81200	35
0.81567	35
0.81933	33
0.82300	31
0.82667	28
0.83033	27
0.83400	29
0.83767	30
0.84133	32
0.84500	32
0.84867	33
0.85233	33
0.85600	33
0.85967	33
0.86333	33
0.86700	32
0.87067	32
0.87433	34
0.87800	35
0.88167	33
0.88533	34
0.88900	36
0.89267	34
0.89633	34
0.90000	36
0.90367	35
0.90733	34
0.91100	35
0.91467	34
0.91833	33
0.92200	34
0.92567	34
0.92933	34
0.93300	35
0.93667	36
0.94033	37
0.94400	38
0.94767	36
0.95133	34
0.95500	37
0.95867	37
0.96233	36
0.96600	36
0.96967	36
0.97333	37
0.97700	35
0.98067	35
0.98433	35
0.98800	33
0.99167	34
0.99533	36
0.99900	37
1.00267	36
1.00633	34
1.01000	33
1.01367	34
1.01733	35
1.02100	36
1.02467	36
1.02833	37
1.03200	38
1.03567	38
1.03933	36
1.04300	36
1.04667	36
1.05033	38
1.05400	41
1.05767	41
1.06133	41
1.06500	43
1.06867	44
1.07233	43
1.07600	40
1.07967	38
1.08333	38
1.08700	40
1.09067	44
1.09433	47
1.09800	48
1.10167	46
1.10533	43
1.10900	41
1.11267	40
1.11633	38
1.12000	39
1.12367	42
1.12733	43
1.13100	42
1.13467	41
1.13833	40
1.14200	40
1.14567	41
1.14933	42
1.15300	41
1.15667	40
1.16033	39
1.16400	38
1.16767	38
1.17133	39
1.17500	39
1.17867	40
1.18233	42
1.18600	42
1.18967	40
1.19333	39
1.19700	39
1.20067	39
1.20433	39
1.20800	41
1.21167	41
1.21533	42
1.21900	44
1.22267	47
1.22633	47
1.23000	47
1.23367	47
1.23733	45
1.24100	42
1.24467	41
1.24833	39
1.25200	38
1.25567	38
1.25933	39
1.26300	42
1.26667	46
1.27033	48
1.27400	48
1.27767	49
1.28133	49
1.28500	49
1.28867	48
1.29233	48
1.29600	50
1.29967	51
1.30333	51
1.30700	50
1.31067	49
1.31433	50
1.31800	51
1.32167	52
1.32533	54
1.32900	52
1.33267	50
1.33633	50
1.34000	51
1.34367	53
1.34733	53
1.35100	52
1.35467	52
1.35833	51
1.36200	51
1.36567	52
1.36933	53
1.37300	53
1.37667	54
1.38033	52
1.38400	50
1.38767	49
1.39133	48
1.39500	48
1.39867	47
1.40233	48
1.40600	50
1.40967	53
1.41333	53
1.41700	52
1.42067	52
1.42433	52
1.42800	52
1.43167	52
1.43533	52
1.43900	52
1.44267	52
1.44633	52
1.45000	53
1.45367	54
1.45733	54
1.46100	54
1.46467	52
1.46833	50
1.47200	50
1.47567	50
1.47933	52
1.48300	53
1.48667	53
1.49033	51
1.49400	50
1.49767	52
1.50133	53
1.50500	54
1.50867	54
1.51233	55
1.51600	56
1.51967	58
1.52333	59
1.52700	57
1.53067	54
1.53433	53
1.53800	55
1.54167	57
1.54533	59
1.54900	59
1.55267	56
1.55633	54
1.56000	53
1.56367	53
1.56733	52
1.57100	53
1.57467	56
1.57833	58
1.58200	60
1.58567	60
1.58933	59
1.59300	56
1.59667	55
1.60033	57
1.60400	58
1.60767	60
1.61133	60
1.61500	60
1.61867	59
1.62233	61
1.62600	66
1.62967	67
1.63333	66
1.63700	66
1.64067	67
1.64433	67
1.64800	70
1.65167	76
1.65533	77
1.65900	76
1.66267	74
1.66633	74
1.67000	75
1.67367	75
1.67733	79
1.68100	82
1.68467	85
1.68833	87
1.69200	86
1.69567	84
1.69933	81
1.70300	81
1.70667	81
1.71033	82
1.71400	83
1.71767	86
1.72133	86
1.72500	86
1.72867	88
1.73233	88
1.73600	88
1.73967	87
1.74333	85
1.74700	85
1.75067	90
1.75433	92
1.75800	90
1.76167	88
1.76533	88
1.76900	91
1.77267	93
1.77633	95
1.78000	97
1.78367	99
1.78733	101
1.79100	102
1.79467	102
1.79833	100
1.80200	101
1.80567	102
1.80933	103
1.81300	104
1.81667	103
1.82033	103
1.82400	105
1.82767	106
1.83133	106
1.83500	105
1.83867	104
1.84233	103
1.84600	103
1.84967	106
1.85333	107
1.85700	109
1.86067	110
1.86433	114
1.86800	117
1.87167	115
1.87533	113
1.87900	111
1.88267	110
1.88633	110
1.89000	110
1.89367	108
1.89733	106
1.90100	106
1.90467	106
1.90833	107
1.91200	110
1.91567	114
1.91933	116
1.92300	116
1.92667	115
1.93033	117
1.93400	121
1.93767	124
1.94133	126
1.94500	128
1.94867	126
1.95233	124
1.95600	125
1.95967	127
1.96333	125
1.96700	125
1.97067	125
1.97433	127
1.97800	131
1.98167	131
1.98533	133
1.98900	134
1.99267	135
1.99633	137
2.00000	137
2.00367	137
2.00733	137
2.01100	139
2.01467	142
2.01833	145
2.02200	144
2.02567	145
2.02933	145
2.03300	147
2.03667	146
2.04033	145
2.04400	147
2.04767	149
2.05133	150
2.05500	152
2.05867	155
2.06233	156
2.06600	158
2.06967	160
2.07333	161
2.07700	162
2.08067	162
2.08433	162
2.08800	163
2.09167	165
2.09533	165
2.09900	167
2.10267	170
2.10633	172
2.11000	174
2.11367	177
2.11733	178
2.12100	179
2.12467	179
2.12833	181
2.13200	183
2.13567	186
2.13933	188
2.14300	187
2.14667	186
2.15033	187
2.15400	189
2.15767	193
2.16133	195
2.16500	195
2.16867	197
2.17233	196
2.17600	197
2.17967	198
2.18333	199
2.18700	202
2.19067	206
2.19433	207
2.19800	207
2.20167	208
2.20533	210
2.20900	212
2.21267	214
2.21633	212
2.22000	211
2.22367	213
2.22733	214
2.23100	215
2.23467	213
2.23833	211
2.24200	212
2.24567	214
2.24933	218
2.25300	220
2.25667	221
2.26033	221
2.26400	223
2.26767	226
2.27133	228
2.27500	229
2.27867	226
2.28233	221
2.28600	221
2.28967	223
2.29333	225
2.29700	225
2.30067	225
2.30433	228
2.30800	232
2.31167	233
2.31533	234
2.31900	235
2.32267	235
2.32633	235
2.33000	236
2.33367	237
2.33733	237
2.34100	237
2.34467	241
2.34833	245
2.35200	249
2.35567	251
2.35933	251
2.36300	251
2.36667	251
2.37033	254
2.37400	257
2.37767	256
2.38133	257
2.38500	257
2.38867	256
2.39233	256
2.39600	255
2.39967	255
2.40333	255
2.40700	256
2.41067	258
2.41433	260
2.41800	263
2.42167	265
2.42533	266
2.42900	267
2.43267	269
2.43633	270
2.44000	269
2.44367	271
2.44733	274
2.45100	266
2.45467	247
2.45833	223
2.46200	197
2.46567	173
2.46933	155
2.47300	142
2.47667	130
2.48033	119
2.48400	109
2.48767	102
2.49133	95
2.49500	87
2.49867	77
2.50233	70
2.50600	63
2.50967	56
2.51333	50
2.51700	44
2.52067	40
2.52433	35
2.52800	32
2.53167	28
2.53533	27
2.53900	24
2.54267	21
2.54633	19
2.55000	16
2.55367	14
2.55733	11
2.56100	7
2.56467	2
2.56833	-1
2.57200	-2
2.57567	-2
2.57933	-5
2.58300	-6
2.58667	-10
2.59033	-13
2.59400	-16
2.59767	-18
2.60133	-23
2.60500	-35
2.60867	-54
2.61233	-80
2.61600	-111
2.61967	-146
2.62333	-182
2.62700	-217
2.63067	-247
2.63433	-275
2.63800	-297
2.64167	-315
2.64533	-329
2.64900	-336
2.65267	-336
2.65633	-333
2.66000	-328
2.66367	-324
2.66733	-316
2.67100	-305
2.67467	-294
2.67833	-284
2.68200	-275
2.68567	-266
2.68933	-259
2.69300	-250
2.69667	-241
2.70033	-231
2.70400	-221
2.70767	-213
2.71133	-206
2.71500	-196
2.71867	-186
2.72233	-175
2.72600	-165
2.72967	-156
2.73333	-150
2.73700	-145
2.74067	-137
2.74433	-129
2.74800	-121
2.75167	-115
2.75533	-111
2.75900	-108
2.76267	-104
2.76633	-101
2.77000	-98
2.77367	-93
2.77733	-89
2.78100	-84
2.78467	-80
2.78833	-77
2.79200	-77
2.79567	-75
2.79933	-73
2.80300	-69
2.80667	-65
2.81033	-62
2.81400	-60
2.81767	-58
2.82133	-53
2.82500	-46
2.82867	-37
2.83233	-12
2.83600	39
2.83967	136
2.84333	301
2.84700	555
2.85067	912
2.85433	1370
2.85800	1911
2.86167	2498
2.86533	3055
2.86900	3569
2.87267	4042
2.87633	4439
2.88000	4729
2.88367	4892
2.88733	4929
2.89100	4855
2.89467	4689
2.89833	4458
2.90200	4189
2.90567	3905
2.90933	3623
2.91300	3351
2.91667	3093
2.92033	2855
2.92400	2636
2.92767	2442
2.93133	2269
2.93500	2113
2.93867	1974
2.94233	1854
2.94600	1749
2.94967	1657
2.95333	1574
2.95700	1503
2.96067	1440
2.96433	1385
2.96800	1338
2.97167	1292
2.97533	1252
2.97900	1218
2.98267	1187
2.98633	1161
2.99000	1138
2.99367	1117
2.99733	1098
3.00100	1084
3.00467	1071
3.00833	1058
3.01200	1047
3.01567	1033
3.01933	1025
3.02300	1018
3.02667	1012
3.03033	1008
3.03400	1003
3.03767	996
3.04133	989
3.04500	983
3.04867	976
3.05233	972
3.05600	969
3.05967	965
3.06333	962
3.06700	960
3.07067	957
3.07433	952
3.07800	947
3.08167	941
3.08533	938
3.08900	935
3.09267	934
3.09633	933
3.10000	932
3.10367	932
3.10733	929
3.11100	926
3.11467	923
3.11833	922
3.12200	921
3.12567	919
3.12933	917
3.13300	916
3.13667	914
3.14033	910
3.14400	910
3.14767	909
3.15133	908
3.15500	908
3.15867	907
3.16233	904
3.16600	903
3.16967	903
3.17333	902
3.17700	900
3.18067	899
3.18433	898
3.18800	896
3.19167	895
3.19533	895
3.19900	892
3.20267	887
3.20633	882
3.21000	878
3.21367	875
3.21733	872
3.22100	871
3.22467	867
3.22833	862
3.23200	858
3.23567	856
3.23933	854
3.24300	849
3.24667	843
3.25033	839
3.25400	837
3.25767	834
3.26133	832
3.26500	828
3.26867	824
3.27233	822
3.27600	814
3.27967	809
3.28333	804
3.28700	798
3.29067	792
3.29433	787
3.29800	785
3.30167	785
3.30533	784
3.30900	781
3.31267	776
3.31633	772
3.32000	766
3.32367	762
3.32733	757
3.33100	752
3.33467	748
3.33833	741
3.34200	735
3.34567	731
3.34933	727
3.35300	724
3.35667	721
3.36033	715
3.36400	708
3.36767	701
3.37133	695
3.37500	690
3.37867	684
3.38233	677
3.38600	671
3.38967	668
3.39333	663
3.39700	660
3.40067	661
3.40433	660
3.40800	657
3.41167	654
3.41533	650
3.41900	646
3.42267	639
3.42633	635
3.43000	631
3.43367	628
3.43733	627
3.44100	624
3.44467	622
3.44833	618
3.45200	614
3.45567	615
3.45933	616
3.46300	615
3.46667	613
3.47033	609
3.47400	607
3.47767	606
3.48133	604
3.48500	600
3.48867	596
3.49233	594
3.49600	592
3.49967	590
3.50333	587
3.50700	584
3.51067	581
3.51433	576
3.51800	571
3.52167	568
3.52533	566
3.52900	563
3.53267	560
3.53633	558
3.54000	553
3.54367	550
3.54733	547
3.55100	546
3.55467	548
3.55833	545
3.56200	541
3.56567	539
3.56933	539
3.57300	537
3.57667	535
3.58033	532
3.58400	528
3.58767	527
3.59133	527
3.59500	527
3.59867	524
3.60233	522
3.60600	518
3.60967	512
3.61333	508
3.61700	507
3.62067	505
3.62433	504
3.62800	503
3.63167	500
3.63533	498
3.63900	496
3.64267	496
3.64633	498
3.65000	499
3.65367	497
3.65733	493
3.66100	493
3.66467	493
3.66833	491
3.67200	490
3.67567	488
3.67933	484
3.68300	481
3.68667	481
3.69033	480
3.69400	478
3.69767	474
3.70133	472
3.70500	472
3.70867	471
3.71233	468
3.71600	470
3.71967	470
3.72333	469
3.72700	468
3.73067	466
3.73433	464
3.73800	462
3.74167	461
3.74533	458
3.74900	456
3.75267	455
3.75633	453
3.76000	450
3.76367	447
3.76733	443
3.77100	441
3.77467	438
3.77833	437
3.78200	438
3.78567	438
3.78933	438
3.79300	435
3.79667	432
3.80033	428
3.80400	424
3.80767	422
3.81133	422
3.81500	421
3.81867	418
3.82233	416
3.82600	414
3.82967	415
3.83333	414
3.83700	413
3.84067	412
3.84433	410
3.84800	408
3.85167	407
3.85533	405
3.85900	403
3.86267	402
3.86633	400
3.87000	398
3.87367	396
3.87733	395
3.88100	394
3.88467	393
3.88833	393
3.89200	393
3.89567	393
3.89933	392
3.90300	387
3.90667	384
3.91033	384
3.91400	380
3.91767	376
3.92133	376
3.92500	376
3.92867	377
3.93233	378
3.93600	378
3.93967	377
3.94333	376
3.94700	374
3.95067	372
3.95433	369
3.95800	367
3.96167	366
3.96533	366
3.96900	367
3.97267	367
3.97633	366
3.98000	364
3.98367	360
3.98733	357
3.99100	351
3.99467	349
3.99833	348

[Status Trace (Column Oven Temperature)]
Interval(msec)	1000
# of Points	240
Start Time(min)	0.014
End Time(min)	3.998
Intensity Units	
Intensity Multiplier	1
R.Time (min)	Intensity
0.01445	35.05
0.03112	35.05
0.04778	35.05
0.06445	35.04
0.08112	35.04
0.09778	35.05
0.11445	35.05
0.13112	35.05
0.14778	35.03
0.16445	35.02
0.18112	35.01
0.19778	35.00
0.21445	34.99
0.23112	34.98
0.24778	34.98
0.26445	34.99
0.28112	34.98
0.29778	34.98
0.31445	34.98
0.33112	34.97
0.34778	34.97
0.36445	34.98
0.38112	34.98
0.39778	35.00
0.41445	35.01
0.43112	35.02
0.44778	35.02
0.46445	35.03
0.48112	35.02
0.49778	35.01
0.51445	35.01
0.53112	35.00
0.54778	34.98
0.56445	34.98
0.58112	34.98
0.59778	34.96
0.61445	34.96
0.63112	34.96
0.64778	34.97
0.66445	34.97
0.68112	34.98
0.69778	34.98
0.71445	34.98
0.73112	34.98
0.74778	34.97
0.76445	34.96
0.78112	34.96
0.79778	34.95
0.81445	34.95
0.83112	34.95
0.84778	34.95
0.86445	34.96
0.88112	34.96
0.89778	34.96
0.91445	34.97
0.93112	34.97
0.94778	34.98
0.96445	34.98
0.98112	35.00
0.99778	35.00
1.01445	35.00
1.03112	34.99
1.04778	34.98
1.06445	34.97
1.08112	34.97
1.09778	34.97
1.11445	34.97
1.13112	34.98
1.14778	34.98
1.16445	34.99
1.18112	34.98
1.19778	34.99
1.21445	34.99
1.23112	34.99
1.24778	35.00
1.26445	34.99
1.28112	34.99
1.29778	34.99
1.31445	34.98
1.33112	34.98
1.34778	34.97
1.36445	34.97
1.38112	34.98
1.39778	34.98
1.41445	34.98
1.43112	34.98
1.44778	34.98
1.46445	34.98
1.48112	34.98
1.49778	34.98
1.51445	34.98
1.53112	34.97
1.54778	34.97
1.56445	34.97
1.58112	34.98
1.59778	35.01
1.61445	35.11
1.63112	35.27
1.64778	35.48
1.66445	35.75
1.68112	36.11
1.69778	36.46
1.71445	36.80
1.73112	37.14
1.74778	37.49
1.76445	37.82
1.78112	38.14
1.79778	38.47
1.81445	38.82
1.83112	39.13
1.84778	39.46
1.86445	39.79
1.88112	40.12
1.89778	40.44
1.91445	40.76
1.93112	41.08
1.94778	41.41
1.96445	41.76
1.98112	42.06
1.99778	42.39
2.01445	42.73
2.03112	43.04
2.04778	43.36
2.06445	43.67
2.08112	43.99
2.09778	44.31
2.11445	44.65
2.13112	44.98
2.14778	45.30
2.16445	45.64
2.18112	45.97
2.19778	46.29
2.21445	46.63
2.23112	46.94
2.24778	47.32
2.26445	47.64
2.28112	47.97
2.29778	48.30
2.31445	48.63
2.33112	48.95
2.34778	49.25
2.36445	49.57
2.38112	49.74
2.39778	49.79
2.41445	49.78
2.43112	49.78
2.44778	49.80
2.46445	49.80
2.48112	49.81
2.49778	49.80
2.51445	49.82
2.53112	49.81
2.54778	49.81
2.56445	49.82
2.58112	49.83
2.59778	49.84
2.61445	49.83
2.63112	49.85
2.64778	49.85
2.66445	49.86
2.68112	49.85
2.69778	49.85
2.71445	49.87
2.73112	49.88
2.74778	49.88
2.76445	49.89
2.78112	49.89
2.79778	49.90
2.81445	49.91
2.83112	49.92
2.84778	49.93
2.86445	49.93
2.88112	49.94
2.89778	49.96
2.91445	49.99
2.93112	50.00
2.94778	50.01
2.96445	50.02
2.98112	50.03
2.99778	50.03
3.01445	50.03
3.03112	50.04
3.04778	50.05
3.06445	50.07
3.08112	50.09
3.09778	50.09
3.11445	50.10
3.13112	50.11
3.14778	50.10
3.16445	50.10
3.18112	50.09
3.19778	50.08
3.21445	50.07
3.23112	50.06
3.24778	50.06
3.26445	50.06
3.28112	50.05
3.29778	50.06
3.31445	50.06
3.33112	50.05
3.34778	50.05
3.36445	50.05
3.38112	50.06
3.39778	50.06
3.41445	50.06
3.43112	50.06
3.44778	50.07
3.46445	50.07
3.48112	50.08
3.49778	50.08
3.51445	50.07
3.53112	50.07
3.54778	50.07
3.56445	50.06
3.58112	50.07
3.59778	50.08
3.61445	50.08
3.63112	50.09
3.64778	50.09
3.66445	50.09
3.68112	50.10
3.69778	50.08
3.71445	50.08
3.73112	50.08
3.74778	50.08
3.76445	50.08
3.78112	50.08
3.79778	50.08
3.81445	50.07
3.83112	50.07
3.84778	50.08
3.86445	50.08
3.88112	50.07
3.89778	50.07
3.91445	50.06
3.93112	50.06
3.94778	50.07
3.96445	50.08
3.98112	50.08
3.99778	50.07

[Status Trace (Injection Unit Temperature)]
Interval(msec)	1000
# of Points	240
Start Time(min)	0.014
End Time(min)	3.998
Intensity Units	
Intensity Multiplier	1
R.Time (min)	Intensity
0.01445	99.98
0.03112	99.98
0.04778	99.98
0.06445	99.98
0.08112	99.98
0.09778	99.98
0.11445	99.98
0.13112	99.99
0.14778	99.98
0.16445	99.98
0.18112	99.98
0.19778	99.99
0.21445	99.99
0.23112	99.99
0.24778	99.98
0.26445	99.98
0.28112	99.99
0.29778	99.99
0.31445	99.99
0.33112	99.99
0.34778	99.98
0.36445	99.99
0.38112	99.99
0.39778	99.98
0.41445	99.99
0.43112	99.98
0.44778	99.98
0.46445	99.98
0.48112	99.98
0.49778	99.98
0.51445	99.98
0.53112	99.98
0.54778	99.98
0.56445	99.98
0.58112	99.98
0.59778	99.98
0.61445	99.98
0.63112	99.98
0.64778	99.97
0.66445	99.98
0.68112	99.98
0.69778	99.98
0.71445	99.98
0.73112	99.98
0.74778	99.98
0.76445	99.98
0.78112	99.98
0.79778	99.98
0.81445	99.98
0.83112	99.98
0.84778	99.98
0.86445	99.98
0.88112	99.98
0.89778	99.98
0.91445	99.98
0.93112	99.98
0.94778	99.98
0.96445	99.97
0.98112	99.98
0.99778	99.98
1.01445	99.98
1.03112	99.98
1.04778	99.98
1.06445	99.98
1.08112	99.98
1.09778	99.98
1.11445	99.98
1.13112	99.98
1.14778	99.98
1.16445	99.98
1.18112	99.98
1.19778	99.98
1.21445	99.98
1.23112	99.98
1.24778	99.98
1.26445	99.99
1.28112	99.98
1.29778	99.98
1.31445	99.98
1.33112	99.98
1.34778	99.98
1.36445	99.99
1.38112	99.99
1.39778	99.98
1.41445	99.98
1.43112	99.98
1.44778	99.99
1.46445	99.98
1.48112	99.99
1.49778	99.99
1.51445	99.98
1.53112	99.99
1.54778	99.99
1.56445	99.98
1.58112	99.99
1.59778	99.99
1.61445	99.98
1.63112	99.99
1.64778	99.98
1.66445	99.98
1.68112	99.99
1.69778	99.99
1.71445	99.99
1.73112	99.99
1.74778	99.99
1.76445	99.99
1.78112	99.99
1.79778	99.98
1.81445	99.98
1.83112	99.99
1.84778	99.99
1.86445	99.98
1.88112	99.99
1.89778	99.98
1.91445	99.98
1.93112	99.98
1.94778	99.98
1.96445	99.98
1.98112	99.98
1.99778	99.98
2.01445	99.98
2.03112	99.97
2.04778	99.98
2.06445	99.98
2.08112	99.97
2.09778	99.97
2.11445	99.98
2.13112	99.97
2.14778	99.98
2.16445	99.98
2.18112	99.97
2.19778	99.97
2.21445	99.97
2.23112	99.97
2.24778	99.97
2.26445	99.97
2.28112	99.97
2.29778	99.97
2.31445	99.97
2.33112	99.97
2.34778	99.97
2.36445	99.96
2.38112	99.97
2.39778	99.97
2.41445	99.97
2.43112	99.97
2.44778	99.97
2.46445	99.97
2.48112	99.98
2.49778	99.97
2.51445	99.97
2.53112	99.97
2.54778	99.97
2.56445	99.98
2.58112	99.97
2.59778	99.97
2.61445	99.97
2.63112	99.97
2.64778	99.98
2.66445	99.98
2.68112	99.97
2.69778	99.98
2.71445	99.98
2.73112	99.98
2.74778	99.98
2.76445	99.98
2.78112	99.99
2.79778	99.99
2.81445	99.99
2.83112	99.99
2.84778	99.99
2.86445	99.99
2.88112	99.99
2.89778	100.00
2.91445	100.00
2.93112	100.00
2.94778	100.00
2.96445	100.00
2.98112	100.00
2.99778	100.00
3.01445	100.01
3.03112	100.01
3.04778	100.01
3.06445	100.01
3.08112	100.01
3.09778	100.01
3.11445	100.01
3.13112	100.01
3.14778	100.01
3.16445	100.02
3.18112	100.02
3.19778	100.02
3.21445	100.02
3.23112	100.02
3.24778	100.03
3.26445	100.03
3.28112	100.03
3.29778	100.03
3.31445	100.02
3.33112	100.02
3.34778	100.03
3.36445	100.03
3.38112	100.03
3.39778	100.03
3.41445	100.04
3.43112	100.03
3.44778	100.02
3.46445	100.03
3.48112	100.04
3.49778	100.03
3.51445	100.03
3.53112	100.03
3.54778	100.03
3.56445	100.04
3.58112	100.03
3.59778	100.04
3.61445	100.04
3.63112	100.04
3.64778	100.04
3.66445	100.04
3.68112	100.04
3.69778	100.04
3.71445	100.04
3.73112	100.04
3.74778	100.04
3.76445	100.04
3.78112	100.04
3.79778	100.04
3.81445	100.04
3.83112	100.05
3.84778	100.04
3.86445	100.04
3.88112	100.05
3.89778	100.04
3.91445	100.04
3.93112	100.05
3.94778	100.05
3.96445	100.05
3.98112	100.04
3.99778	100.05

[Status Trace (Carrier Gas Pressure)]
Interval(msec)	1000
# of Points	240
Start Time(min)	0.014
End Time(min)	3.998
Intensity Units	
Intensity Multiplier	1
R.Time (min)	Intensity
0.01445	57.29
0.03112	55.44
0.04778	57.93
0.06445	59.84
0.08112	58.78
0.09778	57.98
0.11445	58.00
0.13112	58.01
0.14778	58.01
0.16445	58.00
0.18112	58.00
0.19778	58.00
0.21445	58.00
0.23112	58.00
0.24778	58.00
0.26445	58.00
0.28112	58.00
0.29778	58.00
0.31445	58.00
0.33112	58.00
0.34778	58.00
0.36445	58.00
0.38112	58.00
0.39778	58.00
0.41445	58.00
0.43112	58.00
0.44778	58.00
0.46445	58.00
0.48112	58.00
0.49778	58.00
0.51445	58.00
0.53112	58.00
0.54778	58.00
0.56445	58.00
0.58112	58.00
0.59778	58.00
0.61445	58.00
0.63112	58.00
0.64778	58.00
0.66445	58.00
0.68112	58.00
0.69778	58.00
0.71445	58.00
0.73112	58.00
0.74778	58.00
0.76445	58.00
0.78112	58.00
0.79778	58.00
0.81445	58.00
0.83112	58.00
0.84778	58.00
0.86445	58.00
0.88112	58.00
0.89778	58.00
0.91445	58.00
0.93112	58.00
0.94778	58.00
0.96445	58.00
0.98112	58.00
0.99778	58.00
1.01445	58.00
1.03112	58.00
1.04778	58.00
1.06445	58.00
1.08112	58.00
1.09778	58.00
1.11445	58.00
1.13112	58.00
1.14778	58.00
1.16445	58.00
1.18112	58.00
1.19778	58.00
1.21445	58.00
1.23112	58.00
1.24778	58.00
1.26445	58.00
1.28112	58.00
1.29778	58.00
1.31445	58.00
1.33112	58.00
1.34778	58.00
1.36445	58.00
1.38112	58.00
1.39778	58.00
1.41445	58.00
1.43112	58.00
1.44778	58.00
1.46445	58.00
1.48112	58.00
1.49778	58.00
1.51445	58.00
1.53112	58.00
1.54778	58.00
1.56445	58.00
1.58112	58.00
1.59778	58.00
1.61445	58.00
1.63112	58.00
1.64778	58.00
1.66445	58.00
1.68112	58.01
1.69778	58.00
1.71445	58.00
1.73112	58.00
1.74778	58.00
1.76445	58.00
1.78112	58.00
1.79778	58.00
1.81445	58.00
1.83112	58.00
1.84778	58.00
1.86445	58.00
1.88112	58.00
1.89778	58.00
1.91445	58.00
1.93112	58.00
1.94778	58.00
1.96445	58.00
1.98112	58.00
1.99778	58.00
2.01445	58.00
2.03112	58.00
2.04778	58.00
2.06445	58.00
2.08112	58.00
2.09778	58.00
2.11445	58.00
2.13112	58.00
2.14778	58.00
2.16445	58.00
2.18112	58.00
2.19778	58.00
2.21445	58.00
2.23112	58.00
2.24778	58.00
2.26445	58.00
2.28112	58.00
2.29778	58.00
2.31445	58.00
2.33112	58.00
2.34778	58.00
2.36445	58.00
2.38112	57.99
2.39778	57.99
2.41445	57.99
2.43112	58.00
2.44778	58.00
2.46445	58.00
2.48112	58.00
2.49778	58.00
2.51445	57.99
2.53112	57.99
2.54778	58.00
2.56445	58.00
2.58112	58.00
2.59778	58.00
2.61445	58.00
2.63112	58.00
2.64778	58.00
2.66445	58.00
2.68112	58.00
2.69778	58.00
2.71445	58.00
2.73112	58.00
2.74778	58.00
2.76445	58.00
2.78112	58.00
2.79778	58.00
2.81445	58.00
2.83112	58.00
2.84778	58.00
2.86445	58.00
2.88112	58.00
2.89778	58.00
2.91445	58.00
2.93112	58.00
2.94778	58.00
2.96445	58.00
2.98112	58.00
2.99778	58.00
3.01445	58.00
3.03112	58.00
3.04778	58.00
3.06445	58.00
3.08112	58.00
3.09778	58.00
3.11445	58.00
3.13112	58.00
3.14778	58.00
3.16445	58.00
3.18112	58.00
3.19778	58.00
3.21445	58.00
3.23112	58.00
3.24778	58.00
3.26445	58.00
3.28112	58.00
3.29778	58.00
3.31445	58.00
3.33112	58.00
3.34778	58.00
3.36445	58.00
3.38112	58.00
3.39778	58.00
3.41445	58.00
3.43112	58.00
3.44778	58.00
3.46445	58.00
3.48112	58.00
3.49778	58.00
3.51445	58.00
3.53112	58.00
3.54778	58.00
3.56445	58.00
3.58112	58.00
3.59778	58.00
3.61445	58.00
3.63112	58.00
3.64778	58.00
3.66445	58.00
3.68112	58.00
3.69778	58.00
3.71445	58.00
3.73112	58.00
3.74778	58.00
3.76445	58.00
3.78112	58.00
3.79778	58.00
3.81445	58.00
3.83112	58.00
3.84778	58.00
3.86445	58.00
3.88112	58.00
3.89778	58.00
3.91445	58.00
3.93112	58.00
3.94778	58.00
3.96445	58.00
3.98112	58.00
3.99778	58.00

[Status Trace (Carrier Gas Flow)]
Interval(msec)	1000
# of Points	240
Start Time(min)	0.014
End Time(min)	3.998
Intensity Units	
Intensity Multiplier	1
R.Time (min)	Intensity
0.01445	33.95
0.03112	34.54
0.04778	34.55
0.06445	34.52
0.08112	34.50
0.09778	34.52
0.11445	34.52
0.13112	34.52
0.14778	34.52
0.16445	34.52
0.18112	34.52
0.19778	34.51
0.21445	34.52
0.23112	34.52
0.24778	34.52
0.26445	34.52
0.28112	34.52
0.29778	34.52
0.31445	34.52
0.33112	34.52
0.34778	34.52
0.36445	34.52
0.38112	34.52
0.39778	34.52
0.41445	34.52
0.43112	34.52
0.44778	34.52
0.46445	34.52
0.48112	34.52
0.49778	34.52
0.51445	34.52
0.53112	34.52
0.54778	34.52
0.56445	34.52
0.58112	34.52
0.59778	34.52
0.61445	34.52
0.63112	34.52
0.64778	34.52
0.66445	34.52
0.68112	34.52
0.69778	34.52
0.71445	34.52
0.73112	34.52
0.74778	34.52
0.76445	34.52
0.78112	34.52
0.79778	34.52
0.81445	34.52
0.83112	34.52
0.84778	34.52
0.86445	34.52
0.88112	34.52
0.89778	34.52
0.91445	34.52
0.93112	34.52
0.94778	34.52
0.96445	34.52
0.98112	34.52
0.99778	34.52
1.01445	34.52
1.03112	34.52
1.04778	34.52
1.06445	34.52
1.08112	34.52
1.09778	34.52
1.11445	34.52
1.13112	34.52
1.14778	34.52
1.16445	34.52
1.18112	34.52
1.19778	34.52
1.21445	34.52
1.23112	34.52
1.24778	34.52
1.26445	34.52
1.28112	34.52
1.29778	34.52
1.31445	34.52
1.33112	34.52
1.34778	34.52
1.36445	34.52
1.38112	34.52
1.39778	34.52
1.41445	34.51
1.43112	34.52
1.44778	34.52
1.46445	34.52
1.48112	34.52
1.49778	34.52
1.51445	34.52
1.53112	34.52
1.54778	34.52
1.56445	34.52
1.58112	34.52
1.59778	34.52
1.61445	34.52
1.63112	34.52
1.64778	34.52
1.66445	34.52
1.68112	34.52
1.69778	34.52
1.71445	34.52
1.73112	34.52
1.74778	34.52
1.76445	34.52
1.78112	34.52
1.79778	34.52
1.81445	34.52
1.83112	34.52
1.84778	34.52
1.86445	34.52
1.88112	34.52
1.89778	34.52
1.91445	34.52
1.93112	34.52
1.94778	34.52
1.96445	34.52
1.98112	34.52
1.99778	34.52
2.01445	34.52
2.03112	34.52
2.04778	34.52
2.06445	34.52
2.08112	34.52
2.09778	34.52
2.11445	34.52
2.13112	34.52
2.14778	34.52
2.16445	34.52
2.18112	34.52
2.19778	34.52
2.21445	34.52
2.23112	34.52
2.24778	34.52
2.26445	34.52
2.28112	34.52
2.29778	34.52
2.31445	34.52
2.33112	34.52
2.34778	34.52
2.36445	34.52
2.38112	34.52
2.39778	34.52
2.41445	34.52
2.43112	34.52
2.44778	34.52
2.46445	34.52
2.48112	34.52
2.49778	34.52
2.51445	34.52
2.53112	34.53
2.54778	34.52
2.56445	34.53
2.58112	34.53
2.59778	34.51
2.61445	34.52
2.63112	34.53
2.64778	34.50
2.66445	34.51
2.68112	34.53
2.69778	34.53
2.71445	34.51
2.73112	34.52
2.74778	34.52
2.76445	34.52
2.78112	34.52
2.79778	34.53
2.81445	34.53
2.83112	34.52
2.84778	34.52
2.86445	34.52
2.88112	34.53
2.89778	34.52
2.91445	34.52
2.93112	34.52
2.94778	34.52
2.96445	34.52
2.98112	34.51
2.99778	34.52
3.01445	34.52
3.03112	34.52
3.04778	34.52
3.06445	34.52
3.08112	34.52
3.09778	34.52
3.11445	34.52
3.13112	34.52
3.14778	34.52
3.16445	34.52
3.18112	34.52
3.19778	34.52
3.21445	34.52
3.23112	34.52
3.24778	34.52
3.26445	34.52
3.28112	34.52
3.29778	34.52
3.31445	34.52
3.33112	34.52
3.34778	34.52
3.36445	34.52
3.38112	34.52
3.39778	34.52
3.41445	34.52
3.43112	34.52
3.44778	34.52
3.46445	34.52
3.48112	34.52
3.49778	34.52
3.51445	34.52
3.53112	34.52
3.54778	34.52
3.56445	34.52
3.58112	34.52
3.59778	34.52
3.61445	34.52
3.63112	34.52
3.64778	34.52
3.66445	34.52
3.68112	34.52
3.69778	34.52
3.71445	34.52
3.73112	34.52
3.74778	34.52
3.76445	34.52
3.78112	34.52
3.79778	34.52
3.81445	34.52
3.83112	34.52
3.84778	34.52
3.86445	34.52
3.88112	34.52
3.89778	34.52
3.91445	34.52
3.93112	34.52
3.94778	34.52
3.96445	34.52
3.98112	34.52
3.99778	34.52

[Status Trace (Column Flow)]
Interval(msec)	1000
# of Points	240
Start Time(min)	0.014
End Time(min)	3.998
Intensity Units	
Intensity Multiplier	1
R.Time (min)	Intensity
0.01445	5.44
0.03112	5.23
0.04778	5.52
0.06445	5.74
0.08112	5.62
0.09778	5.52
0.11445	5.52
0.13112	5.53
0.14778	5.53
0.16445	5.53
0.18112	5.53
0.19778	5.53
0.21445	5.53
0.23112	5.53
0.24778	5.53
0.26445	5.53
0.28112	5.53
0.29778	5.53
0.31445	5.53
0.33112	5.53
0.34778	5.53
0.36445	5.53
0.38112	5.53
0.39778	5.53
0.41445	5.53
0.43112	5.53
0.44778	5.53
0.46445	5.53
0.48112	5.53
0.49778	5.53
0.51445	5.53
0.53112	5.53
0.54778	5.53
0.56445	5.53
0.58112	5.53
0.59778	5.53
0.61445	5.53
0.63112	5.53
0.64778	5.53
0.66445	5.53
0.68112	5.53
0.69778	5.53
0.71445	5.53
0.73112	5.53
0.74778	5.53
0.76445	5.53
0.78112	5.53
0.79778	5.53
0.81445	5.53
0.83112	5.53
0.84778	5.53
0.86445	5.53
0.88112	5.53
0.89778	5.53
0.91445	5.53
0.93112	5.53
0.94778	5.53
0.96445	5.53
0.98112	5.53
0.99778	5.53
1.01445	5.53
1.03112	5.53
1.04778	5.53
1.06445	5.53
1.08112	5.53
1.09778	5.53
1.11445	5.53
1.13112	5.53
1.14778	5.53
1.16445	5.53
1.18112	5.53
1.19778	5.53
1.21445	5.53
1.23112	5.53
1.24778	5.53
1.26445	5.53
1.28112	5.53
1.29778	5.53
1.31445	5.53
1.33112	5.53
1.34778	5.53
1.36445	5.53
1.38112	5.53
1.39778	5.53
1.41445	5.53
1.43112	5.53
1.44778	5.53
1.46445	5.53
1.48112	5.53
1.49778	5.53
1.51445	5.53
1.53112	5.53
1.54778	5.53
1.56445	5.53
1.58112	5.53
1.59778	5.53
1.61445	5.52
1.63112	5.52
1.64778	5.51
1.66445	5.50
1.68112	5.49
1.69778	5.48
1.71445	5.47
1.73112	5.46
1.74778	5.45
1.76445	5.44
1.78112	5.43
1.79778	5.42
1.81445	5.41
1.83112	5.40
1.84778	5.39
1.86445	5.38
1.88112	5.37
1.89778	5.36
1.91445	5.35
1.93112	5.34
1.94778	5.33
1.96445	5.32
1.98112	5.31
1.99778	5.30
2.01445	5.29
2.03112	5.28
2.04778	5.27
2.06445	5.26
2.08112	5.25
2.09778	5.24
2.11445	5.23
2.13112	5.23
2.14778	5.21
2.16445	5.21
2.18112	5.20
2.19778	5.19
2.21445	5.18
2.23112	5.17
2.24778	5.16
2.26445	5.15
2.28112	5.14
2.29778	5.13
2.31445	5.12
2.33112	5.11
2.34778	5.10
2.36445	5.09
2.38112	5.09
2.39778	5.09
2.41445	5.09
2.43112	5.09
2.44778	5.09
2.46445	5.09
2.48112	5.09
2.49778	5.09
2.51445	5.09
2.53112	5.09
2.54778	5.09
2.56445	5.09
2.58112	5.09
2.59778	5.09
2.61445	5.09
2.63112	5.09
2.64778	5.09
2.66445	5.09
2.68112	5.09
2.69778	5.09
2.71445	5.09
2.73112	5.09
2.74778	5.09
2.76445	5.09
2.78112	5.08
2.79778	5.08
2.81445	5.08
2.83112	5.08
2.84778	5.08
2.86445	5.08
2.88112	5.08
2.89778	5.08
2.91445	5.08
2.93112	5.08
2.94778	5.08
2.96445	5.08
2.98112	5.08
2.99778	5.08
3.01445	5.08
3.03112	5.08
3.04778	5.08
3.06445	5.08
3.08112	5.08
3.09778	5.08
3.11445	5.08
3.13112	5.08
3.14778	5.08
3.16445	5.08
3.18112	5.08
3.19778	5.08
3.21445	5.08
3.23112	5.08
3.24778	5.08
3.26445	5.08
3.28112	5.08
3.29778	5.08
3.31445	5.08
3.33112	5.08
3.34778	5.08
3.36445	5.08
3.38112	5.08
3.39778	5.08
3.41445	5.08
3.43112	5.08
3.44778	5.08
3.46445	5.08
3.48112	5.08
3.49778	5.08
3.51445	5.08
3.53112	5.08
3.54778	5.08
3.56445	5.08
3.58112	5.08
3.59778	5.08
3.61445	5.08
3.63112	5.08
3.64778	5.08
3.66445	5.08
3.68112	5.08
3.69778	5.08
3.71445	5.08
3.73112	5.08
3.74778	5.08
3.76445	5.08
3.78112	5.08
3.79778	5.08
3.81445	5.08
3.83112	5.08
3.84778	5.08
3.86445	5.08
3.88112	5.08
3.89778	5.08
3.91445	5.08
3.93112	5.08
3.94778	5.08
3.96445	5.08
3.98112	5.08
3.99778	5.08

[Status Trace (Linear Velocity)]
Interval(msec)	1000
# of Points	240
Start Time(min)	0.014
End Time(min)	3.998
Intensity Units	
Intensity Multiplier	1
R.Time (min)	Intensity
0.01445	38.55
0.03112	37.33
0.04778	38.97
0.06445	40.22
0.08112	39.53
0.09778	39.00
0.11445	39.01
0.13112	39.02
0.14778	39.02
0.16445	39.02
0.18112	39.02
0.19778	39.02
0.21445	39.02
0.23112	39.02
0.24778	39.02
0.26445	39.02
0.28112	39.02
0.29778	39.02
0.31445	39.02
0.33112	39.02
0.34778	39.02
0.36445	39.02
0.38112	39.02
0.39778	39.02
0.41445	39.02
0.43112	39.02
0.44778	39.02
0.46445	39.02
0.48112	39.02
0.49778	39.02
0.51445	39.02
0.53112	39.02
0.54778	39.02
0.56445	39.02
0.58112	39.02
0.59778	39.02
0.61445	39.02
0.63112	39.02
0.64778	39.02
0.66445	39.02
0.68112	39.02
0.69778	39.02
0.71445	39.02
0.73112	39.02
0.74778	39.02
0.76445	39.02
0.78112	39.02
0.79778	39.02
0.81445	39.02
0.83112	39.02
0.84778	39.02
0.86445	39.02
0.88112	39.02
0.89778	39.02
0.91445	39.02
0.93112	39.02
0.94778	39.02
0.96445	39.02
0.98112	39.02
0.99778	39.02
1.01445	39.02
1.03112	39.02
1.04778	39.02
1.06445	39.02
1.08112	39.02
1.09778	39.02
1.11445	39.02
1.13112	39.02
1.14778	39.02
1.16445	39.02
1.18112	39.02
1.19778	39.02
1.21445	39.02
1.23112	39.02
1.24778	39.02
1.26445	39.02
1.28112	39.02
1.29778	39.02
1.31445	39.02
1.33112	39.02
1.34778	39.02
1.36445	39.02
1.38112	39.02
1.39778	39.02
1.41445	39.02
1.43112	39.02
1.44778	39.02
1.46445	39.02
1.48112	39.02
1.49778	39.02
1.51445	39.02
1.53112	39.02
1.54778	39.02
1.56445	39.02
1.58112	39.02
1.59778	39.02
1.61445	39.01
1.63112	39.00
1.64778	38.97
1.66445	38.95
1.68112	38.92
1.69778	38.88
1.71445	38.85
1.73112	38.82
1.74778	38.78
1.76445	38.75
1.78112	38.72
1.79778	38.69
1.81445	38.66
1.83112	38.63
1.84778	38.59
1.86445	38.56
1.88112	38.53
1.89778	38.50
1.91445	38.47
1.93112	38.44
1.94778	38.41
1.96445	38.38
1.98112	38.35
1.99778	38.32
2.01445	38.29
2.03112	38.26
2.04778	38.23
2.06445	38.20
2.08112	38.18
2.09778	38.14
2.11445	38.11
2.13112	38.09
2.14778	38.05
2.16445	38.02
2.18112	38.00
2.19778	37.96
2.21445	37.93
2.23112	37.91
2.24778	37.87
2.26445	37.84
2.28112	37.82
2.29778	37.78
2.31445	37.76
2.33112	37.73
2.34778	37.70
2.36445	37.67
2.38112	37.65
2.39778	37.65
2.41445	37.65
2.43112	37.65
2.44778	37.65
2.46445	37.65
2.48112	37.65
2.49778	37.65
2.51445	37.64
2.53112	37.64
2.54778	37.65
2.56445	37.65
2.58112	37.65
2.59778	37.65
2.61445	37.65
2.63112	37.65
2.64778	37.65
2.66445	37.65
2.68112	37.65
2.69778	37.65
2.71445	37.65
2.73112	37.64
2.74778	37.64
2.76445	37.64
2.78112	37.64
2.79778	37.64
2.81445	37.64
2.83112	37.64
2.84778	37.64
2.86445	37.64
2.88112	37.64
2.89778	37.64
2.91445	37.64
2.93112	37.63
2.94778	37.63
2.96445	37.63
2.98112	37.63
2.99778	37.63
3.01445	37.63
3.03112	37.63
3.04778	37.63
3.06445	37.63
3.08112	37.63
3.09778	37.62
3.11445	37.62
3.13112	37.62
3.14778	37.62
3.16445	37.62
3.18112	37.63
3.19778	37.63
3.21445	37.63
3.23112	37.63
3.24778	37.63
3.26445	37.63
3.28112	37.63
3.29778	37.63
3.31445	37.63
3.33112	37.63
3.34778	37.63
3.36445	37.63
3.38112	37.63
3.39778	37.63
3.41445	37.63
3.43112	37.63
3.44778	37.63
3.46445	37.63
3.48112	37.63
3.49778	37.63
3.51445	37.63
3.53112	37.63
3.54778	37.63
3.56445	37.63
3.58112	37.63
3.59778	37.63
3.61445	37.63
3.63112	37.63
3.64778	37.63
3.66445	37.62
3.68112	37.63
3.69778	37.63
3.71445	37.63
3.73112	37.63
3.74778	37.63
3.76445	37.63
3.78112	37.63
3.79778	37.63
3.81445	37.63
3.83112	37.63
3.84778	37.63
3.86445	37.63
3.88112	37.63
3.89778	37.63
3.91445	37.63
3.93112	37.63
3.94778	37.63
3.96445	37.63
3.98112	37.63
3.99778	37.63

