[Header]
Application Name	LabSolutions
Version	5.110
Data File Name	C:\Users\User\Desktop\GC Analyses\Jack\UIC Prairie Sampling\8.12.22\220812_034.gcd
Output Date	10/14/2022
Output Time	2:33:52 PM

[File Information]
Type	Data File
Generated	10/10/2022 1:22:03 PM
Generated by	System Administrator
Modified	10/10/2022 1:26:20 PM
Modified by	System Administrator

[Sample Information]
Operator Name	System Administrator
Acquired	10/10/2022 1:22:20 PM
Sample Type	1:Standard
Level	1
Sample Name	220812_UICPrairie
Sample ID	220812_UICPrairie
ISTD Amount1	1
ISTD Amount2	1
ISTD Amount3	1
ISTD Amount4	1
ISTD Amount5	1
ISTD Amount6	1
ISTD Amount7	1
ISTD Amount8	1
ISTD Amount9	1
ISTD Amount10	1
ISTD Amount11	1
ISTD Amount12	1
ISTD Amount13	1
ISTD Amount14	1
ISTD Amount15	1
ISTD Amount16	1
ISTD Amount17	1
ISTD Amount18	1
ISTD Amount19	1
ISTD Amount20	1
ISTD Amount21	1
ISTD Amount22	1
ISTD Amount23	1
ISTD Amount24	1
ISTD Amount25	1
ISTD Amount26	1
ISTD Amount27	1
ISTD Amount28	1
ISTD Amount29	1
ISTD Amount30	1
ISTD Amount31	1
ISTD Amount32	1
Sample Amount	1
Dilution Factor	1
Vial#	1
Injection Volume	1
Injection Count	1
Bar Code	

[Original Files]
Data File	C:\Users\User\Desktop\GC Analyses\Jack\UIC Prairie Sampling\8.12.22\220812_034.gcd
Method File	C:\LabSolutions\Data\GHG_4min_2022\ghg3_togas_w_acet_4 min_new_int.gcm
Batch File	
Report Format File	c:\LabSolutions\System\DEFAULT.lsr

[File Description]


[Configuration]
Instrument Name	C0B7VH3-Instrument1
Instrument #	1
Line #	1
# of Detectors	3
Detector ID	DET#1	DET#2	DET#3
Detector Name	FID	PTCD	ECD
# of Channels	1	1	1

[Peak Table(Ch1)]
# of Peaks	3
Peak#	R.Time	I.Time	F.Time	Area	Height	A/H	Conc.	Mark	ID#	Name	k'	Plate #	Plate Ht.	Tailing	Resolution	Sep.Factor	Area Ratio	Height Ratio	Conc. %	Norm Conc.
1	1.479	1.443	1.542	12439	5556	2.239	100.000	   	1	CO	0.000	8390	17.877	1.195	0.000	0.000	0	0	16.667	16.667
2	1.571	1.542	1.630	4506	2293	1.965	100.000	 V 	2	CH4	0.062	11552	12.985	1.216	1.490	0.000	0	0	16.667	16.667
3	2.000	1.952	2.279	1590970	773778	2.056	400.000	   	3	CO2	0.352	17807	8.423	1.304	7.246	5.680	0	0	66.667	66.667

[Peak Table(Ch2)]
# of Peaks	0

[Peak Table(Ch3)]
# of Peaks	4
Peak#	R.Time	I.Time	F.Time	Area	Height	A/H	Conc.	Mark	ID#	Name	k'	Plate #	Plate Ht.	Tailing	Resolution	Sep.Factor	Area Ratio	Height Ratio	Conc. %	Norm Conc.
1	1.322	0.005	1.413	7380	182	40.545	0.000	   			0.000	7	23042.408	0.000	0.000	0.000	0	0	0.000	0.000
2	2.451	1.413	2.649	22656	516	43.904	0.000	 V 			0.854	53	2818.084	0.000	0.661	0.000	0	0	0.000	0.000
3	2.770	2.664	2.821	1121	164	6.850	0.056	   	1	N2O	1.096	1175	127.683	0.000	0.383	1.282	0	0	5.590	5.590
4	2.884	2.821	3.118	18930	4920	3.848	0.944	 V 	1	N2O	1.182	13239	11.331	1.544	0.537	1.078	0	0	94.410	94.410

[Compound Results(Ch1)]
# of IDs	6
ID#	Name	R.Time	Area	Height	Conc.	Curve	3rd	2nd	1st	Constant	Area Ratio	Height Ratio	Conc. %	Norm Conc.
1	CO	1.479	12439	5556	100.000	Linear	0.000000e+00	0.000000e+00	1.243880e+002	0.000000e+00	0	0	16.667	16.667
2	CH4	1.571	4506	2293	100.000	Linear	0.000000e+00	0.000000e+00	4.506327e+001	0.000000e+00	0	0	16.667	16.667
3	CO2	2.000	1590970	773778	400.000	Linear	0.000000e+00	0.000000e+00	3.977424e+003	0.000000e+00	0	0	66.667	66.667
4	Ethylene	0.000	0	0	0.000	Linear	0.000000e+00	0.000000e+00	0.000000e+00	0.000000e+00	0	0	0.000	0.000
5	Acetylene	0.000	0	0	0.000	Linear	0.000000e+00	0.000000e+00	0.000000e+00	0.000000e+00	0	0	0.000	0.000
6	Ethane	0.000	0	0	0.000	Linear	0.000000e+00	0.000000e+00	0.000000e+00	0.000000e+00	0	0	0.000	0.000

[Compound Results(Ch2)]
# of IDs	5
ID#	Name	R.Time	Area	Height	Conc.	Curve	3rd	2nd	1st	Constant	Area Ratio	Height Ratio	Conc. %	Norm Conc.
1	Hydrogen	0.000	0	0	0.000	Linear	0.000000e+00	0.000000e+00	0.000000e+00	0.000000e+00	0	0	0.000	0.000
2	Oxygen	0.000	0	0	0.000	Linear	0.000000e+00	0.000000e+00	0.000000e+00	0.000000e+00	0	0	0.000	0.000
3	Nitrogen	0.000	0	0	0.000	Linear	0.000000e+00	0.000000e+00	0.000000e+00	0.000000e+00	0	0	0.000	0.000
4	Methane	0.000	0	0	0.000	Linear	0.000000e+00	0.000000e+00	0.000000e+00	0.000000e+00	0	0	0.000	0.000
5	Carbon Monoxide	0.000	0	0	0.000	Linear	0.000000e+00	0.000000e+00	0.000000e+00	0.000000e+00	0	0	0.000	0.000

[Compound Results(Ch3)]
# of IDs	2
ID#	Name	R.Time	Area	Height	Conc.	Curve	3rd	2nd	1st	Constant	Area Ratio	Height Ratio	Conc. %	Norm Conc.
1	N2O	2.884	20051	5083	1.000	Linear	0.000000e+00	0.000000e+00	2.005051e+004	0.000000e+00	0	0	100.000	100.000
2	SF6	0.000	0	0	0.000	Linear	0.000000e+00	0.000000e+00	0.000000e+00	0.000000e+00	0	0	0.000	0.000

[Group Results(Ch1)]
# of Groups	0

[Group Results(Ch2)]
# of Groups	0

[Group Results(Ch3)]
# of Groups	0

[Chromatogram (Ch1)]
Interval(msec)	220
# of Points	1091
Start Time(min)	0.002
End Time(min)	3.998
R.Time (min)	Intensity
0.00167	-20
0.00533	-22
0.00900	-19
0.01267	-12
0.01633	-3
0.02000	2
0.02367	3
0.02733	3
0.03100	4
0.03467	6
0.03833	6
0.04200	2
0.04567	-4
0.04933	-9
0.05300	-9
0.05667	-8
0.06033	-8
0.06400	-15
0.06767	-25
0.07133	-30
0.07500	-27
0.07867	-21
0.08233	-15
0.08600	-11
0.08967	-7
0.09333	-5
0.09700	-5
0.10067	-3
0.10433	-4
0.10800	-6
0.11167	-8
0.11533	-10
0.11900	-10
0.12267	-9
0.12633	-9
0.13000	-12
0.13367	-15
0.13733	-15
0.14100	-15
0.14467	-11
0.14833	-6
0.15200	-3
0.15567	-5
0.15933	-9
0.16300	-14
0.16667	-18
0.17033	-20
0.17400	-18
0.17767	-17
0.18133	-17
0.18500	-19
0.18867	-20
0.19233	-20
0.19600	-21
0.19967	-24
0.20333	-27
0.20700	-29
0.21067	-29
0.21433	-29
0.21800	-29
0.22167	-30
0.22533	-28
0.22900	-25
0.23267	-23
0.23633	-21
0.24000	-17
0.24367	-12
0.24733	-9
0.25100	-15
0.25467	-26
0.25833	-37
0.26200	-42
0.26567	-45
0.26933	-47
0.27300	-44
0.27667	-39
0.28033	-34
0.28400	-29
0.28767	-27
0.29133	-26
0.29500	-29
0.29867	-35
0.30233	-41
0.30600	-46
0.30967	-48
0.31333	-48
0.31700	-46
0.32067	-46
0.32433	-44
0.32800	-42
0.33167	-36
0.33533	-27
0.33900	-20
0.34267	-18
0.34633	-20
0.35000	-23
0.35367	-27
0.35733	-33
0.36100	-35
0.36467	-33
0.36833	-30
0.37200	-28
0.37567	-24
0.37933	-22
0.38300	-20
0.38667	-16
0.39033	-12
0.39400	-11
0.39767	-15
0.40133	-22
0.40500	-29
0.40867	-39
0.41233	-47
0.41600	-49
0.41967	-49
0.42333	-50
0.42700	-52
0.43067	-56
0.43433	-58
0.43800	-55
0.44167	-48
0.44533	-41
0.44900	-38
0.45267	-38
0.45633	-39
0.46000	-39
0.46367	-39
0.46733	-39
0.47100	-40
0.47467	-37
0.47833	-33
0.48200	-34
0.48567	-41
0.48933	-48
0.49300	-52
0.49667	-56
0.50033	-59
0.50400	-61
0.50767	-58
0.51133	-50
0.51500	-41
0.51867	-35
0.52233	-32
0.52600	-35
0.52967	-41
0.53333	-46
0.53700	-50
0.54067	-51
0.54433	-49
0.54800	-45
0.55167	-39
0.55533	-34
0.55900	-30
0.56267	-29
0.56633	-33
0.57000	-42
0.57367	-51
0.57733	-58
0.58100	-62
0.58467	-62
0.58833	-60
0.59200	-58
0.59567	-57
0.59933	-56
0.60300	-54
0.60667	-51
0.61033	-45
0.61400	-41
0.61767	-40
0.62133	-43
0.62500	-50
0.62867	-56
0.63233	-55
0.63600	-47
0.63967	-38
0.64333	-36
0.64700	-39
0.65067	-42
0.65433	-49
0.65800	-57
0.66167	-64
0.66533	-66
0.66900	-65
0.67267	-64
0.67633	-66
0.68000	-70
0.68367	-75
0.68733	-77
0.69100	-73
0.69467	-68
0.69833	-63
0.70200	-58
0.70567	-57
0.70933	-57
0.71300	-59
0.71667	-60
0.72033	-59
0.72400	-60
0.72767	-63
0.73133	-67
0.73500	-71
0.73867	-72
0.74233	-71
0.74600	-71
0.74967	-69
0.75333	-68
0.75700	-71
0.76067	-75
0.76433	-79
0.76800	-81
0.77167	-83
0.77533	-81
0.77900	-77
0.78267	-74
0.78633	-78
0.79000	-83
0.79367	-88
0.79733	-91
0.80100	-93
0.80467	-93
0.80833	-90
0.81200	-86
0.81567	-81
0.81933	-78
0.82300	-76
0.82667	-74
0.83033	-70
0.83400	-64
0.83767	-62
0.84133	-64
0.84500	-68
0.84867	-71
0.85233	-72
0.85600	-70
0.85967	-69
0.86333	-68
0.86700	-68
0.87067	-70
0.87433	-72
0.87800	-74
0.88167	-76
0.88533	-80
0.88900	-84
0.89267	-87
0.89633	-88
0.90000	-89
0.90367	-88
0.90733	-86
0.91100	-84
0.91467	-81
0.91833	-80
0.92200	-81
0.92567	-83
0.92933	-87
0.93300	-92
0.93667	-96
0.94033	-101
0.94400	-106
0.94767	-108
0.95133	-108
0.95500	-104
0.95867	-100
0.96233	-98
0.96600	-96
0.96967	-95
0.97333	-95
0.97700	-93
0.98067	-91
0.98433	-90
0.98800	-85
0.99167	-82
0.99533	-82
0.99900	-81
1.00267	-78
1.00633	-76
1.01000	-77
1.01367	-85
1.01733	-97
1.02100	-107
1.02467	-112
1.02833	-112
1.03200	-107
1.03567	-102
1.03933	-99
1.04300	-101
1.04667	-106
1.05033	-110
1.05400	-113
1.05767	-116
1.06133	-119
1.06500	-121
1.06867	-119
1.07233	-116
1.07600	-116
1.07967	-118
1.08333	-117
1.08700	-108
1.09067	-98
1.09433	-94
1.09800	-96
1.10167	-106
1.10533	-117
1.10900	-122
1.11267	-121
1.11633	-116
1.12000	-108
1.12367	-99
1.12733	-91
1.13100	-88
1.13467	-89
1.13833	-91
1.14200	-94
1.14567	-97
1.14933	-105
1.15300	-112
1.15667	-117
1.16033	-119
1.16400	-119
1.16767	-123
1.17133	-129
1.17500	-132
1.17867	-130
1.18233	-128
1.18600	-127
1.18967	-125
1.19333	-122
1.19700	-118
1.20067	-112
1.20433	-106
1.20800	-99
1.21167	-93
1.21533	-92
1.21900	-91
1.22267	-89
1.22633	-90
1.23000	-94
1.23367	-100
1.23733	-110
1.24100	-120
1.24467	-125
1.24833	-126
1.25200	-124
1.25567	-118
1.25933	-110
1.26300	-105
1.26667	-107
1.27033	-111
1.27400	-112
1.27767	-111
1.28133	-112
1.28500	-114
1.28867	-116
1.29233	-114
1.29600	-112
1.29967	-112
1.30333	-116
1.30700	-120
1.31067	-122
1.31433	-123
1.31800	-122
1.32167	-119
1.32533	-116
1.32900	-116
1.33267	-115
1.33633	-114
1.34000	-111
1.34367	-109
1.34733	-112
1.35100	-116
1.35467	-123
1.35833	-128
1.36200	-129
1.36567	-126
1.36933	-119
1.37300	-111
1.37667	-105
1.38033	-104
1.38400	-106
1.38767	-113
1.39133	-123
1.39500	-133
1.39867	-139
1.40233	-143
1.40600	-143
1.40967	-136
1.41333	-126
1.41700	-119
1.42067	-116
1.42433	-115
1.42800	-119
1.43167	-126
1.43533	-133
1.43900	-137
1.44267	-113
1.44633	14
1.45000	318
1.45367	820
1.45733	1559
1.46100	2503
1.46467	3487
1.46833	4341
1.47200	4975
1.47567	5350
1.47933	5439
1.48300	5219
1.48667	4703
1.49033	3973
1.49400	3160
1.49767	2389
1.50133	1739
1.50500	1237
1.50867	859
1.51233	578
1.51600	375
1.51967	235
1.52333	137
1.52700	67
1.53067	14
1.53433	-25
1.53800	-52
1.54167	-58
1.54533	-6
1.54900	167
1.55267	493
1.55633	925
1.56000	1366
1.56367	1742
1.56733	2018
1.57100	2165
1.57467	2153
1.57833	1967
1.58200	1643
1.58567	1260
1.58933	893
1.59300	587
1.59667	352
1.60033	183
1.60400	67
1.60767	-10
1.61133	-58
1.61500	-87
1.61867	-104
1.62233	-118
1.62600	-128
1.62967	-135
1.63333	-140
1.63700	-145
1.64067	-149
1.64433	-153
1.64800	-158
1.65167	-160
1.65533	-159
1.65900	-156
1.66267	-156
1.66633	-159
1.67000	-164
1.67367	-170
1.67733	-175
1.68100	-180
1.68467	-183
1.68833	-184
1.69200	-186
1.69567	-189
1.69933	-194
1.70300	-195
1.70667	-191
1.71033	-184
1.71400	-179
1.71767	-177
1.72133	-177
1.72500	-176
1.72867	-175
1.73233	-173
1.73600	-170
1.73967	-168
1.74333	-169
1.74700	-171
1.75067	-170
1.75433	-167
1.75800	-162
1.76167	-158
1.76533	-156
1.76900	-156
1.77267	-155
1.77633	-153
1.78000	-154
1.78367	-158
1.78733	-164
1.79100	-170
1.79467	-175
1.79833	-176
1.80200	-174
1.80567	-172
1.80933	-170
1.81300	-167
1.81667	-165
1.82033	-162
1.82400	-161
1.82767	-164
1.83133	-167
1.83500	-165
1.83867	-161
1.84233	-159
1.84600	-158
1.84967	-155
1.85333	-152
1.85700	-145
1.86067	-140
1.86433	-141
1.86800	-146
1.87167	-149
1.87533	-151
1.87900	-152
1.88267	-151
1.88633	-152
1.89000	-155
1.89367	-158
1.89733	-156
1.90100	-148
1.90467	-139
1.90833	-132
1.91200	-129
1.91567	-131
1.91933	-138
1.92300	-147
1.92667	-158
1.93033	-166
1.93400	-166
1.93767	-163
1.94133	-159
1.94500	-155
1.94867	-153
1.95233	-148
1.95600	-130
1.95967	-28
1.96333	549
1.96700	3262
1.97067	13084
1.97433	40418
1.97800	99460
1.98167	199269
1.98533	334013
1.98900	482820
1.99267	619187
1.99633	721071
2.00000	773672
2.00367	770128
2.00733	713544
2.01100	617390
2.01467	501430
2.01833	385271
2.02200	282846
2.02567	200583
2.02933	138856
2.03300	94737
2.03667	64243
2.04033	43625
2.04400	29871
2.04767	20750
2.05133	14696
2.05500	10653
2.05867	7922
2.06233	6051
2.06600	4743
2.06967	3811
2.07333	3132
2.07700	2624
2.08067	2234
2.08433	1930
2.08800	1691
2.09167	1495
2.09533	1333
2.09900	1194
2.10267	1072
2.10633	973
2.11000	890
2.11367	824
2.11733	769
2.12100	719
2.12467	675
2.12833	630
2.13200	588
2.13567	549
2.13933	517
2.14300	489
2.14667	464
2.15033	442
2.15400	423
2.15767	404
2.16133	384
2.16500	361
2.16867	341
2.17233	325
2.17600	312
2.17967	299
2.18333	286
2.18700	274
2.19067	264
2.19433	257
2.19800	253
2.20167	250
2.20533	247
2.20900	245
2.21267	241
2.21633	238
2.22000	236
2.22367	229
2.22733	215
2.23100	199
2.23467	186
2.23833	177
2.24200	171
2.24567	165
2.24933	158
2.25300	154
2.25667	151
2.26033	149
2.26400	146
2.26767	141
2.27133	139
2.27500	139
2.27867	137
2.28233	132
2.28600	129
2.28967	126
2.29333	124
2.29700	123
2.30067	123
2.30433	124
2.30800	127
2.31167	129
2.31533	130
2.31900	130
2.32267	129
2.32633	126
2.33000	121
2.33367	113
2.33733	101
2.34100	90
2.34467	85
2.34833	84
2.35200	83
2.35567	84
2.35933	87
2.36300	91
2.36667	94
2.37033	96
2.37400	100
2.37767	105
2.38133	104
2.38500	98
2.38867	91
2.39233	87
2.39600	83
2.39967	77
2.40333	75
2.40700	78
2.41067	84
2.41433	89
2.41800	93
2.42167	95
2.42533	95
2.42900	89
2.43267	79
2.43633	69
2.44000	63
2.44367	62
2.44733	65
2.45100	69
2.45467	73
2.45833	75
2.46200	73
2.46567	70
2.46933	65
2.47300	63
2.47667	63
2.48033	64
2.48400	65
2.48767	66
2.49133	70
2.49500	76
2.49867	81
2.50233	82
2.50600	82
2.50967	79
2.51333	76
2.51700	74
2.52067	71
2.52433	69
2.52800	70
2.53167	72
2.53533	70
2.53900	64
2.54267	58
2.54633	55
2.55000	55
2.55367	54
2.55733	50
2.56100	49
2.56467	48
2.56833	47
2.57200	44
2.57567	39
2.57933	33
2.58300	27
2.58667	23
2.59033	22
2.59400	26
2.59767	34
2.60133	42
2.60500	46
2.60867	46
2.61233	41
2.61600	33
2.61967	25
2.62333	19
2.62700	18
2.63067	19
2.63433	23
2.63800	27
2.64167	31
2.64533	36
2.64900	42
2.65267	45
2.65633	40
2.66000	33
2.66367	28
2.66733	23
2.67100	18
2.67467	15
2.67833	15
2.68200	17
2.68567	20
2.68933	20
2.69300	17
2.69667	16
2.70033	17
2.70400	21
2.70767	26
2.71133	27
2.71500	25
2.71867	22
2.72233	19
2.72600	18
2.72967	20
2.73333	23
2.73700	24
2.74067	24
2.74433	24
2.74800	24
2.75167	22
2.75533	19
2.75900	17
2.76267	17
2.76633	20
2.77000	23
2.77367	25
2.77733	24
2.78100	22
2.78467	20
2.78833	20
2.79200	22
2.79567	24
2.79933	26
2.80300	25
2.80667	20
2.81033	17
2.81400	17
2.81767	17
2.82133	16
2.82500	17
2.82867	20
2.83233	20
2.83600	17
2.83967	14
2.84333	9
2.84700	3
2.85067	-1
2.85433	-1
2.85800	-0
2.86167	-1
2.86533	-1
2.86900	1
2.87267	4
2.87633	3
2.88000	-1
2.88367	-4
2.88733	-4
2.89100	-5
2.89467	-3
2.89833	-2
2.90200	-5
2.90567	-9
2.90933	-12
2.91300	-9
2.91667	-5
2.92033	-1
2.92400	1
2.92767	3
2.93133	9
2.93500	14
2.93867	17
2.94233	16
2.94600	11
2.94967	6
2.95333	3
2.95700	-2
2.96067	-8
2.96433	-12
2.96800	-15
2.97167	-18
2.97533	-19
2.97900	-15
2.98267	-7
2.98633	2
2.99000	14
2.99367	24
2.99733	30
3.00100	26
3.00467	17
3.00833	10
3.01200	10
3.01567	12
3.01933	10
3.02300	3
3.02667	-3
3.03033	-7
3.03400	-10
3.03767	-15
3.04133	-19
3.04500	-20
3.04867	-18
3.05233	-13
3.05600	-2
3.05967	9
3.06333	16
3.06700	18
3.07067	16
3.07433	13
3.07800	13
3.08167	12
3.08533	8
3.08900	0
3.09267	-10
3.09633	-20
3.10000	-26
3.10367	-27
3.10733	-25
3.11100	-24
3.11467	-25
3.11833	-28
3.12200	-30
3.12567	-30
3.12933	-26
3.13300	-23
3.13667	-22
3.14033	-21
3.14400	-18
3.14767	-16
3.15133	-15
3.15500	-18
3.15867	-22
3.16233	-25
3.16600	-28
3.16967	-30
3.17333	-30
3.17700	-27
3.18067	-25
3.18433	-21
3.18800	-20
3.19167	-19
3.19533	-16
3.19900	-8
3.20267	-2
3.20633	-0
3.21000	-2
3.21367	-3
3.21733	-5
3.22100	-9
3.22467	-16
3.22833	-21
3.23200	-26
3.23567	-28
3.23933	-29
3.24300	-30
3.24667	-28
3.25033	-24
3.25400	-22
3.25767	-27
3.26133	-35
3.26500	-39
3.26867	-37
3.27233	-33
3.27600	-32
3.27967	-31
3.28333	-30
3.28700	-27
3.29067	-23
3.29433	-21
3.29800	-24
3.30167	-32
3.30533	-42
3.30900	-48
3.31267	-49
3.31633	-48
3.32000	-47
3.32367	-43
3.32733	-40
3.33100	-39
3.33467	-38
3.33833	-37
3.34200	-36
3.34567	-38
3.34933	-40
3.35300	-40
3.35667	-41
3.36033	-42
3.36400	-42
3.36767	-39
3.37133	-34
3.37500	-27
3.37867	-24
3.38233	-26
3.38600	-29
3.38967	-34
3.39333	-37
3.39700	-44
3.40067	-52
3.40433	-56
3.40800	-56
3.41167	-56
3.41533	-55
3.41900	-52
3.42267	-49
3.42633	-48
3.43000	-48
3.43367	-47
3.43733	-44
3.44100	-41
3.44467	-40
3.44833	-35
3.45200	-29
3.45567	-23
3.45933	-23
3.46300	-29
3.46667	-36
3.47033	-44
3.47400	-49
3.47767	-52
3.48133	-57
3.48500	-64
3.48867	-70
3.49233	-72
3.49600	-69
3.49967	-63
3.50333	-56
3.50700	-52
3.51067	-50
3.51433	-48
3.51800	-44
3.52167	-39
3.52533	-35
3.52900	-33
3.53267	-35
3.53633	-37
3.54000	-39
3.54367	-40
3.54733	-39
3.55100	-38
3.55467	-37
3.55833	-39
3.56200	-42
3.56567	-41
3.56933	-41
3.57300	-41
3.57667	-43
3.58033	-45
3.58400	-48
3.58767	-50
3.59133	-51
3.59500	-54
3.59867	-56
3.60233	-57
3.60600	-54
3.60967	-46
3.61333	-37
3.61700	-33
3.62067	-33
3.62433	-33
3.62800	-33
3.63167	-36
3.63533	-37
3.63900	-37
3.64267	-36
3.64633	-36
3.65000	-36
3.65367	-37
3.65733	-38
3.66100	-40
3.66467	-43
3.66833	-44
3.67200	-47
3.67567	-51
3.67933	-53
3.68300	-53
3.68667	-52
3.69033	-51
3.69400	-51
3.69767	-49
3.70133	-48
3.70500	-46
3.70867	-42
3.71233	-37
3.71600	-37
3.71967	-42
3.72333	-46
3.72700	-47
3.73067	-44
3.73433	-39
3.73800	-32
3.74167	-19
3.74533	-3
3.74900	3
3.75267	-5
3.75633	-21
3.76000	-39
3.76367	-54
3.76733	-64
3.77100	-66
3.77467	-65
3.77833	-66
3.78200	-66
3.78567	-64
3.78933	-62
3.79300	-55
3.79667	-48
3.80033	-43
3.80400	-39
3.80767	-34
3.81133	-31
3.81500	-37
3.81867	-45
3.82233	-52
3.82600	-58
3.82967	-61
3.83333	-63
3.83700	-65
3.84067	-62
3.84433	-55
3.84800	-47
3.85167	-39
3.85533	-32
3.85900	-28
3.86267	-28
3.86633	-31
3.87000	-33
3.87367	-34
3.87733	-37
3.88100	-43
3.88467	-49
3.88833	-49
3.89200	-47
3.89567	-46
3.89933	-46
3.90300	-46
3.90667	-43
3.91033	-40
3.91400	-38
3.91767	-38
3.92133	-37
3.92500	-36
3.92867	-33
3.93233	-30
3.93600	-28
3.93967	-27
3.94333	-27
3.94700	-25
3.95067	-27
3.95433	-34
3.95800	-45
3.96167	-53
3.96533	-57
3.96900	-56
3.97267	-54
3.97633	-51
3.98000	-51
3.98367	-50
3.98733	-46
3.99100	-44
3.99467	-44
3.99833	-44

[Chromatogram (Ch2)]
Interval(msec)	220
# of Points	1091
Start Time(min)	0.002
End Time(min)	3.998
R.Time (min)	Intensity
0.00167	-0
0.00533	-0
0.00900	-0
0.01267	-1
0.01633	-1
0.02000	-0
0.02367	-0
0.02733	-0
0.03100	0
0.03467	0
0.03833	0
0.04200	-0
0.04567	-0
0.04933	-0
0.05300	-1
0.05667	-1
0.06033	-1
0.06400	-2
0.06767	-2
0.07133	-3
0.07500	-3
0.07867	-3
0.08233	-3
0.08600	-3
0.08967	-3
0.09333	-3
0.09700	-3
0.10067	-2
0.10433	-2
0.10800	-2
0.11167	-2
0.11533	-1
0.11900	-1
0.12267	-1
0.12633	-1
0.13000	-1
0.13367	-1
0.13733	-1
0.14100	-1
0.14467	-1
0.14833	-1
0.15200	-2
0.15567	-2
0.15933	-2
0.16300	-2
0.16667	-2
0.17033	-2
0.17400	-2
0.17767	-2
0.18133	-2
0.18500	-2
0.18867	-2
0.19233	-1
0.19600	-1
0.19967	-1
0.20333	-0
0.20700	1
0.21067	1
0.21433	1
0.21800	2
0.22167	2
0.22533	1
0.22900	1
0.23267	1
0.23633	1
0.24000	1
0.24367	1
0.24733	1
0.25100	1
0.25467	1
0.25833	1
0.26200	1
0.26567	1
0.26933	2
0.27300	2
0.27667	1
0.28033	1
0.28400	1
0.28767	1
0.29133	1
0.29500	1
0.29867	1
0.30233	1
0.30600	1
0.30967	1
0.31333	0
0.31700	0
0.32067	0
0.32433	-0
0.32800	-0
0.33167	-0
0.33533	-0
0.33900	-1
0.34267	-1
0.34633	-1
0.35000	-1
0.35367	-1
0.35733	-0
0.36100	-0
0.36467	-0
0.36833	-0
0.37200	-0
0.37567	-0
0.37933	-0
0.38300	-0
0.38667	-0
0.39033	-0
0.39400	-0
0.39767	-0
0.40133	-0
0.40500	-0
0.40867	-0
0.41233	-0
0.41600	-0
0.41967	-0
0.42333	-0
0.42700	-0
0.43067	-0
0.43433	-1
0.43800	-1
0.44167	-1
0.44533	-1
0.44900	-1
0.45267	-1
0.45633	-1
0.46000	-1
0.46367	-1
0.46733	-1
0.47100	-1
0.47467	-1
0.47833	-1
0.48200	-1
0.48567	-1
0.48933	-1
0.49300	-1
0.49667	-1
0.50033	-1
0.50400	-1
0.50767	-1
0.51133	-1
0.51500	-2
0.51867	-2
0.52233	-2
0.52600	-2
0.52967	-2
0.53333	-2
0.53700	-3
0.54067	-3
0.54433	-3
0.54800	-4
0.55167	-4
0.55533	-4
0.55900	-4
0.56267	-4
0.56633	-4
0.57000	-4
0.57367	-4
0.57733	-4
0.58100	-3
0.58467	-3
0.58833	-3
0.59200	-2
0.59567	-2
0.59933	-2
0.60300	-1
0.60667	-1
0.61033	-1
0.61400	-1
0.61767	-1
0.62133	-1
0.62500	-1
0.62867	-1
0.63233	-1
0.63600	-0
0.63967	-0
0.64333	0
0.64700	0
0.65067	0
0.65433	0
0.65800	0
0.66167	0
0.66533	0
0.66900	-0
0.67267	-0
0.67633	-0
0.68000	-1
0.68367	-1
0.68733	-1
0.69100	-1
0.69467	-1
0.69833	-1
0.70200	-1
0.70567	-1
0.70933	-1
0.71300	-1
0.71667	-2
0.72033	-2
0.72400	-2
0.72767	-2
0.73133	-2
0.73500	-2
0.73867	-2
0.74233	-2
0.74600	-2
0.74967	-2
0.75333	-2
0.75700	-2
0.76067	-2
0.76433	-2
0.76800	-2
0.77167	-2
0.77533	-2
0.77900	-2
0.78267	-1
0.78633	-1
0.79000	-1
0.79367	-1
0.79733	-0
0.80100	-0
0.80467	-0
0.80833	0
0.81200	-0
0.81567	-0
0.81933	-0
0.82300	-0
0.82667	-0
0.83033	-0
0.83400	-0
0.83767	-1
0.84133	-1
0.84500	-1
0.84867	-1
0.85233	-1
0.85600	-1
0.85967	-0
0.86333	-1
0.86700	-1
0.87067	-1
0.87433	-1
0.87800	-1
0.88167	-1
0.88533	-2
0.88900	-2
0.89267	-2
0.89633	-1
0.90000	-1
0.90367	-1
0.90733	-1
0.91100	-1
0.91467	-1
0.91833	-1
0.92200	-1
0.92567	-1
0.92933	-1
0.93300	-1
0.93667	-1
0.94033	-1
0.94400	-2
0.94767	-1
0.95133	-1
0.95500	-1
0.95867	-1
0.96233	-1
0.96600	-2
0.96967	-2
0.97333	-2
0.97700	-2
0.98067	-2
0.98433	-2
0.98800	-3
0.99167	-3
0.99533	-3
0.99900	-3
1.00267	-4
1.00633	-4
1.01000	-4
1.01367	-4
1.01733	-4
1.02100	-4
1.02467	-4
1.02833	-3
1.03200	-3
1.03567	-3
1.03933	-3
1.04300	-3
1.04667	-3
1.05033	-4
1.05400	-4
1.05767	-4
1.06133	-4
1.06500	-4
1.06867	-4
1.07233	-4
1.07600	-5
1.07967	-5
1.08333	-5
1.08700	-5
1.09067	-5
1.09433	-4
1.09800	-4
1.10167	-4
1.10533	-3
1.10900	-3
1.11267	-2
1.11633	-2
1.12000	-2
1.12367	-2
1.12733	-1
1.13100	-1
1.13467	-1
1.13833	-1
1.14200	-1
1.14567	-2
1.14933	-2
1.15300	-3
1.15667	-3
1.16033	-3
1.16400	-4
1.16767	-4
1.17133	-4
1.17500	-4
1.17867	-4
1.18233	-4
1.18600	-3
1.18967	-3
1.19333	-3
1.19700	-3
1.20067	-3
1.20433	-2
1.20800	-2
1.21167	-2
1.21533	-1
1.21900	-1
1.22267	-1
1.22633	-1
1.23000	-1
1.23367	-1
1.23733	-1
1.24100	-1
1.24467	-1
1.24833	-1
1.25200	-1
1.25567	-1
1.25933	-1
1.26300	-1
1.26667	-2
1.27033	-2
1.27400	-2
1.27767	-2
1.28133	-2
1.28500	-2
1.28867	-2
1.29233	-3
1.29600	-3
1.29967	-3
1.30333	-3
1.30700	-3
1.31067	-3
1.31433	-3
1.31800	-3
1.32167	-3
1.32533	-3
1.32900	-3
1.33267	-3
1.33633	-3
1.34000	-3
1.34367	-2
1.34733	-2
1.35100	-2
1.35467	-2
1.35833	-2
1.36200	-2
1.36567	-1
1.36933	-1
1.37300	-1
1.37667	-1
1.38033	-2
1.38400	-2
1.38767	-3
1.39133	-4
1.39500	-4
1.39867	-4
1.40233	-4
1.40600	-5
1.40967	-5
1.41333	-4
1.41700	-4
1.42067	-4
1.42433	-4
1.42800	-4
1.43167	-4
1.43533	-4
1.43900	-4
1.44267	-3
1.44633	-3
1.45000	-3
1.45367	-3
1.45733	-2
1.46100	-2
1.46467	-2
1.46833	-2
1.47200	-1
1.47567	-1
1.47933	-1
1.48300	-1
1.48667	-1
1.49033	-1
1.49400	-1
1.49767	-1
1.50133	-1
1.50500	-1
1.50867	-1
1.51233	-1
1.51600	-1
1.51967	-1
1.52333	-2
1.52700	-2
1.53067	-1
1.53433	-1
1.53800	-1
1.54167	-2
1.54533	-2
1.54900	-2
1.55267	-2
1.55633	-2
1.56000	-2
1.56367	-2
1.56733	-2
1.57100	-2
1.57467	-2
1.57833	-2
1.58200	-2
1.58567	-2
1.58933	-2
1.59300	-2
1.59667	-3
1.60033	-4
1.60400	-5
1.60767	-7
1.61133	-8
1.61500	-10
1.61867	-12
1.62233	-15
1.62600	-17
1.62967	-20
1.63333	-23
1.63700	-26
1.64067	-29
1.64433	-32
1.64800	-36
1.65167	-39
1.65533	-43
1.65900	-47
1.66267	-51
1.66633	-56
1.67000	-61
1.67367	-66
1.67733	-71
1.68100	-77
1.68467	-82
1.68833	-86
1.69200	-90
1.69567	-94
1.69933	-97
1.70300	-100
1.70667	-102
1.71033	-104
1.71400	-105
1.71767	-107
1.72133	-108
1.72500	-109
1.72867	-110
1.73233	-111
1.73600	-112
1.73967	-113
1.74333	-114
1.74700	-116
1.75067	-117
1.75433	-118
1.75800	-119
1.76167	-120
1.76533	-120
1.76900	-120
1.77267	-120
1.77633	-119
1.78000	-119
1.78367	-119
1.78733	-119
1.79100	-120
1.79467	-120
1.79833	-120
1.80200	-121
1.80567	-121
1.80933	-122
1.81300	-123
1.81667	-123
1.82033	-123
1.82400	-123
1.82767	-123
1.83133	-122
1.83500	-122
1.83867	-122
1.84233	-122
1.84600	-122
1.84967	-122
1.85333	-122
1.85700	-122
1.86067	-122
1.86433	-121
1.86800	-121
1.87167	-121
1.87533	-121
1.87900	-121
1.88267	-121
1.88633	-121
1.89000	-122
1.89367	-122
1.89733	-122
1.90100	-122
1.90467	-122
1.90833	-122
1.91200	-122
1.91567	-121
1.91933	-121
1.92300	-121
1.92667	-121
1.93033	-121
1.93400	-120
1.93767	-120
1.94133	-121
1.94500	-120
1.94867	-120
1.95233	-120
1.95600	-120
1.95967	-120
1.96333	-119
1.96700	-119
1.97067	-118
1.97433	-117
1.97800	-116
1.98167	-115
1.98533	-115
1.98900	-114
1.99267	-114
1.99633	-114
2.00000	-115
2.00367	-115
2.00733	-116
2.01100	-116
2.01467	-117
2.01833	-117
2.02200	-116
2.02567	-116
2.02933	-116
2.03300	-115
2.03667	-115
2.04033	-115
2.04400	-114
2.04767	-114
2.05133	-113
2.05500	-113
2.05867	-112
2.06233	-112
2.06600	-112
2.06967	-111
2.07333	-110
2.07700	-110
2.08067	-109
2.08433	-108
2.08800	-108
2.09167	-108
2.09533	-108
2.09900	-108
2.10267	-107
2.10633	-107
2.11000	-107
2.11367	-107
2.11733	-107
2.12100	-107
2.12467	-106
2.12833	-105
2.13200	-105
2.13567	-104
2.13933	-104
2.14300	-103
2.14667	-102
2.15033	-101
2.15400	-101
2.15767	-100
2.16133	-100
2.16500	-100
2.16867	-100
2.17233	-100
2.17600	-99
2.17967	-99
2.18333	-98
2.18700	-98
2.19067	-97
2.19433	-96
2.19800	-96
2.20167	-95
2.20533	-95
2.20900	-95
2.21267	-95
2.21633	-95
2.22000	-96
2.22367	-96
2.22733	-97
2.23100	-96
2.23467	-96
2.23833	-95
2.24200	-95
2.24567	-94
2.24933	-94
2.25300	-94
2.25667	-95
2.26033	-95
2.26400	-96
2.26767	-97
2.27133	-97
2.27500	-96
2.27867	-96
2.28233	-95
2.28600	-94
2.28967	-93
2.29333	-93
2.29700	-92
2.30067	-91
2.30433	-91
2.30800	-91
2.31167	-91
2.31533	-91
2.31900	-92
2.32267	-92
2.32633	-92
2.33000	-91
2.33367	-91
2.33733	-91
2.34100	-90
2.34467	-89
2.34833	-88
2.35200	-87
2.35567	-86
2.35933	-86
2.36300	-85
2.36667	-84
2.37033	-83
2.37400	-82
2.37767	-80
2.38133	-77
2.38500	-74
2.38867	-70
2.39233	-66
2.39600	-61
2.39967	-57
2.40333	-52
2.40700	-47
2.41067	-42
2.41433	-37
2.41800	-33
2.42167	-29
2.42533	-26
2.42900	-23
2.43267	-21
2.43633	-19
2.44000	-17
2.44367	-14
2.44733	-12
2.45100	-10
2.45467	-8
2.45833	-6
2.46200	-4
2.46567	-2
2.46933	-1
2.47300	-1
2.47667	-0
2.48033	-0
2.48400	0
2.48767	1
2.49133	2
2.49500	3
2.49867	5
2.50233	6
2.50600	7
2.50967	8
2.51333	8
2.51700	9
2.52067	9
2.52433	9
2.52800	9
2.53167	9
2.53533	10
2.53900	10
2.54267	11
2.54633	11
2.55000	12
2.55367	12
2.55733	13
2.56100	13
2.56467	13
2.56833	13
2.57200	13
2.57567	13
2.57933	13
2.58300	13
2.58667	14
2.59033	14
2.59400	15
2.59767	15
2.60133	15
2.60500	15
2.60867	15
2.61233	14
2.61600	14
2.61967	15
2.62333	15
2.62700	15
2.63067	15
2.63433	15
2.63800	16
2.64167	16
2.64533	16
2.64900	17
2.65267	17
2.65633	17
2.66000	18
2.66367	18
2.66733	19
2.67100	19
2.67467	20
2.67833	20
2.68200	21
2.68567	21
2.68933	22
2.69300	22
2.69667	22
2.70033	22
2.70400	21
2.70767	21
2.71133	21
2.71500	20
2.71867	20
2.72233	20
2.72600	20
2.72967	20
2.73333	20
2.73700	20
2.74067	20
2.74433	21
2.74800	21
2.75167	21
2.75533	21
2.75900	21
2.76267	22
2.76633	22
2.77000	22
2.77367	22
2.77733	23
2.78100	23
2.78467	23
2.78833	22
2.79200	22
2.79567	22
2.79933	22
2.80300	21
2.80667	21
2.81033	21
2.81400	21
2.81767	21
2.82133	21
2.82500	21
2.82867	21
2.83233	21
2.83600	21
2.83967	21
2.84333	21
2.84700	21
2.85067	19
2.85433	17
2.85800	12
2.86167	5
2.86533	-5
2.86900	-19
2.87267	-37
2.87633	-59
2.88000	-84
2.88367	-114
2.88733	-148
2.89100	-185
2.89467	-225
2.89833	-268
2.90200	-313
2.90567	-360
2.90933	-408
2.91300	-458
2.91667	-508
2.92033	-558
2.92400	-609
2.92767	-659
2.93133	-708
2.93500	-757
2.93867	-805
2.94233	-857
2.94600	-914
2.94967	-976
2.95333	-1035
2.95700	-1080
2.96067	-1101
2.96433	-1097
2.96800	-1067
2.97167	-1016
2.97533	-950
2.97900	-875
2.98267	-795
2.98633	-715
2.99000	-636
2.99367	-562
2.99733	-493
3.00100	-430
3.00467	-373
3.00833	-322
3.01200	-277
3.01567	-238
3.01933	-203
3.02300	-173
3.02667	-147
3.03033	-124
3.03400	-104
3.03767	-87
3.04133	-73
3.04500	-60
3.04867	-50
3.05233	-41
3.05600	-33
3.05967	-26
3.06333	-21
3.06700	-16
3.07067	-12
3.07433	-8
3.07800	-5
3.08167	-2
3.08533	-0
3.08900	1
3.09267	3
3.09633	5
3.10000	6
3.10367	7
3.10733	8
3.11100	9
3.11467	9
3.11833	10
3.12200	10
3.12567	11
3.12933	11
3.13300	11
3.13667	11
3.14033	12
3.14400	12
3.14767	12
3.15133	13
3.15500	13
3.15867	14
3.16233	14
3.16600	15
3.16967	15
3.17333	15
3.17700	15
3.18067	16
3.18433	16
3.18800	16
3.19167	16
3.19533	17
3.19900	17
3.20267	17
3.20633	17
3.21000	18
3.21367	18
3.21733	18
3.22100	18
3.22467	18
3.22833	18
3.23200	18
3.23567	19
3.23933	19
3.24300	19
3.24667	19
3.25033	20
3.25400	20
3.25767	20
3.26133	21
3.26500	21
3.26867	21
3.27233	22
3.27600	22
3.27967	23
3.28333	23
3.28700	24
3.29067	24
3.29433	25
3.29800	25
3.30167	25
3.30533	25
3.30900	26
3.31267	26
3.31633	26
3.32000	26
3.32367	26
3.32733	26
3.33100	26
3.33467	26
3.33833	26
3.34200	26
3.34567	26
3.34933	26
3.35300	26
3.35667	25
3.36033	25
3.36400	25
3.36767	25
3.37133	26
3.37500	25
3.37867	25
3.38233	26
3.38600	26
3.38967	26
3.39333	26
3.39700	26
3.40067	25
3.40433	25
3.40800	25
3.41167	25
3.41533	24
3.41900	24
3.42267	24
3.42633	24
3.43000	24
3.43367	24
3.43733	24
3.44100	24
3.44467	24
3.44833	24
3.45200	24
3.45567	24
3.45933	24
3.46300	24
3.46667	24
3.47033	24
3.47400	24
3.47767	24
3.48133	24
3.48500	24
3.48867	24
3.49233	24
3.49600	24
3.49967	24
3.50333	24
3.50700	24
3.51067	24
3.51433	24
3.51800	24
3.52167	24
3.52533	24
3.52900	24
3.53267	24
3.53633	24
3.54000	24
3.54367	24
3.54733	24
3.55100	24
3.55467	24
3.55833	24
3.56200	24
3.56567	24
3.56933	24
3.57300	24
3.57667	24
3.58033	24
3.58400	24
3.58767	24
3.59133	24
3.59500	24
3.59867	24
3.60233	23
3.60600	23
3.60967	23
3.61333	23
3.61700	23
3.62067	23
3.62433	23
3.62800	23
3.63167	23
3.63533	23
3.63900	23
3.64267	23
3.64633	23
3.65000	23
3.65367	22
3.65733	22
3.66100	22
3.66467	22
3.66833	22
3.67200	22
3.67567	22
3.67933	22
3.68300	22
3.68667	22
3.69033	23
3.69400	23
3.69767	23
3.70133	23
3.70500	23
3.70867	23
3.71233	24
3.71600	24
3.71967	24
3.72333	24
3.72700	24
3.73067	24
3.73433	24
3.73800	24
3.74167	24
3.74533	24
3.74900	24
3.75267	24
3.75633	25
3.76000	25
3.76367	24
3.76733	24
3.77100	24
3.77467	24
3.77833	24
3.78200	23
3.78567	24
3.78933	24
3.79300	24
3.79667	24
3.80033	24
3.80400	24
3.80767	24
3.81133	24
3.81500	24
3.81867	24
3.82233	25
3.82600	25
3.82967	25
3.83333	25
3.83700	25
3.84067	25
3.84433	25
3.84800	25
3.85167	25
3.85533	25
3.85900	25
3.86267	25
3.86633	25
3.87000	24
3.87367	24
3.87733	24
3.88100	24
3.88467	24
3.88833	23
3.89200	23
3.89567	24
3.89933	24
3.90300	24
3.90667	24
3.91033	24
3.91400	24
3.91767	24
3.92133	24
3.92500	24
3.92867	24
3.93233	24
3.93600	24
3.93967	24
3.94333	24
3.94700	24
3.95067	24
3.95433	24
3.95800	24
3.96167	24
3.96533	24
3.96900	23
3.97267	23
3.97633	23
3.98000	23
3.98367	23
3.98733	23
3.99100	23
3.99467	23
3.99833	23

[Chromatogram (Ch3)]
Interval(msec)	220
# of Points	1091
Start Time(min)	0.002
End Time(min)	3.998
R.Time (min)	Intensity
0.00167	-0
0.00533	0
0.00900	4
0.01267	5
0.01633	5
0.02000	3
0.02367	3
0.02733	4
0.03100	5
0.03467	6
0.03833	4
0.04200	3
0.04567	1
0.04933	0
0.05300	0
0.05667	1
0.06033	2
0.06400	3
0.06767	4
0.07133	4
0.07500	4
0.07867	4
0.08233	4
0.08600	3
0.08967	5
0.09333	6
0.09700	6
0.10067	5
0.10433	7
0.10800	7
0.11167	5
0.11533	2
0.11900	2
0.12267	4
0.12633	5
0.13000	4
0.13367	2
0.13733	3
0.14100	4
0.14467	4
0.14833	5
0.15200	5
0.15567	3
0.15933	1
0.16300	1
0.16667	2
0.17033	2
0.17400	2
0.17767	1
0.18133	2
0.18500	3
0.18867	3
0.19233	1
0.19600	1
0.19967	0
0.20333	0
0.20700	1
0.21067	-0
0.21433	1
0.21800	5
0.22167	6
0.22533	5
0.22900	3
0.23267	1
0.23633	0
0.24000	-0
0.24367	-1
0.24733	-1
0.25100	0
0.25467	2
0.25833	5
0.26200	6
0.26567	4
0.26933	2
0.27300	3
0.27667	3
0.28033	1
0.28400	0
0.28767	1
0.29133	3
0.29500	2
0.29867	3
0.30233	4
0.30600	3
0.30967	2
0.31333	4
0.31700	4
0.32067	1
0.32433	-2
0.32800	-2
0.33167	-3
0.33533	-2
0.33900	0
0.34267	-0
0.34633	-2
0.35000	-4
0.35367	-5
0.35733	-5
0.36100	-4
0.36467	-4
0.36833	-4
0.37200	-3
0.37567	-2
0.37933	-1
0.38300	1
0.38667	1
0.39033	1
0.39400	3
0.39767	4
0.40133	3
0.40500	1
0.40867	-1
0.41233	0
0.41600	2
0.41967	3
0.42333	3
0.42700	0
0.43067	-2
0.43433	-3
0.43800	-2
0.44167	1
0.44533	0
0.44900	-2
0.45267	-1
0.45633	1
0.46000	1
0.46367	-1
0.46733	-1
0.47100	1
0.47467	1
0.47833	1
0.48200	1
0.48567	2
0.48933	2
0.49300	4
0.49667	6
0.50033	6
0.50400	4
0.50767	4
0.51133	2
0.51500	1
0.51867	1
0.52233	-1
0.52600	1
0.52967	5
0.53333	8
0.53700	10
0.54067	11
0.54433	11
0.54800	10
0.55167	9
0.55533	11
0.55900	10
0.56267	10
0.56633	8
0.57000	6
0.57367	7
0.57733	8
0.58100	9
0.58467	9
0.58833	9
0.59200	10
0.59567	10
0.59933	11
0.60300	12
0.60667	11
0.61033	13
0.61400	16
0.61767	18
0.62133	19
0.62500	20
0.62867	19
0.63233	16
0.63600	14
0.63967	13
0.64333	13
0.64700	15
0.65067	15
0.65433	13
0.65800	14
0.66167	17
0.66533	19
0.66900	19
0.67267	21
0.67633	22
0.68000	22
0.68367	22
0.68733	20
0.69100	19
0.69467	17
0.69833	18
0.70200	17
0.70567	16
0.70933	17
0.71300	16
0.71667	14
0.72033	15
0.72400	17
0.72767	18
0.73133	18
0.73500	18
0.73867	19
0.74233	18
0.74600	19
0.74967	21
0.75333	21
0.75700	20
0.76067	20
0.76433	22
0.76800	24
0.77167	24
0.77533	23
0.77900	23
0.78267	26
0.78633	29
0.79000	30
0.79367	30
0.79733	28
0.80100	25
0.80467	26
0.80833	26
0.81200	27
0.81567	31
0.81933	33
0.82300	32
0.82667	34
0.83033	35
0.83400	36
0.83767	37
0.84133	38
0.84500	36
0.84867	36
0.85233	34
0.85600	30
0.85967	29
0.86333	30
0.86700	31
0.87067	32
0.87433	32
0.87800	32
0.88167	34
0.88533	37
0.88900	38
0.89267	39
0.89633	35
0.90000	32
0.90367	31
0.90733	30
0.91100	31
0.91467	31
0.91833	32
0.92200	35
0.92567	37
0.92933	38
0.93300	38
0.93667	38
0.94033	37
0.94400	35
0.94767	34
0.95133	33
0.95500	33
0.95867	33
0.96233	34
0.96600	38
0.96967	39
0.97333	38
0.97700	38
0.98067	40
0.98433	41
0.98800	40
0.99167	39
0.99533	38
0.99900	36
1.00267	35
1.00633	37
1.01000	37
1.01367	36
1.01733	37
1.02100	35
1.02467	35
1.02833	36
1.03200	40
1.03567	41
1.03933	44
1.04300	46
1.04667	47
1.05033	48
1.05400	49
1.05767	48
1.06133	47
1.06500	44
1.06867	43
1.07233	42
1.07600	43
1.07967	46
1.08333	48
1.08700	47
1.09067	46
1.09433	46
1.09800	46
1.10167	45
1.10533	43
1.10900	42
1.11267	41
1.11633	41
1.12000	40
1.12367	39
1.12733	42
1.13100	45
1.13467	46
1.13833	46
1.14200	46
1.14567	45
1.14933	46
1.15300	49
1.15667	48
1.16033	45
1.16400	44
1.16767	47
1.17133	50
1.17500	52
1.17867	52
1.18233	52
1.18600	50
1.18967	50
1.19333	50
1.19700	48
1.20067	47
1.20433	46
1.20800	45
1.21167	45
1.21533	49
1.21900	50
1.22267	50
1.22633	51
1.23000	50
1.23367	51
1.23733	53
1.24100	55
1.24467	55
1.24833	52
1.25200	52
1.25567	53
1.25933	54
1.26300	53
1.26667	53
1.27033	53
1.27400	53
1.27767	53
1.28133	52
1.28500	49
1.28867	48
1.29233	49
1.29600	50
1.29967	52
1.30333	53
1.30700	56
1.31067	57
1.31433	59
1.31800	60
1.32167	61
1.32533	61
1.32900	59
1.33267	55
1.33633	53
1.34000	53
1.34367	54
1.34733	55
1.35100	55
1.35467	54
1.35833	54
1.36200	52
1.36567	51
1.36933	50
1.37300	50
1.37667	50
1.38033	52
1.38400	52
1.38767	52
1.39133	51
1.39500	50
1.39867	49
1.40233	48
1.40600	48
1.40967	47
1.41333	46
1.41700	46
1.42067	44
1.42433	42
1.42800	41
1.43167	41
1.43533	44
1.43900	45
1.44267	47
1.44633	48
1.45000	48
1.45367	49
1.45733	51
1.46100	53
1.46467	54
1.46833	53
1.47200	50
1.47567	50
1.47933	49
1.48300	48
1.48667	49
1.49033	49
1.49400	48
1.49767	49
1.50133	50
1.50500	50
1.50867	50
1.51233	48
1.51600	49
1.51967	49
1.52333	48
1.52700	47
1.53067	46
1.53433	45
1.53800	47
1.54167	48
1.54533	48
1.54900	49
1.55267	49
1.55633	49
1.56000	50
1.56367	50
1.56733	49
1.57100	48
1.57467	49
1.57833	51
1.58200	53
1.58567	54
1.58933	55
1.59300	56
1.59667	56
1.60033	54
1.60400	55
1.60767	55
1.61133	55
1.61500	54
1.61867	53
1.62233	55
1.62600	56
1.62967	56
1.63333	56
1.63700	57
1.64067	56
1.64433	55
1.64800	55
1.65167	54
1.65533	54
1.65900	53
1.66267	53
1.66633	55
1.67000	55
1.67367	54
1.67733	56
1.68100	58
1.68467	59
1.68833	61
1.69200	65
1.69567	67
1.69933	68
1.70300	71
1.70667	73
1.71033	73
1.71400	71
1.71767	69
1.72133	69
1.72500	69
1.72867	68
1.73233	69
1.73600	72
1.73967	73
1.74333	72
1.74700	71
1.75067	71
1.75433	71
1.75800	70
1.76167	70
1.76533	70
1.76900	74
1.77267	77
1.77633	79
1.78000	81
1.78367	82
1.78733	84
1.79100	84
1.79467	83
1.79833	84
1.80200	85
1.80567	86
1.80933	86
1.81300	86
1.81667	87
1.82033	88
1.82400	89
1.82767	87
1.83133	85
1.83500	86
1.83867	88
1.84233	89
1.84600	91
1.84967	91
1.85333	91
1.85700	91
1.86067	89
1.86433	88
1.86800	87
1.87167	89
1.87533	90
1.87900	91
1.88267	91
1.88633	90
1.89000	92
1.89367	95
1.89733	98
1.90100	97
1.90467	94
1.90833	94
1.91200	94
1.91567	95
1.91933	95
1.92300	95
1.92667	96
1.93033	96
1.93400	97
1.93767	97
1.94133	98
1.94500	100
1.94867	100
1.95233	101
1.95600	102
1.95967	104
1.96333	107
1.96700	108
1.97067	108
1.97433	110
1.97800	111
1.98167	112
1.98533	112
1.98900	114
1.99267	114
1.99633	114
2.00000	114
2.00367	116
2.00733	119
2.01100	120
2.01467	124
2.01833	127
2.02200	130
2.02567	132
2.02933	132
2.03300	132
2.03667	132
2.04033	134
2.04400	134
2.04767	136
2.05133	136
2.05500	138
2.05867	139
2.06233	143
2.06600	146
2.06967	147
2.07333	148
2.07700	150
2.08067	151
2.08433	154
2.08800	154
2.09167	155
2.09533	158
2.09900	160
2.10267	159
2.10633	160
2.11000	161
2.11367	161
2.11733	164
2.12100	166
2.12467	167
2.12833	168
2.13200	170
2.13567	170
2.13933	172
2.14300	174
2.14667	175
2.15033	175
2.15400	175
2.15767	175
2.16133	175
2.16500	176
2.16867	178
2.17233	181
2.17600	182
2.17967	183
2.18333	184
2.18700	185
2.19067	186
2.19433	188
2.19800	188
2.20167	189
2.20533	191
2.20900	194
2.21267	198
2.21633	201
2.22000	202
2.22367	202
2.22733	201
2.23100	202
2.23467	202
2.23833	204
2.24200	207
2.24567	209
2.24933	209
2.25300	209
2.25667	210
2.26033	212
2.26400	212
2.26767	214
2.27133	214
2.27500	212
2.27867	209
2.28233	210
2.28600	210
2.28967	211
2.29333	214
2.29700	217
2.30067	218
2.30433	221
2.30800	224
2.31167	225
2.31533	226
2.31900	225
2.32267	225
2.32633	226
2.33000	230
2.33367	232
2.33733	232
2.34100	234
2.34467	237
2.34833	239
2.35200	240
2.35567	240
2.35933	243
2.36300	246
2.36667	247
2.37033	246
2.37400	248
2.37767	250
2.38133	252
2.38500	253
2.38867	253
2.39233	253
2.39600	252
2.39967	247
2.40333	246
2.40700	248
2.41067	251
2.41433	255
2.41800	258
2.42167	264
2.42533	268
2.42900	270
2.43267	271
2.43633	271
2.44000	272
2.44367	276
2.44733	284
2.45100	291
2.45467	290
2.45833	284
2.46200	273
2.46567	260
2.46933	246
2.47300	235
2.47667	228
2.48033	220
2.48400	213
2.48767	206
2.49133	196
2.49500	184
2.49867	174
2.50233	162
2.50600	151
2.50967	142
2.51333	136
2.51700	132
2.52067	127
2.52433	120
2.52800	113
2.53167	106
2.53533	100
2.53900	98
2.54267	98
2.54633	97
2.55000	94
2.55367	91
2.55733	88
2.56100	81
2.56467	76
2.56833	75
2.57200	75
2.57567	74
2.57933	71
2.58300	69
2.58667	68
2.59033	68
2.59400	68
2.59767	68
2.60133	65
2.60500	53
2.60867	37
2.61233	13
2.61600	-16
2.61967	-48
2.62333	-84
2.62700	-119
2.63067	-150
2.63433	-179
2.63800	-204
2.64167	-224
2.64533	-236
2.64900	-243
2.65267	-246
2.65633	-245
2.66000	-242
2.66367	-236
2.66733	-226
2.67100	-216
2.67467	-208
2.67833	-198
2.68200	-186
2.68567	-175
2.68933	-167
2.69300	-160
2.69667	-152
2.70033	-142
2.70400	-135
2.70767	-127
2.71133	-118
2.71500	-109
2.71867	-103
2.72233	-96
2.72600	-91
2.72967	-84
2.73333	-77
2.73700	-71
2.74067	-66
2.74433	-60
2.74800	-55
2.75167	-51
2.75533	-48
2.75900	-44
2.76267	-40
2.76633	-38
2.77000	-36
2.77367	-36
2.77733	-36
2.78100	-34
2.78467	-34
2.78833	-35
2.79200	-36
2.79567	-34
2.79933	-35
2.80300	-34
2.80667	-33
2.81033	-34
2.81400	-37
2.81767	-39
2.82133	-40
2.82500	-38
2.82867	-30
2.83233	-7
2.83600	36
2.83967	120
2.84333	268
2.84700	499
2.85067	831
2.85433	1266
2.85800	1790
2.86167	2372
2.86533	2977
2.86900	3549
2.87267	4043
2.87633	4422
2.88000	4664
2.88367	4760
2.88733	4717
2.89100	4557
2.89467	4308
2.89833	4000
2.90200	3658
2.90567	3299
2.90933	2943
2.91300	2607
2.91667	2296
2.92033	2009
2.92400	1750
2.92767	1518
2.93133	1310
2.93500	1127
2.93867	967
2.94233	828
2.94600	706
2.94967	600
2.95333	508
2.95700	428
2.96067	357
2.96433	296
2.96800	244
2.97167	202
2.97533	162
2.97900	128
2.98267	97
2.98633	71
2.99000	52
2.99367	35
2.99733	21
3.00100	10
3.00467	-1
3.00833	-10
3.01200	-18
3.01567	-22
3.01933	-28
3.02300	-34
3.02667	-40
3.03033	-48
3.03400	-53
3.03767	-55
3.04133	-55
3.04500	-58
3.04867	-62
3.05233	-65
3.05600	-66
3.05967	-67
3.06333	-68
3.06700	-70
3.07067	-69
3.07433	-68
3.07800	-71
3.08167	-76
3.08533	-80
3.08900	-82
3.09267	-81
3.09633	-79
3.10000	-77
3.10367	-76
3.10733	-77
3.11100	-78
3.11467	-80
3.11833	-80
3.12200	-82
3.12567	-83
3.12933	-83
3.13300	-83
3.13667	-81
3.14033	-81
3.14400	-81
3.14767	-79
3.15133	-79
3.15500	-80
3.15867	-84
3.16233	-87
3.16600	-86
3.16967	-82
3.17333	-79
3.17700	-80
3.18067	-82
3.18433	-83
3.18800	-81
3.19167	-79
3.19533	-77
3.19900	-77
3.20267	-75
3.20633	-73
3.21000	-72
3.21367	-70
3.21733	-71
3.22100	-71
3.22467	-71
3.22833	-72
3.23200	-72
3.23567	-70
3.23933	-69
3.24300	-70
3.24667	-70
3.25033	-72
3.25400	-75
3.25767	-78
3.26133	-78
3.26500	-77
3.26867	-75
3.27233	-72
3.27600	-70
3.27967	-70
3.28333	-71
3.28700	-70
3.29067	-71
3.29433	-69
3.29800	-68
3.30167	-71
3.30533	-73
3.30900	-73
3.31267	-74
3.31633	-75
3.32000	-77
3.32367	-79
3.32733	-83
3.33100	-84
3.33467	-84
3.33833	-85
3.34200	-87
3.34567	-89
3.34933	-89
3.35300	-89
3.35667	-89
3.36033	-87
3.36400	-84
3.36767	-82
3.37133	-83
3.37500	-85
3.37867	-86
3.38233	-87
3.38600	-89
3.38967	-91
3.39333	-92
3.39700	-96
3.40067	-99
3.40433	-99
3.40800	-98
3.41167	-97
3.41533	-95
3.41900	-94
3.42267	-96
3.42633	-96
3.43000	-97
3.43367	-96
3.43733	-98
3.44100	-100
3.44467	-102
3.44833	-102
3.45200	-102
3.45567	-104
3.45933	-105
3.46300	-108
3.46667	-108
3.47033	-109
3.47400	-110
3.47767	-108
3.48133	-108
3.48500	-108
3.48867	-108
3.49233	-111
3.49600	-113
3.49967	-112
3.50333	-111
3.50700	-109
3.51067	-108
3.51433	-107
3.51800	-108
3.52167	-110
3.52533	-111
3.52900	-112
3.53267	-113
3.53633	-111
3.54000	-109
3.54367	-111
3.54733	-111
3.55100	-111
3.55467	-109
3.55833	-109
3.56200	-110
3.56567	-110
3.56933	-109
3.57300	-111
3.57667	-113
3.58033	-113
3.58400	-111
3.58767	-122
3.59133	-152
3.59500	-179
3.59867	-190
3.60233	-182
3.60600	-163
3.60967	-141
3.61333	-116
3.61700	-90
3.62067	-63
3.62433	-39
3.62800	-15
3.63167	6
3.63533	26
3.63900	45
3.64267	62
3.64633	77
3.65000	89
3.65367	102
3.65733	119
3.66100	135
3.66467	149
3.66833	160
3.67200	168
3.67567	176
3.67933	184
3.68300	191
3.68667	199
3.69033	208
3.69400	213
3.69767	218
3.70133	226
3.70500	232
3.70867	236
3.71233	240
3.71600	246
3.71967	251
3.72333	252
3.72700	253
3.73067	258
3.73433	261
3.73800	264
3.74167	265
3.74533	267
3.74900	269
3.75267	273
3.75633	275
3.76000	277
3.76367	278
3.76733	279
3.77100	281
3.77467	283
3.77833	285
3.78200	284
3.78567	282
3.78933	282
3.79300	285
3.79667	288
3.80033	290
3.80400	291
3.80767	291
3.81133	290
3.81500	288
3.81867	286
3.82233	284
3.82600	283
3.82967	280
3.83333	280
3.83700	282
3.84067	283
3.84433	282
3.84800	278
3.85167	275
3.85533	271
3.85900	269
3.86267	270
3.86633	267
3.87000	265
3.87367	265
3.87733	263
3.88100	261
3.88467	259
3.88833	258
3.89200	256
3.89567	256
3.89933	257
3.90300	257
3.90667	256
3.91033	255
3.91400	254
3.91767	253
3.92133	251
3.92500	249
3.92867	248
3.93233	249
3.93600	249
3.93967	246
3.94333	243
3.94700	242
3.95067	242
3.95433	242
3.95800	243
3.96167	242
3.96533	238
3.96900	238
3.97267	238
3.97633	238
3.98000	237
3.98367	236
3.98733	235
3.99100	234
3.99467	233
3.99833	233

[Status Trace (Column Oven Temperature)]
Interval(msec)	1000
# of Points	240
Start Time(min)	0.011
End Time(min)	3.995
Intensity Units	
Intensity Multiplier	1
R.Time (min)	Intensity
0.01145	35.01
0.02812	35.01
0.04478	35.01
0.06145	35.02
0.07812	35.03
0.09478	35.04
0.11145	35.03
0.12812	35.05
0.14478	35.05
0.16145	35.06
0.17812	35.05
0.19478	35.03
0.21145	35.02
0.22812	35.01
0.24478	35.01
0.26145	35.00
0.27812	34.98
0.29478	34.98
0.31145	34.98
0.32812	34.99
0.34478	34.99
0.36145	34.98
0.37812	34.97
0.39478	34.97
0.41145	34.97
0.42812	34.98
0.44478	34.98
0.46145	34.98
0.47812	34.98
0.49478	34.98
0.51145	34.98
0.52812	34.99
0.54478	35.01
0.56145	35.02
0.57812	35.02
0.59478	35.01
0.61145	35.01
0.62812	35.00
0.64478	35.00
0.66145	34.99
0.67812	34.99
0.69478	34.98
0.71145	34.98
0.72812	34.98
0.74478	34.98
0.76145	34.99
0.77812	34.99
0.79478	34.98
0.81145	34.97
0.82812	34.98
0.84478	34.97
0.86145	34.98
0.87812	34.98
0.89478	34.97
0.91145	34.97
0.92812	34.98
0.94478	34.98
0.96145	34.98
0.97812	34.99
0.99478	35.00
1.01145	35.01
1.02812	35.01
1.04478	35.01
1.06145	35.01
1.07812	35.02
1.09478	35.01
1.11145	35.00
1.12812	35.01
1.14478	35.01
1.16145	35.01
1.17812	35.01
1.19478	35.02
1.21145	35.00
1.22812	35.00
1.24478	35.00
1.26145	35.01
1.27812	35.01
1.29478	35.01
1.31145	35.01
1.32812	35.01
1.34478	35.01
1.36145	35.01
1.37812	35.02
1.39478	35.03
1.41145	35.03
1.42812	35.02
1.44478	35.01
1.46145	35.01
1.47812	35.00
1.49478	35.00
1.51145	35.00
1.52812	34.99
1.54478	34.99
1.56145	34.99
1.57812	34.99
1.59478	35.01
1.61145	35.08
1.62812	35.21
1.64478	35.40
1.66145	35.65
1.67812	36.01
1.69478	36.37
1.71145	36.72
1.72812	37.05
1.74478	37.40
1.76145	37.73
1.77812	38.07
1.79478	38.39
1.81145	38.74
1.82812	39.05
1.84478	39.41
1.86145	39.72
1.87812	40.06
1.89478	40.39
1.91145	40.70
1.92812	41.03
1.94478	41.36
1.96145	41.69
1.97812	41.99
1.99478	42.32
2.01145	42.66
2.02812	42.99
2.04478	43.31
2.06145	43.64
2.07812	43.95
2.09478	44.28
2.11145	44.63
2.12812	44.95
2.14478	45.28
2.16145	45.61
2.17812	45.93
2.19478	46.24
2.21145	46.56
2.22812	46.89
2.24478	47.22
2.26145	47.57
2.27812	47.89
2.29478	48.21
2.31145	48.59
2.32812	48.91
2.34478	49.21
2.36145	49.48
2.37812	49.65
2.39478	49.70
2.41145	49.69
2.42812	49.69
2.44478	49.71
2.46145	49.70
2.47812	49.74
2.49478	49.74
2.51145	49.75
2.52812	49.77
2.54478	49.77
2.56145	49.79
2.57812	49.81
2.59478	49.81
2.61145	49.83
2.62812	49.85
2.64478	49.87
2.66145	49.86
2.67812	49.84
2.69478	49.85
2.71145	49.86
2.72812	49.87
2.74478	49.87
2.76145	49.86
2.77812	49.86
2.79478	49.88
2.81145	49.90
2.82812	49.90
2.84478	49.92
2.86145	49.92
2.87812	49.93
2.89478	49.94
2.91145	49.95
2.92812	49.96
2.94478	49.97
2.96145	49.99
2.97812	50.01
2.99478	50.02
3.01145	50.03
3.02812	50.04
3.04478	50.04
3.06145	50.04
3.07812	50.04
3.09478	50.05
3.11145	50.05
3.12812	50.07
3.14478	50.07
3.16145	50.08
3.17812	50.09
3.19478	50.09
3.21145	50.10
3.22812	50.11
3.24478	50.11
3.26145	50.10
3.27812	50.09
3.29478	50.08
3.31145	50.06
3.32812	50.05
3.34478	50.04
3.36145	50.02
3.37812	50.01
3.39478	50.01
3.41145	50.01
3.42812	50.00
3.44478	50.00
3.46145	49.99
3.47812	49.99
3.49478	49.99
3.51145	50.00
3.52812	50.00
3.54478	50.00
3.56145	50.00
3.57812	50.01
3.59478	50.01
3.61145	50.02
3.62812	50.04
3.64478	50.06
3.66145	50.07
3.67812	50.08
3.69478	50.09
3.71145	50.09
3.72812	50.08
3.74478	50.07
3.76145	50.06
3.77812	50.06
3.79478	50.07
3.81145	50.06
3.82812	50.06
3.84478	50.06
3.86145	50.06
3.87812	50.07
3.89478	50.07
3.91145	50.07
3.92812	50.07
3.94478	50.08
3.96145	50.08
3.97812	50.09
3.99478	50.08

[Status Trace (Injection Unit Temperature)]
Interval(msec)	1000
# of Points	240
Start Time(min)	0.011
End Time(min)	3.995
Intensity Units	
Intensity Multiplier	1
R.Time (min)	Intensity
0.01145	99.98
0.02812	99.98
0.04478	99.97
0.06145	99.98
0.07812	99.98
0.09478	99.98
0.11145	99.98
0.12812	99.98
0.14478	99.98
0.16145	99.99
0.17812	99.98
0.19478	99.98
0.21145	99.98
0.22812	99.98
0.24478	99.99
0.26145	99.98
0.27812	99.98
0.29478	99.98
0.31145	99.98
0.32812	99.98
0.34478	99.98
0.36145	99.98
0.37812	99.98
0.39478	99.98
0.41145	99.99
0.42812	99.98
0.44478	99.99
0.46145	99.98
0.47812	99.98
0.49478	99.98
0.51145	99.98
0.52812	99.98
0.54478	99.98
0.56145	99.98
0.57812	99.98
0.59478	99.98
0.61145	99.98
0.62812	99.98
0.64478	99.98
0.66145	99.98
0.67812	99.98
0.69478	99.98
0.71145	99.97
0.72812	99.98
0.74478	99.97
0.76145	99.98
0.77812	99.98
0.79478	99.98
0.81145	99.98
0.82812	99.98
0.84478	99.98
0.86145	99.98
0.87812	99.98
0.89478	99.98
0.91145	99.98
0.92812	99.98
0.94478	99.98
0.96145	99.98
0.97812	99.98
0.99478	99.98
1.01145	99.98
1.02812	99.98
1.04478	99.98
1.06145	99.98
1.07812	99.98
1.09478	99.98
1.11145	99.99
1.12812	99.99
1.14478	99.99
1.16145	99.99
1.17812	99.99
1.19478	99.99
1.21145	99.98
1.22812	99.98
1.24478	99.98
1.26145	99.99
1.27812	99.98
1.29478	99.98
1.31145	99.98
1.32812	99.98
1.34478	99.99
1.36145	99.98
1.37812	99.98
1.39478	99.99
1.41145	99.99
1.42812	99.99
1.44478	99.99
1.46145	99.99
1.47812	99.99
1.49478	99.99
1.51145	99.98
1.52812	99.99
1.54478	99.99
1.56145	99.98
1.57812	99.99
1.59478	99.99
1.61145	99.99
1.62812	99.99
1.64478	99.99
1.66145	99.99
1.67812	99.99
1.69478	99.99
1.71145	99.99
1.72812	99.99
1.74478	99.99
1.76145	99.99
1.77812	99.98
1.79478	99.98
1.81145	99.99
1.82812	99.98
1.84478	99.98
1.86145	99.98
1.87812	99.98
1.89478	99.98
1.91145	99.98
1.92812	99.98
1.94478	99.98
1.96145	99.98
1.97812	99.98
1.99478	99.98
2.01145	99.97
2.02812	99.97
2.04478	99.97
2.06145	99.97
2.07812	99.97
2.09478	99.97
2.11145	99.97
2.12812	99.97
2.14478	99.97
2.16145	99.97
2.17812	99.96
2.19478	99.97
2.21145	99.97
2.22812	99.96
2.24478	99.96
2.26145	99.96
2.27812	99.97
2.29478	99.96
2.31145	99.96
2.32812	99.97
2.34478	99.97
2.36145	99.96
2.37812	99.97
2.39478	99.97
2.41145	99.97
2.42812	99.97
2.44478	99.97
2.46145	99.96
2.47812	99.97
2.49478	99.97
2.51145	99.97
2.52812	99.97
2.54478	99.97
2.56145	99.97
2.57812	99.98
2.59478	99.97
2.61145	99.97
2.62812	99.98
2.64478	99.98
2.66145	99.97
2.67812	99.98
2.69478	99.98
2.71145	99.98
2.72812	99.98
2.74478	99.99
2.76145	99.99
2.77812	99.99
2.79478	100.00
2.81145	100.00
2.82812	100.00
2.84478	100.00
2.86145	100.00
2.87812	100.01
2.89478	100.01
2.91145	100.01
2.92812	100.01
2.94478	100.00
2.96145	100.01
2.97812	100.01
2.99478	100.01
3.01145	100.02
3.02812	100.02
3.04478	100.02
3.06145	100.02
3.07812	100.02
3.09478	100.02
3.11145	100.02
3.12812	100.03
3.14478	100.03
3.16145	100.02
3.17812	100.03
3.19478	100.03
3.21145	100.03
3.22812	100.03
3.24478	100.03
3.26145	100.04
3.27812	100.03
3.29478	100.04
3.31145	100.04
3.32812	100.04
3.34478	100.04
3.36145	100.04
3.37812	100.04
3.39478	100.04
3.41145	100.04
3.42812	100.04
3.44478	100.05
3.46145	100.04
3.47812	100.04
3.49478	100.05
3.51145	100.05
3.52812	100.04
3.54478	100.05
3.56145	100.05
3.57812	100.05
3.59478	100.04
3.61145	100.05
3.62812	100.05
3.64478	100.05
3.66145	100.05
3.67812	100.05
3.69478	100.05
3.71145	100.05
3.72812	100.05
3.74478	100.05
3.76145	100.04
3.77812	100.05
3.79478	100.05
3.81145	100.05
3.82812	100.05
3.84478	100.04
3.86145	100.05
3.87812	100.05
3.89478	100.04
3.91145	100.05
3.92812	100.05
3.94478	100.05
3.96145	100.05
3.97812	100.05
3.99478	100.05

[Status Trace (Carrier Gas Pressure)]
Interval(msec)	1000
# of Points	240
Start Time(min)	0.011
End Time(min)	3.995
Intensity Units	
Intensity Multiplier	1
R.Time (min)	Intensity
0.01145	58.00
0.02812	55.01
0.04478	57.54
0.06145	59.62
0.07812	59.13
0.09478	58.01
0.11145	57.99
0.12812	58.01
0.14478	58.01
0.16145	58.00
0.17812	58.00
0.19478	58.00
0.21145	58.00
0.22812	58.00
0.24478	58.00
0.26145	58.00
0.27812	58.00
0.29478	58.00
0.31145	58.00
0.32812	58.00
0.34478	58.00
0.36145	58.00
0.37812	58.00
0.39478	58.00
0.41145	58.00
0.42812	58.00
0.44478	58.00
0.46145	58.00
0.47812	58.00
0.49478	58.00
0.51145	58.00
0.52812	58.00
0.54478	58.00
0.56145	58.00
0.57812	58.00
0.59478	58.00
0.61145	58.00
0.62812	58.00
0.64478	58.00
0.66145	58.00
0.67812	58.00
0.69478	58.00
0.71145	58.00
0.72812	58.00
0.74478	58.00
0.76145	58.00
0.77812	58.00
0.79478	58.00
0.81145	58.00
0.82812	58.00
0.84478	58.00
0.86145	58.00
0.87812	58.00
0.89478	58.00
0.91145	58.00
0.92812	58.00
0.94478	58.00
0.96145	58.00
0.97812	58.00
0.99478	58.00
1.01145	58.00
1.02812	58.00
1.04478	58.00
1.06145	58.00
1.07812	58.00
1.09478	58.00
1.11145	58.00
1.12812	58.00
1.14478	58.00
1.16145	58.00
1.17812	58.00
1.19478	58.00
1.21145	58.00
1.22812	58.00
1.24478	58.00
1.26145	58.00
1.27812	58.00
1.29478	58.00
1.31145	58.00
1.32812	58.00
1.34478	58.00
1.36145	58.00
1.37812	58.00
1.39478	58.00
1.41145	58.00
1.42812	58.00
1.44478	58.00
1.46145	58.00
1.47812	58.00
1.49478	58.00
1.51145	58.00
1.52812	58.00
1.54478	58.00
1.56145	58.00
1.57812	58.00
1.59478	58.00
1.61145	58.00
1.62812	58.00
1.64478	58.00
1.66145	58.00
1.67812	58.01
1.69478	58.00
1.71145	58.00
1.72812	58.00
1.74478	58.00
1.76145	58.00
1.77812	58.00
1.79478	58.00
1.81145	58.00
1.82812	58.00
1.84478	58.00
1.86145	58.00
1.87812	58.00
1.89478	58.00
1.91145	58.00
1.92812	58.00
1.94478	58.00
1.96145	58.00
1.97812	58.00
1.99478	58.00
2.01145	58.00
2.02812	58.00
2.04478	58.00
2.06145	58.00
2.07812	58.00
2.09478	58.00
2.11145	58.00
2.12812	58.00
2.14478	58.00
2.16145	58.00
2.17812	58.00
2.19478	58.00
2.21145	58.00
2.22812	58.00
2.24478	58.00
2.26145	58.00
2.27812	58.00
2.29478	58.00
2.31145	58.00
2.32812	58.00
2.34478	58.00
2.36145	58.00
2.37812	58.00
2.39478	57.99
2.41145	57.99
2.42812	58.00
2.44478	58.00
2.46145	58.00
2.47812	58.00
2.49478	58.00
2.51145	57.99
2.52812	57.98
2.54478	58.00
2.56145	58.00
2.57812	58.00
2.59478	58.00
2.61145	58.00
2.62812	58.00
2.64478	58.00
2.66145	58.00
2.67812	58.00
2.69478	58.00
2.71145	58.00
2.72812	58.00
2.74478	58.00
2.76145	58.00
2.77812	58.00
2.79478	58.00
2.81145	58.00
2.82812	58.00
2.84478	58.00
2.86145	58.00
2.87812	58.00
2.89478	58.00
2.91145	58.00
2.92812	58.00
2.94478	58.00
2.96145	58.00
2.97812	58.00
2.99478	58.00
3.01145	58.00
3.02812	58.00
3.04478	58.00
3.06145	58.00
3.07812	58.00
3.09478	58.00
3.11145	58.00
3.12812	58.00
3.14478	58.00
3.16145	58.00
3.17812	58.00
3.19478	58.00
3.21145	58.00
3.22812	58.00
3.24478	58.00
3.26145	58.00
3.27812	58.00
3.29478	58.00
3.31145	58.00
3.32812	58.00
3.34478	58.00
3.36145	58.00
3.37812	58.00
3.39478	58.00
3.41145	58.00
3.42812	58.00
3.44478	58.00
3.46145	58.00
3.47812	58.00
3.49478	58.00
3.51145	58.00
3.52812	58.00
3.54478	58.00
3.56145	58.00
3.57812	58.00
3.59478	58.00
3.61145	58.00
3.62812	58.00
3.64478	58.00
3.66145	58.00
3.67812	58.00
3.69478	58.00
3.71145	58.00
3.72812	58.00
3.74478	58.00
3.76145	58.00
3.77812	58.00
3.79478	58.00
3.81145	58.00
3.82812	58.00
3.84478	58.00
3.86145	58.00
3.87812	58.00
3.89478	58.00
3.91145	58.00
3.92812	58.00
3.94478	58.00
3.96145	58.00
3.97812	58.00
3.99478	58.00

[Status Trace (Carrier Gas Flow)]
Interval(msec)	1000
# of Points	240
Start Time(min)	0.011
End Time(min)	3.995
Intensity Units	
Intensity Multiplier	1
R.Time (min)	Intensity
0.01145	34.52
0.02812	34.54
0.04478	34.55
0.06145	34.55
0.07812	34.50
0.09478	34.52
0.11145	34.52
0.12812	34.52
0.14478	34.51
0.16145	34.51
0.17812	34.52
0.19478	34.51
0.21145	34.52
0.22812	34.52
0.24478	34.52
0.26145	34.52
0.27812	34.51
0.29478	34.52
0.31145	34.52
0.32812	34.52
0.34478	34.52
0.36145	34.51
0.37812	34.52
0.39478	34.52
0.41145	34.53
0.42812	34.52
0.44478	34.51
0.46145	34.52
0.47812	34.52
0.49478	34.51
0.51145	34.52
0.52812	34.52
0.54478	34.52
0.56145	34.52
0.57812	34.52
0.59478	34.51
0.61145	34.52
0.62812	34.51
0.64478	34.52
0.66145	34.52
0.67812	34.52
0.69478	34.52
0.71145	34.52
0.72812	34.52
0.74478	34.52
0.76145	34.52
0.77812	34.51
0.79478	34.52
0.81145	34.52
0.82812	34.52
0.84478	34.52
0.86145	34.51
0.87812	34.52
0.89478	34.52
0.91145	34.52
0.92812	34.52
0.94478	34.52
0.96145	34.52
0.97812	34.52
0.99478	34.52
1.01145	34.52
1.02812	34.52
1.04478	34.52
1.06145	34.52
1.07812	34.52
1.09478	34.52
1.11145	34.52
1.12812	34.52
1.14478	34.52
1.16145	34.52
1.17812	34.52
1.19478	34.52
1.21145	34.51
1.22812	34.52
1.24478	34.52
1.26145	34.52
1.27812	34.51
1.29478	34.52
1.31145	34.52
1.32812	34.52
1.34478	34.52
1.36145	34.52
1.37812	34.52
1.39478	34.52
1.41145	34.52
1.42812	34.52
1.44478	34.52
1.46145	34.52
1.47812	34.52
1.49478	34.52
1.51145	34.52
1.52812	34.52
1.54478	34.52
1.56145	34.52
1.57812	34.52
1.59478	34.52
1.61145	34.52
1.62812	34.52
1.64478	34.52
1.66145	34.52
1.67812	34.52
1.69478	34.52
1.71145	34.52
1.72812	34.52
1.74478	34.52
1.76145	34.52
1.77812	34.52
1.79478	34.52
1.81145	34.52
1.82812	34.52
1.84478	34.52
1.86145	34.52
1.87812	34.52
1.89478	34.52
1.91145	34.52
1.92812	34.52
1.94478	34.52
1.96145	34.52
1.97812	34.52
1.99478	34.52
2.01145	34.52
2.02812	34.52
2.04478	34.52
2.06145	34.52
2.07812	34.52
2.09478	34.52
2.11145	34.52
2.12812	34.52
2.14478	34.52
2.16145	34.52
2.17812	34.52
2.19478	34.52
2.21145	34.52
2.22812	34.52
2.24478	34.52
2.26145	34.52
2.27812	34.52
2.29478	34.52
2.31145	34.52
2.32812	34.52
2.34478	34.52
2.36145	34.52
2.37812	34.52
2.39478	34.53
2.41145	34.52
2.42812	34.52
2.44478	34.52
2.46145	34.52
2.47812	34.52
2.49478	34.52
2.51145	34.52
2.52812	34.52
2.54478	34.52
2.56145	34.52
2.57812	34.52
2.59478	34.52
2.61145	34.52
2.62812	34.52
2.64478	34.52
2.66145	34.52
2.67812	34.52
2.69478	34.52
2.71145	34.52
2.72812	34.52
2.74478	34.52
2.76145	34.52
2.77812	34.52
2.79478	34.52
2.81145	34.52
2.82812	34.52
2.84478	34.52
2.86145	34.52
2.87812	34.52
2.89478	34.52
2.91145	34.52
2.92812	34.52
2.94478	34.52
2.96145	34.52
2.97812	34.52
2.99478	34.52
3.01145	34.52
3.02812	34.52
3.04478	34.52
3.06145	34.52
3.07812	34.52
3.09478	34.52
3.11145	34.52
3.12812	34.52
3.14478	34.52
3.16145	34.52
3.17812	34.52
3.19478	34.51
3.21145	34.52
3.22812	34.52
3.24478	34.51
3.26145	34.51
3.27812	34.52
3.29478	34.52
3.31145	34.52
3.32812	34.52
3.34478	34.52
3.36145	34.52
3.37812	34.50
3.39478	34.52
3.41145	34.53
3.42812	34.52
3.44478	34.52
3.46145	34.51
3.47812	34.52
3.49478	34.52
3.51145	34.52
3.52812	34.52
3.54478	34.52
3.56145	34.51
3.57812	34.52
3.59478	34.52
3.61145	34.52
3.62812	34.53
3.64478	34.51
3.66145	34.52
3.67812	34.52
3.69478	34.52
3.71145	34.52
3.72812	34.52
3.74478	34.52
3.76145	34.51
3.77812	34.52
3.79478	34.52
3.81145	34.52
3.82812	34.52
3.84478	34.52
3.86145	34.52
3.87812	34.52
3.89478	34.52
3.91145	34.52
3.92812	34.52
3.94478	34.52
3.96145	34.52
3.97812	34.52
3.99478	34.52

[Status Trace (Column Flow)]
Interval(msec)	1000
# of Points	240
Start Time(min)	0.011
End Time(min)	3.995
Intensity Units	
Intensity Multiplier	1
R.Time (min)	Intensity
0.01145	5.53
0.02812	5.18
0.04478	5.48
0.06145	5.72
0.07812	5.66
0.09478	5.53
0.11145	5.53
0.12812	5.53
0.14478	5.53
0.16145	5.53
0.17812	5.53
0.19478	5.53
0.21145	5.53
0.22812	5.53
0.24478	5.53
0.26145	5.53
0.27812	5.53
0.29478	5.53
0.31145	5.53
0.32812	5.53
0.34478	5.53
0.36145	5.53
0.37812	5.53
0.39478	5.53
0.41145	5.53
0.42812	5.53
0.44478	5.53
0.46145	5.53
0.47812	5.53
0.49478	5.53
0.51145	5.53
0.52812	5.53
0.54478	5.53
0.56145	5.53
0.57812	5.53
0.59478	5.53
0.61145	5.53
0.62812	5.53
0.64478	5.53
0.66145	5.53
0.67812	5.53
0.69478	5.53
0.71145	5.53
0.72812	5.53
0.74478	5.53
0.76145	5.53
0.77812	5.53
0.79478	5.53
0.81145	5.53
0.82812	5.53
0.84478	5.53
0.86145	5.53
0.87812	5.53
0.89478	5.53
0.91145	5.53
0.92812	5.53
0.94478	5.53
0.96145	5.53
0.97812	5.53
0.99478	5.53
1.01145	5.53
1.02812	5.53
1.04478	5.53
1.06145	5.53
1.07812	5.53
1.09478	5.53
1.11145	5.53
1.12812	5.53
1.14478	5.53
1.16145	5.53
1.17812	5.53
1.19478	5.53
1.21145	5.53
1.22812	5.53
1.24478	5.53
1.26145	5.53
1.27812	5.53
1.29478	5.53
1.31145	5.53
1.32812	5.53
1.34478	5.53
1.36145	5.53
1.37812	5.53
1.39478	5.53
1.41145	5.53
1.42812	5.53
1.44478	5.53
1.46145	5.53
1.47812	5.53
1.49478	5.53
1.51145	5.53
1.52812	5.53
1.54478	5.53
1.56145	5.53
1.57812	5.53
1.59478	5.53
1.61145	5.53
1.62812	5.52
1.64478	5.52
1.66145	5.51
1.67812	5.50
1.69478	5.49
1.71145	5.48
1.72812	5.47
1.74478	5.45
1.76145	5.44
1.77812	5.43
1.79478	5.42
1.81145	5.41
1.82812	5.40
1.84478	5.39
1.86145	5.38
1.87812	5.37
1.89478	5.36
1.91145	5.35
1.92812	5.34
1.94478	5.33
1.96145	5.32
1.97812	5.32
1.99478	5.30
2.01145	5.29
2.02812	5.29
2.04478	5.28
2.06145	5.27
2.07812	5.26
2.09478	5.25
2.11145	5.24
2.12812	5.23
2.14478	5.22
2.16145	5.21
2.17812	5.20
2.19478	5.19
2.21145	5.18
2.22812	5.17
2.24478	5.16
2.26145	5.15
2.27812	5.14
2.29478	5.13
2.31145	5.12
2.32812	5.12
2.34478	5.11
2.36145	5.10
2.37812	5.09
2.39478	5.09
2.41145	5.09
2.42812	5.09
2.44478	5.09
2.46145	5.09
2.47812	5.09
2.49478	5.09
2.51145	5.09
2.52812	5.09
2.54478	5.09
2.56145	5.09
2.57812	5.09
2.59478	5.09
2.61145	5.09
2.62812	5.09
2.64478	5.09
2.66145	5.09
2.67812	5.09
2.69478	5.09
2.71145	5.09
2.72812	5.09
2.74478	5.09
2.76145	5.09
2.77812	5.09
2.79478	5.09
2.81145	5.09
2.82812	5.09
2.84478	5.09
2.86145	5.09
2.87812	5.09
2.89478	5.09
2.91145	5.09
2.92812	5.09
2.94478	5.09
2.96145	5.09
2.97812	5.08
2.99478	5.08
3.01145	5.08
3.02812	5.08
3.04478	5.08
3.06145	5.08
3.07812	5.08
3.09478	5.08
3.11145	5.08
3.12812	5.08
3.14478	5.08
3.16145	5.08
3.17812	5.08
3.19478	5.08
3.21145	5.08
3.22812	5.08
3.24478	5.08
3.26145	5.08
3.27812	5.08
3.29478	5.08
3.31145	5.08
3.32812	5.08
3.34478	5.08
3.36145	5.08
3.37812	5.08
3.39478	5.08
3.41145	5.08
3.42812	5.08
3.44478	5.09
3.46145	5.09
3.47812	5.09
3.49478	5.09
3.51145	5.08
3.52812	5.08
3.54478	5.08
3.56145	5.08
3.57812	5.08
3.59478	5.08
3.61145	5.08
3.62812	5.08
3.64478	5.08
3.66145	5.08
3.67812	5.08
3.69478	5.08
3.71145	5.08
3.72812	5.08
3.74478	5.08
3.76145	5.08
3.77812	5.08
3.79478	5.08
3.81145	5.08
3.82812	5.08
3.84478	5.08
3.86145	5.08
3.87812	5.08
3.89478	5.08
3.91145	5.08
3.92812	5.08
3.94478	5.08
3.96145	5.08
3.97812	5.08
3.99478	5.08

[Status Trace (Linear Velocity)]
Interval(msec)	1000
# of Points	240
Start Time(min)	0.011
End Time(min)	3.995
Intensity Units	
Intensity Multiplier	1
R.Time (min)	Intensity
0.01145	39.02
0.02812	37.06
0.04478	38.72
0.06145	40.08
0.07812	39.76
0.09478	39.02
0.11145	39.01
0.12812	39.02
0.14478	39.02
0.16145	39.02
0.17812	39.01
0.19478	39.02
0.21145	39.02
0.22812	39.02
0.24478	39.02
0.26145	39.02
0.27812	39.02
0.29478	39.02
0.31145	39.02
0.32812	39.02
0.34478	39.02
0.36145	39.02
0.37812	39.02
0.39478	39.02
0.41145	39.02
0.42812	39.02
0.44478	39.02
0.46145	39.02
0.47812	39.02
0.49478	39.02
0.51145	39.02
0.52812	39.02
0.54478	39.02
0.56145	39.02
0.57812	39.02
0.59478	39.02
0.61145	39.02
0.62812	39.02
0.64478	39.02
0.66145	39.02
0.67812	39.02
0.69478	39.02
0.71145	39.02
0.72812	39.02
0.74478	39.02
0.76145	39.02
0.77812	39.02
0.79478	39.02
0.81145	39.02
0.82812	39.02
0.84478	39.02
0.86145	39.02
0.87812	39.02
0.89478	39.02
0.91145	39.02
0.92812	39.02
0.94478	39.02
0.96145	39.02
0.97812	39.02
0.99478	39.02
1.01145	39.02
1.02812	39.02
1.04478	39.02
1.06145	39.02
1.07812	39.02
1.09478	39.02
1.11145	39.02
1.12812	39.02
1.14478	39.02
1.16145	39.02
1.17812	39.02
1.19478	39.02
1.21145	39.02
1.22812	39.02
1.24478	39.02
1.26145	39.02
1.27812	39.02
1.29478	39.02
1.31145	39.02
1.32812	39.02
1.34478	39.02
1.36145	39.02
1.37812	39.02
1.39478	39.02
1.41145	39.02
1.42812	39.02
1.44478	39.02
1.46145	39.02
1.47812	39.02
1.49478	39.02
1.51145	39.02
1.52812	39.02
1.54478	39.02
1.56145	39.02
1.57812	39.02
1.59478	39.02
1.61145	39.01
1.62812	39.00
1.64478	38.98
1.66145	38.96
1.67812	38.93
1.69478	38.89
1.71145	38.85
1.72812	38.83
1.74478	38.79
1.76145	38.76
1.77812	38.73
1.79478	38.70
1.81145	38.66
1.82812	38.63
1.84478	38.60
1.86145	38.57
1.87812	38.54
1.89478	38.51
1.91145	38.48
1.92812	38.45
1.94478	38.42
1.96145	38.39
1.97812	38.36
1.99478	38.33
2.01145	38.30
2.02812	38.27
2.04478	38.24
2.06145	38.21
2.07812	38.18
2.09478	38.15
2.11145	38.12
2.12812	38.09
2.14478	38.06
2.16145	38.03
2.17812	38.00
2.19478	37.97
2.21145	37.94
2.22812	37.91
2.24478	37.88
2.26145	37.85
2.27812	37.82
2.29478	37.79
2.31145	37.76
2.32812	37.73
2.34478	37.70
2.36145	37.68
2.37812	37.66
2.39478	37.66
2.41145	37.66
2.42812	37.66
2.44478	37.66
2.46145	37.66
2.47812	37.66
2.49478	37.66
2.51145	37.65
2.52812	37.64
2.54478	37.65
2.56145	37.65
2.57812	37.65
2.59478	37.65
2.61145	37.65
2.62812	37.65
2.64478	37.65
2.66145	37.65
2.67812	37.65
2.69478	37.65
2.71145	37.65
2.72812	37.65
2.74478	37.65
2.76145	37.65
2.77812	37.65
2.79478	37.65
2.81145	37.64
2.82812	37.64
2.84478	37.64
2.86145	37.64
2.87812	37.64
2.89478	37.64
2.91145	37.64
2.92812	37.64
2.94478	37.64
2.96145	37.64
2.97812	37.63
2.99478	37.63
3.01145	37.63
3.02812	37.63
3.04478	37.63
3.06145	37.63
3.07812	37.63
3.09478	37.63
3.11145	37.63
3.12812	37.63
3.14478	37.63
3.16145	37.63
3.17812	37.63
3.19478	37.63
3.21145	37.63
3.22812	37.63
3.24478	37.62
3.26145	37.62
3.27812	37.63
3.29478	37.63
3.31145	37.63
3.32812	37.63
3.34478	37.63
3.36145	37.63
3.37812	37.63
3.39478	37.63
3.41145	37.63
3.42812	37.63
3.44478	37.63
3.46145	37.64
3.47812	37.63
3.49478	37.63
3.51145	37.63
3.52812	37.63
3.54478	37.63
3.56145	37.63
3.57812	37.63
3.59478	37.63
3.61145	37.63
3.62812	37.63
3.64478	37.63
3.66145	37.63
3.67812	37.63
3.69478	37.63
3.71145	37.63
3.72812	37.63
3.74478	37.63
3.76145	37.63
3.77812	37.63
3.79478	37.63
3.81145	37.63
3.82812	37.63
3.84478	37.63
3.86145	37.63
3.87812	37.63
3.89478	37.63
3.91145	37.63
3.92812	37.63
3.94478	37.63
3.96145	37.63
3.97812	37.63
3.99478	37.63

