[Header]
Application Name	LabSolutions
Version	5.110
Data File Name	C:\Users\User\Desktop\GC Analyses\Jack\UIC Prairie Sampling\8.12.22\220812_054.gcd
Output Date	10/14/2022
Output Time	2:33:53 PM

[File Information]
Type	Data File
Generated	10/11/2022 11:09:51 AM
Generated by	System Administrator
Modified	10/11/2022 11:14:23 AM
Modified by	System Administrator

[Sample Information]
Operator Name	System Administrator
Acquired	10/11/2022 11:10:22 AM
Sample Type	1:Standard
Level	1
Sample Name	220812_UICPrairie
Sample ID	220812_UICPrairie
ISTD Amount1	1
ISTD Amount2	1
ISTD Amount3	1
ISTD Amount4	1
ISTD Amount5	1
ISTD Amount6	1
ISTD Amount7	1
ISTD Amount8	1
ISTD Amount9	1
ISTD Amount10	1
ISTD Amount11	1
ISTD Amount12	1
ISTD Amount13	1
ISTD Amount14	1
ISTD Amount15	1
ISTD Amount16	1
ISTD Amount17	1
ISTD Amount18	1
ISTD Amount19	1
ISTD Amount20	1
ISTD Amount21	1
ISTD Amount22	1
ISTD Amount23	1
ISTD Amount24	1
ISTD Amount25	1
ISTD Amount26	1
ISTD Amount27	1
ISTD Amount28	1
ISTD Amount29	1
ISTD Amount30	1
ISTD Amount31	1
ISTD Amount32	1
Sample Amount	1
Dilution Factor	1
Vial#	1
Injection Volume	1
Injection Count	1
Bar Code	

[Original Files]
Data File	C:\Users\User\Desktop\GC Analyses\Jack\UIC Prairie Sampling\8.12.22\220812_054.gcd
Method File	C:\LabSolutions\Data\GHG_4min_2022\ghg3_togas_w_acet_4 min_new_int.gcm
Batch File	
Report Format File	c:\LabSolutions\System\DEFAULT.lsr

[File Description]


[Configuration]
Instrument Name	C0B7VH3-Instrument1
Instrument #	1
Line #	1
# of Detectors	3
Detector ID	DET#1	DET#2	DET#3
Detector Name	FID	PTCD	ECD
# of Channels	1	1	1

[Peak Table(Ch1)]
# of Peaks	3
Peak#	R.Time	I.Time	F.Time	Area	Height	A/H	Conc.	Mark	ID#	Name	k'	Plate #	Plate Ht.	Tailing	Resolution	Sep.Factor	Area Ratio	Height Ratio	Conc. %	Norm Conc.
1	1.476	1.435	1.538	10732	4634	2.316	100.000	   	1	CO	0.000	7942	18.886	1.251	0.000	0.000	0	0	16.667	16.667
2	1.571	1.538	1.641	4491	2273	1.975	100.000	 V 	2	CH4	0.065	11559	12.977	1.097	1.529	0.000	0	0	16.667	16.667
3	2.000	1.952	2.323	1372325	666715	2.058	400.000	   	3	CO2	0.355	17847	8.405	1.159	7.251	5.500	0	0	66.667	66.667

[Peak Table(Ch2)]
# of Peaks	0

[Peak Table(Ch3)]
# of Peaks	5
Peak#	R.Time	I.Time	F.Time	Area	Height	A/H	Conc.	Mark	ID#	Name	k'	Plate #	Plate Ht.	Tailing	Resolution	Sep.Factor	Area Ratio	Height Ratio	Conc. %	Norm Conc.
1	0.838	0.332	1.388	578	20	29.007	0.000	   			0.000	697	215.099	1.047	0.000	0.000	0	0	0.000	0.000
2	2.110	2.066	2.381	121	13	9.148	0.000	   			1.519	27191	5.516	3.824	14.291	0.000	0	0	0.000	0.000
3	2.609	2.546	2.649	3482	796	4.375	0.000	   			2.114	1802	83.222	0.000	3.358	1.392	0	0	0.000	0.000
4	2.788	2.649	2.818	7676	789	9.727	0.149	 V 	1	N2O	2.329	44	3382.468	0.000	0.187	1.101	0	0	14.899	14.899
5	2.880	2.818	3.943	43845	5750	7.626	0.851	 V 	1	N2O	2.438	10611	14.136	0.000	0.103	1.047	0	0	85.101	85.101

[Compound Results(Ch1)]
# of IDs	6
ID#	Name	R.Time	Area	Height	Conc.	Curve	3rd	2nd	1st	Constant	Area Ratio	Height Ratio	Conc. %	Norm Conc.
1	CO	1.476	10732	4634	100.000	Linear	0.000000e+00	0.000000e+00	1.073158e+002	0.000000e+00	0	0	16.667	16.667
2	CH4	1.571	4491	2273	100.000	Linear	0.000000e+00	0.000000e+00	4.490590e+001	0.000000e+00	0	0	16.667	16.667
3	CO2	2.000	1372325	666715	400.000	Linear	0.000000e+00	0.000000e+00	3.430812e+003	0.000000e+00	0	0	66.667	66.667
4	Ethylene	0.000	0	0	0.000	Linear	0.000000e+00	0.000000e+00	0.000000e+00	0.000000e+00	0	0	0.000	0.000
5	Acetylene	0.000	0	0	0.000	Linear	0.000000e+00	0.000000e+00	0.000000e+00	0.000000e+00	0	0	0.000	0.000
6	Ethane	0.000	0	0	0.000	Linear	0.000000e+00	0.000000e+00	0.000000e+00	0.000000e+00	0	0	0.000	0.000

[Compound Results(Ch2)]
# of IDs	5
ID#	Name	R.Time	Area	Height	Conc.	Curve	3rd	2nd	1st	Constant	Area Ratio	Height Ratio	Conc. %	Norm Conc.
1	Hydrogen	0.000	0	0	0.000	Linear	0.000000e+00	0.000000e+00	0.000000e+00	0.000000e+00	0	0	0.000	0.000
2	Oxygen	0.000	0	0	0.000	Linear	0.000000e+00	0.000000e+00	0.000000e+00	0.000000e+00	0	0	0.000	0.000
3	Nitrogen	0.000	0	0	0.000	Linear	0.000000e+00	0.000000e+00	0.000000e+00	0.000000e+00	0	0	0.000	0.000
4	Methane	0.000	0	0	0.000	Linear	0.000000e+00	0.000000e+00	0.000000e+00	0.000000e+00	0	0	0.000	0.000
5	Carbon Monoxide	0.000	0	0	0.000	Linear	0.000000e+00	0.000000e+00	0.000000e+00	0.000000e+00	0	0	0.000	0.000

[Compound Results(Ch3)]
# of IDs	2
ID#	Name	R.Time	Area	Height	Conc.	Curve	3rd	2nd	1st	Constant	Area Ratio	Height Ratio	Conc. %	Norm Conc.
1	N2O	2.880	51521	6539	1.000	Linear	0.000000e+00	0.000000e+00	5.152134e+004	0.000000e+00	0	0	100.000	100.000
2	SF6	0.000	0	0	0.000	Linear	0.000000e+00	0.000000e+00	0.000000e+00	0.000000e+00	0	0	0.000	0.000

[Group Results(Ch1)]
# of Groups	0

[Group Results(Ch2)]
# of Groups	0

[Group Results(Ch3)]
# of Groups	0

[Chromatogram (Ch1)]
Interval(msec)	220
# of Points	1091
Start Time(min)	0.002
End Time(min)	3.998
R.Time (min)	Intensity
0.00167	-1
0.00533	-2
0.00900	-0
0.01267	3
0.01633	6
0.02000	6
0.02367	3
0.02733	-2
0.03100	-7
0.03467	-8
0.03833	-5
0.04200	-1
0.04567	2
0.04933	2
0.05300	-3
0.05667	-10
0.06033	-12
0.06400	-9
0.06767	-5
0.07133	0
0.07500	6
0.07867	7
0.08233	6
0.08600	3
0.08967	1
0.09333	2
0.09700	2
0.10067	1
0.10433	-3
0.10800	-9
0.11167	-14
0.11533	-14
0.11900	-11
0.12267	-8
0.12633	-8
0.13000	-8
0.13367	-9
0.13733	-10
0.14100	-13
0.14467	-15
0.14833	-15
0.15200	-16
0.15567	-17
0.15933	-14
0.16300	-8
0.16667	-4
0.17033	-5
0.17400	-10
0.17767	-16
0.18133	-20
0.18500	-17
0.18867	-7
0.19233	5
0.19600	12
0.19967	12
0.20333	6
0.20700	-0
0.21067	-3
0.21433	-6
0.21800	-10
0.22167	-13
0.22533	-17
0.22900	-19
0.23267	-20
0.23633	-20
0.24000	-19
0.24367	-17
0.24733	-15
0.25100	-14
0.25467	-16
0.25833	-20
0.26200	-22
0.26567	-26
0.26933	-29
0.27300	-30
0.27667	-30
0.28033	-28
0.28400	-28
0.28767	-30
0.29133	-30
0.29500	-26
0.29867	-22
0.30233	-18
0.30600	-14
0.30967	-10
0.31333	-8
0.31700	-10
0.32067	-15
0.32433	-21
0.32800	-25
0.33167	-28
0.33533	-29
0.33900	-26
0.34267	-22
0.34633	-17
0.35000	-15
0.35367	-16
0.35733	-21
0.36100	-27
0.36467	-31
0.36833	-30
0.37200	-24
0.37567	-16
0.37933	-11
0.38300	-13
0.38667	-19
0.39033	-28
0.39400	-37
0.39767	-43
0.40133	-44
0.40500	-45
0.40867	-44
0.41233	-42
0.41600	-37
0.41967	-32
0.42333	-21
0.42700	-9
0.43067	-2
0.43433	-4
0.43800	-13
0.44167	-27
0.44533	-39
0.44900	-46
0.45267	-49
0.45633	-47
0.46000	-43
0.46367	-40
0.46733	-42
0.47100	-46
0.47467	-47
0.47833	-45
0.48200	-40
0.48567	-33
0.48933	-30
0.49300	-31
0.49667	-36
0.50033	-39
0.50400	-38
0.50767	-37
0.51133	-37
0.51500	-41
0.51867	-46
0.52233	-50
0.52600	-51
0.52967	-53
0.53333	-54
0.53700	-55
0.54067	-57
0.54433	-58
0.54800	-57
0.55167	-54
0.55533	-50
0.55900	-47
0.56267	-47
0.56633	-47
0.57000	-48
0.57367	-49
0.57733	-48
0.58100	-46
0.58467	-46
0.58833	-45
0.59200	-42
0.59567	-40
0.59933	-42
0.60300	-45
0.60667	-44
0.61033	-39
0.61400	-31
0.61767	-26
0.62133	-27
0.62500	-31
0.62867	-35
0.63233	-36
0.63600	-39
0.63967	-44
0.64333	-48
0.64700	-53
0.65067	-62
0.65433	-72
0.65800	-77
0.66167	-78
0.66533	-76
0.66900	-72
0.67267	-66
0.67633	-61
0.68000	-56
0.68367	-53
0.68733	-54
0.69100	-54
0.69467	-53
0.69833	-54
0.70200	-58
0.70567	-62
0.70933	-67
0.71300	-72
0.71667	-75
0.72033	-77
0.72400	-77
0.72767	-75
0.73133	-71
0.73500	-68
0.73867	-66
0.74233	-62
0.74600	-59
0.74967	-57
0.75333	-55
0.75700	-57
0.76067	-60
0.76433	-64
0.76800	-66
0.77167	-67
0.77533	-65
0.77900	-63
0.78267	-58
0.78633	-56
0.79000	-56
0.79367	-60
0.79733	-64
0.80100	-70
0.80467	-77
0.80833	-80
0.81200	-79
0.81567	-75
0.81933	-70
0.82300	-66
0.82667	-61
0.83033	-59
0.83400	-61
0.83767	-68
0.84133	-76
0.84500	-83
0.84867	-86
0.85233	-89
0.85600	-91
0.85967	-91
0.86333	-91
0.86700	-91
0.87067	-92
0.87433	-90
0.87800	-86
0.88167	-81
0.88533	-78
0.88900	-75
0.89267	-71
0.89633	-68
0.90000	-65
0.90367	-62
0.90733	-57
0.91100	-56
0.91467	-60
0.91833	-66
0.92200	-70
0.92567	-74
0.92933	-76
0.93300	-73
0.93667	-72
0.94033	-75
0.94400	-77
0.94767	-75
0.95133	-73
0.95500	-71
0.95867	-71
0.96233	-74
0.96600	-77
0.96967	-81
0.97333	-85
0.97700	-86
0.98067	-89
0.98433	-92
0.98800	-94
0.99167	-92
0.99533	-89
0.99900	-88
1.00267	-87
1.00633	-85
1.01000	-82
1.01367	-79
1.01733	-75
1.02100	-72
1.02467	-71
1.02833	-71
1.03200	-68
1.03567	-65
1.03933	-66
1.04300	-76
1.04667	-88
1.05033	-96
1.05400	-99
1.05767	-97
1.06133	-93
1.06500	-88
1.06867	-86
1.07233	-84
1.07600	-83
1.07967	-83
1.08333	-84
1.08700	-89
1.09067	-95
1.09433	-96
1.09800	-92
1.10167	-87
1.10533	-83
1.10900	-83
1.11267	-85
1.11633	-89
1.12000	-94
1.12367	-96
1.12733	-99
1.13100	-101
1.13467	-102
1.13833	-103
1.14200	-101
1.14567	-98
1.14933	-95
1.15300	-90
1.15667	-84
1.16033	-79
1.16400	-76
1.16767	-76
1.17133	-78
1.17500	-82
1.17867	-85
1.18233	-86
1.18600	-85
1.18967	-88
1.19333	-98
1.19700	-107
1.20067	-113
1.20433	-116
1.20800	-116
1.21167	-112
1.21533	-103
1.21900	-96
1.22267	-92
1.22633	-92
1.23000	-94
1.23367	-97
1.23733	-98
1.24100	-99
1.24467	-101
1.24833	-99
1.25200	-95
1.25567	-92
1.25933	-91
1.26300	-91
1.26667	-94
1.27033	-100
1.27400	-106
1.27767	-108
1.28133	-108
1.28500	-108
1.28867	-106
1.29233	-104
1.29600	-104
1.29967	-104
1.30333	-104
1.30700	-102
1.31067	-102
1.31433	-101
1.31800	-97
1.32167	-96
1.32533	-99
1.32900	-103
1.33267	-107
1.33633	-112
1.34000	-116
1.34367	-119
1.34733	-120
1.35100	-121
1.35467	-119
1.35833	-114
1.36200	-106
1.36567	-96
1.36933	-91
1.37300	-92
1.37667	-95
1.38033	-98
1.38400	-102
1.38767	-106
1.39133	-109
1.39500	-110
1.39867	-110
1.40233	-111
1.40600	-113
1.40967	-114
1.41333	-115
1.41700	-118
1.42067	-121
1.42433	-122
1.42800	-123
1.43167	-125
1.43533	-123
1.43900	-104
1.44267	-16
1.44633	218
1.45000	617
1.45367	1184
1.45733	1915
1.46100	2708
1.46467	3429
1.46833	3992
1.47200	4357
1.47567	4509
1.47933	4425
1.48300	4095
1.48667	3561
1.49033	2919
1.49400	2273
1.49767	1698
1.50133	1230
1.50500	868
1.50867	598
1.51233	401
1.51600	259
1.51967	157
1.52333	84
1.52700	30
1.53067	-11
1.53433	-41
1.53800	-57
1.54167	-30
1.54533	99
1.54900	377
1.55267	780
1.55633	1224
1.56000	1620
1.56367	1921
1.56733	2104
1.57100	2144
1.57467	2013
1.57833	1729
1.58200	1362
1.58567	990
1.58933	667
1.59300	412
1.59667	223
1.60033	91
1.60400	4
1.60767	-49
1.61133	-80
1.61500	-95
1.61867	-101
1.62233	-102
1.62600	-104
1.62967	-108
1.63333	-113
1.63700	-122
1.64067	-133
1.64433	-141
1.64800	-144
1.65167	-144
1.65533	-143
1.65900	-141
1.66267	-139
1.66633	-138
1.67000	-138
1.67367	-138
1.67733	-137
1.68100	-136
1.68467	-138
1.68833	-137
1.69200	-134
1.69567	-131
1.69933	-127
1.70300	-121
1.70667	-114
1.71033	-107
1.71400	-105
1.71767	-113
1.72133	-126
1.72500	-139
1.72867	-149
1.73233	-157
1.73600	-159
1.73967	-157
1.74333	-155
1.74700	-155
1.75067	-153
1.75433	-150
1.75800	-147
1.76167	-146
1.76533	-145
1.76900	-144
1.77267	-142
1.77633	-141
1.78000	-143
1.78367	-147
1.78733	-149
1.79100	-149
1.79467	-146
1.79833	-144
1.80200	-143
1.80567	-143
1.80933	-141
1.81300	-138
1.81667	-136
1.82033	-138
1.82400	-140
1.82767	-140
1.83133	-137
1.83500	-130
1.83867	-122
1.84233	-118
1.84600	-117
1.84967	-121
1.85333	-125
1.85700	-128
1.86067	-129
1.86433	-129
1.86800	-127
1.87167	-127
1.87533	-130
1.87900	-134
1.88267	-136
1.88633	-137
1.89000	-137
1.89367	-139
1.89733	-142
1.90100	-144
1.90467	-146
1.90833	-142
1.91200	-137
1.91567	-134
1.91933	-131
1.92300	-128
1.92667	-125
1.93033	-127
1.93400	-136
1.93767	-150
1.94133	-162
1.94500	-170
1.94867	-173
1.95233	-161
1.95600	-86
1.95967	339
1.96333	2372
1.96700	9922
1.97067	31378
1.97433	78605
1.97800	160294
1.98167	273168
1.98533	400660
1.98900	520612
1.99267	613053
1.99633	663993
2.00000	666582
2.00367	622612
2.00733	542681
2.01100	443499
2.01467	342461
2.01833	252394
2.02200	179527
2.02567	124586
2.02933	85182
2.03300	57881
2.03667	39388
2.04033	27031
2.04400	18823
2.04767	13371
2.05133	9726
2.05500	7260
2.05867	5564
2.06233	4372
2.06600	3516
2.06967	2889
2.07333	2424
2.07700	2072
2.08067	1799
2.08433	1585
2.08800	1411
2.09167	1267
2.09533	1141
2.09900	1027
2.10267	929
2.10633	846
2.11000	773
2.11367	712
2.11733	661
2.12100	617
2.12467	577
2.12833	542
2.13200	512
2.13567	486
2.13933	463
2.14300	441
2.14667	419
2.15033	398
2.15400	379
2.15767	362
2.16133	345
2.16500	326
2.16867	310
2.17233	299
2.17600	288
2.17967	276
2.18333	262
2.18700	250
2.19067	242
2.19433	235
2.19800	229
2.20167	221
2.20533	211
2.20900	203
2.21267	198
2.21633	194
2.22000	191
2.22367	186
2.22733	177
2.23100	168
2.23467	159
2.23833	148
2.24200	138
2.24567	130
2.24933	122
2.25300	117
2.25667	116
2.26033	118
2.26400	119
2.26767	118
2.27133	114
2.27500	110
2.27867	109
2.28233	108
2.28600	106
2.28967	100
2.29333	91
2.29700	84
2.30067	82
2.30433	80
2.30800	74
2.31167	69
2.31533	66
2.31900	65
2.32267	62
2.32633	56
2.33000	49
2.33367	44
2.33733	44
2.34100	49
2.34467	55
2.34833	57
2.35200	59
2.35567	60
2.35933	59
2.36300	57
2.36667	57
2.37033	57
2.37400	59
2.37767	61
2.38133	61
2.38500	61
2.38867	62
2.39233	66
2.39600	69
2.39967	69
2.40333	65
2.40700	61
2.41067	57
2.41433	53
2.41800	48
2.42167	43
2.42533	44
2.42900	50
2.43267	58
2.43633	65
2.44000	68
2.44367	66
2.44733	63
2.45100	62
2.45467	64
2.45833	65
2.46200	62
2.46567	55
2.46933	46
2.47300	36
2.47667	28
2.48033	24
2.48400	24
2.48767	24
2.49133	26
2.49500	32
2.49867	39
2.50233	44
2.50600	47
2.50967	46
2.51333	42
2.51700	36
2.52067	32
2.52433	29
2.52800	25
2.53167	23
2.53533	24
2.53900	27
2.54267	33
2.54633	35
2.55000	35
2.55367	30
2.55733	25
2.56100	23
2.56467	20
2.56833	19
2.57200	16
2.57567	11
2.57933	8
2.58300	6
2.58667	7
2.59033	11
2.59400	14
2.59767	16
2.60133	20
2.60500	25
2.60867	25
2.61233	23
2.61600	19
2.61967	15
2.62333	15
2.62700	20
2.63067	27
2.63433	31
2.63800	33
2.64167	32
2.64533	32
2.64900	30
2.65267	26
2.65633	18
2.66000	6
2.66367	-7
2.66733	-18
2.67100	-25
2.67467	-28
2.67833	-27
2.68200	-23
2.68567	-17
2.68933	-13
2.69300	-8
2.69667	-3
2.70033	1
2.70400	5
2.70767	7
2.71133	7
2.71500	6
2.71867	3
2.72233	-2
2.72600	-4
2.72967	-4
2.73333	-0
2.73700	4
2.74067	6
2.74433	7
2.74800	10
2.75167	12
2.75533	9
2.75900	7
2.76267	10
2.76633	13
2.77000	12
2.77367	5
2.77733	-5
2.78100	-16
2.78467	-21
2.78833	-22
2.79200	-22
2.79567	-20
2.79933	-17
2.80300	-15
2.80667	-14
2.81033	-9
2.81400	-3
2.81767	1
2.82133	1
2.82500	-2
2.82867	-9
2.83233	-15
2.83600	-15
2.83967	-13
2.84333	-11
2.84700	-7
2.85067	-5
2.85433	-6
2.85800	-7
2.86167	-7
2.86533	-4
2.86900	-2
2.87267	-3
2.87633	-8
2.88000	-15
2.88367	-18
2.88733	-19
2.89100	-15
2.89467	-7
2.89833	1
2.90200	2
2.90567	-2
2.90933	-7
2.91300	-12
2.91667	-16
2.92033	-18
2.92400	-19
2.92767	-20
2.93133	-20
2.93500	-19
2.93867	-18
2.94233	-17
2.94600	-19
2.94967	-21
2.95333	-23
2.95700	-22
2.96067	-19
2.96433	-15
2.96800	-12
2.97167	-9
2.97533	-10
2.97900	-10
2.98267	-10
2.98633	-15
2.99000	-17
2.99367	-13
2.99733	-7
3.00100	-1
3.00467	-0
3.00833	-1
3.01200	-1
3.01567	-3
3.01933	-7
3.02300	-13
3.02667	-19
3.03033	-25
3.03400	-31
3.03767	-34
3.04133	-38
3.04500	-43
3.04867	-48
3.05233	-47
3.05600	-41
3.05967	-34
3.06333	-31
3.06700	-33
3.07067	-34
3.07433	-32
3.07800	-29
3.08167	-27
3.08533	-25
3.08900	-22
3.09267	-22
3.09633	-26
3.10000	-32
3.10367	-36
3.10733	-37
3.11100	-37
3.11467	-34
3.11833	-30
3.12200	-27
3.12567	-29
3.12933	-31
3.13300	-32
3.13667	-31
3.14033	-27
3.14400	-22
3.14767	-17
3.15133	-13
3.15500	-8
3.15867	-8
3.16233	-13
3.16600	-22
3.16967	-30
3.17333	-32
3.17700	-28
3.18067	-20
3.18433	-13
3.18800	-9
3.19167	-8
3.19533	-11
3.19900	-19
3.20267	-27
3.20633	-34
3.21000	-38
3.21367	-36
3.21733	-35
3.22100	-35
3.22467	-37
3.22833	-36
3.23200	-33
3.23567	-29
3.23933	-24
3.24300	-21
3.24667	-24
3.25033	-31
3.25400	-38
3.25767	-42
3.26133	-44
3.26500	-47
3.26867	-49
3.27233	-51
3.27600	-53
3.27967	-52
3.28333	-48
3.28700	-44
3.29067	-38
3.29433	-36
3.29800	-37
3.30167	-39
3.30533	-40
3.30900	-40
3.31267	-36
3.31633	-33
3.32000	-30
3.32367	-28
3.32733	-26
3.33100	-26
3.33467	-23
3.33833	-21
3.34200	-22
3.34567	-24
3.34933	-27
3.35300	-30
3.35667	-32
3.36033	-33
3.36400	-33
3.36767	-33
3.37133	-35
3.37500	-36
3.37867	-34
3.38233	-29
3.38600	-28
3.38967	-31
3.39333	-34
3.39700	-35
3.40067	-36
3.40433	-37
3.40800	-39
3.41167	-43
3.41533	-47
3.41900	-49
3.42267	-50
3.42633	-49
3.43000	-49
3.43367	-50
3.43733	-51
3.44100	-50
3.44467	-49
3.44833	-50
3.45200	-51
3.45567	-48
3.45933	-42
3.46300	-36
3.46667	-33
3.47033	-30
3.47400	-28
3.47767	-27
3.48133	-26
3.48500	-24
3.48867	-24
3.49233	-27
3.49600	-33
3.49967	-39
3.50333	-44
3.50700	-48
3.51067	-51
3.51433	-53
3.51800	-50
3.52167	-48
3.52533	-47
3.52900	-47
3.53267	-48
3.53633	-45
3.54000	-33
3.54367	-21
3.54733	-17
3.55100	-23
3.55467	-30
3.55833	-36
3.56200	-39
3.56567	-39
3.56933	-42
3.57300	-44
3.57667	-45
3.58033	-44
3.58400	-44
3.58767	-46
3.59133	-46
3.59500	-42
3.59867	-41
3.60233	-41
3.60600	-39
3.60967	-38
3.61333	-36
3.61700	-34
3.62067	-32
3.62433	-34
3.62800	-37
3.63167	-37
3.63533	-35
3.63900	-35
3.64267	-35
3.64633	-37
3.65000	-40
3.65367	-42
3.65733	-42
3.66100	-42
3.66467	-42
3.66833	-40
3.67200	-37
3.67567	-35
3.67933	-34
3.68300	-35
3.68667	-36
3.69033	-37
3.69400	-33
3.69767	-24
3.70133	-19
3.70500	-22
3.70867	-30
3.71233	-37
3.71600	-44
3.71967	-46
3.72333	-45
3.72700	-42
3.73067	-37
3.73433	-32
3.73800	-27
3.74167	-26
3.74533	-28
3.74900	-31
3.75267	-31
3.75633	-26
3.76000	-22
3.76367	-19
3.76733	-21
3.77100	-26
3.77467	-27
3.77833	-24
3.78200	-24
3.78567	-26
3.78933	-30
3.79300	-36
3.79667	-40
3.80033	-43
3.80400	-47
3.80767	-48
3.81133	-47
3.81500	-46
3.81867	-42
3.82233	-38
3.82600	-34
3.82967	-32
3.83333	-32
3.83700	-34
3.84067	-35
3.84433	-33
3.84800	-30
3.85167	-29
3.85533	-29
3.85900	-28
3.86267	-25
3.86633	-21
3.87000	-20
3.87367	-20
3.87733	-21
3.88100	-21
3.88467	-23
3.88833	-23
3.89200	-25
3.89567	-30
3.89933	-36
3.90300	-38
3.90667	-40
3.91033	-42
3.91400	-44
3.91767	-46
3.92133	-44
3.92500	-39
3.92867	-34
3.93233	-29
3.93600	-28
3.93967	-28
3.94333	-27
3.94700	-24
3.95067	-19
3.95433	-15
3.95800	-12
3.96167	-8
3.96533	-6
3.96900	-7
3.97267	-10
3.97633	-14
3.98000	-19
3.98367	-25
3.98733	-33
3.99100	-40
3.99467	-44
3.99833	-47

[Chromatogram (Ch2)]
Interval(msec)	220
# of Points	1091
Start Time(min)	0.002
End Time(min)	3.998
R.Time (min)	Intensity
0.00167	1
0.00533	1
0.00900	0
0.01267	0
0.01633	-0
0.02000	-1
0.02367	-1
0.02733	-2
0.03100	-2
0.03467	-3
0.03833	-3
0.04200	-4
0.04567	-4
0.04933	-4
0.05300	-4
0.05667	-4
0.06033	-4
0.06400	-4
0.06767	-3
0.07133	-3
0.07500	-3
0.07867	-3
0.08233	-3
0.08600	-3
0.08967	-2
0.09333	-2
0.09700	-1
0.10067	-1
0.10433	-0
0.10800	0
0.11167	1
0.11533	1
0.11900	1
0.12267	1
0.12633	1
0.13000	1
0.13367	1
0.13733	1
0.14100	1
0.14467	1
0.14833	1
0.15200	2
0.15567	2
0.15933	2
0.16300	2
0.16667	2
0.17033	2
0.17400	2
0.17767	2
0.18133	2
0.18500	3
0.18867	3
0.19233	3
0.19600	3
0.19967	3
0.20333	2
0.20700	2
0.21067	2
0.21433	2
0.21800	2
0.22167	2
0.22533	2
0.22900	2
0.23267	1
0.23633	1
0.24000	1
0.24367	1
0.24733	0
0.25100	0
0.25467	-0
0.25833	-1
0.26200	-2
0.26567	-2
0.26933	-2
0.27300	-3
0.27667	-3
0.28033	-3
0.28400	-3
0.28767	-3
0.29133	-3
0.29500	-2
0.29867	-2
0.30233	-2
0.30600	-1
0.30967	-1
0.31333	-1
0.31700	-0
0.32067	-0
0.32433	-0
0.32800	-0
0.33167	-0
0.33533	-1
0.33900	-1
0.34267	-1
0.34633	-2
0.35000	-2
0.35367	-3
0.35733	-4
0.36100	-4
0.36467	-5
0.36833	-5
0.37200	-5
0.37567	-5
0.37933	-5
0.38300	-5
0.38667	-5
0.39033	-4
0.39400	-4
0.39767	-4
0.40133	-4
0.40500	-3
0.40867	-3
0.41233	-3
0.41600	-2
0.41967	-2
0.42333	-2
0.42700	-2
0.43067	-2
0.43433	-2
0.43800	-3
0.44167	-3
0.44533	-3
0.44900	-4
0.45267	-4
0.45633	-4
0.46000	-4
0.46367	-4
0.46733	-4
0.47100	-3
0.47467	-3
0.47833	-3
0.48200	-3
0.48567	-3
0.48933	-3
0.49300	-3
0.49667	-3
0.50033	-3
0.50400	-3
0.50767	-2
0.51133	-2
0.51500	-2
0.51867	-2
0.52233	-2
0.52600	-2
0.52967	-2
0.53333	-2
0.53700	-2
0.54067	-2
0.54433	-2
0.54800	-2
0.55167	-2
0.55533	-1
0.55900	-1
0.56267	-1
0.56633	-0
0.57000	-0
0.57367	0
0.57733	0
0.58100	0
0.58467	-0
0.58833	-0
0.59200	-1
0.59567	-1
0.59933	-1
0.60300	-1
0.60667	-1
0.61033	-1
0.61400	-1
0.61767	-1
0.62133	-1
0.62500	-1
0.62867	-1
0.63233	-1
0.63600	-1
0.63967	-1
0.64333	-2
0.64700	-2
0.65067	-2
0.65433	-2
0.65800	-2
0.66167	-2
0.66533	-2
0.66900	-2
0.67267	-1
0.67633	-1
0.68000	-1
0.68367	-1
0.68733	-1
0.69100	-0
0.69467	-0
0.69833	-0
0.70200	-0
0.70567	-0
0.70933	-0
0.71300	-0
0.71667	-0
0.72033	-0
0.72400	-1
0.72767	-1
0.73133	-1
0.73500	-1
0.73867	-2
0.74233	-2
0.74600	-2
0.74967	-2
0.75333	-2
0.75700	-3
0.76067	-3
0.76433	-3
0.76800	-3
0.77167	-3
0.77533	-4
0.77900	-3
0.78267	-3
0.78633	-3
0.79000	-3
0.79367	-3
0.79733	-2
0.80100	-2
0.80467	-2
0.80833	-2
0.81200	-2
0.81567	-2
0.81933	-3
0.82300	-3
0.82667	-3
0.83033	-3
0.83400	-4
0.83767	-4
0.84133	-5
0.84500	-5
0.84867	-6
0.85233	-6
0.85600	-6
0.85967	-6
0.86333	-6
0.86700	-6
0.87067	-6
0.87433	-6
0.87800	-6
0.88167	-6
0.88533	-6
0.88900	-5
0.89267	-5
0.89633	-5
0.90000	-5
0.90367	-4
0.90733	-4
0.91100	-4
0.91467	-4
0.91833	-4
0.92200	-3
0.92567	-3
0.92933	-3
0.93300	-3
0.93667	-3
0.94033	-3
0.94400	-3
0.94767	-3
0.95133	-2
0.95500	-2
0.95867	-2
0.96233	-2
0.96600	-2
0.96967	-1
0.97333	-1
0.97700	-1
0.98067	-1
0.98433	-1
0.98800	-0
0.99167	-0
0.99533	-0
0.99900	-0
1.00267	-0
1.00633	-0
1.01000	-0
1.01367	-0
1.01733	-1
1.02100	-1
1.02467	-1
1.02833	-1
1.03200	-1
1.03567	-1
1.03933	-1
1.04300	-1
1.04667	-2
1.05033	-2
1.05400	-2
1.05767	-2
1.06133	-3
1.06500	-3
1.06867	-3
1.07233	-3
1.07600	-3
1.07967	-4
1.08333	-4
1.08700	-4
1.09067	-4
1.09433	-4
1.09800	-4
1.10167	-4
1.10533	-4
1.10900	-4
1.11267	-4
1.11633	-4
1.12000	-4
1.12367	-4
1.12733	-4
1.13100	-4
1.13467	-4
1.13833	-4
1.14200	-4
1.14567	-4
1.14933	-4
1.15300	-4
1.15667	-4
1.16033	-4
1.16400	-4
1.16767	-4
1.17133	-4
1.17500	-4
1.17867	-4
1.18233	-5
1.18600	-5
1.18967	-5
1.19333	-5
1.19700	-5
1.20067	-5
1.20433	-5
1.20800	-4
1.21167	-4
1.21533	-4
1.21900	-4
1.22267	-4
1.22633	-4
1.23000	-4
1.23367	-4
1.23733	-4
1.24100	-4
1.24467	-5
1.24833	-5
1.25200	-4
1.25567	-4
1.25933	-4
1.26300	-4
1.26667	-4
1.27033	-4
1.27400	-5
1.27767	-5
1.28133	-5
1.28500	-5
1.28867	-5
1.29233	-5
1.29600	-4
1.29967	-4
1.30333	-4
1.30700	-4
1.31067	-4
1.31433	-4
1.31800	-4
1.32167	-4
1.32533	-4
1.32900	-4
1.33267	-4
1.33633	-4
1.34000	-5
1.34367	-5
1.34733	-5
1.35100	-5
1.35467	-5
1.35833	-6
1.36200	-6
1.36567	-6
1.36933	-6
1.37300	-6
1.37667	-6
1.38033	-6
1.38400	-6
1.38767	-6
1.39133	-6
1.39500	-5
1.39867	-5
1.40233	-5
1.40600	-5
1.40967	-5
1.41333	-5
1.41700	-5
1.42067	-5
1.42433	-5
1.42800	-5
1.43167	-5
1.43533	-5
1.43900	-5
1.44267	-4
1.44633	-4
1.45000	-4
1.45367	-4
1.45733	-5
1.46100	-5
1.46467	-5
1.46833	-5
1.47200	-5
1.47567	-5
1.47933	-5
1.48300	-5
1.48667	-5
1.49033	-5
1.49400	-5
1.49767	-5
1.50133	-5
1.50500	-5
1.50867	-5
1.51233	-5
1.51600	-6
1.51967	-6
1.52333	-6
1.52700	-6
1.53067	-7
1.53433	-7
1.53800	-7
1.54167	-7
1.54533	-7
1.54900	-7
1.55267	-7
1.55633	-7
1.56000	-7
1.56367	-6
1.56733	-6
1.57100	-6
1.57467	-6
1.57833	-6
1.58200	-6
1.58567	-6
1.58933	-6
1.59300	-6
1.59667	-7
1.60033	-7
1.60400	-7
1.60767	-8
1.61133	-10
1.61500	-12
1.61867	-14
1.62233	-16
1.62600	-19
1.62967	-22
1.63333	-25
1.63700	-29
1.64067	-32
1.64433	-36
1.64800	-40
1.65167	-44
1.65533	-47
1.65900	-52
1.66267	-56
1.66633	-61
1.67000	-66
1.67367	-72
1.67733	-77
1.68100	-82
1.68467	-87
1.68833	-92
1.69200	-96
1.69567	-99
1.69933	-102
1.70300	-105
1.70667	-107
1.71033	-109
1.71400	-111
1.71767	-112
1.72133	-112
1.72500	-113
1.72867	-114
1.73233	-115
1.73600	-116
1.73967	-116
1.74333	-117
1.74700	-118
1.75067	-119
1.75433	-119
1.75800	-120
1.76167	-121
1.76533	-121
1.76900	-122
1.77267	-122
1.77633	-123
1.78000	-123
1.78367	-124
1.78733	-124
1.79100	-125
1.79467	-125
1.79833	-125
1.80200	-126
1.80567	-126
1.80933	-126
1.81300	-125
1.81667	-125
1.82033	-125
1.82400	-125
1.82767	-125
1.83133	-126
1.83500	-126
1.83867	-127
1.84233	-127
1.84600	-127
1.84967	-127
1.85333	-126
1.85700	-126
1.86067	-125
1.86433	-124
1.86800	-123
1.87167	-123
1.87533	-123
1.87900	-122
1.88267	-122
1.88633	-122
1.89000	-122
1.89367	-122
1.89733	-122
1.90100	-122
1.90467	-122
1.90833	-123
1.91200	-123
1.91567	-122
1.91933	-122
1.92300	-122
1.92667	-122
1.93033	-122
1.93400	-122
1.93767	-122
1.94133	-122
1.94500	-122
1.94867	-122
1.95233	-122
1.95600	-121
1.95967	-121
1.96333	-120
1.96700	-120
1.97067	-119
1.97433	-118
1.97800	-118
1.98167	-118
1.98533	-118
1.98900	-118
1.99267	-118
1.99633	-119
2.00000	-119
2.00367	-119
2.00733	-119
2.01100	-118
2.01467	-118
2.01833	-118
2.02200	-118
2.02567	-117
2.02933	-116
2.03300	-116
2.03667	-115
2.04033	-115
2.04400	-114
2.04767	-114
2.05133	-114
2.05500	-113
2.05867	-113
2.06233	-113
2.06600	-112
2.06967	-112
2.07333	-112
2.07700	-112
2.08067	-112
2.08433	-111
2.08800	-111
2.09167	-111
2.09533	-110
2.09900	-109
2.10267	-109
2.10633	-108
2.11000	-108
2.11367	-108
2.11733	-108
2.12100	-109
2.12467	-109
2.12833	-110
2.13200	-109
2.13567	-109
2.13933	-108
2.14300	-107
2.14667	-106
2.15033	-106
2.15400	-106
2.15767	-105
2.16133	-105
2.16500	-104
2.16867	-104
2.17233	-103
2.17600	-101
2.17967	-100
2.18333	-99
2.18700	-99
2.19067	-98
2.19433	-98
2.19800	-98
2.20167	-98
2.20533	-98
2.20900	-98
2.21267	-98
2.21633	-99
2.22000	-99
2.22367	-98
2.22733	-98
2.23100	-97
2.23467	-97
2.23833	-97
2.24200	-97
2.24567	-97
2.24933	-96
2.25300	-96
2.25667	-95
2.26033	-94
2.26400	-94
2.26767	-93
2.27133	-93
2.27500	-93
2.27867	-93
2.28233	-93
2.28600	-93
2.28967	-93
2.29333	-93
2.29700	-93
2.30067	-93
2.30433	-93
2.30800	-94
2.31167	-94
2.31533	-95
2.31900	-95
2.32267	-95
2.32633	-95
2.33000	-94
2.33367	-94
2.33733	-93
2.34100	-92
2.34467	-91
2.34833	-91
2.35200	-91
2.35567	-90
2.35933	-90
2.36300	-89
2.36667	-88
2.37033	-87
2.37400	-85
2.37767	-83
2.38133	-81
2.38500	-77
2.38867	-74
2.39233	-69
2.39600	-65
2.39967	-60
2.40333	-55
2.40700	-50
2.41067	-45
2.41433	-41
2.41800	-37
2.42167	-34
2.42533	-31
2.42900	-28
2.43267	-25
2.43633	-21
2.44000	-18
2.44367	-15
2.44733	-13
2.45100	-11
2.45467	-9
2.45833	-8
2.46200	-7
2.46567	-6
2.46933	-5
2.47300	-4
2.47667	-3
2.48033	-2
2.48400	-1
2.48767	0
2.49133	1
2.49500	2
2.49867	3
2.50233	4
2.50600	5
2.50967	5
2.51333	6
2.51700	7
2.52067	8
2.52433	9
2.52800	9
2.53167	9
2.53533	10
2.53900	10
2.54267	11
2.54633	11
2.55000	12
2.55367	12
2.55733	12
2.56100	12
2.56467	12
2.56833	12
2.57200	12
2.57567	12
2.57933	12
2.58300	12
2.58667	12
2.59033	13
2.59400	13
2.59767	13
2.60133	13
2.60500	13
2.60867	14
2.61233	14
2.61600	14
2.61967	14
2.62333	14
2.62700	14
2.63067	14
2.63433	15
2.63800	15
2.64167	15
2.64533	16
2.64900	16
2.65267	17
2.65633	17
2.66000	18
2.66367	18
2.66733	19
2.67100	19
2.67467	19
2.67833	19
2.68200	19
2.68567	19
2.68933	19
2.69300	18
2.69667	19
2.70033	19
2.70400	19
2.70767	20
2.71133	20
2.71500	21
2.71867	21
2.72233	22
2.72600	22
2.72967	23
2.73333	23
2.73700	23
2.74067	23
2.74433	23
2.74800	23
2.75167	22
2.75533	21
2.75900	21
2.76267	21
2.76633	20
2.77000	20
2.77367	20
2.77733	20
2.78100	20
2.78467	20
2.78833	20
2.79200	21
2.79567	21
2.79933	21
2.80300	21
2.80667	21
2.81033	21
2.81400	21
2.81767	21
2.82133	22
2.82500	22
2.82867	23
2.83233	23
2.83600	23
2.83967	23
2.84333	22
2.84700	21
2.85067	18
2.85433	13
2.85800	5
2.86167	-5
2.86533	-19
2.86900	-37
2.87267	-59
2.87633	-85
2.88000	-115
2.88367	-149
2.88733	-186
2.89100	-226
2.89467	-269
2.89833	-314
2.90200	-361
2.90567	-409
2.90933	-459
2.91300	-509
2.91667	-559
2.92033	-608
2.92400	-658
2.92767	-707
2.93133	-755
2.93500	-803
2.93867	-854
2.94233	-910
2.94600	-971
2.94967	-1030
2.95333	-1076
2.95700	-1098
2.96067	-1095
2.96433	-1066
2.96800	-1016
2.97167	-950
2.97533	-876
2.97900	-796
2.98267	-715
2.98633	-637
2.99000	-563
2.99367	-494
2.99733	-431
3.00100	-374
3.00467	-323
3.00833	-278
3.01200	-239
3.01567	-205
3.01933	-175
3.02300	-149
3.02667	-127
3.03033	-107
3.03400	-91
3.03767	-76
3.04133	-64
3.04500	-53
3.04867	-44
3.05233	-36
3.05600	-29
3.05967	-23
3.06333	-18
3.06700	-14
3.07067	-10
3.07433	-7
3.07800	-5
3.08167	-3
3.08533	-1
3.08900	1
3.09267	3
3.09633	4
3.10000	5
3.10367	6
3.10733	7
3.11100	7
3.11467	8
3.11833	9
3.12200	9
3.12567	10
3.12933	10
3.13300	10
3.13667	10
3.14033	11
3.14400	12
3.14767	12
3.15133	13
3.15500	14
3.15867	14
3.16233	15
3.16600	15
3.16967	16
3.17333	16
3.17700	17
3.18067	17
3.18433	18
3.18800	18
3.19167	18
3.19533	18
3.19900	18
3.20267	18
3.20633	19
3.21000	19
3.21367	19
3.21733	19
3.22100	19
3.22467	19
3.22833	19
3.23200	19
3.23567	19
3.23933	19
3.24300	19
3.24667	19
3.25033	20
3.25400	20
3.25767	20
3.26133	21
3.26500	21
3.26867	21
3.27233	21
3.27600	21
3.27967	21
3.28333	21
3.28700	21
3.29067	21
3.29433	21
3.29800	21
3.30167	20
3.30533	20
3.30900	20
3.31267	20
3.31633	20
3.32000	20
3.32367	20
3.32733	20
3.33100	20
3.33467	21
3.33833	21
3.34200	21
3.34567	22
3.34933	22
3.35300	22
3.35667	23
3.36033	23
3.36400	24
3.36767	24
3.37133	24
3.37500	25
3.37867	25
3.38233	26
3.38600	26
3.38967	27
3.39333	27
3.39700	27
3.40067	27
3.40433	27
3.40800	27
3.41167	27
3.41533	27
3.41900	27
3.42267	27
3.42633	27
3.43000	27
3.43367	27
3.43733	27
3.44100	27
3.44467	26
3.44833	26
3.45200	26
3.45567	26
3.45933	26
3.46300	26
3.46667	26
3.47033	26
3.47400	26
3.47767	25
3.48133	25
3.48500	25
3.48867	25
3.49233	24
3.49600	24
3.49967	24
3.50333	24
3.50700	24
3.51067	24
3.51433	24
3.51800	24
3.52167	24
3.52533	24
3.52900	24
3.53267	24
3.53633	24
3.54000	24
3.54367	24
3.54733	23
3.55100	23
3.55467	23
3.55833	23
3.56200	23
3.56567	23
3.56933	23
3.57300	23
3.57667	23
3.58033	23
3.58400	23
3.58767	23
3.59133	23
3.59500	23
3.59867	23
3.60233	23
3.60600	23
3.60967	23
3.61333	23
3.61700	23
3.62067	23
3.62433	24
3.62800	24
3.63167	24
3.63533	24
3.63900	24
3.64267	25
3.64633	25
3.65000	25
3.65367	25
3.65733	25
3.66100	25
3.66467	25
3.66833	24
3.67200	24
3.67567	24
3.67933	24
3.68300	24
3.68667	24
3.69033	23
3.69400	23
3.69767	23
3.70133	23
3.70500	23
3.70867	23
3.71233	23
3.71600	23
3.71967	22
3.72333	22
3.72700	22
3.73067	22
3.73433	22
3.73800	22
3.74167	22
3.74533	22
3.74900	22
3.75267	22
3.75633	22
3.76000	22
3.76367	22
3.76733	21
3.77100	21
3.77467	22
3.77833	22
3.78200	22
3.78567	22
3.78933	22
3.79300	22
3.79667	22
3.80033	22
3.80400	22
3.80767	22
3.81133	22
3.81500	22
3.81867	22
3.82233	22
3.82600	22
3.82967	22
3.83333	22
3.83700	22
3.84067	22
3.84433	22
3.84800	22
3.85167	22
3.85533	21
3.85900	21
3.86267	21
3.86633	21
3.87000	21
3.87367	21
3.87733	20
3.88100	20
3.88467	21
3.88833	21
3.89200	21
3.89567	21
3.89933	21
3.90300	22
3.90667	22
3.91033	22
3.91400	23
3.91767	23
3.92133	23
3.92500	23
3.92867	23
3.93233	23
3.93600	23
3.93967	23
3.94333	23
3.94700	23
3.95067	23
3.95433	24
3.95800	24
3.96167	24
3.96533	24
3.96900	24
3.97267	24
3.97633	24
3.98000	24
3.98367	24
3.98733	24
3.99100	24
3.99467	24
3.99833	24

[Chromatogram (Ch3)]
Interval(msec)	220
# of Points	1091
Start Time(min)	0.002
End Time(min)	3.998
R.Time (min)	Intensity
0.00167	0
0.00533	-1
0.00900	-2
0.01267	-1
0.01633	1
0.02000	-1
0.02367	-1
0.02733	-2
0.03100	-4
0.03467	-6
0.03833	-8
0.04200	-6
0.04567	-4
0.04933	-4
0.05300	-3
0.05667	-2
0.06033	-2
0.06400	-3
0.06767	-4
0.07133	-5
0.07500	-5
0.07867	-7
0.08233	-11
0.08600	-12
0.08967	-10
0.09333	-9
0.09700	-9
0.10067	-8
0.10433	-5
0.10800	-4
0.11167	-3
0.11533	-2
0.11900	-2
0.12267	-1
0.12633	-1
0.13000	-1
0.13367	-1
0.13733	-1
0.14100	-2
0.14467	-3
0.14833	-2
0.15200	-1
0.15567	-2
0.15933	-3
0.16300	-3
0.16667	-3
0.17033	-2
0.17400	-1
0.17767	0
0.18133	2
0.18500	3
0.18867	5
0.19233	7
0.19600	6
0.19967	5
0.20333	4
0.20700	4
0.21067	4
0.21433	5
0.21800	6
0.22167	7
0.22533	6
0.22900	5
0.23267	5
0.23633	5
0.24000	4
0.24367	5
0.24733	4
0.25100	4
0.25467	5
0.25833	6
0.26200	4
0.26567	2
0.26933	0
0.27300	1
0.27667	2
0.28033	2
0.28400	3
0.28767	4
0.29133	6
0.29500	6
0.29867	7
0.30233	10
0.30600	10
0.30967	9
0.31333	7
0.31700	6
0.32067	5
0.32433	4
0.32800	5
0.33167	8
0.33533	9
0.33900	8
0.34267	9
0.34633	9
0.35000	9
0.35367	11
0.35733	12
0.36100	13
0.36467	13
0.36833	14
0.37200	16
0.37567	16
0.37933	17
0.38300	18
0.38667	18
0.39033	19
0.39400	17
0.39767	16
0.40133	15
0.40500	14
0.40867	14
0.41233	13
0.41600	15
0.41967	16
0.42333	16
0.42700	17
0.43067	17
0.43433	17
0.43800	18
0.44167	18
0.44533	18
0.44900	18
0.45267	18
0.45633	20
0.46000	20
0.46367	17
0.46733	16
0.47100	18
0.47467	19
0.47833	18
0.48200	19
0.48567	22
0.48933	22
0.49300	23
0.49667	23
0.50033	22
0.50400	22
0.50767	22
0.51133	23
0.51500	25
0.51867	25
0.52233	26
0.52600	27
0.52967	25
0.53333	23
0.53700	24
0.54067	23
0.54433	24
0.54800	26
0.55167	26
0.55533	26
0.55900	28
0.56267	29
0.56633	29
0.57000	27
0.57367	26
0.57733	27
0.58100	28
0.58467	27
0.58833	28
0.59200	31
0.59567	32
0.59933	34
0.60300	34
0.60667	33
0.61033	32
0.61400	34
0.61767	34
0.62133	32
0.62500	32
0.62867	33
0.63233	34
0.63600	34
0.63967	35
0.64333	33
0.64700	34
0.65067	32
0.65433	32
0.65800	32
0.66167	32
0.66533	32
0.66900	32
0.67267	32
0.67633	34
0.68000	36
0.68367	36
0.68733	34
0.69100	33
0.69467	32
0.69833	33
0.70200	33
0.70567	32
0.70933	34
0.71300	37
0.71667	37
0.72033	35
0.72400	35
0.72767	39
0.73133	39
0.73500	39
0.73867	39
0.74233	41
0.74600	43
0.74967	43
0.75333	43
0.75700	43
0.76067	43
0.76433	43
0.76800	45
0.77167	44
0.77533	42
0.77900	43
0.78267	44
0.78633	43
0.79000	41
0.79367	39
0.79733	40
0.80100	41
0.80467	42
0.80833	43
0.81200	43
0.81567	43
0.81933	46
0.82300	46
0.82667	46
0.83033	47
0.83400	49
0.83767	52
0.84133	52
0.84500	48
0.84867	45
0.85233	43
0.85600	44
0.85967	45
0.86333	45
0.86700	47
0.87067	48
0.87433	49
0.87800	50
0.88167	48
0.88533	46
0.88900	44
0.89267	44
0.89633	44
0.90000	46
0.90367	47
0.90733	46
0.91100	46
0.91467	46
0.91833	47
0.92200	48
0.92567	50
0.92933	51
0.93300	51
0.93667	50
0.94033	49
0.94400	49
0.94767	49
0.95133	48
0.95500	47
0.95867	46
0.96233	46
0.96600	50
0.96967	52
0.97333	54
0.97700	56
0.98067	56
0.98433	56
0.98800	54
0.99167	52
0.99533	50
0.99900	47
1.00267	47
1.00633	46
1.01000	48
1.01367	50
1.01733	52
1.02100	53
1.02467	52
1.02833	52
1.03200	53
1.03567	56
1.03933	57
1.04300	58
1.04667	58
1.05033	59
1.05400	58
1.05767	57
1.06133	58
1.06500	58
1.06867	59
1.07233	58
1.07600	56
1.07967	55
1.08333	55
1.08700	56
1.09067	57
1.09433	56
1.09800	56
1.10167	55
1.10533	54
1.10900	55
1.11267	56
1.11633	57
1.12000	60
1.12367	59
1.12733	57
1.13100	56
1.13467	57
1.13833	57
1.14200	57
1.14567	58
1.14933	58
1.15300	59
1.15667	58
1.16033	57
1.16400	56
1.16767	56
1.17133	56
1.17500	56
1.17867	56
1.18233	56
1.18600	56
1.18967	53
1.19333	52
1.19700	53
1.20067	55
1.20433	57
1.20800	59
1.21167	60
1.21533	60
1.21900	60
1.22267	60
1.22633	60
1.23000	57
1.23367	55
1.23733	54
1.24100	57
1.24467	58
1.24833	59
1.25200	59
1.25567	58
1.25933	59
1.26300	60
1.26667	60
1.27033	61
1.27400	63
1.27767	62
1.28133	62
1.28500	66
1.28867	68
1.29233	68
1.29600	67
1.29967	64
1.30333	62
1.30700	62
1.31067	62
1.31433	62
1.31800	63
1.32167	63
1.32533	64
1.32900	65
1.33267	64
1.33633	63
1.34000	63
1.34367	61
1.34733	61
1.35100	61
1.35467	60
1.35833	62
1.36200	62
1.36567	62
1.36933	60
1.37300	59
1.37667	60
1.38033	62
1.38400	61
1.38767	59
1.39133	57
1.39500	56
1.39867	57
1.40233	59
1.40600	60
1.40967	62
1.41333	61
1.41700	61
1.42067	63
1.42433	64
1.42800	62
1.43167	59
1.43533	59
1.43900	59
1.44267	61
1.44633	62
1.45000	63
1.45367	65
1.45733	67
1.46100	65
1.46467	63
1.46833	64
1.47200	63
1.47567	63
1.47933	62
1.48300	61
1.48667	62
1.49033	62
1.49400	60
1.49767	60
1.50133	60
1.50500	60
1.50867	61
1.51233	61
1.51600	62
1.51967	63
1.52333	64
1.52700	64
1.53067	62
1.53433	60
1.53800	62
1.54167	67
1.54533	67
1.54900	65
1.55267	64
1.55633	63
1.56000	61
1.56367	60
1.56733	60
1.57100	60
1.57467	61
1.57833	62
1.58200	61
1.58567	59
1.58933	61
1.59300	63
1.59667	66
1.60033	68
1.60400	69
1.60767	69
1.61133	68
1.61500	66
1.61867	67
1.62233	69
1.62600	69
1.62967	67
1.63333	64
1.63700	65
1.64067	64
1.64433	64
1.64800	63
1.65167	64
1.65533	65
1.65900	65
1.66267	67
1.66633	68
1.67000	70
1.67367	72
1.67733	75
1.68100	75
1.68467	75
1.68833	76
1.69200	76
1.69567	76
1.69933	76
1.70300	77
1.70667	79
1.71033	80
1.71400	80
1.71767	78
1.72133	74
1.72500	73
1.72867	74
1.73233	78
1.73600	78
1.73967	79
1.74333	81
1.74700	83
1.75067	85
1.75433	87
1.75800	87
1.76167	85
1.76533	84
1.76900	84
1.77267	88
1.77633	91
1.78000	90
1.78367	88
1.78733	89
1.79100	91
1.79467	93
1.79833	95
1.80200	95
1.80567	96
1.80933	97
1.81300	98
1.81667	99
1.82033	101
1.82400	101
1.82767	100
1.83133	100
1.83500	102
1.83867	103
1.84233	105
1.84600	102
1.84967	99
1.85333	100
1.85700	100
1.86067	100
1.86433	98
1.86800	97
1.87167	98
1.87533	98
1.87900	98
1.88267	100
1.88633	100
1.89000	102
1.89367	104
1.89733	107
1.90100	108
1.90467	107
1.90833	106
1.91200	106
1.91567	105
1.91933	105
1.92300	106
1.92667	106
1.93033	105
1.93400	105
1.93767	108
1.94133	111
1.94500	113
1.94867	113
1.95233	113
1.95600	114
1.95967	112
1.96333	111
1.96700	112
1.97067	114
1.97433	115
1.97800	116
1.98167	114
1.98533	113
1.98900	115
1.99267	116
1.99633	118
2.00000	120
2.00367	121
2.00733	123
2.01100	124
2.01467	127
2.01833	130
2.02200	131
2.02567	132
2.02933	132
2.03300	132
2.03667	131
2.04033	129
2.04400	127
2.04767	128
2.05133	129
2.05500	129
2.05867	130
2.06233	132
2.06600	135
2.06967	137
2.07333	138
2.07700	139
2.08067	140
2.08433	141
2.08800	143
2.09167	145
2.09533	148
2.09900	151
2.10267	153
2.10633	155
2.11000	158
2.11367	157
2.11733	155
2.12100	156
2.12467	157
2.12833	156
2.13200	157
2.13567	159
2.13933	161
2.14300	160
2.14667	159
2.15033	163
2.15400	166
2.15767	167
2.16133	168
2.16500	169
2.16867	168
2.17233	169
2.17600	167
2.17967	164
2.18333	164
2.18700	168
2.19067	171
2.19433	174
2.19800	176
2.20167	176
2.20533	176
2.20900	176
2.21267	175
2.21633	176
2.22000	179
2.22367	181
2.22733	183
2.23100	184
2.23467	184
2.23833	183
2.24200	181
2.24567	182
2.24933	182
2.25300	183
2.25667	185
2.26033	186
2.26400	185
2.26767	184
2.27133	184
2.27500	185
2.27867	184
2.28233	185
2.28600	185
2.28967	186
2.29333	189
2.29700	191
2.30067	192
2.30433	191
2.30800	191
2.31167	193
2.31533	193
2.31900	194
2.32267	194
2.32633	194
2.33000	195
2.33367	197
2.33733	201
2.34100	202
2.34467	202
2.34833	201
2.35200	200
2.35567	200
2.35933	203
2.36300	206
2.36667	206
2.37033	208
2.37400	207
2.37767	206
2.38133	204
2.38500	204
2.38867	206
2.39233	208
2.39600	207
2.39967	205
2.40333	205
2.40700	205
2.41067	206
2.41433	209
2.41800	212
2.42167	213
2.42533	216
2.42900	219
2.43267	222
2.43633	223
2.44000	224
2.44367	229
2.44733	233
2.45100	231
2.45467	224
2.45833	212
2.46200	200
2.46567	189
2.46933	178
2.47300	170
2.47667	164
2.48033	159
2.48400	151
2.48767	143
2.49133	133
2.49500	126
2.49867	120
2.50233	114
2.50600	110
2.50967	107
2.51333	104
2.51700	100
2.52067	97
2.52433	94
2.52800	92
2.53167	91
2.53533	84
2.53900	59
2.54267	42
2.54633	51
2.55000	88
2.55367	144
2.55733	207
2.56100	274
2.56467	342
2.56833	407
2.57200	468
2.57567	530
2.57933	586
2.58300	638
2.58667	684
2.59033	728
2.59400	766
2.59767	800
2.60133	826
2.60500	847
2.60867	858
2.61233	858
2.61600	848
2.61967	831
2.62333	813
2.62700	794
2.63067	777
2.63433	762
2.63800	751
2.64167	743
2.64533	739
2.64900	738
2.65267	740
2.65633	744
2.66000	748
2.66367	755
2.66733	765
2.67100	773
2.67467	782
2.67833	792
2.68200	800
2.68567	805
2.68933	810
2.69300	816
2.69667	825
2.70033	831
2.70400	838
2.70767	843
2.71133	847
2.71500	851
2.71867	853
2.72233	857
2.72600	862
2.72967	865
2.73333	866
2.73700	867
2.74067	868
2.74433	870
2.74800	871
2.75167	872
2.75533	873
2.75900	873
2.76267	873
2.76633	873
2.77000	874
2.77367	876
2.77733	878
2.78100	880
2.78467	881
2.78833	882
2.79200	879
2.79567	878
2.79933	878
2.80300	877
2.80667	875
2.81033	873
2.81400	871
2.81767	870
2.82133	874
2.82500	884
2.82867	903
2.83233	943
2.83600	1025
2.83967	1170
2.84333	1404
2.84700	1743
2.85067	2190
2.85433	2730
2.85800	3334
2.86167	3957
2.86533	4553
2.86900	5076
2.87267	5483
2.87633	5747
2.88000	5858
2.88367	5825
2.88733	5669
2.89100	5419
2.89467	5106
2.89833	4755
2.90200	4388
2.90567	4023
2.90933	3672
2.91300	3341
2.91667	3036
2.92033	2760
2.92400	2513
2.92767	2292
2.93133	2100
2.93500	1932
2.93867	1781
2.94233	1650
2.94600	1534
2.94967	1434
2.95333	1348
2.95700	1273
2.96067	1208
2.96433	1152
2.96800	1102
2.97167	1057
2.97533	1018
2.97900	986
2.98267	960
2.98633	936
2.99000	912
2.99367	891
2.99733	875
3.00100	860
3.00467	848
3.00833	839
3.01200	831
3.01567	822
3.01933	815
3.02300	809
3.02667	803
3.03033	798
3.03400	793
3.03767	787
3.04133	781
3.04500	778
3.04867	775
3.05233	772
3.05600	768
3.05967	762
3.06333	757
3.06700	755
3.07067	754
3.07433	753
3.07800	751
3.08167	748
3.08533	746
3.08900	743
3.09267	738
3.09633	735
3.10000	735
3.10367	735
3.10733	734
3.11100	732
3.11467	729
3.11833	727
3.12200	726
3.12567	725
3.12933	724
3.13300	721
3.13667	717
3.14033	713
3.14400	710
3.14767	707
3.15133	704
3.15500	700
3.15867	697
3.16233	695
3.16600	692
3.16967	689
3.17333	686
3.17700	684
3.18067	682
3.18433	683
3.18800	686
3.19167	687
3.19533	687
3.19900	686
3.20267	685
3.20633	686
3.21000	686
3.21367	684
3.21733	680
3.22100	677
3.22467	674
3.22833	672
3.23200	671
3.23567	668
3.23933	666
3.24300	663
3.24667	658
3.25033	653
3.25400	650
3.25767	649
3.26133	648
3.26500	646
3.26867	643
3.27233	640
3.27600	636
3.27967	634
3.28333	633
3.28700	629
3.29067	627
3.29433	626
3.29800	625
3.30167	621
3.30533	620
3.30900	620
3.31267	616
3.31633	612
3.32000	609
3.32367	606
3.32733	604
3.33100	603
3.33467	599
3.33833	596
3.34200	593
3.34567	589
3.34933	586
3.35300	582
3.35667	578
3.36033	574
3.36400	572
3.36767	569
3.37133	564
3.37500	559
3.37867	558
3.38233	557
3.38600	554
3.38967	553
3.39333	550
3.39700	549
3.40067	548
3.40433	546
3.40800	544
3.41167	541
3.41533	537
3.41900	533
3.42267	532
3.42633	532
3.43000	530
3.43367	528
3.43733	525
3.44100	523
3.44467	520
3.44833	517
3.45200	513
3.45567	509
3.45933	505
3.46300	500
3.46667	499
3.47033	498
3.47400	495
3.47767	493
3.48133	491
3.48500	488
3.48867	484
3.49233	481
3.49600	478
3.49967	480
3.50333	479
3.50700	477
3.51067	473
3.51433	470
3.51800	468
3.52167	465
3.52533	462
3.52900	459
3.53267	456
3.53633	453
3.54000	451
3.54367	451
3.54733	447
3.55100	447
3.55467	449
3.55833	449
3.56200	448
3.56567	444
3.56933	441
3.57300	436
3.57667	432
3.58033	431
3.58400	429
3.58767	426
3.59133	425
3.59500	424
3.59867	424
3.60233	422
3.60600	421
3.60967	419
3.61333	417
3.61700	414
3.62067	412
3.62433	409
3.62800	408
3.63167	409
3.63533	408
3.63900	406
3.64267	403
3.64633	403
3.65000	403
3.65367	401
3.65733	398
3.66100	398
3.66467	397
3.66833	392
3.67200	388
3.67567	386
3.67933	384
3.68300	383
3.68667	384
3.69033	382
3.69400	379
3.69767	377
3.70133	374
3.70500	373
3.70867	372
3.71233	372
3.71600	371
3.71967	368
3.72333	364
3.72700	364
3.73067	364
3.73433	363
3.73800	361
3.74167	360
3.74533	356
3.74900	355
3.75267	353
3.75633	350
3.76000	348
3.76367	349
3.76733	349
3.77100	349
3.77467	348
3.77833	346
3.78200	343
3.78567	340
3.78933	337
3.79300	335
3.79667	336
3.80033	335
3.80400	335
3.80767	336
3.81133	336
3.81500	334
3.81867	331
3.82233	330
3.82600	328
3.82967	326
3.83333	325
3.83700	324
3.84067	323
3.84433	324
3.84800	323
3.85167	319
3.85533	315
3.85900	314
3.86267	314
3.86633	315
3.87000	315
3.87367	314
3.87733	313
3.88100	313
3.88467	311
3.88833	308
3.89200	305
3.89567	303
3.89933	303
3.90300	301
3.90667	300
3.91033	299
3.91400	300
3.91767	300
3.92133	296
3.92500	296
3.92867	296
3.93233	295
3.93600	293
3.93967	291
3.94333	291
3.94700	293
3.95067	292
3.95433	291
3.95800	290
3.96167	290
3.96533	288
3.96900	287
3.97267	287
3.97633	287
3.98000	284
3.98367	279
3.98733	274
3.99100	274
3.99467	275
3.99833	276

[Status Trace (Column Oven Temperature)]
Interval(msec)	1000
# of Points	240
Start Time(min)	0.005
End Time(min)	3.989
Intensity Units	
Intensity Multiplier	1
R.Time (min)	Intensity
0.00523	35.02
0.02190	35.03
0.03857	35.04
0.05523	35.04
0.07190	35.05
0.08857	35.03
0.10523	35.03
0.12190	35.02
0.13857	35.01
0.15523	35.00
0.17190	34.99
0.18857	34.97
0.20523	34.97
0.22190	34.96
0.23857	34.96
0.25523	34.97
0.27190	34.98
0.28857	34.98
0.30523	34.98
0.32190	34.98
0.33857	34.98
0.35523	35.00
0.37190	35.01
0.38857	35.02
0.40523	35.02
0.42190	35.02
0.43857	35.03
0.45523	35.03
0.47190	35.03
0.48857	35.04
0.50523	35.03
0.52190	35.03
0.53857	35.02
0.55523	35.00
0.57190	34.99
0.58857	34.99
0.60523	34.99
0.62190	34.99
0.63857	34.99
0.65523	34.98
0.67190	34.98
0.68857	34.98
0.70523	34.97
0.72190	34.96
0.73857	34.96
0.75523	34.98
0.77190	34.98
0.78857	34.98
0.80523	34.98
0.82190	34.98
0.83857	34.99
0.85523	35.00
0.87190	35.02
0.88857	35.01
0.90523	35.01
0.92190	35.00
0.93857	35.00
0.95523	35.00
0.97190	34.98
0.98857	34.97
1.00523	34.97
1.02190	34.95
1.03857	34.96
1.05523	34.96
1.07190	34.96
1.08857	34.98
1.10523	34.97
1.12190	34.98
1.13857	34.97
1.15523	34.96
1.17190	34.96
1.18857	34.96
1.20523	34.97
1.22190	34.97
1.23857	34.97
1.25523	34.97
1.27190	34.97
1.28857	34.97
1.30523	34.97
1.32190	34.97
1.33857	34.98
1.35523	34.98
1.37190	34.97
1.38857	34.97
1.40523	34.97
1.42190	34.98
1.43857	34.98
1.45523	34.98
1.47190	34.98
1.48857	34.97
1.50523	34.98
1.52190	34.99
1.53857	34.99
1.55523	34.99
1.57190	34.99
1.58857	35.00
1.60523	35.03
1.62190	35.15
1.63857	35.32
1.65523	35.56
1.67190	35.90
1.68857	36.26
1.70523	36.61
1.72190	36.94
1.73857	37.28
1.75523	37.62
1.77190	37.96
1.78857	38.30
1.80523	38.63
1.82190	38.96
1.83857	39.31
1.85523	39.62
1.87190	39.95
1.88857	40.27
1.90523	40.60
1.92190	40.92
1.93857	41.26
1.95523	41.59
1.97190	41.90
1.98857	42.23
2.00523	42.56
2.02190	42.87
2.03857	43.20
2.05523	43.53
2.07190	43.86
2.08857	44.18
2.10523	44.50
2.12190	44.85
2.13857	45.17
2.15523	45.51
2.17190	45.81
2.18857	46.13
2.20523	46.47
2.22190	46.79
2.23857	47.13
2.25523	47.45
2.27190	47.77
2.28857	48.09
2.30523	48.45
2.32190	48.79
2.33857	49.10
2.35523	49.41
2.37190	49.64
2.38857	49.72
2.40523	49.70
2.42190	49.72
2.43857	49.72
2.45523	49.72
2.47190	49.74
2.48857	49.75
2.50523	49.75
2.52190	49.77
2.53857	49.77
2.55523	49.79
2.57190	49.80
2.58857	49.81
2.60523	49.82
2.62190	49.82
2.63857	49.85
2.65523	49.84
2.67190	49.86
2.68857	49.87
2.70523	49.86
2.72190	49.85
2.73857	49.85
2.75523	49.89
2.77190	49.91
2.78857	49.92
2.80523	49.93
2.82190	49.92
2.83857	49.92
2.85523	49.93
2.87190	49.94
2.88857	49.95
2.90523	49.95
2.92190	49.96
2.93857	49.95
2.95523	49.95
2.97190	49.96
2.98857	49.97
3.00523	49.98
3.02190	50.01
3.03857	50.03
3.05523	50.05
3.07190	50.06
3.08857	50.06
3.10523	50.08
3.12190	50.09
3.13857	50.10
3.15523	50.09
3.17190	50.09
3.18857	50.09
3.20523	50.10
3.22190	50.10
3.23857	50.10
3.25523	50.09
3.27190	50.09
3.28857	50.10
3.30523	50.11
3.32190	50.11
3.33857	50.11
3.35523	50.10
3.37190	50.08
3.38857	50.06
3.40523	50.04
3.42190	50.02
3.43857	50.00
3.45523	49.99
3.47190	49.99
3.48857	49.99
3.50523	50.00
3.52190	49.99
3.53857	50.00
3.55523	50.00
3.57190	50.01
3.58857	50.01
3.60523	50.01
3.62190	50.00
3.63857	49.99
3.65523	50.00
3.67190	50.00
3.68857	50.00
3.70523	50.00
3.72190	50.01
3.73857	50.02
3.75523	50.02
3.77190	50.03
3.78857	50.04
3.80523	50.04
3.82190	50.05
3.83857	50.05
3.85523	50.06
3.87190	50.07
3.88857	50.07
3.90523	50.07
3.92190	50.07
3.93857	50.08
3.95523	50.07
3.97190	50.07
3.98857	50.06

[Status Trace (Injection Unit Temperature)]
Interval(msec)	1000
# of Points	240
Start Time(min)	0.005
End Time(min)	3.989
Intensity Units	
Intensity Multiplier	1
R.Time (min)	Intensity
0.00523	99.98
0.02190	99.98
0.03857	99.98
0.05523	99.98
0.07190	99.98
0.08857	99.98
0.10523	99.98
0.12190	99.98
0.13857	99.98
0.15523	99.98
0.17190	99.98
0.18857	99.98
0.20523	99.98
0.22190	99.98
0.23857	99.99
0.25523	99.98
0.27190	99.98
0.28857	99.98
0.30523	99.99
0.32190	99.98
0.33857	99.98
0.35523	99.98
0.37190	99.98
0.38857	99.99
0.40523	99.98
0.42190	99.98
0.43857	99.99
0.45523	99.98
0.47190	99.99
0.48857	99.98
0.50523	99.98
0.52190	99.99
0.53857	99.99
0.55523	99.98
0.57190	99.99
0.58857	99.99
0.60523	99.99
0.62190	99.98
0.63857	99.98
0.65523	99.99
0.67190	99.99
0.68857	99.98
0.70523	99.99
0.72190	99.98
0.73857	99.99
0.75523	99.99
0.77190	99.99
0.78857	99.99
0.80523	99.99
0.82190	99.98
0.83857	99.99
0.85523	99.99
0.87190	99.99
0.88857	99.99
0.90523	99.99
0.92190	99.99
0.93857	99.99
0.95523	99.99
0.97190	99.99
0.98857	99.98
1.00523	99.99
1.02190	99.99
1.03857	99.99
1.05523	99.98
1.07190	99.98
1.08857	99.98
1.10523	99.99
1.12190	99.98
1.13857	99.98
1.15523	99.98
1.17190	99.98
1.18857	99.98
1.20523	99.98
1.22190	99.98
1.23857	99.99
1.25523	99.99
1.27190	99.98
1.28857	99.98
1.30523	99.99
1.32190	99.98
1.33857	99.99
1.35523	99.99
1.37190	99.99
1.38857	99.99
1.40523	99.99
1.42190	99.99
1.43857	99.98
1.45523	99.98
1.47190	99.99
1.48857	99.99
1.50523	99.98
1.52190	99.98
1.53857	99.98
1.55523	99.99
1.57190	99.99
1.58857	99.98
1.60523	99.99
1.62190	99.98
1.63857	99.99
1.65523	99.99
1.67190	99.99
1.68857	99.99
1.70523	99.99
1.72190	99.98
1.73857	99.99
1.75523	99.99
1.77190	99.98
1.78857	99.99
1.80523	99.99
1.82190	99.99
1.83857	99.99
1.85523	99.99
1.87190	99.98
1.88857	99.98
1.90523	99.98
1.92190	99.98
1.93857	99.98
1.95523	99.98
1.97190	99.98
1.98857	99.98
2.00523	99.98
2.02190	99.98
2.03857	99.98
2.05523	99.98
2.07190	99.98
2.08857	99.98
2.10523	99.97
2.12190	99.98
2.13857	99.98
2.15523	99.98
2.17190	99.98
2.18857	99.97
2.20523	99.98
2.22190	99.98
2.23857	99.98
2.25523	99.98
2.27190	99.97
2.28857	99.97
2.30523	99.98
2.32190	99.97
2.33857	99.97
2.35523	99.98
2.37190	99.98
2.38857	99.98
2.40523	99.98
2.42190	99.98
2.43857	99.98
2.45523	99.98
2.47190	99.98
2.48857	99.97
2.50523	99.98
2.52190	99.98
2.53857	99.98
2.55523	99.98
2.57190	99.98
2.58857	99.98
2.60523	99.99
2.62190	99.98
2.63857	99.99
2.65523	99.99
2.67190	99.99
2.68857	99.99
2.70523	99.99
2.72190	99.99
2.73857	99.99
2.75523	99.99
2.77190	99.99
2.78857	99.99
2.80523	100.00
2.82190	100.00
2.83857	100.00
2.85523	99.99
2.87190	100.00
2.88857	100.00
2.90523	100.00
2.92190	100.00
2.93857	100.00
2.95523	100.01
2.97190	100.01
2.98857	100.01
3.00523	100.01
3.02190	100.01
3.03857	100.01
3.05523	100.02
3.07190	100.02
3.08857	100.02
3.10523	100.02
3.12190	100.01
3.13857	100.02
3.15523	100.03
3.17190	100.03
3.18857	100.02
3.20523	100.03
3.22190	100.03
3.23857	100.02
3.25523	100.03
3.27190	100.03
3.28857	100.03
3.30523	100.03
3.32190	100.03
3.33857	100.03
3.35523	100.04
3.37190	100.04
3.38857	100.04
3.40523	100.04
3.42190	100.04
3.43857	100.04
3.45523	100.04
3.47190	100.04
3.48857	100.04
3.50523	100.05
3.52190	100.04
3.53857	100.05
3.55523	100.04
3.57190	100.05
3.58857	100.05
3.60523	100.05
3.62190	100.05
3.63857	100.05
3.65523	100.05
3.67190	100.05
3.68857	100.05
3.70523	100.05
3.72190	100.06
3.73857	100.05
3.75523	100.05
3.77190	100.05
3.78857	100.05
3.80523	100.05
3.82190	100.05
3.83857	100.06
3.85523	100.05
3.87190	100.05
3.88857	100.05
3.90523	100.05
3.92190	100.05
3.93857	100.05
3.95523	100.05
3.97190	100.06
3.98857	100.05

[Status Trace (Carrier Gas Pressure)]
Interval(msec)	1000
# of Points	240
Start Time(min)	0.005
End Time(min)	3.989
Intensity Units	
Intensity Multiplier	1
R.Time (min)	Intensity
0.00523	58.00
0.02190	55.87
0.03857	56.67
0.05523	58.89
0.07190	59.78
0.08857	58.18
0.10523	57.97
0.12190	58.01
0.13857	58.01
0.15523	58.01
0.17190	58.00
0.18857	58.00
0.20523	58.00
0.22190	58.00
0.23857	58.00
0.25523	58.00
0.27190	58.00
0.28857	58.00
0.30523	58.00
0.32190	58.00
0.33857	58.00
0.35523	58.00
0.37190	58.00
0.38857	58.00
0.40523	58.00
0.42190	58.00
0.43857	58.00
0.45523	58.00
0.47190	58.00
0.48857	58.00
0.50523	58.00
0.52190	58.00
0.53857	58.00
0.55523	58.00
0.57190	58.00
0.58857	58.00
0.60523	58.00
0.62190	58.00
0.63857	58.00
0.65523	58.00
0.67190	58.00
0.68857	58.00
0.70523	58.00
0.72190	58.00
0.73857	58.00
0.75523	58.00
0.77190	58.00
0.78857	58.00
0.80523	58.00
0.82190	58.00
0.83857	58.00
0.85523	58.00
0.87190	58.00
0.88857	58.00
0.90523	58.00
0.92190	58.00
0.93857	58.00
0.95523	58.00
0.97190	58.00
0.98857	58.00
1.00523	58.00
1.02190	58.00
1.03857	58.00
1.05523	58.00
1.07190	58.00
1.08857	58.00
1.10523	58.00
1.12190	58.00
1.13857	58.00
1.15523	58.00
1.17190	58.00
1.18857	58.00
1.20523	58.00
1.22190	58.00
1.23857	58.00
1.25523	58.00
1.27190	58.00
1.28857	58.00
1.30523	58.00
1.32190	58.00
1.33857	58.00
1.35523	58.00
1.37190	58.00
1.38857	58.00
1.40523	58.00
1.42190	58.00
1.43857	58.00
1.45523	58.00
1.47190	58.00
1.48857	58.00
1.50523	58.00
1.52190	58.00
1.53857	58.00
1.55523	58.00
1.57190	58.00
1.58857	58.00
1.60523	58.00
1.62190	58.00
1.63857	58.00
1.65523	58.01
1.67190	58.01
1.68857	58.00
1.70523	58.00
1.72190	58.00
1.73857	58.00
1.75523	58.00
1.77190	58.00
1.78857	58.00
1.80523	58.00
1.82190	58.00
1.83857	58.00
1.85523	58.00
1.87190	58.00
1.88857	58.00
1.90523	58.00
1.92190	58.00
1.93857	58.00
1.95523	58.00
1.97190	58.00
1.98857	58.00
2.00523	58.00
2.02190	58.00
2.03857	58.00
2.05523	58.00
2.07190	58.00
2.08857	58.00
2.10523	58.00
2.12190	58.00
2.13857	58.00
2.15523	58.00
2.17190	58.00
2.18857	58.00
2.20523	58.00
2.22190	58.00
2.23857	58.00
2.25523	58.00
2.27190	58.00
2.28857	58.00
2.30523	58.00
2.32190	58.00
2.33857	58.00
2.35523	58.00
2.37190	58.00
2.38857	57.99
2.40523	57.99
2.42190	58.00
2.43857	58.00
2.45523	58.00
2.47190	58.00
2.48857	58.00
2.50523	57.99
2.52190	57.99
2.53857	58.00
2.55523	58.00
2.57190	58.00
2.58857	58.00
2.60523	58.00
2.62190	58.00
2.63857	58.00
2.65523	58.00
2.67190	58.00
2.68857	58.00
2.70523	58.00
2.72190	58.00
2.73857	58.00
2.75523	58.00
2.77190	58.00
2.78857	58.00
2.80523	58.00
2.82190	58.00
2.83857	58.00
2.85523	58.00
2.87190	58.00
2.88857	58.00
2.90523	58.00
2.92190	58.00
2.93857	58.00
2.95523	58.00
2.97190	58.00
2.98857	58.00
3.00523	58.00
3.02190	58.00
3.03857	58.00
3.05523	58.00
3.07190	58.00
3.08857	58.00
3.10523	58.00
3.12190	58.00
3.13857	58.00
3.15523	58.00
3.17190	58.00
3.18857	58.00
3.20523	58.00
3.22190	58.00
3.23857	58.00
3.25523	58.00
3.27190	58.00
3.28857	58.00
3.30523	58.00
3.32190	58.00
3.33857	58.00
3.35523	58.00
3.37190	58.00
3.38857	58.00
3.40523	58.00
3.42190	58.00
3.43857	58.00
3.45523	58.00
3.47190	58.00
3.48857	58.00
3.50523	58.00
3.52190	58.00
3.53857	58.00
3.55523	58.00
3.57190	58.00
3.58857	58.00
3.60523	58.00
3.62190	58.00
3.63857	58.00
3.65523	58.00
3.67190	58.00
3.68857	58.00
3.70523	58.00
3.72190	58.00
3.73857	58.00
3.75523	58.00
3.77190	58.00
3.78857	58.00
3.80523	58.00
3.82190	58.00
3.83857	58.00
3.85523	58.00
3.87190	58.00
3.88857	58.00
3.90523	58.00
3.92190	58.00
3.93857	58.00
3.95523	58.00
3.97190	58.00
3.98857	58.00

[Status Trace (Carrier Gas Flow)]
Interval(msec)	1000
# of Points	240
Start Time(min)	0.005
End Time(min)	3.989
Intensity Units	
Intensity Multiplier	1
R.Time (min)	Intensity
0.00523	34.52
0.02190	34.57
0.03857	34.54
0.05523	34.56
0.07190	34.49
0.08857	34.52
0.10523	34.52
0.12190	34.52
0.13857	34.52
0.15523	34.52
0.17190	34.52
0.18857	34.52
0.20523	34.52
0.22190	34.52
0.23857	34.52
0.25523	34.52
0.27190	34.52
0.28857	34.52
0.30523	34.52
0.32190	34.52
0.33857	34.52
0.35523	34.52
0.37190	34.52
0.38857	34.52
0.40523	34.52
0.42190	34.52
0.43857	34.52
0.45523	34.52
0.47190	34.52
0.48857	34.52
0.50523	34.52
0.52190	34.52
0.53857	34.52
0.55523	34.52
0.57190	34.52
0.58857	34.52
0.60523	34.52
0.62190	34.52
0.63857	34.52
0.65523	34.52
0.67190	34.52
0.68857	34.52
0.70523	34.52
0.72190	34.52
0.73857	34.52
0.75523	34.53
0.77190	34.52
0.78857	34.52
0.80523	34.53
0.82190	34.52
0.83857	34.52
0.85523	34.53
0.87190	34.51
0.88857	34.52
0.90523	34.52
0.92190	34.52
0.93857	34.51
0.95523	34.50
0.97190	34.51
0.98857	34.52
1.00523	34.52
1.02190	34.51
1.03857	34.52
1.05523	34.52
1.07190	34.52
1.08857	34.53
1.10523	34.51
1.12190	34.51
1.13857	34.53
1.15523	34.52
1.17190	34.52
1.18857	34.53
1.20523	34.52
1.22190	34.52
1.23857	34.52
1.25523	34.52
1.27190	34.52
1.28857	34.52
1.30523	34.52
1.32190	34.52
1.33857	34.53
1.35523	34.52
1.37190	34.52
1.38857	34.52
1.40523	34.52
1.42190	34.52
1.43857	34.52
1.45523	34.53
1.47190	34.51
1.48857	34.51
1.50523	34.52
1.52190	34.52
1.53857	34.53
1.55523	34.52
1.57190	34.52
1.58857	34.51
1.60523	34.53
1.62190	34.52
1.63857	34.52
1.65523	34.51
1.67190	34.51
1.68857	34.52
1.70523	34.52
1.72190	34.52
1.73857	34.52
1.75523	34.51
1.77190	34.52
1.78857	34.52
1.80523	34.51
1.82190	34.51
1.83857	34.52
1.85523	34.52
1.87190	34.52
1.88857	34.53
1.90523	34.53
1.92190	34.52
1.93857	34.53
1.95523	34.51
1.97190	34.51
1.98857	34.52
2.00523	34.51
2.02190	34.51
2.03857	34.51
2.05523	34.52
2.07190	34.52
2.08857	34.51
2.10523	34.51
2.12190	34.52
2.13857	34.52
2.15523	34.52
2.17190	34.52
2.18857	34.52
2.20523	34.52
2.22190	34.52
2.23857	34.52
2.25523	34.52
2.27190	34.52
2.28857	34.52
2.30523	34.52
2.32190	34.52
2.33857	34.52
2.35523	34.52
2.37190	34.52
2.38857	34.51
2.40523	34.52
2.42190	34.52
2.43857	34.52
2.45523	34.52
2.47190	34.52
2.48857	34.52
2.50523	34.50
2.52190	34.52
2.53857	34.52
2.55523	34.52
2.57190	34.52
2.58857	34.52
2.60523	34.52
2.62190	34.52
2.63857	34.52
2.65523	34.52
2.67190	34.52
2.68857	34.52
2.70523	34.52
2.72190	34.52
2.73857	34.52
2.75523	34.52
2.77190	34.52
2.78857	34.52
2.80523	34.52
2.82190	34.52
2.83857	34.52
2.85523	34.52
2.87190	34.52
2.88857	34.52
2.90523	34.52
2.92190	34.52
2.93857	34.52
2.95523	34.52
2.97190	34.52
2.98857	34.52
3.00523	34.52
3.02190	34.52
3.03857	34.52
3.05523	34.52
3.07190	34.52
3.08857	34.52
3.10523	34.52
3.12190	34.52
3.13857	34.52
3.15523	34.52
3.17190	34.52
3.18857	34.52
3.20523	34.52
3.22190	34.52
3.23857	34.52
3.25523	34.52
3.27190	34.52
3.28857	34.52
3.30523	34.52
3.32190	34.52
3.33857	34.52
3.35523	34.52
3.37190	34.52
3.38857	34.52
3.40523	34.52
3.42190	34.52
3.43857	34.52
3.45523	34.52
3.47190	34.52
3.48857	34.52
3.50523	34.52
3.52190	34.52
3.53857	34.52
3.55523	34.52
3.57190	34.52
3.58857	34.52
3.60523	34.52
3.62190	34.52
3.63857	34.52
3.65523	34.52
3.67190	34.52
3.68857	34.53
3.70523	34.52
3.72190	34.53
3.73857	34.53
3.75523	34.51
3.77190	34.52
3.78857	34.52
3.80523	34.52
3.82190	34.52
3.83857	34.51
3.85523	34.51
3.87190	34.52
3.88857	34.51
3.90523	34.52
3.92190	34.52
3.93857	34.52
3.95523	34.53
3.97190	34.51
3.98857	34.54

[Status Trace (Column Flow)]
Interval(msec)	1000
# of Points	240
Start Time(min)	0.005
End Time(min)	3.989
Intensity Units	
Intensity Multiplier	1
R.Time (min)	Intensity
0.00523	5.52
0.02190	5.27
0.03857	5.36
0.05523	5.62
0.07190	5.73
0.08857	5.54
0.10523	5.52
0.12190	5.52
0.13857	5.52
0.15523	5.52
0.17190	5.52
0.18857	5.52
0.20523	5.52
0.22190	5.52
0.23857	5.52
0.25523	5.52
0.27190	5.52
0.28857	5.52
0.30523	5.52
0.32190	5.52
0.33857	5.52
0.35523	5.52
0.37190	5.52
0.38857	5.52
0.40523	5.52
0.42190	5.52
0.43857	5.52
0.45523	5.52
0.47190	5.52
0.48857	5.52
0.50523	5.52
0.52190	5.52
0.53857	5.52
0.55523	5.52
0.57190	5.52
0.58857	5.52
0.60523	5.52
0.62190	5.52
0.63857	5.52
0.65523	5.52
0.67190	5.52
0.68857	5.52
0.70523	5.52
0.72190	5.52
0.73857	5.52
0.75523	5.52
0.77190	5.52
0.78857	5.52
0.80523	5.52
0.82190	5.52
0.83857	5.52
0.85523	5.52
0.87190	5.52
0.88857	5.52
0.90523	5.52
0.92190	5.52
0.93857	5.52
0.95523	5.52
0.97190	5.52
0.98857	5.52
1.00523	5.52
1.02190	5.52
1.03857	5.52
1.05523	5.52
1.07190	5.52
1.08857	5.52
1.10523	5.52
1.12190	5.52
1.13857	5.52
1.15523	5.52
1.17190	5.52
1.18857	5.52
1.20523	5.52
1.22190	5.52
1.23857	5.52
1.25523	5.52
1.27190	5.52
1.28857	5.52
1.30523	5.52
1.32190	5.52
1.33857	5.52
1.35523	5.52
1.37190	5.52
1.38857	5.52
1.40523	5.52
1.42190	5.52
1.43857	5.52
1.45523	5.52
1.47190	5.52
1.48857	5.52
1.50523	5.52
1.52190	5.52
1.53857	5.52
1.55523	5.52
1.57190	5.52
1.58857	5.52
1.60523	5.52
1.62190	5.52
1.63857	5.51
1.65523	5.50
1.67190	5.49
1.68857	5.48
1.70523	5.47
1.72190	5.46
1.73857	5.45
1.75523	5.44
1.77190	5.43
1.78857	5.42
1.80523	5.41
1.82190	5.40
1.83857	5.39
1.85523	5.38
1.87190	5.37
1.88857	5.36
1.90523	5.35
1.92190	5.34
1.93857	5.33
1.95523	5.32
1.97190	5.31
1.98857	5.30
2.00523	5.29
2.02190	5.28
2.03857	5.27
2.05523	5.26
2.07190	5.25
2.08857	5.24
2.10523	5.23
2.12190	5.22
2.13857	5.21
2.15523	5.20
2.17190	5.20
2.18857	5.19
2.20523	5.18
2.22190	5.17
2.23857	5.16
2.25523	5.15
2.27190	5.14
2.28857	5.13
2.30523	5.12
2.32190	5.11
2.33857	5.10
2.35523	5.09
2.37190	5.09
2.38857	5.08
2.40523	5.08
2.42190	5.08
2.43857	5.08
2.45523	5.08
2.47190	5.08
2.48857	5.08
2.50523	5.08
2.52190	5.08
2.53857	5.08
2.55523	5.08
2.57190	5.08
2.58857	5.08
2.60523	5.08
2.62190	5.08
2.63857	5.08
2.65523	5.08
2.67190	5.08
2.68857	5.08
2.70523	5.08
2.72190	5.08
2.73857	5.08
2.75523	5.08
2.77190	5.08
2.78857	5.08
2.80523	5.08
2.82190	5.08
2.83857	5.08
2.85523	5.08
2.87190	5.08
2.88857	5.08
2.90523	5.08
2.92190	5.08
2.93857	5.08
2.95523	5.08
2.97190	5.08
2.98857	5.08
3.00523	5.08
3.02190	5.08
3.03857	5.08
3.05523	5.08
3.07190	5.08
3.08857	5.07
3.10523	5.07
3.12190	5.07
3.13857	5.07
3.15523	5.07
3.17190	5.07
3.18857	5.07
3.20523	5.07
3.22190	5.07
3.23857	5.07
3.25523	5.07
3.27190	5.07
3.28857	5.07
3.30523	5.07
3.32190	5.07
3.33857	5.07
3.35523	5.07
3.37190	5.07
3.38857	5.07
3.40523	5.08
3.42190	5.08
3.43857	5.08
3.45523	5.08
3.47190	5.08
3.48857	5.08
3.50523	5.08
3.52190	5.08
3.53857	5.08
3.55523	5.08
3.57190	5.08
3.58857	5.08
3.60523	5.08
3.62190	5.08
3.63857	5.08
3.65523	5.08
3.67190	5.08
3.68857	5.08
3.70523	5.08
3.72190	5.08
3.73857	5.08
3.75523	5.08
3.77190	5.08
3.78857	5.08
3.80523	5.08
3.82190	5.08
3.83857	5.08
3.85523	5.08
3.87190	5.08
3.88857	5.07
3.90523	5.07
3.92190	5.07
3.93857	5.07
3.95523	5.07
3.97190	5.07
3.98857	5.07

[Status Trace (Linear Velocity)]
Interval(msec)	1000
# of Points	240
Start Time(min)	0.005
End Time(min)	3.989
Intensity Units	
Intensity Multiplier	1
R.Time (min)	Intensity
0.00523	39.02
0.02190	37.61
0.03857	38.14
0.05523	39.60
0.07190	40.18
0.08857	39.13
0.10523	39.00
0.12190	39.02
0.13857	39.02
0.15523	39.02
0.17190	39.02
0.18857	39.02
0.20523	39.02
0.22190	39.02
0.23857	39.02
0.25523	39.02
0.27190	39.02
0.28857	39.02
0.30523	39.02
0.32190	39.02
0.33857	39.02
0.35523	39.02
0.37190	39.01
0.38857	39.01
0.40523	39.01
0.42190	39.01
0.43857	39.01
0.45523	39.01
0.47190	39.01
0.48857	39.01
0.50523	39.01
0.52190	39.01
0.53857	39.01
0.55523	39.02
0.57190	39.02
0.58857	39.02
0.60523	39.02
0.62190	39.02
0.63857	39.02
0.65523	39.02
0.67190	39.02
0.68857	39.02
0.70523	39.02
0.72190	39.02
0.73857	39.02
0.75523	39.02
0.77190	39.02
0.78857	39.02
0.80523	39.02
0.82190	39.02
0.83857	39.02
0.85523	39.02
0.87190	39.01
0.88857	39.02
0.90523	39.01
0.92190	39.02
0.93857	39.02
0.95523	39.02
0.97190	39.02
0.98857	39.02
1.00523	39.02
1.02190	39.02
1.03857	39.02
1.05523	39.02
1.07190	39.02
1.08857	39.02
1.10523	39.02
1.12190	39.02
1.13857	39.02
1.15523	39.02
1.17190	39.02
1.18857	39.02
1.20523	39.02
1.22190	39.02
1.23857	39.02
1.25523	39.02
1.27190	39.02
1.28857	39.02
1.30523	39.02
1.32190	39.02
1.33857	39.02
1.35523	39.02
1.37190	39.02
1.38857	39.02
1.40523	39.02
1.42190	39.02
1.43857	39.02
1.45523	39.02
1.47190	39.02
1.48857	39.02
1.50523	39.02
1.52190	39.02
1.53857	39.02
1.55523	39.02
1.57190	39.02
1.58857	39.02
1.60523	39.01
1.62190	39.01
1.63857	38.99
1.65523	38.97
1.67190	38.94
1.68857	38.90
1.70523	38.86
1.72190	38.83
1.73857	38.80
1.75523	38.77
1.77190	38.74
1.78857	38.71
1.80523	38.67
1.82190	38.64
1.83857	38.61
1.85523	38.58
1.87190	38.55
1.88857	38.52
1.90523	38.49
1.92190	38.46
1.93857	38.43
1.95523	38.39
1.97190	38.37
1.98857	38.34
2.00523	38.30
2.02190	38.28
2.03857	38.25
2.05523	38.21
2.07190	38.19
2.08857	38.16
2.10523	38.13
2.12190	38.10
2.13857	38.07
2.15523	38.03
2.17190	38.01
2.18857	37.98
2.20523	37.95
2.22190	37.92
2.23857	37.89
2.25523	37.86
2.27190	37.83
2.28857	37.80
2.30523	37.77
2.32190	37.74
2.33857	37.71
2.35523	37.68
2.37190	37.66
2.38857	37.65
2.40523	37.65
2.42190	37.66
2.43857	37.66
2.45523	37.66
2.47190	37.66
2.48857	37.65
2.50523	37.65
2.52190	37.64
2.53857	37.65
2.55523	37.65
2.57190	37.65
2.58857	37.65
2.60523	37.65
2.62190	37.65
2.63857	37.65
2.65523	37.65
2.67190	37.65
2.68857	37.64
2.70523	37.64
2.72190	37.65
2.73857	37.65
2.75523	37.64
2.77190	37.64
2.78857	37.64
2.80523	37.64
2.82190	37.64
2.83857	37.64
2.85523	37.64
2.87190	37.64
2.88857	37.64
2.90523	37.64
2.92190	37.64
2.93857	37.64
2.95523	37.64
2.97190	37.64
2.98857	37.64
3.00523	37.63
3.02190	37.63
3.03857	37.63
3.05523	37.63
3.07190	37.63
3.08857	37.63
3.10523	37.63
3.12190	37.62
3.13857	37.62
3.15523	37.62
3.17190	37.62
3.18857	37.62
3.20523	37.62
3.22190	37.62
3.23857	37.62
3.25523	37.62
3.27190	37.62
3.28857	37.62
3.30523	37.62
3.32190	37.62
3.33857	37.62
3.35523	37.62
3.37190	37.63
3.38857	37.63
3.40523	37.63
3.42190	37.63
3.43857	37.63
3.45523	37.63
3.47190	37.63
3.48857	37.63
3.50523	37.63
3.52190	37.63
3.53857	37.63
3.55523	37.63
3.57190	37.63
3.58857	37.63
3.60523	37.63
3.62190	37.63
3.63857	37.63
3.65523	37.63
3.67190	37.63
3.68857	37.63
3.70523	37.63
3.72190	37.63
3.73857	37.63
3.75523	37.63
3.77190	37.63
3.78857	37.63
3.80523	37.63
3.82190	37.63
3.83857	37.63
3.85523	37.63
3.87190	37.63
3.88857	37.63
3.90523	37.63
3.92190	37.63
3.93857	37.63
3.95523	37.63
3.97190	37.63
3.98857	37.63

