[Header]
Application Name	LabSolutions
Version	5.110
Data File Name	C:\Users\User\Desktop\GC Analyses\Jack\UIC Prairie Sampling\8.12.22\220812_058.gcd
Output Date	10/14/2022
Output Time	2:33:53 PM

[File Information]
Type	Data File
Generated	10/11/2022 11:40:16 AM
Generated by	System Administrator
Modified	10/11/2022 11:44:40 AM
Modified by	System Administrator

[Sample Information]
Operator Name	System Administrator
Acquired	10/11/2022 11:40:38 AM
Sample Type	1:Standard
Level	1
Sample Name	220812_UICPrairie
Sample ID	220812_UICPrairie
ISTD Amount1	1
ISTD Amount2	1
ISTD Amount3	1
ISTD Amount4	1
ISTD Amount5	1
ISTD Amount6	1
ISTD Amount7	1
ISTD Amount8	1
ISTD Amount9	1
ISTD Amount10	1
ISTD Amount11	1
ISTD Amount12	1
ISTD Amount13	1
ISTD Amount14	1
ISTD Amount15	1
ISTD Amount16	1
ISTD Amount17	1
ISTD Amount18	1
ISTD Amount19	1
ISTD Amount20	1
ISTD Amount21	1
ISTD Amount22	1
ISTD Amount23	1
ISTD Amount24	1
ISTD Amount25	1
ISTD Amount26	1
ISTD Amount27	1
ISTD Amount28	1
ISTD Amount29	1
ISTD Amount30	1
ISTD Amount31	1
ISTD Amount32	1
Sample Amount	1
Dilution Factor	1
Vial#	1
Injection Volume	1
Injection Count	1
Bar Code	

[Original Files]
Data File	C:\Users\User\Desktop\GC Analyses\Jack\UIC Prairie Sampling\8.12.22\220812_058.gcd
Method File	C:\LabSolutions\Data\GHG_4min_2022\ghg3_togas_w_acet_4 min_new_int.gcm
Batch File	
Report Format File	c:\LabSolutions\System\DEFAULT.lsr

[File Description]


[Configuration]
Instrument Name	C0B7VH3-Instrument1
Instrument #	1
Line #	1
# of Detectors	3
Detector ID	DET#1	DET#2	DET#3
Detector Name	FID	PTCD	ECD
# of Channels	1	1	1

[Peak Table(Ch1)]
# of Peaks	3
Peak#	R.Time	I.Time	F.Time	Area	Height	A/H	Conc.	Mark	ID#	Name	k'	Plate #	Plate Ht.	Tailing	Resolution	Sep.Factor	Area Ratio	Height Ratio	Conc. %	Norm Conc.
1	1.472	1.435	1.534	4803	1710	2.808	100.000	   	1	CO	0.000	5883	25.498	1.443	0.000	0.000	0	0	16.667	16.667
2	1.571	1.534	1.644	20039	10093	1.985	100.000	 V 	2	CH4	0.067	11480	13.066	1.147	1.462	0.000	0	0	16.667	16.667
3	1.996	1.952	2.275	2170484	1049678	2.068	400.000	   	3	CO2	0.356	17576	8.535	1.312	7.155	5.296	0	0	66.667	66.667

[Peak Table(Ch2)]
# of Peaks	0

[Peak Table(Ch3)]
# of Peaks	2
Peak#	R.Time	I.Time	F.Time	Area	Height	A/H	Conc.	Mark	ID#	Name	k'	Plate #	Plate Ht.	Tailing	Resolution	Sep.Factor	Area Ratio	Height Ratio	Conc. %	Norm Conc.
1	2.590	2.411	2.653	3993	512	7.800	0.000	   			0.000	3002	49.962	0.000	0.000	0.000	0	0	0.000	0.000
2	2.880	2.653	3.272	66099	15752	4.196	1.000	 V 	1	N2O	0.112	12262	12.233	1.642	1.976	0.000	0	0	100.000	100.000

[Compound Results(Ch1)]
# of IDs	6
ID#	Name	R.Time	Area	Height	Conc.	Curve	3rd	2nd	1st	Constant	Area Ratio	Height Ratio	Conc. %	Norm Conc.
1	CO	1.472	4803	1710	100.000	Linear	0.000000e+00	0.000000e+00	4.803310e+001	0.000000e+00	0	0	16.667	16.667
2	CH4	1.571	20039	10093	100.000	Linear	0.000000e+00	0.000000e+00	2.003925e+002	0.000000e+00	0	0	16.667	16.667
3	CO2	1.996	2170484	1049678	400.000	Linear	0.000000e+00	0.000000e+00	5.426211e+003	0.000000e+00	0	0	66.667	66.667
4	Ethylene	0.000	0	0	0.000	Linear	0.000000e+00	0.000000e+00	0.000000e+00	0.000000e+00	0	0	0.000	0.000
5	Acetylene	0.000	0	0	0.000	Linear	0.000000e+00	0.000000e+00	0.000000e+00	0.000000e+00	0	0	0.000	0.000
6	Ethane	0.000	0	0	0.000	Linear	0.000000e+00	0.000000e+00	0.000000e+00	0.000000e+00	0	0	0.000	0.000

[Compound Results(Ch2)]
# of IDs	5
ID#	Name	R.Time	Area	Height	Conc.	Curve	3rd	2nd	1st	Constant	Area Ratio	Height Ratio	Conc. %	Norm Conc.
1	Hydrogen	0.000	0	0	0.000	Linear	0.000000e+00	0.000000e+00	0.000000e+00	0.000000e+00	0	0	0.000	0.000
2	Oxygen	0.000	0	0	0.000	Linear	0.000000e+00	0.000000e+00	0.000000e+00	0.000000e+00	0	0	0.000	0.000
3	Nitrogen	0.000	0	0	0.000	Linear	0.000000e+00	0.000000e+00	0.000000e+00	0.000000e+00	0	0	0.000	0.000
4	Methane	0.000	0	0	0.000	Linear	0.000000e+00	0.000000e+00	0.000000e+00	0.000000e+00	0	0	0.000	0.000
5	Carbon Monoxide	0.000	0	0	0.000	Linear	0.000000e+00	0.000000e+00	0.000000e+00	0.000000e+00	0	0	0.000	0.000

[Compound Results(Ch3)]
# of IDs	2
ID#	Name	R.Time	Area	Height	Conc.	Curve	3rd	2nd	1st	Constant	Area Ratio	Height Ratio	Conc. %	Norm Conc.
1	N2O	2.880	66099	15752	1.000	Linear	0.000000e+00	0.000000e+00	6.609929e+004	0.000000e+00	0	0	100.000	100.000
2	SF6	0.000	0	0	0.000	Linear	0.000000e+00	0.000000e+00	0.000000e+00	0.000000e+00	0	0	0.000	0.000

[Group Results(Ch1)]
# of Groups	0

[Group Results(Ch2)]
# of Groups	0

[Group Results(Ch3)]
# of Groups	0

[Chromatogram (Ch1)]
Interval(msec)	220
# of Points	1091
Start Time(min)	0.002
End Time(min)	3.998
R.Time (min)	Intensity
0.00167	-49
0.00533	-49
0.00900	-45
0.01267	-41
0.01633	-40
0.02000	-41
0.02367	-42
0.02733	-42
0.03100	-41
0.03467	-38
0.03833	-32
0.04200	-29
0.04567	-28
0.04933	-28
0.05300	-27
0.05667	-27
0.06033	-25
0.06400	-24
0.06767	-22
0.07133	-21
0.07500	-20
0.07867	-20
0.08233	-20
0.08600	-20
0.08967	-21
0.09333	-21
0.09700	-20
0.10067	-14
0.10433	-3
0.10800	4
0.11167	3
0.11533	-5
0.11900	-17
0.12267	-30
0.12633	-40
0.13000	-46
0.13367	-50
0.13733	-54
0.14100	-59
0.14467	-63
0.14833	-61
0.15200	-55
0.15567	-50
0.15933	-43
0.16300	-36
0.16667	-32
0.17033	-28
0.17400	-24
0.17767	-23
0.18133	-24
0.18500	-26
0.18867	-28
0.19233	-32
0.19600	-38
0.19967	-43
0.20333	-45
0.20700	-45
0.21067	-44
0.21433	-42
0.21800	-43
0.22167	-46
0.22533	-46
0.22900	-43
0.23267	-37
0.23633	-32
0.24000	-28
0.24367	-25
0.24733	-24
0.25100	-26
0.25467	-28
0.25833	-34
0.26200	-39
0.26567	-42
0.26933	-42
0.27300	-44
0.27667	-46
0.28033	-44
0.28400	-38
0.28767	-33
0.29133	-30
0.29500	-28
0.29867	-24
0.30233	-21
0.30600	-21
0.30967	-23
0.31333	-26
0.31700	-29
0.32067	-31
0.32433	-34
0.32800	-38
0.33167	-45
0.33533	-50
0.33900	-48
0.34267	-42
0.34633	-38
0.35000	-34
0.35367	-30
0.35733	-26
0.36100	-20
0.36467	-20
0.36833	-32
0.37200	-52
0.37567	-76
0.37933	-95
0.38300	-107
0.38667	-110
0.39033	-107
0.39400	-103
0.39767	-95
0.40133	-86
0.40500	-77
0.40867	-71
0.41233	-65
0.41600	-59
0.41967	-52
0.42333	-48
0.42700	-49
0.43067	-53
0.43433	-55
0.43800	-54
0.44167	-54
0.44533	-54
0.44900	-56
0.45267	-56
0.45633	-53
0.46000	-51
0.46367	-51
0.46733	-53
0.47100	-56
0.47467	-54
0.47833	-51
0.48200	-49
0.48567	-52
0.48933	-58
0.49300	-64
0.49667	-68
0.50033	-69
0.50400	-67
0.50767	-60
0.51133	-49
0.51500	-45
0.51867	-47
0.52233	-52
0.52600	-55
0.52967	-60
0.53333	-65
0.53700	-69
0.54067	-70
0.54433	-68
0.54800	-61
0.55167	-51
0.55533	-40
0.55900	-33
0.56267	-30
0.56633	-33
0.57000	-40
0.57367	-48
0.57733	-49
0.58100	-44
0.58467	-40
0.58833	-41
0.59200	-44
0.59567	-50
0.59933	-58
0.60300	-68
0.60667	-79
0.61033	-85
0.61400	-86
0.61767	-86
0.62133	-84
0.62500	-77
0.62867	-71
0.63233	-68
0.63600	-66
0.63967	-65
0.64333	-66
0.64700	-71
0.65067	-76
0.65433	-76
0.65800	-73
0.66167	-66
0.66533	-61
0.66900	-63
0.67267	-63
0.67633	-61
0.68000	-59
0.68367	-59
0.68733	-64
0.69100	-72
0.69467	-74
0.69833	-70
0.70200	-64
0.70567	-61
0.70933	-63
0.71300	-66
0.71667	-68
0.72033	-71
0.72400	-74
0.72767	-75
0.73133	-73
0.73500	-71
0.73867	-71
0.74233	-74
0.74600	-79
0.74967	-81
0.75333	-79
0.75700	-75
0.76067	-72
0.76433	-67
0.76800	-67
0.77167	-69
0.77533	-73
0.77900	-75
0.78267	-69
0.78633	-62
0.79000	-62
0.79367	-72
0.79733	-85
0.80100	-96
0.80467	-103
0.80833	-106
0.81200	-105
0.81567	-100
0.81933	-93
0.82300	-83
0.82667	-73
0.83033	-71
0.83400	-76
0.83767	-83
0.84133	-87
0.84500	-90
0.84867	-93
0.85233	-96
0.85600	-97
0.85967	-96
0.86333	-91
0.86700	-83
0.87067	-80
0.87433	-81
0.87800	-82
0.88167	-84
0.88533	-85
0.88900	-86
0.89267	-90
0.89633	-97
0.90000	-106
0.90367	-117
0.90733	-123
0.91100	-120
0.91467	-114
0.91833	-110
0.92200	-106
0.92567	-101
0.92933	-93
0.93300	-84
0.93667	-74
0.94033	-64
0.94400	-58
0.94767	-56
0.95133	-61
0.95500	-69
0.95867	-74
0.96233	-78
0.96600	-79
0.96967	-77
0.97333	-74
0.97700	-74
0.98067	-77
0.98433	-81
0.98800	-84
0.99167	-89
0.99533	-95
0.99900	-99
1.00267	-100
1.00633	-100
1.01000	-101
1.01367	-103
1.01733	-104
1.02100	-103
1.02467	-99
1.02833	-97
1.03200	-94
1.03567	-93
1.03933	-94
1.04300	-94
1.04667	-91
1.05033	-84
1.05400	-78
1.05767	-77
1.06133	-80
1.06500	-86
1.06867	-91
1.07233	-93
1.07600	-95
1.07967	-94
1.08333	-93
1.08700	-95
1.09067	-98
1.09433	-102
1.09800	-105
1.10167	-104
1.10533	-103
1.10900	-102
1.11267	-97
1.11633	-91
1.12000	-86
1.12367	-83
1.12733	-81
1.13100	-75
1.13467	-70
1.13833	-70
1.14200	-76
1.14567	-85
1.14933	-98
1.15300	-112
1.15667	-119
1.16033	-120
1.16400	-115
1.16767	-110
1.17133	-105
1.17500	-103
1.17867	-101
1.18233	-100
1.18600	-99
1.18967	-97
1.19333	-96
1.19700	-97
1.20067	-99
1.20433	-96
1.20800	-94
1.21167	-92
1.21533	-91
1.21900	-94
1.22267	-99
1.22633	-104
1.23000	-110
1.23367	-117
1.23733	-116
1.24100	-113
1.24467	-107
1.24833	-101
1.25200	-95
1.25567	-91
1.25933	-90
1.26300	-93
1.26667	-95
1.27033	-97
1.27400	-102
1.27767	-108
1.28133	-115
1.28500	-120
1.28867	-122
1.29233	-121
1.29600	-120
1.29967	-118
1.30333	-117
1.30700	-119
1.31067	-119
1.31433	-116
1.31800	-111
1.32167	-105
1.32533	-103
1.32900	-106
1.33267	-108
1.33633	-107
1.34000	-107
1.34367	-106
1.34733	-107
1.35100	-108
1.35467	-107
1.35833	-107
1.36200	-108
1.36567	-112
1.36933	-116
1.37300	-119
1.37667	-118
1.38033	-115
1.38400	-112
1.38767	-107
1.39133	-102
1.39500	-100
1.39867	-97
1.40233	-96
1.40600	-98
1.40967	-104
1.41333	-109
1.41700	-112
1.42067	-113
1.42433	-114
1.42800	-113
1.43167	-111
1.43533	-109
1.43900	-89
1.44267	-2
1.44633	220
1.45000	544
1.45367	875
1.45733	1155
1.46100	1364
1.46467	1499
1.46833	1572
1.47200	1596
1.47567	1579
1.47933	1528
1.48300	1435
1.48667	1294
1.49033	1114
1.49400	916
1.49767	721
1.50133	545
1.50500	396
1.50867	271
1.51233	172
1.51600	98
1.51967	43
1.52333	4
1.52700	-25
1.53067	-46
1.53433	-57
1.53800	-26
1.54167	173
1.54533	812
1.54900	2107
1.55267	3936
1.55633	5905
1.56000	7656
1.56367	8995
1.56733	9809
1.57100	9964
1.57467	9368
1.57833	8114
1.58200	6502
1.58567	4876
1.58933	3470
1.59300	2366
1.59667	1554
1.60033	986
1.60400	604
1.60767	352
1.61133	187
1.61500	80
1.61867	9
1.62233	-38
1.62600	-71
1.62967	-94
1.63333	-111
1.63700	-126
1.64067	-136
1.64433	-140
1.64800	-143
1.65167	-146
1.65533	-148
1.65900	-147
1.66267	-145
1.66633	-142
1.67000	-140
1.67367	-140
1.67733	-142
1.68100	-145
1.68467	-149
1.68833	-152
1.69200	-151
1.69567	-149
1.69933	-147
1.70300	-145
1.70667	-145
1.71033	-146
1.71400	-146
1.71767	-144
1.72133	-141
1.72500	-139
1.72867	-140
1.73233	-144
1.73600	-149
1.73967	-150
1.74333	-151
1.74700	-148
1.75067	-142
1.75433	-138
1.75800	-136
1.76167	-135
1.76533	-136
1.76900	-139
1.77267	-144
1.77633	-149
1.78000	-149
1.78367	-146
1.78733	-143
1.79100	-143
1.79467	-145
1.79833	-144
1.80200	-143
1.80567	-144
1.80933	-145
1.81300	-145
1.81667	-146
1.82033	-145
1.82400	-142
1.82767	-138
1.83133	-136
1.83500	-137
1.83867	-138
1.84233	-136
1.84600	-132
1.84967	-126
1.85333	-125
1.85700	-127
1.86067	-130
1.86433	-136
1.86800	-142
1.87167	-142
1.87533	-137
1.87900	-128
1.88267	-119
1.88633	-114
1.89000	-113
1.89367	-115
1.89733	-121
1.90100	-129
1.90467	-139
1.90833	-148
1.91200	-153
1.91567	-155
1.91933	-157
1.92300	-156
1.92667	-153
1.93033	-149
1.93400	-145
1.93767	-139
1.94133	-136
1.94500	-137
1.94867	-141
1.95233	-129
1.95600	-15
1.95967	692
1.96333	4151
1.96700	17043
1.97067	53728
1.97433	134147
1.97800	271263
1.98167	456362
1.98533	659396
1.98900	843859
1.99267	980104
1.99633	1049588
2.00000	1044608
2.00367	969659
2.00733	841683
2.01100	686285
2.01467	529386
2.01833	390027
2.02200	277393
2.02567	192450
2.02933	131502
2.03300	89261
2.03667	60655
2.04033	41543
2.04400	28855
2.04767	20432
2.05133	14809
2.05500	11018
2.05867	8425
2.06233	6616
2.06600	5326
2.06967	4383
2.07333	3681
2.07700	3148
2.08067	2730
2.08433	2392
2.08800	2112
2.09167	1879
2.09533	1685
2.09900	1520
2.10267	1383
2.10633	1267
2.11000	1169
2.11367	1087
2.11733	1017
2.12100	956
2.12467	897
2.12833	841
2.13200	788
2.13567	739
2.13933	697
2.14300	662
2.14667	633
2.15033	607
2.15400	582
2.15767	554
2.16133	525
2.16500	495
2.16867	468
2.17233	446
2.17600	427
2.17967	412
2.18333	399
2.18700	390
2.19067	379
2.19433	365
2.19800	349
2.20167	332
2.20533	313
2.20900	294
2.21267	278
2.21633	269
2.22000	262
2.22367	255
2.22733	250
2.23100	247
2.23467	243
2.23833	235
2.24200	229
2.24567	224
2.24933	217
2.25300	208
2.25667	199
2.26033	188
2.26400	178
2.26767	169
2.27133	161
2.27500	157
2.27867	159
2.28233	162
2.28600	166
2.28967	168
2.29333	168
2.29700	167
2.30067	166
2.30433	160
2.30800	152
2.31167	143
2.31533	137
2.31900	130
2.32267	120
2.32633	108
2.33000	99
2.33367	91
2.33733	86
2.34100	85
2.34467	83
2.34833	80
2.35200	76
2.35567	73
2.35933	75
2.36300	81
2.36667	88
2.37033	95
2.37400	98
2.37767	94
2.38133	83
2.38500	69
2.38867	59
2.39233	51
2.39600	42
2.39967	39
2.40333	43
2.40700	52
2.41067	61
2.41433	63
2.41800	58
2.42167	55
2.42533	57
2.42900	62
2.43267	68
2.43633	73
2.44000	71
2.44367	62
2.44733	50
2.45100	42
2.45467	36
2.45833	31
2.46200	27
2.46567	24
2.46933	20
2.47300	17
2.47667	17
2.48033	21
2.48400	26
2.48767	32
2.49133	34
2.49500	34
2.49867	31
2.50233	27
2.50600	25
2.50967	24
2.51333	23
2.51700	25
2.52067	30
2.52433	37
2.52800	41
2.53167	38
2.53533	29
2.53900	15
2.54267	1
2.54633	-12
2.55000	-18
2.55367	-17
2.55733	-12
2.56100	-8
2.56467	-7
2.56833	-10
2.57200	-11
2.57567	-10
2.57933	-10
2.58300	-9
2.58667	-7
2.59033	-6
2.59400	-4
2.59767	-3
2.60133	-4
2.60500	-4
2.60867	-3
2.61233	-3
2.61600	-3
2.61967	-6
2.62333	-12
2.62700	-15
2.63067	-17
2.63433	-18
2.63800	-19
2.64167	-16
2.64533	-11
2.64900	-5
2.65267	-3
2.65633	-8
2.66000	-19
2.66367	-33
2.66733	-46
2.67100	-55
2.67467	-62
2.67833	-65
2.68200	-66
2.68567	-64
2.68933	-59
2.69300	-50
2.69667	-43
2.70033	-37
2.70400	-35
2.70767	-37
2.71133	-40
2.71500	-42
2.71867	-41
2.72233	-36
2.72600	-32
2.72967	-29
2.73333	-28
2.73700	-29
2.74067	-32
2.74433	-35
2.74800	-40
2.75167	-44
2.75533	-45
2.75900	-43
2.76267	-41
2.76633	-43
2.77000	-45
2.77367	-41
2.77733	-36
2.78100	-34
2.78467	-36
2.78833	-38
2.79200	-40
2.79567	-43
2.79933	-50
2.80300	-58
2.80667	-62
2.81033	-63
2.81400	-63
2.81767	-62
2.82133	-61
2.82500	-62
2.82867	-63
2.83233	-63
2.83600	-60
2.83967	-57
2.84333	-54
2.84700	-51
2.85067	-50
2.85433	-48
2.85800	-46
2.86167	-46
2.86533	-48
2.86900	-52
2.87267	-53
2.87633	-53
2.88000	-53
2.88367	-55
2.88733	-61
2.89100	-66
2.89467	-68
2.89833	-64
2.90200	-57
2.90567	-49
2.90933	-42
2.91300	-39
2.91667	-41
2.92033	-48
2.92400	-54
2.92767	-57
2.93133	-56
2.93500	-58
2.93867	-64
2.94233	-69
2.94600	-70
2.94967	-69
2.95333	-68
2.95700	-68
2.96067	-68
2.96433	-68
2.96800	-69
2.97167	-73
2.97533	-79
2.97900	-83
2.98267	-84
2.98633	-82
2.99000	-77
2.99367	-71
2.99733	-68
3.00100	-65
3.00467	-63
3.00833	-63
3.01200	-65
3.01567	-62
3.01933	-54
3.02300	-49
3.02667	-50
3.03033	-59
3.03400	-72
3.03767	-82
3.04133	-87
3.04500	-87
3.04867	-89
3.05233	-90
3.05600	-88
3.05967	-82
3.06333	-74
3.06700	-67
3.07067	-63
3.07433	-63
3.07800	-66
3.08167	-70
3.08533	-75
3.08900	-78
3.09267	-80
3.09633	-82
3.10000	-84
3.10367	-87
3.10733	-80
3.11100	-73
3.11467	-72
3.11833	-76
3.12200	-80
3.12567	-80
3.12933	-80
3.13300	-78
3.13667	-74
3.14033	-73
3.14400	-75
3.14767	-76
3.15133	-76
3.15500	-74
3.15867	-69
3.16233	-65
3.16600	-65
3.16967	-69
3.17333	-72
3.17700	-76
3.18067	-80
3.18433	-85
3.18800	-89
3.19167	-90
3.19533	-84
3.19900	-74
3.20267	-68
3.20633	-70
3.21000	-77
3.21367	-86
3.21733	-91
3.22100	-92
3.22467	-89
3.22833	-84
3.23200	-79
3.23567	-74
3.23933	-70
3.24300	-70
3.24667	-72
3.25033	-74
3.25400	-79
3.25767	-85
3.26133	-88
3.26500	-85
3.26867	-79
3.27233	-73
3.27600	-70
3.27967	-69
3.28333	-71
3.28700	-72
3.29067	-69
3.29433	-64
3.29800	-61
3.30167	-63
3.30533	-66
3.30900	-69
3.31267	-74
3.31633	-78
3.32000	-81
3.32367	-83
3.32733	-88
3.33100	-92
3.33467	-92
3.33833	-90
3.34200	-90
3.34567	-90
3.34933	-90
3.35300	-92
3.35667	-94
3.36033	-91
3.36400	-87
3.36767	-80
3.37133	-74
3.37500	-73
3.37867	-74
3.38233	-73
3.38600	-71
3.38967	-69
3.39333	-70
3.39700	-71
3.40067	-71
3.40433	-70
3.40800	-72
3.41167	-78
3.41533	-85
3.41900	-92
3.42267	-97
3.42633	-100
3.43000	-100
3.43367	-96
3.43733	-89
3.44100	-84
3.44467	-84
3.44833	-86
3.45200	-87
3.45567	-89
3.45933	-92
3.46300	-90
3.46667	-88
3.47033	-82
3.47400	-74
3.47767	-70
3.48133	-72
3.48500	-75
3.48867	-74
3.49233	-70
3.49600	-70
3.49967	-74
3.50333	-79
3.50700	-82
3.51067	-82
3.51433	-80
3.51800	-78
3.52167	-75
3.52533	-72
3.52900	-69
3.53267	-66
3.53633	-65
3.54000	-66
3.54367	-68
3.54733	-67
3.55100	-63
3.55467	-62
3.55833	-61
3.56200	-60
3.56567	-61
3.56933	-63
3.57300	-66
3.57667	-68
3.58033	-67
3.58400	-69
3.58767	-71
3.59133	-76
3.59500	-79
3.59867	-78
3.60233	-77
3.60600	-77
3.60967	-74
3.61333	-68
3.61700	-63
3.62067	-55
3.62433	-47
3.62800	-42
3.63167	-47
3.63533	-59
3.63900	-70
3.64267	-81
3.64633	-88
3.65000	-85
3.65367	-77
3.65733	-67
3.66100	-59
3.66467	-57
3.66833	-64
3.67200	-74
3.67567	-82
3.67933	-87
3.68300	-89
3.68667	-89
3.69033	-90
3.69400	-87
3.69767	-83
3.70133	-79
3.70500	-74
3.70867	-69
3.71233	-67
3.71600	-66
3.71967	-67
3.72333	-69
3.72700	-66
3.73067	-58
3.73433	-49
3.73800	-46
3.74167	-51
3.74533	-62
3.74900	-72
3.75267	-80
3.75633	-82
3.76000	-83
3.76367	-81
3.76733	-76
3.77100	-70
3.77467	-66
3.77833	-67
3.78200	-67
3.78567	-68
3.78933	-69
3.79300	-71
3.79667	-71
3.80033	-71
3.80400	-67
3.80767	-62
3.81133	-58
3.81500	-56
3.81867	-59
3.82233	-67
3.82600	-73
3.82967	-74
3.83333	-72
3.83700	-70
3.84067	-70
3.84433	-73
3.84800	-76
3.85167	-76
3.85533	-74
3.85900	-74
3.86267	-77
3.86633	-82
3.87000	-87
3.87367	-90
3.87733	-91
3.88100	-86
3.88467	-82
3.88833	-79
3.89200	-75
3.89567	-70
3.89933	-65
3.90300	-63
3.90667	-63
3.91033	-67
3.91400	-69
3.91767	-73
3.92133	-80
3.92500	-83
3.92867	-80
3.93233	-71
3.93600	-62
3.93967	-57
3.94333	-57
3.94700	-55
3.95067	-53
3.95433	-52
3.95800	-54
3.96167	-64
3.96533	-76
3.96900	-88
3.97267	-98
3.97633	-106
3.98000	-108
3.98367	-108
3.98733	-107
3.99100	-103
3.99467	-98
3.99833	-97

[Chromatogram (Ch2)]
Interval(msec)	220
# of Points	1091
Start Time(min)	0.002
End Time(min)	3.998
R.Time (min)	Intensity
0.00167	1
0.00533	1
0.00900	1
0.01267	2
0.01633	2
0.02000	2
0.02367	2
0.02733	3
0.03100	3
0.03467	3
0.03833	3
0.04200	3
0.04567	3
0.04933	3
0.05300	3
0.05667	3
0.06033	4
0.06400	4
0.06767	4
0.07133	4
0.07500	5
0.07867	5
0.08233	5
0.08600	5
0.08967	5
0.09333	5
0.09700	5
0.10067	5
0.10433	5
0.10800	5
0.11167	5
0.11533	5
0.11900	5
0.12267	5
0.12633	5
0.13000	5
0.13367	5
0.13733	5
0.14100	4
0.14467	4
0.14833	4
0.15200	4
0.15567	3
0.15933	3
0.16300	3
0.16667	4
0.17033	4
0.17400	4
0.17767	4
0.18133	4
0.18500	4
0.18867	4
0.19233	4
0.19600	4
0.19967	4
0.20333	4
0.20700	4
0.21067	4
0.21433	4
0.21800	4
0.22167	4
0.22533	4
0.22900	4
0.23267	3
0.23633	3
0.24000	2
0.24367	2
0.24733	1
0.25100	1
0.25467	1
0.25833	1
0.26200	2
0.26567	2
0.26933	2
0.27300	2
0.27667	2
0.28033	2
0.28400	3
0.28767	3
0.29133	3
0.29500	3
0.29867	3
0.30233	3
0.30600	3
0.30967	2
0.31333	3
0.31700	3
0.32067	3
0.32433	4
0.32800	4
0.33167	4
0.33533	4
0.33900	4
0.34267	4
0.34633	4
0.35000	4
0.35367	4
0.35733	4
0.36100	4
0.36467	4
0.36833	4
0.37200	4
0.37567	3
0.37933	3
0.38300	4
0.38667	4
0.39033	4
0.39400	4
0.39767	4
0.40133	4
0.40500	4
0.40867	4
0.41233	4
0.41600	4
0.41967	3
0.42333	3
0.42700	3
0.43067	2
0.43433	2
0.43800	1
0.44167	1
0.44533	1
0.44900	1
0.45267	1
0.45633	1
0.46000	1
0.46367	1
0.46733	1
0.47100	1
0.47467	1
0.47833	1
0.48200	2
0.48567	2
0.48933	2
0.49300	2
0.49667	3
0.50033	3
0.50400	3
0.50767	3
0.51133	3
0.51500	3
0.51867	3
0.52233	3
0.52600	3
0.52967	3
0.53333	3
0.53700	3
0.54067	3
0.54433	3
0.54800	3
0.55167	3
0.55533	3
0.55900	3
0.56267	2
0.56633	2
0.57000	2
0.57367	2
0.57733	2
0.58100	2
0.58467	2
0.58833	2
0.59200	2
0.59567	2
0.59933	2
0.60300	2
0.60667	2
0.61033	2
0.61400	2
0.61767	2
0.62133	1
0.62500	1
0.62867	1
0.63233	1
0.63600	1
0.63967	1
0.64333	1
0.64700	2
0.65067	2
0.65433	2
0.65800	2
0.66167	1
0.66533	1
0.66900	1
0.67267	1
0.67633	1
0.68000	1
0.68367	1
0.68733	1
0.69100	1
0.69467	0
0.69833	0
0.70200	-0
0.70567	-0
0.70933	-0
0.71300	-1
0.71667	-1
0.72033	-1
0.72400	-0
0.72767	-1
0.73133	-1
0.73500	-1
0.73867	-1
0.74233	-1
0.74600	-1
0.74967	-1
0.75333	-1
0.75700	-1
0.76067	-1
0.76433	-1
0.76800	-1
0.77167	-1
0.77533	-1
0.77900	-0
0.78267	0
0.78633	1
0.79000	1
0.79367	2
0.79733	2
0.80100	2
0.80467	2
0.80833	3
0.81200	3
0.81567	3
0.81933	3
0.82300	3
0.82667	3
0.83033	4
0.83400	4
0.83767	4
0.84133	4
0.84500	4
0.84867	4
0.85233	4
0.85600	3
0.85967	3
0.86333	3
0.86700	2
0.87067	2
0.87433	2
0.87800	2
0.88167	1
0.88533	1
0.88900	1
0.89267	1
0.89633	1
0.90000	1
0.90367	0
0.90733	-0
0.91100	-1
0.91467	-1
0.91833	-1
0.92200	-1
0.92567	-1
0.92933	-1
0.93300	-1
0.93667	-1
0.94033	-1
0.94400	-1
0.94767	-2
0.95133	-2
0.95500	-2
0.95867	-2
0.96233	-2
0.96600	-2
0.96967	-2
0.97333	-3
0.97700	-3
0.98067	-3
0.98433	-3
0.98800	-3
0.99167	-3
0.99533	-3
0.99900	-3
1.00267	-3
1.00633	-2
1.01000	-2
1.01367	-2
1.01733	-2
1.02100	-2
1.02467	-2
1.02833	-1
1.03200	-1
1.03567	-1
1.03933	-1
1.04300	-0
1.04667	-0
1.05033	0
1.05400	0
1.05767	1
1.06133	1
1.06500	1
1.06867	1
1.07233	1
1.07600	1
1.07967	1
1.08333	1
1.08700	1
1.09067	1
1.09433	1
1.09800	1
1.10167	1
1.10533	1
1.10900	1
1.11267	1
1.11633	1
1.12000	1
1.12367	1
1.12733	1
1.13100	1
1.13467	2
1.13833	2
1.14200	2
1.14567	2
1.14933	2
1.15300	2
1.15667	1
1.16033	1
1.16400	1
1.16767	1
1.17133	1
1.17500	1
1.17867	0
1.18233	0
1.18600	-0
1.18967	-0
1.19333	-0
1.19700	-1
1.20067	-1
1.20433	-1
1.20800	-1
1.21167	-1
1.21533	-1
1.21900	-1
1.22267	-1
1.22633	-2
1.23000	-2
1.23367	-2
1.23733	-2
1.24100	-2
1.24467	-3
1.24833	-3
1.25200	-3
1.25567	-3
1.25933	-3
1.26300	-3
1.26667	-2
1.27033	-2
1.27400	-2
1.27767	-2
1.28133	-2
1.28500	-2
1.28867	-2
1.29233	-2
1.29600	-2
1.29967	-1
1.30333	-1
1.30700	-1
1.31067	-1
1.31433	-1
1.31800	-1
1.32167	-0
1.32533	-0
1.32900	-0
1.33267	0
1.33633	0
1.34000	0
1.34367	0
1.34733	1
1.35100	1
1.35467	1
1.35833	1
1.36200	0
1.36567	-0
1.36933	-1
1.37300	-1
1.37667	-1
1.38033	-2
1.38400	-2
1.38767	-2
1.39133	-2
1.39500	-2
1.39867	-2
1.40233	-2
1.40600	-2
1.40967	-3
1.41333	-3
1.41700	-3
1.42067	-3
1.42433	-3
1.42800	-3
1.43167	-2
1.43533	-2
1.43900	-2
1.44267	-1
1.44633	-1
1.45000	-1
1.45367	-0
1.45733	-0
1.46100	-0
1.46467	-0
1.46833	-0
1.47200	-0
1.47567	-0
1.47933	-0
1.48300	-0
1.48667	-0
1.49033	-0
1.49400	-0
1.49767	-0
1.50133	0
1.50500	0
1.50867	0
1.51233	0
1.51600	0
1.51967	0
1.52333	1
1.52700	1
1.53067	1
1.53433	1
1.53800	1
1.54167	1
1.54533	1
1.54900	1
1.55267	0
1.55633	-0
1.56000	-1
1.56367	-1
1.56733	-2
1.57100	-2
1.57467	-3
1.57833	-3
1.58200	-3
1.58567	-3
1.58933	-3
1.59300	-3
1.59667	-3
1.60033	-4
1.60400	-4
1.60767	-5
1.61133	-6
1.61500	-8
1.61867	-10
1.62233	-12
1.62600	-15
1.62967	-18
1.63333	-21
1.63700	-24
1.64067	-28
1.64433	-31
1.64800	-35
1.65167	-39
1.65533	-42
1.65900	-46
1.66267	-50
1.66633	-54
1.67000	-59
1.67367	-63
1.67733	-68
1.68100	-74
1.68467	-79
1.68833	-84
1.69200	-88
1.69567	-92
1.69933	-96
1.70300	-98
1.70667	-101
1.71033	-103
1.71400	-105
1.71767	-107
1.72133	-108
1.72500	-109
1.72867	-110
1.73233	-111
1.73600	-112
1.73967	-113
1.74333	-113
1.74700	-114
1.75067	-114
1.75433	-115
1.75800	-115
1.76167	-116
1.76533	-116
1.76900	-116
1.77267	-115
1.77633	-115
1.78000	-115
1.78367	-115
1.78733	-116
1.79100	-117
1.79467	-118
1.79833	-119
1.80200	-119
1.80567	-120
1.80933	-120
1.81300	-120
1.81667	-120
1.82033	-120
1.82400	-120
1.82767	-121
1.83133	-121
1.83500	-121
1.83867	-121
1.84233	-121
1.84600	-121
1.84967	-120
1.85333	-120
1.85700	-120
1.86067	-119
1.86433	-119
1.86800	-120
1.87167	-120
1.87533	-119
1.87900	-119
1.88267	-119
1.88633	-119
1.89000	-119
1.89367	-118
1.89733	-118
1.90100	-118
1.90467	-118
1.90833	-118
1.91200	-118
1.91567	-118
1.91933	-118
1.92300	-118
1.92667	-118
1.93033	-117
1.93400	-117
1.93767	-117
1.94133	-117
1.94500	-117
1.94867	-117
1.95233	-117
1.95600	-117
1.95967	-117
1.96333	-116
1.96700	-116
1.97067	-116
1.97433	-115
1.97800	-115
1.98167	-114
1.98533	-114
1.98900	-114
1.99267	-114
1.99633	-114
2.00000	-115
2.00367	-115
2.00733	-114
2.01100	-114
2.01467	-114
2.01833	-113
2.02200	-113
2.02567	-113
2.02933	-112
2.03300	-112
2.03667	-112
2.04033	-112
2.04400	-112
2.04767	-112
2.05133	-112
2.05500	-112
2.05867	-111
2.06233	-109
2.06600	-108
2.06967	-107
2.07333	-107
2.07700	-107
2.08067	-107
2.08433	-107
2.08800	-107
2.09167	-107
2.09533	-107
2.09900	-106
2.10267	-106
2.10633	-106
2.11000	-105
2.11367	-105
2.11733	-105
2.12100	-105
2.12467	-105
2.12833	-105
2.13200	-104
2.13567	-103
2.13933	-102
2.14300	-101
2.14667	-100
2.15033	-100
2.15400	-100
2.15767	-100
2.16133	-100
2.16500	-100
2.16867	-100
2.17233	-99
2.17600	-99
2.17967	-98
2.18333	-98
2.18700	-97
2.19067	-96
2.19433	-96
2.19800	-96
2.20167	-96
2.20533	-96
2.20900	-95
2.21267	-95
2.21633	-95
2.22000	-95
2.22367	-94
2.22733	-94
2.23100	-94
2.23467	-94
2.23833	-93
2.24200	-93
2.24567	-93
2.24933	-93
2.25300	-92
2.25667	-92
2.26033	-91
2.26400	-90
2.26767	-90
2.27133	-89
2.27500	-89
2.27867	-89
2.28233	-90
2.28600	-91
2.28967	-92
2.29333	-93
2.29700	-94
2.30067	-94
2.30433	-94
2.30800	-94
2.31167	-94
2.31533	-93
2.31900	-92
2.32267	-90
2.32633	-89
2.33000	-88
2.33367	-87
2.33733	-86
2.34100	-86
2.34467	-85
2.34833	-84
2.35200	-84
2.35567	-83
2.35933	-83
2.36300	-82
2.36667	-81
2.37033	-79
2.37400	-77
2.37767	-75
2.38133	-72
2.38500	-68
2.38867	-64
2.39233	-60
2.39600	-55
2.39967	-51
2.40333	-46
2.40700	-42
2.41067	-38
2.41433	-34
2.41800	-30
2.42167	-27
2.42533	-24
2.42900	-22
2.43267	-19
2.43633	-17
2.44000	-15
2.44367	-13
2.44733	-11
2.45100	-10
2.45467	-8
2.45833	-7
2.46200	-5
2.46567	-4
2.46933	-2
2.47300	-1
2.47667	0
2.48033	1
2.48400	3
2.48767	4
2.49133	5
2.49500	6
2.49867	6
2.50233	7
2.50600	7
2.50967	7
2.51333	8
2.51700	8
2.52067	9
2.52433	10
2.52800	11
2.53167	11
2.53533	12
2.53900	13
2.54267	13
2.54633	14
2.55000	14
2.55367	15
2.55733	16
2.56100	16
2.56467	17
2.56833	17
2.57200	18
2.57567	18
2.57933	18
2.58300	18
2.58667	18
2.59033	18
2.59400	18
2.59767	18
2.60133	19
2.60500	19
2.60867	20
2.61233	20
2.61600	21
2.61967	21
2.62333	21
2.62700	22
2.63067	22
2.63433	22
2.63800	22
2.64167	22
2.64533	22
2.64900	22
2.65267	22
2.65633	22
2.66000	22
2.66367	22
2.66733	22
2.67100	22
2.67467	22
2.67833	22
2.68200	22
2.68567	22
2.68933	22
2.69300	22
2.69667	22
2.70033	22
2.70400	23
2.70767	23
2.71133	23
2.71500	24
2.71867	24
2.72233	24
2.72600	24
2.72967	24
2.73333	24
2.73700	24
2.74067	24
2.74433	23
2.74800	23
2.75167	23
2.75533	23
2.75900	23
2.76267	23
2.76633	23
2.77000	24
2.77367	24
2.77733	25
2.78100	25
2.78467	26
2.78833	26
2.79200	26
2.79567	27
2.79933	27
2.80300	27
2.80667	27
2.81033	27
2.81400	28
2.81767	28
2.82133	28
2.82500	28
2.82867	28
2.83233	29
2.83600	28
2.83967	28
2.84333	27
2.84700	25
2.85067	20
2.85433	14
2.85800	4
2.86167	-9
2.86533	-27
2.86900	-50
2.87267	-77
2.87633	-110
2.88000	-148
2.88367	-191
2.88733	-239
2.89100	-291
2.89467	-348
2.89833	-409
2.90200	-473
2.90567	-541
2.90933	-611
2.91300	-684
2.91667	-760
2.92033	-837
2.92400	-916
2.92767	-998
2.93133	-1080
2.93500	-1164
2.93867	-1250
2.94233	-1337
2.94600	-1419
2.94967	-1484
2.95333	-1521
2.95700	-1523
2.96067	-1490
2.96433	-1428
2.96800	-1342
2.97167	-1242
2.97533	-1134
2.97900	-1024
2.98267	-915
2.98633	-811
2.99000	-714
2.99367	-625
2.99733	-544
3.00100	-472
3.00467	-407
3.00833	-350
3.01200	-300
3.01567	-257
3.01933	-219
3.02300	-187
3.02667	-159
3.03033	-135
3.03400	-114
3.03767	-97
3.04133	-81
3.04500	-68
3.04867	-57
3.05233	-48
3.05600	-39
3.05967	-32
3.06333	-26
3.06700	-21
3.07067	-17
3.07433	-13
3.07800	-10
3.08167	-8
3.08533	-5
3.08900	-3
3.09267	-1
3.09633	0
3.10000	2
3.10367	3
3.10733	4
3.11100	5
3.11467	6
3.11833	7
3.12200	8
3.12567	9
3.12933	10
3.13300	11
3.13667	12
3.14033	12
3.14400	13
3.14767	14
3.15133	16
3.15500	16
3.15867	17
3.16233	18
3.16600	18
3.16967	19
3.17333	19
3.17700	19
3.18067	20
3.18433	20
3.18800	21
3.19167	21
3.19533	21
3.19900	21
3.20267	21
3.20633	21
3.21000	21
3.21367	21
3.21733	22
3.22100	22
3.22467	22
3.22833	22
3.23200	22
3.23567	23
3.23933	23
3.24300	23
3.24667	23
3.25033	23
3.25400	23
3.25767	24
3.26133	24
3.26500	24
3.26867	25
3.27233	25
3.27600	25
3.27967	25
3.28333	25
3.28700	26
3.29067	26
3.29433	26
3.29800	26
3.30167	26
3.30533	26
3.30900	26
3.31267	26
3.31633	26
3.32000	26
3.32367	26
3.32733	25
3.33100	25
3.33467	25
3.33833	25
3.34200	25
3.34567	25
3.34933	26
3.35300	26
3.35667	26
3.36033	26
3.36400	26
3.36767	26
3.37133	26
3.37500	26
3.37867	25
3.38233	25
3.38600	25
3.38967	25
3.39333	25
3.39700	25
3.40067	25
3.40433	25
3.40800	25
3.41167	25
3.41533	25
3.41900	26
3.42267	26
3.42633	26
3.43000	26
3.43367	26
3.43733	26
3.44100	26
3.44467	26
3.44833	26
3.45200	26
3.45567	26
3.45933	26
3.46300	26
3.46667	26
3.47033	26
3.47400	26
3.47767	26
3.48133	26
3.48500	26
3.48867	26
3.49233	26
3.49600	26
3.49967	27
3.50333	27
3.50700	27
3.51067	27
3.51433	26
3.51800	26
3.52167	26
3.52533	25
3.52900	25
3.53267	25
3.53633	25
3.54000	25
3.54367	25
3.54733	25
3.55100	26
3.55467	26
3.55833	26
3.56200	27
3.56567	27
3.56933	27
3.57300	28
3.57667	28
3.58033	29
3.58400	29
3.58767	29
3.59133	29
3.59500	30
3.59867	30
3.60233	30
3.60600	30
3.60967	30
3.61333	31
3.61700	31
3.62067	31
3.62433	30
3.62800	30
3.63167	30
3.63533	30
3.63900	30
3.64267	30
3.64633	30
3.65000	30
3.65367	30
3.65733	30
3.66100	30
3.66467	30
3.66833	29
3.67200	29
3.67567	30
3.67933	30
3.68300	30
3.68667	29
3.69033	29
3.69400	29
3.69767	29
3.70133	29
3.70500	28
3.70867	28
3.71233	28
3.71600	28
3.71967	28
3.72333	27
3.72700	27
3.73067	27
3.73433	27
3.73800	27
3.74167	27
3.74533	27
3.74900	27
3.75267	27
3.75633	28
3.76000	28
3.76367	28
3.76733	28
3.77100	28
3.77467	28
3.77833	28
3.78200	27
3.78567	27
3.78933	27
3.79300	27
3.79667	28
3.80033	28
3.80400	28
3.80767	28
3.81133	29
3.81500	29
3.81867	29
3.82233	29
3.82600	29
3.82967	29
3.83333	29
3.83700	28
3.84067	28
3.84433	28
3.84800	28
3.85167	27
3.85533	27
3.85900	27
3.86267	27
3.86633	27
3.87000	27
3.87367	27
3.87733	27
3.88100	27
3.88467	27
3.88833	27
3.89200	27
3.89567	27
3.89933	27
3.90300	27
3.90667	27
3.91033	27
3.91400	27
3.91767	27
3.92133	27
3.92500	28
3.92867	28
3.93233	28
3.93600	29
3.93967	29
3.94333	29
3.94700	29
3.95067	29
3.95433	29
3.95800	29
3.96167	29
3.96533	29
3.96900	29
3.97267	28
3.97633	28
3.98000	28
3.98367	28
3.98733	27
3.99100	27
3.99467	27
3.99833	27

[Chromatogram (Ch3)]
Interval(msec)	220
# of Points	1091
Start Time(min)	0.002
End Time(min)	3.998
R.Time (min)	Intensity
0.00167	-0
0.00533	-2
0.00900	-3
0.01267	-5
0.01633	-6
0.02000	-5
0.02367	-4
0.02733	-3
0.03100	-2
0.03467	-1
0.03833	-1
0.04200	-0
0.04567	-1
0.04933	-3
0.05300	-3
0.05667	-3
0.06033	-3
0.06400	-3
0.06767	-1
0.07133	0
0.07500	-0
0.07867	1
0.08233	2
0.08600	2
0.08967	-1
0.09333	-1
0.09700	0
0.10067	2
0.10433	4
0.10800	5
0.11167	5
0.11533	2
0.11900	2
0.12267	1
0.12633	-1
0.13000	1
0.13367	2
0.13733	1
0.14100	-2
0.14467	-2
0.14833	-1
0.15200	-0
0.15567	0
0.15933	1
0.16300	3
0.16667	3
0.17033	1
0.17400	0
0.17767	-1
0.18133	-1
0.18500	2
0.18867	2
0.19233	2
0.19600	3
0.19967	3
0.20333	3
0.20700	3
0.21067	5
0.21433	6
0.21800	3
0.22167	0
0.22533	-1
0.22900	-0
0.23267	-1
0.23633	-2
0.24000	-1
0.24367	-1
0.24733	-2
0.25100	-3
0.25467	-1
0.25833	3
0.26200	5
0.26567	6
0.26933	7
0.27300	10
0.27667	12
0.28033	9
0.28400	6
0.28767	5
0.29133	6
0.29500	7
0.29867	8
0.30233	8
0.30600	7
0.30967	7
0.31333	8
0.31700	8
0.32067	9
0.32433	9
0.32800	11
0.33167	10
0.33533	10
0.33900	9
0.34267	8
0.34633	7
0.35000	7
0.35367	8
0.35733	9
0.36100	9
0.36467	7
0.36833	6
0.37200	7
0.37567	9
0.37933	12
0.38300	13
0.38667	11
0.39033	12
0.39400	13
0.39767	14
0.40133	16
0.40500	16
0.40867	14
0.41233	13
0.41600	12
0.41967	10
0.42333	10
0.42700	12
0.43067	13
0.43433	13
0.43800	12
0.44167	13
0.44533	15
0.44900	16
0.45267	16
0.45633	16
0.46000	16
0.46367	13
0.46733	9
0.47100	8
0.47467	9
0.47833	10
0.48200	13
0.48567	15
0.48933	15
0.49300	14
0.49667	12
0.50033	13
0.50400	13
0.50767	13
0.51133	15
0.51500	15
0.51867	13
0.52233	11
0.52600	11
0.52967	12
0.53333	11
0.53700	11
0.54067	12
0.54433	12
0.54800	11
0.55167	9
0.55533	8
0.55900	8
0.56267	10
0.56633	12
0.57000	12
0.57367	11
0.57733	11
0.58100	11
0.58467	12
0.58833	14
0.59200	12
0.59567	10
0.59933	11
0.60300	11
0.60667	11
0.61033	10
0.61400	11
0.61767	11
0.62133	13
0.62500	16
0.62867	16
0.63233	17
0.63600	16
0.63967	13
0.64333	10
0.64700	9
0.65067	9
0.65433	9
0.65800	9
0.66167	10
0.66533	9
0.66900	7
0.67267	9
0.67633	11
0.68000	13
0.68367	12
0.68733	11
0.69100	11
0.69467	14
0.69833	15
0.70200	18
0.70567	18
0.70933	17
0.71300	16
0.71667	15
0.72033	14
0.72400	15
0.72767	17
0.73133	17
0.73500	16
0.73867	15
0.74233	14
0.74600	14
0.74967	14
0.75333	13
0.75700	12
0.76067	10
0.76433	6
0.76800	4
0.77167	6
0.77533	7
0.77900	8
0.78267	9
0.78633	10
0.79000	10
0.79367	10
0.79733	11
0.80100	13
0.80467	13
0.80833	13
0.81200	14
0.81567	16
0.81933	16
0.82300	16
0.82667	17
0.83033	18
0.83400	19
0.83767	19
0.84133	18
0.84500	17
0.84867	17
0.85233	17
0.85600	17
0.85967	16
0.86333	15
0.86700	15
0.87067	14
0.87433	13
0.87800	13
0.88167	13
0.88533	12
0.88900	13
0.89267	15
0.89633	16
0.90000	15
0.90367	15
0.90733	14
0.91100	14
0.91467	17
0.91833	18
0.92200	18
0.92567	18
0.92933	16
0.93300	14
0.93667	13
0.94033	13
0.94400	15
0.94767	17
0.95133	18
0.95500	17
0.95867	17
0.96233	16
0.96600	17
0.96967	19
0.97333	18
0.97700	19
0.98067	19
0.98433	18
0.98800	17
0.99167	16
0.99533	15
0.99900	15
1.00267	12
1.00633	13
1.01000	16
1.01367	18
1.01733	17
1.02100	16
1.02467	17
1.02833	20
1.03200	23
1.03567	22
1.03933	19
1.04300	15
1.04667	13
1.05033	14
1.05400	14
1.05767	12
1.06133	12
1.06500	13
1.06867	15
1.07233	16
1.07600	17
1.07967	16
1.08333	17
1.08700	18
1.09067	18
1.09433	18
1.09800	18
1.10167	19
1.10533	18
1.10900	18
1.11267	19
1.11633	22
1.12000	23
1.12367	23
1.12733	23
1.13100	23
1.13467	21
1.13833	18
1.14200	15
1.14567	13
1.14933	15
1.15300	17
1.15667	18
1.16033	18
1.16400	19
1.16767	20
1.17133	20
1.17500	19
1.17867	18
1.18233	19
1.18600	18
1.18967	16
1.19333	16
1.19700	19
1.20067	22
1.20433	23
1.20800	20
1.21167	15
1.21533	11
1.21900	10
1.22267	11
1.22633	12
1.23000	14
1.23367	13
1.23733	13
1.24100	13
1.24467	12
1.24833	11
1.25200	11
1.25567	12
1.25933	13
1.26300	13
1.26667	15
1.27033	16
1.27400	16
1.27767	13
1.28133	11
1.28500	12
1.28867	13
1.29233	15
1.29600	15
1.29967	15
1.30333	15
1.30700	14
1.31067	12
1.31433	11
1.31800	14
1.32167	18
1.32533	20
1.32900	20
1.33267	19
1.33633	20
1.34000	21
1.34367	20
1.34733	17
1.35100	16
1.35467	16
1.35833	18
1.36200	21
1.36567	21
1.36933	19
1.37300	17
1.37667	17
1.38033	17
1.38400	16
1.38767	15
1.39133	17
1.39500	20
1.39867	18
1.40233	17
1.40600	15
1.40967	14
1.41333	14
1.41700	13
1.42067	10
1.42433	9
1.42800	10
1.43167	12
1.43533	12
1.43900	11
1.44267	10
1.44633	11
1.45000	12
1.45367	13
1.45733	14
1.46100	12
1.46467	11
1.46833	10
1.47200	8
1.47567	7
1.47933	7
1.48300	10
1.48667	9
1.49033	9
1.49400	10
1.49767	11
1.50133	10
1.50500	10
1.50867	10
1.51233	12
1.51600	15
1.51967	15
1.52333	15
1.52700	15
1.53067	15
1.53433	13
1.53800	10
1.54167	9
1.54533	7
1.54900	9
1.55267	12
1.55633	13
1.56000	12
1.56367	11
1.56733	9
1.57100	9
1.57467	9
1.57833	8
1.58200	9
1.58567	12
1.58933	13
1.59300	14
1.59667	14
1.60033	13
1.60400	10
1.60767	10
1.61133	9
1.61500	8
1.61867	10
1.62233	11
1.62600	13
1.62967	15
1.63333	15
1.63700	13
1.64067	14
1.64433	15
1.64800	17
1.65167	19
1.65533	20
1.65900	20
1.66267	23
1.66633	23
1.67000	23
1.67367	24
1.67733	24
1.68100	23
1.68467	25
1.68833	26
1.69200	25
1.69567	25
1.69933	25
1.70300	25
1.70667	25
1.71033	25
1.71400	27
1.71767	28
1.72133	26
1.72500	25
1.72867	26
1.73233	30
1.73600	34
1.73967	37
1.74333	40
1.74700	41
1.75067	39
1.75433	36
1.75800	36
1.76167	36
1.76533	37
1.76900	37
1.77267	35
1.77633	34
1.78000	33
1.78367	34
1.78733	35
1.79100	34
1.79467	37
1.79833	39
1.80200	39
1.80567	37
1.80933	38
1.81300	41
1.81667	44
1.82033	45
1.82400	47
1.82767	47
1.83133	44
1.83500	41
1.83867	40
1.84233	41
1.84600	43
1.84967	46
1.85333	47
1.85700	47
1.86067	48
1.86433	47
1.86800	45
1.87167	46
1.87533	46
1.87900	46
1.88267	47
1.88633	47
1.89000	45
1.89367	43
1.89733	43
1.90100	44
1.90467	46
1.90833	47
1.91200	48
1.91567	48
1.91933	47
1.92300	48
1.92667	50
1.93033	52
1.93400	53
1.93767	53
1.94133	52
1.94500	53
1.94867	54
1.95233	52
1.95600	51
1.95967	51
1.96333	51
1.96700	51
1.97067	52
1.97433	54
1.97800	53
1.98167	51
1.98533	50
1.98900	49
1.99267	50
1.99633	53
2.00000	54
2.00367	57
2.00733	61
2.01100	63
2.01467	64
2.01833	64
2.02200	65
2.02567	65
2.02933	67
2.03300	69
2.03667	71
2.04033	71
2.04400	71
2.04767	73
2.05133	73
2.05500	73
2.05867	74
2.06233	75
2.06600	77
2.06967	79
2.07333	78
2.07700	79
2.08067	81
2.08433	80
2.08800	80
2.09167	82
2.09533	84
2.09900	87
2.10267	87
2.10633	88
2.11000	89
2.11367	91
2.11733	93
2.12100	93
2.12467	94
2.12833	96
2.13200	96
2.13567	95
2.13933	92
2.14300	90
2.14667	93
2.15033	95
2.15400	97
2.15767	100
2.16133	102
2.16500	103
2.16867	103
2.17233	102
2.17600	101
2.17967	102
2.18333	104
2.18700	105
2.19067	106
2.19433	108
2.19800	112
2.20167	114
2.20533	113
2.20900	112
2.21267	113
2.21633	116
2.22000	118
2.22367	119
2.22733	117
2.23100	115
2.23467	114
2.23833	114
2.24200	116
2.24567	117
2.24933	120
2.25300	122
2.25667	122
2.26033	122
2.26400	120
2.26767	117
2.27133	116
2.27500	114
2.27867	114
2.28233	116
2.28600	119
2.28967	122
2.29333	126
2.29700	130
2.30067	135
2.30433	134
2.30800	132
2.31167	132
2.31533	132
2.31900	134
2.32267	134
2.32633	134
2.33000	134
2.33367	132
2.33733	131
2.34100	131
2.34467	134
2.34833	138
2.35200	140
2.35567	138
2.35933	139
2.36300	139
2.36667	138
2.37033	138
2.37400	140
2.37767	144
2.38133	146
2.38500	147
2.38867	149
2.39233	150
2.39600	147
2.39967	145
2.40333	144
2.40700	144
2.41067	146
2.41433	148
2.41800	151
2.42167	153
2.42533	155
2.42900	158
2.43267	163
2.43633	166
2.44000	168
2.44367	173
2.44733	183
2.45100	190
2.45467	192
2.45833	194
2.46200	201
2.46567	216
2.46933	238
2.47300	263
2.47667	291
2.48033	318
2.48400	345
2.48767	375
2.49133	406
2.49500	434
2.49867	459
2.50233	486
2.50600	509
2.50967	530
2.51333	550
2.51700	566
2.52067	576
2.52433	585
2.52800	594
2.53167	601
2.53533	610
2.53900	618
2.54267	624
2.54633	632
2.55000	641
2.55367	647
2.55733	654
2.56100	662
2.56467	669
2.56833	673
2.57200	673
2.57567	675
2.57933	678
2.58300	682
2.58667	684
2.59033	687
2.59400	687
2.59767	680
2.60133	666
2.60500	644
2.60867	613
2.61233	575
2.61600	533
2.61967	489
2.62333	446
2.62700	407
2.63067	372
2.63433	343
2.63800	318
2.64167	297
2.64533	284
2.64900	277
2.65267	276
2.65633	279
2.66000	284
2.66367	290
2.66733	297
2.67100	305
2.67467	315
2.67833	324
2.68200	332
2.68567	339
2.68933	345
2.69300	350
2.69667	358
2.70033	367
2.70400	377
2.70767	386
2.71133	393
2.71500	401
2.71867	408
2.72233	415
2.72600	421
2.72967	426
2.73333	430
2.73700	435
2.74067	436
2.74433	440
2.74800	445
2.75167	448
2.75533	450
2.75900	453
2.76267	457
2.76633	459
2.77000	459
2.77367	461
2.77733	463
2.78100	465
2.78467	468
2.78833	468
2.79200	470
2.79567	473
2.79933	476
2.80300	476
2.80667	474
2.81033	473
2.81400	474
2.81767	477
2.82133	489
2.82500	522
2.82867	600
2.83233	766
2.83600	1077
2.83967	1599
2.84333	2393
2.84700	3498
2.85067	4907
2.85433	6573
2.85800	8408
2.86167	10287
2.86533	12066
2.86900	13615
2.87267	14823
2.87633	15618
2.88000	15973
2.88367	15908
2.88733	15484
2.89100	14781
2.89467	13883
2.89833	12864
2.90200	11786
2.90567	10700
2.90933	9649
2.91300	8653
2.91667	7729
2.92033	6882
2.92400	6110
2.92767	5416
2.93133	4799
2.93500	4249
2.93867	3759
2.94233	3328
2.94600	2951
2.94967	2621
2.95333	2330
2.95700	2075
2.96067	1854
2.96433	1662
2.96800	1494
2.97167	1350
2.97533	1226
2.97900	1117
2.98267	1022
2.98633	940
2.99000	868
2.99367	808
2.99733	755
3.00100	708
3.00467	668
3.00833	634
3.01200	603
3.01567	576
3.01933	555
3.02300	537
3.02667	520
3.03033	504
3.03400	489
3.03767	476
3.04133	466
3.04500	458
3.04867	451
3.05233	443
3.05600	436
3.05967	428
3.06333	422
3.06700	417
3.07067	414
3.07433	411
3.07800	411
3.08167	407
3.08533	405
3.08900	402
3.09267	399
3.09633	393
3.10000	389
3.10367	387
3.10733	386
3.11100	388
3.11467	388
3.11833	384
3.12200	379
3.12567	375
3.12933	372
3.13300	370
3.13667	367
3.14033	366
3.14400	368
3.14767	366
3.15133	364
3.15500	363
3.15867	362
3.16233	360
3.16600	357
3.16967	354
3.17333	350
3.17700	345
3.18067	342
3.18433	340
3.18800	338
3.19167	337
3.19533	336
3.19900	335
3.20267	332
3.20633	328
3.21000	323
3.21367	322
3.21733	323
3.22100	323
3.22467	321
3.22833	318
3.23200	315
3.23567	312
3.23933	310
3.24300	307
3.24667	302
3.25033	300
3.25400	298
3.25767	296
3.26133	293
3.26500	288
3.26867	285
3.27233	284
3.27600	282
3.27967	280
3.28333	278
3.28700	275
3.29067	273
3.29433	270
3.29800	266
3.30167	260
3.30533	256
3.30900	253
3.31267	251
3.31633	249
3.32000	249
3.32367	246
3.32733	243
3.33100	237
3.33467	232
3.33833	228
3.34200	225
3.34567	225
3.34933	225
3.35300	223
3.35667	220
3.36033	217
3.36400	213
3.36767	210
3.37133	207
3.37500	203
3.37867	200
3.38233	199
3.38600	197
3.38967	194
3.39333	190
3.39700	184
3.40067	179
3.40433	178
3.40800	177
3.41167	175
3.41533	172
3.41900	169
3.42267	165
3.42633	161
3.43000	157
3.43367	153
3.43733	151
3.44100	151
3.44467	150
3.44833	147
3.45200	143
3.45567	140
3.45933	137
3.46300	134
3.46667	132
3.47033	129
3.47400	126
3.47767	125
3.48133	123
3.48500	120
3.48867	116
3.49233	112
3.49600	111
3.49967	109
3.50333	105
3.50700	100
3.51067	99
3.51433	98
3.51800	98
3.52167	100
3.52533	102
3.52900	102
3.53267	98
3.53633	93
3.54000	87
3.54367	81
3.54733	78
3.55100	78
3.55467	78
3.55833	78
3.56200	73
3.56567	69
3.56933	66
3.57300	60
3.57667	57
3.58033	57
3.58400	57
3.58767	55
3.59133	53
3.59500	52
3.59867	52
3.60233	51
3.60600	48
3.60967	46
3.61333	47
3.61700	47
3.62067	47
3.62433	45
3.62800	43
3.63167	40
3.63533	37
3.63900	34
3.64267	32
3.64633	31
3.65000	30
3.65367	27
3.65733	25
3.66100	23
3.66467	24
3.66833	24
3.67200	25
3.67567	25
3.67933	23
3.68300	20
3.68667	18
3.69033	17
3.69400	16
3.69767	16
3.70133	12
3.70500	9
3.70867	7
3.71233	8
3.71600	9
3.71967	10
3.72333	8
3.72700	5
3.73067	3
3.73433	1
3.73800	0
3.74167	-0
3.74533	-2
3.74900	-1
3.75267	-0
3.75633	-1
3.76000	-2
3.76367	-1
3.76733	-0
3.77100	-2
3.77467	-4
3.77833	-5
3.78200	-4
3.78567	-3
3.78933	-3
3.79300	-4
3.79667	-2
3.80033	0
3.80400	-0
3.80767	-2
3.81133	-2
3.81500	-4
3.81867	-6
3.82233	-6
3.82600	-7
3.82967	-5
3.83333	-4
3.83700	-5
3.84067	-8
3.84433	-9
3.84800	-9
3.85167	-7
3.85533	-6
3.85900	-6
3.86267	-9
3.86633	-10
3.87000	-10
3.87367	-10
3.87733	-10
3.88100	-9
3.88467	-8
3.88833	-8
3.89200	-9
3.89567	-8
3.89933	-5
3.90300	-4
3.90667	-3
3.91033	-2
3.91400	-1
3.91767	-3
3.92133	-7
3.92500	-7
3.92867	-6
3.93233	-3
3.93600	-2
3.93967	-2
3.94333	-0
3.94700	2
3.95067	3
3.95433	2
3.95800	1
3.96167	2
3.96533	2
3.96900	2
3.97267	2
3.97633	0
3.98000	-0
3.98367	0
3.98733	-0
3.99100	1
3.99467	4
3.99833	6

[Status Trace (Column Oven Temperature)]
Interval(msec)	1000
# of Points	240
Start Time(min)	0.012
End Time(min)	3.995
Intensity Units	
Intensity Multiplier	1
R.Time (min)	Intensity
0.01157	35.03
0.02823	35.01
0.04490	35.01
0.06157	34.99
0.07823	35.00
0.09490	35.00
0.11157	35.00
0.12823	35.00
0.14490	35.00
0.16157	35.00
0.17823	34.99
0.19490	34.99
0.21157	34.99
0.22823	34.99
0.24490	35.00
0.26157	35.00
0.27823	35.00
0.29490	35.00
0.31157	35.00
0.32823	34.99
0.34490	34.98
0.36157	34.97
0.37823	34.96
0.39490	34.96
0.41157	34.96
0.42823	34.98
0.44490	34.99
0.46157	34.99
0.47823	34.99
0.49490	35.00
0.51157	34.99
0.52823	34.98
0.54490	34.98
0.56157	34.98
0.57823	34.98
0.59490	34.97
0.61157	34.98
0.62823	34.98
0.64490	34.98
0.66157	34.98
0.67823	34.98
0.69490	34.99
0.71157	34.99
0.72823	34.99
0.74490	35.01
0.76157	35.00
0.77823	35.00
0.79490	34.99
0.81157	34.98
0.82823	34.98
0.84490	34.96
0.86157	34.96
0.87823	34.96
0.89490	34.96
0.91157	34.97
0.92823	34.98
0.94490	34.99
0.96157	34.99
0.97823	35.00
0.99490	35.01
1.01157	35.01
1.02823	35.02
1.04490	35.01
1.06157	35.01
1.07823	35.00
1.09490	35.00
1.11157	34.98
1.12823	34.98
1.14490	34.97
1.16157	34.97
1.17823	34.98
1.19490	34.99
1.21157	35.00
1.22823	35.00
1.24490	35.01
1.26157	35.01
1.27823	35.01
1.29490	35.01
1.31157	35.00
1.32823	35.00
1.34490	34.99
1.36157	34.99
1.37823	35.01
1.39490	35.01
1.41157	35.02
1.42823	35.02
1.44490	35.03
1.46157	35.02
1.47823	35.01
1.49490	35.00
1.51157	34.99
1.52823	34.99
1.54490	34.99
1.56157	35.00
1.57823	35.01
1.59490	35.03
1.61157	35.10
1.62823	35.23
1.64490	35.42
1.66157	35.68
1.67823	36.04
1.69490	36.39
1.71157	36.74
1.72823	37.09
1.74490	37.43
1.76157	37.76
1.77823	38.07
1.79490	38.41
1.81157	38.73
1.82823	39.08
1.84490	39.39
1.86157	39.72
1.87823	40.05
1.89490	40.38
1.91157	40.71
1.92823	41.03
1.94490	41.35
1.96157	41.67
1.97823	41.99
1.99490	42.33
2.01157	42.66
2.02823	42.98
2.04490	43.32
2.06157	43.63
2.07823	43.97
2.09490	44.29
2.11157	44.63
2.12823	44.97
2.14490	45.27
2.16157	45.60
2.17823	45.91
2.19490	46.24
2.21157	46.56
2.22823	46.90
2.24490	47.24
2.26157	47.56
2.27823	47.89
2.29490	48.28
2.31157	48.62
2.32823	48.95
2.34490	49.24
2.36157	49.49
2.37823	49.62
2.39490	49.66
2.41157	49.66
2.42823	49.68
2.44490	49.70
2.46157	49.71
2.47823	49.73
2.49490	49.74
2.51157	49.76
2.52823	49.76
2.54490	49.78
2.56157	49.78
2.57823	49.80
2.59490	49.81
2.61157	49.81
2.62823	49.81
2.64490	49.83
2.66157	49.84
2.67823	49.85
2.69490	49.85
2.71157	49.84
2.72823	49.85
2.74490	49.88
2.76157	49.89
2.77823	49.88
2.79490	49.87
2.81157	49.86
2.82823	49.86
2.84490	49.87
2.86157	49.87
2.87823	49.89
2.89490	49.91
2.91157	49.92
2.92823	49.94
2.94490	49.95
2.96157	49.96
2.97823	49.97
2.99490	49.98
3.01157	49.99
3.02823	50.01
3.04490	50.02
3.06157	50.03
3.07823	50.06
3.09490	50.09
3.11157	50.10
3.12823	50.11
3.14490	50.09
3.16157	50.07
3.17823	50.07
3.19490	50.07
3.21157	50.07
3.22823	50.08
3.24490	50.08
3.26157	50.07
3.27823	50.06
3.29490	50.06
3.31157	50.05
3.32823	50.06
3.34490	50.05
3.36157	50.06
3.37823	50.06
3.39490	50.07
3.41157	50.08
3.42823	50.08
3.44490	50.08
3.46157	50.09
3.47823	50.09
3.49490	50.10
3.51157	50.10
3.52823	50.11
3.54490	50.12
3.56157	50.10
3.57823	50.09
3.59490	50.08
3.61157	50.06
3.62823	50.05
3.64490	50.05
3.66157	50.04
3.67823	50.04
3.69490	50.04
3.71157	50.05
3.72823	50.05
3.74490	50.05
3.76157	50.05
3.77823	50.05
3.79490	50.04
3.81157	50.04
3.82823	50.04
3.84490	50.05
3.86157	50.05
3.87823	50.05
3.89490	50.05
3.91157	50.05
3.92823	50.05
3.94490	50.04
3.96157	50.03
3.97823	50.04
3.99490	50.06

[Status Trace (Injection Unit Temperature)]
Interval(msec)	1000
# of Points	240
Start Time(min)	0.012
End Time(min)	3.995
Intensity Units	
Intensity Multiplier	1
R.Time (min)	Intensity
0.01157	99.99
0.02823	99.99
0.04490	99.99
0.06157	99.98
0.07823	99.99
0.09490	99.99
0.11157	99.99
0.12823	99.99
0.14490	99.99
0.16157	99.98
0.17823	99.99
0.19490	99.99
0.21157	99.99
0.22823	99.99
0.24490	99.99
0.26157	99.99
0.27823	99.99
0.29490	99.99
0.31157	99.99
0.32823	99.99
0.34490	99.99
0.36157	99.99
0.37823	99.99
0.39490	100.00
0.41157	99.99
0.42823	99.99
0.44490	99.99
0.46157	99.99
0.47823	99.99
0.49490	100.00
0.51157	99.99
0.52823	99.99
0.54490	99.99
0.56157	99.99
0.57823	99.99
0.59490	99.99
0.61157	99.99
0.62823	99.99
0.64490	99.99
0.66157	99.99
0.67823	99.99
0.69490	99.99
0.71157	99.99
0.72823	99.99
0.74490	99.99
0.76157	99.99
0.77823	99.99
0.79490	100.00
0.81157	99.99
0.82823	99.99
0.84490	99.99
0.86157	99.99
0.87823	99.99
0.89490	99.99
0.91157	99.99
0.92823	99.99
0.94490	99.99
0.96157	99.99
0.97823	99.99
0.99490	99.99
1.01157	99.99
1.02823	99.99
1.04490	99.99
1.06157	99.99
1.07823	99.99
1.09490	99.99
1.11157	99.99
1.12823	99.99
1.14490	99.99
1.16157	99.99
1.17823	99.99
1.19490	99.98
1.21157	99.99
1.22823	99.99
1.24490	99.98
1.26157	99.99
1.27823	99.99
1.29490	99.99
1.31157	99.99
1.32823	99.99
1.34490	99.99
1.36157	99.99
1.37823	99.98
1.39490	99.99
1.41157	99.99
1.42823	99.98
1.44490	99.99
1.46157	99.98
1.47823	99.99
1.49490	99.99
1.51157	99.99
1.52823	99.99
1.54490	99.99
1.56157	99.99
1.57823	99.99
1.59490	99.99
1.61157	99.99
1.62823	99.98
1.64490	99.99
1.66157	99.99
1.67823	99.99
1.69490	99.99
1.71157	99.99
1.72823	99.99
1.74490	99.99
1.76157	99.99
1.77823	99.99
1.79490	99.99
1.81157	99.99
1.82823	99.99
1.84490	99.99
1.86157	99.98
1.87823	99.98
1.89490	99.99
1.91157	99.99
1.92823	99.98
1.94490	99.99
1.96157	99.98
1.97823	99.98
1.99490	99.98
2.01157	99.98
2.02823	99.98
2.04490	99.98
2.06157	99.98
2.07823	99.98
2.09490	99.98
2.11157	99.98
2.12823	99.98
2.14490	99.97
2.16157	99.97
2.17823	99.98
2.19490	99.97
2.21157	99.97
2.22823	99.98
2.24490	99.97
2.26157	99.97
2.27823	99.97
2.29490	99.97
2.31157	99.97
2.32823	99.97
2.34490	99.97
2.36157	99.97
2.37823	99.97
2.39490	99.97
2.41157	99.97
2.42823	99.98
2.44490	99.97
2.46157	99.98
2.47823	99.98
2.49490	99.98
2.51157	99.98
2.52823	99.98
2.54490	99.98
2.56157	99.98
2.57823	99.98
2.59490	99.98
2.61157	99.99
2.62823	99.98
2.64490	99.98
2.66157	99.98
2.67823	99.99
2.69490	99.99
2.71157	99.99
2.72823	99.99
2.74490	99.99
2.76157	99.99
2.77823	99.99
2.79490	99.99
2.81157	99.99
2.82823	100.00
2.84490	100.00
2.86157	100.00
2.87823	100.00
2.89490	100.00
2.91157	100.00
2.92823	100.00
2.94490	100.01
2.96157	100.01
2.97823	100.01
2.99490	100.01
3.01157	100.01
3.02823	100.01
3.04490	100.02
3.06157	100.01
3.07823	100.01
3.09490	100.01
3.11157	100.02
3.12823	100.02
3.14490	100.02
3.16157	100.01
3.17823	100.02
3.19490	100.02
3.21157	100.02
3.22823	100.02
3.24490	100.03
3.26157	100.02
3.27823	100.03
3.29490	100.03
3.31157	100.03
3.32823	100.03
3.34490	100.03
3.36157	100.03
3.37823	100.03
3.39490	100.03
3.41157	100.03
3.42823	100.03
3.44490	100.04
3.46157	100.04
3.47823	100.04
3.49490	100.04
3.51157	100.04
3.52823	100.04
3.54490	100.04
3.56157	100.04
3.57823	100.04
3.59490	100.04
3.61157	100.04
3.62823	100.04
3.64490	100.04
3.66157	100.05
3.67823	100.04
3.69490	100.04
3.71157	100.04
3.72823	100.05
3.74490	100.05
3.76157	100.05
3.77823	100.05
3.79490	100.04
3.81157	100.04
3.82823	100.05
3.84490	100.04
3.86157	100.05
3.87823	100.05
3.89490	100.05
3.91157	100.05
3.92823	100.05
3.94490	100.05
3.96157	100.05
3.97823	100.05
3.99490	100.05

[Status Trace (Carrier Gas Pressure)]
Interval(msec)	1000
# of Points	240
Start Time(min)	0.012
End Time(min)	3.995
Intensity Units	
Intensity Multiplier	1
R.Time (min)	Intensity
0.01157	58.00
0.02823	54.94
0.04490	57.49
0.06157	59.58
0.07823	59.06
0.09490	58.02
0.11157	57.99
0.12823	58.01
0.14490	58.01
0.16157	58.01
0.17823	58.00
0.19490	58.00
0.21157	58.00
0.22823	58.00
0.24490	58.00
0.26157	58.00
0.27823	58.00
0.29490	58.00
0.31157	58.00
0.32823	58.00
0.34490	58.00
0.36157	58.00
0.37823	58.00
0.39490	58.00
0.41157	58.00
0.42823	58.00
0.44490	58.00
0.46157	58.00
0.47823	58.00
0.49490	58.00
0.51157	58.00
0.52823	58.00
0.54490	58.00
0.56157	58.00
0.57823	58.00
0.59490	58.00
0.61157	58.00
0.62823	58.00
0.64490	58.00
0.66157	58.00
0.67823	58.00
0.69490	58.00
0.71157	58.00
0.72823	58.00
0.74490	58.00
0.76157	58.00
0.77823	58.00
0.79490	58.00
0.81157	58.00
0.82823	58.00
0.84490	58.00
0.86157	58.00
0.87823	58.00
0.89490	58.00
0.91157	58.00
0.92823	58.00
0.94490	58.00
0.96157	58.00
0.97823	58.00
0.99490	58.00
1.01157	58.00
1.02823	58.00
1.04490	58.00
1.06157	58.00
1.07823	58.00
1.09490	58.00
1.11157	58.00
1.12823	58.00
1.14490	58.00
1.16157	58.00
1.17823	58.00
1.19490	58.00
1.21157	58.00
1.22823	58.00
1.24490	58.00
1.26157	58.00
1.27823	58.00
1.29490	58.00
1.31157	58.00
1.32823	58.00
1.34490	58.00
1.36157	58.00
1.37823	58.00
1.39490	58.00
1.41157	58.00
1.42823	58.00
1.44490	58.00
1.46157	58.00
1.47823	58.00
1.49490	58.00
1.51157	58.00
1.52823	58.00
1.54490	58.00
1.56157	58.00
1.57823	58.00
1.59490	58.00
1.61157	58.00
1.62823	58.00
1.64490	58.00
1.66157	58.00
1.67823	58.01
1.69490	58.00
1.71157	58.00
1.72823	58.00
1.74490	58.00
1.76157	58.00
1.77823	58.00
1.79490	58.00
1.81157	58.00
1.82823	58.00
1.84490	58.00
1.86157	58.00
1.87823	58.00
1.89490	58.00
1.91157	58.00
1.92823	58.00
1.94490	58.00
1.96157	58.00
1.97823	58.00
1.99490	58.00
2.01157	58.00
2.02823	58.00
2.04490	58.00
2.06157	58.00
2.07823	58.00
2.09490	58.00
2.11157	58.00
2.12823	58.00
2.14490	58.00
2.16157	58.00
2.17823	58.00
2.19490	58.00
2.21157	58.00
2.22823	58.00
2.24490	58.00
2.26157	58.00
2.27823	58.00
2.29490	58.00
2.31157	58.00
2.32823	58.00
2.34490	58.00
2.36157	58.00
2.37823	57.99
2.39490	57.99
2.41157	57.99
2.42823	58.00
2.44490	58.00
2.46157	58.00
2.47823	58.00
2.49490	58.00
2.51157	58.00
2.52823	57.98
2.54490	58.00
2.56157	58.00
2.57823	58.00
2.59490	58.00
2.61157	58.00
2.62823	58.00
2.64490	58.00
2.66157	58.00
2.67823	58.00
2.69490	58.00
2.71157	58.00
2.72823	58.00
2.74490	58.00
2.76157	58.00
2.77823	58.00
2.79490	58.00
2.81157	58.00
2.82823	58.00
2.84490	58.00
2.86157	58.00
2.87823	58.00
2.89490	58.00
2.91157	58.00
2.92823	58.00
2.94490	58.00
2.96157	58.00
2.97823	58.00
2.99490	58.00
3.01157	58.00
3.02823	58.00
3.04490	58.00
3.06157	58.00
3.07823	58.00
3.09490	58.00
3.11157	58.00
3.12823	58.00
3.14490	58.00
3.16157	58.00
3.17823	58.00
3.19490	58.00
3.21157	58.00
3.22823	58.00
3.24490	58.00
3.26157	58.00
3.27823	58.00
3.29490	58.00
3.31157	58.00
3.32823	58.00
3.34490	58.00
3.36157	58.00
3.37823	58.00
3.39490	58.00
3.41157	58.00
3.42823	58.00
3.44490	58.00
3.46157	58.00
3.47823	58.00
3.49490	58.00
3.51157	58.00
3.52823	58.00
3.54490	58.00
3.56157	58.00
3.57823	58.00
3.59490	58.00
3.61157	58.00
3.62823	58.00
3.64490	58.00
3.66157	58.00
3.67823	58.00
3.69490	58.00
3.71157	58.00
3.72823	58.00
3.74490	58.00
3.76157	58.00
3.77823	58.00
3.79490	58.00
3.81157	58.00
3.82823	58.00
3.84490	58.00
3.86157	58.00
3.87823	58.00
3.89490	58.00
3.91157	58.00
3.92823	58.00
3.94490	58.00
3.96157	58.00
3.97823	58.00
3.99490	58.00

[Status Trace (Carrier Gas Flow)]
Interval(msec)	1000
# of Points	240
Start Time(min)	0.012
End Time(min)	3.995
Intensity Units	
Intensity Multiplier	1
R.Time (min)	Intensity
0.01157	34.52
0.02823	34.54
0.04490	34.54
0.06157	34.54
0.07823	34.50
0.09490	34.52
0.11157	34.52
0.12823	34.54
0.14490	34.51
0.16157	34.52
0.17823	34.51
0.19490	34.52
0.21157	34.52
0.22823	34.52
0.24490	34.52
0.26157	34.52
0.27823	34.52
0.29490	34.52
0.31157	34.52
0.32823	34.52
0.34490	34.51
0.36157	34.52
0.37823	34.52
0.39490	34.52
0.41157	34.52
0.42823	34.52
0.44490	34.53
0.46157	34.52
0.47823	34.52
0.49490	34.52
0.51157	34.50
0.52823	34.53
0.54490	34.51
0.56157	34.52
0.57823	34.52
0.59490	34.52
0.61157	34.52
0.62823	34.52
0.64490	34.52
0.66157	34.51
0.67823	34.50
0.69490	34.53
0.71157	34.52
0.72823	34.53
0.74490	34.51
0.76157	34.50
0.77823	34.52
0.79490	34.52
0.81157	34.53
0.82823	34.52
0.84490	34.51
0.86157	34.52
0.87823	34.51
0.89490	34.53
0.91157	34.52
0.92823	34.50
0.94490	34.53
0.96157	34.52
0.97823	34.52
0.99490	34.52
1.01157	34.51
1.02823	34.53
1.04490	34.53
1.06157	34.52
1.07823	34.52
1.09490	34.51
1.11157	34.52
1.12823	34.51
1.14490	34.52
1.16157	34.52
1.17823	34.52
1.19490	34.51
1.21157	34.51
1.22823	34.51
1.24490	34.53
1.26157	34.54
1.27823	34.52
1.29490	34.52
1.31157	34.52
1.32823	34.52
1.34490	34.52
1.36157	34.52
1.37823	34.52
1.39490	34.52
1.41157	34.52
1.42823	34.52
1.44490	34.52
1.46157	34.52
1.47823	34.52
1.49490	34.52
1.51157	34.52
1.52823	34.52
1.54490	34.52
1.56157	34.52
1.57823	34.51
1.59490	34.52
1.61157	34.50
1.62823	34.53
1.64490	34.52
1.66157	34.52
1.67823	34.52
1.69490	34.52
1.71157	34.51
1.72823	34.52
1.74490	34.52
1.76157	34.52
1.77823	34.52
1.79490	34.53
1.81157	34.54
1.82823	34.52
1.84490	34.52
1.86157	34.52
1.87823	34.53
1.89490	34.52
1.91157	34.51
1.92823	34.52
1.94490	34.52
1.96157	34.51
1.97823	34.53
1.99490	34.52
2.01157	34.52
2.02823	34.52
2.04490	34.52
2.06157	34.52
2.07823	34.52
2.09490	34.53
2.11157	34.52
2.12823	34.52
2.14490	34.51
2.16157	34.53
2.17823	34.51
2.19490	34.51
2.21157	34.53
2.22823	34.52
2.24490	34.52
2.26157	34.52
2.27823	34.51
2.29490	34.52
2.31157	34.52
2.32823	34.52
2.34490	34.52
2.36157	34.52
2.37823	34.52
2.39490	34.52
2.41157	34.52
2.42823	34.52
2.44490	34.52
2.46157	34.52
2.47823	34.52
2.49490	34.52
2.51157	34.52
2.52823	34.52
2.54490	34.52
2.56157	34.52
2.57823	34.51
2.59490	34.52
2.61157	34.51
2.62823	34.52
2.64490	34.52
2.66157	34.52
2.67823	34.52
2.69490	34.54
2.71157	34.52
2.72823	34.52
2.74490	34.53
2.76157	34.52
2.77823	34.51
2.79490	34.52
2.81157	34.52
2.82823	34.52
2.84490	34.52
2.86157	34.52
2.87823	34.52
2.89490	34.52
2.91157	34.52
2.92823	34.52
2.94490	34.52
2.96157	34.52
2.97823	34.51
2.99490	34.52
3.01157	34.52
3.02823	34.52
3.04490	34.52
3.06157	34.52
3.07823	34.52
3.09490	34.52
3.11157	34.52
3.12823	34.52
3.14490	34.52
3.16157	34.52
3.17823	34.52
3.19490	34.52
3.21157	34.52
3.22823	34.52
3.24490	34.52
3.26157	34.52
3.27823	34.52
3.29490	34.52
3.31157	34.52
3.32823	34.52
3.34490	34.52
3.36157	34.52
3.37823	34.52
3.39490	34.52
3.41157	34.52
3.42823	34.52
3.44490	34.52
3.46157	34.52
3.47823	34.52
3.49490	34.52
3.51157	34.52
3.52823	34.52
3.54490	34.52
3.56157	34.52
3.57823	34.52
3.59490	34.52
3.61157	34.52
3.62823	34.52
3.64490	34.52
3.66157	34.52
3.67823	34.52
3.69490	34.52
3.71157	34.52
3.72823	34.52
3.74490	34.52
3.76157	34.52
3.77823	34.52
3.79490	34.52
3.81157	34.52
3.82823	34.52
3.84490	34.52
3.86157	34.52
3.87823	34.52
3.89490	34.52
3.91157	34.52
3.92823	34.52
3.94490	34.52
3.96157	34.52
3.97823	34.52
3.99490	34.52

[Status Trace (Column Flow)]
Interval(msec)	1000
# of Points	240
Start Time(min)	0.012
End Time(min)	3.995
Intensity Units	
Intensity Multiplier	1
R.Time (min)	Intensity
0.01157	5.52
0.02823	5.16
0.04490	5.46
0.06157	5.70
0.07823	5.64
0.09490	5.52
0.11157	5.52
0.12823	5.52
0.14490	5.52
0.16157	5.52
0.17823	5.52
0.19490	5.52
0.21157	5.52
0.22823	5.52
0.24490	5.52
0.26157	5.52
0.27823	5.52
0.29490	5.52
0.31157	5.52
0.32823	5.52
0.34490	5.52
0.36157	5.52
0.37823	5.52
0.39490	5.52
0.41157	5.52
0.42823	5.52
0.44490	5.52
0.46157	5.52
0.47823	5.52
0.49490	5.52
0.51157	5.52
0.52823	5.52
0.54490	5.52
0.56157	5.52
0.57823	5.52
0.59490	5.52
0.61157	5.52
0.62823	5.52
0.64490	5.52
0.66157	5.52
0.67823	5.52
0.69490	5.52
0.71157	5.52
0.72823	5.52
0.74490	5.52
0.76157	5.52
0.77823	5.52
0.79490	5.52
0.81157	5.52
0.82823	5.52
0.84490	5.52
0.86157	5.52
0.87823	5.52
0.89490	5.52
0.91157	5.52
0.92823	5.52
0.94490	5.52
0.96157	5.52
0.97823	5.52
0.99490	5.52
1.01157	5.52
1.02823	5.52
1.04490	5.52
1.06157	5.52
1.07823	5.52
1.09490	5.52
1.11157	5.52
1.12823	5.52
1.14490	5.52
1.16157	5.52
1.17823	5.52
1.19490	5.52
1.21157	5.52
1.22823	5.52
1.24490	5.52
1.26157	5.52
1.27823	5.52
1.29490	5.52
1.31157	5.52
1.32823	5.52
1.34490	5.52
1.36157	5.52
1.37823	5.52
1.39490	5.52
1.41157	5.52
1.42823	5.52
1.44490	5.52
1.46157	5.52
1.47823	5.52
1.49490	5.52
1.51157	5.52
1.52823	5.52
1.54490	5.52
1.56157	5.52
1.57823	5.52
1.59490	5.52
1.61157	5.52
1.62823	5.51
1.64490	5.51
1.66157	5.50
1.67823	5.49
1.69490	5.48
1.71157	5.46
1.72823	5.45
1.74490	5.44
1.76157	5.43
1.77823	5.42
1.79490	5.41
1.81157	5.40
1.82823	5.39
1.84490	5.38
1.86157	5.37
1.87823	5.36
1.89490	5.35
1.91157	5.34
1.92823	5.33
1.94490	5.32
1.96157	5.31
1.97823	5.30
1.99490	5.29
2.01157	5.28
2.02823	5.27
2.04490	5.27
2.06157	5.26
2.07823	5.25
2.09490	5.24
2.11157	5.23
2.12823	5.22
2.14490	5.21
2.16157	5.20
2.17823	5.19
2.19490	5.18
2.21157	5.17
2.22823	5.16
2.24490	5.15
2.26157	5.14
2.27823	5.13
2.29490	5.12
2.31157	5.11
2.32823	5.10
2.34490	5.10
2.36157	5.09
2.37823	5.08
2.39490	5.08
2.41157	5.08
2.42823	5.08
2.44490	5.08
2.46157	5.08
2.47823	5.08
2.49490	5.08
2.51157	5.08
2.52823	5.08
2.54490	5.08
2.56157	5.08
2.57823	5.08
2.59490	5.08
2.61157	5.08
2.62823	5.08
2.64490	5.08
2.66157	5.08
2.67823	5.08
2.69490	5.08
2.71157	5.08
2.72823	5.08
2.74490	5.08
2.76157	5.08
2.77823	5.08
2.79490	5.08
2.81157	5.08
2.82823	5.08
2.84490	5.08
2.86157	5.08
2.87823	5.08
2.89490	5.08
2.91157	5.08
2.92823	5.08
2.94490	5.08
2.96157	5.08
2.97823	5.08
2.99490	5.08
3.01157	5.07
3.02823	5.07
3.04490	5.07
3.06157	5.07
3.07823	5.07
3.09490	5.07
3.11157	5.07
3.12823	5.07
3.14490	5.07
3.16157	5.07
3.17823	5.07
3.19490	5.07
3.21157	5.07
3.22823	5.07
3.24490	5.07
3.26157	5.07
3.27823	5.07
3.29490	5.07
3.31157	5.07
3.32823	5.07
3.34490	5.07
3.36157	5.07
3.37823	5.07
3.39490	5.07
3.41157	5.07
3.42823	5.07
3.44490	5.07
3.46157	5.07
3.47823	5.07
3.49490	5.07
3.51157	5.07
3.52823	5.07
3.54490	5.07
3.56157	5.07
3.57823	5.07
3.59490	5.07
3.61157	5.07
3.62823	5.07
3.64490	5.07
3.66157	5.07
3.67823	5.07
3.69490	5.07
3.71157	5.07
3.72823	5.07
3.74490	5.07
3.76157	5.07
3.77823	5.07
3.79490	5.07
3.81157	5.07
3.82823	5.07
3.84490	5.07
3.86157	5.07
3.87823	5.07
3.89490	5.07
3.91157	5.07
3.92823	5.07
3.94490	5.07
3.96157	5.07
3.97823	5.07
3.99490	5.07

[Status Trace (Linear Velocity)]
Interval(msec)	1000
# of Points	240
Start Time(min)	0.012
End Time(min)	3.995
Intensity Units	
Intensity Multiplier	1
R.Time (min)	Intensity
0.01157	39.01
0.02823	37.01
0.04490	38.68
0.06157	40.05
0.07823	39.71
0.09490	39.03
0.11157	39.01
0.12823	39.02
0.14490	39.02
0.16157	39.02
0.17823	39.02
0.19490	39.02
0.21157	39.02
0.22823	39.02
0.24490	39.02
0.26157	39.02
0.27823	39.02
0.29490	39.02
0.31157	39.02
0.32823	39.02
0.34490	39.02
0.36157	39.02
0.37823	39.02
0.39490	39.02
0.41157	39.02
0.42823	39.02
0.44490	39.02
0.46157	39.02
0.47823	39.02
0.49490	39.02
0.51157	39.02
0.52823	39.02
0.54490	39.02
0.56157	39.02
0.57823	39.02
0.59490	39.02
0.61157	39.02
0.62823	39.02
0.64490	39.02
0.66157	39.02
0.67823	39.02
0.69490	39.02
0.71157	39.02
0.72823	39.02
0.74490	39.01
0.76157	39.02
0.77823	39.02
0.79490	39.02
0.81157	39.02
0.82823	39.02
0.84490	39.02
0.86157	39.02
0.87823	39.02
0.89490	39.02
0.91157	39.02
0.92823	39.02
0.94490	39.02
0.96157	39.02
0.97823	39.02
0.99490	39.01
1.01157	39.01
1.02823	39.01
1.04490	39.01
1.06157	39.01
1.07823	39.02
1.09490	39.02
1.11157	39.02
1.12823	39.02
1.14490	39.02
1.16157	39.02
1.17823	39.02
1.19490	39.02
1.21157	39.02
1.22823	39.02
1.24490	39.02
1.26157	39.01
1.27823	39.01
1.29490	39.02
1.31157	39.02
1.32823	39.02
1.34490	39.02
1.36157	39.02
1.37823	39.02
1.39490	39.01
1.41157	39.01
1.42823	39.01
1.44490	39.01
1.46157	39.01
1.47823	39.01
1.49490	39.02
1.51157	39.02
1.52823	39.02
1.54490	39.02
1.56157	39.02
1.57823	39.02
1.59490	39.01
1.61157	39.01
1.62823	39.00
1.64490	38.98
1.66157	38.96
1.67823	38.92
1.69490	38.89
1.71157	38.85
1.72823	38.82
1.74490	38.79
1.76157	38.76
1.77823	38.72
1.79490	38.70
1.81157	38.66
1.82823	38.63
1.84490	38.60
1.86157	38.57
1.87823	38.54
1.89490	38.51
1.91157	38.48
1.92823	38.44
1.94490	38.42
1.96157	38.39
1.97823	38.36
1.99490	38.33
2.01157	38.30
2.02823	38.26
2.04490	38.24
2.06157	38.21
2.07823	38.17
2.09490	38.15
2.11157	38.12
2.12823	38.08
2.14490	38.06
2.16157	38.03
2.17823	38.00
2.19490	37.97
2.21157	37.94
2.22823	37.91
2.24490	37.88
2.26157	37.85
2.27823	37.82
2.29490	37.79
2.31157	37.76
2.32823	37.72
2.34490	37.70
2.36157	37.68
2.37823	37.66
2.39490	37.66
2.41157	37.66
2.42823	37.66
2.44490	37.66
2.46157	37.66
2.47823	37.66
2.49490	37.65
2.51157	37.65
2.52823	37.64
2.54490	37.65
2.56157	37.65
2.57823	37.65
2.59490	37.65
2.61157	37.65
2.62823	37.65
2.64490	37.65
2.66157	37.65
2.67823	37.65
2.69490	37.64
2.71157	37.64
2.72823	37.65
2.74490	37.64
2.76157	37.64
2.77823	37.64
2.79490	37.64
2.81157	37.64
2.82823	37.64
2.84490	37.64
2.86157	37.64
2.87823	37.64
2.89490	37.64
2.91157	37.64
2.92823	37.64
2.94490	37.64
2.96157	37.64
2.97823	37.63
2.99490	37.63
3.01157	37.63
3.02823	37.63
3.04490	37.63
3.06157	37.63
3.07823	37.63
3.09490	37.62
3.11157	37.62
3.12823	37.62
3.14490	37.62
3.16157	37.63
3.17823	37.63
3.19490	37.63
3.21157	37.63
3.22823	37.62
3.24490	37.62
3.26157	37.63
3.27823	37.63
3.29490	37.63
3.31157	37.63
3.32823	37.63
3.34490	37.63
3.36157	37.63
3.37823	37.63
3.39490	37.63
3.41157	37.62
3.42823	37.63
3.44490	37.62
3.46157	37.62
3.47823	37.62
3.49490	37.62
3.51157	37.62
3.52823	37.62
3.54490	37.62
3.56157	37.62
3.57823	37.62
3.59490	37.62
3.61157	37.63
3.62823	37.63
3.64490	37.63
3.66157	37.63
3.67823	37.63
3.69490	37.63
3.71157	37.63
3.72823	37.63
3.74490	37.63
3.76157	37.63
3.77823	37.63
3.79490	37.63
3.81157	37.63
3.82823	37.63
3.84490	37.63
3.86157	37.63
3.87823	37.63
3.89490	37.63
3.91157	37.63
3.92823	37.63
3.94490	37.63
3.96157	37.63
3.97823	37.63
3.99490	37.63

