[Header]
Application Name	LabSolutions
Version	5.110
Data File Name	C:\Users\User\Desktop\GC Analyses\Jack\UIC Prairie Sampling\8.12.22\220812_090.gcd
Output Date	10/14/2022
Output Time	2:33:56 PM

[File Information]
Type	Data File
Generated	10/13/2022 2:39:46 PM
Generated by	System Administrator
Modified	10/13/2022 2:44:07 PM
Modified by	System Administrator

[Sample Information]
Operator Name	System Administrator
Acquired	10/13/2022 2:40:06 PM
Sample Type	1:Standard
Level	1
Sample Name	220812_UICPrairie
Sample ID	220812_UICPrairie
ISTD Amount1	1
ISTD Amount2	1
ISTD Amount3	1
ISTD Amount4	1
ISTD Amount5	1
ISTD Amount6	1
ISTD Amount7	1
ISTD Amount8	1
ISTD Amount9	1
ISTD Amount10	1
ISTD Amount11	1
ISTD Amount12	1
ISTD Amount13	1
ISTD Amount14	1
ISTD Amount15	1
ISTD Amount16	1
ISTD Amount17	1
ISTD Amount18	1
ISTD Amount19	1
ISTD Amount20	1
ISTD Amount21	1
ISTD Amount22	1
ISTD Amount23	1
ISTD Amount24	1
ISTD Amount25	1
ISTD Amount26	1
ISTD Amount27	1
ISTD Amount28	1
ISTD Amount29	1
ISTD Amount30	1
ISTD Amount31	1
ISTD Amount32	1
Sample Amount	1
Dilution Factor	1
Vial#	1
Injection Volume	1
Injection Count	1
Bar Code	

[Original Files]
Data File	C:\Users\User\Desktop\GC Analyses\Jack\UIC Prairie Sampling\8.12.22\220812_090.gcd
Method File	C:\LabSolutions\Data\GHG_4min_2022\ghg3_togas_w_acet_4 min_new_int.gcm
Batch File	
Report Format File	c:\LabSolutions\System\DEFAULT.lsr

[File Description]


[Configuration]
Instrument Name	C0B7VH3-Instrument1
Instrument #	1
Line #	1
# of Detectors	3
Detector ID	DET#1	DET#2	DET#3
Detector Name	FID	PTCD	ECD
# of Channels	1	1	1

[Peak Table(Ch1)]
# of Peaks	3
Peak#	R.Time	I.Time	F.Time	Area	Height	A/H	Conc.	Mark	ID#	Name	k'	Plate #	Plate Ht.	Tailing	Resolution	Sep.Factor	Area Ratio	Height Ratio	Conc. %	Norm Conc.
1	1.479	1.439	1.542	12689	5649	2.246	100.000	   	1	CO	0.000	8339	17.988	1.199	0.000	0.000	0	0	16.667	16.667
2	1.571	1.542	1.622	5280	2700	1.956	100.000	 V 	2	CH4	0.062	11428	13.126	1.166	1.483	0.000	0	0	16.667	16.667
3	2.000	1.956	2.293	1208694	591153	2.045	400.000	   	3	CO2	0.352	17957	8.353	1.291	7.242	5.680	0	0	66.667	66.667

[Peak Table(Ch2)]
# of Peaks	0

[Peak Table(Ch3)]
# of Peaks	3
Peak#	R.Time	I.Time	F.Time	Area	Height	A/H	Conc.	Mark	ID#	Name	k'	Plate #	Plate Ht.	Tailing	Resolution	Sep.Factor	Area Ratio	Height Ratio	Conc. %	Norm Conc.
1	2.458	1.105	2.653	18929	490	38.618	0.000	   			0.000	85	1772.243	0.574	0.000	0.000	0	0	0.000	0.000
2	2.887	2.664	3.294	27057	5981	4.524	1.000	   	1	N2O	0.175	12833	11.688	1.648	0.733	0.000	0	0	50.000	50.000
3	3.448	3.302	3.965	11443	525	21.778	1.000	   	2	SF6	0.403	458	327.389	2.220	1.503	2.308	0	0	50.000	50.000

[Compound Results(Ch1)]
# of IDs	6
ID#	Name	R.Time	Area	Height	Conc.	Curve	3rd	2nd	1st	Constant	Area Ratio	Height Ratio	Conc. %	Norm Conc.
1	CO	1.479	12689	5649	100.000	Linear	0.000000e+00	0.000000e+00	1.268893e+002	0.000000e+00	0	0	16.667	16.667
2	CH4	1.571	5280	2700	100.000	Linear	0.000000e+00	0.000000e+00	5.279510e+001	0.000000e+00	0	0	16.667	16.667
3	CO2	2.000	1208694	591153	400.000	Linear	0.000000e+00	0.000000e+00	3.021734e+003	0.000000e+00	0	0	66.667	66.667
4	Ethylene	0.000	0	0	0.000	Linear	0.000000e+00	0.000000e+00	0.000000e+00	0.000000e+00	0	0	0.000	0.000
5	Acetylene	0.000	0	0	0.000	Linear	0.000000e+00	0.000000e+00	0.000000e+00	0.000000e+00	0	0	0.000	0.000
6	Ethane	0.000	0	0	0.000	Linear	0.000000e+00	0.000000e+00	0.000000e+00	0.000000e+00	0	0	0.000	0.000

[Compound Results(Ch2)]
# of IDs	5
ID#	Name	R.Time	Area	Height	Conc.	Curve	3rd	2nd	1st	Constant	Area Ratio	Height Ratio	Conc. %	Norm Conc.
1	Hydrogen	0.000	0	0	0.000	Linear	0.000000e+00	0.000000e+00	0.000000e+00	0.000000e+00	0	0	0.000	0.000
2	Oxygen	0.000	0	0	0.000	Linear	0.000000e+00	0.000000e+00	0.000000e+00	0.000000e+00	0	0	0.000	0.000
3	Nitrogen	0.000	0	0	0.000	Linear	0.000000e+00	0.000000e+00	0.000000e+00	0.000000e+00	0	0	0.000	0.000
4	Methane	0.000	0	0	0.000	Linear	0.000000e+00	0.000000e+00	0.000000e+00	0.000000e+00	0	0	0.000	0.000
5	Carbon Monoxide	0.000	0	0	0.000	Linear	0.000000e+00	0.000000e+00	0.000000e+00	0.000000e+00	0	0	0.000	0.000

[Compound Results(Ch3)]
# of IDs	2
ID#	Name	R.Time	Area	Height	Conc.	Curve	3rd	2nd	1st	Constant	Area Ratio	Height Ratio	Conc. %	Norm Conc.
1	N2O	2.887	27057	5981	1.000	Linear	0.000000e+00	0.000000e+00	2.705708e+004	0.000000e+00	0	0	50.000	50.000
2	SF6	3.448	11443	525	1.000	Linear	0.000000e+00	0.000000e+00	1.144322e+004	0.000000e+00	0	0	50.000	50.000

[Group Results(Ch1)]
# of Groups	0

[Group Results(Ch2)]
# of Groups	0

[Group Results(Ch3)]
# of Groups	0

[Chromatogram (Ch1)]
Interval(msec)	220
# of Points	1091
Start Time(min)	0.002
End Time(min)	3.998
R.Time (min)	Intensity
0.00167	-16
0.00533	-11
0.00900	-8
0.01267	-4
0.01633	1
0.02000	5
0.02367	6
0.02733	9
0.03100	16
0.03467	20
0.03833	18
0.04200	9
0.04567	-2
0.04933	-12
0.05300	-18
0.05667	-19
0.06033	-17
0.06400	-15
0.06767	-11
0.07133	-6
0.07500	-3
0.07867	-3
0.08233	-7
0.08600	-13
0.08967	-17
0.09333	-20
0.09700	-21
0.10067	-17
0.10433	-14
0.10800	-10
0.11167	-6
0.11533	-5
0.11900	-8
0.12267	-8
0.12633	-5
0.13000	-4
0.13367	-6
0.13733	-7
0.14100	-10
0.14467	-14
0.14833	-17
0.15200	-17
0.15567	-15
0.15933	-13
0.16300	-12
0.16667	-13
0.17033	-14
0.17400	-14
0.17767	-11
0.18133	-4
0.18500	1
0.18867	2
0.19233	0
0.19600	-2
0.19967	1
0.20333	9
0.20700	15
0.21067	12
0.21433	7
0.21800	0
0.22167	-8
0.22533	-16
0.22900	-22
0.23267	-26
0.23633	-29
0.24000	-29
0.24367	-29
0.24733	-30
0.25100	-32
0.25467	-33
0.25833	-30
0.26200	-30
0.26567	-33
0.26933	-37
0.27300	-37
0.27667	-34
0.28033	-28
0.28400	-23
0.28767	-18
0.29133	-17
0.29500	-18
0.29867	-19
0.30233	-19
0.30600	-21
0.30967	-23
0.31333	-26
0.31700	-27
0.32067	-23
0.32433	-18
0.32800	-18
0.33167	-19
0.33533	-23
0.33900	-25
0.34267	-26
0.34633	-26
0.35000	-24
0.35367	-21
0.35733	-18
0.36100	-12
0.36467	-10
0.36833	-12
0.37200	-19
0.37567	-28
0.37933	-34
0.38300	-33
0.38667	-28
0.39033	-23
0.39400	-20
0.39767	-17
0.40133	-15
0.40500	-13
0.40867	-10
0.41233	-6
0.41600	-4
0.41967	-2
0.42333	1
0.42700	-1
0.43067	-10
0.43433	-19
0.43800	-26
0.44167	-33
0.44533	-41
0.44900	-48
0.45267	-50
0.45633	-45
0.46000	-38
0.46367	-34
0.46733	-32
0.47100	-33
0.47467	-34
0.47833	-36
0.48200	-36
0.48567	-36
0.48933	-38
0.49300	-40
0.49667	-42
0.50033	-42
0.50400	-41
0.50767	-40
0.51133	-38
0.51500	-36
0.51867	-39
0.52233	-44
0.52600	-47
0.52967	-47
0.53333	-44
0.53700	-41
0.54067	-41
0.54433	-41
0.54800	-38
0.55167	-34
0.55533	-27
0.55900	-23
0.56267	-22
0.56633	-23
0.57000	-24
0.57367	-23
0.57733	-20
0.58100	-18
0.58467	-14
0.58833	-8
0.59200	-1
0.59567	2
0.59933	-3
0.60300	-13
0.60667	-28
0.61033	-42
0.61400	-55
0.61767	-63
0.62133	-64
0.62500	-60
0.62867	-52
0.63233	-44
0.63600	-36
0.63967	-30
0.64333	-24
0.64700	-20
0.65067	-20
0.65433	-25
0.65800	-31
0.66167	-34
0.66533	-31
0.66900	-27
0.67267	-25
0.67633	-27
0.68000	-32
0.68367	-43
0.68733	-57
0.69100	-69
0.69467	-75
0.69833	-74
0.70200	-70
0.70567	-63
0.70933	-57
0.71300	-57
0.71667	-64
0.72033	-72
0.72400	-75
0.72767	-71
0.73133	-64
0.73500	-56
0.73867	-44
0.74233	-31
0.74600	-22
0.74967	-20
0.75333	-25
0.75700	-34
0.76067	-44
0.76433	-52
0.76800	-56
0.77167	-59
0.77533	-64
0.77900	-69
0.78267	-78
0.78633	-85
0.79000	-88
0.79367	-89
0.79733	-88
0.80100	-83
0.80467	-76
0.80833	-68
0.81200	-63
0.81567	-61
0.81933	-62
0.82300	-63
0.82667	-61
0.83033	-55
0.83400	-52
0.83767	-53
0.84133	-54
0.84500	-53
0.84867	-51
0.85233	-51
0.85600	-53
0.85967	-53
0.86333	-52
0.86700	-51
0.87067	-54
0.87433	-56
0.87800	-56
0.88167	-52
0.88533	-46
0.88900	-39
0.89267	-39
0.89633	-44
0.90000	-50
0.90367	-51
0.90733	-45
0.91100	-38
0.91467	-37
0.91833	-44
0.92200	-56
0.92567	-68
0.92933	-77
0.93300	-84
0.93667	-90
0.94033	-93
0.94400	-96
0.94767	-96
0.95133	-93
0.95500	-89
0.95867	-85
0.96233	-82
0.96600	-80
0.96967	-77
0.97333	-76
0.97700	-76
0.98067	-76
0.98433	-77
0.98800	-77
0.99167	-77
0.99533	-79
0.99900	-79
1.00267	-78
1.00633	-77
1.01000	-77
1.01367	-79
1.01733	-81
1.02100	-81
1.02467	-77
1.02833	-72
1.03200	-69
1.03567	-66
1.03933	-62
1.04300	-62
1.04667	-62
1.05033	-63
1.05400	-64
1.05767	-64
1.06133	-66
1.06500	-71
1.06867	-75
1.07233	-76
1.07600	-75
1.07967	-72
1.08333	-68
1.08700	-63
1.09067	-56
1.09433	-50
1.09800	-47
1.10167	-48
1.10533	-53
1.10900	-56
1.11267	-58
1.11633	-64
1.12000	-73
1.12367	-82
1.12733	-84
1.13100	-83
1.13467	-82
1.13833	-84
1.14200	-87
1.14567	-90
1.14933	-89
1.15300	-85
1.15667	-79
1.16033	-74
1.16400	-72
1.16767	-71
1.17133	-70
1.17500	-66
1.17867	-60
1.18233	-57
1.18600	-60
1.18967	-68
1.19333	-77
1.19700	-85
1.20067	-90
1.20433	-93
1.20800	-95
1.21167	-93
1.21533	-90
1.21900	-88
1.22267	-86
1.22633	-84
1.23000	-80
1.23367	-78
1.23733	-74
1.24100	-66
1.24467	-60
1.24833	-60
1.25200	-64
1.25567	-70
1.25933	-77
1.26300	-80
1.26667	-83
1.27033	-82
1.27400	-79
1.27767	-75
1.28133	-74
1.28500	-78
1.28867	-82
1.29233	-86
1.29600	-88
1.29967	-89
1.30333	-88
1.30700	-87
1.31067	-86
1.31433	-83
1.31800	-76
1.32167	-67
1.32533	-62
1.32900	-66
1.33267	-79
1.33633	-94
1.34000	-104
1.34367	-108
1.34733	-108
1.35100	-107
1.35467	-105
1.35833	-102
1.36200	-93
1.36567	-84
1.36933	-80
1.37300	-79
1.37667	-77
1.38033	-74
1.38400	-71
1.38767	-71
1.39133	-76
1.39500	-83
1.39867	-88
1.40233	-91
1.40600	-97
1.40967	-103
1.41333	-107
1.41700	-109
1.42067	-112
1.42433	-114
1.42800	-114
1.43167	-113
1.43533	-111
1.43900	-104
1.44267	-65
1.44633	79
1.45000	392
1.45367	904
1.45733	1673
1.46100	2649
1.46467	3651
1.46833	4510
1.47200	5138
1.47567	5494
1.47933	5547
1.48300	5275
1.48667	4705
1.49033	3938
1.49400	3114
1.49767	2353
1.50133	1716
1.50500	1221
1.50867	854
1.51233	593
1.51600	410
1.51967	283
1.52333	192
1.52700	126
1.53067	80
1.53433	47
1.53800	18
1.54167	9
1.54533	76
1.54900	294
1.55267	693
1.55633	1207
1.56000	1722
1.56367	2153
1.56733	2457
1.57100	2603
1.57467	2554
1.57833	2303
1.58200	1907
1.58567	1460
1.58933	1044
1.59300	705
1.59667	449
1.60033	266
1.60400	137
1.60767	46
1.61133	-15
1.61500	-54
1.61867	-78
1.62233	-94
1.62600	-104
1.62967	-96
1.63333	-46
1.63700	12
1.64067	47
1.64433	57
1.64800	48
1.65167	30
1.65533	9
1.65900	-9
1.66267	-19
1.66633	-21
1.67000	-19
1.67367	-18
1.67733	-21
1.68100	-30
1.68467	-40
1.68833	-49
1.69200	-52
1.69567	-49
1.69933	-46
1.70300	-45
1.70667	-48
1.71033	-51
1.71400	-52
1.71767	-49
1.72133	-44
1.72500	-39
1.72867	-37
1.73233	-38
1.73600	-38
1.73967	-37
1.74333	-34
1.74700	-32
1.75067	-28
1.75433	-21
1.75800	-16
1.76167	-14
1.76533	-16
1.76900	-21
1.77267	-25
1.77633	-28
1.78000	-28
1.78367	-28
1.78733	-23
1.79100	-18
1.79467	-13
1.79833	-8
1.80200	-7
1.80567	-13
1.80933	-21
1.81300	-30
1.81667	-40
1.82033	-46
1.82400	-47
1.82767	-45
1.83133	-44
1.83500	-47
1.83867	-47
1.84233	-47
1.84600	-44
1.84967	-40
1.85333	-32
1.85700	-25
1.86067	-24
1.86433	-23
1.86800	-16
1.87167	-10
1.87533	-11
1.87900	-16
1.88267	-20
1.88633	-20
1.89000	-19
1.89367	-20
1.89733	-21
1.90100	-19
1.90467	-16
1.90833	-14
1.91200	-12
1.91567	-11
1.91933	-12
1.92300	-14
1.92667	-15
1.93033	-13
1.93400	-10
1.93767	-13
1.94133	-18
1.94500	-20
1.94867	-20
1.95233	-19
1.95600	-10
1.95967	69
1.96333	550
1.96700	2792
1.97067	10781
1.97433	32617
1.97800	78969
1.98167	156405
1.98533	259939
1.98900	373495
1.99267	477124
1.99633	553509
2.00000	591171
2.00367	585225
2.00733	538681
2.01100	462657
2.01467	372970
2.01833	284715
2.02200	208041
2.02567	147168
2.02933	101881
2.03300	69691
2.03667	47511
2.04033	32531
2.04400	22529
2.04767	15876
2.05133	11440
2.05500	8460
2.05867	6433
2.06233	5029
2.06600	4037
2.06967	3316
2.07333	2783
2.07700	2385
2.08067	2078
2.08433	1837
2.08800	1647
2.09167	1495
2.09533	1367
2.09900	1253
2.10267	1145
2.10633	1045
2.11000	955
2.11367	880
2.11733	819
2.12100	768
2.12467	721
2.12833	679
2.13200	641
2.13567	608
2.13933	578
2.14300	554
2.14667	534
2.15033	513
2.15400	492
2.15767	472
2.16133	452
2.16500	436
2.16867	421
2.17233	407
2.17600	396
2.17967	387
2.18333	379
2.18700	374
2.19067	368
2.19433	361
2.19800	352
2.20167	341
2.20533	329
2.20900	317
2.21267	309
2.21633	302
2.22000	298
2.22367	294
2.22733	293
2.23100	290
2.23467	282
2.23833	273
2.24200	268
2.24567	268
2.24933	265
2.25300	256
2.25667	245
2.26033	236
2.26400	229
2.26767	223
2.27133	222
2.27500	223
2.27867	223
2.28233	221
2.28600	218
2.28967	213
2.29333	203
2.29700	194
2.30067	190
2.30433	193
2.30800	199
2.31167	204
2.31533	208
2.31900	211
2.32267	214
2.32633	213
2.33000	211
2.33367	206
2.33733	203
2.34100	199
2.34467	193
2.34833	190
2.35200	187
2.35567	181
2.35933	175
2.36300	172
2.36667	171
2.37033	171
2.37400	171
2.37767	170
2.38133	165
2.38500	160
2.38867	156
2.39233	157
2.39600	160
2.39967	164
2.40333	169
2.40700	170
2.41067	167
2.41433	162
2.41800	159
2.42167	159
2.42533	162
2.42900	164
2.43267	166
2.43633	167
2.44000	164
2.44367	162
2.44733	161
2.45100	159
2.45467	158
2.45833	156
2.46200	153
2.46567	148
2.46933	146
2.47300	146
2.47667	149
2.48033	150
2.48400	150
2.48767	146
2.49133	143
2.49500	142
2.49867	140
2.50233	136
2.50600	135
2.50967	139
2.51333	144
2.51700	145
2.52067	144
2.52433	139
2.52800	134
2.53167	129
2.53533	123
2.53900	118
2.54267	115
2.54633	114
2.55000	115
2.55367	117
2.55733	119
2.56100	120
2.56467	122
2.56833	124
2.57200	124
2.57567	126
2.57933	126
2.58300	122
2.58667	117
2.59033	113
2.59400	108
2.59767	103
2.60133	101
2.60500	97
2.60867	92
2.61233	89
2.61600	89
2.61967	93
2.62333	97
2.62700	98
2.63067	97
2.63433	98
2.63800	99
2.64167	101
2.64533	102
2.64900	101
2.65267	100
2.65633	98
2.66000	95
2.66367	93
2.66733	88
2.67100	80
2.67467	74
2.67833	71
2.68200	73
2.68567	77
2.68933	81
2.69300	82
2.69667	78
2.70033	72
2.70400	68
2.70767	66
2.71133	67
2.71500	75
2.71867	84
2.72233	89
2.72600	93
2.72967	93
2.73333	86
2.73700	75
2.74067	66
2.74433	60
2.74800	56
2.75167	55
2.75533	57
2.75900	66
2.76267	78
2.76633	83
2.77000	79
2.77367	70
2.77733	62
2.78100	58
2.78467	59
2.78833	63
2.79200	66
2.79567	64
2.79933	62
2.80300	59
2.80667	57
2.81033	57
2.81400	54
2.81767	51
2.82133	51
2.82500	53
2.82867	55
2.83233	56
2.83600	55
2.83967	53
2.84333	55
2.84700	59
2.85067	65
2.85433	69
2.85800	68
2.86167	61
2.86533	52
2.86900	46
2.87267	43
2.87633	45
2.88000	51
2.88367	57
2.88733	64
2.89100	67
2.89467	63
2.89833	57
2.90200	52
2.90567	50
2.90933	46
2.91300	42
2.91667	42
2.92033	45
2.92400	47
2.92767	48
2.93133	50
2.93500	53
2.93867	51
2.94233	45
2.94600	37
2.94967	31
2.95333	30
2.95700	34
2.96067	36
2.96433	34
2.96800	33
2.97167	32
2.97533	32
2.97900	33
2.98267	38
2.98633	46
2.99000	55
2.99367	67
2.99733	77
3.00100	80
3.00467	76
3.00833	69
3.01200	61
3.01567	54
3.01933	49
3.02300	45
3.02667	41
3.03033	39
3.03400	38
3.03767	36
3.04133	37
3.04500	43
3.04867	49
3.05233	52
3.05600	52
3.05967	51
3.06333	49
3.06700	42
3.07067	38
3.07433	38
3.07800	39
3.08167	37
3.08533	34
3.08900	31
3.09267	33
3.09633	38
3.10000	40
3.10367	39
3.10733	36
3.11100	33
3.11467	31
3.11833	27
3.12200	23
3.12567	23
3.12933	23
3.13300	25
3.13667	29
3.14033	38
3.14400	47
3.14767	52
3.15133	55
3.15500	53
3.15867	47
3.16233	39
3.16600	30
3.16967	24
3.17333	20
3.17700	20
3.18067	21
3.18433	24
3.18800	29
3.19167	37
3.19533	41
3.19900	39
3.20267	32
3.20633	21
3.21000	7
3.21367	-5
3.21733	-9
3.22100	-8
3.22467	-4
3.22833	1
3.23200	8
3.23567	19
3.23933	28
3.24300	31
3.24667	27
3.25033	20
3.25400	14
3.25767	9
3.26133	8
3.26500	11
3.26867	12
3.27233	13
3.27600	12
3.27967	11
3.28333	11
3.28700	14
3.29067	17
3.29433	21
3.29800	22
3.30167	21
3.30533	17
3.30900	15
3.31267	16
3.31633	15
3.32000	12
3.32367	8
3.32733	7
3.33100	7
3.33467	7
3.33833	5
3.34200	1
3.34567	1
3.34933	8
3.35300	18
3.35667	23
3.36033	19
3.36400	11
3.36767	1
3.37133	-6
3.37500	-7
3.37867	-6
3.38233	-5
3.38600	-4
3.38967	-4
3.39333	-6
3.39700	-6
3.40067	-1
3.40433	6
3.40800	11
3.41167	8
3.41533	0
3.41900	-5
3.42267	-9
3.42633	-15
3.43000	-23
3.43367	-30
3.43733	-31
3.44100	-24
3.44467	-17
3.44833	-13
3.45200	-12
3.45567	-17
3.45933	-23
3.46300	-25
3.46667	-25
3.47033	-24
3.47400	-24
3.47767	-24
3.48133	-24
3.48500	-22
3.48867	-18
3.49233	-14
3.49600	-11
3.49967	-7
3.50333	-1
3.50700	4
3.51067	4
3.51433	-3
3.51800	-11
3.52167	-15
3.52533	-15
3.52900	-14
3.53267	-15
3.53633	-18
3.54000	-19
3.54367	-17
3.54733	-13
3.55100	-10
3.55467	-6
3.55833	-4
3.56200	-3
3.56567	0
3.56933	2
3.57300	1
3.57667	-2
3.58033	-3
3.58400	-2
3.58767	0
3.59133	1
3.59500	-0
3.59867	-3
3.60233	-7
3.60600	-10
3.60967	-15
3.61333	-19
3.61700	-21
3.62067	-20
3.62433	-18
3.62800	-14
3.63167	-9
3.63533	-6
3.63900	-6
3.64267	-10
3.64633	-16
3.65000	-19
3.65367	-17
3.65733	-14
3.66100	-11
3.66467	-9
3.66833	-8
3.67200	-5
3.67567	-1
3.67933	-2
3.68300	-7
3.68667	-11
3.69033	-13
3.69400	-13
3.69767	-13
3.70133	-16
3.70500	-17
3.70867	-16
3.71233	-15
3.71600	-16
3.71967	-19
3.72333	-20
3.72700	-21
3.73067	-17
3.73433	-9
3.73800	-2
3.74167	-0
3.74533	-4
3.74900	-8
3.75267	-12
3.75633	-17
3.76000	-24
3.76367	-31
3.76733	-34
3.77100	-32
3.77467	-31
3.77833	-34
3.78200	-35
3.78567	-29
3.78933	-20
3.79300	-15
3.79667	-14
3.80033	-17
3.80400	-21
3.80767	-26
3.81133	-30
3.81500	-33
3.81867	-32
3.82233	-27
3.82600	-18
3.82967	-13
3.83333	-14
3.83700	-20
3.84067	-27
3.84433	-33
3.84800	-35
3.85167	-35
3.85533	-35
3.85900	-33
3.86267	-29
3.86633	-22
3.87000	-15
3.87367	-10
3.87733	-6
3.88100	-5
3.88467	-8
3.88833	-9
3.89200	-7
3.89567	-6
3.89933	-7
3.90300	-6
3.90667	-3
3.91033	1
3.91400	4
3.91767	3
3.92133	-3
3.92500	-9
3.92867	-11
3.93233	-12
3.93600	-11
3.93967	-11
3.94333	-16
3.94700	-25
3.95067	-33
3.95433	-36
3.95800	-34
3.96167	-30
3.96533	-27
3.96900	-26
3.97267	-28
3.97633	-31
3.98000	-31
3.98367	-27
3.98733	-20
3.99100	-14
3.99467	-9
3.99833	-6

[Chromatogram (Ch2)]
Interval(msec)	220
# of Points	1091
Start Time(min)	0.002
End Time(min)	3.998
R.Time (min)	Intensity
0.00167	-0
0.00533	-0
0.00900	-0
0.01267	-0
0.01633	-1
0.02000	-1
0.02367	-1
0.02733	-1
0.03100	-1
0.03467	-1
0.03833	-1
0.04200	-1
0.04567	-1
0.04933	-1
0.05300	-1
0.05667	-1
0.06033	-1
0.06400	-1
0.06767	-1
0.07133	-1
0.07500	-1
0.07867	-1
0.08233	-1
0.08600	-1
0.08967	-1
0.09333	-1
0.09700	-0
0.10067	-0
0.10433	-0
0.10800	0
0.11167	1
0.11533	1
0.11900	2
0.12267	2
0.12633	3
0.13000	3
0.13367	4
0.13733	4
0.14100	4
0.14467	5
0.14833	5
0.15200	5
0.15567	5
0.15933	5
0.16300	5
0.16667	5
0.17033	5
0.17400	5
0.17767	5
0.18133	5
0.18500	5
0.18867	5
0.19233	5
0.19600	4
0.19967	4
0.20333	4
0.20700	4
0.21067	4
0.21433	4
0.21800	4
0.22167	4
0.22533	4
0.22900	4
0.23267	4
0.23633	4
0.24000	4
0.24367	4
0.24733	4
0.25100	4
0.25467	4
0.25833	4
0.26200	4
0.26567	4
0.26933	4
0.27300	4
0.27667	4
0.28033	4
0.28400	3
0.28767	3
0.29133	2
0.29500	2
0.29867	1
0.30233	1
0.30600	0
0.30967	-0
0.31333	-1
0.31700	-1
0.32067	-1
0.32433	-1
0.32800	-1
0.33167	-1
0.33533	-1
0.33900	-2
0.34267	-2
0.34633	-3
0.35000	-3
0.35367	-4
0.35733	-4
0.36100	-4
0.36467	-4
0.36833	-4
0.37200	-3
0.37567	-3
0.37933	-3
0.38300	-2
0.38667	-2
0.39033	-2
0.39400	-1
0.39767	-1
0.40133	-1
0.40500	-1
0.40867	-0
0.41233	0
0.41600	1
0.41967	1
0.42333	1
0.42700	2
0.43067	2
0.43433	2
0.43800	2
0.44167	3
0.44533	3
0.44900	3
0.45267	3
0.45633	3
0.46000	3
0.46367	4
0.46733	4
0.47100	4
0.47467	4
0.47833	4
0.48200	4
0.48567	4
0.48933	3
0.49300	3
0.49667	3
0.50033	3
0.50400	3
0.50767	2
0.51133	2
0.51500	2
0.51867	1
0.52233	1
0.52600	1
0.52967	1
0.53333	1
0.53700	1
0.54067	0
0.54433	0
0.54800	-0
0.55167	-1
0.55533	-1
0.55900	-2
0.56267	-2
0.56633	-2
0.57000	-2
0.57367	-2
0.57733	-2
0.58100	-2
0.58467	-2
0.58833	-2
0.59200	-2
0.59567	-1
0.59933	-1
0.60300	-1
0.60667	-0
0.61033	-0
0.61400	0
0.61767	0
0.62133	1
0.62500	1
0.62867	1
0.63233	1
0.63600	1
0.63967	1
0.64333	1
0.64700	1
0.65067	0
0.65433	0
0.65800	-0
0.66167	-0
0.66533	-1
0.66900	-1
0.67267	-2
0.67633	-3
0.68000	-3
0.68367	-3
0.68733	-4
0.69100	-4
0.69467	-4
0.69833	-4
0.70200	-4
0.70567	-4
0.70933	-3
0.71300	-3
0.71667	-3
0.72033	-2
0.72400	-2
0.72767	-2
0.73133	-1
0.73500	-1
0.73867	-1
0.74233	-1
0.74600	-1
0.74967	-1
0.75333	-1
0.75700	-1
0.76067	-1
0.76433	-1
0.76800	-1
0.77167	-2
0.77533	-2
0.77900	-3
0.78267	-3
0.78633	-3
0.79000	-3
0.79367	-3
0.79733	-3
0.80100	-3
0.80467	-3
0.80833	-3
0.81200	-3
0.81567	-2
0.81933	-2
0.82300	-2
0.82667	-1
0.83033	-1
0.83400	-1
0.83767	-0
0.84133	-0
0.84500	0
0.84867	0
0.85233	1
0.85600	1
0.85967	1
0.86333	1
0.86700	1
0.87067	1
0.87433	1
0.87800	1
0.88167	1
0.88533	1
0.88900	1
0.89267	1
0.89633	0
0.90000	0
0.90367	-0
0.90733	-0
0.91100	-1
0.91467	-1
0.91833	-1
0.92200	-1
0.92567	-1
0.92933	-1
0.93300	-2
0.93667	-2
0.94033	-2
0.94400	-2
0.94767	-2
0.95133	-2
0.95500	-2
0.95867	-2
0.96233	-2
0.96600	-1
0.96967	-2
0.97333	-2
0.97700	-2
0.98067	-2
0.98433	-2
0.98800	-3
0.99167	-3
0.99533	-3
0.99900	-3
1.00267	-2
1.00633	-2
1.01000	-2
1.01367	-1
1.01733	-1
1.02100	-0
1.02467	0
1.02833	1
1.03200	1
1.03567	1
1.03933	1
1.04300	1
1.04667	1
1.05033	2
1.05400	1
1.05767	1
1.06133	1
1.06500	1
1.06867	0
1.07233	-0
1.07600	-1
1.07967	-1
1.08333	-1
1.08700	-2
1.09067	-2
1.09433	-2
1.09800	-2
1.10167	-3
1.10533	-3
1.10900	-3
1.11267	-3
1.11633	-4
1.12000	-4
1.12367	-4
1.12733	-4
1.13100	-4
1.13467	-4
1.13833	-4
1.14200	-4
1.14567	-4
1.14933	-3
1.15300	-3
1.15667	-3
1.16033	-3
1.16400	-3
1.16767	-3
1.17133	-3
1.17500	-3
1.17867	-3
1.18233	-3
1.18600	-3
1.18967	-3
1.19333	-4
1.19700	-4
1.20067	-4
1.20433	-4
1.20800	-4
1.21167	-4
1.21533	-4
1.21900	-4
1.22267	-3
1.22633	-3
1.23000	-2
1.23367	-2
1.23733	-1
1.24100	-1
1.24467	-0
1.24833	-0
1.25200	0
1.25567	0
1.25933	0
1.26300	1
1.26667	1
1.27033	1
1.27400	1
1.27767	1
1.28133	1
1.28500	1
1.28867	1
1.29233	1
1.29600	1
1.29967	1
1.30333	1
1.30700	1
1.31067	1
1.31433	1
1.31800	1
1.32167	1
1.32533	1
1.32900	1
1.33267	1
1.33633	1
1.34000	1
1.34367	1
1.34733	1
1.35100	1
1.35467	1
1.35833	1
1.36200	1
1.36567	1
1.36933	1
1.37300	0
1.37667	0
1.38033	0
1.38400	0
1.38767	-0
1.39133	-0
1.39500	-1
1.39867	-1
1.40233	-2
1.40600	-2
1.40967	-2
1.41333	-3
1.41700	-3
1.42067	-4
1.42433	-4
1.42800	-4
1.43167	-5
1.43533	-5
1.43900	-4
1.44267	-4
1.44633	-4
1.45000	-4
1.45367	-4
1.45733	-4
1.46100	-4
1.46467	-4
1.46833	-5
1.47200	-5
1.47567	-5
1.47933	-6
1.48300	-6
1.48667	-6
1.49033	-7
1.49400	-7
1.49767	-7
1.50133	-7
1.50500	-7
1.50867	-6
1.51233	-6
1.51600	-6
1.51967	-5
1.52333	-5
1.52700	-5
1.53067	-4
1.53433	-4
1.53800	-4
1.54167	-4
1.54533	-3
1.54900	-2
1.55267	-2
1.55633	-1
1.56000	-1
1.56367	-1
1.56733	-1
1.57100	-1
1.57467	-2
1.57833	-2
1.58200	-2
1.58567	-2
1.58933	-2
1.59300	-3
1.59667	-3
1.60033	-3
1.60400	-4
1.60767	-5
1.61133	-6
1.61500	-8
1.61867	-10
1.62233	-13
1.62600	-15
1.62967	-18
1.63333	-21
1.63700	-25
1.64067	-28
1.64433	-31
1.64800	-35
1.65167	-38
1.65533	-42
1.65900	-46
1.66267	-50
1.66633	-55
1.67000	-59
1.67367	-64
1.67733	-69
1.68100	-74
1.68467	-79
1.68833	-83
1.69200	-87
1.69567	-90
1.69933	-94
1.70300	-97
1.70667	-99
1.71033	-102
1.71400	-104
1.71767	-105
1.72133	-107
1.72500	-109
1.72867	-111
1.73233	-112
1.73600	-113
1.73967	-114
1.74333	-114
1.74700	-115
1.75067	-115
1.75433	-115
1.75800	-115
1.76167	-115
1.76533	-114
1.76900	-114
1.77267	-114
1.77633	-114
1.78000	-115
1.78367	-116
1.78733	-116
1.79100	-117
1.79467	-118
1.79833	-119
1.80200	-120
1.80567	-120
1.80933	-120
1.81300	-120
1.81667	-120
1.82033	-119
1.82400	-118
1.82767	-117
1.83133	-116
1.83500	-115
1.83867	-115
1.84233	-115
1.84600	-115
1.84967	-116
1.85333	-117
1.85700	-117
1.86067	-117
1.86433	-118
1.86800	-118
1.87167	-118
1.87533	-118
1.87900	-118
1.88267	-118
1.88633	-118
1.89000	-118
1.89367	-118
1.89733	-118
1.90100	-119
1.90467	-119
1.90833	-120
1.91200	-120
1.91567	-120
1.91933	-119
1.92300	-119
1.92667	-118
1.93033	-117
1.93400	-117
1.93767	-116
1.94133	-116
1.94500	-115
1.94867	-115
1.95233	-115
1.95600	-114
1.95967	-114
1.96333	-113
1.96700	-113
1.97067	-113
1.97433	-112
1.97800	-112
1.98167	-113
1.98533	-113
1.98900	-113
1.99267	-112
1.99633	-112
2.00000	-112
2.00367	-112
2.00733	-111
2.01100	-111
2.01467	-111
2.01833	-111
2.02200	-111
2.02567	-111
2.02933	-111
2.03300	-111
2.03667	-111
2.04033	-110
2.04400	-110
2.04767	-110
2.05133	-110
2.05500	-109
2.05867	-108
2.06233	-108
2.06600	-107
2.06967	-107
2.07333	-107
2.07700	-106
2.08067	-106
2.08433	-106
2.08800	-107
2.09167	-107
2.09533	-106
2.09900	-106
2.10267	-105
2.10633	-105
2.11000	-104
2.11367	-104
2.11733	-103
2.12100	-103
2.12467	-102
2.12833	-102
2.13200	-102
2.13567	-102
2.13933	-101
2.14300	-101
2.14667	-101
2.15033	-100
2.15400	-100
2.15767	-100
2.16133	-100
2.16500	-99
2.16867	-99
2.17233	-99
2.17600	-99
2.17967	-98
2.18333	-98
2.18700	-97
2.19067	-96
2.19433	-96
2.19800	-95
2.20167	-95
2.20533	-95
2.20900	-95
2.21267	-95
2.21633	-94
2.22000	-93
2.22367	-92
2.22733	-92
2.23100	-91
2.23467	-91
2.23833	-91
2.24200	-90
2.24567	-90
2.24933	-90
2.25300	-90
2.25667	-90
2.26033	-90
2.26400	-89
2.26767	-89
2.27133	-89
2.27500	-89
2.27867	-89
2.28233	-90
2.28600	-89
2.28967	-89
2.29333	-89
2.29700	-88
2.30067	-88
2.30433	-87
2.30800	-86
2.31167	-85
2.31533	-84
2.31900	-83
2.32267	-83
2.32633	-83
2.33000	-83
2.33367	-83
2.33733	-84
2.34100	-84
2.34467	-84
2.34833	-84
2.35200	-84
2.35567	-83
2.35933	-82
2.36300	-80
2.36667	-79
2.37033	-77
2.37400	-75
2.37767	-73
2.38133	-70
2.38500	-67
2.38867	-63
2.39233	-59
2.39600	-55
2.39967	-51
2.40333	-46
2.40700	-42
2.41067	-37
2.41433	-33
2.41800	-30
2.42167	-27
2.42533	-24
2.42900	-21
2.43267	-19
2.43633	-17
2.44000	-15
2.44367	-14
2.44733	-12
2.45100	-11
2.45467	-9
2.45833	-7
2.46200	-6
2.46567	-4
2.46933	-3
2.47300	-2
2.47667	-1
2.48033	-0
2.48400	0
2.48767	1
2.49133	2
2.49500	3
2.49867	4
2.50233	5
2.50600	5
2.50967	6
2.51333	6
2.51700	7
2.52067	7
2.52433	8
2.52800	9
2.53167	10
2.53533	11
2.53900	11
2.54267	12
2.54633	13
2.55000	13
2.55367	13
2.55733	13
2.56100	14
2.56467	14
2.56833	14
2.57200	14
2.57567	14
2.57933	15
2.58300	15
2.58667	15
2.59033	15
2.59400	14
2.59767	14
2.60133	14
2.60500	15
2.60867	15
2.61233	15
2.61600	15
2.61967	15
2.62333	15
2.62700	16
2.63067	16
2.63433	17
2.63800	17
2.64167	18
2.64533	18
2.64900	18
2.65267	18
2.65633	18
2.66000	18
2.66367	18
2.66733	18
2.67100	18
2.67467	18
2.67833	18
2.68200	19
2.68567	19
2.68933	19
2.69300	20
2.69667	20
2.70033	21
2.70400	22
2.70767	23
2.71133	23
2.71500	24
2.71867	24
2.72233	24
2.72600	23
2.72967	23
2.73333	23
2.73700	22
2.74067	22
2.74433	22
2.74800	22
2.75167	22
2.75533	22
2.75900	23
2.76267	23
2.76633	23
2.77000	23
2.77367	23
2.77733	24
2.78100	24
2.78467	24
2.78833	25
2.79200	25
2.79567	25
2.79933	25
2.80300	25
2.80667	25
2.81033	25
2.81400	25
2.81767	25
2.82133	25
2.82500	25
2.82867	25
2.83233	25
2.83600	25
2.83967	25
2.84333	25
2.84700	25
2.85067	23
2.85433	21
2.85800	17
2.86167	10
2.86533	-0
2.86900	-13
2.87267	-30
2.87633	-51
2.88000	-77
2.88367	-106
2.88733	-139
2.89100	-175
2.89467	-215
2.89833	-258
2.90200	-304
2.90567	-352
2.90933	-401
2.91300	-452
2.91667	-503
2.92033	-554
2.92400	-606
2.92767	-657
2.93133	-708
2.93500	-759
2.93867	-810
2.94233	-863
2.94600	-921
2.94967	-984
2.95333	-1044
2.95700	-1090
2.96067	-1112
2.96433	-1108
2.96800	-1078
2.97167	-1027
2.97533	-960
2.97900	-883
2.98267	-802
2.98633	-720
2.99000	-640
2.99367	-565
2.99733	-494
3.00100	-430
3.00467	-372
3.00833	-320
3.01200	-275
3.01567	-234
3.01933	-199
3.02300	-169
3.02667	-142
3.03033	-120
3.03400	-101
3.03767	-84
3.04133	-70
3.04500	-58
3.04867	-47
3.05233	-39
3.05600	-31
3.05967	-25
3.06333	-20
3.06700	-16
3.07067	-12
3.07433	-8
3.07800	-5
3.08167	-2
3.08533	-0
3.08900	2
3.09267	4
3.09633	5
3.10000	7
3.10367	8
3.10733	9
3.11100	10
3.11467	11
3.11833	12
3.12200	13
3.12567	13
3.12933	14
3.13300	15
3.13667	15
3.14033	16
3.14400	16
3.14767	16
3.15133	17
3.15500	17
3.15867	18
3.16233	18
3.16600	18
3.16967	18
3.17333	19
3.17700	19
3.18067	19
3.18433	19
3.18800	20
3.19167	20
3.19533	20
3.19900	20
3.20267	20
3.20633	20
3.21000	20
3.21367	20
3.21733	20
3.22100	20
3.22467	21
3.22833	21
3.23200	22
3.23567	22
3.23933	23
3.24300	23
3.24667	24
3.25033	24
3.25400	25
3.25767	25
3.26133	25
3.26500	26
3.26867	26
3.27233	26
3.27600	26
3.27967	27
3.28333	27
3.28700	27
3.29067	27
3.29433	27
3.29800	27
3.30167	27
3.30533	27
3.30900	27
3.31267	27
3.31633	27
3.32000	27
3.32367	27
3.32733	27
3.33100	27
3.33467	27
3.33833	27
3.34200	27
3.34567	27
3.34933	27
3.35300	27
3.35667	27
3.36033	27
3.36400	27
3.36767	26
3.37133	26
3.37500	26
3.37867	26
3.38233	26
3.38600	26
3.38967	26
3.39333	26
3.39700	26
3.40067	26
3.40433	26
3.40800	26
3.41167	26
3.41533	26
3.41900	26
3.42267	26
3.42633	25
3.43000	25
3.43367	25
3.43733	25
3.44100	25
3.44467	25
3.44833	25
3.45200	25
3.45567	25
3.45933	25
3.46300	25
3.46667	25
3.47033	25
3.47400	25
3.47767	25
3.48133	25
3.48500	25
3.48867	26
3.49233	26
3.49600	26
3.49967	26
3.50333	26
3.50700	26
3.51067	26
3.51433	26
3.51800	27
3.52167	27
3.52533	27
3.52900	27
3.53267	27
3.53633	27
3.54000	27
3.54367	27
3.54733	27
3.55100	27
3.55467	27
3.55833	26
3.56200	26
3.56567	26
3.56933	26
3.57300	26
3.57667	26
3.58033	26
3.58400	26
3.58767	26
3.59133	26
3.59500	25
3.59867	25
3.60233	25
3.60600	25
3.60967	24
3.61333	24
3.61700	24
3.62067	24
3.62433	24
3.62800	24
3.63167	24
3.63533	24
3.63900	24
3.64267	24
3.64633	24
3.65000	24
3.65367	24
3.65733	24
3.66100	25
3.66467	25
3.66833	25
3.67200	25
3.67567	25
3.67933	25
3.68300	25
3.68667	25
3.69033	25
3.69400	25
3.69767	25
3.70133	26
3.70500	26
3.70867	26
3.71233	26
3.71600	26
3.71967	26
3.72333	27
3.72700	27
3.73067	27
3.73433	27
3.73800	27
3.74167	27
3.74533	27
3.74900	27
3.75267	27
3.75633	26
3.76000	26
3.76367	26
3.76733	26
3.77100	26
3.77467	26
3.77833	26
3.78200	26
3.78567	26
3.78933	26
3.79300	26
3.79667	26
3.80033	26
3.80400	26
3.80767	26
3.81133	26
3.81500	26
3.81867	26
3.82233	26
3.82600	26
3.82967	26
3.83333	26
3.83700	26
3.84067	25
3.84433	25
3.84800	25
3.85167	25
3.85533	25
3.85900	25
3.86267	25
3.86633	25
3.87000	25
3.87367	25
3.87733	25
3.88100	25
3.88467	25
3.88833	25
3.89200	25
3.89567	25
3.89933	25
3.90300	24
3.90667	24
3.91033	24
3.91400	24
3.91767	24
3.92133	23
3.92500	23
3.92867	23
3.93233	23
3.93600	23
3.93967	23
3.94333	23
3.94700	23
3.95067	23
3.95433	24
3.95800	24
3.96167	24
3.96533	24
3.96900	24
3.97267	24
3.97633	25
3.98000	25
3.98367	25
3.98733	25
3.99100	25
3.99467	25
3.99833	25

[Chromatogram (Ch3)]
Interval(msec)	220
# of Points	1091
Start Time(min)	0.002
End Time(min)	3.998
R.Time (min)	Intensity
0.00167	1
0.00533	2
0.00900	3
0.01267	4
0.01633	4
0.02000	6
0.02367	7
0.02733	7
0.03100	7
0.03467	7
0.03833	4
0.04200	3
0.04567	2
0.04933	1
0.05300	-0
0.05667	1
0.06033	2
0.06400	4
0.06767	4
0.07133	4
0.07500	3
0.07867	3
0.08233	2
0.08600	0
0.08967	-0
0.09333	-2
0.09700	-2
0.10067	-2
0.10433	-4
0.10800	-2
0.11167	0
0.11533	0
0.11900	1
0.12267	1
0.12633	1
0.13000	1
0.13367	1
0.13733	1
0.14100	3
0.14467	5
0.14833	4
0.15200	2
0.15567	3
0.15933	4
0.16300	4
0.16667	2
0.17033	2
0.17400	1
0.17767	0
0.18133	-0
0.18500	1
0.18867	1
0.19233	2
0.19600	3
0.19967	3
0.20333	5
0.20700	5
0.21067	4
0.21433	5
0.21800	7
0.22167	7
0.22533	7
0.22900	6
0.23267	5
0.23633	5
0.24000	5
0.24367	5
0.24733	5
0.25100	6
0.25467	7
0.25833	7
0.26200	6
0.26567	6
0.26933	8
0.27300	9
0.27667	11
0.28033	12
0.28400	11
0.28767	9
0.29133	7
0.29500	7
0.29867	7
0.30233	7
0.30600	6
0.30967	8
0.31333	9
0.31700	10
0.32067	13
0.32433	14
0.32800	14
0.33167	15
0.33533	15
0.33900	14
0.34267	14
0.34633	14
0.35000	13
0.35367	13
0.35733	13
0.36100	14
0.36467	15
0.36833	15
0.37200	17
0.37567	16
0.37933	17
0.38300	19
0.38667	20
0.39033	20
0.39400	19
0.39767	17
0.40133	16
0.40500	16
0.40867	18
0.41233	18
0.41600	18
0.41967	19
0.42333	18
0.42700	17
0.43067	14
0.43433	14
0.43800	16
0.44167	17
0.44533	19
0.44900	19
0.45267	19
0.45633	20
0.46000	20
0.46367	19
0.46733	20
0.47100	21
0.47467	22
0.47833	23
0.48200	23
0.48567	25
0.48933	26
0.49300	27
0.49667	26
0.50033	26
0.50400	26
0.50767	28
0.51133	29
0.51500	27
0.51867	25
0.52233	23
0.52600	23
0.52967	25
0.53333	26
0.53700	26
0.54067	23
0.54433	20
0.54800	21
0.55167	23
0.55533	25
0.55900	25
0.56267	25
0.56633	25
0.57000	26
0.57367	27
0.57733	28
0.58100	29
0.58467	30
0.58833	31
0.59200	32
0.59567	31
0.59933	30
0.60300	30
0.60667	30
0.61033	29
0.61400	27
0.61767	27
0.62133	28
0.62500	25
0.62867	24
0.63233	26
0.63600	28
0.63967	29
0.64333	31
0.64700	33
0.65067	34
0.65433	34
0.65800	34
0.66167	33
0.66533	35
0.66900	37
0.67267	36
0.67633	36
0.68000	38
0.68367	38
0.68733	38
0.69100	37
0.69467	35
0.69833	35
0.70200	35
0.70567	35
0.70933	36
0.71300	35
0.71667	33
0.72033	34
0.72400	36
0.72767	38
0.73133	41
0.73500	40
0.73867	39
0.74233	37
0.74600	36
0.74967	35
0.75333	35
0.75700	36
0.76067	35
0.76433	37
0.76800	40
0.77167	41
0.77533	41
0.77900	43
0.78267	44
0.78633	45
0.79000	43
0.79367	42
0.79733	43
0.80100	43
0.80467	44
0.80833	44
0.81200	46
0.81567	47
0.81933	46
0.82300	48
0.82667	48
0.83033	48
0.83400	47
0.83767	45
0.84133	43
0.84500	43
0.84867	42
0.85233	38
0.85600	36
0.85967	40
0.86333	44
0.86700	45
0.87067	47
0.87433	51
0.87800	53
0.88167	53
0.88533	53
0.88900	52
0.89267	51
0.89633	52
0.90000	52
0.90367	51
0.90733	50
0.91100	49
0.91467	47
0.91833	46
0.92200	44
0.92567	45
0.92933	46
0.93300	47
0.93667	50
0.94033	52
0.94400	51
0.94767	48
0.95133	47
0.95500	46
0.95867	48
0.96233	49
0.96600	47
0.96967	45
0.97333	45
0.97700	47
0.98067	49
0.98433	50
0.98800	51
0.99167	53
0.99533	54
0.99900	56
1.00267	57
1.00633	57
1.01000	57
1.01367	57
1.01733	56
1.02100	55
1.02467	55
1.02833	55
1.03200	55
1.03567	53
1.03933	53
1.04300	55
1.04667	57
1.05033	58
1.05400	59
1.05767	58
1.06133	55
1.06500	55
1.06867	58
1.07233	59
1.07600	60
1.07967	57
1.08333	55
1.08700	53
1.09067	52
1.09433	51
1.09800	51
1.10167	52
1.10533	53
1.10900	56
1.11267	58
1.11633	59
1.12000	60
1.12367	59
1.12733	60
1.13100	61
1.13467	61
1.13833	60
1.14200	60
1.14567	61
1.14933	62
1.15300	62
1.15667	60
1.16033	59
1.16400	60
1.16767	59
1.17133	57
1.17500	58
1.17867	58
1.18233	58
1.18600	58
1.18967	57
1.19333	56
1.19700	57
1.20067	59
1.20433	62
1.20800	64
1.21167	65
1.21533	65
1.21900	62
1.22267	61
1.22633	62
1.23000	63
1.23367	63
1.23733	63
1.24100	65
1.24467	65
1.24833	64
1.25200	65
1.25567	66
1.25933	67
1.26300	66
1.26667	65
1.27033	66
1.27400	69
1.27767	71
1.28133	70
1.28500	70
1.28867	69
1.29233	68
1.29600	70
1.29967	70
1.30333	69
1.30700	71
1.31067	74
1.31433	75
1.31800	75
1.32167	72
1.32533	70
1.32900	70
1.33267	68
1.33633	70
1.34000	69
1.34367	68
1.34733	69
1.35100	70
1.35467	67
1.35833	66
1.36200	66
1.36567	63
1.36933	62
1.37300	61
1.37667	63
1.38033	65
1.38400	66
1.38767	67
1.39133	66
1.39500	66
1.39867	65
1.40233	65
1.40600	66
1.40967	65
1.41333	62
1.41700	62
1.42067	64
1.42433	64
1.42800	64
1.43167	63
1.43533	64
1.43900	65
1.44267	67
1.44633	67
1.45000	68
1.45367	69
1.45733	68
1.46100	67
1.46467	66
1.46833	68
1.47200	67
1.47567	67
1.47933	69
1.48300	68
1.48667	68
1.49033	68
1.49400	69
1.49767	70
1.50133	70
1.50500	70
1.50867	71
1.51233	70
1.51600	69
1.51967	71
1.52333	69
1.52700	69
1.53067	71
1.53433	70
1.53800	71
1.54167	72
1.54533	73
1.54900	75
1.55267	74
1.55633	75
1.56000	75
1.56367	75
1.56733	76
1.57100	77
1.57467	75
1.57833	75
1.58200	77
1.58567	80
1.58933	81
1.59300	81
1.59667	80
1.60033	77
1.60400	77
1.60767	77
1.61133	81
1.61500	82
1.61867	82
1.62233	83
1.62600	84
1.62967	87
1.63333	90
1.63700	90
1.64067	89
1.64433	88
1.64800	89
1.65167	91
1.65533	90
1.65900	92
1.66267	93
1.66633	90
1.67000	88
1.67367	89
1.67733	89
1.68100	88
1.68467	89
1.68833	92
1.69200	93
1.69567	93
1.69933	94
1.70300	95
1.70667	97
1.71033	98
1.71400	100
1.71767	105
1.72133	106
1.72500	107
1.72867	106
1.73233	104
1.73600	103
1.73967	104
1.74333	105
1.74700	106
1.75067	106
1.75433	107
1.75800	108
1.76167	107
1.76533	108
1.76900	110
1.77267	111
1.77633	110
1.78000	111
1.78367	111
1.78733	109
1.79100	109
1.79467	111
1.79833	111
1.80200	111
1.80567	114
1.80933	116
1.81300	116
1.81667	114
1.82033	115
1.82400	116
1.82767	117
1.83133	118
1.83500	119
1.83867	117
1.84233	116
1.84600	119
1.84967	122
1.85333	122
1.85700	120
1.86067	118
1.86433	117
1.86800	119
1.87167	121
1.87533	122
1.87900	122
1.88267	121
1.88633	120
1.89000	119
1.89367	119
1.89733	120
1.90100	119
1.90467	120
1.90833	119
1.91200	122
1.91567	125
1.91933	124
1.92300	121
1.92667	120
1.93033	121
1.93400	123
1.93767	124
1.94133	123
1.94500	124
1.94867	126
1.95233	126
1.95600	127
1.95967	128
1.96333	128
1.96700	129
1.97067	130
1.97433	131
1.97800	134
1.98167	136
1.98533	137
1.98900	139
1.99267	143
1.99633	144
2.00000	144
2.00367	145
2.00733	144
2.01100	146
2.01467	149
2.01833	152
2.02200	153
2.02567	153
2.02933	153
2.03300	153
2.03667	153
2.04033	152
2.04400	151
2.04767	152
2.05133	152
2.05500	154
2.05867	156
2.06233	157
2.06600	159
2.06967	159
2.07333	162
2.07700	163
2.08067	165
2.08433	167
2.08800	167
2.09167	169
2.09533	172
2.09900	174
2.10267	176
2.10633	175
2.11000	174
2.11367	173
2.11733	173
2.12100	176
2.12467	180
2.12833	182
2.13200	183
2.13567	183
2.13933	182
2.14300	183
2.14667	187
2.15033	190
2.15400	193
2.15767	194
2.16133	192
2.16500	191
2.16867	191
2.17233	194
2.17600	200
2.17967	204
2.18333	207
2.18700	208
2.19067	208
2.19433	208
2.19800	209
2.20167	211
2.20533	210
2.20900	209
2.21267	208
2.21633	210
2.22000	212
2.22367	212
2.22733	214
2.23100	214
2.23467	215
2.23833	216
2.24200	218
2.24567	218
2.24933	215
2.25300	214
2.25667	213
2.26033	215
2.26400	216
2.26767	215
2.27133	216
2.27500	221
2.27867	222
2.28233	221
2.28600	222
2.28967	223
2.29333	226
2.29700	227
2.30067	228
2.30433	230
2.30800	230
2.31167	231
2.31533	232
2.31900	234
2.32267	234
2.32633	235
2.33000	236
2.33367	239
2.33733	243
2.34100	244
2.34467	241
2.34833	239
2.35200	234
2.35567	232
2.35933	233
2.36300	235
2.36667	236
2.37033	237
2.37400	237
2.37767	239
2.38133	238
2.38500	238
2.38867	239
2.39233	242
2.39600	243
2.39967	242
2.40333	242
2.40700	243
2.41067	246
2.41433	247
2.41800	249
2.42167	250
2.42533	252
2.42900	255
2.43267	257
2.43633	258
2.44000	258
2.44367	261
2.44733	277
2.45100	296
2.45467	311
2.45833	314
2.46200	304
2.46567	288
2.46933	275
2.47300	266
2.47667	259
2.48033	252
2.48400	243
2.48767	234
2.49133	225
2.49500	217
2.49867	210
2.50233	204
2.50600	197
2.50967	189
2.51333	184
2.51700	180
2.52067	177
2.52433	174
2.52800	172
2.53167	171
2.53533	169
2.53900	167
2.54267	162
2.54633	156
2.55000	150
2.55367	145
2.55733	141
2.56100	137
2.56467	133
2.56833	129
2.57200	124
2.57567	119
2.57933	117
2.58300	114
2.58667	111
2.59033	108
2.59400	105
2.59767	100
2.60133	95
2.60500	88
2.60867	77
2.61233	60
2.61600	38
2.61967	13
2.62333	-18
2.62700	-53
2.63067	-88
2.63433	-121
2.63800	-149
2.64167	-171
2.64533	-190
2.64900	-202
2.65267	-209
2.65633	-211
2.66000	-212
2.66367	-208
2.66733	-201
2.67100	-196
2.67467	-189
2.67833	-182
2.68200	-173
2.68567	-165
2.68933	-159
2.69300	-154
2.69667	-148
2.70033	-141
2.70400	-134
2.70767	-127
2.71133	-119
2.71500	-114
2.71867	-108
2.72233	-102
2.72600	-99
2.72967	-94
2.73333	-88
2.73700	-80
2.74067	-75
2.74433	-71
2.74800	-67
2.75167	-66
2.75533	-62
2.75900	-57
2.76267	-55
2.76633	-52
2.77000	-49
2.77367	-47
2.77733	-44
2.78100	-41
2.78467	-38
2.78833	-37
2.79200	-37
2.79567	-37
2.79933	-36
2.80300	-35
2.80667	-34
2.81033	-30
2.81400	-25
2.81767	-24
2.82133	-23
2.82500	-20
2.82867	-13
2.83233	2
2.83600	35
2.83967	106
2.84333	237
2.84700	453
2.85067	782
2.85433	1234
2.85800	1806
2.86167	2474
2.86533	3194
2.86900	3912
2.87267	4572
2.87633	5121
2.88000	5518
2.88367	5741
2.88733	5794
2.89100	5693
2.89467	5466
2.89833	5144
2.90200	4760
2.90567	4344
2.90933	3920
2.91300	3507
2.91667	3113
2.92033	2747
2.92400	2413
2.92767	2111
2.93133	1839
2.93500	1596
2.93867	1382
2.94233	1198
2.94600	1034
2.94967	891
2.95333	770
2.95700	663
2.96067	569
2.96433	488
2.96800	419
2.97167	360
2.97533	309
2.97900	265
2.98267	225
2.98633	190
2.99000	161
2.99367	136
2.99733	118
3.00100	103
3.00467	88
3.00833	73
3.01200	60
3.01567	48
3.01933	39
3.02300	32
3.02667	28
3.03033	23
3.03400	19
3.03767	13
3.04133	9
3.04500	8
3.04867	5
3.05233	1
3.05600	-3
3.05967	-6
3.06333	-10
3.06700	-11
3.07067	-13
3.07433	-14
3.07800	-16
3.08167	-15
3.08533	-13
3.08900	-12
3.09267	-14
3.09633	-14
3.10000	-14
3.10367	-17
3.10733	-17
3.11100	-17
3.11467	-19
3.11833	-18
3.12200	-16
3.12567	-14
3.12933	-13
3.13300	-12
3.13667	-11
3.14033	-11
3.14400	-11
3.14767	-13
3.15133	-15
3.15500	-16
3.15867	-16
3.16233	-17
3.16600	-21
3.16967	-22
3.17333	-22
3.17700	-22
3.18067	-20
3.18433	-17
3.18800	-16
3.19167	-16
3.19533	-14
3.19900	-14
3.20267	-15
3.20633	-14
3.21000	-15
3.21367	-16
3.21733	-16
3.22100	-18
3.22467	-18
3.22833	-17
3.23200	-15
3.23567	-13
3.23933	-14
3.24300	-14
3.24667	-14
3.25033	-16
3.25400	-15
3.25767	-14
3.26133	-15
3.26500	-17
3.26867	-17
3.27233	-18
3.27600	-18
3.27967	-19
3.28333	-22
3.28700	-50
3.29067	-105
3.29433	-150
3.29800	-165
3.30167	-149
3.30533	-118
3.30900	-81
3.31267	-41
3.31633	-2
3.32000	35
3.32367	67
3.32733	96
3.33100	121
3.33467	141
3.33833	158
3.34200	175
3.34567	192
3.34933	208
3.35300	221
3.35667	235
3.36033	249
3.36400	263
3.36767	278
3.37133	292
3.37500	305
3.37867	320
3.38233	334
3.38600	349
3.38967	363
3.39333	377
3.39700	390
3.40067	402
3.40433	413
3.40800	424
3.41167	434
3.41533	444
3.41900	451
3.42267	455
3.42633	460
3.43000	466
3.43367	472
3.43733	478
3.44100	480
3.44467	483
3.44833	486
3.45200	487
3.45567	488
3.45933	488
3.46300	488
3.46667	489
3.47033	493
3.47400	495
3.47767	494
3.48133	493
3.48500	494
3.48867	495
3.49233	492
3.49600	491
3.49967	490
3.50333	488
3.50700	485
3.51067	484
3.51433	481
3.51800	479
3.52167	478
3.52533	475
3.52900	472
3.53267	469
3.53633	467
3.54000	465
3.54367	465
3.54733	464
3.55100	462
3.55467	462
3.55833	462
3.56200	461
3.56567	459
3.56933	460
3.57300	461
3.57667	459
3.58033	455
3.58400	453
3.58767	450
3.59133	448
3.59500	448
3.59867	449
3.60233	448
3.60600	444
3.60967	444
3.61333	444
3.61700	444
3.62067	443
3.62433	441
3.62800	439
3.63167	436
3.63533	432
3.63900	431
3.64267	430
3.64633	430
3.65000	429
3.65367	431
3.65733	432
3.66100	433
3.66467	432
3.66833	430
3.67200	427
3.67567	425
3.67933	425
3.68300	425
3.68667	425
3.69033	423
3.69400	422
3.69767	424
3.70133	422
3.70500	419
3.70867	417
3.71233	418
3.71600	419
3.71967	416
3.72333	415
3.72700	416
3.73067	415
3.73433	413
3.73800	411
3.74167	409
3.74533	407
3.74900	404
3.75267	402
3.75633	401
3.76000	400
3.76367	399
3.76733	398
3.77100	396
3.77467	393
3.77833	393
3.78200	393
3.78567	393
3.78933	392
3.79300	390
3.79667	389
3.80033	388
3.80400	386
3.80767	386
3.81133	385
3.81500	381
3.81867	379
3.82233	380
3.82600	380
3.82967	379
3.83333	379
3.83700	378
3.84067	378
3.84433	380
3.84800	380
3.85167	379
3.85533	377
3.85900	376
3.86267	377
3.86633	376
3.87000	375
3.87367	372
3.87733	369
3.88100	368
3.88467	368
3.88833	368
3.89200	367
3.89567	364
3.89933	363
3.90300	362
3.90667	361
3.91033	361
3.91400	362
3.91767	361
3.92133	360
3.92500	359
3.92867	358
3.93233	358
3.93600	357
3.93967	357
3.94333	357
3.94700	357
3.95067	355
3.95433	355
3.95800	352
3.96167	349
3.96533	349
3.96900	348
3.97267	347
3.97633	344
3.98000	344
3.98367	342
3.98733	342
3.99100	340
3.99467	339
3.99833	339

[Status Trace (Column Oven Temperature)]
Interval(msec)	1000
# of Points	240
Start Time(min)	0.004
End Time(min)	3.987
Intensity Units	
Intensity Multiplier	1
R.Time (min)	Intensity
0.00363	35.09
0.02030	35.09
0.03697	35.09
0.05363	35.08
0.07030	35.08
0.08697	35.09
0.10363	35.08
0.12030	35.06
0.13697	35.05
0.15363	35.04
0.17030	35.02
0.18697	35.02
0.20363	35.00
0.22030	34.99
0.23697	34.98
0.25363	34.97
0.27030	34.97
0.28697	34.97
0.30363	34.97
0.32030	35.00
0.33697	35.01
0.35363	35.02
0.37030	35.04
0.38697	35.02
0.40363	35.02
0.42030	35.00
0.43697	34.99
0.45363	34.98
0.47030	34.96
0.48697	34.96
0.50363	34.96
0.52030	34.97
0.53697	34.97
0.55363	34.98
0.57030	34.99
0.58697	34.98
0.60363	34.99
0.62030	34.98
0.63697	34.98
0.65363	34.99
0.67030	35.00
0.68697	35.02
0.70363	35.02
0.72030	35.01
0.73697	35.01
0.75363	35.01
0.77030	35.02
0.78697	35.02
0.80363	35.02
0.82030	35.01
0.83697	35.00
0.85363	34.99
0.87030	34.98
0.88697	34.98
0.90363	34.98
0.92030	34.99
0.93697	35.00
0.95363	35.00
0.97030	35.00
0.98697	35.00
1.00363	35.00
1.02030	34.98
1.03697	34.97
1.05363	34.96
1.07030	34.96
1.08697	34.97
1.10363	34.98
1.12030	34.99
1.13697	35.00
1.15363	35.00
1.17030	35.00
1.18697	35.01
1.20363	35.01
1.22030	35.02
1.23697	35.00
1.25363	34.99
1.27030	34.98
1.28697	34.97
1.30363	34.97
1.32030	34.96
1.33697	34.95
1.35363	34.94
1.37030	34.94
1.38697	34.94
1.40363	34.94
1.42030	34.95
1.43697	34.97
1.45363	34.99
1.47030	35.00
1.48697	35.01
1.50363	35.02
1.52030	35.02
1.53697	35.01
1.55363	35.01
1.57030	35.02
1.58697	35.02
1.60363	35.05
1.62030	35.15
1.63697	35.32
1.65363	35.54
1.67030	35.86
1.68697	36.22
1.70363	36.57
1.72030	36.93
1.73697	37.27
1.75363	37.60
1.77030	37.92
1.78697	38.26
1.80363	38.61
1.82030	38.91
1.83697	39.22
1.85363	39.56
1.87030	39.89
1.88697	40.22
1.90363	40.57
1.92030	40.89
1.93697	41.22
1.95363	41.55
1.97030	41.87
1.98697	42.21
2.00363	42.52
2.02030	42.86
2.03697	43.19
2.05363	43.53
2.07030	43.84
2.08697	44.18
2.10363	44.51
2.12030	44.82
2.13697	45.15
2.15363	45.48
2.17030	45.81
2.18697	46.13
2.20363	46.47
2.22030	46.77
2.23697	47.10
2.25363	47.41
2.27030	47.74
2.28697	48.08
2.30363	48.41
2.32030	48.73
2.33697	49.07
2.35363	49.36
2.37030	49.58
2.38697	49.67
2.40363	49.67
2.42030	49.68
2.43697	49.69
2.45363	49.68
2.47030	49.69
2.48697	49.70
2.50363	49.72
2.52030	49.75
2.53697	49.76
2.55363	49.76
2.57030	49.77
2.58697	49.79
2.60363	49.81
2.62030	49.83
2.63697	49.82
2.65363	49.84
2.67030	49.86
2.68697	49.86
2.70363	49.84
2.72030	49.85
2.73697	49.87
2.75363	49.88
2.77030	49.88
2.78697	49.88
2.80363	49.87
2.82030	49.88
2.83697	49.89
2.85363	49.90
2.87030	49.92
2.88697	49.94
2.90363	49.96
2.92030	49.97
2.93697	49.98
2.95363	50.00
2.97030	50.01
2.98697	50.01
3.00363	50.01
3.02030	50.02
3.03697	50.03
3.05363	50.04
3.07030	50.05
3.08697	50.06
3.10363	50.07
3.12030	50.08
3.13697	50.08
3.15363	50.09
3.17030	50.09
3.18697	50.10
3.20363	50.11
3.22030	50.11
3.23697	50.10
3.25363	50.09
3.27030	50.08
3.28697	50.06
3.30363	50.05
3.32030	50.04
3.33697	50.04
3.35363	50.04
3.37030	50.04
3.38697	50.04
3.40363	50.05
3.42030	50.05
3.43697	50.05
3.45363	50.05
3.47030	50.05
3.48697	50.05
3.50363	50.04
3.52030	50.04
3.53697	50.03
3.55363	50.03
3.57030	50.04
3.58697	50.05
3.60363	50.07
3.62030	50.08
3.63697	50.08
3.65363	50.08
3.67030	50.07
3.68697	50.07
3.70363	50.07
3.72030	50.07
3.73697	50.07
3.75363	50.07
3.77030	50.07
3.78697	50.07
3.80363	50.06
3.82030	50.06
3.83697	50.06
3.85363	50.06
3.87030	50.05
3.88697	50.05
3.90363	50.06
3.92030	50.08
3.93697	50.08
3.95363	50.08
3.97030	50.08
3.98697	50.08

[Status Trace (Injection Unit Temperature)]
Interval(msec)	1000
# of Points	240
Start Time(min)	0.004
End Time(min)	3.987
Intensity Units	
Intensity Multiplier	1
R.Time (min)	Intensity
0.00363	99.98
0.02030	99.98
0.03697	99.98
0.05363	99.98
0.07030	99.98
0.08697	99.98
0.10363	99.98
0.12030	99.98
0.13697	99.98
0.15363	99.98
0.17030	99.98
0.18697	99.98
0.20363	99.98
0.22030	99.97
0.23697	99.98
0.25363	99.97
0.27030	99.98
0.28697	99.98
0.30363	99.97
0.32030	99.98
0.33697	99.97
0.35363	99.98
0.37030	99.97
0.38697	99.97
0.40363	99.97
0.42030	99.97
0.43697	99.98
0.45363	99.97
0.47030	99.97
0.48697	99.98
0.50363	99.97
0.52030	99.96
0.53697	99.97
0.55363	99.97
0.57030	99.97
0.58697	99.97
0.60363	99.97
0.62030	99.97
0.63697	99.98
0.65363	99.97
0.67030	99.98
0.68697	99.97
0.70363	99.97
0.72030	99.97
0.73697	99.98
0.75363	99.98
0.77030	99.98
0.78697	99.98
0.80363	99.98
0.82030	99.98
0.83697	99.98
0.85363	99.98
0.87030	99.98
0.88697	99.98
0.90363	99.98
0.92030	99.98
0.93697	99.99
0.95363	99.99
0.97030	99.98
0.98697	99.99
1.00363	99.98
1.02030	99.99
1.03697	99.99
1.05363	99.98
1.07030	99.99
1.08697	99.99
1.10363	99.99
1.12030	99.99
1.13697	99.99
1.15363	99.99
1.17030	99.99
1.18697	99.99
1.20363	99.99
1.22030	99.99
1.23697	99.99
1.25363	99.99
1.27030	99.99
1.28697	99.99
1.30363	99.99
1.32030	99.99
1.33697	99.99
1.35363	99.99
1.37030	99.99
1.38697	99.99
1.40363	99.99
1.42030	99.99
1.43697	99.99
1.45363	99.99
1.47030	99.98
1.48697	99.99
1.50363	99.99
1.52030	99.99
1.53697	99.99
1.55363	99.99
1.57030	99.99
1.58697	99.99
1.60363	99.99
1.62030	99.99
1.63697	99.99
1.65363	99.98
1.67030	99.99
1.68697	99.98
1.70363	99.98
1.72030	99.98
1.73697	99.97
1.75363	99.98
1.77030	99.98
1.78697	99.99
1.80363	99.98
1.82030	99.98
1.83697	99.98
1.85363	99.97
1.87030	99.98
1.88697	99.98
1.90363	99.98
1.92030	99.97
1.93697	99.97
1.95363	99.98
1.97030	99.97
1.98697	99.97
2.00363	99.97
2.02030	99.97
2.03697	99.97
2.05363	99.97
2.07030	99.97
2.08697	99.97
2.10363	99.97
2.12030	99.97
2.13697	99.97
2.15363	99.96
2.17030	99.97
2.18697	99.96
2.20363	99.97
2.22030	99.97
2.23697	99.97
2.25363	99.97
2.27030	99.96
2.28697	99.97
2.30363	99.97
2.32030	99.96
2.33697	99.97
2.35363	99.97
2.37030	99.97
2.38697	99.97
2.40363	99.96
2.42030	99.97
2.43697	99.97
2.45363	99.97
2.47030	99.97
2.48697	99.96
2.50363	99.97
2.52030	99.97
2.53697	99.97
2.55363	99.97
2.57030	99.98
2.58697	99.97
2.60363	99.97
2.62030	99.98
2.63697	99.98
2.65363	99.98
2.67030	99.98
2.68697	99.98
2.70363	99.99
2.72030	99.99
2.73697	99.99
2.75363	99.99
2.77030	99.99
2.78697	99.99
2.80363	100.00
2.82030	100.00
2.83697	100.00
2.85363	100.00
2.87030	100.00
2.88697	100.01
2.90363	100.00
2.92030	100.00
2.93697	100.00
2.95363	100.01
2.97030	100.01
2.98697	100.01
3.00363	100.02
3.02030	100.02
3.03697	100.01
3.05363	100.02
3.07030	100.02
3.08697	100.02
3.10363	100.02
3.12030	100.02
3.13697	100.02
3.15363	100.02
3.17030	100.02
3.18697	100.02
3.20363	100.03
3.22030	100.03
3.23697	100.03
3.25363	100.03
3.27030	100.03
3.28697	100.03
3.30363	100.03
3.32030	100.03
3.33697	100.03
3.35363	100.03
3.37030	100.04
3.38697	100.04
3.40363	100.04
3.42030	100.04
3.43697	100.04
3.45363	100.03
3.47030	100.04
3.48697	100.04
3.50363	100.03
3.52030	100.04
3.53697	100.04
3.55363	100.04
3.57030	100.04
3.58697	100.04
3.60363	100.04
3.62030	100.04
3.63697	100.04
3.65363	100.04
3.67030	100.04
3.68697	100.05
3.70363	100.04
3.72030	100.04
3.73697	100.04
3.75363	100.05
3.77030	100.05
3.78697	100.04
3.80363	100.05
3.82030	100.04
3.83697	100.05
3.85363	100.04
3.87030	100.04
3.88697	100.04
3.90363	100.05
3.92030	100.04
3.93697	100.05
3.95363	100.05
3.97030	100.05
3.98697	100.04

[Status Trace (Carrier Gas Pressure)]
Interval(msec)	1000
# of Points	240
Start Time(min)	0.004
End Time(min)	3.987
Intensity Units	
Intensity Multiplier	1
R.Time (min)	Intensity
0.00363	58.00
0.02030	56.00
0.03697	56.42
0.05363	58.70
0.07030	59.80
0.08697	58.25
0.10363	57.97
0.12030	58.01
0.13697	58.01
0.15363	58.01
0.17030	58.00
0.18697	58.00
0.20363	58.00
0.22030	58.00
0.23697	58.00
0.25363	58.00
0.27030	58.00
0.28697	58.00
0.30363	58.00
0.32030	58.00
0.33697	58.00
0.35363	58.00
0.37030	58.00
0.38697	58.00
0.40363	58.00
0.42030	58.00
0.43697	58.00
0.45363	58.00
0.47030	58.00
0.48697	58.00
0.50363	58.00
0.52030	58.00
0.53697	58.00
0.55363	58.00
0.57030	58.00
0.58697	58.00
0.60363	58.00
0.62030	58.00
0.63697	58.00
0.65363	58.00
0.67030	58.00
0.68697	58.00
0.70363	58.00
0.72030	58.00
0.73697	58.00
0.75363	58.00
0.77030	58.00
0.78697	58.00
0.80363	58.00
0.82030	58.00
0.83697	58.00
0.85363	58.00
0.87030	58.00
0.88697	58.00
0.90363	58.00
0.92030	58.00
0.93697	58.00
0.95363	58.00
0.97030	58.00
0.98697	58.00
1.00363	58.00
1.02030	58.00
1.03697	58.00
1.05363	58.00
1.07030	58.00
1.08697	58.00
1.10363	58.00
1.12030	58.00
1.13697	58.00
1.15363	58.00
1.17030	58.00
1.18697	58.00
1.20363	58.00
1.22030	58.00
1.23697	58.00
1.25363	58.00
1.27030	58.00
1.28697	58.00
1.30363	58.00
1.32030	58.00
1.33697	58.00
1.35363	58.00
1.37030	58.00
1.38697	58.00
1.40363	58.00
1.42030	58.00
1.43697	58.00
1.45363	58.00
1.47030	58.00
1.48697	58.00
1.50363	58.00
1.52030	58.00
1.53697	58.00
1.55363	58.00
1.57030	58.00
1.58697	58.00
1.60363	58.00
1.62030	58.00
1.63697	58.00
1.65363	58.00
1.67030	58.01
1.68697	58.01
1.70363	58.00
1.72030	58.00
1.73697	58.00
1.75363	58.00
1.77030	58.00
1.78697	58.00
1.80363	58.00
1.82030	58.00
1.83697	58.00
1.85363	58.00
1.87030	58.00
1.88697	58.00
1.90363	58.00
1.92030	58.00
1.93697	58.00
1.95363	58.00
1.97030	58.00
1.98697	58.00
2.00363	58.00
2.02030	58.00
2.03697	58.00
2.05363	58.00
2.07030	58.00
2.08697	58.00
2.10363	58.00
2.12030	58.00
2.13697	58.00
2.15363	58.00
2.17030	58.00
2.18697	58.00
2.20363	58.00
2.22030	58.00
2.23697	58.00
2.25363	58.00
2.27030	58.00
2.28697	58.00
2.30363	58.00
2.32030	58.00
2.33697	58.00
2.35363	58.00
2.37030	58.00
2.38697	57.99
2.40363	57.99
2.42030	58.00
2.43697	58.00
2.45363	58.00
2.47030	58.00
2.48697	58.00
2.50363	57.97
2.52030	57.99
2.53697	57.99
2.55363	58.00
2.57030	58.00
2.58697	58.00
2.60363	58.00
2.62030	58.00
2.63697	58.00
2.65363	58.00
2.67030	58.00
2.68697	58.00
2.70363	58.00
2.72030	58.00
2.73697	58.00
2.75363	58.00
2.77030	58.00
2.78697	58.00
2.80363	58.00
2.82030	58.00
2.83697	58.00
2.85363	58.00
2.87030	58.00
2.88697	58.00
2.90363	58.00
2.92030	58.00
2.93697	58.00
2.95363	58.00
2.97030	58.00
2.98697	58.00
3.00363	58.00
3.02030	58.00
3.03697	58.00
3.05363	58.00
3.07030	58.00
3.08697	58.00
3.10363	58.00
3.12030	58.00
3.13697	58.00
3.15363	58.00
3.17030	58.00
3.18697	58.00
3.20363	58.00
3.22030	58.00
3.23697	58.00
3.25363	58.00
3.27030	58.00
3.28697	58.00
3.30363	58.00
3.32030	58.00
3.33697	58.00
3.35363	58.00
3.37030	58.00
3.38697	58.00
3.40363	58.00
3.42030	58.00
3.43697	58.00
3.45363	58.00
3.47030	58.00
3.48697	58.00
3.50363	58.00
3.52030	58.00
3.53697	58.00
3.55363	58.00
3.57030	58.00
3.58697	58.00
3.60363	58.00
3.62030	58.00
3.63697	58.00
3.65363	58.00
3.67030	58.00
3.68697	58.00
3.70363	58.00
3.72030	58.00
3.73697	58.00
3.75363	58.00
3.77030	58.00
3.78697	58.00
3.80363	58.00
3.82030	58.00
3.83697	58.00
3.85363	58.00
3.87030	58.00
3.88697	58.00
3.90363	58.00
3.92030	58.00
3.93697	58.00
3.95363	58.00
3.97030	58.00
3.98697	58.00

[Status Trace (Carrier Gas Flow)]
Interval(msec)	1000
# of Points	240
Start Time(min)	0.004
End Time(min)	3.987
Intensity Units	
Intensity Multiplier	1
R.Time (min)	Intensity
0.00363	34.52
0.02030	34.60
0.03697	34.54
0.05363	34.55
0.07030	34.49
0.08697	34.51
0.10363	34.52
0.12030	34.52
0.13697	34.52
0.15363	34.52
0.17030	34.51
0.18697	34.53
0.20363	34.50
0.22030	34.50
0.23697	34.51
0.25363	34.52
0.27030	34.50
0.28697	34.51
0.30363	34.50
0.32030	34.53
0.33697	34.52
0.35363	34.51
0.37030	34.52
0.38697	34.52
0.40363	34.52
0.42030	34.52
0.43697	34.52
0.45363	34.52
0.47030	34.52
0.48697	34.52
0.50363	34.52
0.52030	34.52
0.53697	34.52
0.55363	34.52
0.57030	34.52
0.58697	34.52
0.60363	34.52
0.62030	34.52
0.63697	34.52
0.65363	34.52
0.67030	34.52
0.68697	34.52
0.70363	34.52
0.72030	34.52
0.73697	34.52
0.75363	34.52
0.77030	34.52
0.78697	34.52
0.80363	34.52
0.82030	34.52
0.83697	34.52
0.85363	34.52
0.87030	34.52
0.88697	34.52
0.90363	34.52
0.92030	34.52
0.93697	34.52
0.95363	34.52
0.97030	34.52
0.98697	34.52
1.00363	34.52
1.02030	34.52
1.03697	34.52
1.05363	34.52
1.07030	34.52
1.08697	34.52
1.10363	34.52
1.12030	34.52
1.13697	34.52
1.15363	34.52
1.17030	34.52
1.18697	34.52
1.20363	34.52
1.22030	34.52
1.23697	34.52
1.25363	34.52
1.27030	34.52
1.28697	34.52
1.30363	34.52
1.32030	34.52
1.33697	34.52
1.35363	34.52
1.37030	34.52
1.38697	34.52
1.40363	34.52
1.42030	34.52
1.43697	34.52
1.45363	34.52
1.47030	34.52
1.48697	34.52
1.50363	34.52
1.52030	34.52
1.53697	34.52
1.55363	34.52
1.57030	34.52
1.58697	34.52
1.60363	34.52
1.62030	34.52
1.63697	34.52
1.65363	34.52
1.67030	34.52
1.68697	34.52
1.70363	34.52
1.72030	34.52
1.73697	34.52
1.75363	34.52
1.77030	34.52
1.78697	34.52
1.80363	34.52
1.82030	34.52
1.83697	34.52
1.85363	34.52
1.87030	34.52
1.88697	34.52
1.90363	34.52
1.92030	34.52
1.93697	34.52
1.95363	34.52
1.97030	34.52
1.98697	34.52
2.00363	34.52
2.02030	34.52
2.03697	34.52
2.05363	34.52
2.07030	34.52
2.08697	34.52
2.10363	34.52
2.12030	34.52
2.13697	34.52
2.15363	34.52
2.17030	34.52
2.18697	34.52
2.20363	34.52
2.22030	34.52
2.23697	34.52
2.25363	34.52
2.27030	34.52
2.28697	34.52
2.30363	34.52
2.32030	34.52
2.33697	34.52
2.35363	34.52
2.37030	34.52
2.38697	34.52
2.40363	34.52
2.42030	34.52
2.43697	34.52
2.45363	34.52
2.47030	34.52
2.48697	34.52
2.50363	34.66
2.52030	34.52
2.53697	34.52
2.55363	34.52
2.57030	34.52
2.58697	34.52
2.60363	34.52
2.62030	34.52
2.63697	34.51
2.65363	34.52
2.67030	34.52
2.68697	34.52
2.70363	34.52
2.72030	34.52
2.73697	34.52
2.75363	34.52
2.77030	34.52
2.78697	34.52
2.80363	34.52
2.82030	34.52
2.83697	34.52
2.85363	34.52
2.87030	34.52
2.88697	34.52
2.90363	34.52
2.92030	34.52
2.93697	34.52
2.95363	34.52
2.97030	34.52
2.98697	34.52
3.00363	34.52
3.02030	34.52
3.03697	34.52
3.05363	34.52
3.07030	34.52
3.08697	34.52
3.10363	34.52
3.12030	34.52
3.13697	34.52
3.15363	34.52
3.17030	34.52
3.18697	34.52
3.20363	34.52
3.22030	34.52
3.23697	34.52
3.25363	34.52
3.27030	34.52
3.28697	34.52
3.30363	34.52
3.32030	34.52
3.33697	34.52
3.35363	34.52
3.37030	34.52
3.38697	34.51
3.40363	34.52
3.42030	34.52
3.43697	34.52
3.45363	34.52
3.47030	34.52
3.48697	34.52
3.50363	34.52
3.52030	34.52
3.53697	34.52
3.55363	34.52
3.57030	34.53
3.58697	34.52
3.60363	34.52
3.62030	34.51
3.63697	34.52
3.65363	34.52
3.67030	34.52
3.68697	34.52
3.70363	34.52
3.72030	34.51
3.73697	34.51
3.75363	34.52
3.77030	34.52
3.78697	34.52
3.80363	34.53
3.82030	34.53
3.83697	34.51
3.85363	34.53
3.87030	34.52
3.88697	34.53
3.90363	34.51
3.92030	34.52
3.93697	34.52
3.95363	34.50
3.97030	34.52
3.98697	34.52

[Status Trace (Column Flow)]
Interval(msec)	1000
# of Points	240
Start Time(min)	0.004
End Time(min)	3.987
Intensity Units	
Intensity Multiplier	1
R.Time (min)	Intensity
0.00363	5.45
0.02030	5.22
0.03697	5.27
0.05363	5.54
0.07030	5.66
0.08697	5.48
0.10363	5.45
0.12030	5.46
0.13697	5.46
0.15363	5.46
0.17030	5.46
0.18697	5.46
0.20363	5.46
0.22030	5.46
0.23697	5.46
0.25363	5.46
0.27030	5.46
0.28697	5.46
0.30363	5.46
0.32030	5.46
0.33697	5.46
0.35363	5.46
0.37030	5.46
0.38697	5.46
0.40363	5.46
0.42030	5.46
0.43697	5.46
0.45363	5.46
0.47030	5.46
0.48697	5.46
0.50363	5.46
0.52030	5.46
0.53697	5.46
0.55363	5.46
0.57030	5.46
0.58697	5.46
0.60363	5.46
0.62030	5.46
0.63697	5.46
0.65363	5.46
0.67030	5.46
0.68697	5.46
0.70363	5.46
0.72030	5.46
0.73697	5.46
0.75363	5.46
0.77030	5.46
0.78697	5.46
0.80363	5.46
0.82030	5.46
0.83697	5.46
0.85363	5.46
0.87030	5.46
0.88697	5.46
0.90363	5.46
0.92030	5.46
0.93697	5.46
0.95363	5.46
0.97030	5.46
0.98697	5.46
1.00363	5.46
1.02030	5.46
1.03697	5.46
1.05363	5.46
1.07030	5.46
1.08697	5.46
1.10363	5.46
1.12030	5.46
1.13697	5.46
1.15363	5.46
1.17030	5.46
1.18697	5.46
1.20363	5.46
1.22030	5.46
1.23697	5.46
1.25363	5.46
1.27030	5.46
1.28697	5.46
1.30363	5.46
1.32030	5.46
1.33697	5.46
1.35363	5.46
1.37030	5.46
1.38697	5.46
1.40363	5.46
1.42030	5.46
1.43697	5.46
1.45363	5.46
1.47030	5.46
1.48697	5.46
1.50363	5.46
1.52030	5.46
1.53697	5.46
1.55363	5.46
1.57030	5.46
1.58697	5.46
1.60363	5.46
1.62030	5.45
1.63697	5.45
1.65363	5.44
1.67030	5.43
1.68697	5.42
1.70363	5.41
1.72030	5.40
1.73697	5.39
1.75363	5.38
1.77030	5.37
1.78697	5.36
1.80363	5.35
1.82030	5.34
1.83697	5.33
1.85363	5.32
1.87030	5.31
1.88697	5.30
1.90363	5.29
1.92030	5.28
1.93697	5.27
1.95363	5.26
1.97030	5.25
1.98697	5.24
2.00363	5.23
2.02030	5.22
2.03697	5.21
2.05363	5.20
2.07030	5.19
2.08697	5.18
2.10363	5.17
2.12030	5.16
2.13697	5.16
2.15363	5.15
2.17030	5.14
2.18697	5.13
2.20363	5.12
2.22030	5.11
2.23697	5.10
2.25363	5.09
2.27030	5.08
2.28697	5.07
2.30363	5.06
2.32030	5.05
2.33697	5.05
2.35363	5.04
2.37030	5.03
2.38697	5.03
2.40363	5.03
2.42030	5.03
2.43697	5.03
2.45363	5.03
2.47030	5.03
2.48697	5.03
2.50363	5.02
2.52030	5.03
2.53697	5.03
2.55363	5.03
2.57030	5.03
2.58697	5.03
2.60363	5.02
2.62030	5.02
2.63697	5.02
2.65363	5.02
2.67030	5.02
2.68697	5.02
2.70363	5.02
2.72030	5.02
2.73697	5.02
2.75363	5.02
2.77030	5.02
2.78697	5.02
2.80363	5.02
2.82030	5.02
2.83697	5.02
2.85363	5.02
2.87030	5.02
2.88697	5.02
2.90363	5.02
2.92030	5.02
2.93697	5.02
2.95363	5.02
2.97030	5.02
2.98697	5.02
3.00363	5.02
3.02030	5.02
3.03697	5.02
3.05363	5.02
3.07030	5.02
3.08697	5.02
3.10363	5.02
3.12030	5.02
3.13697	5.02
3.15363	5.02
3.17030	5.02
3.18697	5.02
3.20363	5.02
3.22030	5.02
3.23697	5.02
3.25363	5.02
3.27030	5.02
3.28697	5.02
3.30363	5.02
3.32030	5.02
3.33697	5.02
3.35363	5.02
3.37030	5.02
3.38697	5.02
3.40363	5.02
3.42030	5.02
3.43697	5.02
3.45363	5.02
3.47030	5.02
3.48697	5.02
3.50363	5.02
3.52030	5.02
3.53697	5.02
3.55363	5.02
3.57030	5.02
3.58697	5.02
3.60363	5.02
3.62030	5.02
3.63697	5.02
3.65363	5.02
3.67030	5.02
3.68697	5.02
3.70363	5.02
3.72030	5.02
3.73697	5.02
3.75363	5.02
3.77030	5.02
3.78697	5.02
3.80363	5.02
3.82030	5.02
3.83697	5.02
3.85363	5.02
3.87030	5.02
3.88697	5.02
3.90363	5.02
3.92030	5.02
3.93697	5.02
3.95363	5.02
3.97030	5.02
3.98697	5.02

[Status Trace (Linear Velocity)]
Interval(msec)	1000
# of Points	240
Start Time(min)	0.004
End Time(min)	3.987
Intensity Units	
Intensity Multiplier	1
R.Time (min)	Intensity
0.00363	38.99
0.02030	37.68
0.03697	37.96
0.05363	39.45
0.07030	40.17
0.08697	39.16
0.10363	38.98
0.12030	39.00
0.13697	39.00
0.15363	39.00
0.17030	39.00
0.18697	39.00
0.20363	39.00
0.22030	39.00
0.23697	39.00
0.25363	39.00
0.27030	39.01
0.28697	39.01
0.30363	39.01
0.32030	39.00
0.33697	39.00
0.35363	39.00
0.37030	39.00
0.38697	39.00
0.40363	39.00
0.42030	39.00
0.43697	39.00
0.45363	39.00
0.47030	39.00
0.48697	39.01
0.50363	39.01
0.52030	39.01
0.53697	39.01
0.55363	39.00
0.57030	39.00
0.58697	39.00
0.60363	39.00
0.62030	39.00
0.63697	39.00
0.65363	39.00
0.67030	39.00
0.68697	39.00
0.70363	39.00
0.72030	39.00
0.73697	39.00
0.75363	39.00
0.77030	39.00
0.78697	39.00
0.80363	39.00
0.82030	39.00
0.83697	39.00
0.85363	39.00
0.87030	39.00
0.88697	39.00
0.90363	39.00
0.92030	39.00
0.93697	39.00
0.95363	39.00
0.97030	39.00
0.98697	39.00
1.00363	39.00
1.02030	39.00
1.03697	39.00
1.05363	39.01
1.07030	39.01
1.08697	39.01
1.10363	39.00
1.12030	39.00
1.13697	39.00
1.15363	39.00
1.17030	39.00
1.18697	39.00
1.20363	39.00
1.22030	39.00
1.23697	39.00
1.25363	39.00
1.27030	39.00
1.28697	39.00
1.30363	39.00
1.32030	39.00
1.33697	39.01
1.35363	39.01
1.37030	39.01
1.38697	39.01
1.40363	39.01
1.42030	39.01
1.43697	39.00
1.45363	39.00
1.47030	39.00
1.48697	39.00
1.50363	39.00
1.52030	39.00
1.53697	39.00
1.55363	39.00
1.57030	39.00
1.58697	39.00
1.60363	39.00
1.62030	38.99
1.63697	38.98
1.65363	38.95
1.67030	38.92
1.68697	38.89
1.70363	38.86
1.72030	38.82
1.73697	38.79
1.75363	38.76
1.77030	38.72
1.78697	38.69
1.80363	38.66
1.82030	38.63
1.83697	38.60
1.85363	38.57
1.87030	38.54
1.88697	38.51
1.90363	38.48
1.92030	38.44
1.93697	38.42
1.95363	38.39
1.97030	38.35
1.98697	38.33
2.00363	38.30
2.02030	38.26
2.03697	38.23
2.05363	38.20
2.07030	38.17
2.08697	38.14
2.10363	38.11
2.12030	38.08
2.13697	38.05
2.15363	38.02
2.17030	37.99
2.18697	37.97
2.20363	37.94
2.22030	37.91
2.23697	37.88
2.25363	37.85
2.27030	37.82
2.28697	37.79
2.30363	37.76
2.32030	37.73
2.33697	37.70
2.35363	37.68
2.37030	37.65
2.38697	37.64
2.40363	37.64
2.42030	37.64
2.43697	37.65
2.45363	37.65
2.47030	37.64
2.48697	37.64
2.50363	37.62
2.52030	37.64
2.53697	37.64
2.55363	37.64
2.57030	37.64
2.58697	37.64
2.60363	37.64
2.62030	37.63
2.63697	37.63
2.65363	37.63
2.67030	37.63
2.68697	37.63
2.70363	37.63
2.72030	37.63
2.73697	37.63
2.75363	37.63
2.77030	37.63
2.78697	37.63
2.80363	37.63
2.82030	37.63
2.83697	37.63
2.85363	37.63
2.87030	37.63
2.88697	37.62
2.90363	37.62
2.92030	37.62
2.93697	37.62
2.95363	37.62
2.97030	37.62
2.98697	37.62
3.00363	37.62
3.02030	37.62
3.03697	37.62
3.05363	37.62
3.07030	37.61
3.08697	37.61
3.10363	37.61
3.12030	37.61
3.13697	37.61
3.15363	37.61
3.17030	37.61
3.18697	37.61
3.20363	37.61
3.22030	37.61
3.23697	37.61
3.25363	37.61
3.27030	37.61
3.28697	37.61
3.30363	37.61
3.32030	37.61
3.33697	37.62
3.35363	37.61
3.37030	37.61
3.38697	37.61
3.40363	37.61
3.42030	37.61
3.43697	37.61
3.45363	37.61
3.47030	37.61
3.48697	37.61
3.50363	37.61
3.52030	37.61
3.53697	37.61
3.55363	37.62
3.57030	37.61
3.58697	37.61
3.60363	37.61
3.62030	37.61
3.63697	37.61
3.65363	37.61
3.67030	37.61
3.68697	37.61
3.70363	37.61
3.72030	37.61
3.73697	37.61
3.75363	37.61
3.77030	37.61
3.78697	37.61
3.80363	37.61
3.82030	37.61
3.83697	37.61
3.85363	37.61
3.87030	37.61
3.88697	37.61
3.90363	37.61
3.92030	37.61
3.93697	37.61
3.95363	37.61
3.97030	37.61
3.98697	37.61

