[Header]
Application Name	LabSolutions
Version	5.110
Data File Name	C:\Users\User\Desktop\GC Analyses\Jack\UIC Prairie Sampling\8.12.22\220812_063.gcd
Output Date	10/14/2022
Output Time	2:33:54 PM

[File Information]
Type	Data File
Generated	10/11/2022 12:21:30 PM
Generated by	System Administrator
Modified	10/11/2022 12:26:19 PM
Modified by	System Administrator

[Sample Information]
Operator Name	System Administrator
Acquired	10/11/2022 12:22:18 PM
Sample Type	1:Standard
Level	1
Sample Name	220812_UICPrairie
Sample ID	220812_UICPrairie
ISTD Amount1	1
ISTD Amount2	1
ISTD Amount3	1
ISTD Amount4	1
ISTD Amount5	1
ISTD Amount6	1
ISTD Amount7	1
ISTD Amount8	1
ISTD Amount9	1
ISTD Amount10	1
ISTD Amount11	1
ISTD Amount12	1
ISTD Amount13	1
ISTD Amount14	1
ISTD Amount15	1
ISTD Amount16	1
ISTD Amount17	1
ISTD Amount18	1
ISTD Amount19	1
ISTD Amount20	1
ISTD Amount21	1
ISTD Amount22	1
ISTD Amount23	1
ISTD Amount24	1
ISTD Amount25	1
ISTD Amount26	1
ISTD Amount27	1
ISTD Amount28	1
ISTD Amount29	1
ISTD Amount30	1
ISTD Amount31	1
ISTD Amount32	1
Sample Amount	1
Dilution Factor	1
Vial#	1
Injection Volume	1
Injection Count	1
Bar Code	

[Original Files]
Data File	C:\Users\User\Desktop\GC Analyses\Jack\UIC Prairie Sampling\8.12.22\220812_063.gcd
Method File	C:\LabSolutions\Data\GHG_4min_2022\ghg3_togas_w_acet_4 min_new_int.gcm
Batch File	
Report Format File	c:\LabSolutions\System\DEFAULT.lsr

[File Description]


[Configuration]
Instrument Name	C0B7VH3-Instrument1
Instrument #	1
Line #	1
# of Detectors	3
Detector ID	DET#1	DET#2	DET#3
Detector Name	FID	PTCD	ECD
# of Channels	1	1	1

[Peak Table(Ch1)]
# of Peaks	3
Peak#	R.Time	I.Time	F.Time	Area	Height	A/H	Conc.	Mark	ID#	Name	k'	Plate #	Plate Ht.	Tailing	Resolution	Sep.Factor	Area Ratio	Height Ratio	Conc. %	Norm Conc.
1	1.476	1.435	1.538	11496	5000	2.299	100.000	   	1	CO	0.000	8027	18.687	1.237	0.000	0.000	0	0	16.667	16.667
2	1.571	1.538	1.626	4335	2183	1.986	100.000	 V 	2	CH4	0.065	11402	13.156	1.114	1.529	0.000	0	0	16.667	16.667
3	1.996	1.949	2.359	2740983	1331464	2.059	400.000	   	3	CO2	0.353	17576	8.535	1.293	7.143	5.462	0	0	66.667	66.667

[Peak Table(Ch2)]
# of Peaks	0

[Peak Table(Ch3)]
# of Peaks	2
Peak#	R.Time	I.Time	F.Time	Area	Height	A/H	Conc.	Mark	ID#	Name	k'	Plate #	Plate Ht.	Tailing	Resolution	Sep.Factor	Area Ratio	Height Ratio	Conc. %	Norm Conc.
1	2.576	2.414	2.653	7008	814	8.613	0.000	   			0.000	2366	63.403	0.000	0.000	0.000	0	0	0.000	0.000
2	2.880	2.653	3.932	38899	5576	6.976	1.000	 V 	1	N2O	0.118	11409	13.147	0.000	1.904	0.000	0	0	100.000	100.000

[Compound Results(Ch1)]
# of IDs	6
ID#	Name	R.Time	Area	Height	Conc.	Curve	3rd	2nd	1st	Constant	Area Ratio	Height Ratio	Conc. %	Norm Conc.
1	CO	1.476	11496	5000	100.000	Linear	0.000000e+00	0.000000e+00	1.149581e+002	0.000000e+00	0	0	16.667	16.667
2	CH4	1.571	4335	2183	100.000	Linear	0.000000e+00	0.000000e+00	4.335453e+001	0.000000e+00	0	0	16.667	16.667
3	CO2	1.996	2740983	1331464	400.000	Linear	0.000000e+00	0.000000e+00	6.852457e+003	0.000000e+00	0	0	66.667	66.667
4	Ethylene	0.000	0	0	0.000	Linear	0.000000e+00	0.000000e+00	0.000000e+00	0.000000e+00	0	0	0.000	0.000
5	Acetylene	0.000	0	0	0.000	Linear	0.000000e+00	0.000000e+00	0.000000e+00	0.000000e+00	0	0	0.000	0.000
6	Ethane	0.000	0	0	0.000	Linear	0.000000e+00	0.000000e+00	0.000000e+00	0.000000e+00	0	0	0.000	0.000

[Compound Results(Ch2)]
# of IDs	5
ID#	Name	R.Time	Area	Height	Conc.	Curve	3rd	2nd	1st	Constant	Area Ratio	Height Ratio	Conc. %	Norm Conc.
1	Hydrogen	0.000	0	0	0.000	Linear	0.000000e+00	0.000000e+00	0.000000e+00	0.000000e+00	0	0	0.000	0.000
2	Oxygen	0.000	0	0	0.000	Linear	0.000000e+00	0.000000e+00	0.000000e+00	0.000000e+00	0	0	0.000	0.000
3	Nitrogen	0.000	0	0	0.000	Linear	0.000000e+00	0.000000e+00	0.000000e+00	0.000000e+00	0	0	0.000	0.000
4	Methane	0.000	0	0	0.000	Linear	0.000000e+00	0.000000e+00	0.000000e+00	0.000000e+00	0	0	0.000	0.000
5	Carbon Monoxide	0.000	0	0	0.000	Linear	0.000000e+00	0.000000e+00	0.000000e+00	0.000000e+00	0	0	0.000	0.000

[Compound Results(Ch3)]
# of IDs	2
ID#	Name	R.Time	Area	Height	Conc.	Curve	3rd	2nd	1st	Constant	Area Ratio	Height Ratio	Conc. %	Norm Conc.
1	N2O	2.880	38899	5576	1.000	Linear	0.000000e+00	0.000000e+00	3.889877e+004	0.000000e+00	0	0	100.000	100.000
2	SF6	0.000	0	0	0.000	Linear	0.000000e+00	0.000000e+00	0.000000e+00	0.000000e+00	0	0	0.000	0.000

[Group Results(Ch1)]
# of Groups	0

[Group Results(Ch2)]
# of Groups	0

[Group Results(Ch3)]
# of Groups	0

[Chromatogram (Ch1)]
Interval(msec)	220
# of Points	1091
Start Time(min)	0.002
End Time(min)	3.998
R.Time (min)	Intensity
0.00167	9
0.00533	9
0.00900	11
0.01267	10
0.01633	7
0.02000	4
0.02367	1
0.02733	-2
0.03100	-2
0.03467	1
0.03833	-3
0.04200	-4
0.04567	17
0.04933	27
0.05300	29
0.05667	29
0.06033	29
0.06400	26
0.06767	18
0.07133	10
0.07500	4
0.07867	1
0.08233	-1
0.08600	-2
0.08967	-3
0.09333	-1
0.09700	6
0.10067	13
0.10433	18
0.10800	17
0.11167	14
0.11533	9
0.11900	4
0.12267	0
0.12633	0
0.13000	3
0.13367	3
0.13733	2
0.14100	0
0.14467	-0
0.14833	-1
0.15200	-1
0.15567	-2
0.15933	-2
0.16300	-2
0.16667	-3
0.17033	-4
0.17400	-5
0.17767	-5
0.18133	-3
0.18500	0
0.18867	5
0.19233	10
0.19600	15
0.19967	19
0.20333	19
0.20700	16
0.21067	13
0.21433	10
0.21800	9
0.22167	8
0.22533	11
0.22900	12
0.23267	7
0.23633	0
0.24000	-4
0.24367	-5
0.24733	-5
0.25100	-1
0.25467	5
0.25833	9
0.26200	12
0.26567	14
0.26933	13
0.27300	8
0.27667	-1
0.28033	-11
0.28400	-15
0.28767	-13
0.29133	-6
0.29500	-2
0.29867	-2
0.30233	-6
0.30600	-12
0.30967	-14
0.31333	-13
0.31700	-10
0.32067	-9
0.32433	-11
0.32800	-12
0.33167	-14
0.33533	-15
0.33900	-14
0.34267	-12
0.34633	-13
0.35000	-16
0.35367	-18
0.35733	-17
0.36100	-15
0.36467	-13
0.36833	-11
0.37200	-10
0.37567	-10
0.37933	-12
0.38300	-16
0.38667	-21
0.39033	-23
0.39400	-21
0.39767	-16
0.40133	-9
0.40500	-3
0.40867	-1
0.41233	-4
0.41600	-6
0.41967	-4
0.42333	1
0.42700	5
0.43067	7
0.43433	4
0.43800	-2
0.44167	-11
0.44533	-20
0.44900	-25
0.45267	-29
0.45633	-30
0.46000	-32
0.46367	-34
0.46733	-36
0.47100	-34
0.47467	-31
0.47833	-31
0.48200	-29
0.48567	-25
0.48933	-18
0.49300	-13
0.49667	-10
0.50033	-5
0.50400	-0
0.50767	-0
0.51133	-4
0.51500	-8
0.51867	-10
0.52233	-12
0.52600	-11
0.52967	-9
0.53333	-7
0.53700	-5
0.54067	-3
0.54433	-1
0.54800	1
0.55167	4
0.55533	8
0.55900	13
0.56267	15
0.56633	14
0.57000	9
0.57367	1
0.57733	-10
0.58100	-17
0.58467	-19
0.58833	-18
0.59200	-16
0.59567	-17
0.59933	-20
0.60300	-24
0.60667	-25
0.61033	-24
0.61400	-22
0.61767	-24
0.62133	-26
0.62500	-26
0.62867	-24
0.63233	-22
0.63600	-19
0.63967	-17
0.64333	-18
0.64700	-22
0.65067	-25
0.65433	-25
0.65800	-27
0.66167	-32
0.66533	-36
0.66900	-36
0.67267	-33
0.67633	-27
0.68000	-20
0.68367	-18
0.68733	-22
0.69100	-27
0.69467	-30
0.69833	-31
0.70200	-30
0.70567	-28
0.70933	-27
0.71300	-30
0.71667	-33
0.72033	-37
0.72400	-42
0.72767	-42
0.73133	-36
0.73500	-30
0.73867	-31
0.74233	-33
0.74600	-33
0.74967	-31
0.75333	-27
0.75700	-22
0.76067	-20
0.76433	-25
0.76800	-30
0.77167	-34
0.77533	-37
0.77900	-40
0.78267	-47
0.78633	-52
0.79000	-48
0.79367	-41
0.79733	-34
0.80100	-28
0.80467	-27
0.80833	-29
0.81200	-28
0.81567	-23
0.81933	-15
0.82300	-8
0.82667	-3
0.83033	-3
0.83400	-7
0.83767	-12
0.84133	-19
0.84500	-25
0.84867	-28
0.85233	-29
0.85600	-33
0.85967	-36
0.86333	-39
0.86700	-43
0.87067	-50
0.87433	-59
0.87800	-65
0.88167	-69
0.88533	-71
0.88900	-70
0.89267	-67
0.89633	-66
0.90000	-67
0.90367	-68
0.90733	-64
0.91100	-56
0.91467	-51
0.91833	-50
0.92200	-49
0.92567	-44
0.92933	-36
0.93300	-29
0.93667	-26
0.94033	-28
0.94400	-30
0.94767	-31
0.95133	-33
0.95500	-34
0.95867	-32
0.96233	-30
0.96600	-32
0.96967	-35
0.97333	-34
0.97700	-31
0.98067	-31
0.98433	-31
0.98800	-29
0.99167	-28
0.99533	-28
0.99900	-31
1.00267	-36
1.00633	-46
1.01000	-57
1.01367	-64
1.01733	-67
1.02100	-69
1.02467	-67
1.02833	-61
1.03200	-54
1.03567	-51
1.03933	-51
1.04300	-52
1.04667	-51
1.05033	-51
1.05400	-47
1.05767	-40
1.06133	-31
1.06500	-27
1.06867	-26
1.07233	-30
1.07600	-39
1.07967	-52
1.08333	-66
1.08700	-74
1.09067	-76
1.09433	-71
1.09800	-60
1.10167	-50
1.10533	-48
1.10900	-52
1.11267	-56
1.11633	-57
1.12000	-56
1.12367	-55
1.12733	-55
1.13100	-53
1.13467	-51
1.13833	-48
1.14200	-45
1.14567	-44
1.14933	-48
1.15300	-56
1.15667	-65
1.16033	-71
1.16400	-74
1.16767	-75
1.17133	-73
1.17500	-70
1.17867	-66
1.18233	-62
1.18600	-56
1.18967	-50
1.19333	-48
1.19700	-50
1.20067	-54
1.20433	-52
1.20800	-48
1.21167	-45
1.21533	-39
1.21900	-32
1.22267	-26
1.22633	-23
1.23000	-24
1.23367	-31
1.23733	-40
1.24100	-44
1.24467	-44
1.24833	-46
1.25200	-51
1.25567	-58
1.25933	-64
1.26300	-71
1.26667	-76
1.27033	-76
1.27400	-70
1.27767	-62
1.28133	-53
1.28500	-47
1.28867	-46
1.29233	-48
1.29600	-52
1.29967	-53
1.30333	-54
1.30700	-55
1.31067	-58
1.31433	-62
1.31800	-66
1.32167	-71
1.32533	-76
1.32900	-81
1.33267	-84
1.33633	-82
1.34000	-78
1.34367	-74
1.34733	-72
1.35100	-69
1.35467	-64
1.35833	-61
1.36200	-58
1.36567	-55
1.36933	-53
1.37300	-52
1.37667	-49
1.38033	-47
1.38400	-46
1.38767	-47
1.39133	-52
1.39500	-60
1.39867	-68
1.40233	-71
1.40600	-69
1.40967	-64
1.41333	-61
1.41700	-64
1.42067	-70
1.42433	-75
1.42800	-78
1.43167	-79
1.43533	-75
1.43900	-52
1.44267	47
1.44633	297
1.45000	715
1.45367	1320
1.45733	2114
1.46100	2978
1.46467	3759
1.46833	4367
1.47200	4765
1.47567	4926
1.47933	4827
1.48300	4460
1.48667	3875
1.49033	3177
1.49400	2479
1.49767	1860
1.50133	1356
1.50500	971
1.50867	686
1.51233	478
1.51600	326
1.51967	216
1.52333	142
1.52700	90
1.53067	50
1.53433	19
1.53800	5
1.54167	37
1.54533	170
1.54900	447
1.55267	840
1.55633	1265
1.56000	1641
1.56367	1922
1.56733	2090
1.57100	2114
1.57467	1972
1.57833	1690
1.58200	1336
1.58567	986
1.58933	688
1.59300	458
1.59667	292
1.60033	175
1.60400	90
1.60767	31
1.61133	-8
1.61500	-34
1.61867	-51
1.62233	-61
1.62600	-67
1.62967	-70
1.63333	-71
1.63700	-74
1.64067	-79
1.64433	-82
1.64800	-79
1.65167	-72
1.65533	-68
1.65900	-72
1.66267	-84
1.66633	-96
1.67000	-102
1.67367	-103
1.67733	-102
1.68100	-100
1.68467	-96
1.68833	-92
1.69200	-88
1.69567	-85
1.69933	-84
1.70300	-85
1.70667	-87
1.71033	-88
1.71400	-87
1.71767	-84
1.72133	-82
1.72500	-83
1.72867	-88
1.73233	-94
1.73600	-98
1.73967	-96
1.74333	-93
1.74700	-86
1.75067	-80
1.75433	-76
1.75800	-73
1.76167	-74
1.76533	-77
1.76900	-81
1.77267	-84
1.77633	-87
1.78000	-87
1.78367	-86
1.78733	-80
1.79100	-69
1.79467	-59
1.79833	-57
1.80200	-63
1.80567	-73
1.80933	-82
1.81300	-89
1.81667	-91
1.82033	-88
1.82400	-85
1.82767	-83
1.83133	-83
1.83500	-83
1.83867	-84
1.84233	-87
1.84600	-92
1.84967	-94
1.85333	-95
1.85700	-95
1.86067	-93
1.86433	-96
1.86800	-101
1.87167	-106
1.87533	-107
1.87900	-104
1.88267	-101
1.88633	-98
1.89000	-95
1.89367	-92
1.89733	-87
1.90100	-79
1.90467	-69
1.90833	-61
1.91200	-60
1.91567	-65
1.91933	-71
1.92300	-78
1.92667	-84
1.93033	-86
1.93400	-83
1.93767	-78
1.94133	-76
1.94500	-80
1.94867	-83
1.95233	-64
1.95600	91
1.95967	1059
1.96333	5788
1.96700	23281
1.97067	72764
1.97433	180329
1.97800	361133
1.98167	601209
1.98533	859679
1.98900	1089499
1.99267	1254115
1.99633	1331410
2.00000	1313891
2.00367	1209602
2.00733	1042335
2.01100	844780
2.01467	648599
2.01833	476199
2.02200	337842
2.02567	234017
2.02933	159780
2.03300	108451
2.03667	73739
2.04033	50572
2.04400	35200
2.04767	24996
2.05133	18180
2.05500	13575
2.05867	10417
2.06233	8213
2.06600	6638
2.06967	5481
2.07333	4610
2.07700	3941
2.08067	3418
2.08433	3002
2.08800	2669
2.09167	2399
2.09533	2173
2.09900	1979
2.10267	1811
2.10633	1668
2.11000	1551
2.11367	1450
2.11733	1356
2.12100	1268
2.12467	1186
2.12833	1110
2.13200	1041
2.13567	978
2.13933	921
2.14300	873
2.14667	833
2.15033	798
2.15400	767
2.15767	740
2.16133	714
2.16500	688
2.16867	662
2.17233	636
2.17600	611
2.17967	586
2.18333	563
2.18700	542
2.19067	521
2.19433	499
2.19800	480
2.20167	465
2.20533	456
2.20900	451
2.21267	445
2.21633	434
2.22000	421
2.22367	406
2.22733	392
2.23100	378
2.23467	366
2.23833	356
2.24200	343
2.24567	327
2.24933	313
2.25300	300
2.25667	290
2.26033	283
2.26400	273
2.26767	262
2.27133	256
2.27500	253
2.27867	250
2.28233	246
2.28600	243
2.28967	243
2.29333	246
2.29700	246
2.30067	246
2.30433	247
2.30800	247
2.31167	242
2.31533	233
2.31900	225
2.32267	216
2.32633	209
2.33000	205
2.33367	200
2.33733	192
2.34100	184
2.34467	180
2.34833	178
2.35200	178
2.35567	177
2.35933	176
2.36300	176
2.36667	178
2.37033	179
2.37400	181
2.37767	180
2.38133	173
2.38500	165
2.38867	155
2.39233	147
2.39600	145
2.39967	149
2.40333	154
2.40700	155
2.41067	153
2.41433	154
2.41800	155
2.42167	155
2.42533	153
2.42900	148
2.43267	140
2.43633	133
2.44000	129
2.44367	129
2.44733	133
2.45100	137
2.45467	138
2.45833	137
2.46200	137
2.46567	133
2.46933	127
2.47300	121
2.47667	114
2.48033	109
2.48400	105
2.48767	105
2.49133	104
2.49500	101
2.49867	96
2.50233	92
2.50600	92
2.50967	93
2.51333	97
2.51700	101
2.52067	106
2.52433	108
2.52800	110
2.53167	113
2.53533	114
2.53900	115
2.54267	111
2.54633	104
2.55000	96
2.55367	92
2.55733	89
2.56100	85
2.56467	82
2.56833	80
2.57200	77
2.57567	73
2.57933	68
2.58300	63
2.58667	63
2.59033	69
2.59400	79
2.59767	86
2.60133	88
2.60500	88
2.60867	82
2.61233	72
2.61600	62
2.61967	54
2.62333	48
2.62700	43
2.63067	40
2.63433	38
2.63800	40
2.64167	47
2.64533	57
2.64900	63
2.65267	66
2.65633	68
2.66000	70
2.66367	70
2.66733	69
2.67100	63
2.67467	52
2.67833	44
2.68200	41
2.68567	43
2.68933	45
2.69300	45
2.69667	43
2.70033	39
2.70400	36
2.70767	32
2.71133	29
2.71500	29
2.71867	34
2.72233	40
2.72600	47
2.72967	50
2.73333	51
2.73700	52
2.74067	52
2.74433	51
2.74800	50
2.75167	47
2.75533	42
2.75900	36
2.76267	30
2.76633	29
2.77000	33
2.77367	40
2.77733	43
2.78100	39
2.78467	30
2.78833	23
2.79200	20
2.79567	22
2.79933	25
2.80300	25
2.80667	23
2.81033	20
2.81400	20
2.81767	22
2.82133	22
2.82500	20
2.82867	16
2.83233	13
2.83600	12
2.83967	12
2.84333	13
2.84700	17
2.85067	23
2.85433	29
2.85800	29
2.86167	29
2.86533	31
2.86900	38
2.87267	42
2.87633	40
2.88000	35
2.88367	30
2.88733	29
2.89100	29
2.89467	28
2.89833	23
2.90200	20
2.90567	16
2.90933	11
2.91300	7
2.91667	9
2.92033	13
2.92400	16
2.92767	20
2.93133	22
2.93500	19
2.93867	14
2.94233	7
2.94600	2
2.94967	1
2.95333	2
2.95700	2
2.96067	3
2.96433	4
2.96800	5
2.97167	7
2.97533	7
2.97900	7
2.98267	6
2.98633	9
2.99000	16
2.99367	24
2.99733	30
3.00100	31
3.00467	29
3.00833	28
3.01200	28
3.01567	29
3.01933	32
3.02300	31
3.02667	23
3.03033	14
3.03400	9
3.03767	9
3.04133	10
3.04500	12
3.04867	15
3.05233	20
3.05600	26
3.05967	29
3.06333	27
3.06700	22
3.07067	14
3.07433	10
3.07800	10
3.08167	9
3.08533	4
3.08900	-3
3.09267	-9
3.09633	-10
3.10000	-7
3.10367	-1
3.10733	8
3.11100	15
3.11467	19
3.11833	18
3.12200	11
3.12567	2
3.12933	-5
3.13300	-8
3.13667	-10
3.14033	-10
3.14400	-9
3.14767	-5
3.15133	4
3.15500	15
3.15867	25
3.16233	28
3.16600	24
3.16967	17
3.17333	9
3.17700	0
3.18067	-7
3.18433	-13
3.18800	-19
3.19167	-20
3.19533	-20
3.19900	-22
3.20267	-25
3.20633	-24
3.21000	-20
3.21367	-17
3.21733	-14
3.22100	-9
3.22467	-1
3.22833	8
3.23200	14
3.23567	15
3.23933	11
3.24300	6
3.24667	4
3.25033	4
3.25400	3
3.25767	2
3.26133	4
3.26500	7
3.26867	7
3.27233	5
3.27600	2
3.27967	1
3.28333	3
3.28700	7
3.29067	10
3.29433	9
3.29800	8
3.30167	6
3.30533	3
3.30900	2
3.31267	0
3.31633	-1
3.32000	-1
3.32367	2
3.32733	7
3.33100	10
3.33467	10
3.33833	8
3.34200	6
3.34567	7
3.34933	9
3.35300	13
3.35667	13
3.36033	10
3.36400	8
3.36767	9
3.37133	11
3.37500	7
3.37867	-1
3.38233	-9
3.38600	-12
3.38967	-11
3.39333	-11
3.39700	-10
3.40067	-7
3.40433	-5
3.40800	-4
3.41167	-2
3.41533	-1
3.41900	-4
3.42267	-8
3.42633	-11
3.43000	-14
3.43367	-12
3.43733	-4
3.44100	4
3.44467	9
3.44833	11
3.45200	10
3.45567	3
3.45933	-4
3.46300	-7
3.46667	-6
3.47033	-5
3.47400	-4
3.47767	-6
3.48133	-9
3.48500	-14
3.48867	-18
3.49233	-20
3.49600	-23
3.49967	-27
3.50333	-27
3.50700	-23
3.51067	-16
3.51433	-9
3.51800	-3
3.52167	1
3.52533	-1
3.52900	-5
3.53267	-11
3.53633	-20
3.54000	-30
3.54367	-38
3.54733	-41
3.55100	-38
3.55467	-30
3.55833	-22
3.56200	-17
3.56567	-12
3.56933	-11
3.57300	-14
3.57667	-16
3.58033	-18
3.58400	-18
3.58767	-20
3.59133	-23
3.59500	-27
3.59867	-27
3.60233	-24
3.60600	-18
3.60967	-13
3.61333	-11
3.61700	-12
3.62067	-12
3.62433	-11
3.62800	-9
3.63167	-9
3.63533	-8
3.63900	-7
3.64267	-9
3.64633	-12
3.65000	-15
3.65367	-19
3.65733	-21
3.66100	-23
3.66467	-23
3.66833	-19
3.67200	-13
3.67567	-11
3.67933	-11
3.68300	-15
3.68667	-20
3.69033	-23
3.69400	-24
3.69767	-20
3.70133	-14
3.70500	-9
3.70867	-9
3.71233	-13
3.71600	-18
3.71967	-22
3.72333	-24
3.72700	-20
3.73067	-15
3.73433	-9
3.73800	-7
3.74167	-12
3.74533	-17
3.74900	-23
3.75267	-30
3.75633	-36
3.76000	-42
3.76367	-46
3.76733	-46
3.77100	-43
3.77467	-40
3.77833	-34
3.78200	-27
3.78567	-18
3.78933	-9
3.79300	-2
3.79667	-0
3.80033	0
3.80400	1
3.80767	-0
3.81133	-3
3.81500	-9
3.81867	-13
3.82233	-14
3.82600	-13
3.82967	-13
3.83333	-14
3.83700	-17
3.84067	-20
3.84433	-18
3.84800	-13
3.85167	-9
3.85533	-8
3.85900	-13
3.86267	-20
3.86633	-22
3.87000	-20
3.87367	-17
3.87733	-12
3.88100	-7
3.88467	-2
3.88833	3
3.89200	4
3.89567	4
3.89933	3
3.90300	-1
3.90667	-9
3.91033	-16
3.91400	-18
3.91767	-16
3.92133	-11
3.92500	-6
3.92867	-7
3.93233	-11
3.93600	-15
3.93967	-19
3.94333	-21
3.94700	-19
3.95067	-18
3.95433	-21
3.95800	-28
3.96167	-34
3.96533	-36
3.96900	-32
3.97267	-23
3.97633	-16
3.98000	-11
3.98367	-4
3.98733	-1
3.99100	-4
3.99467	-8
3.99833	-14

[Chromatogram (Ch2)]
Interval(msec)	220
# of Points	1091
Start Time(min)	0.002
End Time(min)	3.998
R.Time (min)	Intensity
0.00167	1
0.00533	1
0.00900	0
0.01267	0
0.01633	-0
0.02000	-0
0.02367	-0
0.02733	-0
0.03100	-0
0.03467	-1
0.03833	-1
0.04200	-1
0.04567	-1
0.04933	-1
0.05300	-0
0.05667	1
0.06033	1
0.06400	2
0.06767	2
0.07133	3
0.07500	3
0.07867	4
0.08233	4
0.08600	5
0.08967	5
0.09333	5
0.09700	6
0.10067	6
0.10433	6
0.10800	6
0.11167	6
0.11533	6
0.11900	6
0.12267	6
0.12633	5
0.13000	5
0.13367	5
0.13733	5
0.14100	4
0.14467	4
0.14833	4
0.15200	4
0.15567	4
0.15933	4
0.16300	5
0.16667	5
0.17033	5
0.17400	5
0.17767	5
0.18133	5
0.18500	4
0.18867	4
0.19233	4
0.19600	4
0.19967	3
0.20333	3
0.20700	3
0.21067	3
0.21433	2
0.21800	2
0.22167	2
0.22533	2
0.22900	2
0.23267	2
0.23633	2
0.24000	2
0.24367	2
0.24733	2
0.25100	1
0.25467	1
0.25833	2
0.26200	2
0.26567	2
0.26933	2
0.27300	2
0.27667	2
0.28033	2
0.28400	2
0.28767	2
0.29133	3
0.29500	3
0.29867	3
0.30233	3
0.30600	4
0.30967	4
0.31333	4
0.31700	4
0.32067	5
0.32433	5
0.32800	5
0.33167	5
0.33533	5
0.33900	5
0.34267	5
0.34633	5
0.35000	4
0.35367	4
0.35733	4
0.36100	4
0.36467	5
0.36833	5
0.37200	5
0.37567	5
0.37933	4
0.38300	4
0.38667	4
0.39033	4
0.39400	4
0.39767	4
0.40133	3
0.40500	3
0.40867	3
0.41233	3
0.41600	3
0.41967	3
0.42333	3
0.42700	3
0.43067	3
0.43433	3
0.43800	2
0.44167	2
0.44533	2
0.44900	2
0.45267	2
0.45633	1
0.46000	1
0.46367	1
0.46733	1
0.47100	1
0.47467	1
0.47833	1
0.48200	1
0.48567	1
0.48933	1
0.49300	1
0.49667	1
0.50033	1
0.50400	1
0.50767	1
0.51133	1
0.51500	1
0.51867	1
0.52233	2
0.52600	2
0.52967	2
0.53333	2
0.53700	2
0.54067	2
0.54433	1
0.54800	1
0.55167	1
0.55533	1
0.55900	1
0.56267	1
0.56633	1
0.57000	1
0.57367	1
0.57733	1
0.58100	1
0.58467	1
0.58833	1
0.59200	1
0.59567	1
0.59933	1
0.60300	1
0.60667	2
0.61033	2
0.61400	2
0.61767	2
0.62133	2
0.62500	2
0.62867	2
0.63233	2
0.63600	2
0.63967	2
0.64333	2
0.64700	1
0.65067	1
0.65433	1
0.65800	1
0.66167	1
0.66533	1
0.66900	1
0.67267	1
0.67633	1
0.68000	1
0.68367	0
0.68733	0
0.69100	0
0.69467	1
0.69833	1
0.70200	1
0.70567	1
0.70933	1
0.71300	0
0.71667	0
0.72033	0
0.72400	-0
0.72767	-0
0.73133	-0
0.73500	-0
0.73867	-0
0.74233	-0
0.74600	-0
0.74967	-0
0.75333	-0
0.75700	-0
0.76067	-0
0.76433	-0
0.76800	-0
0.77167	-0
0.77533	-0
0.77900	-0
0.78267	-1
0.78633	-0
0.79000	-0
0.79367	-0
0.79733	-0
0.80100	0
0.80467	0
0.80833	0
0.81200	0
0.81567	0
0.81933	0
0.82300	0
0.82667	1
0.83033	1
0.83400	1
0.83767	1
0.84133	1
0.84500	1
0.84867	1
0.85233	1
0.85600	1
0.85967	0
0.86333	0
0.86700	0
0.87067	-0
0.87433	0
0.87800	0
0.88167	0
0.88533	0
0.88900	0
0.89267	1
0.89633	1
0.90000	1
0.90367	1
0.90733	1
0.91100	1
0.91467	1
0.91833	1
0.92200	2
0.92567	2
0.92933	2
0.93300	2
0.93667	1
0.94033	1
0.94400	1
0.94767	1
0.95133	0
0.95500	0
0.95867	-0
0.96233	-0
0.96600	-0
0.96967	-0
0.97333	-0
0.97700	-0
0.98067	-0
0.98433	-1
0.98800	-1
0.99167	-1
0.99533	-1
0.99900	-1
1.00267	-2
1.00633	-2
1.01000	-1
1.01367	-1
1.01733	-1
1.02100	-1
1.02467	-1
1.02833	-1
1.03200	-2
1.03567	-2
1.03933	-2
1.04300	-2
1.04667	-2
1.05033	-3
1.05400	-3
1.05767	-3
1.06133	-3
1.06500	-3
1.06867	-3
1.07233	-2
1.07600	-2
1.07967	-2
1.08333	-2
1.08700	-1
1.09067	-1
1.09433	-1
1.09800	-0
1.10167	-0
1.10533	0
1.10900	0
1.11267	0
1.11633	1
1.12000	1
1.12367	1
1.12733	2
1.13100	2
1.13467	3
1.13833	3
1.14200	3
1.14567	3
1.14933	3
1.15300	2
1.15667	2
1.16033	2
1.16400	2
1.16767	2
1.17133	2
1.17500	2
1.17867	1
1.18233	1
1.18600	1
1.18967	0
1.19333	0
1.19700	-0
1.20067	-0
1.20433	-1
1.20800	-1
1.21167	-1
1.21533	-1
1.21900	-1
1.22267	-1
1.22633	-1
1.23000	-1
1.23367	-1
1.23733	-1
1.24100	-1
1.24467	-1
1.24833	-1
1.25200	-1
1.25567	-1
1.25933	-1
1.26300	-1
1.26667	-1
1.27033	-2
1.27400	-2
1.27767	-2
1.28133	-2
1.28500	-2
1.28867	-2
1.29233	-2
1.29600	-2
1.29967	-2
1.30333	-2
1.30700	-2
1.31067	-2
1.31433	-2
1.31800	-2
1.32167	-2
1.32533	-2
1.32900	-2
1.33267	-2
1.33633	-3
1.34000	-3
1.34367	-3
1.34733	-3
1.35100	-3
1.35467	-3
1.35833	-3
1.36200	-3
1.36567	-3
1.36933	-2
1.37300	-2
1.37667	-1
1.38033	-1
1.38400	-1
1.38767	-0
1.39133	0
1.39500	1
1.39867	1
1.40233	1
1.40600	1
1.40967	1
1.41333	1
1.41700	1
1.42067	1
1.42433	1
1.42800	1
1.43167	1
1.43533	1
1.43900	1
1.44267	1
1.44633	1
1.45000	1
1.45367	1
1.45733	1
1.46100	1
1.46467	1
1.46833	1
1.47200	1
1.47567	1
1.47933	1
1.48300	1
1.48667	1
1.49033	1
1.49400	1
1.49767	1
1.50133	2
1.50500	2
1.50867	2
1.51233	2
1.51600	2
1.51967	1
1.52333	1
1.52700	1
1.53067	1
1.53433	1
1.53800	1
1.54167	1
1.54533	1
1.54900	1
1.55267	1
1.55633	0
1.56000	-0
1.56367	-1
1.56733	-1
1.57100	-1
1.57467	-1
1.57833	-1
1.58200	-2
1.58567	-2
1.58933	-2
1.59300	-2
1.59667	-3
1.60033	-3
1.60400	-4
1.60767	-5
1.61133	-7
1.61500	-8
1.61867	-10
1.62233	-13
1.62600	-16
1.62967	-19
1.63333	-22
1.63700	-25
1.64067	-28
1.64433	-31
1.64800	-35
1.65167	-38
1.65533	-42
1.65900	-46
1.66267	-50
1.66633	-54
1.67000	-59
1.67367	-64
1.67733	-69
1.68100	-75
1.68467	-80
1.68833	-85
1.69200	-90
1.69567	-94
1.69933	-97
1.70300	-100
1.70667	-102
1.71033	-104
1.71400	-106
1.71767	-107
1.72133	-108
1.72500	-108
1.72867	-109
1.73233	-110
1.73600	-111
1.73967	-111
1.74333	-112
1.74700	-112
1.75067	-112
1.75433	-112
1.75800	-112
1.76167	-113
1.76533	-113
1.76900	-114
1.77267	-114
1.77633	-115
1.78000	-116
1.78367	-117
1.78733	-118
1.79100	-119
1.79467	-120
1.79833	-121
1.80200	-121
1.80567	-122
1.80933	-122
1.81300	-121
1.81667	-121
1.82033	-121
1.82400	-120
1.82767	-120
1.83133	-120
1.83500	-121
1.83867	-121
1.84233	-121
1.84600	-120
1.84967	-120
1.85333	-120
1.85700	-121
1.86067	-121
1.86433	-121
1.86800	-121
1.87167	-121
1.87533	-120
1.87900	-120
1.88267	-120
1.88633	-119
1.89000	-119
1.89367	-118
1.89733	-118
1.90100	-118
1.90467	-118
1.90833	-118
1.91200	-117
1.91567	-117
1.91933	-117
1.92300	-117
1.92667	-117
1.93033	-118
1.93400	-118
1.93767	-118
1.94133	-118
1.94500	-118
1.94867	-117
1.95233	-117
1.95600	-116
1.95967	-115
1.96333	-115
1.96700	-114
1.97067	-114
1.97433	-114
1.97800	-114
1.98167	-114
1.98533	-114
1.98900	-114
1.99267	-113
1.99633	-113
2.00000	-112
2.00367	-112
2.00733	-112
2.01100	-112
2.01467	-112
2.01833	-112
2.02200	-111
2.02567	-111
2.02933	-112
2.03300	-112
2.03667	-111
2.04033	-111
2.04400	-110
2.04767	-110
2.05133	-110
2.05500	-110
2.05867	-109
2.06233	-109
2.06600	-109
2.06967	-108
2.07333	-108
2.07700	-108
2.08067	-108
2.08433	-108
2.08800	-107
2.09167	-106
2.09533	-106
2.09900	-105
2.10267	-105
2.10633	-105
2.11000	-105
2.11367	-104
2.11733	-104
2.12100	-104
2.12467	-104
2.12833	-103
2.13200	-103
2.13567	-102
2.13933	-102
2.14300	-101
2.14667	-101
2.15033	-101
2.15400	-101
2.15767	-101
2.16133	-100
2.16500	-100
2.16867	-100
2.17233	-99
2.17600	-99
2.17967	-98
2.18333	-98
2.18700	-97
2.19067	-97
2.19433	-97
2.19800	-97
2.20167	-97
2.20533	-96
2.20900	-96
2.21267	-96
2.21633	-95
2.22000	-95
2.22367	-95
2.22733	-94
2.23100	-94
2.23467	-94
2.23833	-94
2.24200	-93
2.24567	-92
2.24933	-91
2.25300	-90
2.25667	-89
2.26033	-89
2.26400	-89
2.26767	-90
2.27133	-90
2.27500	-91
2.27867	-91
2.28233	-91
2.28600	-91
2.28967	-91
2.29333	-90
2.29700	-90
2.30067	-90
2.30433	-90
2.30800	-89
2.31167	-89
2.31533	-89
2.31900	-89
2.32267	-89
2.32633	-89
2.33000	-88
2.33367	-88
2.33733	-87
2.34100	-87
2.34467	-86
2.34833	-85
2.35200	-84
2.35567	-83
2.35933	-83
2.36300	-83
2.36667	-83
2.37033	-82
2.37400	-80
2.37767	-78
2.38133	-75
2.38500	-72
2.38867	-68
2.39233	-63
2.39600	-59
2.39967	-54
2.40333	-49
2.40700	-44
2.41067	-39
2.41433	-34
2.41800	-30
2.42167	-27
2.42533	-24
2.42900	-21
2.43267	-18
2.43633	-15
2.44000	-12
2.44367	-10
2.44733	-8
2.45100	-6
2.45467	-5
2.45833	-4
2.46200	-2
2.46567	-1
2.46933	0
2.47300	2
2.47667	3
2.48033	4
2.48400	5
2.48767	7
2.49133	7
2.49500	8
2.49867	9
2.50233	10
2.50600	11
2.50967	12
2.51333	12
2.51700	12
2.52067	13
2.52433	13
2.52800	13
2.53167	13
2.53533	14
2.53900	14
2.54267	14
2.54633	14
2.55000	13
2.55367	13
2.55733	13
2.56100	13
2.56467	13
2.56833	13
2.57200	14
2.57567	14
2.57933	15
2.58300	15
2.58667	16
2.59033	16
2.59400	16
2.59767	17
2.60133	17
2.60500	18
2.60867	18
2.61233	19
2.61600	19
2.61967	19
2.62333	19
2.62700	19
2.63067	19
2.63433	19
2.63800	19
2.64167	20
2.64533	20
2.64900	21
2.65267	21
2.65633	21
2.66000	21
2.66367	21
2.66733	21
2.67100	21
2.67467	21
2.67833	21
2.68200	21
2.68567	21
2.68933	21
2.69300	22
2.69667	22
2.70033	22
2.70400	23
2.70767	23
2.71133	24
2.71500	24
2.71867	24
2.72233	24
2.72600	24
2.72967	24
2.73333	23
2.73700	23
2.74067	22
2.74433	22
2.74800	22
2.75167	22
2.75533	22
2.75900	22
2.76267	22
2.76633	22
2.77000	23
2.77367	23
2.77733	24
2.78100	24
2.78467	25
2.78833	26
2.79200	26
2.79567	26
2.79933	26
2.80300	26
2.80667	26
2.81033	27
2.81400	27
2.81767	27
2.82133	27
2.82500	27
2.82867	27
2.83233	27
2.83600	27
2.83967	27
2.84333	26
2.84700	25
2.85067	21
2.85433	16
2.85800	8
2.86167	-4
2.86533	-19
2.86900	-37
2.87267	-60
2.87633	-87
2.88000	-118
2.88367	-152
2.88733	-190
2.89100	-231
2.89467	-275
2.89833	-321
2.90200	-369
2.90567	-418
2.90933	-467
2.91300	-518
2.91667	-568
2.92033	-618
2.92400	-667
2.92767	-717
2.93133	-765
2.93500	-814
2.93867	-867
2.94233	-925
2.94600	-987
2.94967	-1044
2.95333	-1083
2.95700	-1098
2.96067	-1086
2.96433	-1049
2.96800	-994
2.97167	-924
2.97533	-847
2.97900	-767
2.98267	-687
2.98633	-609
2.99000	-536
2.99367	-469
2.99733	-408
3.00100	-353
3.00467	-303
3.00833	-260
3.01200	-222
3.01567	-189
3.01933	-160
3.02300	-135
3.02667	-114
3.03033	-96
3.03400	-80
3.03767	-66
3.04133	-54
3.04500	-44
3.04867	-36
3.05233	-28
3.05600	-22
3.05967	-16
3.06333	-12
3.06700	-8
3.07067	-4
3.07433	-1
3.07800	1
3.08167	4
3.08533	6
3.08900	7
3.09267	9
3.09633	10
3.10000	11
3.10367	12
3.10733	13
3.11100	14
3.11467	15
3.11833	15
3.12200	16
3.12567	17
3.12933	17
3.13300	18
3.13667	18
3.14033	18
3.14400	18
3.14767	19
3.15133	19
3.15500	19
3.15867	19
3.16233	19
3.16600	20
3.16967	20
3.17333	20
3.17700	20
3.18067	20
3.18433	21
3.18800	21
3.19167	21
3.19533	22
3.19900	22
3.20267	22
3.20633	22
3.21000	23
3.21367	23
3.21733	23
3.22100	23
3.22467	24
3.22833	24
3.23200	25
3.23567	25
3.23933	25
3.24300	26
3.24667	26
3.25033	26
3.25400	26
3.25767	27
3.26133	27
3.26500	27
3.26867	27
3.27233	27
3.27600	27
3.27967	27
3.28333	27
3.28700	26
3.29067	26
3.29433	27
3.29800	27
3.30167	27
3.30533	28
3.30900	28
3.31267	28
3.31633	28
3.32000	28
3.32367	28
3.32733	28
3.33100	28
3.33467	28
3.33833	28
3.34200	28
3.34567	28
3.34933	28
3.35300	28
3.35667	28
3.36033	28
3.36400	28
3.36767	28
3.37133	28
3.37500	28
3.37867	28
3.38233	28
3.38600	28
3.38967	28
3.39333	28
3.39700	28
3.40067	28
3.40433	28
3.40800	28
3.41167	28
3.41533	28
3.41900	28
3.42267	28
3.42633	28
3.43000	28
3.43367	28
3.43733	28
3.44100	28
3.44467	28
3.44833	28
3.45200	29
3.45567	29
3.45933	29
3.46300	29
3.46667	30
3.47033	29
3.47400	29
3.47767	29
3.48133	29
3.48500	29
3.48867	29
3.49233	29
3.49600	29
3.49967	29
3.50333	29
3.50700	29
3.51067	29
3.51433	29
3.51800	29
3.52167	29
3.52533	29
3.52900	29
3.53267	29
3.53633	29
3.54000	30
3.54367	30
3.54733	30
3.55100	30
3.55467	30
3.55833	30
3.56200	30
3.56567	30
3.56933	30
3.57300	30
3.57667	30
3.58033	29
3.58400	29
3.58767	29
3.59133	29
3.59500	29
3.59867	29
3.60233	30
3.60600	30
3.60967	30
3.61333	30
3.61700	30
3.62067	30
3.62433	30
3.62800	30
3.63167	30
3.63533	30
3.63900	30
3.64267	30
3.64633	29
3.65000	29
3.65367	29
3.65733	29
3.66100	29
3.66467	30
3.66833	30
3.67200	30
3.67567	30
3.67933	30
3.68300	30
3.68667	30
3.69033	30
3.69400	30
3.69767	29
3.70133	29
3.70500	29
3.70867	29
3.71233	29
3.71600	29
3.71967	29
3.72333	29
3.72700	29
3.73067	29
3.73433	29
3.73800	29
3.74167	29
3.74533	29
3.74900	29
3.75267	29
3.75633	29
3.76000	29
3.76367	29
3.76733	29
3.77100	30
3.77467	30
3.77833	30
3.78200	30
3.78567	30
3.78933	30
3.79300	29
3.79667	29
3.80033	30
3.80400	30
3.80767	30
3.81133	30
3.81500	30
3.81867	30
3.82233	30
3.82600	30
3.82967	30
3.83333	30
3.83700	30
3.84067	30
3.84433	30
3.84800	30
3.85167	30
3.85533	30
3.85900	30
3.86267	30
3.86633	30
3.87000	30
3.87367	30
3.87733	30
3.88100	30
3.88467	30
3.88833	30
3.89200	30
3.89567	29
3.89933	29
3.90300	29
3.90667	29
3.91033	29
3.91400	29
3.91767	29
3.92133	30
3.92500	30
3.92867	30
3.93233	30
3.93600	30
3.93967	31
3.94333	31
3.94700	31
3.95067	31
3.95433	31
3.95800	31
3.96167	30
3.96533	30
3.96900	30
3.97267	31
3.97633	31
3.98000	31
3.98367	31
3.98733	31
3.99100	31
3.99467	31
3.99833	31

[Chromatogram (Ch3)]
Interval(msec)	220
# of Points	1091
Start Time(min)	0.002
End Time(min)	3.998
R.Time (min)	Intensity
0.00167	-0
0.00533	-0
0.00900	3
0.01267	6
0.01633	7
0.02000	6
0.02367	3
0.02733	2
0.03100	2
0.03467	3
0.03833	6
0.04200	6
0.04567	6
0.04933	7
0.05300	8
0.05667	8
0.06033	7
0.06400	6
0.06767	4
0.07133	2
0.07500	3
0.07867	6
0.08233	5
0.08600	4
0.08967	3
0.09333	3
0.09700	2
0.10067	3
0.10433	3
0.10800	5
0.11167	4
0.11533	5
0.11900	6
0.12267	7
0.12633	9
0.13000	11
0.13367	11
0.13733	9
0.14100	8
0.14467	9
0.14833	7
0.15200	6
0.15567	7
0.15933	8
0.16300	12
0.16667	15
0.17033	15
0.17400	12
0.17767	10
0.18133	9
0.18500	9
0.18867	9
0.19233	10
0.19600	13
0.19967	16
0.20333	17
0.20700	16
0.21067	16
0.21433	15
0.21800	13
0.22167	12
0.22533	13
0.22900	13
0.23267	14
0.23633	18
0.24000	20
0.24367	19
0.24733	17
0.25100	16
0.25467	15
0.25833	16
0.26200	18
0.26567	19
0.26933	17
0.27300	17
0.27667	17
0.28033	19
0.28400	19
0.28767	19
0.29133	20
0.29500	19
0.29867	20
0.30233	20
0.30600	20
0.30967	18
0.31333	15
0.31700	14
0.32067	16
0.32433	18
0.32800	21
0.33167	24
0.33533	23
0.33900	22
0.34267	22
0.34633	22
0.35000	24
0.35367	24
0.35733	25
0.36100	22
0.36467	22
0.36833	23
0.37200	23
0.37567	23
0.37933	23
0.38300	24
0.38667	24
0.39033	25
0.39400	25
0.39767	27
0.40133	28
0.40500	28
0.40867	28
0.41233	28
0.41600	27
0.41967	28
0.42333	27
0.42700	25
0.43067	24
0.43433	24
0.43800	24
0.44167	25
0.44533	29
0.44900	33
0.45267	34
0.45633	33
0.46000	31
0.46367	31
0.46733	32
0.47100	31
0.47467	31
0.47833	32
0.48200	35
0.48567	37
0.48933	37
0.49300	37
0.49667	36
0.50033	36
0.50400	35
0.50767	33
0.51133	31
0.51500	29
0.51867	28
0.52233	31
0.52600	33
0.52967	33
0.53333	32
0.53700	30
0.54067	30
0.54433	32
0.54800	34
0.55167	32
0.55533	33
0.55900	35
0.56267	36
0.56633	39
0.57000	40
0.57367	37
0.57733	35
0.58100	35
0.58467	36
0.58833	36
0.59200	36
0.59567	36
0.59933	37
0.60300	37
0.60667	39
0.61033	41
0.61400	43
0.61767	41
0.62133	41
0.62500	43
0.62867	44
0.63233	43
0.63600	41
0.63967	41
0.64333	40
0.64700	40
0.65067	41
0.65433	40
0.65800	40
0.66167	39
0.66533	39
0.66900	38
0.67267	34
0.67633	31
0.68000	32
0.68367	35
0.68733	38
0.69100	40
0.69467	42
0.69833	40
0.70200	36
0.70567	34
0.70933	32
0.71300	32
0.71667	35
0.72033	37
0.72400	38
0.72767	38
0.73133	36
0.73500	39
0.73867	43
0.74233	43
0.74600	42
0.74967	40
0.75333	40
0.75700	40
0.76067	42
0.76433	45
0.76800	44
0.77167	40
0.77533	40
0.77900	39
0.78267	37
0.78633	37
0.79000	38
0.79367	40
0.79733	40
0.80100	41
0.80467	43
0.80833	44
0.81200	44
0.81567	46
0.81933	44
0.82300	43
0.82667	43
0.83033	42
0.83400	40
0.83767	41
0.84133	43
0.84500	45
0.84867	47
0.85233	47
0.85600	47
0.85967	44
0.86333	43
0.86700	44
0.87067	45
0.87433	46
0.87800	47
0.88167	49
0.88533	50
0.88900	49
0.89267	48
0.89633	48
0.90000	48
0.90367	49
0.90733	49
0.91100	49
0.91467	47
0.91833	43
0.92200	42
0.92567	41
0.92933	41
0.93300	43
0.93667	43
0.94033	45
0.94400	49
0.94767	51
0.95133	50
0.95500	50
0.95867	49
0.96233	46
0.96600	46
0.96967	48
0.97333	51
0.97700	52
0.98067	52
0.98433	53
0.98800	55
0.99167	55
0.99533	55
0.99900	54
1.00267	51
1.00633	49
1.01000	48
1.01367	49
1.01733	50
1.02100	46
1.02467	44
1.02833	47
1.03200	50
1.03567	52
1.03933	52
1.04300	53
1.04667	53
1.05033	51
1.05400	51
1.05767	52
1.06133	54
1.06500	54
1.06867	54
1.07233	53
1.07600	52
1.07967	50
1.08333	49
1.08700	46
1.09067	46
1.09433	51
1.09800	53
1.10167	53
1.10533	55
1.10900	56
1.11267	56
1.11633	54
1.12000	54
1.12367	53
1.12733	54
1.13100	58
1.13467	58
1.13833	55
1.14200	55
1.14567	56
1.14933	56
1.15300	56
1.15667	59
1.16033	59
1.16400	59
1.16767	60
1.17133	61
1.17500	60
1.17867	60
1.18233	61
1.18600	62
1.18967	64
1.19333	65
1.19700	64
1.20067	63
1.20433	63
1.20800	61
1.21167	61
1.21533	61
1.21900	61
1.22267	60
1.22633	60
1.23000	57
1.23367	56
1.23733	59
1.24100	61
1.24467	62
1.24833	61
1.25200	61
1.25567	58
1.25933	58
1.26300	60
1.26667	61
1.27033	63
1.27400	64
1.27767	62
1.28133	60
1.28500	59
1.28867	58
1.29233	58
1.29600	59
1.29967	61
1.30333	60
1.30700	61
1.31067	62
1.31433	62
1.31800	60
1.32167	60
1.32533	61
1.32900	60
1.33267	60
1.33633	61
1.34000	63
1.34367	65
1.34733	66
1.35100	65
1.35467	65
1.35833	65
1.36200	63
1.36567	59
1.36933	59
1.37300	61
1.37667	61
1.38033	62
1.38400	63
1.38767	63
1.39133	60
1.39500	58
1.39867	59
1.40233	58
1.40600	57
1.40967	59
1.41333	62
1.41700	64
1.42067	65
1.42433	64
1.42800	62
1.43167	61
1.43533	60
1.43900	59
1.44267	59
1.44633	60
1.45000	61
1.45367	62
1.45733	61
1.46100	59
1.46467	58
1.46833	59
1.47200	60
1.47567	60
1.47933	60
1.48300	59
1.48667	59
1.49033	58
1.49400	57
1.49767	56
1.50133	55
1.50500	57
1.50867	60
1.51233	63
1.51600	65
1.51967	65
1.52333	63
1.52700	62
1.53067	64
1.53433	65
1.53800	65
1.54167	65
1.54533	66
1.54900	67
1.55267	66
1.55633	64
1.56000	62
1.56367	60
1.56733	57
1.57100	58
1.57467	61
1.57833	62
1.58200	63
1.58567	62
1.58933	61
1.59300	60
1.59667	59
1.60033	59
1.60400	58
1.60767	60
1.61133	61
1.61500	61
1.61867	62
1.62233	64
1.62600	66
1.62967	68
1.63333	69
1.63700	66
1.64067	63
1.64433	64
1.64800	65
1.65167	67
1.65533	68
1.65900	69
1.66267	69
1.66633	71
1.67000	72
1.67367	74
1.67733	75
1.68100	75
1.68467	76
1.68833	77
1.69200	78
1.69567	78
1.69933	81
1.70300	82
1.70667	83
1.71033	84
1.71400	85
1.71767	86
1.72133	87
1.72500	86
1.72867	85
1.73233	85
1.73600	86
1.73967	90
1.74333	91
1.74700	91
1.75067	92
1.75433	92
1.75800	91
1.76167	91
1.76533	92
1.76900	94
1.77267	95
1.77633	99
1.78000	101
1.78367	100
1.78733	98
1.79100	99
1.79467	102
1.79833	103
1.80200	104
1.80567	106
1.80933	106
1.81300	107
1.81667	108
1.82033	108
1.82400	108
1.82767	106
1.83133	109
1.83500	109
1.83867	107
1.84233	107
1.84600	109
1.84967	110
1.85333	110
1.85700	110
1.86067	107
1.86433	105
1.86800	106
1.87167	108
1.87533	108
1.87900	108
1.88267	107
1.88633	107
1.89000	108
1.89367	107
1.89733	108
1.90100	109
1.90467	110
1.90833	109
1.91200	108
1.91567	108
1.91933	109
1.92300	111
1.92667	112
1.93033	112
1.93400	114
1.93767	116
1.94133	116
1.94500	114
1.94867	113
1.95233	112
1.95600	111
1.95967	114
1.96333	117
1.96700	118
1.97067	121
1.97433	123
1.97800	123
1.98167	121
1.98533	122
1.98900	121
1.99267	120
1.99633	120
2.00000	118
2.00367	120
2.00733	122
2.01100	124
2.01467	126
2.01833	128
2.02200	128
2.02567	127
2.02933	126
2.03300	128
2.03667	130
2.04033	131
2.04400	130
2.04767	128
2.05133	127
2.05500	129
2.05867	133
2.06233	136
2.06600	138
2.06967	139
2.07333	142
2.07700	143
2.08067	142
2.08433	142
2.08800	144
2.09167	146
2.09533	146
2.09900	143
2.10267	143
2.10633	143
2.11000	145
2.11367	148
2.11733	154
2.12100	159
2.12467	161
2.12833	163
2.13200	163
2.13567	161
2.13933	160
2.14300	159
2.14667	161
2.15033	163
2.15400	165
2.15767	166
2.16133	167
2.16500	167
2.16867	166
2.17233	166
2.17600	168
2.17967	169
2.18333	171
2.18700	172
2.19067	171
2.19433	172
2.19800	171
2.20167	172
2.20533	174
2.20900	177
2.21267	178
2.21633	177
2.22000	176
2.22367	176
2.22733	177
2.23100	179
2.23467	180
2.23833	181
2.24200	182
2.24567	182
2.24933	180
2.25300	179
2.25667	180
2.26033	180
2.26400	180
2.26767	181
2.27133	183
2.27500	185
2.27867	183
2.28233	180
2.28600	179
2.28967	182
2.29333	186
2.29700	187
2.30067	188
2.30433	190
2.30800	191
2.31167	195
2.31533	198
2.31900	198
2.32267	198
2.32633	199
2.33000	199
2.33367	197
2.33733	198
2.34100	198
2.34467	197
2.34833	197
2.35200	197
2.35567	198
2.35933	199
2.36300	199
2.36667	199
2.37033	199
2.37400	200
2.37767	199
2.38133	199
2.38500	199
2.38867	201
2.39233	202
2.39600	203
2.39967	202
2.40333	202
2.40700	201
2.41067	201
2.41433	201
2.41800	203
2.42167	204
2.42533	205
2.42900	206
2.43267	207
2.43633	208
2.44000	209
2.44367	215
2.44733	226
2.45100	238
2.45467	256
2.45833	281
2.46200	316
2.46567	360
2.46933	409
2.47300	460
2.47667	510
2.48033	558
2.48400	604
2.48767	650
2.49133	693
2.49500	732
2.49867	769
2.50233	801
2.50600	829
2.50967	853
2.51333	874
2.51700	892
2.52067	908
2.52433	924
2.52800	938
2.53167	950
2.53533	960
2.53900	968
2.54267	977
2.54633	986
2.55000	994
2.55367	1001
2.55733	1008
2.56100	1012
2.56467	1017
2.56833	1018
2.57200	1017
2.57567	1019
2.57933	1018
2.58300	1017
2.58667	1013
2.59033	1008
2.59400	999
2.59767	986
2.60133	970
2.60500	944
2.60867	906
2.61233	862
2.61600	812
2.61967	762
2.62333	712
2.62700	668
2.63067	630
2.63433	597
2.63800	570
2.64167	551
2.64533	537
2.64900	530
2.65267	526
2.65633	528
2.66000	534
2.66367	542
2.66733	550
2.67100	556
2.67467	565
2.67833	575
2.68200	586
2.68567	596
2.68933	606
2.69300	616
2.69667	624
2.70033	634
2.70400	641
2.70767	650
2.71133	655
2.71500	659
2.71867	665
2.72233	671
2.72600	677
2.72967	684
2.73333	689
2.73700	693
2.74067	697
2.74433	699
2.74800	701
2.75167	702
2.75533	705
2.75900	712
2.76267	717
2.76633	719
2.77000	724
2.77367	726
2.77733	728
2.78100	732
2.78467	735
2.78833	735
2.79200	736
2.79567	736
2.79933	738
2.80300	740
2.80667	742
2.81033	742
2.81400	743
2.81767	744
2.82133	746
2.82500	752
2.82867	773
2.83233	820
2.83600	910
2.83967	1069
2.84333	1315
2.84700	1665
2.85067	2123
2.85433	2674
2.85800	3286
2.86167	3917
2.86533	4517
2.86900	5039
2.87267	5438
2.87633	5688
2.88000	5788
2.88367	5746
2.88733	5583
2.89100	5325
2.89467	5003
2.89833	4646
2.90200	4274
2.90567	3906
2.90933	3550
2.91300	3218
2.91667	2915
2.92033	2640
2.92400	2391
2.92767	2170
2.93133	1975
2.93500	1801
2.93867	1646
2.94233	1512
2.94600	1397
2.94967	1299
2.95333	1214
2.95700	1140
2.96067	1074
2.96433	1017
2.96800	967
2.97167	924
2.97533	886
2.97900	854
2.98267	828
2.98633	803
2.99000	781
2.99367	761
2.99733	745
3.00100	729
3.00467	717
3.00833	703
3.01200	690
3.01567	680
3.01933	673
3.02300	665
3.02667	658
3.03033	651
3.03400	646
3.03767	640
3.04133	633
3.04500	627
3.04867	620
3.05233	616
3.05600	615
3.05967	609
3.06333	604
3.06700	600
3.07067	599
3.07433	598
3.07800	596
3.08167	592
3.08533	590
3.08900	588
3.09267	587
3.09633	587
3.10000	586
3.10367	584
3.10733	580
3.11100	577
3.11467	574
3.11833	572
3.12200	571
3.12567	568
3.12933	566
3.13300	564
3.13667	562
3.14033	559
3.14400	554
3.14767	552
3.15133	549
3.15500	544
3.15867	543
3.16233	542
3.16600	542
3.16967	540
3.17333	541
3.17700	541
3.18067	541
3.18433	540
3.18800	539
3.19167	537
3.19533	533
3.19900	530
3.20267	527
3.20633	527
3.21000	526
3.21367	524
3.21733	524
3.22100	523
3.22467	521
3.22833	520
3.23200	520
3.23567	521
3.23933	521
3.24300	518
3.24667	514
3.25033	513
3.25400	512
3.25767	510
3.26133	506
3.26500	504
3.26867	503
3.27233	503
3.27600	500
3.27967	501
3.28333	500
3.28700	496
3.29067	488
3.29433	484
3.29800	483
3.30167	483
3.30533	483
3.30900	481
3.31267	477
3.31633	474
3.32000	470
3.32367	466
3.32733	464
3.33100	463
3.33467	460
3.33833	455
3.34200	450
3.34567	446
3.34933	443
3.35300	441
3.35667	441
3.36033	441
3.36400	440
3.36767	440
3.37133	441
3.37500	440
3.37867	436
3.38233	434
3.38600	435
3.38967	434
3.39333	431
3.39700	426
3.40067	422
3.40433	418
3.40800	414
3.41167	412
3.41533	409
3.41900	408
3.42267	406
3.42633	405
3.43000	403
3.43367	399
3.43733	396
3.44100	395
3.44467	394
3.44833	394
3.45200	392
3.45567	389
3.45933	386
3.46300	383
3.46667	382
3.47033	381
3.47400	381
3.47767	380
3.48133	377
3.48500	375
3.48867	376
3.49233	377
3.49600	376
3.49967	372
3.50333	369
3.50700	366
3.51067	364
3.51433	364
3.51800	363
3.52167	361
3.52533	358
3.52900	354
3.53267	352
3.53633	350
3.54000	349
3.54367	351
3.54733	354
3.55100	354
3.55467	350
3.55833	347
3.56200	346
3.56567	344
3.56933	342
3.57300	340
3.57667	337
3.58033	334
3.58400	333
3.58767	331
3.59133	329
3.59500	329
3.59867	330
3.60233	330
3.60600	329
3.60967	329
3.61333	328
3.61700	326
3.62067	325
3.62433	323
3.62800	322
3.63167	321
3.63533	317
3.63900	314
3.64267	310
3.64633	308
3.65000	306
3.65367	306
3.65733	306
3.66100	306
3.66467	305
3.66833	303
3.67200	304
3.67567	307
3.67933	307
3.68300	307
3.68667	306
3.69033	304
3.69400	302
3.69767	300
3.70133	299
3.70500	296
3.70867	295
3.71233	297
3.71600	298
3.71967	300
3.72333	298
3.72700	294
3.73067	290
3.73433	288
3.73800	285
3.74167	284
3.74533	284
3.74900	283
3.75267	281
3.75633	281
3.76000	279
3.76367	276
3.76733	272
3.77100	269
3.77467	268
3.77833	267
3.78200	266
3.78567	265
3.78933	265
3.79300	266
3.79667	267
3.80033	267
3.80400	264
3.80767	263
3.81133	262
3.81500	260
3.81867	258
3.82233	258
3.82600	259
3.82967	260
3.83333	262
3.83700	265
3.84067	266
3.84433	265
3.84800	265
3.85167	263
3.85533	260
3.85900	257
3.86267	254
3.86633	254
3.87000	253
3.87367	252
3.87733	250
3.88100	250
3.88467	248
3.88833	245
3.89200	241
3.89567	240
3.89933	240
3.90300	242
3.90667	243
3.91033	243
3.91400	242
3.91767	242
3.92133	241
3.92500	241
3.92867	239
3.93233	237
3.93600	234
3.93967	232
3.94333	234
3.94700	236
3.95067	235
3.95433	234
3.95800	232
3.96167	229
3.96533	225
3.96900	220
3.97267	219
3.97633	219
3.98000	221
3.98367	220
3.98733	219
3.99100	219
3.99467	216
3.99833	213

[Status Trace (Column Oven Temperature)]
Interval(msec)	1000
# of Points	240
Start Time(min)	0.009
End Time(min)	3.993
Intensity Units	
Intensity Multiplier	1
R.Time (min)	Intensity
0.00923	35.07
0.02590	35.09
0.04257	35.09
0.05923	35.07
0.07590	35.04
0.09257	35.03
0.10923	35.02
0.12590	35.02
0.14257	35.01
0.15923	35.00
0.17590	35.00
0.19257	35.00
0.20923	35.00
0.22590	35.01
0.24257	35.02
0.25923	35.02
0.27590	35.03
0.29257	35.02
0.30923	35.00
0.32590	34.98
0.34257	34.98
0.35923	34.98
0.37590	34.97
0.39257	34.96
0.40923	34.96
0.42590	34.96
0.44257	34.96
0.45923	34.97
0.47590	34.97
0.49257	34.98
0.50923	34.98
0.52590	34.97
0.54257	34.97
0.55923	34.96
0.57590	34.97
0.59257	34.97
0.60923	34.96
0.62590	34.96
0.64257	34.96
0.65923	34.97
0.67590	34.97
0.69257	34.98
0.70923	34.98
0.72590	34.98
0.74257	34.98
0.75923	34.98
0.77590	34.98
0.79257	34.98
0.80923	34.99
0.82590	34.99
0.84257	34.99
0.85923	34.99
0.87590	34.98
0.89257	34.98
0.90923	34.98
0.92590	34.98
0.94257	34.98
0.95923	34.99
0.97590	34.99
0.99257	34.99
1.00923	35.00
1.02590	35.00
1.04257	35.02
1.05923	35.02
1.07590	35.02
1.09257	35.01
1.10923	35.00
1.12590	34.99
1.14257	34.98
1.15923	34.98
1.17590	34.98
1.19257	34.98
1.20923	34.98
1.22590	34.98
1.24257	34.99
1.25923	35.00
1.27590	35.00
1.29257	35.01
1.30923	35.02
1.32590	35.03
1.34257	35.03
1.35923	35.03
1.37590	35.03
1.39257	35.01
1.40923	35.01
1.42590	35.00
1.44257	35.00
1.45923	35.00
1.47590	35.00
1.49257	35.00
1.50923	35.00
1.52590	34.99
1.54257	34.99
1.55923	35.00
1.57590	35.01
1.59257	35.03
1.60923	35.09
1.62590	35.21
1.64257	35.39
1.65923	35.64
1.67590	35.99
1.69257	36.36
1.70923	36.71
1.72590	37.05
1.74257	37.38
1.75923	37.70
1.77590	38.03
1.79257	38.38
1.80923	38.70
1.82590	39.04
1.84257	39.36
1.85923	39.70
1.87590	40.03
1.89257	40.35
1.90923	40.67
1.92590	41.00
1.94257	41.34
1.95923	41.65
1.97590	41.99
1.99257	42.30
2.00923	42.64
2.02590	42.96
2.04257	43.29
2.05923	43.60
2.07590	43.94
2.09257	44.26
2.10923	44.59
2.12590	44.90
2.14257	45.23
2.15923	45.54
2.17590	45.88
2.19257	46.21
2.20923	46.55
2.22590	46.89
2.24257	47.18
2.25923	47.52
2.27590	47.85
2.29257	48.17
2.30923	48.53
2.32590	48.86
2.34257	49.18
2.35923	49.46
2.37590	49.64
2.39257	49.70
2.40923	49.68
2.42590	49.69
2.44257	49.68
2.45923	49.70
2.47590	49.72
2.49257	49.73
2.50923	49.74
2.52590	49.75
2.54257	49.78
2.55923	49.81
2.57590	49.81
2.59257	49.81
2.60923	49.82
2.62590	49.84
2.64257	49.84
2.65923	49.85
2.67590	49.86
2.69257	49.85
2.70923	49.85
2.72590	49.86
2.74257	49.90
2.75923	49.92
2.77590	49.92
2.79257	49.91
2.80923	49.91
2.82590	49.92
2.84257	49.91
2.85923	49.92
2.87590	49.94
2.89257	49.95
2.90923	49.96
2.92590	49.99
2.94257	50.00
2.95923	50.01
2.97590	50.02
2.99257	50.03
3.00923	50.04
3.02590	50.07
3.04257	50.07
3.05923	50.08
3.07590	50.08
3.09257	50.08
3.10923	50.07
3.12590	50.08
3.14257	50.09
3.15923	50.10
3.17590	50.10
3.19257	50.10
3.20923	50.10
3.22590	50.10
3.24257	50.09
3.25923	50.08
3.27590	50.09
3.29257	50.09
3.30923	50.09
3.32590	50.09
3.34257	50.09
3.35923	50.09
3.37590	50.09
3.39257	50.09
3.40923	50.09
3.42590	50.10
3.44257	50.09
3.45923	50.09
3.47590	50.09
3.49257	50.08
3.50923	50.08
3.52590	50.08
3.54257	50.07
3.55923	50.06
3.57590	50.06
3.59257	50.06
3.60923	50.06
3.62590	50.06
3.64257	50.06
3.65923	50.06
3.67590	50.06
3.69257	50.06
3.70923	50.06
3.72590	50.07
3.74257	50.06
3.75923	50.06
3.77590	50.06
3.79257	50.06
3.80923	50.06
3.82590	50.07
3.84257	50.07
3.85923	50.07
3.87590	50.06
3.89257	50.07
3.90923	50.08
3.92590	50.07
3.94257	50.07
3.95923	50.06
3.97590	50.05
3.99257	50.05

[Status Trace (Injection Unit Temperature)]
Interval(msec)	1000
# of Points	240
Start Time(min)	0.009
End Time(min)	3.993
Intensity Units	
Intensity Multiplier	1
R.Time (min)	Intensity
0.00923	99.98
0.02590	99.98
0.04257	99.98
0.05923	99.98
0.07590	99.99
0.09257	99.98
0.10923	99.98
0.12590	99.98
0.14257	99.98
0.15923	99.98
0.17590	99.98
0.19257	99.98
0.20923	99.98
0.22590	99.98
0.24257	99.98
0.25923	99.98
0.27590	99.98
0.29257	99.98
0.30923	99.98
0.32590	99.99
0.34257	99.98
0.35923	99.98
0.37590	99.98
0.39257	99.98
0.40923	99.98
0.42590	99.99
0.44257	99.98
0.45923	99.98
0.47590	99.98
0.49257	99.98
0.50923	99.98
0.52590	99.98
0.54257	99.98
0.55923	99.98
0.57590	99.98
0.59257	99.99
0.60923	99.98
0.62590	99.99
0.64257	99.99
0.65923	99.98
0.67590	99.98
0.69257	99.98
0.70923	99.98
0.72590	99.99
0.74257	99.98
0.75923	99.98
0.77590	99.98
0.79257	99.98
0.80923	99.98
0.82590	99.98
0.84257	99.98
0.85923	99.98
0.87590	99.99
0.89257	99.98
0.90923	99.99
0.92590	99.98
0.94257	99.98
0.95923	99.98
0.97590	99.99
0.99257	99.98
1.00923	99.98
1.02590	99.98
1.04257	99.99
1.05923	99.99
1.07590	99.99
1.09257	99.99
1.10923	99.99
1.12590	99.98
1.14257	99.99
1.15923	99.99
1.17590	99.99
1.19257	99.99
1.20923	99.99
1.22590	99.99
1.24257	99.99
1.25923	99.99
1.27590	99.99
1.29257	99.99
1.30923	99.98
1.32590	99.98
1.34257	99.99
1.35923	99.98
1.37590	99.98
1.39257	99.99
1.40923	99.99
1.42590	99.99
1.44257	99.99
1.45923	99.98
1.47590	99.99
1.49257	99.99
1.50923	99.99
1.52590	99.99
1.54257	99.99
1.55923	99.99
1.57590	99.99
1.59257	99.99
1.60923	99.98
1.62590	99.99
1.64257	99.99
1.65923	99.99
1.67590	99.99
1.69257	99.99
1.70923	100.00
1.72590	99.99
1.74257	99.99
1.75923	99.99
1.77590	99.99
1.79257	99.99
1.80923	99.98
1.82590	99.99
1.84257	99.99
1.85923	99.99
1.87590	99.99
1.89257	99.99
1.90923	99.98
1.92590	99.98
1.94257	99.98
1.95923	99.98
1.97590	99.98
1.99257	99.98
2.00923	99.98
2.02590	99.98
2.04257	99.98
2.05923	99.98
2.07590	99.97
2.09257	99.98
2.10923	99.97
2.12590	99.97
2.14257	99.97
2.15923	99.97
2.17590	99.97
2.19257	99.97
2.20923	99.97
2.22590	99.97
2.24257	99.97
2.25923	99.97
2.27590	99.97
2.29257	99.97
2.30923	99.97
2.32590	99.97
2.34257	99.97
2.35923	99.96
2.37590	99.97
2.39257	99.97
2.40923	99.97
2.42590	99.97
2.44257	99.97
2.45923	99.97
2.47590	99.97
2.49257	99.97
2.50923	99.97
2.52590	99.97
2.54257	99.97
2.55923	99.97
2.57590	99.97
2.59257	99.98
2.60923	99.98
2.62590	99.98
2.64257	99.98
2.65923	99.98
2.67590	99.98
2.69257	99.98
2.70923	99.98
2.72590	99.99
2.74257	99.99
2.75923	99.99
2.77590	99.99
2.79257	99.99
2.80923	99.99
2.82590	99.99
2.84257	100.00
2.85923	100.00
2.87590	100.00
2.89257	100.01
2.90923	100.00
2.92590	100.00
2.94257	100.01
2.95923	100.01
2.97590	100.01
2.99257	100.01
3.00923	100.01
3.02590	100.01
3.04257	100.01
3.05923	100.02
3.07590	100.02
3.09257	100.02
3.10923	100.02
3.12590	100.02
3.14257	100.02
3.15923	100.02
3.17590	100.02
3.19257	100.02
3.20923	100.03
3.22590	100.03
3.24257	100.03
3.25923	100.03
3.27590	100.03
3.29257	100.03
3.30923	100.03
3.32590	100.03
3.34257	100.03
3.35923	100.03
3.37590	100.03
3.39257	100.03
3.40923	100.03
3.42590	100.04
3.44257	100.03
3.45923	100.04
3.47590	100.03
3.49257	100.04
3.50923	100.04
3.52590	100.04
3.54257	100.04
3.55923	100.04
3.57590	100.04
3.59257	100.04
3.60923	100.04
3.62590	100.04
3.64257	100.05
3.65923	100.05
3.67590	100.05
3.69257	100.05
3.70923	100.05
3.72590	100.05
3.74257	100.05
3.75923	100.05
3.77590	100.04
3.79257	100.05
3.80923	100.05
3.82590	100.05
3.84257	100.05
3.85923	100.05
3.87590	100.05
3.89257	100.05
3.90923	100.05
3.92590	100.05
3.94257	100.05
3.95923	100.05
3.97590	100.05
3.99257	100.05

[Status Trace (Carrier Gas Pressure)]
Interval(msec)	1000
# of Points	240
Start Time(min)	0.009
End Time(min)	3.993
Intensity Units	
Intensity Multiplier	1
R.Time (min)	Intensity
0.00923	58.00
0.02590	55.27
0.04257	57.22
0.05923	59.36
0.07590	59.43
0.09257	58.05
0.10923	57.98
0.12590	58.01
0.14257	58.01
0.15923	58.01
0.17590	58.00
0.19257	58.00
0.20923	58.00
0.22590	58.00
0.24257	58.00
0.25923	58.00
0.27590	58.00
0.29257	58.00
0.30923	58.00
0.32590	58.00
0.34257	58.00
0.35923	58.00
0.37590	58.00
0.39257	58.00
0.40923	58.00
0.42590	58.00
0.44257	58.00
0.45923	58.00
0.47590	58.00
0.49257	58.00
0.50923	58.00
0.52590	58.00
0.54257	58.00
0.55923	58.00
0.57590	58.00
0.59257	58.00
0.60923	58.00
0.62590	58.00
0.64257	58.00
0.65923	58.00
0.67590	58.00
0.69257	58.00
0.70923	58.00
0.72590	58.00
0.74257	58.00
0.75923	58.00
0.77590	58.00
0.79257	58.00
0.80923	58.00
0.82590	58.00
0.84257	58.00
0.85923	58.00
0.87590	58.00
0.89257	58.00
0.90923	58.00
0.92590	58.00
0.94257	58.00
0.95923	58.00
0.97590	58.00
0.99257	58.00
1.00923	58.00
1.02590	58.00
1.04257	58.00
1.05923	58.00
1.07590	58.00
1.09257	58.00
1.10923	58.00
1.12590	58.00
1.14257	58.00
1.15923	58.00
1.17590	58.00
1.19257	58.00
1.20923	58.00
1.22590	58.00
1.24257	58.00
1.25923	58.00
1.27590	58.00
1.29257	58.00
1.30923	58.00
1.32590	58.00
1.34257	58.00
1.35923	58.00
1.37590	58.00
1.39257	58.00
1.40923	58.00
1.42590	58.00
1.44257	58.00
1.45923	58.00
1.47590	58.00
1.49257	58.00
1.50923	58.00
1.52590	58.00
1.54257	58.00
1.55923	58.00
1.57590	58.00
1.59257	58.00
1.60923	58.00
1.62590	58.00
1.64257	58.00
1.65923	58.01
1.67590	58.01
1.69257	58.00
1.70923	58.00
1.72590	58.00
1.74257	58.00
1.75923	58.00
1.77590	58.00
1.79257	58.00
1.80923	58.00
1.82590	58.00
1.84257	58.00
1.85923	58.00
1.87590	58.00
1.89257	58.00
1.90923	58.00
1.92590	58.00
1.94257	58.00
1.95923	58.00
1.97590	58.00
1.99257	58.00
2.00923	58.00
2.02590	58.00
2.04257	58.00
2.05923	58.00
2.07590	58.00
2.09257	58.00
2.10923	58.00
2.12590	58.00
2.14257	58.00
2.15923	58.00
2.17590	58.00
2.19257	58.00
2.20923	58.00
2.22590	58.00
2.24257	58.00
2.25923	58.00
2.27590	58.00
2.29257	58.00
2.30923	58.00
2.32590	58.00
2.34257	58.00
2.35923	58.00
2.37590	58.00
2.39257	57.99
2.40923	57.99
2.42590	58.00
2.44257	58.00
2.45923	58.00
2.47590	58.00
2.49257	58.00
2.50923	58.00
2.52590	57.98
2.54257	58.00
2.55923	58.00
2.57590	58.00
2.59257	58.00
2.60923	58.00
2.62590	58.00
2.64257	58.00
2.65923	58.00
2.67590	58.00
2.69257	58.00
2.70923	58.00
2.72590	58.00
2.74257	58.00
2.75923	58.00
2.77590	58.00
2.79257	58.00
2.80923	58.00
2.82590	58.00
2.84257	58.00
2.85923	58.00
2.87590	58.00
2.89257	58.00
2.90923	58.00
2.92590	58.00
2.94257	58.00
2.95923	58.00
2.97590	58.00
2.99257	58.00
3.00923	58.00
3.02590	58.00
3.04257	58.00
3.05923	58.00
3.07590	58.00
3.09257	58.00
3.10923	58.00
3.12590	58.00
3.14257	58.00
3.15923	58.00
3.17590	58.00
3.19257	58.00
3.20923	58.00
3.22590	58.00
3.24257	58.00
3.25923	58.00
3.27590	58.00
3.29257	58.00
3.30923	58.00
3.32590	58.00
3.34257	58.00
3.35923	58.00
3.37590	58.00
3.39257	58.00
3.40923	58.00
3.42590	58.00
3.44257	58.00
3.45923	58.00
3.47590	58.00
3.49257	58.00
3.50923	58.00
3.52590	58.00
3.54257	58.00
3.55923	58.00
3.57590	58.00
3.59257	58.00
3.60923	58.00
3.62590	58.00
3.64257	58.00
3.65923	58.00
3.67590	58.00
3.69257	58.00
3.70923	58.00
3.72590	58.00
3.74257	58.00
3.75923	58.00
3.77590	58.00
3.79257	58.00
3.80923	58.00
3.82590	58.00
3.84257	58.00
3.85923	58.00
3.87590	58.00
3.89257	58.00
3.90923	58.00
3.92590	58.00
3.94257	58.00
3.95923	58.00
3.97590	58.00
3.99257	58.00

[Status Trace (Carrier Gas Flow)]
Interval(msec)	1000
# of Points	240
Start Time(min)	0.009
End Time(min)	3.993
Intensity Units	
Intensity Multiplier	1
R.Time (min)	Intensity
0.00923	34.52
0.02590	34.52
0.04257	34.54
0.05923	34.55
0.07590	34.49
0.09257	34.52
0.10923	34.52
0.12590	34.52
0.14257	34.52
0.15923	34.52
0.17590	34.52
0.19257	34.52
0.20923	34.52
0.22590	34.52
0.24257	34.52
0.25923	34.52
0.27590	34.52
0.29257	34.52
0.30923	34.51
0.32590	34.52
0.34257	34.52
0.35923	34.52
0.37590	34.52
0.39257	34.52
0.40923	34.52
0.42590	34.52
0.44257	34.52
0.45923	34.52
0.47590	34.51
0.49257	34.52
0.50923	34.52
0.52590	34.52
0.54257	34.52
0.55923	34.52
0.57590	34.52
0.59257	34.52
0.60923	34.52
0.62590	34.52
0.64257	34.52
0.65923	34.52
0.67590	34.52
0.69257	34.52
0.70923	34.52
0.72590	34.52
0.74257	34.52
0.75923	34.52
0.77590	34.52
0.79257	34.52
0.80923	34.52
0.82590	34.52
0.84257	34.52
0.85923	34.52
0.87590	34.52
0.89257	34.52
0.90923	34.52
0.92590	34.52
0.94257	34.52
0.95923	34.52
0.97590	34.52
0.99257	34.52
1.00923	34.53
1.02590	34.52
1.04257	34.52
1.05923	34.51
1.07590	34.51
1.09257	34.51
1.10923	34.52
1.12590	34.51
1.14257	34.51
1.15923	34.52
1.17590	34.53
1.19257	34.52
1.20923	34.52
1.22590	34.51
1.24257	34.54
1.25923	34.51
1.27590	34.51
1.29257	34.52
1.30923	34.52
1.32590	34.53
1.34257	34.52
1.35923	34.51
1.37590	34.51
1.39257	34.50
1.40923	34.53
1.42590	34.52
1.44257	34.51
1.45923	34.51
1.47590	34.51
1.49257	34.52
1.50923	34.51
1.52590	34.52
1.54257	34.53
1.55923	34.52
1.57590	34.53
1.59257	34.52
1.60923	34.52
1.62590	34.53
1.64257	34.52
1.65923	34.51
1.67590	34.52
1.69257	34.52
1.70923	34.51
1.72590	34.52
1.74257	34.51
1.75923	34.53
1.77590	34.52
1.79257	34.52
1.80923	34.53
1.82590	34.51
1.84257	34.52
1.85923	34.52
1.87590	34.52
1.89257	34.52
1.90923	34.52
1.92590	34.52
1.94257	34.52
1.95923	34.52
1.97590	34.52
1.99257	34.52
2.00923	34.52
2.02590	34.51
2.04257	34.52
2.05923	34.52
2.07590	34.52
2.09257	34.52
2.10923	34.52
2.12590	34.52
2.14257	34.52
2.15923	34.52
2.17590	34.53
2.19257	34.52
2.20923	34.52
2.22590	34.52
2.24257	34.52
2.25923	34.51
2.27590	34.52
2.29257	34.52
2.30923	34.52
2.32590	34.52
2.34257	34.51
2.35923	34.52
2.37590	34.51
2.39257	34.52
2.40923	34.52
2.42590	34.51
2.44257	34.52
2.45923	34.51
2.47590	34.52
2.49257	34.53
2.50923	34.51
2.52590	34.52
2.54257	34.52
2.55923	34.52
2.57590	34.52
2.59257	34.52
2.60923	34.52
2.62590	34.52
2.64257	34.52
2.65923	34.52
2.67590	34.52
2.69257	34.52
2.70923	34.52
2.72590	34.52
2.74257	34.52
2.75923	34.52
2.77590	34.52
2.79257	34.52
2.80923	34.52
2.82590	34.52
2.84257	34.52
2.85923	34.52
2.87590	34.52
2.89257	34.52
2.90923	34.52
2.92590	34.52
2.94257	34.52
2.95923	34.52
2.97590	34.52
2.99257	34.52
3.00923	34.52
3.02590	34.52
3.04257	34.52
3.05923	34.52
3.07590	34.52
3.09257	34.52
3.10923	34.52
3.12590	34.52
3.14257	34.52
3.15923	34.52
3.17590	34.52
3.19257	34.52
3.20923	34.52
3.22590	34.52
3.24257	34.52
3.25923	34.52
3.27590	34.52
3.29257	34.52
3.30923	34.52
3.32590	34.52
3.34257	34.52
3.35923	34.52
3.37590	34.52
3.39257	34.52
3.40923	34.52
3.42590	34.52
3.44257	34.52
3.45923	34.52
3.47590	34.52
3.49257	34.51
3.50923	34.50
3.52590	34.52
3.54257	34.52
3.55923	34.51
3.57590	34.53
3.59257	34.52
3.60923	34.53
3.62590	34.52
3.64257	34.52
3.65923	34.52
3.67590	34.51
3.69257	34.51
3.70923	34.51
3.72590	34.51
3.74257	34.52
3.75923	34.53
3.77590	34.53
3.79257	34.53
3.80923	34.52
3.82590	34.52
3.84257	34.52
3.85923	34.52
3.87590	34.53
3.89257	34.52
3.90923	34.52
3.92590	34.52
3.94257	34.52
3.95923	34.52
3.97590	34.52
3.99257	34.52

[Status Trace (Column Flow)]
Interval(msec)	1000
# of Points	240
Start Time(min)	0.009
End Time(min)	3.993
Intensity Units	
Intensity Multiplier	1
R.Time (min)	Intensity
0.00923	5.51
0.02590	5.20
0.04257	5.42
0.05923	5.67
0.07590	5.68
0.09257	5.52
0.10923	5.51
0.12590	5.52
0.14257	5.52
0.15923	5.52
0.17590	5.52
0.19257	5.52
0.20923	5.52
0.22590	5.52
0.24257	5.52
0.25923	5.52
0.27590	5.52
0.29257	5.52
0.30923	5.52
0.32590	5.52
0.34257	5.52
0.35923	5.52
0.37590	5.52
0.39257	5.52
0.40923	5.52
0.42590	5.52
0.44257	5.52
0.45923	5.52
0.47590	5.52
0.49257	5.52
0.50923	5.52
0.52590	5.52
0.54257	5.52
0.55923	5.52
0.57590	5.52
0.59257	5.52
0.60923	5.52
0.62590	5.52
0.64257	5.52
0.65923	5.52
0.67590	5.52
0.69257	5.52
0.70923	5.52
0.72590	5.52
0.74257	5.52
0.75923	5.52
0.77590	5.52
0.79257	5.52
0.80923	5.52
0.82590	5.52
0.84257	5.52
0.85923	5.52
0.87590	5.52
0.89257	5.52
0.90923	5.52
0.92590	5.52
0.94257	5.52
0.95923	5.52
0.97590	5.52
0.99257	5.52
1.00923	5.52
1.02590	5.52
1.04257	5.52
1.05923	5.52
1.07590	5.52
1.09257	5.52
1.10923	5.52
1.12590	5.52
1.14257	5.52
1.15923	5.52
1.17590	5.52
1.19257	5.52
1.20923	5.52
1.22590	5.52
1.24257	5.52
1.25923	5.52
1.27590	5.52
1.29257	5.52
1.30923	5.52
1.32590	5.52
1.34257	5.52
1.35923	5.52
1.37590	5.52
1.39257	5.52
1.40923	5.52
1.42590	5.52
1.44257	5.52
1.45923	5.52
1.47590	5.52
1.49257	5.52
1.50923	5.52
1.52590	5.52
1.54257	5.52
1.55923	5.52
1.57590	5.52
1.59257	5.52
1.60923	5.51
1.62590	5.51
1.64257	5.51
1.65923	5.50
1.67590	5.49
1.69257	5.48
1.70923	5.46
1.72590	5.45
1.74257	5.44
1.75923	5.43
1.77590	5.42
1.79257	5.41
1.80923	5.40
1.82590	5.39
1.84257	5.38
1.85923	5.37
1.87590	5.36
1.89257	5.35
1.90923	5.34
1.92590	5.33
1.94257	5.32
1.95923	5.31
1.97590	5.30
1.99257	5.29
2.00923	5.28
2.02590	5.28
2.04257	5.27
2.05923	5.26
2.07590	5.25
2.09257	5.24
2.10923	5.23
2.12590	5.22
2.14257	5.21
2.15923	5.20
2.17590	5.19
2.19257	5.18
2.20923	5.17
2.22590	5.16
2.24257	5.15
2.25923	5.14
2.27590	5.13
2.29257	5.13
2.30923	5.11
2.32590	5.11
2.34257	5.10
2.35923	5.09
2.37590	5.08
2.39257	5.08
2.40923	5.08
2.42590	5.08
2.44257	5.08
2.45923	5.08
2.47590	5.08
2.49257	5.08
2.50923	5.08
2.52590	5.08
2.54257	5.08
2.55923	5.08
2.57590	5.08
2.59257	5.08
2.60923	5.08
2.62590	5.08
2.64257	5.08
2.65923	5.08
2.67590	5.08
2.69257	5.08
2.70923	5.08
2.72590	5.08
2.74257	5.08
2.75923	5.08
2.77590	5.08
2.79257	5.08
2.80923	5.08
2.82590	5.08
2.84257	5.08
2.85923	5.08
2.87590	5.08
2.89257	5.08
2.90923	5.07
2.92590	5.07
2.94257	5.07
2.95923	5.07
2.97590	5.07
2.99257	5.07
3.00923	5.07
3.02590	5.07
3.04257	5.07
3.05923	5.07
3.07590	5.07
3.09257	5.07
3.10923	5.07
3.12590	5.07
3.14257	5.07
3.15923	5.07
3.17590	5.07
3.19257	5.07
3.20923	5.07
3.22590	5.07
3.24257	5.07
3.25923	5.07
3.27590	5.07
3.29257	5.07
3.30923	5.07
3.32590	5.07
3.34257	5.07
3.35923	5.07
3.37590	5.07
3.39257	5.07
3.40923	5.07
3.42590	5.07
3.44257	5.07
3.45923	5.07
3.47590	5.07
3.49257	5.07
3.50923	5.07
3.52590	5.07
3.54257	5.07
3.55923	5.07
3.57590	5.07
3.59257	5.07
3.60923	5.07
3.62590	5.07
3.64257	5.07
3.65923	5.07
3.67590	5.07
3.69257	5.07
3.70923	5.07
3.72590	5.07
3.74257	5.07
3.75923	5.07
3.77590	5.07
3.79257	5.07
3.80923	5.07
3.82590	5.07
3.84257	5.07
3.85923	5.07
3.87590	5.07
3.89257	5.07
3.90923	5.07
3.92590	5.07
3.94257	5.07
3.95923	5.07
3.97590	5.07
3.99257	5.07

[Status Trace (Linear Velocity)]
Interval(msec)	1000
# of Points	240
Start Time(min)	0.009
End Time(min)	3.993
Intensity Units	
Intensity Multiplier	1
R.Time (min)	Intensity
0.00923	39.01
0.02590	37.21
0.04257	38.50
0.05923	39.90
0.07590	39.95
0.09257	39.05
0.10923	39.00
0.12590	39.02
0.14257	39.02
0.15923	39.02
0.17590	39.02
0.19257	39.02
0.20923	39.02
0.22590	39.02
0.24257	39.02
0.25923	39.01
0.27590	39.01
0.29257	39.01
0.30923	39.02
0.32590	39.02
0.34257	39.02
0.35923	39.02
0.37590	39.02
0.39257	39.02
0.40923	39.02
0.42590	39.02
0.44257	39.02
0.45923	39.02
0.47590	39.02
0.49257	39.02
0.50923	39.02
0.52590	39.02
0.54257	39.02
0.55923	39.02
0.57590	39.02
0.59257	39.02
0.60923	39.02
0.62590	39.02
0.64257	39.02
0.65923	39.02
0.67590	39.02
0.69257	39.02
0.70923	39.02
0.72590	39.02
0.74257	39.02
0.75923	39.02
0.77590	39.02
0.79257	39.02
0.80923	39.02
0.82590	39.02
0.84257	39.02
0.85923	39.02
0.87590	39.02
0.89257	39.02
0.90923	39.02
0.92590	39.02
0.94257	39.02
0.95923	39.02
0.97590	39.02
0.99257	39.02
1.00923	39.02
1.02590	39.01
1.04257	39.01
1.05923	39.01
1.07590	39.01
1.09257	39.01
1.10923	39.02
1.12590	39.02
1.14257	39.02
1.15923	39.02
1.17590	39.02
1.19257	39.02
1.20923	39.02
1.22590	39.02
1.24257	39.02
1.25923	39.02
1.27590	39.02
1.29257	39.01
1.30923	39.01
1.32590	39.01
1.34257	39.01
1.35923	39.01
1.37590	39.01
1.39257	39.01
1.40923	39.01
1.42590	39.01
1.44257	39.01
1.45923	39.02
1.47590	39.02
1.49257	39.02
1.50923	39.02
1.52590	39.02
1.54257	39.02
1.55923	39.02
1.57590	39.01
1.59257	39.01
1.60923	39.01
1.62590	39.00
1.64257	38.98
1.65923	38.96
1.67590	38.93
1.69257	38.89
1.70923	38.85
1.72590	38.82
1.74257	38.79
1.75923	38.76
1.77590	38.73
1.79257	38.70
1.80923	38.66
1.82590	38.63
1.84257	38.60
1.85923	38.57
1.87590	38.54
1.89257	38.51
1.90923	38.48
1.92590	38.45
1.94257	38.42
1.95923	38.39
1.97590	38.36
1.99257	38.33
2.00923	38.30
2.02590	38.27
2.04257	38.24
2.05923	38.21
2.07590	38.18
2.09257	38.15
2.10923	38.12
2.12590	38.09
2.14257	38.06
2.15923	38.03
2.17590	38.00
2.19257	37.97
2.20923	37.94
2.22590	37.91
2.24257	37.88
2.25923	37.85
2.27590	37.83
2.29257	37.80
2.30923	37.76
2.32590	37.73
2.34257	37.71
2.35923	37.68
2.37590	37.66
2.39257	37.65
2.40923	37.65
2.42590	37.66
2.44257	37.66
2.45923	37.66
2.47590	37.66
2.49257	37.65
2.50923	37.65
2.52590	37.64
2.54257	37.65
2.55923	37.65
2.57590	37.65
2.59257	37.65
2.60923	37.65
2.62590	37.65
2.64257	37.65
2.65923	37.64
2.67590	37.64
2.69257	37.64
2.70923	37.64
2.72590	37.64
2.74257	37.64
2.75923	37.64
2.77590	37.64
2.79257	37.64
2.80923	37.64
2.82590	37.64
2.84257	37.64
2.85923	37.64
2.87590	37.64
2.89257	37.64
2.90923	37.63
2.92590	37.63
2.94257	37.63
2.95923	37.63
2.97590	37.63
2.99257	37.63
3.00923	37.63
3.02590	37.63
3.04257	37.62
3.05923	37.62
3.07590	37.62
3.09257	37.62
3.10923	37.62
3.12590	37.62
3.14257	37.62
3.15923	37.62
3.17590	37.62
3.19257	37.62
3.20923	37.62
3.22590	37.62
3.24257	37.62
3.25923	37.62
3.27590	37.62
3.29257	37.62
3.30923	37.62
3.32590	37.62
3.34257	37.62
3.35923	37.62
3.37590	37.62
3.39257	37.62
3.40923	37.62
3.42590	37.62
3.44257	37.62
3.45923	37.62
3.47590	37.62
3.49257	37.62
3.50923	37.62
3.52590	37.62
3.54257	37.62
3.55923	37.63
3.57590	37.63
3.59257	37.63
3.60923	37.63
3.62590	37.63
3.64257	37.63
3.65923	37.63
3.67590	37.63
3.69257	37.63
3.70923	37.63
3.72590	37.63
3.74257	37.63
3.75923	37.63
3.77590	37.63
3.79257	37.63
3.80923	37.63
3.82590	37.63
3.84257	37.63
3.85923	37.63
3.87590	37.63
3.89257	37.63
3.90923	37.63
3.92590	37.62
3.94257	37.63
3.95923	37.63
3.97590	37.63
3.99257	37.63

