[Header]
Application Name	LabSolutions
Version	5.110
Data File Name	C:\Users\User\Desktop\GC Analyses\Jack\UIC Prairie Sampling\8.12.22\220812_104.gcd
Output Date	10/14/2022
Output Time	2:33:57 PM

[File Information]
Type	Data File
Generated	10/14/2022 12:58:06 PM
Generated by	System Administrator
Modified	10/14/2022 1:02:52 PM
Modified by	System Administrator

[Sample Information]
Operator Name	System Administrator
Acquired	10/14/2022 12:58:52 PM
Sample Type	1:Standard
Level	1
Sample Name	220812_UICPrairie
Sample ID	220812_UICPrairie
ISTD Amount1	1
ISTD Amount2	1
ISTD Amount3	1
ISTD Amount4	1
ISTD Amount5	1
ISTD Amount6	1
ISTD Amount7	1
ISTD Amount8	1
ISTD Amount9	1
ISTD Amount10	1
ISTD Amount11	1
ISTD Amount12	1
ISTD Amount13	1
ISTD Amount14	1
ISTD Amount15	1
ISTD Amount16	1
ISTD Amount17	1
ISTD Amount18	1
ISTD Amount19	1
ISTD Amount20	1
ISTD Amount21	1
ISTD Amount22	1
ISTD Amount23	1
ISTD Amount24	1
ISTD Amount25	1
ISTD Amount26	1
ISTD Amount27	1
ISTD Amount28	1
ISTD Amount29	1
ISTD Amount30	1
ISTD Amount31	1
ISTD Amount32	1
Sample Amount	1
Dilution Factor	1
Vial#	1
Injection Volume	1
Injection Count	1
Bar Code	

[Original Files]
Data File	C:\Users\User\Desktop\GC Analyses\Jack\UIC Prairie Sampling\8.12.22\220812_104.gcd
Method File	C:\LabSolutions\Data\GHG_4min_2022\ghg3_togas_w_acet_4 min_new_int.gcm
Batch File	
Report Format File	c:\LabSolutions\System\DEFAULT.lsr

[File Description]


[Configuration]
Instrument Name	C0B7VH3-Instrument1
Instrument #	1
Line #	1
# of Detectors	3
Detector ID	DET#1	DET#2	DET#3
Detector Name	FID	PTCD	ECD
# of Channels	1	1	1

[Peak Table(Ch1)]
# of Peaks	3
Peak#	R.Time	I.Time	F.Time	Area	Height	A/H	Conc.	Mark	ID#	Name	k'	Plate #	Plate Ht.	Tailing	Resolution	Sep.Factor	Area Ratio	Height Ratio	Conc. %	Norm Conc.
1	1.472	1.443	1.538	4245	1495	2.840	100.000	   	1	CO	0.000	5934	25.277	1.607	0.000	0.000	0	0	16.667	16.667
2	1.575	1.538	1.648	20589	10420	1.976	100.000	 V 	2	CH4	0.070	11713	12.807	1.122	1.525	0.000	0	0	16.667	16.667
3	2.004	1.952	2.348	2104467	1024918	2.053	400.000	   	3	CO2	0.361	17973	8.346	1.173	7.272	5.179	0	0	66.667	66.667

[Peak Table(Ch2)]
# of Peaks	0

[Peak Table(Ch3)]
# of Peaks	3
Peak#	R.Time	I.Time	F.Time	Area	Height	A/H	Conc.	Mark	ID#	Name	k'	Plate #	Plate Ht.	Tailing	Resolution	Sep.Factor	Area Ratio	Height Ratio	Conc. %	Norm Conc.
1	2.458	1.124	2.656	18034	468	38.555	0.000	   			0.000	82	1838.905	0.580	0.000	0.000	0	0	0.000	0.000
2	2.891	2.675	3.030	65661	16382	4.008	1.000	   	1	N2O	0.176	12520	11.981	1.550	0.726	0.000	0	0	50.000	50.000
3	3.181	3.030	3.995	18670	586	31.846	1.000	 V 	2	SF6	0.294	187	803.651	0.000	0.560	1.669	0	0	50.000	50.000

[Compound Results(Ch1)]
# of IDs	6
ID#	Name	R.Time	Area	Height	Conc.	Curve	3rd	2nd	1st	Constant	Area Ratio	Height Ratio	Conc. %	Norm Conc.
1	CO	1.472	4245	1495	100.000	Linear	0.000000e+00	0.000000e+00	4.244796e+001	0.000000e+00	0	0	16.667	16.667
2	CH4	1.575	20589	10420	100.000	Linear	0.000000e+00	0.000000e+00	2.058866e+002	0.000000e+00	0	0	16.667	16.667
3	CO2	2.004	2104467	1024918	400.000	Linear	0.000000e+00	0.000000e+00	5.261167e+003	0.000000e+00	0	0	66.667	66.667
4	Ethylene	0.000	0	0	0.000	Linear	0.000000e+00	0.000000e+00	0.000000e+00	0.000000e+00	0	0	0.000	0.000
5	Acetylene	0.000	0	0	0.000	Linear	0.000000e+00	0.000000e+00	0.000000e+00	0.000000e+00	0	0	0.000	0.000
6	Ethane	0.000	0	0	0.000	Linear	0.000000e+00	0.000000e+00	0.000000e+00	0.000000e+00	0	0	0.000	0.000

[Compound Results(Ch2)]
# of IDs	5
ID#	Name	R.Time	Area	Height	Conc.	Curve	3rd	2nd	1st	Constant	Area Ratio	Height Ratio	Conc. %	Norm Conc.
1	Hydrogen	0.000	0	0	0.000	Linear	0.000000e+00	0.000000e+00	0.000000e+00	0.000000e+00	0	0	0.000	0.000
2	Oxygen	0.000	0	0	0.000	Linear	0.000000e+00	0.000000e+00	0.000000e+00	0.000000e+00	0	0	0.000	0.000
3	Nitrogen	0.000	0	0	0.000	Linear	0.000000e+00	0.000000e+00	0.000000e+00	0.000000e+00	0	0	0.000	0.000
4	Methane	0.000	0	0	0.000	Linear	0.000000e+00	0.000000e+00	0.000000e+00	0.000000e+00	0	0	0.000	0.000
5	Carbon Monoxide	0.000	0	0	0.000	Linear	0.000000e+00	0.000000e+00	0.000000e+00	0.000000e+00	0	0	0.000	0.000

[Compound Results(Ch3)]
# of IDs	2
ID#	Name	R.Time	Area	Height	Conc.	Curve	3rd	2nd	1st	Constant	Area Ratio	Height Ratio	Conc. %	Norm Conc.
1	N2O	2.891	65661	16382	1.000	Linear	0.000000e+00	0.000000e+00	6.566117e+004	0.000000e+00	0	0	50.000	50.000
2	SF6	3.181	18670	586	1.000	Linear	0.000000e+00	0.000000e+00	1.866979e+004	0.000000e+00	0	0	50.000	50.000

[Group Results(Ch1)]
# of Groups	0

[Group Results(Ch2)]
# of Groups	0

[Group Results(Ch3)]
# of Groups	0

[Chromatogram (Ch1)]
Interval(msec)	220
# of Points	1091
Start Time(min)	0.002
End Time(min)	3.998
R.Time (min)	Intensity
0.00167	-7
0.00533	-1
0.00900	9
0.01267	20
0.01633	28
0.02000	28
0.02367	17
0.02733	0
0.03100	-16
0.03467	-27
0.03833	-32
0.04200	-31
0.04567	-29
0.04933	-25
0.05300	-18
0.05667	-13
0.06033	-11
0.06400	-13
0.06767	-11
0.07133	-9
0.07500	-11
0.07867	-13
0.08233	-14
0.08600	-12
0.08967	-10
0.09333	-10
0.09700	-14
0.10067	-18
0.10433	-20
0.10800	-22
0.11167	-22
0.11533	-22
0.11900	-20
0.12267	-17
0.12633	-16
0.13000	-17
0.13367	-20
0.13733	-20
0.14100	-18
0.14467	-16
0.14833	-15
0.15200	-17
0.15567	-22
0.15933	-23
0.16300	-20
0.16667	-22
0.17033	-24
0.17400	-22
0.17767	-14
0.18133	-6
0.18500	-3
0.18867	-4
0.19233	-5
0.19600	-6
0.19967	-8
0.20333	-10
0.20700	-15
0.21067	-18
0.21433	-19
0.21800	-17
0.22167	-17
0.22533	-16
0.22900	-16
0.23267	-14
0.23633	-13
0.24000	-15
0.24367	-17
0.24733	-16
0.25100	-11
0.25467	-6
0.25833	-3
0.26200	-2
0.26567	-6
0.26933	-13
0.27300	-22
0.27667	-31
0.28033	-36
0.28400	-33
0.28767	-26
0.29133	-19
0.29500	-16
0.29867	-19
0.30233	-27
0.30600	-37
0.30967	-46
0.31333	-49
0.31700	-47
0.32067	-43
0.32433	-38
0.32800	-34
0.33167	-31
0.33533	-23
0.33900	-13
0.34267	-4
0.34633	-0
0.35000	-1
0.35367	-7
0.35733	-15
0.36100	-21
0.36467	-27
0.36833	-29
0.37200	-30
0.37567	-33
0.37933	-36
0.38300	-37
0.38667	-37
0.39033	-36
0.39400	-37
0.39767	-39
0.40133	-42
0.40500	-43
0.40867	-41
0.41233	-39
0.41600	-41
0.41967	-44
0.42333	-40
0.42700	-32
0.43067	-23
0.43433	-18
0.43800	-17
0.44167	-19
0.44533	-25
0.44900	-29
0.45267	-29
0.45633	-29
0.46000	-31
0.46367	-34
0.46733	-37
0.47100	-40
0.47467	-44
0.47833	-46
0.48200	-43
0.48567	-36
0.48933	-30
0.49300	-25
0.49667	-19
0.50033	-19
0.50400	-23
0.50767	-28
0.51133	-31
0.51500	-31
0.51867	-32
0.52233	-34
0.52600	-37
0.52967	-36
0.53333	-33
0.53700	-33
0.54067	-31
0.54433	-32
0.54800	-37
0.55167	-43
0.55533	-46
0.55900	-45
0.56267	-40
0.56633	-34
0.57000	-32
0.57367	-35
0.57733	-41
0.58100	-45
0.58467	-48
0.58833	-46
0.59200	-45
0.59567	-44
0.59933	-42
0.60300	-40
0.60667	-40
0.61033	-44
0.61400	-47
0.61767	-45
0.62133	-41
0.62500	-36
0.62867	-35
0.63233	-36
0.63600	-38
0.63967	-39
0.64333	-40
0.64700	-41
0.65067	-43
0.65433	-44
0.65800	-46
0.66167	-48
0.66533	-50
0.66900	-51
0.67267	-51
0.67633	-49
0.68000	-49
0.68367	-53
0.68733	-56
0.69100	-59
0.69467	-61
0.69833	-64
0.70200	-65
0.70567	-63
0.70933	-60
0.71300	-56
0.71667	-52
0.72033	-45
0.72400	-42
0.72767	-46
0.73133	-51
0.73500	-53
0.73867	-56
0.74233	-58
0.74600	-60
0.74967	-62
0.75333	-65
0.75700	-70
0.76067	-70
0.76433	-65
0.76800	-55
0.77167	-49
0.77533	-45
0.77900	-42
0.78267	-41
0.78633	-43
0.79000	-47
0.79367	-51
0.79733	-50
0.80100	-53
0.80467	-57
0.80833	-61
0.81200	-59
0.81567	-55
0.81933	-51
0.82300	-46
0.82667	-41
0.83033	-34
0.83400	-33
0.83767	-38
0.84133	-43
0.84500	-48
0.84867	-54
0.85233	-61
0.85600	-65
0.85967	-67
0.86333	-67
0.86700	-64
0.87067	-61
0.87433	-56
0.87800	-54
0.88167	-56
0.88533	-61
0.88900	-66
0.89267	-68
0.89633	-66
0.90000	-58
0.90367	-48
0.90733	-41
0.91100	-39
0.91467	-40
0.91833	-42
0.92200	-48
0.92567	-56
0.92933	-63
0.93300	-66
0.93667	-69
0.94033	-72
0.94400	-71
0.94767	-71
0.95133	-71
0.95500	-68
0.95867	-61
0.96233	-53
0.96600	-47
0.96967	-49
0.97333	-57
0.97700	-68
0.98067	-81
0.98433	-95
0.98800	-105
0.99167	-108
0.99533	-106
0.99900	-101
1.00267	-93
1.00633	-87
1.01000	-83
1.01367	-78
1.01733	-71
1.02100	-64
1.02467	-61
1.02833	-63
1.03200	-65
1.03567	-66
1.03933	-67
1.04300	-68
1.04667	-68
1.05033	-66
1.05400	-62
1.05767	-58
1.06133	-55
1.06500	-54
1.06867	-55
1.07233	-57
1.07600	-55
1.07967	-52
1.08333	-51
1.08700	-49
1.09067	-45
1.09433	-42
1.09800	-44
1.10167	-50
1.10533	-56
1.10900	-59
1.11267	-57
1.11633	-54
1.12000	-52
1.12367	-50
1.12733	-48
1.13100	-46
1.13467	-45
1.13833	-42
1.14200	-39
1.14567	-39
1.14933	-41
1.15300	-43
1.15667	-43
1.16033	-44
1.16400	-44
1.16767	-41
1.17133	-33
1.17500	-19
1.17867	-6
1.18233	3
1.18600	3
1.18967	-3
1.19333	-13
1.19700	-25
1.20067	-37
1.20433	-48
1.20800	-54
1.21167	-53
1.21533	-47
1.21900	-40
1.22267	-31
1.22633	-24
1.23000	-20
1.23367	-24
1.23733	-33
1.24100	-42
1.24467	-48
1.24833	-54
1.25200	-61
1.25567	-65
1.25933	-66
1.26300	-63
1.26667	-59
1.27033	-55
1.27400	-53
1.27767	-52
1.28133	-49
1.28500	-46
1.28867	-43
1.29233	-41
1.29600	-38
1.29967	-32
1.30333	-26
1.30700	-23
1.31067	-26
1.31433	-35
1.31800	-43
1.32167	-49
1.32533	-52
1.32900	-55
1.33267	-55
1.33633	-53
1.34000	-48
1.34367	-41
1.34733	-39
1.35100	-41
1.35467	-43
1.35833	-44
1.36200	-41
1.36567	-34
1.36933	-26
1.37300	-21
1.37667	-20
1.38033	-24
1.38400	-32
1.38767	-39
1.39133	-47
1.39500	-51
1.39867	-51
1.40233	-47
1.40600	-43
1.40967	-42
1.41333	-41
1.41700	-42
1.42067	-46
1.42433	-48
1.42800	-48
1.43167	-47
1.43533	-48
1.43900	-48
1.44267	-26
1.44633	87
1.45000	342
1.45367	676
1.45733	989
1.46100	1222
1.46467	1367
1.46833	1441
1.47200	1463
1.47567	1453
1.47933	1417
1.48300	1354
1.48667	1258
1.49033	1128
1.49400	974
1.49767	812
1.50133	654
1.50500	511
1.50867	390
1.51233	289
1.51600	209
1.51967	146
1.52333	100
1.52700	65
1.53067	37
1.53433	17
1.53800	8
1.54167	51
1.54533	299
1.54900	1038
1.55267	2471
1.55633	4431
1.56000	6483
1.56367	8260
1.56733	9582
1.57100	10335
1.57467	10369
1.57833	9602
1.58200	8184
1.58567	6465
1.58933	4795
1.59300	3387
1.59667	2307
1.60033	1527
1.60400	986
1.60767	620
1.61133	381
1.61500	232
1.61867	142
1.62233	87
1.62600	52
1.62967	25
1.63333	0
1.63700	-21
1.64067	-41
1.64433	-56
1.64800	-64
1.65167	-67
1.65533	-67
1.65900	-68
1.66267	-67
1.66633	-66
1.67000	-67
1.67367	-69
1.67733	-71
1.68100	-75
1.68467	-79
1.68833	-79
1.69200	-78
1.69567	-80
1.69933	-84
1.70300	-89
1.70667	-90
1.71033	-90
1.71400	-91
1.71767	-91
1.72133	-89
1.72500	-84
1.72867	-80
1.73233	-79
1.73600	-77
1.73967	-78
1.74333	-80
1.74700	-84
1.75067	-86
1.75433	-85
1.75800	-80
1.76167	-72
1.76533	-65
1.76900	-66
1.77267	-71
1.77633	-78
1.78000	-84
1.78367	-90
1.78733	-95
1.79100	-97
1.79467	-95
1.79833	-93
1.80200	-91
1.80567	-88
1.80933	-84
1.81300	-81
1.81667	-80
1.82033	-82
1.82400	-83
1.82767	-81
1.83133	-78
1.83500	-77
1.83867	-76
1.84233	-80
1.84600	-86
1.84967	-92
1.85333	-97
1.85700	-101
1.86067	-102
1.86433	-100
1.86800	-97
1.87167	-95
1.87533	-94
1.87900	-90
1.88267	-83
1.88633	-77
1.89000	-72
1.89367	-68
1.89733	-69
1.90100	-77
1.90467	-87
1.90833	-97
1.91200	-105
1.91567	-108
1.91933	-107
1.92300	-104
1.92667	-100
1.93033	-97
1.93400	-94
1.93767	-91
1.94133	-88
1.94500	-84
1.94867	-80
1.95233	-74
1.95600	-59
1.95967	12
1.96333	467
1.96700	2862
1.97067	12420
1.97433	41397
1.97800	108956
1.98167	230898
1.98533	404318
1.98900	603150
1.99267	791091
1.99633	936284
2.00000	1017465
2.00367	1024880
2.00733	960848
2.01100	841295
2.01467	691123
2.01833	536466
2.02200	397196
2.02567	283536
2.02933	197238
2.03300	135024
2.03667	91765
2.04033	62396
2.04400	42753
2.04767	29712
2.05133	21065
2.05500	15309
2.05867	11434
2.06233	8792
2.06600	6955
2.06967	5647
2.07333	4698
2.07700	3993
2.08067	3454
2.08433	3031
2.08800	2693
2.09167	2419
2.09533	2189
2.09900	1992
2.10267	1818
2.10633	1668
2.11000	1539
2.11367	1424
2.11733	1319
2.12100	1223
2.12467	1140
2.12833	1066
2.13200	1001
2.13567	943
2.13933	895
2.14300	856
2.14667	825
2.15033	796
2.15400	762
2.15767	722
2.16133	683
2.16500	646
2.16867	613
2.17233	584
2.17600	558
2.17967	531
2.18333	505
2.18700	478
2.19067	453
2.19433	433
2.19800	418
2.20167	409
2.20533	404
2.20900	398
2.21267	391
2.21633	385
2.22000	380
2.22367	376
2.22733	370
2.23100	365
2.23467	358
2.23833	348
2.24200	335
2.24567	324
2.24933	316
2.25300	311
2.25667	307
2.26033	303
2.26400	297
2.26767	287
2.27133	278
2.27500	269
2.27867	258
2.28233	250
2.28600	244
2.28967	238
2.29333	235
2.29700	233
2.30067	231
2.30433	227
2.30800	222
2.31167	216
2.31533	212
2.31900	209
2.32267	206
2.32633	206
2.33000	206
2.33367	208
2.33733	211
2.34100	211
2.34467	207
2.34833	200
2.35200	194
2.35567	188
2.35933	181
2.36300	174
2.36667	170
2.37033	169
2.37400	168
2.37767	164
2.38133	157
2.38500	152
2.38867	145
2.39233	139
2.39600	136
2.39967	133
2.40333	131
2.40700	129
2.41067	126
2.41433	123
2.41800	120
2.42167	118
2.42533	121
2.42900	128
2.43267	135
2.43633	142
2.44000	144
2.44367	141
2.44733	137
2.45100	134
2.45467	131
2.45833	126
2.46200	120
2.46567	114
2.46933	110
2.47300	106
2.47667	100
2.48033	94
2.48400	92
2.48767	96
2.49133	103
2.49500	107
2.49867	107
2.50233	103
2.50600	98
2.50967	95
2.51333	90
2.51700	85
2.52067	81
2.52433	78
2.52800	79
2.53167	80
2.53533	81
2.53900	81
2.54267	79
2.54633	77
2.55000	79
2.55367	84
2.55733	89
2.56100	91
2.56467	88
2.56833	82
2.57200	77
2.57567	74
2.57933	70
2.58300	64
2.58667	62
2.59033	63
2.59400	66
2.59767	69
2.60133	69
2.60500	68
2.60867	67
2.61233	65
2.61600	65
2.61967	66
2.62333	65
2.62700	60
2.63067	53
2.63433	49
2.63800	47
2.64167	47
2.64533	48
2.64900	47
2.65267	47
2.65633	49
2.66000	52
2.66367	54
2.66733	56
2.67100	60
2.67467	64
2.67833	65
2.68200	64
2.68567	62
2.68933	58
2.69300	52
2.69667	49
2.70033	48
2.70400	49
2.70767	49
2.71133	50
2.71500	52
2.71867	50
2.72233	47
2.72600	44
2.72967	42
2.73333	45
2.73700	47
2.74067	42
2.74433	38
2.74800	39
2.75167	41
2.75533	43
2.75900	43
2.76267	40
2.76633	39
2.77000	38
2.77367	37
2.77733	39
2.78100	43
2.78467	45
2.78833	44
2.79200	43
2.79567	41
2.79933	37
2.80300	30
2.80667	20
2.81033	13
2.81400	11
2.81767	12
2.82133	13
2.82500	14
2.82867	17
2.83233	19
2.83600	19
2.83967	18
2.84333	16
2.84700	14
2.85067	16
2.85433	20
2.85800	22
2.86167	25
2.86533	31
2.86900	40
2.87267	44
2.87633	43
2.88000	39
2.88367	39
2.88733	39
2.89100	38
2.89467	36
2.89833	32
2.90200	26
2.90567	19
2.90933	13
2.91300	8
2.91667	5
2.92033	4
2.92400	5
2.92767	7
2.93133	7
2.93500	5
2.93867	2
2.94233	-2
2.94600	-5
2.94967	-6
2.95333	-7
2.95700	-5
2.96067	0
2.96433	5
2.96800	5
2.97167	4
2.97533	5
2.97900	5
2.98267	8
2.98633	13
2.99000	18
2.99367	23
2.99733	26
3.00100	27
3.00467	27
3.00833	28
3.01200	32
3.01567	38
3.01933	38
3.02300	33
3.02667	27
3.03033	24
3.03400	24
3.03767	22
3.04133	18
3.04500	13
3.04867	9
3.05233	5
3.05600	2
3.05967	1
3.06333	1
3.06700	4
3.07067	5
3.07433	1
3.07800	-5
3.08167	-7
3.08533	-8
3.08900	-6
3.09267	-5
3.09633	-7
3.10000	-12
3.10367	-14
3.10733	-14
3.11100	-10
3.11467	-5
3.11833	1
3.12200	6
3.12567	9
3.12933	7
3.13300	1
3.13667	-7
3.14033	-11
3.14400	-13
3.14767	-12
3.15133	-10
3.15500	-9
3.15867	-8
3.16233	-3
3.16600	4
3.16967	9
3.17333	10
3.17700	10
3.18067	13
3.18433	16
3.18800	17
3.19167	13
3.19533	8
3.19900	5
3.20267	4
3.20633	2
3.21000	-0
3.21367	-1
3.21733	-0
3.22100	2
3.22467	1
3.22833	-2
3.23200	-5
3.23567	-3
3.23933	3
3.24300	12
3.24667	17
3.25033	16
3.25400	10
3.25767	3
3.26133	-3
3.26500	-9
3.26867	-14
3.27233	-17
3.27600	-20
3.27967	-20
3.28333	-20
3.28700	-16
3.29067	-11
3.29433	-6
3.29800	-4
3.30167	-6
3.30533	-6
3.30900	-5
3.31267	-5
3.31633	-2
3.32000	3
3.32367	9
3.32733	9
3.33100	3
3.33467	-7
3.33833	-15
3.34200	-14
3.34567	-6
3.34933	5
3.35300	14
3.35667	18
3.36033	14
3.36400	5
3.36767	-5
3.37133	-13
3.37500	-17
3.37867	-15
3.38233	-12
3.38600	-13
3.38967	-18
3.39333	-25
3.39700	-32
3.40067	-38
3.40433	-41
3.40800	-39
3.41167	-29
3.41533	-15
3.41900	-3
3.42267	-1
3.42633	-8
3.43000	-16
3.43367	-23
3.43733	-28
3.44100	-33
3.44467	-34
3.44833	-31
3.45200	-25
3.45567	-20
3.45933	-16
3.46300	-15
3.46667	-17
3.47033	-17
3.47400	-19
3.47767	-20
3.48133	-22
3.48500	-23
3.48867	-24
3.49233	-24
3.49600	-20
3.49967	-14
3.50333	-10
3.50700	-8
3.51067	-6
3.51433	-5
3.51800	-6
3.52167	-8
3.52533	-11
3.52900	-14
3.53267	-18
3.53633	-23
3.54000	-26
3.54367	-30
3.54733	-35
3.55100	-36
3.55467	-31
3.55833	-27
3.56200	-24
3.56567	-24
3.56933	-24
3.57300	-24
3.57667	-24
3.58033	-25
3.58400	-26
3.58767	-27
3.59133	-27
3.59500	-25
3.59867	-21
3.60233	-16
3.60600	-14
3.60967	-14
3.61333	-18
3.61700	-22
3.62067	-25
3.62433	-29
3.62800	-33
3.63167	-36
3.63533	-38
3.63900	-39
3.64267	-39
3.64633	-43
3.65000	-47
3.65367	-47
3.65733	-48
3.66100	-52
3.66467	-57
3.66833	-61
3.67200	-62
3.67567	-61
3.67933	-58
3.68300	-50
3.68667	-43
3.69033	-38
3.69400	-37
3.69767	-38
3.70133	-38
3.70500	-35
3.70867	-29
3.71233	-23
3.71600	-14
3.71967	-5
3.72333	-3
3.72700	-3
3.73067	-5
3.73433	-12
3.73800	-21
3.74167	-27
3.74533	-32
3.74900	-35
3.75267	-35
3.75633	-33
3.76000	-32
3.76367	-33
3.76733	-31
3.77100	-28
3.77467	-27
3.77833	-26
3.78200	-24
3.78567	-21
3.78933	-24
3.79300	-34
3.79667	-46
3.80033	-56
3.80400	-62
3.80767	-61
3.81133	-55
3.81500	-50
3.81867	-43
3.82233	-40
3.82600	-40
3.82967	-42
3.83333	-43
3.83700	-42
3.84067	-40
3.84433	-40
3.84800	-41
3.85167	-43
3.85533	-41
3.85900	-38
3.86267	-35
3.86633	-35
3.87000	-41
3.87367	-48
3.87733	-55
3.88100	-59
3.88467	-62
3.88833	-65
3.89200	-63
3.89567	-59
3.89933	-53
3.90300	-44
3.90667	-35
3.91033	-31
3.91400	-30
3.91767	-29
3.92133	-29
3.92500	-30
3.92867	-36
3.93233	-42
3.93600	-48
3.93967	-54
3.94333	-60
3.94700	-62
3.95067	-62
3.95433	-63
3.95800	-64
3.96167	-64
3.96533	-63
3.96900	-61
3.97267	-60
3.97633	-62
3.98000	-66
3.98367	-67
3.98733	-66
3.99100	-65
3.99467	-64
3.99833	-62

[Chromatogram (Ch2)]
Interval(msec)	220
# of Points	1091
Start Time(min)	0.002
End Time(min)	3.998
R.Time (min)	Intensity
0.00167	0
0.00533	0
0.00900	1
0.01267	1
0.01633	1
0.02000	1
0.02367	1
0.02733	1
0.03100	2
0.03467	2
0.03833	2
0.04200	3
0.04567	3
0.04933	3
0.05300	4
0.05667	4
0.06033	3
0.06400	3
0.06767	3
0.07133	3
0.07500	3
0.07867	2
0.08233	2
0.08600	2
0.08967	2
0.09333	2
0.09700	2
0.10067	1
0.10433	1
0.10800	1
0.11167	1
0.11533	1
0.11900	1
0.12267	1
0.12633	1
0.13000	1
0.13367	1
0.13733	1
0.14100	1
0.14467	0
0.14833	0
0.15200	0
0.15567	0
0.15933	0
0.16300	0
0.16667	0
0.17033	0
0.17400	1
0.17767	1
0.18133	1
0.18500	2
0.18867	2
0.19233	2
0.19600	3
0.19967	3
0.20333	4
0.20700	4
0.21067	4
0.21433	4
0.21800	4
0.22167	4
0.22533	4
0.22900	4
0.23267	4
0.23633	4
0.24000	4
0.24367	4
0.24733	4
0.25100	4
0.25467	4
0.25833	4
0.26200	4
0.26567	4
0.26933	4
0.27300	4
0.27667	4
0.28033	4
0.28400	3
0.28767	3
0.29133	3
0.29500	3
0.29867	3
0.30233	2
0.30600	2
0.30967	2
0.31333	2
0.31700	1
0.32067	1
0.32433	1
0.32800	1
0.33167	1
0.33533	0
0.33900	0
0.34267	0
0.34633	0
0.35000	0
0.35367	0
0.35733	0
0.36100	0
0.36467	0
0.36833	0
0.37200	0
0.37567	0
0.37933	0
0.38300	0
0.38667	0
0.39033	1
0.39400	1
0.39767	1
0.40133	1
0.40500	1
0.40867	1
0.41233	1
0.41600	1
0.41967	1
0.42333	0
0.42700	0
0.43067	0
0.43433	0
0.43800	0
0.44167	0
0.44533	0
0.44900	-0
0.45267	-1
0.45633	-1
0.46000	-2
0.46367	-2
0.46733	-2
0.47100	-2
0.47467	-1
0.47833	-1
0.48200	-1
0.48567	-0
0.48933	-0
0.49300	0
0.49667	0
0.50033	1
0.50400	1
0.50767	1
0.51133	1
0.51500	1
0.51867	1
0.52233	1
0.52600	0
0.52967	0
0.53333	0
0.53700	1
0.54067	1
0.54433	1
0.54800	2
0.55167	2
0.55533	2
0.55900	2
0.56267	3
0.56633	3
0.57000	3
0.57367	3
0.57733	3
0.58100	3
0.58467	3
0.58833	3
0.59200	4
0.59567	4
0.59933	4
0.60300	4
0.60667	4
0.61033	4
0.61400	4
0.61767	4
0.62133	4
0.62500	4
0.62867	4
0.63233	4
0.63600	4
0.63967	5
0.64333	5
0.64700	5
0.65067	4
0.65433	4
0.65800	4
0.66167	3
0.66533	3
0.66900	2
0.67267	2
0.67633	1
0.68000	0
0.68367	-0
0.68733	-1
0.69100	-2
0.69467	-2
0.69833	-3
0.70200	-3
0.70567	-4
0.70933	-4
0.71300	-4
0.71667	-4
0.72033	-4
0.72400	-4
0.72767	-3
0.73133	-3
0.73500	-3
0.73867	-3
0.74233	-2
0.74600	-2
0.74967	-2
0.75333	-2
0.75700	-2
0.76067	-2
0.76433	-2
0.76800	-1
0.77167	-1
0.77533	-1
0.77900	-1
0.78267	-1
0.78633	-1
0.79000	-1
0.79367	-0
0.79733	-0
0.80100	-0
0.80467	-0
0.80833	0
0.81200	0
0.81567	1
0.81933	1
0.82300	1
0.82667	1
0.83033	1
0.83400	1
0.83767	1
0.84133	1
0.84500	0
0.84867	-0
0.85233	-1
0.85600	-1
0.85967	-1
0.86333	-1
0.86700	-1
0.87067	-1
0.87433	-1
0.87800	-1
0.88167	-0
0.88533	0
0.88900	0
0.89267	1
0.89633	1
0.90000	1
0.90367	1
0.90733	0
0.91100	0
0.91467	0
0.91833	0
0.92200	0
0.92567	-0
0.92933	-0
0.93300	-0
0.93667	-0
0.94033	-0
0.94400	-0
0.94767	-0
0.95133	-0
0.95500	0
0.95867	0
0.96233	1
0.96600	1
0.96967	1
0.97333	1
0.97700	1
0.98067	1
0.98433	1
0.98800	2
0.99167	2
0.99533	2
0.99900	2
1.00267	2
1.00633	2
1.01000	2
1.01367	2
1.01733	2
1.02100	1
1.02467	1
1.02833	1
1.03200	1
1.03567	0
1.03933	0
1.04300	-0
1.04667	-1
1.05033	-1
1.05400	-1
1.05767	-1
1.06133	-0
1.06500	-0
1.06867	-1
1.07233	-1
1.07600	-1
1.07967	-1
1.08333	-1
1.08700	-1
1.09067	-2
1.09433	-2
1.09800	-1
1.10167	-1
1.10533	-1
1.10900	-1
1.11267	-1
1.11633	-1
1.12000	-1
1.12367	-1
1.12733	-1
1.13100	-1
1.13467	-0
1.13833	-0
1.14200	0
1.14567	0
1.14933	0
1.15300	1
1.15667	1
1.16033	1
1.16400	1
1.16767	1
1.17133	0
1.17500	0
1.17867	0
1.18233	0
1.18600	0
1.18967	0
1.19333	0
1.19700	0
1.20067	0
1.20433	-0
1.20800	-0
1.21167	-0
1.21533	-0
1.21900	-0
1.22267	-0
1.22633	-0
1.23000	-0
1.23367	-1
1.23733	-1
1.24100	-1
1.24467	-1
1.24833	-1
1.25200	-1
1.25567	-1
1.25933	-1
1.26300	-1
1.26667	-2
1.27033	-2
1.27400	-2
1.27767	-2
1.28133	-2
1.28500	-2
1.28867	-2
1.29233	-2
1.29600	-2
1.29967	-2
1.30333	-2
1.30700	-2
1.31067	-2
1.31433	-2
1.31800	-2
1.32167	-2
1.32533	-2
1.32900	-2
1.33267	-2
1.33633	-2
1.34000	-2
1.34367	-2
1.34733	-2
1.35100	-2
1.35467	-2
1.35833	-2
1.36200	-2
1.36567	-3
1.36933	-3
1.37300	-3
1.37667	-3
1.38033	-3
1.38400	-3
1.38767	-2
1.39133	-2
1.39500	-2
1.39867	-2
1.40233	-2
1.40600	-2
1.40967	-2
1.41333	-2
1.41700	-2
1.42067	-2
1.42433	-2
1.42800	-1
1.43167	-1
1.43533	-1
1.43900	-0
1.44267	0
1.44633	0
1.45000	1
1.45367	1
1.45733	1
1.46100	1
1.46467	1
1.46833	1
1.47200	1
1.47567	1
1.47933	1
1.48300	1
1.48667	1
1.49033	1
1.49400	0
1.49767	0
1.50133	0
1.50500	0
1.50867	0
1.51233	0
1.51600	0
1.51967	0
1.52333	0
1.52700	0
1.53067	0
1.53433	0
1.53800	0
1.54167	1
1.54533	1
1.54900	1
1.55267	1
1.55633	1
1.56000	1
1.56367	1
1.56733	1
1.57100	0
1.57467	0
1.57833	-0
1.58200	-1
1.58567	-1
1.58933	-1
1.59300	-1
1.59667	-2
1.60033	-2
1.60400	-3
1.60767	-4
1.61133	-6
1.61500	-8
1.61867	-11
1.62233	-13
1.62600	-17
1.62967	-20
1.63333	-23
1.63700	-27
1.64067	-30
1.64433	-34
1.64800	-38
1.65167	-41
1.65533	-45
1.65900	-48
1.66267	-52
1.66633	-56
1.67000	-60
1.67367	-65
1.67733	-70
1.68100	-75
1.68467	-80
1.68833	-84
1.69200	-87
1.69567	-90
1.69933	-93
1.70300	-96
1.70667	-98
1.71033	-100
1.71400	-102
1.71767	-104
1.72133	-105
1.72500	-106
1.72867	-107
1.73233	-109
1.73600	-110
1.73967	-111
1.74333	-112
1.74700	-113
1.75067	-113
1.75433	-113
1.75800	-113
1.76167	-113
1.76533	-113
1.76900	-113
1.77267	-113
1.77633	-114
1.78000	-114
1.78367	-115
1.78733	-115
1.79100	-116
1.79467	-117
1.79833	-118
1.80200	-118
1.80567	-118
1.80933	-118
1.81300	-118
1.81667	-118
1.82033	-118
1.82400	-118
1.82767	-119
1.83133	-119
1.83500	-120
1.83867	-120
1.84233	-120
1.84600	-120
1.84967	-120
1.85333	-119
1.85700	-119
1.86067	-118
1.86433	-118
1.86800	-118
1.87167	-118
1.87533	-118
1.87900	-119
1.88267	-119
1.88633	-119
1.89000	-119
1.89367	-119
1.89733	-119
1.90100	-119
1.90467	-118
1.90833	-118
1.91200	-118
1.91567	-118
1.91933	-118
1.92300	-118
1.92667	-118
1.93033	-118
1.93400	-117
1.93767	-117
1.94133	-117
1.94500	-117
1.94867	-117
1.95233	-116
1.95600	-116
1.95967	-115
1.96333	-115
1.96700	-114
1.97067	-114
1.97433	-113
1.97800	-113
1.98167	-113
1.98533	-112
1.98900	-112
1.99267	-112
1.99633	-111
2.00000	-111
2.00367	-111
2.00733	-112
2.01100	-112
2.01467	-112
2.01833	-112
2.02200	-112
2.02567	-112
2.02933	-112
2.03300	-112
2.03667	-112
2.04033	-111
2.04400	-111
2.04767	-111
2.05133	-110
2.05500	-109
2.05867	-109
2.06233	-108
2.06600	-108
2.06967	-107
2.07333	-106
2.07700	-106
2.08067	-105
2.08433	-105
2.08800	-104
2.09167	-104
2.09533	-104
2.09900	-104
2.10267	-104
2.10633	-104
2.11000	-104
2.11367	-103
2.11733	-102
2.12100	-101
2.12467	-100
2.12833	-99
2.13200	-98
2.13567	-97
2.13933	-97
2.14300	-96
2.14667	-96
2.15033	-96
2.15400	-96
2.15767	-96
2.16133	-96
2.16500	-96
2.16867	-96
2.17233	-96
2.17600	-96
2.17967	-96
2.18333	-96
2.18700	-96
2.19067	-96
2.19433	-96
2.19800	-96
2.20167	-96
2.20533	-95
2.20900	-94
2.21267	-94
2.21633	-94
2.22000	-94
2.22367	-94
2.22733	-94
2.23100	-94
2.23467	-94
2.23833	-93
2.24200	-92
2.24567	-92
2.24933	-91
2.25300	-91
2.25667	-90
2.26033	-90
2.26400	-90
2.26767	-90
2.27133	-90
2.27500	-90
2.27867	-90
2.28233	-89
2.28600	-89
2.28967	-89
2.29333	-89
2.29700	-89
2.30067	-90
2.30433	-90
2.30800	-89
2.31167	-89
2.31533	-88
2.31900	-87
2.32267	-87
2.32633	-86
2.33000	-85
2.33367	-84
2.33733	-83
2.34100	-82
2.34467	-81
2.34833	-81
2.35200	-80
2.35567	-80
2.35933	-80
2.36300	-80
2.36667	-79
2.37033	-78
2.37400	-76
2.37767	-74
2.38133	-71
2.38500	-68
2.38867	-65
2.39233	-61
2.39600	-57
2.39967	-52
2.40333	-48
2.40700	-43
2.41067	-38
2.41433	-34
2.41800	-30
2.42167	-26
2.42533	-22
2.42900	-19
2.43267	-17
2.43633	-14
2.44000	-12
2.44367	-11
2.44733	-10
2.45100	-8
2.45467	-7
2.45833	-5
2.46200	-3
2.46567	-1
2.46933	0
2.47300	2
2.47667	3
2.48033	3
2.48400	4
2.48767	5
2.49133	6
2.49500	8
2.49867	9
2.50233	10
2.50600	11
2.50967	12
2.51333	12
2.51700	13
2.52067	14
2.52433	14
2.52800	15
2.53167	15
2.53533	15
2.53900	15
2.54267	15
2.54633	15
2.55000	15
2.55367	16
2.55733	16
2.56100	16
2.56467	17
2.56833	17
2.57200	17
2.57567	17
2.57933	17
2.58300	18
2.58667	18
2.59033	18
2.59400	18
2.59767	18
2.60133	18
2.60500	19
2.60867	19
2.61233	19
2.61600	20
2.61967	20
2.62333	20
2.62700	19
2.63067	19
2.63433	19
2.63800	18
2.64167	18
2.64533	18
2.64900	18
2.65267	18
2.65633	18
2.66000	19
2.66367	19
2.66733	20
2.67100	20
2.67467	21
2.67833	21
2.68200	22
2.68567	22
2.68933	23
2.69300	23
2.69667	24
2.70033	25
2.70400	25
2.70767	25
2.71133	25
2.71500	25
2.71867	24
2.72233	24
2.72600	23
2.72967	23
2.73333	23
2.73700	23
2.74067	23
2.74433	23
2.74800	23
2.75167	23
2.75533	24
2.75900	24
2.76267	24
2.76633	25
2.77000	25
2.77367	26
2.77733	26
2.78100	27
2.78467	27
2.78833	27
2.79200	28
2.79567	28
2.79933	28
2.80300	28
2.80667	28
2.81033	28
2.81400	27
2.81767	27
2.82133	27
2.82500	27
2.82867	26
2.83233	26
2.83600	25
2.83967	25
2.84333	25
2.84700	24
2.85067	23
2.85433	21
2.85800	18
2.86167	12
2.86533	3
2.86900	-10
2.87267	-27
2.87633	-48
2.88000	-75
2.88367	-107
2.88733	-144
2.89100	-186
2.89467	-233
2.89833	-285
2.90200	-342
2.90567	-402
2.90933	-467
2.91300	-534
2.91667	-604
2.92033	-677
2.92400	-752
2.92767	-830
2.93133	-911
2.93500	-993
2.93867	-1077
2.94233	-1162
2.94600	-1249
2.94967	-1337
2.95333	-1421
2.95700	-1487
2.96067	-1526
2.96433	-1529
2.96800	-1497
2.97167	-1435
2.97533	-1350
2.97900	-1250
2.98267	-1142
2.98633	-1031
2.99000	-921
2.99367	-817
2.99733	-719
3.00100	-629
3.00467	-547
3.00833	-474
3.01200	-409
3.01567	-351
3.01933	-301
3.02300	-257
3.02667	-219
3.03033	-186
3.03400	-158
3.03767	-134
3.04133	-113
3.04500	-95
3.04867	-80
3.05233	-67
3.05600	-56
3.05967	-46
3.06333	-38
3.06700	-31
3.07067	-25
3.07433	-20
3.07800	-15
3.08167	-12
3.08533	-8
3.08900	-6
3.09267	-3
3.09633	-1
3.10000	0
3.10367	2
3.10733	3
3.11100	4
3.11467	5
3.11833	6
3.12200	7
3.12567	8
3.12933	9
3.13300	9
3.13667	10
3.14033	11
3.14400	12
3.14767	12
3.15133	13
3.15500	13
3.15867	14
3.16233	14
3.16600	14
3.16967	15
3.17333	15
3.17700	16
3.18067	16
3.18433	16
3.18800	16
3.19167	16
3.19533	16
3.19900	17
3.20267	17
3.20633	17
3.21000	17
3.21367	17
3.21733	17
3.22100	17
3.22467	18
3.22833	18
3.23200	19
3.23567	19
3.23933	20
3.24300	20
3.24667	20
3.25033	21
3.25400	21
3.25767	21
3.26133	22
3.26500	22
3.26867	22
3.27233	22
3.27600	22
3.27967	22
3.28333	23
3.28700	23
3.29067	23
3.29433	23
3.29800	23
3.30167	24
3.30533	24
3.30900	23
3.31267	23
3.31633	23
3.32000	24
3.32367	24
3.32733	24
3.33100	24
3.33467	24
3.33833	24
3.34200	24
3.34567	24
3.34933	24
3.35300	23
3.35667	23
3.36033	23
3.36400	23
3.36767	23
3.37133	23
3.37500	23
3.37867	23
3.38233	23
3.38600	24
3.38967	24
3.39333	24
3.39700	24
3.40067	24
3.40433	23
3.40800	24
3.41167	24
3.41533	24
3.41900	25
3.42267	25
3.42633	25
3.43000	25
3.43367	25
3.43733	25
3.44100	26
3.44467	26
3.44833	26
3.45200	26
3.45567	27
3.45933	27
3.46300	27
3.46667	27
3.47033	27
3.47400	27
3.47767	27
3.48133	27
3.48500	27
3.48867	28
3.49233	28
3.49600	28
3.49967	28
3.50333	28
3.50700	28
3.51067	28
3.51433	28
3.51800	28
3.52167	28
3.52533	28
3.52900	28
3.53267	27
3.53633	27
3.54000	27
3.54367	27
3.54733	27
3.55100	27
3.55467	27
3.55833	27
3.56200	27
3.56567	27
3.56933	27
3.57300	27
3.57667	27
3.58033	27
3.58400	27
3.58767	27
3.59133	27
3.59500	27
3.59867	27
3.60233	28
3.60600	28
3.60967	28
3.61333	28
3.61700	28
3.62067	28
3.62433	28
3.62800	27
3.63167	27
3.63533	27
3.63900	27
3.64267	27
3.64633	27
3.65000	27
3.65367	27
3.65733	27
3.66100	27
3.66467	26
3.66833	26
3.67200	26
3.67567	26
3.67933	26
3.68300	26
3.68667	26
3.69033	26
3.69400	26
3.69767	26
3.70133	26
3.70500	26
3.70867	26
3.71233	26
3.71600	26
3.71967	26
3.72333	26
3.72700	26
3.73067	26
3.73433	26
3.73800	26
3.74167	27
3.74533	27
3.74900	27
3.75267	27
3.75633	27
3.76000	27
3.76367	27
3.76733	27
3.77100	27
3.77467	27
3.77833	27
3.78200	27
3.78567	27
3.78933	27
3.79300	27
3.79667	27
3.80033	27
3.80400	27
3.80767	27
3.81133	27
3.81500	27
3.81867	27
3.82233	27
3.82600	26
3.82967	26
3.83333	26
3.83700	26
3.84067	26
3.84433	26
3.84800	26
3.85167	26
3.85533	26
3.85900	26
3.86267	26
3.86633	26
3.87000	26
3.87367	26
3.87733	26
3.88100	26
3.88467	26
3.88833	26
3.89200	25
3.89567	25
3.89933	25
3.90300	25
3.90667	25
3.91033	25
3.91400	25
3.91767	26
3.92133	26
3.92500	26
3.92867	26
3.93233	26
3.93600	26
3.93967	26
3.94333	26
3.94700	26
3.95067	26
3.95433	26
3.95800	26
3.96167	26
3.96533	26
3.96900	26
3.97267	25
3.97633	26
3.98000	26
3.98367	26
3.98733	26
3.99100	26
3.99467	26
3.99833	26

[Chromatogram (Ch3)]
Interval(msec)	220
# of Points	1091
Start Time(min)	0.002
End Time(min)	3.998
R.Time (min)	Intensity
0.00167	1
0.00533	2
0.00900	1
0.01267	1
0.01633	0
0.02000	0
0.02367	-1
0.02733	-2
0.03100	-0
0.03467	1
0.03833	2
0.04200	4
0.04567	4
0.04933	7
0.05300	9
0.05667	10
0.06033	9
0.06400	11
0.06767	11
0.07133	10
0.07500	9
0.07867	9
0.08233	7
0.08600	8
0.08967	8
0.09333	7
0.09700	5
0.10067	4
0.10433	3
0.10800	5
0.11167	7
0.11533	8
0.11900	10
0.12267	12
0.12633	12
0.13000	12
0.13367	10
0.13733	7
0.14100	5
0.14467	6
0.14833	5
0.15200	3
0.15567	3
0.15933	5
0.16300	4
0.16667	5
0.17033	9
0.17400	13
0.17767	15
0.18133	16
0.18500	16
0.18867	14
0.19233	11
0.19600	9
0.19967	8
0.20333	8
0.20700	8
0.21067	10
0.21433	12
0.21800	13
0.22167	14
0.22533	16
0.22900	16
0.23267	17
0.23633	14
0.24000	10
0.24367	8
0.24733	8
0.25100	7
0.25467	7
0.25833	7
0.26200	8
0.26567	8
0.26933	8
0.27300	8
0.27667	9
0.28033	11
0.28400	13
0.28767	14
0.29133	14
0.29500	15
0.29867	17
0.30233	18
0.30600	18
0.30967	19
0.31333	17
0.31700	14
0.32067	12
0.32433	13
0.32800	16
0.33167	18
0.33533	19
0.33900	20
0.34267	20
0.34633	21
0.35000	22
0.35367	20
0.35733	19
0.36100	17
0.36467	16
0.36833	16
0.37200	15
0.37567	14
0.37933	13
0.38300	14
0.38667	16
0.39033	17
0.39400	18
0.39767	19
0.40133	19
0.40500	19
0.40867	18
0.41233	18
0.41600	20
0.41967	21
0.42333	22
0.42700	22
0.43067	20
0.43433	20
0.43800	22
0.44167	22
0.44533	22
0.44900	23
0.45267	22
0.45633	22
0.46000	23
0.46367	23
0.46733	24
0.47100	24
0.47467	22
0.47833	22
0.48200	21
0.48567	22
0.48933	25
0.49300	26
0.49667	24
0.50033	21
0.50400	22
0.50767	24
0.51133	23
0.51500	22
0.51867	25
0.52233	28
0.52600	29
0.52967	29
0.53333	29
0.53700	29
0.54067	28
0.54433	29
0.54800	30
0.55167	30
0.55533	29
0.55900	30
0.56267	30
0.56633	30
0.57000	31
0.57367	30
0.57733	28
0.58100	28
0.58467	30
0.58833	32
0.59200	32
0.59567	31
0.59933	28
0.60300	29
0.60667	30
0.61033	32
0.61400	33
0.61767	36
0.62133	37
0.62500	38
0.62867	37
0.63233	36
0.63600	37
0.63967	38
0.64333	39
0.64700	37
0.65067	36
0.65433	36
0.65800	36
0.66167	35
0.66533	37
0.66900	39
0.67267	38
0.67633	37
0.68000	37
0.68367	36
0.68733	36
0.69100	35
0.69467	33
0.69833	35
0.70200	35
0.70567	34
0.70933	32
0.71300	31
0.71667	32
0.72033	36
0.72400	40
0.72767	40
0.73133	39
0.73500	38
0.73867	37
0.74233	37
0.74600	39
0.74967	41
0.75333	42
0.75700	41
0.76067	38
0.76433	36
0.76800	37
0.77167	39
0.77533	42
0.77900	44
0.78267	45
0.78633	43
0.79000	42
0.79367	42
0.79733	43
0.80100	44
0.80467	46
0.80833	46
0.81200	43
0.81567	42
0.81933	41
0.82300	41
0.82667	43
0.83033	42
0.83400	39
0.83767	38
0.84133	40
0.84500	42
0.84867	42
0.85233	42
0.85600	43
0.85967	43
0.86333	44
0.86700	42
0.87067	41
0.87433	41
0.87800	42
0.88167	44
0.88533	44
0.88900	42
0.89267	41
0.89633	41
0.90000	41
0.90367	42
0.90733	43
0.91100	42
0.91467	43
0.91833	44
0.92200	43
0.92567	41
0.92933	42
0.93300	43
0.93667	47
0.94033	50
0.94400	52
0.94767	50
0.95133	49
0.95500	48
0.95867	50
0.96233	50
0.96600	51
0.96967	52
0.97333	53
0.97700	53
0.98067	52
0.98433	53
0.98800	52
0.99167	50
0.99533	51
0.99900	52
1.00267	52
1.00633	53
1.01000	52
1.01367	52
1.01733	54
1.02100	55
1.02467	54
1.02833	52
1.03200	47
1.03567	47
1.03933	46
1.04300	45
1.04667	46
1.05033	48
1.05400	48
1.05767	48
1.06133	49
1.06500	52
1.06867	54
1.07233	54
1.07600	54
1.07967	53
1.08333	52
1.08700	54
1.09067	56
1.09433	56
1.09800	55
1.10167	54
1.10533	53
1.10900	50
1.11267	48
1.11633	48
1.12000	51
1.12367	53
1.12733	53
1.13100	53
1.13467	53
1.13833	55
1.14200	54
1.14567	56
1.14933	57
1.15300	54
1.15667	50
1.16033	48
1.16400	46
1.16767	45
1.17133	46
1.17500	45
1.17867	46
1.18233	50
1.18600	51
1.18967	51
1.19333	52
1.19700	52
1.20067	53
1.20433	52
1.20800	53
1.21167	57
1.21533	58
1.21900	58
1.22267	59
1.22633	60
1.23000	60
1.23367	61
1.23733	60
1.24100	57
1.24467	56
1.24833	56
1.25200	55
1.25567	55
1.25933	53
1.26300	52
1.26667	52
1.27033	52
1.27400	51
1.27767	52
1.28133	51
1.28500	52
1.28867	52
1.29233	52
1.29600	54
1.29967	54
1.30333	57
1.30700	59
1.31067	59
1.31433	58
1.31800	59
1.32167	60
1.32533	61
1.32900	60
1.33267	61
1.33633	64
1.34000	63
1.34367	61
1.34733	59
1.35100	56
1.35467	56
1.35833	57
1.36200	58
1.36567	59
1.36933	61
1.37300	63
1.37667	63
1.38033	63
1.38400	62
1.38767	60
1.39133	57
1.39500	55
1.39867	54
1.40233	53
1.40600	53
1.40967	54
1.41333	57
1.41700	61
1.42067	65
1.42433	67
1.42800	66
1.43167	64
1.43533	64
1.43900	64
1.44267	64
1.44633	66
1.45000	67
1.45367	66
1.45733	63
1.46100	61
1.46467	62
1.46833	62
1.47200	63
1.47567	66
1.47933	67
1.48300	68
1.48667	67
1.49033	64
1.49400	63
1.49767	63
1.50133	62
1.50500	63
1.50867	65
1.51233	65
1.51600	65
1.51967	65
1.52333	64
1.52700	65
1.53067	65
1.53433	65
1.53800	65
1.54167	65
1.54533	64
1.54900	63
1.55267	63
1.55633	62
1.56000	65
1.56367	65
1.56733	64
1.57100	63
1.57467	65
1.57833	66
1.58200	67
1.58567	69
1.58933	68
1.59300	67
1.59667	69
1.60033	69
1.60400	69
1.60767	67
1.61133	66
1.61500	66
1.61867	66
1.62233	67
1.62600	67
1.62967	69
1.63333	70
1.63700	70
1.64067	70
1.64433	72
1.64800	74
1.65167	74
1.65533	73
1.65900	75
1.66267	78
1.66633	80
1.67000	80
1.67367	79
1.67733	80
1.68100	81
1.68467	83
1.68833	82
1.69200	82
1.69567	83
1.69933	83
1.70300	83
1.70667	82
1.71033	82
1.71400	82
1.71767	82
1.72133	81
1.72500	83
1.72867	86
1.73233	87
1.73600	86
1.73967	85
1.74333	86
1.74700	90
1.75067	91
1.75433	93
1.75800	95
1.76167	94
1.76533	90
1.76900	87
1.77267	86
1.77633	85
1.78000	88
1.78367	91
1.78733	92
1.79100	95
1.79467	97
1.79833	97
1.80200	95
1.80567	93
1.80933	94
1.81300	96
1.81667	97
1.82033	99
1.82400	100
1.82767	102
1.83133	103
1.83500	103
1.83867	101
1.84233	99
1.84600	99
1.84967	100
1.85333	102
1.85700	102
1.86067	102
1.86433	99
1.86800	98
1.87167	98
1.87533	98
1.87900	99
1.88267	101
1.88633	103
1.89000	103
1.89367	103
1.89733	104
1.90100	104
1.90467	104
1.90833	104
1.91200	103
1.91567	102
1.91933	104
1.92300	108
1.92667	108
1.93033	109
1.93400	110
1.93767	110
1.94133	108
1.94500	106
1.94867	106
1.95233	108
1.95600	108
1.95967	110
1.96333	112
1.96700	115
1.97067	118
1.97433	120
1.97800	124
1.98167	126
1.98533	125
1.98900	125
1.99267	123
1.99633	122
2.00000	123
2.00367	125
2.00733	126
2.01100	125
2.01467	126
2.01833	128
2.02200	131
2.02567	132
2.02933	133
2.03300	136
2.03667	138
2.04033	139
2.04400	139
2.04767	140
2.05133	139
2.05500	137
2.05867	136
2.06233	135
2.06600	135
2.06967	138
2.07333	141
2.07700	143
2.08067	147
2.08433	150
2.08800	150
2.09167	151
2.09533	154
2.09900	155
2.10267	157
2.10633	158
2.11000	157
2.11367	159
2.11733	161
2.12100	164
2.12467	166
2.12833	165
2.13200	163
2.13567	162
2.13933	162
2.14300	161
2.14667	163
2.15033	165
2.15400	167
2.15767	170
2.16133	170
2.16500	168
2.16867	168
2.17233	169
2.17600	173
2.17967	176
2.18333	175
2.18700	175
2.19067	174
2.19433	177
2.19800	177
2.20167	178
2.20533	181
2.20900	185
2.21267	187
2.21633	188
2.22000	186
2.22367	184
2.22733	183
2.23100	183
2.23467	184
2.23833	183
2.24200	183
2.24567	185
2.24933	189
2.25300	191
2.25667	192
2.26033	195
2.26400	197
2.26767	200
2.27133	200
2.27500	199
2.27867	197
2.28233	194
2.28600	194
2.28967	196
2.29333	199
2.29700	201
2.30067	203
2.30433	205
2.30800	205
2.31167	206
2.31533	204
2.31900	202
2.32267	204
2.32633	205
2.33000	205
2.33367	206
2.33733	208
2.34100	210
2.34467	211
2.34833	211
2.35200	214
2.35567	215
2.35933	217
2.36300	219
2.36667	219
2.37033	216
2.37400	214
2.37767	214
2.38133	214
2.38500	214
2.38867	214
2.39233	213
2.39600	211
2.39967	212
2.40333	212
2.40700	213
2.41067	215
2.41433	218
2.41800	218
2.42167	219
2.42533	219
2.42900	219
2.43267	221
2.43633	223
2.44000	226
2.44367	235
2.44733	254
2.45100	273
2.45467	290
2.45833	300
2.46200	299
2.46567	296
2.46933	295
2.47300	294
2.47667	293
2.48033	293
2.48400	292
2.48767	288
2.49133	284
2.49500	281
2.49867	278
2.50233	275
2.50600	269
2.50967	264
2.51333	262
2.51700	261
2.52067	260
2.52433	260
2.52800	262
2.53167	262
2.53533	260
2.53900	258
2.54267	254
2.54633	252
2.55000	249
2.55367	247
2.55733	245
2.56100	242
2.56467	240
2.56833	237
2.57200	235
2.57567	235
2.57933	233
2.58300	230
2.58667	227
2.59033	224
2.59400	223
2.59767	221
2.60133	218
2.60500	212
2.60867	201
2.61233	182
2.61600	153
2.61967	115
2.62333	69
2.62700	21
2.63067	-26
2.63433	-69
2.63800	-104
2.64167	-133
2.64533	-159
2.64900	-179
2.65267	-193
2.65633	-201
2.66000	-204
2.66367	-201
2.66733	-195
2.67100	-188
2.67467	-181
2.67833	-174
2.68200	-162
2.68567	-147
2.68933	-135
2.69300	-125
2.69667	-116
2.70033	-104
2.70400	-92
2.70767	-82
2.71133	-74
2.71500	-63
2.71867	-54
2.72233	-45
2.72600	-36
2.72967	-29
2.73333	-22
2.73700	-16
2.74067	-8
2.74433	0
2.74800	9
2.75167	16
2.75533	24
2.75900	29
2.76267	33
2.76633	38
2.77000	41
2.77367	45
2.77733	51
2.78100	54
2.78467	56
2.78833	57
2.79200	61
2.79567	68
2.79933	71
2.80300	72
2.80667	75
2.81033	78
2.81400	79
2.81767	81
2.82133	83
2.82500	87
2.82867	97
2.83233	124
2.83600	189
2.83967	331
2.84333	604
2.84700	1079
2.85067	1825
2.85433	2887
2.85800	4279
2.86167	5964
2.86533	7853
2.86900	9828
2.87267	11744
2.87633	13452
2.88000	14826
2.88367	15773
2.88733	16257
2.89100	16293
2.89467	15938
2.89833	15269
2.90200	14367
2.90567	13319
2.90933	12198
2.91300	11064
2.91667	9958
2.92033	8905
2.92400	7921
2.92767	7014
2.93133	6191
2.93500	5452
2.93867	4792
2.94233	4206
2.94600	3684
2.94967	3224
2.95333	2819
2.95700	2465
2.96067	2153
2.96433	1881
2.96800	1646
2.97167	1439
2.97533	1259
2.97900	1105
2.98267	972
2.98633	856
2.99000	755
2.99367	668
2.99733	594
3.00100	531
3.00467	472
3.00833	414
3.01200	364
3.01567	321
3.01933	290
3.02300	272
3.02667	264
3.03033	262
3.03400	264
3.03767	268
3.04133	273
3.04500	284
3.04867	295
3.05233	309
3.05600	327
3.05967	346
3.06333	366
3.06700	384
3.07067	398
3.07433	411
3.07800	425
3.08167	438
3.08533	446
3.08900	452
3.09267	459
3.09633	469
3.10000	477
3.10367	486
3.10733	494
3.11100	503
3.11467	513
3.11833	524
3.12200	536
3.12567	547
3.12933	556
3.13300	564
3.13667	569
3.14033	572
3.14400	577
3.14767	583
3.15133	592
3.15500	601
3.15867	605
3.16233	609
3.16600	611
3.16967	613
3.17333	616
3.17700	619
3.18067	621
3.18433	621
3.18800	623
3.19167	625
3.19533	626
3.19900	626
3.20267	628
3.20633	631
3.21000	632
3.21367	633
3.21733	635
3.22100	636
3.22467	636
3.22833	637
3.23200	639
3.23567	636
3.23933	635
3.24300	635
3.24667	635
3.25033	635
3.25400	635
3.25767	636
3.26133	635
3.26500	633
3.26867	631
3.27233	631
3.27600	630
3.27967	627
3.28333	625
3.28700	622
3.29067	621
3.29433	623
3.29800	624
3.30167	622
3.30533	619
3.30900	618
3.31267	616
3.31633	613
3.32000	611
3.32367	609
3.32733	607
3.33100	607
3.33467	608
3.33833	610
3.34200	612
3.34567	614
3.34933	612
3.35300	610
3.35667	608
3.36033	603
3.36400	601
3.36767	599
3.37133	597
3.37500	594
3.37867	593
3.38233	590
3.38600	588
3.38967	587
3.39333	589
3.39700	589
3.40067	589
3.40433	588
3.40800	584
3.41167	578
3.41533	573
3.41900	569
3.42267	569
3.42633	569
3.43000	567
3.43367	564
3.43733	564
3.44100	564
3.44467	565
3.44833	565
3.45200	562
3.45567	560
3.45933	556
3.46300	550
3.46667	546
3.47033	543
3.47400	539
3.47767	536
3.48133	535
3.48500	534
3.48867	531
3.49233	530
3.49600	529
3.49967	527
3.50333	526
3.50700	526
3.51067	524
3.51433	521
3.51800	519
3.52167	518
3.52533	517
3.52900	515
3.53267	513
3.53633	512
3.54000	507
3.54367	503
3.54733	500
3.55100	499
3.55467	499
3.55833	497
3.56200	496
3.56567	492
3.56933	491
3.57300	490
3.57667	490
3.58033	490
3.58400	490
3.58767	490
3.59133	491
3.59500	493
3.59867	494
3.60233	492
3.60600	487
3.60967	485
3.61333	482
3.61700	479
3.62067	479
3.62433	476
3.62800	473
3.63167	470
3.63533	469
3.63900	470
3.64267	469
3.64633	467
3.65000	465
3.65367	462
3.65733	458
3.66100	456
3.66467	453
3.66833	451
3.67200	451
3.67567	449
3.67933	447
3.68300	446
3.68667	448
3.69033	447
3.69400	444
3.69767	445
3.70133	446
3.70500	445
3.70867	443
3.71233	440
3.71600	437
3.71967	436
3.72333	436
3.72700	438
3.73067	439
3.73433	442
3.73800	442
3.74167	439
3.74533	440
3.74900	440
3.75267	437
3.75633	433
3.76000	432
3.76367	432
3.76733	432
3.77100	431
3.77467	429
3.77833	427
3.78200	424
3.78567	421
3.78933	421
3.79300	420
3.79667	421
3.80033	424
3.80400	427
3.80767	425
3.81133	424
3.81500	419
3.81867	417
3.82233	417
3.82600	417
3.82967	414
3.83333	411
3.83700	411
3.84067	411
3.84433	409
3.84800	411
3.85167	411
3.85533	409
3.85900	408
3.86267	407
3.86633	408
3.87000	408
3.87367	404
3.87733	399
3.88100	396
3.88467	397
3.88833	399
3.89200	401
3.89567	402
3.89933	401
3.90300	400
3.90667	397
3.91033	395
3.91400	394
3.91767	393
3.92133	391
3.92500	388
3.92867	389
3.93233	389
3.93600	388
3.93967	387
3.94333	386
3.94700	386
3.95067	387
3.95433	388
3.95800	388
3.96167	387
3.96533	386
3.96900	386
3.97267	387
3.97633	388
3.98000	388
3.98367	388
3.98733	387
3.99100	385
3.99467	381
3.99833	379

[Status Trace (Column Oven Temperature)]
Interval(msec)	1000
# of Points	240
Start Time(min)	0.002
End Time(min)	3.985
Intensity Units	
Intensity Multiplier	1
R.Time (min)	Intensity
0.00205	35.02
0.01872	35.01
0.03538	35.00
0.05205	34.99
0.06872	34.99
0.08538	35.00
0.10205	35.02
0.11872	35.02
0.13538	35.02
0.15205	35.02
0.16872	35.02
0.18538	35.01
0.20205	34.99
0.21872	34.99
0.23538	34.98
0.25205	34.98
0.26872	34.97
0.28538	34.97
0.30205	34.97
0.31872	34.98
0.33538	34.98
0.35205	34.98
0.36872	34.99
0.38538	34.98
0.40205	34.99
0.41872	35.00
0.43538	35.00
0.45205	35.01
0.46872	35.01
0.48538	35.01
0.50205	35.01
0.51872	35.02
0.53538	35.00
0.55205	34.99
0.56872	34.99
0.58538	34.97
0.60205	34.96
0.61872	34.95
0.63538	34.95
0.65205	34.94
0.66872	34.95
0.68538	34.97
0.70205	34.98
0.71872	35.00
0.73538	35.00
0.75205	35.01
0.76872	35.01
0.78538	35.00
0.80205	35.00
0.81872	35.00
0.83538	35.00
0.85205	34.99
0.86872	34.99
0.88538	34.98
0.90205	34.98
0.91872	34.99
0.93538	34.99
0.95205	34.98
0.96872	34.98
0.98538	34.97
1.00205	34.96
1.01872	34.96
1.03538	34.97
1.05205	34.97
1.06872	34.97
1.08538	34.98
1.10205	34.98
1.11872	34.98
1.13538	34.97
1.15205	34.97
1.16872	34.98
1.18538	34.97
1.20205	34.97
1.21872	34.98
1.23538	34.97
1.25205	34.97
1.26872	34.98
1.28538	34.99
1.30205	34.98
1.31872	35.00
1.33538	35.00
1.35205	35.01
1.36872	35.02
1.38538	35.02
1.40205	35.02
1.41872	35.01
1.43538	35.01
1.45205	35.00
1.46872	35.00
1.48538	35.00
1.50205	34.99
1.51872	34.99
1.53538	34.99
1.55205	34.99
1.56872	34.98
1.58538	34.98
1.60205	35.02
1.61872	35.13
1.63538	35.30
1.65205	35.53
1.66872	35.84
1.68538	36.20
1.70205	36.55
1.71872	36.89
1.73538	37.24
1.75205	37.57
1.76872	37.89
1.78538	38.23
1.80205	38.56
1.81872	38.89
1.83538	39.23
1.85205	39.55
1.86872	39.88
1.88538	40.22
1.90205	40.54
1.91872	40.87
1.93538	41.21
1.95205	41.53
1.96872	41.86
1.98538	42.17
2.00205	42.51
2.01872	42.83
2.03538	43.17
2.05205	43.49
2.06872	43.82
2.08538	44.14
2.10205	44.49
2.11872	44.79
2.13538	45.11
2.15205	45.42
2.16872	45.75
2.18538	46.08
2.20205	46.41
2.21872	46.75
2.23538	47.08
2.25205	47.41
2.26872	47.74
2.28538	48.06
2.30205	48.41
2.31872	48.74
2.33538	49.04
2.35205	49.34
2.36872	49.56
2.38538	49.67
2.40205	49.68
2.41872	49.67
2.43538	49.67
2.45205	49.69
2.46872	49.69
2.48538	49.71
2.50205	49.70
2.51872	49.72
2.53538	49.73
2.55205	49.73
2.56872	49.75
2.58538	49.76
2.60205	49.77
2.61872	49.79
2.63538	49.83
2.65205	49.84
2.66872	49.85
2.68538	49.84
2.70205	49.84
2.71872	49.85
2.73538	49.86
2.75205	49.87
2.76872	49.86
2.78538	49.85
2.80205	49.84
2.81872	49.86
2.83538	49.88
2.85205	49.89
2.86872	49.90
2.88538	49.91
2.90205	49.91
2.91872	49.93
2.93538	49.94
2.95205	49.95
2.96872	49.96
2.98538	49.97
3.00205	49.97
3.01872	49.97
3.03538	49.98
3.05205	49.98
3.06872	49.98
3.08538	49.98
3.10205	50.00
3.11872	50.02
3.13538	50.02
3.15205	50.03
3.16872	50.03
3.18538	50.05
3.20205	50.07
3.21872	50.07
3.23538	50.08
3.25205	50.08
3.26872	50.08
3.28538	50.07
3.30205	50.07
3.31872	50.07
3.33538	50.07
3.35205	50.09
3.36872	50.09
3.38538	50.10
3.40205	50.11
3.41872	50.11
3.43538	50.10
3.45205	50.09
3.46872	50.09
3.48538	50.07
3.50205	50.06
3.51872	50.05
3.53538	50.04
3.55205	50.04
3.56872	50.04
3.58538	50.03
3.60205	50.03
3.61872	50.03
3.63538	50.03
3.65205	50.03
3.66872	50.04
3.68538	50.05
3.70205	50.05
3.71872	50.06
3.73538	50.06
3.75205	50.05
3.76872	50.05
3.78538	50.05
3.80205	50.05
3.81872	50.04
3.83538	50.04
3.85205	50.04
3.86872	50.04
3.88538	50.04
3.90205	50.04
3.91872	50.05
3.93538	50.05
3.95205	50.05
3.96872	50.05
3.98538	50.05

[Status Trace (Injection Unit Temperature)]
Interval(msec)	1000
# of Points	240
Start Time(min)	0.002
End Time(min)	3.985
Intensity Units	
Intensity Multiplier	1
R.Time (min)	Intensity
0.00205	99.98
0.01872	99.98
0.03538	99.98
0.05205	99.98
0.06872	99.98
0.08538	99.98
0.10205	99.98
0.11872	99.98
0.13538	99.98
0.15205	99.98
0.16872	99.98
0.18538	99.98
0.20205	99.98
0.21872	99.98
0.23538	99.98
0.25205	99.98
0.26872	99.98
0.28538	99.98
0.30205	99.98
0.31872	99.98
0.33538	99.98
0.35205	99.98
0.36872	99.98
0.38538	99.98
0.40205	99.98
0.41872	99.99
0.43538	99.99
0.45205	99.98
0.46872	99.98
0.48538	99.98
0.50205	99.98
0.51872	99.98
0.53538	99.98
0.55205	99.98
0.56872	99.98
0.58538	99.98
0.60205	99.99
0.61872	99.99
0.63538	99.99
0.65205	99.98
0.66872	99.99
0.68538	99.99
0.70205	99.98
0.71872	99.99
0.73538	99.99
0.75205	99.99
0.76872	99.99
0.78538	99.99
0.80205	99.99
0.81872	99.99
0.83538	99.99
0.85205	99.99
0.86872	99.99
0.88538	99.99
0.90205	99.99
0.91872	99.98
0.93538	99.99
0.95205	99.99
0.96872	99.99
0.98538	99.99
1.00205	99.99
1.01872	99.99
1.03538	99.99
1.05205	100.00
1.06872	99.99
1.08538	99.99
1.10205	99.99
1.11872	99.99
1.13538	99.99
1.15205	99.99
1.16872	99.99
1.18538	99.99
1.20205	99.99
1.21872	99.99
1.23538	99.99
1.25205	99.99
1.26872	99.99
1.28538	99.99
1.30205	99.99
1.31872	99.99
1.33538	99.99
1.35205	99.99
1.36872	99.99
1.38538	99.99
1.40205	99.99
1.41872	99.99
1.43538	99.99
1.45205	99.99
1.46872	99.99
1.48538	99.99
1.50205	99.99
1.51872	99.99
1.53538	99.99
1.55205	99.99
1.56872	99.99
1.58538	99.99
1.60205	99.99
1.61872	99.99
1.63538	100.00
1.65205	100.00
1.66872	99.99
1.68538	99.99
1.70205	99.99
1.71872	99.99
1.73538	100.00
1.75205	99.99
1.76872	99.99
1.78538	99.99
1.80205	99.99
1.81872	99.99
1.83538	99.99
1.85205	99.99
1.86872	99.99
1.88538	99.99
1.90205	99.99
1.91872	99.99
1.93538	99.99
1.95205	99.99
1.96872	99.98
1.98538	99.99
2.00205	99.98
2.01872	99.99
2.03538	99.98
2.05205	99.98
2.06872	99.98
2.08538	99.98
2.10205	99.98
2.11872	99.98
2.13538	99.98
2.15205	99.98
2.16872	99.98
2.18538	99.98
2.20205	99.98
2.21872	99.97
2.23538	99.98
2.25205	99.97
2.26872	99.97
2.28538	99.97
2.30205	99.97
2.31872	99.97
2.33538	99.97
2.35205	99.97
2.36872	99.97
2.38538	99.97
2.40205	99.97
2.41872	99.97
2.43538	99.97
2.45205	99.97
2.46872	99.97
2.48538	99.97
2.50205	99.97
2.51872	99.97
2.53538	99.97
2.55205	99.97
2.56872	99.98
2.58538	99.98
2.60205	99.98
2.61872	99.98
2.63538	99.98
2.65205	99.98
2.66872	99.98
2.68538	99.99
2.70205	99.98
2.71872	99.98
2.73538	99.98
2.75205	99.99
2.76872	99.99
2.78538	99.99
2.80205	100.00
2.81872	99.99
2.83538	99.99
2.85205	100.00
2.86872	100.00
2.88538	100.00
2.90205	100.00
2.91872	100.00
2.93538	100.01
2.95205	100.00
2.96872	100.00
2.98538	100.01
3.00205	100.01
3.01872	100.01
3.03538	100.01
3.05205	100.01
3.06872	100.01
3.08538	100.02
3.10205	100.02
3.11872	100.02
3.13538	100.02
3.15205	100.02
3.16872	100.02
3.18538	100.02
3.20205	100.02
3.21872	100.03
3.23538	100.02
3.25205	100.02
3.26872	100.03
3.28538	100.03
3.30205	100.02
3.31872	100.03
3.33538	100.03
3.35205	100.03
3.36872	100.03
3.38538	100.03
3.40205	100.03
3.41872	100.03
3.43538	100.03
3.45205	100.03
3.46872	100.03
3.48538	100.04
3.50205	100.03
3.51872	100.03
3.53538	100.03
3.55205	100.04
3.56872	100.03
3.58538	100.03
3.60205	100.03
3.61872	100.03
3.63538	100.04
3.65205	100.03
3.66872	100.03
3.68538	100.03
3.70205	100.04
3.71872	100.03
3.73538	100.03
3.75205	100.04
3.76872	100.03
3.78538	100.03
3.80205	100.03
3.81872	100.04
3.83538	100.03
3.85205	100.04
3.86872	100.03
3.88538	100.04
3.90205	100.04
3.91872	100.03
3.93538	100.04
3.95205	100.04
3.96872	100.04
3.98538	100.04

[Status Trace (Carrier Gas Pressure)]
Interval(msec)	1000
# of Points	240
Start Time(min)	0.002
End Time(min)	3.985
Intensity Units	
Intensity Multiplier	1
R.Time (min)	Intensity
0.00205	58.00
0.01872	56.38
0.03538	56.27
0.05205	58.45
0.06872	59.89
0.08538	58.31
0.10205	57.97
0.11872	58.01
0.13538	58.01
0.15205	58.01
0.16872	58.00
0.18538	58.00
0.20205	58.00
0.21872	58.00
0.23538	58.00
0.25205	58.00
0.26872	58.00
0.28538	58.00
0.30205	58.00
0.31872	58.00
0.33538	58.00
0.35205	58.00
0.36872	58.00
0.38538	58.00
0.40205	58.00
0.41872	58.00
0.43538	58.00
0.45205	58.00
0.46872	58.00
0.48538	58.00
0.50205	58.00
0.51872	58.00
0.53538	58.00
0.55205	58.00
0.56872	58.00
0.58538	58.00
0.60205	58.00
0.61872	58.00
0.63538	58.00
0.65205	58.00
0.66872	58.00
0.68538	58.00
0.70205	58.00
0.71872	58.00
0.73538	58.00
0.75205	58.00
0.76872	58.00
0.78538	58.00
0.80205	58.00
0.81872	58.00
0.83538	58.00
0.85205	58.00
0.86872	58.00
0.88538	58.00
0.90205	58.00
0.91872	58.00
0.93538	58.00
0.95205	58.00
0.96872	58.00
0.98538	58.00
1.00205	58.00
1.01872	58.00
1.03538	58.00
1.05205	58.00
1.06872	58.00
1.08538	58.00
1.10205	58.00
1.11872	58.00
1.13538	58.00
1.15205	58.00
1.16872	58.00
1.18538	58.00
1.20205	58.00
1.21872	58.00
1.23538	58.00
1.25205	58.00
1.26872	58.00
1.28538	58.00
1.30205	58.00
1.31872	58.00
1.33538	58.00
1.35205	58.00
1.36872	58.00
1.38538	58.00
1.40205	58.00
1.41872	58.00
1.43538	58.00
1.45205	58.00
1.46872	58.00
1.48538	58.00
1.50205	58.00
1.51872	58.00
1.53538	58.00
1.55205	58.00
1.56872	58.00
1.58538	58.00
1.60205	58.00
1.61872	58.00
1.63538	58.01
1.65205	58.00
1.66872	58.01
1.68538	58.01
1.70205	58.00
1.71872	58.00
1.73538	58.00
1.75205	58.00
1.76872	58.00
1.78538	58.00
1.80205	58.00
1.81872	58.00
1.83538	58.00
1.85205	58.00
1.86872	58.00
1.88538	58.00
1.90205	58.00
1.91872	58.00
1.93538	58.00
1.95205	58.00
1.96872	58.00
1.98538	58.00
2.00205	58.00
2.01872	58.00
2.03538	58.00
2.05205	58.00
2.06872	58.00
2.08538	58.00
2.10205	58.00
2.11872	58.00
2.13538	58.00
2.15205	58.00
2.16872	58.00
2.18538	58.00
2.20205	58.00
2.21872	58.00
2.23538	58.00
2.25205	58.00
2.26872	58.00
2.28538	58.00
2.30205	58.00
2.31872	58.00
2.33538	58.00
2.35205	58.00
2.36872	58.00
2.38538	57.99
2.40205	57.99
2.41872	58.00
2.43538	58.00
2.45205	58.00
2.46872	58.00
2.48538	58.00
2.50205	58.00
2.51872	58.01
2.53538	57.99
2.55205	58.00
2.56872	58.00
2.58538	58.00
2.60205	58.00
2.61872	58.00
2.63538	58.00
2.65205	58.00
2.66872	58.00
2.68538	58.00
2.70205	58.00
2.71872	58.00
2.73538	58.00
2.75205	58.00
2.76872	58.00
2.78538	58.00
2.80205	58.00
2.81872	58.00
2.83538	58.00
2.85205	58.00
2.86872	58.00
2.88538	58.00
2.90205	58.00
2.91872	58.00
2.93538	58.00
2.95205	58.00
2.96872	58.00
2.98538	58.00
3.00205	58.00
3.01872	58.00
3.03538	58.00
3.05205	58.00
3.06872	58.00
3.08538	58.00
3.10205	58.00
3.11872	58.00
3.13538	58.00
3.15205	58.00
3.16872	58.00
3.18538	58.00
3.20205	58.00
3.21872	58.00
3.23538	58.00
3.25205	58.00
3.26872	58.00
3.28538	58.00
3.30205	58.00
3.31872	58.00
3.33538	58.00
3.35205	58.00
3.36872	58.00
3.38538	58.00
3.40205	58.00
3.41872	58.00
3.43538	58.00
3.45205	58.00
3.46872	58.00
3.48538	58.00
3.50205	58.00
3.51872	58.00
3.53538	58.00
3.55205	58.00
3.56872	58.00
3.58538	58.00
3.60205	58.00
3.61872	58.00
3.63538	58.00
3.65205	58.00
3.66872	58.00
3.68538	58.00
3.70205	58.00
3.71872	58.00
3.73538	58.00
3.75205	58.00
3.76872	58.00
3.78538	58.00
3.80205	58.00
3.81872	58.00
3.83538	58.00
3.85205	58.00
3.86872	58.00
3.88538	58.00
3.90205	58.00
3.91872	58.00
3.93538	58.00
3.95205	58.00
3.96872	58.00
3.98538	58.00

[Status Trace (Carrier Gas Flow)]
Interval(msec)	1000
# of Points	240
Start Time(min)	0.002
End Time(min)	3.985
Intensity Units	
Intensity Multiplier	1
R.Time (min)	Intensity
0.00205	34.52
0.01872	34.48
0.03538	34.54
0.05205	34.54
0.06872	34.51
0.08538	34.52
0.10205	34.52
0.11872	34.53
0.13538	34.52
0.15205	34.52
0.16872	34.52
0.18538	34.52
0.20205	34.52
0.21872	34.52
0.23538	34.52
0.25205	34.52
0.26872	34.52
0.28538	34.52
0.30205	34.52
0.31872	34.52
0.33538	34.52
0.35205	34.52
0.36872	34.52
0.38538	34.52
0.40205	34.52
0.41872	34.52
0.43538	34.52
0.45205	34.52
0.46872	34.52
0.48538	34.52
0.50205	34.52
0.51872	34.52
0.53538	34.52
0.55205	34.52
0.56872	34.52
0.58538	34.52
0.60205	34.52
0.61872	34.52
0.63538	34.52
0.65205	34.52
0.66872	34.52
0.68538	34.52
0.70205	34.52
0.71872	34.52
0.73538	34.52
0.75205	34.52
0.76872	34.53
0.78538	34.52
0.80205	34.53
0.81872	34.51
0.83538	34.53
0.85205	34.51
0.86872	34.51
0.88538	34.52
0.90205	34.52
0.91872	34.52
0.93538	34.53
0.95205	34.51
0.96872	34.52
0.98538	34.52
1.00205	34.52
1.01872	34.52
1.03538	34.52
1.05205	34.53
1.06872	34.51
1.08538	34.52
1.10205	34.52
1.11872	34.52
1.13538	34.52
1.15205	34.50
1.16872	34.52
1.18538	34.52
1.20205	34.52
1.21872	34.52
1.23538	34.52
1.25205	34.52
1.26872	34.53
1.28538	34.52
1.30205	34.53
1.31872	34.52
1.33538	34.52
1.35205	34.52
1.36872	34.52
1.38538	34.52
1.40205	34.52
1.41872	34.51
1.43538	34.52
1.45205	34.51
1.46872	34.51
1.48538	34.53
1.50205	34.50
1.51872	34.52
1.53538	34.51
1.55205	34.52
1.56872	34.52
1.58538	34.52
1.60205	34.52
1.61872	34.54
1.63538	34.52
1.65205	34.52
1.66872	34.52
1.68538	34.52
1.70205	34.51
1.71872	34.53
1.73538	34.52
1.75205	34.51
1.76872	34.52
1.78538	34.52
1.80205	34.52
1.81872	34.52
1.83538	34.53
1.85205	34.51
1.86872	34.52
1.88538	34.51
1.90205	34.52
1.91872	34.52
1.93538	34.52
1.95205	34.50
1.96872	34.52
1.98538	34.51
2.00205	34.51
2.01872	34.52
2.03538	34.52
2.05205	34.52
2.06872	34.52
2.08538	34.52
2.10205	34.52
2.11872	34.52
2.13538	34.52
2.15205	34.52
2.16872	34.53
2.18538	34.53
2.20205	34.50
2.21872	34.52
2.23538	34.53
2.25205	34.51
2.26872	34.52
2.28538	34.52
2.30205	34.53
2.31872	34.52
2.33538	34.52
2.35205	34.52
2.36872	34.52
2.38538	34.52
2.40205	34.52
2.41872	34.52
2.43538	34.52
2.45205	34.51
2.46872	34.52
2.48538	34.52
2.50205	34.51
2.51872	34.52
2.53538	34.52
2.55205	34.52
2.56872	34.52
2.58538	34.52
2.60205	34.52
2.61872	34.52
2.63538	34.52
2.65205	34.52
2.66872	34.52
2.68538	34.52
2.70205	34.52
2.71872	34.52
2.73538	34.52
2.75205	34.52
2.76872	34.52
2.78538	34.52
2.80205	34.52
2.81872	34.52
2.83538	34.52
2.85205	34.52
2.86872	34.52
2.88538	34.52
2.90205	34.52
2.91872	34.52
2.93538	34.52
2.95205	34.52
2.96872	34.52
2.98538	34.52
3.00205	34.52
3.01872	34.52
3.03538	34.52
3.05205	34.52
3.06872	34.52
3.08538	34.52
3.10205	34.52
3.11872	34.52
3.13538	34.52
3.15205	34.52
3.16872	34.52
3.18538	34.52
3.20205	34.52
3.21872	34.52
3.23538	34.52
3.25205	34.52
3.26872	34.52
3.28538	34.52
3.30205	34.52
3.31872	34.52
3.33538	34.52
3.35205	34.52
3.36872	34.52
3.38538	34.52
3.40205	34.51
3.41872	34.52
3.43538	34.52
3.45205	34.52
3.46872	34.52
3.48538	34.52
3.50205	34.52
3.51872	34.52
3.53538	34.52
3.55205	34.52
3.56872	34.52
3.58538	34.52
3.60205	34.52
3.61872	34.52
3.63538	34.52
3.65205	34.51
3.66872	34.50
3.68538	34.52
3.70205	34.52
3.71872	34.51
3.73538	34.52
3.75205	34.52
3.76872	34.52
3.78538	34.52
3.80205	34.52
3.81872	34.52
3.83538	34.52
3.85205	34.53
3.86872	34.52
3.88538	34.52
3.90205	34.52
3.91872	34.52
3.93538	34.53
3.95205	34.52
3.96872	34.54
3.98538	34.52

[Status Trace (Column Flow)]
Interval(msec)	1000
# of Points	240
Start Time(min)	0.002
End Time(min)	3.985
Intensity Units	
Intensity Multiplier	1
R.Time (min)	Intensity
0.00205	5.45
0.01872	5.27
0.03538	5.26
0.05205	5.51
0.06872	5.67
0.08538	5.49
0.10205	5.45
0.11872	5.45
0.13538	5.45
0.15205	5.45
0.16872	5.45
0.18538	5.45
0.20205	5.45
0.21872	5.45
0.23538	5.45
0.25205	5.45
0.26872	5.46
0.28538	5.46
0.30205	5.46
0.31872	5.46
0.33538	5.45
0.35205	5.45
0.36872	5.45
0.38538	5.45
0.40205	5.45
0.41872	5.45
0.43538	5.45
0.45205	5.45
0.46872	5.45
0.48538	5.45
0.50205	5.45
0.51872	5.45
0.53538	5.45
0.55205	5.45
0.56872	5.45
0.58538	5.46
0.60205	5.46
0.61872	5.46
0.63538	5.46
0.65205	5.46
0.66872	5.46
0.68538	5.46
0.70205	5.45
0.71872	5.45
0.73538	5.45
0.75205	5.45
0.76872	5.45
0.78538	5.45
0.80205	5.45
0.81872	5.45
0.83538	5.45
0.85205	5.45
0.86872	5.45
0.88538	5.45
0.90205	5.45
0.91872	5.45
0.93538	5.45
0.95205	5.45
0.96872	5.45
0.98538	5.45
1.00205	5.46
1.01872	5.46
1.03538	5.46
1.05205	5.46
1.06872	5.46
1.08538	5.46
1.10205	5.45
1.11872	5.45
1.13538	5.45
1.15205	5.46
1.16872	5.45
1.18538	5.45
1.20205	5.45
1.21872	5.45
1.23538	5.45
1.25205	5.46
1.26872	5.45
1.28538	5.45
1.30205	5.45
1.31872	5.45
1.33538	5.45
1.35205	5.45
1.36872	5.45
1.38538	5.45
1.40205	5.45
1.41872	5.45
1.43538	5.45
1.45205	5.45
1.46872	5.45
1.48538	5.45
1.50205	5.45
1.51872	5.45
1.53538	5.45
1.55205	5.45
1.56872	5.45
1.58538	5.45
1.60205	5.45
1.61872	5.45
1.63538	5.45
1.65205	5.44
1.66872	5.43
1.68538	5.42
1.70205	5.41
1.71872	5.40
1.73538	5.39
1.75205	5.38
1.76872	5.37
1.78538	5.36
1.80205	5.35
1.81872	5.34
1.83538	5.33
1.85205	5.32
1.86872	5.31
1.88538	5.30
1.90205	5.29
1.91872	5.28
1.93538	5.27
1.95205	5.26
1.96872	5.25
1.98538	5.24
2.00205	5.23
2.01872	5.22
2.03538	5.21
2.05205	5.20
2.06872	5.19
2.08538	5.18
2.10205	5.17
2.11872	5.16
2.13538	5.15
2.15205	5.14
2.16872	5.14
2.18538	5.13
2.20205	5.12
2.21872	5.11
2.23538	5.10
2.25205	5.09
2.26872	5.08
2.28538	5.07
2.30205	5.06
2.31872	5.05
2.33538	5.04
2.35205	5.04
2.36872	5.03
2.38538	5.02
2.40205	5.02
2.41872	5.02
2.43538	5.03
2.45205	5.02
2.46872	5.02
2.48538	5.02
2.50205	5.02
2.51872	5.02
2.53538	5.02
2.55205	5.02
2.56872	5.02
2.58538	5.02
2.60205	5.02
2.61872	5.02
2.63538	5.02
2.65205	5.02
2.66872	5.02
2.68538	5.02
2.70205	5.02
2.71872	5.02
2.73538	5.02
2.75205	5.02
2.76872	5.02
2.78538	5.02
2.80205	5.02
2.81872	5.02
2.83538	5.02
2.85205	5.02
2.86872	5.02
2.88538	5.02
2.90205	5.02
2.91872	5.02
2.93538	5.02
2.95205	5.02
2.96872	5.02
2.98538	5.02
3.00205	5.02
3.01872	5.02
3.03538	5.02
3.05205	5.02
3.06872	5.02
3.08538	5.02
3.10205	5.02
3.11872	5.02
3.13538	5.02
3.15205	5.02
3.16872	5.02
3.18538	5.02
3.20205	5.01
3.21872	5.01
3.23538	5.01
3.25205	5.01
3.26872	5.01
3.28538	5.01
3.30205	5.01
3.31872	5.01
3.33538	5.01
3.35205	5.01
3.36872	5.01
3.38538	5.01
3.40205	5.01
3.41872	5.01
3.43538	5.01
3.45205	5.01
3.46872	5.01
3.48538	5.01
3.50205	5.01
3.51872	5.01
3.53538	5.02
3.55205	5.02
3.56872	5.02
3.58538	5.02
3.60205	5.02
3.61872	5.02
3.63538	5.02
3.65205	5.02
3.66872	5.01
3.68538	5.01
3.70205	5.01
3.71872	5.01
3.73538	5.01
3.75205	5.01
3.76872	5.01
3.78538	5.01
3.80205	5.01
3.81872	5.02
3.83538	5.02
3.85205	5.02
3.86872	5.02
3.88538	5.01
3.90205	5.02
3.91872	5.01
3.93538	5.01
3.95205	5.01
3.96872	5.01
3.98538	5.01

[Status Trace (Linear Velocity)]
Interval(msec)	1000
# of Points	240
Start Time(min)	0.002
End Time(min)	3.985
Intensity Units	
Intensity Multiplier	1
R.Time (min)	Intensity
0.00205	39.00
0.01872	37.94
0.03538	37.87
0.05205	39.30
0.06872	40.24
0.08538	39.20
0.10205	38.98
0.11872	39.00
0.13538	39.01
0.15205	39.00
0.16872	39.00
0.18538	39.00
0.20205	39.00
0.21872	39.00
0.23538	39.00
0.25205	39.00
0.26872	39.00
0.28538	39.00
0.30205	39.00
0.31872	39.00
0.33538	39.00
0.35205	39.00
0.36872	39.00
0.38538	39.00
0.40205	39.00
0.41872	39.00
0.43538	39.00
0.45205	39.00
0.46872	39.00
0.48538	39.00
0.50205	39.00
0.51872	39.00
0.53538	39.00
0.55205	39.00
0.56872	39.00
0.58538	39.00
0.60205	39.00
0.61872	39.01
0.63538	39.01
0.65205	39.01
0.66872	39.01
0.68538	39.00
0.70205	39.00
0.71872	39.00
0.73538	39.00
0.75205	39.00
0.76872	39.00
0.78538	39.00
0.80205	39.00
0.81872	39.00
0.83538	39.00
0.85205	39.00
0.86872	39.00
0.88538	39.00
0.90205	39.00
0.91872	39.00
0.93538	39.00
0.95205	39.00
0.96872	39.00
0.98538	39.00
1.00205	39.00
1.01872	39.00
1.03538	39.00
1.05205	39.00
1.06872	39.00
1.08538	39.00
1.10205	39.00
1.11872	39.00
1.13538	39.00
1.15205	39.00
1.16872	39.00
1.18538	39.00
1.20205	39.00
1.21872	39.00
1.23538	39.00
1.25205	39.00
1.26872	39.00
1.28538	39.00
1.30205	39.00
1.31872	39.00
1.33538	39.00
1.35205	39.00
1.36872	39.00
1.38538	39.00
1.40205	39.00
1.41872	39.00
1.43538	39.00
1.45205	39.00
1.46872	39.00
1.48538	39.00
1.50205	39.00
1.51872	39.00
1.53538	39.00
1.55205	39.00
1.56872	39.00
1.58538	39.00
1.60205	39.00
1.61872	38.99
1.63538	38.98
1.65205	38.95
1.66872	38.93
1.68538	38.89
1.70205	38.86
1.71872	38.82
1.73538	38.79
1.75205	38.76
1.76872	38.73
1.78538	38.70
1.80205	38.67
1.81872	38.63
1.83538	38.60
1.85205	38.57
1.86872	38.54
1.88538	38.51
1.90205	38.48
1.91872	38.45
1.93538	38.42
1.95205	38.39
1.96872	38.35
1.98538	38.33
2.00205	38.30
2.01872	38.27
2.03538	38.23
2.05205	38.20
2.06872	38.18
2.08538	38.15
2.10205	38.12
2.11872	38.09
2.13538	38.06
2.15205	38.03
2.16872	38.00
2.18538	37.97
2.20205	37.94
2.21872	37.91
2.23538	37.88
2.25205	37.85
2.26872	37.82
2.28538	37.79
2.30205	37.76
2.31872	37.73
2.33538	37.70
2.35205	37.68
2.36872	37.66
2.38538	37.64
2.40205	37.64
2.41872	37.64
2.43538	37.65
2.45205	37.64
2.46872	37.64
2.48538	37.64
2.50205	37.64
2.51872	37.65
2.53538	37.64
2.55205	37.64
2.56872	37.64
2.58538	37.64
2.60205	37.64
2.61872	37.64
2.63538	37.63
2.65205	37.63
2.66872	37.63
2.68538	37.63
2.70205	37.63
2.71872	37.63
2.73538	37.63
2.75205	37.63
2.76872	37.63
2.78538	37.63
2.80205	37.63
2.81872	37.63
2.83538	37.63
2.85205	37.63
2.86872	37.63
2.88538	37.63
2.90205	37.62
2.91872	37.62
2.93538	37.62
2.95205	37.62
2.96872	37.62
2.98538	37.62
3.00205	37.62
3.01872	37.62
3.03538	37.62
3.05205	37.62
3.06872	37.62
3.08538	37.62
3.10205	37.62
3.11872	37.62
3.13538	37.61
3.15205	37.61
3.16872	37.61
3.18538	37.61
3.20205	37.61
3.21872	37.61
3.23538	37.61
3.25205	37.61
3.26872	37.61
3.28538	37.61
3.30205	37.61
3.31872	37.61
3.33538	37.61
3.35205	37.61
3.36872	37.61
3.38538	37.61
3.40205	37.61
3.41872	37.61
3.43538	37.61
3.45205	37.61
3.46872	37.61
3.48538	37.61
3.50205	37.61
3.51872	37.61
3.53538	37.61
3.55205	37.61
3.56872	37.61
3.58538	37.61
3.60205	37.61
3.61872	37.61
3.63538	37.61
3.65205	37.61
3.66872	37.61
3.68538	37.61
3.70205	37.61
3.71872	37.61
3.73538	37.61
3.75205	37.61
3.76872	37.61
3.78538	37.61
3.80205	37.61
3.81872	37.61
3.83538	37.61
3.85205	37.61
3.86872	37.61
3.88538	37.61
3.90205	37.61
3.91872	37.61
3.93538	37.61
3.95205	37.61
3.96872	37.61
3.98538	37.61

