[Header]
Application Name	LabSolutions
Version	5.110
Data File Name	C:\Users\User\Desktop\GC Analyses\Jack\UIC Prairie Sampling\8.12.22\220812_099.gcd
Output Date	10/14/2022
Output Time	2:33:56 PM

[File Information]
Type	Data File
Generated	10/13/2022 3:57:45 PM
Generated by	System Administrator
Modified	10/13/2022 4:02:13 PM
Modified by	System Administrator

[Sample Information]
Operator Name	System Administrator
Acquired	10/13/2022 3:58:13 PM
Sample Type	1:Standard
Level	1
Sample Name	220812_UICPrairie
Sample ID	220812_UICPrairie
ISTD Amount1	1
ISTD Amount2	1
ISTD Amount3	1
ISTD Amount4	1
ISTD Amount5	1
ISTD Amount6	1
ISTD Amount7	1
ISTD Amount8	1
ISTD Amount9	1
ISTD Amount10	1
ISTD Amount11	1
ISTD Amount12	1
ISTD Amount13	1
ISTD Amount14	1
ISTD Amount15	1
ISTD Amount16	1
ISTD Amount17	1
ISTD Amount18	1
ISTD Amount19	1
ISTD Amount20	1
ISTD Amount21	1
ISTD Amount22	1
ISTD Amount23	1
ISTD Amount24	1
ISTD Amount25	1
ISTD Amount26	1
ISTD Amount27	1
ISTD Amount28	1
ISTD Amount29	1
ISTD Amount30	1
ISTD Amount31	1
ISTD Amount32	1
Sample Amount	1
Dilution Factor	1
Vial#	1
Injection Volume	1
Injection Count	1
Bar Code	

[Original Files]
Data File	C:\Users\User\Desktop\GC Analyses\Jack\UIC Prairie Sampling\8.12.22\220812_099.gcd
Method File	C:\LabSolutions\Data\GHG_4min_2022\ghg3_togas_w_acet_4 min_new_int.gcm
Batch File	
Report Format File	c:\LabSolutions\System\DEFAULT.lsr

[File Description]


[Configuration]
Instrument Name	C0B7VH3-Instrument1
Instrument #	1
Line #	1
# of Detectors	3
Detector ID	DET#1	DET#2	DET#3
Detector Name	FID	PTCD	ECD
# of Channels	1	1	1

[Peak Table(Ch1)]
# of Peaks	3
Peak#	R.Time	I.Time	F.Time	Area	Height	A/H	Conc.	Mark	ID#	Name	k'	Plate #	Plate Ht.	Tailing	Resolution	Sep.Factor	Area Ratio	Height Ratio	Conc. %	Norm Conc.
1	1.479	1.439	1.538	2862	1567	1.827	100.000	   	1	CO	0.000	13436	11.164	1.721	0.000	0.000	0	0	16.667	16.667
2	1.578	1.538	1.633	955	631	1.514	100.000	 V 	2	CH4	0.067	20128	7.452	0.927	2.072	0.000	0	0	16.667	16.667
3	2.011	1.952	2.183	246184	147570	1.668	400.000	   	3	CO2	0.359	26785	5.600	1.241	9.240	5.370	0	0	66.667	66.667

[Peak Table(Ch2)]
# of Peaks	0

[Peak Table(Ch3)]
# of Peaks	3
Peak#	R.Time	I.Time	F.Time	Area	Height	A/H	Conc.	Mark	ID#	Name	k'	Plate #	Plate Ht.	Tailing	Resolution	Sep.Factor	Area Ratio	Height Ratio	Conc. %	Norm Conc.
1	2.458	2.238	2.594	1810	194	9.308	0.000	   			0.000	3662	40.963	0.832	0.000	0.000	0	0	0.000	0.000
2	2.737	2.598	2.847	10041	788	12.743	0.380	   	1	N2O	0.113	161	933.607	0.000	0.543	0.000	0	0	38.005	38.005
3	2.895	2.847	3.408	16379	1804	9.081	0.620	 V 	1	N2O	0.177	7286	20.588	0.000	0.316	1.566	0	0	61.995	61.995

[Compound Results(Ch1)]
# of IDs	6
ID#	Name	R.Time	Area	Height	Conc.	Curve	3rd	2nd	1st	Constant	Area Ratio	Height Ratio	Conc. %	Norm Conc.
1	CO	1.479	2862	1567	100.000	Linear	0.000000e+00	0.000000e+00	2.861541e+001	0.000000e+00	0	0	16.667	16.667
2	CH4	1.578	955	631	100.000	Linear	0.000000e+00	0.000000e+00	9.547299e+000	0.000000e+00	0	0	16.667	16.667
3	CO2	2.011	246184	147570	400.000	Linear	0.000000e+00	0.000000e+00	6.154601e+002	0.000000e+00	0	0	66.667	66.667
4	Ethylene	0.000	0	0	0.000	Linear	0.000000e+00	0.000000e+00	0.000000e+00	0.000000e+00	0	0	0.000	0.000
5	Acetylene	0.000	0	0	0.000	Linear	0.000000e+00	0.000000e+00	0.000000e+00	0.000000e+00	0	0	0.000	0.000
6	Ethane	0.000	0	0	0.000	Linear	0.000000e+00	0.000000e+00	0.000000e+00	0.000000e+00	0	0	0.000	0.000

[Compound Results(Ch2)]
# of IDs	5
ID#	Name	R.Time	Area	Height	Conc.	Curve	3rd	2nd	1st	Constant	Area Ratio	Height Ratio	Conc. %	Norm Conc.
1	Hydrogen	0.000	0	0	0.000	Linear	0.000000e+00	0.000000e+00	0.000000e+00	0.000000e+00	0	0	0.000	0.000
2	Oxygen	0.000	0	0	0.000	Linear	0.000000e+00	0.000000e+00	0.000000e+00	0.000000e+00	0	0	0.000	0.000
3	Nitrogen	0.000	0	0	0.000	Linear	0.000000e+00	0.000000e+00	0.000000e+00	0.000000e+00	0	0	0.000	0.000
4	Methane	0.000	0	0	0.000	Linear	0.000000e+00	0.000000e+00	0.000000e+00	0.000000e+00	0	0	0.000	0.000
5	Carbon Monoxide	0.000	0	0	0.000	Linear	0.000000e+00	0.000000e+00	0.000000e+00	0.000000e+00	0	0	0.000	0.000

[Compound Results(Ch3)]
# of IDs	2
ID#	Name	R.Time	Area	Height	Conc.	Curve	3rd	2nd	1st	Constant	Area Ratio	Height Ratio	Conc. %	Norm Conc.
1	N2O	2.895	26420	2592	1.000	Linear	0.000000e+00	0.000000e+00	2.642050e+004	0.000000e+00	0	0	100.000	100.000
2	SF6	0.000	0	0	0.000	Linear	0.000000e+00	0.000000e+00	0.000000e+00	0.000000e+00	0	0	0.000	0.000

[Group Results(Ch1)]
# of Groups	0

[Group Results(Ch2)]
# of Groups	0

[Group Results(Ch3)]
# of Groups	0

[Chromatogram (Ch1)]
Interval(msec)	220
# of Points	1091
Start Time(min)	0.002
End Time(min)	3.998
R.Time (min)	Intensity
0.00167	-22
0.00533	-17
0.00900	-9
0.01267	-1
0.01633	0
0.02000	-4
0.02367	-10
0.02733	-14
0.03100	-19
0.03467	-22
0.03833	-26
0.04200	-28
0.04567	-28
0.04933	-25
0.05300	-23
0.05667	-24
0.06033	-25
0.06400	-25
0.06767	-25
0.07133	-24
0.07500	-24
0.07867	-24
0.08233	-24
0.08600	-21
0.08967	-19
0.09333	-17
0.09700	-15
0.10067	-13
0.10433	-12
0.10800	-12
0.11167	-16
0.11533	-21
0.11900	-24
0.12267	-26
0.12633	-28
0.13000	-24
0.13367	-15
0.13733	-3
0.14100	7
0.14467	8
0.14833	1
0.15200	-12
0.15567	-23
0.15933	-31
0.16300	-37
0.16667	-37
0.17033	-37
0.17400	-40
0.17767	-42
0.18133	-42
0.18500	-40
0.18867	-36
0.19233	-32
0.19600	-28
0.19967	-27
0.20333	-28
0.20700	-30
0.21067	-31
0.21433	-34
0.21800	-38
0.22167	-37
0.22533	-34
0.22900	-32
0.23267	-33
0.23633	-34
0.24000	-32
0.24367	-29
0.24733	-29
0.25100	-34
0.25467	-41
0.25833	-46
0.26200	-49
0.26567	-49
0.26933	-49
0.27300	-48
0.27667	-48
0.28033	-51
0.28400	-53
0.28767	-51
0.29133	-51
0.29500	-50
0.29867	-47
0.30233	-45
0.30600	-45
0.30967	-42
0.31333	-40
0.31700	-44
0.32067	-50
0.32433	-52
0.32800	-49
0.33167	-44
0.33533	-39
0.33900	-37
0.34267	-39
0.34633	-42
0.35000	-44
0.35367	-46
0.35733	-49
0.36100	-53
0.36467	-55
0.36833	-54
0.37200	-49
0.37567	-42
0.37933	-37
0.38300	-34
0.38667	-32
0.39033	-32
0.39400	-32
0.39767	-34
0.40133	-40
0.40500	-48
0.40867	-57
0.41233	-66
0.41600	-69
0.41967	-64
0.42333	-57
0.42700	-48
0.43067	-42
0.43433	-37
0.43800	-33
0.44167	-32
0.44533	-35
0.44900	-38
0.45267	-42
0.45633	-48
0.46000	-55
0.46367	-61
0.46733	-66
0.47100	-71
0.47467	-75
0.47833	-74
0.48200	-72
0.48567	-69
0.48933	-66
0.49300	-67
0.49667	-67
0.50033	-68
0.50400	-66
0.50767	-62
0.51133	-60
0.51500	-63
0.51867	-67
0.52233	-68
0.52600	-63
0.52967	-59
0.53333	-61
0.53700	-67
0.54067	-72
0.54433	-71
0.54800	-64
0.55167	-56
0.55533	-53
0.55900	-55
0.56267	-59
0.56633	-64
0.57000	-69
0.57367	-72
0.57733	-74
0.58100	-73
0.58467	-71
0.58833	-68
0.59200	-66
0.59567	-66
0.59933	-68
0.60300	-71
0.60667	-76
0.61033	-82
0.61400	-84
0.61767	-83
0.62133	-80
0.62500	-76
0.62867	-72
0.63233	-68
0.63600	-65
0.63967	-65
0.64333	-67
0.64700	-72
0.65067	-78
0.65433	-82
0.65800	-81
0.66167	-80
0.66533	-79
0.66900	-77
0.67267	-75
0.67633	-73
0.68000	-73
0.68367	-74
0.68733	-76
0.69100	-78
0.69467	-77
0.69833	-73
0.70200	-73
0.70567	-72
0.70933	-71
0.71300	-69
0.71667	-69
0.72033	-72
0.72400	-78
0.72767	-85
0.73133	-87
0.73500	-84
0.73867	-81
0.74233	-80
0.74600	-80
0.74967	-81
0.75333	-81
0.75700	-80
0.76067	-81
0.76433	-82
0.76800	-84
0.77167	-87
0.77533	-93
0.77900	-97
0.78267	-94
0.78633	-88
0.79000	-84
0.79367	-82
0.79733	-82
0.80100	-82
0.80467	-82
0.80833	-83
0.81200	-85
0.81567	-89
0.81933	-93
0.82300	-95
0.82667	-96
0.83033	-95
0.83400	-91
0.83767	-89
0.84133	-85
0.84500	-80
0.84867	-77
0.85233	-80
0.85600	-84
0.85967	-87
0.86333	-91
0.86700	-92
0.87067	-89
0.87433	-86
0.87800	-83
0.88167	-82
0.88533	-84
0.88900	-86
0.89267	-87
0.89633	-87
0.90000	-83
0.90367	-80
0.90733	-78
0.91100	-76
0.91467	-76
0.91833	-75
0.92200	-77
0.92567	-82
0.92933	-87
0.93300	-91
0.93667	-93
0.94033	-93
0.94400	-88
0.94767	-83
0.95133	-78
0.95500	-77
0.95867	-80
0.96233	-81
0.96600	-83
0.96967	-85
0.97333	-88
0.97700	-90
0.98067	-92
0.98433	-93
0.98800	-90
0.99167	-86
0.99533	-88
0.99900	-91
1.00267	-94
1.00633	-96
1.01000	-97
1.01367	-98
1.01733	-96
1.02100	-94
1.02467	-95
1.02833	-96
1.03200	-95
1.03567	-93
1.03933	-92
1.04300	-92
1.04667	-91
1.05033	-90
1.05400	-85
1.05767	-81
1.06133	-80
1.06500	-81
1.06867	-88
1.07233	-102
1.07600	-112
1.07967	-115
1.08333	-113
1.08700	-111
1.09067	-110
1.09433	-109
1.09800	-107
1.10167	-105
1.10533	-102
1.10900	-98
1.11267	-92
1.11633	-85
1.12000	-80
1.12367	-79
1.12733	-83
1.13100	-90
1.13467	-97
1.13833	-104
1.14200	-112
1.14567	-118
1.14933	-120
1.15300	-123
1.15667	-125
1.16033	-125
1.16400	-126
1.16767	-125
1.17133	-119
1.17500	-110
1.17867	-103
1.18233	-97
1.18600	-94
1.18967	-96
1.19333	-99
1.19700	-99
1.20067	-98
1.20433	-96
1.20800	-97
1.21167	-102
1.21533	-108
1.21900	-112
1.22267	-114
1.22633	-112
1.23000	-106
1.23367	-101
1.23733	-99
1.24100	-97
1.24467	-91
1.24833	-84
1.25200	-79
1.25567	-80
1.25933	-86
1.26300	-93
1.26667	-100
1.27033	-107
1.27400	-114
1.27767	-120
1.28133	-127
1.28500	-136
1.28867	-139
1.29233	-134
1.29600	-129
1.29967	-129
1.30333	-132
1.30700	-133
1.31067	-127
1.31433	-118
1.31800	-108
1.32167	-100
1.32533	-100
1.32900	-107
1.33267	-115
1.33633	-123
1.34000	-131
1.34367	-135
1.34733	-135
1.35100	-136
1.35467	-140
1.35833	-143
1.36200	-141
1.36567	-134
1.36933	-123
1.37300	-113
1.37667	-105
1.38033	-101
1.38400	-101
1.38767	-108
1.39133	-115
1.39500	-118
1.39867	-117
1.40233	-118
1.40600	-121
1.40967	-123
1.41333	-126
1.41700	-130
1.42067	-133
1.42433	-133
1.42800	-132
1.43167	-132
1.43533	-131
1.43900	-127
1.44267	-125
1.44633	-122
1.45000	-118
1.45367	-111
1.45733	-99
1.46100	-61
1.46467	53
1.46833	318
1.47200	947
1.47567	1302
1.47933	1438
1.48300	1437
1.48667	1326
1.49033	1133
1.49400	899
1.49767	668
1.50133	467
1.50500	306
1.50867	185
1.51233	96
1.51600	29
1.51967	-20
1.52333	-53
1.52700	-75
1.53067	-90
1.53433	-100
1.53800	-103
1.54167	-99
1.54533	-96
1.54900	-95
1.55267	-93
1.55633	-92
1.56000	-87
1.56367	-49
1.56733	58
1.57100	234
1.57467	408
1.57833	498
1.58200	478
1.58567	381
1.58933	256
1.59300	145
1.59667	58
1.60033	-10
1.60400	-59
1.60767	-91
1.61133	-109
1.61500	-117
1.61867	-123
1.62233	-129
1.62600	-133
1.62967	-134
1.63333	-135
1.63700	-137
1.64067	-141
1.64433	-144
1.64800	-146
1.65167	-147
1.65533	-145
1.65900	-144
1.66267	-143
1.66633	-140
1.67000	-140
1.67367	-144
1.67733	-147
1.68100	-145
1.68467	-138
1.68833	-131
1.69200	-131
1.69567	-135
1.69933	-137
1.70300	-137
1.70667	-135
1.71033	-130
1.71400	-125
1.71767	-124
1.72133	-125
1.72500	-126
1.72867	-127
1.73233	-126
1.73600	-123
1.73967	-122
1.74333	-123
1.74700	-127
1.75067	-133
1.75433	-138
1.75800	-138
1.76167	-134
1.76533	-130
1.76900	-128
1.77267	-128
1.77633	-130
1.78000	-131
1.78367	-127
1.78733	-120
1.79100	-112
1.79467	-108
1.79833	-110
1.80200	-115
1.80567	-120
1.80933	-124
1.81300	-126
1.81667	-124
1.82033	-121
1.82400	-119
1.82767	-117
1.83133	-116
1.83500	-116
1.83867	-116
1.84233	-117
1.84600	-121
1.84967	-123
1.85333	-123
1.85700	-121
1.86067	-121
1.86433	-125
1.86800	-128
1.87167	-129
1.87533	-128
1.87900	-126
1.88267	-124
1.88633	-120
1.89000	-116
1.89367	-113
1.89733	-112
1.90100	-114
1.90467	-119
1.90833	-127
1.91200	-133
1.91567	-137
1.91933	-137
1.92300	-136
1.92667	-133
1.93033	-130
1.93400	-128
1.93767	-125
1.94133	-122
1.94500	-120
1.94867	-117
1.95233	-114
1.95600	-106
1.95967	-98
1.96333	-91
1.96700	-80
1.97067	-52
1.97433	15
1.97800	200
1.98167	840
1.98533	3104
1.98900	9786
1.99267	25162
1.99633	52181
2.00000	87983
2.00367	122705
2.00733	144627
2.01100	147493
2.01467	133392
2.01833	109616
2.02200	83703
2.02567	60559
2.02933	42187
2.03300	28668
2.03667	19212
2.04033	12813
2.04400	8573
2.04767	5793
2.05133	3980
2.05500	2795
2.05867	2016
2.06233	1498
2.06600	1148
2.06967	906
2.07333	736
2.07700	613
2.08067	525
2.08433	456
2.08800	398
2.09167	347
2.09533	304
2.09900	267
2.10267	235
2.10633	207
2.11000	184
2.11367	166
2.11733	151
2.12100	138
2.12467	129
2.12833	122
2.13200	114
2.13567	102
2.13933	92
2.14300	85
2.14667	81
2.15033	75
2.15400	66
2.15767	58
2.16133	53
2.16500	50
2.16867	51
2.17233	50
2.17600	46
2.17967	37
2.18333	32
2.18700	32
2.19067	37
2.19433	40
2.19800	39
2.20167	32
2.20533	25
2.20900	20
2.21267	14
2.21633	9
2.22000	7
2.22367	8
2.22733	8
2.23100	5
2.23467	0
2.23833	-8
2.24200	-16
2.24567	-18
2.24933	-16
2.25300	-12
2.25667	-5
2.26033	1
2.26400	0
2.26767	-8
2.27133	-18
2.27500	-27
2.27867	-31
2.28233	-31
2.28600	-22
2.28967	-10
2.29333	-3
2.29700	-4
2.30067	-12
2.30433	-20
2.30800	-23
2.31167	-21
2.31533	-22
2.31900	-27
2.32267	-32
2.32633	-34
2.33000	-35
2.33367	-38
2.33733	-41
2.34100	-41
2.34467	-38
2.34833	-34
2.35200	-29
2.35567	-23
2.35933	-18
2.36300	-14
2.36667	-11
2.37033	-7
2.37400	-5
2.37767	-4
2.38133	-1
2.38500	0
2.38867	-5
2.39233	-10
2.39600	-12
2.39967	-15
2.40333	-19
2.40700	-22
2.41067	-24
2.41433	-26
2.41800	-25
2.42167	-22
2.42533	-18
2.42900	-14
2.43267	-14
2.43633	-17
2.44000	-20
2.44367	-20
2.44733	-16
2.45100	-11
2.45467	-12
2.45833	-13
2.46200	-12
2.46567	-8
2.46933	-3
2.47300	3
2.47667	8
2.48033	12
2.48400	14
2.48767	12
2.49133	6
2.49500	-1
2.49867	-8
2.50233	-13
2.50600	-16
2.50967	-19
2.51333	-21
2.51700	-23
2.52067	-26
2.52433	-25
2.52800	-22
2.53167	-21
2.53533	-19
2.53900	-13
2.54267	-7
2.54633	-3
2.55000	-1
2.55367	-2
2.55733	-3
2.56100	-5
2.56467	-7
2.56833	-10
2.57200	-13
2.57567	-15
2.57933	-14
2.58300	-12
2.58667	-11
2.59033	-9
2.59400	-8
2.59767	-6
2.60133	-7
2.60500	-11
2.60867	-15
2.61233	-20
2.61600	-25
2.61967	-29
2.62333	-31
2.62700	-32
2.63067	-32
2.63433	-33
2.63800	-31
2.64167	-26
2.64533	-19
2.64900	-14
2.65267	-15
2.65633	-19
2.66000	-22
2.66367	-22
2.66733	-17
2.67100	-9
2.67467	-6
2.67833	-9
2.68200	-15
2.68567	-22
2.68933	-27
2.69300	-26
2.69667	-21
2.70033	-18
2.70400	-19
2.70767	-22
2.71133	-23
2.71500	-24
2.71867	-26
2.72233	-28
2.72600	-31
2.72967	-31
2.73333	-29
2.73700	-24
2.74067	-21
2.74433	-17
2.74800	-12
2.75167	-10
2.75533	-10
2.75900	-10
2.76267	-9
2.76633	-7
2.77000	-4
2.77367	-1
2.77733	-2
2.78100	-6
2.78467	-12
2.78833	-20
2.79200	-26
2.79567	-28
2.79933	-25
2.80300	-22
2.80667	-22
2.81033	-26
2.81400	-28
2.81767	-26
2.82133	-21
2.82500	-17
2.82867	-18
2.83233	-19
2.83600	-18
2.83967	-19
2.84333	-20
2.84700	-19
2.85067	-15
2.85433	-13
2.85800	-11
2.86167	-7
2.86533	-4
2.86900	-6
2.87267	-10
2.87633	-18
2.88000	-28
2.88367	-37
2.88733	-42
2.89100	-42
2.89467	-39
2.89833	-38
2.90200	-38
2.90567	-40
2.90933	-39
2.91300	-35
2.91667	-30
2.92033	-25
2.92400	-19
2.92767	-15
2.93133	-13
2.93500	-12
2.93867	-14
2.94233	-17
2.94600	-19
2.94967	-22
2.95333	-25
2.95700	-29
2.96067	-31
2.96433	-33
2.96800	-35
2.97167	-36
2.97533	-36
2.97900	-33
2.98267	-27
2.98633	-25
2.99000	-26
2.99367	-28
2.99733	-31
3.00100	-33
3.00467	-31
3.00833	-26
3.01200	-20
3.01567	-16
3.01933	-13
3.02300	-13
3.02667	-15
3.03033	-20
3.03400	-23
3.03767	-25
3.04133	-26
3.04500	-26
3.04867	-22
3.05233	-16
3.05600	-13
3.05967	-13
3.06333	-16
3.06700	-22
3.07067	-27
3.07433	-33
3.07800	-38
3.08167	-38
3.08533	-34
3.08900	-26
3.09267	-20
3.09633	-19
3.10000	-24
3.10367	-27
3.10733	-24
3.11100	-21
3.11467	-20
3.11833	-22
3.12200	-25
3.12567	-29
3.12933	-31
3.13300	-32
3.13667	-31
3.14033	-28
3.14400	-25
3.14767	-23
3.15133	-21
3.15500	-17
3.15867	-12
3.16233	-7
3.16600	-8
3.16967	-12
3.17333	-17
3.17700	-20
3.18067	-22
3.18433	-25
3.18800	-27
3.19167	-31
3.19533	-34
3.19900	-34
3.20267	-33
3.20633	-30
3.21000	-27
3.21367	-26
3.21733	-28
3.22100	-34
3.22467	-39
3.22833	-40
3.23200	-41
3.23567	-45
3.23933	-48
3.24300	-47
3.24667	-39
3.25033	-29
3.25400	-28
3.25767	-30
3.26133	-32
3.26500	-36
3.26867	-36
3.27233	-35
3.27600	-31
3.27967	-26
3.28333	-22
3.28700	-22
3.29067	-26
3.29433	-30
3.29800	-32
3.30167	-35
3.30533	-34
3.30900	-30
3.31267	-26
3.31633	-25
3.32000	-25
3.32367	-27
3.32733	-27
3.33100	-31
3.33467	-38
3.33833	-41
3.34200	-40
3.34567	-40
3.34933	-44
3.35300	-48
3.35667	-51
3.36033	-52
3.36400	-51
3.36767	-48
3.37133	-43
3.37500	-39
3.37867	-37
3.38233	-39
3.38600	-44
3.38967	-47
3.39333	-48
3.39700	-47
3.40067	-47
3.40433	-49
3.40800	-52
3.41167	-55
3.41533	-53
3.41900	-48
3.42267	-44
3.42633	-41
3.43000	-40
3.43367	-38
3.43733	-34
3.44100	-32
3.44467	-33
3.44833	-34
3.45200	-38
3.45567	-43
3.45933	-48
3.46300	-51
3.46667	-51
3.47033	-48
3.47400	-46
3.47767	-46
3.48133	-47
3.48500	-46
3.48867	-45
3.49233	-43
3.49600	-45
3.49967	-46
3.50333	-46
3.50700	-44
3.51067	-42
3.51433	-44
3.51800	-49
3.52167	-53
3.52533	-56
3.52900	-56
3.53267	-53
3.53633	-50
3.54000	-45
3.54367	-41
3.54733	-38
3.55100	-41
3.55467	-50
3.55833	-61
3.56200	-71
3.56567	-77
3.56933	-76
3.57300	-70
3.57667	-65
3.58033	-64
3.58400	-64
3.58767	-61
3.59133	-57
3.59500	-53
3.59867	-51
3.60233	-52
3.60600	-55
3.60967	-59
3.61333	-63
3.61700	-63
3.62067	-60
3.62433	-56
3.62800	-53
3.63167	-51
3.63533	-52
3.63900	-57
3.64267	-61
3.64633	-60
3.65000	-58
3.65367	-54
3.65733	-49
3.66100	-47
3.66467	-49
3.66833	-54
3.67200	-58
3.67567	-59
3.67933	-57
3.68300	-54
3.68667	-52
3.69033	-52
3.69400	-53
3.69767	-53
3.70133	-52
3.70500	-51
3.70867	-49
3.71233	-49
3.71600	-53
3.71967	-59
3.72333	-64
3.72700	-67
3.73067	-66
3.73433	-60
3.73800	-52
3.74167	-43
3.74533	-38
3.74900	-38
3.75267	-41
3.75633	-46
3.76000	-54
3.76367	-61
3.76733	-66
3.77100	-72
3.77467	-81
3.77833	-87
3.78200	-87
3.78567	-82
3.78933	-76
3.79300	-74
3.79667	-72
3.80033	-66
3.80400	-58
3.80767	-54
3.81133	-53
3.81500	-58
3.81867	-65
3.82233	-71
3.82600	-75
3.82967	-73
3.83333	-67
3.83700	-64
3.84067	-66
3.84433	-71
3.84800	-75
3.85167	-76
3.85533	-77
3.85900	-78
3.86267	-78
3.86633	-73
3.87000	-62
3.87367	-50
3.87733	-41
3.88100	-39
3.88467	-43
3.88833	-51
3.89200	-59
3.89567	-62
3.89933	-62
3.90300	-62
3.90667	-67
3.91033	-78
3.91400	-92
3.91767	-100
3.92133	-100
3.92500	-93
3.92867	-86
3.93233	-82
3.93600	-79
3.93967	-76
3.94333	-71
3.94700	-66
3.95067	-61
3.95433	-57
3.95800	-50
3.96167	-41
3.96533	-36
3.96900	-36
3.97267	-41
3.97633	-49
3.98000	-56
3.98367	-64
3.98733	-69
3.99100	-71
3.99467	-67
3.99833	-57

[Chromatogram (Ch2)]
Interval(msec)	220
# of Points	1091
Start Time(min)	0.002
End Time(min)	3.998
R.Time (min)	Intensity
0.00167	1
0.00533	1
0.00900	2
0.01267	2
0.01633	2
0.02000	3
0.02367	3
0.02733	3
0.03100	3
0.03467	3
0.03833	3
0.04200	3
0.04567	2
0.04933	2
0.05300	2
0.05667	2
0.06033	2
0.06400	2
0.06767	2
0.07133	2
0.07500	2
0.07867	2
0.08233	2
0.08600	2
0.08967	3
0.09333	3
0.09700	3
0.10067	4
0.10433	4
0.10800	4
0.11167	5
0.11533	5
0.11900	5
0.12267	5
0.12633	5
0.13000	5
0.13367	5
0.13733	5
0.14100	5
0.14467	5
0.14833	5
0.15200	5
0.15567	6
0.15933	6
0.16300	6
0.16667	6
0.17033	6
0.17400	5
0.17767	5
0.18133	5
0.18500	5
0.18867	5
0.19233	5
0.19600	4
0.19967	4
0.20333	4
0.20700	4
0.21067	4
0.21433	3
0.21800	3
0.22167	2
0.22533	2
0.22900	2
0.23267	2
0.23633	2
0.24000	2
0.24367	2
0.24733	2
0.25100	2
0.25467	2
0.25833	2
0.26200	1
0.26567	1
0.26933	1
0.27300	1
0.27667	1
0.28033	1
0.28400	1
0.28767	1
0.29133	1
0.29500	1
0.29867	1
0.30233	1
0.30600	1
0.30967	1
0.31333	1
0.31700	1
0.32067	1
0.32433	1
0.32800	2
0.33167	2
0.33533	2
0.33900	2
0.34267	2
0.34633	2
0.35000	2
0.35367	2
0.35733	2
0.36100	2
0.36467	2
0.36833	2
0.37200	2
0.37567	2
0.37933	2
0.38300	2
0.38667	2
0.39033	2
0.39400	2
0.39767	2
0.40133	2
0.40500	1
0.40867	1
0.41233	1
0.41600	1
0.41967	1
0.42333	1
0.42700	1
0.43067	1
0.43433	0
0.43800	0
0.44167	0
0.44533	-0
0.44900	-0
0.45267	-1
0.45633	-1
0.46000	-1
0.46367	-2
0.46733	-2
0.47100	-2
0.47467	-2
0.47833	-2
0.48200	-2
0.48567	-2
0.48933	-1
0.49300	-1
0.49667	-1
0.50033	-1
0.50400	-1
0.50767	-1
0.51133	-0
0.51500	0
0.51867	0
0.52233	1
0.52600	1
0.52967	1
0.53333	1
0.53700	2
0.54067	2
0.54433	2
0.54800	2
0.55167	3
0.55533	3
0.55900	3
0.56267	3
0.56633	3
0.57000	3
0.57367	3
0.57733	3
0.58100	3
0.58467	3
0.58833	3
0.59200	3
0.59567	3
0.59933	3
0.60300	3
0.60667	3
0.61033	3
0.61400	3
0.61767	2
0.62133	2
0.62500	2
0.62867	2
0.63233	2
0.63600	2
0.63967	2
0.64333	2
0.64700	2
0.65067	2
0.65433	1
0.65800	1
0.66167	1
0.66533	1
0.66900	1
0.67267	1
0.67633	1
0.68000	1
0.68367	1
0.68733	1
0.69100	1
0.69467	1
0.69833	1
0.70200	0
0.70567	-0
0.70933	-0
0.71300	-1
0.71667	-1
0.72033	-1
0.72400	-1
0.72767	-1
0.73133	-1
0.73500	-2
0.73867	-2
0.74233	-2
0.74600	-2
0.74967	-2
0.75333	-2
0.75700	-2
0.76067	-2
0.76433	-2
0.76800	-2
0.77167	-1
0.77533	-1
0.77900	-1
0.78267	-1
0.78633	-1
0.79000	-1
0.79367	-1
0.79733	-1
0.80100	-1
0.80467	-1
0.80833	-1
0.81200	-2
0.81567	-2
0.81933	-2
0.82300	-3
0.82667	-3
0.83033	-3
0.83400	-3
0.83767	-4
0.84133	-4
0.84500	-4
0.84867	-4
0.85233	-5
0.85600	-5
0.85967	-5
0.86333	-5
0.86700	-4
0.87067	-4
0.87433	-4
0.87800	-4
0.88167	-4
0.88533	-4
0.88900	-3
0.89267	-3
0.89633	-3
0.90000	-3
0.90367	-3
0.90733	-2
0.91100	-2
0.91467	-2
0.91833	-1
0.92200	-1
0.92567	-1
0.92933	-1
0.93300	-0
0.93667	0
0.94033	1
0.94400	1
0.94767	1
0.95133	1
0.95500	1
0.95867	1
0.96233	1
0.96600	0
0.96967	0
0.97333	0
0.97700	0
0.98067	0
0.98433	1
0.98800	1
0.99167	1
0.99533	1
0.99900	1
1.00267	2
1.00633	2
1.01000	2
1.01367	2
1.01733	2
1.02100	3
1.02467	3
1.02833	3
1.03200	3
1.03567	2
1.03933	2
1.04300	2
1.04667	2
1.05033	2
1.05400	2
1.05767	2
1.06133	2
1.06500	2
1.06867	2
1.07233	2
1.07600	2
1.07967	2
1.08333	2
1.08700	3
1.09067	3
1.09433	3
1.09800	3
1.10167	3
1.10533	3
1.10900	2
1.11267	2
1.11633	2
1.12000	2
1.12367	2
1.12733	2
1.13100	2
1.13467	1
1.13833	1
1.14200	0
1.14567	-0
1.14933	-0
1.15300	-1
1.15667	-1
1.16033	-1
1.16400	-1
1.16767	-1
1.17133	-1
1.17500	-1
1.17867	-1
1.18233	-1
1.18600	-0
1.18967	-0
1.19333	-0
1.19700	-0
1.20067	-0
1.20433	0
1.20800	0
1.21167	0
1.21533	0
1.21900	0
1.22267	0
1.22633	0
1.23000	0
1.23367	1
1.23733	1
1.24100	1
1.24467	1
1.24833	1
1.25200	1
1.25567	1
1.25933	2
1.26300	2
1.26667	2
1.27033	1
1.27400	1
1.27767	1
1.28133	1
1.28500	1
1.28867	1
1.29233	1
1.29600	1
1.29967	1
1.30333	1
1.30700	1
1.31067	1
1.31433	1
1.31800	1
1.32167	1
1.32533	1
1.32900	1
1.33267	1
1.33633	0
1.34000	0
1.34367	0
1.34733	-0
1.35100	-1
1.35467	-1
1.35833	-1
1.36200	-1
1.36567	-1
1.36933	-1
1.37300	-1
1.37667	-1
1.38033	-2
1.38400	-2
1.38767	-2
1.39133	-3
1.39500	-3
1.39867	-3
1.40233	-3
1.40600	-4
1.40967	-4
1.41333	-4
1.41700	-4
1.42067	-4
1.42433	-4
1.42800	-4
1.43167	-3
1.43533	-3
1.43900	-2
1.44267	-2
1.44633	-2
1.45000	-1
1.45367	-1
1.45733	-1
1.46100	-1
1.46467	-1
1.46833	-0
1.47200	-0
1.47567	-0
1.47933	0
1.48300	-0
1.48667	-0
1.49033	0
1.49400	0
1.49767	0
1.50133	1
1.50500	1
1.50867	1
1.51233	1
1.51600	0
1.51967	0
1.52333	-0
1.52700	-0
1.53067	-1
1.53433	-1
1.53800	-1
1.54167	-1
1.54533	-1
1.54900	-1
1.55267	-1
1.55633	-2
1.56000	-2
1.56367	-1
1.56733	-1
1.57100	-1
1.57467	-2
1.57833	-2
1.58200	-2
1.58567	-2
1.58933	-2
1.59300	-2
1.59667	-3
1.60033	-3
1.60400	-4
1.60767	-5
1.61133	-6
1.61500	-8
1.61867	-10
1.62233	-12
1.62600	-14
1.62967	-17
1.63333	-20
1.63700	-23
1.64067	-27
1.64433	-30
1.64800	-34
1.65167	-37
1.65533	-41
1.65900	-45
1.66267	-49
1.66633	-53
1.67000	-58
1.67367	-63
1.67733	-68
1.68100	-74
1.68467	-79
1.68833	-84
1.69200	-89
1.69567	-93
1.69933	-96
1.70300	-99
1.70667	-102
1.71033	-104
1.71400	-105
1.71767	-107
1.72133	-108
1.72500	-109
1.72867	-109
1.73233	-109
1.73600	-110
1.73967	-110
1.74333	-110
1.74700	-110
1.75067	-110
1.75433	-111
1.75800	-112
1.76167	-113
1.76533	-114
1.76900	-115
1.77267	-116
1.77633	-117
1.78000	-118
1.78367	-118
1.78733	-119
1.79100	-119
1.79467	-119
1.79833	-119
1.80200	-118
1.80567	-118
1.80933	-118
1.81300	-117
1.81667	-117
1.82033	-117
1.82400	-117
1.82767	-117
1.83133	-118
1.83500	-118
1.83867	-118
1.84233	-118
1.84600	-118
1.84967	-118
1.85333	-118
1.85700	-119
1.86067	-119
1.86433	-120
1.86800	-120
1.87167	-120
1.87533	-120
1.87900	-120
1.88267	-119
1.88633	-118
1.89000	-118
1.89367	-117
1.89733	-117
1.90100	-118
1.90467	-118
1.90833	-118
1.91200	-118
1.91567	-118
1.91933	-118
1.92300	-118
1.92667	-117
1.93033	-117
1.93400	-116
1.93767	-116
1.94133	-115
1.94500	-115
1.94867	-115
1.95233	-114
1.95600	-114
1.95967	-115
1.96333	-114
1.96700	-114
1.97067	-114
1.97433	-114
1.97800	-114
1.98167	-113
1.98533	-113
1.98900	-112
1.99267	-112
1.99633	-111
2.00000	-111
2.00367	-110
2.00733	-110
2.01100	-109
2.01467	-109
2.01833	-109
2.02200	-109
2.02567	-109
2.02933	-109
2.03300	-109
2.03667	-109
2.04033	-108
2.04400	-108
2.04767	-108
2.05133	-107
2.05500	-107
2.05867	-106
2.06233	-106
2.06600	-105
2.06967	-105
2.07333	-104
2.07700	-104
2.08067	-103
2.08433	-103
2.08800	-103
2.09167	-103
2.09533	-103
2.09900	-103
2.10267	-103
2.10633	-103
2.11000	-102
2.11367	-102
2.11733	-101
2.12100	-100
2.12467	-100
2.12833	-100
2.13200	-100
2.13567	-100
2.13933	-100
2.14300	-100
2.14667	-99
2.15033	-99
2.15400	-99
2.15767	-99
2.16133	-99
2.16500	-99
2.16867	-99
2.17233	-99
2.17600	-99
2.17967	-99
2.18333	-99
2.18700	-98
2.19067	-98
2.19433	-97
2.19800	-97
2.20167	-96
2.20533	-95
2.20900	-94
2.21267	-94
2.21633	-93
2.22000	-93
2.22367	-93
2.22733	-93
2.23100	-93
2.23467	-93
2.23833	-93
2.24200	-92
2.24567	-92
2.24933	-91
2.25300	-91
2.25667	-91
2.26033	-91
2.26400	-91
2.26767	-91
2.27133	-91
2.27500	-91
2.27867	-91
2.28233	-90
2.28600	-90
2.28967	-90
2.29333	-89
2.29700	-89
2.30067	-88
2.30433	-88
2.30800	-88
2.31167	-87
2.31533	-87
2.31900	-87
2.32267	-87
2.32633	-86
2.33000	-86
2.33367	-85
2.33733	-85
2.34100	-84
2.34467	-84
2.34833	-83
2.35200	-83
2.35567	-81
2.35933	-80
2.36300	-78
2.36667	-76
2.37033	-73
2.37400	-71
2.37767	-67
2.38133	-64
2.38500	-60
2.38867	-56
2.39233	-52
2.39600	-48
2.39967	-43
2.40333	-39
2.40700	-35
2.41067	-31
2.41433	-27
2.41800	-24
2.42167	-21
2.42533	-18
2.42900	-16
2.43267	-14
2.43633	-12
2.44000	-10
2.44367	-8
2.44733	-6
2.45100	-5
2.45467	-4
2.45833	-3
2.46200	-2
2.46567	-1
2.46933	0
2.47300	1
2.47667	2
2.48033	3
2.48400	4
2.48767	5
2.49133	6
2.49500	7
2.49867	8
2.50233	8
2.50600	9
2.50967	10
2.51333	11
2.51700	12
2.52067	12
2.52433	13
2.52800	14
2.53167	14
2.53533	15
2.53900	16
2.54267	16
2.54633	16
2.55000	16
2.55367	16
2.55733	17
2.56100	17
2.56467	17
2.56833	17
2.57200	17
2.57567	17
2.57933	18
2.58300	18
2.58667	19
2.59033	19
2.59400	19
2.59767	19
2.60133	19
2.60500	18
2.60867	18
2.61233	18
2.61600	18
2.61967	18
2.62333	18
2.62700	19
2.63067	20
2.63433	21
2.63800	22
2.64167	22
2.64533	23
2.64900	23
2.65267	22
2.65633	22
2.66000	22
2.66367	21
2.66733	21
2.67100	21
2.67467	21
2.67833	21
2.68200	21
2.68567	21
2.68933	22
2.69300	22
2.69667	22
2.70033	22
2.70400	22
2.70767	23
2.71133	23
2.71500	23
2.71867	23
2.72233	24
2.72600	24
2.72967	24
2.73333	25
2.73700	25
2.74067	25
2.74433	25
2.74800	25
2.75167	25
2.75533	25
2.75900	25
2.76267	25
2.76633	26
2.77000	26
2.77367	26
2.77733	25
2.78100	25
2.78467	25
2.78833	26
2.79200	26
2.79567	26
2.79933	26
2.80300	26
2.80667	26
2.81033	26
2.81400	26
2.81767	26
2.82133	25
2.82500	26
2.82867	26
2.83233	26
2.83600	26
2.83967	26
2.84333	26
2.84700	26
2.85067	26
2.85433	26
2.85800	26
2.86167	26
2.86533	26
2.86900	26
2.87267	26
2.87633	25
2.88000	23
2.88367	20
2.88733	15
2.89100	8
2.89467	-1
2.89833	-14
2.90200	-29
2.90567	-47
2.90933	-68
2.91300	-91
2.91667	-117
2.92033	-144
2.92400	-172
2.92767	-197
2.93133	-218
2.93500	-232
2.93867	-239
2.94233	-238
2.94600	-232
2.94967	-220
2.95333	-205
2.95700	-188
2.96067	-170
2.96433	-152
2.96800	-133
2.97167	-116
2.97533	-100
2.97900	-85
2.98267	-72
2.98633	-60
2.99000	-49
2.99367	-39
2.99733	-31
3.00100	-24
3.00467	-17
3.00833	-11
3.01200	-6
3.01567	-2
3.01933	2
3.02300	5
3.02667	8
3.03033	10
3.03400	12
3.03767	14
3.04133	15
3.04500	17
3.04867	18
3.05233	19
3.05600	19
3.05967	20
3.06333	20
3.06700	21
3.07067	21
3.07433	21
3.07800	22
3.08167	22
3.08533	22
3.08900	22
3.09267	22
3.09633	22
3.10000	22
3.10367	22
3.10733	22
3.11100	22
3.11467	22
3.11833	22
3.12200	22
3.12567	23
3.12933	23
3.13300	23
3.13667	23
3.14033	24
3.14400	24
3.14767	24
3.15133	24
3.15500	24
3.15867	24
3.16233	24
3.16600	25
3.16967	25
3.17333	25
3.17700	25
3.18067	25
3.18433	25
3.18800	25
3.19167	25
3.19533	24
3.19900	24
3.20267	24
3.20633	25
3.21000	25
3.21367	25
3.21733	25
3.22100	25
3.22467	25
3.22833	25
3.23200	25
3.23567	26
3.23933	26
3.24300	26
3.24667	26
3.25033	26
3.25400	26
3.25767	26
3.26133	26
3.26500	26
3.26867	26
3.27233	26
3.27600	26
3.27967	26
3.28333	26
3.28700	26
3.29067	26
3.29433	26
3.29800	26
3.30167	27
3.30533	27
3.30900	27
3.31267	27
3.31633	27
3.32000	27
3.32367	27
3.32733	27
3.33100	27
3.33467	27
3.33833	27
3.34200	27
3.34567	27
3.34933	27
3.35300	27
3.35667	27
3.36033	27
3.36400	27
3.36767	27
3.37133	28
3.37500	28
3.37867	28
3.38233	28
3.38600	28
3.38967	28
3.39333	28
3.39700	28
3.40067	28
3.40433	28
3.40800	28
3.41167	28
3.41533	28
3.41900	28
3.42267	28
3.42633	28
3.43000	28
3.43367	28
3.43733	27
3.44100	27
3.44467	27
3.44833	27
3.45200	27
3.45567	27
3.45933	27
3.46300	27
3.46667	27
3.47033	27
3.47400	27
3.47767	27
3.48133	27
3.48500	27
3.48867	27
3.49233	26
3.49600	26
3.49967	27
3.50333	27
3.50700	27
3.51067	27
3.51433	27
3.51800	27
3.52167	27
3.52533	27
3.52900	27
3.53267	27
3.53633	26
3.54000	26
3.54367	26
3.54733	26
3.55100	26
3.55467	26
3.55833	26
3.56200	26
3.56567	26
3.56933	27
3.57300	27
3.57667	27
3.58033	27
3.58400	27
3.58767	27
3.59133	27
3.59500	27
3.59867	27
3.60233	27
3.60600	27
3.60967	27
3.61333	27
3.61700	27
3.62067	27
3.62433	27
3.62800	27
3.63167	27
3.63533	27
3.63900	27
3.64267	27
3.64633	27
3.65000	27
3.65367	27
3.65733	28
3.66100	28
3.66467	28
3.66833	28
3.67200	28
3.67567	28
3.67933	28
3.68300	29
3.68667	29
3.69033	28
3.69400	28
3.69767	28
3.70133	28
3.70500	28
3.70867	28
3.71233	29
3.71600	29
3.71967	29
3.72333	28
3.72700	28
3.73067	28
3.73433	28
3.73800	28
3.74167	27
3.74533	27
3.74900	27
3.75267	27
3.75633	27
3.76000	27
3.76367	27
3.76733	27
3.77100	27
3.77467	28
3.77833	27
3.78200	27
3.78567	28
3.78933	28
3.79300	28
3.79667	28
3.80033	28
3.80400	28
3.80767	28
3.81133	28
3.81500	27
3.81867	27
3.82233	27
3.82600	27
3.82967	26
3.83333	26
3.83700	26
3.84067	25
3.84433	25
3.84800	25
3.85167	24
3.85533	24
3.85900	24
3.86267	23
3.86633	23
3.87000	23
3.87367	24
3.87733	24
3.88100	24
3.88467	24
3.88833	25
3.89200	25
3.89567	26
3.89933	27
3.90300	27
3.90667	28
3.91033	28
3.91400	29
3.91767	29
3.92133	29
3.92500	29
3.92867	29
3.93233	29
3.93600	29
3.93967	29
3.94333	29
3.94700	29
3.95067	29
3.95433	29
3.95800	29
3.96167	29
3.96533	30
3.96900	30
3.97267	30
3.97633	30
3.98000	30
3.98367	30
3.98733	30
3.99100	30
3.99467	30
3.99833	30

[Chromatogram (Ch3)]
Interval(msec)	220
# of Points	1091
Start Time(min)	0.002
End Time(min)	3.998
R.Time (min)	Intensity
0.00167	1
0.00533	2
0.00900	3
0.01267	2
0.01633	3
0.02000	3
0.02367	4
0.02733	6
0.03100	6
0.03467	6
0.03833	6
0.04200	6
0.04567	7
0.04933	10
0.05300	10
0.05667	10
0.06033	9
0.06400	9
0.06767	9
0.07133	10
0.07500	10
0.07867	8
0.08233	7
0.08600	9
0.08967	12
0.09333	14
0.09700	15
0.10067	16
0.10433	17
0.10800	16
0.11167	16
0.11533	16
0.11900	15
0.12267	13
0.12633	13
0.13000	14
0.13367	16
0.13733	16
0.14100	15
0.14467	12
0.14833	11
0.15200	10
0.15567	11
0.15933	8
0.16300	6
0.16667	7
0.17033	9
0.17400	11
0.17767	14
0.18133	16
0.18500	15
0.18867	14
0.19233	13
0.19600	12
0.19967	12
0.20333	13
0.20700	13
0.21067	11
0.21433	12
0.21800	15
0.22167	15
0.22533	15
0.22900	15
0.23267	17
0.23633	18
0.24000	17
0.24367	16
0.24733	17
0.25100	18
0.25467	17
0.25833	19
0.26200	22
0.26567	21
0.26933	22
0.27300	24
0.27667	23
0.28033	22
0.28400	22
0.28767	21
0.29133	21
0.29500	22
0.29867	21
0.30233	21
0.30600	20
0.30967	20
0.31333	20
0.31700	21
0.32067	21
0.32433	22
0.32800	22
0.33167	24
0.33533	25
0.33900	26
0.34267	26
0.34633	26
0.35000	27
0.35367	28
0.35733	27
0.36100	27
0.36467	27
0.36833	27
0.37200	27
0.37567	30
0.37933	31
0.38300	28
0.38667	27
0.39033	28
0.39400	31
0.39767	33
0.40133	31
0.40500	32
0.40867	34
0.41233	33
0.41600	32
0.41967	30
0.42333	29
0.42700	29
0.43067	30
0.43433	32
0.43800	34
0.44167	37
0.44533	38
0.44900	36
0.45267	36
0.45633	35
0.46000	34
0.46367	34
0.46733	32
0.47100	32
0.47467	34
0.47833	33
0.48200	32
0.48567	34
0.48933	35
0.49300	37
0.49667	37
0.50033	37
0.50400	36
0.50767	38
0.51133	39
0.51500	39
0.51867	39
0.52233	40
0.52600	39
0.52967	38
0.53333	39
0.53700	39
0.54067	40
0.54433	39
0.54800	39
0.55167	41
0.55533	44
0.55900	43
0.56267	41
0.56633	42
0.57000	44
0.57367	46
0.57733	46
0.58100	46
0.58467	43
0.58833	43
0.59200	44
0.59567	45
0.59933	45
0.60300	44
0.60667	42
0.61033	39
0.61400	40
0.61767	42
0.62133	42
0.62500	42
0.62867	43
0.63233	43
0.63600	44
0.63967	44
0.64333	44
0.64700	46
0.65067	47
0.65433	47
0.65800	47
0.66167	47
0.66533	46
0.66900	45
0.67267	41
0.67633	39
0.68000	38
0.68367	42
0.68733	45
0.69100	48
0.69467	48
0.69833	48
0.70200	48
0.70567	48
0.70933	49
0.71300	49
0.71667	47
0.72033	47
0.72400	47
0.72767	50
0.73133	56
0.73500	59
0.73867	59
0.74233	59
0.74600	58
0.74967	56
0.75333	55
0.75700	55
0.76067	56
0.76433	56
0.76800	55
0.77167	54
0.77533	52
0.77900	50
0.78267	51
0.78633	51
0.79000	52
0.79367	52
0.79733	54
0.80100	53
0.80467	55
0.80833	55
0.81200	54
0.81567	52
0.81933	51
0.82300	51
0.82667	53
0.83033	54
0.83400	55
0.83767	59
0.84133	61
0.84500	63
0.84867	64
0.85233	63
0.85600	61
0.85967	60
0.86333	59
0.86700	59
0.87067	61
0.87433	62
0.87800	62
0.88167	62
0.88533	62
0.88900	62
0.89267	61
0.89633	58
0.90000	56
0.90367	56
0.90733	57
0.91100	59
0.91467	60
0.91833	62
0.92200	64
0.92567	65
0.92933	68
0.93300	69
0.93667	69
0.94033	68
0.94400	67
0.94767	64
0.95133	61
0.95500	61
0.95867	63
0.96233	65
0.96600	66
0.96967	67
0.97333	68
0.97700	67
0.98067	68
0.98433	69
0.98800	68
0.99167	70
0.99533	71
0.99900	70
1.00267	68
1.00633	68
1.01000	68
1.01367	67
1.01733	68
1.02100	67
1.02467	64
1.02833	62
1.03200	61
1.03567	60
1.03933	61
1.04300	62
1.04667	63
1.05033	63
1.05400	64
1.05767	66
1.06133	67
1.06500	67
1.06867	67
1.07233	67
1.07600	68
1.07967	69
1.08333	70
1.08700	69
1.09067	69
1.09433	71
1.09800	71
1.10167	69
1.10533	66
1.10900	65
1.11267	65
1.11633	68
1.12000	69
1.12367	68
1.12733	68
1.13100	70
1.13467	71
1.13833	72
1.14200	73
1.14567	74
1.14933	75
1.15300	73
1.15667	73
1.16033	72
1.16400	70
1.16767	68
1.17133	67
1.17500	68
1.17867	70
1.18233	71
1.18600	70
1.18967	69
1.19333	68
1.19700	67
1.20067	67
1.20433	69
1.20800	70
1.21167	71
1.21533	71
1.21900	70
1.22267	67
1.22633	67
1.23000	68
1.23367	71
1.23733	71
1.24100	71
1.24467	72
1.24833	73
1.25200	72
1.25567	72
1.25933	69
1.26300	70
1.26667	73
1.27033	76
1.27400	77
1.27767	77
1.28133	77
1.28500	77
1.28867	75
1.29233	74
1.29600	74
1.29967	74
1.30333	74
1.30700	71
1.31067	69
1.31433	69
1.31800	71
1.32167	72
1.32533	71
1.32900	69
1.33267	71
1.33633	72
1.34000	72
1.34367	72
1.34733	74
1.35100	75
1.35467	75
1.35833	74
1.36200	74
1.36567	76
1.36933	78
1.37300	79
1.37667	80
1.38033	81
1.38400	81
1.38767	80
1.39133	79
1.39500	78
1.39867	77
1.40233	76
1.40600	73
1.40967	72
1.41333	73
1.41700	73
1.42067	74
1.42433	76
1.42800	76
1.43167	76
1.43533	75
1.43900	75
1.44267	76
1.44633	77
1.45000	77
1.45367	78
1.45733	77
1.46100	75
1.46467	72
1.46833	73
1.47200	75
1.47567	76
1.47933	78
1.48300	79
1.48667	83
1.49033	86
1.49400	87
1.49767	87
1.50133	88
1.50500	87
1.50867	85
1.51233	84
1.51600	82
1.51967	82
1.52333	84
1.52700	85
1.53067	84
1.53433	84
1.53800	86
1.54167	86
1.54533	86
1.54900	83
1.55267	82
1.55633	82
1.56000	82
1.56367	82
1.56733	80
1.57100	78
1.57467	77
1.57833	77
1.58200	77
1.58567	78
1.58933	80
1.59300	80
1.59667	79
1.60033	79
1.60400	80
1.60767	79
1.61133	78
1.61500	76
1.61867	76
1.62233	75
1.62600	75
1.62967	76
1.63333	77
1.63700	77
1.64067	76
1.64433	76
1.64800	78
1.65167	79
1.65533	80
1.65900	80
1.66267	83
1.66633	84
1.67000	88
1.67367	92
1.67733	93
1.68100	92
1.68467	92
1.68833	94
1.69200	95
1.69567	93
1.69933	94
1.70300	96
1.70667	97
1.71033	98
1.71400	100
1.71767	101
1.72133	102
1.72500	104
1.72867	107
1.73233	108
1.73600	109
1.73967	109
1.74333	108
1.74700	107
1.75067	107
1.75433	110
1.75800	112
1.76167	111
1.76533	112
1.76900	113
1.77267	115
1.77633	117
1.78000	118
1.78367	118
1.78733	118
1.79100	116
1.79467	116
1.79833	115
1.80200	112
1.80567	111
1.80933	113
1.81300	114
1.81667	116
1.82033	120
1.82400	121
1.82767	122
1.83133	124
1.83500	124
1.83867	122
1.84233	119
1.84600	120
1.84967	122
1.85333	123
1.85700	123
1.86067	122
1.86433	123
1.86800	122
1.87167	120
1.87533	119
1.87900	117
1.88267	117
1.88633	119
1.89000	123
1.89367	126
1.89733	127
1.90100	128
1.90467	129
1.90833	128
1.91200	126
1.91567	127
1.91933	125
1.92300	123
1.92667	122
1.93033	121
1.93400	121
1.93767	123
1.94133	125
1.94500	126
1.94867	127
1.95233	130
1.95600	132
1.95967	133
1.96333	134
1.96700	137
1.97067	140
1.97433	142
1.97800	141
1.98167	140
1.98533	138
1.98900	137
1.99267	138
1.99633	140
2.00000	140
2.00367	139
2.00733	136
2.01100	137
2.01467	141
2.01833	143
2.02200	144
2.02567	147
2.02933	150
2.03300	152
2.03667	153
2.04033	154
2.04400	157
2.04767	159
2.05133	162
2.05500	163
2.05867	163
2.06233	161
2.06600	162
2.06967	165
2.07333	167
2.07700	170
2.08067	173
2.08433	175
2.08800	175
2.09167	176
2.09533	177
2.09900	177
2.10267	178
2.10633	179
2.11000	178
2.11367	177
2.11733	179
2.12100	180
2.12467	180
2.12833	181
2.13200	183
2.13567	185
2.13933	188
2.14300	190
2.14667	189
2.15033	190
2.15400	190
2.15767	191
2.16133	194
2.16500	196
2.16867	196
2.17233	196
2.17600	193
2.17967	192
2.18333	193
2.18700	195
2.19067	199
2.19433	202
2.19800	202
2.20167	202
2.20533	203
2.20900	204
2.21267	202
2.21633	201
2.22000	202
2.22367	203
2.22733	203
2.23100	204
2.23467	205
2.23833	207
2.24200	208
2.24567	207
2.24933	208
2.25300	209
2.25667	211
2.26033	212
2.26400	212
2.26767	211
2.27133	210
2.27500	211
2.27867	212
2.28233	214
2.28600	214
2.28967	213
2.29333	214
2.29700	217
2.30067	219
2.30433	223
2.30800	225
2.31167	224
2.31533	223
2.31900	223
2.32267	225
2.32633	226
2.33000	228
2.33367	230
2.33733	228
2.34100	227
2.34467	226
2.34833	227
2.35200	228
2.35567	230
2.35933	235
2.36300	236
2.36667	237
2.37033	237
2.37400	236
2.37767	234
2.38133	233
2.38500	233
2.38867	233
2.39233	231
2.39600	228
2.39967	228
2.40333	230
2.40700	230
2.41067	231
2.41433	236
2.41800	240
2.42167	242
2.42533	243
2.42900	244
2.43267	246
2.43633	247
2.44000	247
2.44367	252
2.44733	270
2.45100	291
2.45467	308
2.45833	316
2.46200	311
2.46567	300
2.46933	290
2.47300	284
2.47667	279
2.48033	274
2.48400	267
2.48767	258
2.49133	250
2.49500	241
2.49867	233
2.50233	225
2.50600	219
2.50967	215
2.51333	211
2.51700	208
2.52067	205
2.52433	202
2.52800	202
2.53167	202
2.53533	200
2.53900	197
2.54267	193
2.54633	189
2.55000	184
2.55367	178
2.55733	173
2.56100	170
2.56467	168
2.56833	166
2.57200	164
2.57567	160
2.57933	156
2.58300	153
2.58667	143
2.59033	103
2.59400	68
2.59767	68
2.60133	98
2.60500	149
2.60867	209
2.61233	277
2.61600	347
2.61967	412
2.62333	475
2.62700	532
2.63067	583
2.63433	627
2.63800	664
2.64167	696
2.64533	722
2.64900	740
2.65267	756
2.65633	773
2.66000	788
2.66367	802
2.66733	816
2.67100	829
2.67467	839
2.67833	853
2.68200	867
2.68567	877
2.68933	885
2.69300	893
2.69667	898
2.70033	902
2.70400	905
2.70767	911
2.71133	918
2.71500	924
2.71867	928
2.72233	932
2.72600	934
2.72967	936
2.73333	938
2.73700	942
2.74067	943
2.74433	943
2.74800	945
2.75167	948
2.75533	950
2.75900	954
2.76267	957
2.76633	958
2.77000	956
2.77367	953
2.77733	950
2.78100	946
2.78467	947
2.78833	949
2.79200	950
2.79567	950
2.79933	948
2.80300	947
2.80667	948
2.81033	945
2.81400	943
2.81767	940
2.82133	938
2.82500	937
2.82867	935
2.83233	933
2.83600	933
2.83967	931
2.84333	929
2.84700	929
2.85067	936
2.85433	950
2.85800	981
2.86167	1036
2.86533	1121
2.86900	1243
2.87267	1394
2.87633	1564
2.88000	1732
2.88367	1875
2.88733	1980
2.89100	2039
2.89467	2055
2.89833	2031
2.90200	1977
2.90567	1903
2.90933	1818
2.91300	1730
2.91667	1643
2.92033	1555
2.92400	1473
2.92767	1399
2.93133	1332
2.93500	1272
2.93867	1220
2.94233	1174
2.94600	1134
2.94967	1100
2.95333	1070
2.95700	1041
2.96067	1017
2.96433	998
2.96800	981
2.97167	966
2.97533	951
2.97900	937
2.98267	925
2.98633	916
2.99000	910
2.99367	903
2.99733	896
3.00100	891
3.00467	885
3.00833	880
3.01200	875
3.01567	869
3.01933	864
3.02300	860
3.02667	854
3.03033	850
3.03400	846
3.03767	842
3.04133	837
3.04500	834
3.04867	832
3.05233	833
3.05600	834
3.05967	833
3.06333	830
3.06700	828
3.07067	823
3.07433	821
3.07800	819
3.08167	816
3.08533	812
3.08900	807
3.09267	802
3.09633	797
3.10000	794
3.10367	792
3.10733	789
3.11100	788
3.11467	787
3.11833	787
3.12200	787
3.12567	784
3.12933	781
3.13300	775
3.13667	769
3.14033	763
3.14400	761
3.14767	759
3.15133	758
3.15500	753
3.15867	749
3.16233	746
3.16600	744
3.16967	741
3.17333	740
3.17700	739
3.18067	738
3.18433	736
3.18800	733
3.19167	729
3.19533	725
3.19900	719
3.20267	715
3.20633	714
3.21000	712
3.21367	710
3.21733	708
3.22100	706
3.22467	703
3.22833	701
3.23200	697
3.23567	694
3.23933	691
3.24300	689
3.24667	686
3.25033	683
3.25400	679
3.25767	675
3.26133	673
3.26500	670
3.26867	667
3.27233	667
3.27600	666
3.27967	664
3.28333	661
3.28700	656
3.29067	652
3.29433	647
3.29800	643
3.30167	642
3.30533	641
3.30900	638
3.31267	635
3.31633	632
3.32000	630
3.32367	627
3.32733	622
3.33100	618
3.33467	616
3.33833	614
3.34200	612
3.34567	610
3.34933	606
3.35300	603
3.35667	601
3.36033	595
3.36400	592
3.36767	589
3.37133	585
3.37500	585
3.37867	585
3.38233	586
3.38600	588
3.38967	588
3.39333	585
3.39700	580
3.40067	574
3.40433	571
3.40800	568
3.41167	565
3.41533	561
3.41900	557
3.42267	554
3.42633	551
3.43000	548
3.43367	545
3.43733	541
3.44100	539
3.44467	539
3.44833	539
3.45200	537
3.45567	537
3.45933	535
3.46300	532
3.46667	528
3.47033	525
3.47400	524
3.47767	523
3.48133	522
3.48500	519
3.48867	514
3.49233	510
3.49600	506
3.49967	500
3.50333	496
3.50700	496
3.51067	495
3.51433	492
3.51800	490
3.52167	487
3.52533	482
3.52900	478
3.53267	476
3.53633	475
3.54000	472
3.54367	467
3.54733	462
3.55100	458
3.55467	454
3.55833	451
3.56200	447
3.56567	446
3.56933	444
3.57300	442
3.57667	441
3.58033	438
3.58400	434
3.58767	429
3.59133	426
3.59500	425
3.59867	423
3.60233	419
3.60600	417
3.60967	414
3.61333	411
3.61700	409
3.62067	405
3.62433	402
3.62800	398
3.63167	393
3.63533	389
3.63900	387
3.64267	385
3.64633	385
3.65000	385
3.65367	384
3.65733	380
3.66100	376
3.66467	372
3.66833	371
3.67200	369
3.67567	366
3.67933	362
3.68300	359
3.68667	356
3.69033	353
3.69400	351
3.69767	347
3.70133	344
3.70500	341
3.70867	337
3.71233	331
3.71600	327
3.71967	322
3.72333	320
3.72700	317
3.73067	315
3.73433	312
3.73800	309
3.74167	306
3.74533	302
3.74900	297
3.75267	293
3.75633	288
3.76000	284
3.76367	283
3.76733	281
3.77100	278
3.77467	274
3.77833	273
3.78200	272
3.78567	269
3.78933	266
3.79300	264
3.79667	262
3.80033	260
3.80400	257
3.80767	253
3.81133	249
3.81500	245
3.81867	244
3.82233	242
3.82600	238
3.82967	235
3.83333	233
3.83700	231
3.84067	229
3.84433	229
3.84800	229
3.85167	227
3.85533	225
3.85900	224
3.86267	222
3.86633	221
3.87000	218
3.87367	213
3.87733	209
3.88100	207
3.88467	204
3.88833	202
3.89200	202
3.89567	201
3.89933	199
3.90300	194
3.90667	191
3.91033	189
3.91400	188
3.91767	188
3.92133	187
3.92500	185
3.92867	182
3.93233	179
3.93600	179
3.93967	179
3.94333	179
3.94700	180
3.95067	177
3.95433	174
3.95800	171
3.96167	170
3.96533	168
3.96900	167
3.97267	165
3.97633	162
3.98000	160
3.98367	158
3.98733	155
3.99100	153
3.99467	150
3.99833	150

[Status Trace (Column Oven Temperature)]
Interval(msec)	1000
# of Points	240
Start Time(min)	0.003
End Time(min)	3.987
Intensity Units	
Intensity Multiplier	1
R.Time (min)	Intensity
0.00343	35.04
0.02010	35.04
0.03677	35.03
0.05343	35.04
0.07010	35.03
0.08677	35.03
0.10343	35.03
0.12010	35.01
0.13677	34.99
0.15343	34.98
0.17010	34.98
0.18677	34.98
0.20343	34.96
0.22010	34.97
0.23677	34.98
0.25343	34.97
0.27010	34.98
0.28677	34.97
0.30343	34.98
0.32010	34.97
0.33677	34.97
0.35343	34.97
0.37010	34.97
0.38677	34.96
0.40343	34.97
0.42010	34.99
0.43677	34.99
0.45343	35.00
0.47010	35.02
0.48677	35.01
0.50343	35.00
0.52010	34.99
0.53677	34.98
0.55343	34.98
0.57010	34.97
0.58677	34.96
0.60343	34.96
0.62010	34.95
0.63677	34.95
0.65343	34.95
0.67010	34.95
0.68677	34.96
0.70343	34.96
0.72010	34.97
0.73677	34.98
0.75343	34.98
0.77010	34.99
0.78677	34.99
0.80343	35.01
0.82010	35.03
0.83677	35.04
0.85343	35.06
0.87010	35.06
0.88677	35.06
0.90343	35.06
0.92010	35.05
0.93677	35.04
0.95343	35.04
0.97010	35.03
0.98677	35.02
1.00343	35.01
1.02010	35.00
1.03677	34.98
1.05343	34.98
1.07010	34.97
1.08677	34.96
1.10343	34.97
1.12010	34.97
1.13677	34.97
1.15343	34.98
1.17010	34.98
1.18677	34.98
1.20343	34.98
1.22010	34.98
1.23677	34.98
1.25343	34.98
1.27010	34.97
1.28677	34.97
1.30343	34.97
1.32010	34.96
1.33677	34.96
1.35343	34.96
1.37010	34.97
1.38677	34.99
1.40343	35.01
1.42010	35.01
1.43677	35.01
1.45343	35.00
1.47010	34.99
1.48677	34.98
1.50343	34.99
1.52010	34.99
1.53677	35.00
1.55343	35.00
1.57010	35.01
1.58677	35.01
1.60343	35.05
1.62010	35.15
1.63677	35.31
1.65343	35.54
1.67010	35.85
1.68677	36.24
1.70343	36.60
1.72010	36.94
1.73677	37.25
1.75343	37.59
1.77010	37.94
1.78677	38.27
1.80343	38.59
1.82010	38.93
1.83677	39.25
1.85343	39.59
1.87010	39.93
1.88677	40.24
1.90343	40.58
1.92010	40.91
1.93677	41.24
1.95343	41.55
1.97010	41.88
1.98677	42.21
2.00343	42.53
2.02010	42.86
2.03677	43.18
2.05343	43.50
2.07010	43.82
2.08677	44.15
2.10343	44.48
2.12010	44.79
2.13677	45.12
2.15343	45.44
2.17010	45.78
2.18677	46.10
2.20343	46.43
2.22010	46.77
2.23677	47.10
2.25343	47.42
2.27010	47.76
2.28677	48.09
2.30343	48.42
2.32010	48.76
2.33677	49.09
2.35343	49.38
2.37010	49.56
2.38677	49.63
2.40343	49.63
2.42010	49.65
2.43677	49.64
2.45343	49.68
2.47010	49.69
2.48677	49.72
2.50343	49.73
2.52010	49.74
2.53677	49.75
2.55343	49.75
2.57010	49.77
2.58677	49.76
2.60343	49.80
2.62010	49.81
2.63677	49.80
2.65343	49.83
2.67010	49.85
2.68677	49.86
2.70343	49.86
2.72010	49.85
2.73677	49.85
2.75343	49.85
2.77010	49.85
2.78677	49.87
2.80343	49.86
2.82010	49.86
2.83677	49.86
2.85343	49.88
2.87010	49.88
2.88677	49.90
2.90343	49.92
2.92010	49.93
2.93677	49.94
2.95343	49.95
2.97010	49.96
2.98677	49.98
3.00343	50.00
3.02010	50.00
3.03677	50.00
3.05343	50.01
3.07010	50.02
3.08677	50.03
3.10343	50.04
3.12010	50.06
3.13677	50.06
3.15343	50.07
3.17010	50.08
3.18677	50.09
3.20343	50.09
3.22010	50.09
3.23677	50.10
3.25343	50.10
3.27010	50.10
3.28677	50.09
3.30343	50.09
3.32010	50.09
3.33677	50.09
3.35343	50.10
3.37010	50.09
3.38677	50.09
3.40343	50.08
3.42010	50.08
3.43677	50.09
3.45343	50.09
3.47010	50.08
3.48677	50.08
3.50343	50.08
3.52010	50.08
3.53677	50.07
3.55343	50.07
3.57010	50.08
3.58677	50.09
3.60343	50.08
3.62010	50.08
3.63677	50.08
3.65343	50.08
3.67010	50.08
3.68677	50.09
3.70343	50.09
3.72010	50.09
3.73677	50.09
3.75343	50.09
3.77010	50.08
3.78677	50.07
3.80343	50.08
3.82010	50.08
3.83677	50.10
3.85343	50.12
3.87010	50.13
3.88677	50.12
3.90343	50.10
3.92010	50.08
3.93677	50.08
3.95343	50.06
3.97010	50.04
3.98677	50.03

[Status Trace (Injection Unit Temperature)]
Interval(msec)	1000
# of Points	240
Start Time(min)	0.003
End Time(min)	3.987
Intensity Units	
Intensity Multiplier	1
R.Time (min)	Intensity
0.00343	99.98
0.02010	99.98
0.03677	99.98
0.05343	99.98
0.07010	99.98
0.08677	99.98
0.10343	99.98
0.12010	99.98
0.13677	99.98
0.15343	99.98
0.17010	99.98
0.18677	99.98
0.20343	99.98
0.22010	99.98
0.23677	99.98
0.25343	99.98
0.27010	99.98
0.28677	99.98
0.30343	99.98
0.32010	99.98
0.33677	99.98
0.35343	99.98
0.37010	99.98
0.38677	99.98
0.40343	99.98
0.42010	99.98
0.43677	99.98
0.45343	99.98
0.47010	99.98
0.48677	99.98
0.50343	99.98
0.52010	99.98
0.53677	99.98
0.55343	99.98
0.57010	99.98
0.58677	99.98
0.60343	99.99
0.62010	99.99
0.63677	99.98
0.65343	99.98
0.67010	99.98
0.68677	99.98
0.70343	99.98
0.72010	99.98
0.73677	99.98
0.75343	99.98
0.77010	99.99
0.78677	99.98
0.80343	99.99
0.82010	99.99
0.83677	99.98
0.85343	99.98
0.87010	99.99
0.88677	99.98
0.90343	99.98
0.92010	99.98
0.93677	99.98
0.95343	99.98
0.97010	99.99
0.98677	99.98
1.00343	99.99
1.02010	99.98
1.03677	99.98
1.05343	99.98
1.07010	99.98
1.08677	99.98
1.10343	99.98
1.12010	99.98
1.13677	99.98
1.15343	99.98
1.17010	99.98
1.18677	99.98
1.20343	99.98
1.22010	99.98
1.23677	99.98
1.25343	99.98
1.27010	99.98
1.28677	99.98
1.30343	99.98
1.32010	99.98
1.33677	99.98
1.35343	99.99
1.37010	99.98
1.38677	99.98
1.40343	99.98
1.42010	99.98
1.43677	99.98
1.45343	99.98
1.47010	99.98
1.48677	99.99
1.50343	99.99
1.52010	99.99
1.53677	99.98
1.55343	99.99
1.57010	99.99
1.58677	99.99
1.60343	99.99
1.62010	99.98
1.63677	99.98
1.65343	99.98
1.67010	99.99
1.68677	99.99
1.70343	99.99
1.72010	99.99
1.73677	99.99
1.75343	99.99
1.77010	99.98
1.78677	99.98
1.80343	99.99
1.82010	99.98
1.83677	99.98
1.85343	99.98
1.87010	99.98
1.88677	99.99
1.90343	99.98
1.92010	99.98
1.93677	99.98
1.95343	99.98
1.97010	99.98
1.98677	99.98
2.00343	99.98
2.02010	99.98
2.03677	99.98
2.05343	99.98
2.07010	99.98
2.08677	99.98
2.10343	99.97
2.12010	99.98
2.13677	99.98
2.15343	99.97
2.17010	99.97
2.18677	99.97
2.20343	99.96
2.22010	99.97
2.23677	99.97
2.25343	99.97
2.27010	99.97
2.28677	99.97
2.30343	99.97
2.32010	99.97
2.33677	99.97
2.35343	99.97
2.37010	99.96
2.38677	99.97
2.40343	99.97
2.42010	99.97
2.43677	99.97
2.45343	99.97
2.47010	99.97
2.48677	99.97
2.50343	99.97
2.52010	99.97
2.53677	99.97
2.55343	99.97
2.57010	99.97
2.58677	99.97
2.60343	99.97
2.62010	99.97
2.63677	99.98
2.65343	99.98
2.67010	99.98
2.68677	99.97
2.70343	99.98
2.72010	99.98
2.73677	99.99
2.75343	99.98
2.77010	99.99
2.78677	99.99
2.80343	99.99
2.82010	99.99
2.83677	99.99
2.85343	99.99
2.87010	99.99
2.88677	100.00
2.90343	100.00
2.92010	100.00
2.93677	100.00
2.95343	100.01
2.97010	100.00
2.98677	100.01
3.00343	100.01
3.02010	100.01
3.03677	100.01
3.05343	100.01
3.07010	100.02
3.08677	100.02
3.10343	100.01
3.12010	100.02
3.13677	100.02
3.15343	100.02
3.17010	100.02
3.18677	100.02
3.20343	100.03
3.22010	100.03
3.23677	100.02
3.25343	100.03
3.27010	100.03
3.28677	100.03
3.30343	100.03
3.32010	100.03
3.33677	100.03
3.35343	100.04
3.37010	100.03
3.38677	100.03
3.40343	100.04
3.42010	100.03
3.43677	100.04
3.45343	100.04
3.47010	100.04
3.48677	100.04
3.50343	100.05
3.52010	100.05
3.53677	100.05
3.55343	100.04
3.57010	100.05
3.58677	100.05
3.60343	100.05
3.62010	100.04
3.63677	100.05
3.65343	100.05
3.67010	100.05
3.68677	100.05
3.70343	100.05
3.72010	100.05
3.73677	100.05
3.75343	100.05
3.77010	100.05
3.78677	100.06
3.80343	100.05
3.82010	100.05
3.83677	100.06
3.85343	100.05
3.87010	100.05
3.88677	100.05
3.90343	100.05
3.92010	100.05
3.93677	100.05
3.95343	100.05
3.97010	100.05
3.98677	100.05

[Status Trace (Carrier Gas Pressure)]
Interval(msec)	1000
# of Points	240
Start Time(min)	0.003
End Time(min)	3.987
Intensity Units	
Intensity Multiplier	1
R.Time (min)	Intensity
0.00343	58.00
0.02010	56.03
0.03677	56.38
0.05343	58.67
0.07010	59.83
0.08677	58.28
0.10343	57.97
0.12010	58.01
0.13677	58.01
0.15343	58.01
0.17010	58.00
0.18677	58.00
0.20343	58.00
0.22010	58.00
0.23677	58.00
0.25343	58.00
0.27010	58.00
0.28677	58.00
0.30343	58.00
0.32010	58.00
0.33677	58.00
0.35343	58.00
0.37010	58.00
0.38677	58.00
0.40343	58.00
0.42010	58.00
0.43677	58.00
0.45343	58.00
0.47010	58.00
0.48677	58.00
0.50343	58.00
0.52010	58.00
0.53677	58.00
0.55343	58.00
0.57010	58.00
0.58677	58.00
0.60343	58.00
0.62010	58.00
0.63677	58.00
0.65343	58.00
0.67010	58.00
0.68677	58.00
0.70343	58.00
0.72010	58.00
0.73677	58.00
0.75343	58.00
0.77010	58.00
0.78677	58.00
0.80343	58.00
0.82010	58.00
0.83677	58.00
0.85343	58.00
0.87010	58.00
0.88677	58.00
0.90343	58.00
0.92010	58.00
0.93677	58.00
0.95343	58.00
0.97010	58.00
0.98677	58.00
1.00343	58.00
1.02010	58.00
1.03677	58.00
1.05343	58.00
1.07010	58.00
1.08677	58.00
1.10343	58.00
1.12010	58.00
1.13677	58.00
1.15343	58.00
1.17010	58.00
1.18677	58.00
1.20343	58.00
1.22010	58.00
1.23677	58.00
1.25343	58.00
1.27010	58.00
1.28677	58.00
1.30343	58.00
1.32010	58.00
1.33677	58.00
1.35343	58.00
1.37010	58.00
1.38677	58.00
1.40343	58.00
1.42010	58.00
1.43677	58.00
1.45343	58.00
1.47010	58.00
1.48677	58.00
1.50343	58.00
1.52010	58.00
1.53677	58.00
1.55343	58.00
1.57010	58.00
1.58677	58.00
1.60343	58.00
1.62010	58.00
1.63677	58.00
1.65343	58.00
1.67010	58.01
1.68677	58.01
1.70343	58.00
1.72010	58.00
1.73677	58.00
1.75343	58.00
1.77010	58.00
1.78677	58.00
1.80343	58.00
1.82010	58.00
1.83677	58.00
1.85343	58.00
1.87010	58.00
1.88677	58.00
1.90343	58.00
1.92010	58.00
1.93677	58.00
1.95343	58.00
1.97010	58.00
1.98677	58.00
2.00343	58.00
2.02010	58.00
2.03677	58.00
2.05343	58.00
2.07010	58.00
2.08677	58.00
2.10343	58.00
2.12010	58.00
2.13677	58.00
2.15343	58.00
2.17010	58.00
2.18677	58.00
2.20343	58.00
2.22010	58.00
2.23677	58.00
2.25343	58.00
2.27010	58.00
2.28677	58.00
2.30343	58.00
2.32010	58.00
2.33677	58.00
2.35343	58.00
2.37010	57.99
2.38677	57.99
2.40343	57.99
2.42010	58.00
2.43677	58.00
2.45343	58.00
2.47010	58.00
2.48677	58.00
2.50343	57.97
2.52010	58.00
2.53677	57.99
2.55343	58.00
2.57010	58.00
2.58677	58.00
2.60343	58.00
2.62010	58.00
2.63677	58.00
2.65343	58.00
2.67010	58.00
2.68677	58.00
2.70343	58.00
2.72010	58.00
2.73677	58.00
2.75343	58.00
2.77010	58.00
2.78677	58.00
2.80343	58.00
2.82010	58.00
2.83677	58.00
2.85343	58.00
2.87010	58.00
2.88677	58.00
2.90343	58.00
2.92010	58.00
2.93677	58.00
2.95343	58.00
2.97010	58.00
2.98677	58.00
3.00343	58.00
3.02010	58.00
3.03677	58.00
3.05343	58.00
3.07010	58.00
3.08677	58.00
3.10343	58.00
3.12010	58.00
3.13677	58.00
3.15343	58.00
3.17010	58.00
3.18677	58.00
3.20343	58.00
3.22010	58.00
3.23677	58.00
3.25343	58.00
3.27010	58.00
3.28677	58.00
3.30343	58.00
3.32010	58.00
3.33677	58.00
3.35343	58.00
3.37010	58.00
3.38677	58.00
3.40343	58.00
3.42010	58.00
3.43677	58.00
3.45343	58.00
3.47010	58.00
3.48677	58.00
3.50343	58.00
3.52010	58.00
3.53677	58.00
3.55343	58.00
3.57010	58.00
3.58677	58.00
3.60343	58.00
3.62010	58.00
3.63677	58.00
3.65343	58.00
3.67010	58.00
3.68677	58.00
3.70343	58.00
3.72010	58.00
3.73677	58.00
3.75343	58.00
3.77010	58.00
3.78677	58.00
3.80343	58.00
3.82010	58.00
3.83677	58.00
3.85343	58.00
3.87010	58.00
3.88677	58.00
3.90343	58.00
3.92010	58.00
3.93677	58.00
3.95343	58.00
3.97010	58.00
3.98677	58.00

[Status Trace (Carrier Gas Flow)]
Interval(msec)	1000
# of Points	240
Start Time(min)	0.003
End Time(min)	3.987
Intensity Units	
Intensity Multiplier	1
R.Time (min)	Intensity
0.00343	34.52
0.02010	34.60
0.03677	34.54
0.05343	34.56
0.07010	34.50
0.08677	34.52
0.10343	34.52
0.12010	34.52
0.13677	34.52
0.15343	34.52
0.17010	34.52
0.18677	34.52
0.20343	34.52
0.22010	34.52
0.23677	34.53
0.25343	34.52
0.27010	34.51
0.28677	34.52
0.30343	34.52
0.32010	34.51
0.33677	34.53
0.35343	34.51
0.37010	34.51
0.38677	34.51
0.40343	34.52
0.42010	34.52
0.43677	34.52
0.45343	34.52
0.47010	34.52
0.48677	34.53
0.50343	34.52
0.52010	34.51
0.53677	34.52
0.55343	34.53
0.57010	34.53
0.58677	34.52
0.60343	34.52
0.62010	34.51
0.63677	34.52
0.65343	34.52
0.67010	34.52
0.68677	34.51
0.70343	34.54
0.72010	34.52
0.73677	34.52
0.75343	34.52
0.77010	34.52
0.78677	34.53
0.80343	34.52
0.82010	34.52
0.83677	34.52
0.85343	34.51
0.87010	34.52
0.88677	34.52
0.90343	34.52
0.92010	34.52
0.93677	34.52
0.95343	34.52
0.97010	34.52
0.98677	34.52
1.00343	34.52
1.02010	34.52
1.03677	34.52
1.05343	34.52
1.07010	34.52
1.08677	34.52
1.10343	34.51
1.12010	34.52
1.13677	34.52
1.15343	34.52
1.17010	34.52
1.18677	34.52
1.20343	34.52
1.22010	34.52
1.23677	34.52
1.25343	34.52
1.27010	34.52
1.28677	34.52
1.30343	34.52
1.32010	34.52
1.33677	34.52
1.35343	34.52
1.37010	34.52
1.38677	34.52
1.40343	34.52
1.42010	34.52
1.43677	34.52
1.45343	34.52
1.47010	34.52
1.48677	34.52
1.50343	34.52
1.52010	34.52
1.53677	34.52
1.55343	34.52
1.57010	34.52
1.58677	34.52
1.60343	34.52
1.62010	34.52
1.63677	34.52
1.65343	34.52
1.67010	34.52
1.68677	34.52
1.70343	34.52
1.72010	34.52
1.73677	34.52
1.75343	34.52
1.77010	34.52
1.78677	34.52
1.80343	34.52
1.82010	34.52
1.83677	34.52
1.85343	34.52
1.87010	34.52
1.88677	34.52
1.90343	34.52
1.92010	34.52
1.93677	34.52
1.95343	34.52
1.97010	34.52
1.98677	34.52
2.00343	34.52
2.02010	34.52
2.03677	34.52
2.05343	34.52
2.07010	34.52
2.08677	34.52
2.10343	34.52
2.12010	34.52
2.13677	34.52
2.15343	34.52
2.17010	34.52
2.18677	34.52
2.20343	34.52
2.22010	34.52
2.23677	34.52
2.25343	34.52
2.27010	34.52
2.28677	34.52
2.30343	34.52
2.32010	34.52
2.33677	34.52
2.35343	34.52
2.37010	34.52
2.38677	34.52
2.40343	34.52
2.42010	34.52
2.43677	34.52
2.45343	34.52
2.47010	34.52
2.48677	34.52
2.50343	34.68
2.52010	34.52
2.53677	34.52
2.55343	34.52
2.57010	34.52
2.58677	34.53
2.60343	34.52
2.62010	34.52
2.63677	34.52
2.65343	34.51
2.67010	34.53
2.68677	34.52
2.70343	34.52
2.72010	34.52
2.73677	34.51
2.75343	34.52
2.77010	34.51
2.78677	34.53
2.80343	34.52
2.82010	34.52
2.83677	34.52
2.85343	34.52
2.87010	34.51
2.88677	34.52
2.90343	34.52
2.92010	34.51
2.93677	34.52
2.95343	34.52
2.97010	34.52
2.98677	34.52
3.00343	34.52
3.02010	34.52
3.03677	34.52
3.05343	34.52
3.07010	34.52
3.08677	34.52
3.10343	34.52
3.12010	34.52
3.13677	34.52
3.15343	34.52
3.17010	34.52
3.18677	34.52
3.20343	34.52
3.22010	34.52
3.23677	34.52
3.25343	34.52
3.27010	34.52
3.28677	34.52
3.30343	34.52
3.32010	34.52
3.33677	34.52
3.35343	34.52
3.37010	34.52
3.38677	34.52
3.40343	34.52
3.42010	34.52
3.43677	34.52
3.45343	34.52
3.47010	34.52
3.48677	34.52
3.50343	34.52
3.52010	34.52
3.53677	34.52
3.55343	34.52
3.57010	34.52
3.58677	34.52
3.60343	34.52
3.62010	34.52
3.63677	34.52
3.65343	34.52
3.67010	34.52
3.68677	34.52
3.70343	34.52
3.72010	34.52
3.73677	34.52
3.75343	34.52
3.77010	34.52
3.78677	34.52
3.80343	34.52
3.82010	34.52
3.83677	34.52
3.85343	34.52
3.87010	34.52
3.88677	34.52
3.90343	34.52
3.92010	34.52
3.93677	34.52
3.95343	34.52
3.97010	34.52
3.98677	34.52

[Status Trace (Column Flow)]
Interval(msec)	1000
# of Points	240
Start Time(min)	0.003
End Time(min)	3.987
Intensity Units	
Intensity Multiplier	1
R.Time (min)	Intensity
0.00343	5.46
0.02010	5.23
0.03677	5.27
0.05343	5.54
0.07010	5.67
0.08677	5.49
0.10343	5.46
0.12010	5.46
0.13677	5.46
0.15343	5.46
0.17010	5.46
0.18677	5.46
0.20343	5.46
0.22010	5.46
0.23677	5.46
0.25343	5.46
0.27010	5.46
0.28677	5.46
0.30343	5.46
0.32010	5.46
0.33677	5.46
0.35343	5.46
0.37010	5.46
0.38677	5.46
0.40343	5.46
0.42010	5.46
0.43677	5.46
0.45343	5.46
0.47010	5.46
0.48677	5.46
0.50343	5.46
0.52010	5.46
0.53677	5.46
0.55343	5.46
0.57010	5.46
0.58677	5.46
0.60343	5.46
0.62010	5.46
0.63677	5.46
0.65343	5.46
0.67010	5.46
0.68677	5.46
0.70343	5.46
0.72010	5.46
0.73677	5.46
0.75343	5.46
0.77010	5.46
0.78677	5.46
0.80343	5.46
0.82010	5.46
0.83677	5.46
0.85343	5.46
0.87010	5.46
0.88677	5.46
0.90343	5.46
0.92010	5.46
0.93677	5.46
0.95343	5.46
0.97010	5.46
0.98677	5.46
1.00343	5.46
1.02010	5.46
1.03677	5.46
1.05343	5.46
1.07010	5.46
1.08677	5.46
1.10343	5.46
1.12010	5.46
1.13677	5.46
1.15343	5.46
1.17010	5.46
1.18677	5.46
1.20343	5.46
1.22010	5.46
1.23677	5.46
1.25343	5.46
1.27010	5.46
1.28677	5.46
1.30343	5.46
1.32010	5.46
1.33677	5.46
1.35343	5.46
1.37010	5.46
1.38677	5.46
1.40343	5.46
1.42010	5.46
1.43677	5.46
1.45343	5.46
1.47010	5.46
1.48677	5.46
1.50343	5.46
1.52010	5.46
1.53677	5.46
1.55343	5.46
1.57010	5.46
1.58677	5.46
1.60343	5.46
1.62010	5.46
1.63677	5.45
1.65343	5.45
1.67010	5.44
1.68677	5.43
1.70343	5.41
1.72010	5.40
1.73677	5.39
1.75343	5.38
1.77010	5.37
1.78677	5.36
1.80343	5.35
1.82010	5.34
1.83677	5.33
1.85343	5.32
1.87010	5.31
1.88677	5.30
1.90343	5.29
1.92010	5.28
1.93677	5.27
1.95343	5.26
1.97010	5.25
1.98677	5.24
2.00343	5.24
2.02010	5.22
2.03677	5.22
2.05343	5.21
2.07010	5.20
2.08677	5.19
2.10343	5.18
2.12010	5.17
2.13677	5.16
2.15343	5.15
2.17010	5.14
2.18677	5.13
2.20343	5.12
2.22010	5.11
2.23677	5.10
2.25343	5.10
2.27010	5.09
2.28677	5.08
2.30343	5.07
2.32010	5.06
2.33677	5.05
2.35343	5.04
2.37010	5.03
2.38677	5.03
2.40343	5.03
2.42010	5.03
2.43677	5.03
2.45343	5.03
2.47010	5.03
2.48677	5.03
2.50343	5.03
2.52010	5.03
2.53677	5.03
2.55343	5.03
2.57010	5.03
2.58677	5.03
2.60343	5.03
2.62010	5.03
2.63677	5.03
2.65343	5.03
2.67010	5.03
2.68677	5.03
2.70343	5.03
2.72010	5.03
2.73677	5.03
2.75343	5.03
2.77010	5.03
2.78677	5.03
2.80343	5.03
2.82010	5.03
2.83677	5.03
2.85343	5.03
2.87010	5.03
2.88677	5.03
2.90343	5.03
2.92010	5.03
2.93677	5.03
2.95343	5.02
2.97010	5.02
2.98677	5.02
3.00343	5.02
3.02010	5.02
3.03677	5.02
3.05343	5.02
3.07010	5.02
3.08677	5.02
3.10343	5.02
3.12010	5.02
3.13677	5.02
3.15343	5.02
3.17010	5.02
3.18677	5.02
3.20343	5.02
3.22010	5.02
3.23677	5.02
3.25343	5.02
3.27010	5.02
3.28677	5.02
3.30343	5.02
3.32010	5.02
3.33677	5.02
3.35343	5.02
3.37010	5.02
3.38677	5.02
3.40343	5.02
3.42010	5.02
3.43677	5.02
3.45343	5.02
3.47010	5.02
3.48677	5.02
3.50343	5.02
3.52010	5.02
3.53677	5.02
3.55343	5.02
3.57010	5.02
3.58677	5.02
3.60343	5.02
3.62010	5.02
3.63677	5.02
3.65343	5.02
3.67010	5.02
3.68677	5.02
3.70343	5.02
3.72010	5.02
3.73677	5.02
3.75343	5.02
3.77010	5.02
3.78677	5.02
3.80343	5.02
3.82010	5.02
3.83677	5.02
3.85343	5.02
3.87010	5.02
3.88677	5.02
3.90343	5.02
3.92010	5.02
3.93677	5.02
3.95343	5.02
3.97010	5.02
3.98677	5.02

[Status Trace (Linear Velocity)]
Interval(msec)	1000
# of Points	240
Start Time(min)	0.003
End Time(min)	3.987
Intensity Units	
Intensity Multiplier	1
R.Time (min)	Intensity
0.00343	39.00
0.02010	37.71
0.03677	37.94
0.05343	39.44
0.07010	40.20
0.08677	39.18
0.10343	38.98
0.12010	39.01
0.13677	39.01
0.15343	39.01
0.17010	39.01
0.18677	39.01
0.20343	39.01
0.22010	39.01
0.23677	39.01
0.25343	39.01
0.27010	39.01
0.28677	39.01
0.30343	39.01
0.32010	39.01
0.33677	39.01
0.35343	39.01
0.37010	39.01
0.38677	39.01
0.40343	39.01
0.42010	39.00
0.43677	39.00
0.45343	39.00
0.47010	39.00
0.48677	39.00
0.50343	39.00
0.52010	39.00
0.53677	39.00
0.55343	39.00
0.57010	39.01
0.58677	39.01
0.60343	39.01
0.62010	39.01
0.63677	39.01
0.65343	39.01
0.67010	39.01
0.68677	39.01
0.70343	39.01
0.72010	39.01
0.73677	39.00
0.75343	39.00
0.77010	39.00
0.78677	39.00
0.80343	39.00
0.82010	39.00
0.83677	39.00
0.85343	39.00
0.87010	39.00
0.88677	39.00
0.90343	39.00
0.92010	39.00
0.93677	39.00
0.95343	39.00
0.97010	39.00
0.98677	39.00
1.00343	39.00
1.02010	39.00
1.03677	39.00
1.05343	39.00
1.07010	39.00
1.08677	39.01
1.10343	39.01
1.12010	39.01
1.13677	39.00
1.15343	39.00
1.17010	39.00
1.18677	39.00
1.20343	39.00
1.22010	39.00
1.23677	39.00
1.25343	39.00
1.27010	39.00
1.28677	39.00
1.30343	39.01
1.32010	39.01
1.33677	39.01
1.35343	39.01
1.37010	39.01
1.38677	39.00
1.40343	39.00
1.42010	39.00
1.43677	39.00
1.45343	39.00
1.47010	39.00
1.48677	39.00
1.50343	39.00
1.52010	39.00
1.53677	39.00
1.55343	39.00
1.57010	39.00
1.58677	39.00
1.60343	39.00
1.62010	38.99
1.63677	38.98
1.65343	38.96
1.67010	38.92
1.68677	38.89
1.70343	38.85
1.72010	38.82
1.73677	38.79
1.75343	38.76
1.77010	38.72
1.78677	38.69
1.80343	38.66
1.82010	38.63
1.83677	38.60
1.85343	38.57
1.87010	38.54
1.88677	38.51
1.90343	38.48
1.92010	38.44
1.93677	38.42
1.95343	38.39
1.97010	38.35
1.98677	38.32
2.00343	38.29
2.02010	38.26
2.03677	38.24
2.05343	38.21
2.07010	38.17
2.08677	38.15
2.10343	38.12
2.12010	38.09
2.13677	38.06
2.15343	38.03
2.17010	38.00
2.18677	37.97
2.20343	37.94
2.22010	37.91
2.23677	37.88
2.25343	37.85
2.27010	37.82
2.28677	37.79
2.30343	37.76
2.32010	37.73
2.33677	37.70
2.35343	37.67
2.37010	37.65
2.38677	37.65
2.40343	37.65
2.42010	37.65
2.43677	37.65
2.45343	37.65
2.47010	37.65
2.48677	37.64
2.50343	37.62
2.52010	37.64
2.53677	37.64
2.55343	37.64
2.57010	37.64
2.58677	37.64
2.60343	37.64
2.62010	37.63
2.63677	37.64
2.65343	37.64
2.67010	37.63
2.68677	37.63
2.70343	37.63
2.72010	37.63
2.73677	37.63
2.75343	37.63
2.77010	37.63
2.78677	37.63
2.80343	37.63
2.82010	37.63
2.83677	37.63
2.85343	37.63
2.87010	37.63
2.88677	37.63
2.90343	37.63
2.92010	37.63
2.93677	37.62
2.95343	37.62
2.97010	37.62
2.98677	37.62
3.00343	37.62
3.02010	37.62
3.03677	37.62
3.05343	37.62
3.07010	37.62
3.08677	37.62
3.10343	37.61
3.12010	37.61
3.13677	37.61
3.15343	37.61
3.17010	37.61
3.18677	37.61
3.20343	37.61
3.22010	37.61
3.23677	37.61
3.25343	37.61
3.27010	37.61
3.28677	37.61
3.30343	37.61
3.32010	37.61
3.33677	37.61
3.35343	37.61
3.37010	37.61
3.38677	37.61
3.40343	37.61
3.42010	37.61
3.43677	37.61
3.45343	37.61
3.47010	37.61
3.48677	37.61
3.50343	37.61
3.52010	37.61
3.53677	37.61
3.55343	37.61
3.57010	37.61
3.58677	37.61
3.60343	37.61
3.62010	37.61
3.63677	37.61
3.65343	37.61
3.67010	37.61
3.68677	37.61
3.70343	37.61
3.72010	37.61
3.73677	37.61
3.75343	37.61
3.77010	37.61
3.78677	37.61
3.80343	37.61
3.82010	37.61
3.83677	37.61
3.85343	37.61
3.87010	37.61
3.88677	37.61
3.90343	37.61
3.92010	37.61
3.93677	37.61
3.95343	37.61
3.97010	37.61
3.98677	37.62

