[Header]
Application Name	LabSolutions
Version	5.110
Data File Name	C:\Users\User\Desktop\GC Analyses\Jack\UIC Prairie Sampling\8.12.22\220812_036.gcd
Output Date	10/14/2022
Output Time	2:33:52 PM

[File Information]
Type	Data File
Generated	10/10/2022 1:40:43 PM
Generated by	System Administrator
Modified	10/10/2022 1:45:10 PM
Modified by	System Administrator

[Sample Information]
Operator Name	System Administrator
Acquired	10/10/2022 1:41:10 PM
Sample Type	1:Standard
Level	1
Sample Name	220812_UICPrairie
Sample ID	220812_UICPrairie
ISTD Amount1	1
ISTD Amount2	1
ISTD Amount3	1
ISTD Amount4	1
ISTD Amount5	1
ISTD Amount6	1
ISTD Amount7	1
ISTD Amount8	1
ISTD Amount9	1
ISTD Amount10	1
ISTD Amount11	1
ISTD Amount12	1
ISTD Amount13	1
ISTD Amount14	1
ISTD Amount15	1
ISTD Amount16	1
ISTD Amount17	1
ISTD Amount18	1
ISTD Amount19	1
ISTD Amount20	1
ISTD Amount21	1
ISTD Amount22	1
ISTD Amount23	1
ISTD Amount24	1
ISTD Amount25	1
ISTD Amount26	1
ISTD Amount27	1
ISTD Amount28	1
ISTD Amount29	1
ISTD Amount30	1
ISTD Amount31	1
ISTD Amount32	1
Sample Amount	1
Dilution Factor	1
Vial#	1
Injection Volume	1
Injection Count	1
Bar Code	

[Original Files]
Data File	C:\Users\User\Desktop\GC Analyses\Jack\UIC Prairie Sampling\8.12.22\220812_036.gcd
Method File	C:\LabSolutions\Data\GHG_4min_2022\ghg3_togas_w_acet_4 min_new_int.gcm
Batch File	
Report Format File	c:\LabSolutions\System\DEFAULT.lsr

[File Description]


[Configuration]
Instrument Name	C0B7VH3-Instrument1
Instrument #	1
Line #	1
# of Detectors	3
Detector ID	DET#1	DET#2	DET#3
Detector Name	FID	PTCD	ECD
# of Channels	1	1	1

[Peak Table(Ch1)]
# of Peaks	3
Peak#	R.Time	I.Time	F.Time	Area	Height	A/H	Conc.	Mark	ID#	Name	k'	Plate #	Plate Ht.	Tailing	Resolution	Sep.Factor	Area Ratio	Height Ratio	Conc. %	Norm Conc.
1	1.479	1.439	1.542	12986	5702	2.277	100.000	   	1	CO	0.000	8203	18.286	1.220	0.000	0.000	0	0	16.667	16.667
2	1.571	1.542	1.644	4557	2227	2.046	100.000	 V 	2	CH4	0.062	11129	13.478	1.266	1.468	0.000	0	0	16.667	16.667
3	2.000	1.952	2.326	2502336	1219179	2.052	400.000	   	3	CO2	0.352	17562	8.541	1.264	7.154	5.680	0	0	66.667	66.667

[Peak Table(Ch2)]
# of Peaks	0

[Peak Table(Ch3)]
# of Peaks	2
Peak#	R.Time	I.Time	F.Time	Area	Height	A/H	Conc.	Mark	ID#	Name	k'	Plate #	Plate Ht.	Tailing	Resolution	Sep.Factor	Area Ratio	Height Ratio	Conc. %	Norm Conc.
1	2.458	2.249	2.645	5038	335	15.025	0.000	   			0.000	611	245.523	0.959	0.000	0.000	0	0	0.000	0.000
2	2.884	2.667	3.833	57775	6055	9.541	1.000	   	1	N2O	0.173	9211	16.284	3.978	1.642	0.000	0	0	100.000	100.000

[Compound Results(Ch1)]
# of IDs	6
ID#	Name	R.Time	Area	Height	Conc.	Curve	3rd	2nd	1st	Constant	Area Ratio	Height Ratio	Conc. %	Norm Conc.
1	CO	1.479	12986	5702	100.000	Linear	0.000000e+00	0.000000e+00	1.298613e+002	0.000000e+00	0	0	16.667	16.667
2	CH4	1.571	4557	2227	100.000	Linear	0.000000e+00	0.000000e+00	4.557041e+001	0.000000e+00	0	0	16.667	16.667
3	CO2	2.000	2502336	1219179	400.000	Linear	0.000000e+00	0.000000e+00	6.255839e+003	0.000000e+00	0	0	66.667	66.667
4	Ethylene	0.000	0	0	0.000	Linear	0.000000e+00	0.000000e+00	0.000000e+00	0.000000e+00	0	0	0.000	0.000
5	Acetylene	0.000	0	0	0.000	Linear	0.000000e+00	0.000000e+00	0.000000e+00	0.000000e+00	0	0	0.000	0.000
6	Ethane	0.000	0	0	0.000	Linear	0.000000e+00	0.000000e+00	0.000000e+00	0.000000e+00	0	0	0.000	0.000

[Compound Results(Ch2)]
# of IDs	5
ID#	Name	R.Time	Area	Height	Conc.	Curve	3rd	2nd	1st	Constant	Area Ratio	Height Ratio	Conc. %	Norm Conc.
1	Hydrogen	0.000	0	0	0.000	Linear	0.000000e+00	0.000000e+00	0.000000e+00	0.000000e+00	0	0	0.000	0.000
2	Oxygen	0.000	0	0	0.000	Linear	0.000000e+00	0.000000e+00	0.000000e+00	0.000000e+00	0	0	0.000	0.000
3	Nitrogen	0.000	0	0	0.000	Linear	0.000000e+00	0.000000e+00	0.000000e+00	0.000000e+00	0	0	0.000	0.000
4	Methane	0.000	0	0	0.000	Linear	0.000000e+00	0.000000e+00	0.000000e+00	0.000000e+00	0	0	0.000	0.000
5	Carbon Monoxide	0.000	0	0	0.000	Linear	0.000000e+00	0.000000e+00	0.000000e+00	0.000000e+00	0	0	0.000	0.000

[Compound Results(Ch3)]
# of IDs	2
ID#	Name	R.Time	Area	Height	Conc.	Curve	3rd	2nd	1st	Constant	Area Ratio	Height Ratio	Conc. %	Norm Conc.
1	N2O	2.884	57775	6055	1.000	Linear	0.000000e+00	0.000000e+00	5.777525e+004	0.000000e+00	0	0	100.000	100.000
2	SF6	0.000	0	0	0.000	Linear	0.000000e+00	0.000000e+00	0.000000e+00	0.000000e+00	0	0	0.000	0.000

[Group Results(Ch1)]
# of Groups	0

[Group Results(Ch2)]
# of Groups	0

[Group Results(Ch3)]
# of Groups	0

[Chromatogram (Ch1)]
Interval(msec)	220
# of Points	1091
Start Time(min)	0.002
End Time(min)	3.998
R.Time (min)	Intensity
0.00167	-28
0.00533	-36
0.00900	-42
0.01267	-41
0.01633	-34
0.02000	-26
0.02367	-20
0.02733	-21
0.03100	-23
0.03467	-24
0.03833	-23
0.04200	-19
0.04567	-15
0.04933	-13
0.05300	-12
0.05667	-10
0.06033	-5
0.06400	-1
0.06767	-2
0.07133	-7
0.07500	-13
0.07867	-18
0.08233	-23
0.08600	-26
0.08967	-27
0.09333	-26
0.09700	-24
0.10067	-24
0.10433	-24
0.10800	-24
0.11167	-24
0.11533	-21
0.11900	-18
0.12267	-17
0.12633	-18
0.13000	-20
0.13367	-22
0.13733	-26
0.14100	-26
0.14467	-25
0.14833	-21
0.15200	-14
0.15567	-2
0.15933	11
0.16300	15
0.16667	5
0.17033	-13
0.17400	-30
0.17767	-44
0.18133	-56
0.18500	-64
0.18867	-67
0.19233	-65
0.19600	-59
0.19967	-52
0.20333	-43
0.20700	-30
0.21067	-17
0.21433	-10
0.21800	-12
0.22167	-21
0.22533	-31
0.22900	-35
0.23267	-38
0.23633	-40
0.24000	-43
0.24367	-43
0.24733	-44
0.25100	-44
0.25467	-42
0.25833	-37
0.26200	-32
0.26567	-25
0.26933	-19
0.27300	-16
0.27667	-19
0.28033	-28
0.28400	-34
0.28767	-37
0.29133	-36
0.29500	-35
0.29867	-35
0.30233	-38
0.30600	-43
0.30967	-52
0.31333	-63
0.31700	-68
0.32067	-67
0.32433	-62
0.32800	-53
0.33167	-43
0.33533	-37
0.33900	-32
0.34267	-30
0.34633	-30
0.35000	-33
0.35367	-39
0.35733	-43
0.36100	-43
0.36467	-40
0.36833	-39
0.37200	-41
0.37567	-41
0.37933	-40
0.38300	-38
0.38667	-39
0.39033	-41
0.39400	-42
0.39767	-40
0.40133	-41
0.40500	-43
0.40867	-47
0.41233	-50
0.41600	-53
0.41967	-55
0.42333	-54
0.42700	-53
0.43067	-53
0.43433	-50
0.43800	-48
0.44167	-44
0.44533	-40
0.44900	-38
0.45267	-39
0.45633	-43
0.46000	-46
0.46367	-47
0.46733	-45
0.47100	-45
0.47467	-44
0.47833	-45
0.48200	-45
0.48567	-42
0.48933	-38
0.49300	-34
0.49667	-32
0.50033	-32
0.50400	-34
0.50767	-39
0.51133	-45
0.51500	-47
0.51867	-47
0.52233	-45
0.52600	-45
0.52967	-46
0.53333	-48
0.53700	-48
0.54067	-50
0.54433	-50
0.54800	-50
0.55167	-48
0.55533	-48
0.55900	-50
0.56267	-55
0.56633	-62
0.57000	-67
0.57367	-65
0.57733	-58
0.58100	-51
0.58467	-44
0.58833	-39
0.59200	-38
0.59567	-38
0.59933	-35
0.60300	-36
0.60667	-40
0.61033	-44
0.61400	-50
0.61767	-55
0.62133	-59
0.62500	-60
0.62867	-57
0.63233	-58
0.63600	-62
0.63967	-65
0.64333	-66
0.64700	-63
0.65067	-59
0.65433	-59
0.65800	-58
0.66167	-61
0.66533	-65
0.66900	-68
0.67267	-72
0.67633	-75
0.68000	-74
0.68367	-69
0.68733	-63
0.69100	-56
0.69467	-51
0.69833	-48
0.70200	-45
0.70567	-43
0.70933	-42
0.71300	-44
0.71667	-45
0.72033	-48
0.72400	-53
0.72767	-55
0.73133	-54
0.73500	-52
0.73867	-51
0.74233	-51
0.74600	-54
0.74967	-55
0.75333	-54
0.75700	-54
0.76067	-52
0.76433	-55
0.76800	-59
0.77167	-65
0.77533	-68
0.77900	-69
0.78267	-71
0.78633	-75
0.79000	-78
0.79367	-78
0.79733	-75
0.80100	-70
0.80467	-66
0.80833	-64
0.81200	-64
0.81567	-64
0.81933	-62
0.82300	-61
0.82667	-58
0.83033	-54
0.83400	-53
0.83767	-53
0.84133	-51
0.84500	-46
0.84867	-44
0.85233	-51
0.85600	-66
0.85967	-79
0.86333	-85
0.86700	-83
0.87067	-75
0.87433	-67
0.87800	-59
0.88167	-54
0.88533	-55
0.88900	-59
0.89267	-63
0.89633	-65
0.90000	-68
0.90367	-76
0.90733	-87
0.91100	-95
0.91467	-98
0.91833	-96
0.92200	-91
0.92567	-89
0.92933	-90
0.93300	-93
0.93667	-96
0.94033	-96
0.94400	-92
0.94767	-87
0.95133	-83
0.95500	-82
0.95867	-80
0.96233	-76
0.96600	-74
0.96967	-74
0.97333	-75
0.97700	-75
0.98067	-73
0.98433	-71
0.98800	-67
0.99167	-62
0.99533	-58
0.99900	-56
1.00267	-56
1.00633	-56
1.01000	-56
1.01367	-56
1.01733	-58
1.02100	-63
1.02467	-68
1.02833	-73
1.03200	-75
1.03567	-75
1.03933	-72
1.04300	-68
1.04667	-67
1.05033	-68
1.05400	-70
1.05767	-71
1.06133	-72
1.06500	-74
1.06867	-74
1.07233	-74
1.07600	-76
1.07967	-79
1.08333	-82
1.08700	-84
1.09067	-88
1.09433	-91
1.09800	-91
1.10167	-86
1.10533	-82
1.10900	-80
1.11267	-80
1.11633	-80
1.12000	-79
1.12367	-75
1.12733	-71
1.13100	-66
1.13467	-66
1.13833	-65
1.14200	-66
1.14567	-68
1.14933	-70
1.15300	-71
1.15667	-70
1.16033	-72
1.16400	-74
1.16767	-71
1.17133	-67
1.17500	-64
1.17867	-64
1.18233	-68
1.18600	-74
1.18967	-80
1.19333	-85
1.19700	-89
1.20067	-90
1.20433	-87
1.20800	-83
1.21167	-81
1.21533	-78
1.21900	-72
1.22267	-68
1.22633	-71
1.23000	-81
1.23367	-94
1.23733	-105
1.24100	-109
1.24467	-106
1.24833	-101
1.25200	-94
1.25567	-86
1.25933	-80
1.26300	-75
1.26667	-72
1.27033	-71
1.27400	-75
1.27767	-80
1.28133	-85
1.28500	-88
1.28867	-90
1.29233	-92
1.29600	-94
1.29967	-100
1.30333	-107
1.30700	-111
1.31067	-110
1.31433	-105
1.31800	-99
1.32167	-93
1.32533	-90
1.32900	-89
1.33267	-87
1.33633	-84
1.34000	-79
1.34367	-71
1.34733	-66
1.35100	-64
1.35467	-64
1.35833	-67
1.36200	-72
1.36567	-77
1.36933	-81
1.37300	-84
1.37667	-86
1.38033	-85
1.38400	-84
1.38767	-82
1.39133	-74
1.39500	-63
1.39867	-62
1.40233	-69
1.40600	-81
1.40967	-94
1.41333	-101
1.41700	-104
1.42067	-106
1.42433	-109
1.42800	-108
1.43167	-107
1.43533	-110
1.43900	-109
1.44267	-76
1.44633	62
1.45000	378
1.45367	896
1.45733	1658
1.46100	2622
1.46467	3628
1.46833	4492
1.47200	5128
1.47567	5500
1.47933	5590
1.48300	5367
1.48667	4844
1.49033	4106
1.49400	3284
1.49767	2506
1.50133	1849
1.50500	1332
1.50867	942
1.51233	656
1.51600	449
1.51967	304
1.52333	202
1.52700	128
1.53067	71
1.53433	24
1.53800	-15
1.54167	-31
1.54533	13
1.54900	180
1.55267	498
1.55633	916
1.56000	1342
1.56367	1704
1.56733	1968
1.57100	2107
1.57467	2094
1.57833	1916
1.58200	1611
1.58567	1253
1.58933	907
1.59300	615
1.59667	390
1.60033	229
1.60400	117
1.60767	44
1.61133	-1
1.61500	-31
1.61867	-47
1.62233	-53
1.62600	-56
1.62967	-64
1.63333	-79
1.63700	-97
1.64067	-112
1.64433	-127
1.64800	-138
1.65167	-143
1.65533	-142
1.65900	-138
1.66267	-133
1.66633	-128
1.67000	-125
1.67367	-123
1.67733	-121
1.68100	-118
1.68467	-113
1.68833	-108
1.69200	-105
1.69567	-106
1.69933	-110
1.70300	-111
1.70667	-110
1.71033	-111
1.71400	-112
1.71767	-112
1.72133	-115
1.72500	-119
1.72867	-122
1.73233	-120
1.73600	-117
1.73967	-112
1.74333	-108
1.74700	-105
1.75067	-102
1.75433	-99
1.75800	-97
1.76167	-98
1.76533	-102
1.76900	-104
1.77267	-108
1.77633	-110
1.78000	-110
1.78367	-113
1.78733	-116
1.79100	-119
1.79467	-122
1.79833	-124
1.80200	-123
1.80567	-121
1.80933	-118
1.81300	-115
1.81667	-116
1.82033	-120
1.82400	-126
1.82767	-130
1.83133	-130
1.83500	-125
1.83867	-121
1.84233	-117
1.84600	-115
1.84967	-116
1.85333	-115
1.85700	-112
1.86067	-107
1.86433	-103
1.86800	-100
1.87167	-102
1.87533	-104
1.87900	-104
1.88267	-102
1.88633	-102
1.89000	-102
1.89367	-105
1.89733	-106
1.90100	-104
1.90467	-102
1.90833	-98
1.91200	-98
1.91567	-103
1.91933	-108
1.92300	-108
1.92667	-103
1.93033	-95
1.93400	-90
1.93767	-88
1.94133	-88
1.94500	-89
1.94867	-90
1.95233	-85
1.95600	-56
1.95967	131
1.96333	1250
1.96700	6482
1.97067	25099
1.97433	75872
1.97800	182278
1.98167	355118
1.98533	578211
1.98900	812963
1.99267	1017226
1.99633	1158873
2.00000	1219125
2.00367	1192736
2.00733	1088946
2.01100	930827
2.01467	748792
2.01833	571151
2.02200	417096
2.02567	294718
2.02933	203567
2.03300	138732
2.03667	94058
2.04033	63910
2.04400	43813
2.04767	30486
2.05133	21640
2.05500	15733
2.05867	11738
2.06233	8991
2.06600	7066
2.06967	5696
2.07333	4699
2.07700	3955
2.08067	3387
2.08433	2937
2.08800	2577
2.09167	2287
2.09533	2052
2.09900	1856
2.10267	1687
2.10633	1544
2.11000	1421
2.11367	1313
2.11733	1218
2.12100	1137
2.12467	1071
2.12833	1012
2.13200	956
2.13567	903
2.13933	853
2.14300	806
2.14667	765
2.15033	731
2.15400	699
2.15767	668
2.16133	638
2.16500	610
2.16867	582
2.17233	555
2.17600	532
2.17967	516
2.18333	501
2.18700	484
2.19067	466
2.19433	446
2.19800	426
2.20167	408
2.20533	394
2.20900	388
2.21267	385
2.21633	381
2.22000	371
2.22367	355
2.22733	338
2.23100	321
2.23467	308
2.23833	300
2.24200	295
2.24567	290
2.24933	285
2.25300	284
2.25667	284
2.26033	286
2.26400	289
2.26767	287
2.27133	277
2.27500	263
2.27867	251
2.28233	240
2.28600	229
2.28967	222
2.29333	216
2.29700	211
2.30067	209
2.30433	209
2.30800	211
2.31167	207
2.31533	198
2.31900	186
2.32267	172
2.32633	161
2.33000	152
2.33367	147
2.33733	148
2.34100	151
2.34467	153
2.34833	154
2.35200	156
2.35567	160
2.35933	162
2.36300	162
2.36667	161
2.37033	161
2.37400	163
2.37767	165
2.38133	167
2.38500	168
2.38867	171
2.39233	171
2.39600	168
2.39967	165
2.40333	161
2.40700	158
2.41067	157
2.41433	159
2.41800	158
2.42167	156
2.42533	158
2.42900	161
2.43267	158
2.43633	149
2.44000	141
2.44367	137
2.44733	134
2.45100	131
2.45467	130
2.45833	132
2.46200	135
2.46567	135
2.46933	131
2.47300	127
2.47667	123
2.48033	119
2.48400	117
2.48767	118
2.49133	119
2.49500	121
2.49867	122
2.50233	121
2.50600	118
2.50967	113
2.51333	104
2.51700	92
2.52067	82
2.52433	78
2.52800	77
2.53167	80
2.53533	83
2.53900	88
2.54267	95
2.54633	100
2.55000	101
2.55367	97
2.55733	91
2.56100	88
2.56467	86
2.56833	88
2.57200	92
2.57567	94
2.57933	94
2.58300	95
2.58667	95
2.59033	91
2.59400	84
2.59767	80
2.60133	79
2.60500	81
2.60867	85
2.61233	85
2.61600	81
2.61967	74
2.62333	69
2.62700	69
2.63067	73
2.63433	77
2.63800	81
2.64167	83
2.64533	85
2.64900	84
2.65267	82
2.65633	80
2.66000	75
2.66367	67
2.66733	60
2.67100	57
2.67467	54
2.67833	53
2.68200	53
2.68567	56
2.68933	60
2.69300	63
2.69667	66
2.70033	68
2.70400	70
2.70767	68
2.71133	64
2.71500	63
2.71867	67
2.72233	73
2.72600	77
2.72967	80
2.73333	82
2.73700	83
2.74067	84
2.74433	85
2.74800	82
2.75167	74
2.75533	66
2.75900	61
2.76267	58
2.76633	58
2.77000	61
2.77367	65
2.77733	62
2.78100	57
2.78467	54
2.78833	54
2.79200	56
2.79567	55
2.79933	56
2.80300	55
2.80667	55
2.81033	54
2.81400	52
2.81767	49
2.82133	48
2.82500	50
2.82867	51
2.83233	52
2.83600	55
2.83967	56
2.84333	58
2.84700	58
2.85067	58
2.85433	61
2.85800	65
2.86167	68
2.86533	70
2.86900	70
2.87267	68
2.87633	64
2.88000	60
2.88367	60
2.88733	61
2.89100	63
2.89467	65
2.89833	66
2.90200	68
2.90567	70
2.90933	70
2.91300	68
2.91667	64
2.92033	60
2.92400	57
2.92767	55
2.93133	55
2.93500	55
2.93867	55
2.94233	58
2.94600	60
2.94967	58
2.95333	55
2.95700	54
2.96067	56
2.96433	59
2.96800	63
2.97167	65
2.97533	64
2.97900	61
2.98267	56
2.98633	52
2.99000	49
2.99367	45
2.99733	42
3.00100	41
3.00467	47
3.00833	54
3.01200	61
3.01567	65
3.01933	68
3.02300	73
3.02667	78
3.03033	84
3.03400	88
3.03767	89
3.04133	82
3.04500	68
3.04867	54
3.05233	44
3.05600	39
3.05967	38
3.06333	37
3.06700	35
3.07067	34
3.07433	34
3.07800	38
3.08167	44
3.08533	50
3.08900	51
3.09267	53
3.09633	56
3.10000	58
3.10367	58
3.10733	54
3.11100	48
3.11467	42
3.11833	39
3.12200	39
3.12567	42
3.12933	47
3.13300	49
3.13667	49
3.14033	45
3.14400	44
3.14767	45
3.15133	48
3.15500	50
3.15867	49
3.16233	45
3.16600	39
3.16967	35
3.17333	36
3.17700	42
3.18067	48
3.18433	53
3.18800	62
3.19167	69
3.19533	73
3.19900	70
3.20267	65
3.20633	59
3.21000	52
3.21367	43
3.21733	34
3.22100	28
3.22467	25
3.22833	24
3.23200	25
3.23567	28
3.23933	32
3.24300	36
3.24667	41
3.25033	46
3.25400	50
3.25767	52
3.26133	51
3.26500	51
3.26867	51
3.27233	53
3.27600	58
3.27967	60
3.28333	61
3.28700	65
3.29067	69
3.29433	69
3.29800	62
3.30167	54
3.30533	52
3.30900	53
3.31267	53
3.31633	49
3.32000	41
3.32367	30
3.32733	21
3.33100	19
3.33467	23
3.33833	27
3.34200	27
3.34567	25
3.34933	26
3.35300	28
3.35667	31
3.36033	32
3.36400	35
3.36767	38
3.37133	36
3.37500	34
3.37867	35
3.38233	42
3.38600	48
3.38967	52
3.39333	54
3.39700	53
3.40067	47
3.40433	39
3.40800	29
3.41167	21
3.41533	18
3.41900	20
3.42267	25
3.42633	30
3.43000	33
3.43367	34
3.43733	35
3.44100	39
3.44467	45
3.44833	48
3.45200	50
3.45567	54
3.45933	59
3.46300	61
3.46667	58
3.47033	52
3.47400	46
3.47767	44
3.48133	46
3.48500	45
3.48867	44
3.49233	44
3.49600	44
3.49967	46
3.50333	48
3.50700	49
3.51067	49
3.51433	47
3.51800	43
3.52167	38
3.52533	34
3.52900	33
3.53267	33
3.53633	34
3.54000	34
3.54367	31
3.54733	27
3.55100	26
3.55467	26
3.55833	27
3.56200	31
3.56567	39
3.56933	46
3.57300	50
3.57667	52
3.58033	52
3.58400	49
3.58767	44
3.59133	39
3.59500	37
3.59867	38
3.60233	42
3.60600	43
3.60967	43
3.61333	40
3.61700	38
3.62067	36
3.62433	35
3.62800	35
3.63167	37
3.63533	40
3.63900	41
3.64267	42
3.64633	44
3.65000	43
3.65367	41
3.65733	38
3.66100	35
3.66467	32
3.66833	32
3.67200	37
3.67567	44
3.67933	48
3.68300	49
3.68667	48
3.69033	47
3.69400	44
3.69767	40
3.70133	37
3.70500	33
3.70867	30
3.71233	28
3.71600	25
3.71967	22
3.72333	20
3.72700	18
3.73067	18
3.73433	19
3.73800	18
3.74167	19
3.74533	21
3.74900	24
3.75267	25
3.75633	28
3.76000	32
3.76367	35
3.76733	33
3.77100	28
3.77467	20
3.77833	15
3.78200	15
3.78567	19
3.78933	26
3.79300	33
3.79667	41
3.80033	48
3.80400	53
3.80767	54
3.81133	54
3.81500	52
3.81867	47
3.82233	40
3.82600	32
3.82967	25
3.83333	18
3.83700	10
3.84067	6
3.84433	10
3.84800	17
3.85167	21
3.85533	24
3.85900	29
3.86267	35
3.86633	39
3.87000	37
3.87367	31
3.87733	25
3.88100	21
3.88467	20
3.88833	24
3.89200	30
3.89567	35
3.89933	40
3.90300	45
3.90667	48
3.91033	45
3.91400	39
3.91767	32
3.92133	26
3.92500	22
3.92867	21
3.93233	22
3.93600	21
3.93967	19
3.94333	19
3.94700	22
3.95067	26
3.95433	30
3.95800	35
3.96167	39
3.96533	41
3.96900	39
3.97267	36
3.97633	34
3.98000	37
3.98367	41
3.98733	47
3.99100	51
3.99467	50
3.99833	46

[Chromatogram (Ch2)]
Interval(msec)	220
# of Points	1091
Start Time(min)	0.002
End Time(min)	3.998
R.Time (min)	Intensity
0.00167	0
0.00533	0
0.00900	0
0.01267	0
0.01633	0
0.02000	0
0.02367	0
0.02733	0
0.03100	0
0.03467	0
0.03833	1
0.04200	1
0.04567	1
0.04933	1
0.05300	2
0.05667	2
0.06033	2
0.06400	3
0.06767	3
0.07133	3
0.07500	3
0.07867	4
0.08233	4
0.08600	3
0.08967	3
0.09333	3
0.09700	3
0.10067	3
0.10433	3
0.10800	3
0.11167	3
0.11533	3
0.11900	3
0.12267	3
0.12633	3
0.13000	3
0.13367	3
0.13733	3
0.14100	2
0.14467	2
0.14833	2
0.15200	2
0.15567	1
0.15933	1
0.16300	1
0.16667	2
0.17033	2
0.17400	2
0.17767	2
0.18133	2
0.18500	2
0.18867	1
0.19233	1
0.19600	1
0.19967	1
0.20333	1
0.20700	1
0.21067	0
0.21433	0
0.21800	0
0.22167	-0
0.22533	-0
0.22900	-0
0.23267	0
0.23633	0
0.24000	0
0.24367	0
0.24733	0
0.25100	0
0.25467	0
0.25833	0
0.26200	0
0.26567	-0
0.26933	-1
0.27300	-1
0.27667	-2
0.28033	-2
0.28400	-3
0.28767	-3
0.29133	-3
0.29500	-4
0.29867	-4
0.30233	-4
0.30600	-3
0.30967	-3
0.31333	-3
0.31700	-2
0.32067	-2
0.32433	-1
0.32800	-1
0.33167	-0
0.33533	0
0.33900	1
0.34267	1
0.34633	1
0.35000	1
0.35367	2
0.35733	2
0.36100	2
0.36467	2
0.36833	2
0.37200	2
0.37567	2
0.37933	2
0.38300	2
0.38667	2
0.39033	2
0.39400	2
0.39767	2
0.40133	2
0.40500	2
0.40867	2
0.41233	2
0.41600	2
0.41967	2
0.42333	2
0.42700	2
0.43067	2
0.43433	1
0.43800	1
0.44167	1
0.44533	1
0.44900	1
0.45267	1
0.45633	0
0.46000	-0
0.46367	-1
0.46733	-1
0.47100	-1
0.47467	-1
0.47833	-1
0.48200	-2
0.48567	-2
0.48933	-2
0.49300	-2
0.49667	-3
0.50033	-3
0.50400	-3
0.50767	-3
0.51133	-3
0.51500	-3
0.51867	-2
0.52233	-2
0.52600	-2
0.52967	-3
0.53333	-3
0.53700	-3
0.54067	-3
0.54433	-3
0.54800	-3
0.55167	-3
0.55533	-3
0.55900	-3
0.56267	-3
0.56633	-3
0.57000	-2
0.57367	-2
0.57733	-2
0.58100	-1
0.58467	-1
0.58833	-0
0.59200	0
0.59567	1
0.59933	1
0.60300	2
0.60667	2
0.61033	2
0.61400	2
0.61767	2
0.62133	2
0.62500	2
0.62867	2
0.63233	2
0.63600	2
0.63967	2
0.64333	2
0.64700	2
0.65067	2
0.65433	2
0.65800	2
0.66167	1
0.66533	1
0.66900	1
0.67267	1
0.67633	0
0.68000	-0
0.68367	-0
0.68733	-1
0.69100	-1
0.69467	-2
0.69833	-2
0.70200	-2
0.70567	-3
0.70933	-3
0.71300	-4
0.71667	-4
0.72033	-4
0.72400	-4
0.72767	-4
0.73133	-4
0.73500	-4
0.73867	-3
0.74233	-3
0.74600	-2
0.74967	-2
0.75333	-1
0.75700	-1
0.76067	-0
0.76433	0
0.76800	0
0.77167	0
0.77533	0
0.77900	0
0.78267	-0
0.78633	-0
0.79000	-0
0.79367	-0
0.79733	0
0.80100	0
0.80467	0
0.80833	-0
0.81200	-0
0.81567	-0
0.81933	-0
0.82300	-0
0.82667	-0
0.83033	0
0.83400	0
0.83767	0
0.84133	0
0.84500	0
0.84867	0
0.85233	0
0.85600	0
0.85967	0
0.86333	0
0.86700	0
0.87067	0
0.87433	0
0.87800	0
0.88167	0
0.88533	0
0.88900	0
0.89267	0
0.89633	-0
0.90000	-0
0.90367	-1
0.90733	-1
0.91100	-1
0.91467	-1
0.91833	-1
0.92200	-1
0.92567	-1
0.92933	-1
0.93300	-1
0.93667	-1
0.94033	-1
0.94400	-1
0.94767	-1
0.95133	-1
0.95500	-1
0.95867	-1
0.96233	-2
0.96600	-2
0.96967	-2
0.97333	-2
0.97700	-1
0.98067	-1
0.98433	-1
0.98800	-1
0.99167	-1
0.99533	-1
0.99900	-1
1.00267	-1
1.00633	-1
1.01000	-1
1.01367	-1
1.01733	-1
1.02100	-1
1.02467	-1
1.02833	-1
1.03200	-1
1.03567	-1
1.03933	-1
1.04300	-1
1.04667	-2
1.05033	-2
1.05400	-3
1.05767	-3
1.06133	-3
1.06500	-3
1.06867	-3
1.07233	-3
1.07600	-3
1.07967	-3
1.08333	-3
1.08700	-3
1.09067	-3
1.09433	-2
1.09800	-2
1.10167	-2
1.10533	-2
1.10900	-2
1.11267	-2
1.11633	-1
1.12000	-1
1.12367	-2
1.12733	-2
1.13100	-1
1.13467	-1
1.13833	-0
1.14200	0
1.14567	0
1.14933	0
1.15300	0
1.15667	0
1.16033	-0
1.16400	-0
1.16767	-0
1.17133	-0
1.17500	-0
1.17867	0
1.18233	0
1.18600	0
1.18967	0
1.19333	0
1.19700	0
1.20067	1
1.20433	1
1.20800	1
1.21167	1
1.21533	1
1.21900	1
1.22267	1
1.22633	0
1.23000	0
1.23367	0
1.23733	0
1.24100	0
1.24467	-0
1.24833	-1
1.25200	-1
1.25567	-1
1.25933	-2
1.26300	-2
1.26667	-3
1.27033	-3
1.27400	-3
1.27767	-3
1.28133	-3
1.28500	-3
1.28867	-3
1.29233	-3
1.29600	-3
1.29967	-3
1.30333	-3
1.30700	-3
1.31067	-3
1.31433	-3
1.31800	-3
1.32167	-3
1.32533	-3
1.32900	-3
1.33267	-3
1.33633	-3
1.34000	-2
1.34367	-2
1.34733	-2
1.35100	-3
1.35467	-3
1.35833	-3
1.36200	-3
1.36567	-2
1.36933	-2
1.37300	-2
1.37667	-2
1.38033	-3
1.38400	-3
1.38767	-4
1.39133	-4
1.39500	-4
1.39867	-4
1.40233	-4
1.40600	-4
1.40967	-4
1.41333	-3
1.41700	-3
1.42067	-3
1.42433	-3
1.42800	-3
1.43167	-3
1.43533	-3
1.43900	-3
1.44267	-3
1.44633	-3
1.45000	-4
1.45367	-4
1.45733	-4
1.46100	-4
1.46467	-3
1.46833	-3
1.47200	-3
1.47567	-2
1.47933	-2
1.48300	-2
1.48667	-2
1.49033	-2
1.49400	-2
1.49767	-2
1.50133	-1
1.50500	-1
1.50867	-1
1.51233	-1
1.51600	-1
1.51967	-1
1.52333	-1
1.52700	-1
1.53067	-1
1.53433	-1
1.53800	-1
1.54167	-1
1.54533	-1
1.54900	-1
1.55267	-1
1.55633	-1
1.56000	-1
1.56367	-1
1.56733	-0
1.57100	-0
1.57467	-0
1.57833	-0
1.58200	-0
1.58567	-0
1.58933	-0
1.59300	-1
1.59667	-1
1.60033	-1
1.60400	-2
1.60767	-4
1.61133	-5
1.61500	-7
1.61867	-9
1.62233	-12
1.62600	-15
1.62967	-18
1.63333	-21
1.63700	-25
1.64067	-28
1.64433	-32
1.64800	-36
1.65167	-39
1.65533	-43
1.65900	-48
1.66267	-52
1.66633	-57
1.67000	-63
1.67367	-68
1.67733	-74
1.68100	-80
1.68467	-86
1.68833	-91
1.69200	-96
1.69567	-100
1.69933	-104
1.70300	-107
1.70667	-109
1.71033	-110
1.71400	-111
1.71767	-112
1.72133	-113
1.72500	-113
1.72867	-114
1.73233	-114
1.73600	-114
1.73967	-113
1.74333	-113
1.74700	-112
1.75067	-112
1.75433	-112
1.75800	-112
1.76167	-112
1.76533	-113
1.76900	-114
1.77267	-115
1.77633	-117
1.78000	-118
1.78367	-119
1.78733	-120
1.79100	-120
1.79467	-120
1.79833	-121
1.80200	-121
1.80567	-121
1.80933	-122
1.81300	-122
1.81667	-123
1.82033	-123
1.82400	-123
1.82767	-123
1.83133	-123
1.83500	-123
1.83867	-123
1.84233	-123
1.84600	-122
1.84967	-122
1.85333	-122
1.85700	-122
1.86067	-122
1.86433	-122
1.86800	-122
1.87167	-122
1.87533	-122
1.87900	-122
1.88267	-122
1.88633	-122
1.89000	-122
1.89367	-122
1.89733	-122
1.90100	-122
1.90467	-122
1.90833	-121
1.91200	-120
1.91567	-119
1.91933	-118
1.92300	-117
1.92667	-116
1.93033	-116
1.93400	-115
1.93767	-115
1.94133	-115
1.94500	-116
1.94867	-116
1.95233	-116
1.95600	-116
1.95967	-116
1.96333	-116
1.96700	-116
1.97067	-116
1.97433	-115
1.97800	-115
1.98167	-116
1.98533	-115
1.98900	-115
1.99267	-114
1.99633	-114
2.00000	-113
2.00367	-112
2.00733	-112
2.01100	-111
2.01467	-110
2.01833	-110
2.02200	-110
2.02567	-110
2.02933	-110
2.03300	-110
2.03667	-110
2.04033	-110
2.04400	-110
2.04767	-110
2.05133	-110
2.05500	-110
2.05867	-110
2.06233	-109
2.06600	-109
2.06967	-108
2.07333	-108
2.07700	-108
2.08067	-108
2.08433	-108
2.08800	-108
2.09167	-107
2.09533	-107
2.09900	-106
2.10267	-105
2.10633	-104
2.11000	-104
2.11367	-103
2.11733	-103
2.12100	-102
2.12467	-102
2.12833	-102
2.13200	-103
2.13567	-103
2.13933	-103
2.14300	-103
2.14667	-103
2.15033	-102
2.15400	-101
2.15767	-100
2.16133	-99
2.16500	-99
2.16867	-98
2.17233	-98
2.17600	-97
2.17967	-97
2.18333	-96
2.18700	-96
2.19067	-95
2.19433	-95
2.19800	-95
2.20167	-95
2.20533	-96
2.20900	-97
2.21267	-98
2.21633	-99
2.22000	-99
2.22367	-99
2.22733	-99
2.23100	-98
2.23467	-98
2.23833	-98
2.24200	-98
2.24567	-97
2.24933	-96
2.25300	-95
2.25667	-94
2.26033	-93
2.26400	-93
2.26767	-93
2.27133	-92
2.27500	-92
2.27867	-91
2.28233	-91
2.28600	-91
2.28967	-90
2.29333	-90
2.29700	-90
2.30067	-90
2.30433	-89
2.30800	-89
2.31167	-90
2.31533	-90
2.31900	-89
2.32267	-89
2.32633	-89
2.33000	-89
2.33367	-89
2.33733	-88
2.34100	-88
2.34467	-88
2.34833	-87
2.35200	-86
2.35567	-86
2.35933	-85
2.36300	-85
2.36667	-84
2.37033	-83
2.37400	-81
2.37767	-79
2.38133	-77
2.38500	-73
2.38867	-69
2.39233	-65
2.39600	-61
2.39967	-56
2.40333	-51
2.40700	-46
2.41067	-42
2.41433	-37
2.41800	-33
2.42167	-30
2.42533	-27
2.42900	-24
2.43267	-21
2.43633	-19
2.44000	-17
2.44367	-14
2.44733	-12
2.45100	-10
2.45467	-8
2.45833	-7
2.46200	-6
2.46567	-5
2.46933	-4
2.47300	-2
2.47667	-1
2.48033	-0
2.48400	1
2.48767	2
2.49133	3
2.49500	5
2.49867	6
2.50233	7
2.50600	8
2.50967	9
2.51333	9
2.51700	10
2.52067	10
2.52433	11
2.52800	11
2.53167	11
2.53533	12
2.53900	12
2.54267	13
2.54633	13
2.55000	13
2.55367	13
2.55733	13
2.56100	13
2.56467	13
2.56833	14
2.57200	14
2.57567	14
2.57933	14
2.58300	14
2.58667	14
2.59033	14
2.59400	14
2.59767	15
2.60133	15
2.60500	15
2.60867	15
2.61233	15
2.61600	16
2.61967	16
2.62333	16
2.62700	16
2.63067	16
2.63433	16
2.63800	17
2.64167	17
2.64533	17
2.64900	17
2.65267	18
2.65633	18
2.66000	19
2.66367	20
2.66733	20
2.67100	20
2.67467	20
2.67833	20
2.68200	20
2.68567	20
2.68933	20
2.69300	20
2.69667	20
2.70033	20
2.70400	20
2.70767	21
2.71133	21
2.71500	22
2.71867	22
2.72233	23
2.72600	23
2.72967	24
2.73333	25
2.73700	25
2.74067	25
2.74433	25
2.74800	25
2.75167	25
2.75533	25
2.75900	25
2.76267	25
2.76633	25
2.77000	25
2.77367	24
2.77733	24
2.78100	24
2.78467	24
2.78833	23
2.79200	23
2.79567	23
2.79933	22
2.80300	22
2.80667	22
2.81033	22
2.81400	23
2.81767	23
2.82133	23
2.82500	23
2.82867	23
2.83233	23
2.83600	23
2.83967	23
2.84333	22
2.84700	21
2.85067	19
2.85433	16
2.85800	11
2.86167	3
2.86533	-8
2.86900	-22
2.87267	-41
2.87633	-63
2.88000	-90
2.88367	-120
2.88733	-154
2.89100	-192
2.89467	-233
2.89833	-276
2.90200	-322
2.90567	-369
2.90933	-418
2.91300	-467
2.91667	-517
2.92033	-567
2.92400	-617
2.92767	-667
2.93133	-716
2.93500	-764
2.93867	-812
2.94233	-864
2.94600	-921
2.94967	-983
2.95333	-1040
2.95700	-1081
2.96067	-1098
2.96433	-1089
2.96800	-1055
2.97167	-1001
2.97533	-933
2.97900	-857
2.98267	-777
2.98633	-696
2.99000	-619
2.99367	-545
2.99733	-477
3.00100	-415
3.00467	-360
3.00833	-310
3.01200	-266
3.01567	-227
3.01933	-194
3.02300	-164
3.02667	-139
3.03033	-117
3.03400	-99
3.03767	-83
3.04133	-69
3.04500	-57
3.04867	-47
3.05233	-38
3.05600	-31
3.05967	-24
3.06333	-19
3.06700	-14
3.07067	-11
3.07433	-7
3.07800	-4
3.08167	-2
3.08533	0
3.08900	2
3.09267	4
3.09633	5
3.10000	7
3.10367	8
3.10733	9
3.11100	10
3.11467	11
3.11833	12
3.12200	12
3.12567	13
3.12933	13
3.13300	14
3.13667	14
3.14033	14
3.14400	15
3.14767	15
3.15133	15
3.15500	15
3.15867	16
3.16233	16
3.16600	16
3.16967	16
3.17333	16
3.17700	16
3.18067	17
3.18433	17
3.18800	17
3.19167	17
3.19533	17
3.19900	17
3.20267	18
3.20633	18
3.21000	18
3.21367	19
3.21733	19
3.22100	20
3.22467	21
3.22833	22
3.23200	22
3.23567	23
3.23933	23
3.24300	23
3.24667	23
3.25033	24
3.25400	24
3.25767	24
3.26133	24
3.26500	25
3.26867	25
3.27233	25
3.27600	25
3.27967	25
3.28333	25
3.28700	25
3.29067	25
3.29433	26
3.29800	26
3.30167	26
3.30533	26
3.30900	26
3.31267	27
3.31633	27
3.32000	27
3.32367	27
3.32733	27
3.33100	27
3.33467	27
3.33833	27
3.34200	28
3.34567	28
3.34933	28
3.35300	28
3.35667	28
3.36033	28
3.36400	28
3.36767	29
3.37133	29
3.37500	29
3.37867	29
3.38233	29
3.38600	29
3.38967	29
3.39333	28
3.39700	28
3.40067	28
3.40433	28
3.40800	28
3.41167	28
3.41533	28
3.41900	28
3.42267	28
3.42633	28
3.43000	28
3.43367	28
3.43733	28
3.44100	28
3.44467	28
3.44833	27
3.45200	27
3.45567	27
3.45933	27
3.46300	27
3.46667	27
3.47033	27
3.47400	27
3.47767	27
3.48133	26
3.48500	26
3.48867	26
3.49233	26
3.49600	26
3.49967	26
3.50333	26
3.50700	26
3.51067	26
3.51433	26
3.51800	26
3.52167	26
3.52533	26
3.52900	26
3.53267	26
3.53633	26
3.54000	26
3.54367	26
3.54733	26
3.55100	26
3.55467	26
3.55833	26
3.56200	26
3.56567	26
3.56933	26
3.57300	26
3.57667	26
3.58033	26
3.58400	25
3.58767	26
3.59133	26
3.59500	26
3.59867	26
3.60233	26
3.60600	26
3.60967	26
3.61333	25
3.61700	25
3.62067	25
3.62433	25
3.62800	26
3.63167	26
3.63533	26
3.63900	26
3.64267	26
3.64633	26
3.65000	26
3.65367	26
3.65733	26
3.66100	26
3.66467	26
3.66833	26
3.67200	27
3.67567	27
3.67933	27
3.68300	27
3.68667	27
3.69033	27
3.69400	27
3.69767	27
3.70133	27
3.70500	27
3.70867	27
3.71233	27
3.71600	27
3.71967	27
3.72333	27
3.72700	27
3.73067	27
3.73433	27
3.73800	27
3.74167	27
3.74533	27
3.74900	27
3.75267	27
3.75633	27
3.76000	27
3.76367	27
3.76733	27
3.77100	27
3.77467	27
3.77833	27
3.78200	27
3.78567	26
3.78933	26
3.79300	26
3.79667	26
3.80033	26
3.80400	26
3.80767	26
3.81133	26
3.81500	26
3.81867	26
3.82233	26
3.82600	26
3.82967	26
3.83333	26
3.83700	26
3.84067	26
3.84433	27
3.84800	27
3.85167	27
3.85533	27
3.85900	27
3.86267	27
3.86633	27
3.87000	26
3.87367	26
3.87733	26
3.88100	26
3.88467	26
3.88833	26
3.89200	26
3.89567	26
3.89933	26
3.90300	26
3.90667	25
3.91033	25
3.91400	25
3.91767	25
3.92133	24
3.92500	24
3.92867	24
3.93233	24
3.93600	24
3.93967	24
3.94333	24
3.94700	23
3.95067	23
3.95433	23
3.95800	23
3.96167	23
3.96533	23
3.96900	23
3.97267	23
3.97633	23
3.98000	23
3.98367	23
3.98733	23
3.99100	23
3.99467	23
3.99833	23

[Chromatogram (Ch3)]
Interval(msec)	220
# of Points	1091
Start Time(min)	0.002
End Time(min)	3.998
R.Time (min)	Intensity
0.00167	-0
0.00533	-1
0.00900	-2
0.01267	-3
0.01633	-2
0.02000	-2
0.02367	-2
0.02733	-4
0.03100	-6
0.03467	-5
0.03833	-5
0.04200	-5
0.04567	-3
0.04933	-3
0.05300	-5
0.05667	-6
0.06033	-5
0.06400	-5
0.06767	-4
0.07133	-5
0.07500	-3
0.07867	-2
0.08233	-2
0.08600	-1
0.08967	0
0.09333	-1
0.09700	-0
0.10067	-1
0.10433	-0
0.10800	0
0.11167	1
0.11533	2
0.11900	2
0.12267	2
0.12633	1
0.13000	-0
0.13367	-3
0.13733	-4
0.14100	-3
0.14467	-3
0.14833	-2
0.15200	-1
0.15567	-1
0.15933	1
0.16300	2
0.16667	2
0.17033	3
0.17400	6
0.17767	8
0.18133	9
0.18500	10
0.18867	10
0.19233	8
0.19600	9
0.19967	9
0.20333	9
0.20700	9
0.21067	7
0.21433	7
0.21800	9
0.22167	9
0.22533	9
0.22900	8
0.23267	8
0.23633	10
0.24000	12
0.24367	13
0.24733	13
0.25100	13
0.25467	13
0.25833	13
0.26200	16
0.26567	16
0.26933	14
0.27300	11
0.27667	9
0.28033	9
0.28400	10
0.28767	10
0.29133	11
0.29500	12
0.29867	12
0.30233	10
0.30600	8
0.30967	8
0.31333	7
0.31700	6
0.32067	7
0.32433	9
0.32800	10
0.33167	11
0.33533	10
0.33900	9
0.34267	9
0.34633	11
0.35000	11
0.35367	11
0.35733	11
0.36100	14
0.36467	14
0.36833	13
0.37200	11
0.37567	10
0.37933	10
0.38300	11
0.38667	11
0.39033	11
0.39400	9
0.39767	9
0.40133	12
0.40500	16
0.40867	16
0.41233	17
0.41600	18
0.41967	16
0.42333	12
0.42700	9
0.43067	9
0.43433	12
0.43800	16
0.44167	17
0.44533	16
0.44900	16
0.45267	18
0.45633	19
0.46000	20
0.46367	20
0.46733	19
0.47100	18
0.47467	18
0.47833	19
0.48200	20
0.48567	22
0.48933	23
0.49300	23
0.49667	24
0.50033	24
0.50400	23
0.50767	21
0.51133	18
0.51500	17
0.51867	21
0.52233	25
0.52600	25
0.52967	23
0.53333	20
0.53700	17
0.54067	18
0.54433	19
0.54800	20
0.55167	23
0.55533	24
0.55900	23
0.56267	23
0.56633	22
0.57000	23
0.57367	25
0.57733	27
0.58100	24
0.58467	23
0.58833	23
0.59200	25
0.59567	26
0.59933	26
0.60300	23
0.60667	23
0.61033	24
0.61400	27
0.61767	27
0.62133	28
0.62500	29
0.62867	29
0.63233	30
0.63600	31
0.63967	32
0.64333	32
0.64700	33
0.65067	32
0.65433	30
0.65800	29
0.66167	31
0.66533	31
0.66900	30
0.67267	30
0.67633	30
0.68000	29
0.68367	27
0.68733	25
0.69100	25
0.69467	24
0.69833	25
0.70200	25
0.70567	25
0.70933	25
0.71300	27
0.71667	28
0.72033	31
0.72400	35
0.72767	34
0.73133	32
0.73500	31
0.73867	32
0.74233	35
0.74600	35
0.74967	34
0.75333	32
0.75700	33
0.76067	33
0.76433	32
0.76800	33
0.77167	33
0.77533	34
0.77900	34
0.78267	34
0.78633	37
0.79000	37
0.79367	36
0.79733	35
0.80100	33
0.80467	34
0.80833	35
0.81200	36
0.81567	37
0.81933	37
0.82300	39
0.82667	42
0.83033	42
0.83400	41
0.83767	41
0.84133	42
0.84500	41
0.84867	38
0.85233	38
0.85600	38
0.85967	40
0.86333	43
0.86700	43
0.87067	42
0.87433	42
0.87800	41
0.88167	40
0.88533	37
0.88900	38
0.89267	40
0.89633	43
0.90000	45
0.90367	45
0.90733	43
0.91100	42
0.91467	42
0.91833	41
0.92200	40
0.92567	40
0.92933	41
0.93300	42
0.93667	42
0.94033	41
0.94400	41
0.94767	38
0.95133	36
0.95500	36
0.95867	40
0.96233	44
0.96600	45
0.96967	45
0.97333	45
0.97700	45
0.98067	45
0.98433	44
0.98800	46
0.99167	48
0.99533	48
0.99900	49
1.00267	52
1.00633	53
1.01000	53
1.01367	51
1.01733	48
1.02100	48
1.02467	48
1.02833	47
1.03200	47
1.03567	46
1.03933	46
1.04300	48
1.04667	52
1.05033	52
1.05400	52
1.05767	52
1.06133	52
1.06500	52
1.06867	52
1.07233	53
1.07600	52
1.07967	50
1.08333	49
1.08700	50
1.09067	51
1.09433	51
1.09800	51
1.10167	50
1.10533	48
1.10900	48
1.11267	51
1.11633	53
1.12000	55
1.12367	56
1.12733	55
1.13100	52
1.13467	50
1.13833	50
1.14200	51
1.14567	51
1.14933	53
1.15300	52
1.15667	51
1.16033	52
1.16400	52
1.16767	52
1.17133	54
1.17500	55
1.17867	55
1.18233	55
1.18600	55
1.18967	55
1.19333	56
1.19700	56
1.20067	55
1.20433	56
1.20800	55
1.21167	55
1.21533	56
1.21900	56
1.22267	55
1.22633	54
1.23000	55
1.23367	55
1.23733	56
1.24100	56
1.24467	55
1.24833	53
1.25200	49
1.25567	45
1.25933	45
1.26300	45
1.26667	46
1.27033	48
1.27400	49
1.27767	49
1.28133	52
1.28500	56
1.28867	59
1.29233	57
1.29600	54
1.29967	52
1.30333	53
1.30700	56
1.31067	57
1.31433	58
1.31800	56
1.32167	55
1.32533	55
1.32900	54
1.33267	51
1.33633	51
1.34000	50
1.34367	52
1.34733	53
1.35100	53
1.35467	55
1.35833	60
1.36200	61
1.36567	63
1.36933	64
1.37300	61
1.37667	60
1.38033	60
1.38400	59
1.38767	59
1.39133	58
1.39500	56
1.39867	55
1.40233	55
1.40600	56
1.40967	56
1.41333	57
1.41700	56
1.42067	57
1.42433	55
1.42800	54
1.43167	53
1.43533	53
1.43900	56
1.44267	57
1.44633	60
1.45000	62
1.45367	61
1.45733	60
1.46100	63
1.46467	65
1.46833	67
1.47200	68
1.47567	68
1.47933	65
1.48300	65
1.48667	66
1.49033	65
1.49400	64
1.49767	65
1.50133	67
1.50500	68
1.50867	66
1.51233	62
1.51600	63
1.51967	64
1.52333	65
1.52700	63
1.53067	62
1.53433	60
1.53800	59
1.54167	59
1.54533	59
1.54900	59
1.55267	59
1.55633	58
1.56000	59
1.56367	61
1.56733	61
1.57100	62
1.57467	63
1.57833	65
1.58200	65
1.58567	63
1.58933	64
1.59300	66
1.59667	68
1.60033	68
1.60400	71
1.60767	75
1.61133	76
1.61500	74
1.61867	72
1.62233	73
1.62600	71
1.62967	69
1.63333	72
1.63700	75
1.64067	78
1.64433	78
1.64800	78
1.65167	78
1.65533	78
1.65900	77
1.66267	76
1.66633	76
1.67000	79
1.67367	79
1.67733	78
1.68100	80
1.68467	80
1.68833	82
1.69200	83
1.69567	84
1.69933	85
1.70300	87
1.70667	88
1.71033	88
1.71400	87
1.71767	87
1.72133	85
1.72500	86
1.72867	89
1.73233	90
1.73600	91
1.73967	90
1.74333	89
1.74700	91
1.75067	93
1.75433	96
1.75800	98
1.76167	99
1.76533	98
1.76900	98
1.77267	98
1.77633	97
1.78000	95
1.78367	96
1.78733	97
1.79100	99
1.79467	102
1.79833	105
1.80200	108
1.80567	111
1.80933	111
1.81300	112
1.81667	111
1.82033	108
1.82400	107
1.82767	106
1.83133	107
1.83500	105
1.83867	104
1.84233	104
1.84600	106
1.84967	107
1.85333	109
1.85700	110
1.86067	112
1.86433	116
1.86800	119
1.87167	120
1.87533	118
1.87900	115
1.88267	113
1.88633	110
1.89000	108
1.89367	108
1.89733	110
1.90100	113
1.90467	115
1.90833	115
1.91200	116
1.91567	116
1.91933	115
1.92300	114
1.92667	116
1.93033	119
1.93400	122
1.93767	122
1.94133	121
1.94500	121
1.94867	122
1.95233	125
1.95600	128
1.95967	129
1.96333	129
1.96700	128
1.97067	127
1.97433	128
1.97800	128
1.98167	130
1.98533	132
1.98900	134
1.99267	135
1.99633	138
2.00000	138
2.00367	137
2.00733	138
2.01100	139
2.01467	137
2.01833	136
2.02200	136
2.02567	140
2.02933	143
2.03300	145
2.03667	146
2.04033	148
2.04400	150
2.04767	151
2.05133	154
2.05500	154
2.05867	156
2.06233	158
2.06600	157
2.06967	157
2.07333	158
2.07700	161
2.08067	162
2.08433	162
2.08800	163
2.09167	163
2.09533	162
2.09900	162
2.10267	165
2.10633	168
2.11000	171
2.11367	171
2.11733	173
2.12100	176
2.12467	180
2.12833	182
2.13200	184
2.13567	183
2.13933	182
2.14300	184
2.14667	186
2.15033	186
2.15400	188
2.15767	190
2.16133	190
2.16500	188
2.16867	187
2.17233	190
2.17600	193
2.17967	197
2.18333	200
2.18700	200
2.19067	199
2.19433	202
2.19800	206
2.20167	210
2.20533	211
2.20900	212
2.21267	214
2.21633	215
2.22000	216
2.22367	214
2.22733	215
2.23100	216
2.23467	217
2.23833	216
2.24200	217
2.24567	218
2.24933	217
2.25300	216
2.25667	218
2.26033	221
2.26400	222
2.26767	220
2.27133	219
2.27500	219
2.27867	219
2.28233	220
2.28600	220
2.28967	222
2.29333	227
2.29700	230
2.30067	232
2.30433	233
2.30800	231
2.31167	232
2.31533	235
2.31900	239
2.32267	242
2.32633	244
2.33000	242
2.33367	242
2.33733	242
2.34100	243
2.34467	247
2.34833	249
2.35200	250
2.35567	251
2.35933	251
2.36300	251
2.36667	252
2.37033	252
2.37400	253
2.37767	255
2.38133	255
2.38500	255
2.38867	257
2.39233	257
2.39600	255
2.39967	253
2.40333	253
2.40700	256
2.41067	260
2.41433	263
2.41800	267
2.42167	269
2.42533	270
2.42900	269
2.43267	268
2.43633	266
2.44000	267
2.44367	273
2.44733	283
2.45100	294
2.45467	302
2.45833	301
2.46200	296
2.46567	289
2.46933	284
2.47300	277
2.47667	270
2.48033	259
2.48400	250
2.48767	243
2.49133	235
2.49500	228
2.49867	219
2.50233	208
2.50600	201
2.50967	197
2.51333	194
2.51700	188
2.52067	182
2.52433	175
2.52800	170
2.53167	168
2.53533	168
2.53900	167
2.54267	166
2.54633	164
2.55000	161
2.55367	159
2.55733	156
2.56100	152
2.56467	147
2.56833	144
2.57200	141
2.57567	141
2.57933	142
2.58300	143
2.58667	142
2.59033	139
2.59400	136
2.59767	133
2.60133	123
2.60500	105
2.60867	83
2.61233	51
2.61600	10
2.61967	-36
2.62333	-81
2.62700	-123
2.63067	-163
2.63433	-197
2.63800	-223
2.64167	-245
2.64533	-259
2.64900	-267
2.65267	-271
2.65633	-270
2.66000	-267
2.66367	-262
2.66733	-255
2.67100	-246
2.67467	-234
2.67833	-221
2.68200	-208
2.68567	-195
2.68933	-180
2.69300	-167
2.69667	-155
2.70033	-147
2.70400	-138
2.70767	-127
2.71133	-115
2.71500	-104
2.71867	-95
2.72233	-87
2.72600	-80
2.72967	-73
2.73333	-68
2.73700	-61
2.74067	-53
2.74433	-45
2.74800	-40
2.75167	-35
2.75533	-29
2.75900	-25
2.76267	-20
2.76633	-15
2.77000	-25
2.77367	-52
2.77733	-57
2.78100	-27
2.78467	32
2.78833	108
2.79200	193
2.79567	281
2.79933	368
2.80300	447
2.80667	522
2.81033	593
2.81400	658
2.81767	718
2.82133	773
2.82500	822
2.82867	873
2.83233	933
2.83600	1014
2.83967	1132
2.84333	1313
2.84700	1577
2.85067	1938
2.85433	2398
2.85800	2942
2.86167	3543
2.86533	4153
2.86900	4727
2.87267	5222
2.87633	5601
2.88000	5834
2.88367	5920
2.88733	5871
2.89100	5709
2.89467	5461
2.89833	5155
2.90200	4814
2.90567	4461
2.90933	4108
2.91300	3767
2.91667	3447
2.92033	3154
2.92400	2889
2.92767	2651
2.93133	2441
2.93500	2255
2.93867	2092
2.94233	1949
2.94600	1823
2.94967	1713
2.95333	1618
2.95700	1536
2.96067	1465
2.96433	1401
2.96800	1345
2.97167	1297
2.97533	1256
2.97900	1219
2.98267	1189
2.98633	1162
2.99000	1137
2.99367	1117
2.99733	1100
3.00100	1083
3.00467	1068
3.00833	1055
3.01200	1043
3.01567	1033
3.01933	1025
3.02300	1019
3.02667	1013
3.03033	1007
3.03400	1003
3.03767	1000
3.04133	997
3.04500	992
3.04867	989
3.05233	986
3.05600	983
3.05967	980
3.06333	977
3.06700	977
3.07067	976
3.07433	976
3.07800	973
3.08167	971
3.08533	969
3.08900	964
3.09267	960
3.09633	959
3.10000	955
3.10367	954
3.10733	952
3.11100	952
3.11467	951
3.11833	947
3.12200	946
3.12567	944
3.12933	940
3.13300	936
3.13667	935
3.14033	933
3.14400	928
3.14767	924
3.15133	919
3.15500	914
3.15867	909
3.16233	904
3.16600	900
3.16967	896
3.17333	893
3.17700	891
3.18067	886
3.18433	883
3.18800	879
3.19167	874
3.19533	870
3.19900	865
3.20267	860
3.20633	855
3.21000	848
3.21367	841
3.21733	835
3.22100	830
3.22467	827
3.22833	825
3.23200	820
3.23567	814
3.23933	809
3.24300	805
3.24667	799
3.25033	792
3.25400	788
3.25767	785
3.26133	782
3.26500	776
3.26867	770
3.27233	767
3.27600	764
3.27967	762
3.28333	759
3.28700	756
3.29067	750
3.29433	747
3.29800	744
3.30167	741
3.30533	737
3.30900	734
3.31267	730
3.31633	725
3.32000	720
3.32367	716
3.32733	713
3.33100	710
3.33467	706
3.33833	704
3.34200	701
3.34567	697
3.34933	693
3.35300	691
3.35667	688
3.36033	683
3.36400	680
3.36767	676
3.37133	671
3.37500	666
3.37867	662
3.38233	659
3.38600	656
3.38967	650
3.39333	647
3.39700	642
3.40067	637
3.40433	634
3.40800	630
3.41167	627
3.41533	627
3.41900	624
3.42267	621
3.42633	615
3.43000	611
3.43367	608
3.43733	605
3.44100	601
3.44467	598
3.44833	597
3.45200	593
3.45567	589
3.45933	583
3.46300	580
3.46667	580
3.47033	579
3.47400	575
3.47767	573
3.48133	570
3.48500	565
3.48867	559
3.49233	556
3.49600	555
3.49967	555
3.50333	554
3.50700	554
3.51067	553
3.51433	548
3.51800	544
3.52167	543
3.52533	542
3.52900	541
3.53267	539
3.53633	536
3.54000	533
3.54367	532
3.54733	532
3.55100	532
3.55467	530
3.55833	528
3.56200	527
3.56567	526
3.56933	523
3.57300	520
3.57667	517
3.58033	515
3.58400	511
3.58767	510
3.59133	508
3.59500	506
3.59867	504
3.60233	502
3.60600	500
3.60967	501
3.61333	502
3.61700	497
3.62067	490
3.62433	487
3.62800	487
3.63167	488
3.63533	489
3.63900	487
3.64267	483
3.64633	478
3.65000	474
3.65367	473
3.65733	472
3.66100	469
3.66467	464
3.66833	462
3.67200	462
3.67567	461
3.67933	459
3.68300	456
3.68667	454
3.69033	453
3.69400	453
3.69767	450
3.70133	447
3.70500	442
3.70867	437
3.71233	434
3.71600	436
3.71967	440
3.72333	440
3.72700	436
3.73067	435
3.73433	432
3.73800	430
3.74167	430
3.74533	428
3.74900	425
3.75267	423
3.75633	420
3.76000	417
3.76367	416
3.76733	415
3.77100	413
3.77467	411
3.77833	411
3.78200	410
3.78567	408
3.78933	407
3.79300	407
3.79667	407
3.80033	405
3.80400	405
3.80767	404
3.81133	401
3.81500	397
3.81867	394
3.82233	393
3.82600	393
3.82967	392
3.83333	389
3.83700	385
3.84067	384
3.84433	385
3.84800	388
3.85167	388
3.85533	386
3.85900	385
3.86267	383
3.86633	381
3.87000	380
3.87367	380
3.87733	380
3.88100	377
3.88467	373
3.88833	372
3.89200	370
3.89567	369
3.89933	367
3.90300	362
3.90667	358
3.91033	357
3.91400	356
3.91767	355
3.92133	354
3.92500	354
3.92867	352
3.93233	351
3.93600	349
3.93967	346
3.94333	343
3.94700	340
3.95067	338
3.95433	338
3.95800	337
3.96167	336
3.96533	335
3.96900	336
3.97267	336
3.97633	334
3.98000	333
3.98367	331
3.98733	328
3.99100	325
3.99467	323
3.99833	323

[Status Trace (Column Oven Temperature)]
Interval(msec)	1000
# of Points	240
Start Time(min)	0.006
End Time(min)	3.989
Intensity Units	
Intensity Multiplier	1
R.Time (min)	Intensity
0.00562	35.04
0.02228	35.03
0.03895	35.03
0.05562	35.02
0.07228	35.01
0.08895	35.00
0.10562	35.00
0.12228	35.00
0.13895	35.00
0.15562	34.98
0.17228	34.98
0.18895	34.99
0.20562	34.99
0.22228	34.99
0.23895	34.99
0.25562	34.99
0.27228	34.99
0.28895	35.00
0.30562	35.00
0.32228	35.01
0.33895	35.00
0.35562	34.99
0.37228	34.99
0.38895	34.99
0.40562	34.99
0.42228	34.98
0.43895	34.98
0.45562	34.98
0.47228	34.98
0.48895	34.99
0.50562	35.00
0.52228	35.00
0.53895	35.01
0.55562	35.02
0.57228	35.01
0.58895	35.01
0.60562	35.00
0.62228	34.98
0.63895	34.98
0.65562	34.97
0.67228	34.98
0.68895	35.00
0.70562	35.01
0.72228	35.03
0.73895	35.02
0.75562	35.01
0.77228	35.01
0.78895	35.00
0.80562	35.01
0.82228	35.00
0.83895	35.00
0.85562	35.00
0.87228	35.00
0.88895	34.99
0.90562	34.99
0.92228	34.99
0.93895	34.99
0.95562	34.99
0.97228	34.99
0.98895	34.99
1.00562	35.00
1.02228	34.98
1.03895	34.98
1.05562	35.00
1.07228	35.00
1.08895	35.00
1.10562	35.00
1.12228	35.00
1.13895	34.99
1.15562	34.97
1.17228	34.96
1.18895	34.96
1.20562	34.97
1.22228	34.97
1.23895	34.97
1.25562	34.97
1.27228	34.97
1.28895	34.97
1.30562	34.98
1.32228	34.97
1.33895	34.97
1.35562	34.98
1.37228	35.00
1.38895	35.00
1.40562	35.01
1.42228	35.01
1.43895	35.03
1.45562	35.03
1.47228	35.02
1.48895	35.02
1.50562	35.01
1.52228	35.00
1.53895	35.00
1.55562	35.00
1.57228	35.00
1.58895	35.00
1.60562	35.03
1.62228	35.13
1.63895	35.31
1.65562	35.56
1.67228	35.90
1.68895	36.29
1.70562	36.65
1.72228	36.99
1.73895	37.29
1.75562	37.61
1.77228	37.95
1.78895	38.29
1.80562	38.63
1.82228	38.96
1.83895	39.29
1.85562	39.61
1.87228	39.95
1.88895	40.28
1.90562	40.61
1.92228	40.90
1.93895	41.24
1.95562	41.56
1.97228	41.89
1.98895	42.22
2.00562	42.53
2.02228	42.85
2.03895	43.18
2.05562	43.51
2.07228	43.82
2.08895	44.16
2.10562	44.47
2.12228	44.81
2.13895	45.15
2.15562	45.45
2.17228	45.79
2.18895	46.09
2.20562	46.48
2.22228	46.81
2.23895	47.14
2.25562	47.45
2.27228	47.78
2.28895	48.11
2.30562	48.44
2.32228	48.78
2.33895	49.12
2.35562	49.41
2.37228	49.62
2.38895	49.69
2.40562	49.69
2.42228	49.69
2.43895	49.70
2.45562	49.72
2.47228	49.74
2.48895	49.75
2.50562	49.76
2.52228	49.78
2.53895	49.79
2.55562	49.81
2.57228	49.81
2.58895	49.82
2.60562	49.83
2.62228	49.83
2.63895	49.85
2.65562	49.85
2.67228	49.85
2.68895	49.87
2.70562	49.87
2.72228	49.86
2.73895	49.85
2.75562	49.85
2.77228	49.86
2.78895	49.88
2.80562	49.90
2.82228	49.91
2.83895	49.93
2.85562	49.96
2.87228	49.96
2.88895	49.97
2.90562	49.99
2.92228	49.99
2.93895	49.98
2.95562	50.00
2.97228	50.00
2.98895	50.00
3.00562	50.01
3.02228	50.02
3.03895	50.02
3.05562	50.04
3.07228	50.04
3.08895	50.05
3.10562	50.06
3.12228	50.07
3.13895	50.08
3.15562	50.09
3.17228	50.11
3.18895	50.13
3.20562	50.13
3.22228	50.12
3.23895	50.11
3.25562	50.09
3.27228	50.08
3.28895	50.07
3.30562	50.06
3.32228	50.04
3.33895	50.02
3.35562	50.02
3.37228	50.00
3.38895	50.00
3.40562	49.99
3.42228	49.99
3.43895	49.98
3.45562	49.97
3.47228	49.98
3.48895	49.98
3.50562	49.98
3.52228	49.98
3.53895	49.99
3.55562	49.99
3.57228	50.01
3.58895	50.01
3.60562	50.02
3.62228	50.02
3.63895	50.03
3.65562	50.02
3.67228	50.03
3.68895	50.03
3.70562	50.03
3.72228	50.02
3.73895	50.03
3.75562	50.03
3.77228	50.03
3.78895	50.05
3.80562	50.05
3.82228	50.04
3.83895	50.04
3.85562	50.04
3.87228	50.04
3.88895	50.04
3.90562	50.05
3.92228	50.06
3.93895	50.08
3.95562	50.09
3.97228	50.09
3.98895	50.10

[Status Trace (Injection Unit Temperature)]
Interval(msec)	1000
# of Points	240
Start Time(min)	0.006
End Time(min)	3.989
Intensity Units	
Intensity Multiplier	1
R.Time (min)	Intensity
0.00562	99.99
0.02228	99.99
0.03895	99.99
0.05562	99.99
0.07228	99.99
0.08895	99.99
0.10562	99.99
0.12228	99.99
0.13895	99.98
0.15562	99.99
0.17228	99.98
0.18895	99.99
0.20562	99.99
0.22228	99.98
0.23895	99.99
0.25562	99.98
0.27228	99.98
0.28895	99.98
0.30562	99.98
0.32228	99.98
0.33895	99.98
0.35562	99.99
0.37228	99.98
0.38895	99.98
0.40562	99.98
0.42228	99.99
0.43895	99.98
0.45562	99.98
0.47228	99.98
0.48895	99.98
0.50562	99.98
0.52228	99.98
0.53895	99.99
0.55562	99.98
0.57228	99.98
0.58895	99.98
0.60562	99.98
0.62228	99.98
0.63895	99.98
0.65562	99.98
0.67228	99.98
0.68895	99.98
0.70562	99.98
0.72228	99.98
0.73895	99.98
0.75562	99.98
0.77228	99.98
0.78895	99.98
0.80562	99.98
0.82228	99.98
0.83895	99.98
0.85562	99.98
0.87228	99.98
0.88895	99.98
0.90562	99.98
0.92228	99.98
0.93895	99.98
0.95562	99.98
0.97228	99.98
0.98895	99.98
1.00562	99.98
1.02228	99.98
1.03895	99.98
1.05562	99.98
1.07228	99.98
1.08895	99.98
1.10562	99.98
1.12228	99.98
1.13895	99.99
1.15562	99.98
1.17228	99.98
1.18895	99.98
1.20562	99.98
1.22228	99.99
1.23895	99.98
1.25562	99.99
1.27228	99.98
1.28895	99.98
1.30562	99.98
1.32228	99.99
1.33895	99.99
1.35562	99.99
1.37228	99.98
1.38895	99.99
1.40562	99.99
1.42228	99.98
1.43895	99.99
1.45562	99.99
1.47228	99.98
1.48895	99.98
1.50562	99.99
1.52228	99.99
1.53895	99.98
1.55562	99.99
1.57228	99.98
1.58895	99.98
1.60562	99.99
1.62228	99.98
1.63895	99.98
1.65562	99.99
1.67228	99.98
1.68895	99.98
1.70562	99.99
1.72228	99.98
1.73895	99.99
1.75562	99.98
1.77228	99.98
1.78895	99.99
1.80562	99.99
1.82228	99.98
1.83895	99.98
1.85562	99.98
1.87228	99.98
1.88895	99.99
1.90562	99.98
1.92228	99.99
1.93895	99.98
1.95562	99.98
1.97228	99.98
1.98895	99.98
2.00562	99.98
2.02228	99.98
2.03895	99.98
2.05562	99.98
2.07228	99.98
2.08895	99.98
2.10562	99.98
2.12228	99.97
2.13895	99.98
2.15562	99.98
2.17228	99.98
2.18895	99.97
2.20562	99.97
2.22228	99.98
2.23895	99.97
2.25562	99.97
2.27228	99.98
2.28895	99.97
2.30562	99.98
2.32228	99.98
2.33895	99.96
2.35562	99.97
2.37228	99.98
2.38895	99.98
2.40562	99.97
2.42228	99.97
2.43895	99.97
2.45562	99.97
2.47228	99.98
2.48895	99.98
2.50562	99.98
2.52228	99.98
2.53895	99.98
2.55562	99.97
2.57228	99.97
2.58895	99.98
2.60562	99.98
2.62228	99.97
2.63895	99.98
2.65562	99.98
2.67228	99.98
2.68895	99.98
2.70562	99.99
2.72228	99.98
2.73895	99.98
2.75562	99.99
2.77228	99.99
2.78895	99.99
2.80562	99.99
2.82228	99.99
2.83895	99.99
2.85562	99.98
2.87228	99.99
2.88895	100.00
2.90562	100.00
2.92228	100.00
2.93895	100.00
2.95562	99.99
2.97228	100.00
2.98895	100.00
3.00562	100.00
3.02228	100.01
3.03895	100.01
3.05562	100.00
3.07228	100.01
3.08895	100.01
3.10562	100.01
3.12228	100.01
3.13895	100.01
3.15562	100.02
3.17228	100.01
3.18895	100.01
3.20562	100.02
3.22228	100.02
3.23895	100.02
3.25562	100.02
3.27228	100.02
3.28895	100.03
3.30562	100.03
3.32228	100.03
3.33895	100.02
3.35562	100.02
3.37228	100.03
3.38895	100.03
3.40562	100.03
3.42228	100.03
3.43895	100.03
3.45562	100.04
3.47228	100.03
3.48895	100.04
3.50562	100.04
3.52228	100.04
3.53895	100.04
3.55562	100.04
3.57228	100.04
3.58895	100.04
3.60562	100.04
3.62228	100.04
3.63895	100.03
3.65562	100.04
3.67228	100.05
3.68895	100.04
3.70562	100.04
3.72228	100.04
3.73895	100.05
3.75562	100.05
3.77228	100.05
3.78895	100.05
3.80562	100.05
3.82228	100.05
3.83895	100.05
3.85562	100.05
3.87228	100.04
3.88895	100.04
3.90562	100.05
3.92228	100.05
3.93895	100.05
3.95562	100.05
3.97228	100.05
3.98895	100.05

[Status Trace (Carrier Gas Pressure)]
Interval(msec)	1000
# of Points	240
Start Time(min)	0.006
End Time(min)	3.989
Intensity Units	
Intensity Multiplier	1
R.Time (min)	Intensity
0.00562	58.00
0.02228	55.67
0.03895	56.70
0.05562	58.91
0.07228	59.70
0.08895	58.15
0.10562	57.97
0.12228	58.01
0.13895	58.01
0.15562	58.01
0.17228	58.00
0.18895	58.00
0.20562	58.00
0.22228	58.00
0.23895	58.00
0.25562	58.00
0.27228	58.00
0.28895	58.00
0.30562	58.00
0.32228	58.00
0.33895	58.00
0.35562	58.00
0.37228	58.00
0.38895	58.00
0.40562	58.00
0.42228	58.00
0.43895	58.00
0.45562	58.00
0.47228	58.00
0.48895	58.00
0.50562	58.00
0.52228	58.00
0.53895	58.00
0.55562	58.00
0.57228	58.00
0.58895	58.00
0.60562	58.00
0.62228	58.00
0.63895	58.00
0.65562	58.00
0.67228	58.00
0.68895	58.00
0.70562	58.00
0.72228	58.00
0.73895	58.00
0.75562	58.00
0.77228	58.00
0.78895	58.00
0.80562	58.00
0.82228	58.00
0.83895	58.00
0.85562	58.00
0.87228	58.00
0.88895	58.00
0.90562	58.00
0.92228	58.00
0.93895	58.00
0.95562	58.00
0.97228	58.00
0.98895	58.00
1.00562	58.00
1.02228	58.00
1.03895	58.00
1.05562	58.00
1.07228	58.00
1.08895	58.00
1.10562	58.00
1.12228	58.00
1.13895	58.00
1.15562	58.00
1.17228	58.00
1.18895	58.00
1.20562	58.00
1.22228	58.00
1.23895	58.00
1.25562	58.00
1.27228	58.00
1.28895	58.00
1.30562	58.00
1.32228	58.00
1.33895	58.00
1.35562	58.00
1.37228	58.00
1.38895	58.00
1.40562	58.00
1.42228	58.00
1.43895	58.00
1.45562	58.00
1.47228	58.00
1.48895	58.00
1.50562	58.00
1.52228	58.00
1.53895	58.00
1.55562	58.00
1.57228	58.00
1.58895	58.00
1.60562	58.00
1.62228	58.00
1.63895	58.00
1.65562	58.00
1.67228	58.01
1.68895	58.01
1.70562	58.00
1.72228	58.00
1.73895	58.00
1.75562	58.00
1.77228	58.00
1.78895	58.00
1.80562	58.00
1.82228	58.00
1.83895	58.00
1.85562	58.00
1.87228	58.00
1.88895	58.00
1.90562	58.00
1.92228	58.00
1.93895	58.00
1.95562	58.00
1.97228	58.00
1.98895	58.00
2.00562	58.00
2.02228	58.00
2.03895	58.00
2.05562	58.00
2.07228	58.00
2.08895	58.00
2.10562	58.00
2.12228	58.00
2.13895	58.00
2.15562	58.00
2.17228	58.00
2.18895	58.00
2.20562	58.00
2.22228	58.00
2.23895	58.00
2.25562	58.00
2.27228	58.00
2.28895	58.00
2.30562	58.00
2.32228	58.00
2.33895	58.00
2.35562	58.00
2.37228	58.00
2.38895	57.99
2.40562	57.99
2.42228	58.00
2.43895	58.00
2.45562	58.00
2.47228	58.00
2.48895	58.00
2.50562	57.99
2.52228	57.99
2.53895	57.99
2.55562	58.00
2.57228	58.00
2.58895	58.00
2.60562	58.00
2.62228	58.00
2.63895	58.00
2.65562	58.00
2.67228	58.00
2.68895	58.00
2.70562	58.00
2.72228	58.00
2.73895	58.00
2.75562	58.00
2.77228	58.00
2.78895	58.00
2.80562	58.00
2.82228	58.00
2.83895	58.00
2.85562	58.00
2.87228	58.00
2.88895	58.00
2.90562	58.00
2.92228	58.00
2.93895	58.00
2.95562	58.00
2.97228	58.00
2.98895	58.00
3.00562	58.00
3.02228	58.00
3.03895	58.00
3.05562	58.00
3.07228	58.00
3.08895	58.00
3.10562	58.00
3.12228	58.00
3.13895	58.00
3.15562	58.00
3.17228	58.00
3.18895	58.00
3.20562	58.00
3.22228	58.00
3.23895	58.00
3.25562	58.00
3.27228	58.00
3.28895	58.00
3.30562	58.00
3.32228	58.00
3.33895	58.00
3.35562	58.00
3.37228	58.00
3.38895	58.00
3.40562	58.00
3.42228	58.00
3.43895	58.00
3.45562	58.00
3.47228	58.00
3.48895	58.00
3.50562	58.00
3.52228	58.00
3.53895	58.00
3.55562	58.00
3.57228	58.00
3.58895	58.00
3.60562	58.00
3.62228	58.00
3.63895	58.00
3.65562	58.00
3.67228	58.00
3.68895	58.00
3.70562	58.00
3.72228	58.00
3.73895	58.00
3.75562	58.00
3.77228	58.00
3.78895	58.00
3.80562	58.00
3.82228	58.00
3.83895	58.00
3.85562	58.00
3.87228	58.00
3.88895	58.00
3.90562	58.00
3.92228	58.00
3.93895	58.00
3.95562	58.00
3.97228	58.00
3.98895	58.00

[Status Trace (Carrier Gas Flow)]
Interval(msec)	1000
# of Points	240
Start Time(min)	0.006
End Time(min)	3.989
Intensity Units	
Intensity Multiplier	1
R.Time (min)	Intensity
0.00562	34.52
0.02228	34.54
0.03895	34.54
0.05562	34.55
0.07228	34.49
0.08895	34.51
0.10562	34.52
0.12228	34.51
0.13895	34.54
0.15562	34.52
0.17228	34.51
0.18895	34.52
0.20562	34.52
0.22228	34.53
0.23895	34.52
0.25562	34.51
0.27228	34.52
0.28895	34.53
0.30562	34.52
0.32228	34.51
0.33895	34.53
0.35562	34.52
0.37228	34.52
0.38895	34.52
0.40562	34.51
0.42228	34.52
0.43895	34.52
0.45562	34.52
0.47228	34.52
0.48895	34.52
0.50562	34.53
0.52228	34.52
0.53895	34.52
0.55562	34.52
0.57228	34.52
0.58895	34.53
0.60562	34.52
0.62228	34.52
0.63895	34.52
0.65562	34.52
0.67228	34.52
0.68895	34.52
0.70562	34.52
0.72228	34.52
0.73895	34.52
0.75562	34.52
0.77228	34.52
0.78895	34.52
0.80562	34.52
0.82228	34.52
0.83895	34.52
0.85562	34.52
0.87228	34.52
0.88895	34.52
0.90562	34.52
0.92228	34.52
0.93895	34.52
0.95562	34.52
0.97228	34.52
0.98895	34.52
1.00562	34.52
1.02228	34.52
1.03895	34.52
1.05562	34.52
1.07228	34.52
1.08895	34.52
1.10562	34.52
1.12228	34.52
1.13895	34.52
1.15562	34.52
1.17228	34.52
1.18895	34.52
1.20562	34.52
1.22228	34.52
1.23895	34.52
1.25562	34.52
1.27228	34.52
1.28895	34.52
1.30562	34.52
1.32228	34.52
1.33895	34.52
1.35562	34.52
1.37228	34.52
1.38895	34.52
1.40562	34.52
1.42228	34.52
1.43895	34.52
1.45562	34.52
1.47228	34.52
1.48895	34.52
1.50562	34.52
1.52228	34.52
1.53895	34.52
1.55562	34.52
1.57228	34.52
1.58895	34.52
1.60562	34.52
1.62228	34.52
1.63895	34.52
1.65562	34.52
1.67228	34.52
1.68895	34.52
1.70562	34.52
1.72228	34.52
1.73895	34.52
1.75562	34.52
1.77228	34.52
1.78895	34.52
1.80562	34.52
1.82228	34.52
1.83895	34.52
1.85562	34.52
1.87228	34.52
1.88895	34.52
1.90562	34.52
1.92228	34.52
1.93895	34.52
1.95562	34.52
1.97228	34.52
1.98895	34.52
2.00562	34.52
2.02228	34.52
2.03895	34.52
2.05562	34.52
2.07228	34.52
2.08895	34.52
2.10562	34.52
2.12228	34.52
2.13895	34.52
2.15562	34.52
2.17228	34.52
2.18895	34.53
2.20562	34.52
2.22228	34.52
2.23895	34.52
2.25562	34.52
2.27228	34.52
2.28895	34.52
2.30562	34.52
2.32228	34.52
2.33895	34.52
2.35562	34.51
2.37228	34.52
2.38895	34.53
2.40562	34.52
2.42228	34.52
2.43895	34.52
2.45562	34.52
2.47228	34.52
2.48895	34.52
2.50562	34.50
2.52228	34.52
2.53895	34.52
2.55562	34.52
2.57228	34.52
2.58895	34.52
2.60562	34.52
2.62228	34.52
2.63895	34.52
2.65562	34.52
2.67228	34.52
2.68895	34.52
2.70562	34.52
2.72228	34.52
2.73895	34.52
2.75562	34.52
2.77228	34.52
2.78895	34.52
2.80562	34.52
2.82228	34.52
2.83895	34.52
2.85562	34.52
2.87228	34.52
2.88895	34.52
2.90562	34.52
2.92228	34.52
2.93895	34.52
2.95562	34.52
2.97228	34.52
2.98895	34.52
3.00562	34.53
3.02228	34.51
3.03895	34.52
3.05562	34.52
3.07228	34.52
3.08895	34.52
3.10562	34.52
3.12228	34.52
3.13895	34.52
3.15562	34.51
3.17228	34.52
3.18895	34.52
3.20562	34.52
3.22228	34.52
3.23895	34.52
3.25562	34.52
3.27228	34.52
3.28895	34.52
3.30562	34.52
3.32228	34.51
3.33895	34.51
3.35562	34.52
3.37228	34.52
3.38895	34.52
3.40562	34.52
3.42228	34.52
3.43895	34.51
3.45562	34.54
3.47228	34.51
3.48895	34.52
3.50562	34.52
3.52228	34.52
3.53895	34.52
3.55562	34.52
3.57228	34.53
3.58895	34.52
3.60562	34.52
3.62228	34.53
3.63895	34.52
3.65562	34.51
3.67228	34.52
3.68895	34.52
3.70562	34.52
3.72228	34.52
3.73895	34.52
3.75562	34.52
3.77228	34.52
3.78895	34.52
3.80562	34.53
3.82228	34.52
3.83895	34.52
3.85562	34.52
3.87228	34.52
3.88895	34.52
3.90562	34.52
3.92228	34.52
3.93895	34.52
3.95562	34.52
3.97228	34.52
3.98895	34.52

[Status Trace (Column Flow)]
Interval(msec)	1000
# of Points	240
Start Time(min)	0.006
End Time(min)	3.989
Intensity Units	
Intensity Multiplier	1
R.Time (min)	Intensity
0.00562	5.53
0.02228	5.26
0.03895	5.38
0.05562	5.63
0.07228	5.73
0.08895	5.55
0.10562	5.53
0.12228	5.53
0.13895	5.53
0.15562	5.53
0.17228	5.53
0.18895	5.53
0.20562	5.53
0.22228	5.53
0.23895	5.53
0.25562	5.53
0.27228	5.53
0.28895	5.53
0.30562	5.53
0.32228	5.53
0.33895	5.53
0.35562	5.53
0.37228	5.53
0.38895	5.53
0.40562	5.53
0.42228	5.53
0.43895	5.53
0.45562	5.53
0.47228	5.53
0.48895	5.53
0.50562	5.53
0.52228	5.53
0.53895	5.53
0.55562	5.53
0.57228	5.53
0.58895	5.53
0.60562	5.53
0.62228	5.53
0.63895	5.53
0.65562	5.53
0.67228	5.53
0.68895	5.53
0.70562	5.53
0.72228	5.53
0.73895	5.53
0.75562	5.53
0.77228	5.53
0.78895	5.53
0.80562	5.53
0.82228	5.53
0.83895	5.53
0.85562	5.53
0.87228	5.53
0.88895	5.53
0.90562	5.53
0.92228	5.53
0.93895	5.53
0.95562	5.53
0.97228	5.53
0.98895	5.53
1.00562	5.53
1.02228	5.53
1.03895	5.53
1.05562	5.53
1.07228	5.53
1.08895	5.53
1.10562	5.53
1.12228	5.53
1.13895	5.53
1.15562	5.53
1.17228	5.53
1.18895	5.53
1.20562	5.53
1.22228	5.53
1.23895	5.53
1.25562	5.53
1.27228	5.53
1.28895	5.53
1.30562	5.53
1.32228	5.53
1.33895	5.53
1.35562	5.53
1.37228	5.53
1.38895	5.53
1.40562	5.53
1.42228	5.53
1.43895	5.53
1.45562	5.53
1.47228	5.53
1.48895	5.53
1.50562	5.53
1.52228	5.53
1.53895	5.53
1.55562	5.53
1.57228	5.53
1.58895	5.53
1.60562	5.53
1.62228	5.52
1.63895	5.52
1.65562	5.51
1.67228	5.50
1.68895	5.49
1.70562	5.48
1.72228	5.47
1.73895	5.46
1.75562	5.45
1.77228	5.44
1.78895	5.43
1.80562	5.41
1.82228	5.40
1.83895	5.40
1.85562	5.38
1.87228	5.37
1.88895	5.37
1.90562	5.35
1.92228	5.35
1.93895	5.34
1.95562	5.33
1.97228	5.32
1.98895	5.31
2.00562	5.30
2.02228	5.29
2.03895	5.28
2.05562	5.27
2.07228	5.26
2.08895	5.25
2.10562	5.24
2.12228	5.23
2.13895	5.22
2.15562	5.21
2.17228	5.20
2.18895	5.20
2.20562	5.18
2.22228	5.17
2.23895	5.17
2.25562	5.16
2.27228	5.15
2.28895	5.14
2.30562	5.13
2.32228	5.12
2.33895	5.11
2.35562	5.10
2.37228	5.09
2.38895	5.09
2.40562	5.09
2.42228	5.09
2.43895	5.09
2.45562	5.09
2.47228	5.09
2.48895	5.09
2.50562	5.09
2.52228	5.09
2.53895	5.09
2.55562	5.09
2.57228	5.09
2.58895	5.09
2.60562	5.09
2.62228	5.09
2.63895	5.09
2.65562	5.09
2.67228	5.09
2.68895	5.09
2.70562	5.09
2.72228	5.09
2.73895	5.09
2.75562	5.09
2.77228	5.09
2.78895	5.09
2.80562	5.09
2.82228	5.09
2.83895	5.09
2.85562	5.09
2.87228	5.09
2.88895	5.09
2.90562	5.09
2.92228	5.08
2.93895	5.08
2.95562	5.08
2.97228	5.08
2.98895	5.08
3.00562	5.08
3.02228	5.08
3.03895	5.08
3.05562	5.08
3.07228	5.08
3.08895	5.08
3.10562	5.08
3.12228	5.08
3.13895	5.08
3.15562	5.08
3.17228	5.08
3.18895	5.08
3.20562	5.08
3.22228	5.08
3.23895	5.08
3.25562	5.08
3.27228	5.08
3.28895	5.08
3.30562	5.08
3.32228	5.08
3.33895	5.08
3.35562	5.08
3.37228	5.08
3.38895	5.08
3.40562	5.08
3.42228	5.08
3.43895	5.09
3.45562	5.08
3.47228	5.09
3.48895	5.09
3.50562	5.08
3.52228	5.08
3.53895	5.08
3.55562	5.08
3.57228	5.08
3.58895	5.08
3.60562	5.08
3.62228	5.08
3.63895	5.08
3.65562	5.08
3.67228	5.08
3.68895	5.08
3.70562	5.08
3.72228	5.08
3.73895	5.08
3.75562	5.08
3.77228	5.08
3.78895	5.08
3.80562	5.08
3.82228	5.08
3.83895	5.08
3.85562	5.08
3.87228	5.08
3.88895	5.08
3.90562	5.08
3.92228	5.08
3.93895	5.08
3.95562	5.08
3.97228	5.08
3.98895	5.08

[Status Trace (Linear Velocity)]
Interval(msec)	1000
# of Points	240
Start Time(min)	0.006
End Time(min)	3.989
Intensity Units	
Intensity Multiplier	1
R.Time (min)	Intensity
0.00562	39.01
0.02228	37.49
0.03895	38.16
0.05562	39.61
0.07228	40.13
0.08895	39.11
0.10562	39.00
0.12228	39.02
0.13895	39.03
0.15562	39.02
0.17228	39.02
0.18895	39.02
0.20562	39.02
0.22228	39.02
0.23895	39.02
0.25562	39.02
0.27228	39.02
0.28895	39.02
0.30562	39.02
0.32228	39.02
0.33895	39.02
0.35562	39.02
0.37228	39.02
0.38895	39.02
0.40562	39.02
0.42228	39.02
0.43895	39.02
0.45562	39.02
0.47228	39.02
0.48895	39.02
0.50562	39.02
0.52228	39.02
0.53895	39.02
0.55562	39.02
0.57228	39.02
0.58895	39.02
0.60562	39.02
0.62228	39.02
0.63895	39.02
0.65562	39.02
0.67228	39.02
0.68895	39.02
0.70562	39.02
0.72228	39.02
0.73895	39.02
0.75562	39.02
0.77228	39.02
0.78895	39.02
0.80562	39.02
0.82228	39.02
0.83895	39.02
0.85562	39.02
0.87228	39.02
0.88895	39.02
0.90562	39.02
0.92228	39.02
0.93895	39.02
0.95562	39.02
0.97228	39.02
0.98895	39.02
1.00562	39.02
1.02228	39.02
1.03895	39.02
1.05562	39.02
1.07228	39.02
1.08895	39.02
1.10562	39.02
1.12228	39.02
1.13895	39.02
1.15562	39.02
1.17228	39.02
1.18895	39.02
1.20562	39.02
1.22228	39.02
1.23895	39.02
1.25562	39.02
1.27228	39.02
1.28895	39.02
1.30562	39.02
1.32228	39.02
1.33895	39.02
1.35562	39.02
1.37228	39.02
1.38895	39.02
1.40562	39.02
1.42228	39.02
1.43895	39.02
1.45562	39.02
1.47228	39.02
1.48895	39.02
1.50562	39.02
1.52228	39.02
1.53895	39.02
1.55562	39.02
1.57228	39.02
1.58895	39.02
1.60562	39.02
1.62228	39.01
1.63895	38.99
1.65562	38.97
1.67228	38.94
1.68895	38.90
1.70562	38.86
1.72228	38.83
1.73895	38.80
1.75562	38.77
1.77228	38.74
1.78895	38.71
1.80562	38.67
1.82228	38.64
1.83895	38.61
1.85562	38.58
1.87228	38.55
1.88895	38.52
1.90562	38.49
1.92228	38.46
1.93895	38.43
1.95562	38.40
1.97228	38.37
1.98895	38.34
2.00562	38.31
2.02228	38.28
2.03895	38.25
2.05562	38.22
2.07228	38.19
2.08895	38.16
2.10562	38.13
2.12228	38.10
2.13895	38.07
2.15562	38.04
2.17228	38.01
2.18895	37.99
2.20562	37.95
2.22228	37.92
2.23895	37.89
2.25562	37.86
2.27228	37.83
2.28895	37.81
2.30562	37.77
2.32228	37.74
2.33895	37.71
2.35562	37.69
2.37228	37.67
2.38895	37.66
2.40562	37.66
2.42228	37.66
2.43895	37.66
2.45562	37.66
2.47228	37.66
2.48895	37.66
2.50562	37.65
2.52228	37.64
2.53895	37.65
2.55562	37.65
2.57228	37.65
2.58895	37.65
2.60562	37.65
2.62228	37.65
2.63895	37.65
2.65562	37.65
2.67228	37.65
2.68895	37.65
2.70562	37.65
2.72228	37.65
2.73895	37.65
2.75562	37.65
2.77228	37.65
2.78895	37.65
2.80562	37.64
2.82228	37.64
2.83895	37.64
2.85562	37.64
2.87228	37.64
2.88895	37.64
2.90562	37.64
2.92228	37.64
2.93895	37.64
2.95562	37.63
2.97228	37.63
2.98895	37.63
3.00562	37.63
3.02228	37.63
3.03895	37.63
3.05562	37.63
3.07228	37.63
3.08895	37.63
3.10562	37.63
3.12228	37.63
3.13895	37.63
3.15562	37.63
3.17228	37.62
3.18895	37.62
3.20562	37.62
3.22228	37.62
3.23895	37.62
3.25562	37.63
3.27228	37.63
3.28895	37.63
3.30562	37.63
3.32228	37.63
3.33895	37.63
3.35562	37.63
3.37228	37.63
3.38895	37.63
3.40562	37.63
3.42228	37.64
3.43895	37.64
3.45562	37.64
3.47228	37.64
3.48895	37.64
3.50562	37.64
3.52228	37.64
3.53895	37.64
3.55562	37.63
3.57228	37.63
3.58895	37.63
3.60562	37.63
3.62228	37.63
3.63895	37.63
3.65562	37.63
3.67228	37.63
3.68895	37.63
3.70562	37.63
3.72228	37.63
3.73895	37.63
3.75562	37.63
3.77228	37.63
3.78895	37.63
3.80562	37.63
3.82228	37.63
3.83895	37.63
3.85562	37.63
3.87228	37.63
3.88895	37.63
3.90562	37.63
3.92228	37.63
3.93895	37.63
3.95562	37.63
3.97228	37.63
3.98895	37.63

