[Header]
Application Name	LabSolutions
Version	5.110
Data File Name	C:\Users\User\Desktop\GC Analyses\Jack\UIC Prairie Sampling\8.12.22\220812_021.gcd
Output Date	10/14/2022
Output Time	2:33:51 PM

[File Information]
Type	Data File
Generated	10/6/2022 3:06:09 PM
Generated by	System Administrator
Modified	10/6/2022 3:10:34 PM
Modified by	System Administrator

[Sample Information]
Operator Name	System Administrator
Acquired	10/6/2022 3:06:33 PM
Sample Type	1:Standard
Level	1
Sample Name	220812_UICPrairie
Sample ID	220812_UICPrairie
ISTD Amount1	1
ISTD Amount2	1
ISTD Amount3	1
ISTD Amount4	1
ISTD Amount5	1
ISTD Amount6	1
ISTD Amount7	1
ISTD Amount8	1
ISTD Amount9	1
ISTD Amount10	1
ISTD Amount11	1
ISTD Amount12	1
ISTD Amount13	1
ISTD Amount14	1
ISTD Amount15	1
ISTD Amount16	1
ISTD Amount17	1
ISTD Amount18	1
ISTD Amount19	1
ISTD Amount20	1
ISTD Amount21	1
ISTD Amount22	1
ISTD Amount23	1
ISTD Amount24	1
ISTD Amount25	1
ISTD Amount26	1
ISTD Amount27	1
ISTD Amount28	1
ISTD Amount29	1
ISTD Amount30	1
ISTD Amount31	1
ISTD Amount32	1
Sample Amount	1
Dilution Factor	1
Vial#	1
Injection Volume	1
Injection Count	1
Bar Code	

[Original Files]
Data File	C:\Users\User\Desktop\GC Analyses\Jack\UIC Prairie Sampling\8.12.22\220812_021.gcd
Method File	C:\LabSolutions\Data\GHG_4min_2022\ghg3_togas_w_acet_4 min_new_int.gcm
Batch File	
Report Format File	c:\LabSolutions\System\DEFAULT.lsr

[File Description]


[Configuration]
Instrument Name	C0B7VH3-Instrument1
Instrument #	1
Line #	1
# of Detectors	3
Detector ID	DET#1	DET#2	DET#3
Detector Name	FID	PTCD	ECD
# of Channels	1	1	1

[Peak Table(Ch1)]
# of Peaks	3
Peak#	R.Time	I.Time	F.Time	Area	Height	A/H	Conc.	Mark	ID#	Name	k'	Plate #	Plate Ht.	Tailing	Resolution	Sep.Factor	Area Ratio	Height Ratio	Conc. %	Norm Conc.
1	1.476	1.435	1.538	12611	5606	2.249	100.000	   	1	CO	0.000	8336	17.994	1.227	0.000	0.000	0	0	16.667	16.667
2	1.571	1.538	1.622	4499	2291	1.964	100.000	 V 	2	CH4	0.065	11532	13.007	1.101	1.548	0.000	0	0	16.667	16.667
3	1.996	1.949	2.363	2511514	1223745	2.052	400.000	   	3	CO2	0.353	17782	8.436	1.315	7.185	5.462	0	0	66.667	66.667

[Peak Table(Ch2)]
# of Peaks	0

[Peak Table(Ch3)]
# of Peaks	2
Peak#	R.Time	I.Time	F.Time	Area	Height	A/H	Conc.	Mark	ID#	Name	k'	Plate #	Plate Ht.	Tailing	Resolution	Sep.Factor	Area Ratio	Height Ratio	Conc. %	Norm Conc.
1	2.583	2.205	2.656	4340	480	9.037	0.000	   			0.000	2841	52.793	0.000	0.000	0.000	0	0	0.000	0.000
2	2.880	2.656	3.874	30953	5548	5.579	1.000	 V 	1	N2O	0.115	12137	12.359	1.273	1.991	0.000	0	0	100.000	100.000

[Compound Results(Ch1)]
# of IDs	6
ID#	Name	R.Time	Area	Height	Conc.	Curve	3rd	2nd	1st	Constant	Area Ratio	Height Ratio	Conc. %	Norm Conc.
1	CO	1.476	12611	5606	100.000	Linear	0.000000e+00	0.000000e+00	1.261085e+002	0.000000e+00	0	0	16.667	16.667
2	CH4	1.571	4499	2291	100.000	Linear	0.000000e+00	0.000000e+00	4.499277e+001	0.000000e+00	0	0	16.667	16.667
3	CO2	1.996	2511514	1223745	400.000	Linear	0.000000e+00	0.000000e+00	6.278786e+003	0.000000e+00	0	0	66.667	66.667
4	Ethylene	0.000	0	0	0.000	Linear	0.000000e+00	0.000000e+00	0.000000e+00	0.000000e+00	0	0	0.000	0.000
5	Acetylene	0.000	0	0	0.000	Linear	0.000000e+00	0.000000e+00	0.000000e+00	0.000000e+00	0	0	0.000	0.000
6	Ethane	0.000	0	0	0.000	Linear	0.000000e+00	0.000000e+00	0.000000e+00	0.000000e+00	0	0	0.000	0.000

[Compound Results(Ch2)]
# of IDs	5
ID#	Name	R.Time	Area	Height	Conc.	Curve	3rd	2nd	1st	Constant	Area Ratio	Height Ratio	Conc. %	Norm Conc.
1	Hydrogen	0.000	0	0	0.000	Linear	0.000000e+00	0.000000e+00	0.000000e+00	0.000000e+00	0	0	0.000	0.000
2	Oxygen	0.000	0	0	0.000	Linear	0.000000e+00	0.000000e+00	0.000000e+00	0.000000e+00	0	0	0.000	0.000
3	Nitrogen	0.000	0	0	0.000	Linear	0.000000e+00	0.000000e+00	0.000000e+00	0.000000e+00	0	0	0.000	0.000
4	Methane	0.000	0	0	0.000	Linear	0.000000e+00	0.000000e+00	0.000000e+00	0.000000e+00	0	0	0.000	0.000
5	Carbon Monoxide	0.000	0	0	0.000	Linear	0.000000e+00	0.000000e+00	0.000000e+00	0.000000e+00	0	0	0.000	0.000

[Compound Results(Ch3)]
# of IDs	2
ID#	Name	R.Time	Area	Height	Conc.	Curve	3rd	2nd	1st	Constant	Area Ratio	Height Ratio	Conc. %	Norm Conc.
1	N2O	2.880	30953	5548	1.000	Linear	0.000000e+00	0.000000e+00	3.095304e+004	0.000000e+00	0	0	100.000	100.000
2	SF6	0.000	0	0	0.000	Linear	0.000000e+00	0.000000e+00	0.000000e+00	0.000000e+00	0	0	0.000	0.000

[Group Results(Ch1)]
# of Groups	0

[Group Results(Ch2)]
# of Groups	0

[Group Results(Ch3)]
# of Groups	0

[Chromatogram (Ch1)]
Interval(msec)	220
# of Points	1091
Start Time(min)	0.002
End Time(min)	3.998
R.Time (min)	Intensity
0.00167	24
0.00533	27
0.00900	27
0.01267	22
0.01633	14
0.02000	6
0.02367	5
0.02733	10
0.03100	15
0.03467	15
0.03833	8
0.04200	1
0.04567	-3
0.04933	-5
0.05300	-4
0.05667	-3
0.06033	2
0.06400	8
0.06767	10
0.07133	7
0.07500	4
0.07867	5
0.08233	9
0.08600	13
0.08967	12
0.09333	9
0.09700	7
0.10067	4
0.10433	2
0.10800	1
0.11167	1
0.11533	3
0.11900	7
0.12267	14
0.12633	20
0.13000	20
0.13367	17
0.13733	13
0.14100	11
0.14467	9
0.14833	7
0.15200	0
0.15567	-7
0.15933	-12
0.16300	-12
0.16667	-9
0.17033	-4
0.17400	3
0.17767	11
0.18133	16
0.18500	15
0.18867	12
0.19233	7
0.19600	1
0.19967	-4
0.20333	-6
0.20700	-2
0.21067	6
0.21433	13
0.21800	16
0.22167	14
0.22533	7
0.22900	1
0.23267	-1
0.23633	-3
0.24000	-6
0.24367	-6
0.24733	-6
0.25100	-3
0.25467	1
0.25833	5
0.26200	3
0.26567	-1
0.26933	-1
0.27300	3
0.27667	10
0.28033	18
0.28400	21
0.28767	18
0.29133	12
0.29500	6
0.29867	2
0.30233	0
0.30600	5
0.30967	9
0.31333	7
0.31700	0
0.32067	-8
0.32433	-11
0.32800	-10
0.33167	-11
0.33533	-12
0.33900	-12
0.34267	-12
0.34633	-10
0.35000	-8
0.35367	-7
0.35733	-7
0.36100	-6
0.36467	-2
0.36833	-1
0.37200	3
0.37567	6
0.37933	2
0.38300	-7
0.38667	-16
0.39033	-22
0.39400	-23
0.39767	-21
0.40133	-17
0.40500	-10
0.40867	-8
0.41233	-8
0.41600	-3
0.41967	3
0.42333	4
0.42700	1
0.43067	-1
0.43433	-1
0.43800	-3
0.44167	-6
0.44533	-10
0.44900	-15
0.45267	-18
0.45633	-21
0.46000	-23
0.46367	-25
0.46733	-27
0.47100	-26
0.47467	-23
0.47833	-18
0.48200	-12
0.48567	-8
0.48933	-6
0.49300	-5
0.49667	-7
0.50033	-10
0.50400	-11
0.50767	-9
0.51133	-11
0.51500	-17
0.51867	-23
0.52233	-26
0.52600	-27
0.52967	-33
0.53333	-37
0.53700	-40
0.54067	-40
0.54433	-37
0.54800	-32
0.55167	-23
0.55533	-18
0.55900	-14
0.56267	-10
0.56633	-11
0.57000	-10
0.57367	-8
0.57733	-4
0.58100	1
0.58467	4
0.58833	3
0.59200	-1
0.59567	-5
0.59933	-7
0.60300	-8
0.60667	-8
0.61033	-7
0.61400	-10
0.61767	-17
0.62133	-23
0.62500	-25
0.62867	-25
0.63233	-24
0.63600	-23
0.63967	-22
0.64333	-22
0.64700	-22
0.65067	-23
0.65433	-23
0.65800	-19
0.66167	-14
0.66533	-8
0.66900	-7
0.67267	-9
0.67633	-10
0.68000	-10
0.68367	-8
0.68733	-8
0.69100	-10
0.69467	-14
0.69833	-19
0.70200	-24
0.70567	-29
0.70933	-32
0.71300	-31
0.71667	-26
0.72033	-20
0.72400	-15
0.72767	-13
0.73133	-16
0.73500	-22
0.73867	-24
0.74233	-23
0.74600	-23
0.74967	-25
0.75333	-29
0.75700	-33
0.76067	-34
0.76433	-35
0.76800	-39
0.77167	-41
0.77533	-41
0.77900	-39
0.78267	-37
0.78633	-33
0.79000	-26
0.79367	-22
0.79733	-23
0.80100	-26
0.80467	-29
0.80833	-27
0.81200	-25
0.81567	-24
0.81933	-25
0.82300	-25
0.82667	-24
0.83033	-23
0.83400	-23
0.83767	-27
0.84133	-35
0.84500	-46
0.84867	-56
0.85233	-64
0.85600	-65
0.85967	-60
0.86333	-52
0.86700	-43
0.87067	-41
0.87433	-41
0.87800	-42
0.88167	-43
0.88533	-45
0.88900	-47
0.89267	-49
0.89633	-50
0.90000	-49
0.90367	-47
0.90733	-41
0.91100	-34
0.91467	-27
0.91833	-24
0.92200	-27
0.92567	-34
0.92933	-40
0.93300	-43
0.93667	-46
0.94033	-46
0.94400	-49
0.94767	-53
0.95133	-54
0.95500	-51
0.95867	-50
0.96233	-54
0.96600	-57
0.96967	-60
0.97333	-59
0.97700	-51
0.98067	-40
0.98433	-30
0.98800	-24
0.99167	-23
0.99533	-23
0.99900	-22
1.00267	-22
1.00633	-23
1.01000	-23
1.01367	-22
1.01733	-24
1.02100	-30
1.02467	-36
1.02833	-41
1.03200	-46
1.03567	-52
1.03933	-57
1.04300	-58
1.04667	-56
1.05033	-53
1.05400	-51
1.05767	-50
1.06133	-52
1.06500	-54
1.06867	-53
1.07233	-51
1.07600	-50
1.07967	-49
1.08333	-47
1.08700	-43
1.09067	-35
1.09433	-25
1.09800	-19
1.10167	-18
1.10533	-21
1.10900	-27
1.11267	-36
1.11633	-44
1.12000	-50
1.12367	-53
1.12733	-56
1.13100	-60
1.13467	-60
1.13833	-61
1.14200	-64
1.14567	-69
1.14933	-72
1.15300	-72
1.15667	-70
1.16033	-66
1.16400	-58
1.16767	-49
1.17133	-45
1.17500	-43
1.17867	-40
1.18233	-41
1.18600	-43
1.18967	-46
1.19333	-47
1.19700	-50
1.20067	-56
1.20433	-58
1.20800	-58
1.21167	-59
1.21533	-57
1.21900	-56
1.22267	-58
1.22633	-63
1.23000	-66
1.23367	-66
1.23733	-67
1.24100	-66
1.24467	-66
1.24833	-67
1.25200	-69
1.25567	-69
1.25933	-67
1.26300	-62
1.26667	-59
1.27033	-58
1.27400	-56
1.27767	-54
1.28133	-54
1.28500	-56
1.28867	-60
1.29233	-63
1.29600	-62
1.29967	-58
1.30333	-53
1.30700	-51
1.31067	-41
1.31433	-32
1.31800	-37
1.32167	-50
1.32533	-60
1.32900	-67
1.33267	-73
1.33633	-79
1.34000	-77
1.34367	-72
1.34733	-69
1.35100	-70
1.35467	-75
1.35833	-78
1.36200	-77
1.36567	-74
1.36933	-68
1.37300	-62
1.37667	-60
1.38033	-62
1.38400	-64
1.38767	-65
1.39133	-67
1.39500	-68
1.39867	-71
1.40233	-72
1.40600	-72
1.40967	-71
1.41333	-72
1.41700	-72
1.42067	-70
1.42433	-67
1.42800	-64
1.43167	-63
1.43533	-64
1.43900	-51
1.44267	31
1.44633	274
1.45000	715
1.45367	1383
1.45733	2283
1.46100	3284
1.46467	4201
1.46833	4910
1.47200	5366
1.47567	5542
1.47933	5418
1.48300	4991
1.48667	4323
1.49033	3529
1.49400	2739
1.49767	2041
1.50133	1472
1.50500	1035
1.50867	713
1.51233	481
1.51600	321
1.51967	213
1.52333	143
1.52700	94
1.53067	56
1.53433	29
1.53800	16
1.54167	47
1.54533	175
1.54900	450
1.55267	849
1.55633	1288
1.56000	1685
1.56367	1994
1.56733	2185
1.57100	2225
1.57467	2092
1.57833	1807
1.58200	1437
1.58567	1061
1.58933	733
1.59300	476
1.59667	289
1.60033	161
1.60400	79
1.60767	25
1.61133	-13
1.61500	-41
1.61867	-59
1.62233	-67
1.62600	-72
1.62967	-72
1.63333	-72
1.63700	-77
1.64067	-83
1.64433	-86
1.64800	-88
1.65167	-90
1.65533	-91
1.65900	-91
1.66267	-90
1.66633	-90
1.67000	-91
1.67367	-91
1.67733	-87
1.68100	-84
1.68467	-82
1.68833	-80
1.69200	-80
1.69567	-78
1.69933	-77
1.70300	-77
1.70667	-80
1.71033	-84
1.71400	-88
1.71767	-92
1.72133	-93
1.72500	-92
1.72867	-87
1.73233	-82
1.73600	-80
1.73967	-83
1.74333	-90
1.74700	-96
1.75067	-101
1.75433	-100
1.75800	-97
1.76167	-95
1.76533	-94
1.76900	-91
1.77267	-91
1.77633	-94
1.78000	-100
1.78367	-103
1.78733	-103
1.79100	-101
1.79467	-97
1.79833	-95
1.80200	-91
1.80567	-86
1.80933	-84
1.81300	-85
1.81667	-86
1.82033	-87
1.82400	-88
1.82767	-89
1.83133	-90
1.83500	-92
1.83867	-94
1.84233	-94
1.84600	-93
1.84967	-91
1.85333	-87
1.85700	-82
1.86067	-76
1.86433	-73
1.86800	-75
1.87167	-76
1.87533	-77
1.87900	-80
1.88267	-84
1.88633	-86
1.89000	-86
1.89367	-87
1.89733	-91
1.90100	-95
1.90467	-95
1.90833	-90
1.91200	-85
1.91567	-85
1.91933	-86
1.92300	-84
1.92667	-81
1.93033	-80
1.93400	-80
1.93767	-80
1.94133	-79
1.94500	-80
1.94867	-77
1.95233	-57
1.95600	63
1.95967	791
1.96333	4435
1.96700	18357
1.97067	59034
1.97433	150322
1.97800	308794
1.98167	525718
1.98533	765606
1.98900	983603
1.99267	1143758
1.99633	1223695
2.00000	1214884
2.00367	1124132
2.00733	972921
2.01100	791398
2.01467	609379
2.01833	448371
2.02200	318547
2.02567	220794
2.02933	150729
2.03300	102206
2.03667	69357
2.04033	47421
2.04400	32867
2.04767	23212
2.05133	16771
2.05500	12427
2.05867	9455
2.06233	7383
2.06600	5911
2.06967	4843
2.07333	4054
2.07700	3459
2.08067	2998
2.08433	2627
2.08800	2324
2.09167	2075
2.09533	1867
2.09900	1692
2.10267	1543
2.10633	1419
2.11000	1314
2.11367	1224
2.11733	1147
2.12100	1074
2.12467	1006
2.12833	943
2.13200	883
2.13567	828
2.13933	779
2.14300	738
2.14667	703
2.15033	672
2.15400	643
2.15767	614
2.16133	590
2.16500	570
2.16867	554
2.17233	539
2.17600	522
2.17967	501
2.18333	475
2.18700	448
2.19067	428
2.19433	415
2.19800	409
2.20167	407
2.20533	400
2.20900	389
2.21267	373
2.21633	353
2.22000	337
2.22367	327
2.22733	322
2.23100	316
2.23467	310
2.23833	305
2.24200	301
2.24567	297
2.24933	293
2.25300	285
2.25667	273
2.26033	261
2.26400	251
2.26767	245
2.27133	243
2.27500	243
2.27867	241
2.28233	239
2.28600	235
2.28967	232
2.29333	228
2.29700	226
2.30067	225
2.30433	224
2.30800	219
2.31167	212
2.31533	206
2.31900	204
2.32267	200
2.32633	194
2.33000	187
2.33367	177
2.33733	170
2.34100	168
2.34467	170
2.34833	170
2.35200	167
2.35567	163
2.35933	160
2.36300	156
2.36667	151
2.37033	149
2.37400	151
2.37767	150
2.38133	145
2.38500	139
2.38867	135
2.39233	136
2.39600	139
2.39967	144
2.40333	149
2.40700	149
2.41067	146
2.41433	145
2.41800	144
2.42167	141
2.42533	139
2.42900	136
2.43267	130
2.43633	125
2.44000	122
2.44367	123
2.44733	124
2.45100	126
2.45467	129
2.45833	130
2.46200	127
2.46567	126
2.46933	130
2.47300	138
2.47667	144
2.48033	143
2.48400	138
2.48767	132
2.49133	127
2.49500	124
2.49867	119
2.50233	115
2.50600	112
2.50967	106
2.51333	102
2.51700	98
2.52067	92
2.52433	86
2.52800	82
2.53167	82
2.53533	85
2.53900	89
2.54267	91
2.54633	89
2.55000	84
2.55367	81
2.55733	78
2.56100	75
2.56467	73
2.56833	70
2.57200	69
2.57567	72
2.57933	80
2.58300	88
2.58667	90
2.59033	88
2.59400	82
2.59767	74
2.60133	66
2.60500	60
2.60867	55
2.61233	52
2.61600	51
2.61967	51
2.62333	55
2.62700	60
2.63067	65
2.63433	69
2.63800	71
2.64167	73
2.64533	75
2.64900	77
2.65267	79
2.65633	80
2.66000	76
2.66367	72
2.66733	70
2.67100	69
2.67467	67
2.67833	59
2.68200	47
2.68567	37
2.68933	34
2.69300	34
2.69667	35
2.70033	33
2.70400	33
2.70767	35
2.71133	39
2.71500	47
2.71867	55
2.72233	60
2.72600	64
2.72967	66
2.73333	68
2.73700	69
2.74067	68
2.74433	67
2.74800	65
2.75167	63
2.75533	62
2.75900	64
2.76267	71
2.76633	78
2.77000	76
2.77367	68
2.77733	59
2.78100	53
2.78467	45
2.78833	37
2.79200	30
2.79567	26
2.79933	25
2.80300	31
2.80667	42
2.81033	52
2.81400	56
2.81767	53
2.82133	48
2.82500	48
2.82867	50
2.83233	51
2.83600	51
2.83967	49
2.84333	48
2.84700	47
2.85067	47
2.85433	43
2.85800	36
2.86167	31
2.86533	28
2.86900	25
2.87267	22
2.87633	22
2.88000	23
2.88367	25
2.88733	28
2.89100	32
2.89467	39
2.89833	45
2.90200	50
2.90567	53
2.90933	53
2.91300	50
2.91667	48
2.92033	46
2.92400	43
2.92767	39
2.93133	38
2.93500	38
2.93867	38
2.94233	36
2.94600	33
2.94967	29
2.95333	27
2.95700	30
2.96067	35
2.96433	36
2.96800	36
2.97167	33
2.97533	28
2.97900	26
2.98267	25
2.98633	26
2.99000	29
2.99367	35
2.99733	42
3.00100	47
3.00467	46
3.00833	45
3.01200	48
3.01567	48
3.01933	43
3.02300	38
3.02667	36
3.03033	34
3.03400	30
3.03767	24
3.04133	20
3.04500	18
3.04867	18
3.05233	18
3.05600	19
3.05967	18
3.06333	17
3.06700	19
3.07067	21
3.07433	24
3.07800	29
3.08167	33
3.08533	35
3.08900	34
3.09267	33
3.09633	30
3.10000	24
3.10367	20
3.10733	20
3.11100	23
3.11467	24
3.11833	21
3.12200	14
3.12567	7
3.12933	2
3.13300	-2
3.13667	-3
3.14033	-1
3.14400	10
3.14767	22
3.15133	31
3.15500	37
3.15867	37
3.16233	29
3.16600	17
3.16967	5
3.17333	-4
3.17700	-8
3.18067	-9
3.18433	-7
3.18800	-5
3.19167	-3
3.19533	2
3.19900	10
3.20267	17
3.20633	19
3.21000	22
3.21367	25
3.21733	26
3.22100	22
3.22467	15
3.22833	11
3.23200	11
3.23567	14
3.23933	16
3.24300	12
3.24667	7
3.25033	5
3.25400	3
3.25767	4
3.26133	8
3.26500	10
3.26867	7
3.27233	1
3.27600	-2
3.27967	-4
3.28333	-5
3.28700	-3
3.29067	-1
3.29433	-0
3.29800	0
3.30167	3
3.30533	9
3.30900	12
3.31267	14
3.31633	15
3.32000	15
3.32367	15
3.32733	18
3.33100	19
3.33467	19
3.33833	17
3.34200	15
3.34567	14
3.34933	15
3.35300	17
3.35667	19
3.36033	22
3.36400	19
3.36767	13
3.37133	10
3.37500	8
3.37867	7
3.38233	10
3.38600	14
3.38967	13
3.39333	6
3.39700	0
3.40067	-1
3.40433	3
3.40800	9
3.41167	17
3.41533	23
3.41900	25
3.42267	25
3.42633	23
3.43000	16
3.43367	6
3.43733	-4
3.44100	-7
3.44467	-9
3.44833	-9
3.45200	-5
3.45567	2
3.45933	8
3.46300	10
3.46667	6
3.47033	1
3.47400	-2
3.47767	-3
3.48133	2
3.48500	9
3.48867	19
3.49233	28
3.49600	36
3.49967	35
3.50333	26
3.50700	14
3.51067	6
3.51433	2
3.51800	-5
3.52167	-11
3.52533	-16
3.52900	-20
3.53267	-21
3.53633	-20
3.54000	-17
3.54367	-12
3.54733	-7
3.55100	-0
3.55467	3
3.55833	4
3.56200	2
3.56567	-0
3.56933	-2
3.57300	-4
3.57667	-6
3.58033	-6
3.58400	-5
3.58767	1
3.59133	6
3.59500	6
3.59867	3
3.60233	1
3.60600	-2
3.60967	-1
3.61333	3
3.61700	3
3.62067	4
3.62433	7
3.62800	15
3.63167	21
3.63533	20
3.63900	12
3.64267	4
3.64633	-3
3.65000	-9
3.65367	-13
3.65733	-17
3.66100	-18
3.66467	-17
3.66833	-16
3.67200	-14
3.67567	-9
3.67933	-4
3.68300	2
3.68667	9
3.69033	13
3.69400	12
3.69767	6
3.70133	-1
3.70500	-5
3.70867	-12
3.71233	-18
3.71600	-24
3.71967	-26
3.72333	-21
3.72700	-11
3.73067	-3
3.73433	4
3.73800	7
3.74167	7
3.74533	6
3.74900	7
3.75267	9
3.75633	10
3.76000	11
3.76367	14
3.76733	12
3.77100	5
3.77467	-4
3.77833	-8
3.78200	-8
3.78567	-8
3.78933	-6
3.79300	-5
3.79667	-6
3.80033	-8
3.80400	-6
3.80767	-4
3.81133	-4
3.81500	-4
3.81867	-3
3.82233	1
3.82600	4
3.82967	12
3.83333	21
3.83700	28
3.84067	30
3.84433	30
3.84800	26
3.85167	18
3.85533	10
3.85900	7
3.86267	5
3.86633	3
3.87000	3
3.87367	4
3.87733	5
3.88100	6
3.88467	5
3.88833	5
3.89200	5
3.89567	4
3.89933	7
3.90300	13
3.90667	17
3.91033	19
3.91400	18
3.91767	13
3.92133	9
3.92500	5
3.92867	-2
3.93233	-5
3.93600	-7
3.93967	-10
3.94333	-20
3.94700	-30
3.95067	-36
3.95433	-36
3.95800	-35
3.96167	-36
3.96533	-35
3.96900	-26
3.97267	-14
3.97633	-5
3.98000	2
3.98367	7
3.98733	10
3.99100	10
3.99467	7
3.99833	-1

[Chromatogram (Ch2)]
Interval(msec)	220
# of Points	1091
Start Time(min)	0.002
End Time(min)	3.998
R.Time (min)	Intensity
0.00167	-1
0.00533	-1
0.00900	-1
0.01267	-1
0.01633	-1
0.02000	-1
0.02367	-1
0.02733	-0
0.03100	-0
0.03467	0
0.03833	1
0.04200	1
0.04567	2
0.04933	2
0.05300	3
0.05667	3
0.06033	4
0.06400	4
0.06767	5
0.07133	5
0.07500	5
0.07867	4
0.08233	4
0.08600	4
0.08967	4
0.09333	4
0.09700	5
0.10067	5
0.10433	5
0.10800	5
0.11167	5
0.11533	5
0.11900	5
0.12267	5
0.12633	5
0.13000	5
0.13367	5
0.13733	5
0.14100	5
0.14467	5
0.14833	5
0.15200	5
0.15567	6
0.15933	6
0.16300	6
0.16667	6
0.17033	6
0.17400	6
0.17767	7
0.18133	7
0.18500	7
0.18867	7
0.19233	7
0.19600	6
0.19967	6
0.20333	6
0.20700	6
0.21067	5
0.21433	5
0.21800	5
0.22167	5
0.22533	4
0.22900	4
0.23267	4
0.23633	4
0.24000	4
0.24367	4
0.24733	3
0.25100	4
0.25467	4
0.25833	3
0.26200	3
0.26567	3
0.26933	3
0.27300	2
0.27667	2
0.28033	2
0.28400	2
0.28767	1
0.29133	1
0.29500	1
0.29867	1
0.30233	1
0.30600	1
0.30967	2
0.31333	2
0.31700	2
0.32067	3
0.32433	3
0.32800	3
0.33167	4
0.33533	4
0.33900	4
0.34267	5
0.34633	5
0.35000	5
0.35367	6
0.35733	6
0.36100	6
0.36467	6
0.36833	7
0.37200	7
0.37567	6
0.37933	6
0.38300	6
0.38667	5
0.39033	5
0.39400	4
0.39767	4
0.40133	4
0.40500	4
0.40867	3
0.41233	3
0.41600	3
0.41967	3
0.42333	3
0.42700	3
0.43067	3
0.43433	3
0.43800	2
0.44167	2
0.44533	2
0.44900	2
0.45267	2
0.45633	2
0.46000	2
0.46367	2
0.46733	2
0.47100	3
0.47467	3
0.47833	3
0.48200	3
0.48567	3
0.48933	3
0.49300	2
0.49667	3
0.50033	3
0.50400	3
0.50767	2
0.51133	2
0.51500	2
0.51867	2
0.52233	2
0.52600	2
0.52967	2
0.53333	2
0.53700	1
0.54067	1
0.54433	1
0.54800	1
0.55167	1
0.55533	2
0.55900	2
0.56267	2
0.56633	2
0.57000	2
0.57367	2
0.57733	3
0.58100	3
0.58467	2
0.58833	2
0.59200	2
0.59567	2
0.59933	2
0.60300	2
0.60667	2
0.61033	2
0.61400	2
0.61767	2
0.62133	2
0.62500	2
0.62867	1
0.63233	2
0.63600	2
0.63967	2
0.64333	2
0.64700	2
0.65067	2
0.65433	2
0.65800	1
0.66167	1
0.66533	2
0.66900	2
0.67267	2
0.67633	2
0.68000	3
0.68367	3
0.68733	3
0.69100	3
0.69467	3
0.69833	3
0.70200	3
0.70567	3
0.70933	3
0.71300	3
0.71667	4
0.72033	4
0.72400	4
0.72767	4
0.73133	4
0.73500	4
0.73867	3
0.74233	3
0.74600	3
0.74967	3
0.75333	3
0.75700	3
0.76067	3
0.76433	3
0.76800	3
0.77167	3
0.77533	3
0.77900	4
0.78267	4
0.78633	3
0.79000	3
0.79367	3
0.79733	2
0.80100	2
0.80467	2
0.80833	1
0.81200	1
0.81567	1
0.81933	0
0.82300	0
0.82667	0
0.83033	0
0.83400	0
0.83767	0
0.84133	1
0.84500	1
0.84867	1
0.85233	1
0.85600	1
0.85967	1
0.86333	1
0.86700	1
0.87067	1
0.87433	1
0.87800	2
0.88167	2
0.88533	2
0.88900	2
0.89267	3
0.89633	3
0.90000	2
0.90367	2
0.90733	2
0.91100	1
0.91467	1
0.91833	0
0.92200	-0
0.92567	-0
0.92933	-1
0.93300	-1
0.93667	-1
0.94033	-1
0.94400	-0
0.94767	-0
0.95133	0
0.95500	1
0.95867	1
0.96233	1
0.96600	1
0.96967	2
0.97333	2
0.97700	2
0.98067	2
0.98433	2
0.98800	2
0.99167	2
0.99533	2
0.99900	3
1.00267	3
1.00633	3
1.01000	3
1.01367	3
1.01733	3
1.02100	3
1.02467	2
1.02833	2
1.03200	2
1.03567	2
1.03933	2
1.04300	2
1.04667	2
1.05033	2
1.05400	2
1.05767	2
1.06133	2
1.06500	2
1.06867	2
1.07233	2
1.07600	2
1.07967	2
1.08333	2
1.08700	2
1.09067	2
1.09433	1
1.09800	1
1.10167	1
1.10533	1
1.10900	1
1.11267	1
1.11633	1
1.12000	1
1.12367	1
1.12733	1
1.13100	1
1.13467	1
1.13833	2
1.14200	2
1.14567	2
1.14933	2
1.15300	1
1.15667	1
1.16033	1
1.16400	1
1.16767	1
1.17133	1
1.17500	1
1.17867	1
1.18233	1
1.18600	1
1.18967	1
1.19333	1
1.19700	1
1.20067	1
1.20433	1
1.20800	2
1.21167	2
1.21533	2
1.21900	2
1.22267	2
1.22633	2
1.23000	2
1.23367	2
1.23733	2
1.24100	2
1.24467	2
1.24833	2
1.25200	2
1.25567	2
1.25933	2
1.26300	2
1.26667	2
1.27033	2
1.27400	2
1.27767	2
1.28133	2
1.28500	2
1.28867	2
1.29233	2
1.29600	2
1.29967	2
1.30333	2
1.30700	2
1.31067	2
1.31433	2
1.31800	2
1.32167	2
1.32533	3
1.32900	3
1.33267	3
1.33633	2
1.34000	2
1.34367	2
1.34733	2
1.35100	2
1.35467	2
1.35833	2
1.36200	2
1.36567	2
1.36933	2
1.37300	2
1.37667	2
1.38033	2
1.38400	2
1.38767	1
1.39133	1
1.39500	1
1.39867	1
1.40233	0
1.40600	-0
1.40967	-1
1.41333	-1
1.41700	-2
1.42067	-2
1.42433	-2
1.42800	-2
1.43167	-3
1.43533	-3
1.43900	-3
1.44267	-3
1.44633	-3
1.45000	-3
1.45367	-3
1.45733	-2
1.46100	-2
1.46467	-2
1.46833	-2
1.47200	-2
1.47567	-2
1.47933	-2
1.48300	-2
1.48667	-2
1.49033	-2
1.49400	-2
1.49767	-2
1.50133	-2
1.50500	-2
1.50867	-2
1.51233	-2
1.51600	-2
1.51967	-1
1.52333	-1
1.52700	-1
1.53067	-0
1.53433	0
1.53800	1
1.54167	1
1.54533	1
1.54900	2
1.55267	2
1.55633	2
1.56000	2
1.56367	2
1.56733	2
1.57100	2
1.57467	2
1.57833	2
1.58200	2
1.58567	2
1.58933	2
1.59300	2
1.59667	1
1.60033	0
1.60400	-1
1.60767	-2
1.61133	-3
1.61500	-5
1.61867	-7
1.62233	-10
1.62600	-12
1.62967	-15
1.63333	-18
1.63700	-22
1.64067	-25
1.64433	-28
1.64800	-32
1.65167	-35
1.65533	-39
1.65900	-42
1.66267	-46
1.66633	-50
1.67000	-55
1.67367	-59
1.67733	-64
1.68100	-69
1.68467	-75
1.68833	-79
1.69200	-84
1.69567	-88
1.69933	-91
1.70300	-95
1.70667	-97
1.71033	-99
1.71400	-101
1.71767	-103
1.72133	-104
1.72500	-105
1.72867	-106
1.73233	-108
1.73600	-108
1.73967	-109
1.74333	-110
1.74700	-111
1.75067	-111
1.75433	-111
1.75800	-112
1.76167	-112
1.76533	-112
1.76900	-112
1.77267	-112
1.77633	-112
1.78000	-112
1.78367	-112
1.78733	-113
1.79100	-113
1.79467	-114
1.79833	-115
1.80200	-116
1.80567	-116
1.80933	-116
1.81300	-117
1.81667	-116
1.82033	-116
1.82400	-116
1.82767	-115
1.83133	-115
1.83500	-115
1.83867	-115
1.84233	-115
1.84600	-115
1.84967	-116
1.85333	-117
1.85700	-117
1.86067	-118
1.86433	-118
1.86800	-118
1.87167	-117
1.87533	-117
1.87900	-117
1.88267	-116
1.88633	-116
1.89000	-117
1.89367	-117
1.89733	-117
1.90100	-117
1.90467	-117
1.90833	-117
1.91200	-116
1.91567	-115
1.91933	-115
1.92300	-114
1.92667	-114
1.93033	-114
1.93400	-114
1.93767	-114
1.94133	-114
1.94500	-114
1.94867	-113
1.95233	-113
1.95600	-112
1.95967	-112
1.96333	-111
1.96700	-110
1.97067	-110
1.97433	-109
1.97800	-109
1.98167	-109
1.98533	-109
1.98900	-109
1.99267	-109
1.99633	-109
2.00000	-109
2.00367	-109
2.00733	-109
2.01100	-109
2.01467	-109
2.01833	-109
2.02200	-109
2.02567	-109
2.02933	-109
2.03300	-109
2.03667	-110
2.04033	-109
2.04400	-109
2.04767	-109
2.05133	-108
2.05500	-108
2.05867	-107
2.06233	-107
2.06600	-106
2.06967	-106
2.07333	-106
2.07700	-105
2.08067	-105
2.08433	-104
2.08800	-103
2.09167	-102
2.09533	-102
2.09900	-102
2.10267	-101
2.10633	-101
2.11000	-101
2.11367	-101
2.11733	-100
2.12100	-100
2.12467	-99
2.12833	-99
2.13200	-98
2.13567	-97
2.13933	-97
2.14300	-97
2.14667	-96
2.15033	-96
2.15400	-96
2.15767	-96
2.16133	-96
2.16500	-96
2.16867	-97
2.17233	-96
2.17600	-96
2.17967	-95
2.18333	-95
2.18700	-94
2.19067	-94
2.19433	-93
2.19800	-93
2.20167	-92
2.20533	-92
2.20900	-93
2.21267	-93
2.21633	-94
2.22000	-95
2.22367	-95
2.22733	-96
2.23100	-95
2.23467	-95
2.23833	-95
2.24200	-94
2.24567	-93
2.24933	-92
2.25300	-91
2.25667	-90
2.26033	-89
2.26400	-88
2.26767	-88
2.27133	-87
2.27500	-87
2.27867	-88
2.28233	-89
2.28600	-90
2.28967	-91
2.29333	-91
2.29700	-91
2.30067	-91
2.30433	-90
2.30800	-89
2.31167	-88
2.31533	-86
2.31900	-85
2.32267	-84
2.32633	-83
2.33000	-82
2.33367	-82
2.33733	-82
2.34100	-82
2.34467	-82
2.34833	-81
2.35200	-81
2.35567	-81
2.35933	-81
2.36300	-81
2.36667	-81
2.37033	-80
2.37400	-79
2.37767	-78
2.38133	-76
2.38500	-73
2.38867	-69
2.39233	-65
2.39600	-61
2.39967	-57
2.40333	-52
2.40700	-47
2.41067	-42
2.41433	-37
2.41800	-32
2.42167	-28
2.42533	-24
2.42900	-20
2.43267	-17
2.43633	-15
2.44000	-13
2.44367	-11
2.44733	-9
2.45100	-7
2.45467	-5
2.45833	-3
2.46200	-1
2.46567	1
2.46933	3
2.47300	4
2.47667	5
2.48033	6
2.48400	6
2.48767	7
2.49133	8
2.49500	9
2.49867	10
2.50233	10
2.50600	11
2.50967	12
2.51333	12
2.51700	13
2.52067	14
2.52433	14
2.52800	15
2.53167	15
2.53533	16
2.53900	16
2.54267	17
2.54633	17
2.55000	18
2.55367	18
2.55733	19
2.56100	19
2.56467	19
2.56833	19
2.57200	18
2.57567	18
2.57933	17
2.58300	17
2.58667	17
2.59033	17
2.59400	18
2.59767	19
2.60133	19
2.60500	20
2.60867	21
2.61233	21
2.61600	22
2.61967	22
2.62333	23
2.62700	23
2.63067	23
2.63433	23
2.63800	23
2.64167	23
2.64533	23
2.64900	22
2.65267	22
2.65633	22
2.66000	22
2.66367	22
2.66733	23
2.67100	23
2.67467	23
2.67833	23
2.68200	23
2.68567	23
2.68933	24
2.69300	24
2.69667	24
2.70033	25
2.70400	25
2.70767	26
2.71133	26
2.71500	27
2.71867	28
2.72233	28
2.72600	29
2.72967	29
2.73333	29
2.73700	29
2.74067	28
2.74433	27
2.74800	26
2.75167	25
2.75533	24
2.75900	24
2.76267	23
2.76633	23
2.77000	23
2.77367	23
2.77733	23
2.78100	23
2.78467	23
2.78833	24
2.79200	24
2.79567	24
2.79933	25
2.80300	25
2.80667	26
2.81033	26
2.81400	27
2.81767	27
2.82133	28
2.82500	29
2.82867	29
2.83233	30
2.83600	30
2.83967	30
2.84333	29
2.84700	27
2.85067	24
2.85433	18
2.85800	10
2.86167	-1
2.86533	-16
2.86900	-35
2.87267	-58
2.87633	-85
2.88000	-116
2.88367	-150
2.88733	-188
2.89100	-229
2.89467	-273
2.89833	-319
2.90200	-367
2.90567	-417
2.90933	-467
2.91300	-517
2.91667	-567
2.92033	-618
2.92400	-668
2.92767	-717
2.93133	-765
2.93500	-814
2.93867	-867
2.94233	-926
2.94600	-989
2.94967	-1044
2.95333	-1082
2.95700	-1094
2.96067	-1080
2.96433	-1042
2.96800	-985
2.97167	-914
2.97533	-837
2.97900	-756
2.98267	-676
2.98633	-599
2.99000	-527
2.99367	-460
2.99733	-400
3.00100	-345
3.00467	-297
3.00833	-254
3.01200	-217
3.01567	-184
3.01933	-156
3.02300	-131
3.02667	-110
3.03033	-92
3.03400	-77
3.03767	-63
3.04133	-52
3.04500	-42
3.04867	-34
3.05233	-27
3.05600	-21
3.05967	-16
3.06333	-11
3.06700	-7
3.07067	-3
3.07433	-0
3.07800	2
3.08167	4
3.08533	6
3.08900	8
3.09267	9
3.09633	10
3.10000	12
3.10367	13
3.10733	14
3.11100	15
3.11467	16
3.11833	16
3.12200	17
3.12567	18
3.12933	18
3.13300	19
3.13667	19
3.14033	19
3.14400	20
3.14767	20
3.15133	21
3.15500	21
3.15867	22
3.16233	22
3.16600	22
3.16967	22
3.17333	23
3.17700	23
3.18067	23
3.18433	24
3.18800	24
3.19167	24
3.19533	24
3.19900	24
3.20267	24
3.20633	24
3.21000	24
3.21367	24
3.21733	25
3.22100	25
3.22467	26
3.22833	26
3.23200	26
3.23567	27
3.23933	27
3.24300	27
3.24667	27
3.25033	27
3.25400	28
3.25767	28
3.26133	28
3.26500	28
3.26867	29
3.27233	29
3.27600	29
3.27967	29
3.28333	29
3.28700	29
3.29067	29
3.29433	30
3.29800	30
3.30167	30
3.30533	30
3.30900	31
3.31267	31
3.31633	31
3.32000	31
3.32367	31
3.32733	31
3.33100	31
3.33467	31
3.33833	31
3.34200	31
3.34567	31
3.34933	31
3.35300	31
3.35667	31
3.36033	31
3.36400	31
3.36767	31
3.37133	31
3.37500	31
3.37867	31
3.38233	31
3.38600	31
3.38967	31
3.39333	31
3.39700	31
3.40067	31
3.40433	31
3.40800	31
3.41167	30
3.41533	30
3.41900	30
3.42267	30
3.42633	30
3.43000	31
3.43367	31
3.43733	31
3.44100	31
3.44467	31
3.44833	31
3.45200	31
3.45567	31
3.45933	30
3.46300	30
3.46667	30
3.47033	30
3.47400	30
3.47767	30
3.48133	30
3.48500	29
3.48867	29
3.49233	29
3.49600	29
3.49967	29
3.50333	29
3.50700	29
3.51067	29
3.51433	29
3.51800	29
3.52167	29
3.52533	29
3.52900	28
3.53267	28
3.53633	28
3.54000	28
3.54367	28
3.54733	28
3.55100	28
3.55467	28
3.55833	28
3.56200	29
3.56567	29
3.56933	29
3.57300	30
3.57667	30
3.58033	30
3.58400	30
3.58767	30
3.59133	31
3.59500	31
3.59867	31
3.60233	31
3.60600	31
3.60967	31
3.61333	31
3.61700	30
3.62067	30
3.62433	30
3.62800	30
3.63167	30
3.63533	30
3.63900	30
3.64267	30
3.64633	30
3.65000	30
3.65367	30
3.65733	29
3.66100	29
3.66467	29
3.66833	29
3.67200	29
3.67567	29
3.67933	29
3.68300	29
3.68667	30
3.69033	30
3.69400	30
3.69767	30
3.70133	30
3.70500	30
3.70867	31
3.71233	31
3.71600	31
3.71967	31
3.72333	31
3.72700	31
3.73067	31
3.73433	31
3.73800	31
3.74167	31
3.74533	31
3.74900	31
3.75267	31
3.75633	31
3.76000	31
3.76367	30
3.76733	30
3.77100	30
3.77467	30
3.77833	30
3.78200	30
3.78567	30
3.78933	30
3.79300	29
3.79667	29
3.80033	29
3.80400	29
3.80767	29
3.81133	29
3.81500	29
3.81867	29
3.82233	29
3.82600	29
3.82967	29
3.83333	29
3.83700	29
3.84067	29
3.84433	29
3.84800	29
3.85167	28
3.85533	28
3.85900	28
3.86267	28
3.86633	28
3.87000	28
3.87367	28
3.87733	29
3.88100	29
3.88467	29
3.88833	29
3.89200	29
3.89567	29
3.89933	30
3.90300	30
3.90667	30
3.91033	30
3.91400	31
3.91767	31
3.92133	31
3.92500	31
3.92867	31
3.93233	31
3.93600	31
3.93967	31
3.94333	31
3.94700	31
3.95067	31
3.95433	31
3.95800	31
3.96167	31
3.96533	31
3.96900	31
3.97267	31
3.97633	31
3.98000	31
3.98367	31
3.98733	31
3.99100	31
3.99467	31
3.99833	31

[Chromatogram (Ch3)]
Interval(msec)	220
# of Points	1091
Start Time(min)	0.002
End Time(min)	3.998
R.Time (min)	Intensity
0.00167	1
0.00533	2
0.00900	1
0.01267	-1
0.01633	-2
0.02000	-2
0.02367	1
0.02733	3
0.03100	4
0.03467	5
0.03833	3
0.04200	1
0.04567	1
0.04933	-1
0.05300	-4
0.05667	-5
0.06033	-6
0.06400	-5
0.06767	-4
0.07133	-3
0.07500	-4
0.07867	-5
0.08233	-3
0.08600	-2
0.08967	1
0.09333	1
0.09700	-1
0.10067	-2
0.10433	-2
0.10800	-0
0.11167	2
0.11533	4
0.11900	6
0.12267	7
0.12633	7
0.13000	7
0.13367	6
0.13733	7
0.14100	5
0.14467	6
0.14833	6
0.15200	5
0.15567	5
0.15933	7
0.16300	7
0.16667	5
0.17033	4
0.17400	3
0.17767	4
0.18133	6
0.18500	5
0.18867	4
0.19233	4
0.19600	6
0.19967	6
0.20333	7
0.20700	6
0.21067	4
0.21433	4
0.21800	6
0.22167	8
0.22533	9
0.22900	8
0.23267	8
0.23633	7
0.24000	5
0.24367	6
0.24733	6
0.25100	6
0.25467	5
0.25833	4
0.26200	3
0.26567	4
0.26933	5
0.27300	6
0.27667	7
0.28033	7
0.28400	6
0.28767	8
0.29133	9
0.29500	9
0.29867	7
0.30233	6
0.30600	7
0.30967	5
0.31333	5
0.31700	7
0.32067	9
0.32433	8
0.32800	7
0.33167	9
0.33533	12
0.33900	13
0.34267	13
0.34633	13
0.35000	11
0.35367	11
0.35733	11
0.36100	10
0.36467	9
0.36833	11
0.37200	13
0.37567	15
0.37933	15
0.38300	16
0.38667	16
0.39033	16
0.39400	15
0.39767	15
0.40133	13
0.40500	13
0.40867	13
0.41233	13
0.41600	14
0.41967	15
0.42333	15
0.42700	15
0.43067	16
0.43433	16
0.43800	14
0.44167	15
0.44533	15
0.44900	15
0.45267	14
0.45633	13
0.46000	13
0.46367	14
0.46733	15
0.47100	16
0.47467	13
0.47833	10
0.48200	10
0.48567	15
0.48933	17
0.49300	16
0.49667	14
0.50033	12
0.50400	10
0.50767	10
0.51133	12
0.51500	13
0.51867	12
0.52233	10
0.52600	10
0.52967	12
0.53333	13
0.53700	13
0.54067	14
0.54433	14
0.54800	14
0.55167	14
0.55533	16
0.55900	16
0.56267	17
0.56633	18
0.57000	21
0.57367	22
0.57733	19
0.58100	15
0.58467	14
0.58833	14
0.59200	15
0.59567	15
0.59933	15
0.60300	15
0.60667	16
0.61033	17
0.61400	20
0.61767	22
0.62133	21
0.62500	19
0.62867	18
0.63233	17
0.63600	16
0.63967	16
0.64333	16
0.64700	17
0.65067	19
0.65433	20
0.65800	20
0.66167	20
0.66533	21
0.66900	21
0.67267	22
0.67633	22
0.68000	22
0.68367	21
0.68733	20
0.69100	20
0.69467	20
0.69833	20
0.70200	21
0.70567	23
0.70933	24
0.71300	23
0.71667	20
0.72033	20
0.72400	22
0.72767	23
0.73133	24
0.73500	22
0.73867	20
0.74233	20
0.74600	19
0.74967	19
0.75333	16
0.75700	14
0.76067	14
0.76433	15
0.76800	15
0.77167	16
0.77533	17
0.77900	17
0.78267	17
0.78633	19
0.79000	21
0.79367	22
0.79733	22
0.80100	23
0.80467	23
0.80833	23
0.81200	22
0.81567	20
0.81933	20
0.82300	21
0.82667	20
0.83033	20
0.83400	21
0.83767	21
0.84133	21
0.84500	23
0.84867	26
0.85233	27
0.85600	26
0.85967	26
0.86333	25
0.86700	24
0.87067	23
0.87433	22
0.87800	24
0.88167	25
0.88533	26
0.88900	26
0.89267	24
0.89633	24
0.90000	24
0.90367	25
0.90733	26
0.91100	25
0.91467	24
0.91833	24
0.92200	25
0.92567	25
0.92933	24
0.93300	23
0.93667	23
0.94033	24
0.94400	26
0.94767	29
0.95133	30
0.95500	31
0.95867	30
0.96233	28
0.96600	26
0.96967	27
0.97333	28
0.97700	27
0.98067	27
0.98433	26
0.98800	26
0.99167	26
0.99533	27
0.99900	28
1.00267	29
1.00633	28
1.01000	29
1.01367	30
1.01733	31
1.02100	31
1.02467	30
1.02833	30
1.03200	28
1.03567	27
1.03933	26
1.04300	29
1.04667	30
1.05033	28
1.05400	27
1.05767	28
1.06133	28
1.06500	28
1.06867	26
1.07233	26
1.07600	26
1.07967	24
1.08333	24
1.08700	25
1.09067	25
1.09433	27
1.09800	27
1.10167	27
1.10533	25
1.10900	26
1.11267	27
1.11633	28
1.12000	28
1.12367	26
1.12733	28
1.13100	28
1.13467	28
1.13833	27
1.14200	27
1.14567	28
1.14933	27
1.15300	26
1.15667	27
1.16033	27
1.16400	27
1.16767	29
1.17133	30
1.17500	30
1.17867	30
1.18233	29
1.18600	27
1.18967	28
1.19333	27
1.19700	27
1.20067	27
1.20433	27
1.20800	27
1.21167	29
1.21533	31
1.21900	31
1.22267	31
1.22633	29
1.23000	28
1.23367	30
1.23733	33
1.24100	34
1.24467	32
1.24833	32
1.25200	33
1.25567	32
1.25933	30
1.26300	28
1.26667	26
1.27033	27
1.27400	29
1.27767	29
1.28133	28
1.28500	30
1.28867	31
1.29233	32
1.29600	32
1.29967	31
1.30333	30
1.30700	29
1.31067	30
1.31433	32
1.31800	33
1.32167	32
1.32533	31
1.32900	30
1.33267	29
1.33633	27
1.34000	26
1.34367	27
1.34733	29
1.35100	31
1.35467	31
1.35833	32
1.36200	32
1.36567	30
1.36933	28
1.37300	27
1.37667	26
1.38033	25
1.38400	22
1.38767	21
1.39133	23
1.39500	25
1.39867	27
1.40233	27
1.40600	26
1.40967	26
1.41333	27
1.41700	28
1.42067	27
1.42433	25
1.42800	25
1.43167	29
1.43533	29
1.43900	29
1.44267	30
1.44633	31
1.45000	32
1.45367	32
1.45733	30
1.46100	28
1.46467	27
1.46833	26
1.47200	27
1.47567	30
1.47933	32
1.48300	34
1.48667	34
1.49033	32
1.49400	30
1.49767	28
1.50133	25
1.50500	24
1.50867	26
1.51233	27
1.51600	26
1.51967	26
1.52333	25
1.52700	24
1.53067	24
1.53433	27
1.53800	28
1.54167	27
1.54533	23
1.54900	22
1.55267	24
1.55633	26
1.56000	27
1.56367	26
1.56733	26
1.57100	28
1.57467	29
1.57833	28
1.58200	27
1.58567	27
1.58933	29
1.59300	32
1.59667	32
1.60033	32
1.60400	33
1.60767	34
1.61133	33
1.61500	31
1.61867	30
1.62233	30
1.62600	31
1.62967	31
1.63333	31
1.63700	30
1.64067	31
1.64433	33
1.64800	34
1.65167	34
1.65533	36
1.65900	36
1.66267	38
1.66633	38
1.67000	39
1.67367	41
1.67733	42
1.68100	42
1.68467	43
1.68833	43
1.69200	45
1.69567	47
1.69933	48
1.70300	49
1.70667	48
1.71033	48
1.71400	48
1.71767	46
1.72133	44
1.72500	43
1.72867	44
1.73233	45
1.73600	47
1.73967	48
1.74333	50
1.74700	50
1.75067	49
1.75433	51
1.75800	54
1.76167	54
1.76533	56
1.76900	57
1.77267	58
1.77633	59
1.78000	60
1.78367	60
1.78733	59
1.79100	58
1.79467	57
1.79833	57
1.80200	59
1.80567	58
1.80933	55
1.81300	52
1.81667	54
1.82033	56
1.82400	56
1.82767	56
1.83133	56
1.83500	56
1.83867	55
1.84233	56
1.84600	57
1.84967	56
1.85333	54
1.85700	51
1.86067	50
1.86433	53
1.86800	55
1.87167	57
1.87533	60
1.87900	60
1.88267	59
1.88633	58
1.89000	57
1.89367	57
1.89733	58
1.90100	59
1.90467	59
1.90833	59
1.91200	58
1.91567	57
1.91933	56
1.92300	55
1.92667	57
1.93033	59
1.93400	60
1.93767	61
1.94133	62
1.94500	63
1.94867	62
1.95233	62
1.95600	61
1.95967	62
1.96333	64
1.96700	66
1.97067	68
1.97433	69
1.97800	67
1.98167	67
1.98533	71
1.98900	72
1.99267	73
1.99633	74
2.00000	75
2.00367	76
2.00733	76
2.01100	76
2.01467	78
2.01833	78
2.02200	78
2.02567	81
2.02933	81
2.03300	79
2.03667	80
2.04033	82
2.04400	86
2.04767	88
2.05133	90
2.05500	91
2.05867	93
2.06233	96
2.06600	97
2.06967	97
2.07333	97
2.07700	98
2.08067	97
2.08433	97
2.08800	98
2.09167	100
2.09533	103
2.09900	106
2.10267	108
2.10633	110
2.11000	111
2.11367	110
2.11733	107
2.12100	106
2.12467	106
2.12833	107
2.13200	109
2.13567	112
2.13933	113
2.14300	114
2.14667	116
2.15033	119
2.15400	120
2.15767	121
2.16133	122
2.16500	123
2.16867	122
2.17233	120
2.17600	120
2.17967	121
2.18333	122
2.18700	123
2.19067	121
2.19433	119
2.19800	119
2.20167	120
2.20533	122
2.20900	125
2.21267	129
2.21633	132
2.22000	134
2.22367	135
2.22733	134
2.23100	135
2.23467	134
2.23833	132
2.24200	132
2.24567	134
2.24933	133
2.25300	132
2.25667	134
2.26033	135
2.26400	137
2.26767	138
2.27133	136
2.27500	134
2.27867	134
2.28233	136
2.28600	137
2.28967	138
2.29333	141
2.29700	143
2.30067	142
2.30433	142
2.30800	142
2.31167	141
2.31533	142
2.31900	145
2.32267	148
2.32633	150
2.33000	154
2.33367	158
2.33733	159
2.34100	161
2.34467	162
2.34833	160
2.35200	158
2.35567	158
2.35933	158
2.36300	159
2.36667	160
2.37033	160
2.37400	160
2.37767	161
2.38133	161
2.38500	163
2.38867	164
2.39233	165
2.39600	164
2.39967	164
2.40333	165
2.40700	165
2.41067	166
2.41433	167
2.41800	169
2.42167	174
2.42533	177
2.42900	179
2.43267	180
2.43633	179
2.44000	178
2.44367	180
2.44733	187
2.45100	189
2.45467	190
2.45833	190
2.46200	196
2.46567	208
2.46933	227
2.47300	250
2.47667	279
2.48033	306
2.48400	331
2.48767	357
2.49133	380
2.49500	400
2.49867	421
2.50233	440
2.50600	459
2.50967	476
2.51333	491
2.51700	501
2.52067	510
2.52433	518
2.52800	524
2.53167	532
2.53533	538
2.53900	542
2.54267	546
2.54633	551
2.55000	556
2.55367	560
2.55733	563
2.56100	568
2.56467	573
2.56833	578
2.57200	582
2.57567	586
2.57933	589
2.58300	589
2.58667	587
2.59033	584
2.59400	583
2.59767	578
2.60133	567
2.60500	546
2.60867	518
2.61233	480
2.61600	436
2.61967	391
2.62333	346
2.62700	303
2.63067	265
2.63433	234
2.63800	209
2.64167	190
2.64533	174
2.64900	165
2.65267	159
2.65633	159
2.66000	164
2.66367	171
2.66733	182
2.67100	193
2.67467	202
2.67833	212
2.68200	221
2.68567	230
2.68933	239
2.69300	247
2.69667	255
2.70033	265
2.70400	276
2.70767	285
2.71133	291
2.71500	299
2.71867	306
2.72233	312
2.72600	318
2.72967	324
2.73333	329
2.73700	334
2.74067	340
2.74433	346
2.74800	351
2.75167	355
2.75533	361
2.75900	367
2.76267	371
2.76633	374
2.77000	376
2.77367	377
2.77733	379
2.78100	381
2.78467	382
2.78833	383
2.79200	383
2.79567	382
2.79933	384
2.80300	387
2.80667	390
2.81033	393
2.81400	394
2.81767	394
2.82133	395
2.82500	405
2.82867	428
2.83233	477
2.83600	570
2.83967	732
2.84333	985
2.84700	1344
2.85067	1815
2.85433	2387
2.85800	3021
2.86167	3674
2.86533	4294
2.86900	4835
2.87267	5258
2.87633	5531
2.88000	5646
2.88367	5614
2.88733	5458
2.89100	5202
2.89467	4876
2.89833	4511
2.90200	4131
2.90567	3753
2.90933	3387
2.91300	3039
2.91667	2720
2.92033	2432
2.92400	2173
2.92767	1940
2.93133	1732
2.93500	1552
2.93867	1395
2.94233	1258
2.94600	1139
2.94967	1035
2.95333	945
2.95700	868
2.96067	798
2.96433	738
2.96800	686
2.97167	642
2.97533	606
2.97900	575
2.98267	548
2.98633	524
2.99000	502
2.99367	484
2.99733	468
3.00100	451
3.00467	436
3.00833	421
3.01200	412
3.01567	408
3.01933	403
3.02300	395
3.02667	386
3.03033	379
3.03400	375
3.03767	370
3.04133	367
3.04500	365
3.04867	363
3.05233	362
3.05600	359
3.05967	355
3.06333	351
3.06700	349
3.07067	347
3.07433	344
3.07800	340
3.08167	339
3.08533	337
3.08900	334
3.09267	332
3.09633	330
3.10000	328
3.10367	326
3.10733	324
3.11100	324
3.11467	325
3.11833	323
3.12200	322
3.12567	319
3.12933	315
3.13300	313
3.13667	312
3.14033	312
3.14400	309
3.14767	308
3.15133	307
3.15500	304
3.15867	306
3.16233	306
3.16600	304
3.16967	303
3.17333	301
3.17700	299
3.18067	299
3.18433	298
3.18800	296
3.19167	295
3.19533	295
3.19900	294
3.20267	296
3.20633	297
3.21000	296
3.21367	294
3.21733	292
3.22100	293
3.22467	293
3.22833	290
3.23200	287
3.23567	284
3.23933	280
3.24300	278
3.24667	278
3.25033	276
3.25400	274
3.25767	272
3.26133	269
3.26500	265
3.26867	263
3.27233	263
3.27600	262
3.27967	261
3.28333	263
3.28700	265
3.29067	264
3.29433	263
3.29800	257
3.30167	252
3.30533	247
3.30900	242
3.31267	240
3.31633	240
3.32000	238
3.32367	233
3.32733	232
3.33100	231
3.33467	228
3.33833	226
3.34200	224
3.34567	222
3.34933	220
3.35300	220
3.35667	221
3.36033	220
3.36400	217
3.36767	214
3.37133	212
3.37500	210
3.37867	210
3.38233	207
3.38600	203
3.38967	201
3.39333	198
3.39700	196
3.40067	194
3.40433	190
3.40800	187
3.41167	187
3.41533	185
3.41900	182
3.42267	180
3.42633	178
3.43000	176
3.43367	174
3.43733	172
3.44100	171
3.44467	170
3.44833	169
3.45200	169
3.45567	169
3.45933	168
3.46300	166
3.46667	164
3.47033	162
3.47400	159
3.47767	156
3.48133	154
3.48500	154
3.48867	154
3.49233	151
3.49600	149
3.49967	148
3.50333	147
3.50700	148
3.51067	147
3.51433	145
3.51800	142
3.52167	138
3.52533	135
3.52900	135
3.53267	136
3.53633	136
3.54000	137
3.54367	138
3.54733	138
3.55100	135
3.55467	132
3.55833	130
3.56200	130
3.56567	131
3.56933	131
3.57300	130
3.57667	129
3.58033	129
3.58400	126
3.58767	123
3.59133	119
3.59500	116
3.59867	115
3.60233	117
3.60600	117
3.60967	116
3.61333	114
3.61700	112
3.62067	110
3.62433	110
3.62800	110
3.63167	111
3.63533	110
3.63900	109
3.64267	105
3.64633	104
3.65000	107
3.65367	107
3.65733	106
3.66100	105
3.66467	104
3.66833	104
3.67200	104
3.67567	106
3.67933	104
3.68300	101
3.68667	100
3.69033	99
3.69400	96
3.69767	94
3.70133	95
3.70500	95
3.70867	93
3.71233	90
3.71600	88
3.71967	88
3.72333	88
3.72700	88
3.73067	87
3.73433	87
3.73800	87
3.74167	87
3.74533	87
3.74900	86
3.75267	86
3.75633	87
3.76000	87
3.76367	85
3.76733	84
3.77100	82
3.77467	80
3.77833	79
3.78200	79
3.78567	78
3.78933	77
3.79300	78
3.79667	77
3.80033	78
3.80400	77
3.80767	76
3.81133	76
3.81500	75
3.81867	75
3.82233	75
3.82600	73
3.82967	72
3.83333	73
3.83700	73
3.84067	71
3.84433	71
3.84800	71
3.85167	69
3.85533	68
3.85900	66
3.86267	66
3.86633	65
3.87000	63
3.87367	63
3.87733	64
3.88100	64
3.88467	64
3.88833	62
3.89200	58
3.89567	56
3.89933	55
3.90300	54
3.90667	52
3.91033	50
3.91400	50
3.91767	50
3.92133	50
3.92500	50
3.92867	50
3.93233	50
3.93600	50
3.93967	49
3.94333	47
3.94700	47
3.95067	50
3.95433	53
3.95800	55
3.96167	56
3.96533	56
3.96900	54
3.97267	52
3.97633	51
3.98000	49
3.98367	48
3.98733	45
3.99100	43
3.99467	42
3.99833	42

[Status Trace (Column Oven Temperature)]
Interval(msec)	1000
# of Points	240
Start Time(min)	0.001
End Time(min)	3.984
Intensity Units	
Intensity Multiplier	1
R.Time (min)	Intensity
0.00060	35.06
0.01727	35.06
0.03393	35.06
0.05060	35.05
0.06727	35.03
0.08393	35.04
0.10060	35.05
0.11727	35.04
0.13393	35.03
0.15060	35.01
0.16727	35.00
0.18393	34.99
0.20060	34.98
0.21727	34.98
0.23393	34.98
0.25060	34.98
0.26727	34.99
0.28393	35.01
0.30060	35.01
0.31727	34.99
0.33393	34.98
0.35060	34.97
0.36727	34.96
0.38393	34.96
0.40060	34.95
0.41727	34.97
0.43393	34.97
0.45060	34.97
0.46727	34.97
0.48393	34.96
0.50060	34.97
0.51727	34.97
0.53393	34.98
0.55060	34.98
0.56727	34.98
0.58393	34.98
0.60060	34.98
0.61727	34.98
0.63393	34.99
0.65060	34.99
0.66727	34.98
0.68393	34.98
0.70060	34.97
0.71727	34.96
0.73393	34.96
0.75060	34.96
0.76727	34.96
0.78393	34.96
0.80060	34.96
0.81727	34.97
0.83393	34.97
0.85060	34.99
0.86727	34.98
0.88393	34.99
0.90060	34.98
0.91727	34.99
0.93393	35.00
0.95060	35.00
0.96727	34.99
0.98393	34.99
1.00060	34.98
1.01727	34.98
1.03393	34.98
1.05060	34.97
1.06727	34.97
1.08393	34.98
1.10060	34.99
1.11727	34.99
1.13393	34.98
1.15060	34.97
1.16727	34.99
1.18393	35.00
1.20060	35.00
1.21727	34.99
1.23393	35.00
1.25060	35.00
1.26727	35.00
1.28393	34.99
1.30060	34.98
1.31727	34.97
1.33393	34.97
1.35060	34.96
1.36727	34.97
1.38393	34.96
1.40060	34.99
1.41727	35.01
1.43393	35.03
1.45060	35.03
1.46727	35.04
1.48393	35.06
1.50060	35.06
1.51727	35.06
1.53393	35.06
1.55060	35.04
1.56727	35.04
1.58393	35.03
1.60060	35.07
1.61727	35.15
1.63393	35.31
1.65060	35.52
1.66727	35.79
1.68393	36.16
1.70060	36.51
1.71727	36.86
1.73393	37.20
1.75060	37.53
1.76727	37.86
1.78393	38.20
1.80060	38.53
1.81727	38.86
1.83393	39.19
1.85060	39.53
1.86727	39.85
1.88393	40.19
1.90060	40.52
1.91727	40.82
1.93393	41.15
1.95060	41.47
1.96727	41.79
1.98393	42.11
2.00060	42.44
2.01727	42.77
2.03393	43.10
2.05060	43.42
2.06727	43.76
2.08393	44.07
2.10060	44.41
2.11727	44.73
2.13393	45.04
2.15060	45.36
2.16727	45.70
2.18393	46.01
2.20060	46.33
2.21727	46.70
2.23393	47.04
2.25060	47.35
2.26727	47.65
2.28393	48.02
2.30060	48.37
2.31727	48.68
2.33393	49.01
2.35060	49.31
2.36727	49.59
2.38393	49.73
2.40060	49.76
2.41727	49.74
2.43393	49.76
2.45060	49.76
2.46727	49.75
2.48393	49.76
2.50060	49.77
2.51727	49.78
2.53393	49.79
2.55060	49.79
2.56727	49.81
2.58393	49.83
2.60060	49.82
2.61727	49.82
2.63393	49.83
2.65060	49.84
2.66727	49.85
2.68393	49.87
2.70060	49.86
2.71727	49.84
2.73393	49.85
2.75060	49.90
2.76727	49.93
2.78393	49.95
2.80060	49.94
2.81727	49.92
2.83393	49.91
2.85060	49.89
2.86727	49.90
2.88393	49.92
2.90060	49.95
2.91727	49.96
2.93393	49.98
2.95060	50.00
2.96727	50.01
2.98393	50.01
3.00060	50.02
3.01727	50.04
3.03393	50.06
3.05060	50.07
3.06727	50.08
3.08393	50.09
3.10060	50.09
3.11727	50.09
3.13393	50.09
3.15060	50.09
3.16727	50.10
3.18393	50.10
3.20060	50.11
3.21727	50.10
3.23393	50.09
3.25060	50.09
3.26727	50.08
3.28393	50.07
3.30060	50.06
3.31727	50.06
3.33393	50.05
3.35060	50.04
3.36727	50.04
3.38393	50.04
3.40060	50.04
3.41727	50.04
3.43393	50.03
3.45060	50.03
3.46727	50.03
3.48393	50.05
3.50060	50.05
3.51727	50.06
3.53393	50.07
3.55060	50.08
3.56727	50.08
3.58393	50.08
3.60060	50.07
3.61727	50.07
3.63393	50.06
3.65060	50.07
3.66727	50.07
3.68393	50.06
3.70060	50.06
3.71727	50.05
3.73393	50.06
3.75060	50.06
3.76727	50.06
3.78393	50.07
3.80060	50.08
3.81727	50.07
3.83393	50.08
3.85060	50.09
3.86727	50.09
3.88393	50.09
3.90060	50.09
3.91727	50.08
3.93393	50.09
3.95060	50.08
3.96727	50.08
3.98393	50.08

[Status Trace (Injection Unit Temperature)]
Interval(msec)	1000
# of Points	240
Start Time(min)	0.001
End Time(min)	3.984
Intensity Units	
Intensity Multiplier	1
R.Time (min)	Intensity
0.00060	99.99
0.01727	99.99
0.03393	99.99
0.05060	99.98
0.06727	99.99
0.08393	99.99
0.10060	99.99
0.11727	99.99
0.13393	99.99
0.15060	99.99
0.16727	99.99
0.18393	99.99
0.20060	99.99
0.21727	99.99
0.23393	99.99
0.25060	99.99
0.26727	99.99
0.28393	99.99
0.30060	99.99
0.31727	99.99
0.33393	99.99
0.35060	99.99
0.36727	99.99
0.38393	99.99
0.40060	99.99
0.41727	99.99
0.43393	99.99
0.45060	99.99
0.46727	99.99
0.48393	99.99
0.50060	99.99
0.51727	100.00
0.53393	99.99
0.55060	99.99
0.56727	99.99
0.58393	99.99
0.60060	99.99
0.61727	99.99
0.63393	99.99
0.65060	99.99
0.66727	99.99
0.68393	99.98
0.70060	99.99
0.71727	99.99
0.73393	99.99
0.75060	99.99
0.76727	99.99
0.78393	99.99
0.80060	99.99
0.81727	99.99
0.83393	99.99
0.85060	99.98
0.86727	99.99
0.88393	99.99
0.90060	99.99
0.91727	99.98
0.93393	99.98
0.95060	99.99
0.96727	99.99
0.98393	99.98
1.00060	99.99
1.01727	99.99
1.03393	99.99
1.05060	99.99
1.06727	99.99
1.08393	99.98
1.10060	99.99
1.11727	99.98
1.13393	99.99
1.15060	99.99
1.16727	99.99
1.18393	99.99
1.20060	99.99
1.21727	99.98
1.23393	99.99
1.25060	99.99
1.26727	99.99
1.28393	99.98
1.30060	99.99
1.31727	99.99
1.33393	99.99
1.35060	99.99
1.36727	99.99
1.38393	99.99
1.40060	99.99
1.41727	99.99
1.43393	99.99
1.45060	99.99
1.46727	99.99
1.48393	99.99
1.50060	99.99
1.51727	99.99
1.53393	99.99
1.55060	99.99
1.56727	99.99
1.58393	99.99
1.60060	99.99
1.61727	99.99
1.63393	99.99
1.65060	100.00
1.66727	100.00
1.68393	99.99
1.70060	99.99
1.71727	99.99
1.73393	99.99
1.75060	100.00
1.76727	99.99
1.78393	99.99
1.80060	100.00
1.81727	100.00
1.83393	100.00
1.85060	99.99
1.86727	99.99
1.88393	100.00
1.90060	99.99
1.91727	99.99
1.93393	99.99
1.95060	99.99
1.96727	99.99
1.98393	99.99
2.00060	99.99
2.01727	99.99
2.03393	99.99
2.05060	99.99
2.06727	99.99
2.08393	99.99
2.10060	99.99
2.11727	99.98
2.13393	99.98
2.15060	99.98
2.16727	99.98
2.18393	99.98
2.20060	99.98
2.21727	99.98
2.23393	99.98
2.25060	99.98
2.26727	99.98
2.28393	99.98
2.30060	99.98
2.31727	99.98
2.33393	99.97
2.35060	99.97
2.36727	99.97
2.38393	99.97
2.40060	99.97
2.41727	99.97
2.43393	99.97
2.45060	99.97
2.46727	99.97
2.48393	99.97
2.50060	99.97
2.51727	99.97
2.53393	99.97
2.55060	99.97
2.56727	99.97
2.58393	99.98
2.60060	99.97
2.61727	99.98
2.63393	99.97
2.65060	99.97
2.66727	99.98
2.68393	99.98
2.70060	99.98
2.71727	99.98
2.73393	99.98
2.75060	99.98
2.76727	99.99
2.78393	99.98
2.80060	99.99
2.81727	99.98
2.83393	99.99
2.85060	99.99
2.86727	100.00
2.88393	100.00
2.90060	99.99
2.91727	99.99
2.93393	100.00
2.95060	100.00
2.96727	100.00
2.98393	100.00
3.00060	100.00
3.01727	100.01
3.03393	100.01
3.05060	100.01
3.06727	100.01
3.08393	100.01
3.10060	100.02
3.11727	100.01
3.13393	100.02
3.15060	100.02
3.16727	100.02
3.18393	100.02
3.20060	100.02
3.21727	100.02
3.23393	100.03
3.25060	100.03
3.26727	100.03
3.28393	100.03
3.30060	100.03
3.31727	100.03
3.33393	100.03
3.35060	100.04
3.36727	100.03
3.38393	100.03
3.40060	100.04
3.41727	100.04
3.43393	100.04
3.45060	100.04
3.46727	100.04
3.48393	100.04
3.50060	100.04
3.51727	100.04
3.53393	100.04
3.55060	100.04
3.56727	100.04
3.58393	100.05
3.60060	100.04
3.61727	100.05
3.63393	100.04
3.65060	100.05
3.66727	100.05
3.68393	100.04
3.70060	100.04
3.71727	100.05
3.73393	100.05
3.75060	100.05
3.76727	100.05
3.78393	100.05
3.80060	100.05
3.81727	100.05
3.83393	100.05
3.85060	100.05
3.86727	100.05
3.88393	100.05
3.90060	100.05
3.91727	100.05
3.93393	100.05
3.95060	100.05
3.96727	100.05
3.98393	100.05

[Status Trace (Carrier Gas Pressure)]
Interval(msec)	1000
# of Points	240
Start Time(min)	0.001
End Time(min)	3.984
Intensity Units	
Intensity Multiplier	1
R.Time (min)	Intensity
0.00060	58.00
0.01727	56.69
0.03393	56.01
0.05060	58.21
0.06727	59.92
0.08393	58.47
0.10060	57.97
0.11727	58.00
0.13393	58.01
0.15060	58.01
0.16727	58.00
0.18393	58.00
0.20060	58.00
0.21727	58.00
0.23393	58.00
0.25060	58.00
0.26727	58.00
0.28393	58.00
0.30060	58.00
0.31727	58.00
0.33393	58.00
0.35060	58.00
0.36727	58.00
0.38393	58.00
0.40060	58.00
0.41727	58.00
0.43393	58.00
0.45060	58.00
0.46727	58.00
0.48393	58.00
0.50060	58.00
0.51727	58.00
0.53393	58.00
0.55060	58.00
0.56727	58.00
0.58393	58.00
0.60060	58.00
0.61727	58.00
0.63393	58.00
0.65060	58.00
0.66727	58.00
0.68393	58.00
0.70060	58.00
0.71727	58.00
0.73393	58.00
0.75060	58.00
0.76727	58.00
0.78393	58.00
0.80060	58.00
0.81727	58.00
0.83393	58.00
0.85060	58.00
0.86727	58.00
0.88393	58.00
0.90060	58.00
0.91727	58.00
0.93393	58.00
0.95060	58.00
0.96727	58.00
0.98393	58.00
1.00060	58.00
1.01727	58.00
1.03393	58.00
1.05060	58.00
1.06727	58.00
1.08393	58.00
1.10060	58.00
1.11727	58.00
1.13393	58.00
1.15060	58.00
1.16727	58.00
1.18393	58.00
1.20060	58.00
1.21727	58.00
1.23393	58.00
1.25060	58.00
1.26727	58.00
1.28393	58.00
1.30060	58.00
1.31727	58.00
1.33393	58.00
1.35060	58.00
1.36727	58.00
1.38393	58.00
1.40060	58.00
1.41727	58.00
1.43393	58.00
1.45060	58.00
1.46727	58.00
1.48393	58.00
1.50060	58.00
1.51727	58.00
1.53393	58.00
1.55060	58.00
1.56727	58.00
1.58393	58.00
1.60060	58.00
1.61727	58.00
1.63393	58.00
1.65060	58.00
1.66727	58.00
1.68393	58.01
1.70060	58.00
1.71727	58.00
1.73393	58.00
1.75060	58.00
1.76727	58.00
1.78393	58.00
1.80060	58.00
1.81727	58.00
1.83393	58.00
1.85060	58.00
1.86727	58.00
1.88393	58.00
1.90060	58.00
1.91727	58.00
1.93393	58.00
1.95060	58.00
1.96727	58.00
1.98393	58.00
2.00060	58.00
2.01727	58.00
2.03393	58.00
2.05060	58.00
2.06727	58.00
2.08393	58.00
2.10060	58.00
2.11727	58.00
2.13393	58.00
2.15060	58.00
2.16727	58.00
2.18393	58.00
2.20060	58.00
2.21727	58.00
2.23393	58.00
2.25060	58.00
2.26727	58.00
2.28393	58.00
2.30060	58.00
2.31727	58.00
2.33393	58.00
2.35060	58.00
2.36727	58.00
2.38393	57.99
2.40060	57.99
2.41727	57.99
2.43393	58.00
2.45060	58.00
2.46727	58.00
2.48393	58.00
2.50060	58.00
2.51727	57.99
2.53393	57.99
2.55060	58.00
2.56727	58.00
2.58393	58.00
2.60060	58.00
2.61727	58.00
2.63393	58.00
2.65060	58.00
2.66727	58.00
2.68393	58.00
2.70060	58.00
2.71727	58.00
2.73393	58.00
2.75060	58.00
2.76727	58.00
2.78393	58.00
2.80060	58.00
2.81727	58.00
2.83393	58.00
2.85060	58.00
2.86727	58.00
2.88393	58.00
2.90060	58.00
2.91727	58.00
2.93393	58.00
2.95060	58.00
2.96727	58.00
2.98393	58.00
3.00060	58.00
3.01727	58.00
3.03393	58.00
3.05060	58.00
3.06727	58.00
3.08393	58.00
3.10060	58.00
3.11727	58.00
3.13393	58.00
3.15060	58.00
3.16727	58.00
3.18393	58.00
3.20060	58.00
3.21727	58.00
3.23393	58.00
3.25060	58.00
3.26727	58.00
3.28393	58.00
3.30060	58.00
3.31727	58.00
3.33393	58.00
3.35060	58.00
3.36727	58.00
3.38393	58.00
3.40060	58.00
3.41727	58.00
3.43393	58.00
3.45060	58.00
3.46727	58.00
3.48393	58.00
3.50060	58.00
3.51727	58.00
3.53393	58.00
3.55060	58.00
3.56727	58.00
3.58393	58.00
3.60060	58.00
3.61727	58.00
3.63393	58.00
3.65060	58.00
3.66727	58.00
3.68393	58.00
3.70060	58.00
3.71727	58.00
3.73393	58.00
3.75060	58.00
3.76727	58.00
3.78393	58.00
3.80060	58.00
3.81727	58.00
3.83393	58.00
3.85060	58.00
3.86727	58.00
3.88393	58.00
3.90060	58.00
3.91727	58.00
3.93393	58.00
3.95060	58.00
3.96727	58.00
3.98393	58.00

[Status Trace (Carrier Gas Flow)]
Interval(msec)	1000
# of Points	240
Start Time(min)	0.001
End Time(min)	3.984
Intensity Units	
Intensity Multiplier	1
R.Time (min)	Intensity
0.00060	34.53
0.01727	33.79
0.03393	34.54
0.05060	34.55
0.06727	34.51
0.08393	34.51
0.10060	34.52
0.11727	34.52
0.13393	34.52
0.15060	34.52
0.16727	34.52
0.18393	34.52
0.20060	34.52
0.21727	34.52
0.23393	34.52
0.25060	34.52
0.26727	34.52
0.28393	34.52
0.30060	34.52
0.31727	34.52
0.33393	34.52
0.35060	34.52
0.36727	34.52
0.38393	34.52
0.40060	34.52
0.41727	34.52
0.43393	34.52
0.45060	34.52
0.46727	34.52
0.48393	34.52
0.50060	34.52
0.51727	34.52
0.53393	34.52
0.55060	34.52
0.56727	34.52
0.58393	34.52
0.60060	34.52
0.61727	34.52
0.63393	34.52
0.65060	34.52
0.66727	34.52
0.68393	34.52
0.70060	34.52
0.71727	34.52
0.73393	34.52
0.75060	34.52
0.76727	34.52
0.78393	34.52
0.80060	34.52
0.81727	34.52
0.83393	34.52
0.85060	34.51
0.86727	34.52
0.88393	34.52
0.90060	34.52
0.91727	34.52
0.93393	34.51
0.95060	34.52
0.96727	34.51
0.98393	34.52
1.00060	34.52
1.01727	34.51
1.03393	34.52
1.05060	34.50
1.06727	34.52
1.08393	34.52
1.10060	34.52
1.11727	34.50
1.13393	34.52
1.15060	34.52
1.16727	34.52
1.18393	34.52
1.20060	34.52
1.21727	34.52
1.23393	34.52
1.25060	34.52
1.26727	34.52
1.28393	34.52
1.30060	34.52
1.31727	34.52
1.33393	34.52
1.35060	34.52
1.36727	34.52
1.38393	34.52
1.40060	34.54
1.41727	34.53
1.43393	34.52
1.45060	34.52
1.46727	34.52
1.48393	34.52
1.50060	34.52
1.51727	34.52
1.53393	34.52
1.55060	34.52
1.56727	34.52
1.58393	34.52
1.60060	34.52
1.61727	34.51
1.63393	34.52
1.65060	34.51
1.66727	34.52
1.68393	34.52
1.70060	34.51
1.71727	34.51
1.73393	34.50
1.75060	34.52
1.76727	34.52
1.78393	34.52
1.80060	34.52
1.81727	34.52
1.83393	34.52
1.85060	34.52
1.86727	34.52
1.88393	34.52
1.90060	34.52
1.91727	34.52
1.93393	34.52
1.95060	34.53
1.96727	34.52
1.98393	34.53
2.00060	34.51
2.01727	34.51
2.03393	34.52
2.05060	34.52
2.06727	34.51
2.08393	34.52
2.10060	34.52
2.11727	34.52
2.13393	34.51
2.15060	34.52
2.16727	34.52
2.18393	34.52
2.20060	34.52
2.21727	34.52
2.23393	34.52
2.25060	34.52
2.26727	34.52
2.28393	34.52
2.30060	34.51
2.31727	34.52
2.33393	34.52
2.35060	34.50
2.36727	34.52
2.38393	34.52
2.40060	34.52
2.41727	34.52
2.43393	34.52
2.45060	34.52
2.46727	34.52
2.48393	34.52
2.50060	34.52
2.51727	34.52
2.53393	34.52
2.55060	34.51
2.56727	34.52
2.58393	34.52
2.60060	34.52
2.61727	34.52
2.63393	34.52
2.65060	34.52
2.66727	34.52
2.68393	34.52
2.70060	34.52
2.71727	34.52
2.73393	34.53
2.75060	34.52
2.76727	34.52
2.78393	34.52
2.80060	34.52
2.81727	34.52
2.83393	34.52
2.85060	34.52
2.86727	34.52
2.88393	34.52
2.90060	34.52
2.91727	34.52
2.93393	34.52
2.95060	34.52
2.96727	34.52
2.98393	34.52
3.00060	34.52
3.01727	34.52
3.03393	34.52
3.05060	34.52
3.06727	34.52
3.08393	34.52
3.10060	34.52
3.11727	34.52
3.13393	34.52
3.15060	34.52
3.16727	34.52
3.18393	34.52
3.20060	34.52
3.21727	34.52
3.23393	34.52
3.25060	34.52
3.26727	34.52
3.28393	34.52
3.30060	34.52
3.31727	34.52
3.33393	34.52
3.35060	34.52
3.36727	34.52
3.38393	34.52
3.40060	34.52
3.41727	34.52
3.43393	34.52
3.45060	34.52
3.46727	34.52
3.48393	34.52
3.50060	34.52
3.51727	34.52
3.53393	34.52
3.55060	34.52
3.56727	34.52
3.58393	34.52
3.60060	34.52
3.61727	34.52
3.63393	34.52
3.65060	34.52
3.66727	34.52
3.68393	34.52
3.70060	34.52
3.71727	34.52
3.73393	34.52
3.75060	34.52
3.76727	34.52
3.78393	34.52
3.80060	34.52
3.81727	34.52
3.83393	34.52
3.85060	34.52
3.86727	34.51
3.88393	34.52
3.90060	34.52
3.91727	34.52
3.93393	34.52
3.95060	34.52
3.96727	34.50
3.98393	34.53

[Status Trace (Column Flow)]
Interval(msec)	1000
# of Points	240
Start Time(min)	0.001
End Time(min)	3.984
Intensity Units	
Intensity Multiplier	1
R.Time (min)	Intensity
0.00060	5.50
0.01727	5.35
0.03393	5.27
0.05060	5.53
0.06727	5.73
0.08393	5.56
0.10060	5.50
0.11727	5.50
0.13393	5.50
0.15060	5.50
0.16727	5.50
0.18393	5.50
0.20060	5.50
0.21727	5.50
0.23393	5.50
0.25060	5.50
0.26727	5.50
0.28393	5.50
0.30060	5.50
0.31727	5.50
0.33393	5.50
0.35060	5.50
0.36727	5.50
0.38393	5.51
0.40060	5.51
0.41727	5.50
0.43393	5.50
0.45060	5.50
0.46727	5.50
0.48393	5.50
0.50060	5.50
0.51727	5.50
0.53393	5.50
0.55060	5.50
0.56727	5.50
0.58393	5.50
0.60060	5.50
0.61727	5.50
0.63393	5.50
0.65060	5.50
0.66727	5.50
0.68393	5.50
0.70060	5.50
0.71727	5.51
0.73393	5.50
0.75060	5.51
0.76727	5.51
0.78393	5.51
0.80060	5.50
0.81727	5.50
0.83393	5.50
0.85060	5.50
0.86727	5.50
0.88393	5.50
0.90060	5.50
0.91727	5.50
0.93393	5.50
0.95060	5.50
0.96727	5.50
0.98393	5.50
1.00060	5.50
1.01727	5.50
1.03393	5.50
1.05060	5.50
1.06727	5.50
1.08393	5.50
1.10060	5.50
1.11727	5.50
1.13393	5.50
1.15060	5.50
1.16727	5.50
1.18393	5.50
1.20060	5.50
1.21727	5.50
1.23393	5.50
1.25060	5.50
1.26727	5.50
1.28393	5.50
1.30060	5.50
1.31727	5.50
1.33393	5.50
1.35060	5.50
1.36727	5.50
1.38393	5.51
1.40060	5.50
1.41727	5.50
1.43393	5.50
1.45060	5.50
1.46727	5.50
1.48393	5.50
1.50060	5.50
1.51727	5.50
1.53393	5.50
1.55060	5.50
1.56727	5.50
1.58393	5.50
1.60060	5.50
1.61727	5.50
1.63393	5.49
1.65060	5.49
1.66727	5.48
1.68393	5.47
1.70060	5.46
1.71727	5.45
1.73393	5.44
1.75060	5.43
1.76727	5.42
1.78393	5.40
1.80060	5.40
1.81727	5.38
1.83393	5.37
1.85060	5.37
1.86727	5.35
1.88393	5.34
1.90060	5.34
1.91727	5.33
1.93393	5.32
1.95060	5.31
1.96727	5.30
1.98393	5.29
2.00060	5.28
2.01727	5.27
2.03393	5.26
2.05060	5.25
2.06727	5.24
2.08393	5.23
2.10060	5.22
2.11727	5.21
2.13393	5.20
2.15060	5.19
2.16727	5.18
2.18393	5.17
2.20060	5.17
2.21727	5.15
2.23393	5.14
2.25060	5.14
2.26727	5.13
2.28393	5.12
2.30060	5.11
2.31727	5.10
2.33393	5.09
2.35060	5.08
2.36727	5.07
2.38393	5.07
2.40060	5.07
2.41727	5.07
2.43393	5.07
2.45060	5.07
2.46727	5.07
2.48393	5.07
2.50060	5.07
2.51727	5.07
2.53393	5.07
2.55060	5.07
2.56727	5.07
2.58393	5.07
2.60060	5.07
2.61727	5.07
2.63393	5.07
2.65060	5.07
2.66727	5.07
2.68393	5.07
2.70060	5.07
2.71727	5.07
2.73393	5.07
2.75060	5.07
2.76727	5.06
2.78393	5.06
2.80060	5.06
2.81727	5.06
2.83393	5.06
2.85060	5.07
2.86727	5.06
2.88393	5.06
2.90060	5.06
2.91727	5.06
2.93393	5.06
2.95060	5.06
2.96727	5.06
2.98393	5.06
3.00060	5.06
3.01727	5.06
3.03393	5.06
3.05060	5.06
3.06727	5.06
3.08393	5.06
3.10060	5.06
3.11727	5.06
3.13393	5.06
3.15060	5.06
3.16727	5.06
3.18393	5.06
3.20060	5.06
3.21727	5.06
3.23393	5.06
3.25060	5.06
3.26727	5.06
3.28393	5.06
3.30060	5.06
3.31727	5.06
3.33393	5.06
3.35060	5.06
3.36727	5.06
3.38393	5.06
3.40060	5.06
3.41727	5.06
3.43393	5.06
3.45060	5.06
3.46727	5.06
3.48393	5.06
3.50060	5.06
3.51727	5.06
3.53393	5.06
3.55060	5.06
3.56727	5.06
3.58393	5.06
3.60060	5.06
3.61727	5.06
3.63393	5.06
3.65060	5.06
3.66727	5.06
3.68393	5.06
3.70060	5.06
3.71727	5.06
3.73393	5.06
3.75060	5.06
3.76727	5.06
3.78393	5.06
3.80060	5.06
3.81727	5.06
3.83393	5.06
3.85060	5.06
3.86727	5.06
3.88393	5.06
3.90060	5.06
3.91727	5.06
3.93393	5.06
3.95060	5.06
3.96727	5.06
3.98393	5.06

[Status Trace (Linear Velocity)]
Interval(msec)	1000
# of Points	240
Start Time(min)	0.001
End Time(min)	3.984
Intensity Units	
Intensity Multiplier	1
R.Time (min)	Intensity
0.00060	39.01
0.01727	38.15
0.03393	37.70
0.05060	39.14
0.06727	40.26
0.08393	39.32
0.10060	38.99
0.11727	39.01
0.13393	39.02
0.15060	39.02
0.16727	39.02
0.18393	39.02
0.20060	39.02
0.21727	39.02
0.23393	39.02
0.25060	39.02
0.26727	39.01
0.28393	39.01
0.30060	39.01
0.31727	39.01
0.33393	39.02
0.35060	39.01
0.36727	39.02
0.38393	39.02
0.40060	39.02
0.41727	39.02
0.43393	39.02
0.45060	39.02
0.46727	39.02
0.48393	39.02
0.50060	39.02
0.51727	39.02
0.53393	39.01
0.55060	39.01
0.56727	39.02
0.58393	39.01
0.60060	39.01
0.61727	39.01
0.63393	39.01
0.65060	39.01
0.66727	39.01
0.68393	39.02
0.70060	39.02
0.71727	39.02
0.73393	39.02
0.75060	39.02
0.76727	39.02
0.78393	39.02
0.80060	39.02
0.81727	39.02
0.83393	39.01
0.85060	39.01
0.86727	39.01
0.88393	39.01
0.90060	39.01
0.91727	39.01
0.93393	39.01
0.95060	39.01
0.96727	39.01
0.98393	39.01
1.00060	39.01
1.01727	39.01
1.03393	39.01
1.05060	39.01
1.06727	39.02
1.08393	39.01
1.10060	39.01
1.11727	39.01
1.13393	39.01
1.15060	39.02
1.16727	39.01
1.18393	39.01
1.20060	39.01
1.21727	39.01
1.23393	39.01
1.25060	39.01
1.26727	39.01
1.28393	39.01
1.30060	39.01
1.31727	39.02
1.33393	39.02
1.35060	39.02
1.36727	39.02
1.38393	39.02
1.40060	39.01
1.41727	39.01
1.43393	39.01
1.45060	39.01
1.46727	39.01
1.48393	39.01
1.50060	39.01
1.51727	39.01
1.53393	39.01
1.55060	39.01
1.56727	39.01
1.58393	39.01
1.60060	39.01
1.61727	39.00
1.63393	38.99
1.65060	38.97
1.66727	38.94
1.68393	38.91
1.70060	38.87
1.71727	38.83
1.73393	38.80
1.75060	38.77
1.76727	38.74
1.78393	38.71
1.80060	38.68
1.81727	38.64
1.83393	38.61
1.85060	38.59
1.86727	38.55
1.88393	38.52
1.90060	38.49
1.91727	38.46
1.93393	38.43
1.95060	38.40
1.96727	38.37
1.98393	38.34
2.00060	38.31
2.01727	38.28
2.03393	38.25
2.05060	38.22
2.06727	38.19
2.08393	38.16
2.10060	38.13
2.11727	38.10
2.13393	38.07
2.15060	38.05
2.16727	38.01
2.18393	37.98
2.20060	37.96
2.21727	37.92
2.23393	37.89
2.25060	37.87
2.26727	37.84
2.28393	37.81
2.30060	37.78
2.31727	37.74
2.33393	37.72
2.35060	37.69
2.36727	37.66
2.38393	37.65
2.40060	37.64
2.41727	37.65
2.43393	37.65
2.45060	37.65
2.46727	37.65
2.48393	37.65
2.50060	37.65
2.51727	37.64
2.53393	37.64
2.55060	37.65
2.56727	37.65
2.58393	37.64
2.60060	37.64
2.61727	37.64
2.63393	37.64
2.65060	37.64
2.66727	37.64
2.68393	37.64
2.70060	37.64
2.71727	37.64
2.73393	37.64
2.75060	37.64
2.76727	37.63
2.78393	37.63
2.80060	37.63
2.81727	37.64
2.83393	37.64
2.85060	37.64
2.86727	37.64
2.88393	37.64
2.90060	37.63
2.91727	37.63
2.93393	37.63
2.95060	37.63
2.96727	37.63
2.98393	37.63
3.00060	37.63
3.01727	37.63
3.03393	37.62
3.05060	37.62
3.06727	37.62
3.08393	37.62
3.10060	37.62
3.11727	37.62
3.13393	37.62
3.15060	37.62
3.16727	37.62
3.18393	37.62
3.20060	37.62
3.21727	37.62
3.23393	37.62
3.25060	37.62
3.26727	37.62
3.28393	37.62
3.30060	37.62
3.31727	37.62
3.33393	37.62
3.35060	37.62
3.36727	37.63
3.38393	37.63
3.40060	37.63
3.41727	37.63
3.43393	37.63
3.45060	37.63
3.46727	37.63
3.48393	37.62
3.50060	37.62
3.51727	37.62
3.53393	37.62
3.55060	37.62
3.56727	37.62
3.58393	37.62
3.60060	37.62
3.61727	37.62
3.63393	37.62
3.65060	37.62
3.66727	37.62
3.68393	37.62
3.70060	37.62
3.71727	37.62
3.73393	37.62
3.75060	37.62
3.76727	37.62
3.78393	37.62
3.80060	37.62
3.81727	37.62
3.83393	37.62
3.85060	37.62
3.86727	37.62
3.88393	37.62
3.90060	37.62
3.91727	37.62
3.93393	37.62
3.95060	37.62
3.96727	37.62
3.98393	37.62

