[Header]
Application Name	LabSolutions
Version	5.110
Data File Name	C:\Users\User\Desktop\GC Analyses\Jack\UIC Prairie Sampling\8.12.22\220812_100.gcd
Output Date	10/14/2022
Output Time	2:33:56 PM

[File Information]
Type	Data File
Generated	10/13/2022 4:08:33 PM
Generated by	System Administrator
Modified	10/13/2022 4:12:55 PM
Modified by	System Administrator

[Sample Information]
Operator Name	System Administrator
Acquired	10/13/2022 4:08:54 PM
Sample Type	1:Standard
Level	1
Sample Name	220812_UICPrairie
Sample ID	220812_UICPrairie
ISTD Amount1	1
ISTD Amount2	1
ISTD Amount3	1
ISTD Amount4	1
ISTD Amount5	1
ISTD Amount6	1
ISTD Amount7	1
ISTD Amount8	1
ISTD Amount9	1
ISTD Amount10	1
ISTD Amount11	1
ISTD Amount12	1
ISTD Amount13	1
ISTD Amount14	1
ISTD Amount15	1
ISTD Amount16	1
ISTD Amount17	1
ISTD Amount18	1
ISTD Amount19	1
ISTD Amount20	1
ISTD Amount21	1
ISTD Amount22	1
ISTD Amount23	1
ISTD Amount24	1
ISTD Amount25	1
ISTD Amount26	1
ISTD Amount27	1
ISTD Amount28	1
ISTD Amount29	1
ISTD Amount30	1
ISTD Amount31	1
ISTD Amount32	1
Sample Amount	1
Dilution Factor	1
Vial#	1
Injection Volume	1
Injection Count	1
Bar Code	

[Original Files]
Data File	C:\Users\User\Desktop\GC Analyses\Jack\UIC Prairie Sampling\8.12.22\220812_100.gcd
Method File	C:\LabSolutions\Data\GHG_4min_2022\ghg3_togas_w_acet_4 min_new_int.gcm
Batch File	
Report Format File	c:\LabSolutions\System\DEFAULT.lsr

[File Description]


[Configuration]
Instrument Name	C0B7VH3-Instrument1
Instrument #	1
Line #	1
# of Detectors	3
Detector ID	DET#1	DET#2	DET#3
Detector Name	FID	PTCD	ECD
# of Channels	1	1	1

[Peak Table(Ch1)]
# of Peaks	3
Peak#	R.Time	I.Time	F.Time	Area	Height	A/H	Conc.	Mark	ID#	Name	k'	Plate #	Plate Ht.	Tailing	Resolution	Sep.Factor	Area Ratio	Height Ratio	Conc. %	Norm Conc.
1	1.472	1.439	1.534	4540	1594	2.848	100.000	   	1	CO	0.000	5865	25.575	1.549	0.000	0.000	0	0	16.667	16.667
2	1.571	1.534	1.644	19773	10056	1.966	100.000	 V 	2	CH4	0.067	11532	13.007	1.253	1.462	0.000	0	0	16.667	16.667
3	2.000	1.952	2.293	2113271	1029681	2.052	400.000	   	3	CO2	0.359	17768	8.442	1.291	7.238	5.333	0	0	66.667	66.667

[Peak Table(Ch2)]
# of Peaks	0

[Peak Table(Ch3)]
# of Peaks	3
Peak#	R.Time	I.Time	F.Time	Area	Height	A/H	Conc.	Mark	ID#	Name	k'	Plate #	Plate Ht.	Tailing	Resolution	Sep.Factor	Area Ratio	Height Ratio	Conc. %	Norm Conc.
1	2.458	2.216	2.499	2309	292	7.902	0.000	   			0.000	902	166.249	0.000	0.000	0.000	0	0	0.000	0.000
2	2.598	2.499	2.653	2246	327	6.868	0.000	 V 			0.057	1160	129.270	0.000	0.441	0.000	0	0	0.000	0.000
3	2.887	2.664	3.287	65672	16011	4.102	1.000	   	1	N2O	0.175	12356	12.140	1.593	1.417	3.079	0	0	100.000	100.000

[Compound Results(Ch1)]
# of IDs	6
ID#	Name	R.Time	Area	Height	Conc.	Curve	3rd	2nd	1st	Constant	Area Ratio	Height Ratio	Conc. %	Norm Conc.
1	CO	1.472	4540	1594	100.000	Linear	0.000000e+00	0.000000e+00	4.540480e+001	0.000000e+00	0	0	16.667	16.667
2	CH4	1.571	19773	10056	100.000	Linear	0.000000e+00	0.000000e+00	1.977275e+002	0.000000e+00	0	0	16.667	16.667
3	CO2	2.000	2113271	1029681	400.000	Linear	0.000000e+00	0.000000e+00	5.283177e+003	0.000000e+00	0	0	66.667	66.667
4	Ethylene	0.000	0	0	0.000	Linear	0.000000e+00	0.000000e+00	0.000000e+00	0.000000e+00	0	0	0.000	0.000
5	Acetylene	0.000	0	0	0.000	Linear	0.000000e+00	0.000000e+00	0.000000e+00	0.000000e+00	0	0	0.000	0.000
6	Ethane	0.000	0	0	0.000	Linear	0.000000e+00	0.000000e+00	0.000000e+00	0.000000e+00	0	0	0.000	0.000

[Compound Results(Ch2)]
# of IDs	5
ID#	Name	R.Time	Area	Height	Conc.	Curve	3rd	2nd	1st	Constant	Area Ratio	Height Ratio	Conc. %	Norm Conc.
1	Hydrogen	0.000	0	0	0.000	Linear	0.000000e+00	0.000000e+00	0.000000e+00	0.000000e+00	0	0	0.000	0.000
2	Oxygen	0.000	0	0	0.000	Linear	0.000000e+00	0.000000e+00	0.000000e+00	0.000000e+00	0	0	0.000	0.000
3	Nitrogen	0.000	0	0	0.000	Linear	0.000000e+00	0.000000e+00	0.000000e+00	0.000000e+00	0	0	0.000	0.000
4	Methane	0.000	0	0	0.000	Linear	0.000000e+00	0.000000e+00	0.000000e+00	0.000000e+00	0	0	0.000	0.000
5	Carbon Monoxide	0.000	0	0	0.000	Linear	0.000000e+00	0.000000e+00	0.000000e+00	0.000000e+00	0	0	0.000	0.000

[Compound Results(Ch3)]
# of IDs	2
ID#	Name	R.Time	Area	Height	Conc.	Curve	3rd	2nd	1st	Constant	Area Ratio	Height Ratio	Conc. %	Norm Conc.
1	N2O	2.887	65672	16011	1.000	Linear	0.000000e+00	0.000000e+00	6.567250e+004	0.000000e+00	0	0	100.000	100.000
2	SF6	0.000	0	0	0.000	Linear	0.000000e+00	0.000000e+00	0.000000e+00	0.000000e+00	0	0	0.000	0.000

[Group Results(Ch1)]
# of Groups	0

[Group Results(Ch2)]
# of Groups	0

[Group Results(Ch3)]
# of Groups	0

[Chromatogram (Ch1)]
Interval(msec)	220
# of Points	1091
Start Time(min)	0.002
End Time(min)	3.998
R.Time (min)	Intensity
0.00167	-8
0.00533	-3
0.00900	-0
0.01267	2
0.01633	1
0.02000	-3
0.02367	-9
0.02733	-14
0.03100	-17
0.03467	-18
0.03833	-21
0.04200	-20
0.04567	-12
0.04933	-1
0.05300	8
0.05667	12
0.06033	15
0.06400	18
0.06767	19
0.07133	17
0.07500	12
0.07867	4
0.08233	-2
0.08600	-5
0.08967	-9
0.09333	-13
0.09700	-9
0.10067	-7
0.10433	-8
0.10800	-7
0.11167	-7
0.11533	-12
0.11900	-19
0.12267	-27
0.12633	-35
0.13000	-41
0.13367	-44
0.13733	-44
0.14100	-44
0.14467	-42
0.14833	-35
0.15200	-30
0.15567	-29
0.15933	-25
0.16300	-23
0.16667	-25
0.17033	-29
0.17400	-31
0.17767	-28
0.18133	-23
0.18500	-20
0.18867	-21
0.19233	-22
0.19600	-22
0.19967	-20
0.20333	-19
0.20700	-19
0.21067	-17
0.21433	-16
0.21800	-18
0.22167	-17
0.22533	-13
0.22900	-10
0.23267	-10
0.23633	-14
0.24000	-21
0.24367	-29
0.24733	-34
0.25100	-35
0.25467	-32
0.25833	-28
0.26200	-23
0.26567	-17
0.26933	-13
0.27300	-13
0.27667	-15
0.28033	-14
0.28400	-11
0.28767	-13
0.29133	-17
0.29500	-17
0.29867	-12
0.30233	-6
0.30600	-0
0.30967	4
0.31333	5
0.31700	5
0.32067	-1
0.32433	-9
0.32800	-14
0.33167	-16
0.33533	-18
0.33900	-20
0.34267	-21
0.34633	-21
0.35000	-20
0.35367	-18
0.35733	-14
0.36100	-9
0.36467	-6
0.36833	-2
0.37200	2
0.37567	2
0.37933	-3
0.38300	-7
0.38667	-11
0.39033	-14
0.39400	-18
0.39767	-21
0.40133	-25
0.40500	-29
0.40867	-33
0.41233	-35
0.41600	-35
0.41967	-33
0.42333	-30
0.42700	-26
0.43067	-23
0.43433	-21
0.43800	-20
0.44167	-21
0.44533	-22
0.44900	-25
0.45267	-23
0.45633	-17
0.46000	-11
0.46367	-8
0.46733	-6
0.47100	-6
0.47467	-2
0.47833	-1
0.48200	-9
0.48567	-23
0.48933	-38
0.49300	-52
0.49667	-60
0.50033	-60
0.50400	-58
0.50767	-53
0.51133	-44
0.51500	-36
0.51867	-30
0.52233	-28
0.52600	-24
0.52967	-18
0.53333	-15
0.53700	-12
0.54067	-11
0.54433	-14
0.54800	-18
0.55167	-22
0.55533	-25
0.55900	-27
0.56267	-28
0.56633	-31
0.57000	-36
0.57367	-41
0.57733	-45
0.58100	-46
0.58467	-43
0.58833	-37
0.59200	-33
0.59567	-31
0.59933	-29
0.60300	-29
0.60667	-31
0.61033	-34
0.61400	-38
0.61767	-41
0.62133	-44
0.62500	-46
0.62867	-43
0.63233	-37
0.63600	-34
0.63967	-33
0.64333	-30
0.64700	-29
0.65067	-31
0.65433	-31
0.65800	-29
0.66167	-27
0.66533	-29
0.66900	-28
0.67267	-25
0.67633	-24
0.68000	-22
0.68367	-22
0.68733	-26
0.69100	-33
0.69467	-38
0.69833	-36
0.70200	-33
0.70567	-33
0.70933	-36
0.71300	-40
0.71667	-40
0.72033	-42
0.72400	-45
0.72767	-51
0.73133	-56
0.73500	-59
0.73867	-57
0.74233	-55
0.74600	-57
0.74967	-59
0.75333	-60
0.75700	-58
0.76067	-53
0.76433	-46
0.76800	-39
0.77167	-36
0.77533	-37
0.77900	-40
0.78267	-43
0.78633	-42
0.79000	-38
0.79367	-36
0.79733	-39
0.80100	-43
0.80467	-47
0.80833	-49
0.81200	-52
0.81567	-52
0.81933	-51
0.82300	-49
0.82667	-48
0.83033	-44
0.83400	-41
0.83767	-38
0.84133	-37
0.84500	-41
0.84867	-46
0.85233	-49
0.85600	-51
0.85967	-53
0.86333	-55
0.86700	-53
0.87067	-52
0.87433	-51
0.87800	-52
0.88167	-51
0.88533	-52
0.88900	-54
0.89267	-57
0.89633	-63
0.90000	-67
0.90367	-65
0.90733	-60
0.91100	-56
0.91467	-52
0.91833	-50
0.92200	-49
0.92567	-49
0.92933	-49
0.93300	-47
0.93667	-43
0.94033	-40
0.94400	-35
0.94767	-30
0.95133	-26
0.95500	-26
0.95867	-33
0.96233	-45
0.96600	-60
0.96967	-71
0.97333	-76
0.97700	-77
0.98067	-77
0.98433	-77
0.98800	-77
0.99167	-77
0.99533	-79
0.99900	-82
1.00267	-84
1.00633	-81
1.01000	-73
1.01367	-63
1.01733	-56
1.02100	-53
1.02467	-55
1.02833	-57
1.03200	-60
1.03567	-62
1.03933	-64
1.04300	-67
1.04667	-69
1.05033	-71
1.05400	-72
1.05767	-71
1.06133	-69
1.06500	-69
1.06867	-71
1.07233	-74
1.07600	-76
1.07967	-80
1.08333	-84
1.08700	-84
1.09067	-82
1.09433	-80
1.09800	-79
1.10167	-78
1.10533	-74
1.10900	-65
1.11267	-57
1.11633	-51
1.12000	-50
1.12367	-52
1.12733	-55
1.13100	-56
1.13467	-55
1.13833	-53
1.14200	-54
1.14567	-60
1.14933	-67
1.15300	-72
1.15667	-74
1.16033	-74
1.16400	-71
1.16767	-71
1.17133	-74
1.17500	-77
1.17867	-81
1.18233	-84
1.18600	-83
1.18967	-79
1.19333	-74
1.19700	-68
1.20067	-64
1.20433	-61
1.20800	-60
1.21167	-61
1.21533	-65
1.21900	-70
1.22267	-71
1.22633	-68
1.23000	-65
1.23367	-65
1.23733	-67
1.24100	-72
1.24467	-76
1.24833	-79
1.25200	-84
1.25567	-89
1.25933	-89
1.26300	-85
1.26667	-77
1.27033	-69
1.27400	-65
1.27767	-67
1.28133	-69
1.28500	-73
1.28867	-81
1.29233	-88
1.29600	-94
1.29967	-99
1.30333	-103
1.30700	-106
1.31067	-110
1.31433	-111
1.31800	-105
1.32167	-98
1.32533	-90
1.32900	-85
1.33267	-83
1.33633	-84
1.34000	-84
1.34367	-81
1.34733	-75
1.35100	-71
1.35467	-68
1.35833	-69
1.36200	-71
1.36567	-72
1.36933	-74
1.37300	-74
1.37667	-75
1.38033	-78
1.38400	-82
1.38767	-87
1.39133	-88
1.39500	-90
1.39867	-89
1.40233	-88
1.40600	-87
1.40967	-89
1.41333	-92
1.41700	-96
1.42067	-98
1.42433	-98
1.42800	-99
1.43167	-98
1.43533	-95
1.43900	-83
1.44267	-32
1.44633	133
1.45000	435
1.45367	780
1.45733	1078
1.46100	1294
1.46467	1430
1.46833	1498
1.47200	1509
1.47567	1481
1.47933	1426
1.48300	1345
1.48667	1230
1.49033	1086
1.49400	921
1.49767	751
1.50133	595
1.50500	463
1.50867	353
1.51233	264
1.51600	192
1.51967	132
1.52333	79
1.52700	34
1.53067	1
1.53433	-19
1.53800	-20
1.54167	50
1.54533	373
1.54900	1239
1.55267	2768
1.55633	4705
1.56000	6635
1.56367	8253
1.56733	9404
1.57100	9968
1.57467	9805
1.57833	8885
1.58200	7417
1.58567	5754
1.58933	4208
1.59300	2944
1.59667	1988
1.60033	1303
1.60400	829
1.60767	510
1.61133	299
1.61500	160
1.61867	69
1.62233	11
1.62600	-26
1.62967	-48
1.63333	-64
1.63700	-76
1.64067	-86
1.64433	-91
1.64800	-92
1.65167	-90
1.65533	-89
1.65900	-87
1.66267	-85
1.66633	-85
1.67000	-92
1.67367	-103
1.67733	-112
1.68100	-114
1.68467	-113
1.68833	-108
1.69200	-103
1.69567	-102
1.69933	-101
1.70300	-100
1.70667	-98
1.71033	-98
1.71400	-96
1.71767	-93
1.72133	-90
1.72500	-88
1.72867	-91
1.73233	-99
1.73600	-108
1.73967	-118
1.74333	-124
1.74700	-129
1.75067	-129
1.75433	-126
1.75800	-122
1.76167	-114
1.76533	-108
1.76900	-105
1.77267	-105
1.77633	-106
1.78000	-106
1.78367	-103
1.78733	-97
1.79100	-92
1.79467	-90
1.79833	-90
1.80200	-90
1.80567	-93
1.80933	-99
1.81300	-104
1.81667	-108
1.82033	-112
1.82400	-117
1.82767	-123
1.83133	-125
1.83500	-124
1.83867	-118
1.84233	-109
1.84600	-102
1.84967	-103
1.85333	-108
1.85700	-112
1.86067	-113
1.86433	-113
1.86800	-112
1.87167	-107
1.87533	-104
1.87900	-101
1.88267	-97
1.88633	-91
1.89000	-85
1.89367	-82
1.89733	-83
1.90100	-85
1.90467	-89
1.90833	-94
1.91200	-96
1.91567	-99
1.91933	-106
1.92300	-114
1.92667	-118
1.93033	-118
1.93400	-115
1.93767	-112
1.94133	-113
1.94500	-116
1.94867	-115
1.95233	-108
1.95600	-85
1.95967	42
1.96333	815
1.96700	4573
1.97067	18336
1.97433	56771
1.97800	139464
1.98167	277957
1.98533	462122
1.98900	661336
1.99267	839623
1.99633	968485
2.00000	1029613
2.00367	1016285
2.00733	934806
2.01100	803907
2.01467	649684
2.01833	497325
2.02200	364240
2.02567	258036
2.02933	178688
2.03300	122120
2.03667	83069
2.04033	56673
2.04400	39051
2.04767	27347
2.05133	19563
2.05500	14346
2.05867	10811
2.06233	8377
2.06600	6668
2.06967	5442
2.07333	4540
2.07700	3860
2.08067	3331
2.08433	2909
2.08800	2568
2.09167	2290
2.09533	2061
2.09900	1870
2.10267	1707
2.10633	1567
2.11000	1447
2.11367	1342
2.11733	1248
2.12100	1163
2.12467	1088
2.12833	1025
2.13200	969
2.13567	918
2.13933	873
2.14300	831
2.14667	791
2.15033	753
2.15400	715
2.15767	677
2.16133	640
2.16500	608
2.16867	577
2.17233	551
2.17600	529
2.17967	513
2.18333	499
2.18700	482
2.19067	462
2.19433	440
2.19800	419
2.20167	401
2.20533	387
2.20900	376
2.21267	363
2.21633	352
2.22000	343
2.22367	334
2.22733	326
2.23100	315
2.23467	304
2.23833	295
2.24200	289
2.24567	286
2.24933	281
2.25300	272
2.25667	260
2.26033	246
2.26400	236
2.26767	227
2.27133	221
2.27500	214
2.27867	205
2.28233	194
2.28600	185
2.28967	177
2.29333	175
2.29700	178
2.30067	185
2.30433	191
2.30800	193
2.31167	191
2.31533	186
2.31900	177
2.32267	169
2.32633	167
2.33000	167
2.33367	160
2.33733	154
2.34100	154
2.34467	159
2.34833	163
2.35200	164
2.35567	163
2.35933	158
2.36300	144
2.36667	127
2.37033	111
2.37400	105
2.37767	108
2.38133	114
2.38500	113
2.38867	106
2.39233	99
2.39600	96
2.39967	97
2.40333	100
2.40700	105
2.41067	107
2.41433	107
2.41800	108
2.42167	111
2.42533	115
2.42900	123
2.43267	129
2.43633	127
2.44000	120
2.44367	111
2.44733	103
2.45100	96
2.45467	92
2.45833	93
2.46200	94
2.46567	94
2.46933	90
2.47300	84
2.47667	77
2.48033	72
2.48400	69
2.48767	67
2.49133	68
2.49500	70
2.49867	70
2.50233	67
2.50600	64
2.50967	65
2.51333	70
2.51700	77
2.52067	82
2.52433	83
2.52800	81
2.53167	76
2.53533	73
2.53900	72
2.54267	73
2.54633	78
2.55000	81
2.55367	78
2.55733	69
2.56100	61
2.56467	56
2.56833	50
2.57200	47
2.57567	48
2.57933	53
2.58300	59
2.58667	61
2.59033	60
2.59400	58
2.59767	55
2.60133	49
2.60500	39
2.60867	32
2.61233	29
2.61600	28
2.61967	32
2.62333	37
2.62700	45
2.63067	50
2.63433	47
2.63800	38
2.64167	28
2.64533	19
2.64900	16
2.65267	18
2.65633	20
2.66000	21
2.66367	23
2.66733	24
2.67100	23
2.67467	26
2.67833	29
2.68200	30
2.68567	31
2.68933	34
2.69300	37
2.69667	35
2.70033	34
2.70400	33
2.70767	29
2.71133	25
2.71500	21
2.71867	21
2.72233	26
2.72600	31
2.72967	31
2.73333	24
2.73700	16
2.74067	10
2.74433	7
2.74800	5
2.75167	6
2.75533	13
2.75900	24
2.76267	31
2.76633	32
2.77000	27
2.77367	19
2.77733	12
2.78100	9
2.78467	9
2.78833	11
2.79200	12
2.79567	11
2.79933	8
2.80300	5
2.80667	5
2.81033	7
2.81400	10
2.81767	13
2.82133	18
2.82500	23
2.82867	22
2.83233	22
2.83600	24
2.83967	23
2.84333	17
2.84700	9
2.85067	6
2.85433	4
2.85800	2
2.86167	-0
2.86533	1
2.86900	4
2.87267	9
2.87633	13
2.88000	14
2.88367	12
2.88733	11
2.89100	12
2.89467	12
2.89833	13
2.90200	13
2.90567	10
2.90933	3
2.91300	-4
2.91667	-6
2.92033	-5
2.92400	-2
2.92767	1
2.93133	4
2.93500	10
2.93867	18
2.94233	25
2.94600	26
2.94967	21
2.95333	13
2.95700	4
2.96067	-3
2.96433	-4
2.96800	-0
2.97167	4
2.97533	4
2.97900	3
2.98267	3
2.98633	5
2.99000	7
2.99367	4
2.99733	-2
3.00100	-7
3.00467	-8
3.00833	-7
3.01200	-5
3.01567	-4
3.01933	-3
3.02300	-3
3.02667	-4
3.03033	-4
3.03400	-3
3.03767	1
3.04133	5
3.04500	9
3.04867	11
3.05233	10
3.05600	6
3.05967	3
3.06333	4
3.06700	4
3.07067	3
3.07433	4
3.07800	7
3.08167	8
3.08533	7
3.08900	7
3.09267	3
3.09633	-4
3.10000	-8
3.10367	-10
3.10733	-13
3.11100	-14
3.11467	-13
3.11833	-9
3.12200	-8
3.12567	-10
3.12933	-13
3.13300	-17
3.13667	-18
3.14033	-17
3.14400	-16
3.14767	-16
3.15133	-14
3.15500	-10
3.15867	-7
3.16233	-6
3.16600	-4
3.16967	-4
3.17333	-7
3.17700	-10
3.18067	-12
3.18433	-14
3.18800	-13
3.19167	-10
3.19533	-7
3.19900	-4
3.20267	-1
3.20633	3
3.21000	8
3.21367	12
3.21733	14
3.22100	13
3.22467	7
3.22833	1
3.23200	-4
3.23567	-6
3.23933	-6
3.24300	-4
3.24667	-2
3.25033	-0
3.25400	-1
3.25767	-5
3.26133	-11
3.26500	-16
3.26867	-20
3.27233	-23
3.27600	-24
3.27967	-20
3.28333	-12
3.28700	-6
3.29067	-5
3.29433	-5
3.29800	-5
3.30167	-7
3.30533	-10
3.30900	-16
3.31267	-21
3.31633	-25
3.32000	-24
3.32367	-22
3.32733	-21
3.33100	-20
3.33467	-19
3.33833	-16
3.34200	-11
3.34567	-7
3.34933	-3
3.35300	-1
3.35667	-1
3.36033	-3
3.36400	-6
3.36767	-5
3.37133	-2
3.37500	-3
3.37867	-7
3.38233	-10
3.38600	-9
3.38967	-7
3.39333	-4
3.39700	-3
3.40067	-6
3.40433	-12
3.40800	-18
3.41167	-20
3.41533	-20
3.41900	-17
3.42267	-14
3.42633	-14
3.43000	-12
3.43367	-13
3.43733	-16
3.44100	-20
3.44467	-26
3.44833	-29
3.45200	-28
3.45567	-26
3.45933	-26
3.46300	-24
3.46667	-21
3.47033	-20
3.47400	-18
3.47767	-15
3.48133	-14
3.48500	-15
3.48867	-17
3.49233	-19
3.49600	-23
3.49967	-27
3.50333	-28
3.50700	-26
3.51067	-23
3.51433	-21
3.51800	-17
3.52167	-15
3.52533	-16
3.52900	-18
3.53267	-12
3.53633	-1
3.54000	8
3.54367	9
3.54733	1
3.55100	-9
3.55467	-16
3.55833	-23
3.56200	-28
3.56567	-33
3.56933	-35
3.57300	-36
3.57667	-34
3.58033	-29
3.58400	-22
3.58767	-15
3.59133	-8
3.59500	-3
3.59867	-4
3.60233	-12
3.60600	-18
3.60967	-18
3.61333	-16
3.61700	-15
3.62067	-13
3.62433	-13
3.62800	-16
3.63167	-19
3.63533	-20
3.63900	-17
3.64267	-14
3.64633	-10
3.65000	-7
3.65367	-6
3.65733	-7
3.66100	-14
3.66467	-23
3.66833	-28
3.67200	-29
3.67567	-27
3.67933	-25
3.68300	-23
3.68667	-19
3.69033	-17
3.69400	-18
3.69767	-18
3.70133	-18
3.70500	-20
3.70867	-23
3.71233	-25
3.71600	-26
3.71967	-27
3.72333	-26
3.72700	-26
3.73067	-28
3.73433	-29
3.73800	-30
3.74167	-29
3.74533	-26
3.74900	-22
3.75267	-16
3.75633	-11
3.76000	-7
3.76367	-1
3.76733	4
3.77100	8
3.77467	9
3.77833	6
3.78200	0
3.78567	-4
3.78933	-6
3.79300	-7
3.79667	-11
3.80033	-16
3.80400	-23
3.80767	-26
3.81133	-21
3.81500	-12
3.81867	-7
3.82233	-6
3.82600	-7
3.82967	-10
3.83333	-16
3.83700	-21
3.84067	-24
3.84433	-24
3.84800	-25
3.85167	-27
3.85533	-28
3.85900	-28
3.86267	-25
3.86633	-22
3.87000	-19
3.87367	-17
3.87733	-17
3.88100	-18
3.88467	-19
3.88833	-19
3.89200	-17
3.89567	-14
3.89933	-11
3.90300	-11
3.90667	-14
3.91033	-19
3.91400	-23
3.91767	-24
3.92133	-26
3.92500	-29
3.92867	-29
3.93233	-22
3.93600	-13
3.93967	-7
3.94333	1
3.94700	7
3.95067	9
3.95433	7
3.95800	1
3.96167	-5
3.96533	-9
3.96900	-11
3.97267	-14
3.97633	-16
3.98000	-14
3.98367	-9
3.98733	-3
3.99100	1
3.99467	2
3.99833	0

[Chromatogram (Ch2)]
Interval(msec)	220
# of Points	1091
Start Time(min)	0.002
End Time(min)	3.998
R.Time (min)	Intensity
0.00167	1
0.00533	1
0.00900	1
0.01267	2
0.01633	3
0.02000	3
0.02367	4
0.02733	4
0.03100	5
0.03467	5
0.03833	5
0.04200	5
0.04567	5
0.04933	5
0.05300	4
0.05667	4
0.06033	4
0.06400	4
0.06767	3
0.07133	3
0.07500	3
0.07867	3
0.08233	3
0.08600	3
0.08967	3
0.09333	3
0.09700	3
0.10067	3
0.10433	3
0.10800	3
0.11167	2
0.11533	2
0.11900	1
0.12267	1
0.12633	1
0.13000	0
0.13367	0
0.13733	-0
0.14100	0
0.14467	0
0.14833	0
0.15200	0
0.15567	0
0.15933	0
0.16300	-0
0.16667	-0
0.17033	-1
0.17400	-1
0.17767	-1
0.18133	-1
0.18500	-1
0.18867	-1
0.19233	-2
0.19600	-2
0.19967	-2
0.20333	-2
0.20700	-2
0.21067	-2
0.21433	-1
0.21800	-1
0.22167	-0
0.22533	-0
0.22900	0
0.23267	0
0.23633	1
0.24000	1
0.24367	1
0.24733	1
0.25100	1
0.25467	1
0.25833	1
0.26200	1
0.26567	1
0.26933	1
0.27300	1
0.27667	1
0.28033	1
0.28400	1
0.28767	1
0.29133	0
0.29500	0
0.29867	-0
0.30233	-0
0.30600	-0
0.30967	-0
0.31333	-0
0.31700	-0
0.32067	-0
0.32433	-1
0.32800	-1
0.33167	-1
0.33533	-1
0.33900	-1
0.34267	-2
0.34633	-2
0.35000	-2
0.35367	-2
0.35733	-2
0.36100	-3
0.36467	-3
0.36833	-3
0.37200	-3
0.37567	-3
0.37933	-3
0.38300	-3
0.38667	-2
0.39033	-2
0.39400	-2
0.39767	-2
0.40133	-2
0.40500	-2
0.40867	-2
0.41233	-1
0.41600	-1
0.41967	-1
0.42333	-1
0.42700	-1
0.43067	-1
0.43433	-1
0.43800	-1
0.44167	-1
0.44533	-1
0.44900	-1
0.45267	-1
0.45633	-1
0.46000	-1
0.46367	-1
0.46733	-0
0.47100	0
0.47467	1
0.47833	1
0.48200	1
0.48567	2
0.48933	2
0.49300	2
0.49667	2
0.50033	2
0.50400	2
0.50767	2
0.51133	2
0.51500	2
0.51867	2
0.52233	2
0.52600	1
0.52967	1
0.53333	1
0.53700	1
0.54067	1
0.54433	1
0.54800	0
0.55167	0
0.55533	-0
0.55900	-1
0.56267	-1
0.56633	-1
0.57000	-2
0.57367	-2
0.57733	-2
0.58100	-2
0.58467	-3
0.58833	-3
0.59200	-3
0.59567	-3
0.59933	-3
0.60300	-3
0.60667	-3
0.61033	-3
0.61400	-3
0.61767	-3
0.62133	-3
0.62500	-3
0.62867	-3
0.63233	-3
0.63600	-3
0.63967	-2
0.64333	-2
0.64700	-2
0.65067	-2
0.65433	-2
0.65800	-2
0.66167	-2
0.66533	-2
0.66900	-2
0.67267	-3
0.67633	-3
0.68000	-4
0.68367	-4
0.68733	-4
0.69100	-4
0.69467	-4
0.69833	-4
0.70200	-4
0.70567	-4
0.70933	-4
0.71300	-5
0.71667	-5
0.72033	-5
0.72400	-5
0.72767	-6
0.73133	-6
0.73500	-6
0.73867	-6
0.74233	-6
0.74600	-6
0.74967	-6
0.75333	-6
0.75700	-6
0.76067	-6
0.76433	-6
0.76800	-6
0.77167	-6
0.77533	-5
0.77900	-5
0.78267	-4
0.78633	-4
0.79000	-4
0.79367	-4
0.79733	-3
0.80100	-3
0.80467	-3
0.80833	-3
0.81200	-2
0.81567	-2
0.81933	-2
0.82300	-2
0.82667	-1
0.83033	-1
0.83400	-0
0.83767	0
0.84133	1
0.84500	1
0.84867	1
0.85233	1
0.85600	2
0.85967	2
0.86333	2
0.86700	2
0.87067	2
0.87433	2
0.87800	2
0.88167	2
0.88533	3
0.88900	3
0.89267	3
0.89633	3
0.90000	3
0.90367	3
0.90733	3
0.91100	2
0.91467	2
0.91833	2
0.92200	1
0.92567	1
0.92933	1
0.93300	1
0.93667	0
0.94033	0
0.94400	0
0.94767	0
0.95133	0
0.95500	0
0.95867	-0
0.96233	-1
0.96600	-1
0.96967	-1
0.97333	-1
0.97700	-1
0.98067	-1
0.98433	-1
0.98800	-1
0.99167	-1
0.99533	-2
0.99900	-2
1.00267	-2
1.00633	-2
1.01000	-2
1.01367	-2
1.01733	-2
1.02100	-2
1.02467	-2
1.02833	-2
1.03200	-2
1.03567	-2
1.03933	-3
1.04300	-3
1.04667	-3
1.05033	-3
1.05400	-3
1.05767	-3
1.06133	-3
1.06500	-3
1.06867	-3
1.07233	-3
1.07600	-3
1.07967	-3
1.08333	-3
1.08700	-3
1.09067	-3
1.09433	-3
1.09800	-3
1.10167	-3
1.10533	-2
1.10900	-2
1.11267	-2
1.11633	-2
1.12000	-2
1.12367	-2
1.12733	-2
1.13100	-2
1.13467	-2
1.13833	-2
1.14200	-1
1.14567	-1
1.14933	-1
1.15300	-1
1.15667	-1
1.16033	-1
1.16400	-2
1.16767	-2
1.17133	-2
1.17500	-2
1.17867	-1
1.18233	-1
1.18600	-1
1.18967	-1
1.19333	-1
1.19700	-1
1.20067	-1
1.20433	-1
1.20800	-1
1.21167	-1
1.21533	-1
1.21900	-1
1.22267	-1
1.22633	-1
1.23000	-1
1.23367	-1
1.23733	-1
1.24100	-1
1.24467	-1
1.24833	-2
1.25200	-2
1.25567	-2
1.25933	-2
1.26300	-2
1.26667	-2
1.27033	-2
1.27400	-2
1.27767	-2
1.28133	-1
1.28500	-1
1.28867	-1
1.29233	-1
1.29600	-1
1.29967	-1
1.30333	-1
1.30700	-1
1.31067	-1
1.31433	-1
1.31800	-1
1.32167	-1
1.32533	-1
1.32900	-2
1.33267	-2
1.33633	-2
1.34000	-2
1.34367	-2
1.34733	-2
1.35100	-2
1.35467	-3
1.35833	-3
1.36200	-3
1.36567	-3
1.36933	-3
1.37300	-3
1.37667	-3
1.38033	-3
1.38400	-3
1.38767	-3
1.39133	-2
1.39500	-2
1.39867	-2
1.40233	-2
1.40600	-1
1.40967	-1
1.41333	-1
1.41700	-1
1.42067	-1
1.42433	-1
1.42800	-1
1.43167	-1
1.43533	-1
1.43900	-1
1.44267	-1
1.44633	-1
1.45000	-1
1.45367	-1
1.45733	-1
1.46100	-1
1.46467	-1
1.46833	-1
1.47200	-1
1.47567	-1
1.47933	-1
1.48300	-1
1.48667	-1
1.49033	-2
1.49400	-2
1.49767	-2
1.50133	-2
1.50500	-2
1.50867	-2
1.51233	-2
1.51600	-2
1.51967	-2
1.52333	-3
1.52700	-3
1.53067	-3
1.53433	-3
1.53800	-3
1.54167	-3
1.54533	-3
1.54900	-3
1.55267	-3
1.55633	-3
1.56000	-3
1.56367	-3
1.56733	-3
1.57100	-3
1.57467	-3
1.57833	-3
1.58200	-3
1.58567	-3
1.58933	-3
1.59300	-4
1.59667	-4
1.60033	-5
1.60400	-6
1.60767	-7
1.61133	-9
1.61500	-10
1.61867	-13
1.62233	-15
1.62600	-18
1.62967	-21
1.63333	-24
1.63700	-27
1.64067	-30
1.64433	-33
1.64800	-37
1.65167	-40
1.65533	-44
1.65900	-48
1.66267	-53
1.66633	-57
1.67000	-62
1.67367	-67
1.67733	-73
1.68100	-78
1.68467	-83
1.68833	-88
1.69200	-92
1.69567	-96
1.69933	-99
1.70300	-101
1.70667	-103
1.71033	-105
1.71400	-106
1.71767	-107
1.72133	-108
1.72500	-109
1.72867	-109
1.73233	-109
1.73600	-109
1.73967	-109
1.74333	-109
1.74700	-110
1.75067	-111
1.75433	-112
1.75800	-113
1.76167	-114
1.76533	-115
1.76900	-116
1.77267	-116
1.77633	-117
1.78000	-117
1.78367	-118
1.78733	-118
1.79100	-119
1.79467	-120
1.79833	-121
1.80200	-121
1.80567	-121
1.80933	-121
1.81300	-121
1.81667	-120
1.82033	-119
1.82400	-118
1.82767	-118
1.83133	-117
1.83500	-117
1.83867	-117
1.84233	-117
1.84600	-118
1.84967	-118
1.85333	-119
1.85700	-120
1.86067	-120
1.86433	-120
1.86800	-120
1.87167	-120
1.87533	-121
1.87900	-121
1.88267	-121
1.88633	-121
1.89000	-121
1.89367	-120
1.89733	-120
1.90100	-120
1.90467	-119
1.90833	-118
1.91200	-117
1.91567	-117
1.91933	-116
1.92300	-116
1.92667	-116
1.93033	-116
1.93400	-116
1.93767	-116
1.94133	-116
1.94500	-116
1.94867	-116
1.95233	-116
1.95600	-116
1.95967	-115
1.96333	-115
1.96700	-114
1.97067	-114
1.97433	-114
1.97800	-114
1.98167	-114
1.98533	-114
1.98900	-114
1.99267	-114
1.99633	-114
2.00000	-113
2.00367	-113
2.00733	-113
2.01100	-112
2.01467	-111
2.01833	-111
2.02200	-111
2.02567	-110
2.02933	-110
2.03300	-110
2.03667	-110
2.04033	-110
2.04400	-109
2.04767	-109
2.05133	-108
2.05500	-108
2.05867	-107
2.06233	-107
2.06600	-107
2.06967	-107
2.07333	-107
2.07700	-107
2.08067	-107
2.08433	-106
2.08800	-106
2.09167	-106
2.09533	-105
2.09900	-105
2.10267	-105
2.10633	-105
2.11000	-104
2.11367	-105
2.11733	-105
2.12100	-105
2.12467	-104
2.12833	-104
2.13200	-103
2.13567	-103
2.13933	-102
2.14300	-101
2.14667	-101
2.15033	-100
2.15400	-100
2.15767	-99
2.16133	-99
2.16500	-99
2.16867	-98
2.17233	-98
2.17600	-98
2.17967	-98
2.18333	-98
2.18700	-97
2.19067	-96
2.19433	-96
2.19800	-95
2.20167	-94
2.20533	-94
2.20900	-93
2.21267	-93
2.21633	-93
2.22000	-93
2.22367	-92
2.22733	-92
2.23100	-91
2.23467	-91
2.23833	-91
2.24200	-91
2.24567	-91
2.24933	-91
2.25300	-91
2.25667	-91
2.26033	-91
2.26400	-91
2.26767	-91
2.27133	-90
2.27500	-90
2.27867	-90
2.28233	-90
2.28600	-91
2.28967	-92
2.29333	-93
2.29700	-94
2.30067	-94
2.30433	-94
2.30800	-94
2.31167	-93
2.31533	-92
2.31900	-90
2.32267	-89
2.32633	-88
2.33000	-87
2.33367	-87
2.33733	-86
2.34100	-85
2.34467	-84
2.34833	-83
2.35200	-82
2.35567	-81
2.35933	-80
2.36300	-79
2.36667	-78
2.37033	-76
2.37400	-75
2.37767	-72
2.38133	-69
2.38500	-66
2.38867	-62
2.39233	-58
2.39600	-54
2.39967	-49
2.40333	-45
2.40700	-40
2.41067	-36
2.41433	-32
2.41800	-28
2.42167	-25
2.42533	-22
2.42900	-20
2.43267	-18
2.43633	-16
2.44000	-14
2.44367	-12
2.44733	-11
2.45100	-9
2.45467	-7
2.45833	-6
2.46200	-5
2.46567	-4
2.46933	-3
2.47300	-1
2.47667	-0
2.48033	1
2.48400	3
2.48767	4
2.49133	5
2.49500	6
2.49867	7
2.50233	7
2.50600	8
2.50967	8
2.51333	8
2.51700	9
2.52067	9
2.52433	10
2.52800	10
2.53167	11
2.53533	12
2.53900	13
2.54267	13
2.54633	13
2.55000	13
2.55367	14
2.55733	14
2.56100	14
2.56467	14
2.56833	14
2.57200	15
2.57567	15
2.57933	15
2.58300	15
2.58667	16
2.59033	16
2.59400	16
2.59767	17
2.60133	17
2.60500	18
2.60867	18
2.61233	18
2.61600	18
2.61967	18
2.62333	18
2.62700	19
2.63067	19
2.63433	20
2.63800	21
2.64167	21
2.64533	22
2.64900	22
2.65267	22
2.65633	22
2.66000	22
2.66367	21
2.66733	21
2.67100	22
2.67467	22
2.67833	22
2.68200	22
2.68567	23
2.68933	23
2.69300	23
2.69667	23
2.70033	23
2.70400	22
2.70767	22
2.71133	22
2.71500	22
2.71867	22
2.72233	23
2.72600	23
2.72967	23
2.73333	24
2.73700	24
2.74067	25
2.74433	25
2.74800	25
2.75167	26
2.75533	26
2.75900	26
2.76267	27
2.76633	27
2.77000	27
2.77367	27
2.77733	27
2.78100	27
2.78467	26
2.78833	26
2.79200	25
2.79567	24
2.79933	24
2.80300	23
2.80667	23
2.81033	23
2.81400	23
2.81767	23
2.82133	23
2.82500	23
2.82867	24
2.83233	24
2.83600	25
2.83967	25
2.84333	25
2.84700	24
2.85067	23
2.85433	20
2.85800	14
2.86167	6
2.86533	-6
2.86900	-22
2.87267	-43
2.87633	-69
2.88000	-100
2.88367	-136
2.88733	-177
2.89100	-222
2.89467	-273
2.89833	-328
2.90200	-387
2.90567	-449
2.90933	-515
2.91300	-584
2.91667	-656
2.92033	-730
2.92400	-806
2.92767	-885
2.93133	-965
2.93500	-1047
2.93867	-1130
2.94233	-1215
2.94600	-1301
2.94967	-1385
2.95333	-1456
2.95700	-1501
2.96067	-1514
2.96433	-1491
2.96800	-1436
2.97167	-1357
2.97533	-1262
2.97900	-1156
2.98267	-1046
2.98633	-937
2.99000	-832
2.99367	-733
2.99733	-642
3.00100	-559
3.00467	-485
3.00833	-419
3.01200	-361
3.01567	-310
3.01933	-265
3.02300	-226
3.02667	-193
3.03033	-164
3.03400	-139
3.03767	-117
3.04133	-99
3.04500	-83
3.04867	-69
3.05233	-58
3.05600	-48
3.05967	-39
3.06333	-32
3.06700	-26
3.07067	-20
3.07433	-16
3.07800	-12
3.08167	-9
3.08533	-6
3.08900	-4
3.09267	-1
3.09633	0
3.10000	2
3.10367	3
3.10733	5
3.11100	6
3.11467	7
3.11833	8
3.12200	8
3.12567	9
3.12933	10
3.13300	11
3.13667	11
3.14033	12
3.14400	13
3.14767	13
3.15133	13
3.15500	14
3.15867	14
3.16233	15
3.16600	15
3.16967	15
3.17333	16
3.17700	16
3.18067	16
3.18433	16
3.18800	17
3.19167	17
3.19533	17
3.19900	17
3.20267	17
3.20633	17
3.21000	18
3.21367	18
3.21733	18
3.22100	18
3.22467	18
3.22833	18
3.23200	18
3.23567	18
3.23933	18
3.24300	19
3.24667	19
3.25033	19
3.25400	19
3.25767	20
3.26133	21
3.26500	21
3.26867	22
3.27233	22
3.27600	23
3.27967	23
3.28333	24
3.28700	24
3.29067	24
3.29433	24
3.29800	25
3.30167	25
3.30533	25
3.30900	25
3.31267	26
3.31633	26
3.32000	26
3.32367	26
3.32733	26
3.33100	26
3.33467	27
3.33833	27
3.34200	27
3.34567	27
3.34933	27
3.35300	27
3.35667	27
3.36033	28
3.36400	28
3.36767	28
3.37133	28
3.37500	28
3.37867	28
3.38233	28
3.38600	28
3.38967	28
3.39333	28
3.39700	28
3.40067	28
3.40433	28
3.40800	28
3.41167	28
3.41533	28
3.41900	27
3.42267	27
3.42633	28
3.43000	28
3.43367	28
3.43733	28
3.44100	28
3.44467	28
3.44833	28
3.45200	28
3.45567	28
3.45933	28
3.46300	28
3.46667	28
3.47033	28
3.47400	28
3.47767	28
3.48133	28
3.48500	28
3.48867	28
3.49233	28
3.49600	28
3.49967	28
3.50333	28
3.50700	27
3.51067	27
3.51433	27
3.51800	27
3.52167	27
3.52533	27
3.52900	28
3.53267	28
3.53633	27
3.54000	27
3.54367	27
3.54733	27
3.55100	27
3.55467	27
3.55833	27
3.56200	26
3.56567	26
3.56933	26
3.57300	26
3.57667	26
3.58033	26
3.58400	26
3.58767	26
3.59133	26
3.59500	26
3.59867	26
3.60233	27
3.60600	27
3.60967	27
3.61333	27
3.61700	27
3.62067	27
3.62433	28
3.62800	28
3.63167	28
3.63533	29
3.63900	29
3.64267	29
3.64633	29
3.65000	29
3.65367	29
3.65733	29
3.66100	29
3.66467	29
3.66833	29
3.67200	28
3.67567	28
3.67933	28
3.68300	28
3.68667	28
3.69033	28
3.69400	28
3.69767	28
3.70133	28
3.70500	28
3.70867	28
3.71233	28
3.71600	28
3.71967	28
3.72333	28
3.72700	28
3.73067	28
3.73433	28
3.73800	28
3.74167	28
3.74533	28
3.74900	28
3.75267	28
3.75633	28
3.76000	28
3.76367	28
3.76733	28
3.77100	28
3.77467	27
3.77833	27
3.78200	27
3.78567	27
3.78933	27
3.79300	27
3.79667	27
3.80033	27
3.80400	27
3.80767	27
3.81133	27
3.81500	27
3.81867	27
3.82233	27
3.82600	27
3.82967	27
3.83333	27
3.83700	27
3.84067	27
3.84433	28
3.84800	28
3.85167	28
3.85533	28
3.85900	28
3.86267	28
3.86633	28
3.87000	28
3.87367	28
3.87733	28
3.88100	28
3.88467	28
3.88833	28
3.89200	28
3.89567	28
3.89933	28
3.90300	28
3.90667	29
3.91033	29
3.91400	29
3.91767	29
3.92133	29
3.92500	29
3.92867	28
3.93233	29
3.93600	29
3.93967	29
3.94333	29
3.94700	29
3.95067	29
3.95433	29
3.95800	29
3.96167	29
3.96533	29
3.96900	29
3.97267	29
3.97633	29
3.98000	29
3.98367	29
3.98733	29
3.99100	29
3.99467	29
3.99833	29

[Chromatogram (Ch3)]
Interval(msec)	220
# of Points	1091
Start Time(min)	0.002
End Time(min)	3.998
R.Time (min)	Intensity
0.00167	-1
0.00533	-5
0.00900	-9
0.01267	-11
0.01633	-12
0.02000	-12
0.02367	-12
0.02733	-11
0.03100	-10
0.03467	-11
0.03833	-14
0.04200	-14
0.04567	-13
0.04933	-10
0.05300	-9
0.05667	-9
0.06033	-8
0.06400	-8
0.06767	-9
0.07133	-9
0.07500	-9
0.07867	-10
0.08233	-8
0.08600	-7
0.08967	-6
0.09333	-7
0.09700	-7
0.10067	-5
0.10433	-6
0.10800	-6
0.11167	-6
0.11533	-7
0.11900	-8
0.12267	-7
0.12633	-9
0.13000	-10
0.13367	-11
0.13733	-14
0.14100	-15
0.14467	-15
0.14833	-13
0.15200	-12
0.15567	-11
0.15933	-11
0.16300	-11
0.16667	-12
0.17033	-12
0.17400	-11
0.17767	-11
0.18133	-13
0.18500	-14
0.18867	-16
0.19233	-18
0.19600	-17
0.19967	-16
0.20333	-16
0.20700	-14
0.21067	-12
0.21433	-11
0.21800	-13
0.22167	-13
0.22533	-12
0.22900	-11
0.23267	-11
0.23633	-10
0.24000	-10
0.24367	-11
0.24733	-12
0.25100	-13
0.25467	-13
0.25833	-13
0.26200	-11
0.26567	-10
0.26933	-11
0.27300	-11
0.27667	-10
0.28033	-11
0.28400	-11
0.28767	-11
0.29133	-11
0.29500	-12
0.29867	-12
0.30233	-12
0.30600	-13
0.30967	-16
0.31333	-16
0.31700	-16
0.32067	-15
0.32433	-14
0.32800	-12
0.33167	-12
0.33533	-14
0.33900	-14
0.34267	-12
0.34633	-11
0.35000	-12
0.35367	-10
0.35733	-8
0.36100	-10
0.36467	-13
0.36833	-16
0.37200	-17
0.37567	-16
0.37933	-13
0.38300	-11
0.38667	-12
0.39033	-13
0.39400	-14
0.39767	-14
0.40133	-16
0.40500	-16
0.40867	-13
0.41233	-12
0.41600	-11
0.41967	-12
0.42333	-15
0.42700	-16
0.43067	-16
0.43433	-15
0.43800	-16
0.44167	-15
0.44533	-15
0.44900	-16
0.45267	-17
0.45633	-19
0.46000	-19
0.46367	-18
0.46733	-18
0.47100	-16
0.47467	-15
0.47833	-14
0.48200	-13
0.48567	-12
0.48933	-12
0.49300	-13
0.49667	-15
0.50033	-19
0.50400	-19
0.50767	-21
0.51133	-21
0.51500	-19
0.51867	-18
0.52233	-17
0.52600	-19
0.52967	-18
0.53333	-18
0.53700	-18
0.54067	-19
0.54433	-17
0.54800	-17
0.55167	-16
0.55533	-16
0.55900	-16
0.56267	-17
0.56633	-17
0.57000	-18
0.57367	-17
0.57733	-16
0.58100	-17
0.58467	-19
0.58833	-19
0.59200	-19
0.59567	-20
0.59933	-21
0.60300	-21
0.60667	-22
0.61033	-21
0.61400	-20
0.61767	-19
0.62133	-17
0.62500	-15
0.62867	-15
0.63233	-16
0.63600	-18
0.63967	-20
0.64333	-20
0.64700	-19
0.65067	-18
0.65433	-19
0.65800	-21
0.66167	-22
0.66533	-22
0.66900	-23
0.67267	-23
0.67633	-21
0.68000	-21
0.68367	-20
0.68733	-18
0.69100	-17
0.69467	-17
0.69833	-19
0.70200	-21
0.70567	-20
0.70933	-19
0.71300	-18
0.71667	-18
0.72033	-17
0.72400	-16
0.72767	-17
0.73133	-17
0.73500	-18
0.73867	-20
0.74233	-22
0.74600	-22
0.74967	-21
0.75333	-20
0.75700	-18
0.76067	-17
0.76433	-18
0.76800	-19
0.77167	-19
0.77533	-21
0.77900	-24
0.78267	-25
0.78633	-26
0.79000	-27
0.79367	-26
0.79733	-26
0.80100	-25
0.80467	-23
0.80833	-20
0.81200	-19
0.81567	-19
0.81933	-19
0.82300	-19
0.82667	-19
0.83033	-21
0.83400	-23
0.83767	-23
0.84133	-23
0.84500	-23
0.84867	-24
0.85233	-25
0.85600	-27
0.85967	-27
0.86333	-27
0.86700	-24
0.87067	-22
0.87433	-20
0.87800	-21
0.88167	-23
0.88533	-23
0.88900	-22
0.89267	-22
0.89633	-22
0.90000	-21
0.90367	-20
0.90733	-21
0.91100	-21
0.91467	-22
0.91833	-22
0.92200	-22
0.92567	-21
0.92933	-22
0.93300	-21
0.93667	-19
0.94033	-21
0.94400	-22
0.94767	-23
0.95133	-23
0.95500	-23
0.95867	-24
0.96233	-26
0.96600	-23
0.96967	-21
0.97333	-20
0.97700	-21
0.98067	-24
0.98433	-26
0.98800	-25
0.99167	-22
0.99533	-23
0.99900	-24
1.00267	-24
1.00633	-24
1.01000	-24
1.01367	-25
1.01733	-24
1.02100	-24
1.02467	-24
1.02833	-24
1.03200	-23
1.03567	-23
1.03933	-23
1.04300	-24
1.04667	-24
1.05033	-25
1.05400	-25
1.05767	-26
1.06133	-27
1.06500	-28
1.06867	-27
1.07233	-25
1.07600	-24
1.07967	-23
1.08333	-24
1.08700	-25
1.09067	-25
1.09433	-25
1.09800	-26
1.10167	-28
1.10533	-28
1.10900	-30
1.11267	-31
1.11633	-30
1.12000	-29
1.12367	-28
1.12733	-27
1.13100	-25
1.13467	-23
1.13833	-21
1.14200	-20
1.14567	-19
1.14933	-19
1.15300	-21
1.15667	-21
1.16033	-22
1.16400	-25
1.16767	-26
1.17133	-25
1.17500	-25
1.17867	-24
1.18233	-23
1.18600	-21
1.18967	-20
1.19333	-21
1.19700	-22
1.20067	-23
1.20433	-25
1.20800	-25
1.21167	-23
1.21533	-23
1.21900	-25
1.22267	-27
1.22633	-27
1.23000	-27
1.23367	-25
1.23733	-21
1.24100	-18
1.24467	-18
1.24833	-22
1.25200	-25
1.25567	-25
1.25933	-26
1.26300	-23
1.26667	-21
1.27033	-22
1.27400	-23
1.27767	-24
1.28133	-26
1.28500	-27
1.28867	-27
1.29233	-26
1.29600	-26
1.29967	-25
1.30333	-27
1.30700	-27
1.31067	-27
1.31433	-29
1.31800	-29
1.32167	-27
1.32533	-26
1.32900	-26
1.33267	-25
1.33633	-24
1.34000	-23
1.34367	-22
1.34733	-22
1.35100	-22
1.35467	-24
1.35833	-25
1.36200	-26
1.36567	-25
1.36933	-24
1.37300	-25
1.37667	-26
1.38033	-30
1.38400	-33
1.38767	-35
1.39133	-32
1.39500	-30
1.39867	-27
1.40233	-24
1.40600	-25
1.40967	-27
1.41333	-30
1.41700	-33
1.42067	-32
1.42433	-30
1.42800	-30
1.43167	-30
1.43533	-29
1.43900	-28
1.44267	-28
1.44633	-27
1.45000	-26
1.45367	-28
1.45733	-30
1.46100	-30
1.46467	-29
1.46833	-30
1.47200	-31
1.47567	-32
1.47933	-32
1.48300	-31
1.48667	-32
1.49033	-32
1.49400	-30
1.49767	-28
1.50133	-29
1.50500	-30
1.50867	-32
1.51233	-30
1.51600	-28
1.51967	-27
1.52333	-27
1.52700	-25
1.53067	-25
1.53433	-24
1.53800	-22
1.54167	-20
1.54533	-18
1.54900	-18
1.55267	-20
1.55633	-22
1.56000	-22
1.56367	-22
1.56733	-24
1.57100	-24
1.57467	-20
1.57833	-17
1.58200	-17
1.58567	-19
1.58933	-22
1.59300	-25
1.59667	-27
1.60033	-27
1.60400	-26
1.60767	-25
1.61133	-27
1.61500	-27
1.61867	-27
1.62233	-25
1.62600	-25
1.62967	-25
1.63333	-25
1.63700	-24
1.64067	-23
1.64433	-23
1.64800	-21
1.65167	-19
1.65533	-17
1.65900	-17
1.66267	-18
1.66633	-18
1.67000	-17
1.67367	-16
1.67733	-16
1.68100	-15
1.68467	-15
1.68833	-13
1.69200	-11
1.69567	-12
1.69933	-12
1.70300	-15
1.70667	-19
1.71033	-20
1.71400	-20
1.71767	-15
1.72133	-13
1.72500	-12
1.72867	-10
1.73233	-8
1.73600	-7
1.73967	-8
1.74333	-9
1.74700	-10
1.75067	-10
1.75433	-10
1.75800	-10
1.76167	-11
1.76533	-10
1.76900	-8
1.77267	-8
1.77633	-10
1.78000	-11
1.78367	-9
1.78733	-7
1.79100	-6
1.79467	-2
1.79833	1
1.80200	3
1.80567	2
1.80933	0
1.81300	-2
1.81667	-3
1.82033	-4
1.82400	-3
1.82767	-1
1.83133	-0
1.83500	-1
1.83867	-0
1.84233	1
1.84600	1
1.84967	2
1.85333	2
1.85700	1
1.86067	0
1.86433	-0
1.86800	0
1.87167	3
1.87533	6
1.87900	6
1.88267	5
1.88633	3
1.89000	2
1.89367	2
1.89733	2
1.90100	2
1.90467	4
1.90833	4
1.91200	3
1.91567	3
1.91933	6
1.92300	8
1.92667	10
1.93033	14
1.93400	13
1.93767	12
1.94133	9
1.94500	6
1.94867	5
1.95233	6
1.95600	7
1.95967	10
1.96333	14
1.96700	15
1.97067	15
1.97433	15
1.97800	16
1.98167	16
1.98533	16
1.98900	17
1.99267	18
1.99633	19
2.00000	20
2.00367	21
2.00733	23
2.01100	24
2.01467	26
2.01833	26
2.02200	26
2.02567	24
2.02933	25
2.03300	28
2.03667	30
2.04033	28
2.04400	27
2.04767	28
2.05133	29
2.05500	31
2.05867	33
2.06233	34
2.06600	34
2.06967	35
2.07333	36
2.07700	38
2.08067	42
2.08433	42
2.08800	42
2.09167	42
2.09533	41
2.09900	44
2.10267	46
2.10633	46
2.11000	45
2.11367	43
2.11733	44
2.12100	46
2.12467	49
2.12833	51
2.13200	52
2.13567	55
2.13933	55
2.14300	52
2.14667	50
2.15033	51
2.15400	55
2.15767	56
2.16133	58
2.16500	61
2.16867	65
2.17233	65
2.17600	67
2.17967	69
2.18333	69
2.18700	69
2.19067	69
2.19433	71
2.19800	73
2.20167	74
2.20533	74
2.20900	74
2.21267	75
2.21633	77
2.22000	79
2.22367	79
2.22733	79
2.23100	79
2.23467	79
2.23833	79
2.24200	77
2.24567	76
2.24933	78
2.25300	80
2.25667	83
2.26033	86
2.26400	88
2.26767	88
2.27133	89
2.27500	90
2.27867	90
2.28233	90
2.28600	89
2.28967	90
2.29333	94
2.29700	98
2.30067	100
2.30433	104
2.30800	108
2.31167	111
2.31533	111
2.31900	108
2.32267	106
2.32633	105
2.33000	106
2.33367	106
2.33733	104
2.34100	105
2.34467	107
2.34833	108
2.35200	109
2.35567	112
2.35933	116
2.36300	118
2.36667	119
2.37033	120
2.37400	121
2.37767	122
2.38133	122
2.38500	122
2.38867	120
2.39233	120
2.39600	122
2.39967	124
2.40333	121
2.40700	120
2.41067	119
2.41433	121
2.41800	123
2.42167	125
2.42533	128
2.42900	131
2.43267	132
2.43633	134
2.44000	135
2.44367	143
2.44733	161
2.45100	183
2.45467	199
2.45833	201
2.46200	193
2.46567	181
2.46933	169
2.47300	160
2.47667	150
2.48033	140
2.48400	132
2.48767	127
2.49133	123
2.49500	119
2.49867	117
2.50233	115
2.50600	114
2.50967	116
2.51333	118
2.51700	120
2.52067	127
2.52433	131
2.52800	132
2.53167	132
2.53533	132
2.53900	131
2.54267	129
2.54633	125
2.55000	123
2.55367	123
2.55733	123
2.56100	125
2.56467	125
2.56833	126
2.57200	128
2.57567	130
2.57933	132
2.58300	137
2.58667	140
2.59033	141
2.59400	140
2.59767	139
2.60133	134
2.60500	126
2.60867	114
2.61233	96
2.61600	69
2.61967	35
2.62333	-3
2.62700	-44
2.63067	-84
2.63433	-121
2.63800	-155
2.64167	-182
2.64533	-203
2.64900	-217
2.65267	-226
2.65633	-231
2.66000	-231
2.66367	-227
2.66733	-222
2.67100	-217
2.67467	-207
2.67833	-196
2.68200	-185
2.68567	-173
2.68933	-164
2.69300	-154
2.69667	-141
2.70033	-129
2.70400	-119
2.70767	-110
2.71133	-102
2.71500	-94
2.71867	-86
2.72233	-78
2.72600	-70
2.72967	-60
2.73333	-51
2.73700	-44
2.74067	-37
2.74433	-29
2.74800	-22
2.75167	-14
2.75533	-8
2.75900	-1
2.76267	6
2.76633	10
2.77000	13
2.77367	16
2.77733	21
2.78100	27
2.78467	32
2.78833	35
2.79200	38
2.79567	41
2.79933	44
2.80300	45
2.80667	47
2.81033	50
2.81400	53
2.81767	55
2.82133	57
2.82500	64
2.82867	84
2.83233	132
2.83600	236
2.83967	444
2.84333	823
2.84700	1438
2.85067	2343
2.85433	3566
2.85800	5094
2.86167	6860
2.86533	8763
2.86900	10662
2.87267	12417
2.87633	13899
2.88000	15003
2.88367	15671
2.88733	15891
2.89100	15701
2.89467	15172
2.89833	14385
2.90200	13426
2.90567	12365
2.90933	11264
2.91300	10171
2.91667	9120
2.92033	8131
2.92400	7214
2.92767	6374
2.93133	5617
2.93500	4938
2.93867	4334
2.94233	3794
2.94600	3317
2.94967	2895
2.95333	2526
2.95700	2203
2.96067	1921
2.96433	1675
2.96800	1462
2.97167	1276
2.97533	1114
2.97900	973
2.98267	851
2.98633	745
2.99000	655
2.99367	579
2.99733	512
3.00100	455
3.00467	406
3.00833	364
3.01200	329
3.01567	296
3.01933	267
3.02300	243
3.02667	224
3.03033	207
3.03400	191
3.03767	179
3.04133	166
3.04500	156
3.04867	148
3.05233	141
3.05600	135
3.05967	129
3.06333	123
3.06700	120
3.07067	116
3.07433	114
3.07800	111
3.08167	110
3.08533	109
3.08900	108
3.09267	104
3.09633	101
3.10000	100
3.10367	99
3.10733	96
3.11100	93
3.11467	92
3.11833	92
3.12200	92
3.12567	92
3.12933	93
3.13300	91
3.13667	89
3.14033	88
3.14400	85
3.14767	84
3.15133	83
3.15500	83
3.15867	85
3.16233	87
3.16600	87
3.16967	85
3.17333	85
3.17700	85
3.18067	84
3.18433	84
3.18800	84
3.19167	83
3.19533	83
3.19900	82
3.20267	83
3.20633	83
3.21000	83
3.21367	82
3.21733	80
3.22100	79
3.22467	80
3.22833	80
3.23200	80
3.23567	80
3.23933	83
3.24300	85
3.24667	85
3.25033	84
3.25400	83
3.25767	79
3.26133	77
3.26500	76
3.26867	76
3.27233	78
3.27600	77
3.27967	77
3.28333	75
3.28700	72
3.29067	71
3.29433	70
3.29800	71
3.30167	70
3.30533	68
3.30900	65
3.31267	65
3.31633	67
3.32000	67
3.32367	65
3.32733	64
3.33100	65
3.33467	65
3.33833	60
3.34200	57
3.34567	56
3.34933	58
3.35300	61
3.35667	61
3.36033	60
3.36400	57
3.36767	55
3.37133	55
3.37500	56
3.37867	56
3.38233	53
3.38600	52
3.38967	51
3.39333	48
3.39700	46
3.40067	45
3.40433	45
3.40800	44
3.41167	43
3.41533	44
3.41900	43
3.42267	42
3.42633	41
3.43000	39
3.43367	37
3.43733	36
3.44100	34
3.44467	33
3.44833	32
3.45200	33
3.45567	34
3.45933	33
3.46300	31
3.46667	28
3.47033	28
3.47400	27
3.47767	27
3.48133	24
3.48500	23
3.48867	25
3.49233	26
3.49600	26
3.49967	26
3.50333	26
3.50700	25
3.51067	25
3.51433	24
3.51800	22
3.52167	21
3.52533	17
3.52900	14
3.53267	12
3.53633	11
3.54000	11
3.54367	12
3.54733	13
3.55100	12
3.55467	10
3.55833	8
3.56200	9
3.56567	7
3.56933	7
3.57300	6
3.57667	4
3.58033	4
3.58400	1
3.58767	1
3.59133	1
3.59500	1
3.59867	1
3.60233	0
3.60600	-1
3.60967	-1
3.61333	-2
3.61700	-3
3.62067	-2
3.62433	-2
3.62800	-3
3.63167	-6
3.63533	-7
3.63900	-6
3.64267	-5
3.64633	-7
3.65000	-7
3.65367	-6
3.65733	-7
3.66100	-10
3.66467	-11
3.66833	-12
3.67200	-10
3.67567	-9
3.67933	-10
3.68300	-10
3.68667	-11
3.69033	-10
3.69400	-9
3.69767	-8
3.70133	-9
3.70500	-9
3.70867	-9
3.71233	-9
3.71600	-10
3.71967	-11
3.72333	-13
3.72700	-15
3.73067	-16
3.73433	-16
3.73800	-12
3.74167	-10
3.74533	-11
3.74900	-11
3.75267	-12
3.75633	-13
3.76000	-13
3.76367	-13
3.76733	-15
3.77100	-15
3.77467	-14
3.77833	-14
3.78200	-16
3.78567	-18
3.78933	-18
3.79300	-16
3.79667	-16
3.80033	-17
3.80400	-17
3.80767	-15
3.81133	-12
3.81500	-10
3.81867	-10
3.82233	-11
3.82600	-10
3.82967	-9
3.83333	-8
3.83700	-8
3.84067	-9
3.84433	-8
3.84800	-8
3.85167	-10
3.85533	-13
3.85900	-13
3.86267	-12
3.86633	-13
3.87000	-14
3.87367	-14
3.87733	-12
3.88100	-10
3.88467	-8
3.88833	-9
3.89200	-11
3.89567	-12
3.89933	-13
3.90300	-13
3.90667	-13
3.91033	-13
3.91400	-14
3.91767	-14
3.92133	-13
3.92500	-13
3.92867	-12
3.93233	-12
3.93600	-13
3.93967	-15
3.94333	-16
3.94700	-15
3.95067	-12
3.95433	-11
3.95800	-11
3.96167	-14
3.96533	-17
3.96900	-16
3.97267	-13
3.97633	-11
3.98000	-11
3.98367	-12
3.98733	-11
3.99100	-10
3.99467	-10
3.99833	-9

[Status Trace (Column Oven Temperature)]
Interval(msec)	1000
# of Points	240
Start Time(min)	0.012
End Time(min)	3.995
Intensity Units	
Intensity Multiplier	1
R.Time (min)	Intensity
0.01173	35.01
0.02840	34.99
0.04507	34.99
0.06173	34.99
0.07840	34.98
0.09507	34.97
0.11173	34.97
0.12840	34.97
0.14507	34.97
0.16173	34.98
0.17840	34.99
0.19507	34.99
0.21173	34.98
0.22840	34.97
0.24507	34.95
0.26173	34.95
0.27840	34.95
0.29507	34.95
0.31173	34.96
0.32840	34.96
0.34507	34.97
0.36173	34.98
0.37840	34.98
0.39507	34.99
0.41173	34.99
0.42840	34.98
0.44507	34.97
0.46173	34.97
0.47840	34.96
0.49507	34.95
0.51173	34.95
0.52840	34.93
0.54507	34.94
0.56173	34.95
0.57840	34.95
0.59507	34.95
0.61173	34.96
0.62840	34.96
0.64507	34.97
0.66173	34.97
0.67840	34.98
0.69507	34.98
0.71173	35.00
0.72840	35.02
0.74507	35.03
0.76173	35.04
0.77840	35.04
0.79507	35.03
0.81173	35.04
0.82840	35.02
0.84507	35.00
0.86173	34.99
0.87840	34.98
0.89507	34.96
0.91173	34.95
0.92840	34.94
0.94507	34.94
0.96173	34.95
0.97840	34.94
0.99507	34.95
1.01173	34.95
1.02840	34.97
1.04507	34.97
1.06173	34.98
1.07840	34.98
1.09507	34.99
1.11173	34.99
1.12840	34.98
1.14507	34.98
1.16173	34.99
1.17840	34.99
1.19507	34.98
1.21173	34.98
1.22840	34.99
1.24507	34.98
1.26173	34.99
1.27840	34.99
1.29507	34.99
1.31173	34.98
1.32840	34.98
1.34507	34.98
1.36173	34.98
1.37840	34.99
1.39507	34.99
1.41173	34.98
1.42840	34.98
1.44507	34.98
1.46173	34.98
1.47840	34.97
1.49507	34.98
1.51173	34.97
1.52840	34.97
1.54507	34.98
1.56173	34.98
1.57840	34.99
1.59507	35.01
1.61173	35.08
1.62840	35.21
1.64507	35.41
1.66173	35.68
1.67840	36.06
1.69507	36.43
1.71173	36.77
1.72840	37.09
1.74507	37.42
1.76173	37.76
1.77840	38.09
1.79507	38.44
1.81173	38.76
1.82840	39.08
1.84507	39.41
1.86173	39.75
1.87840	40.08
1.89507	40.42
1.91173	40.73
1.92840	41.06
1.94507	41.39
1.96173	41.71
1.97840	42.04
1.99507	42.37
2.01173	42.68
2.02840	43.01
2.04507	43.32
2.06173	43.64
2.07840	43.98
2.09507	44.31
2.11173	44.65
2.12840	44.97
2.14507	45.30
2.16173	45.61
2.17840	45.96
2.19507	46.26
2.21173	46.60
2.22840	46.92
2.24507	47.25
2.26173	47.57
2.27840	47.92
2.29507	48.31
2.31173	48.63
2.32840	48.95
2.34507	49.26
2.36173	49.51
2.37840	49.65
2.39507	49.69
2.41173	49.69
2.42840	49.71
2.44507	49.72
2.46173	49.74
2.47840	49.75
2.49507	49.76
2.51173	49.78
2.52840	49.78
2.54507	49.80
2.56173	49.80
2.57840	49.81
2.59507	49.81
2.61173	49.83
2.62840	49.83
2.64507	49.83
2.66173	49.86
2.67840	49.85
2.69507	49.86
2.71173	49.87
2.72840	49.86
2.74507	49.86
2.76173	49.85
2.77840	49.86
2.79507	49.90
2.81173	49.92
2.82840	49.93
2.84507	49.92
2.86173	49.93
2.87840	49.93
2.89507	49.94
2.91173	49.95
2.92840	49.95
2.94507	49.96
2.96173	49.96
2.97840	49.97
2.99507	49.97
3.01173	49.98
3.02840	50.00
3.04507	50.00
3.06173	50.01
3.07840	50.02
3.09507	50.03
3.11173	50.05
3.12840	50.06
3.14507	50.06
3.16173	50.07
3.17840	50.07
3.19507	50.08
3.21173	50.09
3.22840	50.10
3.24507	50.11
3.26173	50.10
3.27840	50.10
3.29507	50.09
3.31173	50.08
3.32840	50.07
3.34507	50.06
3.36173	50.05
3.37840	50.04
3.39507	50.04
3.41173	50.04
3.42840	50.04
3.44507	50.04
3.46173	50.04
3.47840	50.04
3.49507	50.05
3.51173	50.05
3.52840	50.05
3.54507	50.05
3.56173	50.06
3.57840	50.06
3.59507	50.07
3.61173	50.06
3.62840	50.06
3.64507	50.05
3.66173	50.06
3.67840	50.06
3.69507	50.06
3.71173	50.06
3.72840	50.06
3.74507	50.06
3.76173	50.06
3.77840	50.07
3.79507	50.07
3.81173	50.08
3.82840	50.07
3.84507	50.07
3.86173	50.07
3.87840	50.07
3.89507	50.07
3.91173	50.07
3.92840	50.07
3.94507	50.07
3.96173	50.07
3.97840	50.07
3.99507	50.07

[Status Trace (Injection Unit Temperature)]
Interval(msec)	1000
# of Points	240
Start Time(min)	0.012
End Time(min)	3.995
Intensity Units	
Intensity Multiplier	1
R.Time (min)	Intensity
0.01173	99.99
0.02840	99.99
0.04507	99.99
0.06173	100.00
0.07840	100.00
0.09507	100.00
0.11173	100.00
0.12840	100.00
0.14507	100.00
0.16173	100.00
0.17840	100.00
0.19507	99.99
0.21173	100.00
0.22840	99.99
0.24507	100.00
0.26173	100.00
0.27840	100.00
0.29507	99.99
0.31173	99.99
0.32840	99.99
0.34507	100.00
0.36173	100.00
0.37840	99.99
0.39507	100.00
0.41173	100.00
0.42840	99.99
0.44507	99.99
0.46173	100.00
0.47840	100.00
0.49507	100.00
0.51173	100.00
0.52840	100.00
0.54507	100.00
0.56173	100.00
0.57840	100.00
0.59507	100.00
0.61173	99.99
0.62840	100.00
0.64507	100.00
0.66173	99.99
0.67840	100.00
0.69507	100.00
0.71173	100.00
0.72840	100.00
0.74507	100.00
0.76173	100.00
0.77840	99.99
0.79507	99.99
0.81173	99.99
0.82840	99.99
0.84507	100.00
0.86173	99.99
0.87840	100.00
0.89507	99.99
0.91173	99.99
0.92840	99.99
0.94507	99.99
0.96173	99.99
0.97840	99.98
0.99507	99.99
1.01173	99.99
1.02840	99.99
1.04507	99.99
1.06173	99.99
1.07840	99.99
1.09507	99.99
1.11173	99.99
1.12840	99.99
1.14507	99.99
1.16173	99.99
1.17840	99.99
1.19507	99.99
1.21173	99.99
1.22840	99.99
1.24507	99.99
1.26173	99.99
1.27840	99.99
1.29507	99.99
1.31173	99.99
1.32840	99.99
1.34507	99.99
1.36173	99.99
1.37840	99.99
1.39507	99.99
1.41173	99.99
1.42840	99.99
1.44507	99.99
1.46173	99.99
1.47840	99.99
1.49507	99.99
1.51173	99.99
1.52840	99.99
1.54507	100.00
1.56173	99.99
1.57840	100.00
1.59507	100.00
1.61173	100.00
1.62840	100.00
1.64507	99.99
1.66173	100.00
1.67840	100.00
1.69507	99.99
1.71173	100.00
1.72840	99.99
1.74507	100.00
1.76173	99.99
1.77840	99.99
1.79507	100.00
1.81173	99.99
1.82840	100.00
1.84507	99.99
1.86173	100.00
1.87840	100.00
1.89507	100.00
1.91173	100.00
1.92840	99.99
1.94507	100.00
1.96173	99.99
1.97840	99.99
1.99507	99.99
2.01173	99.99
2.02840	99.99
2.04507	99.99
2.06173	99.98
2.07840	99.99
2.09507	99.99
2.11173	99.99
2.12840	99.99
2.14507	99.98
2.16173	99.98
2.17840	99.99
2.19507	99.99
2.21173	99.99
2.22840	99.98
2.24507	99.99
2.26173	99.99
2.27840	99.98
2.29507	99.99
2.31173	99.98
2.32840	99.99
2.34507	99.98
2.36173	99.99
2.37840	99.99
2.39507	99.98
2.41173	99.98
2.42840	99.99
2.44507	99.98
2.46173	99.99
2.47840	99.98
2.49507	99.99
2.51173	99.99
2.52840	99.99
2.54507	99.99
2.56173	99.99
2.57840	99.99
2.59507	99.99
2.61173	99.99
2.62840	99.99
2.64507	99.99
2.66173	99.99
2.67840	100.00
2.69507	99.99
2.71173	100.00
2.72840	100.00
2.74507	100.00
2.76173	100.00
2.77840	100.00
2.79507	100.00
2.81173	100.00
2.82840	100.00
2.84507	100.01
2.86173	100.01
2.87840	100.01
2.89507	100.01
2.91173	100.01
2.92840	100.01
2.94507	100.01
2.96173	100.02
2.97840	100.02
2.99507	100.01
3.01173	100.02
3.02840	100.02
3.04507	100.02
3.06173	100.02
3.07840	100.02
3.09507	100.03
3.11173	100.03
3.12840	100.03
3.14507	100.03
3.16173	100.03
3.17840	100.03
3.19507	100.03
3.21173	100.03
3.22840	100.03
3.24507	100.03
3.26173	100.03
3.27840	100.04
3.29507	100.03
3.31173	100.04
3.32840	100.04
3.34507	100.04
3.36173	100.04
3.37840	100.04
3.39507	100.04
3.41173	100.04
3.42840	100.04
3.44507	100.04
3.46173	100.04
3.47840	100.04
3.49507	100.04
3.51173	100.04
3.52840	100.04
3.54507	100.05
3.56173	100.04
3.57840	100.05
3.59507	100.05
3.61173	100.05
3.62840	100.04
3.64507	100.05
3.66173	100.05
3.67840	100.05
3.69507	100.05
3.71173	100.05
3.72840	100.05
3.74507	100.05
3.76173	100.05
3.77840	100.06
3.79507	100.05
3.81173	100.05
3.82840	100.05
3.84507	100.04
3.86173	100.05
3.87840	100.06
3.89507	100.06
3.91173	100.05
3.92840	100.05
3.94507	100.06
3.96173	100.06
3.97840	100.06
3.99507	100.05

[Status Trace (Carrier Gas Pressure)]
Interval(msec)	1000
# of Points	240
Start Time(min)	0.012
End Time(min)	3.995
Intensity Units	
Intensity Multiplier	1
R.Time (min)	Intensity
0.01173	58.00
0.02840	54.93
0.04507	57.55
0.06173	59.64
0.07840	58.98
0.09507	58.01
0.11173	57.99
0.12840	58.01
0.14507	58.01
0.16173	58.01
0.17840	58.00
0.19507	58.00
0.21173	58.00
0.22840	58.00
0.24507	58.00
0.26173	58.00
0.27840	58.00
0.29507	58.00
0.31173	58.00
0.32840	58.00
0.34507	58.00
0.36173	58.00
0.37840	58.00
0.39507	58.00
0.41173	58.00
0.42840	58.00
0.44507	58.00
0.46173	58.00
0.47840	58.00
0.49507	58.00
0.51173	58.00
0.52840	58.00
0.54507	58.00
0.56173	58.00
0.57840	58.00
0.59507	58.00
0.61173	58.00
0.62840	58.00
0.64507	58.00
0.66173	58.00
0.67840	58.00
0.69507	58.00
0.71173	58.00
0.72840	58.00
0.74507	58.00
0.76173	58.00
0.77840	58.00
0.79507	58.00
0.81173	58.00
0.82840	58.00
0.84507	58.00
0.86173	58.00
0.87840	58.00
0.89507	58.00
0.91173	58.00
0.92840	58.00
0.94507	58.00
0.96173	58.00
0.97840	58.00
0.99507	58.00
1.01173	58.00
1.02840	58.00
1.04507	58.00
1.06173	58.00
1.07840	58.00
1.09507	58.00
1.11173	58.00
1.12840	58.00
1.14507	58.00
1.16173	58.00
1.17840	58.00
1.19507	58.00
1.21173	58.00
1.22840	58.00
1.24507	58.00
1.26173	58.00
1.27840	58.00
1.29507	58.00
1.31173	58.00
1.32840	58.00
1.34507	58.00
1.36173	58.00
1.37840	58.00
1.39507	58.00
1.41173	58.00
1.42840	58.00
1.44507	58.00
1.46173	58.00
1.47840	58.00
1.49507	58.00
1.51173	58.00
1.52840	58.00
1.54507	58.00
1.56173	58.00
1.57840	58.00
1.59507	58.00
1.61173	58.00
1.62840	58.00
1.64507	58.00
1.66173	58.01
1.67840	58.01
1.69507	58.00
1.71173	58.00
1.72840	58.00
1.74507	58.00
1.76173	58.00
1.77840	58.00
1.79507	58.00
1.81173	58.00
1.82840	58.00
1.84507	58.00
1.86173	58.00
1.87840	58.00
1.89507	58.00
1.91173	58.00
1.92840	58.00
1.94507	58.00
1.96173	58.00
1.97840	58.00
1.99507	58.00
2.01173	58.00
2.02840	58.00
2.04507	58.00
2.06173	58.00
2.07840	58.00
2.09507	58.00
2.11173	58.00
2.12840	58.00
2.14507	58.00
2.16173	58.00
2.17840	58.00
2.19507	58.00
2.21173	58.00
2.22840	58.00
2.24507	58.00
2.26173	58.00
2.27840	58.00
2.29507	58.00
2.31173	58.00
2.32840	58.00
2.34507	58.00
2.36173	58.00
2.37840	57.99
2.39507	57.99
2.41173	57.99
2.42840	58.00
2.44507	58.00
2.46173	58.00
2.47840	58.00
2.49507	58.00
2.51173	57.99
2.52840	57.98
2.54507	58.00
2.56173	58.00
2.57840	58.00
2.59507	58.00
2.61173	58.00
2.62840	58.00
2.64507	58.00
2.66173	58.00
2.67840	58.00
2.69507	58.00
2.71173	58.00
2.72840	58.00
2.74507	58.00
2.76173	58.00
2.77840	58.00
2.79507	58.00
2.81173	58.00
2.82840	58.00
2.84507	58.00
2.86173	58.00
2.87840	58.00
2.89507	58.00
2.91173	58.00
2.92840	58.00
2.94507	58.00
2.96173	58.00
2.97840	58.00
2.99507	58.00
3.01173	58.00
3.02840	58.00
3.04507	58.00
3.06173	58.00
3.07840	58.00
3.09507	58.00
3.11173	58.00
3.12840	58.00
3.14507	58.00
3.16173	58.00
3.17840	58.00
3.19507	58.00
3.21173	58.00
3.22840	58.00
3.24507	58.00
3.26173	58.00
3.27840	58.00
3.29507	58.00
3.31173	58.00
3.32840	58.00
3.34507	58.00
3.36173	58.00
3.37840	58.00
3.39507	58.00
3.41173	58.00
3.42840	58.00
3.44507	58.00
3.46173	58.00
3.47840	58.00
3.49507	58.00
3.51173	58.00
3.52840	58.00
3.54507	58.00
3.56173	58.00
3.57840	58.00
3.59507	58.00
3.61173	58.00
3.62840	58.00
3.64507	58.00
3.66173	58.00
3.67840	58.00
3.69507	58.00
3.71173	58.00
3.72840	58.00
3.74507	58.00
3.76173	58.00
3.77840	58.00
3.79507	58.00
3.81173	58.00
3.82840	58.00
3.84507	58.00
3.86173	58.00
3.87840	58.00
3.89507	58.00
3.91173	58.00
3.92840	58.00
3.94507	58.00
3.96173	58.00
3.97840	58.00
3.99507	58.00

[Status Trace (Carrier Gas Flow)]
Interval(msec)	1000
# of Points	240
Start Time(min)	0.012
End Time(min)	3.995
Intensity Units	
Intensity Multiplier	1
R.Time (min)	Intensity
0.01173	34.52
0.02840	34.54
0.04507	34.54
0.06173	34.54
0.07840	34.51
0.09507	34.52
0.11173	34.52
0.12840	34.52
0.14507	34.52
0.16173	34.52
0.17840	34.52
0.19507	34.52
0.21173	34.52
0.22840	34.52
0.24507	34.52
0.26173	34.52
0.27840	34.52
0.29507	34.52
0.31173	34.52
0.32840	34.52
0.34507	34.52
0.36173	34.52
0.37840	34.52
0.39507	34.52
0.41173	34.52
0.42840	34.52
0.44507	34.52
0.46173	34.52
0.47840	34.52
0.49507	34.52
0.51173	34.52
0.52840	34.52
0.54507	34.52
0.56173	34.52
0.57840	34.52
0.59507	34.52
0.61173	34.52
0.62840	34.52
0.64507	34.52
0.66173	34.52
0.67840	34.52
0.69507	34.52
0.71173	34.52
0.72840	34.52
0.74507	34.52
0.76173	34.52
0.77840	34.52
0.79507	34.52
0.81173	34.52
0.82840	34.52
0.84507	34.52
0.86173	34.52
0.87840	34.52
0.89507	34.52
0.91173	34.52
0.92840	34.52
0.94507	34.52
0.96173	34.52
0.97840	34.52
0.99507	34.52
1.01173	34.52
1.02840	34.52
1.04507	34.52
1.06173	34.52
1.07840	34.52
1.09507	34.52
1.11173	34.52
1.12840	34.52
1.14507	34.52
1.16173	34.52
1.17840	34.52
1.19507	34.52
1.21173	34.52
1.22840	34.52
1.24507	34.52
1.26173	34.52
1.27840	34.52
1.29507	34.52
1.31173	34.52
1.32840	34.52
1.34507	34.52
1.36173	34.52
1.37840	34.52
1.39507	34.52
1.41173	34.52
1.42840	34.52
1.44507	34.52
1.46173	34.52
1.47840	34.52
1.49507	34.52
1.51173	34.52
1.52840	34.52
1.54507	34.52
1.56173	34.52
1.57840	34.52
1.59507	34.52
1.61173	34.52
1.62840	34.52
1.64507	34.52
1.66173	34.52
1.67840	34.52
1.69507	34.52
1.71173	34.52
1.72840	34.52
1.74507	34.52
1.76173	34.52
1.77840	34.52
1.79507	34.52
1.81173	34.52
1.82840	34.52
1.84507	34.52
1.86173	34.52
1.87840	34.51
1.89507	34.52
1.91173	34.52
1.92840	34.52
1.94507	34.52
1.96173	34.53
1.97840	34.52
1.99507	34.52
2.01173	34.52
2.02840	34.54
2.04507	34.51
2.06173	34.52
2.07840	34.52
2.09507	34.52
2.11173	34.52
2.12840	34.52
2.14507	34.53
2.16173	34.51
2.17840	34.52
2.19507	34.52
2.21173	34.51
2.22840	34.52
2.24507	34.53
2.26173	34.51
2.27840	34.53
2.29507	34.52
2.31173	34.52
2.32840	34.52
2.34507	34.52
2.36173	34.51
2.37840	34.52
2.39507	34.52
2.41173	34.52
2.42840	34.52
2.44507	34.52
2.46173	34.52
2.47840	34.52
2.49507	34.52
2.51173	34.52
2.52840	34.52
2.54507	34.52
2.56173	34.52
2.57840	34.51
2.59507	34.52
2.61173	34.52
2.62840	34.51
2.64507	34.52
2.66173	34.53
2.67840	34.52
2.69507	34.51
2.71173	34.53
2.72840	34.52
2.74507	34.52
2.76173	34.52
2.77840	34.52
2.79507	34.52
2.81173	34.52
2.82840	34.52
2.84507	34.52
2.86173	34.52
2.87840	34.52
2.89507	34.52
2.91173	34.52
2.92840	34.52
2.94507	34.52
2.96173	34.52
2.97840	34.52
2.99507	34.52
3.01173	34.52
3.02840	34.52
3.04507	34.52
3.06173	34.52
3.07840	34.52
3.09507	34.52
3.11173	34.52
3.12840	34.52
3.14507	34.52
3.16173	34.52
3.17840	34.52
3.19507	34.52
3.21173	34.52
3.22840	34.52
3.24507	34.52
3.26173	34.52
3.27840	34.52
3.29507	34.52
3.31173	34.52
3.32840	34.52
3.34507	34.52
3.36173	34.52
3.37840	34.52
3.39507	34.52
3.41173	34.52
3.42840	34.52
3.44507	34.52
3.46173	34.52
3.47840	34.52
3.49507	34.52
3.51173	34.52
3.52840	34.52
3.54507	34.52
3.56173	34.52
3.57840	34.52
3.59507	34.52
3.61173	34.52
3.62840	34.52
3.64507	34.52
3.66173	34.52
3.67840	34.52
3.69507	34.52
3.71173	34.52
3.72840	34.52
3.74507	34.52
3.76173	34.52
3.77840	34.52
3.79507	34.52
3.81173	34.52
3.82840	34.52
3.84507	34.52
3.86173	34.52
3.87840	34.52
3.89507	34.52
3.91173	34.52
3.92840	34.50
3.94507	34.52
3.96173	34.52
3.97840	34.53
3.99507	34.50

[Status Trace (Column Flow)]
Interval(msec)	1000
# of Points	240
Start Time(min)	0.012
End Time(min)	3.995
Intensity Units	
Intensity Multiplier	1
R.Time (min)	Intensity
0.01173	5.46
0.02840	5.11
0.04507	5.41
0.06173	5.65
0.07840	5.58
0.09507	5.46
0.11173	5.46
0.12840	5.46
0.14507	5.46
0.16173	5.46
0.17840	5.46
0.19507	5.46
0.21173	5.46
0.22840	5.46
0.24507	5.46
0.26173	5.46
0.27840	5.46
0.29507	5.46
0.31173	5.46
0.32840	5.46
0.34507	5.46
0.36173	5.46
0.37840	5.46
0.39507	5.46
0.41173	5.46
0.42840	5.46
0.44507	5.46
0.46173	5.46
0.47840	5.46
0.49507	5.46
0.51173	5.46
0.52840	5.46
0.54507	5.46
0.56173	5.46
0.57840	5.46
0.59507	5.46
0.61173	5.46
0.62840	5.46
0.64507	5.46
0.66173	5.46
0.67840	5.46
0.69507	5.46
0.71173	5.46
0.72840	5.46
0.74507	5.46
0.76173	5.46
0.77840	5.46
0.79507	5.46
0.81173	5.46
0.82840	5.46
0.84507	5.46
0.86173	5.46
0.87840	5.46
0.89507	5.46
0.91173	5.46
0.92840	5.46
0.94507	5.46
0.96173	5.46
0.97840	5.46
0.99507	5.46
1.01173	5.46
1.02840	5.46
1.04507	5.46
1.06173	5.46
1.07840	5.46
1.09507	5.46
1.11173	5.46
1.12840	5.46
1.14507	5.46
1.16173	5.46
1.17840	5.46
1.19507	5.46
1.21173	5.46
1.22840	5.46
1.24507	5.46
1.26173	5.46
1.27840	5.46
1.29507	5.46
1.31173	5.46
1.32840	5.46
1.34507	5.46
1.36173	5.46
1.37840	5.46
1.39507	5.46
1.41173	5.46
1.42840	5.46
1.44507	5.46
1.46173	5.46
1.47840	5.46
1.49507	5.46
1.51173	5.46
1.52840	5.46
1.54507	5.46
1.56173	5.46
1.57840	5.46
1.59507	5.46
1.61173	5.46
1.62840	5.46
1.64507	5.45
1.66173	5.44
1.67840	5.43
1.69507	5.42
1.71173	5.41
1.72840	5.40
1.74507	5.39
1.76173	5.38
1.77840	5.37
1.79507	5.36
1.81173	5.35
1.82840	5.34
1.84507	5.33
1.86173	5.32
1.87840	5.31
1.89507	5.30
1.91173	5.29
1.92840	5.28
1.94507	5.27
1.96173	5.26
1.97840	5.25
1.99507	5.24
2.01173	5.23
2.02840	5.22
2.04507	5.21
2.06173	5.20
2.07840	5.19
2.09507	5.19
2.11173	5.18
2.12840	5.17
2.14507	5.16
2.16173	5.15
2.17840	5.14
2.19507	5.13
2.21173	5.12
2.22840	5.11
2.24507	5.10
2.26173	5.09
2.27840	5.08
2.29507	5.07
2.31173	5.06
2.32840	5.05
2.34507	5.05
2.36173	5.04
2.37840	5.03
2.39507	5.03
2.41173	5.03
2.42840	5.03
2.44507	5.03
2.46173	5.03
2.47840	5.03
2.49507	5.03
2.51173	5.03
2.52840	5.03
2.54507	5.03
2.56173	5.03
2.57840	5.03
2.59507	5.03
2.61173	5.03
2.62840	5.03
2.64507	5.03
2.66173	5.03
2.67840	5.03
2.69507	5.03
2.71173	5.03
2.72840	5.03
2.74507	5.03
2.76173	5.03
2.77840	5.03
2.79507	5.03
2.81173	5.03
2.82840	5.03
2.84507	5.03
2.86173	5.03
2.87840	5.03
2.89507	5.03
2.91173	5.03
2.92840	5.03
2.94507	5.02
2.96173	5.02
2.97840	5.03
2.99507	5.02
3.01173	5.02
3.02840	5.02
3.04507	5.02
3.06173	5.02
3.07840	5.02
3.09507	5.02
3.11173	5.02
3.12840	5.02
3.14507	5.02
3.16173	5.02
3.17840	5.02
3.19507	5.02
3.21173	5.02
3.22840	5.02
3.24507	5.02
3.26173	5.02
3.27840	5.02
3.29507	5.02
3.31173	5.02
3.32840	5.02
3.34507	5.02
3.36173	5.02
3.37840	5.02
3.39507	5.02
3.41173	5.02
3.42840	5.02
3.44507	5.02
3.46173	5.02
3.47840	5.02
3.49507	5.02
3.51173	5.02
3.52840	5.02
3.54507	5.02
3.56173	5.02
3.57840	5.02
3.59507	5.02
3.61173	5.02
3.62840	5.02
3.64507	5.02
3.66173	5.02
3.67840	5.02
3.69507	5.02
3.71173	5.02
3.72840	5.02
3.74507	5.02
3.76173	5.02
3.77840	5.02
3.79507	5.02
3.81173	5.02
3.82840	5.02
3.84507	5.02
3.86173	5.02
3.87840	5.02
3.89507	5.02
3.91173	5.02
3.92840	5.02
3.94507	5.02
3.96173	5.02
3.97840	5.02
3.99507	5.02

[Status Trace (Linear Velocity)]
Interval(msec)	1000
# of Points	240
Start Time(min)	0.012
End Time(min)	3.995
Intensity Units	
Intensity Multiplier	1
R.Time (min)	Intensity
0.01173	39.00
0.02840	36.99
0.04507	38.71
0.06173	40.08
0.07840	39.65
0.09507	39.01
0.11173	39.00
0.12840	39.01
0.14507	39.01
0.16173	39.01
0.17840	39.01
0.19507	39.01
0.21173	39.01
0.22840	39.01
0.24507	39.01
0.26173	39.01
0.27840	39.01
0.29507	39.01
0.31173	39.01
0.32840	39.01
0.34507	39.01
0.36173	39.00
0.37840	39.00
0.39507	39.00
0.41173	39.00
0.42840	39.00
0.44507	39.01
0.46173	39.01
0.47840	39.01
0.49507	39.01
0.51173	39.01
0.52840	39.01
0.54507	39.01
0.56173	39.01
0.57840	39.01
0.59507	39.01
0.61173	39.01
0.62840	39.01
0.64507	39.01
0.66173	39.01
0.67840	39.01
0.69507	39.00
0.71173	39.00
0.72840	39.00
0.74507	39.00
0.76173	39.00
0.77840	39.00
0.79507	39.00
0.81173	39.00
0.82840	39.00
0.84507	39.00
0.86173	39.00
0.87840	39.00
0.89507	39.01
0.91173	39.01
0.92840	39.01
0.94507	39.01
0.96173	39.01
0.97840	39.01
0.99507	39.01
1.01173	39.01
1.02840	39.01
1.04507	39.01
1.06173	39.00
1.07840	39.00
1.09507	39.00
1.11173	39.00
1.12840	39.00
1.14507	39.00
1.16173	39.00
1.17840	39.00
1.19507	39.00
1.21173	39.00
1.22840	39.00
1.24507	39.00
1.26173	39.00
1.27840	39.00
1.29507	39.00
1.31173	39.00
1.32840	39.00
1.34507	39.00
1.36173	39.00
1.37840	39.00
1.39507	39.00
1.41173	39.00
1.42840	39.00
1.44507	39.00
1.46173	39.01
1.47840	39.01
1.49507	39.00
1.51173	39.01
1.52840	39.01
1.54507	39.00
1.56173	39.00
1.57840	39.00
1.59507	39.00
1.61173	39.00
1.62840	38.99
1.64507	38.97
1.66173	38.94
1.67840	38.91
1.69507	38.87
1.71173	38.84
1.72840	38.80
1.74507	38.77
1.76173	38.74
1.77840	38.71
1.79507	38.68
1.81173	38.65
1.82840	38.61
1.84507	38.59
1.86173	38.56
1.87840	38.52
1.89507	38.49
1.91173	38.46
1.92840	38.43
1.94507	38.40
1.96173	38.37
1.97840	38.34
1.99507	38.31
2.01173	38.28
2.02840	38.25
2.04507	38.22
2.06173	38.19
2.07840	38.16
2.09507	38.13
2.11173	38.10
2.12840	38.07
2.14507	38.04
2.16173	38.01
2.17840	37.98
2.19507	37.95
2.21173	37.93
2.22840	37.89
2.24507	37.87
2.26173	37.84
2.27840	37.80
2.29507	37.77
2.31173	37.74
2.32840	37.71
2.34507	37.69
2.36173	37.66
2.37840	37.65
2.39507	37.64
2.41173	37.64
2.42840	37.65
2.44507	37.64
2.46173	37.64
2.47840	37.64
2.49507	37.64
2.51173	37.64
2.52840	37.63
2.54507	37.64
2.56173	37.64
2.57840	37.64
2.59507	37.64
2.61173	37.63
2.62840	37.63
2.64507	37.63
2.66173	37.63
2.67840	37.63
2.69507	37.63
2.71173	37.63
2.72840	37.63
2.74507	37.63
2.76173	37.63
2.77840	37.63
2.79507	37.63
2.81173	37.63
2.82840	37.63
2.84507	37.63
2.86173	37.63
2.87840	37.63
2.89507	37.62
2.91173	37.62
2.92840	37.62
2.94507	37.62
2.96173	37.62
2.97840	37.62
2.99507	37.62
3.01173	37.62
3.02840	37.62
3.04507	37.62
3.06173	37.62
3.07840	37.62
3.09507	37.62
3.11173	37.61
3.12840	37.61
3.14507	37.61
3.16173	37.61
3.17840	37.61
3.19507	37.61
3.21173	37.61
3.22840	37.61
3.24507	37.61
3.26173	37.61
3.27840	37.61
3.29507	37.61
3.31173	37.61
3.32840	37.61
3.34507	37.61
3.36173	37.61
3.37840	37.62
3.39507	37.62
3.41173	37.62
3.42840	37.61
3.44507	37.62
3.46173	37.62
3.47840	37.62
3.49507	37.61
3.51173	37.61
3.52840	37.61
3.54507	37.61
3.56173	37.61
3.57840	37.61
3.59507	37.61
3.61173	37.61
3.62840	37.61
3.64507	37.61
3.66173	37.61
3.67840	37.61
3.69507	37.61
3.71173	37.61
3.72840	37.61
3.74507	37.61
3.76173	37.61
3.77840	37.61
3.79507	37.61
3.81173	37.61
3.82840	37.61
3.84507	37.61
3.86173	37.61
3.87840	37.61
3.89507	37.61
3.91173	37.61
3.92840	37.61
3.94507	37.61
3.96173	37.61
3.97840	37.61
3.99507	37.61

