[Header]
Application Name	LabSolutions
Version	5.110
Data File Name	C:\Users\User\Desktop\GC Analyses\Jack\UIC Prairie Sampling\8.12.22\220812_025.gcd
Output Date	10/14/2022
Output Time	2:33:51 PM

[File Information]
Type	Data File
Generated	10/10/2022 11:58:37 AM
Generated by	System Administrator
Modified	10/10/2022 12:03:01 PM
Modified by	System Administrator

[Sample Information]
Operator Name	System Administrator
Acquired	10/10/2022 11:59:01 AM
Sample Type	1:Standard
Level	1
Sample Name	220812_UICPrairie
Sample ID	220812_UICPrairie
ISTD Amount1	1
ISTD Amount2	1
ISTD Amount3	1
ISTD Amount4	1
ISTD Amount5	1
ISTD Amount6	1
ISTD Amount7	1
ISTD Amount8	1
ISTD Amount9	1
ISTD Amount10	1
ISTD Amount11	1
ISTD Amount12	1
ISTD Amount13	1
ISTD Amount14	1
ISTD Amount15	1
ISTD Amount16	1
ISTD Amount17	1
ISTD Amount18	1
ISTD Amount19	1
ISTD Amount20	1
ISTD Amount21	1
ISTD Amount22	1
ISTD Amount23	1
ISTD Amount24	1
ISTD Amount25	1
ISTD Amount26	1
ISTD Amount27	1
ISTD Amount28	1
ISTD Amount29	1
ISTD Amount30	1
ISTD Amount31	1
ISTD Amount32	1
Sample Amount	1
Dilution Factor	1
Vial#	1
Injection Volume	1
Injection Count	1
Bar Code	

[Original Files]
Data File	C:\Users\User\Desktop\GC Analyses\Jack\UIC Prairie Sampling\8.12.22\220812_025.gcd
Method File	C:\LabSolutions\Data\GHG_4min_2022\ghg3_togas_w_acet_4 min_new_int.gcm
Batch File	
Report Format File	c:\LabSolutions\System\DEFAULT.lsr

[File Description]


[Configuration]
Instrument Name	C0B7VH3-Instrument1
Instrument #	1
Line #	1
# of Detectors	3
Detector ID	DET#1	DET#2	DET#3
Detector Name	FID	PTCD	ECD
# of Channels	1	1	1

[Peak Table(Ch1)]
# of Peaks	4
Peak#	R.Time	I.Time	F.Time	Area	Height	A/H	Conc.	Mark	ID#	Name	k'	Plate #	Plate Ht.	Tailing	Resolution	Sep.Factor	Area Ratio	Height Ratio	Conc. %	Norm Conc.
1	1.479	1.439	1.538	14360	6148	2.336	100.000	   	1	CO	0.000	8137	18.435	1.367	0.000	0.000	0	0	14.286	14.286
2	1.571	1.538	1.644	5314	2476	2.146	100.000	 V 	2	CH4	0.062	10007	14.989	0.000	1.428	0.000	0	0	14.286	14.286
3	2.000	1.952	2.264	1538231	747662	2.057	400.000	   	3	CO2	0.352	17621	8.513	1.182	6.971	5.680	0	0	57.143	57.143
4	2.711	2.623	2.895	4462	557	8.012	100.000	   	4	Ethylene	0.833	2456	61.071	1.559	5.097	2.366	0	0	14.286	14.286

[Peak Table(Ch2)]
# of Peaks	0

[Peak Table(Ch3)]
# of Peaks	3
Peak#	R.Time	I.Time	F.Time	Area	Height	A/H	Conc.	Mark	ID#	Name	k'	Plate #	Plate Ht.	Tailing	Resolution	Sep.Factor	Area Ratio	Height Ratio	Conc. %	Norm Conc.
1	2.447	1.549	2.532	15342	533	28.797	0.000	   			0.000	130	1154.748	0.000	0.000	0.000	0	0	0.000	0.000
2	2.590	2.532	2.645	1432	271	5.275	0.000	 V 			0.058	594	252.370	0.000	0.223	0.000	0	0	0.000	0.000
3	2.884	2.664	3.217	18917	4476	4.226	1.000	   	1	N2O	0.178	13160	11.398	1.593	1.116	3.051	0	0	100.000	100.000

[Compound Results(Ch1)]
# of IDs	6
ID#	Name	R.Time	Area	Height	Conc.	Curve	3rd	2nd	1st	Constant	Area Ratio	Height Ratio	Conc. %	Norm Conc.
1	CO	1.479	14360	6148	100.000	Linear	0.000000e+00	0.000000e+00	1.435981e+002	0.000000e+00	0	0	14.286	14.286
2	CH4	1.571	5314	2476	100.000	Linear	0.000000e+00	0.000000e+00	5.313573e+001	0.000000e+00	0	0	14.286	14.286
3	CO2	2.000	1538231	747662	400.000	Linear	0.000000e+00	0.000000e+00	3.845578e+003	0.000000e+00	0	0	57.143	57.143
4	Ethylene	2.711	4462	557	100.000	Linear	0.000000e+00	0.000000e+00	4.461996e+001	0.000000e+00	0	0	14.286	14.286
5	Acetylene	0.000	0	0	0.000	Linear	0.000000e+00	0.000000e+00	0.000000e+00	0.000000e+00	0	0	0.000	0.000
6	Ethane	0.000	0	0	0.000	Linear	0.000000e+00	0.000000e+00	0.000000e+00	0.000000e+00	0	0	0.000	0.000

[Compound Results(Ch2)]
# of IDs	5
ID#	Name	R.Time	Area	Height	Conc.	Curve	3rd	2nd	1st	Constant	Area Ratio	Height Ratio	Conc. %	Norm Conc.
1	Hydrogen	0.000	0	0	0.000	Linear	0.000000e+00	0.000000e+00	0.000000e+00	0.000000e+00	0	0	0.000	0.000
2	Oxygen	0.000	0	0	0.000	Linear	0.000000e+00	0.000000e+00	0.000000e+00	0.000000e+00	0	0	0.000	0.000
3	Nitrogen	0.000	0	0	0.000	Linear	0.000000e+00	0.000000e+00	0.000000e+00	0.000000e+00	0	0	0.000	0.000
4	Methane	0.000	0	0	0.000	Linear	0.000000e+00	0.000000e+00	0.000000e+00	0.000000e+00	0	0	0.000	0.000
5	Carbon Monoxide	0.000	0	0	0.000	Linear	0.000000e+00	0.000000e+00	0.000000e+00	0.000000e+00	0	0	0.000	0.000

[Compound Results(Ch3)]
# of IDs	2
ID#	Name	R.Time	Area	Height	Conc.	Curve	3rd	2nd	1st	Constant	Area Ratio	Height Ratio	Conc. %	Norm Conc.
1	N2O	2.884	18917	4476	1.000	Linear	0.000000e+00	0.000000e+00	1.891748e+004	0.000000e+00	0	0	100.000	100.000
2	SF6	0.000	0	0	0.000	Linear	0.000000e+00	0.000000e+00	0.000000e+00	0.000000e+00	0	0	0.000	0.000

[Group Results(Ch1)]
# of Groups	0

[Group Results(Ch2)]
# of Groups	0

[Group Results(Ch3)]
# of Groups	0

[Chromatogram (Ch1)]
Interval(msec)	220
# of Points	1091
Start Time(min)	0.002
End Time(min)	3.998
R.Time (min)	Intensity
0.00167	-9
0.00533	-9
0.00900	-8
0.01267	-9
0.01633	-10
0.02000	-12
0.02367	-15
0.02733	-15
0.03100	-15
0.03467	-15
0.03833	-16
0.04200	-17
0.04567	-17
0.04933	-17
0.05300	-17
0.05667	-16
0.06033	-15
0.06400	-12
0.06767	-9
0.07133	-5
0.07500	-2
0.07867	-0
0.08233	4
0.08600	6
0.08967	4
0.09333	1
0.09700	-2
0.10067	-7
0.10433	-14
0.10800	-18
0.11167	-23
0.11533	-28
0.11900	-33
0.12267	-34
0.12633	-34
0.13000	-33
0.13367	-34
0.13733	-35
0.14100	-36
0.14467	-36
0.14833	-37
0.15200	-38
0.15567	-37
0.15933	-33
0.16300	-27
0.16667	-27
0.17033	-30
0.17400	-34
0.17767	-35
0.18133	-35
0.18500	-36
0.18867	-37
0.19233	-38
0.19600	-39
0.19967	-37
0.20333	-35
0.20700	-33
0.21067	-32
0.21433	-33
0.21800	-34
0.22167	-36
0.22533	-38
0.22900	-39
0.23267	-42
0.23633	-45
0.24000	-46
0.24367	-46
0.24733	-44
0.25100	-39
0.25467	-34
0.25833	-32
0.26200	-29
0.26567	-29
0.26933	-30
0.27300	-31
0.27667	-35
0.28033	-40
0.28400	-44
0.28767	-48
0.29133	-52
0.29500	-53
0.29867	-54
0.30233	-53
0.30600	-52
0.30967	-54
0.31333	-53
0.31700	-55
0.32067	-60
0.32433	-67
0.32800	-71
0.33167	-70
0.33533	-67
0.33900	-65
0.34267	-63
0.34633	-63
0.35000	-60
0.35367	-60
0.35733	-61
0.36100	-63
0.36467	-65
0.36833	-66
0.37200	-64
0.37567	-61
0.37933	-58
0.38300	-58
0.38667	-59
0.39033	-62
0.39400	-61
0.39767	-63
0.40133	-67
0.40500	-69
0.40867	-68
0.41233	-66
0.41600	-66
0.41967	-70
0.42333	-75
0.42700	-78
0.43067	-80
0.43433	-79
0.43800	-76
0.44167	-73
0.44533	-71
0.44900	-70
0.45267	-70
0.45633	-70
0.46000	-70
0.46367	-69
0.46733	-68
0.47100	-69
0.47467	-69
0.47833	-71
0.48200	-75
0.48567	-77
0.48933	-75
0.49300	-73
0.49667	-70
0.50033	-69
0.50400	-68
0.50767	-71
0.51133	-75
0.51500	-79
0.51867	-79
0.52233	-76
0.52600	-77
0.52967	-76
0.53333	-75
0.53700	-73
0.54067	-71
0.54433	-68
0.54800	-65
0.55167	-64
0.55533	-65
0.55900	-70
0.56267	-77
0.56633	-83
0.57000	-88
0.57367	-90
0.57733	-90
0.58100	-89
0.58467	-90
0.58833	-93
0.59200	-95
0.59567	-99
0.59933	-98
0.60300	-97
0.60667	-95
0.61033	-92
0.61400	-85
0.61767	-78
0.62133	-79
0.62500	-85
0.62867	-89
0.63233	-92
0.63600	-92
0.63967	-91
0.64333	-90
0.64700	-89
0.65067	-88
0.65433	-91
0.65800	-96
0.66167	-98
0.66533	-97
0.66900	-96
0.67267	-95
0.67633	-93
0.68000	-92
0.68367	-95
0.68733	-99
0.69100	-103
0.69467	-107
0.69833	-110
0.70200	-110
0.70567	-109
0.70933	-108
0.71300	-105
0.71667	-100
0.72033	-93
0.72400	-89
0.72767	-87
0.73133	-88
0.73500	-89
0.73867	-91
0.74233	-93
0.74600	-95
0.74967	-95
0.75333	-95
0.75700	-93
0.76067	-93
0.76433	-95
0.76800	-98
0.77167	-99
0.77533	-100
0.77900	-103
0.78267	-107
0.78633	-107
0.79000	-104
0.79367	-101
0.79733	-101
0.80100	-103
0.80467	-107
0.80833	-111
0.81200	-114
0.81567	-114
0.81933	-113
0.82300	-112
0.82667	-111
0.83033	-108
0.83400	-102
0.83767	-95
0.84133	-90
0.84500	-92
0.84867	-99
0.85233	-106
0.85600	-112
0.85967	-115
0.86333	-115
0.86700	-116
0.87067	-116
0.87433	-113
0.87800	-110
0.88167	-107
0.88533	-104
0.88900	-102
0.89267	-104
0.89633	-105
0.90000	-102
0.90367	-100
0.90733	-104
0.91100	-110
0.91467	-115
0.91833	-117
0.92200	-121
0.92567	-125
0.92933	-130
0.93300	-132
0.93667	-131
0.94033	-127
0.94400	-124
0.94767	-121
0.95133	-118
0.95500	-116
0.95867	-115
0.96233	-113
0.96600	-113
0.96967	-118
0.97333	-122
0.97700	-125
0.98067	-124
0.98433	-122
0.98800	-121
0.99167	-118
0.99533	-114
0.99900	-109
1.00267	-107
1.00633	-111
1.01000	-117
1.01367	-120
1.01733	-123
1.02100	-123
1.02467	-120
1.02833	-116
1.03200	-114
1.03567	-115
1.03933	-117
1.04300	-121
1.04667	-124
1.05033	-125
1.05400	-126
1.05767	-128
1.06133	-131
1.06500	-132
1.06867	-131
1.07233	-131
1.07600	-130
1.07967	-129
1.08333	-127
1.08700	-126
1.09067	-125
1.09433	-127
1.09800	-128
1.10167	-128
1.10533	-128
1.10900	-126
1.11267	-122
1.11633	-119
1.12000	-118
1.12367	-121
1.12733	-123
1.13100	-123
1.13467	-122
1.13833	-120
1.14200	-120
1.14567	-125
1.14933	-132
1.15300	-138
1.15667	-139
1.16033	-138
1.16400	-138
1.16767	-139
1.17133	-137
1.17500	-131
1.17867	-127
1.18233	-128
1.18600	-130
1.18967	-133
1.19333	-137
1.19700	-141
1.20067	-144
1.20433	-143
1.20800	-142
1.21167	-144
1.21533	-146
1.21900	-147
1.22267	-145
1.22633	-143
1.23000	-142
1.23367	-138
1.23733	-132
1.24100	-129
1.24467	-130
1.24833	-132
1.25200	-132
1.25567	-131
1.25933	-131
1.26300	-132
1.26667	-135
1.27033	-136
1.27400	-136
1.27767	-140
1.28133	-144
1.28500	-143
1.28867	-140
1.29233	-138
1.29600	-133
1.29967	-127
1.30333	-124
1.30700	-124
1.31067	-126
1.31433	-129
1.31800	-132
1.32167	-134
1.32533	-135
1.32900	-139
1.33267	-144
1.33633	-149
1.34000	-151
1.34367	-153
1.34733	-152
1.35100	-150
1.35467	-148
1.35833	-145
1.36200	-142
1.36567	-139
1.36933	-137
1.37300	-137
1.37667	-137
1.38033	-138
1.38400	-140
1.38767	-140
1.39133	-139
1.39500	-138
1.39867	-136
1.40233	-134
1.40600	-132
1.40967	-131
1.41333	-131
1.41700	-132
1.42067	-134
1.42433	-136
1.42800	-140
1.43167	-144
1.43533	-146
1.43900	-145
1.44267	-110
1.44633	55
1.45000	445
1.45367	1096
1.45733	2022
1.46100	3119
1.46467	4187
1.46833	5063
1.47200	5676
1.47567	6000
1.47933	6011
1.48300	5693
1.48667	5076
1.49033	4262
1.49400	3390
1.49767	2584
1.50133	1912
1.50500	1392
1.50867	1011
1.51233	743
1.51600	558
1.51967	428
1.52333	335
1.52700	268
1.53067	219
1.53433	185
1.53800	166
1.54167	171
1.54533	244
1.54900	444
1.55267	789
1.55633	1220
1.56000	1640
1.56367	1989
1.56733	2237
1.57100	2358
1.57467	2320
1.57833	2110
1.58200	1769
1.58567	1376
1.58933	1001
1.59300	686
1.59667	445
1.60033	274
1.60400	159
1.60767	82
1.61133	30
1.61500	-4
1.61867	-29
1.62233	-50
1.62600	-68
1.62967	-81
1.63333	-90
1.63700	-95
1.64067	-98
1.64433	-102
1.64800	-106
1.65167	-108
1.65533	-112
1.65900	-115
1.66267	-116
1.66633	-117
1.67000	-118
1.67367	-119
1.67733	-120
1.68100	-123
1.68467	-131
1.68833	-137
1.69200	-139
1.69567	-141
1.69933	-145
1.70300	-149
1.70667	-150
1.71033	-146
1.71400	-140
1.71767	-136
1.72133	-136
1.72500	-136
1.72867	-137
1.73233	-139
1.73600	-143
1.73967	-147
1.74333	-148
1.74700	-146
1.75067	-145
1.75433	-143
1.75800	-138
1.76167	-132
1.76533	-128
1.76900	-126
1.77267	-129
1.77633	-133
1.78000	-138
1.78367	-138
1.78733	-136
1.79100	-135
1.79467	-136
1.79833	-140
1.80200	-143
1.80567	-145
1.80933	-145
1.81300	-143
1.81667	-142
1.82033	-141
1.82400	-140
1.82767	-137
1.83133	-132
1.83500	-127
1.83867	-125
1.84233	-125
1.84600	-128
1.84967	-131
1.85333	-134
1.85700	-138
1.86067	-139
1.86433	-137
1.86800	-133
1.87167	-130
1.87533	-128
1.87900	-127
1.88267	-132
1.88633	-140
1.89000	-145
1.89367	-147
1.89733	-147
1.90100	-145
1.90467	-141
1.90833	-138
1.91200	-138
1.91567	-134
1.91933	-124
1.92300	-115
1.92667	-107
1.93033	-100
1.93400	-97
1.93767	-93
1.94133	-89
1.94500	-92
1.94867	-99
1.95233	-99
1.95600	-50
1.95967	289
1.96333	2038
1.96700	8891
1.97067	29343
1.97433	76444
1.97800	161177
1.98167	282155
1.98533	422825
1.98900	558781
1.99267	667461
1.99633	733272
2.00000	747614
2.00367	709770
2.00733	628758
2.01100	521715
2.01467	408202
2.01833	303966
2.02200	217744
2.02567	151679
2.02933	103770
2.03300	70347
2.03667	47630
2.04033	32442
2.04400	22376
2.04767	15716
2.05133	11293
2.05500	8333
2.05867	6325
2.06233	4940
2.06600	3963
2.06967	3258
2.07333	2737
2.07700	2342
2.08067	2034
2.08433	1788
2.08800	1588
2.09167	1423
2.09533	1286
2.09900	1173
2.10267	1076
2.10633	990
2.11000	917
2.11367	857
2.11733	809
2.12100	770
2.12467	733
2.12833	695
2.13200	654
2.13567	617
2.13933	586
2.14300	561
2.14667	538
2.15033	521
2.15400	506
2.15767	492
2.16133	477
2.16500	464
2.16867	449
2.17233	432
2.17600	414
2.17967	399
2.18333	387
2.18700	374
2.19067	362
2.19433	353
2.19800	347
2.20167	343
2.20533	338
2.20900	334
2.21267	326
2.21633	314
2.22000	305
2.22367	299
2.22733	296
2.23100	292
2.23467	289
2.23833	283
2.24200	276
2.24567	269
2.24933	261
2.25300	253
2.25667	245
2.26033	238
2.26400	232
2.26767	228
2.27133	229
2.27500	233
2.27867	240
2.28233	247
2.28600	254
2.28967	257
2.29333	256
2.29700	253
2.30067	251
2.30433	250
2.30800	246
2.31167	239
2.31533	232
2.31900	227
2.32267	226
2.32633	227
2.33000	225
2.33367	220
2.33733	216
2.34100	216
2.34467	218
2.34833	224
2.35200	227
2.35567	225
2.35933	217
2.36300	207
2.36667	198
2.37033	193
2.37400	188
2.37767	185
2.38133	184
2.38500	185
2.38867	188
2.39233	192
2.39600	196
2.39967	202
2.40333	207
2.40700	211
2.41067	215
2.41433	219
2.41800	219
2.42167	218
2.42533	216
2.42900	219
2.43267	225
2.43633	230
2.44000	235
2.44367	237
2.44733	235
2.45100	233
2.45467	229
2.45833	226
2.46200	222
2.46567	222
2.46933	223
2.47300	223
2.47667	220
2.48033	216
2.48400	213
2.48767	210
2.49133	209
2.49500	208
2.49867	206
2.50233	204
2.50600	206
2.50967	207
2.51333	212
2.51700	223
2.52067	237
2.52433	252
2.52800	266
2.53167	276
2.53533	284
2.53900	285
2.54267	276
2.54633	264
2.55000	254
2.55367	244
2.55733	236
2.56100	227
2.56467	216
2.56833	207
2.57200	201
2.57567	200
2.57933	198
2.58300	196
2.58667	197
2.59033	199
2.59400	203
2.59767	207
2.60133	212
2.60500	215
2.60867	218
2.61233	220
2.61600	224
2.61967	232
2.62333	243
2.62700	257
2.63067	275
2.63433	295
2.63800	312
2.64167	327
2.64533	340
2.64900	365
2.65267	402
2.65633	440
2.66000	484
2.66367	532
2.66733	581
2.67100	629
2.67467	676
2.67833	718
2.68200	757
2.68567	796
2.68933	832
2.69300	859
2.69667	876
2.70033	885
2.70400	892
2.70767	900
2.71133	907
2.71500	908
2.71867	904
2.72233	900
2.72600	895
2.72967	887
2.73333	875
2.73700	862
2.74067	850
2.74433	838
2.74800	826
2.75167	815
2.75533	809
2.75900	806
2.76267	807
2.76633	804
2.77000	796
2.77367	786
2.77733	774
2.78100	761
2.78467	750
2.78833	738
2.79200	728
2.79567	726
2.79933	728
2.80300	726
2.80667	720
2.81033	712
2.81400	703
2.81767	693
2.82133	683
2.82500	674
2.82867	667
2.83233	660
2.83600	655
2.83967	650
2.84333	645
2.84700	641
2.85067	639
2.85433	638
2.85800	638
2.86167	637
2.86533	629
2.86900	617
2.87267	604
2.87633	591
2.88000	583
2.88367	579
2.88733	575
2.89100	573
2.89467	573
2.89833	573
2.90200	572
2.90567	572
2.90933	571
2.91300	570
2.91667	570
2.92033	567
2.92400	563
2.92767	557
2.93133	552
2.93500	547
2.93867	541
2.94233	538
2.94600	537
2.94967	537
2.95333	537
2.95700	535
2.96067	534
2.96433	536
2.96800	538
2.97167	538
2.97533	536
2.97900	534
2.98267	535
2.98633	539
2.99000	546
2.99367	555
2.99733	562
3.00100	566
3.00467	569
3.00833	572
3.01200	575
3.01567	575
3.01933	571
3.02300	564
3.02667	553
3.03033	543
3.03400	536
3.03767	526
3.04133	517
3.04500	509
3.04867	503
3.05233	500
3.05600	499
3.05967	496
3.06333	492
3.06700	487
3.07067	483
3.07433	482
3.07800	481
3.08167	481
3.08533	481
3.08900	483
3.09267	482
3.09633	481
3.10000	482
3.10367	487
3.10733	492
3.11100	493
3.11467	487
3.11833	479
3.12200	471
3.12567	465
3.12933	459
3.13300	453
3.13667	446
3.14033	441
3.14400	440
3.14767	443
3.15133	446
3.15500	450
3.15867	451
3.16233	450
3.16600	447
3.16967	444
3.17333	443
3.17700	445
3.18067	448
3.18433	452
3.18800	456
3.19167	457
3.19533	457
3.19900	455
3.20267	450
3.20633	445
3.21000	440
3.21367	436
3.21733	437
3.22100	440
3.22467	446
3.22833	449
3.23200	450
3.23567	450
3.23933	451
3.24300	452
3.24667	451
3.25033	447
3.25400	444
3.25767	444
3.26133	444
3.26500	444
3.26867	442
3.27233	440
3.27600	436
3.27967	433
3.28333	432
3.28700	434
3.29067	434
3.29433	430
3.29800	426
3.30167	423
3.30533	420
3.30900	420
3.31267	421
3.31633	424
3.32000	427
3.32367	430
3.32733	431
3.33100	430
3.33467	429
3.33833	427
3.34200	425
3.34567	422
3.34933	422
3.35300	424
3.35667	428
3.36033	429
3.36400	428
3.36767	428
3.37133	427
3.37500	425
3.37867	418
3.38233	410
3.38600	403
3.38967	398
3.39333	397
3.39700	398
3.40067	398
3.40433	398
3.40800	399
3.41167	401
3.41533	404
3.41900	404
3.42267	397
3.42633	392
3.43000	391
3.43367	392
3.43733	392
3.44100	391
3.44467	393
3.44833	399
3.45200	404
3.45567	403
3.45933	398
3.46300	393
3.46667	390
3.47033	389
3.47400	391
3.47767	396
3.48133	399
3.48500	400
3.48867	401
3.49233	401
3.49600	401
3.49967	399
3.50333	397
3.50700	395
3.51067	391
3.51433	383
3.51800	376
3.52167	374
3.52533	376
3.52900	381
3.53267	385
3.53633	388
3.54000	388
3.54367	384
3.54733	381
3.55100	379
3.55467	380
3.55833	385
3.56200	390
3.56567	394
3.56933	396
3.57300	397
3.57667	398
3.58033	400
3.58400	402
3.58767	404
3.59133	399
3.59500	390
3.59867	380
3.60233	373
3.60600	374
3.60967	381
3.61333	388
3.61700	394
3.62067	397
3.62433	397
3.62800	397
3.63167	398
3.63533	393
3.63900	382
3.64267	371
3.64633	364
3.65000	361
3.65367	361
3.65733	361
3.66100	360
3.66467	361
3.66833	361
3.67200	360
3.67567	359
3.67933	357
3.68300	356
3.68667	357
3.69033	361
3.69400	368
3.69767	373
3.70133	378
3.70500	380
3.70867	379
3.71233	379
3.71600	379
3.71967	378
3.72333	379
3.72700	376
3.73067	372
3.73433	367
3.73800	365
3.74167	363
3.74533	362
3.74900	362
3.75267	365
3.75633	368
3.76000	371
3.76367	375
3.76733	376
3.77100	378
3.77467	381
3.77833	384
3.78200	387
3.78567	389
3.78933	389
3.79300	387
3.79667	385
3.80033	386
3.80400	386
3.80767	384
3.81133	385
3.81500	387
3.81867	388
3.82233	387
3.82600	382
3.82967	382
3.83333	385
3.83700	388
3.84067	389
3.84433	386
3.84800	383
3.85167	381
3.85533	380
3.85900	380
3.86267	380
3.86633	381
3.87000	382
3.87367	381
3.87733	380
3.88100	380
3.88467	381
3.88833	379
3.89200	375
3.89567	371
3.89933	368
3.90300	367
3.90667	368
3.91033	369
3.91400	374
3.91767	377
3.92133	379
3.92500	377
3.92867	376
3.93233	374
3.93600	372
3.93967	370
3.94333	370
3.94700	370
3.95067	370
3.95433	372
3.95800	374
3.96167	379
3.96533	384
3.96900	385
3.97267	384
3.97633	383
3.98000	379
3.98367	375
3.98733	371
3.99100	369
3.99467	372
3.99833	375

[Chromatogram (Ch2)]
Interval(msec)	220
# of Points	1091
Start Time(min)	0.002
End Time(min)	3.998
R.Time (min)	Intensity
0.00167	-15
0.00533	-20
0.00900	-24
0.01267	-29
0.01633	-34
0.02000	-38
0.02367	-43
0.02733	-47
0.03100	-52
0.03467	-56
0.03833	-60
0.04200	-64
0.04567	-69
0.04933	-73
0.05300	-78
0.05667	-83
0.06033	-87
0.06400	-92
0.06767	-97
0.07133	-102
0.07500	-107
0.07867	-112
0.08233	-116
0.08600	-121
0.08967	-126
0.09333	-131
0.09700	-135
0.10067	-140
0.10433	-145
0.10800	-150
0.11167	-154
0.11533	-159
0.11900	-164
0.12267	-169
0.12633	-174
0.13000	-179
0.13367	-184
0.13733	-189
0.14100	-195
0.14467	-200
0.14833	-204
0.15200	-209
0.15567	-214
0.15933	-218
0.16300	-223
0.16667	-228
0.17033	-233
0.17400	-238
0.17767	-243
0.18133	-248
0.18500	-252
0.18867	-257
0.19233	-262
0.19600	-266
0.19967	-271
0.20333	-276
0.20700	-280
0.21067	-285
0.21433	-290
0.21800	-295
0.22167	-300
0.22533	-304
0.22900	-309
0.23267	-314
0.23633	-318
0.24000	-323
0.24367	-327
0.24733	-331
0.25100	-335
0.25467	-340
0.25833	-344
0.26200	-349
0.26567	-353
0.26933	-358
0.27300	-362
0.27667	-367
0.28033	-371
0.28400	-376
0.28767	-381
0.29133	-385
0.29500	-390
0.29867	-395
0.30233	-399
0.30600	-404
0.30967	-408
0.31333	-413
0.31700	-417
0.32067	-422
0.32433	-426
0.32800	-430
0.33167	-435
0.33533	-439
0.33900	-443
0.34267	-448
0.34633	-452
0.35000	-456
0.35367	-461
0.35733	-465
0.36100	-469
0.36467	-474
0.36833	-479
0.37200	-483
0.37567	-488
0.37933	-492
0.38300	-497
0.38667	-502
0.39033	-506
0.39400	-511
0.39767	-516
0.40133	-520
0.40500	-525
0.40867	-529
0.41233	-534
0.41600	-539
0.41967	-543
0.42333	-547
0.42700	-552
0.43067	-556
0.43433	-561
0.43800	-566
0.44167	-571
0.44533	-575
0.44900	-580
0.45267	-584
0.45633	-589
0.46000	-593
0.46367	-598
0.46733	-602
0.47100	-607
0.47467	-611
0.47833	-615
0.48200	-620
0.48567	-624
0.48933	-628
0.49300	-632
0.49667	-636
0.50033	-640
0.50400	-644
0.50767	-649
0.51133	-652
0.51500	-656
0.51867	-660
0.52233	-664
0.52600	-668
0.52967	-672
0.53333	-676
0.53700	-680
0.54067	-684
0.54433	-688
0.54800	-692
0.55167	-696
0.55533	-700
0.55900	-704
0.56267	-709
0.56633	-713
0.57000	-717
0.57367	-722
0.57733	-726
0.58100	-730
0.58467	-734
0.58833	-738
0.59200	-742
0.59567	-746
0.59933	-750
0.60300	-754
0.60667	-758
0.61033	-763
0.61400	-767
0.61767	-771
0.62133	-775
0.62500	-779
0.62867	-784
0.63233	-788
0.63600	-793
0.63967	-797
0.64333	-802
0.64700	-806
0.65067	-810
0.65433	-815
0.65800	-819
0.66167	-823
0.66533	-827
0.66900	-831
0.67267	-835
0.67633	-839
0.68000	-843
0.68367	-847
0.68733	-850
0.69100	-854
0.69467	-858
0.69833	-862
0.70200	-865
0.70567	-869
0.70933	-873
0.71300	-877
0.71667	-881
0.72033	-885
0.72400	-889
0.72767	-893
0.73133	-897
0.73500	-901
0.73867	-905
0.74233	-909
0.74600	-914
0.74967	-918
0.75333	-922
0.75700	-926
0.76067	-930
0.76433	-933
0.76800	-937
0.77167	-941
0.77533	-945
0.77900	-949
0.78267	-954
0.78633	-958
0.79000	-961
0.79367	-965
0.79733	-970
0.80100	-973
0.80467	-977
0.80833	-981
0.81200	-985
0.81567	-989
0.81933	-993
0.82300	-996
0.82667	-1000
0.83033	-1004
0.83400	-1008
0.83767	-1012
0.84133	-1016
0.84500	-1020
0.84867	-1024
0.85233	-1028
0.85600	-1033
0.85967	-1037
0.86333	-1041
0.86700	-1044
0.87067	-1048
0.87433	-1052
0.87800	-1056
0.88167	-1060
0.88533	-1064
0.88900	-1068
0.89267	-1071
0.89633	-1075
0.90000	-1079
0.90367	-1083
0.90733	-1087
0.91100	-1090
0.91467	-1094
0.91833	-1098
0.92200	-1102
0.92567	-1106
0.92933	-1109
0.93300	-1113
0.93667	-1117
0.94033	-1121
0.94400	-1125
0.94767	-1128
0.95133	-1132
0.95500	-1136
0.95867	-1140
0.96233	-1144
0.96600	-1147
0.96967	-1151
0.97333	-1155
0.97700	-1159
0.98067	-1163
0.98433	-1167
0.98800	-1171
0.99167	-1174
0.99533	-1178
0.99900	-1182
1.00267	-1185
1.00633	-1189
1.01000	-1193
1.01367	-1197
1.01733	-1201
1.02100	-1205
1.02467	-1208
1.02833	-1212
1.03200	-1216
1.03567	-1219
1.03933	-1223
1.04300	-1227
1.04667	-1231
1.05033	-1235
1.05400	-1239
1.05767	-1242
1.06133	-1246
1.06500	-1250
1.06867	-1253
1.07233	-1257
1.07600	-1260
1.07967	-1264
1.08333	-1267
1.08700	-1271
1.09067	-1275
1.09433	-1278
1.09800	-1282
1.10167	-1285
1.10533	-1289
1.10900	-1292
1.11267	-1296
1.11633	-1299
1.12000	-1303
1.12367	-1306
1.12733	-1310
1.13100	-1314
1.13467	-1317
1.13833	-1321
1.14200	-1325
1.14567	-1328
1.14933	-1332
1.15300	-1336
1.15667	-1339
1.16033	-1343
1.16400	-1347
1.16767	-1351
1.17133	-1355
1.17500	-1359
1.17867	-1363
1.18233	-1367
1.18600	-1370
1.18967	-1374
1.19333	-1377
1.19700	-1381
1.20067	-1384
1.20433	-1388
1.20800	-1391
1.21167	-1394
1.21533	-1397
1.21900	-1401
1.22267	-1404
1.22633	-1407
1.23000	-1411
1.23367	-1414
1.23733	-1418
1.24100	-1421
1.24467	-1425
1.24833	-1428
1.25200	-1431
1.25567	-1435
1.25933	-1438
1.26300	-1441
1.26667	-1445
1.27033	-1448
1.27400	-1452
1.27767	-1456
1.28133	-1459
1.28500	-1463
1.28867	-1466
1.29233	-1469
1.29600	-1472
1.29967	-1476
1.30333	-1479
1.30700	-1482
1.31067	-1485
1.31433	-1489
1.31800	-1492
1.32167	-1495
1.32533	-1499
1.32900	-1502
1.33267	-1506
1.33633	-1509
1.34000	-1512
1.34367	-1515
1.34733	-1519
1.35100	-1522
1.35467	-1525
1.35833	-1529
1.36200	-1533
1.36567	-1536
1.36933	-1539
1.37300	-1543
1.37667	-1546
1.38033	-1550
1.38400	-1553
1.38767	-1556
1.39133	-1559
1.39500	-1562
1.39867	-1566
1.40233	-1569
1.40600	-1572
1.40967	-1575
1.41333	-1578
1.41700	-1581
1.42067	-1585
1.42433	-1588
1.42800	-1591
1.43167	-1594
1.43533	-1598
1.43900	-1601
1.44267	-1604
1.44633	-1608
1.45000	-1611
1.45367	-1614
1.45733	-1617
1.46100	-1620
1.46467	-1624
1.46833	-1627
1.47200	-1630
1.47567	-1633
1.47933	-1636
1.48300	-1639
1.48667	-1642
1.49033	-1645
1.49400	-1648
1.49767	-1652
1.50133	-1655
1.50500	-1658
1.50867	-1662
1.51233	-1665
1.51600	-1668
1.51967	-1672
1.52333	-1675
1.52700	-1678
1.53067	-1682
1.53433	-1685
1.53800	-1689
1.54167	-1692
1.54533	-1695
1.54900	-1698
1.55267	-1701
1.55633	-1704
1.56000	-1708
1.56367	-1711
1.56733	-1714
1.57100	-1718
1.57467	-1721
1.57833	-1725
1.58200	-1728
1.58567	-1731
1.58933	-1735
1.59300	-1739
1.59667	-1742
1.60033	-1746
1.60400	-1750
1.60767	-1755
1.61133	-1759
1.61500	-1764
1.61867	-1770
1.62233	-1775
1.62600	-1781
1.62967	-1788
1.63333	-1794
1.63700	-1801
1.64067	-1809
1.64433	-1816
1.64800	-1824
1.65167	-1831
1.65533	-1839
1.65900	-1847
1.66267	-1855
1.66633	-1863
1.67000	-1872
1.67367	-1882
1.67733	-1891
1.68100	-1901
1.68467	-1910
1.68833	-1919
1.69200	-1927
1.69567	-1934
1.69933	-1942
1.70300	-1948
1.70667	-1955
1.71033	-1960
1.71400	-1966
1.71767	-1971
1.72133	-1976
1.72500	-1980
1.72867	-1984
1.73233	-1988
1.73600	-1992
1.73967	-1996
1.74333	-2000
1.74700	-2005
1.75067	-2009
1.75433	-2014
1.75800	-2018
1.76167	-2023
1.76533	-2027
1.76900	-2032
1.77267	-2036
1.77633	-2040
1.78000	-2044
1.78367	-2048
1.78733	-2051
1.79100	-2054
1.79467	-2058
1.79833	-2061
1.80200	-2064
1.80567	-2066
1.80933	-2069
1.81300	-2072
1.81667	-2074
1.82033	-2077
1.82400	-2081
1.82767	-2084
1.83133	-2088
1.83500	-2092
1.83867	-2096
1.84233	-2100
1.84600	-2103
1.84967	-2106
1.85333	-2109
1.85700	-2112
1.86067	-2114
1.86433	-2117
1.86800	-2119
1.87167	-2122
1.87533	-2125
1.87900	-2128
1.88267	-2131
1.88633	-2134
1.89000	-2137
1.89367	-2140
1.89733	-2143
1.90100	-2145
1.90467	-2148
1.90833	-2150
1.91200	-2153
1.91567	-2156
1.91933	-2158
1.92300	-2161
1.92667	-2164
1.93033	-2167
1.93400	-2170
1.93767	-2173
1.94133	-2176
1.94500	-2179
1.94867	-2181
1.95233	-2184
1.95600	-2186
1.95967	-2188
1.96333	-2191
1.96700	-2193
1.97067	-2196
1.97433	-2199
1.97800	-2202
1.98167	-2204
1.98533	-2207
1.98900	-2210
1.99267	-2212
1.99633	-2214
2.00000	-2216
2.00367	-2218
2.00733	-2221
2.01100	-2223
2.01467	-2226
2.01833	-2229
2.02200	-2231
2.02567	-2233
2.02933	-2235
2.03300	-2237
2.03667	-2239
2.04033	-2241
2.04400	-2243
2.04767	-2245
2.05133	-2248
2.05500	-2250
2.05867	-2252
2.06233	-2255
2.06600	-2257
2.06967	-2260
2.07333	-2263
2.07700	-2266
2.08067	-2269
2.08433	-2271
2.08800	-2274
2.09167	-2276
2.09533	-2279
2.09900	-2281
2.10267	-2283
2.10633	-2285
2.11000	-2287
2.11367	-2289
2.11733	-2291
2.12100	-2294
2.12467	-2297
2.12833	-2299
2.13200	-2302
2.13567	-2305
2.13933	-2307
2.14300	-2310
2.14667	-2312
2.15033	-2315
2.15400	-2317
2.15767	-2320
2.16133	-2322
2.16500	-2325
2.16867	-2327
2.17233	-2329
2.17600	-2331
2.17967	-2333
2.18333	-2335
2.18700	-2337
2.19067	-2339
2.19433	-2341
2.19800	-2343
2.20167	-2345
2.20533	-2347
2.20900	-2349
2.21267	-2351
2.21633	-2353
2.22000	-2355
2.22367	-2357
2.22733	-2360
2.23100	-2362
2.23467	-2365
2.23833	-2368
2.24200	-2371
2.24567	-2374
2.24933	-2377
2.25300	-2379
2.25667	-2381
2.26033	-2382
2.26400	-2385
2.26767	-2387
2.27133	-2390
2.27500	-2392
2.27867	-2394
2.28233	-2397
2.28600	-2399
2.28967	-2401
2.29333	-2403
2.29700	-2405
2.30067	-2408
2.30433	-2411
2.30800	-2413
2.31167	-2416
2.31533	-2418
2.31900	-2420
2.32267	-2422
2.32633	-2424
2.33000	-2426
2.33367	-2428
2.33733	-2430
2.34100	-2433
2.34467	-2435
2.34833	-2437
2.35200	-2440
2.35567	-2442
2.35933	-2445
2.36300	-2446
2.36667	-2448
2.37033	-2449
2.37400	-2449
2.37767	-2448
2.38133	-2447
2.38500	-2446
2.38867	-2444
2.39233	-2442
2.39600	-2439
2.39967	-2437
2.40333	-2435
2.40700	-2432
2.41067	-2430
2.41433	-2428
2.41800	-2426
2.42167	-2424
2.42533	-2423
2.42900	-2422
2.43267	-2422
2.43633	-2421
2.44000	-2421
2.44367	-2420
2.44733	-2420
2.45100	-2420
2.45467	-2420
2.45833	-2420
2.46200	-2420
2.46567	-2420
2.46933	-2420
2.47300	-2421
2.47667	-2422
2.48033	-2423
2.48400	-2424
2.48767	-2425
2.49133	-2426
2.49500	-2427
2.49867	-2428
2.50233	-2430
2.50600	-2431
2.50967	-2433
2.51333	-2435
2.51700	-2437
2.52067	-2439
2.52433	-2441
2.52800	-2442
2.53167	-2443
2.53533	-2445
2.53900	-2447
2.54267	-2449
2.54633	-2451
2.55000	-2454
2.55367	-2457
2.55733	-2459
2.56100	-2461
2.56467	-2464
2.56833	-2466
2.57200	-2467
2.57567	-2469
2.57933	-2471
2.58300	-2473
2.58667	-2475
2.59033	-2477
2.59400	-2479
2.59767	-2482
2.60133	-2484
2.60500	-2487
2.60867	-2489
2.61233	-2491
2.61600	-2493
2.61967	-2495
2.62333	-2497
2.62700	-2499
2.63067	-2500
2.63433	-2502
2.63800	-2505
2.64167	-2507
2.64533	-2509
2.64900	-2512
2.65267	-2514
2.65633	-2517
2.66000	-2519
2.66367	-2522
2.66733	-2524
2.67100	-2526
2.67467	-2528
2.67833	-2530
2.68200	-2532
2.68567	-2534
2.68933	-2537
2.69300	-2539
2.69667	-2541
2.70033	-2543
2.70400	-2545
2.70767	-2548
2.71133	-2550
2.71500	-2552
2.71867	-2554
2.72233	-2556
2.72600	-2557
2.72967	-2559
2.73333	-2561
2.73700	-2563
2.74067	-2566
2.74433	-2568
2.74800	-2570
2.75167	-2572
2.75533	-2575
2.75900	-2577
2.76267	-2579
2.76633	-2582
2.77000	-2584
2.77367	-2586
2.77733	-2588
2.78100	-2590
2.78467	-2592
2.78833	-2595
2.79200	-2597
2.79567	-2600
2.79933	-2602
2.80300	-2604
2.80667	-2607
2.81033	-2609
2.81400	-2611
2.81767	-2613
2.82133	-2616
2.82500	-2618
2.82867	-2620
2.83233	-2622
2.83600	-2625
2.83967	-2627
2.84333	-2630
2.84700	-2633
2.85067	-2637
2.85433	-2642
2.85800	-2650
2.86167	-2660
2.86533	-2673
2.86900	-2689
2.87267	-2709
2.87633	-2734
2.88000	-2761
2.88367	-2793
2.88733	-2828
2.89100	-2867
2.89467	-2908
2.89833	-2953
2.90200	-2999
2.90567	-3047
2.90933	-3096
2.91300	-3146
2.91667	-3196
2.92033	-3247
2.92400	-3297
2.92767	-3347
2.93133	-3396
2.93500	-3444
2.93867	-3494
2.94233	-3546
2.94600	-3605
2.94967	-3668
2.95333	-3725
2.95700	-3767
2.96067	-3785
2.96433	-3778
2.96800	-3747
2.97167	-3697
2.97533	-3634
2.97900	-3563
2.98267	-3488
2.98633	-3413
2.99000	-3341
2.99367	-3273
2.99733	-3210
3.00100	-3153
3.00467	-3101
3.00833	-3056
3.01200	-3016
3.01567	-2981
3.01933	-2951
3.02300	-2925
3.02667	-2903
3.03033	-2884
3.03400	-2868
3.03767	-2854
3.04133	-2843
3.04500	-2834
3.04867	-2826
3.05233	-2820
3.05600	-2815
3.05967	-2811
3.06333	-2808
3.06700	-2806
3.07067	-2804
3.07433	-2803
3.07800	-2802
3.08167	-2802
3.08533	-2802
3.08900	-2802
3.09267	-2803
3.09633	-2804
3.10000	-2805
3.10367	-2806
3.10733	-2808
3.11100	-2809
3.11467	-2811
3.11833	-2812
3.12200	-2814
3.12567	-2816
3.12933	-2817
3.13300	-2819
3.13667	-2821
3.14033	-2822
3.14400	-2824
3.14767	-2826
3.15133	-2828
3.15500	-2830
3.15867	-2832
3.16233	-2834
3.16600	-2835
3.16967	-2837
3.17333	-2839
3.17700	-2841
3.18067	-2843
3.18433	-2845
3.18800	-2847
3.19167	-2849
3.19533	-2850
3.19900	-2852
3.20267	-2854
3.20633	-2856
3.21000	-2858
3.21367	-2860
3.21733	-2862
3.22100	-2864
3.22467	-2866
3.22833	-2868
3.23200	-2870
3.23567	-2872
3.23933	-2875
3.24300	-2877
3.24667	-2879
3.25033	-2881
3.25400	-2882
3.25767	-2884
3.26133	-2886
3.26500	-2888
3.26867	-2890
3.27233	-2891
3.27600	-2893
3.27967	-2895
3.28333	-2896
3.28700	-2898
3.29067	-2899
3.29433	-2901
3.29800	-2903
3.30167	-2905
3.30533	-2906
3.30900	-2908
3.31267	-2910
3.31633	-2912
3.32000	-2914
3.32367	-2916
3.32733	-2917
3.33100	-2919
3.33467	-2921
3.33833	-2923
3.34200	-2925
3.34567	-2926
3.34933	-2928
3.35300	-2930
3.35667	-2932
3.36033	-2934
3.36400	-2936
3.36767	-2938
3.37133	-2940
3.37500	-2942
3.37867	-2944
3.38233	-2946
3.38600	-2948
3.38967	-2950
3.39333	-2952
3.39700	-2954
3.40067	-2956
3.40433	-2958
3.40800	-2960
3.41167	-2963
3.41533	-2965
3.41900	-2967
3.42267	-2970
3.42633	-2972
3.43000	-2974
3.43367	-2976
3.43733	-2978
3.44100	-2980
3.44467	-2982
3.44833	-2984
3.45200	-2986
3.45567	-2989
3.45933	-2991
3.46300	-2993
3.46667	-2995
3.47033	-2997
3.47400	-2999
3.47767	-3001
3.48133	-3003
3.48500	-3005
3.48867	-3007
3.49233	-3009
3.49600	-3011
3.49967	-3013
3.50333	-3015
3.50700	-3017
3.51067	-3019
3.51433	-3021
3.51800	-3023
3.52167	-3025
3.52533	-3027
3.52900	-3029
3.53267	-3031
3.53633	-3033
3.54000	-3035
3.54367	-3037
3.54733	-3039
3.55100	-3040
3.55467	-3042
3.55833	-3044
3.56200	-3045
3.56567	-3047
3.56933	-3049
3.57300	-3050
3.57667	-3052
3.58033	-3054
3.58400	-3056
3.58767	-3058
3.59133	-3060
3.59500	-3062
3.59867	-3064
3.60233	-3066
3.60600	-3067
3.60967	-3069
3.61333	-3071
3.61700	-3073
3.62067	-3074
3.62433	-3076
3.62800	-3078
3.63167	-3079
3.63533	-3081
3.63900	-3083
3.64267	-3084
3.64633	-3086
3.65000	-3088
3.65367	-3089
3.65733	-3091
3.66100	-3093
3.66467	-3095
3.66833	-3097
3.67200	-3099
3.67567	-3101
3.67933	-3103
3.68300	-3105
3.68667	-3106
3.69033	-3108
3.69400	-3110
3.69767	-3112
3.70133	-3114
3.70500	-3116
3.70867	-3118
3.71233	-3121
3.71600	-3123
3.71967	-3124
3.72333	-3126
3.72700	-3128
3.73067	-3130
3.73433	-3132
3.73800	-3135
3.74167	-3137
3.74533	-3139
3.74900	-3141
3.75267	-3143
3.75633	-3145
3.76000	-3146
3.76367	-3148
3.76733	-3150
3.77100	-3151
3.77467	-3153
3.77833	-3154
3.78200	-3156
3.78567	-3158
3.78933	-3159
3.79300	-3161
3.79667	-3162
3.80033	-3164
3.80400	-3165
3.80767	-3167
3.81133	-3168
3.81500	-3170
3.81867	-3172
3.82233	-3174
3.82600	-3176
3.82967	-3178
3.83333	-3180
3.83700	-3182
3.84067	-3184
3.84433	-3185
3.84800	-3187
3.85167	-3189
3.85533	-3191
3.85900	-3192
3.86267	-3194
3.86633	-3196
3.87000	-3197
3.87367	-3199
3.87733	-3200
3.88100	-3202
3.88467	-3204
3.88833	-3205
3.89200	-3207
3.89567	-3209
3.89933	-3211
3.90300	-3212
3.90667	-3214
3.91033	-3215
3.91400	-3217
3.91767	-3218
3.92133	-3220
3.92500	-3221
3.92867	-3223
3.93233	-3225
3.93600	-3226
3.93967	-3228
3.94333	-3230
3.94700	-3231
3.95067	-3233
3.95433	-3235
3.95800	-3237
3.96167	-3239
3.96533	-3240
3.96900	-3242
3.97267	-3244
3.97633	-3245
3.98000	-3247
3.98367	-3249
3.98733	-3251
3.99100	-3252
3.99467	-3254
3.99833	-3256

[Chromatogram (Ch3)]
Interval(msec)	220
# of Points	1091
Start Time(min)	0.002
End Time(min)	3.998
R.Time (min)	Intensity
0.00167	-1
0.00533	-1
0.00900	-2
0.01267	-4
0.01633	-6
0.02000	-4
0.02367	-5
0.02733	-7
0.03100	-11
0.03467	-15
0.03833	-15
0.04200	-12
0.04567	-14
0.04933	-17
0.05300	-20
0.05667	-20
0.06033	-19
0.06400	-18
0.06767	-17
0.07133	-18
0.07500	-19
0.07867	-21
0.08233	-22
0.08600	-22
0.08967	-22
0.09333	-24
0.09700	-26
0.10067	-27
0.10433	-26
0.10800	-24
0.11167	-22
0.11533	-21
0.11900	-23
0.12267	-25
0.12633	-29
0.13000	-32
0.13367	-32
0.13733	-35
0.14100	-36
0.14467	-38
0.14833	-40
0.15200	-40
0.15567	-42
0.15933	-43
0.16300	-43
0.16667	-43
0.17033	-46
0.17400	-49
0.17767	-47
0.18133	-47
0.18500	-47
0.18867	-47
0.19233	-49
0.19600	-50
0.19967	-48
0.20333	-48
0.20700	-48
0.21067	-48
0.21433	-48
0.21800	-50
0.22167	-49
0.22533	-48
0.22900	-49
0.23267	-52
0.23633	-55
0.24000	-55
0.24367	-58
0.24733	-60
0.25100	-59
0.25467	-59
0.25833	-62
0.26200	-64
0.26567	-64
0.26933	-62
0.27300	-61
0.27667	-60
0.28033	-63
0.28400	-66
0.28767	-66
0.29133	-67
0.29500	-69
0.29867	-72
0.30233	-75
0.30600	-76
0.30967	-77
0.31333	-79
0.31700	-77
0.32067	-75
0.32433	-78
0.32800	-82
0.33167	-85
0.33533	-86
0.33900	-83
0.34267	-84
0.34633	-86
0.35000	-85
0.35367	-85
0.35733	-89
0.36100	-90
0.36467	-93
0.36833	-92
0.37200	-90
0.37567	-89
0.37933	-89
0.38300	-89
0.38667	-89
0.39033	-89
0.39400	-92
0.39767	-94
0.40133	-96
0.40500	-94
0.40867	-95
0.41233	-97
0.41600	-97
0.41967	-101
0.42333	-104
0.42700	-106
0.43067	-106
0.43433	-105
0.43800	-103
0.44167	-101
0.44533	-104
0.44900	-104
0.45267	-102
0.45633	-100
0.46000	-100
0.46367	-101
0.46733	-102
0.47100	-107
0.47467	-109
0.47833	-111
0.48200	-111
0.48567	-111
0.48933	-113
0.49300	-115
0.49667	-115
0.50033	-117
0.50400	-119
0.50767	-120
0.51133	-122
0.51500	-120
0.51867	-120
0.52233	-122
0.52600	-125
0.52967	-125
0.53333	-125
0.53700	-125
0.54067	-123
0.54433	-122
0.54800	-121
0.55167	-121
0.55533	-121
0.55900	-122
0.56267	-123
0.56633	-124
0.57000	-127
0.57367	-129
0.57733	-131
0.58100	-135
0.58467	-136
0.58833	-133
0.59200	-133
0.59567	-133
0.59933	-135
0.60300	-138
0.60667	-135
0.61033	-133
0.61400	-132
0.61767	-131
0.62133	-132
0.62500	-136
0.62867	-138
0.63233	-138
0.63600	-137
0.63967	-138
0.64333	-142
0.64700	-145
0.65067	-146
0.65433	-144
0.65800	-142
0.66167	-144
0.66533	-144
0.66900	-142
0.67267	-140
0.67633	-140
0.68000	-141
0.68367	-141
0.68733	-142
0.69100	-145
0.69467	-151
0.69833	-156
0.70200	-159
0.70567	-161
0.70933	-161
0.71300	-162
0.71667	-160
0.72033	-160
0.72400	-158
0.72767	-160
0.73133	-161
0.73500	-161
0.73867	-161
0.74233	-161
0.74600	-158
0.74967	-157
0.75333	-160
0.75700	-163
0.76067	-164
0.76433	-164
0.76800	-165
0.77167	-168
0.77533	-172
0.77900	-173
0.78267	-173
0.78633	-173
0.79000	-172
0.79367	-172
0.79733	-174
0.80100	-175
0.80467	-177
0.80833	-178
0.81200	-179
0.81567	-179
0.81933	-180
0.82300	-181
0.82667	-180
0.83033	-182
0.83400	-184
0.83767	-183
0.84133	-182
0.84500	-183
0.84867	-184
0.85233	-185
0.85600	-188
0.85967	-190
0.86333	-190
0.86700	-191
0.87067	-191
0.87433	-191
0.87800	-190
0.88167	-190
0.88533	-191
0.88900	-195
0.89267	-200
0.89633	-201
0.90000	-197
0.90367	-194
0.90733	-191
0.91100	-193
0.91467	-198
0.91833	-202
0.92200	-204
0.92567	-203
0.92933	-202
0.93300	-203
0.93667	-204
0.94033	-206
0.94400	-207
0.94767	-207
0.95133	-206
0.95500	-207
0.95867	-210
0.96233	-211
0.96600	-213
0.96967	-217
0.97333	-219
0.97700	-220
0.98067	-218
0.98433	-215
0.98800	-213
0.99167	-212
0.99533	-210
0.99900	-208
1.00267	-210
1.00633	-214
1.01000	-217
1.01367	-220
1.01733	-221
1.02100	-222
1.02467	-223
1.02833	-222
1.03200	-221
1.03567	-222
1.03933	-222
1.04300	-221
1.04667	-221
1.05033	-224
1.05400	-224
1.05767	-222
1.06133	-220
1.06500	-218
1.06867	-219
1.07233	-221
1.07600	-225
1.07967	-227
1.08333	-228
1.08700	-231
1.09067	-236
1.09433	-239
1.09800	-240
1.10167	-240
1.10533	-239
1.10900	-240
1.11267	-240
1.11633	-237
1.12000	-238
1.12367	-240
1.12733	-241
1.13100	-240
1.13467	-239
1.13833	-238
1.14200	-238
1.14567	-239
1.14933	-238
1.15300	-237
1.15667	-240
1.16033	-244
1.16400	-245
1.16767	-247
1.17133	-248
1.17500	-248
1.17867	-249
1.18233	-248
1.18600	-246
1.18967	-248
1.19333	-249
1.19700	-251
1.20067	-252
1.20433	-254
1.20800	-255
1.21167	-257
1.21533	-258
1.21900	-257
1.22267	-256
1.22633	-255
1.23000	-257
1.23367	-255
1.23733	-253
1.24100	-255
1.24467	-258
1.24833	-260
1.25200	-261
1.25567	-262
1.25933	-263
1.26300	-265
1.26667	-267
1.27033	-267
1.27400	-269
1.27767	-269
1.28133	-268
1.28500	-268
1.28867	-270
1.29233	-269
1.29600	-267
1.29967	-268
1.30333	-271
1.30700	-272
1.31067	-270
1.31433	-269
1.31800	-269
1.32167	-270
1.32533	-271
1.32900	-272
1.33267	-275
1.33633	-277
1.34000	-277
1.34367	-278
1.34733	-279
1.35100	-282
1.35467	-285
1.35833	-287
1.36200	-285
1.36567	-283
1.36933	-281
1.37300	-280
1.37667	-279
1.38033	-278
1.38400	-278
1.38767	-279
1.39133	-279
1.39500	-277
1.39867	-280
1.40233	-281
1.40600	-283
1.40967	-284
1.41333	-288
1.41700	-291
1.42067	-293
1.42433	-293
1.42800	-291
1.43167	-291
1.43533	-293
1.43900	-296
1.44267	-298
1.44633	-299
1.45000	-300
1.45367	-298
1.45733	-295
1.46100	-294
1.46467	-293
1.46833	-293
1.47200	-296
1.47567	-298
1.47933	-299
1.48300	-298
1.48667	-296
1.49033	-295
1.49400	-297
1.49767	-299
1.50133	-302
1.50500	-305
1.50867	-308
1.51233	-309
1.51600	-310
1.51967	-310
1.52333	-310
1.52700	-308
1.53067	-308
1.53433	-310
1.53800	-312
1.54167	-315
1.54533	-318
1.54900	-320
1.55267	-318
1.55633	-315
1.56000	-312
1.56367	-314
1.56733	-316
1.57100	-318
1.57467	-317
1.57833	-316
1.58200	-315
1.58567	-311
1.58933	-308
1.59300	-312
1.59667	-316
1.60033	-318
1.60400	-319
1.60767	-321
1.61133	-322
1.61500	-325
1.61867	-327
1.62233	-324
1.62600	-320
1.62967	-318
1.63333	-319
1.63700	-320
1.64067	-321
1.64433	-321
1.64800	-322
1.65167	-320
1.65533	-320
1.65900	-319
1.66267	-319
1.66633	-315
1.67000	-313
1.67367	-312
1.67733	-311
1.68100	-310
1.68467	-308
1.68833	-306
1.69200	-306
1.69567	-308
1.69933	-305
1.70300	-302
1.70667	-300
1.71033	-299
1.71400	-298
1.71767	-298
1.72133	-299
1.72500	-302
1.72867	-301
1.73233	-300
1.73600	-299
1.73967	-298
1.74333	-298
1.74700	-298
1.75067	-296
1.75433	-292
1.75800	-285
1.76167	-281
1.76533	-280
1.76900	-278
1.77267	-276
1.77633	-275
1.78000	-275
1.78367	-274
1.78733	-273
1.79100	-273
1.79467	-272
1.79833	-273
1.80200	-272
1.80567	-270
1.80933	-268
1.81300	-267
1.81667	-266
1.82033	-264
1.82400	-263
1.82767	-264
1.83133	-263
1.83500	-263
1.83867	-261
1.84233	-258
1.84600	-257
1.84967	-257
1.85333	-257
1.85700	-255
1.86067	-252
1.86433	-251
1.86800	-251
1.87167	-251
1.87533	-251
1.87900	-249
1.88267	-244
1.88633	-237
1.89000	-233
1.89367	-232
1.89733	-231
1.90100	-232
1.90467	-233
1.90833	-232
1.91200	-232
1.91567	-233
1.91933	-230
1.92300	-227
1.92667	-224
1.93033	-221
1.93400	-220
1.93767	-217
1.94133	-213
1.94500	-211
1.94867	-211
1.95233	-209
1.95600	-206
1.95967	-207
1.96333	-206
1.96700	-202
1.97067	-199
1.97433	-195
1.97800	-191
1.98167	-190
1.98533	-189
1.98900	-188
1.99267	-188
1.99633	-187
2.00000	-184
2.00367	-182
2.00733	-178
2.01100	-174
2.01467	-171
2.01833	-169
2.02200	-168
2.02567	-166
2.02933	-163
2.03300	-163
2.03667	-163
2.04033	-162
2.04400	-162
2.04767	-161
2.05133	-157
2.05500	-155
2.05867	-151
2.06233	-148
2.06600	-147
2.06967	-147
2.07333	-148
2.07700	-150
2.08067	-149
2.08433	-144
2.08800	-142
2.09167	-143
2.09533	-142
2.09900	-143
2.10267	-144
2.10633	-146
2.11000	-146
2.11367	-142
2.11733	-138
2.12100	-135
2.12467	-134
2.12833	-133
2.13200	-132
2.13567	-126
2.13933	-121
2.14300	-117
2.14667	-117
2.15033	-120
2.15400	-125
2.15767	-126
2.16133	-124
2.16500	-121
2.16867	-117
2.17233	-113
2.17600	-113
2.17967	-113
2.18333	-115
2.18700	-114
2.19067	-111
2.19433	-111
2.19800	-106
2.20167	-101
2.20533	-100
2.20900	-100
2.21267	-101
2.21633	-102
2.22000	-104
2.22367	-106
2.22733	-104
2.23100	-99
2.23467	-95
2.23833	-92
2.24200	-91
2.24567	-89
2.24933	-89
2.25300	-91
2.25667	-92
2.26033	-92
2.26400	-91
2.26767	-88
2.27133	-86
2.27500	-86
2.27867	-84
2.28233	-82
2.28600	-80
2.28967	-77
2.29333	-74
2.29700	-73
2.30067	-70
2.30433	-65
2.30800	-61
2.31167	-56
2.31533	-55
2.31900	-55
2.32267	-54
2.32633	-53
2.33000	-53
2.33367	-52
2.33733	-50
2.34100	-46
2.34467	-41
2.34833	-40
2.35200	-40
2.35567	-37
2.35933	-34
2.36300	-31
2.36667	-30
2.37033	-31
2.37400	-31
2.37767	-31
2.38133	-29
2.38500	-30
2.38867	-31
2.39233	-31
2.39600	-29
2.39967	-28
2.40333	-25
2.40700	-24
2.41067	-24
2.41433	-23
2.41800	-23
2.42167	-21
2.42533	-19
2.42900	-19
2.43267	-21
2.43633	-22
2.44000	-20
2.44367	-18
2.44733	-17
2.45100	-23
2.45467	-40
2.45833	-65
2.46200	-90
2.46567	-108
2.46933	-122
2.47300	-132
2.47667	-139
2.48033	-147
2.48400	-160
2.48767	-179
2.49133	-201
2.49500	-225
2.49867	-247
2.50233	-268
2.50600	-285
2.50967	-295
2.51333	-304
2.51700	-313
2.52067	-319
2.52433	-325
2.52800	-328
2.53167	-331
2.53533	-330
2.53900	-327
2.54267	-327
2.54633	-327
2.55000	-325
2.55367	-322
2.55733	-322
2.56100	-322
2.56467	-321
2.56833	-322
2.57200	-322
2.57567	-322
2.57933	-322
2.58300	-322
2.58667	-319
2.59033	-315
2.59400	-317
2.59767	-322
2.60133	-327
2.60500	-336
2.60867	-349
2.61233	-370
2.61600	-396
2.61967	-426
2.62333	-461
2.62700	-495
2.63067	-525
2.63433	-550
2.63800	-570
2.64167	-587
2.64533	-601
2.64900	-608
2.65267	-609
2.65633	-608
2.66000	-607
2.66367	-601
2.66733	-592
2.67100	-585
2.67467	-577
2.67833	-566
2.68200	-558
2.68567	-550
2.68933	-543
2.69300	-535
2.69667	-525
2.70033	-518
2.70400	-510
2.70767	-501
2.71133	-494
2.71500	-489
2.71867	-486
2.72233	-485
2.72600	-484
2.72967	-481
2.73333	-475
2.73700	-472
2.74067	-471
2.74433	-468
2.74800	-467
2.75167	-469
2.75533	-469
2.75900	-468
2.76267	-465
2.76633	-462
2.77000	-460
2.77367	-459
2.77733	-458
2.78100	-455
2.78467	-453
2.78833	-453
2.79200	-456
2.79567	-457
2.79933	-457
2.80300	-458
2.80667	-455
2.81033	-450
2.81400	-449
2.81767	-448
2.82133	-446
2.82500	-445
2.82867	-435
2.83233	-414
2.83600	-371
2.83967	-294
2.84333	-158
2.84700	56
2.85067	358
2.85433	749
2.85800	1222
2.86167	1751
2.86533	2298
2.86900	2816
2.87267	3260
2.87633	3597
2.88000	3805
2.88367	3880
2.88733	3829
2.89100	3675
2.89467	3440
2.89833	3150
2.90200	2837
2.90567	2513
2.90933	2195
2.91300	1892
2.91667	1611
2.92033	1356
2.92400	1125
2.92767	917
2.93133	731
2.93500	566
2.93867	422
2.94233	298
2.94600	189
2.94967	96
2.95333	16
2.95700	-51
2.96067	-109
2.96433	-160
2.96800	-205
2.97167	-244
2.97533	-279
2.97900	-310
2.98267	-337
2.98633	-360
2.99000	-380
2.99367	-400
2.99733	-416
3.00100	-431
3.00467	-445
3.00833	-454
3.01200	-459
3.01567	-465
3.01933	-471
3.02300	-477
3.02667	-481
3.03033	-486
3.03400	-492
3.03767	-498
3.04133	-504
3.04500	-506
3.04867	-508
3.05233	-510
3.05600	-512
3.05967	-515
3.06333	-518
3.06700	-519
3.07067	-520
3.07433	-522
3.07800	-525
3.08167	-529
3.08533	-533
3.08900	-533
3.09267	-535
3.09633	-538
3.10000	-539
3.10367	-541
3.10733	-544
3.11100	-547
3.11467	-550
3.11833	-551
3.12200	-551
3.12567	-551
3.12933	-551
3.13300	-552
3.13667	-553
3.14033	-554
3.14400	-557
3.14767	-564
3.15133	-568
3.15500	-568
3.15867	-569
3.16233	-571
3.16600	-570
3.16967	-571
3.17333	-571
3.17700	-573
3.18067	-574
3.18433	-574
3.18800	-576
3.19167	-577
3.19533	-580
3.19900	-584
3.20267	-587
3.20633	-586
3.21000	-585
3.21367	-587
3.21733	-589
3.22100	-589
3.22467	-589
3.22833	-590
3.23200	-591
3.23567	-592
3.23933	-593
3.24300	-595
3.24667	-596
3.25033	-599
3.25400	-600
3.25767	-603
3.26133	-607
3.26500	-611
3.26867	-613
3.27233	-613
3.27600	-615
3.27967	-618
3.28333	-617
3.28700	-616
3.29067	-615
3.29433	-616
3.29800	-617
3.30167	-622
3.30533	-629
3.30900	-632
3.31267	-634
3.31633	-636
3.32000	-640
3.32367	-639
3.32733	-639
3.33100	-639
3.33467	-641
3.33833	-645
3.34200	-647
3.34567	-648
3.34933	-652
3.35300	-656
3.35667	-659
3.36033	-662
3.36400	-665
3.36767	-670
3.37133	-672
3.37500	-672
3.37867	-672
3.38233	-672
3.38600	-671
3.38967	-673
3.39333	-675
3.39700	-678
3.40067	-682
3.40433	-685
3.40800	-688
3.41167	-690
3.41533	-693
3.41900	-691
3.42267	-690
3.42633	-689
3.43000	-691
3.43367	-693
3.43733	-695
3.44100	-696
3.44467	-698
3.44833	-700
3.45200	-702
3.45567	-704
3.45933	-707
3.46300	-708
3.46667	-709
3.47033	-709
3.47400	-708
3.47767	-708
3.48133	-709
3.48500	-710
3.48867	-713
3.49233	-717
3.49600	-720
3.49967	-723
3.50333	-725
3.50700	-724
3.51067	-725
3.51433	-726
3.51800	-726
3.52167	-727
3.52533	-729
3.52900	-731
3.53267	-734
3.53633	-733
3.54000	-731
3.54367	-730
3.54733	-728
3.55100	-731
3.55467	-736
3.55833	-739
3.56200	-742
3.56567	-743
3.56933	-743
3.57300	-741
3.57667	-738
3.58033	-736
3.58400	-737
3.58767	-741
3.59133	-744
3.59500	-743
3.59867	-743
3.60233	-745
3.60600	-745
3.60967	-744
3.61333	-744
3.61700	-747
3.62067	-751
3.62433	-754
3.62800	-753
3.63167	-754
3.63533	-754
3.63900	-754
3.64267	-755
3.64633	-755
3.65000	-754
3.65367	-754
3.65733	-755
3.66100	-758
3.66467	-759
3.66833	-757
3.67200	-755
3.67567	-755
3.67933	-755
3.68300	-754
3.68667	-757
3.69033	-760
3.69400	-762
3.69767	-764
3.70133	-768
3.70500	-772
3.70867	-773
3.71233	-772
3.71600	-770
3.71967	-769
3.72333	-771
3.72700	-772
3.73067	-770
3.73433	-769
3.73800	-770
3.74167	-769
3.74533	-767
3.74900	-768
3.75267	-770
3.75633	-771
3.76000	-773
3.76367	-777
3.76733	-779
3.77100	-778
3.77467	-776
3.77833	-776
3.78200	-776
3.78567	-775
3.78933	-776
3.79300	-776
3.79667	-776
3.80033	-777
3.80400	-780
3.80767	-780
3.81133	-781
3.81500	-780
3.81867	-779
3.82233	-780
3.82600	-780
3.82967	-779
3.83333	-779
3.83700	-781
3.84067	-781
3.84433	-778
3.84800	-779
3.85167	-782
3.85533	-785
3.85900	-789
3.86267	-788
3.86633	-788
3.87000	-787
3.87367	-789
3.87733	-790
3.88100	-789
3.88467	-791
3.88833	-793
3.89200	-793
3.89567	-792
3.89933	-792
3.90300	-791
3.90667	-792
3.91033	-792
3.91400	-792
3.91767	-795
3.92133	-795
3.92500	-793
3.92867	-793
3.93233	-794
3.93600	-798
3.93967	-800
3.94333	-801
3.94700	-800
3.95067	-798
3.95433	-796
3.95800	-793
3.96167	-792
3.96533	-796
3.96900	-799
3.97267	-800
3.97633	-801
3.98000	-802
3.98367	-803
3.98733	-804
3.99100	-805
3.99467	-805
3.99833	-803

[Status Trace (Column Oven Temperature)]
Interval(msec)	1000
# of Points	240
Start Time(min)	0.000
End Time(min)	3.984
Intensity Units	
Intensity Multiplier	1
R.Time (min)	Intensity
0.00045	35.04
0.01712	35.03
0.03378	35.01
0.05045	35.00
0.06712	35.00
0.08378	35.00
0.10045	35.00
0.11712	35.00
0.13378	35.00
0.15045	35.00
0.16712	35.00
0.18378	35.00
0.20045	35.00
0.21712	35.01
0.23378	35.01
0.25045	35.01
0.26712	35.00
0.28378	35.00
0.30045	35.00
0.31712	34.99
0.33378	34.98
0.35045	34.97
0.36712	34.97
0.38378	34.97
0.40045	34.97
0.41712	34.98
0.43378	34.99
0.45045	35.00
0.46712	35.01
0.48378	35.01
0.50045	35.02
0.51712	35.01
0.53378	35.01
0.55045	35.01
0.56712	35.00
0.58378	35.00
0.60045	35.00
0.61712	35.00
0.63378	35.01
0.65045	35.01
0.66712	35.01
0.68378	35.01
0.70045	35.00
0.71712	35.00
0.73378	34.99
0.75045	34.99
0.76712	34.99
0.78378	34.99
0.80045	34.99
0.81712	34.98
0.83378	34.98
0.85045	34.98
0.86712	34.98
0.88378	34.99
0.90045	34.99
0.91712	34.99
0.93378	34.99
0.95045	35.00
0.96712	35.00
0.98378	35.00
1.00045	35.00
1.01712	35.00
1.03378	35.00
1.05045	35.01
1.06712	35.01
1.08378	35.01
1.10045	35.01
1.11712	35.02
1.13378	35.01
1.15045	35.01
1.16712	35.02
1.18378	35.03
1.20045	35.04
1.21712	35.05
1.23378	35.04
1.25045	35.05
1.26712	35.05
1.28378	35.05
1.30045	35.04
1.31712	35.03
1.33378	35.02
1.35045	35.02
1.36712	35.02
1.38378	35.02
1.40045	35.02
1.41712	35.01
1.43378	35.02
1.45045	35.01
1.46712	35.00
1.48378	35.00
1.50045	34.99
1.51712	34.98
1.53378	34.99
1.55045	34.99
1.56712	34.99
1.58378	35.00
1.60045	35.03
1.61712	35.12
1.63378	35.27
1.65045	35.50
1.66712	35.80
1.68378	36.19
1.70045	36.54
1.71712	36.86
1.73378	37.17
1.75045	37.51
1.76712	37.86
1.78378	38.20
1.80045	38.51
1.81712	38.83
1.83378	39.18
1.85045	39.52
1.86712	39.84
1.88378	40.17
1.90045	40.51
1.91712	40.83
1.93378	41.18
1.95045	41.49
1.96712	41.83
1.98378	42.17
2.00045	42.48
2.01712	42.81
2.03378	43.14
2.05045	43.46
2.06712	43.80
2.08378	44.13
2.10045	44.45
2.11712	44.77
2.13378	45.11
2.15045	45.42
2.16712	45.75
2.18378	46.07
2.20045	46.40
2.21712	46.72
2.23378	47.05
2.25045	47.37
2.26712	47.70
2.28378	48.01
2.30045	48.33
2.31712	48.68
2.33378	48.99
2.35045	49.34
2.36712	49.56
2.38378	49.64
2.40045	49.65
2.41712	49.64
2.43378	49.66
2.45045	49.68
2.46712	49.68
2.48378	49.67
2.50045	49.70
2.51712	49.71
2.53378	49.73
2.55045	49.75
2.56712	49.78
2.58378	49.78
2.60045	49.79
2.61712	49.81
2.63378	49.80
2.65045	49.82
2.66712	49.84
2.68378	49.85
2.70045	49.86
2.71712	49.86
2.73378	49.85
2.75045	49.86
2.76712	49.86
2.78378	49.85
2.80045	49.85
2.81712	49.85
2.83378	49.86
2.85045	49.88
2.86712	49.91
2.88378	49.92
2.90045	49.93
2.91712	49.94
2.93378	49.96
2.95045	49.97
2.96712	49.99
2.98378	49.99
3.00045	49.99
3.01712	50.00
3.03378	50.00
3.05045	50.01
3.06712	50.01
3.08378	50.01
3.10045	50.02
3.11712	50.04
3.13378	50.05
3.15045	50.05
3.16712	50.06
3.18378	50.07
3.20045	50.07
3.21712	50.08
3.23378	50.10
3.25045	50.11
3.26712	50.11
3.28378	50.10
3.30045	50.09
3.31712	50.08
3.33378	50.07
3.35045	50.05
3.36712	50.04
3.38378	50.04
3.40045	50.03
3.41712	50.04
3.43378	50.03
3.45045	50.05
3.46712	50.05
3.48378	50.06
3.50045	50.06
3.51712	50.08
3.53378	50.09
3.55045	50.09
3.56712	50.09
3.58378	50.09
3.60045	50.10
3.61712	50.09
3.63378	50.08
3.65045	50.08
3.66712	50.07
3.68378	50.07
3.70045	50.07
3.71712	50.08
3.73378	50.09
3.75045	50.09
3.76712	50.11
3.78378	50.09
3.80045	50.08
3.81712	50.08
3.83378	50.08
3.85045	50.08
3.86712	50.08
3.88378	50.08
3.90045	50.07
3.91712	50.05
3.93378	50.04
3.95045	50.04
3.96712	50.03
3.98378	50.04

[Status Trace (Injection Unit Temperature)]
Interval(msec)	1000
# of Points	240
Start Time(min)	0.000
End Time(min)	3.984
Intensity Units	
Intensity Multiplier	1
R.Time (min)	Intensity
0.00045	100.01
0.01712	100.02
0.03378	100.01
0.05045	100.01
0.06712	100.01
0.08378	100.02
0.10045	100.01
0.11712	100.01
0.13378	100.01
0.15045	100.01
0.16712	100.01
0.18378	100.02
0.20045	100.01
0.21712	100.01
0.23378	100.00
0.25045	100.01
0.26712	100.02
0.28378	100.01
0.30045	100.02
0.31712	100.01
0.33378	100.02
0.35045	100.01
0.36712	100.01
0.38378	100.01
0.40045	100.01
0.41712	100.01
0.43378	100.01
0.45045	100.01
0.46712	100.01
0.48378	100.01
0.50045	100.01
0.51712	100.01
0.53378	100.01
0.55045	100.01
0.56712	100.01
0.58378	100.01
0.60045	100.01
0.61712	100.01
0.63378	100.00
0.65045	100.01
0.66712	100.00
0.68378	100.00
0.70045	100.01
0.71712	100.01
0.73378	100.01
0.75045	100.01
0.76712	100.00
0.78378	100.00
0.80045	100.01
0.81712	100.01
0.83378	100.01
0.85045	100.01
0.86712	100.00
0.88378	100.01
0.90045	100.01
0.91712	100.00
0.93378	100.01
0.95045	100.01
0.96712	100.01
0.98378	100.01
1.00045	100.00
1.01712	100.01
1.03378	100.00
1.05045	100.01
1.06712	100.01
1.08378	100.01
1.10045	100.01
1.11712	100.01
1.13378	100.01
1.15045	100.00
1.16712	100.00
1.18378	100.01
1.20045	100.00
1.21712	100.00
1.23378	100.00
1.25045	100.01
1.26712	100.00
1.28378	100.01
1.30045	100.00
1.31712	100.00
1.33378	100.01
1.35045	100.01
1.36712	100.01
1.38378	100.01
1.40045	100.01
1.41712	100.01
1.43378	100.01
1.45045	100.01
1.46712	100.01
1.48378	100.01
1.50045	100.01
1.51712	100.01
1.53378	100.02
1.55045	100.01
1.56712	100.01
1.58378	100.01
1.60045	100.01
1.61712	100.01
1.63378	100.01
1.65045	100.01
1.66712	100.01
1.68378	100.01
1.70045	100.01
1.71712	100.01
1.73378	100.01
1.75045	100.01
1.76712	100.01
1.78378	100.01
1.80045	100.01
1.81712	100.02
1.83378	100.01
1.85045	100.01
1.86712	100.01
1.88378	100.01
1.90045	100.00
1.91712	100.01
1.93378	100.00
1.95045	100.00
1.96712	100.00
1.98378	100.00
2.00045	100.00
2.01712	100.00
2.03378	100.00
2.05045	100.00
2.06712	100.00
2.08378	100.00
2.10045	100.00
2.11712	100.00
2.13378	99.99
2.15045	99.99
2.16712	99.99
2.18378	99.99
2.20045	99.99
2.21712	99.99
2.23378	99.99
2.25045	99.99
2.26712	99.99
2.28378	99.98
2.30045	99.98
2.31712	99.98
2.33378	99.98
2.35045	99.99
2.36712	99.98
2.38378	99.98
2.40045	99.98
2.41712	99.98
2.43378	99.98
2.45045	99.98
2.46712	99.98
2.48378	99.98
2.50045	99.98
2.51712	99.98
2.53378	99.98
2.55045	99.99
2.56712	99.98
2.58378	99.99
2.60045	99.98
2.61712	99.99
2.63378	99.98
2.65045	99.99
2.66712	99.99
2.68378	99.99
2.70045	99.99
2.71712	99.99
2.73378	100.00
2.75045	99.99
2.76712	100.00
2.78378	100.00
2.80045	100.00
2.81712	100.00
2.83378	100.00
2.85045	100.00
2.86712	100.01
2.88378	100.01
2.90045	100.01
2.91712	100.01
2.93378	100.02
2.95045	100.02
2.96712	100.01
2.98378	100.02
3.00045	100.02
3.01712	100.02
3.03378	100.03
3.05045	100.02
3.06712	100.03
3.08378	100.03
3.10045	100.03
3.11712	100.03
3.13378	100.03
3.15045	100.03
3.16712	100.04
3.18378	100.04
3.20045	100.03
3.21712	100.04
3.23378	100.04
3.25045	100.04
3.26712	100.04
3.28378	100.04
3.30045	100.04
3.31712	100.05
3.33378	100.05
3.35045	100.05
3.36712	100.05
3.38378	100.05
3.40045	100.05
3.41712	100.05
3.43378	100.05
3.45045	100.06
3.46712	100.05
3.48378	100.06
3.50045	100.06
3.51712	100.06
3.53378	100.06
3.55045	100.06
3.56712	100.06
3.58378	100.06
3.60045	100.07
3.61712	100.06
3.63378	100.07
3.65045	100.07
3.66712	100.07
3.68378	100.07
3.70045	100.07
3.71712	100.07
3.73378	100.07
3.75045	100.07
3.76712	100.07
3.78378	100.07
3.80045	100.07
3.81712	100.07
3.83378	100.07
3.85045	100.07
3.86712	100.08
3.88378	100.07
3.90045	100.08
3.91712	100.07
3.93378	100.08
3.95045	100.07
3.96712	100.07
3.98378	100.07

[Status Trace (Carrier Gas Pressure)]
Interval(msec)	1000
# of Points	240
Start Time(min)	0.000
End Time(min)	3.984
Intensity Units	
Intensity Multiplier	1
R.Time (min)	Intensity
0.00045	58.00
0.01712	56.71
0.03378	55.87
0.05045	58.23
0.06712	59.87
0.08378	58.48
0.10045	57.98
0.11712	58.00
0.13378	58.01
0.15045	58.01
0.16712	58.00
0.18378	58.00
0.20045	58.00
0.21712	58.00
0.23378	58.00
0.25045	58.00
0.26712	58.00
0.28378	58.00
0.30045	58.00
0.31712	58.00
0.33378	58.00
0.35045	58.00
0.36712	58.00
0.38378	58.00
0.40045	58.00
0.41712	58.00
0.43378	58.00
0.45045	58.00
0.46712	58.00
0.48378	58.00
0.50045	58.00
0.51712	58.00
0.53378	58.00
0.55045	58.00
0.56712	58.00
0.58378	58.00
0.60045	58.00
0.61712	58.00
0.63378	58.00
0.65045	58.00
0.66712	58.00
0.68378	58.00
0.70045	58.00
0.71712	58.00
0.73378	58.00
0.75045	58.00
0.76712	58.00
0.78378	58.00
0.80045	58.00
0.81712	58.00
0.83378	58.00
0.85045	58.00
0.86712	58.00
0.88378	58.00
0.90045	58.00
0.91712	58.00
0.93378	58.00
0.95045	58.00
0.96712	58.00
0.98378	58.00
1.00045	58.00
1.01712	58.00
1.03378	58.00
1.05045	58.00
1.06712	58.00
1.08378	58.00
1.10045	58.00
1.11712	58.00
1.13378	58.00
1.15045	58.00
1.16712	58.00
1.18378	58.00
1.20045	58.00
1.21712	58.00
1.23378	58.00
1.25045	58.00
1.26712	58.00
1.28378	58.00
1.30045	58.00
1.31712	58.00
1.33378	58.00
1.35045	58.00
1.36712	58.00
1.38378	58.00
1.40045	58.00
1.41712	58.00
1.43378	58.00
1.45045	58.00
1.46712	58.00
1.48378	58.00
1.50045	58.00
1.51712	58.00
1.53378	58.00
1.55045	58.00
1.56712	58.00
1.58378	58.00
1.60045	58.00
1.61712	58.00
1.63378	58.01
1.65045	58.00
1.66712	58.01
1.68378	58.01
1.70045	58.00
1.71712	58.00
1.73378	58.00
1.75045	58.00
1.76712	58.00
1.78378	58.00
1.80045	58.00
1.81712	58.00
1.83378	58.00
1.85045	58.00
1.86712	58.00
1.88378	58.00
1.90045	58.00
1.91712	58.00
1.93378	58.00
1.95045	58.00
1.96712	58.00
1.98378	58.00
2.00045	58.00
2.01712	58.00
2.03378	58.00
2.05045	58.00
2.06712	58.00
2.08378	58.00
2.10045	58.00
2.11712	58.00
2.13378	58.00
2.15045	58.00
2.16712	58.00
2.18378	58.00
2.20045	58.00
2.21712	58.00
2.23378	58.00
2.25045	58.00
2.26712	58.00
2.28378	58.00
2.30045	58.00
2.31712	58.00
2.33378	58.00
2.35045	58.00
2.36712	58.00
2.38378	57.99
2.40045	57.99
2.41712	58.00
2.43378	58.00
2.45045	58.00
2.46712	58.00
2.48378	58.00
2.50045	58.00
2.51712	57.97
2.53378	57.99
2.55045	58.01
2.56712	58.00
2.58378	58.00
2.60045	58.00
2.61712	58.00
2.63378	58.00
2.65045	58.00
2.66712	58.00
2.68378	58.00
2.70045	58.00
2.71712	58.00
2.73378	58.00
2.75045	58.00
2.76712	58.00
2.78378	58.00
2.80045	58.00
2.81712	58.00
2.83378	58.00
2.85045	58.00
2.86712	58.00
2.88378	58.00
2.90045	58.00
2.91712	58.00
2.93378	58.00
2.95045	58.00
2.96712	58.00
2.98378	58.00
3.00045	58.00
3.01712	58.00
3.03378	58.00
3.05045	58.00
3.06712	58.00
3.08378	58.00
3.10045	58.00
3.11712	58.00
3.13378	58.00
3.15045	58.00
3.16712	58.00
3.18378	58.00
3.20045	58.00
3.21712	58.00
3.23378	58.00
3.25045	58.00
3.26712	58.00
3.28378	58.00
3.30045	58.00
3.31712	58.00
3.33378	58.00
3.35045	58.00
3.36712	58.00
3.38378	58.00
3.40045	58.00
3.41712	58.00
3.43378	58.00
3.45045	58.00
3.46712	58.00
3.48378	58.00
3.50045	58.00
3.51712	58.00
3.53378	58.00
3.55045	58.00
3.56712	58.00
3.58378	58.00
3.60045	58.00
3.61712	58.00
3.63378	58.00
3.65045	58.00
3.66712	58.00
3.68378	58.00
3.70045	58.00
3.71712	58.00
3.73378	58.00
3.75045	58.00
3.76712	58.00
3.78378	58.00
3.80045	58.00
3.81712	58.00
3.83378	58.00
3.85045	58.00
3.86712	58.00
3.88378	58.00
3.90045	58.00
3.91712	58.00
3.93378	58.00
3.95045	58.00
3.96712	58.00
3.98378	58.00

[Status Trace (Carrier Gas Flow)]
Interval(msec)	1000
# of Points	240
Start Time(min)	0.000
End Time(min)	3.984
Intensity Units	
Intensity Multiplier	1
R.Time (min)	Intensity
0.00045	34.52
0.01712	33.84
0.03378	34.55
0.05045	34.55
0.06712	34.51
0.08378	34.52
0.10045	34.52
0.11712	34.52
0.13378	34.52
0.15045	34.52
0.16712	34.52
0.18378	34.52
0.20045	34.52
0.21712	34.52
0.23378	34.52
0.25045	34.52
0.26712	34.52
0.28378	34.52
0.30045	34.52
0.31712	34.52
0.33378	34.52
0.35045	34.51
0.36712	34.52
0.38378	34.50
0.40045	34.52
0.41712	34.52
0.43378	34.52
0.45045	34.52
0.46712	34.52
0.48378	34.52
0.50045	34.52
0.51712	34.52
0.53378	34.52
0.55045	34.52
0.56712	34.52
0.58378	34.51
0.60045	34.51
0.61712	34.51
0.63378	34.52
0.65045	34.51
0.66712	34.51
0.68378	34.52
0.70045	34.52
0.71712	34.52
0.73378	34.52
0.75045	34.52
0.76712	34.52
0.78378	34.52
0.80045	34.52
0.81712	34.52
0.83378	34.52
0.85045	34.52
0.86712	34.52
0.88378	34.52
0.90045	34.51
0.91712	34.51
0.93378	34.51
0.95045	34.52
0.96712	34.52
0.98378	34.51
1.00045	34.52
1.01712	34.52
1.03378	34.53
1.05045	34.52
1.06712	34.52
1.08378	34.52
1.10045	34.52
1.11712	34.52
1.13378	34.52
1.15045	34.52
1.16712	34.52
1.18378	34.51
1.20045	34.51
1.21712	34.50
1.23378	34.51
1.25045	34.52
1.26712	34.52
1.28378	34.51
1.30045	34.52
1.31712	34.52
1.33378	34.52
1.35045	34.52
1.36712	34.52
1.38378	34.52
1.40045	34.52
1.41712	34.52
1.43378	34.52
1.45045	34.52
1.46712	34.52
1.48378	34.52
1.50045	34.52
1.51712	34.52
1.53378	34.52
1.55045	34.52
1.56712	34.52
1.58378	34.51
1.60045	34.54
1.61712	34.52
1.63378	34.52
1.65045	34.52
1.66712	34.52
1.68378	34.51
1.70045	34.52
1.71712	34.54
1.73378	34.52
1.75045	34.52
1.76712	34.52
1.78378	34.52
1.80045	34.52
1.81712	34.52
1.83378	34.52
1.85045	34.52
1.86712	34.52
1.88378	34.52
1.90045	34.52
1.91712	34.52
1.93378	34.52
1.95045	34.52
1.96712	34.52
1.98378	34.52
2.00045	34.51
2.01712	34.52
2.03378	34.53
2.05045	34.52
2.06712	34.53
2.08378	34.52
2.10045	34.52
2.11712	34.53
2.13378	34.51
2.15045	34.52
2.16712	34.52
2.18378	34.52
2.20045	34.52
2.21712	34.52
2.23378	34.52
2.25045	34.52
2.26712	34.52
2.28378	34.52
2.30045	34.51
2.31712	34.52
2.33378	34.51
2.35045	34.52
2.36712	34.52
2.38378	34.52
2.40045	34.53
2.41712	34.52
2.43378	34.50
2.45045	34.52
2.46712	34.52
2.48378	34.52
2.50045	34.52
2.51712	34.52
2.53378	34.51
2.55045	34.53
2.56712	34.52
2.58378	34.52
2.60045	34.52
2.61712	34.52
2.63378	34.52
2.65045	34.52
2.66712	34.52
2.68378	34.52
2.70045	34.52
2.71712	34.52
2.73378	34.52
2.75045	34.52
2.76712	34.52
2.78378	34.51
2.80045	34.52
2.81712	34.52
2.83378	34.52
2.85045	34.52
2.86712	34.52
2.88378	34.52
2.90045	34.52
2.91712	34.52
2.93378	34.52
2.95045	34.52
2.96712	34.52
2.98378	34.52
3.00045	34.52
3.01712	34.52
3.03378	34.52
3.05045	34.52
3.06712	34.52
3.08378	34.52
3.10045	34.52
3.11712	34.52
3.13378	34.52
3.15045	34.52
3.16712	34.52
3.18378	34.52
3.20045	34.52
3.21712	34.52
3.23378	34.52
3.25045	34.52
3.26712	34.52
3.28378	34.52
3.30045	34.52
3.31712	34.52
3.33378	34.52
3.35045	34.53
3.36712	34.51
3.38378	34.52
3.40045	34.53
3.41712	34.52
3.43378	34.52
3.45045	34.52
3.46712	34.51
3.48378	34.52
3.50045	34.52
3.51712	34.52
3.53378	34.52
3.55045	34.52
3.56712	34.52
3.58378	34.52
3.60045	34.51
3.61712	34.54
3.63378	34.54
3.65045	34.51
3.66712	34.52
3.68378	34.52
3.70045	34.51
3.71712	34.52
3.73378	34.52
3.75045	34.52
3.76712	34.52
3.78378	34.52
3.80045	34.54
3.81712	34.52
3.83378	34.51
3.85045	34.52
3.86712	34.52
3.88378	34.52
3.90045	34.52
3.91712	34.52
3.93378	34.52
3.95045	34.52
3.96712	34.51
3.98378	34.52

[Status Trace (Column Flow)]
Interval(msec)	1000
# of Points	240
Start Time(min)	0.000
End Time(min)	3.984
Intensity Units	
Intensity Multiplier	1
R.Time (min)	Intensity
0.00045	5.53
0.01712	5.38
0.03378	5.28
0.05045	5.56
0.06712	5.75
0.08378	5.59
0.10045	5.53
0.11712	5.53
0.13378	5.53
0.15045	5.53
0.16712	5.53
0.18378	5.53
0.20045	5.53
0.21712	5.53
0.23378	5.53
0.25045	5.53
0.26712	5.53
0.28378	5.53
0.30045	5.53
0.31712	5.53
0.33378	5.53
0.35045	5.53
0.36712	5.53
0.38378	5.53
0.40045	5.53
0.41712	5.53
0.43378	5.53
0.45045	5.53
0.46712	5.53
0.48378	5.53
0.50045	5.53
0.51712	5.53
0.53378	5.53
0.55045	5.53
0.56712	5.53
0.58378	5.53
0.60045	5.53
0.61712	5.53
0.63378	5.53
0.65045	5.53
0.66712	5.53
0.68378	5.53
0.70045	5.53
0.71712	5.53
0.73378	5.53
0.75045	5.53
0.76712	5.53
0.78378	5.53
0.80045	5.53
0.81712	5.53
0.83378	5.53
0.85045	5.53
0.86712	5.53
0.88378	5.53
0.90045	5.53
0.91712	5.53
0.93378	5.53
0.95045	5.53
0.96712	5.53
0.98378	5.53
1.00045	5.53
1.01712	5.53
1.03378	5.53
1.05045	5.53
1.06712	5.53
1.08378	5.53
1.10045	5.53
1.11712	5.53
1.13378	5.53
1.15045	5.53
1.16712	5.53
1.18378	5.53
1.20045	5.53
1.21712	5.53
1.23378	5.53
1.25045	5.53
1.26712	5.53
1.28378	5.53
1.30045	5.53
1.31712	5.53
1.33378	5.53
1.35045	5.53
1.36712	5.53
1.38378	5.53
1.40045	5.53
1.41712	5.53
1.43378	5.53
1.45045	5.53
1.46712	5.53
1.48378	5.53
1.50045	5.53
1.51712	5.53
1.53378	5.53
1.55045	5.53
1.56712	5.53
1.58378	5.53
1.60045	5.53
1.61712	5.53
1.63378	5.52
1.65045	5.52
1.66712	5.51
1.68378	5.49
1.70045	5.48
1.71712	5.47
1.73378	5.46
1.75045	5.45
1.76712	5.44
1.78378	5.43
1.80045	5.42
1.81712	5.41
1.83378	5.40
1.85045	5.39
1.86712	5.38
1.88378	5.37
1.90045	5.36
1.91712	5.35
1.93378	5.34
1.95045	5.33
1.96712	5.32
1.98378	5.31
2.00045	5.30
2.01712	5.29
2.03378	5.28
2.05045	5.27
2.06712	5.26
2.08378	5.25
2.10045	5.24
2.11712	5.23
2.13378	5.23
2.15045	5.22
2.16712	5.21
2.18378	5.20
2.20045	5.19
2.21712	5.18
2.23378	5.17
2.25045	5.16
2.26712	5.15
2.28378	5.14
2.30045	5.13
2.31712	5.12
2.33378	5.12
2.35045	5.10
2.36712	5.10
2.38378	5.10
2.40045	5.10
2.41712	5.10
2.43378	5.10
2.45045	5.10
2.46712	5.10
2.48378	5.10
2.50045	5.09
2.51712	5.09
2.53378	5.09
2.55045	5.09
2.56712	5.09
2.58378	5.09
2.60045	5.09
2.61712	5.09
2.63378	5.09
2.65045	5.09
2.66712	5.09
2.68378	5.09
2.70045	5.09
2.71712	5.09
2.73378	5.09
2.75045	5.09
2.76712	5.09
2.78378	5.09
2.80045	5.09
2.81712	5.09
2.83378	5.09
2.85045	5.09
2.86712	5.09
2.88378	5.09
2.90045	5.09
2.91712	5.09
2.93378	5.09
2.95045	5.09
2.96712	5.09
2.98378	5.09
3.00045	5.09
3.01712	5.09
3.03378	5.09
3.05045	5.09
3.06712	5.09
3.08378	5.09
3.10045	5.09
3.11712	5.09
3.13378	5.09
3.15045	5.09
3.16712	5.08
3.18378	5.08
3.20045	5.08
3.21712	5.08
3.23378	5.08
3.25045	5.08
3.26712	5.08
3.28378	5.08
3.30045	5.08
3.31712	5.08
3.33378	5.08
3.35045	5.08
3.36712	5.09
3.38378	5.09
3.40045	5.09
3.41712	5.09
3.43378	5.09
3.45045	5.08
3.46712	5.08
3.48378	5.08
3.50045	5.08
3.51712	5.08
3.53378	5.08
3.55045	5.08
3.56712	5.08
3.58378	5.08
3.60045	5.08
3.61712	5.08
3.63378	5.08
3.65045	5.08
3.66712	5.08
3.68378	5.08
3.70045	5.08
3.71712	5.08
3.73378	5.08
3.75045	5.08
3.76712	5.08
3.78378	5.08
3.80045	5.08
3.81712	5.08
3.83378	5.08
3.85045	5.08
3.86712	5.08
3.88378	5.08
3.90045	5.08
3.91712	5.08
3.93378	5.09
3.95045	5.09
3.96712	5.09
3.98378	5.09

[Status Trace (Linear Velocity)]
Interval(msec)	1000
# of Points	240
Start Time(min)	0.000
End Time(min)	3.984
Intensity Units	
Intensity Multiplier	1
R.Time (min)	Intensity
0.00045	39.01
0.01712	38.17
0.03378	37.62
0.05045	39.17
0.06712	40.24
0.08378	39.33
0.10045	39.00
0.11712	39.02
0.13378	39.03
0.15045	39.02
0.16712	39.02
0.18378	39.02
0.20045	39.02
0.21712	39.02
0.23378	39.02
0.25045	39.02
0.26712	39.02
0.28378	39.02
0.30045	39.02
0.31712	39.02
0.33378	39.02
0.35045	39.02
0.36712	39.02
0.38378	39.02
0.40045	39.02
0.41712	39.02
0.43378	39.02
0.45045	39.02
0.46712	39.02
0.48378	39.02
0.50045	39.02
0.51712	39.02
0.53378	39.02
0.55045	39.02
0.56712	39.02
0.58378	39.02
0.60045	39.02
0.61712	39.02
0.63378	39.02
0.65045	39.02
0.66712	39.02
0.68378	39.02
0.70045	39.02
0.71712	39.02
0.73378	39.02
0.75045	39.02
0.76712	39.02
0.78378	39.02
0.80045	39.02
0.81712	39.02
0.83378	39.02
0.85045	39.02
0.86712	39.02
0.88378	39.02
0.90045	39.02
0.91712	39.02
0.93378	39.02
0.95045	39.02
0.96712	39.02
0.98378	39.02
1.00045	39.02
1.01712	39.02
1.03378	39.02
1.05045	39.02
1.06712	39.02
1.08378	39.02
1.10045	39.02
1.11712	39.02
1.13378	39.02
1.15045	39.02
1.16712	39.02
1.18378	39.02
1.20045	39.01
1.21712	39.01
1.23378	39.01
1.25045	39.01
1.26712	39.01
1.28378	39.01
1.30045	39.01
1.31712	39.02
1.33378	39.02
1.35045	39.02
1.36712	39.02
1.38378	39.02
1.40045	39.02
1.41712	39.02
1.43378	39.02
1.45045	39.02
1.46712	39.02
1.48378	39.02
1.50045	39.02
1.51712	39.02
1.53378	39.02
1.55045	39.02
1.56712	39.02
1.58378	39.02
1.60045	39.02
1.61712	39.01
1.63378	39.00
1.65045	38.97
1.66712	38.95
1.68378	38.91
1.70045	38.87
1.71712	38.84
1.73378	38.81
1.75045	38.78
1.76712	38.75
1.78378	38.72
1.80045	38.68
1.81712	38.65
1.83378	38.63
1.85045	38.59
1.86712	38.56
1.88378	38.53
1.90045	38.50
1.91712	38.47
1.93378	38.44
1.95045	38.40
1.96712	38.37
1.98378	38.35
2.00045	38.31
2.01712	38.28
2.03378	38.26
2.05045	38.22
2.06712	38.19
2.08378	38.17
2.10045	38.13
2.11712	38.10
2.13378	38.08
2.15045	38.04
2.16712	38.02
2.18378	37.99
2.20045	37.96
2.21712	37.93
2.23378	37.90
2.25045	37.87
2.26712	37.84
2.28378	37.81
2.30045	37.78
2.31712	37.75
2.33378	37.73
2.35045	37.69
2.36712	37.67
2.38378	37.66
2.40045	37.66
2.41712	37.66
2.43378	37.66
2.45045	37.66
2.46712	37.66
2.48378	37.66
2.50045	37.66
2.51712	37.64
2.53378	37.65
2.55045	37.66
2.56712	37.65
2.58378	37.65
2.60045	37.65
2.61712	37.65
2.63378	37.65
2.65045	37.65
2.66712	37.65
2.68378	37.65
2.70045	37.65
2.71712	37.65
2.73378	37.65
2.75045	37.65
2.76712	37.65
2.78378	37.65
2.80045	37.65
2.81712	37.65
2.83378	37.65
2.85045	37.65
2.86712	37.64
2.88378	37.64
2.90045	37.64
2.91712	37.64
2.93378	37.64
2.95045	37.64
2.96712	37.64
2.98378	37.64
3.00045	37.63
3.01712	37.63
3.03378	37.63
3.05045	37.63
3.06712	37.63
3.08378	37.63
3.10045	37.63
3.11712	37.63
3.13378	37.63
3.15045	37.63
3.16712	37.63
3.18378	37.63
3.20045	37.63
3.21712	37.63
3.23378	37.63
3.25045	37.63
3.26712	37.62
3.28378	37.63
3.30045	37.63
3.31712	37.63
3.33378	37.63
3.35045	37.63
3.36712	37.63
3.38378	37.63
3.40045	37.63
3.41712	37.63
3.43378	37.63
3.45045	37.63
3.46712	37.63
3.48378	37.63
3.50045	37.63
3.51712	37.63
3.53378	37.63
3.55045	37.63
3.56712	37.63
3.58378	37.63
3.60045	37.63
3.61712	37.63
3.63378	37.63
3.65045	37.63
3.66712	37.63
3.68378	37.63
3.70045	37.63
3.71712	37.63
3.73378	37.63
3.75045	37.63
3.76712	37.62
3.78378	37.63
3.80045	37.63
3.81712	37.63
3.83378	37.63
3.85045	37.63
3.86712	37.63
3.88378	37.63
3.90045	37.63
3.91712	37.63
3.93378	37.63
3.95045	37.63
3.96712	37.63
3.98378	37.63

