[Header]
Application Name	LabSolutions
Version	5.110
Data File Name	C:\Users\User\Desktop\GC Analyses\Jack\UIC Prairie Sampling\8.12.22\220812_080.gcd
Output Date	10/14/2022
Output Time	2:33:55 PM

[File Information]
Type	Data File
Generated	10/12/2022 1:05:39 PM
Generated by	System Administrator
Modified	10/12/2022 1:10:39 PM
Modified by	System Administrator

[Sample Information]
Operator Name	System Administrator
Acquired	10/12/2022 1:06:37 PM
Sample Type	1:Standard
Level	1
Sample Name	220812_UICPrairie
Sample ID	220812_UICPrairie
ISTD Amount1	1
ISTD Amount2	1
ISTD Amount3	1
ISTD Amount4	1
ISTD Amount5	1
ISTD Amount6	1
ISTD Amount7	1
ISTD Amount8	1
ISTD Amount9	1
ISTD Amount10	1
ISTD Amount11	1
ISTD Amount12	1
ISTD Amount13	1
ISTD Amount14	1
ISTD Amount15	1
ISTD Amount16	1
ISTD Amount17	1
ISTD Amount18	1
ISTD Amount19	1
ISTD Amount20	1
ISTD Amount21	1
ISTD Amount22	1
ISTD Amount23	1
ISTD Amount24	1
ISTD Amount25	1
ISTD Amount26	1
ISTD Amount27	1
ISTD Amount28	1
ISTD Amount29	1
ISTD Amount30	1
ISTD Amount31	1
ISTD Amount32	1
Sample Amount	1
Dilution Factor	1
Vial#	1
Injection Volume	1
Injection Count	1
Bar Code	

[Original Files]
Data File	C:\Users\User\Desktop\GC Analyses\Jack\UIC Prairie Sampling\8.12.22\220812_080.gcd
Method File	C:\LabSolutions\Data\GHG_4min_2022\ghg3_togas_w_acet_4 min_new_int.gcm
Batch File	
Report Format File	c:\LabSolutions\System\DEFAULT.lsr

[File Description]


[Configuration]
Instrument Name	C0B7VH3-Instrument1
Instrument #	1
Line #	1
# of Detectors	3
Detector ID	DET#1	DET#2	DET#3
Detector Name	FID	PTCD	ECD
# of Channels	1	1	1

[Peak Table(Ch1)]
# of Peaks	3
Peak#	R.Time	I.Time	F.Time	Area	Height	A/H	Conc.	Mark	ID#	Name	k'	Plate #	Plate Ht.	Tailing	Resolution	Sep.Factor	Area Ratio	Height Ratio	Conc. %	Norm Conc.
1	1.476	1.439	1.534	13031	5886	2.214	100.000	   	1	CO	0.000	8371	17.920	1.183	0.000	0.000	0	0	16.667	16.667
2	1.567	1.534	1.619	4523	2328	1.943	100.000	 V 	2	CH4	0.062	11564	12.971	1.190	1.493	0.000	0	0	16.667	16.667
3	1.996	1.945	2.297	1280173	631325	2.028	400.000	   	3	CO2	0.353	17742	8.454	1.231	7.256	5.680	0	0	66.667	66.667

[Peak Table(Ch2)]
# of Peaks	0

[Peak Table(Ch3)]
# of Peaks	3
Peak#	R.Time	I.Time	F.Time	Area	Height	A/H	Conc.	Mark	ID#	Name	k'	Plate #	Plate Ht.	Tailing	Resolution	Sep.Factor	Area Ratio	Height Ratio	Conc. %	Norm Conc.
1	2.601	2.491	2.642	1054	219	4.822	0.000	   			0.000	4418	33.954	0.681	0.000	0.000	0	0	0.000	0.000
2	2.880	2.660	3.676	26207	5407	4.847	1.000	S  	1	N2O	0.107	12648	11.860	1.682	2.152	0.000	0	0	50.000	50.000
3	3.280	3.203	3.445	149	23	6.621	1.000	T  	2	SF6	0.261	10199	14.707	1.437	3.440	2.434	0	0	50.000	50.000

[Compound Results(Ch1)]
# of IDs	6
ID#	Name	R.Time	Area	Height	Conc.	Curve	3rd	2nd	1st	Constant	Area Ratio	Height Ratio	Conc. %	Norm Conc.
1	CO	1.476	13031	5886	100.000	Linear	0.000000e+00	0.000000e+00	1.303076e+002	0.000000e+00	0	0	16.667	16.667
2	CH4	1.567	4523	2328	100.000	Linear	0.000000e+00	0.000000e+00	4.522932e+001	0.000000e+00	0	0	16.667	16.667
3	CO2	1.996	1280173	631325	400.000	Linear	0.000000e+00	0.000000e+00	3.200433e+003	0.000000e+00	0	0	66.667	66.667
4	Ethylene	0.000	0	0	0.000	Linear	0.000000e+00	0.000000e+00	0.000000e+00	0.000000e+00	0	0	0.000	0.000
5	Acetylene	0.000	0	0	0.000	Linear	0.000000e+00	0.000000e+00	0.000000e+00	0.000000e+00	0	0	0.000	0.000
6	Ethane	0.000	0	0	0.000	Linear	0.000000e+00	0.000000e+00	0.000000e+00	0.000000e+00	0	0	0.000	0.000

[Compound Results(Ch2)]
# of IDs	5
ID#	Name	R.Time	Area	Height	Conc.	Curve	3rd	2nd	1st	Constant	Area Ratio	Height Ratio	Conc. %	Norm Conc.
1	Hydrogen	0.000	0	0	0.000	Linear	0.000000e+00	0.000000e+00	0.000000e+00	0.000000e+00	0	0	0.000	0.000
2	Oxygen	0.000	0	0	0.000	Linear	0.000000e+00	0.000000e+00	0.000000e+00	0.000000e+00	0	0	0.000	0.000
3	Nitrogen	0.000	0	0	0.000	Linear	0.000000e+00	0.000000e+00	0.000000e+00	0.000000e+00	0	0	0.000	0.000
4	Methane	0.000	0	0	0.000	Linear	0.000000e+00	0.000000e+00	0.000000e+00	0.000000e+00	0	0	0.000	0.000
5	Carbon Monoxide	0.000	0	0	0.000	Linear	0.000000e+00	0.000000e+00	0.000000e+00	0.000000e+00	0	0	0.000	0.000

[Compound Results(Ch3)]
# of IDs	2
ID#	Name	R.Time	Area	Height	Conc.	Curve	3rd	2nd	1st	Constant	Area Ratio	Height Ratio	Conc. %	Norm Conc.
1	N2O	2.880	26207	5407	1.000	Linear	0.000000e+00	0.000000e+00	2.620733e+004	0.000000e+00	0	0	50.000	50.000
2	SF6	3.280	149	23	1.000	Linear	0.000000e+00	0.000000e+00	1.493485e+002	0.000000e+00	0	0	50.000	50.000

[Group Results(Ch1)]
# of Groups	0

[Group Results(Ch2)]
# of Groups	0

[Group Results(Ch3)]
# of Groups	0

[Chromatogram (Ch1)]
Interval(msec)	220
# of Points	1091
Start Time(min)	0.002
End Time(min)	3.998
R.Time (min)	Intensity
0.00167	9
0.00533	9
0.00900	10
0.01267	14
0.01633	19
0.02000	19
0.02367	15
0.02733	12
0.03100	14
0.03467	17
0.03833	16
0.04200	11
0.04567	5
0.04933	-3
0.05300	-11
0.05667	-19
0.06033	-25
0.06400	-28
0.06767	-25
0.07133	-20
0.07500	-17
0.07867	-18
0.08233	-17
0.08600	-16
0.08967	-16
0.09333	-17
0.09700	-16
0.10067	-12
0.10433	-5
0.10800	1
0.11167	2
0.11533	-2
0.11900	-4
0.12267	-4
0.12633	-4
0.13000	-6
0.13367	-5
0.13733	0
0.14100	6
0.14467	8
0.14833	10
0.15200	9
0.15567	6
0.15933	1
0.16300	-5
0.16667	-11
0.17033	-14
0.17400	-15
0.17767	-13
0.18133	-10
0.18500	-10
0.18867	-13
0.19233	-18
0.19600	-17
0.19967	-12
0.20333	-7
0.20700	-6
0.21067	-9
0.21433	-13
0.21800	-16
0.22167	-17
0.22533	-17
0.22900	-13
0.23267	-6
0.23633	3
0.24000	10
0.24367	13
0.24733	13
0.25100	9
0.25467	-0
0.25833	-11
0.26200	-22
0.26567	-34
0.26933	-44
0.27300	-49
0.27667	-50
0.28033	-47
0.28400	-43
0.28767	-36
0.29133	-27
0.29500	-16
0.29867	-7
0.30233	1
0.30600	7
0.30967	10
0.31333	4
0.31700	-6
0.32067	-14
0.32433	-17
0.32800	-15
0.33167	-11
0.33533	-6
0.33900	-4
0.34267	-7
0.34633	-16
0.35000	-24
0.35367	-30
0.35733	-32
0.36100	-32
0.36467	-30
0.36833	-23
0.37200	-15
0.37567	-11
0.37933	-7
0.38300	-3
0.38667	2
0.39033	1
0.39400	-7
0.39767	-19
0.40133	-29
0.40500	-34
0.40867	-36
0.41233	-35
0.41600	-34
0.41967	-33
0.42333	-31
0.42700	-28
0.43067	-26
0.43433	-22
0.43800	-19
0.44167	-19
0.44533	-19
0.44900	-20
0.45267	-22
0.45633	-21
0.46000	-16
0.46367	-10
0.46733	-4
0.47100	2
0.47467	4
0.47833	1
0.48200	-8
0.48567	-16
0.48933	-19
0.49300	-21
0.49667	-24
0.50033	-28
0.50400	-34
0.50767	-39
0.51133	-43
0.51500	-42
0.51867	-38
0.52233	-34
0.52600	-32
0.52967	-32
0.53333	-33
0.53700	-34
0.54067	-34
0.54433	-33
0.54800	-32
0.55167	-32
0.55533	-33
0.55900	-31
0.56267	-30
0.56633	-28
0.57000	-28
0.57367	-29
0.57733	-30
0.58100	-31
0.58467	-34
0.58833	-37
0.59200	-37
0.59567	-37
0.59933	-35
0.60300	-31
0.60667	-27
0.61033	-28
0.61400	-31
0.61767	-32
0.62133	-34
0.62500	-34
0.62867	-35
0.63233	-36
0.63600	-33
0.63967	-30
0.64333	-26
0.64700	-22
0.65067	-19
0.65433	-15
0.65800	-12
0.66167	-14
0.66533	-17
0.66900	-21
0.67267	-23
0.67633	-28
0.68000	-35
0.68367	-44
0.68733	-50
0.69100	-50
0.69467	-44
0.69833	-41
0.70200	-40
0.70567	-42
0.70933	-45
0.71300	-44
0.71667	-42
0.72033	-38
0.72400	-32
0.72767	-29
0.73133	-27
0.73500	-23
0.73867	-22
0.74233	-24
0.74600	-30
0.74967	-37
0.75333	-41
0.75700	-44
0.76067	-45
0.76433	-45
0.76800	-45
0.77167	-41
0.77533	-39
0.77900	-36
0.78267	-32
0.78633	-26
0.79000	-24
0.79367	-27
0.79733	-32
0.80100	-35
0.80467	-35
0.80833	-34
0.81200	-33
0.81567	-33
0.81933	-35
0.82300	-37
0.82667	-36
0.83033	-36
0.83400	-39
0.83767	-43
0.84133	-47
0.84500	-47
0.84867	-49
0.85233	-53
0.85600	-52
0.85967	-49
0.86333	-42
0.86700	-35
0.87067	-30
0.87433	-28
0.87800	-32
0.88167	-38
0.88533	-44
0.88900	-47
0.89267	-44
0.89633	-37
0.90000	-32
0.90367	-30
0.90733	-30
0.91100	-32
0.91467	-36
0.91833	-38
0.92200	-36
0.92567	-34
0.92933	-30
0.93300	-28
0.93667	-29
0.94033	-30
0.94400	-33
0.94767	-38
0.95133	-44
0.95500	-51
0.95867	-55
0.96233	-52
0.96600	-47
0.96967	-44
0.97333	-44
0.97700	-44
0.98067	-44
0.98433	-46
0.98800	-49
0.99167	-51
0.99533	-54
0.99900	-56
1.00267	-56
1.00633	-54
1.01000	-51
1.01367	-49
1.01733	-46
1.02100	-43
1.02467	-40
1.02833	-39
1.03200	-38
1.03567	-34
1.03933	-30
1.04300	-29
1.04667	-32
1.05033	-36
1.05400	-41
1.05767	-43
1.06133	-41
1.06500	-38
1.06867	-38
1.07233	-39
1.07600	-40
1.07967	-43
1.08333	-45
1.08700	-45
1.09067	-41
1.09433	-36
1.09800	-35
1.10167	-38
1.10533	-44
1.10900	-49
1.11267	-53
1.11633	-55
1.12000	-59
1.12367	-61
1.12733	-60
1.13100	-58
1.13467	-54
1.13833	-49
1.14200	-43
1.14567	-37
1.14933	-31
1.15300	-28
1.15667	-26
1.16033	-29
1.16400	-27
1.16767	-23
1.17133	-20
1.17500	-23
1.17867	-34
1.18233	-53
1.18600	-71
1.18967	-80
1.19333	-80
1.19700	-78
1.20067	-71
1.20433	-64
1.20800	-61
1.21167	-61
1.21533	-63
1.21900	-65
1.22267	-67
1.22633	-68
1.23000	-65
1.23367	-58
1.23733	-46
1.24100	-35
1.24467	-27
1.24833	-23
1.25200	-24
1.25567	-35
1.25933	-54
1.26300	-70
1.26667	-81
1.27033	-86
1.27400	-89
1.27767	-88
1.28133	-83
1.28500	-73
1.28867	-61
1.29233	-52
1.29600	-48
1.29967	-47
1.30333	-46
1.30700	-45
1.31067	-43
1.31433	-47
1.31800	-54
1.32167	-57
1.32533	-59
1.32900	-63
1.33267	-65
1.33633	-66
1.34000	-62
1.34367	-56
1.34733	-50
1.35100	-42
1.35467	-36
1.35833	-37
1.36200	-42
1.36567	-45
1.36933	-47
1.37300	-48
1.37667	-50
1.38033	-51
1.38400	-51
1.38767	-53
1.39133	-56
1.39500	-59
1.39867	-59
1.40233	-57
1.40600	-54
1.40967	-47
1.41333	-40
1.41700	-31
1.42067	-24
1.42433	-23
1.42800	-28
1.43167	-36
1.43533	-43
1.43900	-20
1.44267	112
1.44633	427
1.45000	952
1.45367	1741
1.45733	2759
1.46100	3815
1.46467	4727
1.46833	5398
1.47200	5787
1.47567	5859
1.47933	5592
1.48300	5011
1.48667	4218
1.49033	3359
1.49400	2558
1.49767	1885
1.50133	1359
1.50500	966
1.50867	676
1.51233	468
1.51600	323
1.51967	217
1.52333	139
1.52700	83
1.53067	48
1.53433	28
1.53800	31
1.54167	93
1.54533	281
1.54900	627
1.55267	1073
1.55633	1519
1.56000	1894
1.56367	2159
1.56733	2284
1.57100	2238
1.57467	2017
1.57833	1670
1.58200	1280
1.58567	920
1.58933	627
1.59300	406
1.59667	247
1.60033	139
1.60400	65
1.60767	12
1.61133	-23
1.61500	-43
1.61867	-54
1.62233	-60
1.62600	-65
1.62967	-66
1.63333	-65
1.63700	-62
1.64067	-60
1.64433	-61
1.64800	-67
1.65167	-73
1.65533	-79
1.65900	-83
1.66267	-83
1.66633	-81
1.67000	-77
1.67367	-76
1.67733	-76
1.68100	-75
1.68467	-74
1.68833	-72
1.69200	-71
1.69567	-75
1.69933	-84
1.70300	-97
1.70667	-106
1.71033	-106
1.71400	-100
1.71767	-96
1.72133	-93
1.72500	-92
1.72867	-91
1.73233	-89
1.73600	-86
1.73967	-82
1.74333	-78
1.74700	-74
1.75067	-73
1.75433	-75
1.75800	-78
1.76167	-80
1.76533	-81
1.76900	-81
1.77267	-83
1.77633	-83
1.78000	-82
1.78367	-79
1.78733	-76
1.79100	-73
1.79467	-70
1.79833	-69
1.80200	-70
1.80567	-69
1.80933	-65
1.81300	-60
1.81667	-59
1.82033	-66
1.82400	-77
1.82767	-86
1.83133	-89
1.83500	-89
1.83867	-88
1.84233	-84
1.84600	-79
1.84967	-77
1.85333	-77
1.85700	-79
1.86067	-83
1.86433	-84
1.86800	-81
1.87167	-73
1.87533	-68
1.87900	-68
1.88267	-71
1.88633	-74
1.89000	-74
1.89367	-73
1.89733	-73
1.90100	-72
1.90467	-69
1.90833	-65
1.91200	-63
1.91567	-64
1.91933	-66
1.92300	-67
1.92667	-67
1.93033	-66
1.93400	-64
1.93767	-62
1.94133	-60
1.94500	-56
1.94867	-48
1.95233	-22
1.95600	120
1.95967	906
1.96333	4359
1.96700	15879
1.97067	45306
1.97433	103766
1.97800	195389
1.98167	310990
1.98533	431168
1.98900	534870
1.99267	605032
1.99633	631299
2.00000	610916
2.00367	550034
2.00733	462650
2.01100	366048
2.01467	275073
2.01833	198537
2.02200	139187
2.02567	95767
2.02933	65268
2.03300	44420
2.03667	30413
2.04033	21087
2.04400	14888
2.04767	10753
2.05133	7966
2.05500	6062
2.05867	4740
2.06233	3803
2.06600	3121
2.06967	2617
2.07333	2238
2.07700	1941
2.08067	1702
2.08433	1506
2.08800	1345
2.09167	1212
2.09533	1098
2.09900	1000
2.10267	916
2.10633	846
2.11000	785
2.11367	734
2.11733	690
2.12100	651
2.12467	616
2.12833	586
2.13200	562
2.13567	542
2.13933	524
2.14300	506
2.14667	484
2.15033	457
2.15400	430
2.15767	406
2.16133	388
2.16500	376
2.16867	368
2.17233	360
2.17600	350
2.17967	339
2.18333	328
2.18700	316
2.19067	304
2.19433	293
2.19800	281
2.20167	269
2.20533	259
2.20900	251
2.21267	243
2.21633	237
2.22000	235
2.22367	235
2.22733	234
2.23100	231
2.23467	226
2.23833	220
2.24200	216
2.24567	214
2.24933	214
2.25300	217
2.25667	219
2.26033	215
2.26400	206
2.26767	196
2.27133	190
2.27500	188
2.27867	192
2.28233	198
2.28600	198
2.28967	189
2.29333	172
2.29700	152
2.30067	139
2.30433	138
2.30800	143
2.31167	147
2.31533	149
2.31900	149
2.32267	149
2.32633	147
2.33000	145
2.33367	145
2.33733	148
2.34100	152
2.34467	154
2.34833	154
2.35200	150
2.35567	145
2.35933	140
2.36300	136
2.36667	133
2.37033	132
2.37400	137
2.37767	145
2.38133	150
2.38500	150
2.38867	146
2.39233	142
2.39600	142
2.39967	146
2.40333	148
2.40700	147
2.41067	147
2.41433	145
2.41800	142
2.42167	141
2.42533	139
2.42900	134
2.43267	129
2.43633	125
2.44000	125
2.44367	129
2.44733	133
2.45100	137
2.45467	143
2.45833	149
2.46200	149
2.46567	143
2.46933	132
2.47300	123
2.47667	115
2.48033	109
2.48400	106
2.48767	108
2.49133	114
2.49500	124
2.49867	134
2.50233	142
2.50600	147
2.50967	149
2.51333	146
2.51700	135
2.52067	124
2.52433	119
2.52800	116
2.53167	115
2.53533	117
2.53900	118
2.54267	114
2.54633	107
2.55000	101
2.55367	99
2.55733	98
2.56100	97
2.56467	96
2.56833	94
2.57200	92
2.57567	90
2.57933	90
2.58300	90
2.58667	91
2.59033	95
2.59400	102
2.59767	113
2.60133	126
2.60500	134
2.60867	131
2.61233	119
2.61600	107
2.61967	98
2.62333	90
2.62700	85
2.63067	84
2.63433	87
2.63800	90
2.64167	90
2.64533	87
2.64900	87
2.65267	87
2.65633	91
2.66000	98
2.66367	105
2.66733	107
2.67100	103
2.67467	94
2.67833	87
2.68200	82
2.68567	81
2.68933	83
2.69300	87
2.69667	92
2.70033	97
2.70400	102
2.70767	106
2.71133	107
2.71500	107
2.71867	108
2.72233	107
2.72600	106
2.72967	105
2.73333	105
2.73700	102
2.74067	96
2.74433	91
2.74800	88
2.75167	86
2.75533	87
2.75900	90
2.76267	91
2.76633	92
2.77000	92
2.77367	90
2.77733	87
2.78100	82
2.78467	77
2.78833	74
2.79200	75
2.79567	81
2.79933	89
2.80300	96
2.80667	100
2.81033	102
2.81400	103
2.81767	99
2.82133	95
2.82500	92
2.82867	88
2.83233	86
2.83600	86
2.83967	87
2.84333	88
2.84700	88
2.85067	89
2.85433	87
2.85800	84
2.86167	85
2.86533	90
2.86900	94
2.87267	96
2.87633	97
2.88000	98
2.88367	99
2.88733	100
2.89100	105
2.89467	107
2.89833	107
2.90200	104
2.90567	104
2.90933	105
2.91300	105
2.91667	103
2.92033	101
2.92400	101
2.92767	99
2.93133	96
2.93500	90
2.93867	84
2.94233	81
2.94600	80
2.94967	81
2.95333	85
2.95700	90
2.96067	95
2.96433	98
2.96800	98
2.97167	98
2.97533	98
2.97900	99
2.98267	104
2.98633	112
2.99000	121
2.99367	127
2.99733	127
3.00100	122
3.00467	117
3.00833	114
3.01200	112
3.01567	108
3.01933	103
3.02300	98
3.02667	92
3.03033	88
3.03400	89
3.03767	93
3.04133	99
3.04500	102
3.04867	103
3.05233	102
3.05600	101
3.05967	100
3.06333	98
3.06700	94
3.07067	93
3.07433	94
3.07800	97
3.08167	103
3.08533	108
3.08900	111
3.09267	115
3.09633	118
3.10000	120
3.10367	117
3.10733	113
3.11100	109
3.11467	105
3.11833	101
3.12200	99
3.12567	98
3.12933	97
3.13300	97
3.13667	100
3.14033	105
3.14400	113
3.14767	118
3.15133	120
3.15500	118
3.15867	116
3.16233	114
3.16600	108
3.16967	98
3.17333	88
3.17700	82
3.18067	80
3.18433	79
3.18800	79
3.19167	80
3.19533	81
3.19900	83
3.20267	90
3.20633	96
3.21000	103
3.21367	110
3.21733	115
3.22100	113
3.22467	107
3.22833	103
3.23200	101
3.23567	96
3.23933	90
3.24300	87
3.24667	88
3.25033	90
3.25400	94
3.25767	100
3.26133	104
3.26500	107
3.26867	109
3.27233	106
3.27600	99
3.27967	96
3.28333	95
3.28700	95
3.29067	93
3.29433	95
3.29800	101
3.30167	108
3.30533	111
3.30900	108
3.31267	104
3.31633	102
3.32000	104
3.32367	105
3.32733	103
3.33100	102
3.33467	102
3.33833	103
3.34200	103
3.34567	102
3.34933	99
3.35300	99
3.35667	99
3.36033	99
3.36400	100
3.36767	103
3.37133	107
3.37500	110
3.37867	115
3.38233	120
3.38600	124
3.38967	121
3.39333	112
3.39700	100
3.40067	88
3.40433	80
3.40800	81
3.41167	86
3.41533	90
3.41900	91
3.42267	92
3.42633	94
3.43000	95
3.43367	92
3.43733	88
3.44100	85
3.44467	83
3.44833	82
3.45200	85
3.45567	90
3.45933	96
3.46300	99
3.46667	100
3.47033	102
3.47400	105
3.47767	110
3.48133	116
3.48500	120
3.48867	116
3.49233	111
3.49600	110
3.49967	110
3.50333	108
3.50700	107
3.51067	105
3.51433	104
3.51800	104
3.52167	106
3.52533	108
3.52900	110
3.53267	110
3.53633	107
3.54000	105
3.54367	103
3.54733	104
3.55100	109
3.55467	115
3.55833	116
3.56200	109
3.56567	98
3.56933	87
3.57300	76
3.57667	70
3.58033	71
3.58400	75
3.58767	78
3.59133	83
3.59500	89
3.59867	94
3.60233	98
3.60600	102
3.60967	104
3.61333	105
3.61700	105
3.62067	106
3.62433	107
3.62800	102
3.63167	96
3.63533	94
3.63900	94
3.64267	99
3.64633	105
3.65000	110
3.65367	112
3.65733	112
3.66100	110
3.66467	107
3.66833	105
3.67200	105
3.67567	106
3.67933	107
3.68300	106
3.68667	101
3.69033	94
3.69400	89
3.69767	89
3.70133	90
3.70500	92
3.70867	94
3.71233	94
3.71600	96
3.71967	100
3.72333	102
3.72700	101
3.73067	102
3.73433	103
3.73800	104
3.74167	104
3.74533	105
3.74900	108
3.75267	112
3.75633	116
3.76000	122
3.76367	128
3.76733	134
3.77100	137
3.77467	134
3.77833	123
3.78200	108
3.78567	92
3.78933	79
3.79300	74
3.79667	79
3.80033	89
3.80400	100
3.80767	110
3.81133	115
3.81500	117
3.81867	118
3.82233	117
3.82600	113
3.82967	111
3.83333	111
3.83700	107
3.84067	101
3.84433	98
3.84800	101
3.85167	109
3.85533	121
3.85900	128
3.86267	128
3.86633	125
3.87000	121
3.87367	115
3.87733	109
3.88100	104
3.88467	101
3.88833	100
3.89200	99
3.89567	101
3.89933	103
3.90300	104
3.90667	104
3.91033	108
3.91400	114
3.91767	119
3.92133	121
3.92500	123
3.92867	125
3.93233	125
3.93600	124
3.93967	122
3.94333	119
3.94700	116
3.95067	113
3.95433	114
3.95800	121
3.96167	125
3.96533	125
3.96900	122
3.97267	116
3.97633	111
3.98000	109
3.98367	110
3.98733	115
3.99100	123
3.99467	129
3.99833	132

[Chromatogram (Ch2)]
Interval(msec)	220
# of Points	1091
Start Time(min)	0.002
End Time(min)	3.998
R.Time (min)	Intensity
0.00167	-1
0.00533	-1
0.00900	-2
0.01267	-2
0.01633	-3
0.02000	-3
0.02367	-3
0.02733	-3
0.03100	-2
0.03467	-2
0.03833	-2
0.04200	-2
0.04567	-2
0.04933	-2
0.05300	-2
0.05667	-2
0.06033	-1
0.06400	-1
0.06767	-1
0.07133	-0
0.07500	-0
0.07867	0
0.08233	1
0.08600	2
0.08967	2
0.09333	3
0.09700	4
0.10067	4
0.10433	4
0.10800	5
0.11167	5
0.11533	5
0.11900	5
0.12267	5
0.12633	5
0.13000	5
0.13367	4
0.13733	4
0.14100	3
0.14467	3
0.14833	3
0.15200	2
0.15567	1
0.15933	1
0.16300	0
0.16667	0
0.17033	-0
0.17400	-1
0.17767	-1
0.18133	-1
0.18500	-1
0.18867	-1
0.19233	-0
0.19600	0
0.19967	1
0.20333	1
0.20700	1
0.21067	2
0.21433	2
0.21800	2
0.22167	2
0.22533	2
0.22900	2
0.23267	2
0.23633	2
0.24000	2
0.24367	2
0.24733	2
0.25100	2
0.25467	2
0.25833	2
0.26200	2
0.26567	2
0.26933	2
0.27300	2
0.27667	2
0.28033	2
0.28400	2
0.28767	2
0.29133	2
0.29500	2
0.29867	2
0.30233	1
0.30600	1
0.30967	1
0.31333	0
0.31700	0
0.32067	0
0.32433	0
0.32800	-0
0.33167	-0
0.33533	-0
0.33900	-0
0.34267	0
0.34633	0
0.35000	0
0.35367	0
0.35733	0
0.36100	1
0.36467	1
0.36833	1
0.37200	2
0.37567	2
0.37933	3
0.38300	3
0.38667	4
0.39033	4
0.39400	4
0.39767	5
0.40133	5
0.40500	4
0.40867	4
0.41233	4
0.41600	4
0.41967	4
0.42333	4
0.42700	4
0.43067	4
0.43433	4
0.43800	5
0.44167	5
0.44533	5
0.44900	5
0.45267	5
0.45633	5
0.46000	5
0.46367	4
0.46733	4
0.47100	4
0.47467	3
0.47833	3
0.48200	3
0.48567	2
0.48933	2
0.49300	1
0.49667	1
0.50033	1
0.50400	0
0.50767	0
0.51133	-0
0.51500	-0
0.51867	-0
0.52233	-1
0.52600	-1
0.52967	-1
0.53333	-0
0.53700	0
0.54067	1
0.54433	1
0.54800	1
0.55167	2
0.55533	2
0.55900	2
0.56267	2
0.56633	2
0.57000	2
0.57367	2
0.57733	2
0.58100	2
0.58467	2
0.58833	2
0.59200	3
0.59567	3
0.59933	4
0.60300	4
0.60667	5
0.61033	5
0.61400	5
0.61767	5
0.62133	5
0.62500	4
0.62867	4
0.63233	4
0.63600	3
0.63967	3
0.64333	3
0.64700	3
0.65067	3
0.65433	2
0.65800	3
0.66167	3
0.66533	3
0.66900	3
0.67267	3
0.67633	3
0.68000	3
0.68367	3
0.68733	3
0.69100	3
0.69467	3
0.69833	3
0.70200	3
0.70567	3
0.70933	2
0.71300	2
0.71667	2
0.72033	2
0.72400	1
0.72767	1
0.73133	1
0.73500	0
0.73867	-0
0.74233	-1
0.74600	-1
0.74967	-1
0.75333	-1
0.75700	-1
0.76067	-1
0.76433	-1
0.76800	-0
0.77167	-0
0.77533	0
0.77900	0
0.78267	0
0.78633	0
0.79000	0
0.79367	0
0.79733	-0
0.80100	-0
0.80467	-1
0.80833	-1
0.81200	-1
0.81567	-1
0.81933	-0
0.82300	-0
0.82667	0
0.83033	0
0.83400	0
0.83767	1
0.84133	1
0.84500	1
0.84867	1
0.85233	1
0.85600	1
0.85967	2
0.86333	2
0.86700	2
0.87067	2
0.87433	2
0.87800	3
0.88167	3
0.88533	3
0.88900	3
0.89267	3
0.89633	2
0.90000	2
0.90367	2
0.90733	2
0.91100	2
0.91467	2
0.91833	2
0.92200	2
0.92567	2
0.92933	2
0.93300	2
0.93667	1
0.94033	1
0.94400	1
0.94767	0
0.95133	0
0.95500	-0
0.95867	-0
0.96233	-1
0.96600	-1
0.96967	-1
0.97333	-1
0.97700	-1
0.98067	-1
0.98433	-2
0.98800	-2
0.99167	-2
0.99533	-2
0.99900	-3
1.00267	-3
1.00633	-3
1.01000	-3
1.01367	-2
1.01733	-2
1.02100	-2
1.02467	-2
1.02833	-2
1.03200	-2
1.03567	-2
1.03933	-1
1.04300	-1
1.04667	-1
1.05033	-0
1.05400	-0
1.05767	-0
1.06133	0
1.06500	0
1.06867	1
1.07233	1
1.07600	1
1.07967	1
1.08333	1
1.08700	1
1.09067	1
1.09433	1
1.09800	1
1.10167	1
1.10533	0
1.10900	0
1.11267	0
1.11633	0
1.12000	0
1.12367	1
1.12733	1
1.13100	1
1.13467	1
1.13833	1
1.14200	1
1.14567	1
1.14933	0
1.15300	0
1.15667	1
1.16033	1
1.16400	1
1.16767	1
1.17133	2
1.17500	2
1.17867	2
1.18233	3
1.18600	3
1.18967	3
1.19333	3
1.19700	3
1.20067	3
1.20433	3
1.20800	4
1.21167	4
1.21533	4
1.21900	4
1.22267	4
1.22633	3
1.23000	3
1.23367	3
1.23733	3
1.24100	3
1.24467	2
1.24833	2
1.25200	2
1.25567	1
1.25933	1
1.26300	1
1.26667	0
1.27033	-0
1.27400	-0
1.27767	-0
1.28133	-0
1.28500	-1
1.28867	-1
1.29233	-1
1.29600	-1
1.29967	-1
1.30333	-1
1.30700	-1
1.31067	-2
1.31433	-2
1.31800	-2
1.32167	-2
1.32533	-2
1.32900	-2
1.33267	-2
1.33633	-2
1.34000	-2
1.34367	-2
1.34733	-2
1.35100	-1
1.35467	-1
1.35833	-1
1.36200	-1
1.36567	-1
1.36933	-0
1.37300	-0
1.37667	0
1.38033	0
1.38400	1
1.38767	1
1.39133	1
1.39500	1
1.39867	1
1.40233	2
1.40600	2
1.40967	2
1.41333	2
1.41700	2
1.42067	3
1.42433	3
1.42800	3
1.43167	3
1.43533	3
1.43900	4
1.44267	4
1.44633	4
1.45000	3
1.45367	3
1.45733	3
1.46100	2
1.46467	2
1.46833	2
1.47200	2
1.47567	1
1.47933	1
1.48300	1
1.48667	0
1.49033	0
1.49400	-0
1.49767	-1
1.50133	-1
1.50500	-2
1.50867	-2
1.51233	-3
1.51600	-3
1.51967	-3
1.52333	-3
1.52700	-3
1.53067	-3
1.53433	-3
1.53800	-3
1.54167	-3
1.54533	-3
1.54900	-3
1.55267	-3
1.55633	-3
1.56000	-3
1.56367	-4
1.56733	-4
1.57100	-4
1.57467	-3
1.57833	-3
1.58200	-3
1.58567	-3
1.58933	-3
1.59300	-3
1.59667	-3
1.60033	-4
1.60400	-5
1.60767	-6
1.61133	-7
1.61500	-9
1.61867	-11
1.62233	-13
1.62600	-15
1.62967	-17
1.63333	-20
1.63700	-23
1.64067	-26
1.64433	-29
1.64800	-33
1.65167	-36
1.65533	-39
1.65900	-43
1.66267	-46
1.66633	-50
1.67000	-55
1.67367	-60
1.67733	-65
1.68100	-70
1.68467	-75
1.68833	-79
1.69200	-84
1.69567	-87
1.69933	-90
1.70300	-93
1.70667	-95
1.71033	-98
1.71400	-100
1.71767	-102
1.72133	-104
1.72500	-105
1.72867	-107
1.73233	-108
1.73600	-110
1.73967	-111
1.74333	-112
1.74700	-113
1.75067	-113
1.75433	-114
1.75800	-115
1.76167	-115
1.76533	-115
1.76900	-115
1.77267	-115
1.77633	-115
1.78000	-114
1.78367	-114
1.78733	-113
1.79100	-113
1.79467	-114
1.79833	-114
1.80200	-115
1.80567	-116
1.80933	-117
1.81300	-118
1.81667	-118
1.82033	-119
1.82400	-118
1.82767	-118
1.83133	-118
1.83500	-117
1.83867	-117
1.84233	-117
1.84600	-117
1.84967	-117
1.85333	-117
1.85700	-117
1.86067	-117
1.86433	-117
1.86800	-118
1.87167	-118
1.87533	-118
1.87900	-118
1.88267	-118
1.88633	-117
1.89000	-117
1.89367	-117
1.89733	-117
1.90100	-117
1.90467	-117
1.90833	-117
1.91200	-116
1.91567	-116
1.91933	-115
1.92300	-115
1.92667	-115
1.93033	-115
1.93400	-115
1.93767	-115
1.94133	-115
1.94500	-115
1.94867	-115
1.95233	-115
1.95600	-114
1.95967	-113
1.96333	-113
1.96700	-112
1.97067	-112
1.97433	-112
1.97800	-111
1.98167	-111
1.98533	-111
1.98900	-110
1.99267	-110
1.99633	-109
2.00000	-109
2.00367	-109
2.00733	-109
2.01100	-109
2.01467	-109
2.01833	-109
2.02200	-109
2.02567	-109
2.02933	-108
2.03300	-108
2.03667	-108
2.04033	-108
2.04400	-108
2.04767	-107
2.05133	-107
2.05500	-107
2.05867	-107
2.06233	-106
2.06600	-106
2.06967	-105
2.07333	-105
2.07700	-104
2.08067	-104
2.08433	-104
2.08800	-104
2.09167	-104
2.09533	-104
2.09900	-104
2.10267	-103
2.10633	-103
2.11000	-102
2.11367	-102
2.11733	-102
2.12100	-102
2.12467	-101
2.12833	-101
2.13200	-101
2.13567	-100
2.13933	-100
2.14300	-99
2.14667	-99
2.15033	-98
2.15400	-98
2.15767	-98
2.16133	-98
2.16500	-98
2.16867	-97
2.17233	-97
2.17600	-97
2.17967	-97
2.18333	-96
2.18700	-95
2.19067	-95
2.19433	-94
2.19800	-93
2.20167	-93
2.20533	-92
2.20900	-92
2.21267	-93
2.21633	-93
2.22000	-93
2.22367	-93
2.22733	-92
2.23100	-92
2.23467	-92
2.23833	-92
2.24200	-92
2.24567	-92
2.24933	-91
2.25300	-91
2.25667	-90
2.26033	-90
2.26400	-89
2.26767	-89
2.27133	-88
2.27500	-88
2.27867	-88
2.28233	-88
2.28600	-88
2.28967	-88
2.29333	-88
2.29700	-88
2.30067	-88
2.30433	-88
2.30800	-88
2.31167	-88
2.31533	-88
2.31900	-88
2.32267	-87
2.32633	-86
2.33000	-86
2.33367	-85
2.33733	-85
2.34100	-84
2.34467	-84
2.34833	-84
2.35200	-84
2.35567	-84
2.35933	-84
2.36300	-83
2.36667	-83
2.37033	-82
2.37400	-81
2.37767	-78
2.38133	-76
2.38500	-72
2.38867	-69
2.39233	-65
2.39600	-60
2.39967	-56
2.40333	-51
2.40700	-46
2.41067	-41
2.41433	-37
2.41800	-33
2.42167	-29
2.42533	-25
2.42900	-22
2.43267	-18
2.43633	-16
2.44000	-13
2.44367	-11
2.44733	-9
2.45100	-7
2.45467	-6
2.45833	-4
2.46200	-3
2.46567	-2
2.46933	-0
2.47300	1
2.47667	2
2.48033	3
2.48400	4
2.48767	5
2.49133	6
2.49500	7
2.49867	8
2.50233	9
2.50600	10
2.50967	12
2.51333	12
2.51700	13
2.52067	13
2.52433	14
2.52800	14
2.53167	14
2.53533	14
2.53900	15
2.54267	15
2.54633	15
2.55000	15
2.55367	15
2.55733	15
2.56100	15
2.56467	15
2.56833	15
2.57200	15
2.57567	15
2.57933	15
2.58300	16
2.58667	16
2.59033	17
2.59400	18
2.59767	18
2.60133	19
2.60500	19
2.60867	19
2.61233	19
2.61600	18
2.61967	18
2.62333	18
2.62700	18
2.63067	19
2.63433	19
2.63800	19
2.64167	19
2.64533	20
2.64900	20
2.65267	20
2.65633	20
2.66000	20
2.66367	21
2.66733	21
2.67100	22
2.67467	22
2.67833	22
2.68200	23
2.68567	23
2.68933	24
2.69300	24
2.69667	25
2.70033	25
2.70400	25
2.70767	25
2.71133	25
2.71500	24
2.71867	24
2.72233	24
2.72600	23
2.72967	24
2.73333	24
2.73700	24
2.74067	24
2.74433	24
2.74800	25
2.75167	25
2.75533	25
2.75900	25
2.76267	25
2.76633	25
2.77000	26
2.77367	26
2.77733	26
2.78100	26
2.78467	27
2.78833	27
2.79200	27
2.79567	27
2.79933	27
2.80300	27
2.80667	27
2.81033	27
2.81400	27
2.81767	28
2.82133	28
2.82500	28
2.82867	28
2.83233	28
2.83600	28
2.83967	27
2.84333	26
2.84700	23
2.85067	19
2.85433	12
2.85800	3
2.86167	-10
2.86533	-27
2.86900	-48
2.87267	-73
2.87633	-102
2.88000	-135
2.88367	-171
2.88733	-210
2.89100	-253
2.89467	-298
2.89833	-344
2.90200	-393
2.90567	-442
2.90933	-492
2.91300	-542
2.91667	-592
2.92033	-642
2.92400	-692
2.92767	-741
2.93133	-789
2.93500	-841
2.93867	-897
2.94233	-958
2.94600	-1018
2.94967	-1064
2.95333	-1087
2.95700	-1083
2.96067	-1054
2.96433	-1005
2.96800	-939
2.97167	-864
2.97533	-785
2.97900	-705
2.98267	-626
2.98633	-552
2.99000	-483
2.99367	-420
2.99733	-363
3.00100	-313
3.00467	-268
3.00833	-228
3.01200	-194
3.01567	-164
3.01933	-138
3.02300	-116
3.02667	-97
3.03033	-80
3.03400	-66
3.03767	-54
3.04133	-44
3.04500	-35
3.04867	-28
3.05233	-21
3.05600	-16
3.05967	-11
3.06333	-7
3.06700	-4
3.07067	-1
3.07433	2
3.07800	4
3.08167	6
3.08533	8
3.08900	9
3.09267	10
3.09633	11
3.10000	12
3.10367	13
3.10733	14
3.11100	14
3.11467	15
3.11833	15
3.12200	16
3.12567	16
3.12933	16
3.13300	17
3.13667	18
3.14033	18
3.14400	19
3.14767	20
3.15133	20
3.15500	21
3.15867	22
3.16233	22
3.16600	23
3.16967	23
3.17333	24
3.17700	24
3.18067	25
3.18433	25
3.18800	25
3.19167	26
3.19533	26
3.19900	26
3.20267	26
3.20633	26
3.21000	27
3.21367	27
3.21733	27
3.22100	27
3.22467	27
3.22833	27
3.23200	27
3.23567	27
3.23933	27
3.24300	27
3.24667	27
3.25033	27
3.25400	27
3.25767	27
3.26133	27
3.26500	26
3.26867	27
3.27233	27
3.27600	27
3.27967	27
3.28333	27
3.28700	27
3.29067	26
3.29433	26
3.29800	26
3.30167	26
3.30533	26
3.30900	25
3.31267	25
3.31633	25
3.32000	25
3.32367	26
3.32733	26
3.33100	26
3.33467	26
3.33833	26
3.34200	26
3.34567	26
3.34933	26
3.35300	26
3.35667	26
3.36033	26
3.36400	27
3.36767	27
3.37133	27
3.37500	27
3.37867	28
3.38233	28
3.38600	28
3.38967	28
3.39333	28
3.39700	29
3.40067	29
3.40433	29
3.40800	29
3.41167	29
3.41533	29
3.41900	29
3.42267	29
3.42633	29
3.43000	29
3.43367	29
3.43733	29
3.44100	29
3.44467	29
3.44833	29
3.45200	29
3.45567	29
3.45933	29
3.46300	29
3.46667	29
3.47033	29
3.47400	29
3.47767	29
3.48133	29
3.48500	29
3.48867	29
3.49233	29
3.49600	29
3.49967	29
3.50333	29
3.50700	28
3.51067	28
3.51433	28
3.51800	28
3.52167	28
3.52533	28
3.52900	28
3.53267	28
3.53633	28
3.54000	28
3.54367	27
3.54733	27
3.55100	27
3.55467	27
3.55833	27
3.56200	28
3.56567	28
3.56933	28
3.57300	29
3.57667	29
3.58033	29
3.58400	30
3.58767	30
3.59133	30
3.59500	31
3.59867	31
3.60233	32
3.60600	32
3.60967	32
3.61333	32
3.61700	32
3.62067	32
3.62433	32
3.62800	32
3.63167	32
3.63533	32
3.63900	32
3.64267	32
3.64633	32
3.65000	32
3.65367	32
3.65733	32
3.66100	32
3.66467	32
3.66833	32
3.67200	32
3.67567	32
3.67933	32
3.68300	31
3.68667	31
3.69033	31
3.69400	31
3.69767	31
3.70133	31
3.70500	31
3.70867	31
3.71233	31
3.71600	31
3.71967	30
3.72333	30
3.72700	30
3.73067	30
3.73433	30
3.73800	30
3.74167	30
3.74533	30
3.74900	30
3.75267	30
3.75633	30
3.76000	29
3.76367	29
3.76733	29
3.77100	28
3.77467	28
3.77833	28
3.78200	28
3.78567	28
3.78933	29
3.79300	29
3.79667	29
3.80033	29
3.80400	29
3.80767	29
3.81133	29
3.81500	29
3.81867	29
3.82233	29
3.82600	29
3.82967	30
3.83333	30
3.83700	30
3.84067	30
3.84433	30
3.84800	29
3.85167	29
3.85533	29
3.85900	29
3.86267	29
3.86633	29
3.87000	29
3.87367	28
3.87733	28
3.88100	28
3.88467	28
3.88833	28
3.89200	28
3.89567	28
3.89933	28
3.90300	28
3.90667	28
3.91033	29
3.91400	29
3.91767	29
3.92133	29
3.92500	29
3.92867	29
3.93233	29
3.93600	29
3.93967	29
3.94333	29
3.94700	28
3.95067	29
3.95433	29
3.95800	29
3.96167	29
3.96533	29
3.96900	29
3.97267	30
3.97633	30
3.98000	30
3.98367	30
3.98733	29
3.99100	29
3.99467	29
3.99833	29

[Chromatogram (Ch3)]
Interval(msec)	220
# of Points	1091
Start Time(min)	0.002
End Time(min)	3.998
R.Time (min)	Intensity
0.00167	-0
0.00533	-1
0.00900	-2
0.01267	-2
0.01633	-2
0.02000	-3
0.02367	-3
0.02733	-3
0.03100	-2
0.03467	0
0.03833	3
0.04200	2
0.04567	1
0.04933	2
0.05300	2
0.05667	0
0.06033	-2
0.06400	-1
0.06767	1
0.07133	1
0.07500	0
0.07867	-2
0.08233	-3
0.08600	-3
0.08967	-3
0.09333	-3
0.09700	-2
0.10067	-2
0.10433	-2
0.10800	-2
0.11167	-2
0.11533	-1
0.11900	-1
0.12267	-1
0.12633	0
0.13000	-2
0.13367	-2
0.13733	-3
0.14100	-5
0.14467	-6
0.14833	-2
0.15200	1
0.15567	1
0.15933	2
0.16300	1
0.16667	0
0.17033	1
0.17400	-1
0.17767	-1
0.18133	-2
0.18500	-2
0.18867	-4
0.19233	-4
0.19600	-3
0.19967	-3
0.20333	-3
0.20700	-2
0.21067	-0
0.21433	-0
0.21800	-2
0.22167	-3
0.22533	-3
0.22900	-4
0.23267	-6
0.23633	-8
0.24000	-8
0.24367	-8
0.24733	-8
0.25100	-6
0.25467	-7
0.25833	-8
0.26200	-8
0.26567	-7
0.26933	-7
0.27300	-6
0.27667	-4
0.28033	-2
0.28400	-2
0.28767	-3
0.29133	-5
0.29500	-8
0.29867	-8
0.30233	-7
0.30600	-9
0.30967	-9
0.31333	-9
0.31700	-10
0.32067	-10
0.32433	-10
0.32800	-9
0.33167	-8
0.33533	-8
0.33900	-6
0.34267	-7
0.34633	-9
0.35000	-8
0.35367	-7
0.35733	-8
0.36100	-10
0.36467	-11
0.36833	-12
0.37200	-13
0.37567	-13
0.37933	-12
0.38300	-12
0.38667	-12
0.39033	-10
0.39400	-7
0.39767	-8
0.40133	-9
0.40500	-10
0.40867	-12
0.41233	-17
0.41600	-19
0.41967	-21
0.42333	-21
0.42700	-17
0.43067	-13
0.43433	-12
0.43800	-11
0.44167	-9
0.44533	-8
0.44900	-8
0.45267	-11
0.45633	-14
0.46000	-16
0.46367	-16
0.46733	-14
0.47100	-13
0.47467	-11
0.47833	-9
0.48200	-9
0.48567	-11
0.48933	-13
0.49300	-11
0.49667	-9
0.50033	-10
0.50400	-10
0.50767	-8
0.51133	-8
0.51500	-9
0.51867	-12
0.52233	-13
0.52600	-14
0.52967	-13
0.53333	-10
0.53700	-8
0.54067	-8
0.54433	-8
0.54800	-8
0.55167	-8
0.55533	-9
0.55900	-10
0.56267	-12
0.56633	-13
0.57000	-12
0.57367	-12
0.57733	-13
0.58100	-14
0.58467	-13
0.58833	-12
0.59200	-14
0.59567	-17
0.59933	-17
0.60300	-16
0.60667	-14
0.61033	-12
0.61400	-13
0.61767	-16
0.62133	-18
0.62500	-18
0.62867	-18
0.63233	-18
0.63600	-19
0.63967	-20
0.64333	-18
0.64700	-18
0.65067	-20
0.65433	-21
0.65800	-21
0.66167	-19
0.66533	-19
0.66900	-18
0.67267	-16
0.67633	-15
0.68000	-16
0.68367	-15
0.68733	-14
0.69100	-15
0.69467	-18
0.69833	-20
0.70200	-21
0.70567	-23
0.70933	-22
0.71300	-21
0.71667	-21
0.72033	-21
0.72400	-19
0.72767	-17
0.73133	-16
0.73500	-17
0.73867	-19
0.74233	-19
0.74600	-17
0.74967	-17
0.75333	-17
0.75700	-19
0.76067	-20
0.76433	-20
0.76800	-20
0.77167	-20
0.77533	-18
0.77900	-17
0.78267	-17
0.78633	-16
0.79000	-17
0.79367	-19
0.79733	-20
0.80100	-20
0.80467	-18
0.80833	-17
0.81200	-18
0.81567	-20
0.81933	-22
0.82300	-21
0.82667	-21
0.83033	-23
0.83400	-23
0.83767	-24
0.84133	-23
0.84500	-22
0.84867	-22
0.85233	-21
0.85600	-20
0.85967	-19
0.86333	-18
0.86700	-20
0.87067	-22
0.87433	-22
0.87800	-24
0.88167	-23
0.88533	-23
0.88900	-22
0.89267	-19
0.89633	-18
0.90000	-18
0.90367	-18
0.90733	-18
0.91100	-20
0.91467	-21
0.91833	-22
0.92200	-25
0.92567	-27
0.92933	-26
0.93300	-26
0.93667	-25
0.94033	-26
0.94400	-27
0.94767	-26
0.95133	-26
0.95500	-29
0.95867	-30
0.96233	-29
0.96600	-28
0.96967	-27
0.97333	-28
0.97700	-26
0.98067	-25
0.98433	-25
0.98800	-27
0.99167	-26
0.99533	-26
0.99900	-24
1.00267	-24
1.00633	-25
1.01000	-25
1.01367	-24
1.01733	-24
1.02100	-24
1.02467	-25
1.02833	-24
1.03200	-24
1.03567	-24
1.03933	-27
1.04300	-27
1.04667	-27
1.05033	-28
1.05400	-26
1.05767	-25
1.06133	-25
1.06500	-26
1.06867	-27
1.07233	-28
1.07600	-28
1.07967	-30
1.08333	-29
1.08700	-28
1.09067	-26
1.09433	-25
1.09800	-24
1.10167	-23
1.10533	-25
1.10900	-27
1.11267	-26
1.11633	-25
1.12000	-23
1.12367	-21
1.12733	-21
1.13100	-21
1.13467	-21
1.13833	-22
1.14200	-24
1.14567	-25
1.14933	-26
1.15300	-28
1.15667	-30
1.16033	-31
1.16400	-31
1.16767	-31
1.17133	-31
1.17500	-31
1.17867	-30
1.18233	-29
1.18600	-28
1.18967	-26
1.19333	-26
1.19700	-28
1.20067	-31
1.20433	-32
1.20800	-32
1.21167	-32
1.21533	-32
1.21900	-32
1.22267	-32
1.22633	-32
1.23000	-31
1.23367	-28
1.23733	-27
1.24100	-28
1.24467	-27
1.24833	-25
1.25200	-23
1.25567	-22
1.25933	-22
1.26300	-22
1.26667	-25
1.27033	-26
1.27400	-25
1.27767	-23
1.28133	-24
1.28500	-25
1.28867	-27
1.29233	-30
1.29600	-32
1.29967	-31
1.30333	-30
1.30700	-29
1.31067	-26
1.31433	-25
1.31800	-27
1.32167	-29
1.32533	-28
1.32900	-28
1.33267	-28
1.33633	-27
1.34000	-27
1.34367	-30
1.34733	-33
1.35100	-34
1.35467	-34
1.35833	-33
1.36200	-31
1.36567	-29
1.36933	-28
1.37300	-29
1.37667	-30
1.38033	-31
1.38400	-31
1.38767	-31
1.39133	-31
1.39500	-32
1.39867	-32
1.40233	-31
1.40600	-30
1.40967	-31
1.41333	-33
1.41700	-34
1.42067	-33
1.42433	-34
1.42800	-35
1.43167	-35
1.43533	-35
1.43900	-34
1.44267	-36
1.44633	-35
1.45000	-33
1.45367	-30
1.45733	-28
1.46100	-27
1.46467	-25
1.46833	-25
1.47200	-27
1.47567	-29
1.47933	-29
1.48300	-28
1.48667	-26
1.49033	-26
1.49400	-26
1.49767	-26
1.50133	-25
1.50500	-20
1.50867	-18
1.51233	-19
1.51600	-22
1.51967	-25
1.52333	-26
1.52700	-26
1.53067	-26
1.53433	-25
1.53800	-27
1.54167	-28
1.54533	-29
1.54900	-30
1.55267	-30
1.55633	-28
1.56000	-29
1.56367	-29
1.56733	-28
1.57100	-29
1.57467	-30
1.57833	-31
1.58200	-32
1.58567	-33
1.58933	-32
1.59300	-31
1.59667	-32
1.60033	-31
1.60400	-29
1.60767	-27
1.61133	-27
1.61500	-28
1.61867	-28
1.62233	-29
1.62600	-29
1.62967	-29
1.63333	-28
1.63700	-28
1.64067	-27
1.64433	-28
1.64800	-27
1.65167	-25
1.65533	-24
1.65900	-23
1.66267	-23
1.66633	-24
1.67000	-22
1.67367	-18
1.67733	-15
1.68100	-15
1.68467	-16
1.68833	-17
1.69200	-15
1.69567	-15
1.69933	-15
1.70300	-13
1.70667	-12
1.71033	-13
1.71400	-15
1.71767	-16
1.72133	-17
1.72500	-17
1.72867	-15
1.73233	-14
1.73600	-15
1.73967	-14
1.74333	-15
1.74700	-18
1.75067	-17
1.75433	-14
1.75800	-10
1.76167	-9
1.76533	-8
1.76900	-6
1.77267	-4
1.77633	-4
1.78000	-5
1.78367	-5
1.78733	-4
1.79100	-4
1.79467	-4
1.79833	-3
1.80200	-1
1.80567	-2
1.80933	-1
1.81300	-1
1.81667	-1
1.82033	-1
1.82400	-2
1.82767	-4
1.83133	-5
1.83500	-6
1.83867	-7
1.84233	-6
1.84600	-5
1.84967	-3
1.85333	-2
1.85700	-2
1.86067	-2
1.86433	-2
1.86800	-4
1.87167	-3
1.87533	-2
1.87900	-1
1.88267	-0
1.88633	2
1.89000	4
1.89367	6
1.89733	8
1.90100	11
1.90467	12
1.90833	12
1.91200	13
1.91567	12
1.91933	9
1.92300	8
1.92667	10
1.93033	11
1.93400	12
1.93767	13
1.94133	13
1.94500	12
1.94867	12
1.95233	11
1.95600	11
1.95967	7
1.96333	7
1.96700	8
1.97067	11
1.97433	13
1.97800	16
1.98167	16
1.98533	17
1.98900	21
1.99267	23
1.99633	23
2.00000	22
2.00367	21
2.00733	24
2.01100	27
2.01467	29
2.01833	30
2.02200	31
2.02567	30
2.02933	31
2.03300	32
2.03667	35
2.04033	36
2.04400	36
2.04767	37
2.05133	38
2.05500	40
2.05867	40
2.06233	39
2.06600	38
2.06967	41
2.07333	45
2.07700	45
2.08067	44
2.08433	44
2.08800	45
2.09167	46
2.09533	46
2.09900	45
2.10267	45
2.10633	44
2.11000	44
2.11367	45
2.11733	49
2.12100	50
2.12467	50
2.12833	50
2.13200	49
2.13567	49
2.13933	50
2.14300	51
2.14667	55
2.15033	57
2.15400	59
2.15767	61
2.16133	63
2.16500	63
2.16867	63
2.17233	63
2.17600	62
2.17967	64
2.18333	67
2.18700	68
2.19067	68
2.19433	69
2.19800	72
2.20167	75
2.20533	77
2.20900	78
2.21267	80
2.21633	79
2.22000	77
2.22367	74
2.22733	72
2.23100	72
2.23467	73
2.23833	74
2.24200	74
2.24567	74
2.24933	76
2.25300	78
2.25667	80
2.26033	83
2.26400	86
2.26767	88
2.27133	91
2.27500	94
2.27867	94
2.28233	95
2.28600	97
2.28967	97
2.29333	96
2.29700	94
2.30067	95
2.30433	97
2.30800	99
2.31167	102
2.31533	104
2.31900	104
2.32267	102
2.32633	103
2.33000	105
2.33367	106
2.33733	108
2.34100	110
2.34467	109
2.34833	111
2.35200	112
2.35567	114
2.35933	115
2.36300	115
2.36667	115
2.37033	117
2.37400	118
2.37767	120
2.38133	119
2.38500	119
2.38867	118
2.39233	117
2.39600	117
2.39967	118
2.40333	119
2.40700	121
2.41067	123
2.41433	128
2.41800	130
2.42167	133
2.42533	137
2.42900	139
2.43267	141
2.43633	144
2.44000	147
2.44367	153
2.44733	168
2.45100	186
2.45467	191
2.45833	183
2.46200	164
2.46567	145
2.46933	129
2.47300	121
2.47667	118
2.48033	114
2.48400	109
2.48767	107
2.49133	108
2.49500	108
2.49867	109
2.50233	113
2.50600	119
2.50967	128
2.51333	135
2.51700	141
2.52067	146
2.52433	148
2.52800	151
2.53167	153
2.53533	157
2.53900	159
2.54267	160
2.54633	161
2.55000	164
2.55367	168
2.55733	172
2.56100	174
2.56467	176
2.56833	177
2.57200	181
2.57567	188
2.57933	194
2.58300	200
2.58667	203
2.59033	205
2.59400	207
2.59767	206
2.60133	203
2.60500	196
2.60867	183
2.61233	162
2.61600	135
2.61967	102
2.62333	67
2.62700	33
2.63067	3
2.63433	-24
2.63800	-46
2.64167	-61
2.64533	-71
2.64900	-76
2.65267	-77
2.65633	-74
2.66000	-70
2.66367	-65
2.66733	-59
2.67100	-51
2.67467	-43
2.67833	-35
2.68200	-26
2.68567	-17
2.68933	-10
2.69300	-1
2.69667	5
2.70033	12
2.70400	20
2.70767	27
2.71133	34
2.71500	41
2.71867	47
2.72233	51
2.72600	56
2.72967	60
2.73333	63
2.73700	67
2.74067	71
2.74433	79
2.74800	86
2.75167	91
2.75533	95
2.75900	99
2.76267	103
2.76633	106
2.77000	107
2.77367	110
2.77733	112
2.78100	114
2.78467	115
2.78833	118
2.79200	119
2.79567	120
2.79933	123
2.80300	124
2.80667	125
2.81033	127
2.81400	129
2.81767	129
2.82133	133
2.82500	145
2.82867	173
2.83233	228
2.83600	330
2.83967	506
2.84333	774
2.84700	1154
2.85067	1645
2.85433	2228
2.85800	2868
2.86167	3518
2.86533	4125
2.86900	4643
2.87267	5030
2.87633	5265
2.88000	5345
2.88367	5282
2.88733	5097
2.89100	4821
2.89467	4485
2.89833	4113
2.90200	3728
2.90567	3351
2.90933	2993
2.91300	2659
2.91667	2350
2.92033	2071
2.92400	1821
2.92767	1599
2.93133	1404
2.93500	1233
2.93867	1082
2.94233	952
2.94600	839
2.94967	739
2.95333	652
2.95700	578
2.96067	514
2.96433	457
2.96800	410
2.97167	372
2.97533	339
2.97900	309
2.98267	282
2.98633	260
2.99000	241
2.99367	224
2.99733	207
3.00100	193
3.00467	182
3.00833	172
3.01200	164
3.01567	159
3.01933	154
3.02300	149
3.02667	144
3.03033	143
3.03400	141
3.03767	137
3.04133	132
3.04500	127
3.04867	123
3.05233	118
3.05600	115
3.05967	113
3.06333	111
3.06700	109
3.07067	108
3.07433	107
3.07800	106
3.08167	106
3.08533	105
3.08900	104
3.09267	105
3.09633	104
3.10000	102
3.10367	100
3.10733	100
3.11100	98
3.11467	97
3.11833	99
3.12200	100
3.12567	98
3.12933	97
3.13300	97
3.13667	96
3.14033	96
3.14400	96
3.14767	96
3.15133	97
3.15500	95
3.15867	92
3.16233	90
3.16600	87
3.16967	85
3.17333	84
3.17700	84
3.18067	85
3.18433	84
3.18800	81
3.19167	81
3.19533	83
3.19900	85
3.20267	87
3.20633	91
3.21000	92
3.21367	91
3.21733	89
3.22100	88
3.22467	86
3.22833	85
3.23200	86
3.23567	87
3.23933	89
3.24300	89
3.24667	88
3.25033	88
3.25400	90
3.25767	90
3.26133	87
3.26500	85
3.26867	86
3.27233	88
3.27600	89
3.27967	88
3.28333	86
3.28700	83
3.29067	80
3.29433	77
3.29800	74
3.30167	72
3.30533	72
3.30900	72
3.31267	70
3.31633	68
3.32000	68
3.32367	67
3.32733	67
3.33100	66
3.33467	64
3.33833	61
3.34200	60
3.34567	61
3.34933	61
3.35300	59
3.35667	57
3.36033	55
3.36400	52
3.36767	52
3.37133	50
3.37500	47
3.37867	46
3.38233	42
3.38600	40
3.38967	37
3.39333	36
3.39700	35
3.40067	35
3.40433	35
3.40800	35
3.41167	36
3.41533	34
3.41900	30
3.42267	27
3.42633	26
3.43000	26
3.43367	27
3.43733	27
3.44100	24
3.44467	20
3.44833	17
3.45200	17
3.45567	16
3.45933	14
3.46300	15
3.46667	15
3.47033	14
3.47400	12
3.47767	13
3.48133	13
3.48500	12
3.48867	11
3.49233	8
3.49600	4
3.49967	1
3.50333	1
3.50700	0
3.51067	-1
3.51433	-4
3.51800	-3
3.52167	-0
3.52533	1
3.52900	2
3.53267	1
3.53633	-1
3.54000	-2
3.54367	-4
3.54733	-6
3.55100	-8
3.55467	-12
3.55833	-16
3.56200	-20
3.56567	-22
3.56933	-21
3.57300	-16
3.57667	-16
3.58033	-17
3.58400	-16
3.58767	-16
3.59133	-18
3.59500	-17
3.59867	-17
3.60233	-19
3.60600	-21
3.60967	-22
3.61333	-23
3.61700	-24
3.62067	-25
3.62433	-24
3.62800	-24
3.63167	-24
3.63533	-22
3.63900	-21
3.64267	-20
3.64633	-22
3.65000	-24
3.65367	-24
3.65733	-24
3.66100	-25
3.66467	-28
3.66833	-30
3.67200	-29
3.67567	-30
3.67933	-31
3.68300	-31
3.68667	-29
3.69033	-27
3.69400	-26
3.69767	-26
3.70133	-26
3.70500	-28
3.70867	-29
3.71233	-30
3.71600	-29
3.71967	-29
3.72333	-28
3.72700	-28
3.73067	-29
3.73433	-31
3.73800	-35
3.74167	-36
3.74533	-36
3.74900	-36
3.75267	-37
3.75633	-37
3.76000	-36
3.76367	-37
3.76733	-36
3.77100	-37
3.77467	-38
3.77833	-37
3.78200	-36
3.78567	-36
3.78933	-36
3.79300	-35
3.79667	-35
3.80033	-35
3.80400	-34
3.80767	-33
3.81133	-32
3.81500	-34
3.81867	-40
3.82233	-44
3.82600	-43
3.82967	-40
3.83333	-37
3.83700	-36
3.84067	-37
3.84433	-38
3.84800	-40
3.85167	-40
3.85533	-40
3.85900	-39
3.86267	-41
3.86633	-42
3.87000	-42
3.87367	-40
3.87733	-40
3.88100	-38
3.88467	-34
3.88833	-33
3.89200	-34
3.89567	-35
3.89933	-37
3.90300	-40
3.90667	-41
3.91033	-44
3.91400	-46
3.91767	-49
3.92133	-50
3.92500	-51
3.92867	-52
3.93233	-51
3.93600	-51
3.93967	-52
3.94333	-52
3.94700	-54
3.95067	-52
3.95433	-51
3.95800	-50
3.96167	-48
3.96533	-46
3.96900	-47
3.97267	-46
3.97633	-45
3.98000	-47
3.98367	-49
3.98733	-49
3.99100	-48
3.99467	-51
3.99833	-51

[Status Trace (Column Oven Temperature)]
Interval(msec)	1000
# of Points	240
Start Time(min)	0.014
End Time(min)	3.998
Intensity Units	
Intensity Multiplier	1
R.Time (min)	Intensity
0.01432	35.05
0.03098	35.06
0.04765	35.07
0.06432	35.07
0.08098	35.06
0.09765	35.05
0.11432	35.03
0.13098	35.02
0.14765	35.04
0.16432	35.05
0.18098	35.05
0.19765	35.04
0.21432	35.03
0.23098	35.03
0.24765	35.03
0.26432	35.03
0.28098	35.02
0.29765	35.03
0.31432	35.04
0.33098	35.04
0.34765	35.04
0.36432	35.04
0.38098	35.02
0.39765	35.00
0.41432	34.99
0.43098	34.98
0.44765	34.97
0.46432	34.97
0.48098	34.98
0.49765	34.99
0.51432	35.01
0.53098	35.01
0.54765	35.01
0.56432	35.00
0.58098	34.99
0.59765	34.99
0.61432	34.98
0.63098	34.97
0.64765	34.96
0.66432	34.96
0.68098	34.96
0.69765	34.95
0.71432	34.96
0.73098	34.96
0.74765	34.97
0.76432	34.98
0.78098	34.98
0.79765	34.98
0.81432	34.99
0.83098	34.99
0.84765	34.97
0.86432	34.97
0.88098	34.96
0.89765	34.95
0.91432	34.95
0.93098	34.95
0.94765	34.96
0.96432	34.96
0.98098	34.97
0.99765	34.99
1.01432	35.00
1.03098	35.01
1.04765	35.00
1.06432	35.01
1.08098	35.01
1.09765	35.01
1.11432	35.01
1.13098	35.01
1.14765	35.01
1.16432	35.00
1.18098	34.99
1.19765	34.98
1.21432	34.97
1.23098	34.97
1.24765	34.96
1.26432	34.97
1.28098	34.98
1.29765	35.00
1.31432	35.00
1.33098	35.01
1.34765	35.01
1.36432	35.02
1.38098	35.01
1.39765	35.00
1.41432	34.99
1.43098	34.99
1.44765	34.99
1.46432	34.98
1.48098	34.98
1.49765	35.00
1.51432	35.01
1.53098	35.02
1.54765	35.02
1.56432	35.03
1.58098	35.04
1.59765	35.06
1.61432	35.14
1.63098	35.27
1.64765	35.46
1.66432	35.72
1.68098	36.07
1.69765	36.43
1.71432	36.78
1.73098	37.13
1.74765	37.47
1.76432	37.81
1.78098	38.11
1.79765	38.45
1.81432	38.79
1.83098	39.11
1.84765	39.45
1.86432	39.78
1.88098	40.11
1.89765	40.44
1.91432	40.77
1.93098	41.10
1.94765	41.43
1.96432	41.76
1.98098	42.08
1.99765	42.38
2.01432	42.72
2.03098	43.05
2.04765	43.37
2.06432	43.70
2.08098	44.02
2.09765	44.35
2.11432	44.67
2.13098	44.99
2.14765	45.32
2.16432	45.65
2.18098	45.98
2.19765	46.29
2.21432	46.62
2.23098	46.96
2.24765	47.29
2.26432	47.61
2.28098	47.94
2.29765	48.29
2.31432	48.62
2.33098	48.94
2.34765	49.25
2.36432	49.55
2.38098	49.70
2.39765	49.75
2.41432	49.73
2.43098	49.73
2.44765	49.73
2.46432	49.74
2.48098	49.76
2.49765	49.76
2.51432	49.77
2.53098	49.78
2.54765	49.80
2.56432	49.83
2.58098	49.84
2.59765	49.82
2.61432	49.84
2.63098	49.85
2.64765	49.85
2.66432	49.86
2.68098	49.85
2.69765	49.85
2.71432	49.87
2.73098	49.88
2.74765	49.89
2.76432	49.90
2.78098	49.90
2.79765	49.89
2.81432	49.90
2.83098	49.91
2.84765	49.94
2.86432	49.96
2.88098	49.97
2.89765	49.98
2.91432	49.98
2.93098	50.00
2.94765	50.00
2.96432	50.01
2.98098	50.02
2.99765	50.03
3.01432	50.04
3.03098	50.05
3.04765	50.06
3.06432	50.08
3.08098	50.08
3.09765	50.09
3.11432	50.10
3.13098	50.12
3.14765	50.10
3.16432	50.09
3.18098	50.07
3.19765	50.06
3.21432	50.06
3.23098	50.06
3.24765	50.05
3.26432	50.05
3.28098	50.06
3.29765	50.07
3.31432	50.09
3.33098	50.09
3.34765	50.10
3.36432	50.09
3.38098	50.08
3.39765	50.08
3.41432	50.07
3.43098	50.07
3.44765	50.08
3.46432	50.08
3.48098	50.08
3.49765	50.08
3.51432	50.09
3.53098	50.10
3.54765	50.11
3.56432	50.10
3.58098	50.08
3.59765	50.05
3.61432	50.04
3.63098	50.03
3.64765	50.02
3.66432	50.01
3.68098	50.01
3.69765	50.00
3.71432	50.00
3.73098	50.00
3.74765	50.02
3.76432	50.02
3.78098	50.02
3.79765	50.02
3.81432	50.02
3.83098	50.02
3.84765	50.02
3.86432	50.03
3.88098	50.04
3.89765	50.03
3.91432	50.03
3.93098	50.04
3.94765	50.04
3.96432	50.04
3.98098	50.05
3.99765	50.06

[Status Trace (Injection Unit Temperature)]
Interval(msec)	1000
# of Points	240
Start Time(min)	0.014
End Time(min)	3.998
Intensity Units	
Intensity Multiplier	1
R.Time (min)	Intensity
0.01432	99.99
0.03098	99.99
0.04765	99.99
0.06432	100.00
0.08098	100.00
0.09765	100.00
0.11432	100.00
0.13098	99.99
0.14765	100.00
0.16432	99.99
0.18098	100.00
0.19765	100.00
0.21432	100.00
0.23098	100.00
0.24765	100.00
0.26432	99.99
0.28098	100.00
0.29765	100.00
0.31432	99.99
0.33098	100.00
0.34765	100.00
0.36432	99.99
0.38098	99.99
0.39765	100.00
0.41432	100.00
0.43098	100.00
0.44765	100.00
0.46432	99.99
0.48098	100.00
0.49765	100.00
0.51432	100.00
0.53098	99.99
0.54765	100.00
0.56432	100.00
0.58098	99.99
0.59765	99.99
0.61432	100.00
0.63098	99.99
0.64765	99.99
0.66432	99.99
0.68098	99.99
0.69765	99.99
0.71432	99.99
0.73098	99.99
0.74765	99.99
0.76432	99.99
0.78098	99.99
0.79765	99.99
0.81432	99.99
0.83098	99.99
0.84765	99.99
0.86432	99.99
0.88098	99.99
0.89765	99.99
0.91432	99.99
0.93098	99.99
0.94765	99.99
0.96432	99.99
0.98098	99.99
0.99765	100.00
1.01432	99.99
1.03098	99.99
1.04765	99.99
1.06432	99.99
1.08098	99.99
1.09765	99.99
1.11432	99.99
1.13098	99.99
1.14765	99.99
1.16432	99.99
1.18098	99.99
1.19765	99.99
1.21432	99.99
1.23098	99.99
1.24765	99.99
1.26432	99.99
1.28098	99.98
1.29765	99.99
1.31432	99.99
1.33098	99.99
1.34765	99.99
1.36432	99.99
1.38098	99.98
1.39765	99.99
1.41432	99.99
1.43098	99.99
1.44765	99.99
1.46432	99.99
1.48098	99.99
1.49765	99.99
1.51432	99.99
1.53098	99.98
1.54765	99.99
1.56432	99.99
1.58098	99.99
1.59765	99.99
1.61432	99.99
1.63098	99.99
1.64765	99.99
1.66432	99.99
1.68098	100.00
1.69765	99.99
1.71432	100.00
1.73098	99.99
1.74765	99.99
1.76432	99.99
1.78098	100.00
1.79765	99.99
1.81432	99.99
1.83098	100.00
1.84765	100.00
1.86432	99.99
1.88098	100.00
1.89765	99.99
1.91432	99.99
1.93098	100.00
1.94765	99.99
1.96432	99.99
1.98098	99.99
1.99765	99.99
2.01432	99.99
2.03098	99.99
2.04765	99.99
2.06432	99.98
2.08098	99.99
2.09765	99.99
2.11432	99.99
2.13098	99.98
2.14765	99.98
2.16432	99.99
2.18098	99.98
2.19765	99.99
2.21432	99.98
2.23098	99.98
2.24765	99.98
2.26432	99.98
2.28098	99.98
2.29765	99.98
2.31432	99.98
2.33098	99.98
2.34765	99.98
2.36432	99.97
2.38098	99.98
2.39765	99.98
2.41432	99.98
2.43098	99.98
2.44765	99.97
2.46432	99.98
2.48098	99.98
2.49765	99.98
2.51432	99.98
2.53098	99.98
2.54765	99.98
2.56432	99.98
2.58098	99.98
2.59765	99.98
2.61432	99.98
2.63098	99.98
2.64765	99.98
2.66432	99.98
2.68098	99.99
2.69765	99.99
2.71432	99.99
2.73098	99.99
2.74765	99.99
2.76432	99.99
2.78098	100.00
2.79765	100.00
2.81432	100.00
2.83098	100.00
2.84765	100.00
2.86432	100.00
2.88098	100.00
2.89765	100.01
2.91432	100.01
2.93098	100.01
2.94765	100.01
2.96432	100.01
2.98098	100.02
2.99765	100.02
3.01432	100.01
3.03098	100.02
3.04765	100.02
3.06432	100.02
3.08098	100.02
3.09765	100.02
3.11432	100.02
3.13098	100.03
3.14765	100.02
3.16432	100.02
3.18098	100.03
3.19765	100.03
3.21432	100.03
3.23098	100.03
3.24765	100.03
3.26432	100.03
3.28098	100.04
3.29765	100.03
3.31432	100.04
3.33098	100.03
3.34765	100.03
3.36432	100.04
3.38098	100.04
3.39765	100.04
3.41432	100.04
3.43098	100.03
3.44765	100.04
3.46432	100.04
3.48098	100.04
3.49765	100.04
3.51432	100.04
3.53098	100.04
3.54765	100.04
3.56432	100.04
3.58098	100.05
3.59765	100.05
3.61432	100.05
3.63098	100.04
3.64765	100.05
3.66432	100.05
3.68098	100.05
3.69765	100.05
3.71432	100.05
3.73098	100.05
3.74765	100.05
3.76432	100.05
3.78098	100.05
3.79765	100.05
3.81432	100.05
3.83098	100.05
3.84765	100.05
3.86432	100.05
3.88098	100.05
3.89765	100.05
3.91432	100.05
3.93098	100.05
3.94765	100.05
3.96432	100.05
3.98098	100.05
3.99765	100.05

[Status Trace (Carrier Gas Pressure)]
Interval(msec)	1000
# of Points	240
Start Time(min)	0.014
End Time(min)	3.998
Intensity Units	
Intensity Multiplier	1
R.Time (min)	Intensity
0.01432	57.46
0.03098	55.53
0.04765	57.87
0.06432	59.83
0.08098	58.71
0.09765	57.98
0.11432	58.00
0.13098	58.01
0.14765	58.01
0.16432	58.00
0.18098	58.00
0.19765	58.00
0.21432	58.00
0.23098	58.00
0.24765	58.00
0.26432	58.00
0.28098	58.00
0.29765	58.00
0.31432	58.00
0.33098	58.00
0.34765	58.00
0.36432	58.00
0.38098	58.00
0.39765	58.00
0.41432	58.00
0.43098	58.00
0.44765	58.00
0.46432	58.00
0.48098	58.00
0.49765	58.00
0.51432	58.00
0.53098	58.00
0.54765	58.00
0.56432	58.00
0.58098	58.00
0.59765	58.00
0.61432	58.00
0.63098	58.00
0.64765	58.00
0.66432	58.00
0.68098	58.00
0.69765	58.00
0.71432	58.00
0.73098	58.00
0.74765	58.00
0.76432	58.00
0.78098	58.00
0.79765	58.00
0.81432	58.00
0.83098	58.00
0.84765	58.00
0.86432	58.00
0.88098	58.00
0.89765	58.00
0.91432	58.00
0.93098	58.00
0.94765	58.00
0.96432	58.00
0.98098	58.00
0.99765	58.00
1.01432	58.00
1.03098	58.00
1.04765	58.00
1.06432	58.00
1.08098	58.00
1.09765	58.00
1.11432	58.00
1.13098	58.00
1.14765	58.00
1.16432	58.00
1.18098	58.00
1.19765	58.00
1.21432	58.00
1.23098	58.00
1.24765	58.00
1.26432	58.00
1.28098	58.00
1.29765	58.00
1.31432	58.00
1.33098	58.00
1.34765	58.00
1.36432	58.00
1.38098	58.00
1.39765	58.00
1.41432	58.00
1.43098	58.00
1.44765	58.00
1.46432	58.00
1.48098	58.00
1.49765	58.00
1.51432	58.00
1.53098	58.00
1.54765	58.00
1.56432	58.00
1.58098	58.00
1.59765	58.00
1.61432	58.00
1.63098	58.00
1.64765	58.00
1.66432	58.00
1.68098	58.01
1.69765	58.00
1.71432	58.00
1.73098	58.00
1.74765	58.00
1.76432	58.00
1.78098	58.00
1.79765	58.00
1.81432	58.00
1.83098	58.00
1.84765	58.00
1.86432	58.00
1.88098	58.00
1.89765	58.00
1.91432	58.00
1.93098	58.00
1.94765	58.00
1.96432	58.00
1.98098	58.00
1.99765	58.00
2.01432	58.00
2.03098	58.00
2.04765	58.00
2.06432	58.00
2.08098	58.00
2.09765	58.00
2.11432	58.00
2.13098	58.00
2.14765	58.00
2.16432	58.00
2.18098	58.00
2.19765	58.00
2.21432	58.00
2.23098	58.00
2.24765	58.00
2.26432	58.00
2.28098	58.00
2.29765	58.00
2.31432	58.00
2.33098	58.00
2.34765	58.00
2.36432	58.00
2.38098	57.99
2.39765	57.99
2.41432	57.99
2.43098	58.00
2.44765	58.00
2.46432	58.00
2.48098	58.00
2.49765	58.00
2.51432	57.99
2.53098	57.99
2.54765	58.00
2.56432	58.00
2.58098	58.00
2.59765	58.00
2.61432	58.00
2.63098	58.00
2.64765	58.00
2.66432	58.00
2.68098	58.00
2.69765	58.00
2.71432	58.00
2.73098	58.00
2.74765	58.00
2.76432	58.00
2.78098	58.00
2.79765	58.00
2.81432	58.00
2.83098	58.00
2.84765	58.00
2.86432	58.00
2.88098	58.00
2.89765	58.00
2.91432	58.00
2.93098	58.00
2.94765	58.00
2.96432	58.00
2.98098	58.00
2.99765	58.00
3.01432	58.00
3.03098	58.00
3.04765	58.00
3.06432	58.00
3.08098	58.00
3.09765	58.00
3.11432	58.00
3.13098	58.00
3.14765	58.00
3.16432	58.00
3.18098	58.00
3.19765	58.00
3.21432	58.00
3.23098	58.00
3.24765	58.00
3.26432	58.00
3.28098	58.00
3.29765	58.00
3.31432	58.00
3.33098	58.00
3.34765	58.00
3.36432	58.00
3.38098	58.00
3.39765	58.00
3.41432	58.00
3.43098	58.00
3.44765	58.00
3.46432	58.00
3.48098	58.00
3.49765	58.00
3.51432	58.00
3.53098	58.00
3.54765	58.00
3.56432	58.00
3.58098	58.00
3.59765	58.00
3.61432	58.00
3.63098	58.00
3.64765	58.00
3.66432	58.00
3.68098	58.00
3.69765	58.00
3.71432	58.00
3.73098	58.00
3.74765	58.00
3.76432	58.00
3.78098	58.00
3.79765	58.00
3.81432	58.00
3.83098	58.00
3.84765	58.00
3.86432	58.00
3.88098	58.00
3.89765	58.00
3.91432	58.00
3.93098	58.00
3.94765	58.00
3.96432	58.00
3.98098	58.00
3.99765	58.00

[Status Trace (Carrier Gas Flow)]
Interval(msec)	1000
# of Points	240
Start Time(min)	0.014
End Time(min)	3.998
Intensity Units	
Intensity Multiplier	1
R.Time (min)	Intensity
0.01432	34.12
0.03098	34.53
0.04765	34.56
0.06432	34.54
0.08098	34.50
0.09765	34.52
0.11432	34.52
0.13098	34.52
0.14765	34.52
0.16432	34.52
0.18098	34.52
0.19765	34.52
0.21432	34.52
0.23098	34.52
0.24765	34.52
0.26432	34.52
0.28098	34.52
0.29765	34.52
0.31432	34.52
0.33098	34.52
0.34765	34.52
0.36432	34.52
0.38098	34.52
0.39765	34.52
0.41432	34.52
0.43098	34.52
0.44765	34.52
0.46432	34.51
0.48098	34.51
0.49765	34.52
0.51432	34.52
0.53098	34.52
0.54765	34.52
0.56432	34.52
0.58098	34.51
0.59765	34.52
0.61432	34.52
0.63098	34.52
0.64765	34.52
0.66432	34.52
0.68098	34.51
0.69765	34.53
0.71432	34.52
0.73098	34.52
0.74765	34.52
0.76432	34.52
0.78098	34.52
0.79765	34.51
0.81432	34.52
0.83098	34.52
0.84765	34.52
0.86432	34.52
0.88098	34.52
0.89765	34.52
0.91432	34.52
0.93098	34.52
0.94765	34.52
0.96432	34.52
0.98098	34.52
0.99765	34.51
1.01432	34.52
1.03098	34.51
1.04765	34.52
1.06432	34.52
1.08098	34.52
1.09765	34.52
1.11432	34.52
1.13098	34.52
1.14765	34.52
1.16432	34.52
1.18098	34.52
1.19765	34.52
1.21432	34.52
1.23098	34.52
1.24765	34.52
1.26432	34.52
1.28098	34.52
1.29765	34.52
1.31432	34.52
1.33098	34.52
1.34765	34.52
1.36432	34.51
1.38098	34.52
1.39765	34.52
1.41432	34.52
1.43098	34.52
1.44765	34.52
1.46432	34.52
1.48098	34.52
1.49765	34.52
1.51432	34.52
1.53098	34.52
1.54765	34.52
1.56432	34.52
1.58098	34.52
1.59765	34.52
1.61432	34.52
1.63098	34.52
1.64765	34.52
1.66432	34.51
1.68098	34.52
1.69765	34.52
1.71432	34.52
1.73098	34.52
1.74765	34.52
1.76432	34.52
1.78098	34.52
1.79765	34.52
1.81432	34.52
1.83098	34.52
1.84765	34.52
1.86432	34.52
1.88098	34.51
1.89765	34.52
1.91432	34.52
1.93098	34.52
1.94765	34.52
1.96432	34.52
1.98098	34.52
1.99765	34.52
2.01432	34.52
2.03098	34.52
2.04765	34.52
2.06432	34.52
2.08098	34.52
2.09765	34.52
2.11432	34.52
2.13098	34.52
2.14765	34.52
2.16432	34.52
2.18098	34.52
2.19765	34.52
2.21432	34.52
2.23098	34.52
2.24765	34.52
2.26432	34.52
2.28098	34.52
2.29765	34.52
2.31432	34.52
2.33098	34.52
2.34765	34.52
2.36432	34.52
2.38098	34.52
2.39765	34.53
2.41432	34.52
2.43098	34.52
2.44765	34.50
2.46432	34.52
2.48098	34.52
2.49765	34.52
2.51432	34.52
2.53098	34.52
2.54765	34.52
2.56432	34.52
2.58098	34.52
2.59765	34.52
2.61432	34.52
2.63098	34.52
2.64765	34.52
2.66432	34.52
2.68098	34.52
2.69765	34.52
2.71432	34.52
2.73098	34.52
2.74765	34.52
2.76432	34.51
2.78098	34.52
2.79765	34.53
2.81432	34.51
2.83098	34.52
2.84765	34.52
2.86432	34.52
2.88098	34.53
2.89765	34.52
2.91432	34.51
2.93098	34.52
2.94765	34.53
2.96432	34.50
2.98098	34.51
2.99765	34.52
3.01432	34.51
3.03098	34.52
3.04765	34.52
3.06432	34.52
3.08098	34.52
3.09765	34.52
3.11432	34.52
3.13098	34.52
3.14765	34.52
3.16432	34.51
3.18098	34.52
3.19765	34.52
3.21432	34.52
3.23098	34.52
3.24765	34.52
3.26432	34.52
3.28098	34.52
3.29765	34.52
3.31432	34.52
3.33098	34.52
3.34765	34.52
3.36432	34.52
3.38098	34.52
3.39765	34.52
3.41432	34.52
3.43098	34.52
3.44765	34.52
3.46432	34.52
3.48098	34.52
3.49765	34.52
3.51432	34.52
3.53098	34.52
3.54765	34.52
3.56432	34.52
3.58098	34.52
3.59765	34.52
3.61432	34.52
3.63098	34.52
3.64765	34.52
3.66432	34.52
3.68098	34.52
3.69765	34.52
3.71432	34.52
3.73098	34.52
3.74765	34.52
3.76432	34.52
3.78098	34.52
3.79765	34.51
3.81432	34.52
3.83098	34.52
3.84765	34.52
3.86432	34.52
3.88098	34.51
3.89765	34.51
3.91432	34.52
3.93098	34.52
3.94765	34.54
3.96432	34.52
3.98098	34.52
3.99765	34.54

[Status Trace (Column Flow)]
Interval(msec)	1000
# of Points	240
Start Time(min)	0.014
End Time(min)	3.998
Intensity Units	
Intensity Multiplier	1
R.Time (min)	Intensity
0.01432	5.39
0.03098	5.17
0.04765	5.44
0.06432	5.66
0.08098	5.53
0.09765	5.45
0.11432	5.45
0.13098	5.46
0.14765	5.45
0.16432	5.45
0.18098	5.45
0.19765	5.45
0.21432	5.45
0.23098	5.45
0.24765	5.45
0.26432	5.45
0.28098	5.45
0.29765	5.45
0.31432	5.45
0.33098	5.45
0.34765	5.45
0.36432	5.45
0.38098	5.45
0.39765	5.45
0.41432	5.45
0.43098	5.45
0.44765	5.46
0.46432	5.46
0.48098	5.45
0.49765	5.45
0.51432	5.45
0.53098	5.45
0.54765	5.45
0.56432	5.45
0.58098	5.45
0.59765	5.45
0.61432	5.45
0.63098	5.46
0.64765	5.46
0.66432	5.46
0.68098	5.46
0.69765	5.46
0.71432	5.46
0.73098	5.46
0.74765	5.46
0.76432	5.46
0.78098	5.46
0.79765	5.46
0.81432	5.46
0.83098	5.46
0.84765	5.46
0.86432	5.46
0.88098	5.46
0.89765	5.46
0.91432	5.46
0.93098	5.46
0.94765	5.46
0.96432	5.46
0.98098	5.46
0.99765	5.45
1.01432	5.45
1.03098	5.45
1.04765	5.45
1.06432	5.45
1.08098	5.45
1.09765	5.45
1.11432	5.45
1.13098	5.45
1.14765	5.45
1.16432	5.45
1.18098	5.46
1.19765	5.46
1.21432	5.46
1.23098	5.46
1.24765	5.46
1.26432	5.46
1.28098	5.46
1.29765	5.45
1.31432	5.45
1.33098	5.45
1.34765	5.45
1.36432	5.45
1.38098	5.45
1.39765	5.45
1.41432	5.45
1.43098	5.45
1.44765	5.46
1.46432	5.46
1.48098	5.46
1.49765	5.45
1.51432	5.45
1.53098	5.45
1.54765	5.45
1.56432	5.45
1.58098	5.45
1.59765	5.45
1.61432	5.45
1.63098	5.45
1.64765	5.44
1.66432	5.43
1.68098	5.42
1.69765	5.41
1.71432	5.40
1.73098	5.39
1.74765	5.38
1.76432	5.37
1.78098	5.36
1.79765	5.35
1.81432	5.34
1.83098	5.33
1.84765	5.32
1.86432	5.31
1.88098	5.30
1.89765	5.29
1.91432	5.28
1.93098	5.27
1.94765	5.26
1.96432	5.25
1.98098	5.24
1.99765	5.23
2.01432	5.22
2.03098	5.21
2.04765	5.20
2.06432	5.19
2.08098	5.18
2.09765	5.18
2.11432	5.17
2.13098	5.16
2.14765	5.15
2.16432	5.14
2.18098	5.13
2.19765	5.12
2.21432	5.11
2.23098	5.10
2.24765	5.09
2.26432	5.08
2.28098	5.07
2.29765	5.06
2.31432	5.05
2.33098	5.05
2.34765	5.04
2.36432	5.03
2.38098	5.02
2.39765	5.02
2.41432	5.02
2.43098	5.02
2.44765	5.02
2.46432	5.02
2.48098	5.02
2.49765	5.02
2.51432	5.02
2.53098	5.02
2.54765	5.02
2.56432	5.02
2.58098	5.02
2.59765	5.02
2.61432	5.02
2.63098	5.02
2.64765	5.02
2.66432	5.02
2.68098	5.02
2.69765	5.02
2.71432	5.02
2.73098	5.02
2.74765	5.02
2.76432	5.02
2.78098	5.02
2.79765	5.02
2.81432	5.02
2.83098	5.02
2.84765	5.02
2.86432	5.02
2.88098	5.02
2.89765	5.02
2.91432	5.02
2.93098	5.02
2.94765	5.02
2.96432	5.02
2.98098	5.02
2.99765	5.02
3.01432	5.02
3.03098	5.02
3.04765	5.02
3.06432	5.01
3.08098	5.01
3.09765	5.01
3.11432	5.01
3.13098	5.01
3.14765	5.01
3.16432	5.01
3.18098	5.01
3.19765	5.01
3.21432	5.01
3.23098	5.02
3.24765	5.02
3.26432	5.01
3.28098	5.01
3.29765	5.01
3.31432	5.01
3.33098	5.01
3.34765	5.01
3.36432	5.01
3.38098	5.01
3.39765	5.01
3.41432	5.01
3.43098	5.01
3.44765	5.01
3.46432	5.01
3.48098	5.01
3.49765	5.01
3.51432	5.01
3.53098	5.01
3.54765	5.01
3.56432	5.01
3.58098	5.01
3.59765	5.02
3.61432	5.02
3.63098	5.02
3.64765	5.02
3.66432	5.02
3.68098	5.02
3.69765	5.02
3.71432	5.02
3.73098	5.02
3.74765	5.02
3.76432	5.02
3.78098	5.02
3.79765	5.02
3.81432	5.02
3.83098	5.02
3.84765	5.02
3.86432	5.02
3.88098	5.02
3.89765	5.02
3.91432	5.02
3.93098	5.02
3.94765	5.02
3.96432	5.02
3.98098	5.02
3.99765	5.02

[Status Trace (Linear Velocity)]
Interval(msec)	1000
# of Points	240
Start Time(min)	0.014
End Time(min)	3.998
Intensity Units	
Intensity Multiplier	1
R.Time (min)	Intensity
0.01432	38.64
0.03098	37.38
0.04765	38.91
0.06432	40.19
0.08098	39.46
0.09765	38.99
0.11432	39.00
0.13098	39.01
0.14765	39.00
0.16432	39.00
0.18098	39.00
0.19765	39.00
0.21432	39.00
0.23098	39.00
0.24765	39.00
0.26432	39.00
0.28098	39.00
0.29765	39.00
0.31432	39.00
0.33098	39.00
0.34765	39.00
0.36432	39.00
0.38098	39.00
0.39765	39.00
0.41432	39.00
0.43098	39.00
0.44765	39.00
0.46432	39.00
0.48098	39.00
0.49765	39.00
0.51432	39.00
0.53098	39.00
0.54765	39.00
0.56432	39.00
0.58098	39.00
0.59765	39.00
0.61432	39.00
0.63098	39.00
0.64765	39.00
0.66432	39.00
0.68098	39.00
0.69765	39.01
0.71432	39.00
0.73098	39.00
0.74765	39.00
0.76432	39.00
0.78098	39.00
0.79765	39.00
0.81432	39.00
0.83098	39.00
0.84765	39.00
0.86432	39.00
0.88098	39.00
0.89765	39.01
0.91432	39.00
0.93098	39.01
0.94765	39.01
0.96432	39.00
0.98098	39.00
0.99765	39.00
1.01432	39.00
1.03098	39.00
1.04765	39.00
1.06432	39.00
1.08098	39.00
1.09765	39.00
1.11432	39.00
1.13098	39.00
1.14765	39.00
1.16432	39.00
1.18098	39.00
1.19765	39.00
1.21432	39.00
1.23098	39.00
1.24765	39.00
1.26432	39.00
1.28098	39.00
1.29765	39.00
1.31432	39.00
1.33098	39.00
1.34765	39.00
1.36432	39.00
1.38098	39.00
1.39765	39.00
1.41432	39.00
1.43098	39.00
1.44765	39.00
1.46432	39.00
1.48098	39.00
1.49765	39.00
1.51432	39.00
1.53098	39.00
1.54765	39.00
1.56432	39.00
1.58098	39.00
1.59765	38.99
1.61432	38.99
1.63098	38.98
1.64765	38.96
1.66432	38.93
1.68098	38.90
1.69765	38.87
1.71432	38.83
1.73098	38.80
1.74765	38.76
1.76432	38.73
1.78098	38.70
1.79765	38.67
1.81432	38.64
1.83098	38.61
1.84765	38.58
1.86432	38.55
1.88098	38.52
1.89765	38.48
1.91432	38.45
1.93098	38.42
1.94765	38.39
1.96432	38.36
1.98098	38.33
1.99765	38.30
2.01432	38.27
2.03098	38.24
2.04765	38.21
2.06432	38.18
2.08098	38.15
2.09765	38.13
2.11432	38.10
2.13098	38.07
2.14765	38.04
2.16432	38.01
2.18098	37.98
2.19765	37.95
2.21432	37.92
2.23098	37.89
2.24765	37.86
2.26432	37.83
2.28098	37.80
2.29765	37.77
2.31432	37.74
2.33098	37.71
2.34765	37.68
2.36432	37.66
2.38098	37.64
2.39765	37.63
2.41432	37.64
2.43098	37.64
2.44765	37.64
2.46432	37.64
2.48098	37.64
2.49765	37.64
2.51432	37.63
2.53098	37.63
2.54765	37.64
2.56432	37.63
2.58098	37.63
2.59765	37.63
2.61432	37.63
2.63098	37.63
2.64765	37.63
2.66432	37.63
2.68098	37.63
2.69765	37.63
2.71432	37.63
2.73098	37.63
2.74765	37.63
2.76432	37.63
2.78098	37.63
2.79765	37.63
2.81432	37.63
2.83098	37.62
2.84765	37.62
2.86432	37.62
2.88098	37.62
2.89765	37.62
2.91432	37.62
2.93098	37.62
2.94765	37.62
2.96432	37.62
2.98098	37.62
2.99765	37.61
3.01432	37.61
3.03098	37.61
3.04765	37.61
3.06432	37.61
3.08098	37.61
3.09765	37.61
3.11432	37.61
3.13098	37.61
3.14765	37.61
3.16432	37.61
3.18098	37.61
3.19765	37.61
3.21432	37.61
3.23098	37.61
3.24765	37.61
3.26432	37.61
3.28098	37.61
3.29765	37.61
3.31432	37.61
3.33098	37.61
3.34765	37.61
3.36432	37.61
3.38098	37.61
3.39765	37.61
3.41432	37.61
3.43098	37.61
3.44765	37.61
3.46432	37.61
3.48098	37.61
3.49765	37.61
3.51432	37.61
3.53098	37.61
3.54765	37.61
3.56432	37.61
3.58098	37.61
3.59765	37.61
3.61432	37.61
3.63098	37.62
3.64765	37.62
3.66432	37.62
3.68098	37.62
3.69765	37.62
3.71432	37.62
3.73098	37.62
3.74765	37.62
3.76432	37.62
3.78098	37.62
3.79765	37.62
3.81432	37.62
3.83098	37.62
3.84765	37.62
3.86432	37.62
3.88098	37.61
3.89765	37.61
3.91432	37.61
3.93098	37.61
3.94765	37.61
3.96432	37.61
3.98098	37.61
3.99765	37.61

