[Header]
Application Name	LabSolutions
Version	5.110
Data File Name	C:\Users\User\Desktop\GC Analyses\Jack\UIC Prairie Sampling\8.12.22\220812_010.gcd
Output Date	10/14/2022
Output Time	2:33:50 PM

[File Information]
Type	Data File
Generated	10/6/2022 1:39:06 PM
Generated by	System Administrator
Modified	10/6/2022 1:43:41 PM
Modified by	System Administrator

[Sample Information]
Operator Name	System Administrator
Acquired	10/6/2022 1:39:39 PM
Sample Type	1:Standard
Level	1
Sample Name	220812_UICPrairie
Sample ID	220812_UICPrairie
ISTD Amount1	1
ISTD Amount2	1
ISTD Amount3	1
ISTD Amount4	1
ISTD Amount5	1
ISTD Amount6	1
ISTD Amount7	1
ISTD Amount8	1
ISTD Amount9	1
ISTD Amount10	1
ISTD Amount11	1
ISTD Amount12	1
ISTD Amount13	1
ISTD Amount14	1
ISTD Amount15	1
ISTD Amount16	1
ISTD Amount17	1
ISTD Amount18	1
ISTD Amount19	1
ISTD Amount20	1
ISTD Amount21	1
ISTD Amount22	1
ISTD Amount23	1
ISTD Amount24	1
ISTD Amount25	1
ISTD Amount26	1
ISTD Amount27	1
ISTD Amount28	1
ISTD Amount29	1
ISTD Amount30	1
ISTD Amount31	1
ISTD Amount32	1
Sample Amount	1
Dilution Factor	1
Vial#	1
Injection Volume	1
Injection Count	1
Bar Code	

[Original Files]
Data File	C:\Users\User\Desktop\GC Analyses\Jack\UIC Prairie Sampling\8.12.22\220812_010.gcd
Method File	C:\LabSolutions\Data\GHG_4min_2022\ghg3_togas_w_acet_4 min_new_int.gcm
Batch File	
Report Format File	c:\LabSolutions\System\DEFAULT.lsr

[File Description]


[Configuration]
Instrument Name	C0B7VH3-Instrument1
Instrument #	1
Line #	1
# of Detectors	3
Detector ID	DET#1	DET#2	DET#3
Detector Name	FID	PTCD	ECD
# of Channels	1	1	1

[Peak Table(Ch1)]
# of Peaks	3
Peak#	R.Time	I.Time	F.Time	Area	Height	A/H	Conc.	Mark	ID#	Name	k'	Plate #	Plate Ht.	Tailing	Resolution	Sep.Factor	Area Ratio	Height Ratio	Conc. %	Norm Conc.
1	1.476	1.439	1.538	10925	4775	2.288	100.000	   	1	CO	0.000	8113	18.489	1.271	0.000	0.000	0	0	16.667	16.667
2	1.571	1.538	1.626	4422	2226	1.986	100.000	 V 	2	CH4	0.065	11325	13.245	1.160	1.530	0.000	0	0	16.667	16.667
3	2.000	1.945	2.370	2303567	1122912	2.051	400.000	   	3	CO2	0.355	17867	8.395	1.177	7.216	5.500	0	0	66.667	66.667

[Peak Table(Ch2)]
# of Peaks	0

[Peak Table(Ch3)]
# of Peaks	3
Peak#	R.Time	I.Time	F.Time	Area	Height	A/H	Conc.	Mark	ID#	Name	k'	Plate #	Plate Ht.	Tailing	Resolution	Sep.Factor	Area Ratio	Height Ratio	Conc. %	Norm Conc.
1	2.455	1.102	2.638	28376	655	43.344	0.000	   			0.000	41	3689.372	0.573	0.000	0.000	0	0	0.000	0.000
2	2.752	2.642	2.821	9241	1081	8.546	0.228	   	1	N2O	0.121	373	401.763	0.000	0.282	0.000	0	0	22.829	22.829
3	2.880	2.821	3.236	31240	6022	5.188	0.772	 V 	1	N2O	0.173	10495	14.292	0.000	0.376	1.432	0	0	77.171	77.171

[Compound Results(Ch1)]
# of IDs	6
ID#	Name	R.Time	Area	Height	Conc.	Curve	3rd	2nd	1st	Constant	Area Ratio	Height Ratio	Conc. %	Norm Conc.
1	CO	1.476	10925	4775	100.000	Linear	0.000000e+00	0.000000e+00	1.092521e+002	0.000000e+00	0	0	16.667	16.667
2	CH4	1.571	4422	2226	100.000	Linear	0.000000e+00	0.000000e+00	4.421507e+001	0.000000e+00	0	0	16.667	16.667
3	CO2	2.000	2303567	1122912	400.000	Linear	0.000000e+00	0.000000e+00	5.758918e+003	0.000000e+00	0	0	66.667	66.667
4	Ethylene	0.000	0	0	0.000	Linear	0.000000e+00	0.000000e+00	0.000000e+00	0.000000e+00	0	0	0.000	0.000
5	Acetylene	0.000	0	0	0.000	Linear	0.000000e+00	0.000000e+00	0.000000e+00	0.000000e+00	0	0	0.000	0.000
6	Ethane	0.000	0	0	0.000	Linear	0.000000e+00	0.000000e+00	0.000000e+00	0.000000e+00	0	0	0.000	0.000

[Compound Results(Ch2)]
# of IDs	5
ID#	Name	R.Time	Area	Height	Conc.	Curve	3rd	2nd	1st	Constant	Area Ratio	Height Ratio	Conc. %	Norm Conc.
1	Hydrogen	0.000	0	0	0.000	Linear	0.000000e+00	0.000000e+00	0.000000e+00	0.000000e+00	0	0	0.000	0.000
2	Oxygen	0.000	0	0	0.000	Linear	0.000000e+00	0.000000e+00	0.000000e+00	0.000000e+00	0	0	0.000	0.000
3	Nitrogen	0.000	0	0	0.000	Linear	0.000000e+00	0.000000e+00	0.000000e+00	0.000000e+00	0	0	0.000	0.000
4	Methane	0.000	0	0	0.000	Linear	0.000000e+00	0.000000e+00	0.000000e+00	0.000000e+00	0	0	0.000	0.000
5	Carbon Monoxide	0.000	0	0	0.000	Linear	0.000000e+00	0.000000e+00	0.000000e+00	0.000000e+00	0	0	0.000	0.000

[Compound Results(Ch3)]
# of IDs	2
ID#	Name	R.Time	Area	Height	Conc.	Curve	3rd	2nd	1st	Constant	Area Ratio	Height Ratio	Conc. %	Norm Conc.
1	N2O	2.880	40481	7103	1.000	Linear	0.000000e+00	0.000000e+00	4.048145e+004	0.000000e+00	0	0	100.000	100.000
2	SF6	0.000	0	0	0.000	Linear	0.000000e+00	0.000000e+00	0.000000e+00	0.000000e+00	0	0	0.000	0.000

[Group Results(Ch1)]
# of Groups	0

[Group Results(Ch2)]
# of Groups	0

[Group Results(Ch3)]
# of Groups	0

[Chromatogram (Ch1)]
Interval(msec)	220
# of Points	1091
Start Time(min)	0.002
End Time(min)	3.998
R.Time (min)	Intensity
0.00167	-12
0.00533	-14
0.00900	-13
0.01267	-12
0.01633	-12
0.02000	-8
0.02367	-0
0.02733	8
0.03100	16
0.03467	17
0.03833	11
0.04200	2
0.04567	-8
0.04933	-15
0.05300	-17
0.05667	-19
0.06033	-24
0.06400	-24
0.06767	-18
0.07133	-13
0.07500	-11
0.07867	-11
0.08233	-11
0.08600	-8
0.08967	-5
0.09333	-6
0.09700	-13
0.10067	-20
0.10433	-24
0.10800	-23
0.11167	-20
0.11533	-15
0.11900	-11
0.12267	-10
0.12633	-12
0.13000	-13
0.13367	-12
0.13733	-10
0.14100	-10
0.14467	-15
0.14833	-20
0.15200	-25
0.15567	-29
0.15933	-29
0.16300	-24
0.16667	-22
0.17033	-24
0.17400	-26
0.17767	-24
0.18133	-19
0.18500	-13
0.18867	-10
0.19233	-16
0.19600	-19
0.19967	-22
0.20333	-22
0.20700	-23
0.21067	-27
0.21433	-38
0.21800	-40
0.22167	-39
0.22533	-36
0.22900	-37
0.23267	-37
0.23633	-33
0.24000	-29
0.24367	-23
0.24733	-18
0.25100	-15
0.25467	-13
0.25833	-12
0.26200	-7
0.26567	-5
0.26933	-10
0.27300	-11
0.27667	-7
0.28033	-4
0.28400	-8
0.28767	-16
0.29133	-23
0.29500	-27
0.29867	-32
0.30233	-37
0.30600	-41
0.30967	-49
0.31333	-46
0.31700	-39
0.32067	-35
0.32433	-32
0.32800	-28
0.33167	-23
0.33533	-22
0.33900	-20
0.34267	-24
0.34633	-30
0.35000	-34
0.35367	-36
0.35733	-33
0.36100	-31
0.36467	-32
0.36833	-35
0.37200	-36
0.37567	-38
0.37933	-36
0.38300	-27
0.38667	-20
0.39033	-17
0.39400	-22
0.39767	-28
0.40133	-32
0.40500	-39
0.40867	-37
0.41233	-33
0.41600	-36
0.41967	-41
0.42333	-47
0.42700	-48
0.43067	-44
0.43433	-38
0.43800	-35
0.44167	-36
0.44533	-28
0.44900	-23
0.45267	-11
0.45633	-7
0.46000	-9
0.46367	-13
0.46733	-18
0.47100	-24
0.47467	-25
0.47833	-20
0.48200	-13
0.48567	-6
0.48933	0
0.49300	6
0.49667	2
0.50033	-11
0.50400	-29
0.50767	-47
0.51133	-57
0.51500	-61
0.51867	-67
0.52233	-73
0.52600	-75
0.52967	-75
0.53333	-74
0.53700	-72
0.54067	-67
0.54433	-66
0.54800	-63
0.55167	-61
0.55533	-65
0.55900	-72
0.56267	-83
0.56633	-88
0.57000	-91
0.57367	-88
0.57733	-78
0.58100	-73
0.58467	-72
0.58833	-74
0.59200	-72
0.59567	-70
0.59933	-59
0.60300	-50
0.60667	-47
0.61033	-48
0.61400	-50
0.61767	-54
0.62133	-57
0.62500	-59
0.62867	-55
0.63233	-47
0.63600	-41
0.63967	-34
0.64333	-34
0.64700	-38
0.65067	-39
0.65433	-40
0.65800	-43
0.66167	-47
0.66533	-47
0.66900	-45
0.67267	-43
0.67633	-41
0.68000	-47
0.68367	-52
0.68733	-56
0.69100	-53
0.69467	-52
0.69833	-53
0.70200	-55
0.70567	-56
0.70933	-59
0.71300	-61
0.71667	-62
0.72033	-62
0.72400	-63
0.72767	-65
0.73133	-60
0.73500	-58
0.73867	-64
0.74233	-67
0.74600	-68
0.74967	-70
0.75333	-70
0.75700	-67
0.76067	-62
0.76433	-61
0.76800	-57
0.77167	-52
0.77533	-50
0.77900	-52
0.78267	-57
0.78633	-64
0.79000	-68
0.79367	-69
0.79733	-67
0.80100	-63
0.80467	-63
0.80833	-64
0.81200	-62
0.81567	-60
0.81933	-57
0.82300	-52
0.82667	-48
0.83033	-45
0.83400	-45
0.83767	-47
0.84133	-58
0.84500	-82
0.84867	-89
0.85233	-91
0.85600	-92
0.85967	-89
0.86333	-84
0.86700	-82
0.87067	-76
0.87433	-69
0.87800	-55
0.88167	-47
0.88533	-57
0.88900	-62
0.89267	-63
0.89633	-63
0.90000	-63
0.90367	-60
0.90733	-55
0.91100	-52
0.91467	-65
0.91833	-74
0.92200	-76
0.92567	-72
0.92933	-71
0.93300	-73
0.93667	-72
0.94033	-75
0.94400	-79
0.94767	-83
0.95133	-83
0.95500	-91
0.95867	-93
0.96233	-87
0.96600	-83
0.96967	-75
0.97333	-65
0.97700	-57
0.98067	-60
0.98433	-62
0.98800	-60
0.99167	-58
0.99533	-64
0.99900	-72
1.00267	-82
1.00633	-92
1.01000	-99
1.01367	-99
1.01733	-96
1.02100	-92
1.02467	-85
1.02833	-77
1.03200	-72
1.03567	-69
1.03933	-65
1.04300	-69
1.04667	-73
1.05033	-78
1.05400	-82
1.05767	-84
1.06133	-80
1.06500	-78
1.06867	-78
1.07233	-78
1.07600	-80
1.07967	-86
1.08333	-91
1.08700	-91
1.09067	-87
1.09433	-84
1.09800	-81
1.10167	-83
1.10533	-88
1.10900	-93
1.11267	-98
1.11633	-104
1.12000	-106
1.12367	-103
1.12733	-96
1.13100	-93
1.13467	-91
1.13833	-86
1.14200	-82
1.14567	-81
1.14933	-83
1.15300	-85
1.15667	-87
1.16033	-90
1.16400	-92
1.16767	-88
1.17133	-82
1.17500	-80
1.17867	-90
1.18233	-99
1.18600	-102
1.18967	-102
1.19333	-103
1.19700	-101
1.20067	-93
1.20433	-83
1.20800	-81
1.21167	-85
1.21533	-92
1.21900	-100
1.22267	-106
1.22633	-107
1.23000	-104
1.23367	-102
1.23733	-99
1.24100	-95
1.24467	-93
1.24833	-93
1.25200	-90
1.25567	-85
1.25933	-79
1.26300	-77
1.26667	-82
1.27033	-89
1.27400	-95
1.27767	-103
1.28133	-107
1.28500	-108
1.28867	-105
1.29233	-104
1.29600	-104
1.29967	-104
1.30333	-102
1.30700	-99
1.31067	-96
1.31433	-98
1.31800	-97
1.32167	-91
1.32533	-78
1.32900	-68
1.33267	-66
1.33633	-75
1.34000	-86
1.34367	-99
1.34733	-110
1.35100	-116
1.35467	-120
1.35833	-122
1.36200	-125
1.36567	-128
1.36933	-123
1.37300	-111
1.37667	-101
1.38033	-98
1.38400	-103
1.38767	-109
1.39133	-110
1.39500	-107
1.39867	-103
1.40233	-100
1.40600	-98
1.40967	-94
1.41333	-91
1.41700	-84
1.42067	-80
1.42433	-81
1.42800	-84
1.43167	-88
1.43533	-93
1.43900	-88
1.44267	-27
1.44633	173
1.45000	551
1.45367	1114
1.45733	1860
1.46100	2700
1.46467	3480
1.46833	4091
1.47200	4497
1.47567	4681
1.47933	4618
1.48300	4302
1.48667	3765
1.49033	3102
1.49400	2427
1.49767	1825
1.50133	1332
1.50500	950
1.50867	662
1.51233	450
1.51600	294
1.51967	179
1.52333	97
1.52700	39
1.53067	-3
1.53433	-32
1.53800	-45
1.54167	-23
1.54533	87
1.54900	333
1.55267	708
1.55633	1137
1.56000	1532
1.56367	1842
1.56733	2048
1.57100	2116
1.57467	2021
1.57833	1774
1.58200	1430
1.58567	1063
1.58933	735
1.59300	480
1.59667	292
1.60033	163
1.60400	71
1.60767	5
1.61133	-37
1.61500	-67
1.61867	-94
1.62233	-110
1.62600	-118
1.62967	-122
1.63333	-120
1.63700	-111
1.64067	-101
1.64433	-99
1.64800	-102
1.65167	-111
1.65533	-122
1.65900	-128
1.66267	-130
1.66633	-124
1.67000	-121
1.67367	-116
1.67733	-110
1.68100	-109
1.68467	-111
1.68833	-112
1.69200	-116
1.69567	-124
1.69933	-135
1.70300	-147
1.70667	-155
1.71033	-156
1.71400	-154
1.71767	-145
1.72133	-138
1.72500	-134
1.72867	-132
1.73233	-130
1.73600	-129
1.73967	-131
1.74333	-132
1.74700	-131
1.75067	-130
1.75433	-130
1.75800	-132
1.76167	-132
1.76533	-133
1.76900	-132
1.77267	-134
1.77633	-138
1.78000	-136
1.78367	-128
1.78733	-126
1.79100	-131
1.79467	-135
1.79833	-133
1.80200	-129
1.80567	-127
1.80933	-128
1.81300	-130
1.81667	-134
1.82033	-134
1.82400	-132
1.82767	-123
1.83133	-116
1.83500	-119
1.83867	-125
1.84233	-127
1.84600	-123
1.84967	-121
1.85333	-120
1.85700	-123
1.86067	-124
1.86433	-124
1.86800	-123
1.87167	-122
1.87533	-122
1.87900	-125
1.88267	-127
1.88633	-128
1.89000	-131
1.89367	-133
1.89733	-133
1.90100	-133
1.90467	-132
1.90833	-129
1.91200	-126
1.91567	-121
1.91933	-121
1.92300	-123
1.92667	-126
1.93033	-129
1.93400	-129
1.93767	-131
1.94133	-132
1.94500	-127
1.94867	-115
1.95233	-95
1.95600	-24
1.95967	441
1.96333	2907
1.96700	12836
1.97067	43303
1.97433	115186
1.97800	246315
1.98167	434480
1.98533	652361
1.98900	859834
1.99267	1020949
1.99633	1112093
2.00000	1122813
2.00367	1055739
2.00733	927370
2.01100	764350
2.01467	595149
2.01833	441760
2.02200	315843
2.02567	219800
2.02933	150342
2.03300	101951
2.03667	69079
2.04033	47094
2.04400	32505
2.04767	22840
2.05133	16407
2.05500	12075
2.05867	9117
2.06233	7072
2.06600	5628
2.06967	4572
2.07333	3793
2.07700	3210
2.08067	2771
2.08433	2424
2.08800	2143
2.09167	1914
2.09533	1719
2.09900	1553
2.10267	1417
2.10633	1299
2.11000	1193
2.11367	1096
2.11733	1011
2.12100	939
2.12467	876
2.12833	826
2.13200	784
2.13567	737
2.13933	702
2.14300	670
2.14667	637
2.15033	606
2.15400	575
2.15767	549
2.16133	527
2.16500	504
2.16867	480
2.17233	458
2.17600	437
2.17967	417
2.18333	392
2.18700	369
2.19067	350
2.19433	336
2.19800	330
2.20167	323
2.20533	315
2.20900	310
2.21267	306
2.21633	296
2.22000	285
2.22367	275
2.22733	264
2.23100	254
2.23467	246
2.23833	237
2.24200	227
2.24567	220
2.24933	216
2.25300	213
2.25667	211
2.26033	205
2.26400	194
2.26767	184
2.27133	179
2.27500	180
2.27867	183
2.28233	186
2.28600	185
2.28967	181
2.29333	174
2.29700	166
2.30067	158
2.30433	151
2.30800	147
2.31167	144
2.31533	141
2.31900	137
2.32267	134
2.32633	133
2.33000	137
2.33367	140
2.33733	139
2.34100	137
2.34467	133
2.34833	129
2.35200	125
2.35567	122
2.35933	116
2.36300	106
2.36667	97
2.37033	92
2.37400	89
2.37767	88
2.38133	91
2.38500	96
2.38867	101
2.39233	101
2.39600	98
2.39967	96
2.40333	93
2.40700	94
2.41067	97
2.41433	96
2.41800	94
2.42167	95
2.42533	97
2.42900	100
2.43267	98
2.43633	93
2.44000	91
2.44367	93
2.44733	96
2.45100	92
2.45467	88
2.45833	89
2.46200	92
2.46567	94
2.46933	91
2.47300	86
2.47667	81
2.48033	81
2.48400	84
2.48767	83
2.49133	70
2.49500	60
2.49867	62
2.50233	69
2.50600	70
2.50967	67
2.51333	61
2.51700	57
2.52067	53
2.52433	49
2.52800	41
2.53167	34
2.53533	31
2.53900	31
2.54267	32
2.54633	33
2.55000	37
2.55367	44
2.55733	52
2.56100	54
2.56467	53
2.56833	47
2.57200	41
2.57567	34
2.57933	24
2.58300	20
2.58667	26
2.59033	31
2.59400	33
2.59767	37
2.60133	40
2.60500	44
2.60867	45
2.61233	44
2.61600	42
2.61967	35
2.62333	28
2.62700	25
2.63067	24
2.63433	25
2.63800	27
2.64167	30
2.64533	31
2.64900	34
2.65267	40
2.65633	39
2.66000	34
2.66367	29
2.66733	23
2.67100	14
2.67467	8
2.67833	8
2.68200	5
2.68567	-6
2.68933	-5
2.69300	1
2.69667	5
2.70033	4
2.70400	4
2.70767	7
2.71133	8
2.71500	12
2.71867	15
2.72233	24
2.72600	25
2.72967	19
2.73333	18
2.73700	13
2.74067	8
2.74433	5
2.74800	5
2.75167	7
2.75533	11
2.75900	17
2.76267	22
2.76633	27
2.77000	31
2.77367	32
2.77733	30
2.78100	24
2.78467	15
2.78833	3
2.79200	-0
2.79567	4
2.79933	8
2.80300	11
2.80667	11
2.81033	11
2.81400	10
2.81767	7
2.82133	4
2.82500	3
2.82867	2
2.83233	-1
2.83600	-4
2.83967	-7
2.84333	-6
2.84700	-3
2.85067	-3
2.85433	-3
2.85800	-2
2.86167	-1
2.86533	0
2.86900	0
2.87267	3
2.87633	1
2.88000	1
2.88367	-1
2.88733	-3
2.89100	-1
2.89467	4
2.89833	10
2.90200	13
2.90567	13
2.90933	13
2.91300	14
2.91667	13
2.92033	8
2.92400	5
2.92767	6
2.93133	9
2.93500	11
2.93867	2
2.94233	-7
2.94600	-8
2.94967	-9
2.95333	-8
2.95700	-8
2.96067	-5
2.96433	-2
2.96800	-3
2.97167	-7
2.97533	-15
2.97900	-22
2.98267	-27
2.98633	-28
2.99000	-27
2.99367	-20
2.99733	-11
3.00100	-1
3.00467	2
3.00833	1
3.01200	-3
3.01567	-9
3.01933	-16
3.02300	-19
3.02667	-17
3.03033	-14
3.03400	-10
3.03767	-2
3.04133	3
3.04500	6
3.04867	5
3.05233	1
3.05600	-3
3.05967	-6
3.06333	-9
3.06700	-14
3.07067	-14
3.07433	-4
3.07800	26
3.08167	32
3.08533	28
3.08900	22
3.09267	14
3.09633	7
3.10000	-1
3.10367	-7
3.10733	-10
3.11100	-25
3.11467	-46
3.11833	-48
3.12200	-40
3.12567	-25
3.12933	-22
3.13300	-22
3.13667	-17
3.14033	-11
3.14400	-8
3.14767	-14
3.15133	-20
3.15500	-25
3.15867	-34
3.16233	-41
3.16600	-42
3.16967	-39
3.17333	-33
3.17700	-23
3.18067	-19
3.18433	-18
3.18800	-14
3.19167	-13
3.19533	-14
3.19900	0
3.20267	12
3.20633	17
3.21000	5
3.21367	-1
3.21733	-2
3.22100	-5
3.22467	-14
3.22833	-30
3.23200	-41
3.23567	-43
3.23933	-36
3.24300	-26
3.24667	-21
3.25033	-21
3.25400	-16
3.25767	-8
3.26133	2
3.26500	8
3.26867	7
3.27233	8
3.27600	5
3.27967	-4
3.28333	-10
3.28700	-18
3.29067	-25
3.29433	-28
3.29800	-28
3.30167	-27
3.30533	-28
3.30900	-26
3.31267	-24
3.31633	-21
3.32000	-24
3.32367	-23
3.32733	-27
3.33100	-31
3.33467	-32
3.33833	-31
3.34200	-27
3.34567	-22
3.34933	-21
3.35300	-21
3.35667	-27
3.36033	-32
3.36400	-38
3.36767	-43
3.37133	-44
3.37500	-39
3.37867	-32
3.38233	-26
3.38600	-22
3.38967	-20
3.39333	-23
3.39700	-27
3.40067	-22
3.40433	-24
3.40800	-27
3.41167	-27
3.41533	-29
3.41900	-26
3.42267	-16
3.42633	-8
3.43000	-10
3.43367	-25
3.43733	-34
3.44100	-37
3.44467	-34
3.44833	-35
3.45200	-35
3.45567	-33
3.45933	-28
3.46300	-25
3.46667	-28
3.47033	-32
3.47400	-36
3.47767	-29
3.48133	-35
3.48500	-33
3.48867	-33
3.49233	-37
3.49600	-41
3.49967	-46
3.50333	-52
3.50700	-42
3.51067	-36
3.51433	-37
3.51800	-36
3.52167	-37
3.52533	-39
3.52900	-49
3.53267	-47
3.53633	-40
3.54000	-42
3.54367	-34
3.54733	-29
3.55100	-21
3.55467	-23
3.55833	-28
3.56200	-35
3.56567	-31
3.56933	-33
3.57300	-35
3.57667	-31
3.58033	-23
3.58400	-22
3.58767	-23
3.59133	-24
3.59500	-30
3.59867	-36
3.60233	-44
3.60600	-50
3.60967	-48
3.61333	-42
3.61700	-47
3.62067	-53
3.62433	-53
3.62800	-44
3.63167	-34
3.63533	-26
3.63900	-22
3.64267	-23
3.64633	-35
3.65000	-43
3.65367	-43
3.65733	-43
3.66100	-44
3.66467	-45
3.66833	-49
3.67200	-53
3.67567	-57
3.67933	-53
3.68300	-53
3.68667	-43
3.69033	-33
3.69400	-35
3.69767	-39
3.70133	-41
3.70500	-46
3.70867	-52
3.71233	-56
3.71600	-53
3.71967	-47
3.72333	-38
3.72700	-37
3.73067	-35
3.73433	-32
3.73800	-36
3.74167	-30
3.74533	-28
3.74900	-21
3.75267	-21
3.75633	-24
3.76000	-24
3.76367	-28
3.76733	-32
3.77100	-36
3.77467	-39
3.77833	-42
3.78200	-35
3.78567	-29
3.78933	-30
3.79300	-40
3.79667	-44
3.80033	-40
3.80400	-39
3.80767	-41
3.81133	-43
3.81500	-42
3.81867	-41
3.82233	-38
3.82600	-34
3.82967	-32
3.83333	-29
3.83700	-27
3.84067	-28
3.84433	-32
3.84800	-32
3.85167	-33
3.85533	-34
3.85900	-37
3.86267	-39
3.86633	-45
3.87000	-47
3.87367	-52
3.87733	-52
3.88100	-48
3.88467	-46
3.88833	-45
3.89200	-41
3.89567	-38
3.89933	-33
3.90300	-28
3.90667	-25
3.91033	-31
3.91400	-46
3.91767	-59
3.92133	-68
3.92500	-70
3.92867	-70
3.93233	-70
3.93600	-68
3.93967	-63
3.94333	-61
3.94700	-56
3.95067	-53
3.95433	-50
3.95800	-51
3.96167	-57
3.96533	-61
3.96900	-61
3.97267	-62
3.97633	-60
3.98000	-62
3.98367	-60
3.98733	-55
3.99100	-46
3.99467	-41
3.99833	-37

[Chromatogram (Ch2)]
Interval(msec)	220
# of Points	1091
Start Time(min)	0.002
End Time(min)	3.998
R.Time (min)	Intensity
0.00167	0
0.00533	1
0.00900	1
0.01267	2
0.01633	2
0.02000	3
0.02367	3
0.02733	4
0.03100	4
0.03467	4
0.03833	4
0.04200	5
0.04567	5
0.04933	5
0.05300	5
0.05667	5
0.06033	6
0.06400	6
0.06767	6
0.07133	6
0.07500	6
0.07867	6
0.08233	6
0.08600	6
0.08967	6
0.09333	6
0.09700	6
0.10067	6
0.10433	6
0.10800	6
0.11167	5
0.11533	5
0.11900	5
0.12267	5
0.12633	5
0.13000	5
0.13367	5
0.13733	4
0.14100	4
0.14467	5
0.14833	5
0.15200	5
0.15567	5
0.15933	5
0.16300	5
0.16667	4
0.17033	4
0.17400	4
0.17767	4
0.18133	3
0.18500	3
0.18867	3
0.19233	3
0.19600	3
0.19967	3
0.20333	3
0.20700	3
0.21067	3
0.21433	3
0.21800	3
0.22167	2
0.22533	2
0.22900	3
0.23267	3
0.23633	3
0.24000	3
0.24367	3
0.24733	3
0.25100	2
0.25467	2
0.25833	2
0.26200	2
0.26567	2
0.26933	2
0.27300	2
0.27667	2
0.28033	2
0.28400	2
0.28767	1
0.29133	2
0.29500	1
0.29867	2
0.30233	1
0.30600	1
0.30967	1
0.31333	1
0.31700	1
0.32067	1
0.32433	1
0.32800	2
0.33167	2
0.33533	2
0.33900	2
0.34267	2
0.34633	3
0.35000	2
0.35367	2
0.35733	2
0.36100	2
0.36467	2
0.36833	2
0.37200	2
0.37567	2
0.37933	1
0.38300	1
0.38667	0
0.39033	-0
0.39400	-1
0.39767	-1
0.40133	-2
0.40500	-2
0.40867	-2
0.41233	-2
0.41600	-1
0.41967	-1
0.42333	-1
0.42700	-1
0.43067	-1
0.43433	-1
0.43800	-1
0.44167	-1
0.44533	-1
0.44900	-1
0.45267	-1
0.45633	-1
0.46000	-1
0.46367	-1
0.46733	-1
0.47100	-1
0.47467	-1
0.47833	-0
0.48200	-0
0.48567	0
0.48933	1
0.49300	1
0.49667	1
0.50033	1
0.50400	1
0.50767	1
0.51133	2
0.51500	2
0.51867	2
0.52233	2
0.52600	1
0.52967	1
0.53333	1
0.53700	1
0.54067	1
0.54433	1
0.54800	1
0.55167	1
0.55533	1
0.55900	2
0.56267	2
0.56633	2
0.57000	2
0.57367	3
0.57733	3
0.58100	3
0.58467	3
0.58833	3
0.59200	4
0.59567	4
0.59933	4
0.60300	4
0.60667	4
0.61033	4
0.61400	4
0.61767	3
0.62133	3
0.62500	3
0.62867	3
0.63233	2
0.63600	2
0.63967	1
0.64333	1
0.64700	0
0.65067	-0
0.65433	-1
0.65800	-1
0.66167	-1
0.66533	-1
0.66900	-1
0.67267	-1
0.67633	-0
0.68000	-0
0.68367	0
0.68733	1
0.69100	1
0.69467	1
0.69833	2
0.70200	2
0.70567	2
0.70933	2
0.71300	3
0.71667	3
0.72033	2
0.72400	2
0.72767	2
0.73133	2
0.73500	1
0.73867	1
0.74233	1
0.74600	1
0.74967	1
0.75333	1
0.75700	1
0.76067	2
0.76433	2
0.76800	2
0.77167	2
0.77533	2
0.77900	3
0.78267	3
0.78633	3
0.79000	3
0.79367	3
0.79733	4
0.80100	4
0.80467	4
0.80833	4
0.81200	4
0.81567	4
0.81933	4
0.82300	4
0.82667	5
0.83033	5
0.83400	5
0.83767	5
0.84133	5
0.84500	5
0.84867	4
0.85233	4
0.85600	4
0.85967	4
0.86333	3
0.86700	2
0.87067	2
0.87433	1
0.87800	1
0.88167	0
0.88533	-0
0.88900	-0
0.89267	-0
0.89633	-0
0.90000	-0
0.90367	-0
0.90733	0
0.91100	0
0.91467	0
0.91833	0
0.92200	0
0.92567	0
0.92933	1
0.93300	1
0.93667	0
0.94033	0
0.94400	0
0.94767	0
0.95133	-0
0.95500	-0
0.95867	-0
0.96233	-1
0.96600	-1
0.96967	-1
0.97333	-0
0.97700	-0
0.98067	-0
0.98433	0
0.98800	0
0.99167	0
0.99533	1
0.99900	1
1.00267	2
1.00633	2
1.01000	3
1.01367	3
1.01733	3
1.02100	3
1.02467	3
1.02833	3
1.03200	3
1.03567	3
1.03933	3
1.04300	3
1.04667	3
1.05033	3
1.05400	2
1.05767	2
1.06133	2
1.06500	1
1.06867	1
1.07233	1
1.07600	0
1.07967	0
1.08333	0
1.08700	0
1.09067	0
1.09433	0
1.09800	0
1.10167	-0
1.10533	-0
1.10900	-0
1.11267	-0
1.11633	-0
1.12000	-0
1.12367	-0
1.12733	-0
1.13100	-0
1.13467	-0
1.13833	-0
1.14200	-0
1.14567	-1
1.14933	-1
1.15300	-1
1.15667	-1
1.16033	-1
1.16400	-1
1.16767	-1
1.17133	-0
1.17500	-0
1.17867	-0
1.18233	0
1.18600	0
1.18967	0
1.19333	0
1.19700	0
1.20067	0
1.20433	0
1.20800	0
1.21167	0
1.21533	0
1.21900	0
1.22267	-0
1.22633	-0
1.23000	-0
1.23367	-1
1.23733	-1
1.24100	-1
1.24467	-1
1.24833	-1
1.25200	-0
1.25567	0
1.25933	1
1.26300	1
1.26667	1
1.27033	2
1.27400	3
1.27767	3
1.28133	3
1.28500	3
1.28867	3
1.29233	3
1.29600	2
1.29967	2
1.30333	2
1.30700	2
1.31067	2
1.31433	2
1.31800	2
1.32167	3
1.32533	3
1.32900	3
1.33267	3
1.33633	3
1.34000	3
1.34367	3
1.34733	3
1.35100	3
1.35467	3
1.35833	3
1.36200	3
1.36567	3
1.36933	3
1.37300	3
1.37667	3
1.38033	3
1.38400	2
1.38767	2
1.39133	2
1.39500	2
1.39867	2
1.40233	2
1.40600	1
1.40967	1
1.41333	1
1.41700	1
1.42067	1
1.42433	1
1.42800	1
1.43167	1
1.43533	1
1.43900	0
1.44267	0
1.44633	-0
1.45000	-1
1.45367	-1
1.45733	-1
1.46100	-1
1.46467	-1
1.46833	-1
1.47200	-2
1.47567	-2
1.47933	-2
1.48300	-1
1.48667	-1
1.49033	-1
1.49400	-1
1.49767	-1
1.50133	-1
1.50500	-2
1.50867	-2
1.51233	-2
1.51600	-1
1.51967	-1
1.52333	-1
1.52700	-1
1.53067	-1
1.53433	-1
1.53800	-0
1.54167	-0
1.54533	0
1.54900	0
1.55267	1
1.55633	1
1.56000	1
1.56367	1
1.56733	1
1.57100	1
1.57467	2
1.57833	2
1.58200	2
1.58567	2
1.58933	1
1.59300	1
1.59667	0
1.60033	-0
1.60400	-1
1.60767	-3
1.61133	-4
1.61500	-6
1.61867	-8
1.62233	-10
1.62600	-12
1.62967	-15
1.63333	-18
1.63700	-21
1.64067	-25
1.64433	-28
1.64800	-32
1.65167	-36
1.65533	-40
1.65900	-44
1.66267	-49
1.66633	-54
1.67000	-59
1.67367	-64
1.67733	-70
1.68100	-75
1.68467	-80
1.68833	-85
1.69200	-89
1.69567	-93
1.69933	-96
1.70300	-98
1.70667	-101
1.71033	-103
1.71400	-104
1.71767	-106
1.72133	-107
1.72500	-108
1.72867	-109
1.73233	-110
1.73600	-112
1.73967	-113
1.74333	-114
1.74700	-115
1.75067	-115
1.75433	-115
1.75800	-115
1.76167	-116
1.76533	-116
1.76900	-116
1.77267	-117
1.77633	-117
1.78000	-118
1.78367	-118
1.78733	-118
1.79100	-117
1.79467	-117
1.79833	-117
1.80200	-117
1.80567	-117
1.80933	-118
1.81300	-118
1.81667	-118
1.82033	-118
1.82400	-118
1.82767	-118
1.83133	-118
1.83500	-118
1.83867	-118
1.84233	-119
1.84600	-119
1.84967	-119
1.85333	-119
1.85700	-118
1.86067	-118
1.86433	-117
1.86800	-117
1.87167	-116
1.87533	-116
1.87900	-116
1.88267	-117
1.88633	-117
1.89000	-118
1.89367	-118
1.89733	-118
1.90100	-118
1.90467	-117
1.90833	-117
1.91200	-117
1.91567	-117
1.91933	-117
1.92300	-117
1.92667	-117
1.93033	-117
1.93400	-116
1.93767	-116
1.94133	-116
1.94500	-115
1.94867	-115
1.95233	-115
1.95600	-114
1.95967	-114
1.96333	-114
1.96700	-114
1.97067	-114
1.97433	-114
1.97800	-113
1.98167	-113
1.98533	-112
1.98900	-112
1.99267	-112
1.99633	-111
2.00000	-111
2.00367	-111
2.00733	-112
2.01100	-112
2.01467	-111
2.01833	-111
2.02200	-110
2.02567	-110
2.02933	-109
2.03300	-109
2.03667	-108
2.04033	-108
2.04400	-108
2.04767	-107
2.05133	-107
2.05500	-107
2.05867	-106
2.06233	-106
2.06600	-105
2.06967	-105
2.07333	-104
2.07700	-104
2.08067	-104
2.08433	-104
2.08800	-104
2.09167	-104
2.09533	-103
2.09900	-103
2.10267	-102
2.10633	-102
2.11000	-101
2.11367	-101
2.11733	-101
2.12100	-101
2.12467	-101
2.12833	-101
2.13200	-101
2.13567	-102
2.13933	-102
2.14300	-103
2.14667	-102
2.15033	-102
2.15400	-101
2.15767	-100
2.16133	-99
2.16500	-98
2.16867	-97
2.17233	-97
2.17600	-96
2.17967	-96
2.18333	-95
2.18700	-95
2.19067	-95
2.19433	-96
2.19800	-96
2.20167	-96
2.20533	-97
2.20900	-96
2.21267	-96
2.21633	-96
2.22000	-95
2.22367	-95
2.22733	-95
2.23100	-95
2.23467	-96
2.23833	-96
2.24200	-96
2.24567	-97
2.24933	-97
2.25300	-96
2.25667	-96
2.26033	-95
2.26400	-95
2.26767	-94
2.27133	-94
2.27500	-93
2.27867	-93
2.28233	-92
2.28600	-92
2.28967	-91
2.29333	-91
2.29700	-90
2.30067	-90
2.30433	-90
2.30800	-89
2.31167	-90
2.31533	-90
2.31900	-90
2.32267	-91
2.32633	-91
2.33000	-91
2.33367	-90
2.33733	-90
2.34100	-89
2.34467	-88
2.34833	-87
2.35200	-86
2.35567	-85
2.35933	-84
2.36300	-83
2.36667	-82
2.37033	-80
2.37400	-78
2.37767	-75
2.38133	-72
2.38500	-69
2.38867	-65
2.39233	-60
2.39600	-56
2.39967	-52
2.40333	-47
2.40700	-43
2.41067	-38
2.41433	-34
2.41800	-30
2.42167	-27
2.42533	-24
2.42900	-21
2.43267	-19
2.43633	-16
2.44000	-14
2.44367	-13
2.44733	-11
2.45100	-10
2.45467	-8
2.45833	-7
2.46200	-5
2.46567	-3
2.46933	-2
2.47300	-1
2.47667	1
2.48033	2
2.48400	3
2.48767	4
2.49133	5
2.49500	6
2.49867	7
2.50233	9
2.50600	10
2.50967	10
2.51333	11
2.51700	11
2.52067	11
2.52433	11
2.52800	11
2.53167	12
2.53533	12
2.53900	13
2.54267	13
2.54633	14
2.55000	14
2.55367	13
2.55733	13
2.56100	13
2.56467	13
2.56833	13
2.57200	13
2.57567	13
2.57933	13
2.58300	14
2.58667	14
2.59033	14
2.59400	13
2.59767	13
2.60133	12
2.60500	12
2.60867	12
2.61233	12
2.61600	13
2.61967	13
2.62333	14
2.62700	15
2.63067	16
2.63433	17
2.63800	17
2.64167	18
2.64533	18
2.64900	18
2.65267	18
2.65633	19
2.66000	19
2.66367	19
2.66733	19
2.67100	20
2.67467	20
2.67833	20
2.68200	21
2.68567	21
2.68933	22
2.69300	22
2.69667	22
2.70033	22
2.70400	22
2.70767	22
2.71133	22
2.71500	22
2.71867	22
2.72233	22
2.72600	23
2.72967	23
2.73333	24
2.73700	24
2.74067	24
2.74433	25
2.74800	25
2.75167	25
2.75533	25
2.75900	25
2.76267	26
2.76633	26
2.77000	26
2.77367	27
2.77733	27
2.78100	27
2.78467	27
2.78833	26
2.79200	26
2.79567	25
2.79933	24
2.80300	24
2.80667	23
2.81033	23
2.81400	23
2.81767	23
2.82133	23
2.82500	23
2.82867	23
2.83233	24
2.83600	24
2.83967	24
2.84333	23
2.84700	22
2.85067	19
2.85433	14
2.85800	7
2.86167	-4
2.86533	-18
2.86900	-36
2.87267	-57
2.87633	-83
2.88000	-113
2.88367	-147
2.88733	-184
2.89100	-224
2.89467	-267
2.89833	-312
2.90200	-360
2.90567	-408
2.90933	-458
2.91300	-508
2.91667	-558
2.92033	-608
2.92400	-658
2.92767	-707
2.93133	-756
2.93500	-804
2.93867	-856
2.94233	-914
2.94600	-976
2.94967	-1035
2.95333	-1079
2.95700	-1099
2.96067	-1093
2.96433	-1061
2.96800	-1009
2.97167	-942
2.97533	-866
2.97900	-786
2.98267	-705
2.98633	-627
2.99000	-552
2.99367	-484
2.99733	-421
3.00100	-365
3.00467	-314
3.00833	-270
3.01200	-230
3.01567	-196
3.01933	-166
3.02300	-140
3.02667	-118
3.03033	-99
3.03400	-82
3.03767	-68
3.04133	-56
3.04500	-46
3.04867	-37
3.05233	-30
3.05600	-24
3.05967	-19
3.06333	-14
3.06700	-10
3.07067	-7
3.07433	-4
3.07800	-1
3.08167	1
3.08533	3
3.08900	4
3.09267	5
3.09633	6
3.10000	8
3.10367	9
3.10733	10
3.11100	10
3.11467	11
3.11833	12
3.12200	13
3.12567	13
3.12933	14
3.13300	15
3.13667	15
3.14033	15
3.14400	15
3.14767	16
3.15133	16
3.15500	16
3.15867	17
3.16233	17
3.16600	17
3.16967	17
3.17333	18
3.17700	18
3.18067	18
3.18433	18
3.18800	19
3.19167	19
3.19533	19
3.19900	20
3.20267	20
3.20633	20
3.21000	20
3.21367	21
3.21733	21
3.22100	21
3.22467	22
3.22833	21
3.23200	21
3.23567	22
3.23933	22
3.24300	22
3.24667	22
3.25033	22
3.25400	23
3.25767	23
3.26133	23
3.26500	24
3.26867	24
3.27233	24
3.27600	25
3.27967	25
3.28333	25
3.28700	25
3.29067	25
3.29433	25
3.29800	26
3.30167	26
3.30533	25
3.30900	25
3.31267	25
3.31633	25
3.32000	25
3.32367	25
3.32733	25
3.33100	25
3.33467	25
3.33833	25
3.34200	25
3.34567	25
3.34933	26
3.35300	26
3.35667	26
3.36033	26
3.36400	26
3.36767	26
3.37133	26
3.37500	26
3.37867	26
3.38233	27
3.38600	27
3.38967	27
3.39333	27
3.39700	27
3.40067	27
3.40433	27
3.40800	27
3.41167	27
3.41533	27
3.41900	27
3.42267	27
3.42633	27
3.43000	27
3.43367	26
3.43733	26
3.44100	26
3.44467	26
3.44833	26
3.45200	25
3.45567	25
3.45933	25
3.46300	25
3.46667	25
3.47033	25
3.47400	25
3.47767	25
3.48133	25
3.48500	25
3.48867	25
3.49233	25
3.49600	25
3.49967	25
3.50333	25
3.50700	25
3.51067	25
3.51433	25
3.51800	25
3.52167	25
3.52533	25
3.52900	25
3.53267	26
3.53633	26
3.54000	26
3.54367	27
3.54733	27
3.55100	27
3.55467	27
3.55833	27
3.56200	27
3.56567	27
3.56933	27
3.57300	27
3.57667	28
3.58033	28
3.58400	28
3.58767	28
3.59133	28
3.59500	28
3.59867	28
3.60233	28
3.60600	28
3.60967	29
3.61333	29
3.61700	29
3.62067	29
3.62433	29
3.62800	29
3.63167	29
3.63533	29
3.63900	29
3.64267	29
3.64633	29
3.65000	28
3.65367	28
3.65733	28
3.66100	28
3.66467	28
3.66833	28
3.67200	28
3.67567	28
3.67933	28
3.68300	28
3.68667	28
3.69033	28
3.69400	27
3.69767	27
3.70133	27
3.70500	27
3.70867	27
3.71233	27
3.71600	27
3.71967	27
3.72333	27
3.72700	27
3.73067	26
3.73433	26
3.73800	26
3.74167	26
3.74533	26
3.74900	26
3.75267	26
3.75633	26
3.76000	25
3.76367	25
3.76733	25
3.77100	26
3.77467	26
3.77833	26
3.78200	26
3.78567	26
3.78933	26
3.79300	26
3.79667	25
3.80033	25
3.80400	25
3.80767	25
3.81133	25
3.81500	25
3.81867	25
3.82233	25
3.82600	25
3.82967	25
3.83333	25
3.83700	25
3.84067	25
3.84433	25
3.84800	25
3.85167	25
3.85533	25
3.85900	26
3.86267	26
3.86633	26
3.87000	26
3.87367	26
3.87733	26
3.88100	26
3.88467	26
3.88833	26
3.89200	26
3.89567	26
3.89933	26
3.90300	26
3.90667	26
3.91033	26
3.91400	26
3.91767	26
3.92133	26
3.92500	26
3.92867	26
3.93233	26
3.93600	25
3.93967	25
3.94333	25
3.94700	25
3.95067	26
3.95433	26
3.95800	25
3.96167	25
3.96533	25
3.96900	25
3.97267	25
3.97633	25
3.98000	25
3.98367	25
3.98733	25
3.99100	25
3.99467	25
3.99833	26

[Chromatogram (Ch3)]
Interval(msec)	220
# of Points	1091
Start Time(min)	0.002
End Time(min)	3.998
R.Time (min)	Intensity
0.00167	1
0.00533	3
0.00900	6
0.01267	6
0.01633	9
0.02000	12
0.02367	10
0.02733	7
0.03100	5
0.03467	4
0.03833	5
0.04200	7
0.04567	8
0.04933	8
0.05300	8
0.05667	9
0.06033	10
0.06400	10
0.06767	10
0.07133	11
0.07500	12
0.07867	13
0.08233	13
0.08600	13
0.08967	14
0.09333	15
0.09700	15
0.10067	14
0.10433	14
0.10800	14
0.11167	12
0.11533	9
0.11900	6
0.12267	6
0.12633	6
0.13000	6
0.13367	6
0.13733	7
0.14100	7
0.14467	9
0.14833	11
0.15200	12
0.15567	13
0.15933	15
0.16300	15
0.16667	14
0.17033	12
0.17400	10
0.17767	8
0.18133	10
0.18500	13
0.18867	15
0.19233	15
0.19600	17
0.19967	18
0.20333	16
0.20700	15
0.21067	17
0.21433	18
0.21800	17
0.22167	16
0.22533	16
0.22900	15
0.23267	15
0.23633	16
0.24000	18
0.24367	19
0.24733	19
0.25100	20
0.25467	21
0.25833	20
0.26200	20
0.26567	21
0.26933	23
0.27300	23
0.27667	21
0.28033	21
0.28400	21
0.28767	20
0.29133	17
0.29500	17
0.29867	19
0.30233	20
0.30600	20
0.30967	19
0.31333	20
0.31700	21
0.32067	21
0.32433	21
0.32800	21
0.33167	22
0.33533	23
0.33900	23
0.34267	21
0.34633	21
0.35000	21
0.35367	19
0.35733	18
0.36100	17
0.36467	18
0.36833	20
0.37200	22
0.37567	24
0.37933	24
0.38300	23
0.38667	24
0.39033	24
0.39400	24
0.39767	25
0.40133	26
0.40500	24
0.40867	24
0.41233	26
0.41600	27
0.41967	24
0.42333	20
0.42700	18
0.43067	18
0.43433	19
0.43800	20
0.44167	25
0.44533	28
0.44900	30
0.45267	31
0.45633	30
0.46000	28
0.46367	27
0.46733	26
0.47100	26
0.47467	27
0.47833	28
0.48200	28
0.48567	29
0.48933	30
0.49300	32
0.49667	31
0.50033	30
0.50400	32
0.50767	31
0.51133	29
0.51500	27
0.51867	26
0.52233	28
0.52600	31
0.52967	32
0.53333	32
0.53700	32
0.54067	31
0.54433	31
0.54800	31
0.55167	30
0.55533	27
0.55900	24
0.56267	23
0.56633	26
0.57000	30
0.57367	34
0.57733	36
0.58100	37
0.58467	36
0.58833	37
0.59200	37
0.59567	36
0.59933	35
0.60300	35
0.60667	36
0.61033	38
0.61400	38
0.61767	38
0.62133	38
0.62500	37
0.62867	37
0.63233	37
0.63600	38
0.63967	40
0.64333	42
0.64700	41
0.65067	38
0.65433	35
0.65800	33
0.66167	33
0.66533	36
0.66900	39
0.67267	38
0.67633	37
0.68000	37
0.68367	37
0.68733	38
0.69100	40
0.69467	41
0.69833	40
0.70200	38
0.70567	37
0.70933	38
0.71300	40
0.71667	41
0.72033	39
0.72400	36
0.72767	37
0.73133	36
0.73500	36
0.73867	36
0.74233	36
0.74600	36
0.74967	36
0.75333	34
0.75700	36
0.76067	36
0.76433	35
0.76800	36
0.77167	39
0.77533	40
0.77900	39
0.78267	37
0.78633	38
0.79000	37
0.79367	35
0.79733	36
0.80100	37
0.80467	37
0.80833	38
0.81200	38
0.81567	39
0.81933	39
0.82300	41
0.82667	43
0.83033	45
0.83400	45
0.83767	42
0.84133	41
0.84500	39
0.84867	38
0.85233	39
0.85600	41
0.85967	42
0.86333	40
0.86700	41
0.87067	42
0.87433	40
0.87800	39
0.88167	42
0.88533	43
0.88900	41
0.89267	40
0.89633	40
0.90000	40
0.90367	42
0.90733	44
0.91100	47
0.91467	49
0.91833	48
0.92200	47
0.92567	47
0.92933	46
0.93300	47
0.93667	47
0.94033	48
0.94400	47
0.94767	45
0.95133	45
0.95500	45
0.95867	44
0.96233	44
0.96600	45
0.96967	46
0.97333	45
0.97700	44
0.98067	44
0.98433	45
0.98800	44
0.99167	46
0.99533	48
0.99900	49
1.00267	46
1.00633	45
1.01000	43
1.01367	41
1.01733	39
1.02100	40
1.02467	43
1.02833	46
1.03200	46
1.03567	46
1.03933	44
1.04300	42
1.04667	41
1.05033	42
1.05400	45
1.05767	45
1.06133	46
1.06500	44
1.06867	43
1.07233	42
1.07600	40
1.07967	40
1.08333	43
1.08700	45
1.09067	46
1.09433	46
1.09800	46
1.10167	47
1.10533	46
1.10900	45
1.11267	44
1.11633	44
1.12000	46
1.12367	46
1.12733	47
1.13100	48
1.13467	48
1.13833	48
1.14200	48
1.14567	47
1.14933	47
1.15300	48
1.15667	49
1.16033	49
1.16400	46
1.16767	46
1.17133	47
1.17500	47
1.17867	47
1.18233	47
1.18600	47
1.18967	46
1.19333	45
1.19700	43
1.20067	42
1.20433	42
1.20800	41
1.21167	41
1.21533	42
1.21900	40
1.22267	40
1.22633	43
1.23000	46
1.23367	49
1.23733	47
1.24100	46
1.24467	46
1.24833	47
1.25200	46
1.25567	47
1.25933	48
1.26300	50
1.26667	52
1.27033	53
1.27400	52
1.27767	49
1.28133	47
1.28500	46
1.28867	49
1.29233	49
1.29600	48
1.29967	47
1.30333	47
1.30700	46
1.31067	45
1.31433	47
1.31800	48
1.32167	49
1.32533	47
1.32900	46
1.33267	44
1.33633	42
1.34000	44
1.34367	44
1.34733	41
1.35100	42
1.35467	43
1.35833	43
1.36200	43
1.36567	46
1.36933	47
1.37300	48
1.37667	47
1.38033	46
1.38400	46
1.38767	45
1.39133	43
1.39500	42
1.39867	43
1.40233	47
1.40600	50
1.40967	51
1.41333	50
1.41700	48
1.42067	47
1.42433	48
1.42800	50
1.43167	52
1.43533	51
1.43900	51
1.44267	51
1.44633	52
1.45000	52
1.45367	51
1.45733	50
1.46100	49
1.46467	48
1.46833	48
1.47200	47
1.47567	48
1.47933	50
1.48300	53
1.48667	52
1.49033	51
1.49400	51
1.49767	53
1.50133	55
1.50500	56
1.50867	56
1.51233	55
1.51600	53
1.51967	53
1.52333	55
1.52700	55
1.53067	53
1.53433	53
1.53800	54
1.54167	56
1.54533	56
1.54900	52
1.55267	50
1.55633	51
1.56000	51
1.56367	50
1.56733	49
1.57100	49
1.57467	48
1.57833	49
1.58200	50
1.58567	51
1.58933	51
1.59300	51
1.59667	52
1.60033	51
1.60400	53
1.60767	56
1.61133	59
1.61500	60
1.61867	59
1.62233	57
1.62600	56
1.62967	53
1.63333	51
1.63700	52
1.64067	54
1.64433	55
1.64800	57
1.65167	59
1.65533	60
1.65900	63
1.66267	65
1.66633	66
1.67000	66
1.67367	65
1.67733	64
1.68100	65
1.68467	67
1.68833	70
1.69200	72
1.69567	72
1.69933	69
1.70300	68
1.70667	67
1.71033	67
1.71400	66
1.71767	67
1.72133	70
1.72500	72
1.72867	73
1.73233	75
1.73600	76
1.73967	77
1.74333	77
1.74700	77
1.75067	75
1.75433	75
1.75800	76
1.76167	76
1.76533	75
1.76900	76
1.77267	78
1.77633	80
1.78000	81
1.78367	84
1.78733	84
1.79100	85
1.79467	87
1.79833	88
1.80200	90
1.80567	90
1.80933	91
1.81300	91
1.81667	91
1.82033	93
1.82400	91
1.82767	88
1.83133	85
1.83500	84
1.83867	85
1.84233	86
1.84600	85
1.84967	85
1.85333	87
1.85700	86
1.86067	84
1.86433	83
1.86800	85
1.87167	87
1.87533	88
1.87900	88
1.88267	88
1.88633	89
1.89000	90
1.89367	91
1.89733	91
1.90100	92
1.90467	94
1.90833	94
1.91200	95
1.91567	97
1.91933	98
1.92300	99
1.92667	99
1.93033	99
1.93400	99
1.93767	99
1.94133	98
1.94500	98
1.94867	99
1.95233	98
1.95600	100
1.95967	101
1.96333	104
1.96700	105
1.97067	103
1.97433	104
1.97800	105
1.98167	106
1.98533	106
1.98900	107
1.99267	110
1.99633	112
2.00000	114
2.00367	115
2.00733	116
2.01100	117
2.01467	118
2.01833	120
2.02200	119
2.02567	122
2.02933	123
2.03300	123
2.03667	122
2.04033	122
2.04400	126
2.04767	130
2.05133	132
2.05500	132
2.05867	133
2.06233	135
2.06600	136
2.06967	139
2.07333	141
2.07700	141
2.08067	142
2.08433	144
2.08800	146
2.09167	145
2.09533	146
2.09900	148
2.10267	149
2.10633	147
2.11000	144
2.11367	142
2.11733	142
2.12100	145
2.12467	148
2.12833	152
2.13200	154
2.13567	154
2.13933	155
2.14300	158
2.14667	160
2.15033	161
2.15400	162
2.15767	161
2.16133	160
2.16500	160
2.16867	162
2.17233	163
2.17600	163
2.17967	162
2.18333	162
2.18700	163
2.19067	164
2.19433	166
2.19800	169
2.20167	171
2.20533	171
2.20900	174
2.21267	177
2.21633	179
2.22000	179
2.22367	178
2.22733	178
2.23100	179
2.23467	180
2.23833	180
2.24200	181
2.24567	182
2.24933	182
2.25300	183
2.25667	184
2.26033	185
2.26400	185
2.26767	187
2.27133	188
2.27500	189
2.27867	191
2.28233	192
2.28600	192
2.28967	189
2.29333	188
2.29700	191
2.30067	192
2.30433	193
2.30800	195
2.31167	197
2.31533	198
2.31900	199
2.32267	199
2.32633	200
2.33000	201
2.33367	200
2.33733	199
2.34100	198
2.34467	201
2.34833	204
2.35200	207
2.35567	207
2.35933	207
2.36300	207
2.36667	207
2.37033	209
2.37400	210
2.37767	211
2.38133	213
2.38500	214
2.38867	214
2.39233	215
2.39600	214
2.39967	213
2.40333	212
2.40700	211
2.41067	211
2.41433	212
2.41800	214
2.42167	212
2.42533	212
2.42900	215
2.43267	217
2.43633	219
2.44000	221
2.44367	225
2.44733	232
2.45100	238
2.45467	238
2.45833	231
2.46200	222
2.46567	210
2.46933	198
2.47300	187
2.47667	177
2.48033	170
2.48400	163
2.48767	156
2.49133	148
2.49500	139
2.49867	131
2.50233	124
2.50600	117
2.50967	110
2.51333	102
2.51700	92
2.52067	83
2.52433	74
2.52800	67
2.53167	61
2.53533	56
2.53900	50
2.54267	47
2.54633	43
2.55000	39
2.55367	34
2.55733	27
2.56100	22
2.56467	18
2.56833	15
2.57200	12
2.57567	7
2.57933	4
2.58300	-0
2.58667	-5
2.59033	-11
2.59400	-16
2.59767	-23
2.60133	-34
2.60500	-53
2.60867	-82
2.61233	-117
2.61600	-160
2.61967	-206
2.62333	-251
2.62700	-292
2.63067	-339
2.63433	-415
2.63800	-480
2.64167	-494
2.64533	-460
2.64900	-396
2.65267	-313
2.65633	-222
2.66000	-132
2.66367	-49
2.66733	29
2.67100	103
2.67467	171
2.67833	235
2.68200	297
2.68567	353
2.68933	403
2.69300	447
2.69667	489
2.70033	525
2.70400	560
2.70767	592
2.71133	619
2.71500	645
2.71867	669
2.72233	688
2.72600	702
2.72967	716
2.73333	726
2.73700	736
2.74067	746
2.74433	755
2.74800	761
2.75167	768
2.75533	771
2.75900	771
2.76267	771
2.76633	773
2.77000	773
2.77367	771
2.77733	771
2.78100	770
2.78467	768
2.78833	764
2.79200	763
2.79567	762
2.79933	759
2.80300	758
2.80667	757
2.81033	755
2.81400	751
2.81767	747
2.82133	747
2.82500	752
2.82867	767
2.83233	804
2.83600	882
2.83967	1023
2.84333	1250
2.84700	1579
2.85067	2017
2.85433	2559
2.85800	3175
2.86167	3822
2.86533	4452
2.86900	5015
2.87267	5468
2.87633	5773
2.88000	5919
2.88367	5916
2.88733	5780
2.89100	5543
2.89467	5231
2.89833	4874
2.90200	4499
2.90567	4119
2.90933	3750
2.91300	3400
2.91667	3078
2.92033	2785
2.92400	2520
2.92767	2279
2.93133	2067
2.93500	1879
2.93867	1715
2.94233	1573
2.94600	1450
2.94967	1343
2.95333	1250
2.95700	1169
2.96067	1097
2.96433	1034
2.96800	978
2.97167	930
2.97533	888
2.97900	853
2.98267	822
2.98633	796
2.99000	773
2.99367	754
2.99733	737
3.00100	722
3.00467	709
3.00833	697
3.01200	684
3.01567	670
3.01933	659
3.02300	652
3.02667	647
3.03033	643
3.03400	638
3.03767	633
3.04133	628
3.04500	624
3.04867	621
3.05233	618
3.05600	616
3.05967	615
3.06333	612
3.06700	604
3.07067	597
3.07433	592
3.07800	589
3.08167	586
3.08533	584
3.08900	580
3.09267	577
3.09633	575
3.10000	571
3.10367	568
3.10733	565
3.11100	562
3.11467	559
3.11833	555
3.12200	550
3.12567	547
3.12933	546
3.13300	545
3.13667	543
3.14033	539
3.14400	534
3.14767	529
3.15133	525
3.15500	520
3.15867	517
3.16233	515
3.16600	514
3.16967	513
3.17333	512
3.17700	509
3.18067	508
3.18433	507
3.18800	506
3.19167	505
3.19533	504
3.19900	502
3.20267	499
3.20633	494
3.21000	490
3.21367	487
3.21733	485
3.22100	483
3.22467	481
3.22833	480
3.23200	480
3.23567	481
3.23933	481
3.24300	480
3.24667	479
3.25033	477
3.25400	474
3.25767	472
3.26133	469
3.26500	464
3.26867	460
3.27233	457
3.27600	452
3.27967	450
3.28333	450
3.28700	446
3.29067	444
3.29433	442
3.29800	438
3.30167	433
3.30533	428
3.30900	426
3.31267	425
3.31633	423
3.32000	422
3.32367	421
3.32733	421
3.33100	418
3.33467	414
3.33833	410
3.34200	406
3.34567	400
3.34933	396
3.35300	393
3.35667	390
3.36033	386
3.36400	385
3.36767	387
3.37133	385
3.37500	381
3.37867	377
3.38233	374
3.38600	372
3.38967	369
3.39333	367
3.39700	365
3.40067	363
3.40433	360
3.40800	355
3.41167	350
3.41533	348
3.41900	347
3.42267	345
3.42633	341
3.43000	339
3.43367	337
3.43733	338
3.44100	338
3.44467	335
3.44833	332
3.45200	329
3.45567	325
3.45933	321
3.46300	318
3.46667	317
3.47033	317
3.47400	314
3.47767	313
3.48133	310
3.48500	307
3.48867	304
3.49233	303
3.49600	302
3.49967	301
3.50333	300
3.50700	299
3.51067	299
3.51433	298
3.51800	297
3.52167	296
3.52533	296
3.52900	297
3.53267	295
3.53633	292
3.54000	288
3.54367	285
3.54733	282
3.55100	277
3.55467	272
3.55833	269
3.56200	267
3.56567	265
3.56933	263
3.57300	260
3.57667	260
3.58033	261
3.58400	263
3.58767	263
3.59133	264
3.59500	263
3.59867	260
3.60233	256
3.60600	253
3.60967	251
3.61333	248
3.61700	246
3.62067	243
3.62433	241
3.62800	240
3.63167	237
3.63533	234
3.63900	232
3.64267	232
3.64633	232
3.65000	231
3.65367	231
3.65733	231
3.66100	230
3.66467	229
3.66833	226
3.67200	224
3.67567	223
3.67933	222
3.68300	223
3.68667	224
3.69033	221
3.69400	219
3.69767	217
3.70133	216
3.70500	218
3.70867	217
3.71233	216
3.71600	213
3.71967	210
3.72333	207
3.72700	202
3.73067	199
3.73433	197
3.73800	199
3.74167	201
3.74533	200
3.74900	199
3.75267	199
3.75633	197
3.76000	194
3.76367	190
3.76733	189
3.77100	186
3.77467	183
3.77833	184
3.78200	185
3.78567	184
3.78933	181
3.79300	178
3.79667	176
3.80033	176
3.80400	176
3.80767	177
3.81133	176
3.81500	173
3.81867	173
3.82233	173
3.82600	173
3.82967	170
3.83333	168
3.83700	167
3.84067	163
3.84433	161
3.84800	161
3.85167	162
3.85533	160
3.85900	159
3.86267	157
3.86633	157
3.87000	155
3.87367	153
3.87733	152
3.88100	150
3.88467	148
3.88833	147
3.89200	148
3.89567	149
3.89933	149
3.90300	149
3.90667	148
3.91033	147
3.91400	147
3.91767	148
3.92133	151
3.92500	153
3.92867	151
3.93233	148
3.93600	146
3.93967	144
3.94333	141
3.94700	137
3.95067	136
3.95433	136
3.95800	135
3.96167	132
3.96533	132
3.96900	132
3.97267	130
3.97633	127
3.98000	125
3.98367	123
3.98733	120
3.99100	118
3.99467	117
3.99833	117

[Status Trace (Column Oven Temperature)]
Interval(msec)	1000
# of Points	240
Start Time(min)	0.007
End Time(min)	3.990
Intensity Units	
Intensity Multiplier	1
R.Time (min)	Intensity
0.00703	35.03
0.02370	35.01
0.04037	35.00
0.05703	34.99
0.07370	34.98
0.09037	34.97
0.10703	34.96
0.12370	34.97
0.14037	34.96
0.15703	34.96
0.17370	34.97
0.19037	34.98
0.20703	34.98
0.22370	34.98
0.24037	34.98
0.25703	34.98
0.27370	34.98
0.29037	34.99
0.30703	34.99
0.32370	34.98
0.34037	34.97
0.35703	34.98
0.37370	34.98
0.39037	35.00
0.40703	35.00
0.42370	35.01
0.44037	35.02
0.45703	35.03
0.47370	35.04
0.49037	35.03
0.50703	35.03
0.52370	35.03
0.54037	35.02
0.55703	35.02
0.57370	35.01
0.59037	35.00
0.60703	35.00
0.62370	35.00
0.64037	35.01
0.65703	35.03
0.67370	35.02
0.69037	35.02
0.70703	35.01
0.72370	35.01
0.74037	35.01
0.75703	35.00
0.77370	34.99
0.79037	34.99
0.80703	35.00
0.82370	34.99
0.84037	34.97
0.85703	34.97
0.87370	34.98
0.89037	34.99
0.90703	34.99
0.92370	34.99
0.94037	34.99
0.95703	35.00
0.97370	35.00
0.99037	35.00
1.00703	34.99
1.02370	34.98
1.04037	34.98
1.05703	34.99
1.07370	34.99
1.09037	34.99
1.10703	34.99
1.12370	35.00
1.14037	35.00
1.15703	35.01
1.17370	35.00
1.19037	35.00
1.20703	35.00
1.22370	35.01
1.24037	35.01
1.25703	34.99
1.27370	34.99
1.29037	34.99
1.30703	34.97
1.32370	34.97
1.34037	34.97
1.35703	34.97
1.37370	34.97
1.39037	34.97
1.40703	34.97
1.42370	34.97
1.44037	34.98
1.45703	34.99
1.47370	34.99
1.49037	34.99
1.50703	35.00
1.52370	34.99
1.54037	34.99
1.55703	34.99
1.57370	34.99
1.59037	34.98
1.60703	35.04
1.62370	35.15
1.64037	35.32
1.65703	35.56
1.67370	35.92
1.69037	36.29
1.70703	36.64
1.72370	36.98
1.74037	37.33
1.75703	37.65
1.77370	38.00
1.79037	38.31
1.80703	38.64
1.82370	38.97
1.84037	39.30
1.85703	39.62
1.87370	39.95
1.89037	40.29
1.90703	40.62
1.92370	40.94
1.94037	41.26
1.95703	41.59
1.97370	41.92
1.99037	42.23
2.00703	42.57
2.02370	42.88
2.04037	43.22
2.05703	43.53
2.07370	43.85
2.09037	44.18
2.10703	44.49
2.12370	44.82
2.14037	45.15
2.15703	45.47
2.17370	45.79
2.19037	46.13
2.20703	46.46
2.22370	46.80
2.24037	47.16
2.25703	47.48
2.27370	47.80
2.29037	48.14
2.30703	48.46
2.32370	48.83
2.34037	49.15
2.35703	49.44
2.37370	49.60
2.39037	49.64
2.40703	49.64
2.42370	49.66
2.44037	49.67
2.45703	49.67
2.47370	49.69
2.49037	49.70
2.50703	49.71
2.52370	49.73
2.54037	49.74
2.55703	49.78
2.57370	49.79
2.59037	49.80
2.60703	49.83
2.62370	49.84
2.64037	49.84
2.65703	49.86
2.67370	49.85
2.69037	49.85
2.70703	49.88
2.72370	49.87
2.74037	49.86
2.75703	49.86
2.77370	49.84
2.79037	49.87
2.80703	49.89
2.82370	49.90
2.84037	49.91
2.85703	49.91
2.87370	49.91
2.89037	49.92
2.90703	49.92
2.92370	49.94
2.94037	49.95
2.95703	49.96
2.97370	49.98
2.99037	49.99
3.00703	49.99
3.02370	50.00
3.04037	50.01
3.05703	50.02
3.07370	50.03
3.09037	50.04
3.10703	50.05
3.12370	50.06
3.14037	50.07
3.15703	50.08
3.17370	50.09
3.19037	50.09
3.20703	50.09
3.22370	50.10
3.24037	50.10
3.25703	50.09
3.27370	50.09
3.29037	50.08
3.30703	50.09
3.32370	50.09
3.34037	50.09
3.35703	50.09
3.37370	50.08
3.39037	50.08
3.40703	50.08
3.42370	50.08
3.44037	50.08
3.45703	50.09
3.47370	50.09
3.49037	50.11
3.50703	50.11
3.52370	50.11
3.54037	50.10
3.55703	50.09
3.57370	50.07
3.59037	50.06
3.60703	50.06
3.62370	50.03
3.64037	50.03
3.65703	50.01
3.67370	50.00
3.69037	50.00
3.70703	50.00
3.72370	49.99
3.74037	50.01
3.75703	50.01
3.77370	50.00
3.79037	50.01
3.80703	50.02
3.82370	50.03
3.84037	50.03
3.85703	50.02
3.87370	50.02
3.89037	50.02
3.90703	50.01
3.92370	50.02
3.94037	50.02
3.95703	50.03
3.97370	50.03
3.99037	50.03

[Status Trace (Injection Unit Temperature)]
Interval(msec)	1000
# of Points	240
Start Time(min)	0.007
End Time(min)	3.990
Intensity Units	
Intensity Multiplier	1
R.Time (min)	Intensity
0.00703	99.98
0.02370	99.98
0.04037	99.98
0.05703	99.98
0.07370	99.98
0.09037	99.98
0.10703	99.98
0.12370	99.98
0.14037	99.98
0.15703	99.98
0.17370	99.98
0.19037	99.98
0.20703	99.98
0.22370	99.98
0.24037	99.98
0.25703	99.99
0.27370	99.98
0.29037	99.98
0.30703	99.98
0.32370	99.98
0.34037	99.98
0.35703	99.98
0.37370	99.98
0.39037	99.98
0.40703	99.98
0.42370	99.99
0.44037	99.98
0.45703	99.98
0.47370	99.98
0.49037	99.98
0.50703	99.98
0.52370	99.98
0.54037	99.98
0.55703	99.98
0.57370	99.98
0.59037	99.98
0.60703	99.98
0.62370	99.98
0.64037	99.98
0.65703	99.98
0.67370	99.97
0.69037	99.98
0.70703	99.98
0.72370	99.98
0.74037	99.98
0.75703	99.98
0.77370	99.98
0.79037	99.98
0.80703	99.98
0.82370	99.98
0.84037	99.98
0.85703	99.98
0.87370	99.98
0.89037	99.98
0.90703	99.98
0.92370	99.98
0.94037	99.98
0.95703	99.98
0.97370	99.98
0.99037	99.98
1.00703	99.98
1.02370	99.98
1.04037	99.98
1.05703	99.98
1.07370	99.98
1.09037	99.98
1.10703	99.98
1.12370	99.98
1.14037	99.98
1.15703	99.98
1.17370	99.98
1.19037	99.98
1.20703	99.98
1.22370	99.98
1.24037	99.98
1.25703	99.98
1.27370	99.98
1.29037	99.98
1.30703	99.98
1.32370	99.98
1.34037	99.98
1.35703	99.98
1.37370	99.98
1.39037	99.98
1.40703	99.98
1.42370	99.98
1.44037	99.98
1.45703	99.98
1.47370	99.98
1.49037	99.98
1.50703	99.99
1.52370	99.99
1.54037	99.99
1.55703	99.99
1.57370	99.98
1.59037	99.99
1.60703	99.99
1.62370	99.98
1.64037	99.99
1.65703	99.98
1.67370	99.99
1.69037	99.99
1.70703	99.99
1.72370	99.99
1.74037	99.99
1.75703	99.99
1.77370	99.99
1.79037	99.99
1.80703	99.99
1.82370	99.99
1.84037	99.99
1.85703	99.99
1.87370	99.99
1.89037	99.99
1.90703	99.98
1.92370	99.98
1.94037	99.98
1.95703	99.98
1.97370	99.98
1.99037	99.99
2.00703	99.98
2.02370	99.98
2.04037	99.98
2.05703	99.98
2.07370	99.98
2.09037	99.98
2.10703	99.98
2.12370	99.97
2.14037	99.97
2.15703	99.97
2.17370	99.97
2.19037	99.97
2.20703	99.97
2.22370	99.97
2.24037	99.97
2.25703	99.97
2.27370	99.97
2.29037	99.97
2.30703	99.97
2.32370	99.97
2.34037	99.97
2.35703	99.96
2.37370	99.97
2.39037	99.97
2.40703	99.97
2.42370	99.96
2.44037	99.97
2.45703	99.97
2.47370	99.96
2.49037	99.96
2.50703	99.97
2.52370	99.97
2.54037	99.97
2.55703	99.97
2.57370	99.97
2.59037	99.97
2.60703	99.97
2.62370	99.97
2.64037	99.97
2.65703	99.97
2.67370	99.97
2.69037	99.98
2.70703	99.98
2.72370	99.98
2.74037	99.98
2.75703	99.98
2.77370	99.99
2.79037	99.98
2.80703	99.99
2.82370	99.99
2.84037	99.99
2.85703	99.99
2.87370	99.99
2.89037	100.00
2.90703	100.00
2.92370	100.00
2.94037	100.00
2.95703	100.00
2.97370	100.00
2.99037	100.01
3.00703	100.01
3.02370	100.01
3.04037	100.02
3.05703	100.01
3.07370	100.02
3.09037	100.02
3.10703	100.02
3.12370	100.02
3.14037	100.02
3.15703	100.02
3.17370	100.02
3.19037	100.02
3.20703	100.03
3.22370	100.03
3.24037	100.03
3.25703	100.03
3.27370	100.03
3.29037	100.03
3.30703	100.03
3.32370	100.04
3.34037	100.04
3.35703	100.03
3.37370	100.04
3.39037	100.04
3.40703	100.04
3.42370	100.04
3.44037	100.04
3.45703	100.04
3.47370	100.04
3.49037	100.04
3.50703	100.05
3.52370	100.04
3.54037	100.05
3.55703	100.04
3.57370	100.04
3.59037	100.05
3.60703	100.05
3.62370	100.05
3.64037	100.05
3.65703	100.05
3.67370	100.05
3.69037	100.05
3.70703	100.06
3.72370	100.05
3.74037	100.05
3.75703	100.05
3.77370	100.05
3.79037	100.06
3.80703	100.05
3.82370	100.06
3.84037	100.05
3.85703	100.05
3.87370	100.05
3.89037	100.05
3.90703	100.06
3.92370	100.05
3.94037	100.05
3.95703	100.05
3.97370	100.05
3.99037	100.05

[Status Trace (Carrier Gas Pressure)]
Interval(msec)	1000
# of Points	240
Start Time(min)	0.007
End Time(min)	3.990
Intensity Units	
Intensity Multiplier	1
R.Time (min)	Intensity
0.00703	58.00
0.02370	55.53
0.04037	56.95
0.05703	59.01
0.07370	59.64
0.09037	58.11
0.10703	57.97
0.12370	58.01
0.14037	58.01
0.15703	58.01
0.17370	58.00
0.19037	58.00
0.20703	58.00
0.22370	58.00
0.24037	58.00
0.25703	58.00
0.27370	58.00
0.29037	58.00
0.30703	58.00
0.32370	58.00
0.34037	58.00
0.35703	58.00
0.37370	58.00
0.39037	58.00
0.40703	58.00
0.42370	58.00
0.44037	58.00
0.45703	58.00
0.47370	58.00
0.49037	58.00
0.50703	58.00
0.52370	58.00
0.54037	58.00
0.55703	58.00
0.57370	58.00
0.59037	58.00
0.60703	58.00
0.62370	58.00
0.64037	58.00
0.65703	58.00
0.67370	58.00
0.69037	58.00
0.70703	58.00
0.72370	58.00
0.74037	58.00
0.75703	58.00
0.77370	58.00
0.79037	58.00
0.80703	58.00
0.82370	58.00
0.84037	58.00
0.85703	58.00
0.87370	58.00
0.89037	58.00
0.90703	58.00
0.92370	58.00
0.94037	58.00
0.95703	58.00
0.97370	58.00
0.99037	58.00
1.00703	58.00
1.02370	58.00
1.04037	58.00
1.05703	58.00
1.07370	58.00
1.09037	58.00
1.10703	58.00
1.12370	58.00
1.14037	58.00
1.15703	58.00
1.17370	58.00
1.19037	58.00
1.20703	58.00
1.22370	58.00
1.24037	58.00
1.25703	58.00
1.27370	58.00
1.29037	58.00
1.30703	58.00
1.32370	58.00
1.34037	58.00
1.35703	58.00
1.37370	58.00
1.39037	58.00
1.40703	58.00
1.42370	58.00
1.44037	58.00
1.45703	58.00
1.47370	58.00
1.49037	58.00
1.50703	58.00
1.52370	58.00
1.54037	58.00
1.55703	58.00
1.57370	58.00
1.59037	58.00
1.60703	58.00
1.62370	58.00
1.64037	58.00
1.65703	58.01
1.67370	58.01
1.69037	58.00
1.70703	58.00
1.72370	58.00
1.74037	58.00
1.75703	58.00
1.77370	58.00
1.79037	58.00
1.80703	58.00
1.82370	58.00
1.84037	58.00
1.85703	58.00
1.87370	58.00
1.89037	58.00
1.90703	58.00
1.92370	58.00
1.94037	58.00
1.95703	58.00
1.97370	58.00
1.99037	58.00
2.00703	58.00
2.02370	58.00
2.04037	58.00
2.05703	58.00
2.07370	58.00
2.09037	58.00
2.10703	58.00
2.12370	58.00
2.14037	58.00
2.15703	58.00
2.17370	58.00
2.19037	58.00
2.20703	58.00
2.22370	58.00
2.24037	58.00
2.25703	58.00
2.27370	58.00
2.29037	58.00
2.30703	58.00
2.32370	58.00
2.34037	58.00
2.35703	58.00
2.37370	58.00
2.39037	57.99
2.40703	57.99
2.42370	58.00
2.44037	58.00
2.45703	58.00
2.47370	58.00
2.49037	58.00
2.50703	57.99
2.52370	57.99
2.54037	58.00
2.55703	58.00
2.57370	58.00
2.59037	58.00
2.60703	58.00
2.62370	58.00
2.64037	58.00
2.65703	58.00
2.67370	58.00
2.69037	58.00
2.70703	58.00
2.72370	58.00
2.74037	58.00
2.75703	58.00
2.77370	58.00
2.79037	58.00
2.80703	58.00
2.82370	58.00
2.84037	58.00
2.85703	58.00
2.87370	58.00
2.89037	58.00
2.90703	58.00
2.92370	58.00
2.94037	58.00
2.95703	58.00
2.97370	58.00
2.99037	58.00
3.00703	58.00
3.02370	58.00
3.04037	58.00
3.05703	58.00
3.07370	58.00
3.09037	58.00
3.10703	58.00
3.12370	58.00
3.14037	58.00
3.15703	58.00
3.17370	58.00
3.19037	58.00
3.20703	58.00
3.22370	58.00
3.24037	58.00
3.25703	58.00
3.27370	58.00
3.29037	58.00
3.30703	58.00
3.32370	58.00
3.34037	58.00
3.35703	58.00
3.37370	58.00
3.39037	58.00
3.40703	58.00
3.42370	58.00
3.44037	58.00
3.45703	58.00
3.47370	58.00
3.49037	58.00
3.50703	58.00
3.52370	58.00
3.54037	58.00
3.55703	58.00
3.57370	58.00
3.59037	58.00
3.60703	58.00
3.62370	58.00
3.64037	58.00
3.65703	58.00
3.67370	58.00
3.69037	58.00
3.70703	58.00
3.72370	58.00
3.74037	58.00
3.75703	58.00
3.77370	58.00
3.79037	58.00
3.80703	58.00
3.82370	58.00
3.84037	58.00
3.85703	58.00
3.87370	58.00
3.89037	58.00
3.90703	58.00
3.92370	58.00
3.94037	58.00
3.95703	58.00
3.97370	58.00
3.99037	58.00

[Status Trace (Carrier Gas Flow)]
Interval(msec)	1000
# of Points	240
Start Time(min)	0.007
End Time(min)	3.990
Intensity Units	
Intensity Multiplier	1
R.Time (min)	Intensity
0.00703	34.52
0.02370	34.54
0.04037	34.54
0.05703	34.55
0.07370	34.49
0.09037	34.52
0.10703	34.52
0.12370	34.52
0.14037	34.52
0.15703	34.52
0.17370	34.52
0.19037	34.52
0.20703	34.52
0.22370	34.52
0.24037	34.52
0.25703	34.52
0.27370	34.52
0.29037	34.52
0.30703	34.52
0.32370	34.52
0.34037	34.52
0.35703	34.52
0.37370	34.52
0.39037	34.52
0.40703	34.52
0.42370	34.52
0.44037	34.52
0.45703	34.52
0.47370	34.52
0.49037	34.52
0.50703	34.52
0.52370	34.52
0.54037	34.52
0.55703	34.52
0.57370	34.52
0.59037	34.52
0.60703	34.52
0.62370	34.52
0.64037	34.52
0.65703	34.52
0.67370	34.52
0.69037	34.52
0.70703	34.52
0.72370	34.52
0.74037	34.52
0.75703	34.52
0.77370	34.52
0.79037	34.52
0.80703	34.52
0.82370	34.52
0.84037	34.52
0.85703	34.52
0.87370	34.52
0.89037	34.52
0.90703	34.52
0.92370	34.52
0.94037	34.52
0.95703	34.52
0.97370	34.52
0.99037	34.52
1.00703	34.52
1.02370	34.52
1.04037	34.52
1.05703	34.52
1.07370	34.52
1.09037	34.52
1.10703	34.52
1.12370	34.52
1.14037	34.52
1.15703	34.52
1.17370	34.52
1.19037	34.52
1.20703	34.52
1.22370	34.52
1.24037	34.52
1.25703	34.52
1.27370	34.52
1.29037	34.52
1.30703	34.52
1.32370	34.52
1.34037	34.52
1.35703	34.52
1.37370	34.52
1.39037	34.52
1.40703	34.52
1.42370	34.52
1.44037	34.52
1.45703	34.52
1.47370	34.52
1.49037	34.52
1.50703	34.52
1.52370	34.52
1.54037	34.52
1.55703	34.52
1.57370	34.52
1.59037	34.52
1.60703	34.51
1.62370	34.52
1.64037	34.52
1.65703	34.52
1.67370	34.52
1.69037	34.52
1.70703	34.52
1.72370	34.52
1.74037	34.52
1.75703	34.52
1.77370	34.52
1.79037	34.52
1.80703	34.52
1.82370	34.52
1.84037	34.52
1.85703	34.52
1.87370	34.52
1.89037	34.52
1.90703	34.52
1.92370	34.52
1.94037	34.52
1.95703	34.52
1.97370	34.52
1.99037	34.52
2.00703	34.52
2.02370	34.52
2.04037	34.52
2.05703	34.52
2.07370	34.51
2.09037	34.52
2.10703	34.52
2.12370	34.52
2.14037	34.52
2.15703	34.52
2.17370	34.52
2.19037	34.52
2.20703	34.52
2.22370	34.52
2.24037	34.52
2.25703	34.52
2.27370	34.52
2.29037	34.52
2.30703	34.52
2.32370	34.52
2.34037	34.52
2.35703	34.52
2.37370	34.52
2.39037	34.52
2.40703	34.52
2.42370	34.52
2.44037	34.52
2.45703	34.52
2.47370	34.52
2.49037	34.52
2.50703	34.43
2.52370	34.52
2.54037	34.52
2.55703	34.52
2.57370	34.52
2.59037	34.52
2.60703	34.52
2.62370	34.52
2.64037	34.52
2.65703	34.52
2.67370	34.52
2.69037	34.52
2.70703	34.52
2.72370	34.52
2.74037	34.52
2.75703	34.52
2.77370	34.52
2.79037	34.52
2.80703	34.52
2.82370	34.52
2.84037	34.52
2.85703	34.52
2.87370	34.52
2.89037	34.52
2.90703	34.52
2.92370	34.52
2.94037	34.52
2.95703	34.52
2.97370	34.52
2.99037	34.52
3.00703	34.52
3.02370	34.52
3.04037	34.52
3.05703	34.52
3.07370	34.52
3.09037	34.52
3.10703	34.52
3.12370	34.52
3.14037	34.52
3.15703	34.52
3.17370	34.52
3.19037	34.52
3.20703	34.52
3.22370	34.52
3.24037	34.52
3.25703	34.52
3.27370	34.52
3.29037	34.52
3.30703	34.52
3.32370	34.52
3.34037	34.52
3.35703	34.52
3.37370	34.51
3.39037	34.52
3.40703	34.52
3.42370	34.52
3.44037	34.52
3.45703	34.52
3.47370	34.52
3.49037	34.51
3.50703	34.52
3.52370	34.52
3.54037	34.52
3.55703	34.52
3.57370	34.52
3.59037	34.52
3.60703	34.52
3.62370	34.52
3.64037	34.52
3.65703	34.52
3.67370	34.52
3.69037	34.52
3.70703	34.52
3.72370	34.52
3.74037	34.52
3.75703	34.52
3.77370	34.52
3.79037	34.52
3.80703	34.52
3.82370	34.52
3.84037	34.52
3.85703	34.52
3.87370	34.52
3.89037	34.52
3.90703	34.52
3.92370	34.52
3.94037	34.52
3.95703	34.52
3.97370	34.52
3.99037	34.52

[Status Trace (Column Flow)]
Interval(msec)	1000
# of Points	240
Start Time(min)	0.007
End Time(min)	3.990
Intensity Units	
Intensity Multiplier	1
R.Time (min)	Intensity
0.00703	5.50
0.02370	5.22
0.04037	5.38
0.05703	5.62
0.07370	5.70
0.09037	5.52
0.10703	5.50
0.12370	5.51
0.14037	5.51
0.15703	5.51
0.17370	5.51
0.19037	5.51
0.20703	5.51
0.22370	5.51
0.24037	5.51
0.25703	5.51
0.27370	5.51
0.29037	5.51
0.30703	5.51
0.32370	5.51
0.34037	5.51
0.35703	5.50
0.37370	5.50
0.39037	5.50
0.40703	5.50
0.42370	5.50
0.44037	5.50
0.45703	5.50
0.47370	5.50
0.49037	5.50
0.50703	5.50
0.52370	5.50
0.54037	5.50
0.55703	5.50
0.57370	5.50
0.59037	5.50
0.60703	5.50
0.62370	5.50
0.64037	5.50
0.65703	5.50
0.67370	5.50
0.69037	5.50
0.70703	5.50
0.72370	5.50
0.74037	5.50
0.75703	5.50
0.77370	5.50
0.79037	5.50
0.80703	5.50
0.82370	5.50
0.84037	5.51
0.85703	5.51
0.87370	5.51
0.89037	5.50
0.90703	5.50
0.92370	5.50
0.94037	5.50
0.95703	5.50
0.97370	5.50
0.99037	5.50
1.00703	5.50
1.02370	5.50
1.04037	5.51
1.05703	5.50
1.07370	5.50
1.09037	5.50
1.10703	5.50
1.12370	5.50
1.14037	5.50
1.15703	5.50
1.17370	5.50
1.19037	5.50
1.20703	5.50
1.22370	5.50
1.24037	5.50
1.25703	5.50
1.27370	5.50
1.29037	5.50
1.30703	5.51
1.32370	5.51
1.34037	5.51
1.35703	5.51
1.37370	5.51
1.39037	5.51
1.40703	5.51
1.42370	5.51
1.44037	5.51
1.45703	5.50
1.47370	5.50
1.49037	5.50
1.50703	5.50
1.52370	5.50
1.54037	5.50
1.55703	5.50
1.57370	5.50
1.59037	5.50
1.60703	5.50
1.62370	5.50
1.64037	5.49
1.65703	5.49
1.67370	5.48
1.69037	5.46
1.70703	5.45
1.72370	5.44
1.74037	5.43
1.75703	5.42
1.77370	5.41
1.79037	5.40
1.80703	5.39
1.82370	5.38
1.84037	5.37
1.85703	5.36
1.87370	5.35
1.89037	5.34
1.90703	5.33
1.92370	5.32
1.94037	5.31
1.95703	5.30
1.97370	5.29
1.99037	5.28
2.00703	5.28
2.02370	5.27
2.04037	5.26
2.05703	5.25
2.07370	5.24
2.09037	5.23
2.10703	5.22
2.12370	5.21
2.14037	5.20
2.15703	5.19
2.17370	5.18
2.19037	5.17
2.20703	5.16
2.22370	5.15
2.24037	5.14
2.25703	5.13
2.27370	5.12
2.29037	5.11
2.30703	5.11
2.32370	5.10
2.34037	5.09
2.35703	5.08
2.37370	5.07
2.39037	5.07
2.40703	5.07
2.42370	5.07
2.44037	5.07
2.45703	5.07
2.47370	5.07
2.49037	5.07
2.50703	5.07
2.52370	5.07
2.54037	5.07
2.55703	5.07
2.57370	5.07
2.59037	5.07
2.60703	5.07
2.62370	5.07
2.64037	5.07
2.65703	5.07
2.67370	5.07
2.69037	5.07
2.70703	5.07
2.72370	5.07
2.74037	5.07
2.75703	5.07
2.77370	5.07
2.79037	5.07
2.80703	5.07
2.82370	5.07
2.84037	5.06
2.85703	5.06
2.87370	5.06
2.89037	5.06
2.90703	5.06
2.92370	5.06
2.94037	5.06
2.95703	5.06
2.97370	5.06
2.99037	5.06
3.00703	5.06
3.02370	5.06
3.04037	5.06
3.05703	5.06
3.07370	5.06
3.09037	5.06
3.10703	5.06
3.12370	5.06
3.14037	5.06
3.15703	5.06
3.17370	5.06
3.19037	5.06
3.20703	5.06
3.22370	5.06
3.24037	5.06
3.25703	5.06
3.27370	5.06
3.29037	5.06
3.30703	5.06
3.32370	5.06
3.34037	5.06
3.35703	5.06
3.37370	5.06
3.39037	5.06
3.40703	5.06
3.42370	5.06
3.44037	5.06
3.45703	5.06
3.47370	5.06
3.49037	5.06
3.50703	5.06
3.52370	5.06
3.54037	5.06
3.55703	5.06
3.57370	5.06
3.59037	5.06
3.60703	5.06
3.62370	5.06
3.64037	5.06
3.65703	5.06
3.67370	5.06
3.69037	5.06
3.70703	5.06
3.72370	5.06
3.74037	5.06
3.75703	5.06
3.77370	5.06
3.79037	5.06
3.80703	5.06
3.82370	5.06
3.84037	5.06
3.85703	5.06
3.87370	5.06
3.89037	5.06
3.90703	5.06
3.92370	5.06
3.94037	5.06
3.95703	5.06
3.97370	5.06
3.99037	5.06

[Status Trace (Linear Velocity)]
Interval(msec)	1000
# of Points	240
Start Time(min)	0.007
End Time(min)	3.990
Intensity Units	
Intensity Multiplier	1
R.Time (min)	Intensity
0.00703	39.01
0.02370	37.39
0.04037	38.33
0.05703	39.67
0.07370	40.09
0.09037	39.09
0.10703	39.00
0.12370	39.02
0.14037	39.02
0.15703	39.02
0.17370	39.02
0.19037	39.02
0.20703	39.02
0.22370	39.02
0.24037	39.02
0.25703	39.02
0.27370	39.02
0.29037	39.01
0.30703	39.01
0.32370	39.02
0.34037	39.02
0.35703	39.01
0.37370	39.01
0.39037	39.01
0.40703	39.01
0.42370	39.01
0.44037	39.01
0.45703	39.01
0.47370	39.01
0.49037	39.01
0.50703	39.01
0.52370	39.01
0.54037	39.01
0.55703	39.01
0.57370	39.01
0.59037	39.01
0.60703	39.01
0.62370	39.01
0.64037	39.01
0.65703	39.01
0.67370	39.01
0.69037	39.01
0.70703	39.01
0.72370	39.01
0.74037	39.01
0.75703	39.01
0.77370	39.01
0.79037	39.01
0.80703	39.01
0.82370	39.01
0.84037	39.02
0.85703	39.02
0.87370	39.02
0.89037	39.01
0.90703	39.01
0.92370	39.01
0.94037	39.01
0.95703	39.01
0.97370	39.01
0.99037	39.01
1.00703	39.01
1.02370	39.01
1.04037	39.01
1.05703	39.01
1.07370	39.01
1.09037	39.01
1.10703	39.01
1.12370	39.01
1.14037	39.01
1.15703	39.01
1.17370	39.01
1.19037	39.01
1.20703	39.01
1.22370	39.01
1.24037	39.01
1.25703	39.01
1.27370	39.01
1.29037	39.01
1.30703	39.02
1.32370	39.02
1.34037	39.02
1.35703	39.02
1.37370	39.02
1.39037	39.02
1.40703	39.01
1.42370	39.02
1.44037	39.01
1.45703	39.01
1.47370	39.01
1.49037	39.01
1.50703	39.01
1.52370	39.01
1.54037	39.01
1.55703	39.01
1.57370	39.01
1.59037	39.01
1.60703	39.01
1.62370	39.00
1.64037	38.99
1.65703	38.96
1.67370	38.93
1.69037	38.89
1.70703	38.86
1.72370	38.82
1.74037	38.79
1.75703	38.76
1.77370	38.73
1.79037	38.70
1.80703	38.67
1.82370	38.64
1.84037	38.60
1.85703	38.58
1.87370	38.54
1.89037	38.51
1.90703	38.48
1.92370	38.45
1.94037	38.42
1.95703	38.39
1.97370	38.36
1.99037	38.33
2.00703	38.30
2.02370	38.27
2.04037	38.24
2.05703	38.21
2.07370	38.18
2.09037	38.15
2.10703	38.13
2.12370	38.09
2.14037	38.06
2.15703	38.04
2.17370	38.00
2.19037	37.98
2.20703	37.95
2.22370	37.91
2.24037	37.88
2.25703	37.85
2.27370	37.82
2.29037	37.79
2.30703	37.77
2.32370	37.73
2.34037	37.70
2.35703	37.68
2.37370	37.66
2.39037	37.66
2.40703	37.66
2.42370	37.66
2.44037	37.66
2.45703	37.66
2.47370	37.65
2.49037	37.65
2.50703	37.65
2.52370	37.64
2.54037	37.65
2.55703	37.65
2.57370	37.65
2.59037	37.65
2.60703	37.64
2.62370	37.64
2.64037	37.64
2.65703	37.64
2.67370	37.64
2.69037	37.64
2.70703	37.64
2.72370	37.64
2.74037	37.64
2.75703	37.64
2.77370	37.64
2.79037	37.64
2.80703	37.64
2.82370	37.64
2.84037	37.64
2.85703	37.64
2.87370	37.64
2.89037	37.64
2.90703	37.64
2.92370	37.63
2.94037	37.63
2.95703	37.63
2.97370	37.63
2.99037	37.63
3.00703	37.63
3.02370	37.63
3.04037	37.63
3.05703	37.63
3.07370	37.63
3.09037	37.63
3.10703	37.62
3.12370	37.62
3.14037	37.62
3.15703	37.62
3.17370	37.62
3.19037	37.62
3.20703	37.62
3.22370	37.62
3.24037	37.62
3.25703	37.62
3.27370	37.62
3.29037	37.62
3.30703	37.62
3.32370	37.62
3.34037	37.62
3.35703	37.62
3.37370	37.62
3.39037	37.62
3.40703	37.62
3.42370	37.62
3.44037	37.62
3.45703	37.62
3.47370	37.62
3.49037	37.62
3.50703	37.62
3.52370	37.62
3.54037	37.62
3.55703	37.62
3.57370	37.62
3.59037	37.62
3.60703	37.62
3.62370	37.63
3.64037	37.63
3.65703	37.63
3.67370	37.63
3.69037	37.63
3.70703	37.63
3.72370	37.63
3.74037	37.63
3.75703	37.63
3.77370	37.63
3.79037	37.63
3.80703	37.63
3.82370	37.63
3.84037	37.63
3.85703	37.63
3.87370	37.63
3.89037	37.63
3.90703	37.63
3.92370	37.63
3.94037	37.63
3.95703	37.63
3.97370	37.63
3.99037	37.63

