[Header]
Application Name	LabSolutions
Version	5.110
Data File Name	C:\Users\User\Desktop\GC Analyses\Jack\UIC Prairie Sampling\8.12.22\220812_111.gcd
Output Date	10/14/2022
Output Time	2:33:57 PM

[File Information]
Type	Data File
Generated	10/14/2022 1:53:26 PM
Generated by	System Administrator
Modified	10/14/2022 1:57:52 PM
Modified by	System Administrator

[Sample Information]
Operator Name	System Administrator
Acquired	10/14/2022 1:53:51 PM
Sample Type	1:Standard
Level	1
Sample Name	220812_UICPrairie
Sample ID	220812_UICPrairie
ISTD Amount1	1
ISTD Amount2	1
ISTD Amount3	1
ISTD Amount4	1
ISTD Amount5	1
ISTD Amount6	1
ISTD Amount7	1
ISTD Amount8	1
ISTD Amount9	1
ISTD Amount10	1
ISTD Amount11	1
ISTD Amount12	1
ISTD Amount13	1
ISTD Amount14	1
ISTD Amount15	1
ISTD Amount16	1
ISTD Amount17	1
ISTD Amount18	1
ISTD Amount19	1
ISTD Amount20	1
ISTD Amount21	1
ISTD Amount22	1
ISTD Amount23	1
ISTD Amount24	1
ISTD Amount25	1
ISTD Amount26	1
ISTD Amount27	1
ISTD Amount28	1
ISTD Amount29	1
ISTD Amount30	1
ISTD Amount31	1
ISTD Amount32	1
Sample Amount	1
Dilution Factor	1
Vial#	1
Injection Volume	1
Injection Count	1
Bar Code	

[Original Files]
Data File	C:\Users\User\Desktop\GC Analyses\Jack\UIC Prairie Sampling\8.12.22\220812_111.gcd
Method File	C:\LabSolutions\Data\GHG_4min_2022\ghg3_togas_w_acet_4 min_new_int.gcm
Batch File	
Report Format File	c:\LabSolutions\System\DEFAULT.lsr

[File Description]


[Configuration]
Instrument Name	C0B7VH3-Instrument1
Instrument #	1
Line #	1
# of Detectors	3
Detector ID	DET#1	DET#2	DET#3
Detector Name	FID	PTCD	ECD
# of Channels	1	1	1

[Peak Table(Ch1)]
# of Peaks	3
Peak#	R.Time	I.Time	F.Time	Area	Height	A/H	Conc.	Mark	ID#	Name	k'	Plate #	Plate Ht.	Tailing	Resolution	Sep.Factor	Area Ratio	Height Ratio	Conc. %	Norm Conc.
1	1.483	1.450	1.545	8049	4334	1.857	100.000	   	1	CO	0.000	11703	12.817	1.305	0.000	0.000	0	0	16.667	16.667
2	1.578	1.545	1.633	2796	1680	1.664	100.000	 V 	2	CH4	0.064	16278	9.215	1.153	1.828	0.000	0	0	16.667	16.667
3	2.007	1.963	2.279	685487	384426	1.783	400.000	   	3	CO2	0.354	22510	6.664	1.245	8.330	5.500	0	0	66.667	66.667

[Peak Table(Ch2)]
# of Peaks	0

[Peak Table(Ch3)]
# of Peaks	3
Peak#	R.Time	I.Time	F.Time	Area	Height	A/H	Conc.	Mark	ID#	Name	k'	Plate #	Plate Ht.	Tailing	Resolution	Sep.Factor	Area Ratio	Height Ratio	Conc. %	Norm Conc.
1	2.458	2.279	2.616	1285	146	8.801	0.000	   			0.000	3698	40.561	0.962	0.000	0.000	0	0	0.000	0.000
2	2.755	2.620	2.840	7300	724	10.078	0.287	   	1	N2O	0.121	389	385.369	0.000	0.825	0.000	0	0	28.676	28.676
3	2.895	2.840	3.221	18156	3588	5.061	0.713	 V 	1	N2O	0.177	11526	13.014	0.000	0.418	1.469	0	0	71.324	71.324

[Compound Results(Ch1)]
# of IDs	6
ID#	Name	R.Time	Area	Height	Conc.	Curve	3rd	2nd	1st	Constant	Area Ratio	Height Ratio	Conc. %	Norm Conc.
1	CO	1.483	8049	4334	100.000	Linear	0.000000e+00	0.000000e+00	8.049224e+001	0.000000e+00	0	0	16.667	16.667
2	CH4	1.578	2796	1680	100.000	Linear	0.000000e+00	0.000000e+00	2.795899e+001	0.000000e+00	0	0	16.667	16.667
3	CO2	2.007	685487	384426	400.000	Linear	0.000000e+00	0.000000e+00	1.713717e+003	0.000000e+00	0	0	66.667	66.667
4	Ethylene	0.000	0	0	0.000	Linear	0.000000e+00	0.000000e+00	0.000000e+00	0.000000e+00	0	0	0.000	0.000
5	Acetylene	0.000	0	0	0.000	Linear	0.000000e+00	0.000000e+00	0.000000e+00	0.000000e+00	0	0	0.000	0.000
6	Ethane	0.000	0	0	0.000	Linear	0.000000e+00	0.000000e+00	0.000000e+00	0.000000e+00	0	0	0.000	0.000

[Compound Results(Ch2)]
# of IDs	5
ID#	Name	R.Time	Area	Height	Conc.	Curve	3rd	2nd	1st	Constant	Area Ratio	Height Ratio	Conc. %	Norm Conc.
1	Hydrogen	0.000	0	0	0.000	Linear	0.000000e+00	0.000000e+00	0.000000e+00	0.000000e+00	0	0	0.000	0.000
2	Oxygen	0.000	0	0	0.000	Linear	0.000000e+00	0.000000e+00	0.000000e+00	0.000000e+00	0	0	0.000	0.000
3	Nitrogen	0.000	0	0	0.000	Linear	0.000000e+00	0.000000e+00	0.000000e+00	0.000000e+00	0	0	0.000	0.000
4	Methane	0.000	0	0	0.000	Linear	0.000000e+00	0.000000e+00	0.000000e+00	0.000000e+00	0	0	0.000	0.000
5	Carbon Monoxide	0.000	0	0	0.000	Linear	0.000000e+00	0.000000e+00	0.000000e+00	0.000000e+00	0	0	0.000	0.000

[Compound Results(Ch3)]
# of IDs	2
ID#	Name	R.Time	Area	Height	Conc.	Curve	3rd	2nd	1st	Constant	Area Ratio	Height Ratio	Conc. %	Norm Conc.
1	N2O	2.895	25456	4312	1.000	Linear	0.000000e+00	0.000000e+00	2.545586e+004	0.000000e+00	0	0	100.000	100.000
2	SF6	0.000	0	0	0.000	Linear	0.000000e+00	0.000000e+00	0.000000e+00	0.000000e+00	0	0	0.000	0.000

[Group Results(Ch1)]
# of Groups	0

[Group Results(Ch2)]
# of Groups	0

[Group Results(Ch3)]
# of Groups	0

[Chromatogram (Ch1)]
Interval(msec)	220
# of Points	1091
Start Time(min)	0.002
End Time(min)	3.998
R.Time (min)	Intensity
0.00167	4
0.00533	3
0.00900	1
0.01267	-7
0.01633	-17
0.02000	-29
0.02367	-38
0.02733	-41
0.03100	-39
0.03467	-34
0.03833	-26
0.04200	-18
0.04567	-13
0.04933	-9
0.05300	-5
0.05667	-2
0.06033	-0
0.06400	4
0.06767	7
0.07133	8
0.07500	8
0.07867	7
0.08233	7
0.08600	4
0.08967	-2
0.09333	-13
0.09700	-25
0.10067	-31
0.10433	-31
0.10800	-28
0.11167	-25
0.11533	-25
0.11900	-27
0.12267	-28
0.12633	-31
0.13000	-37
0.13367	-44
0.13733	-50
0.14100	-57
0.14467	-62
0.14833	-62
0.15200	-53
0.15567	-43
0.15933	-37
0.16300	-34
0.16667	-31
0.17033	-29
0.17400	-29
0.17767	-31
0.18133	-32
0.18500	-30
0.18867	-28
0.19233	-28
0.19600	-26
0.19967	-22
0.20333	-16
0.20700	-10
0.21067	-10
0.21433	-18
0.21800	-28
0.22167	-34
0.22533	-32
0.22900	-28
0.23267	-23
0.23633	-22
0.24000	-27
0.24367	-32
0.24733	-35
0.25100	-38
0.25467	-41
0.25833	-42
0.26200	-43
0.26567	-43
0.26933	-45
0.27300	-46
0.27667	-47
0.28033	-49
0.28400	-53
0.28767	-56
0.29133	-59
0.29500	-57
0.29867	-52
0.30233	-47
0.30600	-44
0.30967	-42
0.31333	-39
0.31700	-34
0.32067	-30
0.32433	-27
0.32800	-27
0.33167	-32
0.33533	-39
0.33900	-43
0.34267	-44
0.34633	-46
0.35000	-46
0.35367	-45
0.35733	-46
0.36100	-49
0.36467	-53
0.36833	-54
0.37200	-51
0.37567	-45
0.37933	-37
0.38300	-31
0.38667	-31
0.39033	-31
0.39400	-33
0.39767	-36
0.40133	-38
0.40500	-41
0.40867	-43
0.41233	-44
0.41600	-42
0.41967	-39
0.42333	-38
0.42700	-42
0.43067	-44
0.43433	-40
0.43800	-34
0.44167	-34
0.44533	-38
0.44900	-46
0.45267	-54
0.45633	-65
0.46000	-75
0.46367	-79
0.46733	-75
0.47100	-65
0.47467	-55
0.47833	-49
0.48200	-46
0.48567	-44
0.48933	-44
0.49300	-48
0.49667	-57
0.50033	-69
0.50400	-80
0.50767	-83
0.51133	-78
0.51500	-69
0.51867	-57
0.52233	-46
0.52600	-38
0.52967	-32
0.53333	-31
0.53700	-36
0.54067	-48
0.54433	-61
0.54800	-72
0.55167	-79
0.55533	-83
0.55900	-85
0.56267	-83
0.56633	-79
0.57000	-73
0.57367	-65
0.57733	-57
0.58100	-52
0.58467	-50
0.58833	-49
0.59200	-47
0.59567	-46
0.59933	-48
0.60300	-51
0.60667	-53
0.61033	-55
0.61400	-53
0.61767	-54
0.62133	-58
0.62500	-65
0.62867	-70
0.63233	-67
0.63600	-62
0.63967	-60
0.64333	-61
0.64700	-62
0.65067	-62
0.65433	-62
0.65800	-61
0.66167	-60
0.66533	-62
0.66900	-67
0.67267	-69
0.67633	-70
0.68000	-70
0.68367	-72
0.68733	-75
0.69100	-75
0.69467	-74
0.69833	-71
0.70200	-72
0.70567	-72
0.70933	-69
0.71300	-65
0.71667	-60
0.72033	-61
0.72400	-65
0.72767	-70
0.73133	-76
0.73500	-81
0.73867	-79
0.74233	-75
0.74600	-74
0.74967	-72
0.75333	-69
0.75700	-64
0.76067	-58
0.76433	-55
0.76800	-54
0.77167	-54
0.77533	-54
0.77900	-55
0.78267	-54
0.78633	-49
0.79000	-44
0.79367	-40
0.79733	-41
0.80100	-50
0.80467	-64
0.80833	-77
0.81200	-85
0.81567	-89
0.81933	-92
0.82300	-94
0.82667	-93
0.83033	-88
0.83400	-82
0.83767	-78
0.84133	-75
0.84500	-76
0.84867	-79
0.85233	-80
0.85600	-78
0.85967	-73
0.86333	-70
0.86700	-69
0.87067	-71
0.87433	-70
0.87800	-70
0.88167	-74
0.88533	-79
0.88900	-82
0.89267	-82
0.89633	-82
0.90000	-82
0.90367	-84
0.90733	-85
0.91100	-83
0.91467	-81
0.91833	-82
0.92200	-82
0.92567	-82
0.92933	-81
0.93300	-78
0.93667	-78
0.94033	-80
0.94400	-84
0.94767	-91
0.95133	-98
0.95500	-98
0.95867	-93
0.96233	-88
0.96600	-85
0.96967	-85
0.97333	-87
0.97700	-90
0.98067	-90
0.98433	-89
0.98800	-90
0.99167	-91
0.99533	-93
0.99900	-90
1.00267	-82
1.00633	-77
1.01000	-77
1.01367	-81
1.01733	-87
1.02100	-93
1.02467	-96
1.02833	-96
1.03200	-96
1.03567	-95
1.03933	-96
1.04300	-97
1.04667	-95
1.05033	-91
1.05400	-87
1.05767	-85
1.06133	-82
1.06500	-80
1.06867	-79
1.07233	-78
1.07600	-80
1.07967	-82
1.08333	-85
1.08700	-91
1.09067	-98
1.09433	-103
1.09800	-106
1.10167	-107
1.10533	-106
1.10900	-106
1.11267	-106
1.11633	-105
1.12000	-103
1.12367	-100
1.12733	-99
1.13100	-97
1.13467	-94
1.13833	-91
1.14200	-89
1.14567	-91
1.14933	-96
1.15300	-100
1.15667	-102
1.16033	-103
1.16400	-103
1.16767	-105
1.17133	-105
1.17500	-104
1.17867	-103
1.18233	-105
1.18600	-105
1.18967	-106
1.19333	-104
1.19700	-104
1.20067	-106
1.20433	-111
1.20800	-117
1.21167	-121
1.21533	-123
1.21900	-124
1.22267	-124
1.22633	-127
1.23000	-132
1.23367	-138
1.23733	-140
1.24100	-132
1.24467	-119
1.24833	-108
1.25200	-101
1.25567	-97
1.25933	-95
1.26300	-95
1.26667	-98
1.27033	-105
1.27400	-112
1.27767	-116
1.28133	-117
1.28500	-119
1.28867	-122
1.29233	-124
1.29600	-121
1.29967	-118
1.30333	-118
1.30700	-117
1.31067	-115
1.31433	-116
1.31800	-121
1.32167	-126
1.32533	-130
1.32900	-134
1.33267	-136
1.33633	-135
1.34000	-130
1.34367	-126
1.34733	-120
1.35100	-115
1.35467	-111
1.35833	-112
1.36200	-116
1.36567	-121
1.36933	-126
1.37300	-130
1.37667	-132
1.38033	-131
1.38400	-126
1.38767	-116
1.39133	-105
1.39500	-99
1.39867	-101
1.40233	-106
1.40600	-109
1.40967	-107
1.41333	-102
1.41700	-97
1.42067	-100
1.42433	-108
1.42800	-118
1.43167	-126
1.43533	-129
1.43900	-131
1.44267	-130
1.44633	-128
1.45000	-125
1.45367	-90
1.45733	56
1.46100	341
1.46467	747
1.46833	1310
1.47200	2085
1.47567	2985
1.47933	3773
1.48300	4206
1.48667	4172
1.49033	3731
1.49400	3058
1.49767	2341
1.50133	1702
1.50500	1191
1.50867	808
1.51233	533
1.51600	336
1.51967	193
1.52333	91
1.52700	20
1.53067	-27
1.53433	-58
1.53800	-76
1.54167	-86
1.54533	-90
1.54900	-87
1.55267	-68
1.55633	11
1.56000	209
1.56367	549
1.56733	962
1.57100	1329
1.57467	1541
1.57833	1545
1.58200	1365
1.58567	1079
1.58933	776
1.59300	510
1.59667	302
1.60033	152
1.60400	50
1.60767	-17
1.61133	-61
1.61500	-89
1.61867	-109
1.62233	-122
1.62600	-128
1.62967	-133
1.63333	-139
1.63700	-143
1.64067	-143
1.64433	-143
1.64800	-143
1.65167	-141
1.65533	-141
1.65900	-142
1.66267	-146
1.66633	-153
1.67000	-160
1.67367	-164
1.67733	-166
1.68100	-166
1.68467	-160
1.68833	-151
1.69200	-142
1.69567	-139
1.69933	-142
1.70300	-148
1.70667	-152
1.71033	-154
1.71400	-154
1.71767	-151
1.72133	-147
1.72500	-143
1.72867	-142
1.73233	-142
1.73600	-144
1.73967	-146
1.74333	-145
1.74700	-142
1.75067	-139
1.75433	-137
1.75800	-137
1.76167	-136
1.76533	-133
1.76900	-129
1.77267	-127
1.77633	-128
1.78000	-130
1.78367	-134
1.78733	-142
1.79100	-152
1.79467	-158
1.79833	-160
1.80200	-159
1.80567	-156
1.80933	-156
1.81300	-158
1.81667	-160
1.82033	-162
1.82400	-162
1.82767	-159
1.83133	-158
1.83500	-158
1.83867	-159
1.84233	-160
1.84600	-158
1.84967	-153
1.85333	-149
1.85700	-147
1.86067	-148
1.86433	-148
1.86800	-147
1.87167	-144
1.87533	-141
1.87900	-140
1.88267	-141
1.88633	-139
1.89000	-138
1.89367	-139
1.89733	-144
1.90100	-150
1.90467	-154
1.90833	-152
1.91200	-144
1.91567	-138
1.91933	-138
1.92300	-143
1.92667	-146
1.93033	-142
1.93400	-133
1.93767	-123
1.94133	-120
1.94500	-124
1.94867	-134
1.95233	-144
1.95600	-147
1.95967	-143
1.96333	-138
1.96700	-121
1.97067	-12
1.97433	600
1.97800	3268
1.98167	12188
1.98533	35102
1.98900	80822
1.99267	151968
1.99633	238401
2.00000	319114
2.00367	371930
2.00733	384312
2.01100	357737
2.01467	304699
2.01833	241167
2.02200	180138
2.02567	128854
2.02933	89435
2.03300	60926
2.03667	41145
2.04033	27787
2.04400	18910
2.04767	13059
2.05133	9203
2.05500	6648
2.05867	4938
2.06233	3775
2.06600	2969
2.06967	2396
2.07333	1978
2.07700	1665
2.08067	1424
2.08433	1233
2.08800	1079
2.09167	957
2.09533	860
2.09900	782
2.10267	712
2.10633	646
2.11000	588
2.11367	535
2.11733	487
2.12100	446
2.12467	415
2.12833	392
2.13200	370
2.13567	348
2.13933	323
2.14300	302
2.14667	284
2.15033	266
2.15400	245
2.15767	228
2.16133	208
2.16500	194
2.16867	183
2.17233	173
2.17600	168
2.17967	161
2.18333	153
2.18700	147
2.19067	143
2.19433	138
2.19800	132
2.20167	121
2.20533	108
2.20900	98
2.21267	90
2.21633	85
2.22000	81
2.22367	78
2.22733	72
2.23100	67
2.23467	61
2.23833	56
2.24200	54
2.24567	56
2.24933	55
2.25300	53
2.25667	50
2.26033	46
2.26400	42
2.26767	40
2.27133	37
2.27500	32
2.27867	26
2.28233	20
2.28600	17
2.28967	18
2.29333	17
2.29700	15
2.30067	17
2.30433	20
2.30800	25
2.31167	28
2.31533	27
2.31900	25
2.32267	19
2.32633	14
2.33000	10
2.33367	8
2.33733	8
2.34100	9
2.34467	8
2.34833	3
2.35200	-4
2.35567	-11
2.35933	-15
2.36300	-16
2.36667	-13
2.37033	-7
2.37400	-3
2.37767	-1
2.38133	-2
2.38500	-6
2.38867	-11
2.39233	-15
2.39600	-18
2.39967	-20
2.40333	-24
2.40700	-30
2.41067	-33
2.41433	-32
2.41800	-29
2.42167	-25
2.42533	-21
2.42900	-19
2.43267	-17
2.43633	-16
2.44000	-16
2.44367	-16
2.44733	-15
2.45100	-16
2.45467	-17
2.45833	-22
2.46200	-27
2.46567	-31
2.46933	-33
2.47300	-32
2.47667	-26
2.48033	-21
2.48400	-20
2.48767	-20
2.49133	-23
2.49500	-26
2.49867	-27
2.50233	-28
2.50600	-29
2.50967	-29
2.51333	-31
2.51700	-35
2.52067	-37
2.52433	-35
2.52800	-31
2.53167	-29
2.53533	-30
2.53900	-31
2.54267	-28
2.54633	-24
2.55000	-25
2.55367	-29
2.55733	-32
2.56100	-34
2.56467	-37
2.56833	-39
2.57200	-40
2.57567	-37
2.57933	-29
2.58300	-23
2.58667	-22
2.59033	-27
2.59400	-35
2.59767	-42
2.60133	-48
2.60500	-53
2.60867	-55
2.61233	-56
2.61600	-57
2.61967	-55
2.62333	-51
2.62700	-45
2.63067	-39
2.63433	-37
2.63800	-36
2.64167	-35
2.64533	-35
2.64900	-38
2.65267	-39
2.65633	-39
2.66000	-41
2.66367	-44
2.66733	-45
2.67100	-41
2.67467	-33
2.67833	-26
2.68200	-22
2.68567	-23
2.68933	-27
2.69300	-32
2.69667	-39
2.70033	-44
2.70400	-49
2.70767	-51
2.71133	-51
2.71500	-49
2.71867	-47
2.72233	-47
2.72600	-50
2.72967	-55
2.73333	-57
2.73700	-56
2.74067	-56
2.74433	-59
2.74800	-59
2.75167	-56
2.75533	-50
2.75900	-42
2.76267	-35
2.76633	-34
2.77000	-36
2.77367	-38
2.77733	-41
2.78100	-44
2.78467	-50
2.78833	-60
2.79200	-68
2.79567	-70
2.79933	-67
2.80300	-65
2.80667	-63
2.81033	-60
2.81400	-55
2.81767	-50
2.82133	-49
2.82500	-49
2.82867	-49
2.83233	-51
2.83600	-50
2.83967	-47
2.84333	-45
2.84700	-44
2.85067	-42
2.85433	-41
2.85800	-48
2.86167	-61
2.86533	-73
2.86900	-79
2.87267	-82
2.87633	-82
2.88000	-82
2.88367	-79
2.88733	-77
2.89100	-73
2.89467	-71
2.89833	-69
2.90200	-66
2.90567	-62
2.90933	-56
2.91300	-51
2.91667	-49
2.92033	-49
2.92400	-51
2.92767	-55
2.93133	-55
2.93500	-54
2.93867	-52
2.94233	-52
2.94600	-57
2.94967	-62
2.95333	-63
2.95700	-64
2.96067	-65
2.96433	-73
2.96800	-80
2.97167	-82
2.97533	-79
2.97900	-72
2.98267	-68
2.98633	-64
2.99000	-61
2.99367	-59
2.99733	-55
3.00100	-49
3.00467	-42
3.00833	-40
3.01200	-42
3.01567	-48
3.01933	-56
3.02300	-61
3.02667	-64
3.03033	-66
3.03400	-65
3.03767	-63
3.04133	-64
3.04500	-66
3.04867	-67
3.05233	-68
3.05600	-68
3.05967	-69
3.06333	-69
3.06700	-68
3.07067	-65
3.07433	-62
3.07800	-61
3.08167	-64
3.08533	-70
3.08900	-73
3.09267	-72
3.09633	-71
3.10000	-71
3.10367	-72
3.10733	-72
3.11100	-72
3.11467	-71
3.11833	-71
3.12200	-77
3.12567	-86
3.12933	-93
3.13300	-96
3.13667	-96
3.14033	-90
3.14400	-81
3.14767	-72
3.15133	-65
3.15500	-61
3.15867	-61
3.16233	-63
3.16600	-66
3.16967	-70
3.17333	-74
3.17700	-75
3.18067	-73
3.18433	-68
3.18800	-60
3.19167	-52
3.19533	-45
3.19900	-38
3.20267	-33
3.20633	-31
3.21000	-34
3.21367	-43
3.21733	-56
3.22100	-69
3.22467	-80
3.22833	-84
3.23200	-85
3.23567	-84
3.23933	-80
3.24300	-77
3.24667	-74
3.25033	-70
3.25400	-68
3.25767	-69
3.26133	-69
3.26500	-67
3.26867	-65
3.27233	-68
3.27600	-73
3.27967	-78
3.28333	-84
3.28700	-90
3.29067	-92
3.29433	-93
3.29800	-93
3.30167	-90
3.30533	-85
3.30900	-77
3.31267	-71
3.31633	-67
3.32000	-65
3.32367	-61
3.32733	-58
3.33100	-56
3.33467	-57
3.33833	-61
3.34200	-68
3.34567	-76
3.34933	-80
3.35300	-80
3.35667	-78
3.36033	-74
3.36400	-71
3.36767	-71
3.37133	-76
3.37500	-83
3.37867	-85
3.38233	-83
3.38600	-77
3.38967	-73
3.39333	-77
3.39700	-86
3.40067	-94
3.40433	-98
3.40800	-100
3.41167	-100
3.41533	-98
3.41900	-95
3.42267	-92
3.42633	-88
3.43000	-86
3.43367	-88
3.43733	-89
3.44100	-88
3.44467	-88
3.44833	-88
3.45200	-87
3.45567	-85
3.45933	-84
3.46300	-84
3.46667	-87
3.47033	-89
3.47400	-88
3.47767	-84
3.48133	-80
3.48500	-80
3.48867	-82
3.49233	-83
3.49600	-82
3.49967	-84
3.50333	-86
3.50700	-84
3.51067	-82
3.51433	-80
3.51800	-81
3.52167	-83
3.52533	-80
3.52900	-72
3.53267	-59
3.53633	-48
3.54000	-45
3.54367	-49
3.54733	-53
3.55100	-59
3.55467	-65
3.55833	-72
3.56200	-78
3.56567	-81
3.56933	-79
3.57300	-78
3.57667	-77
3.58033	-75
3.58400	-72
3.58767	-66
3.59133	-60
3.59500	-58
3.59867	-56
3.60233	-59
3.60600	-63
3.60967	-67
3.61333	-68
3.61700	-65
3.62067	-64
3.62433	-69
3.62800	-75
3.63167	-78
3.63533	-80
3.63900	-83
3.64267	-86
3.64633	-89
3.65000	-92
3.65367	-91
3.65733	-87
3.66100	-84
3.66467	-80
3.66833	-74
3.67200	-69
3.67567	-66
3.67933	-65
3.68300	-65
3.68667	-67
3.69033	-71
3.69400	-74
3.69767	-74
3.70133	-73
3.70500	-74
3.70867	-77
3.71233	-79
3.71600	-79
3.71967	-79
3.72333	-81
3.72700	-83
3.73067	-83
3.73433	-80
3.73800	-75
3.74167	-72
3.74533	-68
3.74900	-63
3.75267	-60
3.75633	-60
3.76000	-63
3.76367	-67
3.76733	-72
3.77100	-79
3.77467	-88
3.77833	-96
3.78200	-98
3.78567	-96
3.78933	-86
3.79300	-74
3.79667	-68
3.80033	-67
3.80400	-67
3.80767	-68
3.81133	-72
3.81500	-74
3.81867	-74
3.82233	-70
3.82600	-65
3.82967	-65
3.83333	-66
3.83700	-63
3.84067	-62
3.84433	-63
3.84800	-63
3.85167	-57
3.85533	-50
3.85900	-49
3.86267	-58
3.86633	-71
3.87000	-79
3.87367	-78
3.87733	-74
3.88100	-74
3.88467	-81
3.88833	-86
3.89200	-89
3.89567	-88
3.89933	-86
3.90300	-82
3.90667	-75
3.91033	-69
3.91400	-67
3.91767	-66
3.92133	-65
3.92500	-64
3.92867	-62
3.93233	-57
3.93600	-57
3.93967	-58
3.94333	-61
3.94700	-61
3.95067	-61
3.95433	-61
3.95800	-59
3.96167	-60
3.96533	-61
3.96900	-64
3.97267	-66
3.97633	-62
3.98000	-59
3.98367	-60
3.98733	-63
3.99100	-67
3.99467	-69
3.99833	-67

[Chromatogram (Ch2)]
Interval(msec)	220
# of Points	1091
Start Time(min)	0.002
End Time(min)	3.998
R.Time (min)	Intensity
0.00167	1
0.00533	1
0.00900	1
0.01267	2
0.01633	1
0.02000	1
0.02367	1
0.02733	1
0.03100	1
0.03467	1
0.03833	1
0.04200	1
0.04567	1
0.04933	1
0.05300	1
0.05667	1
0.06033	1
0.06400	1
0.06767	1
0.07133	2
0.07500	2
0.07867	2
0.08233	2
0.08600	2
0.08967	2
0.09333	2
0.09700	2
0.10067	2
0.10433	2
0.10800	2
0.11167	2
0.11533	2
0.11900	2
0.12267	2
0.12633	2
0.13000	2
0.13367	2
0.13733	2
0.14100	2
0.14467	2
0.14833	2
0.15200	2
0.15567	1
0.15933	1
0.16300	1
0.16667	1
0.17033	0
0.17400	0
0.17767	-0
0.18133	-1
0.18500	-1
0.18867	-1
0.19233	-1
0.19600	-1
0.19967	-0
0.20333	0
0.20700	0
0.21067	1
0.21433	1
0.21800	1
0.22167	1
0.22533	1
0.22900	1
0.23267	1
0.23633	1
0.24000	1
0.24367	0
0.24733	0
0.25100	0
0.25467	-0
0.25833	-0
0.26200	-0
0.26567	-0
0.26933	-0
0.27300	-0
0.27667	-0
0.28033	-0
0.28400	0
0.28767	0
0.29133	1
0.29500	1
0.29867	0
0.30233	0
0.30600	0
0.30967	0
0.31333	1
0.31700	1
0.32067	1
0.32433	1
0.32800	0
0.33167	0
0.33533	-0
0.33900	-0
0.34267	-0
0.34633	-1
0.35000	-1
0.35367	-1
0.35733	-1
0.36100	-1
0.36467	-1
0.36833	-1
0.37200	-1
0.37567	-1
0.37933	-1
0.38300	-1
0.38667	-1
0.39033	-1
0.39400	-1
0.39767	-1
0.40133	-1
0.40500	-1
0.40867	-1
0.41233	-1
0.41600	-1
0.41967	-0
0.42333	-0
0.42700	-0
0.43067	-0
0.43433	-0
0.43800	-0
0.44167	-0
0.44533	-0
0.44900	-0
0.45267	-0
0.45633	-0
0.46000	-0
0.46367	-0
0.46733	-0
0.47100	-0
0.47467	0
0.47833	0
0.48200	0
0.48567	0
0.48933	-0
0.49300	-0
0.49667	-0
0.50033	-0
0.50400	-0
0.50767	-0
0.51133	0
0.51500	0
0.51867	0
0.52233	0
0.52600	0
0.52967	0
0.53333	0
0.53700	0
0.54067	-0
0.54433	-0
0.54800	-0
0.55167	-0
0.55533	-0
0.55900	-1
0.56267	-1
0.56633	-1
0.57000	-1
0.57367	-1
0.57733	-1
0.58100	-1
0.58467	-0
0.58833	-0
0.59200	-0
0.59567	-0
0.59933	-0
0.60300	-0
0.60667	0
0.61033	0
0.61400	0
0.61767	1
0.62133	1
0.62500	1
0.62867	1
0.63233	1
0.63600	1
0.63967	0
0.64333	0
0.64700	-0
0.65067	-0
0.65433	-0
0.65800	-0
0.66167	-0
0.66533	-0
0.66900	-1
0.67267	-1
0.67633	-1
0.68000	-1
0.68367	-1
0.68733	-1
0.69100	-2
0.69467	-2
0.69833	-2
0.70200	-2
0.70567	-1
0.70933	-1
0.71300	-1
0.71667	-1
0.72033	-1
0.72400	-1
0.72767	-1
0.73133	-1
0.73500	-1
0.73867	-1
0.74233	-1
0.74600	-1
0.74967	-1
0.75333	-1
0.75700	-1
0.76067	-1
0.76433	-1
0.76800	-1
0.77167	-1
0.77533	-1
0.77900	-1
0.78267	-1
0.78633	-1
0.79000	-1
0.79367	-1
0.79733	-1
0.80100	-2
0.80467	-2
0.80833	-2
0.81200	-2
0.81567	-2
0.81933	-2
0.82300	-2
0.82667	-2
0.83033	-2
0.83400	-1
0.83767	-1
0.84133	-1
0.84500	-1
0.84867	-1
0.85233	-1
0.85600	-1
0.85967	-1
0.86333	-1
0.86700	-0
0.87067	-0
0.87433	0
0.87800	1
0.88167	1
0.88533	1
0.88900	1
0.89267	1
0.89633	0
0.90000	1
0.90367	1
0.90733	1
0.91100	1
0.91467	1
0.91833	1
0.92200	1
0.92567	1
0.92933	0
0.93300	0
0.93667	-0
0.94033	-0
0.94400	-0
0.94767	-0
0.95133	-0
0.95500	-0
0.95867	-0
0.96233	-0
0.96600	-1
0.96967	-1
0.97333	-1
0.97700	-1
0.98067	-1
0.98433	-1
0.98800	-1
0.99167	-1
0.99533	-1
0.99900	-1
1.00267	-0
1.00633	-0
1.01000	-0
1.01367	-0
1.01733	-0
1.02100	-0
1.02467	-0
1.02833	-1
1.03200	-1
1.03567	-1
1.03933	-1
1.04300	-0
1.04667	-0
1.05033	-0
1.05400	-0
1.05767	-0
1.06133	-0
1.06500	-0
1.06867	-0
1.07233	-0
1.07600	-1
1.07967	-1
1.08333	-1
1.08700	-1
1.09067	-0
1.09433	-0
1.09800	-0
1.10167	-0
1.10533	-1
1.10900	-1
1.11267	-1
1.11633	-1
1.12000	-1
1.12367	-1
1.12733	-1
1.13100	-1
1.13467	-1
1.13833	-1
1.14200	-1
1.14567	-2
1.14933	-2
1.15300	-2
1.15667	-2
1.16033	-2
1.16400	-2
1.16767	-1
1.17133	-1
1.17500	-1
1.17867	-1
1.18233	-1
1.18600	-1
1.18967	-1
1.19333	-1
1.19700	-1
1.20067	-1
1.20433	-1
1.20800	-1
1.21167	-1
1.21533	-1
1.21900	-1
1.22267	-1
1.22633	-1
1.23000	-1
1.23367	-1
1.23733	-1
1.24100	-2
1.24467	-2
1.24833	-2
1.25200	-2
1.25567	-2
1.25933	-3
1.26300	-3
1.26667	-3
1.27033	-3
1.27400	-3
1.27767	-3
1.28133	-3
1.28500	-3
1.28867	-3
1.29233	-3
1.29600	-2
1.29967	-2
1.30333	-2
1.30700	-2
1.31067	-2
1.31433	-2
1.31800	-2
1.32167	-2
1.32533	-2
1.32900	-2
1.33267	-3
1.33633	-3
1.34000	-3
1.34367	-3
1.34733	-3
1.35100	-3
1.35467	-4
1.35833	-4
1.36200	-4
1.36567	-4
1.36933	-4
1.37300	-4
1.37667	-3
1.38033	-3
1.38400	-3
1.38767	-3
1.39133	-3
1.39500	-2
1.39867	-2
1.40233	-2
1.40600	-2
1.40967	-2
1.41333	-2
1.41700	-2
1.42067	-2
1.42433	-2
1.42800	-2
1.43167	-2
1.43533	-2
1.43900	-2
1.44267	-2
1.44633	-1
1.45000	-1
1.45367	-1
1.45733	-1
1.46100	-1
1.46467	-2
1.46833	-2
1.47200	-2
1.47567	-3
1.47933	-3
1.48300	-3
1.48667	-3
1.49033	-3
1.49400	-3
1.49767	-3
1.50133	-2
1.50500	-2
1.50867	-1
1.51233	-1
1.51600	-1
1.51967	-1
1.52333	-1
1.52700	-1
1.53067	-1
1.53433	-1
1.53800	-1
1.54167	-1
1.54533	-2
1.54900	-2
1.55267	-2
1.55633	-2
1.56000	-1
1.56367	-1
1.56733	-1
1.57100	-1
1.57467	-1
1.57833	-2
1.58200	-2
1.58567	-2
1.58933	-2
1.59300	-2
1.59667	-2
1.60033	-3
1.60400	-4
1.60767	-5
1.61133	-7
1.61500	-9
1.61867	-11
1.62233	-14
1.62600	-17
1.62967	-20
1.63333	-23
1.63700	-26
1.64067	-30
1.64433	-33
1.64800	-37
1.65167	-41
1.65533	-44
1.65900	-48
1.66267	-52
1.66633	-56
1.67000	-61
1.67367	-65
1.67733	-70
1.68100	-75
1.68467	-79
1.68833	-84
1.69200	-89
1.69567	-93
1.69933	-96
1.70300	-99
1.70667	-102
1.71033	-103
1.71400	-105
1.71767	-106
1.72133	-107
1.72500	-108
1.72867	-108
1.73233	-109
1.73600	-109
1.73967	-109
1.74333	-109
1.74700	-109
1.75067	-109
1.75433	-110
1.75800	-110
1.76167	-110
1.76533	-111
1.76900	-112
1.77267	-113
1.77633	-114
1.78000	-115
1.78367	-116
1.78733	-117
1.79100	-117
1.79467	-117
1.79833	-117
1.80200	-117
1.80567	-117
1.80933	-117
1.81300	-118
1.81667	-118
1.82033	-119
1.82400	-119
1.82767	-119
1.83133	-120
1.83500	-120
1.83867	-120
1.84233	-119
1.84600	-119
1.84967	-118
1.85333	-118
1.85700	-117
1.86067	-117
1.86433	-117
1.86800	-117
1.87167	-118
1.87533	-118
1.87900	-119
1.88267	-119
1.88633	-119
1.89000	-118
1.89367	-118
1.89733	-118
1.90100	-117
1.90467	-117
1.90833	-117
1.91200	-117
1.91567	-117
1.91933	-117
1.92300	-116
1.92667	-116
1.93033	-116
1.93400	-116
1.93767	-116
1.94133	-116
1.94500	-117
1.94867	-116
1.95233	-116
1.95600	-116
1.95967	-115
1.96333	-115
1.96700	-115
1.97067	-115
1.97433	-115
1.97800	-115
1.98167	-116
1.98533	-116
1.98900	-116
1.99267	-115
1.99633	-115
2.00000	-115
2.00367	-114
2.00733	-114
2.01100	-113
2.01467	-113
2.01833	-112
2.02200	-112
2.02567	-111
2.02933	-111
2.03300	-110
2.03667	-109
2.04033	-109
2.04400	-109
2.04767	-108
2.05133	-108
2.05500	-108
2.05867	-108
2.06233	-107
2.06600	-107
2.06967	-107
2.07333	-107
2.07700	-107
2.08067	-107
2.08433	-107
2.08800	-107
2.09167	-107
2.09533	-107
2.09900	-107
2.10267	-107
2.10633	-106
2.11000	-105
2.11367	-104
2.11733	-104
2.12100	-103
2.12467	-103
2.12833	-102
2.13200	-102
2.13567	-102
2.13933	-102
2.14300	-102
2.14667	-101
2.15033	-100
2.15400	-100
2.15767	-99
2.16133	-99
2.16500	-98
2.16867	-98
2.17233	-98
2.17600	-98
2.17967	-97
2.18333	-97
2.18700	-96
2.19067	-96
2.19433	-96
2.19800	-96
2.20167	-95
2.20533	-95
2.20900	-95
2.21267	-94
2.21633	-94
2.22000	-94
2.22367	-94
2.22733	-94
2.23100	-94
2.23467	-94
2.23833	-94
2.24200	-93
2.24567	-93
2.24933	-92
2.25300	-92
2.25667	-91
2.26033	-90
2.26400	-89
2.26767	-89
2.27133	-88
2.27500	-88
2.27867	-88
2.28233	-89
2.28600	-89
2.28967	-89
2.29333	-89
2.29700	-88
2.30067	-88
2.30433	-88
2.30800	-88
2.31167	-88
2.31533	-87
2.31900	-87
2.32267	-86
2.32633	-86
2.33000	-85
2.33367	-85
2.33733	-85
2.34100	-86
2.34467	-86
2.34833	-86
2.35200	-85
2.35567	-85
2.35933	-84
2.36300	-82
2.36667	-81
2.37033	-79
2.37400	-76
2.37767	-74
2.38133	-70
2.38500	-66
2.38867	-62
2.39233	-58
2.39600	-53
2.39967	-48
2.40333	-44
2.40700	-40
2.41067	-35
2.41433	-32
2.41800	-28
2.42167	-25
2.42533	-21
2.42900	-18
2.43267	-16
2.43633	-13
2.44000	-11
2.44367	-10
2.44733	-9
2.45100	-8
2.45467	-6
2.45833	-5
2.46200	-4
2.46567	-2
2.46933	-0
2.47300	1
2.47667	2
2.48033	3
2.48400	4
2.48767	5
2.49133	6
2.49500	7
2.49867	8
2.50233	8
2.50600	9
2.50967	9
2.51333	10
2.51700	11
2.52067	12
2.52433	12
2.52800	13
2.53167	13
2.53533	13
2.53900	13
2.54267	13
2.54633	13
2.55000	14
2.55367	14
2.55733	15
2.56100	15
2.56467	16
2.56833	16
2.57200	16
2.57567	17
2.57933	16
2.58300	16
2.58667	15
2.59033	15
2.59400	15
2.59767	15
2.60133	15
2.60500	15
2.60867	16
2.61233	16
2.61600	17
2.61967	18
2.62333	19
2.62700	19
2.63067	20
2.63433	20
2.63800	20
2.64167	20
2.64533	20
2.64900	20
2.65267	20
2.65633	20
2.66000	20
2.66367	21
2.66733	21
2.67100	21
2.67467	22
2.67833	22
2.68200	23
2.68567	23
2.68933	24
2.69300	24
2.69667	25
2.70033	25
2.70400	24
2.70767	24
2.71133	24
2.71500	23
2.71867	23
2.72233	22
2.72600	22
2.72967	22
2.73333	22
2.73700	23
2.74067	23
2.74433	23
2.74800	23
2.75167	23
2.75533	23
2.75900	23
2.76267	24
2.76633	24
2.77000	24
2.77367	24
2.77733	25
2.78100	25
2.78467	25
2.78833	25
2.79200	26
2.79567	26
2.79933	26
2.80300	26
2.80667	26
2.81033	26
2.81400	26
2.81767	26
2.82133	26
2.82500	27
2.82867	27
2.83233	27
2.83600	27
2.83967	27
2.84333	27
2.84700	27
2.85067	27
2.85433	27
2.85800	27
2.86167	26
2.86533	26
2.86900	24
2.87267	22
2.87633	18
2.88000	12
2.88367	3
2.88733	-9
2.89100	-25
2.89467	-45
2.89833	-68
2.90200	-95
2.90567	-126
2.90933	-160
2.91300	-196
2.91667	-235
2.92033	-276
2.92400	-319
2.92767	-362
2.93133	-407
2.93500	-455
2.93867	-506
2.94233	-560
2.94600	-608
2.94967	-645
2.95333	-665
2.95700	-666
2.96067	-649
2.96433	-620
2.96800	-580
2.97167	-534
2.97533	-484
2.97900	-434
2.98267	-386
2.98633	-339
2.99000	-296
2.99367	-257
2.99733	-221
3.00100	-190
3.00467	-161
3.00833	-137
3.01200	-115
3.01567	-96
3.01933	-80
3.02300	-66
3.02667	-54
3.03033	-43
3.03400	-34
3.03767	-26
3.04133	-20
3.04500	-14
3.04867	-9
3.05233	-5
3.05600	-2
3.05967	1
3.06333	4
3.06700	6
3.07067	8
3.07433	10
3.07800	11
3.08167	12
3.08533	14
3.08900	14
3.09267	15
3.09633	16
3.10000	16
3.10367	17
3.10733	18
3.11100	18
3.11467	19
3.11833	19
3.12200	20
3.12567	20
3.12933	20
3.13300	20
3.13667	20
3.14033	21
3.14400	21
3.14767	21
3.15133	21
3.15500	21
3.15867	21
3.16233	22
3.16600	22
3.16967	22
3.17333	23
3.17700	23
3.18067	23
3.18433	23
3.18800	22
3.19167	22
3.19533	22
3.19900	22
3.20267	22
3.20633	22
3.21000	21
3.21367	21
3.21733	22
3.22100	22
3.22467	22
3.22833	22
3.23200	22
3.23567	22
3.23933	22
3.24300	23
3.24667	23
3.25033	24
3.25400	24
3.25767	25
3.26133	25
3.26500	25
3.26867	25
3.27233	25
3.27600	25
3.27967	25
3.28333	26
3.28700	26
3.29067	26
3.29433	26
3.29800	26
3.30167	26
3.30533	25
3.30900	25
3.31267	25
3.31633	25
3.32000	25
3.32367	25
3.32733	25
3.33100	25
3.33467	25
3.33833	24
3.34200	24
3.34567	24
3.34933	24
3.35300	24
3.35667	24
3.36033	24
3.36400	24
3.36767	24
3.37133	24
3.37500	24
3.37867	24
3.38233	24
3.38600	25
3.38967	25
3.39333	26
3.39700	26
3.40067	26
3.40433	27
3.40800	27
3.41167	27
3.41533	27
3.41900	28
3.42267	28
3.42633	28
3.43000	28
3.43367	29
3.43733	29
3.44100	29
3.44467	29
3.44833	29
3.45200	29
3.45567	29
3.45933	29
3.46300	29
3.46667	29
3.47033	29
3.47400	29
3.47767	28
3.48133	28
3.48500	28
3.48867	28
3.49233	28
3.49600	28
3.49967	28
3.50333	28
3.50700	28
3.51067	28
3.51433	28
3.51800	28
3.52167	28
3.52533	28
3.52900	28
3.53267	28
3.53633	27
3.54000	27
3.54367	27
3.54733	27
3.55100	27
3.55467	27
3.55833	27
3.56200	27
3.56567	27
3.56933	27
3.57300	27
3.57667	27
3.58033	27
3.58400	27
3.58767	27
3.59133	27
3.59500	28
3.59867	28
3.60233	28
3.60600	28
3.60967	28
3.61333	28
3.61700	27
3.62067	27
3.62433	27
3.62800	27
3.63167	27
3.63533	27
3.63900	27
3.64267	28
3.64633	27
3.65000	27
3.65367	27
3.65733	27
3.66100	27
3.66467	27
3.66833	27
3.67200	26
3.67567	26
3.67933	27
3.68300	27
3.68667	27
3.69033	26
3.69400	26
3.69767	26
3.70133	26
3.70500	26
3.70867	26
3.71233	25
3.71600	25
3.71967	25
3.72333	25
3.72700	25
3.73067	25
3.73433	25
3.73800	25
3.74167	25
3.74533	25
3.74900	24
3.75267	24
3.75633	24
3.76000	24
3.76367	24
3.76733	24
3.77100	23
3.77467	24
3.77833	24
3.78200	23
3.78567	23
3.78933	23
3.79300	24
3.79667	24
3.80033	24
3.80400	24
3.80767	24
3.81133	24
3.81500	25
3.81867	25
3.82233	25
3.82600	25
3.82967	25
3.83333	26
3.83700	25
3.84067	25
3.84433	25
3.84800	25
3.85167	25
3.85533	25
3.85900	25
3.86267	24
3.86633	24
3.87000	24
3.87367	24
3.87733	25
3.88100	25
3.88467	25
3.88833	25
3.89200	25
3.89567	26
3.89933	26
3.90300	26
3.90667	26
3.91033	26
3.91400	27
3.91767	27
3.92133	27
3.92500	27
3.92867	27
3.93233	27
3.93600	26
3.93967	26
3.94333	26
3.94700	25
3.95067	25
3.95433	25
3.95800	25
3.96167	25
3.96533	25
3.96900	25
3.97267	25
3.97633	25
3.98000	25
3.98367	26
3.98733	26
3.99100	26
3.99467	26
3.99833	26

[Chromatogram (Ch3)]
Interval(msec)	220
# of Points	1091
Start Time(min)	0.002
End Time(min)	3.998
R.Time (min)	Intensity
0.00167	-0
0.00533	-2
0.00900	-2
0.01267	-0
0.01633	2
0.02000	2
0.02367	3
0.02733	4
0.03100	5
0.03467	6
0.03833	8
0.04200	7
0.04567	7
0.04933	6
0.05300	4
0.05667	4
0.06033	5
0.06400	6
0.06767	9
0.07133	10
0.07500	9
0.07867	7
0.08233	6
0.08600	6
0.08967	6
0.09333	8
0.09700	10
0.10067	10
0.10433	9
0.10800	9
0.11167	9
0.11533	9
0.11900	10
0.12267	9
0.12633	10
0.13000	13
0.13367	13
0.13733	14
0.14100	15
0.14467	17
0.14833	17
0.15200	16
0.15567	14
0.15933	14
0.16300	14
0.16667	13
0.17033	11
0.17400	11
0.17767	11
0.18133	12
0.18500	14
0.18867	14
0.19233	16
0.19600	17
0.19967	17
0.20333	18
0.20700	19
0.21067	20
0.21433	21
0.21800	22
0.22167	23
0.22533	23
0.22900	24
0.23267	22
0.23633	22
0.24000	23
0.24367	20
0.24733	18
0.25100	18
0.25467	19
0.25833	19
0.26200	18
0.26567	19
0.26933	20
0.27300	22
0.27667	23
0.28033	24
0.28400	28
0.28767	30
0.29133	31
0.29500	29
0.29867	29
0.30233	29
0.30600	27
0.30967	26
0.31333	25
0.31700	23
0.32067	21
0.32433	21
0.32800	21
0.33167	21
0.33533	21
0.33900	21
0.34267	23
0.34633	23
0.35000	23
0.35367	24
0.35733	22
0.36100	22
0.36467	22
0.36833	20
0.37200	18
0.37567	16
0.37933	16
0.38300	16
0.38667	18
0.39033	18
0.39400	17
0.39767	17
0.40133	20
0.40500	24
0.40867	28
0.41233	28
0.41600	29
0.41967	28
0.42333	27
0.42700	24
0.43067	23
0.43433	25
0.43800	25
0.44167	24
0.44533	23
0.44900	24
0.45267	23
0.45633	22
0.46000	22
0.46367	22
0.46733	21
0.47100	22
0.47467	24
0.47833	26
0.48200	27
0.48567	29
0.48933	30
0.49300	31
0.49667	31
0.50033	29
0.50400	28
0.50767	28
0.51133	30
0.51500	32
0.51867	31
0.52233	30
0.52600	29
0.52967	28
0.53333	28
0.53700	30
0.54067	31
0.54433	31
0.54800	29
0.55167	30
0.55533	31
0.55900	31
0.56267	31
0.56633	31
0.57000	31
0.57367	31
0.57733	29
0.58100	30
0.58467	30
0.58833	31
0.59200	33
0.59567	35
0.59933	36
0.60300	35
0.60667	34
0.61033	34
0.61400	34
0.61767	35
0.62133	34
0.62500	35
0.62867	35
0.63233	33
0.63600	32
0.63967	31
0.64333	31
0.64700	32
0.65067	33
0.65433	33
0.65800	34
0.66167	37
0.66533	39
0.66900	40
0.67267	39
0.67633	36
0.68000	38
0.68367	39
0.68733	40
0.69100	41
0.69467	42
0.69833	41
0.70200	40
0.70567	39
0.70933	43
0.71300	46
0.71667	45
0.72033	45
0.72400	43
0.72767	38
0.73133	36
0.73500	35
0.73867	36
0.74233	38
0.74600	39
0.74967	41
0.75333	44
0.75700	45
0.76067	45
0.76433	43
0.76800	42
0.77167	43
0.77533	43
0.77900	44
0.78267	44
0.78633	44
0.79000	46
0.79367	49
0.79733	51
0.80100	54
0.80467	56
0.80833	56
0.81200	53
0.81567	51
0.81933	50
0.82300	52
0.82667	53
0.83033	52
0.83400	53
0.83767	53
0.84133	50
0.84500	47
0.84867	45
0.85233	47
0.85600	48
0.85967	49
0.86333	49
0.86700	49
0.87067	50
0.87433	50
0.87800	52
0.88167	55
0.88533	57
0.88900	55
0.89267	54
0.89633	57
0.90000	58
0.90367	56
0.90733	54
0.91100	53
0.91467	53
0.91833	54
0.92200	52
0.92567	51
0.92933	51
0.93300	52
0.93667	55
0.94033	56
0.94400	57
0.94767	57
0.95133	56
0.95500	54
0.95867	54
0.96233	54
0.96600	55
0.96967	55
0.97333	55
0.97700	55
0.98067	55
0.98433	57
0.98800	57
0.99167	55
0.99533	54
0.99900	54
1.00267	55
1.00633	55
1.01000	55
1.01367	56
1.01733	57
1.02100	59
1.02467	61
1.02833	63
1.03200	64
1.03567	61
1.03933	60
1.04300	60
1.04667	63
1.05033	64
1.05400	64
1.05767	65
1.06133	65
1.06500	64
1.06867	61
1.07233	59
1.07600	59
1.07967	59
1.08333	58
1.08700	59
1.09067	61
1.09433	61
1.09800	60
1.10167	61
1.10533	61
1.10900	59
1.11267	60
1.11633	58
1.12000	53
1.12367	53
1.12733	54
1.13100	56
1.13467	58
1.13833	60
1.14200	62
1.14567	62
1.14933	64
1.15300	68
1.15667	70
1.16033	70
1.16400	70
1.16767	69
1.17133	68
1.17500	68
1.17867	69
1.18233	70
1.18600	71
1.18967	71
1.19333	69
1.19700	67
1.20067	64
1.20433	62
1.20800	61
1.21167	62
1.21533	65
1.21900	67
1.22267	68
1.22633	69
1.23000	72
1.23367	73
1.23733	72
1.24100	70
1.24467	70
1.24833	70
1.25200	70
1.25567	68
1.25933	68
1.26300	70
1.26667	69
1.27033	68
1.27400	69
1.27767	69
1.28133	68
1.28500	69
1.28867	72
1.29233	73
1.29600	73
1.29967	73
1.30333	71
1.30700	71
1.31067	71
1.31433	72
1.31800	72
1.32167	73
1.32533	73
1.32900	73
1.33267	73
1.33633	73
1.34000	74
1.34367	74
1.34733	75
1.35100	77
1.35467	76
1.35833	74
1.36200	72
1.36567	71
1.36933	72
1.37300	73
1.37667	72
1.38033	73
1.38400	74
1.38767	71
1.39133	69
1.39500	68
1.39867	68
1.40233	70
1.40600	73
1.40967	74
1.41333	74
1.41700	72
1.42067	70
1.42433	69
1.42800	70
1.43167	69
1.43533	69
1.43900	70
1.44267	72
1.44633	73
1.45000	73
1.45367	75
1.45733	77
1.46100	76
1.46467	75
1.46833	74
1.47200	72
1.47567	73
1.47933	73
1.48300	75
1.48667	76
1.49033	79
1.49400	81
1.49767	79
1.50133	77
1.50500	76
1.50867	77
1.51233	76
1.51600	76
1.51967	78
1.52333	80
1.52700	82
1.53067	82
1.53433	81
1.53800	81
1.54167	80
1.54533	79
1.54900	79
1.55267	79
1.55633	81
1.56000	83
1.56367	83
1.56733	81
1.57100	80
1.57467	79
1.57833	79
1.58200	79
1.58567	78
1.58933	77
1.59300	78
1.59667	79
1.60033	81
1.60400	82
1.60767	82
1.61133	80
1.61500	79
1.61867	79
1.62233	77
1.62600	77
1.62967	76
1.63333	75
1.63700	75
1.64067	78
1.64433	79
1.64800	81
1.65167	83
1.65533	85
1.65900	86
1.66267	87
1.66633	87
1.67000	88
1.67367	90
1.67733	90
1.68100	90
1.68467	91
1.68833	90
1.69200	92
1.69567	95
1.69933	96
1.70300	95
1.70667	95
1.71033	95
1.71400	95
1.71767	97
1.72133	96
1.72500	98
1.72867	101
1.73233	103
1.73600	103
1.73967	103
1.74333	103
1.74700	102
1.75067	102
1.75433	104
1.75800	106
1.76167	107
1.76533	108
1.76900	109
1.77267	109
1.77633	111
1.78000	111
1.78367	111
1.78733	111
1.79100	115
1.79467	118
1.79833	120
1.80200	121
1.80567	121
1.80933	122
1.81300	121
1.81667	120
1.82033	120
1.82400	121
1.82767	121
1.83133	123
1.83500	125
1.83867	126
1.84233	127
1.84600	129
1.84967	130
1.85333	131
1.85700	132
1.86067	133
1.86433	131
1.86800	129
1.87167	128
1.87533	127
1.87900	127
1.88267	130
1.88633	131
1.89000	130
1.89367	132
1.89733	135
1.90100	136
1.90467	136
1.90833	135
1.91200	135
1.91567	136
1.91933	136
1.92300	136
1.92667	137
1.93033	138
1.93400	139
1.93767	138
1.94133	140
1.94500	141
1.94867	140
1.95233	139
1.95600	140
1.95967	140
1.96333	142
1.96700	142
1.97067	141
1.97433	141
1.97800	145
1.98167	148
1.98533	149
1.98900	148
1.99267	146
1.99633	147
2.00000	150
2.00367	151
2.00733	154
2.01100	156
2.01467	157
2.01833	160
2.02200	161
2.02567	161
2.02933	161
2.03300	160
2.03667	159
2.04033	158
2.04400	158
2.04767	161
2.05133	164
2.05500	166
2.05867	169
2.06233	170
2.06600	171
2.06967	174
2.07333	174
2.07700	172
2.08067	173
2.08433	173
2.08800	174
2.09167	176
2.09533	180
2.09900	186
2.10267	187
2.10633	189
2.11000	189
2.11367	189
2.11733	189
2.12100	190
2.12467	189
2.12833	190
2.13200	194
2.13567	197
2.13933	198
2.14300	196
2.14667	194
2.15033	191
2.15400	192
2.15767	197
2.16133	200
2.16500	201
2.16867	201
2.17233	202
2.17600	202
2.17967	204
2.18333	206
2.18700	205
2.19067	206
2.19433	208
2.19800	210
2.20167	212
2.20533	215
2.20900	216
2.21267	218
2.21633	218
2.22000	219
2.22367	222
2.22733	222
2.23100	222
2.23467	224
2.23833	224
2.24200	223
2.24567	222
2.24933	222
2.25300	222
2.25667	221
2.26033	222
2.26400	222
2.26767	223
2.27133	221
2.27500	223
2.27867	224
2.28233	225
2.28600	227
2.28967	228
2.29333	229
2.29700	229
2.30067	226
2.30433	226
2.30800	229
2.31167	231
2.31533	232
2.31900	235
2.32267	237
2.32633	238
2.33000	237
2.33367	235
2.33733	235
2.34100	237
2.34467	239
2.34833	243
2.35200	244
2.35567	244
2.35933	244
2.36300	243
2.36667	242
2.37033	243
2.37400	242
2.37767	242
2.38133	243
2.38500	244
2.38867	244
2.39233	240
2.39600	238
2.39967	238
2.40333	238
2.40700	238
2.41067	240
2.41433	243
2.41800	246
2.42167	249
2.42533	250
2.42900	253
2.43267	254
2.43633	255
2.44000	256
2.44367	259
2.44733	276
2.45100	297
2.45467	314
2.45833	321
2.46200	319
2.46567	312
2.46933	304
2.47300	298
2.47667	295
2.48033	293
2.48400	289
2.48767	284
2.49133	277
2.49500	270
2.49867	265
2.50233	260
2.50600	255
2.50967	252
2.51333	249
2.51700	245
2.52067	245
2.52433	247
2.52800	250
2.53167	250
2.53533	249
2.53900	245
2.54267	239
2.54633	234
2.55000	229
2.55367	225
2.55733	222
2.56100	219
2.56467	217
2.56833	215
2.57200	210
2.57567	205
2.57933	201
2.58300	197
2.58667	195
2.59033	193
2.59400	191
2.59767	191
2.60133	191
2.60500	193
2.60867	189
2.61233	162
2.61600	133
2.61967	129
2.62333	148
2.62700	180
2.63067	211
2.63433	235
2.63800	253
2.64167	272
2.64533	300
2.64900	336
2.65267	378
2.65633	426
2.66000	477
2.66367	529
2.66733	575
2.67100	617
2.67467	656
2.67833	692
2.68200	726
2.68567	755
2.68933	783
2.69300	810
2.69667	836
2.70033	857
2.70400	876
2.70767	893
2.71133	908
2.71500	922
2.71867	934
2.72233	942
2.72600	951
2.72967	958
2.73333	963
2.73700	969
2.74067	975
2.74433	982
2.74800	990
2.75167	996
2.75533	1000
2.75900	1002
2.76267	1005
2.76633	1006
2.77000	1007
2.77367	1011
2.77733	1013
2.78100	1013
2.78467	1014
2.78833	1014
2.79200	1013
2.79567	1013
2.79933	1011
2.80300	1011
2.80667	1011
2.81033	1010
2.81400	1012
2.81767	1011
2.82133	1008
2.82500	1006
2.82867	1004
2.83233	1000
2.83600	997
2.83967	997
2.84333	1001
2.84700	1013
2.85067	1041
2.85433	1105
2.85800	1222
2.86167	1413
2.86533	1691
2.86900	2047
2.87267	2461
2.87633	2895
2.88000	3301
2.88367	3636
2.88733	3871
2.89100	3994
2.89467	4014
2.89833	3941
2.90200	3793
2.90567	3598
2.90933	3378
2.91300	3149
2.91667	2923
2.92033	2708
2.92400	2505
2.92767	2318
2.93133	2151
2.93500	1996
2.93867	1859
2.94233	1739
2.94600	1634
2.94967	1545
2.95333	1467
2.95700	1397
2.96067	1336
2.96433	1282
2.96800	1238
2.97167	1200
2.97533	1164
2.97900	1133
2.98267	1104
2.98633	1078
2.99000	1055
2.99367	1036
2.99733	1020
3.00100	1008
3.00467	997
3.00833	985
3.01200	973
3.01567	963
3.01933	954
3.02300	946
3.02667	939
3.03033	933
3.03400	927
3.03767	920
3.04133	916
3.04500	912
3.04867	906
3.05233	899
3.05600	895
3.05967	891
3.06333	888
3.06700	884
3.07067	880
3.07433	877
3.07800	876
3.08167	875
3.08533	874
3.08900	872
3.09267	868
3.09633	862
3.10000	858
3.10367	857
3.10733	855
3.11100	856
3.11467	855
3.11833	851
3.12200	848
3.12567	848
3.12933	846
3.13300	842
3.13667	839
3.14033	832
3.14400	827
3.14767	823
3.15133	820
3.15500	817
3.15867	814
3.16233	810
3.16600	808
3.16967	807
3.17333	805
3.17700	801
3.18067	799
3.18433	797
3.18800	796
3.19167	796
3.19533	793
3.19900	791
3.20267	790
3.20633	787
3.21000	784
3.21367	783
3.21733	781
3.22100	778
3.22467	775
3.22833	771
3.23200	768
3.23567	763
3.23933	761
3.24300	759
3.24667	757
3.25033	755
3.25400	752
3.25767	747
3.26133	745
3.26500	742
3.26867	737
3.27233	732
3.27600	729
3.27967	726
3.28333	723
3.28700	719
3.29067	715
3.29433	713
3.29800	712
3.30167	710
3.30533	709
3.30900	706
3.31267	704
3.31633	701
3.32000	697
3.32367	695
3.32733	690
3.33100	686
3.33467	683
3.33833	681
3.34200	680
3.34567	674
3.34933	669
3.35300	666
3.35667	662
3.36033	659
3.36400	656
3.36767	654
3.37133	653
3.37500	652
3.37867	649
3.38233	646
3.38600	645
3.38967	644
3.39333	642
3.39700	640
3.40067	638
3.40433	636
3.40800	633
3.41167	633
3.41533	632
3.41900	628
3.42267	623
3.42633	619
3.43000	616
3.43367	612
3.43733	611
3.44100	608
3.44467	606
3.44833	602
3.45200	598
3.45567	594
3.45933	592
3.46300	589
3.46667	586
3.47033	585
3.47400	584
3.47767	583
3.48133	579
3.48500	576
3.48867	573
3.49233	571
3.49600	569
3.49967	565
3.50333	560
3.50700	557
3.51067	556
3.51433	553
3.51800	550
3.52167	547
3.52533	544
3.52900	540
3.53267	537
3.53633	534
3.54000	534
3.54367	533
3.54733	531
3.55100	530
3.55467	527
3.55833	525
3.56200	522
3.56567	519
3.56933	517
3.57300	516
3.57667	514
3.58033	510
3.58400	505
3.58767	504
3.59133	502
3.59500	499
3.59867	496
3.60233	495
3.60600	493
3.60967	492
3.61333	492
3.61700	494
3.62067	495
3.62433	493
3.62800	490
3.63167	486
3.63533	484
3.63900	483
3.64267	482
3.64633	480
3.65000	480
3.65367	479
3.65733	477
3.66100	475
3.66467	472
3.66833	471
3.67200	470
3.67567	467
3.67933	463
3.68300	456
3.68667	453
3.69033	452
3.69400	453
3.69767	450
3.70133	448
3.70500	447
3.70867	448
3.71233	449
3.71600	448
3.71967	446
3.72333	444
3.72700	440
3.73067	436
3.73433	433
3.73800	430
3.74167	428
3.74533	426
3.74900	424
3.75267	423
3.75633	423
3.76000	426
3.76367	424
3.76733	421
3.77100	417
3.77467	414
3.77833	412
3.78200	409
3.78567	409
3.78933	410
3.79300	411
3.79667	410
3.80033	408
3.80400	404
3.80767	400
3.81133	398
3.81500	397
3.81867	397
3.82233	396
3.82600	396
3.82967	392
3.83333	389
3.83700	387
3.84067	388
3.84433	388
3.84800	386
3.85167	384
3.85533	383
3.85900	381
3.86267	380
3.86633	380
3.87000	378
3.87367	376
3.87733	377
3.88100	376
3.88467	371
3.88833	370
3.89200	373
3.89567	374
3.89933	372
3.90300	369
3.90667	366
3.91033	364
3.91400	361
3.91767	359
3.92133	358
3.92500	357
3.92867	357
3.93233	355
3.93600	353
3.93967	351
3.94333	350
3.94700	349
3.95067	348
3.95433	349
3.95800	350
3.96167	348
3.96533	345
3.96900	342
3.97267	341
3.97633	342
3.98000	343
3.98367	342
3.98733	340
3.99100	340
3.99467	338
3.99833	339

[Status Trace (Column Oven Temperature)]
Interval(msec)	1000
# of Points	240
Start Time(min)	0.004
End Time(min)	3.987
Intensity Units	
Intensity Multiplier	1
R.Time (min)	Intensity
0.00355	35.00
0.02022	34.99
0.03688	34.99
0.05355	34.98
0.07022	34.97
0.08688	34.97
0.10355	34.97
0.12022	34.98
0.13688	34.98
0.15355	34.99
0.17022	34.99
0.18688	34.98
0.20355	34.98
0.22022	34.98
0.23688	34.99
0.25355	34.99
0.27022	34.98
0.28688	34.98
0.30355	34.98
0.32022	34.98
0.33688	34.98
0.35355	34.97
0.37022	34.98
0.38688	34.99
0.40355	34.99
0.42022	34.98
0.43688	34.98
0.45355	34.98
0.47022	34.98
0.48688	34.98
0.50355	34.99
0.52022	34.99
0.53688	34.99
0.55355	34.99
0.57022	35.00
0.58688	35.00
0.60355	35.00
0.62022	34.99
0.63688	34.99
0.65355	34.99
0.67022	34.99
0.68688	34.99
0.70355	34.99
0.72022	34.98
0.73688	34.99
0.75355	34.98
0.77022	34.99
0.78688	35.00
0.80355	35.02
0.82022	35.02
0.83688	35.02
0.85355	35.01
0.87022	35.01
0.88688	35.00
0.90355	34.99
0.92022	34.99
0.93688	34.99
0.95355	35.00
0.97022	35.01
0.98688	35.01
1.00355	35.00
1.02022	35.00
1.03688	34.99
1.05355	34.99
1.07022	34.98
1.08688	34.98
1.10355	34.98
1.12022	34.99
1.13688	34.99
1.15355	34.99
1.17022	34.99
1.18688	34.99
1.20355	34.98
1.22022	34.97
1.23688	34.98
1.25355	34.98
1.27022	34.98
1.28688	34.99
1.30355	34.99
1.32022	34.99
1.33688	35.00
1.35355	35.00
1.37022	35.00
1.38688	35.00
1.40355	35.00
1.42022	35.00
1.43688	34.99
1.45355	35.00
1.47022	35.01
1.48688	35.01
1.50355	35.01
1.52022	35.00
1.53688	34.99
1.55355	34.99
1.57022	35.00
1.58688	35.01
1.60355	35.06
1.62022	35.17
1.63688	35.34
1.65355	35.57
1.67022	35.89
1.68688	36.26
1.70355	36.62
1.72022	36.95
1.73688	37.28
1.75355	37.59
1.77022	37.95
1.78688	38.27
1.80355	38.60
1.82022	38.94
1.83688	39.27
1.85355	39.58
1.87022	39.91
1.88688	40.24
1.90355	40.57
1.92022	40.90
1.93688	41.23
1.95355	41.53
1.97022	41.88
1.98688	42.20
2.00355	42.53
2.02022	42.86
2.03688	43.18
2.05355	43.51
2.07022	43.84
2.08688	44.17
2.10355	44.49
2.12022	44.82
2.13688	45.16
2.15355	45.47
2.17022	45.80
2.18688	46.14
2.20355	46.45
2.22022	46.77
2.23688	47.12
2.25355	47.44
2.27022	47.76
2.28688	48.09
2.30355	48.43
2.32022	48.74
2.33688	49.07
2.35355	49.40
2.37022	49.60
2.38688	49.68
2.40355	49.68
2.42022	49.68
2.43688	49.70
2.45355	49.71
2.47022	49.71
2.48688	49.72
2.50355	49.74
2.52022	49.74
2.53688	49.77
2.55355	49.78
2.57022	49.79
2.58688	49.84
2.60355	49.85
2.62022	49.84
2.63688	49.85
2.65355	49.86
2.67022	49.86
2.68688	49.84
2.70355	49.86
2.72022	49.88
2.73688	49.88
2.75355	49.89
2.77022	49.88
2.78688	49.88
2.80355	49.87
2.82022	49.87
2.83688	49.87
2.85355	49.88
2.87022	49.90
2.88688	49.91
2.90355	49.93
2.92022	49.95
2.93688	49.96
2.95355	49.97
2.97022	49.98
2.98688	50.00
3.00355	50.01
3.02022	50.02
3.03688	50.01
3.05355	50.02
3.07022	50.03
3.08688	50.04
3.10355	50.04
3.12022	50.06
3.13688	50.06
3.15355	50.06
3.17022	50.06
3.18688	50.07
3.20355	50.08
3.22022	50.10
3.23688	50.10
3.25355	50.09
3.27022	50.09
3.28688	50.08
3.30355	50.09
3.32022	50.10
3.33688	50.10
3.35355	50.10
3.37022	50.11
3.38688	50.11
3.40355	50.10
3.42022	50.08
3.43688	50.08
3.45355	50.07
3.47022	50.06
3.48688	50.05
3.50355	50.04
3.52022	50.04
3.53688	50.04
3.55355	50.03
3.57022	50.03
3.58688	50.02
3.60355	50.02
3.62022	50.02
3.63688	50.02
3.65355	50.02
3.67022	50.02
3.68688	50.02
3.70355	50.02
3.72022	50.03
3.73688	50.03
3.75355	50.04
3.77022	50.05
3.78688	50.06
3.80355	50.05
3.82022	50.05
3.83688	50.05
3.85355	50.06
3.87022	50.06
3.88688	50.05
3.90355	50.04
3.92022	50.04
3.93688	50.06
3.95355	50.06
3.97022	50.05
3.98688	50.06

[Status Trace (Injection Unit Temperature)]
Interval(msec)	1000
# of Points	240
Start Time(min)	0.004
End Time(min)	3.987
Intensity Units	
Intensity Multiplier	1
R.Time (min)	Intensity
0.00355	99.98
0.02022	99.98
0.03688	99.98
0.05355	99.98
0.07022	99.98
0.08688	99.98
0.10355	99.98
0.12022	99.98
0.13688	99.98
0.15355	99.98
0.17022	99.98
0.18688	99.98
0.20355	99.98
0.22022	99.98
0.23688	99.98
0.25355	99.98
0.27022	99.98
0.28688	99.98
0.30355	99.98
0.32022	99.98
0.33688	99.98
0.35355	99.98
0.37022	99.98
0.38688	99.98
0.40355	99.98
0.42022	99.98
0.43688	99.98
0.45355	99.98
0.47022	99.98
0.48688	99.98
0.50355	99.98
0.52022	99.98
0.53688	99.98
0.55355	99.98
0.57022	99.98
0.58688	99.98
0.60355	99.98
0.62022	99.98
0.63688	99.98
0.65355	99.98
0.67022	99.98
0.68688	99.98
0.70355	99.98
0.72022	99.98
0.73688	99.98
0.75355	99.98
0.77022	99.98
0.78688	99.98
0.80355	99.98
0.82022	99.98
0.83688	99.99
0.85355	99.98
0.87022	99.98
0.88688	99.98
0.90355	99.98
0.92022	99.99
0.93688	99.98
0.95355	99.98
0.97022	99.98
0.98688	99.98
1.00355	99.99
1.02022	99.99
1.03688	99.99
1.05355	99.98
1.07022	99.99
1.08688	99.99
1.10355	99.98
1.12022	99.99
1.13688	99.98
1.15355	99.99
1.17022	99.98
1.18688	99.99
1.20355	99.98
1.22022	99.98
1.23688	99.99
1.25355	99.99
1.27022	99.98
1.28688	99.98
1.30355	99.98
1.32022	99.99
1.33688	99.98
1.35355	99.98
1.37022	99.98
1.38688	99.98
1.40355	99.98
1.42022	99.99
1.43688	99.99
1.45355	99.99
1.47022	99.99
1.48688	99.98
1.50355	99.98
1.52022	99.98
1.53688	99.98
1.55355	99.99
1.57022	99.99
1.58688	99.99
1.60355	99.99
1.62022	99.99
1.63688	99.99
1.65355	99.99
1.67022	99.99
1.68688	99.98
1.70355	99.99
1.72022	99.99
1.73688	99.99
1.75355	99.99
1.77022	99.99
1.78688	99.99
1.80355	99.99
1.82022	99.99
1.83688	99.98
1.85355	99.99
1.87022	99.99
1.88688	99.99
1.90355	99.99
1.92022	99.98
1.93688	99.98
1.95355	99.98
1.97022	99.98
1.98688	99.98
2.00355	99.98
2.02022	99.98
2.03688	99.97
2.05355	99.98
2.07022	99.98
2.08688	99.97
2.10355	99.98
2.12022	99.97
2.13688	99.97
2.15355	99.97
2.17022	99.97
2.18688	99.97
2.20355	99.97
2.22022	99.97
2.23688	99.97
2.25355	99.97
2.27022	99.97
2.28688	99.97
2.30355	99.97
2.32022	99.97
2.33688	99.97
2.35355	99.97
2.37022	99.97
2.38688	99.97
2.40355	99.97
2.42022	99.97
2.43688	99.97
2.45355	99.97
2.47022	99.97
2.48688	99.97
2.50355	99.97
2.52022	99.98
2.53688	99.98
2.55355	99.98
2.57022	99.98
2.58688	99.98
2.60355	99.98
2.62022	99.98
2.63688	99.98
2.65355	99.99
2.67022	99.99
2.68688	99.98
2.70355	99.99
2.72022	99.99
2.73688	99.99
2.75355	99.99
2.77022	100.00
2.78688	99.99
2.80355	100.00
2.82022	100.00
2.83688	100.00
2.85355	100.00
2.87022	100.00
2.88688	100.01
2.90355	100.01
2.92022	100.01
2.93688	100.01
2.95355	100.01
2.97022	100.01
2.98688	100.01
3.00355	100.02
3.02022	100.02
3.03688	100.02
3.05355	100.02
3.07022	100.02
3.08688	100.02
3.10355	100.02
3.12022	100.03
3.13688	100.03
3.15355	100.03
3.17022	100.03
3.18688	100.02
3.20355	100.03
3.22022	100.03
3.23688	100.03
3.25355	100.03
3.27022	100.03
3.28688	100.03
3.30355	100.04
3.32022	100.04
3.33688	100.04
3.35355	100.04
3.37022	100.03
3.38688	100.04
3.40355	100.04
3.42022	100.04
3.43688	100.04
3.45355	100.04
3.47022	100.04
3.48688	100.05
3.50355	100.04
3.52022	100.04
3.53688	100.04
3.55355	100.04
3.57022	100.05
3.58688	100.04
3.60355	100.04
3.62022	100.05
3.63688	100.05
3.65355	100.04
3.67022	100.05
3.68688	100.05
3.70355	100.05
3.72022	100.05
3.73688	100.05
3.75355	100.05
3.77022	100.05
3.78688	100.05
3.80355	100.05
3.82022	100.05
3.83688	100.05
3.85355	100.05
3.87022	100.05
3.88688	100.05
3.90355	100.05
3.92022	100.05
3.93688	100.05
3.95355	100.06
3.97022	100.05
3.98688	100.05

[Status Trace (Carrier Gas Pressure)]
Interval(msec)	1000
# of Points	240
Start Time(min)	0.004
End Time(min)	3.987
Intensity Units	
Intensity Multiplier	1
R.Time (min)	Intensity
0.00355	58.00
0.02022	56.08
0.03688	56.50
0.05355	58.63
0.07022	59.84
0.08688	58.23
0.10355	57.97
0.12022	58.01
0.13688	58.01
0.15355	58.01
0.17022	58.00
0.18688	58.00
0.20355	58.00
0.22022	58.00
0.23688	58.00
0.25355	58.00
0.27022	58.00
0.28688	58.00
0.30355	58.00
0.32022	58.00
0.33688	58.00
0.35355	58.00
0.37022	58.00
0.38688	58.00
0.40355	58.00
0.42022	58.00
0.43688	58.00
0.45355	58.00
0.47022	58.00
0.48688	58.00
0.50355	58.00
0.52022	58.00
0.53688	58.00
0.55355	58.00
0.57022	58.00
0.58688	58.00
0.60355	58.00
0.62022	58.00
0.63688	58.00
0.65355	58.00
0.67022	58.00
0.68688	58.00
0.70355	58.00
0.72022	58.00
0.73688	58.00
0.75355	58.00
0.77022	58.00
0.78688	58.00
0.80355	58.00
0.82022	58.00
0.83688	58.00
0.85355	58.00
0.87022	58.00
0.88688	58.00
0.90355	58.00
0.92022	58.00
0.93688	58.00
0.95355	58.00
0.97022	58.00
0.98688	58.00
1.00355	58.00
1.02022	58.00
1.03688	58.00
1.05355	58.00
1.07022	58.00
1.08688	58.00
1.10355	58.00
1.12022	58.00
1.13688	58.00
1.15355	58.00
1.17022	58.00
1.18688	58.00
1.20355	58.00
1.22022	58.00
1.23688	58.00
1.25355	58.00
1.27022	58.00
1.28688	58.00
1.30355	58.00
1.32022	58.00
1.33688	58.00
1.35355	58.00
1.37022	58.00
1.38688	58.00
1.40355	58.00
1.42022	58.00
1.43688	58.00
1.45355	58.00
1.47022	58.00
1.48688	58.00
1.50355	58.00
1.52022	58.00
1.53688	58.00
1.55355	58.00
1.57022	58.00
1.58688	58.00
1.60355	58.00
1.62022	58.00
1.63688	58.00
1.65355	58.00
1.67022	58.01
1.68688	58.01
1.70355	58.00
1.72022	58.00
1.73688	58.00
1.75355	58.00
1.77022	58.00
1.78688	58.00
1.80355	58.00
1.82022	58.00
1.83688	58.00
1.85355	58.00
1.87022	58.00
1.88688	58.00
1.90355	58.00
1.92022	58.00
1.93688	58.00
1.95355	58.00
1.97022	58.00
1.98688	58.00
2.00355	58.00
2.02022	58.00
2.03688	58.00
2.05355	58.00
2.07022	58.00
2.08688	58.00
2.10355	58.00
2.12022	58.00
2.13688	58.00
2.15355	58.00
2.17022	58.00
2.18688	58.00
2.20355	58.00
2.22022	58.00
2.23688	58.00
2.25355	58.00
2.27022	58.00
2.28688	58.00
2.30355	58.00
2.32022	58.00
2.33688	58.00
2.35355	58.00
2.37022	58.00
2.38688	57.99
2.40355	57.99
2.42022	58.00
2.43688	58.00
2.45355	58.00
2.47022	58.00
2.48688	58.00
2.50355	57.96
2.52022	58.00
2.53688	57.99
2.55355	58.00
2.57022	58.00
2.58688	58.00
2.60355	58.00
2.62022	58.00
2.63688	58.00
2.65355	58.00
2.67022	58.00
2.68688	58.00
2.70355	58.00
2.72022	58.00
2.73688	58.00
2.75355	58.00
2.77022	58.00
2.78688	58.00
2.80355	58.00
2.82022	58.00
2.83688	58.00
2.85355	58.00
2.87022	58.00
2.88688	58.00
2.90355	58.00
2.92022	58.00
2.93688	58.00
2.95355	58.00
2.97022	58.00
2.98688	58.00
3.00355	58.00
3.02022	58.00
3.03688	58.00
3.05355	58.00
3.07022	58.00
3.08688	58.00
3.10355	58.00
3.12022	58.00
3.13688	58.00
3.15355	58.00
3.17022	58.00
3.18688	58.00
3.20355	58.00
3.22022	58.00
3.23688	58.00
3.25355	58.00
3.27022	58.00
3.28688	58.00
3.30355	58.00
3.32022	58.00
3.33688	58.00
3.35355	58.00
3.37022	58.00
3.38688	58.00
3.40355	58.00
3.42022	58.00
3.43688	58.00
3.45355	58.00
3.47022	58.00
3.48688	58.00
3.50355	58.00
3.52022	58.00
3.53688	58.00
3.55355	58.00
3.57022	58.00
3.58688	58.00
3.60355	58.00
3.62022	58.00
3.63688	58.00
3.65355	58.00
3.67022	58.00
3.68688	58.00
3.70355	58.00
3.72022	58.00
3.73688	58.00
3.75355	58.00
3.77022	58.00
3.78688	58.00
3.80355	58.00
3.82022	58.00
3.83688	58.00
3.85355	58.00
3.87022	58.00
3.88688	58.00
3.90355	58.00
3.92022	58.00
3.93688	58.00
3.95355	58.00
3.97022	58.00
3.98688	58.00

[Status Trace (Carrier Gas Flow)]
Interval(msec)	1000
# of Points	240
Start Time(min)	0.004
End Time(min)	3.987
Intensity Units	
Intensity Multiplier	1
R.Time (min)	Intensity
0.00355	34.52
0.02022	34.60
0.03688	34.55
0.05355	34.54
0.07022	34.50
0.08688	34.52
0.10355	34.52
0.12022	34.52
0.13688	34.52
0.15355	34.52
0.17022	34.52
0.18688	34.51
0.20355	34.52
0.22022	34.52
0.23688	34.52
0.25355	34.52
0.27022	34.52
0.28688	34.53
0.30355	34.51
0.32022	34.53
0.33688	34.52
0.35355	34.51
0.37022	34.52
0.38688	34.52
0.40355	34.52
0.42022	34.52
0.43688	34.52
0.45355	34.52
0.47022	34.52
0.48688	34.52
0.50355	34.52
0.52022	34.52
0.53688	34.52
0.55355	34.52
0.57022	34.52
0.58688	34.52
0.60355	34.52
0.62022	34.52
0.63688	34.52
0.65355	34.52
0.67022	34.52
0.68688	34.52
0.70355	34.52
0.72022	34.52
0.73688	34.52
0.75355	34.52
0.77022	34.52
0.78688	34.52
0.80355	34.52
0.82022	34.52
0.83688	34.52
0.85355	34.52
0.87022	34.52
0.88688	34.52
0.90355	34.52
0.92022	34.52
0.93688	34.52
0.95355	34.52
0.97022	34.52
0.98688	34.52
1.00355	34.52
1.02022	34.52
1.03688	34.52
1.05355	34.52
1.07022	34.52
1.08688	34.52
1.10355	34.52
1.12022	34.52
1.13688	34.52
1.15355	34.52
1.17022	34.52
1.18688	34.52
1.20355	34.52
1.22022	34.52
1.23688	34.52
1.25355	34.52
1.27022	34.52
1.28688	34.52
1.30355	34.52
1.32022	34.52
1.33688	34.52
1.35355	34.52
1.37022	34.52
1.38688	34.52
1.40355	34.52
1.42022	34.52
1.43688	34.52
1.45355	34.52
1.47022	34.52
1.48688	34.52
1.50355	34.52
1.52022	34.52
1.53688	34.52
1.55355	34.52
1.57022	34.52
1.58688	34.52
1.60355	34.52
1.62022	34.52
1.63688	34.52
1.65355	34.52
1.67022	34.52
1.68688	34.52
1.70355	34.52
1.72022	34.52
1.73688	34.52
1.75355	34.52
1.77022	34.52
1.78688	34.52
1.80355	34.52
1.82022	34.52
1.83688	34.52
1.85355	34.52
1.87022	34.52
1.88688	34.52
1.90355	34.52
1.92022	34.52
1.93688	34.52
1.95355	34.52
1.97022	34.52
1.98688	34.52
2.00355	34.52
2.02022	34.52
2.03688	34.52
2.05355	34.52
2.07022	34.52
2.08688	34.52
2.10355	34.52
2.12022	34.52
2.13688	34.52
2.15355	34.52
2.17022	34.52
2.18688	34.52
2.20355	34.52
2.22022	34.52
2.23688	34.52
2.25355	34.52
2.27022	34.52
2.28688	34.52
2.30355	34.52
2.32022	34.52
2.33688	34.52
2.35355	34.52
2.37022	34.52
2.38688	34.52
2.40355	34.52
2.42022	34.52
2.43688	34.52
2.45355	34.52
2.47022	34.52
2.48688	34.52
2.50355	34.67
2.52022	34.51
2.53688	34.52
2.55355	34.52
2.57022	34.52
2.58688	34.52
2.60355	34.52
2.62022	34.52
2.63688	34.52
2.65355	34.52
2.67022	34.52
2.68688	34.52
2.70355	34.53
2.72022	34.52
2.73688	34.52
2.75355	34.52
2.77022	34.52
2.78688	34.52
2.80355	34.52
2.82022	34.52
2.83688	34.52
2.85355	34.52
2.87022	34.51
2.88688	34.52
2.90355	34.51
2.92022	34.52
2.93688	34.52
2.95355	34.50
2.97022	34.53
2.98688	34.52
3.00355	34.53
3.02022	34.52
3.03688	34.52
3.05355	34.51
3.07022	34.52
3.08688	34.52
3.10355	34.52
3.12022	34.53
3.13688	34.51
3.15355	34.52
3.17022	34.51
3.18688	34.52
3.20355	34.52
3.22022	34.52
3.23688	34.53
3.25355	34.51
3.27022	34.52
3.28688	34.52
3.30355	34.52
3.32022	34.53
3.33688	34.52
3.35355	34.52
3.37022	34.52
3.38688	34.52
3.40355	34.52
3.42022	34.51
3.43688	34.53
3.45355	34.52
3.47022	34.52
3.48688	34.52
3.50355	34.52
3.52022	34.51
3.53688	34.53
3.55355	34.52
3.57022	34.52
3.58688	34.52
3.60355	34.52
3.62022	34.50
3.63688	34.52
3.65355	34.52
3.67022	34.52
3.68688	34.51
3.70355	34.52
3.72022	34.52
3.73688	34.52
3.75355	34.52
3.77022	34.51
3.78688	34.52
3.80355	34.52
3.82022	34.52
3.83688	34.52
3.85355	34.52
3.87022	34.52
3.88688	34.52
3.90355	34.52
3.92022	34.52
3.93688	34.52
3.95355	34.52
3.97022	34.52
3.98688	34.52

[Status Trace (Column Flow)]
Interval(msec)	1000
# of Points	240
Start Time(min)	0.004
End Time(min)	3.987
Intensity Units	
Intensity Multiplier	1
R.Time (min)	Intensity
0.00355	5.45
0.02022	5.23
0.03688	5.28
0.05355	5.52
0.07022	5.67
0.08688	5.48
0.10355	5.45
0.12022	5.45
0.13688	5.45
0.15355	5.45
0.17022	5.45
0.18688	5.45
0.20355	5.45
0.22022	5.45
0.23688	5.45
0.25355	5.45
0.27022	5.45
0.28688	5.45
0.30355	5.45
0.32022	5.45
0.33688	5.45
0.35355	5.45
0.37022	5.45
0.38688	5.45
0.40355	5.45
0.42022	5.45
0.43688	5.45
0.45355	5.45
0.47022	5.45
0.48688	5.45
0.50355	5.45
0.52022	5.45
0.53688	5.45
0.55355	5.45
0.57022	5.45
0.58688	5.45
0.60355	5.45
0.62022	5.45
0.63688	5.45
0.65355	5.45
0.67022	5.45
0.68688	5.45
0.70355	5.45
0.72022	5.45
0.73688	5.45
0.75355	5.45
0.77022	5.45
0.78688	5.45
0.80355	5.45
0.82022	5.45
0.83688	5.45
0.85355	5.45
0.87022	5.45
0.88688	5.45
0.90355	5.45
0.92022	5.45
0.93688	5.45
0.95355	5.45
0.97022	5.45
0.98688	5.45
1.00355	5.45
1.02022	5.45
1.03688	5.45
1.05355	5.45
1.07022	5.45
1.08688	5.45
1.10355	5.45
1.12022	5.45
1.13688	5.45
1.15355	5.45
1.17022	5.45
1.18688	5.45
1.20355	5.45
1.22022	5.45
1.23688	5.45
1.25355	5.45
1.27022	5.45
1.28688	5.45
1.30355	5.45
1.32022	5.45
1.33688	5.45
1.35355	5.45
1.37022	5.45
1.38688	5.45
1.40355	5.45
1.42022	5.45
1.43688	5.45
1.45355	5.45
1.47022	5.45
1.48688	5.45
1.50355	5.45
1.52022	5.45
1.53688	5.45
1.55355	5.45
1.57022	5.45
1.58688	5.45
1.60355	5.45
1.62022	5.45
1.63688	5.44
1.65355	5.43
1.67022	5.42
1.68688	5.41
1.70355	5.40
1.72022	5.39
1.73688	5.38
1.75355	5.37
1.77022	5.36
1.78688	5.35
1.80355	5.34
1.82022	5.33
1.83688	5.32
1.85355	5.31
1.87022	5.30
1.88688	5.29
1.90355	5.28
1.92022	5.27
1.93688	5.26
1.95355	5.25
1.97022	5.24
1.98688	5.23
2.00355	5.22
2.02022	5.21
2.03688	5.21
2.05355	5.20
2.07022	5.19
2.08688	5.18
2.10355	5.17
2.12022	5.16
2.13688	5.15
2.15355	5.14
2.17022	5.13
2.18688	5.12
2.20355	5.11
2.22022	5.10
2.23688	5.09
2.25355	5.08
2.27022	5.08
2.28688	5.07
2.30355	5.06
2.32022	5.05
2.33688	5.04
2.35355	5.03
2.37022	5.02
2.38688	5.02
2.40355	5.02
2.42022	5.02
2.43688	5.02
2.45355	5.02
2.47022	5.02
2.48688	5.02
2.50355	5.02
2.52022	5.02
2.53688	5.02
2.55355	5.02
2.57022	5.02
2.58688	5.02
2.60355	5.02
2.62022	5.02
2.63688	5.02
2.65355	5.02
2.67022	5.02
2.68688	5.02
2.70355	5.02
2.72022	5.02
2.73688	5.02
2.75355	5.02
2.77022	5.02
2.78688	5.02
2.80355	5.02
2.82022	5.02
2.83688	5.02
2.85355	5.02
2.87022	5.02
2.88688	5.02
2.90355	5.01
2.92022	5.01
2.93688	5.01
2.95355	5.01
2.97022	5.01
2.98688	5.01
3.00355	5.01
3.02022	5.01
3.03688	5.01
3.05355	5.01
3.07022	5.01
3.08688	5.01
3.10355	5.01
3.12022	5.01
3.13688	5.01
3.15355	5.01
3.17022	5.01
3.18688	5.01
3.20355	5.01
3.22022	5.01
3.23688	5.01
3.25355	5.01
3.27022	5.01
3.28688	5.01
3.30355	5.01
3.32022	5.01
3.33688	5.01
3.35355	5.01
3.37022	5.01
3.38688	5.01
3.40355	5.01
3.42022	5.01
3.43688	5.01
3.45355	5.01
3.47022	5.01
3.48688	5.01
3.50355	5.01
3.52022	5.01
3.53688	5.01
3.55355	5.01
3.57022	5.01
3.58688	5.01
3.60355	5.01
3.62022	5.01
3.63688	5.01
3.65355	5.01
3.67022	5.01
3.68688	5.01
3.70355	5.01
3.72022	5.01
3.73688	5.01
3.75355	5.01
3.77022	5.01
3.78688	5.01
3.80355	5.01
3.82022	5.01
3.83688	5.01
3.85355	5.01
3.87022	5.01
3.88688	5.01
3.90355	5.01
3.92022	5.01
3.93688	5.01
3.95355	5.01
3.97022	5.01
3.98688	5.01

[Status Trace (Linear Velocity)]
Interval(msec)	1000
# of Points	240
Start Time(min)	0.004
End Time(min)	3.987
Intensity Units	
Intensity Multiplier	1
R.Time (min)	Intensity
0.00355	39.00
0.02022	37.74
0.03688	38.02
0.05355	39.41
0.07022	40.21
0.08688	39.15
0.10355	38.98
0.12022	39.01
0.13688	39.01
0.15355	39.00
0.17022	39.00
0.18688	39.00
0.20355	39.00
0.22022	39.00
0.23688	39.00
0.25355	39.00
0.27022	39.00
0.28688	39.00
0.30355	39.00
0.32022	39.00
0.33688	39.00
0.35355	39.00
0.37022	39.00
0.38688	39.00
0.40355	39.00
0.42022	39.00
0.43688	39.00
0.45355	39.00
0.47022	39.00
0.48688	39.00
0.50355	39.00
0.52022	39.00
0.53688	39.00
0.55355	39.00
0.57022	39.00
0.58688	39.00
0.60355	39.00
0.62022	39.00
0.63688	39.00
0.65355	39.00
0.67022	39.00
0.68688	39.00
0.70355	39.00
0.72022	39.00
0.73688	39.00
0.75355	39.00
0.77022	39.00
0.78688	39.00
0.80355	39.00
0.82022	39.00
0.83688	39.00
0.85355	39.00
0.87022	39.00
0.88688	39.00
0.90355	39.00
0.92022	39.00
0.93688	39.00
0.95355	39.00
0.97022	39.00
0.98688	39.00
1.00355	39.00
1.02022	39.00
1.03688	39.00
1.05355	39.00
1.07022	39.00
1.08688	39.00
1.10355	39.00
1.12022	39.00
1.13688	39.00
1.15355	39.00
1.17022	39.00
1.18688	39.00
1.20355	39.00
1.22022	39.00
1.23688	39.00
1.25355	39.00
1.27022	39.00
1.28688	39.00
1.30355	39.00
1.32022	39.00
1.33688	39.00
1.35355	39.00
1.37022	39.00
1.38688	39.00
1.40355	39.00
1.42022	39.00
1.43688	39.00
1.45355	39.00
1.47022	39.00
1.48688	39.00
1.50355	39.00
1.52022	39.00
1.53688	39.00
1.55355	39.00
1.57022	39.00
1.58688	39.00
1.60355	39.00
1.62022	38.99
1.63688	38.97
1.65355	38.95
1.67022	38.92
1.68688	38.89
1.70355	38.85
1.72022	38.82
1.73688	38.78
1.75355	38.75
1.77022	38.72
1.78688	38.69
1.80355	38.66
1.82022	38.63
1.83688	38.60
1.85355	38.57
1.87022	38.54
1.88688	38.51
1.90355	38.47
1.92022	38.44
1.93688	38.41
1.95355	38.38
1.97022	38.35
1.98688	38.32
2.00355	38.29
2.02022	38.26
2.03688	38.23
2.05355	38.20
2.07022	38.17
2.08688	38.14
2.10355	38.11
2.12022	38.08
2.13688	38.05
2.15355	38.02
2.17022	37.99
2.18688	37.96
2.20355	37.94
2.22022	37.91
2.23688	37.88
2.25355	37.85
2.27022	37.82
2.28688	37.79
2.30355	37.76
2.32022	37.73
2.33688	37.70
2.35355	37.67
2.37022	37.65
2.38688	37.64
2.40355	37.64
2.42022	37.64
2.43688	37.64
2.45355	37.64
2.47022	37.64
2.48688	37.64
2.50355	37.61
2.52022	37.64
2.53688	37.63
2.55355	37.64
2.57022	37.64
2.58688	37.63
2.60355	37.63
2.62022	37.63
2.63688	37.63
2.65355	37.63
2.67022	37.63
2.68688	37.63
2.70355	37.63
2.72022	37.63
2.73688	37.63
2.75355	37.63
2.77022	37.63
2.78688	37.63
2.80355	37.63
2.82022	37.63
2.83688	37.63
2.85355	37.63
2.87022	37.63
2.88688	37.62
2.90355	37.62
2.92022	37.62
2.93688	37.62
2.95355	37.62
2.97022	37.62
2.98688	37.62
3.00355	37.62
3.02022	37.61
3.03688	37.61
3.05355	37.61
3.07022	37.61
3.08688	37.61
3.10355	37.61
3.12022	37.61
3.13688	37.61
3.15355	37.61
3.17022	37.61
3.18688	37.61
3.20355	37.61
3.22022	37.61
3.23688	37.61
3.25355	37.61
3.27022	37.61
3.28688	37.61
3.30355	37.61
3.32022	37.61
3.33688	37.61
3.35355	37.61
3.37022	37.61
3.38688	37.61
3.40355	37.61
3.42022	37.61
3.43688	37.61
3.45355	37.61
3.47022	37.61
3.48688	37.61
3.50355	37.61
3.52022	37.61
3.53688	37.61
3.55355	37.61
3.57022	37.61
3.58688	37.61
3.60355	37.61
3.62022	37.61
3.63688	37.61
3.65355	37.62
3.67022	37.61
3.68688	37.61
3.70355	37.61
3.72022	37.61
3.73688	37.61
3.75355	37.61
3.77022	37.61
3.78688	37.61
3.80355	37.61
3.82022	37.61
3.83688	37.61
3.85355	37.61
3.87022	37.61
3.88688	37.61
3.90355	37.61
3.92022	37.61
3.93688	37.61
3.95355	37.61
3.97022	37.61
3.98688	37.61

