[Header]
Application Name	LabSolutions
Version	5.110
Data File Name	C:\Users\User\Desktop\GC Analyses\Jack\UIC Prairie Sampling\8.12.22\220812_092.gcd
Output Date	10/14/2022
Output Time	2:33:56 PM

[File Information]
Type	Data File
Generated	10/13/2022 2:53:41 PM
Generated by	System Administrator
Modified	10/13/2022 2:57:59 PM
Modified by	System Administrator

[Sample Information]
Operator Name	System Administrator
Acquired	10/13/2022 2:53:57 PM
Sample Type	1:Standard
Level	1
Sample Name	220812_UICPrairie
Sample ID	220812_UICPrairie
ISTD Amount1	1
ISTD Amount2	1
ISTD Amount3	1
ISTD Amount4	1
ISTD Amount5	1
ISTD Amount6	1
ISTD Amount7	1
ISTD Amount8	1
ISTD Amount9	1
ISTD Amount10	1
ISTD Amount11	1
ISTD Amount12	1
ISTD Amount13	1
ISTD Amount14	1
ISTD Amount15	1
ISTD Amount16	1
ISTD Amount17	1
ISTD Amount18	1
ISTD Amount19	1
ISTD Amount20	1
ISTD Amount21	1
ISTD Amount22	1
ISTD Amount23	1
ISTD Amount24	1
ISTD Amount25	1
ISTD Amount26	1
ISTD Amount27	1
ISTD Amount28	1
ISTD Amount29	1
ISTD Amount30	1
ISTD Amount31	1
ISTD Amount32	1
Sample Amount	1
Dilution Factor	1
Vial#	1
Injection Volume	1
Injection Count	1
Bar Code	

[Original Files]
Data File	C:\Users\User\Desktop\GC Analyses\Jack\UIC Prairie Sampling\8.12.22\220812_092.gcd
Method File	C:\LabSolutions\Data\GHG_4min_2022\ghg3_togas_w_acet_4 min_new_int.gcm
Batch File	
Report Format File	c:\LabSolutions\System\DEFAULT.lsr

[File Description]


[Configuration]
Instrument Name	C0B7VH3-Instrument1
Instrument #	1
Line #	1
# of Detectors	3
Detector ID	DET#1	DET#2	DET#3
Detector Name	FID	PTCD	ECD
# of Channels	1	1	1

[Peak Table(Ch1)]
# of Peaks	4
Peak#	R.Time	I.Time	F.Time	Area	Height	A/H	Conc.	Mark	ID#	Name	k'	Plate #	Plate Ht.	Tailing	Resolution	Sep.Factor	Area Ratio	Height Ratio	Conc. %	Norm Conc.
1	0.632	0.614	1.021	1423	147	9.670	0.000	   			0.000	247	607.632	11.276	0.000	0.000	0	0	0.000	0.000
2	1.479	1.439	1.538	11977	5301	2.259	100.000	   	1	CO	1.339	8153	18.398	1.173	7.478	0.000	0	0	16.667	16.667
3	1.571	1.538	1.622	4351	2235	1.947	100.000	 V 	2	CH4	1.484	11625	12.904	1.207	1.481	1.108	0	0	16.667	16.667
4	2.000	1.952	2.315	1555337	763616	2.037	400.000	   	3	CO2	2.163	17997	8.335	1.285	7.276	1.457	0	0	66.667	66.667

[Peak Table(Ch2)]
# of Peaks	0

[Peak Table(Ch3)]
# of Peaks	5
Peak#	R.Time	I.Time	F.Time	Area	Height	A/H	Conc.	Mark	ID#	Name	k'	Plate #	Plate Ht.	Tailing	Resolution	Sep.Factor	Area Ratio	Height Ratio	Conc. %	Norm Conc.
1	2.458	2.271	2.550	3084	329	9.367	0.000	   			0.000	232	646.872	0.000	0.000	0.000	0	0	0.000	0.000
2	2.594	2.550	2.649	1257	280	4.486	0.000	 V 			0.055	284	527.650	0.000	0.215	0.000	0	0	0.000	0.000
3	2.796	2.667	2.821	891	145	6.125	0.043	   	1	N2O	0.137	1000	150.062	0.000	0.416	2.486	0	0	4.316	4.316
4	2.887	2.821	2.975	19757	5291	3.734	0.957	 V 	1	N2O	0.175	13050	11.494	1.431	0.403	1.272	0	0	95.684	95.684
5	3.093	2.975	3.995	29744	910	32.700	0.000	 V 			0.258	214	700.700	0.000	0.434	1.479	0	0	0.000	0.000

[Compound Results(Ch1)]
# of IDs	6
ID#	Name	R.Time	Area	Height	Conc.	Curve	3rd	2nd	1st	Constant	Area Ratio	Height Ratio	Conc. %	Norm Conc.
1	CO	1.479	11977	5301	100.000	Linear	0.000000e+00	0.000000e+00	1.197712e+002	0.000000e+00	0	0	16.667	16.667
2	CH4	1.571	4351	2235	100.000	Linear	0.000000e+00	0.000000e+00	4.351159e+001	0.000000e+00	0	0	16.667	16.667
3	CO2	2.000	1555337	763616	400.000	Linear	0.000000e+00	0.000000e+00	3.888342e+003	0.000000e+00	0	0	66.667	66.667
4	Ethylene	0.000	0	0	0.000	Linear	0.000000e+00	0.000000e+00	0.000000e+00	0.000000e+00	0	0	0.000	0.000
5	Acetylene	0.000	0	0	0.000	Linear	0.000000e+00	0.000000e+00	0.000000e+00	0.000000e+00	0	0	0.000	0.000
6	Ethane	0.000	0	0	0.000	Linear	0.000000e+00	0.000000e+00	0.000000e+00	0.000000e+00	0	0	0.000	0.000

[Compound Results(Ch2)]
# of IDs	5
ID#	Name	R.Time	Area	Height	Conc.	Curve	3rd	2nd	1st	Constant	Area Ratio	Height Ratio	Conc. %	Norm Conc.
1	Hydrogen	0.000	0	0	0.000	Linear	0.000000e+00	0.000000e+00	0.000000e+00	0.000000e+00	0	0	0.000	0.000
2	Oxygen	0.000	0	0	0.000	Linear	0.000000e+00	0.000000e+00	0.000000e+00	0.000000e+00	0	0	0.000	0.000
3	Nitrogen	0.000	0	0	0.000	Linear	0.000000e+00	0.000000e+00	0.000000e+00	0.000000e+00	0	0	0.000	0.000
4	Methane	0.000	0	0	0.000	Linear	0.000000e+00	0.000000e+00	0.000000e+00	0.000000e+00	0	0	0.000	0.000
5	Carbon Monoxide	0.000	0	0	0.000	Linear	0.000000e+00	0.000000e+00	0.000000e+00	0.000000e+00	0	0	0.000	0.000

[Compound Results(Ch3)]
# of IDs	2
ID#	Name	R.Time	Area	Height	Conc.	Curve	3rd	2nd	1st	Constant	Area Ratio	Height Ratio	Conc. %	Norm Conc.
1	N2O	2.887	20649	5436	1.000	Linear	0.000000e+00	0.000000e+00	2.064864e+004	0.000000e+00	0	0	100.000	100.000
2	SF6	0.000	0	0	0.000	Linear	0.000000e+00	0.000000e+00	0.000000e+00	0.000000e+00	0	0	0.000	0.000

[Group Results(Ch1)]
# of Groups	0

[Group Results(Ch2)]
# of Groups	0

[Group Results(Ch3)]
# of Groups	0

[Chromatogram (Ch1)]
Interval(msec)	220
# of Points	1091
Start Time(min)	0.002
End Time(min)	3.998
R.Time (min)	Intensity
0.00167	28
0.00533	38
0.00900	49
0.01267	58
0.01633	61
0.02000	54
0.02367	42
0.02733	30
0.03100	21
0.03467	16
0.03833	16
0.04200	21
0.04567	24
0.04933	20
0.05300	16
0.05667	13
0.06033	11
0.06400	11
0.06767	13
0.07133	14
0.07500	20
0.07867	28
0.08233	39
0.08600	49
0.08967	55
0.09333	55
0.09700	55
0.10067	53
0.10433	52
0.10800	55
0.11167	60
0.11533	63
0.11900	65
0.12267	66
0.12633	69
0.13000	68
0.13367	63
0.13733	57
0.14100	54
0.14467	56
0.14833	60
0.15200	64
0.15567	66
0.15933	67
0.16300	68
0.16667	70
0.17033	72
0.17400	73
0.17767	70
0.18133	65
0.18500	57
0.18867	47
0.19233	38
0.19600	31
0.19967	28
0.20333	31
0.20700	36
0.21067	41
0.21433	44
0.21800	44
0.22167	39
0.22533	33
0.22900	29
0.23267	27
0.23633	22
0.24000	18
0.24367	14
0.24733	9
0.25100	6
0.25467	3
0.25833	-2
0.26200	-7
0.26567	-9
0.26933	-9
0.27300	-5
0.27667	4
0.28033	13
0.28400	19
0.28767	22
0.29133	19
0.29500	15
0.29867	11
0.30233	9
0.30600	6
0.30967	3
0.31333	1
0.31700	1
0.32067	2
0.32433	3
0.32800	3
0.33167	5
0.33533	7
0.33900	6
0.34267	6
0.34633	3
0.35000	3
0.35367	2
0.35733	2
0.36100	3
0.36467	3
0.36833	-0
0.37200	-5
0.37567	-7
0.37933	-8
0.38300	-10
0.38667	-8
0.39033	-4
0.39400	-2
0.39767	-3
0.40133	-4
0.40500	-1
0.40867	2
0.41233	6
0.41600	10
0.41967	13
0.42333	16
0.42700	17
0.43067	15
0.43433	8
0.43800	0
0.44167	-5
0.44533	-3
0.44900	5
0.45267	12
0.45633	13
0.46000	8
0.46367	1
0.46733	-4
0.47100	-7
0.47467	-8
0.47833	-12
0.48200	-14
0.48567	-15
0.48933	-16
0.49300	-16
0.49667	-13
0.50033	-7
0.50400	-2
0.50767	-0
0.51133	0
0.51500	2
0.51867	3
0.52233	1
0.52600	-1
0.52967	-7
0.53333	-14
0.53700	-20
0.54067	-27
0.54433	-31
0.54800	-33
0.55167	-31
0.55533	-26
0.55900	-21
0.56267	-17
0.56633	-15
0.57000	-16
0.57367	-14
0.57733	-13
0.58100	-12
0.58467	-11
0.58833	-12
0.59200	-11
0.59567	-8
0.59933	-4
0.60300	-6
0.60667	-15
0.61033	-23
0.61400	-25
0.61767	10
0.62133	67
0.62500	105
0.62867	122
0.63233	125
0.63600	119
0.63967	108
0.64333	100
0.64700	96
0.65067	97
0.65433	95
0.65800	89
0.66167	84
0.66533	81
0.66900	81
0.67267	82
0.67633	82
0.68000	82
0.68367	82
0.68733	80
0.69100	77
0.69467	71
0.69833	66
0.70200	60
0.70567	57
0.70933	58
0.71300	62
0.71667	67
0.72033	72
0.72400	74
0.72767	72
0.73133	70
0.73500	67
0.73867	66
0.74233	64
0.74600	62
0.74967	59
0.75333	58
0.75700	58
0.76067	60
0.76433	60
0.76800	57
0.77167	54
0.77533	54
0.77900	56
0.78267	62
0.78633	69
0.79000	73
0.79367	71
0.79733	66
0.80100	61
0.80467	57
0.80833	54
0.81200	58
0.81567	62
0.81933	64
0.82300	66
0.82667	68
0.83033	65
0.83400	59
0.83767	51
0.84133	43
0.84500	39
0.84867	42
0.85233	47
0.85600	51
0.85967	51
0.86333	51
0.86700	54
0.87067	55
0.87433	54
0.87800	50
0.88167	47
0.88533	48
0.88900	49
0.89267	49
0.89633	49
0.90000	50
0.90367	53
0.90733	56
0.91100	61
0.91467	66
0.91833	67
0.92200	61
0.92567	54
0.92933	46
0.93300	39
0.93667	35
0.94033	34
0.94400	36
0.94767	39
0.95133	43
0.95500	47
0.95867	48
0.96233	49
0.96600	47
0.96967	45
0.97333	47
0.97700	49
0.98067	49
0.98433	48
0.98800	46
0.99167	43
0.99533	41
0.99900	43
1.00267	42
1.00633	38
1.01000	35
1.01367	33
1.01733	30
1.02100	29
1.02467	31
1.02833	33
1.03200	35
1.03567	35
1.03933	37
1.04300	36
1.04667	35
1.05033	33
1.05400	28
1.05767	23
1.06133	18
1.06500	15
1.06867	17
1.07233	22
1.07600	26
1.07967	31
1.08333	36
1.08700	38
1.09067	38
1.09433	36
1.09800	34
1.10167	29
1.10533	20
1.10900	12
1.11267	8
1.11633	8
1.12000	9
1.12367	13
1.12733	22
1.13100	30
1.13467	36
1.13833	39
1.14200	38
1.14567	31
1.14933	25
1.15300	18
1.15667	11
1.16033	8
1.16400	6
1.16767	3
1.17133	1
1.17500	1
1.17867	3
1.18233	8
1.18600	16
1.18967	24
1.19333	30
1.19700	30
1.20067	24
1.20433	14
1.20800	6
1.21167	3
1.21533	6
1.21900	9
1.22267	12
1.22633	12
1.23000	10
1.23367	10
1.23733	10
1.24100	12
1.24467	20
1.24833	26
1.25200	28
1.25567	27
1.25933	24
1.26300	18
1.26667	13
1.27033	7
1.27400	5
1.27767	5
1.28133	9
1.28500	12
1.28867	8
1.29233	-1
1.29600	-9
1.29967	-13
1.30333	-11
1.30700	-6
1.31067	-1
1.31433	-1
1.31800	-3
1.32167	-7
1.32533	-10
1.32900	-9
1.33267	-4
1.33633	3
1.34000	9
1.34367	11
1.34733	11
1.35100	11
1.35467	13
1.35833	12
1.36200	4
1.36567	-4
1.36933	-11
1.37300	-12
1.37667	-11
1.38033	-9
1.38400	-6
1.38767	-4
1.39133	-1
1.39500	2
1.39867	4
1.40233	2
1.40600	-3
1.40967	-9
1.41333	-13
1.41700	-15
1.42067	-17
1.42433	-19
1.42800	-19
1.43167	-20
1.43533	-23
1.43900	-16
1.44267	28
1.44633	178
1.45000	490
1.45367	983
1.45733	1703
1.46100	2611
1.46467	3544
1.46833	4341
1.47200	4918
1.47567	5240
1.47933	5286
1.48300	5039
1.48667	4522
1.49033	3817
1.49400	3052
1.49767	2338
1.50133	1737
1.50500	1266
1.50867	913
1.51233	655
1.51600	470
1.51967	333
1.52333	234
1.52700	163
1.53067	112
1.53433	75
1.53800	52
1.54167	53
1.54533	111
1.54900	285
1.55267	609
1.55633	1034
1.56000	1469
1.56367	1838
1.56733	2100
1.57100	2225
1.57467	2187
1.57833	1978
1.58200	1646
1.58567	1274
1.58933	935
1.59300	660
1.59667	450
1.60033	297
1.60400	187
1.60767	112
1.61133	59
1.61500	25
1.61867	3
1.62233	-7
1.62600	-11
1.62967	-10
1.63333	-7
1.63700	-6
1.64067	-9
1.64433	-16
1.64800	-25
1.65167	-29
1.65533	-32
1.65900	-34
1.66267	-37
1.66633	-39
1.67000	-42
1.67367	-47
1.67733	-52
1.68100	-58
1.68467	-62
1.68833	-63
1.69200	-63
1.69567	-63
1.69933	-63
1.70300	-59
1.70667	-53
1.71033	-48
1.71400	-44
1.71767	-40
1.72133	-39
1.72500	-40
1.72867	-40
1.73233	-43
1.73600	-46
1.73967	-47
1.74333	-46
1.74700	-45
1.75067	-46
1.75433	-45
1.75800	-46
1.76167	-47
1.76533	-47
1.76900	-47
1.77267	-47
1.77633	-44
1.78000	-36
1.78367	-28
1.78733	-24
1.79100	-23
1.79467	-23
1.79833	-22
1.80200	-21
1.80567	-22
1.80933	-25
1.81300	-29
1.81667	-32
1.82033	-35
1.82400	-34
1.82767	-35
1.83133	-34
1.83500	-30
1.83867	-27
1.84233	-23
1.84600	-19
1.84967	-18
1.85333	-20
1.85700	-24
1.86067	-30
1.86433	-34
1.86800	-35
1.87167	-32
1.87533	-27
1.87900	-24
1.88267	-22
1.88633	-22
1.89000	-19
1.89367	-16
1.89733	-12
1.90100	-7
1.90467	0
1.90833	8
1.91200	12
1.91567	10
1.91933	3
1.92300	-3
1.92667	-7
1.93033	-9
1.93400	-11
1.93767	-12
1.94133	-14
1.94500	-14
1.94867	-13
1.95233	-8
1.95600	8
1.95967	108
1.96333	705
1.96700	3564
1.97067	13910
1.97433	42387
1.97800	103114
1.98167	204670
1.98533	340257
1.98900	487967
1.99267	621204
1.99633	717911
2.00000	763643
2.00367	752694
2.00733	689922
2.01100	590456
2.01467	474685
2.01833	361585
2.02200	263762
2.02567	186329
2.02933	128840
2.03300	88040
2.03667	59965
2.04033	41023
2.04400	28379
2.04767	19973
2.05133	14370
2.05500	10609
2.05867	8053
2.06233	6284
2.06600	5035
2.06967	4134
2.07333	3468
2.07700	2964
2.08067	2577
2.08433	2272
2.08800	2024
2.09167	1819
2.09533	1648
2.09900	1505
2.10267	1386
2.10633	1282
2.11000	1192
2.11367	1113
2.11733	1046
2.12100	984
2.12467	931
2.12833	885
2.13200	841
2.13567	798
2.13933	755
2.14300	716
2.14667	679
2.15033	644
2.15400	615
2.15767	596
2.16133	585
2.16500	574
2.16867	561
2.17233	543
2.17600	521
2.17967	498
2.18333	479
2.18700	463
2.19067	449
2.19433	435
2.19800	426
2.20167	421
2.20533	416
2.20900	414
2.21267	407
2.21633	394
2.22000	378
2.22367	363
2.22733	350
2.23100	341
2.23467	336
2.23833	337
2.24200	338
2.24567	336
2.24933	334
2.25300	331
2.25667	326
2.26033	322
2.26400	320
2.26767	315
2.27133	308
2.27500	298
2.27867	290
2.28233	286
2.28600	285
2.28967	285
2.29333	281
2.29700	274
2.30067	270
2.30433	267
2.30800	262
2.31167	259
2.31533	259
2.31900	261
2.32267	264
2.32633	264
2.33000	262
2.33367	256
2.33733	247
2.34100	240
2.34467	239
2.34833	241
2.35200	245
2.35567	246
2.35933	240
2.36300	232
2.36667	226
2.37033	222
2.37400	219
2.37767	217
2.38133	219
2.38500	224
2.38867	229
2.39233	232
2.39600	236
2.39967	241
2.40333	240
2.40700	234
2.41067	227
2.41433	222
2.41800	220
2.42167	223
2.42533	231
2.42900	238
2.43267	242
2.43633	244
2.44000	243
2.44367	236
2.44733	226
2.45100	218
2.45467	211
2.45833	204
2.46200	201
2.46567	201
2.46933	204
2.47300	207
2.47667	210
2.48033	210
2.48400	208
2.48767	205
2.49133	201
2.49500	197
2.49867	195
2.50233	196
2.50600	199
2.50967	199
2.51333	193
2.51700	189
2.52067	187
2.52433	191
2.52800	197
2.53167	202
2.53533	203
2.53900	201
2.54267	197
2.54633	194
2.55000	193
2.55367	196
2.55733	198
2.56100	200
2.56467	200
2.56833	197
2.57200	189
2.57567	178
2.57933	166
2.58300	158
2.58667	154
2.59033	152
2.59400	149
2.59767	147
2.60133	146
2.60500	144
2.60867	145
2.61233	148
2.61600	155
2.61967	162
2.62333	169
2.62700	172
2.63067	168
2.63433	160
2.63800	155
2.64167	152
2.64533	148
2.64900	145
2.65267	143
2.65633	139
2.66000	136
2.66367	136
2.66733	139
2.67100	139
2.67467	138
2.67833	140
2.68200	140
2.68567	137
2.68933	135
2.69300	138
2.69667	144
2.70033	150
2.70400	153
2.70767	152
2.71133	149
2.71500	146
2.71867	145
2.72233	143
2.72600	142
2.72967	142
2.73333	145
2.73700	147
2.74067	149
2.74433	149
2.74800	147
2.75167	144
2.75533	143
2.75900	146
2.76267	150
2.76633	154
2.77000	157
2.77367	157
2.77733	154
2.78100	151
2.78467	147
2.78833	143
2.79200	138
2.79567	132
2.79933	125
2.80300	122
2.80667	124
2.81033	130
2.81400	138
2.81767	145
2.82133	147
2.82500	142
2.82867	134
2.83233	124
2.83600	115
2.83967	114
2.84333	116
2.84700	120
2.85067	128
2.85433	136
2.85800	143
2.86167	146
2.86533	145
2.86900	143
2.87267	139
2.87633	137
2.88000	135
2.88367	127
2.88733	119
2.89100	116
2.89467	113
2.89833	113
2.90200	116
2.90567	122
2.90933	128
2.91300	132
2.91667	134
2.92033	137
2.92400	139
2.92767	138
2.93133	135
2.93500	129
2.93867	123
2.94233	123
2.94600	126
2.94967	126
2.95333	120
2.95700	113
2.96067	110
2.96433	111
2.96800	114
2.97167	117
2.97533	120
2.97900	121
2.98267	121
2.98633	121
2.99000	118
2.99367	114
2.99733	113
3.00100	115
3.00467	118
3.00833	120
3.01200	120
3.01567	119
3.01933	119
3.02300	122
3.02667	123
3.03033	125
3.03400	123
3.03767	120
3.04133	116
3.04500	114
3.04867	113
3.05233	111
3.05600	109
3.05967	108
3.06333	107
3.06700	110
3.07067	113
3.07433	113
3.07800	114
3.08167	115
3.08533	115
3.08900	112
3.09267	111
3.09633	113
3.10000	118
3.10367	119
3.10733	116
3.11100	108
3.11467	97
3.11833	88
3.12200	83
3.12567	84
3.12933	86
3.13300	87
3.13667	89
3.14033	91
3.14400	92
3.14767	92
3.15133	90
3.15500	85
3.15867	81
3.16233	83
3.16600	87
3.16967	92
3.17333	93
3.17700	91
3.18067	83
3.18433	77
3.18800	78
3.19167	85
3.19533	91
3.19900	90
3.20267	85
3.20633	79
3.21000	72
3.21367	68
3.21733	66
3.22100	65
3.22467	68
3.22833	72
3.23200	74
3.23567	77
3.23933	83
3.24300	90
3.24667	98
3.25033	102
3.25400	99
3.25767	88
3.26133	73
3.26500	64
3.26867	62
3.27233	65
3.27600	68
3.27967	70
3.28333	73
3.28700	80
3.29067	88
3.29433	93
3.29800	93
3.30167	87
3.30533	78
3.30900	71
3.31267	67
3.31633	63
3.32000	59
3.32367	58
3.32733	61
3.33100	62
3.33467	61
3.33833	59
3.34200	60
3.34567	61
3.34933	63
3.35300	65
3.35667	70
3.36033	72
3.36400	69
3.36767	61
3.37133	54
3.37500	52
3.37867	54
3.38233	62
3.38600	73
3.38967	82
3.39333	89
3.39700	93
3.40067	91
3.40433	83
3.40800	72
3.41167	63
3.41533	56
3.41900	53
3.42267	52
3.42633	50
3.43000	49
3.43367	48
3.43733	49
3.44100	51
3.44467	51
3.44833	48
3.45200	45
3.45567	43
3.45933	42
3.46300	41
3.46667	43
3.47033	47
3.47400	49
3.47767	53
3.48133	56
3.48500	57
3.48867	55
3.49233	50
3.49600	43
3.49967	37
3.50333	35
3.50700	34
3.51067	35
3.51433	39
3.51800	44
3.52167	47
3.52533	46
3.52900	46
3.53267	49
3.53633	52
3.54000	54
3.54367	57
3.54733	57
3.55100	52
3.55467	42
3.55833	29
3.56200	19
3.56567	13
3.56933	13
3.57300	15
3.57667	19
3.58033	27
3.58400	35
3.58767	44
3.59133	51
3.59500	56
3.59867	56
3.60233	55
3.60600	52
3.60967	48
3.61333	44
3.61700	38
3.62067	32
3.62433	23
3.62800	16
3.63167	13
3.63533	14
3.63900	17
3.64267	21
3.64633	24
3.65000	28
3.65367	32
3.65733	35
3.66100	37
3.66467	39
3.66833	40
3.67200	35
3.67567	29
3.67933	26
3.68300	25
3.68667	26
3.69033	28
3.69400	29
3.69767	34
3.70133	38
3.70500	38
3.70867	36
3.71233	34
3.71600	32
3.71967	27
3.72333	24
3.72700	26
3.73067	31
3.73433	33
3.73800	34
3.74167	32
3.74533	30
3.74900	29
3.75267	33
3.75633	41
3.76000	49
3.76367	54
3.76733	51
3.77100	45
3.77467	38
3.77833	29
3.78200	20
3.78567	12
3.78933	4
3.79300	1
3.79667	2
3.80033	7
3.80400	12
3.80767	16
3.81133	18
3.81500	17
3.81867	14
3.82233	11
3.82600	11
3.82967	14
3.83333	17
3.83700	19
3.84067	21
3.84433	24
3.84800	25
3.85167	20
3.85533	12
3.85900	8
3.86267	8
3.86633	10
3.87000	12
3.87367	11
3.87733	7
3.88100	3
3.88467	1
3.88833	2
3.89200	4
3.89567	7
3.89933	9
3.90300	10
3.90667	8
3.91033	8
3.91400	6
3.91767	2
3.92133	-1
3.92500	-4
3.92867	-5
3.93233	-3
3.93600	-0
3.93967	1
3.94333	3
3.94700	5
3.95067	6
3.95433	6
3.95800	9
3.96167	9
3.96533	9
3.96900	13
3.97267	16
3.97633	16
3.98000	14
3.98367	12
3.98733	10
3.99100	9
3.99467	9
3.99833	9

[Chromatogram (Ch2)]
Interval(msec)	220
# of Points	1091
Start Time(min)	0.002
End Time(min)	3.998
R.Time (min)	Intensity
0.00167	0
0.00533	0
0.00900	0
0.01267	0
0.01633	1
0.02000	1
0.02367	1
0.02733	2
0.03100	2
0.03467	2
0.03833	2
0.04200	2
0.04567	2
0.04933	1
0.05300	1
0.05667	0
0.06033	-0
0.06400	-1
0.06767	-2
0.07133	-2
0.07500	-2
0.07867	-2
0.08233	-3
0.08600	-3
0.08967	-3
0.09333	-3
0.09700	-3
0.10067	-3
0.10433	-3
0.10800	-3
0.11167	-2
0.11533	-2
0.11900	-2
0.12267	-2
0.12633	-1
0.13000	-1
0.13367	-1
0.13733	-1
0.14100	-1
0.14467	-1
0.14833	-1
0.15200	-1
0.15567	-1
0.15933	-1
0.16300	-1
0.16667	-1
0.17033	-1
0.17400	-1
0.17767	-1
0.18133	-1
0.18500	-1
0.18867	-1
0.19233	-1
0.19600	-1
0.19967	-1
0.20333	-1
0.20700	-1
0.21067	-0
0.21433	-0
0.21800	0
0.22167	0
0.22533	0
0.22900	1
0.23267	1
0.23633	1
0.24000	1
0.24367	1
0.24733	2
0.25100	2
0.25467	2
0.25833	3
0.26200	3
0.26567	4
0.26933	4
0.27300	4
0.27667	4
0.28033	4
0.28400	4
0.28767	4
0.29133	4
0.29500	4
0.29867	4
0.30233	4
0.30600	4
0.30967	4
0.31333	5
0.31700	5
0.32067	5
0.32433	5
0.32800	4
0.33167	4
0.33533	5
0.33900	5
0.34267	5
0.34633	5
0.35000	4
0.35367	4
0.35733	4
0.36100	4
0.36467	4
0.36833	4
0.37200	3
0.37567	3
0.37933	3
0.38300	3
0.38667	3
0.39033	3
0.39400	3
0.39767	3
0.40133	3
0.40500	3
0.40867	3
0.41233	3
0.41600	3
0.41967	3
0.42333	3
0.42700	3
0.43067	2
0.43433	2
0.43800	2
0.44167	2
0.44533	1
0.44900	1
0.45267	1
0.45633	1
0.46000	1
0.46367	0
0.46733	0
0.47100	0
0.47467	0
0.47833	1
0.48200	1
0.48567	1
0.48933	1
0.49300	1
0.49667	1
0.50033	1
0.50400	0
0.50767	0
0.51133	-0
0.51500	-1
0.51867	-1
0.52233	-2
0.52600	-2
0.52967	-3
0.53333	-3
0.53700	-3
0.54067	-4
0.54433	-4
0.54800	-4
0.55167	-4
0.55533	-4
0.55900	-4
0.56267	-4
0.56633	-3
0.57000	-3
0.57367	-2
0.57733	-2
0.58100	-2
0.58467	-2
0.58833	-2
0.59200	-1
0.59567	-1
0.59933	-0
0.60300	-0
0.60667	0
0.61033	0
0.61400	1
0.61767	1
0.62133	1
0.62500	1
0.62867	1
0.63233	1
0.63600	1
0.63967	0
0.64333	0
0.64700	-0
0.65067	-1
0.65433	-1
0.65800	-2
0.66167	-2
0.66533	-2
0.66900	-2
0.67267	-2
0.67633	-2
0.68000	-2
0.68367	-1
0.68733	-1
0.69100	-1
0.69467	-1
0.69833	-1
0.70200	-1
0.70567	-1
0.70933	-1
0.71300	-1
0.71667	-1
0.72033	-2
0.72400	-2
0.72767	-2
0.73133	-2
0.73500	-3
0.73867	-3
0.74233	-3
0.74600	-3
0.74967	-4
0.75333	-4
0.75700	-4
0.76067	-4
0.76433	-4
0.76800	-4
0.77167	-3
0.77533	-3
0.77900	-3
0.78267	-2
0.78633	-2
0.79000	-2
0.79367	-2
0.79733	-1
0.80100	-1
0.80467	-1
0.80833	-1
0.81200	-1
0.81567	-1
0.81933	-1
0.82300	-0
0.82667	-0
0.83033	-0
0.83400	-0
0.83767	-1
0.84133	-1
0.84500	-1
0.84867	-1
0.85233	-1
0.85600	-1
0.85967	-1
0.86333	-1
0.86700	-1
0.87067	-1
0.87433	-1
0.87800	-1
0.88167	-1
0.88533	-1
0.88900	-1
0.89267	-1
0.89633	-2
0.90000	-2
0.90367	-2
0.90733	-3
0.91100	-3
0.91467	-4
0.91833	-4
0.92200	-4
0.92567	-4
0.92933	-4
0.93300	-4
0.93667	-4
0.94033	-5
0.94400	-5
0.94767	-5
0.95133	-5
0.95500	-4
0.95867	-4
0.96233	-4
0.96600	-4
0.96967	-3
0.97333	-3
0.97700	-3
0.98067	-3
0.98433	-2
0.98800	-2
0.99167	-2
0.99533	-2
0.99900	-1
1.00267	-1
1.00633	-1
1.01000	-1
1.01367	-1
1.01733	-1
1.02100	-1
1.02467	-1
1.02833	-1
1.03200	-2
1.03567	-2
1.03933	-2
1.04300	-3
1.04667	-3
1.05033	-4
1.05400	-4
1.05767	-4
1.06133	-4
1.06500	-4
1.06867	-4
1.07233	-4
1.07600	-4
1.07967	-3
1.08333	-3
1.08700	-3
1.09067	-3
1.09433	-2
1.09800	-2
1.10167	-2
1.10533	-2
1.10900	-2
1.11267	-1
1.11633	-1
1.12000	-1
1.12367	-1
1.12733	-1
1.13100	-1
1.13467	-1
1.13833	-1
1.14200	-1
1.14567	-0
1.14933	-0
1.15300	-0
1.15667	-0
1.16033	-0
1.16400	-1
1.16767	-1
1.17133	-1
1.17500	-1
1.17867	-2
1.18233	-2
1.18600	-2
1.18967	-3
1.19333	-3
1.19700	-4
1.20067	-4
1.20433	-4
1.20800	-3
1.21167	-3
1.21533	-3
1.21900	-3
1.22267	-2
1.22633	-2
1.23000	-2
1.23367	-1
1.23733	-1
1.24100	-1
1.24467	-1
1.24833	-1
1.25200	-1
1.25567	-1
1.25933	-0
1.26300	-0
1.26667	-0
1.27033	-0
1.27400	0
1.27767	0
1.28133	0
1.28500	0
1.28867	0
1.29233	0
1.29600	0
1.29967	0
1.30333	-0
1.30700	-0
1.31067	-0
1.31433	-0
1.31800	-0
1.32167	-0
1.32533	-1
1.32900	-1
1.33267	-1
1.33633	-1
1.34000	-1
1.34367	-1
1.34733	-2
1.35100	-2
1.35467	-2
1.35833	-2
1.36200	-3
1.36567	-3
1.36933	-3
1.37300	-3
1.37667	-4
1.38033	-4
1.38400	-4
1.38767	-4
1.39133	-4
1.39500	-5
1.39867	-5
1.40233	-5
1.40600	-5
1.40967	-4
1.41333	-4
1.41700	-4
1.42067	-4
1.42433	-4
1.42800	-4
1.43167	-3
1.43533	-3
1.43900	-2
1.44267	-2
1.44633	-1
1.45000	-1
1.45367	-1
1.45733	-1
1.46100	-1
1.46467	-1
1.46833	-1
1.47200	-2
1.47567	-2
1.47933	-2
1.48300	-2
1.48667	-2
1.49033	-2
1.49400	-2
1.49767	-2
1.50133	-2
1.50500	-2
1.50867	-2
1.51233	-2
1.51600	-2
1.51967	-2
1.52333	-2
1.52700	-2
1.53067	-2
1.53433	-2
1.53800	-2
1.54167	-3
1.54533	-3
1.54900	-3
1.55267	-3
1.55633	-3
1.56000	-3
1.56367	-3
1.56733	-3
1.57100	-3
1.57467	-3
1.57833	-4
1.58200	-4
1.58567	-4
1.58933	-4
1.59300	-4
1.59667	-4
1.60033	-5
1.60400	-6
1.60767	-7
1.61133	-8
1.61500	-10
1.61867	-13
1.62233	-15
1.62600	-18
1.62967	-21
1.63333	-25
1.63700	-28
1.64067	-31
1.64433	-35
1.64800	-38
1.65167	-42
1.65533	-46
1.65900	-50
1.66267	-54
1.66633	-58
1.67000	-63
1.67367	-68
1.67733	-73
1.68100	-78
1.68467	-83
1.68833	-87
1.69200	-92
1.69567	-96
1.69933	-99
1.70300	-102
1.70667	-105
1.71033	-107
1.71400	-109
1.71767	-110
1.72133	-111
1.72500	-111
1.72867	-111
1.73233	-111
1.73600	-111
1.73967	-111
1.74333	-111
1.74700	-111
1.75067	-111
1.75433	-111
1.75800	-112
1.76167	-113
1.76533	-114
1.76900	-115
1.77267	-116
1.77633	-117
1.78000	-119
1.78367	-120
1.78733	-120
1.79100	-121
1.79467	-121
1.79833	-121
1.80200	-121
1.80567	-121
1.80933	-121
1.81300	-121
1.81667	-120
1.82033	-120
1.82400	-119
1.82767	-119
1.83133	-118
1.83500	-118
1.83867	-118
1.84233	-118
1.84600	-118
1.84967	-119
1.85333	-119
1.85700	-120
1.86067	-121
1.86433	-121
1.86800	-121
1.87167	-121
1.87533	-121
1.87900	-121
1.88267	-120
1.88633	-120
1.89000	-120
1.89367	-120
1.89733	-120
1.90100	-120
1.90467	-120
1.90833	-119
1.91200	-118
1.91567	-118
1.91933	-118
1.92300	-118
1.92667	-118
1.93033	-118
1.93400	-119
1.93767	-119
1.94133	-119
1.94500	-119
1.94867	-118
1.95233	-118
1.95600	-118
1.95967	-117
1.96333	-117
1.96700	-117
1.97067	-117
1.97433	-116
1.97800	-116
1.98167	-116
1.98533	-115
1.98900	-115
1.99267	-114
1.99633	-114
2.00000	-114
2.00367	-114
2.00733	-114
2.01100	-114
2.01467	-113
2.01833	-113
2.02200	-112
2.02567	-112
2.02933	-112
2.03300	-112
2.03667	-112
2.04033	-112
2.04400	-112
2.04767	-111
2.05133	-111
2.05500	-110
2.05867	-110
2.06233	-110
2.06600	-109
2.06967	-109
2.07333	-109
2.07700	-109
2.08067	-108
2.08433	-108
2.08800	-108
2.09167	-108
2.09533	-108
2.09900	-108
2.10267	-107
2.10633	-107
2.11000	-106
2.11367	-106
2.11733	-105
2.12100	-105
2.12467	-104
2.12833	-103
2.13200	-102
2.13567	-102
2.13933	-102
2.14300	-101
2.14667	-101
2.15033	-101
2.15400	-100
2.15767	-100
2.16133	-100
2.16500	-100
2.16867	-100
2.17233	-100
2.17600	-100
2.17967	-99
2.18333	-99
2.18700	-98
2.19067	-97
2.19433	-97
2.19800	-96
2.20167	-96
2.20533	-96
2.20900	-96
2.21267	-95
2.21633	-95
2.22000	-95
2.22367	-94
2.22733	-94
2.23100	-95
2.23467	-95
2.23833	-95
2.24200	-95
2.24567	-95
2.24933	-95
2.25300	-95
2.25667	-95
2.26033	-94
2.26400	-93
2.26767	-92
2.27133	-92
2.27500	-92
2.27867	-92
2.28233	-93
2.28600	-93
2.28967	-93
2.29333	-93
2.29700	-92
2.30067	-92
2.30433	-92
2.30800	-91
2.31167	-91
2.31533	-90
2.31900	-90
2.32267	-89
2.32633	-89
2.33000	-88
2.33367	-88
2.33733	-87
2.34100	-87
2.34467	-87
2.34833	-87
2.35200	-87
2.35567	-88
2.35933	-87
2.36300	-87
2.36667	-85
2.37033	-84
2.37400	-82
2.37767	-80
2.38133	-77
2.38500	-73
2.38867	-69
2.39233	-65
2.39600	-61
2.39967	-56
2.40333	-51
2.40700	-46
2.41067	-42
2.41433	-37
2.41800	-33
2.42167	-30
2.42533	-27
2.42900	-25
2.43267	-22
2.43633	-20
2.44000	-18
2.44367	-15
2.44733	-13
2.45100	-11
2.45467	-9
2.45833	-7
2.46200	-6
2.46567	-5
2.46933	-4
2.47300	-2
2.47667	-1
2.48033	-0
2.48400	0
2.48767	1
2.49133	2
2.49500	3
2.49867	4
2.50233	5
2.50600	7
2.50967	8
2.51333	8
2.51700	9
2.52067	9
2.52433	9
2.52800	10
2.53167	10
2.53533	11
2.53900	11
2.54267	11
2.54633	11
2.55000	11
2.55367	11
2.55733	11
2.56100	10
2.56467	11
2.56833	11
2.57200	11
2.57567	12
2.57933	12
2.58300	13
2.58667	13
2.59033	13
2.59400	14
2.59767	14
2.60133	14
2.60500	15
2.60867	15
2.61233	16
2.61600	16
2.61967	16
2.62333	17
2.62700	17
2.63067	17
2.63433	17
2.63800	17
2.64167	17
2.64533	17
2.64900	17
2.65267	17
2.65633	18
2.66000	18
2.66367	18
2.66733	18
2.67100	18
2.67467	18
2.67833	19
2.68200	19
2.68567	19
2.68933	19
2.69300	20
2.69667	20
2.70033	21
2.70400	21
2.70767	21
2.71133	21
2.71500	21
2.71867	21
2.72233	20
2.72600	20
2.72967	20
2.73333	20
2.73700	20
2.74067	20
2.74433	20
2.74800	21
2.75167	21
2.75533	22
2.75900	23
2.76267	23
2.76633	23
2.77000	23
2.77367	24
2.77733	24
2.78100	24
2.78467	24
2.78833	25
2.79200	25
2.79567	25
2.79933	26
2.80300	26
2.80667	26
2.81033	26
2.81400	25
2.81767	25
2.82133	25
2.82500	25
2.82867	25
2.83233	25
2.83600	24
2.83967	24
2.84333	24
2.84700	23
2.85067	22
2.85433	20
2.85800	15
2.86167	9
2.86533	-0
2.86900	-13
2.87267	-29
2.87633	-49
2.88000	-73
2.88367	-101
2.88733	-133
2.89100	-169
2.89467	-208
2.89833	-249
2.90200	-294
2.90567	-340
2.90933	-388
2.91300	-438
2.91667	-488
2.92033	-538
2.92400	-588
2.92767	-638
2.93133	-688
2.93500	-737
2.93867	-786
2.94233	-836
2.94600	-892
2.94967	-954
2.95333	-1014
2.95700	-1061
2.96067	-1087
2.96433	-1086
2.96800	-1059
2.97167	-1011
2.97533	-947
2.97900	-873
2.98267	-794
2.98633	-714
2.99000	-636
2.99367	-561
2.99733	-492
3.00100	-429
3.00467	-372
3.00833	-321
3.01200	-275
3.01567	-236
3.01933	-201
3.02300	-171
3.02667	-145
3.03033	-123
3.03400	-104
3.03767	-87
3.04133	-73
3.04500	-61
3.04867	-50
3.05233	-41
3.05600	-34
3.05967	-27
3.06333	-21
3.06700	-16
3.07067	-12
3.07433	-9
3.07800	-6
3.08167	-3
3.08533	-1
3.08900	1
3.09267	3
3.09633	4
3.10000	5
3.10367	7
3.10733	8
3.11100	8
3.11467	9
3.11833	10
3.12200	11
3.12567	11
3.12933	12
3.13300	12
3.13667	13
3.14033	13
3.14400	14
3.14767	14
3.15133	14
3.15500	14
3.15867	14
3.16233	14
3.16600	15
3.16967	15
3.17333	15
3.17700	15
3.18067	15
3.18433	15
3.18800	16
3.19167	16
3.19533	16
3.19900	17
3.20267	17
3.20633	17
3.21000	18
3.21367	18
3.21733	19
3.22100	19
3.22467	19
3.22833	20
3.23200	20
3.23567	20
3.23933	21
3.24300	21
3.24667	21
3.25033	21
3.25400	21
3.25767	21
3.26133	21
3.26500	22
3.26867	22
3.27233	22
3.27600	23
3.27967	23
3.28333	23
3.28700	23
3.29067	23
3.29433	23
3.29800	23
3.30167	23
3.30533	23
3.30900	23
3.31267	23
3.31633	23
3.32000	23
3.32367	24
3.32733	24
3.33100	24
3.33467	24
3.33833	24
3.34200	24
3.34567	24
3.34933	24
3.35300	24
3.35667	24
3.36033	24
3.36400	24
3.36767	24
3.37133	24
3.37500	24
3.37867	24
3.38233	24
3.38600	24
3.38967	24
3.39333	24
3.39700	24
3.40067	24
3.40433	24
3.40800	24
3.41167	24
3.41533	24
3.41900	23
3.42267	23
3.42633	23
3.43000	23
3.43367	23
3.43733	23
3.44100	23
3.44467	23
3.44833	23
3.45200	23
3.45567	23
3.45933	24
3.46300	24
3.46667	24
3.47033	24
3.47400	24
3.47767	24
3.48133	24
3.48500	24
3.48867	24
3.49233	24
3.49600	24
3.49967	24
3.50333	24
3.50700	24
3.51067	25
3.51433	25
3.51800	25
3.52167	25
3.52533	25
3.52900	25
3.53267	25
3.53633	25
3.54000	25
3.54367	25
3.54733	24
3.55100	24
3.55467	24
3.55833	24
3.56200	23
3.56567	23
3.56933	23
3.57300	23
3.57667	23
3.58033	23
3.58400	23
3.58767	23
3.59133	23
3.59500	23
3.59867	23
3.60233	23
3.60600	23
3.60967	23
3.61333	24
3.61700	24
3.62067	24
3.62433	24
3.62800	24
3.63167	24
3.63533	23
3.63900	23
3.64267	23
3.64633	23
3.65000	23
3.65367	23
3.65733	23
3.66100	23
3.66467	23
3.66833	24
3.67200	24
3.67567	24
3.67933	24
3.68300	24
3.68667	24
3.69033	24
3.69400	24
3.69767	24
3.70133	24
3.70500	24
3.70867	24
3.71233	24
3.71600	24
3.71967	24
3.72333	24
3.72700	24
3.73067	24
3.73433	24
3.73800	25
3.74167	25
3.74533	24
3.74900	24
3.75267	24
3.75633	24
3.76000	24
3.76367	24
3.76733	24
3.77100	24
3.77467	24
3.77833	24
3.78200	25
3.78567	25
3.78933	25
3.79300	25
3.79667	24
3.80033	24
3.80400	24
3.80767	24
3.81133	24
3.81500	24
3.81867	24
3.82233	24
3.82600	24
3.82967	24
3.83333	24
3.83700	24
3.84067	24
3.84433	24
3.84800	24
3.85167	24
3.85533	24
3.85900	24
3.86267	24
3.86633	24
3.87000	24
3.87367	24
3.87733	24
3.88100	24
3.88467	24
3.88833	24
3.89200	24
3.89567	24
3.89933	24
3.90300	24
3.90667	24
3.91033	24
3.91400	23
3.91767	23
3.92133	23
3.92500	23
3.92867	23
3.93233	23
3.93600	23
3.93967	23
3.94333	23
3.94700	23
3.95067	23
3.95433	24
3.95800	24
3.96167	24
3.96533	24
3.96900	24
3.97267	24
3.97633	24
3.98000	24
3.98367	24
3.98733	24
3.99100	24
3.99467	24
3.99833	24

[Chromatogram (Ch3)]
Interval(msec)	220
# of Points	1091
Start Time(min)	0.002
End Time(min)	3.998
R.Time (min)	Intensity
0.00167	1
0.00533	1
0.00900	0
0.01267	1
0.01633	0
0.02000	-2
0.02367	-2
0.02733	-1
0.03100	-2
0.03467	-1
0.03833	-1
0.04200	-1
0.04567	-3
0.04933	-5
0.05300	-6
0.05667	-4
0.06033	-2
0.06400	-1
0.06767	2
0.07133	4
0.07500	7
0.07867	7
0.08233	6
0.08600	5
0.08967	5
0.09333	3
0.09700	1
0.10067	2
0.10433	2
0.10800	1
0.11167	1
0.11533	3
0.11900	4
0.12267	2
0.12633	-0
0.13000	-2
0.13367	-1
0.13733	1
0.14100	1
0.14467	2
0.14833	3
0.15200	3
0.15567	2
0.15933	1
0.16300	2
0.16667	3
0.17033	2
0.17400	2
0.17767	5
0.18133	5
0.18500	6
0.18867	3
0.19233	1
0.19600	1
0.19967	3
0.20333	4
0.20700	3
0.21067	2
0.21433	3
0.21800	4
0.22167	4
0.22533	3
0.22900	2
0.23267	3
0.23633	5
0.24000	6
0.24367	4
0.24733	4
0.25100	4
0.25467	5
0.25833	5
0.26200	6
0.26567	8
0.26933	7
0.27300	5
0.27667	5
0.28033	5
0.28400	4
0.28767	3
0.29133	5
0.29500	7
0.29867	8
0.30233	9
0.30600	11
0.30967	12
0.31333	15
0.31700	14
0.32067	13
0.32433	13
0.32800	11
0.33167	9
0.33533	8
0.33900	9
0.34267	10
0.34633	9
0.35000	8
0.35367	6
0.35733	4
0.36100	5
0.36467	8
0.36833	8
0.37200	7
0.37567	9
0.37933	11
0.38300	10
0.38667	8
0.39033	9
0.39400	10
0.39767	10
0.40133	11
0.40500	12
0.40867	15
0.41233	15
0.41600	15
0.41967	16
0.42333	17
0.42700	19
0.43067	18
0.43433	17
0.43800	17
0.44167	17
0.44533	17
0.44900	17
0.45267	16
0.45633	14
0.46000	16
0.46367	17
0.46733	19
0.47100	21
0.47467	22
0.47833	25
0.48200	24
0.48567	21
0.48933	19
0.49300	19
0.49667	20
0.50033	20
0.50400	20
0.50767	21
0.51133	22
0.51500	23
0.51867	23
0.52233	24
0.52600	25
0.52967	24
0.53333	25
0.53700	25
0.54067	26
0.54433	24
0.54800	24
0.55167	23
0.55533	24
0.55900	24
0.56267	26
0.56633	28
0.57000	28
0.57367	25
0.57733	25
0.58100	24
0.58467	24
0.58833	23
0.59200	24
0.59567	24
0.59933	25
0.60300	23
0.60667	20
0.61033	21
0.61400	22
0.61767	23
0.62133	24
0.62500	27
0.62867	29
0.63233	29
0.63600	28
0.63967	28
0.64333	27
0.64700	27
0.65067	26
0.65433	25
0.65800	26
0.66167	26
0.66533	27
0.66900	29
0.67267	32
0.67633	34
0.68000	34
0.68367	33
0.68733	33
0.69100	33
0.69467	32
0.69833	33
0.70200	37
0.70567	38
0.70933	38
0.71300	38
0.71667	37
0.72033	36
0.72400	35
0.72767	36
0.73133	34
0.73500	33
0.73867	33
0.74233	35
0.74600	38
0.74967	38
0.75333	36
0.75700	36
0.76067	34
0.76433	33
0.76800	34
0.77167	35
0.77533	35
0.77900	38
0.78267	40
0.78633	41
0.79000	41
0.79367	41
0.79733	39
0.80100	39
0.80467	41
0.80833	43
0.81200	43
0.81567	43
0.81933	44
0.82300	44
0.82667	44
0.83033	45
0.83400	46
0.83767	46
0.84133	47
0.84500	47
0.84867	46
0.85233	43
0.85600	41
0.85967	41
0.86333	41
0.86700	41
0.87067	40
0.87433	41
0.87800	41
0.88167	43
0.88533	44
0.88900	44
0.89267	45
0.89633	45
0.90000	44
0.90367	44
0.90733	45
0.91100	45
0.91467	44
0.91833	45
0.92200	47
0.92567	47
0.92933	47
0.93300	46
0.93667	45
0.94033	47
0.94400	48
0.94767	49
0.95133	51
0.95500	50
0.95867	52
0.96233	53
0.96600	51
0.96967	49
0.97333	49
0.97700	47
0.98067	43
0.98433	41
0.98800	42
0.99167	43
0.99533	45
0.99900	48
1.00267	51
1.00633	53
1.01000	54
1.01367	55
1.01733	55
1.02100	54
1.02467	54
1.02833	50
1.03200	49
1.03567	50
1.03933	52
1.04300	55
1.04667	56
1.05033	55
1.05400	56
1.05767	57
1.06133	58
1.06500	56
1.06867	54
1.07233	52
1.07600	51
1.07967	54
1.08333	57
1.08700	56
1.09067	55
1.09433	56
1.09800	57
1.10167	57
1.10533	56
1.10900	56
1.11267	55
1.11633	57
1.12000	58
1.12367	57
1.12733	55
1.13100	56
1.13467	58
1.13833	58
1.14200	59
1.14567	60
1.14933	60
1.15300	60
1.15667	60
1.16033	60
1.16400	60
1.16767	60
1.17133	62
1.17500	65
1.17867	65
1.18233	63
1.18600	63
1.18967	61
1.19333	59
1.19700	58
1.20067	58
1.20433	58
1.20800	58
1.21167	63
1.21533	65
1.21900	66
1.22267	65
1.22633	66
1.23000	68
1.23367	68
1.23733	68
1.24100	66
1.24467	63
1.24833	60
1.25200	60
1.25567	62
1.25933	62
1.26300	62
1.26667	64
1.27033	66
1.27400	68
1.27767	68
1.28133	66
1.28500	65
1.28867	65
1.29233	64
1.29600	64
1.29967	65
1.30333	67
1.30700	68
1.31067	67
1.31433	67
1.31800	69
1.32167	71
1.32533	72
1.32900	72
1.33267	71
1.33633	73
1.34000	73
1.34367	71
1.34733	69
1.35100	67
1.35467	67
1.35833	68
1.36200	72
1.36567	73
1.36933	70
1.37300	70
1.37667	72
1.38033	71
1.38400	69
1.38767	67
1.39133	67
1.39500	68
1.39867	68
1.40233	68
1.40600	67
1.40967	66
1.41333	67
1.41700	69
1.42067	69
1.42433	68
1.42800	67
1.43167	67
1.43533	69
1.43900	71
1.44267	72
1.44633	72
1.45000	71
1.45367	68
1.45733	67
1.46100	69
1.46467	72
1.46833	74
1.47200	75
1.47567	74
1.47933	73
1.48300	75
1.48667	75
1.49033	73
1.49400	72
1.49767	73
1.50133	74
1.50500	73
1.50867	73
1.51233	73
1.51600	73
1.51967	75
1.52333	79
1.52700	81
1.53067	80
1.53433	77
1.53800	77
1.54167	77
1.54533	75
1.54900	73
1.55267	74
1.55633	76
1.56000	77
1.56367	77
1.56733	78
1.57100	80
1.57467	81
1.57833	81
1.58200	82
1.58567	81
1.58933	80
1.59300	81
1.59667	83
1.60033	83
1.60400	82
1.60767	82
1.61133	81
1.61500	80
1.61867	81
1.62233	82
1.62600	83
1.62967	84
1.63333	85
1.63700	85
1.64067	85
1.64433	86
1.64800	89
1.65167	92
1.65533	92
1.65900	93
1.66267	93
1.66633	93
1.67000	93
1.67367	93
1.67733	93
1.68100	95
1.68467	98
1.68833	99
1.69200	100
1.69567	102
1.69933	102
1.70300	102
1.70667	104
1.71033	106
1.71400	105
1.71767	105
1.72133	105
1.72500	104
1.72867	105
1.73233	107
1.73600	107
1.73967	109
1.74333	113
1.74700	114
1.75067	115
1.75433	115
1.75800	114
1.76167	114
1.76533	113
1.76900	113
1.77267	113
1.77633	113
1.78000	114
1.78367	115
1.78733	115
1.79100	116
1.79467	118
1.79833	118
1.80200	118
1.80567	119
1.80933	122
1.81300	124
1.81667	123
1.82033	124
1.82400	125
1.82767	125
1.83133	126
1.83500	128
1.83867	128
1.84233	128
1.84600	128
1.84967	128
1.85333	129
1.85700	129
1.86067	129
1.86433	129
1.86800	128
1.87167	128
1.87533	127
1.87900	126
1.88267	126
1.88633	128
1.89000	130
1.89367	132
1.89733	134
1.90100	135
1.90467	135
1.90833	135
1.91200	136
1.91567	134
1.91933	132
1.92300	133
1.92667	135
1.93033	139
1.93400	140
1.93767	141
1.94133	142
1.94500	144
1.94867	145
1.95233	147
1.95600	148
1.95967	148
1.96333	149
1.96700	152
1.97067	153
1.97433	153
1.97800	154
1.98167	151
1.98533	149
1.98900	150
1.99267	152
1.99633	156
2.00000	160
2.00367	162
2.00733	163
2.01100	164
2.01467	165
2.01833	167
2.02200	168
2.02567	168
2.02933	167
2.03300	166
2.03667	166
2.04033	168
2.04400	170
2.04767	173
2.05133	174
2.05500	175
2.05867	177
2.06233	178
2.06600	178
2.06967	180
2.07333	182
2.07700	184
2.08067	185
2.08433	184
2.08800	184
2.09167	187
2.09533	191
2.09900	194
2.10267	195
2.10633	195
2.11000	196
2.11367	199
2.11733	201
2.12100	203
2.12467	205
2.12833	208
2.13200	211
2.13567	214
2.13933	215
2.14300	215
2.14667	214
2.15033	216
2.15400	217
2.15767	217
2.16133	215
2.16500	216
2.16867	219
2.17233	222
2.17600	224
2.17967	225
2.18333	225
2.18700	225
2.19067	225
2.19433	223
2.19800	223
2.20167	226
2.20533	228
2.20900	230
2.21267	235
2.21633	240
2.22000	243
2.22367	243
2.22733	245
2.23100	246
2.23467	247
2.23833	248
2.24200	248
2.24567	248
2.24933	247
2.25300	244
2.25667	243
2.26033	248
2.26400	250
2.26767	250
2.27133	251
2.27500	254
2.27867	255
2.28233	253
2.28600	252
2.28967	252
2.29333	252
2.29700	254
2.30067	255
2.30433	253
2.30800	255
2.31167	257
2.31533	259
2.31900	261
2.32267	262
2.32633	262
2.33000	263
2.33367	265
2.33733	267
2.34100	268
2.34467	273
2.34833	278
2.35200	281
2.35567	284
2.35933	285
2.36300	285
2.36667	285
2.37033	285
2.37400	284
2.37767	283
2.38133	282
2.38500	280
2.38867	280
2.39233	282
2.39600	281
2.39967	280
2.40333	278
2.40700	279
2.41067	280
2.41433	283
2.41800	288
2.42167	291
2.42533	293
2.42900	299
2.43267	301
2.43633	301
2.44000	303
2.44367	310
2.44733	327
2.45100	348
2.45467	362
2.45833	363
2.46200	354
2.46567	340
2.46933	326
2.47300	315
2.47667	306
2.48033	298
2.48400	290
2.48767	283
2.49133	276
2.49500	269
2.49867	261
2.50233	256
2.50600	251
2.50967	246
2.51333	240
2.51700	235
2.52067	231
2.52433	227
2.52800	222
2.53167	220
2.53533	216
2.53900	212
2.54267	203
2.54633	196
2.55000	191
2.55367	189
2.55733	188
2.56100	185
2.56467	179
2.56833	173
2.57200	169
2.57567	167
2.57933	165
2.58300	163
2.58667	162
2.59033	159
2.59400	157
2.59767	151
2.60133	147
2.60500	140
2.60867	126
2.61233	105
2.61600	77
2.61967	44
2.62333	7
2.62700	-29
2.63067	-64
2.63433	-99
2.63800	-130
2.64167	-155
2.64533	-174
2.64900	-188
2.65267	-197
2.65633	-201
2.66000	-202
2.66367	-200
2.66733	-196
2.67100	-189
2.67467	-182
2.67833	-176
2.68200	-170
2.68567	-162
2.68933	-155
2.69300	-148
2.69667	-138
2.70033	-127
2.70400	-118
2.70767	-112
2.71133	-106
2.71500	-99
2.71867	-92
2.72233	-85
2.72600	-77
2.72967	-70
2.73333	-66
2.73700	-61
2.74067	-57
2.74433	-51
2.74800	-43
2.75167	-36
2.75533	-31
2.75900	-26
2.76267	-20
2.76633	-17
2.77000	-15
2.77367	-13
2.77733	-11
2.78100	-8
2.78467	-3
2.78833	2
2.79200	6
2.79567	9
2.79933	10
2.80300	12
2.80667	12
2.81033	11
2.81400	9
2.81767	8
2.82133	9
2.82500	13
2.82867	20
2.83233	34
2.83600	64
2.83967	124
2.84333	237
2.84700	427
2.85067	715
2.85433	1115
2.85800	1623
2.86167	2214
2.86533	2852
2.86900	3491
2.87267	4082
2.87633	4579
2.88000	4939
2.88367	5143
2.88733	5196
2.89100	5112
2.89467	4909
2.89833	4620
2.90200	4280
2.90567	3910
2.90933	3532
2.91300	3164
2.91667	2814
2.92033	2487
2.92400	2187
2.92767	1912
2.93133	1668
2.93500	1453
2.93867	1266
2.94233	1100
2.94600	955
2.94967	828
2.95333	718
2.95700	625
2.96067	542
2.96433	437
2.96800	320
2.97167	237
2.97533	203
2.97900	210
2.98267	241
2.98633	281
2.99000	318
2.99367	351
2.99733	383
3.00100	417
3.00467	453
3.00833	492
3.01200	535
3.01567	583
3.01933	629
3.02300	671
3.02667	710
3.03033	745
3.03400	773
3.03767	799
3.04133	819
3.04500	837
3.04867	852
3.05233	864
3.05600	874
3.05967	880
3.06333	885
3.06700	889
3.07067	893
3.07433	898
3.07800	902
3.08167	904
3.08533	906
3.08900	907
3.09267	910
3.09633	911
3.10000	912
3.10367	914
3.10733	913
3.11100	912
3.11467	914
3.11833	913
3.12200	913
3.12567	911
3.12933	909
3.13300	908
3.13667	907
3.14033	909
3.14400	910
3.14767	907
3.15133	904
3.15500	902
3.15867	899
3.16233	899
3.16600	898
3.16967	897
3.17333	897
3.17700	897
3.18067	895
3.18433	890
3.18800	889
3.19167	891
3.19533	893
3.19900	894
3.20267	894
3.20633	893
3.21000	892
3.21367	892
3.21733	890
3.22100	888
3.22467	887
3.22833	885
3.23200	885
3.23567	885
3.23933	884
3.24300	883
3.24667	881
3.25033	881
3.25400	880
3.25767	878
3.26133	876
3.26500	875
3.26867	873
3.27233	870
3.27600	869
3.27967	869
3.28333	867
3.28700	866
3.29067	863
3.29433	859
3.29800	856
3.30167	851
3.30533	847
3.30900	847
3.31267	847
3.31633	845
3.32000	840
3.32367	836
3.32733	834
3.33100	830
3.33467	826
3.33833	822
3.34200	817
3.34567	815
3.34933	812
3.35300	808
3.35667	804
3.36033	800
3.36400	796
3.36767	791
3.37133	785
3.37500	779
3.37867	775
3.38233	772
3.38600	769
3.38967	766
3.39333	762
3.39700	758
3.40067	754
3.40433	751
3.40800	745
3.41167	741
3.41533	738
3.41900	736
3.42267	731
3.42633	727
3.43000	726
3.43367	726
3.43733	723
3.44100	719
3.44467	716
3.44833	713
3.45200	709
3.45567	704
3.45933	701
3.46300	695
3.46667	691
3.47033	688
3.47400	686
3.47767	683
3.48133	682
3.48500	682
3.48867	680
3.49233	676
3.49600	670
3.49967	666
3.50333	665
3.50700	664
3.51067	664
3.51433	662
3.51800	659
3.52167	654
3.52533	651
3.52900	651
3.53267	651
3.53633	648
3.54000	646
3.54367	643
3.54733	641
3.55100	637
3.55467	633
3.55833	630
3.56200	627
3.56567	624
3.56933	623
3.57300	621
3.57667	620
3.58033	620
3.58400	620
3.58767	620
3.59133	620
3.59500	616
3.59867	612
3.60233	608
3.60600	604
3.60967	602
3.61333	602
3.61700	601
3.62067	598
3.62433	596
3.62800	594
3.63167	592
3.63533	591
3.63900	590
3.64267	587
3.64633	585
3.65000	583
3.65367	578
3.65733	573
3.66100	572
3.66467	571
3.66833	569
3.67200	568
3.67567	567
3.67933	566
3.68300	565
3.68667	562
3.69033	558
3.69400	555
3.69767	553
3.70133	551
3.70500	551
3.70867	552
3.71233	551
3.71600	548
3.71967	545
3.72333	542
3.72700	540
3.73067	539
3.73433	536
3.73800	534
3.74167	532
3.74533	530
3.74900	531
3.75267	530
3.75633	529
3.76000	525
3.76367	522
3.76733	518
3.77100	517
3.77467	518
3.77833	519
3.78200	518
3.78567	516
3.78933	513
3.79300	512
3.79667	511
3.80033	510
3.80400	510
3.80767	508
3.81133	506
3.81500	503
3.81867	500
3.82233	497
3.82600	493
3.82967	492
3.83333	491
3.83700	490
3.84067	488
3.84433	487
3.84800	482
3.85167	481
3.85533	478
3.85900	472
3.86267	468
3.86633	467
3.87000	468
3.87367	467
3.87733	467
3.88100	466
3.88467	464
3.88833	465
3.89200	464
3.89567	461
3.89933	456
3.90300	453
3.90667	452
3.91033	449
3.91400	447
3.91767	445
3.92133	444
3.92500	442
3.92867	439
3.93233	437
3.93600	436
3.93967	436
3.94333	435
3.94700	433
3.95067	431
3.95433	430
3.95800	429
3.96167	430
3.96533	430
3.96900	430
3.97267	429
3.97633	427
3.98000	426
3.98367	425
3.98733	425
3.99100	421
3.99467	415
3.99833	411

[Status Trace (Column Oven Temperature)]
Interval(msec)	1000
# of Points	240
Start Time(min)	0.006
End Time(min)	3.989
Intensity Units	
Intensity Multiplier	1
R.Time (min)	Intensity
0.00597	35.03
0.02263	35.02
0.03930	35.02
0.05597	35.03
0.07263	35.05
0.08930	35.06
0.10597	35.06
0.12263	35.08
0.13930	35.08
0.15597	35.08
0.17263	35.08
0.18930	35.08
0.20597	35.06
0.22263	35.06
0.23930	35.04
0.25597	35.03
0.27263	35.02
0.28930	35.01
0.30597	35.00
0.32263	34.98
0.33930	34.97
0.35597	34.98
0.37263	34.97
0.38930	34.96
0.40597	34.96
0.42263	34.96
0.43930	34.96
0.45597	34.96
0.47263	34.95
0.48930	34.95
0.50597	34.95
0.52263	34.97
0.53930	34.98
0.55597	34.98
0.57263	34.98
0.58930	34.98
0.60597	34.97
0.62263	34.96
0.63930	34.96
0.65597	34.96
0.67263	34.96
0.68930	34.96
0.70597	34.96
0.72263	34.98
0.73930	34.98
0.75597	34.99
0.77263	34.99
0.78930	34.98
0.80597	34.98
0.82263	34.97
0.83930	34.96
0.85597	34.96
0.87263	34.97
0.88930	34.97
0.90597	34.98
0.92263	34.99
0.93930	35.01
0.95597	35.01
0.97263	35.00
0.98930	34.99
1.00597	34.97
1.02263	34.98
1.03930	34.99
1.05597	35.01
1.07263	35.01
1.08930	35.01
1.10597	35.01
1.12263	35.00
1.13930	34.99
1.15597	34.99
1.17263	35.00
1.18930	35.01
1.20597	35.01
1.22263	34.99
1.23930	34.98
1.25597	34.97
1.27263	34.97
1.28930	34.96
1.30597	34.96
1.32263	34.96
1.33930	34.97
1.35597	34.98
1.37263	34.99
1.38930	35.01
1.40597	35.00
1.42263	34.99
1.43930	34.98
1.45597	34.97
1.47263	34.97
1.48930	34.98
1.50597	34.97
1.52263	34.97
1.53930	34.97
1.55597	34.97
1.57263	34.98
1.58930	34.99
1.60597	35.04
1.62263	35.16
1.63930	35.35
1.65597	35.60
1.67263	35.93
1.68930	36.30
1.70597	36.67
1.72263	37.00
1.73930	37.30
1.75597	37.62
1.77263	37.98
1.78930	38.31
1.80597	38.65
1.82263	38.96
1.83930	39.29
1.85597	39.63
1.87263	39.96
1.88930	40.29
1.90597	40.60
1.92263	40.93
1.93930	41.27
1.95597	41.59
1.97263	41.92
1.98930	42.25
2.00597	42.58
2.02263	42.90
2.03930	43.23
2.05597	43.56
2.07263	43.87
2.08930	44.21
2.10597	44.53
2.12263	44.84
2.13930	45.16
2.15597	45.50
2.17263	45.82
2.18930	46.13
2.20597	46.47
2.22263	46.80
2.23930	47.13
2.25597	47.46
2.27263	47.79
2.28930	48.14
2.30597	48.46
2.32263	48.78
2.33930	49.12
2.35597	49.43
2.37263	49.64
2.38930	49.72
2.40597	49.70
2.42263	49.72
2.43930	49.72
2.45597	49.73
2.47263	49.74
2.48930	49.74
2.50597	49.75
2.52263	49.77
2.53930	49.79
2.55597	49.82
2.57263	49.82
2.58930	49.83
2.60597	49.82
2.62263	49.83
2.63930	49.83
2.65597	49.86
2.67263	49.85
2.68930	49.85
2.70597	49.86
2.72263	49.89
2.73930	49.90
2.75597	49.89
2.77263	49.88
2.78930	49.87
2.80597	49.87
2.82263	49.88
2.83930	49.88
2.85597	49.89
2.87263	49.90
2.88930	49.92
2.90597	49.94
2.92263	49.95
2.93930	49.97
2.95597	49.98
2.97263	50.00
2.98930	50.00
3.00597	50.01
3.02263	50.03
3.03930	50.04
3.05597	50.05
3.07263	50.06
3.08930	50.07
3.10597	50.07
3.12263	50.07
3.13930	50.08
3.15597	50.08
3.17263	50.10
3.18930	50.10
3.20597	50.10
3.22263	50.10
3.23930	50.10
3.25597	50.08
3.27263	50.07
3.28930	50.06
3.30597	50.06
3.32263	50.04
3.33930	50.03
3.35597	50.03
3.37263	50.04
3.38930	50.03
3.40597	50.04
3.42263	50.05
3.43930	50.05
3.45597	50.05
3.47263	50.05
3.48930	50.05
3.50597	50.04
3.52263	50.03
3.53930	50.03
3.55597	50.04
3.57263	50.04
3.58930	50.05
3.60597	50.06
3.62263	50.06
3.63930	50.06
3.65597	50.06
3.67263	50.06
3.68930	50.06
3.70597	50.07
3.72263	50.06
3.73930	50.06
3.75597	50.06
3.77263	50.06
3.78930	50.06
3.80597	50.06
3.82263	50.06
3.83930	50.07
3.85597	50.07
3.87263	50.07
3.88930	50.07
3.90597	50.08
3.92263	50.08
3.93930	50.08
3.95597	50.08
3.97263	50.08
3.98930	50.07

[Status Trace (Injection Unit Temperature)]
Interval(msec)	1000
# of Points	240
Start Time(min)	0.006
End Time(min)	3.989
Intensity Units	
Intensity Multiplier	1
R.Time (min)	Intensity
0.00597	99.98
0.02263	99.99
0.03930	99.98
0.05597	99.99
0.07263	99.98
0.08930	99.99
0.10597	99.99
0.12263	99.99
0.13930	99.98
0.15597	99.99
0.17263	99.99
0.18930	99.98
0.20597	99.99
0.22263	99.98
0.23930	99.98
0.25597	99.98
0.27263	99.98
0.28930	99.98
0.30597	99.98
0.32263	99.99
0.33930	99.98
0.35597	99.98
0.37263	99.98
0.38930	99.98
0.40597	99.98
0.42263	99.98
0.43930	99.98
0.45597	99.98
0.47263	99.98
0.48930	99.98
0.50597	99.98
0.52263	99.98
0.53930	99.98
0.55597	99.98
0.57263	99.98
0.58930	99.97
0.60597	99.98
0.62263	99.97
0.63930	99.98
0.65597	99.98
0.67263	99.98
0.68930	99.98
0.70597	99.98
0.72263	99.98
0.73930	99.97
0.75597	99.98
0.77263	99.98
0.78930	99.98
0.80597	99.98
0.82263	99.98
0.83930	99.98
0.85597	99.98
0.87263	99.98
0.88930	99.98
0.90597	99.98
0.92263	99.98
0.93930	99.98
0.95597	99.98
0.97263	99.98
0.98930	99.98
1.00597	99.98
1.02263	99.98
1.03930	99.98
1.05597	99.98
1.07263	99.98
1.08930	99.99
1.10597	99.98
1.12263	99.98
1.13930	99.98
1.15597	99.98
1.17263	99.98
1.18930	99.98
1.20597	99.98
1.22263	99.99
1.23930	99.98
1.25597	99.98
1.27263	99.98
1.28930	99.98
1.30597	99.98
1.32263	99.98
1.33930	99.98
1.35597	99.98
1.37263	99.98
1.38930	99.98
1.40597	99.98
1.42263	99.98
1.43930	99.98
1.45597	99.98
1.47263	99.99
1.48930	99.98
1.50597	99.98
1.52263	99.98
1.53930	99.98
1.55597	99.99
1.57263	99.98
1.58930	99.98
1.60597	99.99
1.62263	99.98
1.63930	99.99
1.65597	99.98
1.67263	99.99
1.68930	99.99
1.70597	99.99
1.72263	99.98
1.73930	99.98
1.75597	99.99
1.77263	99.98
1.78930	99.99
1.80597	99.98
1.82263	99.99
1.83930	99.99
1.85597	99.98
1.87263	99.98
1.88930	99.98
1.90597	99.98
1.92263	99.98
1.93930	99.98
1.95597	99.98
1.97263	99.98
1.98930	99.98
2.00597	99.98
2.02263	99.98
2.03930	99.98
2.05597	99.98
2.07263	99.98
2.08930	99.98
2.10597	99.97
2.12263	99.97
2.13930	99.97
2.15597	99.97
2.17263	99.98
2.18930	99.97
2.20597	99.97
2.22263	99.97
2.23930	99.97
2.25597	99.97
2.27263	99.97
2.28930	99.97
2.30597	99.97
2.32263	99.97
2.33930	99.97
2.35597	99.97
2.37263	99.97
2.38930	99.96
2.40597	99.97
2.42263	99.96
2.43930	99.97
2.45597	99.97
2.47263	99.97
2.48930	99.97
2.50597	99.97
2.52263	99.97
2.53930	99.97
2.55597	99.97
2.57263	99.97
2.58930	99.98
2.60597	99.98
2.62263	99.98
2.63930	99.98
2.65597	99.98
2.67263	99.98
2.68930	99.99
2.70597	99.99
2.72263	99.98
2.73930	99.99
2.75597	99.99
2.77263	99.99
2.78930	99.99
2.80597	99.99
2.82263	99.99
2.83930	100.00
2.85597	99.99
2.87263	100.00
2.88930	100.00
2.90597	99.99
2.92263	100.00
2.93930	100.00
2.95597	100.00
2.97263	100.00
2.98930	100.00
3.00597	100.00
3.02263	100.01
3.03930	100.01
3.05597	100.01
3.07263	100.01
3.08930	100.01
3.10597	100.02
3.12263	100.02
3.13930	100.02
3.15597	100.02
3.17263	100.02
3.18930	100.02
3.20597	100.02
3.22263	100.02
3.23930	100.03
3.25597	100.02
3.27263	100.03
3.28930	100.03
3.30597	100.03
3.32263	100.03
3.33930	100.03
3.35597	100.03
3.37263	100.03
3.38930	100.03
3.40597	100.03
3.42263	100.04
3.43930	100.04
3.45597	100.04
3.47263	100.03
3.48930	100.04
3.50597	100.04
3.52263	100.04
3.53930	100.05
3.55597	100.04
3.57263	100.04
3.58930	100.04
3.60597	100.04
3.62263	100.04
3.63930	100.05
3.65597	100.04
3.67263	100.05
3.68930	100.04
3.70597	100.05
3.72263	100.05
3.73930	100.04
3.75597	100.05
3.77263	100.05
3.78930	100.05
3.80597	100.04
3.82263	100.04
3.83930	100.04
3.85597	100.05
3.87263	100.05
3.88930	100.04
3.90597	100.05
3.92263	100.05
3.93930	100.05
3.95597	100.05
3.97263	100.04
3.98930	100.04

[Status Trace (Carrier Gas Pressure)]
Interval(msec)	1000
# of Points	240
Start Time(min)	0.006
End Time(min)	3.989
Intensity Units	
Intensity Multiplier	1
R.Time (min)	Intensity
0.00597	58.00
0.02263	55.62
0.03930	56.76
0.05597	58.99
0.07263	59.63
0.08930	58.14
0.10597	57.98
0.12263	58.01
0.13930	58.01
0.15597	58.01
0.17263	58.00
0.18930	58.00
0.20597	58.00
0.22263	58.00
0.23930	58.00
0.25597	58.00
0.27263	58.00
0.28930	58.00
0.30597	58.00
0.32263	58.00
0.33930	58.00
0.35597	58.00
0.37263	58.00
0.38930	58.00
0.40597	58.00
0.42263	58.00
0.43930	58.00
0.45597	58.00
0.47263	58.00
0.48930	58.00
0.50597	58.00
0.52263	58.00
0.53930	58.00
0.55597	58.00
0.57263	58.00
0.58930	58.00
0.60597	58.00
0.62263	58.00
0.63930	58.00
0.65597	58.00
0.67263	58.00
0.68930	58.00
0.70597	58.00
0.72263	58.00
0.73930	58.00
0.75597	58.00
0.77263	58.00
0.78930	58.00
0.80597	58.00
0.82263	58.00
0.83930	58.00
0.85597	58.00
0.87263	58.00
0.88930	58.00
0.90597	58.00
0.92263	58.00
0.93930	58.00
0.95597	58.00
0.97263	58.00
0.98930	58.00
1.00597	58.00
1.02263	58.00
1.03930	58.00
1.05597	58.00
1.07263	58.00
1.08930	58.00
1.10597	58.00
1.12263	58.00
1.13930	58.00
1.15597	58.00
1.17263	58.00
1.18930	58.00
1.20597	58.00
1.22263	58.00
1.23930	58.00
1.25597	58.00
1.27263	58.00
1.28930	58.00
1.30597	58.00
1.32263	58.00
1.33930	58.00
1.35597	58.00
1.37263	58.00
1.38930	58.00
1.40597	58.00
1.42263	58.00
1.43930	58.00
1.45597	58.00
1.47263	58.00
1.48930	58.00
1.50597	58.00
1.52263	58.00
1.53930	58.00
1.55597	58.00
1.57263	58.00
1.58930	58.00
1.60597	58.00
1.62263	58.01
1.63930	58.00
1.65597	58.00
1.67263	58.01
1.68930	58.01
1.70597	58.00
1.72263	58.00
1.73930	58.00
1.75597	58.00
1.77263	58.00
1.78930	58.00
1.80597	58.00
1.82263	58.00
1.83930	58.00
1.85597	58.00
1.87263	58.00
1.88930	58.00
1.90597	58.00
1.92263	58.00
1.93930	58.00
1.95597	58.00
1.97263	58.00
1.98930	58.00
2.00597	58.00
2.02263	58.00
2.03930	58.00
2.05597	58.00
2.07263	58.00
2.08930	58.00
2.10597	58.00
2.12263	58.00
2.13930	58.00
2.15597	58.00
2.17263	58.00
2.18930	58.00
2.20597	58.00
2.22263	58.00
2.23930	58.00
2.25597	58.00
2.27263	58.00
2.28930	58.00
2.30597	58.00
2.32263	58.00
2.33930	58.00
2.35597	58.00
2.37263	57.99
2.38930	57.99
2.40597	57.99
2.42263	58.00
2.43930	58.00
2.45597	58.00
2.47263	58.00
2.48930	58.00
2.50597	57.99
2.52263	57.99
2.53930	58.00
2.55597	58.00
2.57263	58.00
2.58930	58.00
2.60597	58.00
2.62263	58.00
2.63930	58.00
2.65597	58.00
2.67263	58.00
2.68930	58.00
2.70597	58.00
2.72263	58.00
2.73930	58.00
2.75597	58.00
2.77263	58.00
2.78930	58.00
2.80597	58.00
2.82263	58.00
2.83930	58.00
2.85597	58.00
2.87263	58.00
2.88930	58.00
2.90597	58.00
2.92263	58.00
2.93930	58.00
2.95597	58.00
2.97263	58.00
2.98930	58.00
3.00597	58.00
3.02263	58.00
3.03930	58.00
3.05597	58.00
3.07263	58.00
3.08930	58.00
3.10597	58.00
3.12263	58.00
3.13930	58.00
3.15597	58.00
3.17263	58.00
3.18930	58.00
3.20597	58.00
3.22263	58.00
3.23930	58.00
3.25597	58.00
3.27263	58.00
3.28930	58.00
3.30597	58.00
3.32263	58.00
3.33930	58.00
3.35597	58.00
3.37263	58.00
3.38930	58.00
3.40597	58.00
3.42263	58.00
3.43930	58.00
3.45597	58.00
3.47263	58.00
3.48930	58.00
3.50597	58.00
3.52263	58.00
3.53930	58.00
3.55597	58.00
3.57263	58.00
3.58930	58.00
3.60597	58.00
3.62263	58.00
3.63930	58.00
3.65597	58.00
3.67263	58.00
3.68930	58.00
3.70597	58.00
3.72263	58.00
3.73930	58.00
3.75597	58.00
3.77263	58.00
3.78930	58.00
3.80597	58.00
3.82263	58.00
3.83930	58.00
3.85597	58.00
3.87263	58.00
3.88930	58.00
3.90597	58.00
3.92263	58.00
3.93930	58.00
3.95597	58.00
3.97263	58.00
3.98930	58.00

[Status Trace (Carrier Gas Flow)]
Interval(msec)	1000
# of Points	240
Start Time(min)	0.006
End Time(min)	3.989
Intensity Units	
Intensity Multiplier	1
R.Time (min)	Intensity
0.00597	34.52
0.02263	34.54
0.03930	34.55
0.05597	34.55
0.07263	34.49
0.08930	34.50
0.10597	34.52
0.12263	34.52
0.13930	34.52
0.15597	34.52
0.17263	34.52
0.18930	34.52
0.20597	34.52
0.22263	34.52
0.23930	34.52
0.25597	34.51
0.27263	34.52
0.28930	34.52
0.30597	34.52
0.32263	34.52
0.33930	34.51
0.35597	34.51
0.37263	34.52
0.38930	34.52
0.40597	34.51
0.42263	34.52
0.43930	34.53
0.45597	34.53
0.47263	34.52
0.48930	34.53
0.50597	34.52
0.52263	34.51
0.53930	34.51
0.55597	34.52
0.57263	34.52
0.58930	34.52
0.60597	34.52
0.62263	34.52
0.63930	34.52
0.65597	34.52
0.67263	34.53
0.68930	34.53
0.70597	34.52
0.72263	34.52
0.73930	34.52
0.75597	34.52
0.77263	34.52
0.78930	34.52
0.80597	34.52
0.82263	34.52
0.83930	34.52
0.85597	34.52
0.87263	34.52
0.88930	34.52
0.90597	34.52
0.92263	34.52
0.93930	34.51
0.95597	34.52
0.97263	34.52
0.98930	34.52
1.00597	34.52
1.02263	34.52
1.03930	34.52
1.05597	34.52
1.07263	34.52
1.08930	34.52
1.10597	34.52
1.12263	34.52
1.13930	34.52
1.15597	34.52
1.17263	34.52
1.18930	34.52
1.20597	34.52
1.22263	34.52
1.23930	34.52
1.25597	34.52
1.27263	34.52
1.28930	34.52
1.30597	34.52
1.32263	34.52
1.33930	34.52
1.35597	34.52
1.37263	34.52
1.38930	34.52
1.40597	34.52
1.42263	34.52
1.43930	34.52
1.45597	34.52
1.47263	34.52
1.48930	34.52
1.50597	34.52
1.52263	34.52
1.53930	34.52
1.55597	34.52
1.57263	34.52
1.58930	34.52
1.60597	34.52
1.62263	34.52
1.63930	34.52
1.65597	34.52
1.67263	34.52
1.68930	34.52
1.70597	34.52
1.72263	34.52
1.73930	34.52
1.75597	34.52
1.77263	34.52
1.78930	34.52
1.80597	34.52
1.82263	34.52
1.83930	34.52
1.85597	34.52
1.87263	34.52
1.88930	34.52
1.90597	34.52
1.92263	34.52
1.93930	34.52
1.95597	34.52
1.97263	34.52
1.98930	34.52
2.00597	34.52
2.02263	34.52
2.03930	34.52
2.05597	34.52
2.07263	34.52
2.08930	34.52
2.10597	34.52
2.12263	34.52
2.13930	34.52
2.15597	34.52
2.17263	34.52
2.18930	34.52
2.20597	34.52
2.22263	34.52
2.23930	34.52
2.25597	34.52
2.27263	34.52
2.28930	34.52
2.30597	34.52
2.32263	34.52
2.33930	34.52
2.35597	34.52
2.37263	34.52
2.38930	34.52
2.40597	34.52
2.42263	34.52
2.43930	34.52
2.45597	34.52
2.47263	34.52
2.48930	34.52
2.50597	34.50
2.52263	34.52
2.53930	34.52
2.55597	34.52
2.57263	34.52
2.58930	34.52
2.60597	34.52
2.62263	34.52
2.63930	34.52
2.65597	34.52
2.67263	34.52
2.68930	34.52
2.70597	34.52
2.72263	34.52
2.73930	34.52
2.75597	34.52
2.77263	34.52
2.78930	34.52
2.80597	34.52
2.82263	34.52
2.83930	34.52
2.85597	34.52
2.87263	34.52
2.88930	34.52
2.90597	34.52
2.92263	34.52
2.93930	34.52
2.95597	34.52
2.97263	34.52
2.98930	34.52
3.00597	34.52
3.02263	34.52
3.03930	34.52
3.05597	34.52
3.07263	34.52
3.08930	34.52
3.10597	34.52
3.12263	34.52
3.13930	34.52
3.15597	34.52
3.17263	34.52
3.18930	34.52
3.20597	34.52
3.22263	34.52
3.23930	34.52
3.25597	34.52
3.27263	34.52
3.28930	34.52
3.30597	34.52
3.32263	34.52
3.33930	34.52
3.35597	34.52
3.37263	34.52
3.38930	34.52
3.40597	34.52
3.42263	34.52
3.43930	34.52
3.45597	34.52
3.47263	34.52
3.48930	34.52
3.50597	34.52
3.52263	34.52
3.53930	34.52
3.55597	34.52
3.57263	34.52
3.58930	34.52
3.60597	34.52
3.62263	34.52
3.63930	34.52
3.65597	34.52
3.67263	34.52
3.68930	34.52
3.70597	34.52
3.72263	34.52
3.73930	34.52
3.75597	34.52
3.77263	34.52
3.78930	34.52
3.80597	34.52
3.82263	34.52
3.83930	34.52
3.85597	34.52
3.87263	34.52
3.88930	34.52
3.90597	34.52
3.92263	34.52
3.93930	34.52
3.95597	34.52
3.97263	34.52
3.98930	34.52

[Status Trace (Column Flow)]
Interval(msec)	1000
# of Points	240
Start Time(min)	0.006
End Time(min)	3.989
Intensity Units	
Intensity Multiplier	1
R.Time (min)	Intensity
0.00597	5.46
0.02263	5.18
0.03930	5.32
0.05597	5.57
0.07263	5.65
0.08930	5.47
0.10597	5.45
0.12263	5.46
0.13930	5.46
0.15597	5.46
0.17263	5.46
0.18930	5.46
0.20597	5.46
0.22263	5.46
0.23930	5.46
0.25597	5.46
0.27263	5.46
0.28930	5.46
0.30597	5.46
0.32263	5.46
0.33930	5.46
0.35597	5.46
0.37263	5.46
0.38930	5.46
0.40597	5.46
0.42263	5.46
0.43930	5.46
0.45597	5.46
0.47263	5.46
0.48930	5.46
0.50597	5.46
0.52263	5.46
0.53930	5.46
0.55597	5.46
0.57263	5.46
0.58930	5.46
0.60597	5.46
0.62263	5.46
0.63930	5.46
0.65597	5.46
0.67263	5.46
0.68930	5.46
0.70597	5.46
0.72263	5.46
0.73930	5.46
0.75597	5.46
0.77263	5.46
0.78930	5.46
0.80597	5.46
0.82263	5.46
0.83930	5.46
0.85597	5.46
0.87263	5.46
0.88930	5.46
0.90597	5.46
0.92263	5.46
0.93930	5.46
0.95597	5.46
0.97263	5.46
0.98930	5.46
1.00597	5.46
1.02263	5.46
1.03930	5.46
1.05597	5.46
1.07263	5.46
1.08930	5.46
1.10597	5.46
1.12263	5.46
1.13930	5.46
1.15597	5.46
1.17263	5.46
1.18930	5.46
1.20597	5.46
1.22263	5.46
1.23930	5.46
1.25597	5.46
1.27263	5.46
1.28930	5.46
1.30597	5.46
1.32263	5.46
1.33930	5.46
1.35597	5.46
1.37263	5.46
1.38930	5.46
1.40597	5.46
1.42263	5.46
1.43930	5.46
1.45597	5.46
1.47263	5.46
1.48930	5.46
1.50597	5.46
1.52263	5.46
1.53930	5.46
1.55597	5.46
1.57263	5.46
1.58930	5.46
1.60597	5.46
1.62263	5.45
1.63930	5.45
1.65597	5.44
1.67263	5.43
1.68930	5.42
1.70597	5.41
1.72263	5.40
1.73930	5.39
1.75597	5.38
1.77263	5.37
1.78930	5.36
1.80597	5.35
1.82263	5.34
1.83930	5.33
1.85597	5.32
1.87263	5.31
1.88930	5.30
1.90597	5.29
1.92263	5.28
1.93930	5.27
1.95597	5.26
1.97263	5.25
1.98930	5.24
2.00597	5.23
2.02263	5.22
2.03930	5.21
2.05597	5.20
2.07263	5.19
2.08930	5.18
2.10597	5.17
2.12263	5.16
2.13930	5.16
2.15597	5.15
2.17263	5.14
2.18930	5.13
2.20597	5.12
2.22263	5.11
2.23930	5.10
2.25597	5.09
2.27263	5.08
2.28930	5.07
2.30597	5.06
2.32263	5.05
2.33930	5.05
2.35597	5.04
2.37263	5.03
2.38930	5.03
2.40597	5.03
2.42263	5.03
2.43930	5.03
2.45597	5.03
2.47263	5.03
2.48930	5.03
2.50597	5.03
2.52263	5.02
2.53930	5.03
2.55597	5.03
2.57263	5.02
2.58930	5.02
2.60597	5.02
2.62263	5.02
2.63930	5.02
2.65597	5.02
2.67263	5.02
2.68930	5.02
2.70597	5.02
2.72263	5.02
2.73930	5.02
2.75597	5.02
2.77263	5.02
2.78930	5.02
2.80597	5.02
2.82263	5.02
2.83930	5.02
2.85597	5.02
2.87263	5.02
2.88930	5.02
2.90597	5.02
2.92263	5.02
2.93930	5.02
2.95597	5.02
2.97263	5.02
2.98930	5.02
3.00597	5.02
3.02263	5.02
3.03930	5.02
3.05597	5.02
3.07263	5.02
3.08930	5.02
3.10597	5.02
3.12263	5.02
3.13930	5.02
3.15597	5.02
3.17263	5.02
3.18930	5.02
3.20597	5.02
3.22263	5.02
3.23930	5.02
3.25597	5.02
3.27263	5.02
3.28930	5.02
3.30597	5.02
3.32263	5.02
3.33930	5.02
3.35597	5.02
3.37263	5.02
3.38930	5.02
3.40597	5.02
3.42263	5.02
3.43930	5.02
3.45597	5.02
3.47263	5.02
3.48930	5.02
3.50597	5.02
3.52263	5.02
3.53930	5.02
3.55597	5.02
3.57263	5.02
3.58930	5.02
3.60597	5.02
3.62263	5.02
3.63930	5.02
3.65597	5.02
3.67263	5.02
3.68930	5.02
3.70597	5.02
3.72263	5.02
3.73930	5.02
3.75597	5.02
3.77263	5.02
3.78930	5.02
3.80597	5.02
3.82263	5.02
3.83930	5.02
3.85597	5.02
3.87263	5.02
3.88930	5.02
3.90597	5.02
3.92263	5.02
3.93930	5.02
3.95597	5.02
3.97263	5.02
3.98930	5.02

[Status Trace (Linear Velocity)]
Interval(msec)	1000
# of Points	240
Start Time(min)	0.006
End Time(min)	3.989
Intensity Units	
Intensity Multiplier	1
R.Time (min)	Intensity
0.00597	39.00
0.02263	37.44
0.03930	38.19
0.05597	39.65
0.07263	40.07
0.08930	39.09
0.10597	38.98
0.12263	39.00
0.13930	39.00
0.15597	39.00
0.17263	39.00
0.18930	39.00
0.20597	39.00
0.22263	39.00
0.23930	39.00
0.25597	39.00
0.27263	39.00
0.28930	39.00
0.30597	39.00
0.32263	39.01
0.33930	39.00
0.35597	39.00
0.37263	39.00
0.38930	39.01
0.40597	39.01
0.42263	39.01
0.43930	39.01
0.45597	39.01
0.47263	39.01
0.48930	39.01
0.50597	39.01
0.52263	39.01
0.53930	39.00
0.55597	39.00
0.57263	39.00
0.58930	39.00
0.60597	39.00
0.62263	39.01
0.63930	39.01
0.65597	39.01
0.67263	39.01
0.68930	39.01
0.70597	39.01
0.72263	39.00
0.73930	39.00
0.75597	39.00
0.77263	39.00
0.78930	39.00
0.80597	39.00
0.82263	39.00
0.83930	39.01
0.85597	39.01
0.87263	39.00
0.88930	39.00
0.90597	39.00
0.92263	39.00
0.93930	39.00
0.95597	39.00
0.97263	39.00
0.98930	39.00
1.00597	39.00
1.02263	39.00
1.03930	39.00
1.05597	39.00
1.07263	39.00
1.08930	39.00
1.10597	39.00
1.12263	39.00
1.13930	39.00
1.15597	39.00
1.17263	39.00
1.18930	39.00
1.20597	39.00
1.22263	39.00
1.23930	39.00
1.25597	39.00
1.27263	39.00
1.28930	39.01
1.30597	39.01
1.32263	39.01
1.33930	39.01
1.35597	39.00
1.37263	39.00
1.38930	39.00
1.40597	39.00
1.42263	39.00
1.43930	39.00
1.45597	39.00
1.47263	39.00
1.48930	39.00
1.50597	39.00
1.52263	39.00
1.53930	39.00
1.55597	39.00
1.57263	39.00
1.58930	39.00
1.60597	39.00
1.62263	38.99
1.63930	38.97
1.65597	38.95
1.67263	38.92
1.68930	38.88
1.70597	38.85
1.72263	38.81
1.73930	38.78
1.75597	38.76
1.77263	38.72
1.78930	38.69
1.80597	38.66
1.82263	38.62
1.83930	38.60
1.85597	38.57
1.87263	38.53
1.88930	38.50
1.90597	38.47
1.92263	38.44
1.93930	38.41
1.95597	38.38
1.97263	38.35
1.98930	38.32
2.00597	38.29
2.02263	38.26
2.03930	38.23
2.05597	38.20
2.07263	38.17
2.08930	38.14
2.10597	38.11
2.12263	38.08
2.13930	38.05
2.15597	38.02
2.17263	37.99
2.18930	37.97
2.20597	37.94
2.22263	37.90
2.23930	37.88
2.25597	37.85
2.27263	37.81
2.28930	37.79
2.30597	37.76
2.32263	37.73
2.33930	37.70
2.35597	37.67
2.37263	37.65
2.38930	37.64
2.40597	37.64
2.42263	37.64
2.43930	37.64
2.45597	37.64
2.47263	37.64
2.48930	37.64
2.50597	37.64
2.52263	37.63
2.53930	37.64
2.55597	37.64
2.57263	37.63
2.58930	37.63
2.60597	37.63
2.62263	37.63
2.63930	37.63
2.65597	37.63
2.67263	37.63
2.68930	37.63
2.70597	37.63
2.72263	37.63
2.73930	37.63
2.75597	37.63
2.77263	37.63
2.78930	37.63
2.80597	37.63
2.82263	37.63
2.83930	37.63
2.85597	37.63
2.87263	37.63
2.88930	37.63
2.90597	37.62
2.92263	37.62
2.93930	37.62
2.95597	37.62
2.97263	37.62
2.98930	37.62
3.00597	37.62
3.02263	37.62
3.03930	37.61
3.05597	37.61
3.07263	37.61
3.08930	37.61
3.10597	37.61
3.12263	37.61
3.13930	37.61
3.15597	37.61
3.17263	37.61
3.18930	37.61
3.20597	37.61
3.22263	37.61
3.23930	37.61
3.25597	37.61
3.27263	37.61
3.28930	37.61
3.30597	37.61
3.32263	37.61
3.33930	37.62
3.35597	37.62
3.37263	37.62
3.38930	37.62
3.40597	37.62
3.42263	37.61
3.43930	37.61
3.45597	37.61
3.47263	37.61
3.48930	37.61
3.50597	37.61
3.52263	37.62
3.53930	37.61
3.55597	37.61
3.57263	37.61
3.58930	37.61
3.60597	37.61
3.62263	37.61
3.63930	37.61
3.65597	37.61
3.67263	37.61
3.68930	37.61
3.70597	37.61
3.72263	37.61
3.73930	37.61
3.75597	37.61
3.77263	37.61
3.78930	37.61
3.80597	37.61
3.82263	37.61
3.83930	37.61
3.85597	37.61
3.87263	37.61
3.88930	37.61
3.90597	37.61
3.92263	37.61
3.93930	37.61
3.95597	37.61
3.97263	37.61
3.98930	37.61

