[Header]
Application Name	LabSolutions
Version	5.110
Data File Name	C:\Users\User\Desktop\GC Analyses\Jack\UIC Prairie Sampling\8.12.22\220812_064.gcd
Output Date	10/14/2022
Output Time	2:33:54 PM

[File Information]
Type	Data File
Generated	10/11/2022 12:31:03 PM
Generated by	System Administrator
Modified	10/11/2022 12:35:13 PM
Modified by	System Administrator

[Sample Information]
Operator Name	System Administrator
Acquired	10/11/2022 12:31:12 PM
Sample Type	1:Standard
Level	1
Sample Name	220812_UICPrairie
Sample ID	220812_UICPrairie
ISTD Amount1	1
ISTD Amount2	1
ISTD Amount3	1
ISTD Amount4	1
ISTD Amount5	1
ISTD Amount6	1
ISTD Amount7	1
ISTD Amount8	1
ISTD Amount9	1
ISTD Amount10	1
ISTD Amount11	1
ISTD Amount12	1
ISTD Amount13	1
ISTD Amount14	1
ISTD Amount15	1
ISTD Amount16	1
ISTD Amount17	1
ISTD Amount18	1
ISTD Amount19	1
ISTD Amount20	1
ISTD Amount21	1
ISTD Amount22	1
ISTD Amount23	1
ISTD Amount24	1
ISTD Amount25	1
ISTD Amount26	1
ISTD Amount27	1
ISTD Amount28	1
ISTD Amount29	1
ISTD Amount30	1
ISTD Amount31	1
ISTD Amount32	1
Sample Amount	1
Dilution Factor	1
Vial#	1
Injection Volume	1
Injection Count	1
Bar Code	

[Original Files]
Data File	C:\Users\User\Desktop\GC Analyses\Jack\UIC Prairie Sampling\8.12.22\220812_064.gcd
Method File	C:\LabSolutions\Data\GHG_4min_2022\ghg3_togas_w_acet_4 min_new_int.gcm
Batch File	
Report Format File	c:\LabSolutions\System\DEFAULT.lsr

[File Description]


[Configuration]
Instrument Name	C0B7VH3-Instrument1
Instrument #	1
Line #	1
# of Detectors	3
Detector ID	DET#1	DET#2	DET#3
Detector Name	FID	PTCD	ECD
# of Channels	1	1	1

[Peak Table(Ch1)]
# of Peaks	3
Peak#	R.Time	I.Time	F.Time	Area	Height	A/H	Conc.	Mark	ID#	Name	k'	Plate #	Plate Ht.	Tailing	Resolution	Sep.Factor	Area Ratio	Height Ratio	Conc. %	Norm Conc.
1	1.476	1.439	1.538	11980	5287	2.266	100.000	   	1	CO	0.000	8230	18.227	1.238	0.000	0.000	0	0	16.667	16.667
2	1.571	1.538	1.626	4528	2306	1.963	100.000	 V 	2	CH4	0.065	11578	12.955	1.108	1.544	0.000	0	0	16.667	16.667
3	2.000	1.949	2.282	1255285	609147	2.061	400.000	   	3	CO2	0.355	17857	8.400	1.155	7.255	5.500	0	0	66.667	66.667

[Peak Table(Ch2)]
# of Peaks	0

[Peak Table(Ch3)]
# of Peaks	2
Peak#	R.Time	I.Time	F.Time	Area	Height	A/H	Conc.	Mark	ID#	Name	k'	Plate #	Plate Ht.	Tailing	Resolution	Sep.Factor	Area Ratio	Height Ratio	Conc. %	Norm Conc.
1	2.594	1.934	2.653	5126	457	11.227	0.000	   			0.000	2310	64.924	0.000	0.000	0.000	0	0	0.000	0.000
2	2.880	2.653	3.870	33277	5435	6.123	1.000	 V 	1	N2O	0.110	12053	12.446	1.219	1.783	0.000	0	0	100.000	100.000

[Compound Results(Ch1)]
# of IDs	6
ID#	Name	R.Time	Area	Height	Conc.	Curve	3rd	2nd	1st	Constant	Area Ratio	Height Ratio	Conc. %	Norm Conc.
1	CO	1.476	11980	5287	100.000	Linear	0.000000e+00	0.000000e+00	1.197953e+002	0.000000e+00	0	0	16.667	16.667
2	CH4	1.571	4528	2306	100.000	Linear	0.000000e+00	0.000000e+00	4.527628e+001	0.000000e+00	0	0	16.667	16.667
3	CO2	2.000	1255285	609147	400.000	Linear	0.000000e+00	0.000000e+00	3.138213e+003	0.000000e+00	0	0	66.667	66.667
4	Ethylene	0.000	0	0	0.000	Linear	0.000000e+00	0.000000e+00	0.000000e+00	0.000000e+00	0	0	0.000	0.000
5	Acetylene	0.000	0	0	0.000	Linear	0.000000e+00	0.000000e+00	0.000000e+00	0.000000e+00	0	0	0.000	0.000
6	Ethane	0.000	0	0	0.000	Linear	0.000000e+00	0.000000e+00	0.000000e+00	0.000000e+00	0	0	0.000	0.000

[Compound Results(Ch2)]
# of IDs	5
ID#	Name	R.Time	Area	Height	Conc.	Curve	3rd	2nd	1st	Constant	Area Ratio	Height Ratio	Conc. %	Norm Conc.
1	Hydrogen	0.000	0	0	0.000	Linear	0.000000e+00	0.000000e+00	0.000000e+00	0.000000e+00	0	0	0.000	0.000
2	Oxygen	0.000	0	0	0.000	Linear	0.000000e+00	0.000000e+00	0.000000e+00	0.000000e+00	0	0	0.000	0.000
3	Nitrogen	0.000	0	0	0.000	Linear	0.000000e+00	0.000000e+00	0.000000e+00	0.000000e+00	0	0	0.000	0.000
4	Methane	0.000	0	0	0.000	Linear	0.000000e+00	0.000000e+00	0.000000e+00	0.000000e+00	0	0	0.000	0.000
5	Carbon Monoxide	0.000	0	0	0.000	Linear	0.000000e+00	0.000000e+00	0.000000e+00	0.000000e+00	0	0	0.000	0.000

[Compound Results(Ch3)]
# of IDs	2
ID#	Name	R.Time	Area	Height	Conc.	Curve	3rd	2nd	1st	Constant	Area Ratio	Height Ratio	Conc. %	Norm Conc.
1	N2O	2.880	33277	5435	1.000	Linear	0.000000e+00	0.000000e+00	3.327653e+004	0.000000e+00	0	0	100.000	100.000
2	SF6	0.000	0	0	0.000	Linear	0.000000e+00	0.000000e+00	0.000000e+00	0.000000e+00	0	0	0.000	0.000

[Group Results(Ch1)]
# of Groups	0

[Group Results(Ch2)]
# of Groups	0

[Group Results(Ch3)]
# of Groups	0

[Chromatogram (Ch1)]
Interval(msec)	220
# of Points	1091
Start Time(min)	0.002
End Time(min)	3.998
R.Time (min)	Intensity
0.00167	6
0.00533	5
0.00900	4
0.01267	4
0.01633	4
0.02000	2
0.02367	-2
0.02733	-5
0.03100	-5
0.03467	-4
0.03833	-4
0.04200	-6
0.04567	-6
0.04933	-2
0.05300	1
0.05667	1
0.06033	1
0.06400	0
0.06767	1
0.07133	4
0.07500	5
0.07867	3
0.08233	1
0.08600	0
0.08967	-1
0.09333	-6
0.09700	-12
0.10067	-17
0.10433	-18
0.10800	-17
0.11167	-17
0.11533	-16
0.11900	-14
0.12267	-9
0.12633	-4
0.13000	-1
0.13367	-1
0.13733	-4
0.14100	-6
0.14467	-5
0.14833	-6
0.15200	-9
0.15567	-14
0.15933	-17
0.16300	-18
0.16667	-17
0.17033	-12
0.17400	-4
0.17767	1
0.18133	2
0.18500	1
0.18867	1
0.19233	3
0.19600	3
0.19967	-1
0.20333	-8
0.20700	-14
0.21067	-18
0.21433	-18
0.21800	-17
0.22167	-16
0.22533	-16
0.22900	-18
0.23267	-19
0.23633	-18
0.24000	-15
0.24367	-12
0.24733	-7
0.25100	1
0.25467	8
0.25833	13
0.26200	12
0.26567	5
0.26933	-5
0.27300	-12
0.27667	-19
0.28033	-26
0.28400	-31
0.28767	-31
0.29133	-31
0.29500	-34
0.29867	-37
0.30233	-42
0.30600	-46
0.30967	-46
0.31333	-38
0.31700	-27
0.32067	-16
0.32433	-8
0.32800	-6
0.33167	-10
0.33533	-16
0.33900	-21
0.34267	-25
0.34633	-26
0.35000	-21
0.35367	-14
0.35733	-12
0.36100	-17
0.36467	-22
0.36833	-24
0.37200	-27
0.37567	-31
0.37933	-31
0.38300	-26
0.38667	-18
0.39033	-12
0.39400	-10
0.39767	-7
0.40133	-6
0.40500	-7
0.40867	-11
0.41233	-19
0.41600	-26
0.41967	-33
0.42333	-38
0.42700	-42
0.43067	-45
0.43433	-48
0.43800	-50
0.44167	-45
0.44533	-32
0.44900	-19
0.45267	-13
0.45633	-16
0.46000	-27
0.46367	-39
0.46733	-45
0.47100	-45
0.47467	-43
0.47833	-40
0.48200	-36
0.48567	-32
0.48933	-28
0.49300	-24
0.49667	-21
0.50033	-18
0.50400	-16
0.50767	-21
0.51133	-28
0.51500	-35
0.51867	-40
0.52233	-44
0.52600	-46
0.52967	-45
0.53333	-44
0.53700	-45
0.54067	-45
0.54433	-44
0.54800	-41
0.55167	-37
0.55533	-34
0.55900	-33
0.56267	-34
0.56633	-34
0.57000	-35
0.57367	-35
0.57733	-34
0.58100	-33
0.58467	-33
0.58833	-31
0.59200	-30
0.59567	-27
0.59933	-23
0.60300	-15
0.60667	-7
0.61033	-3
0.61400	-7
0.61767	-14
0.62133	-25
0.62500	-35
0.62867	-42
0.63233	-47
0.63600	-50
0.63967	-53
0.64333	-54
0.64700	-53
0.65067	-52
0.65433	-51
0.65800	-51
0.66167	-52
0.66533	-59
0.66900	-65
0.67267	-67
0.67633	-67
0.68000	-62
0.68367	-51
0.68733	-38
0.69100	-30
0.69467	-32
0.69833	-39
0.70200	-44
0.70567	-47
0.70933	-51
0.71300	-56
0.71667	-61
0.72033	-67
0.72400	-69
0.72767	-69
0.73133	-67
0.73500	-66
0.73867	-62
0.74233	-59
0.74600	-53
0.74967	-46
0.75333	-41
0.75700	-39
0.76067	-41
0.76433	-44
0.76800	-48
0.77167	-49
0.77533	-49
0.77900	-49
0.78267	-50
0.78633	-53
0.79000	-59
0.79367	-67
0.79733	-73
0.80100	-74
0.80467	-75
0.80833	-76
0.81200	-76
0.81567	-73
0.81933	-65
0.82300	-54
0.82667	-44
0.83033	-38
0.83400	-37
0.83767	-42
0.84133	-50
0.84500	-59
0.84867	-66
0.85233	-74
0.85600	-80
0.85967	-82
0.86333	-82
0.86700	-83
0.87067	-84
0.87433	-81
0.87800	-74
0.88167	-72
0.88533	-70
0.88900	-69
0.89267	-68
0.89633	-67
0.90000	-68
0.90367	-71
0.90733	-75
0.91100	-76
0.91467	-77
0.91833	-77
0.92200	-76
0.92567	-75
0.92933	-75
0.93300	-76
0.93667	-77
0.94033	-76
0.94400	-75
0.94767	-71
0.95133	-68
0.95500	-63
0.95867	-63
0.96233	-69
0.96600	-76
0.96967	-77
0.97333	-73
0.97700	-70
0.98067	-72
0.98433	-75
0.98800	-78
0.99167	-80
0.99533	-76
0.99900	-72
1.00267	-70
1.00633	-68
1.01000	-70
1.01367	-76
1.01733	-82
1.02100	-87
1.02467	-93
1.02833	-100
1.03200	-101
1.03567	-95
1.03933	-85
1.04300	-75
1.04667	-72
1.05033	-75
1.05400	-79
1.05767	-80
1.06133	-77
1.06500	-75
1.06867	-74
1.07233	-73
1.07600	-70
1.07967	-67
1.08333	-63
1.08700	-57
1.09067	-50
1.09433	-45
1.09800	-41
1.10167	-40
1.10533	-46
1.10900	-57
1.11267	-68
1.11633	-75
1.12000	-74
1.12367	-72
1.12733	-74
1.13100	-81
1.13467	-89
1.13833	-93
1.14200	-92
1.14567	-91
1.14933	-88
1.15300	-83
1.15667	-81
1.16033	-82
1.16400	-83
1.16767	-82
1.17133	-79
1.17500	-72
1.17867	-67
1.18233	-69
1.18600	-76
1.18967	-84
1.19333	-90
1.19700	-94
1.20067	-99
1.20433	-104
1.20800	-108
1.21167	-106
1.21533	-99
1.21900	-91
1.22267	-82
1.22633	-76
1.23000	-74
1.23367	-73
1.23733	-76
1.24100	-81
1.24467	-84
1.24833	-84
1.25200	-83
1.25567	-83
1.25933	-84
1.26300	-84
1.26667	-82
1.27033	-78
1.27400	-75
1.27767	-77
1.28133	-82
1.28500	-87
1.28867	-89
1.29233	-85
1.29600	-78
1.29967	-73
1.30333	-73
1.30700	-75
1.31067	-79
1.31433	-86
1.31800	-92
1.32167	-95
1.32533	-94
1.32900	-90
1.33267	-87
1.33633	-87
1.34000	-88
1.34367	-94
1.34733	-99
1.35100	-101
1.35467	-99
1.35833	-97
1.36200	-95
1.36567	-91
1.36933	-86
1.37300	-83
1.37667	-79
1.38033	-74
1.38400	-71
1.38767	-74
1.39133	-79
1.39500	-88
1.39867	-95
1.40233	-99
1.40600	-101
1.40967	-100
1.41333	-97
1.41700	-92
1.42067	-87
1.42433	-84
1.42800	-85
1.43167	-86
1.43533	-84
1.43900	-64
1.44267	29
1.44633	273
1.45000	693
1.45367	1316
1.45733	2157
1.46100	3094
1.46467	3953
1.46833	4619
1.47200	5047
1.47567	5218
1.47933	5108
1.48300	4711
1.48667	4083
1.49033	3338
1.49400	2597
1.49767	1944
1.50133	1418
1.50500	1014
1.50867	716
1.51233	493
1.51600	329
1.51967	211
1.52333	129
1.52700	69
1.53067	26
1.53433	-4
1.53800	-16
1.54167	18
1.54533	156
1.54900	444
1.55267	857
1.55633	1305
1.56000	1705
1.56367	2010
1.56733	2193
1.57100	2224
1.57467	2083
1.57833	1791
1.58200	1416
1.58567	1039
1.58933	711
1.59300	454
1.59667	270
1.60033	143
1.60400	59
1.60767	4
1.61133	-33
1.61500	-58
1.61867	-74
1.62233	-83
1.62600	-89
1.62967	-93
1.63333	-94
1.63700	-95
1.64067	-99
1.64433	-105
1.64800	-106
1.65167	-106
1.65533	-108
1.65900	-114
1.66267	-121
1.66633	-126
1.67000	-130
1.67367	-130
1.67733	-125
1.68100	-117
1.68467	-112
1.68833	-112
1.69200	-111
1.69567	-109
1.69933	-109
1.70300	-108
1.70667	-109
1.71033	-106
1.71400	-108
1.71767	-113
1.72133	-120
1.72500	-125
1.72867	-126
1.73233	-124
1.73600	-121
1.73967	-121
1.74333	-125
1.74700	-129
1.75067	-131
1.75433	-129
1.75800	-122
1.76167	-115
1.76533	-110
1.76900	-108
1.77267	-108
1.77633	-109
1.78000	-107
1.78367	-102
1.78733	-96
1.79100	-93
1.79467	-92
1.79833	-93
1.80200	-95
1.80567	-99
1.80933	-103
1.81300	-103
1.81667	-98
1.82033	-95
1.82400	-96
1.82767	-98
1.83133	-103
1.83500	-109
1.83867	-111
1.84233	-110
1.84600	-110
1.84967	-111
1.85333	-111
1.85700	-110
1.86067	-110
1.86433	-113
1.86800	-117
1.87167	-119
1.87533	-120
1.87900	-120
1.88267	-118
1.88633	-112
1.89000	-106
1.89367	-104
1.89733	-106
1.90100	-106
1.90467	-108
1.90833	-107
1.91200	-105
1.91567	-107
1.91933	-108
1.92300	-110
1.92667	-112
1.93033	-112
1.93400	-110
1.93767	-104
1.94133	-97
1.94500	-90
1.94867	-85
1.95233	-72
1.95600	3
1.95967	424
1.96333	2415
1.96700	9710
1.97067	30150
1.97433	74616
1.97800	150696
1.98167	254784
1.98533	371385
1.98900	480164
1.99267	563191
1.99633	608215
2.00000	609090
2.00367	567413
2.00733	493113
2.01100	401831
2.01467	309523
2.01833	227702
2.02200	161785
2.02567	112232
2.02933	76774
2.03300	52248
2.03667	35656
2.04033	24574
2.04400	17210
2.04767	12307
2.05133	9019
2.05500	6782
2.05867	5234
2.06233	4143
2.06600	3359
2.06967	2779
2.07333	2342
2.07700	2008
2.08067	1746
2.08433	1535
2.08800	1361
2.09167	1218
2.09533	1099
2.09900	1001
2.10267	914
2.10633	837
2.11000	771
2.11367	714
2.11733	664
2.12100	624
2.12467	593
2.12833	568
2.13200	543
2.13567	513
2.13933	477
2.14300	438
2.14667	406
2.15033	382
2.15400	363
2.15767	347
2.16133	336
2.16500	327
2.16867	321
2.17233	314
2.17600	303
2.17967	289
2.18333	272
2.18700	254
2.19067	237
2.19433	222
2.19800	211
2.20167	202
2.20533	193
2.20900	185
2.21267	180
2.21633	179
2.22000	176
2.22367	171
2.22733	165
2.23100	159
2.23467	155
2.23833	156
2.24200	159
2.24567	160
2.24933	155
2.25300	145
2.25667	131
2.26033	117
2.26400	109
2.26767	104
2.27133	98
2.27500	94
2.27867	95
2.28233	95
2.28600	90
2.28967	84
2.29333	80
2.29700	79
2.30067	78
2.30433	75
2.30800	75
2.31167	78
2.31533	83
2.31900	88
2.32267	87
2.32633	81
2.33000	76
2.33367	75
2.33733	78
2.34100	81
2.34467	83
2.34833	78
2.35200	71
2.35567	63
2.35933	55
2.36300	49
2.36667	46
2.37033	46
2.37400	48
2.37767	55
2.38133	65
2.38500	75
2.38867	78
2.39233	76
2.39600	73
2.39967	69
2.40333	61
2.40700	53
2.41067	47
2.41433	46
2.41800	46
2.42167	48
2.42533	51
2.42900	54
2.43267	54
2.43633	54
2.44000	52
2.44367	51
2.44733	51
2.45100	52
2.45467	49
2.45833	43
2.46200	38
2.46567	38
2.46933	41
2.47300	46
2.47667	49
2.48033	50
2.48400	49
2.48767	47
2.49133	45
2.49500	40
2.49867	33
2.50233	27
2.50600	24
2.50967	24
2.51333	25
2.51700	26
2.52067	26
2.52433	26
2.52800	26
2.53167	27
2.53533	31
2.53900	34
2.54267	32
2.54633	29
2.55000	27
2.55367	26
2.55733	25
2.56100	22
2.56467	18
2.56833	14
2.57200	11
2.57567	8
2.57933	7
2.58300	6
2.58667	3
2.59033	-4
2.59400	-9
2.59767	-13
2.60133	-16
2.60500	-16
2.60867	-15
2.61233	-12
2.61600	-9
2.61967	-8
2.62333	-10
2.62700	-9
2.63067	-5
2.63433	3
2.63800	12
2.64167	20
2.64533	22
2.64900	20
2.65267	18
2.65633	14
2.66000	9
2.66367	4
2.66733	-3
2.67100	-8
2.67467	-13
2.67833	-16
2.68200	-18
2.68567	-15
2.68933	-13
2.69300	-13
2.69667	-14
2.70033	-16
2.70400	-19
2.70767	-22
2.71133	-22
2.71500	-18
2.71867	-15
2.72233	-15
2.72600	-17
2.72967	-18
2.73333	-14
2.73700	-8
2.74067	-4
2.74433	-0
2.74800	2
2.75167	4
2.75533	1
2.75900	-4
2.76267	-4
2.76633	3
2.77000	12
2.77367	17
2.77733	14
2.78100	6
2.78467	-3
2.78833	-13
2.79200	-20
2.79567	-23
2.79933	-23
2.80300	-24
2.80667	-23
2.81033	-21
2.81400	-20
2.81767	-23
2.82133	-28
2.82500	-31
2.82867	-32
2.83233	-30
2.83600	-26
2.83967	-20
2.84333	-12
2.84700	-6
2.85067	-3
2.85433	-5
2.85800	-8
2.86167	-10
2.86533	-12
2.86900	-17
2.87267	-26
2.87633	-33
2.88000	-35
2.88367	-35
2.88733	-32
2.89100	-27
2.89467	-24
2.89833	-21
2.90200	-18
2.90567	-17
2.90933	-17
2.91300	-17
2.91667	-20
2.92033	-26
2.92400	-31
2.92767	-32
2.93133	-31
2.93500	-31
2.93867	-33
2.94233	-34
2.94600	-34
2.94967	-32
2.95333	-27
2.95700	-22
2.96067	-20
2.96433	-19
2.96800	-18
2.97167	-17
2.97533	-18
2.97900	-20
2.98267	-22
2.98633	-21
2.99000	-18
2.99367	-17
2.99733	-18
3.00100	-22
3.00467	-25
3.00833	-24
3.01200	-19
3.01567	-15
3.01933	-11
3.02300	-8
3.02667	-5
3.03033	-3
3.03400	-1
3.03767	-1
3.04133	-1
3.04500	-3
3.04867	-10
3.05233	-20
3.05600	-30
3.05967	-37
3.06333	-43
3.06700	-44
3.07067	-41
3.07433	-36
3.07800	-33
3.08167	-30
3.08533	-27
3.08900	-25
3.09267	-24
3.09633	-26
3.10000	-30
3.10367	-34
3.10733	-35
3.11100	-35
3.11467	-36
3.11833	-37
3.12200	-33
3.12567	-24
3.12933	-13
3.13300	-7
3.13667	-7
3.14033	-12
3.14400	-18
3.14767	-22
3.15133	-23
3.15500	-21
3.15867	-17
3.16233	-12
3.16600	-5
3.16967	-3
3.17333	-6
3.17700	-12
3.18067	-18
3.18433	-23
3.18800	-29
3.19167	-33
3.19533	-34
3.19900	-33
3.20267	-32
3.20633	-30
3.21000	-28
3.21367	-27
3.21733	-30
3.22100	-35
3.22467	-38
3.22833	-41
3.23200	-41
3.23567	-38
3.23933	-33
3.24300	-27
3.24667	-20
3.25033	-16
3.25400	-17
3.25767	-18
3.26133	-20
3.26500	-24
3.26867	-29
3.27233	-30
3.27600	-25
3.27967	-17
3.28333	-10
3.28700	-10
3.29067	-13
3.29433	-20
3.29800	-27
3.30167	-33
3.30533	-37
3.30900	-39
3.31267	-41
3.31633	-42
3.32000	-45
3.32367	-46
3.32733	-46
3.33100	-42
3.33467	-34
3.33833	-26
3.34200	-16
3.34567	-9
3.34933	-6
3.35300	-10
3.35667	-17
3.36033	-21
3.36400	-25
3.36767	-29
3.37133	-33
3.37500	-35
3.37867	-35
3.38233	-32
3.38600	-31
3.38967	-32
3.39333	-31
3.39700	-28
3.40067	-28
3.40433	-29
3.40800	-30
3.41167	-31
3.41533	-32
3.41900	-33
3.42267	-36
3.42633	-38
3.43000	-41
3.43367	-43
3.43733	-44
3.44100	-42
3.44467	-40
3.44833	-38
3.45200	-36
3.45567	-33
3.45933	-30
3.46300	-32
3.46667	-38
3.47033	-44
3.47400	-48
3.47767	-51
3.48133	-52
3.48500	-50
3.48867	-46
3.49233	-42
3.49600	-42
3.49967	-44
3.50333	-43
3.50700	-42
3.51067	-43
3.51433	-42
3.51800	-41
3.52167	-38
3.52533	-33
3.52900	-33
3.53267	-35
3.53633	-36
3.54000	-36
3.54367	-36
3.54733	-35
3.55100	-33
3.55467	-29
3.55833	-25
3.56200	-22
3.56567	-22
3.56933	-25
3.57300	-27
3.57667	-28
3.58033	-33
3.58400	-44
3.58767	-56
3.59133	-64
3.59500	-69
3.59867	-71
3.60233	-66
3.60600	-60
3.60967	-53
3.61333	-45
3.61700	-39
3.62067	-35
3.62433	-30
3.62800	-27
3.63167	-26
3.63533	-25
3.63900	-25
3.64267	-26
3.64633	-25
3.65000	-22
3.65367	-17
3.65733	-12
3.66100	-10
3.66467	-13
3.66833	-19
3.67200	-27
3.67567	-33
3.67933	-34
3.68300	-33
3.68667	-29
3.69033	-26
3.69400	-26
3.69767	-27
3.70133	-32
3.70500	-39
3.70867	-43
3.71233	-42
3.71600	-37
3.71967	-31
3.72333	-28
3.72700	-24
3.73067	-20
3.73433	-17
3.73800	-15
3.74167	-17
3.74533	-21
3.74900	-25
3.75267	-27
3.75633	-27
3.76000	-28
3.76367	-32
3.76733	-36
3.77100	-35
3.77467	-27
3.77833	-15
3.78200	-9
3.78567	-11
3.78933	-17
3.79300	-25
3.79667	-34
3.80033	-43
3.80400	-48
3.80767	-48
3.81133	-43
3.81500	-36
3.81867	-29
3.82233	-27
3.82600	-27
3.82967	-26
3.83333	-23
3.83700	-21
3.84067	-20
3.84433	-22
3.84800	-25
3.85167	-25
3.85533	-25
3.85900	-25
3.86267	-25
3.86633	-25
3.87000	-25
3.87367	-27
3.87733	-32
3.88100	-37
3.88467	-38
3.88833	-37
3.89200	-36
3.89567	-36
3.89933	-35
3.90300	-36
3.90667	-36
3.91033	-35
3.91400	-37
3.91767	-36
3.92133	-31
3.92500	-26
3.92867	-28
3.93233	-31
3.93600	-29
3.93967	-23
3.94333	-13
3.94700	-1
3.95067	7
3.95433	8
3.95800	4
3.96167	-5
3.96533	-14
3.96900	-19
3.97267	-22
3.97633	-26
3.98000	-34
3.98367	-41
3.98733	-46
3.99100	-46
3.99467	-44
3.99833	-43

[Chromatogram (Ch2)]
Interval(msec)	220
# of Points	1091
Start Time(min)	0.002
End Time(min)	3.998
R.Time (min)	Intensity
0.00167	0
0.00533	0
0.00900	0
0.01267	0
0.01633	0
0.02000	0
0.02367	0
0.02733	0
0.03100	0
0.03467	0
0.03833	-0
0.04200	-0
0.04567	-1
0.04933	-1
0.05300	-1
0.05667	-1
0.06033	-1
0.06400	-1
0.06767	-1
0.07133	-0
0.07500	-0
0.07867	-0
0.08233	-0
0.08600	0
0.08967	0
0.09333	1
0.09700	1
0.10067	1
0.10433	2
0.10800	2
0.11167	2
0.11533	2
0.11900	2
0.12267	2
0.12633	2
0.13000	2
0.13367	1
0.13733	2
0.14100	2
0.14467	2
0.14833	1
0.15200	1
0.15567	2
0.15933	2
0.16300	2
0.16667	2
0.17033	2
0.17400	1
0.17767	1
0.18133	1
0.18500	0
0.18867	0
0.19233	-0
0.19600	-0
0.19967	-0
0.20333	-0
0.20700	-0
0.21067	-0
0.21433	-0
0.21800	-0
0.22167	-0
0.22533	-1
0.22900	-1
0.23267	-1
0.23633	-0
0.24000	-0
0.24367	-1
0.24733	-1
0.25100	-1
0.25467	-1
0.25833	-1
0.26200	-1
0.26567	-1
0.26933	-2
0.27300	-2
0.27667	-2
0.28033	-2
0.28400	-2
0.28767	-2
0.29133	-2
0.29500	-3
0.29867	-3
0.30233	-3
0.30600	-2
0.30967	-2
0.31333	-2
0.31700	-2
0.32067	-2
0.32433	-2
0.32800	-1
0.33167	-1
0.33533	-1
0.33900	-1
0.34267	-1
0.34633	-1
0.35000	-1
0.35367	-1
0.35733	-1
0.36100	-0
0.36467	-0
0.36833	-0
0.37200	-0
0.37567	-0
0.37933	-1
0.38300	-1
0.38667	-1
0.39033	-1
0.39400	-1
0.39767	-1
0.40133	-1
0.40500	-1
0.40867	-2
0.41233	-2
0.41600	-2
0.41967	-2
0.42333	-2
0.42700	-2
0.43067	-2
0.43433	-2
0.43800	-2
0.44167	-1
0.44533	-1
0.44900	-1
0.45267	-1
0.45633	-2
0.46000	-2
0.46367	-2
0.46733	-3
0.47100	-3
0.47467	-3
0.47833	-4
0.48200	-3
0.48567	-3
0.48933	-3
0.49300	-3
0.49667	-3
0.50033	-2
0.50400	-1
0.50767	-1
0.51133	-1
0.51500	-0
0.51867	0
0.52233	1
0.52600	1
0.52967	1
0.53333	1
0.53700	1
0.54067	1
0.54433	1
0.54800	1
0.55167	1
0.55533	1
0.55900	1
0.56267	0
0.56633	-0
0.57000	-1
0.57367	-1
0.57733	-1
0.58100	-1
0.58467	-1
0.58833	-1
0.59200	-1
0.59567	-1
0.59933	-1
0.60300	-1
0.60667	-1
0.61033	-0
0.61400	-0
0.61767	-0
0.62133	-0
0.62500	-0
0.62867	-0
0.63233	-0
0.63600	-0
0.63967	-0
0.64333	-0
0.64700	-0
0.65067	-0
0.65433	-0
0.65800	-0
0.66167	-0
0.66533	-1
0.66900	-1
0.67267	-1
0.67633	-1
0.68000	-1
0.68367	-2
0.68733	-1
0.69100	-1
0.69467	-1
0.69833	-0
0.70200	-0
0.70567	-0
0.70933	-1
0.71300	-1
0.71667	-1
0.72033	-1
0.72400	-1
0.72767	-1
0.73133	-1
0.73500	-1
0.73867	-1
0.74233	-1
0.74600	-0
0.74967	0
0.75333	1
0.75700	1
0.76067	1
0.76433	1
0.76800	1
0.77167	1
0.77533	1
0.77900	1
0.78267	1
0.78633	1
0.79000	1
0.79367	1
0.79733	1
0.80100	0
0.80467	0
0.80833	0
0.81200	0
0.81567	0
0.81933	0
0.82300	-0
0.82667	-0
0.83033	0
0.83400	0
0.83767	1
0.84133	1
0.84500	1
0.84867	1
0.85233	1
0.85600	1
0.85967	1
0.86333	1
0.86700	1
0.87067	1
0.87433	1
0.87800	1
0.88167	1
0.88533	1
0.88900	1
0.89267	1
0.89633	1
0.90000	1
0.90367	1
0.90733	1
0.91100	1
0.91467	1
0.91833	1
0.92200	1
0.92567	1
0.92933	1
0.93300	0
0.93667	-0
0.94033	-0
0.94400	-1
0.94767	-1
0.95133	-1
0.95500	-1
0.95867	-1
0.96233	-1
0.96600	-1
0.96967	-1
0.97333	-1
0.97700	-1
0.98067	-1
0.98433	-1
0.98800	-1
0.99167	-1
0.99533	-0
0.99900	-0
1.00267	0
1.00633	0
1.01000	0
1.01367	-0
1.01733	-0
1.02100	-1
1.02467	-1
1.02833	-1
1.03200	-2
1.03567	-2
1.03933	-2
1.04300	-2
1.04667	-3
1.05033	-3
1.05400	-3
1.05767	-3
1.06133	-3
1.06500	-3
1.06867	-3
1.07233	-3
1.07600	-3
1.07967	-3
1.08333	-3
1.08700	-3
1.09067	-3
1.09433	-2
1.09800	-2
1.10167	-2
1.10533	-2
1.10900	-2
1.11267	-2
1.11633	-2
1.12000	-1
1.12367	-1
1.12733	-1
1.13100	-1
1.13467	-1
1.13833	-1
1.14200	-1
1.14567	-1
1.14933	-1
1.15300	-2
1.15667	-2
1.16033	-2
1.16400	-2
1.16767	-2
1.17133	-2
1.17500	-2
1.17867	-2
1.18233	-2
1.18600	-2
1.18967	-2
1.19333	-2
1.19700	-2
1.20067	-2
1.20433	-2
1.20800	-2
1.21167	-2
1.21533	-2
1.21900	-2
1.22267	-2
1.22633	-2
1.23000	-2
1.23367	-2
1.23733	-2
1.24100	-2
1.24467	-2
1.24833	-2
1.25200	-3
1.25567	-3
1.25933	-3
1.26300	-3
1.26667	-3
1.27033	-3
1.27400	-3
1.27767	-4
1.28133	-4
1.28500	-4
1.28867	-4
1.29233	-4
1.29600	-4
1.29967	-4
1.30333	-4
1.30700	-4
1.31067	-4
1.31433	-4
1.31800	-4
1.32167	-4
1.32533	-4
1.32900	-5
1.33267	-5
1.33633	-5
1.34000	-5
1.34367	-4
1.34733	-4
1.35100	-4
1.35467	-4
1.35833	-4
1.36200	-4
1.36567	-4
1.36933	-4
1.37300	-4
1.37667	-3
1.38033	-3
1.38400	-3
1.38767	-3
1.39133	-3
1.39500	-3
1.39867	-3
1.40233	-3
1.40600	-3
1.40967	-3
1.41333	-3
1.41700	-3
1.42067	-4
1.42433	-4
1.42800	-4
1.43167	-5
1.43533	-5
1.43900	-5
1.44267	-5
1.44633	-5
1.45000	-5
1.45367	-5
1.45733	-6
1.46100	-6
1.46467	-6
1.46833	-5
1.47200	-5
1.47567	-5
1.47933	-4
1.48300	-4
1.48667	-3
1.49033	-3
1.49400	-2
1.49767	-2
1.50133	-2
1.50500	-1
1.50867	-1
1.51233	-1
1.51600	-1
1.51967	-1
1.52333	-1
1.52700	-1
1.53067	-2
1.53433	-2
1.53800	-2
1.54167	-3
1.54533	-3
1.54900	-3
1.55267	-3
1.55633	-3
1.56000	-3
1.56367	-3
1.56733	-2
1.57100	-2
1.57467	-1
1.57833	-1
1.58200	-1
1.58567	-0
1.58933	-0
1.59300	-0
1.59667	-1
1.60033	-1
1.60400	-2
1.60767	-4
1.61133	-6
1.61500	-8
1.61867	-10
1.62233	-13
1.62600	-16
1.62967	-19
1.63333	-22
1.63700	-25
1.64067	-29
1.64433	-32
1.64800	-36
1.65167	-40
1.65533	-43
1.65900	-47
1.66267	-51
1.66633	-56
1.67000	-61
1.67367	-66
1.67733	-71
1.68100	-76
1.68467	-81
1.68833	-86
1.69200	-91
1.69567	-95
1.69933	-98
1.70300	-101
1.70667	-104
1.71033	-106
1.71400	-108
1.71767	-109
1.72133	-110
1.72500	-111
1.72867	-112
1.73233	-113
1.73600	-113
1.73967	-113
1.74333	-113
1.74700	-114
1.75067	-114
1.75433	-114
1.75800	-114
1.76167	-114
1.76533	-115
1.76900	-115
1.77267	-116
1.77633	-116
1.78000	-117
1.78367	-118
1.78733	-119
1.79100	-120
1.79467	-120
1.79833	-120
1.80200	-121
1.80567	-121
1.80933	-121
1.81300	-121
1.81667	-121
1.82033	-121
1.82400	-121
1.82767	-120
1.83133	-119
1.83500	-119
1.83867	-119
1.84233	-119
1.84600	-119
1.84967	-119
1.85333	-120
1.85700	-121
1.86067	-121
1.86433	-121
1.86800	-121
1.87167	-121
1.87533	-121
1.87900	-121
1.88267	-121
1.88633	-122
1.89000	-122
1.89367	-122
1.89733	-122
1.90100	-122
1.90467	-122
1.90833	-122
1.91200	-121
1.91567	-120
1.91933	-120
1.92300	-119
1.92667	-119
1.93033	-120
1.93400	-120
1.93767	-120
1.94133	-119
1.94500	-119
1.94867	-118
1.95233	-118
1.95600	-117
1.95967	-117
1.96333	-116
1.96700	-116
1.97067	-116
1.97433	-116
1.97800	-115
1.98167	-114
1.98533	-114
1.98900	-114
1.99267	-114
1.99633	-114
2.00000	-114
2.00367	-114
2.00733	-114
2.01100	-114
2.01467	-114
2.01833	-114
2.02200	-113
2.02567	-113
2.02933	-113
2.03300	-113
2.03667	-112
2.04033	-112
2.04400	-111
2.04767	-111
2.05133	-111
2.05500	-110
2.05867	-109
2.06233	-109
2.06600	-108
2.06967	-108
2.07333	-108
2.07700	-108
2.08067	-108
2.08433	-108
2.08800	-107
2.09167	-107
2.09533	-106
2.09900	-106
2.10267	-105
2.10633	-105
2.11000	-105
2.11367	-104
2.11733	-104
2.12100	-103
2.12467	-103
2.12833	-102
2.13200	-102
2.13567	-102
2.13933	-102
2.14300	-103
2.14667	-103
2.15033	-102
2.15400	-102
2.15767	-102
2.16133	-101
2.16500	-100
2.16867	-99
2.17233	-98
2.17600	-98
2.17967	-97
2.18333	-97
2.18700	-97
2.19067	-97
2.19433	-97
2.19800	-97
2.20167	-97
2.20533	-97
2.20900	-97
2.21267	-97
2.21633	-96
2.22000	-96
2.22367	-96
2.22733	-97
2.23100	-97
2.23467	-98
2.23833	-98
2.24200	-98
2.24567	-98
2.24933	-97
2.25300	-96
2.25667	-95
2.26033	-94
2.26400	-93
2.26767	-92
2.27133	-91
2.27500	-91
2.27867	-91
2.28233	-90
2.28600	-90
2.28967	-90
2.29333	-90
2.29700	-89
2.30067	-89
2.30433	-89
2.30800	-89
2.31167	-89
2.31533	-89
2.31900	-89
2.32267	-89
2.32633	-90
2.33000	-90
2.33367	-90
2.33733	-90
2.34100	-89
2.34467	-89
2.34833	-87
2.35200	-86
2.35567	-84
2.35933	-83
2.36300	-82
2.36667	-81
2.37033	-80
2.37400	-78
2.37767	-76
2.38133	-74
2.38500	-71
2.38867	-67
2.39233	-63
2.39600	-59
2.39967	-54
2.40333	-50
2.40700	-45
2.41067	-41
2.41433	-36
2.41800	-32
2.42167	-28
2.42533	-25
2.42900	-22
2.43267	-19
2.43633	-16
2.44000	-14
2.44367	-12
2.44733	-11
2.45100	-9
2.45467	-8
2.45833	-7
2.46200	-5
2.46567	-4
2.46933	-3
2.47300	-2
2.47667	-1
2.48033	1
2.48400	2
2.48767	4
2.49133	5
2.49500	6
2.49867	7
2.50233	8
2.50600	9
2.50967	9
2.51333	10
2.51700	10
2.52067	11
2.52433	11
2.52800	11
2.53167	12
2.53533	12
2.53900	13
2.54267	14
2.54633	14
2.55000	15
2.55367	15
2.55733	15
2.56100	15
2.56467	14
2.56833	14
2.57200	14
2.57567	14
2.57933	14
2.58300	14
2.58667	14
2.59033	15
2.59400	16
2.59767	16
2.60133	16
2.60500	17
2.60867	17
2.61233	17
2.61600	17
2.61967	17
2.62333	17
2.62700	17
2.63067	17
2.63433	17
2.63800	18
2.64167	18
2.64533	18
2.64900	18
2.65267	18
2.65633	19
2.66000	19
2.66367	19
2.66733	20
2.67100	20
2.67467	21
2.67833	22
2.68200	22
2.68567	23
2.68933	24
2.69300	24
2.69667	25
2.70033	25
2.70400	25
2.70767	25
2.71133	25
2.71500	24
2.71867	24
2.72233	24
2.72600	24
2.72967	24
2.73333	24
2.73700	24
2.74067	24
2.74433	25
2.74800	25
2.75167	25
2.75533	26
2.75900	26
2.76267	26
2.76633	26
2.77000	26
2.77367	26
2.77733	26
2.78100	26
2.78467	26
2.78833	26
2.79200	26
2.79567	26
2.79933	26
2.80300	26
2.80667	25
2.81033	25
2.81400	25
2.81767	25
2.82133	25
2.82500	25
2.82867	25
2.83233	25
2.83600	25
2.83967	24
2.84333	24
2.84700	22
2.85067	19
2.85433	14
2.85800	6
2.86167	-5
2.86533	-19
2.86900	-37
2.87267	-60
2.87633	-86
2.88000	-116
2.88367	-150
2.88733	-188
2.89100	-228
2.89467	-272
2.89833	-318
2.90200	-365
2.90567	-414
2.90933	-464
2.91300	-515
2.91667	-565
2.92033	-615
2.92400	-665
2.92767	-714
2.93133	-763
2.93500	-811
2.93867	-863
2.94233	-921
2.94600	-983
2.94967	-1041
2.95333	-1083
2.95700	-1102
2.96067	-1094
2.96433	-1061
2.96800	-1007
2.97167	-940
2.97533	-863
2.97900	-782
2.98267	-702
2.98633	-624
2.99000	-550
2.99367	-481
2.99733	-418
3.00100	-362
3.00467	-311
3.00833	-267
3.01200	-228
3.01567	-194
3.01933	-164
3.02300	-138
3.02667	-116
3.03033	-97
3.03400	-81
3.03767	-67
3.04133	-55
3.04500	-45
3.04867	-36
3.05233	-29
3.05600	-22
3.05967	-17
3.06333	-12
3.06700	-8
3.07067	-4
3.07433	-1
3.07800	1
3.08167	4
3.08533	6
3.08900	7
3.09267	9
3.09633	10
3.10000	11
3.10367	12
3.10733	13
3.11100	14
3.11467	15
3.11833	15
3.12200	16
3.12567	16
3.12933	17
3.13300	17
3.13667	18
3.14033	18
3.14400	19
3.14767	19
3.15133	19
3.15500	19
3.15867	19
3.16233	20
3.16600	20
3.16967	20
3.17333	21
3.17700	21
3.18067	21
3.18433	21
3.18800	21
3.19167	22
3.19533	22
3.19900	22
3.20267	23
3.20633	23
3.21000	24
3.21367	24
3.21733	25
3.22100	25
3.22467	25
3.22833	25
3.23200	25
3.23567	25
3.23933	25
3.24300	25
3.24667	26
3.25033	26
3.25400	26
3.25767	26
3.26133	26
3.26500	26
3.26867	26
3.27233	26
3.27600	27
3.27967	27
3.28333	27
3.28700	27
3.29067	27
3.29433	28
3.29800	28
3.30167	28
3.30533	28
3.30900	28
3.31267	29
3.31633	29
3.32000	29
3.32367	29
3.32733	29
3.33100	29
3.33467	29
3.33833	30
3.34200	30
3.34567	30
3.34933	30
3.35300	30
3.35667	30
3.36033	30
3.36400	30
3.36767	30
3.37133	29
3.37500	29
3.37867	29
3.38233	29
3.38600	29
3.38967	29
3.39333	29
3.39700	29
3.40067	29
3.40433	29
3.40800	29
3.41167	29
3.41533	29
3.41900	29
3.42267	28
3.42633	28
3.43000	28
3.43367	28
3.43733	28
3.44100	28
3.44467	27
3.44833	27
3.45200	27
3.45567	27
3.45933	27
3.46300	27
3.46667	27
3.47033	27
3.47400	27
3.47767	27
3.48133	28
3.48500	28
3.48867	28
3.49233	28
3.49600	28
3.49967	29
3.50333	29
3.50700	29
3.51067	28
3.51433	28
3.51800	28
3.52167	28
3.52533	28
3.52900	28
3.53267	27
3.53633	27
3.54000	27
3.54367	27
3.54733	27
3.55100	27
3.55467	27
3.55833	27
3.56200	27
3.56567	27
3.56933	27
3.57300	27
3.57667	27
3.58033	27
3.58400	28
3.58767	28
3.59133	28
3.59500	28
3.59867	28
3.60233	29
3.60600	29
3.60967	29
3.61333	29
3.61700	29
3.62067	29
3.62433	29
3.62800	30
3.63167	30
3.63533	30
3.63900	30
3.64267	30
3.64633	30
3.65000	30
3.65367	30
3.65733	30
3.66100	29
3.66467	29
3.66833	29
3.67200	29
3.67567	29
3.67933	29
3.68300	29
3.68667	29
3.69033	29
3.69400	29
3.69767	29
3.70133	28
3.70500	28
3.70867	28
3.71233	28
3.71600	29
3.71967	29
3.72333	29
3.72700	29
3.73067	29
3.73433	29
3.73800	29
3.74167	29
3.74533	29
3.74900	29
3.75267	29
3.75633	28
3.76000	28
3.76367	28
3.76733	28
3.77100	28
3.77467	28
3.77833	28
3.78200	28
3.78567	28
3.78933	28
3.79300	28
3.79667	28
3.80033	28
3.80400	28
3.80767	28
3.81133	28
3.81500	28
3.81867	28
3.82233	28
3.82600	28
3.82967	28
3.83333	29
3.83700	29
3.84067	29
3.84433	29
3.84800	29
3.85167	29
3.85533	29
3.85900	28
3.86267	28
3.86633	28
3.87000	28
3.87367	28
3.87733	28
3.88100	28
3.88467	28
3.88833	28
3.89200	28
3.89567	28
3.89933	27
3.90300	27
3.90667	27
3.91033	27
3.91400	27
3.91767	27
3.92133	27
3.92500	27
3.92867	27
3.93233	27
3.93600	27
3.93967	27
3.94333	27
3.94700	27
3.95067	27
3.95433	28
3.95800	28
3.96167	28
3.96533	29
3.96900	29
3.97267	29
3.97633	29
3.98000	29
3.98367	30
3.98733	30
3.99100	30
3.99467	30
3.99833	31

[Chromatogram (Ch3)]
Interval(msec)	220
# of Points	1091
Start Time(min)	0.002
End Time(min)	3.998
R.Time (min)	Intensity
0.00167	-1
0.00533	-1
0.00900	-0
0.01267	-1
0.01633	-0
0.02000	2
0.02367	2
0.02733	3
0.03100	4
0.03467	4
0.03833	2
0.04200	1
0.04567	2
0.04933	4
0.05300	4
0.05667	4
0.06033	1
0.06400	-1
0.06767	0
0.07133	2
0.07500	4
0.07867	4
0.08233	5
0.08600	3
0.08967	1
0.09333	1
0.09700	1
0.10067	2
0.10433	2
0.10800	3
0.11167	6
0.11533	6
0.11900	4
0.12267	4
0.12633	6
0.13000	7
0.13367	8
0.13733	8
0.14100	8
0.14467	6
0.14833	5
0.15200	4
0.15567	3
0.15933	3
0.16300	2
0.16667	3
0.17033	4
0.17400	6
0.17767	5
0.18133	5
0.18500	4
0.18867	5
0.19233	6
0.19600	5
0.19967	3
0.20333	3
0.20700	3
0.21067	3
0.21433	3
0.21800	4
0.22167	5
0.22533	7
0.22900	8
0.23267	6
0.23633	6
0.24000	6
0.24367	8
0.24733	10
0.25100	10
0.25467	10
0.25833	10
0.26200	11
0.26567	11
0.26933	9
0.27300	7
0.27667	6
0.28033	7
0.28400	9
0.28767	12
0.29133	14
0.29500	12
0.29867	10
0.30233	6
0.30600	6
0.30967	7
0.31333	8
0.31700	7
0.32067	6
0.32433	7
0.32800	9
0.33167	10
0.33533	11
0.33900	10
0.34267	8
0.34633	6
0.35000	7
0.35367	10
0.35733	13
0.36100	12
0.36467	10
0.36833	8
0.37200	9
0.37567	6
0.37933	6
0.38300	8
0.38667	8
0.39033	8
0.39400	8
0.39767	9
0.40133	9
0.40500	8
0.40867	7
0.41233	9
0.41600	8
0.41967	8
0.42333	8
0.42700	9
0.43067	10
0.43433	9
0.43800	8
0.44167	7
0.44533	8
0.44900	10
0.45267	9
0.45633	10
0.46000	10
0.46367	8
0.46733	8
0.47100	9
0.47467	11
0.47833	10
0.48200	10
0.48567	10
0.48933	8
0.49300	6
0.49667	7
0.50033	7
0.50400	6
0.50767	7
0.51133	8
0.51500	9
0.51867	6
0.52233	7
0.52600	6
0.52967	7
0.53333	9
0.53700	11
0.54067	11
0.54433	11
0.54800	12
0.55167	12
0.55533	10
0.55900	9
0.56267	9
0.56633	7
0.57000	6
0.57367	6
0.57733	4
0.58100	4
0.58467	7
0.58833	8
0.59200	9
0.59567	10
0.59933	9
0.60300	8
0.60667	8
0.61033	9
0.61400	10
0.61767	10
0.62133	10
0.62500	8
0.62867	9
0.63233	8
0.63600	10
0.63967	9
0.64333	9
0.64700	10
0.65067	9
0.65433	11
0.65800	11
0.66167	12
0.66533	12
0.66900	9
0.67267	5
0.67633	4
0.68000	6
0.68367	9
0.68733	13
0.69100	16
0.69467	14
0.69833	10
0.70200	9
0.70567	9
0.70933	9
0.71300	9
0.71667	10
0.72033	10
0.72400	9
0.72767	10
0.73133	10
0.73500	10
0.73867	9
0.74233	8
0.74600	10
0.74967	9
0.75333	7
0.75700	4
0.76067	2
0.76433	3
0.76800	3
0.77167	5
0.77533	4
0.77900	5
0.78267	6
0.78633	8
0.79000	10
0.79367	11
0.79733	13
0.80100	12
0.80467	10
0.80833	10
0.81200	8
0.81567	8
0.81933	7
0.82300	4
0.82667	4
0.83033	4
0.83400	3
0.83767	4
0.84133	5
0.84500	4
0.84867	1
0.85233	0
0.85600	1
0.85967	2
0.86333	4
0.86700	8
0.87067	7
0.87433	7
0.87800	8
0.88167	9
0.88533	8
0.88900	9
0.89267	9
0.89633	8
0.90000	9
0.90367	9
0.90733	8
0.91100	7
0.91467	6
0.91833	7
0.92200	5
0.92567	5
0.92933	5
0.93300	5
0.93667	6
0.94033	5
0.94400	6
0.94767	5
0.95133	3
0.95500	1
0.95867	2
0.96233	3
0.96600	1
0.96967	-0
0.97333	2
0.97700	1
0.98067	-1
0.98433	0
0.98800	3
0.99167	5
0.99533	6
0.99900	6
1.00267	5
1.00633	4
1.01000	4
1.01367	3
1.01733	1
1.02100	-0
1.02467	-1
1.02833	1
1.03200	2
1.03567	1
1.03933	-1
1.04300	-2
1.04667	-1
1.05033	-1
1.05400	-0
1.05767	1
1.06133	-0
1.06500	-1
1.06867	-0
1.07233	1
1.07600	1
1.07967	1
1.08333	2
1.08700	4
1.09067	4
1.09433	3
1.09800	2
1.10167	2
1.10533	5
1.10900	9
1.11267	12
1.11633	9
1.12000	6
1.12367	4
1.12733	4
1.13100	5
1.13467	6
1.13833	7
1.14200	4
1.14567	2
1.14933	1
1.15300	1
1.15667	0
1.16033	1
1.16400	3
1.16767	3
1.17133	2
1.17500	2
1.17867	1
1.18233	1
1.18600	-1
1.18967	-1
1.19333	-3
1.19700	-5
1.20067	-4
1.20433	-2
1.20800	0
1.21167	-1
1.21533	-2
1.21900	-4
1.22267	-2
1.22633	2
1.23000	3
1.23367	2
1.23733	0
1.24100	-2
1.24467	-1
1.24833	1
1.25200	2
1.25567	2
1.25933	2
1.26300	1
1.26667	-1
1.27033	-2
1.27400	-3
1.27767	-2
1.28133	-2
1.28500	-3
1.28867	-4
1.29233	-4
1.29600	-3
1.29967	-5
1.30333	-3
1.30700	-3
1.31067	-2
1.31433	-1
1.31800	-0
1.32167	-2
1.32533	-5
1.32900	-7
1.33267	-10
1.33633	-9
1.34000	-8
1.34367	-4
1.34733	-1
1.35100	-0
1.35467	2
1.35833	2
1.36200	0
1.36567	-0
1.36933	-0
1.37300	1
1.37667	0
1.38033	-2
1.38400	-6
1.38767	-6
1.39133	-5
1.39500	-2
1.39867	1
1.40233	3
1.40600	1
1.40967	-2
1.41333	-3
1.41700	-4
1.42067	-4
1.42433	-5
1.42800	-6
1.43167	-7
1.43533	-6
1.43900	-7
1.44267	-6
1.44633	-8
1.45000	-9
1.45367	-8
1.45733	-7
1.46100	-5
1.46467	-3
1.46833	-1
1.47200	0
1.47567	-2
1.47933	-3
1.48300	-3
1.48667	-3
1.49033	-4
1.49400	-4
1.49767	-6
1.50133	-5
1.50500	-6
1.50867	-7
1.51233	-8
1.51600	-7
1.51967	-6
1.52333	-5
1.52700	-6
1.53067	-7
1.53433	-7
1.53800	-7
1.54167	-8
1.54533	-9
1.54900	-11
1.55267	-13
1.55633	-12
1.56000	-10
1.56367	-9
1.56733	-9
1.57100	-11
1.57467	-13
1.57833	-13
1.58200	-11
1.58567	-9
1.58933	-10
1.59300	-12
1.59667	-11
1.60033	-12
1.60400	-13
1.60767	-14
1.61133	-12
1.61500	-11
1.61867	-10
1.62233	-10
1.62600	-7
1.62967	-3
1.63333	-1
1.63700	-1
1.64067	-3
1.64433	-6
1.64800	-7
1.65167	-8
1.65533	-9
1.65900	-8
1.66267	-7
1.66633	-8
1.67000	-7
1.67367	-4
1.67733	-3
1.68100	-4
1.68467	-3
1.68833	-1
1.69200	1
1.69567	2
1.69933	3
1.70300	5
1.70667	5
1.71033	6
1.71400	5
1.71767	3
1.72133	0
1.72500	-1
1.72867	-0
1.73233	1
1.73600	4
1.73967	3
1.74333	5
1.74700	8
1.75067	10
1.75433	13
1.75800	14
1.76167	13
1.76533	12
1.76900	12
1.77267	13
1.77633	13
1.78000	14
1.78367	14
1.78733	12
1.79100	10
1.79467	9
1.79833	9
1.80200	10
1.80567	11
1.80933	12
1.81300	14
1.81667	15
1.82033	16
1.82400	16
1.82767	15
1.83133	17
1.83500	19
1.83867	18
1.84233	17
1.84600	18
1.84967	18
1.85333	17
1.85700	16
1.86067	18
1.86433	18
1.86800	19
1.87167	18
1.87533	17
1.87900	17
1.88267	18
1.88633	19
1.89000	20
1.89367	21
1.89733	23
1.90100	24
1.90467	23
1.90833	21
1.91200	21
1.91567	21
1.91933	21
1.92300	20
1.92667	19
1.93033	20
1.93400	22
1.93767	24
1.94133	26
1.94500	28
1.94867	29
1.95233	31
1.95600	31
1.95967	31
1.96333	31
1.96700	29
1.97067	29
1.97433	29
1.97800	30
1.98167	31
1.98533	32
1.98900	36
1.99267	39
1.99633	39
2.00000	37
2.00367	37
2.00733	37
2.01100	36
2.01467	35
2.01833	35
2.02200	36
2.02567	37
2.02933	38
2.03300	42
2.03667	46
2.04033	47
2.04400	48
2.04767	51
2.05133	52
2.05500	50
2.05867	50
2.06233	51
2.06600	54
2.06967	53
2.07333	51
2.07700	50
2.08067	50
2.08433	53
2.08800	56
2.09167	57
2.09533	56
2.09900	58
2.10267	59
2.10633	61
2.11000	64
2.11367	66
2.11733	67
2.12100	67
2.12467	67
2.12833	66
2.13200	64
2.13567	65
2.13933	66
2.14300	65
2.14667	67
2.15033	71
2.15400	76
2.15767	77
2.16133	77
2.16500	76
2.16867	76
2.17233	77
2.17600	79
2.17967	81
2.18333	82
2.18700	83
2.19067	82
2.19433	80
2.19800	79
2.20167	82
2.20533	85
2.20900	86
2.21267	86
2.21633	87
2.22000	88
2.22367	90
2.22733	93
2.23100	97
2.23467	100
2.23833	100
2.24200	99
2.24567	96
2.24933	94
2.25300	91
2.25667	91
2.26033	95
2.26400	99
2.26767	102
2.27133	103
2.27500	102
2.27867	102
2.28233	101
2.28600	102
2.28967	102
2.29333	103
2.29700	105
2.30067	108
2.30433	109
2.30800	109
2.31167	110
2.31533	112
2.31900	112
2.32267	114
2.32633	116
2.33000	117
2.33367	117
2.33733	116
2.34100	116
2.34467	116
2.34833	117
2.35200	119
2.35567	124
2.35933	125
2.36300	127
2.36667	129
2.37033	130
2.37400	128
2.37767	127
2.38133	128
2.38500	129
2.38867	129
2.39233	130
2.39600	131
2.39967	132
2.40333	132
2.40700	134
2.41067	135
2.41433	135
2.41800	136
2.42167	137
2.42533	138
2.42900	139
2.43267	141
2.43633	143
2.44000	145
2.44367	150
2.44733	163
2.45100	174
2.45467	178
2.45833	178
2.46200	173
2.46567	175
2.46933	184
2.47300	196
2.47667	210
2.48033	223
2.48400	239
2.48767	254
2.49133	268
2.49500	283
2.49867	299
2.50233	317
2.50600	335
2.50967	352
2.51333	369
2.51700	381
2.52067	392
2.52433	401
2.52800	409
2.53167	416
2.53533	424
2.53900	432
2.54267	439
2.54633	445
2.55000	451
2.55367	457
2.55733	464
2.56100	472
2.56467	477
2.56833	482
2.57200	486
2.57567	489
2.57933	493
2.58300	498
2.58667	505
2.59033	512
2.59400	516
2.59767	514
2.60133	509
2.60500	498
2.60867	480
2.61233	456
2.61600	428
2.61967	394
2.62333	358
2.62700	326
2.63067	297
2.63433	270
2.63800	249
2.64167	233
2.64533	224
2.64900	220
2.65267	220
2.65633	223
2.66000	228
2.66367	232
2.66733	237
2.67100	246
2.67467	255
2.67833	265
2.68200	273
2.68567	282
2.68933	288
2.69300	295
2.69667	304
2.70033	313
2.70400	322
2.70767	331
2.71133	339
2.71500	344
2.71867	350
2.72233	354
2.72600	358
2.72967	361
2.73333	365
2.73700	370
2.74067	374
2.74433	377
2.74800	381
2.75167	384
2.75533	388
2.75900	392
2.76267	395
2.76633	399
2.77000	403
2.77367	405
2.77733	406
2.78100	407
2.78467	406
2.78833	406
2.79200	408
2.79567	411
2.79933	413
2.80300	414
2.80667	415
2.81033	416
2.81400	419
2.81767	423
2.82133	428
2.82500	436
2.82867	456
2.83233	502
2.83600	590
2.83967	743
2.84333	985
2.84700	1329
2.85067	1781
2.85433	2329
2.85800	2945
2.86167	3583
2.86533	4192
2.86900	4721
2.87267	5131
2.87633	5396
2.88000	5511
2.88367	5479
2.88733	5323
2.89100	5070
2.89467	4749
2.89833	4390
2.90200	4019
2.90567	3652
2.90933	3295
2.91300	2960
2.91667	2652
2.92033	2374
2.92400	2124
2.92767	1900
2.93133	1703
2.93500	1530
2.93867	1380
2.94233	1246
2.94600	1131
2.94967	1033
2.95333	950
2.95700	874
2.96067	806
2.96433	748
2.96800	699
2.97167	658
2.97533	623
2.97900	593
2.98267	567
2.98633	542
2.99000	521
2.99367	503
2.99733	486
3.00100	471
3.00467	461
3.00833	454
3.01200	448
3.01567	441
3.01933	432
3.02300	424
3.02667	416
3.03033	409
3.03400	404
3.03767	401
3.04133	399
3.04500	395
3.04867	393
3.05233	395
3.05600	395
3.05967	394
3.06333	391
3.06700	388
3.07067	385
3.07433	384
3.07800	381
3.08167	378
3.08533	376
3.08900	376
3.09267	373
3.09633	369
3.10000	366
3.10367	364
3.10733	363
3.11100	364
3.11467	365
3.11833	364
3.12200	363
3.12567	360
3.12933	357
3.13300	356
3.13667	355
3.14033	355
3.14400	354
3.14767	352
3.15133	353
3.15500	353
3.15867	352
3.16233	354
3.16600	355
3.16967	352
3.17333	348
3.17700	346
3.18067	345
3.18433	343
3.18800	344
3.19167	344
3.19533	342
3.19900	340
3.20267	339
3.20633	340
3.21000	341
3.21367	343
3.21733	345
3.22100	345
3.22467	344
3.22833	343
3.23200	342
3.23567	342
3.23933	340
3.24300	339
3.24667	339
3.25033	339
3.25400	338
3.25767	336
3.26133	332
3.26500	330
3.26867	327
3.27233	328
3.27600	329
3.27967	327
3.28333	325
3.28700	325
3.29067	324
3.29433	322
3.29800	322
3.30167	322
3.30533	319
3.30900	316
3.31267	313
3.31633	310
3.32000	305
3.32367	301
3.32733	298
3.33100	297
3.33467	299
3.33833	300
3.34200	298
3.34567	294
3.34933	290
3.35300	286
3.35667	285
3.36033	283
3.36400	281
3.36767	282
3.37133	282
3.37500	282
3.37867	280
3.38233	280
3.38600	278
3.38967	276
3.39333	272
3.39700	270
3.40067	270
3.40433	268
3.40800	267
3.41167	265
3.41533	262
3.41900	258
3.42267	257
3.42633	256
3.43000	254
3.43367	251
3.43733	250
3.44100	249
3.44467	248
3.44833	245
3.45200	243
3.45567	241
3.45933	241
3.46300	239
3.46667	238
3.47033	236
3.47400	234
3.47767	231
3.48133	227
3.48500	224
3.48867	224
3.49233	222
3.49600	221
3.49967	220
3.50333	218
3.50700	215
3.51067	213
3.51433	212
3.51800	214
3.52167	217
3.52533	216
3.52900	216
3.53267	216
3.53633	216
3.54000	216
3.54367	214
3.54733	209
3.55100	207
3.55467	206
3.55833	205
3.56200	205
3.56567	205
3.56933	203
3.57300	200
3.57667	197
3.58033	194
3.58400	191
3.58767	190
3.59133	188
3.59500	188
3.59867	187
3.60233	187
3.60600	190
3.60967	192
3.61333	193
3.61700	192
3.62067	190
3.62433	189
3.62800	188
3.63167	185
3.63533	183
3.63900	182
3.64267	181
3.64633	180
3.65000	180
3.65367	180
3.65733	181
3.66100	179
3.66467	178
3.66833	177
3.67200	176
3.67567	175
3.67933	174
3.68300	172
3.68667	172
3.69033	171
3.69400	171
3.69767	170
3.70133	171
3.70500	173
3.70867	171
3.71233	169
3.71600	165
3.71967	164
3.72333	164
3.72700	163
3.73067	161
3.73433	162
3.73800	163
3.74167	162
3.74533	162
3.74900	163
3.75267	162
3.75633	160
3.76000	158
3.76367	156
3.76733	156
3.77100	157
3.77467	158
3.77833	158
3.78200	155
3.78567	152
3.78933	151
3.79300	150
3.79667	153
3.80033	156
3.80400	154
3.80767	152
3.81133	152
3.81500	152
3.81867	152
3.82233	151
3.82600	149
3.82967	146
3.83333	142
3.83700	142
3.84067	144
3.84433	146
3.84800	147
3.85167	146
3.85533	146
3.85900	145
3.86267	143
3.86633	137
3.87000	133
3.87367	132
3.87733	132
3.88100	131
3.88467	130
3.88833	129
3.89200	128
3.89567	128
3.89933	127
3.90300	123
3.90667	125
3.91033	128
3.91400	128
3.91767	127
3.92133	126
3.92500	125
3.92867	124
3.93233	125
3.93600	125
3.93967	127
3.94333	126
3.94700	122
3.95067	121
3.95433	120
3.95800	118
3.96167	117
3.96533	118
3.96900	118
3.97267	119
3.97633	120
3.98000	117
3.98367	114
3.98733	113
3.99100	113
3.99467	112
3.99833	112

[Status Trace (Column Oven Temperature)]
Interval(msec)	1000
# of Points	240
Start Time(min)	0.013
End Time(min)	3.996
Intensity Units	
Intensity Multiplier	1
R.Time (min)	Intensity
0.01257	34.97
0.02923	34.98
0.04590	34.99
0.06257	34.99
0.07923	34.99
0.09590	34.98
0.11257	34.98
0.12923	34.98
0.14590	34.97
0.16257	34.97
0.17923	34.97
0.19590	34.97
0.21257	34.97
0.22923	34.97
0.24590	34.97
0.26257	34.97
0.27923	34.98
0.29590	35.00
0.31257	34.99
0.32923	35.00
0.34590	35.00
0.36257	35.00
0.37923	35.00
0.39590	35.01
0.41257	35.01
0.42923	35.01
0.44590	35.01
0.46257	35.03
0.47923	35.03
0.49590	35.02
0.51257	35.02
0.52923	35.01
0.54590	35.00
0.56257	35.01
0.57923	35.03
0.59590	35.03
0.61257	35.03
0.62923	35.02
0.64590	35.02
0.66257	35.01
0.67923	35.01
0.69590	35.01
0.71257	35.01
0.72923	35.01
0.74590	35.00
0.76257	34.99
0.77923	34.99
0.79590	34.99
0.81257	34.99
0.82923	34.99
0.84590	34.99
0.86257	34.97
0.87923	34.98
0.89590	34.97
0.91257	34.96
0.92923	34.97
0.94590	34.97
0.96257	34.97
0.97923	34.97
0.99590	34.97
1.01257	34.96
1.02923	34.97
1.04590	34.99
1.06257	34.98
1.07923	34.98
1.09590	34.97
1.11257	34.97
1.12923	34.97
1.14590	34.98
1.16257	34.99
1.17923	34.98
1.19590	34.98
1.21257	34.99
1.22923	34.99
1.24590	34.98
1.26257	34.99
1.27923	35.00
1.29590	35.00
1.31257	35.01
1.32923	35.03
1.34590	35.02
1.36257	35.02
1.37923	35.02
1.39590	35.01
1.41257	35.02
1.42923	35.03
1.44590	35.03
1.46257	35.04
1.47923	35.03
1.49590	35.02
1.51257	35.02
1.52923	35.03
1.54590	35.03
1.56257	35.02
1.57923	35.02
1.59590	35.03
1.61257	35.11
1.62923	35.24
1.64590	35.43
1.66257	35.70
1.67923	36.06
1.69590	36.43
1.71257	36.78
1.72923	37.13
1.74590	37.45
1.76257	37.77
1.77923	38.11
1.79590	38.45
1.81257	38.79
1.82923	39.08
1.84590	39.41
1.86257	39.74
1.87923	40.06
1.89590	40.41
1.91257	40.72
1.92923	41.06
1.94590	41.38
1.96257	41.72
1.97923	42.03
1.99590	42.37
2.01257	42.69
2.02923	43.02
2.04590	43.36
2.06257	43.66
2.07923	44.00
2.09590	44.31
2.11257	44.64
2.12923	44.96
2.14590	45.30
2.16257	45.62
2.17923	45.94
2.19590	46.28
2.21257	46.60
2.22923	46.96
2.24590	47.29
2.26257	47.60
2.27923	47.93
2.29590	48.24
2.31257	48.58
2.32923	48.96
2.34590	49.24
2.36257	49.50
2.37923	49.65
2.39590	49.68
2.41257	49.69
2.42923	49.69
2.44590	49.73
2.46257	49.74
2.47923	49.75
2.49590	49.75
2.51257	49.76
2.52923	49.77
2.54590	49.77
2.56257	49.80
2.57923	49.82
2.59590	49.82
2.61257	49.82
2.62923	49.84
2.64590	49.86
2.66257	49.86
2.67923	49.84
2.69590	49.85
2.71257	49.87
2.72923	49.88
2.74590	49.88
2.76257	49.87
2.77923	49.86
2.79590	49.87
2.81257	49.89
2.82923	49.91
2.84590	49.94
2.86257	49.96
2.87923	49.97
2.89590	49.98
2.91257	49.99
2.92923	50.00
2.94590	50.01
2.96257	50.03
2.97923	50.05
2.99590	50.06
3.01257	50.07
3.02923	50.07
3.04590	50.07
3.06257	50.07
3.07923	50.08
3.09590	50.07
3.11257	50.07
3.12923	50.08
3.14590	50.09
3.16257	50.10
3.17923	50.11
3.19590	50.11
3.21257	50.10
3.22923	50.09
3.24590	50.09
3.26257	50.08
3.27923	50.08
3.29590	50.07
3.31257	50.05
3.32923	50.03
3.34590	50.03
3.36257	50.03
3.37923	50.03
3.39590	50.03
3.41257	50.04
3.42923	50.05
3.44590	50.05
3.46257	50.06
3.47923	50.06
3.49590	50.06
3.51257	50.06
3.52923	50.07
3.54590	50.07
3.56257	50.07
3.57923	50.08
3.59590	50.08
3.61257	50.08
3.62923	50.08
3.64590	50.07
3.66257	50.08
3.67923	50.08
3.69590	50.08
3.71257	50.08
3.72923	50.07
3.74590	50.08
3.76257	50.08
3.77923	50.08
3.79590	50.09
3.81257	50.09
3.82923	50.09
3.84590	50.08
3.86257	50.08
3.87923	50.08
3.89590	50.09
3.91257	50.09
3.92923	50.10
3.94590	50.10
3.96257	50.09
3.97923	50.07
3.99590	50.06

[Status Trace (Injection Unit Temperature)]
Interval(msec)	1000
# of Points	240
Start Time(min)	0.013
End Time(min)	3.996
Intensity Units	
Intensity Multiplier	1
R.Time (min)	Intensity
0.01257	99.99
0.02923	99.98
0.04590	99.99
0.06257	99.99
0.07923	99.99
0.09590	99.99
0.11257	99.99
0.12923	99.99
0.14590	99.99
0.16257	99.99
0.17923	99.99
0.19590	99.99
0.21257	99.99
0.22923	99.99
0.24590	99.99
0.26257	99.99
0.27923	99.99
0.29590	99.99
0.31257	99.99
0.32923	99.99
0.34590	99.99
0.36257	99.99
0.37923	99.99
0.39590	99.99
0.41257	99.99
0.42923	99.99
0.44590	100.00
0.46257	100.00
0.47923	99.99
0.49590	100.00
0.51257	99.99
0.52923	99.99
0.54590	99.99
0.56257	99.99
0.57923	100.00
0.59590	99.99
0.61257	99.99
0.62923	99.99
0.64590	99.99
0.66257	99.99
0.67923	99.99
0.69590	99.99
0.71257	99.99
0.72923	99.99
0.74590	100.00
0.76257	99.99
0.77923	99.98
0.79590	99.99
0.81257	99.99
0.82923	99.99
0.84590	99.99
0.86257	99.99
0.87923	99.99
0.89590	99.99
0.91257	100.00
0.92923	99.99
0.94590	99.99
0.96257	99.99
0.97923	100.00
0.99590	99.99
1.01257	99.99
1.02923	99.99
1.04590	99.99
1.06257	99.99
1.07923	99.99
1.09590	99.99
1.11257	99.99
1.12923	99.99
1.14590	99.99
1.16257	99.99
1.17923	99.99
1.19590	99.99
1.21257	99.99
1.22923	99.99
1.24590	100.00
1.26257	100.00
1.27923	99.99
1.29590	99.99
1.31257	99.99
1.32923	99.99
1.34590	99.99
1.36257	99.99
1.37923	99.99
1.39590	99.99
1.41257	100.00
1.42923	99.99
1.44590	99.99
1.46257	99.99
1.47923	99.99
1.49590	99.99
1.51257	99.99
1.52923	99.99
1.54590	100.00
1.56257	99.99
1.57923	99.99
1.59590	99.99
1.61257	100.00
1.62923	99.99
1.64590	99.99
1.66257	100.00
1.67923	99.99
1.69590	99.99
1.71257	100.00
1.72923	100.00
1.74590	100.00
1.76257	99.99
1.77923	100.00
1.79590	99.99
1.81257	99.99
1.82923	99.99
1.84590	99.99
1.86257	99.99
1.87923	100.00
1.89590	99.99
1.91257	99.99
1.92923	99.99
1.94590	99.99
1.96257	99.99
1.97923	99.99
1.99590	99.99
2.01257	99.99
2.02923	99.99
2.04590	99.99
2.06257	99.99
2.07923	99.98
2.09590	99.98
2.11257	99.98
2.12923	99.98
2.14590	99.98
2.16257	99.98
2.17923	99.98
2.19590	99.98
2.21257	99.98
2.22923	99.98
2.24590	99.98
2.26257	99.98
2.27923	99.98
2.29590	99.97
2.31257	99.97
2.32923	99.97
2.34590	99.97
2.36257	99.97
2.37923	99.97
2.39590	99.97
2.41257	99.98
2.42923	99.97
2.44590	99.97
2.46257	99.97
2.47923	99.97
2.49590	99.97
2.51257	99.97
2.52923	99.97
2.54590	99.97
2.56257	99.97
2.57923	99.97
2.59590	99.97
2.61257	99.98
2.62923	99.98
2.64590	99.98
2.66257	99.98
2.67923	99.98
2.69590	99.98
2.71257	99.99
2.72923	99.99
2.74590	99.99
2.76257	99.99
2.77923	99.99
2.79590	100.00
2.81257	99.99
2.82923	100.00
2.84590	100.00
2.86257	100.00
2.87923	100.00
2.89590	100.01
2.91257	100.01
2.92923	100.01
2.94590	100.00
2.96257	100.01
2.97923	100.01
2.99590	100.01
3.01257	100.01
3.02923	100.02
3.04590	100.01
3.06257	100.01
3.07923	100.02
3.09590	100.02
3.11257	100.02
3.12923	100.02
3.14590	100.02
3.16257	100.03
3.17923	100.03
3.19590	100.02
3.21257	100.03
3.22923	100.03
3.24590	100.03
3.26257	100.03
3.27923	100.03
3.29590	100.03
3.31257	100.03
3.32923	100.03
3.34590	100.03
3.36257	100.03
3.37923	100.03
3.39590	100.04
3.41257	100.04
3.42923	100.04
3.44590	100.03
3.46257	100.04
3.47923	100.04
3.49590	100.04
3.51257	100.05
3.52923	100.04
3.54590	100.05
3.56257	100.04
3.57923	100.04
3.59590	100.04
3.61257	100.05
3.62923	100.05
3.64590	100.05
3.66257	100.05
3.67923	100.04
3.69590	100.04
3.71257	100.05
3.72923	100.05
3.74590	100.05
3.76257	100.05
3.77923	100.05
3.79590	100.05
3.81257	100.05
3.82923	100.05
3.84590	100.06
3.86257	100.05
3.87923	100.05
3.89590	100.05
3.91257	100.05
3.92923	100.05
3.94590	100.05
3.96257	100.05
3.97923	100.06
3.99590	100.05

[Status Trace (Carrier Gas Pressure)]
Interval(msec)	1000
# of Points	240
Start Time(min)	0.013
End Time(min)	3.996
Intensity Units	
Intensity Multiplier	1
R.Time (min)	Intensity
0.01257	57.97
0.02923	54.92
0.04590	57.53
0.06257	59.71
0.07923	59.03
0.09590	58.00
0.11257	57.99
0.12923	58.01
0.14590	58.01
0.16257	58.00
0.17923	58.00
0.19590	58.00
0.21257	58.00
0.22923	58.00
0.24590	58.00
0.26257	58.00
0.27923	58.00
0.29590	58.00
0.31257	58.00
0.32923	58.00
0.34590	58.00
0.36257	58.00
0.37923	58.00
0.39590	58.00
0.41257	58.00
0.42923	58.00
0.44590	58.00
0.46257	58.00
0.47923	58.00
0.49590	58.00
0.51257	58.00
0.52923	58.00
0.54590	58.00
0.56257	58.00
0.57923	58.00
0.59590	58.00
0.61257	58.00
0.62923	58.00
0.64590	58.00
0.66257	58.00
0.67923	58.00
0.69590	58.00
0.71257	58.00
0.72923	58.00
0.74590	58.00
0.76257	58.00
0.77923	58.00
0.79590	58.00
0.81257	58.00
0.82923	58.00
0.84590	58.00
0.86257	58.00
0.87923	58.00
0.89590	58.00
0.91257	58.00
0.92923	58.00
0.94590	58.00
0.96257	58.00
0.97923	58.00
0.99590	58.00
1.01257	58.00
1.02923	58.00
1.04590	58.00
1.06257	58.00
1.07923	58.00
1.09590	58.00
1.11257	58.00
1.12923	58.00
1.14590	58.00
1.16257	58.00
1.17923	58.00
1.19590	58.00
1.21257	58.00
1.22923	58.00
1.24590	58.00
1.26257	58.00
1.27923	58.00
1.29590	58.00
1.31257	58.00
1.32923	58.00
1.34590	58.00
1.36257	58.00
1.37923	58.00
1.39590	58.00
1.41257	58.00
1.42923	58.00
1.44590	58.00
1.46257	58.00
1.47923	58.00
1.49590	58.00
1.51257	58.00
1.52923	58.00
1.54590	58.00
1.56257	58.00
1.57923	58.00
1.59590	58.00
1.61257	58.00
1.62923	58.00
1.64590	58.00
1.66257	58.01
1.67923	58.01
1.69590	58.00
1.71257	58.00
1.72923	58.00
1.74590	58.00
1.76257	58.00
1.77923	58.00
1.79590	58.00
1.81257	58.00
1.82923	58.00
1.84590	58.00
1.86257	58.00
1.87923	58.00
1.89590	58.00
1.91257	58.00
1.92923	58.00
1.94590	58.00
1.96257	58.00
1.97923	58.00
1.99590	58.00
2.01257	58.00
2.02923	58.00
2.04590	58.00
2.06257	58.00
2.07923	58.00
2.09590	58.00
2.11257	58.00
2.12923	58.00
2.14590	58.00
2.16257	58.00
2.17923	58.00
2.19590	58.00
2.21257	58.00
2.22923	58.00
2.24590	58.00
2.26257	58.00
2.27923	58.00
2.29590	58.00
2.31257	58.00
2.32923	58.00
2.34590	58.00
2.36257	58.00
2.37923	58.00
2.39590	57.99
2.41257	57.99
2.42923	58.00
2.44590	58.00
2.46257	58.00
2.47923	58.00
2.49590	58.00
2.51257	57.99
2.52923	57.99
2.54590	58.00
2.56257	58.00
2.57923	58.00
2.59590	58.00
2.61257	58.00
2.62923	58.00
2.64590	58.00
2.66257	58.00
2.67923	58.00
2.69590	58.00
2.71257	58.00
2.72923	58.00
2.74590	58.00
2.76257	58.00
2.77923	58.00
2.79590	58.00
2.81257	58.00
2.82923	58.00
2.84590	58.00
2.86257	58.00
2.87923	58.00
2.89590	58.00
2.91257	58.00
2.92923	58.00
2.94590	58.00
2.96257	58.00
2.97923	58.00
2.99590	58.00
3.01257	58.00
3.02923	58.00
3.04590	58.00
3.06257	58.00
3.07923	58.00
3.09590	58.00
3.11257	58.00
3.12923	58.00
3.14590	58.00
3.16257	58.00
3.17923	58.00
3.19590	58.00
3.21257	58.00
3.22923	58.00
3.24590	58.00
3.26257	58.00
3.27923	58.00
3.29590	58.00
3.31257	58.00
3.32923	58.00
3.34590	58.00
3.36257	58.00
3.37923	58.00
3.39590	58.00
3.41257	58.00
3.42923	58.00
3.44590	58.00
3.46257	58.00
3.47923	58.00
3.49590	58.00
3.51257	58.00
3.52923	58.00
3.54590	58.00
3.56257	58.00
3.57923	58.00
3.59590	58.00
3.61257	58.00
3.62923	58.00
3.64590	58.00
3.66257	58.00
3.67923	58.00
3.69590	58.00
3.71257	58.00
3.72923	58.00
3.74590	58.00
3.76257	58.00
3.77923	58.00
3.79590	58.00
3.81257	58.00
3.82923	58.00
3.84590	58.00
3.86257	58.00
3.87923	58.00
3.89590	58.00
3.91257	58.00
3.92923	58.00
3.94590	58.00
3.96257	58.00
3.97923	58.00
3.99590	58.00

[Status Trace (Carrier Gas Flow)]
Interval(msec)	1000
# of Points	240
Start Time(min)	0.013
End Time(min)	3.996
Intensity Units	
Intensity Multiplier	1
R.Time (min)	Intensity
0.01257	34.61
0.02923	34.53
0.04590	34.55
0.06257	34.54
0.07923	34.50
0.09590	34.51
0.11257	34.52
0.12923	34.51
0.14590	34.52
0.16257	34.53
0.17923	34.52
0.19590	34.52
0.21257	34.52
0.22923	34.52
0.24590	34.52
0.26257	34.52
0.27923	34.52
0.29590	34.52
0.31257	34.52
0.32923	34.52
0.34590	34.52
0.36257	34.52
0.37923	34.52
0.39590	34.52
0.41257	34.52
0.42923	34.52
0.44590	34.52
0.46257	34.52
0.47923	34.52
0.49590	34.52
0.51257	34.52
0.52923	34.52
0.54590	34.52
0.56257	34.52
0.57923	34.52
0.59590	34.52
0.61257	34.52
0.62923	34.52
0.64590	34.52
0.66257	34.52
0.67923	34.52
0.69590	34.52
0.71257	34.52
0.72923	34.52
0.74590	34.52
0.76257	34.52
0.77923	34.52
0.79590	34.52
0.81257	34.52
0.82923	34.52
0.84590	34.52
0.86257	34.52
0.87923	34.52
0.89590	34.52
0.91257	34.52
0.92923	34.52
0.94590	34.52
0.96257	34.52
0.97923	34.52
0.99590	34.52
1.01257	34.52
1.02923	34.52
1.04590	34.52
1.06257	34.52
1.07923	34.52
1.09590	34.52
1.11257	34.52
1.12923	34.52
1.14590	34.52
1.16257	34.52
1.17923	34.52
1.19590	34.52
1.21257	34.52
1.22923	34.52
1.24590	34.52
1.26257	34.52
1.27923	34.52
1.29590	34.52
1.31257	34.52
1.32923	34.52
1.34590	34.52
1.36257	34.52
1.37923	34.52
1.39590	34.52
1.41257	34.52
1.42923	34.52
1.44590	34.52
1.46257	34.52
1.47923	34.52
1.49590	34.52
1.51257	34.52
1.52923	34.52
1.54590	34.52
1.56257	34.52
1.57923	34.52
1.59590	34.52
1.61257	34.52
1.62923	34.52
1.64590	34.52
1.66257	34.52
1.67923	34.52
1.69590	34.52
1.71257	34.52
1.72923	34.52
1.74590	34.52
1.76257	34.52
1.77923	34.52
1.79590	34.52
1.81257	34.52
1.82923	34.52
1.84590	34.52
1.86257	34.52
1.87923	34.52
1.89590	34.52
1.91257	34.52
1.92923	34.52
1.94590	34.52
1.96257	34.52
1.97923	34.52
1.99590	34.52
2.01257	34.52
2.02923	34.52
2.04590	34.52
2.06257	34.52
2.07923	34.52
2.09590	34.52
2.11257	34.52
2.12923	34.52
2.14590	34.52
2.16257	34.52
2.17923	34.52
2.19590	34.52
2.21257	34.52
2.22923	34.52
2.24590	34.52
2.26257	34.52
2.27923	34.52
2.29590	34.52
2.31257	34.52
2.32923	34.52
2.34590	34.52
2.36257	34.52
2.37923	34.52
2.39590	34.52
2.41257	34.52
2.42923	34.52
2.44590	34.52
2.46257	34.52
2.47923	34.52
2.49590	34.52
2.51257	34.52
2.52923	34.51
2.54590	34.53
2.56257	34.51
2.57923	34.53
2.59590	34.52
2.61257	34.52
2.62923	34.52
2.64590	34.53
2.66257	34.52
2.67923	34.52
2.69590	34.51
2.71257	34.51
2.72923	34.52
2.74590	34.53
2.76257	34.51
2.77923	34.52
2.79590	34.52
2.81257	34.51
2.82923	34.52
2.84590	34.52
2.86257	34.52
2.87923	34.52
2.89590	34.52
2.91257	34.52
2.92923	34.52
2.94590	34.52
2.96257	34.52
2.97923	34.52
2.99590	34.52
3.01257	34.52
3.02923	34.52
3.04590	34.52
3.06257	34.52
3.07923	34.52
3.09590	34.52
3.11257	34.52
3.12923	34.52
3.14590	34.52
3.16257	34.52
3.17923	34.52
3.19590	34.52
3.21257	34.52
3.22923	34.52
3.24590	34.52
3.26257	34.52
3.27923	34.52
3.29590	34.52
3.31257	34.52
3.32923	34.52
3.34590	34.52
3.36257	34.52
3.37923	34.52
3.39590	34.52
3.41257	34.52
3.42923	34.52
3.44590	34.52
3.46257	34.52
3.47923	34.52
3.49590	34.52
3.51257	34.52
3.52923	34.52
3.54590	34.52
3.56257	34.52
3.57923	34.52
3.59590	34.52
3.61257	34.52
3.62923	34.52
3.64590	34.52
3.66257	34.52
3.67923	34.52
3.69590	34.52
3.71257	34.52
3.72923	34.52
3.74590	34.52
3.76257	34.52
3.77923	34.52
3.79590	34.52
3.81257	34.52
3.82923	34.52
3.84590	34.52
3.86257	34.52
3.87923	34.52
3.89590	34.52
3.91257	34.52
3.92923	34.52
3.94590	34.52
3.96257	34.52
3.97923	34.52
3.99590	34.52

[Status Trace (Column Flow)]
Interval(msec)	1000
# of Points	240
Start Time(min)	0.013
End Time(min)	3.996
Intensity Units	
Intensity Multiplier	1
R.Time (min)	Intensity
0.01257	5.51
0.02923	5.16
0.04590	5.46
0.06257	5.72
0.07923	5.64
0.09590	5.52
0.11257	5.52
0.12923	5.52
0.14590	5.52
0.16257	5.52
0.17923	5.52
0.19590	5.52
0.21257	5.52
0.22923	5.52
0.24590	5.52
0.26257	5.52
0.27923	5.52
0.29590	5.52
0.31257	5.52
0.32923	5.52
0.34590	5.52
0.36257	5.52
0.37923	5.52
0.39590	5.52
0.41257	5.52
0.42923	5.52
0.44590	5.52
0.46257	5.52
0.47923	5.51
0.49590	5.52
0.51257	5.52
0.52923	5.52
0.54590	5.52
0.56257	5.52
0.57923	5.52
0.59590	5.51
0.61257	5.51
0.62923	5.51
0.64590	5.52
0.66257	5.52
0.67923	5.52
0.69590	5.52
0.71257	5.52
0.72923	5.52
0.74590	5.52
0.76257	5.52
0.77923	5.52
0.79590	5.52
0.81257	5.52
0.82923	5.52
0.84590	5.52
0.86257	5.52
0.87923	5.52
0.89590	5.52
0.91257	5.52
0.92923	5.52
0.94590	5.52
0.96257	5.52
0.97923	5.52
0.99590	5.52
1.01257	5.52
1.02923	5.52
1.04590	5.52
1.06257	5.52
1.07923	5.52
1.09590	5.52
1.11257	5.52
1.12923	5.52
1.14590	5.52
1.16257	5.52
1.17923	5.52
1.19590	5.52
1.21257	5.52
1.22923	5.52
1.24590	5.52
1.26257	5.52
1.27923	5.52
1.29590	5.52
1.31257	5.52
1.32923	5.51
1.34590	5.51
1.36257	5.52
1.37923	5.52
1.39590	5.52
1.41257	5.52
1.42923	5.51
1.44590	5.51
1.46257	5.51
1.47923	5.51
1.49590	5.52
1.51257	5.52
1.52923	5.52
1.54590	5.51
1.56257	5.52
1.57923	5.52
1.59590	5.51
1.61257	5.51
1.62923	5.51
1.64590	5.50
1.66257	5.49
1.67923	5.48
1.69590	5.47
1.71257	5.46
1.72923	5.45
1.74590	5.44
1.76257	5.43
1.77923	5.42
1.79590	5.41
1.81257	5.40
1.82923	5.39
1.84590	5.38
1.86257	5.37
1.87923	5.36
1.89590	5.35
1.91257	5.34
1.92923	5.33
1.94590	5.32
1.96257	5.31
1.97923	5.30
1.99590	5.29
2.01257	5.28
2.02923	5.27
2.04590	5.26
2.06257	5.25
2.07923	5.24
2.09590	5.24
2.11257	5.22
2.12923	5.22
2.14590	5.21
2.16257	5.20
2.17923	5.19
2.19590	5.18
2.21257	5.17
2.22923	5.16
2.24590	5.15
2.26257	5.14
2.27923	5.13
2.29590	5.12
2.31257	5.11
2.32923	5.10
2.34590	5.09
2.36257	5.09
2.37923	5.08
2.39590	5.08
2.41257	5.08
2.42923	5.08
2.44590	5.08
2.46257	5.08
2.47923	5.08
2.49590	5.08
2.51257	5.08
2.52923	5.08
2.54590	5.08
2.56257	5.08
2.57923	5.08
2.59590	5.08
2.61257	5.08
2.62923	5.08
2.64590	5.08
2.66257	5.08
2.67923	5.08
2.69590	5.08
2.71257	5.08
2.72923	5.08
2.74590	5.08
2.76257	5.08
2.77923	5.08
2.79590	5.08
2.81257	5.08
2.82923	5.08
2.84590	5.07
2.86257	5.07
2.87923	5.07
2.89590	5.07
2.91257	5.07
2.92923	5.07
2.94590	5.07
2.96257	5.07
2.97923	5.07
2.99590	5.07
3.01257	5.07
3.02923	5.07
3.04590	5.07
3.06257	5.07
3.07923	5.07
3.09590	5.07
3.11257	5.07
3.12923	5.07
3.14590	5.07
3.16257	5.07
3.17923	5.07
3.19590	5.07
3.21257	5.07
3.22923	5.07
3.24590	5.07
3.26257	5.07
3.27923	5.07
3.29590	5.07
3.31257	5.07
3.32923	5.07
3.34590	5.07
3.36257	5.07
3.37923	5.07
3.39590	5.07
3.41257	5.07
3.42923	5.07
3.44590	5.07
3.46257	5.07
3.47923	5.07
3.49590	5.07
3.51257	5.07
3.52923	5.07
3.54590	5.07
3.56257	5.07
3.57923	5.07
3.59590	5.07
3.61257	5.07
3.62923	5.07
3.64590	5.07
3.66257	5.07
3.67923	5.07
3.69590	5.07
3.71257	5.07
3.72923	5.07
3.74590	5.07
3.76257	5.07
3.77923	5.07
3.79590	5.07
3.81257	5.07
3.82923	5.07
3.84590	5.07
3.86257	5.07
3.87923	5.07
3.89590	5.07
3.91257	5.07
3.92923	5.07
3.94590	5.07
3.96257	5.07
3.97923	5.07
3.99590	5.07

[Status Trace (Linear Velocity)]
Interval(msec)	1000
# of Points	240
Start Time(min)	0.013
End Time(min)	3.996
Intensity Units	
Intensity Multiplier	1
R.Time (min)	Intensity
0.01257	39.00
0.02923	37.00
0.04590	38.71
0.06257	40.13
0.07923	39.69
0.09590	39.01
0.11257	39.01
0.12923	39.03
0.14590	39.02
0.16257	39.02
0.17923	39.02
0.19590	39.02
0.21257	39.02
0.22923	39.02
0.24590	39.02
0.26257	39.02
0.27923	39.02
0.29590	39.02
0.31257	39.02
0.32923	39.02
0.34590	39.02
0.36257	39.01
0.37923	39.01
0.39590	39.02
0.41257	39.02
0.42923	39.01
0.44590	39.01
0.46257	39.01
0.47923	39.01
0.49590	39.01
0.51257	39.01
0.52923	39.01
0.54590	39.02
0.56257	39.01
0.57923	39.01
0.59590	39.01
0.61257	39.01
0.62923	39.01
0.64590	39.01
0.66257	39.01
0.67923	39.01
0.69590	39.01
0.71257	39.01
0.72923	39.02
0.74590	39.02
0.76257	39.02
0.77923	39.02
0.79590	39.02
0.81257	39.02
0.82923	39.02
0.84590	39.02
0.86257	39.02
0.87923	39.02
0.89590	39.02
0.91257	39.02
0.92923	39.02
0.94590	39.02
0.96257	39.02
0.97923	39.02
0.99590	39.02
1.01257	39.02
1.02923	39.02
1.04590	39.02
1.06257	39.02
1.07923	39.02
1.09590	39.02
1.11257	39.02
1.12923	39.02
1.14590	39.02
1.16257	39.02
1.17923	39.02
1.19590	39.02
1.21257	39.02
1.22923	39.02
1.24590	39.02
1.26257	39.02
1.27923	39.02
1.29590	39.01
1.31257	39.01
1.32923	39.01
1.34590	39.01
1.36257	39.01
1.37923	39.01
1.39590	39.01
1.41257	39.01
1.42923	39.01
1.44590	39.01
1.46257	39.01
1.47923	39.01
1.49590	39.01
1.51257	39.01
1.52923	39.01
1.54590	39.01
1.56257	39.01
1.57923	39.01
1.59590	39.01
1.61257	39.01
1.62923	39.00
1.64590	38.98
1.66257	38.95
1.67923	38.92
1.69590	38.88
1.71257	38.85
1.72923	38.82
1.74590	38.78
1.76257	38.75
1.77923	38.72
1.79590	38.69
1.81257	38.65
1.82923	38.63
1.84590	38.60
1.86257	38.57
1.87923	38.54
1.89590	38.51
1.91257	38.47
1.92923	38.45
1.94590	38.41
1.96257	38.38
1.97923	38.35
1.99590	38.32
2.01257	38.29
2.02923	38.26
2.04590	38.23
2.06257	38.20
2.07923	38.17
2.09590	38.15
2.11257	38.11
2.12923	38.09
2.14590	38.06
2.16257	38.02
2.17923	38.00
2.19590	37.97
2.21257	37.93
2.22923	37.91
2.24590	37.88
2.26257	37.84
2.27923	37.82
2.29590	37.79
2.31257	37.76
2.32923	37.73
2.34590	37.70
2.36257	37.67
2.37923	37.66
2.39590	37.65
2.41257	37.65
2.42923	37.66
2.44590	37.66
2.46257	37.65
2.47923	37.65
2.49590	37.65
2.51257	37.65
2.52923	37.64
2.54590	37.65
2.56257	37.65
2.57923	37.65
2.59590	37.65
2.61257	37.65
2.62923	37.65
2.64590	37.64
2.66257	37.64
2.67923	37.64
2.69590	37.65
2.71257	37.64
2.72923	37.64
2.74590	37.64
2.76257	37.64
2.77923	37.64
2.79590	37.64
2.81257	37.64
2.82923	37.64
2.84590	37.64
2.86257	37.63
2.87923	37.63
2.89590	37.63
2.91257	37.63
2.92923	37.63
2.94590	37.63
2.96257	37.63
2.97923	37.63
2.99590	37.63
3.01257	37.63
3.02923	37.63
3.04590	37.62
3.06257	37.62
3.07923	37.62
3.09590	37.62
3.11257	37.63
3.12923	37.62
3.14590	37.62
3.16257	37.62
3.17923	37.62
3.19590	37.62
3.21257	37.62
3.22923	37.62
3.24590	37.62
3.26257	37.62
3.27923	37.62
3.29590	37.63
3.31257	37.63
3.32923	37.63
3.34590	37.63
3.36257	37.63
3.37923	37.63
3.39590	37.63
3.41257	37.63
3.42923	37.63
3.44590	37.63
3.46257	37.63
3.47923	37.63
3.49590	37.63
3.51257	37.63
3.52923	37.63
3.54590	37.62
3.56257	37.62
3.57923	37.62
3.59590	37.62
3.61257	37.62
3.62923	37.62
3.64590	37.62
3.66257	37.62
3.67923	37.62
3.69590	37.62
3.71257	37.62
3.72923	37.62
3.74590	37.62
3.76257	37.62
3.77923	37.62
3.79590	37.62
3.81257	37.62
3.82923	37.62
3.84590	37.62
3.86257	37.62
3.87923	37.62
3.89590	37.62
3.91257	37.62
3.92923	37.62
3.94590	37.62
3.96257	37.62
3.97923	37.62
3.99590	37.63

