[Header]
Application Name	LabSolutions
Version	5.110
Data File Name	C:\Users\User\Desktop\GC Analyses\Jack\UIC Prairie Sampling\8.12.22\220812_024.gcd
Output Date	10/14/2022
Output Time	2:33:51 PM

[File Information]
Type	Data File
Generated	10/6/2022 3:28:36 PM
Generated by	System Administrator
Modified	10/6/2022 3:34:48 PM
Modified by	System Administrator

[Sample Information]
Operator Name	System Administrator
Acquired	10/6/2022 3:30:47 PM
Sample Type	1:Standard
Level	1
Sample Name	220812_UICPrairie
Sample ID	220812_UICPrairie
ISTD Amount1	1
ISTD Amount2	1
ISTD Amount3	1
ISTD Amount4	1
ISTD Amount5	1
ISTD Amount6	1
ISTD Amount7	1
ISTD Amount8	1
ISTD Amount9	1
ISTD Amount10	1
ISTD Amount11	1
ISTD Amount12	1
ISTD Amount13	1
ISTD Amount14	1
ISTD Amount15	1
ISTD Amount16	1
ISTD Amount17	1
ISTD Amount18	1
ISTD Amount19	1
ISTD Amount20	1
ISTD Amount21	1
ISTD Amount22	1
ISTD Amount23	1
ISTD Amount24	1
ISTD Amount25	1
ISTD Amount26	1
ISTD Amount27	1
ISTD Amount28	1
ISTD Amount29	1
ISTD Amount30	1
ISTD Amount31	1
ISTD Amount32	1
Sample Amount	1
Dilution Factor	1
Vial#	1
Injection Volume	1
Injection Count	1
Bar Code	

[Original Files]
Data File	C:\Users\User\Desktop\GC Analyses\Jack\UIC Prairie Sampling\8.12.22\220812_024.gcd
Method File	C:\LabSolutions\Data\GHG_4min_2022\ghg3_togas_w_acet_4 min_new_int.gcm
Batch File	
Report Format File	c:\LabSolutions\System\DEFAULT.lsr

[File Description]


[Configuration]
Instrument Name	C0B7VH3-Instrument1
Instrument #	1
Line #	1
# of Detectors	3
Detector ID	DET#1	DET#2	DET#3
Detector Name	FID	PTCD	ECD
# of Channels	1	1	1

[Peak Table(Ch1)]
# of Peaks	3
Peak#	R.Time	I.Time	F.Time	Area	Height	A/H	Conc.	Mark	ID#	Name	k'	Plate #	Plate Ht.	Tailing	Resolution	Sep.Factor	Area Ratio	Height Ratio	Conc. %	Norm Conc.
1	1.476	1.432	1.538	10013	4269	2.345	100.000	   	1	CO	0.000	7777	19.288	1.243	0.000	0.000	0	0	16.667	16.667
2	1.571	1.538	1.622	4535	2308	1.965	100.000	 V 	2	CH4	0.065	11685	12.837	1.147	1.525	0.000	0	0	16.667	16.667
3	1.996	1.952	2.246	1377244	671984	2.050	400.000	   	3	CO2	0.353	17921	8.370	1.316	7.222	5.462	0	0	66.667	66.667

[Peak Table(Ch2)]
# of Peaks	0

[Peak Table(Ch3)]
# of Peaks	2
Peak#	R.Time	I.Time	F.Time	Area	Height	A/H	Conc.	Mark	ID#	Name	k'	Plate #	Plate Ht.	Tailing	Resolution	Sep.Factor	Area Ratio	Height Ratio	Conc. %	Norm Conc.
1	2.598	2.469	2.645	1663	267	6.232	0.000	   			0.000	4040	37.132	0.675	0.000	0.000	0	0	0.000	0.000
2	2.880	2.660	3.705	27003	5330	5.066	1.000	   	1	N2O	0.109	12453	12.046	1.761	2.117	0.000	0	0	100.000	100.000

[Compound Results(Ch1)]
# of IDs	6
ID#	Name	R.Time	Area	Height	Conc.	Curve	3rd	2nd	1st	Constant	Area Ratio	Height Ratio	Conc. %	Norm Conc.
1	CO	1.476	10013	4269	100.000	Linear	0.000000e+00	0.000000e+00	1.001270e+002	0.000000e+00	0	0	16.667	16.667
2	CH4	1.571	4535	2308	100.000	Linear	0.000000e+00	0.000000e+00	4.534743e+001	0.000000e+00	0	0	16.667	16.667
3	CO2	1.996	1377244	671984	400.000	Linear	0.000000e+00	0.000000e+00	3.443109e+003	0.000000e+00	0	0	66.667	66.667
4	Ethylene	0.000	0	0	0.000	Linear	0.000000e+00	0.000000e+00	0.000000e+00	0.000000e+00	0	0	0.000	0.000
5	Acetylene	0.000	0	0	0.000	Linear	0.000000e+00	0.000000e+00	0.000000e+00	0.000000e+00	0	0	0.000	0.000
6	Ethane	0.000	0	0	0.000	Linear	0.000000e+00	0.000000e+00	0.000000e+00	0.000000e+00	0	0	0.000	0.000

[Compound Results(Ch2)]
# of IDs	5
ID#	Name	R.Time	Area	Height	Conc.	Curve	3rd	2nd	1st	Constant	Area Ratio	Height Ratio	Conc. %	Norm Conc.
1	Hydrogen	0.000	0	0	0.000	Linear	0.000000e+00	0.000000e+00	0.000000e+00	0.000000e+00	0	0	0.000	0.000
2	Oxygen	0.000	0	0	0.000	Linear	0.000000e+00	0.000000e+00	0.000000e+00	0.000000e+00	0	0	0.000	0.000
3	Nitrogen	0.000	0	0	0.000	Linear	0.000000e+00	0.000000e+00	0.000000e+00	0.000000e+00	0	0	0.000	0.000
4	Methane	0.000	0	0	0.000	Linear	0.000000e+00	0.000000e+00	0.000000e+00	0.000000e+00	0	0	0.000	0.000
5	Carbon Monoxide	0.000	0	0	0.000	Linear	0.000000e+00	0.000000e+00	0.000000e+00	0.000000e+00	0	0	0.000	0.000

[Compound Results(Ch3)]
# of IDs	2
ID#	Name	R.Time	Area	Height	Conc.	Curve	3rd	2nd	1st	Constant	Area Ratio	Height Ratio	Conc. %	Norm Conc.
1	N2O	2.880	27003	5330	1.000	Linear	0.000000e+00	0.000000e+00	2.700316e+004	0.000000e+00	0	0	100.000	100.000
2	SF6	0.000	0	0	0.000	Linear	0.000000e+00	0.000000e+00	0.000000e+00	0.000000e+00	0	0	0.000	0.000

[Group Results(Ch1)]
# of Groups	0

[Group Results(Ch2)]
# of Groups	0

[Group Results(Ch3)]
# of Groups	0

[Chromatogram (Ch1)]
Interval(msec)	220
# of Points	1091
Start Time(min)	0.002
End Time(min)	3.998
R.Time (min)	Intensity
0.00167	-27
0.00533	-26
0.00900	-21
0.01267	-16
0.01633	-13
0.02000	-10
0.02367	-6
0.02733	-4
0.03100	-7
0.03467	-13
0.03833	-17
0.04200	-13
0.04567	-5
0.04933	1
0.05300	0
0.05667	-6
0.06033	-12
0.06400	-16
0.06767	-20
0.07133	-23
0.07500	-28
0.07867	-30
0.08233	-30
0.08600	-27
0.08967	-23
0.09333	-19
0.09700	-17
0.10067	-14
0.10433	-12
0.10800	-9
0.11167	-9
0.11533	-8
0.11900	-10
0.12267	-13
0.12633	-14
0.13000	-9
0.13367	-1
0.13733	6
0.14100	10
0.14467	13
0.14833	12
0.15200	6
0.15567	0
0.15933	-4
0.16300	-11
0.16667	-17
0.17033	-23
0.17400	-27
0.17767	-31
0.18133	-31
0.18500	-29
0.18867	-26
0.19233	-20
0.19600	-13
0.19967	-5
0.20333	3
0.20700	5
0.21067	-0
0.21433	-8
0.21800	-16
0.22167	-24
0.22533	-30
0.22900	-32
0.23267	-34
0.23633	-34
0.24000	-31
0.24367	-24
0.24733	-20
0.25100	-18
0.25467	-20
0.25833	-23
0.26200	-24
0.26567	-24
0.26933	-22
0.27300	-22
0.27667	-25
0.28033	-28
0.28400	-35
0.28767	-43
0.29133	-46
0.29500	-45
0.29867	-42
0.30233	-38
0.30600	-33
0.30967	-29
0.31333	-26
0.31700	-24
0.32067	-21
0.32433	-18
0.32800	-15
0.33167	-15
0.33533	-18
0.33900	-21
0.34267	-22
0.34633	-23
0.35000	-24
0.35367	-29
0.35733	-35
0.36100	-38
0.36467	-39
0.36833	-40
0.37200	-40
0.37567	-40
0.37933	-40
0.38300	-35
0.38667	-25
0.39033	-18
0.39400	-16
0.39767	-18
0.40133	-21
0.40500	-23
0.40867	-25
0.41233	-31
0.41600	-39
0.41967	-49
0.42333	-58
0.42700	-64
0.43067	-63
0.43433	-56
0.43800	-49
0.44167	-46
0.44533	-48
0.44900	-48
0.45267	-45
0.45633	-43
0.46000	-42
0.46367	-42
0.46733	-45
0.47100	-50
0.47467	-54
0.47833	-55
0.48200	-53
0.48567	-50
0.48933	-46
0.49300	-45
0.49667	-50
0.50033	-55
0.50400	-58
0.50767	-61
0.51133	-64
0.51500	-66
0.51867	-65
0.52233	-62
0.52600	-60
0.52967	-58
0.53333	-57
0.53700	-59
0.54067	-58
0.54433	-56
0.54800	-54
0.55167	-53
0.55533	-53
0.55900	-54
0.56267	-59
0.56633	-66
0.57000	-70
0.57367	-68
0.57733	-62
0.58100	-55
0.58467	-49
0.58833	-47
0.59200	-48
0.59567	-51
0.59933	-55
0.60300	-59
0.60667	-59
0.61033	-56
0.61400	-53
0.61767	-53
0.62133	-54
0.62500	-55
0.62867	-54
0.63233	-51
0.63600	-48
0.63967	-50
0.64333	-57
0.64700	-65
0.65067	-70
0.65433	-72
0.65800	-70
0.66167	-65
0.66533	-60
0.66900	-61
0.67267	-68
0.67633	-78
0.68000	-87
0.68367	-94
0.68733	-96
0.69100	-92
0.69467	-85
0.69833	-76
0.70200	-69
0.70567	-65
0.70933	-62
0.71300	-62
0.71667	-64
0.72033	-65
0.72400	-62
0.72767	-57
0.73133	-51
0.73500	-50
0.73867	-57
0.74233	-69
0.74600	-80
0.74967	-89
0.75333	-93
0.75700	-92
0.76067	-88
0.76433	-83
0.76800	-81
0.77167	-79
0.77533	-75
0.77900	-69
0.78267	-65
0.78633	-65
0.79000	-64
0.79367	-63
0.79733	-65
0.80100	-70
0.80467	-77
0.80833	-79
0.81200	-76
0.81567	-70
0.81933	-64
0.82300	-63
0.82667	-66
0.83033	-71
0.83400	-79
0.83767	-85
0.84133	-91
0.84500	-93
0.84867	-94
0.85233	-90
0.85600	-82
0.85967	-72
0.86333	-66
0.86700	-65
0.87067	-67
0.87433	-68
0.87800	-65
0.88167	-61
0.88533	-61
0.88900	-68
0.89267	-77
0.89633	-85
0.90000	-90
0.90367	-90
0.90733	-89
0.91100	-90
0.91467	-90
0.91833	-91
0.92200	-91
0.92567	-91
0.92933	-89
0.93300	-82
0.93667	-72
0.94033	-65
0.94400	-65
0.94767	-69
0.95133	-74
0.95500	-79
0.95867	-85
0.96233	-90
0.96600	-92
0.96967	-92
0.97333	-95
0.97700	-97
0.98067	-97
0.98433	-95
0.98800	-94
0.99167	-92
0.99533	-90
0.99900	-88
1.00267	-90
1.00633	-96
1.01000	-102
1.01367	-103
1.01733	-104
1.02100	-104
1.02467	-105
1.02833	-105
1.03200	-106
1.03567	-110
1.03933	-114
1.04300	-117
1.04667	-116
1.05033	-110
1.05400	-106
1.05767	-107
1.06133	-112
1.06500	-114
1.06867	-115
1.07233	-116
1.07600	-115
1.07967	-112
1.08333	-112
1.08700	-111
1.09067	-111
1.09433	-111
1.09800	-108
1.10167	-105
1.10533	-104
1.10900	-105
1.11267	-107
1.11633	-110
1.12000	-113
1.12367	-114
1.12733	-110
1.13100	-103
1.13467	-99
1.13833	-100
1.14200	-104
1.14567	-109
1.14933	-113
1.15300	-113
1.15667	-111
1.16033	-108
1.16400	-106
1.16767	-107
1.17133	-111
1.17500	-118
1.17867	-123
1.18233	-126
1.18600	-127
1.18967	-126
1.19333	-124
1.19700	-121
1.20067	-114
1.20433	-103
1.20800	-95
1.21167	-96
1.21533	-100
1.21900	-103
1.22267	-107
1.22633	-111
1.23000	-113
1.23367	-114
1.23733	-112
1.24100	-109
1.24467	-106
1.24833	-104
1.25200	-102
1.25567	-100
1.25933	-96
1.26300	-96
1.26667	-101
1.27033	-111
1.27400	-122
1.27767	-130
1.28133	-135
1.28500	-133
1.28867	-128
1.29233	-121
1.29600	-114
1.29967	-110
1.30333	-111
1.30700	-115
1.31067	-119
1.31433	-123
1.31800	-127
1.32167	-130
1.32533	-128
1.32900	-123
1.33267	-117
1.33633	-114
1.34000	-111
1.34367	-110
1.34733	-110
1.35100	-113
1.35467	-115
1.35833	-117
1.36200	-118
1.36567	-114
1.36933	-111
1.37300	-111
1.37667	-111
1.38033	-108
1.38400	-104
1.38767	-102
1.39133	-104
1.39500	-105
1.39867	-106
1.40233	-106
1.40600	-109
1.40967	-116
1.41333	-124
1.41700	-132
1.42067	-137
1.42433	-138
1.42800	-135
1.43167	-129
1.43533	-119
1.43900	-98
1.44267	-9
1.44633	229
1.45000	631
1.45367	1184
1.45733	1873
1.46100	2603
1.46467	3247
1.46833	3733
1.47200	4034
1.47567	4140
1.47933	4038
1.48300	3723
1.48667	3229
1.49033	2639
1.49400	2052
1.49767	1533
1.50133	1111
1.50500	786
1.50867	543
1.51233	361
1.51600	229
1.51967	136
1.52333	71
1.52700	23
1.53067	-13
1.53433	-43
1.53800	-60
1.54167	-33
1.54533	98
1.54900	382
1.55267	792
1.55633	1243
1.56000	1650
1.56367	1961
1.56733	2148
1.57100	2179
1.57467	2033
1.57833	1735
1.58200	1357
1.58567	979
1.58933	659
1.59300	412
1.59667	235
1.60033	119
1.60400	44
1.60767	-7
1.61133	-48
1.61500	-83
1.61867	-111
1.62233	-129
1.62600	-137
1.62967	-139
1.63333	-140
1.63700	-145
1.64067	-148
1.64433	-146
1.64800	-141
1.65167	-135
1.65533	-131
1.65900	-132
1.66267	-136
1.66633	-142
1.67000	-146
1.67367	-147
1.67733	-147
1.68100	-145
1.68467	-144
1.68833	-144
1.69200	-143
1.69567	-143
1.69933	-144
1.70300	-145
1.70667	-148
1.71033	-153
1.71400	-157
1.71767	-159
1.72133	-159
1.72500	-157
1.72867	-153
1.73233	-146
1.73600	-140
1.73967	-136
1.74333	-133
1.74700	-131
1.75067	-129
1.75433	-126
1.75800	-124
1.76167	-126
1.76533	-128
1.76900	-125
1.77267	-120
1.77633	-124
1.78000	-136
1.78367	-148
1.78733	-159
1.79100	-167
1.79467	-170
1.79833	-170
1.80200	-170
1.80567	-167
1.80933	-161
1.81300	-155
1.81667	-149
1.82033	-142
1.82400	-132
1.82767	-120
1.83133	-110
1.83500	-105
1.83867	-103
1.84233	-106
1.84600	-114
1.84967	-124
1.85333	-130
1.85700	-135
1.86067	-141
1.86433	-146
1.86800	-152
1.87167	-157
1.87533	-160
1.87900	-158
1.88267	-152
1.88633	-145
1.89000	-138
1.89367	-133
1.89733	-128
1.90100	-126
1.90467	-128
1.90833	-131
1.91200	-134
1.91567	-135
1.91933	-135
1.92300	-131
1.92667	-125
1.93033	-120
1.93400	-117
1.93767	-119
1.94133	-122
1.94500	-124
1.94867	-125
1.95233	-118
1.95600	-49
1.95967	385
1.96333	2500
1.96700	10347
1.97067	32586
1.97433	81456
1.97800	165568
1.98167	281221
1.98533	411101
1.98900	531880
1.99267	623361
1.99633	671899
2.00000	671129
2.00367	623447
2.00733	540336
2.01100	439127
2.01467	337377
2.01833	247597
2.02200	175523
2.02567	121494
2.02933	82914
2.03300	56272
2.03667	38271
2.04033	26256
2.04400	18275
2.04767	12968
2.05133	9414
2.05500	7010
2.05867	5360
2.06233	4203
2.06600	3379
2.06967	2779
2.07333	2329
2.07700	1981
2.08067	1708
2.08433	1491
2.08800	1315
2.09167	1166
2.09533	1041
2.09900	938
2.10267	854
2.10633	783
2.11000	723
2.11367	668
2.11733	614
2.12100	561
2.12467	514
2.12833	472
2.13200	438
2.13567	410
2.13933	388
2.14300	367
2.14667	347
2.15033	327
2.15400	309
2.15767	292
2.16133	279
2.16500	267
2.16867	253
2.17233	240
2.17600	229
2.17967	218
2.18333	206
2.18700	193
2.19067	182
2.19433	175
2.19800	170
2.20167	166
2.20533	160
2.20900	153
2.21267	146
2.21633	140
2.22000	134
2.22367	131
2.22733	131
2.23100	131
2.23467	130
2.23833	123
2.24200	113
2.24567	100
2.24933	90
2.25300	88
2.25667	91
2.26033	98
2.26400	104
2.26767	105
2.27133	102
2.27500	93
2.27867	80
2.28233	67
2.28600	56
2.28967	50
2.29333	49
2.29700	49
2.30067	50
2.30433	50
2.30800	47
2.31167	42
2.31533	36
2.31900	30
2.32267	30
2.32633	37
2.33000	42
2.33367	44
2.33733	44
2.34100	43
2.34467	44
2.34833	46
2.35200	49
2.35567	44
2.35933	33
2.36300	22
2.36667	15
2.37033	12
2.37400	11
2.37767	12
2.38133	12
2.38500	11
2.38867	12
2.39233	14
2.39600	15
2.39967	17
2.40333	23
2.40700	30
2.41067	31
2.41433	22
2.41800	10
2.42167	1
2.42533	-2
2.42900	1
2.43267	5
2.43633	5
2.44000	-1
2.44367	-8
2.44733	-15
2.45100	-22
2.45467	-31
2.45833	-37
2.46200	-40
2.46567	-39
2.46933	-37
2.47300	-32
2.47667	-24
2.48033	-17
2.48400	-11
2.48767	-5
2.49133	-3
2.49500	-3
2.49867	-5
2.50233	-11
2.50600	-14
2.50967	-11
2.51333	-4
2.51700	-3
2.52067	-9
2.52433	-17
2.52800	-22
2.53167	-24
2.53533	-24
2.53900	-26
2.54267	-28
2.54633	-34
2.55000	-39
2.55367	-44
2.55733	-49
2.56100	-54
2.56467	-56
2.56833	-54
2.57200	-46
2.57567	-36
2.57933	-28
2.58300	-24
2.58667	-23
2.59033	-23
2.59400	-24
2.59767	-25
2.60133	-26
2.60500	-33
2.60867	-41
2.61233	-45
2.61600	-47
2.61967	-49
2.62333	-53
2.62700	-57
2.63067	-61
2.63433	-62
2.63800	-56
2.64167	-51
2.64533	-48
2.64900	-48
2.65267	-50
2.65633	-52
2.66000	-53
2.66367	-54
2.66733	-55
2.67100	-57
2.67467	-61
2.67833	-67
2.68200	-73
2.68567	-78
2.68933	-81
2.69300	-82
2.69667	-80
2.70033	-77
2.70400	-75
2.70767	-70
2.71133	-63
2.71500	-57
2.71867	-53
2.72233	-50
2.72600	-48
2.72967	-46
2.73333	-42
2.73700	-40
2.74067	-39
2.74433	-42
2.74800	-50
2.75167	-60
2.75533	-68
2.75900	-75
2.76267	-81
2.76633	-85
2.77000	-88
2.77367	-89
2.77733	-87
2.78100	-79
2.78467	-71
2.78833	-65
2.79200	-62
2.79567	-61
2.79933	-62
2.80300	-67
2.80667	-75
2.81033	-84
2.81400	-91
2.81767	-95
2.82133	-96
2.82500	-93
2.82867	-86
2.83233	-77
2.83600	-72
2.83967	-73
2.84333	-76
2.84700	-80
2.85067	-85
2.85433	-87
2.85800	-86
2.86167	-84
2.86533	-83
2.86900	-84
2.87267	-84
2.87633	-87
2.88000	-89
2.88367	-89
2.88733	-88
2.89100	-86
2.89467	-84
2.89833	-82
2.90200	-80
2.90567	-76
2.90933	-71
2.91300	-67
2.91667	-66
2.92033	-68
2.92400	-73
2.92767	-77
2.93133	-82
2.93500	-87
2.93867	-93
2.94233	-99
2.94600	-103
2.94967	-103
2.95333	-100
2.95700	-94
2.96067	-86
2.96433	-80
2.96800	-72
2.97167	-65
2.97533	-61
2.97900	-64
2.98267	-71
2.98633	-77
2.99000	-84
2.99367	-87
2.99733	-86
3.00100	-83
3.00467	-79
3.00833	-75
3.01200	-69
3.01567	-65
3.01933	-66
3.02300	-67
3.02667	-68
3.03033	-70
3.03400	-73
3.03767	-76
3.04133	-80
3.04500	-81
3.04867	-80
3.05233	-78
3.05600	-74
3.05967	-72
3.06333	-77
3.06700	-83
3.07067	-90
3.07433	-98
3.07800	-105
3.08167	-110
3.08533	-113
3.08900	-115
3.09267	-115
3.09633	-113
3.10000	-110
3.10367	-104
3.10733	-100
3.11100	-95
3.11467	-88
3.11833	-83
3.12200	-77
3.12567	-75
3.12933	-80
3.13300	-91
3.13667	-102
3.14033	-108
3.14400	-109
3.14767	-108
3.15133	-105
3.15500	-95
3.15867	-83
3.16233	-74
3.16600	-71
3.16967	-74
3.17333	-79
3.17700	-86
3.18067	-94
3.18433	-102
3.18800	-111
3.19167	-117
3.19533	-120
3.19900	-120
3.20267	-117
3.20633	-115
3.21000	-111
3.21367	-104
3.21733	-97
3.22100	-92
3.22467	-93
3.22833	-97
3.23200	-100
3.23567	-105
3.23933	-107
3.24300	-105
3.24667	-101
3.25033	-97
3.25400	-97
3.25767	-100
3.26133	-104
3.26500	-106
3.26867	-106
3.27233	-106
3.27600	-109
3.27967	-113
3.28333	-117
3.28700	-120
3.29067	-121
3.29433	-120
3.29800	-120
3.30167	-122
3.30533	-122
3.30900	-120
3.31267	-118
3.31633	-112
3.32000	-105
3.32367	-99
3.32733	-90
3.33100	-82
3.33467	-79
3.33833	-86
3.34200	-97
3.34567	-105
3.34933	-107
3.35300	-103
3.35667	-98
3.36033	-98
3.36400	-102
3.36767	-109
3.37133	-111
3.37500	-109
3.37867	-106
3.38233	-105
3.38600	-107
3.38967	-110
3.39333	-112
3.39700	-113
3.40067	-110
3.40433	-106
3.40800	-104
3.41167	-104
3.41533	-103
3.41900	-100
3.42267	-96
3.42633	-97
3.43000	-100
3.43367	-105
3.43733	-108
3.44100	-112
3.44467	-118
3.44833	-123
3.45200	-124
3.45567	-124
3.45933	-122
3.46300	-117
3.46667	-112
3.47033	-110
3.47400	-112
3.47767	-113
3.48133	-112
3.48500	-109
3.48867	-104
3.49233	-96
3.49600	-85
3.49967	-72
3.50333	-68
3.50700	-74
3.51067	-88
3.51433	-106
3.51800	-119
3.52167	-126
3.52533	-130
3.52900	-132
3.53267	-135
3.53633	-138
3.54000	-139
3.54367	-138
3.54733	-136
3.55100	-134
3.55467	-132
3.55833	-128
3.56200	-122
3.56567	-115
3.56933	-115
3.57300	-118
3.57667	-118
3.58033	-117
3.58400	-114
3.58767	-112
3.59133	-108
3.59500	-104
3.59867	-103
3.60233	-108
3.60600	-115
3.60967	-123
3.61333	-128
3.61700	-127
3.62067	-122
3.62433	-116
3.62800	-110
3.63167	-105
3.63533	-103
3.63900	-106
3.64267	-111
3.64633	-116
3.65000	-120
3.65367	-126
3.65733	-131
3.66100	-135
3.66467	-136
3.66833	-136
3.67200	-134
3.67567	-130
3.67933	-128
3.68300	-126
3.68667	-126
3.69033	-127
3.69400	-126
3.69767	-124
3.70133	-123
3.70500	-124
3.70867	-126
3.71233	-127
3.71600	-128
3.71967	-128
3.72333	-130
3.72700	-133
3.73067	-135
3.73433	-133
3.73800	-130
3.74167	-128
3.74533	-126
3.74900	-123
3.75267	-121
3.75633	-121
3.76000	-123
3.76367	-126
3.76733	-128
3.77100	-130
3.77467	-131
3.77833	-131
3.78200	-133
3.78567	-136
3.78933	-139
3.79300	-142
3.79667	-141
3.80033	-136
3.80400	-127
3.80767	-118
3.81133	-114
3.81500	-116
3.81867	-121
3.82233	-125
3.82600	-124
3.82967	-119
3.83333	-113
3.83700	-111
3.84067	-111
3.84433	-117
3.84800	-126
3.85167	-136
3.85533	-141
3.85900	-140
3.86267	-137
3.86633	-136
3.87000	-137
3.87367	-138
3.87733	-138
3.88100	-138
3.88467	-139
3.88833	-141
3.89200	-141
3.89567	-138
3.89933	-135
3.90300	-135
3.90667	-135
3.91033	-135
3.91400	-133
3.91767	-129
3.92133	-126
3.92500	-124
3.92867	-124
3.93233	-127
3.93600	-133
3.93967	-145
3.94333	-156
3.94700	-162
3.95067	-163
3.95433	-160
3.95800	-155
3.96167	-147
3.96533	-139
3.96900	-132
3.97267	-129
3.97633	-131
3.98000	-139
3.98367	-149
3.98733	-158
3.99100	-163
3.99467	-163
3.99833	-157

[Chromatogram (Ch2)]
Interval(msec)	220
# of Points	1091
Start Time(min)	0.002
End Time(min)	3.998
R.Time (min)	Intensity
0.00167	-0
0.00533	-0
0.00900	-1
0.01267	-1
0.01633	-1
0.02000	-1
0.02367	-1
0.02733	-1
0.03100	-1
0.03467	-1
0.03833	-1
0.04200	-1
0.04567	-1
0.04933	-1
0.05300	-1
0.05667	-1
0.06033	-1
0.06400	-1
0.06767	-1
0.07133	-1
0.07500	-1
0.07867	-1
0.08233	-2
0.08600	-2
0.08967	-2
0.09333	-2
0.09700	-2
0.10067	-2
0.10433	-2
0.10800	-2
0.11167	-2
0.11533	-1
0.11900	-1
0.12267	-1
0.12633	-1
0.13000	-0
0.13367	-0
0.13733	0
0.14100	1
0.14467	1
0.14833	1
0.15200	1
0.15567	2
0.15933	2
0.16300	2
0.16667	2
0.17033	3
0.17400	3
0.17767	3
0.18133	3
0.18500	3
0.18867	3
0.19233	3
0.19600	3
0.19967	4
0.20333	4
0.20700	4
0.21067	4
0.21433	3
0.21800	3
0.22167	3
0.22533	3
0.22900	3
0.23267	3
0.23633	3
0.24000	3
0.24367	3
0.24733	3
0.25100	2
0.25467	2
0.25833	2
0.26200	2
0.26567	1
0.26933	1
0.27300	0
0.27667	-0
0.28033	-1
0.28400	-1
0.28767	-1
0.29133	-2
0.29500	-2
0.29867	-2
0.30233	-2
0.30600	-2
0.30967	-2
0.31333	-3
0.31700	-3
0.32067	-3
0.32433	-3
0.32800	-3
0.33167	-3
0.33533	-3
0.33900	-4
0.34267	-4
0.34633	-4
0.35000	-4
0.35367	-4
0.35733	-4
0.36100	-4
0.36467	-4
0.36833	-4
0.37200	-4
0.37567	-4
0.37933	-4
0.38300	-4
0.38667	-4
0.39033	-4
0.39400	-4
0.39767	-3
0.40133	-3
0.40500	-3
0.40867	-3
0.41233	-3
0.41600	-2
0.41967	-2
0.42333	-2
0.42700	-2
0.43067	-1
0.43433	-1
0.43800	-1
0.44167	-1
0.44533	-0
0.44900	-0
0.45267	0
0.45633	0
0.46000	0
0.46367	1
0.46733	1
0.47100	1
0.47467	1
0.47833	0
0.48200	0
0.48567	-0
0.48933	-0
0.49300	-1
0.49667	-1
0.50033	-1
0.50400	-1
0.50767	-0
0.51133	-0
0.51500	0
0.51867	1
0.52233	1
0.52600	1
0.52967	1
0.53333	1
0.53700	1
0.54067	1
0.54433	1
0.54800	1
0.55167	1
0.55533	1
0.55900	1
0.56267	1
0.56633	1
0.57000	1
0.57367	1
0.57733	0
0.58100	-0
0.58467	-0
0.58833	-0
0.59200	-1
0.59567	-1
0.59933	-1
0.60300	-1
0.60667	-1
0.61033	-1
0.61400	-2
0.61767	-2
0.62133	-2
0.62500	-2
0.62867	-2
0.63233	-2
0.63600	-2
0.63967	-2
0.64333	-2
0.64700	-2
0.65067	-2
0.65433	-2
0.65800	-2
0.66167	-2
0.66533	-2
0.66900	-2
0.67267	-2
0.67633	-2
0.68000	-2
0.68367	-2
0.68733	-2
0.69100	-2
0.69467	-2
0.69833	-2
0.70200	-2
0.70567	-2
0.70933	-2
0.71300	-2
0.71667	-1
0.72033	-1
0.72400	-1
0.72767	-1
0.73133	-1
0.73500	-1
0.73867	-1
0.74233	-1
0.74600	-1
0.74967	-1
0.75333	-1
0.75700	-1
0.76067	-1
0.76433	-1
0.76800	-1
0.77167	-1
0.77533	-1
0.77900	-1
0.78267	-1
0.78633	-1
0.79000	-1
0.79367	-1
0.79733	-1
0.80100	-1
0.80467	-1
0.80833	-1
0.81200	-1
0.81567	-1
0.81933	-1
0.82300	-1
0.82667	-1
0.83033	-1
0.83400	-2
0.83767	-2
0.84133	-2
0.84500	-2
0.84867	-2
0.85233	-2
0.85600	-2
0.85967	-2
0.86333	-2
0.86700	-2
0.87067	-3
0.87433	-3
0.87800	-3
0.88167	-3
0.88533	-3
0.88900	-4
0.89267	-4
0.89633	-4
0.90000	-4
0.90367	-3
0.90733	-3
0.91100	-2
0.91467	-2
0.91833	-2
0.92200	-2
0.92567	-2
0.92933	-2
0.93300	-2
0.93667	-2
0.94033	-2
0.94400	-2
0.94767	-2
0.95133	-2
0.95500	-2
0.95867	-2
0.96233	-2
0.96600	-2
0.96967	-1
0.97333	-1
0.97700	-1
0.98067	-2
0.98433	-2
0.98800	-2
0.99167	-2
0.99533	-2
0.99900	-2
1.00267	-1
1.00633	-1
1.01000	-1
1.01367	-1
1.01733	-1
1.02100	-1
1.02467	-1
1.02833	-2
1.03200	-2
1.03567	-2
1.03933	-2
1.04300	-2
1.04667	-3
1.05033	-3
1.05400	-3
1.05767	-3
1.06133	-3
1.06500	-3
1.06867	-4
1.07233	-4
1.07600	-4
1.07967	-3
1.08333	-3
1.08700	-3
1.09067	-3
1.09433	-3
1.09800	-3
1.10167	-3
1.10533	-2
1.10900	-2
1.11267	-2
1.11633	-2
1.12000	-2
1.12367	-1
1.12733	-1
1.13100	-1
1.13467	-1
1.13833	-1
1.14200	-1
1.14567	-1
1.14933	-1
1.15300	-1
1.15667	-1
1.16033	-1
1.16400	-1
1.16767	-1
1.17133	-1
1.17500	-1
1.17867	-1
1.18233	-1
1.18600	-1
1.18967	-1
1.19333	-1
1.19700	-2
1.20067	-2
1.20433	-2
1.20800	-2
1.21167	-2
1.21533	-2
1.21900	-2
1.22267	-2
1.22633	-2
1.23000	-2
1.23367	-2
1.23733	-2
1.24100	-2
1.24467	-2
1.24833	-2
1.25200	-2
1.25567	-1
1.25933	-1
1.26300	-1
1.26667	-2
1.27033	-2
1.27400	-2
1.27767	-2
1.28133	-2
1.28500	-2
1.28867	-2
1.29233	-2
1.29600	-2
1.29967	-2
1.30333	-2
1.30700	-2
1.31067	-2
1.31433	-2
1.31800	-2
1.32167	-2
1.32533	-2
1.32900	-2
1.33267	-2
1.33633	-2
1.34000	-2
1.34367	-2
1.34733	-2
1.35100	-2
1.35467	-2
1.35833	-2
1.36200	-2
1.36567	-2
1.36933	-2
1.37300	-2
1.37667	-2
1.38033	-2
1.38400	-2
1.38767	-2
1.39133	-2
1.39500	-2
1.39867	-2
1.40233	-2
1.40600	-2
1.40967	-2
1.41333	-2
1.41700	-2
1.42067	-2
1.42433	-2
1.42800	-2
1.43167	-2
1.43533	-2
1.43900	-2
1.44267	-2
1.44633	-2
1.45000	-2
1.45367	-2
1.45733	-2
1.46100	-2
1.46467	-2
1.46833	-2
1.47200	-3
1.47567	-3
1.47933	-3
1.48300	-3
1.48667	-3
1.49033	-4
1.49400	-4
1.49767	-5
1.50133	-5
1.50500	-6
1.50867	-6
1.51233	-6
1.51600	-6
1.51967	-7
1.52333	-7
1.52700	-7
1.53067	-7
1.53433	-7
1.53800	-7
1.54167	-6
1.54533	-6
1.54900	-6
1.55267	-6
1.55633	-5
1.56000	-5
1.56367	-4
1.56733	-4
1.57100	-4
1.57467	-3
1.57833	-3
1.58200	-3
1.58567	-3
1.58933	-3
1.59300	-3
1.59667	-3
1.60033	-4
1.60400	-4
1.60767	-5
1.61133	-6
1.61500	-8
1.61867	-9
1.62233	-12
1.62600	-14
1.62967	-17
1.63333	-20
1.63700	-24
1.64067	-27
1.64433	-31
1.64800	-35
1.65167	-39
1.65533	-43
1.65900	-47
1.66267	-51
1.66633	-55
1.67000	-60
1.67367	-65
1.67733	-70
1.68100	-75
1.68467	-80
1.68833	-85
1.69200	-90
1.69567	-94
1.69933	-97
1.70300	-100
1.70667	-102
1.71033	-104
1.71400	-106
1.71767	-107
1.72133	-109
1.72500	-110
1.72867	-111
1.73233	-112
1.73600	-113
1.73967	-114
1.74333	-115
1.74700	-115
1.75067	-116
1.75433	-117
1.75800	-117
1.76167	-117
1.76533	-117
1.76900	-117
1.77267	-117
1.77633	-116
1.78000	-116
1.78367	-115
1.78733	-115
1.79100	-115
1.79467	-116
1.79833	-117
1.80200	-118
1.80567	-119
1.80933	-120
1.81300	-121
1.81667	-122
1.82033	-123
1.82400	-123
1.82767	-124
1.83133	-124
1.83500	-123
1.83867	-123
1.84233	-123
1.84600	-123
1.84967	-123
1.85333	-123
1.85700	-123
1.86067	-123
1.86433	-123
1.86800	-123
1.87167	-124
1.87533	-124
1.87900	-124
1.88267	-124
1.88633	-124
1.89000	-124
1.89367	-123
1.89733	-122
1.90100	-122
1.90467	-121
1.90833	-120
1.91200	-120
1.91567	-119
1.91933	-120
1.92300	-120
1.92667	-121
1.93033	-121
1.93400	-121
1.93767	-121
1.94133	-120
1.94500	-120
1.94867	-119
1.95233	-119
1.95600	-118
1.95967	-118
1.96333	-118
1.96700	-118
1.97067	-118
1.97433	-118
1.97800	-118
1.98167	-118
1.98533	-118
1.98900	-117
1.99267	-117
1.99633	-117
2.00000	-117
2.00367	-116
2.00733	-116
2.01100	-115
2.01467	-114
2.01833	-113
2.02200	-112
2.02567	-112
2.02933	-111
2.03300	-111
2.03667	-110
2.04033	-110
2.04400	-109
2.04767	-109
2.05133	-108
2.05500	-108
2.05867	-109
2.06233	-109
2.06600	-110
2.06967	-110
2.07333	-109
2.07700	-109
2.08067	-109
2.08433	-109
2.08800	-108
2.09167	-108
2.09533	-108
2.09900	-107
2.10267	-106
2.10633	-106
2.11000	-105
2.11367	-104
2.11733	-103
2.12100	-103
2.12467	-102
2.12833	-102
2.13200	-102
2.13567	-103
2.13933	-103
2.14300	-103
2.14667	-102
2.15033	-102
2.15400	-102
2.15767	-102
2.16133	-101
2.16500	-101
2.16867	-100
2.17233	-100
2.17600	-100
2.17967	-99
2.18333	-99
2.18700	-98
2.19067	-98
2.19433	-97
2.19800	-96
2.20167	-96
2.20533	-95
2.20900	-95
2.21267	-96
2.21633	-96
2.22000	-96
2.22367	-96
2.22733	-95
2.23100	-94
2.23467	-94
2.23833	-93
2.24200	-93
2.24567	-92
2.24933	-92
2.25300	-92
2.25667	-93
2.26033	-93
2.26400	-93
2.26767	-93
2.27133	-93
2.27500	-93
2.27867	-93
2.28233	-93
2.28600	-93
2.28967	-94
2.29333	-94
2.29700	-95
2.30067	-96
2.30433	-96
2.30800	-95
2.31167	-94
2.31533	-94
2.31900	-93
2.32267	-92
2.32633	-91
2.33000	-90
2.33367	-89
2.33733	-89
2.34100	-88
2.34467	-88
2.34833	-87
2.35200	-87
2.35567	-86
2.35933	-85
2.36300	-84
2.36667	-83
2.37033	-82
2.37400	-79
2.37767	-77
2.38133	-74
2.38500	-70
2.38867	-66
2.39233	-62
2.39600	-58
2.39967	-53
2.40333	-48
2.40700	-43
2.41067	-38
2.41433	-34
2.41800	-30
2.42167	-26
2.42533	-24
2.42900	-21
2.43267	-19
2.43633	-18
2.44000	-16
2.44367	-14
2.44733	-12
2.45100	-10
2.45467	-7
2.45833	-5
2.46200	-3
2.46567	-2
2.46933	-1
2.47300	0
2.47667	1
2.48033	2
2.48400	3
2.48767	4
2.49133	5
2.49500	6
2.49867	7
2.50233	7
2.50600	8
2.50967	9
2.51333	10
2.51700	10
2.52067	11
2.52433	12
2.52800	12
2.53167	12
2.53533	12
2.53900	13
2.54267	12
2.54633	13
2.55000	13
2.55367	13
2.55733	14
2.56100	14
2.56467	14
2.56833	14
2.57200	14
2.57567	14
2.57933	13
2.58300	13
2.58667	13
2.59033	13
2.59400	13
2.59767	13
2.60133	13
2.60500	13
2.60867	13
2.61233	13
2.61600	13
2.61967	13
2.62333	13
2.62700	13
2.63067	14
2.63433	14
2.63800	15
2.64167	16
2.64533	16
2.64900	16
2.65267	16
2.65633	17
2.66000	17
2.66367	17
2.66733	17
2.67100	18
2.67467	18
2.67833	18
2.68200	19
2.68567	18
2.68933	18
2.69300	18
2.69667	18
2.70033	18
2.70400	18
2.70767	18
2.71133	19
2.71500	19
2.71867	20
2.72233	20
2.72600	21
2.72967	21
2.73333	22
2.73700	22
2.74067	23
2.74433	24
2.74800	25
2.75167	25
2.75533	25
2.75900	25
2.76267	26
2.76633	26
2.77000	26
2.77367	26
2.77733	26
2.78100	26
2.78467	26
2.78833	26
2.79200	26
2.79567	26
2.79933	26
2.80300	26
2.80667	26
2.81033	26
2.81400	26
2.81767	25
2.82133	25
2.82500	25
2.82867	25
2.83233	25
2.83600	25
2.83967	24
2.84333	23
2.84700	22
2.85067	18
2.85433	13
2.85800	5
2.86167	-6
2.86533	-21
2.86900	-39
2.87267	-62
2.87633	-89
2.88000	-120
2.88367	-155
2.88733	-193
2.89100	-234
2.89467	-278
2.89833	-324
2.90200	-371
2.90567	-420
2.90933	-471
2.91300	-521
2.91667	-571
2.92033	-622
2.92400	-672
2.92767	-721
2.93133	-770
2.93500	-820
2.93867	-874
2.94233	-933
2.94600	-996
2.94967	-1052
2.95333	-1090
2.95700	-1102
2.96067	-1088
2.96433	-1049
2.96800	-992
2.97167	-922
2.97533	-844
2.97900	-763
2.98267	-682
2.98633	-605
2.99000	-532
2.99367	-465
2.99733	-404
3.00100	-349
3.00467	-300
3.00833	-257
3.01200	-219
3.01567	-186
3.01933	-158
3.02300	-134
3.02667	-113
3.03033	-94
3.03400	-79
3.03767	-66
3.04133	-55
3.04500	-45
3.04867	-37
3.05233	-30
3.05600	-24
3.05967	-19
3.06333	-15
3.06700	-12
3.07067	-8
3.07433	-5
3.07800	-3
3.08167	-0
3.08533	2
3.08900	4
3.09267	5
3.09633	7
3.10000	8
3.10367	9
3.10733	11
3.11100	12
3.11467	13
3.11833	14
3.12200	14
3.12567	15
3.12933	15
3.13300	15
3.13667	15
3.14033	16
3.14400	16
3.14767	16
3.15133	16
3.15500	17
3.15867	17
3.16233	17
3.16600	18
3.16967	18
3.17333	18
3.17700	19
3.18067	19
3.18433	19
3.18800	20
3.19167	20
3.19533	21
3.19900	21
3.20267	22
3.20633	22
3.21000	23
3.21367	23
3.21733	23
3.22100	24
3.22467	24
3.22833	24
3.23200	25
3.23567	25
3.23933	25
3.24300	25
3.24667	25
3.25033	25
3.25400	26
3.25767	26
3.26133	26
3.26500	26
3.26867	26
3.27233	26
3.27600	26
3.27967	27
3.28333	27
3.28700	27
3.29067	27
3.29433	27
3.29800	27
3.30167	27
3.30533	27
3.30900	27
3.31267	27
3.31633	27
3.32000	27
3.32367	27
3.32733	27
3.33100	27
3.33467	27
3.33833	27
3.34200	26
3.34567	26
3.34933	26
3.35300	26
3.35667	26
3.36033	26
3.36400	25
3.36767	25
3.37133	25
3.37500	25
3.37867	24
3.38233	24
3.38600	24
3.38967	24
3.39333	24
3.39700	24
3.40067	24
3.40433	24
3.40800	24
3.41167	24
3.41533	25
3.41900	25
3.42267	25
3.42633	25
3.43000	25
3.43367	25
3.43733	25
3.44100	25
3.44467	25
3.44833	25
3.45200	25
3.45567	25
3.45933	25
3.46300	25
3.46667	25
3.47033	25
3.47400	25
3.47767	25
3.48133	25
3.48500	25
3.48867	25
3.49233	25
3.49600	25
3.49967	26
3.50333	26
3.50700	26
3.51067	26
3.51433	26
3.51800	26
3.52167	26
3.52533	26
3.52900	26
3.53267	26
3.53633	25
3.54000	25
3.54367	25
3.54733	25
3.55100	25
3.55467	24
3.55833	24
3.56200	24
3.56567	24
3.56933	24
3.57300	24
3.57667	24
3.58033	24
3.58400	24
3.58767	24
3.59133	24
3.59500	24
3.59867	24
3.60233	25
3.60600	25
3.60967	25
3.61333	26
3.61700	26
3.62067	26
3.62433	27
3.62800	27
3.63167	27
3.63533	27
3.63900	27
3.64267	27
3.64633	27
3.65000	27
3.65367	28
3.65733	28
3.66100	28
3.66467	28
3.66833	29
3.67200	29
3.67567	29
3.67933	29
3.68300	29
3.68667	29
3.69033	29
3.69400	29
3.69767	29
3.70133	29
3.70500	29
3.70867	29
3.71233	29
3.71600	29
3.71967	28
3.72333	28
3.72700	28
3.73067	27
3.73433	27
3.73800	26
3.74167	26
3.74533	26
3.74900	26
3.75267	26
3.75633	26
3.76000	26
3.76367	26
3.76733	26
3.77100	26
3.77467	26
3.77833	26
3.78200	26
3.78567	27
3.78933	27
3.79300	27
3.79667	27
3.80033	26
3.80400	26
3.80767	26
3.81133	26
3.81500	26
3.81867	26
3.82233	26
3.82600	26
3.82967	26
3.83333	26
3.83700	26
3.84067	26
3.84433	26
3.84800	26
3.85167	26
3.85533	26
3.85900	26
3.86267	26
3.86633	26
3.87000	25
3.87367	25
3.87733	25
3.88100	25
3.88467	25
3.88833	25
3.89200	25
3.89567	25
3.89933	25
3.90300	25
3.90667	25
3.91033	25
3.91400	25
3.91767	25
3.92133	26
3.92500	26
3.92867	26
3.93233	26
3.93600	26
3.93967	26
3.94333	26
3.94700	26
3.95067	26
3.95433	26
3.95800	26
3.96167	26
3.96533	26
3.96900	27
3.97267	27
3.97633	27
3.98000	27
3.98367	27
3.98733	27
3.99100	27
3.99467	26
3.99833	26

[Chromatogram (Ch3)]
Interval(msec)	220
# of Points	1091
Start Time(min)	0.002
End Time(min)	3.998
R.Time (min)	Intensity
0.00167	-0
0.00533	0
0.00900	0
0.01267	-1
0.01633	-2
0.02000	-3
0.02367	-1
0.02733	0
0.03100	0
0.03467	-1
0.03833	-1
0.04200	-1
0.04567	-1
0.04933	2
0.05300	1
0.05667	1
0.06033	-1
0.06400	-2
0.06767	-1
0.07133	-1
0.07500	-1
0.07867	-3
0.08233	-1
0.08600	-0
0.08967	0
0.09333	2
0.09700	1
0.10067	-0
0.10433	0
0.10800	2
0.11167	2
0.11533	1
0.11900	2
0.12267	4
0.12633	7
0.13000	7
0.13367	5
0.13733	3
0.14100	3
0.14467	4
0.14833	6
0.15200	9
0.15567	9
0.15933	7
0.16300	4
0.16667	2
0.17033	0
0.17400	-1
0.17767	-2
0.18133	-3
0.18500	-3
0.18867	-2
0.19233	1
0.19600	1
0.19967	2
0.20333	1
0.20700	-0
0.21067	-0
0.21433	1
0.21800	0
0.22167	-1
0.22533	-2
0.22900	-2
0.23267	1
0.23633	2
0.24000	2
0.24367	1
0.24733	-1
0.25100	-1
0.25467	0
0.25833	1
0.26200	0
0.26567	1
0.26933	2
0.27300	5
0.27667	7
0.28033	7
0.28400	5
0.28767	3
0.29133	0
0.29500	-1
0.29867	0
0.30233	1
0.30600	2
0.30967	4
0.31333	6
0.31700	8
0.32067	9
0.32433	7
0.32800	7
0.33167	6
0.33533	8
0.33900	7
0.34267	5
0.34633	3
0.35000	4
0.35367	5
0.35733	6
0.36100	7
0.36467	9
0.36833	9
0.37200	8
0.37567	7
0.37933	8
0.38300	8
0.38667	7
0.39033	6
0.39400	7
0.39767	9
0.40133	10
0.40500	10
0.40867	9
0.41233	9
0.41600	8
0.41967	7
0.42333	6
0.42700	6
0.43067	6
0.43433	6
0.43800	7
0.44167	7
0.44533	8
0.44900	7
0.45267	7
0.45633	8
0.46000	8
0.46367	6
0.46733	7
0.47100	8
0.47467	8
0.47833	9
0.48200	11
0.48567	10
0.48933	9
0.49300	7
0.49667	5
0.50033	5
0.50400	7
0.50767	9
0.51133	10
0.51500	10
0.51867	11
0.52233	12
0.52600	12
0.52967	10
0.53333	9
0.53700	10
0.54067	10
0.54433	11
0.54800	11
0.55167	9
0.55533	6
0.55900	6
0.56267	7
0.56633	7
0.57000	7
0.57367	5
0.57733	4
0.58100	3
0.58467	4
0.58833	4
0.59200	3
0.59567	4
0.59933	6
0.60300	8
0.60667	8
0.61033	8
0.61400	9
0.61767	8
0.62133	6
0.62500	6
0.62867	6
0.63233	4
0.63600	5
0.63967	6
0.64333	8
0.64700	8
0.65067	7
0.65433	7
0.65800	7
0.66167	5
0.66533	4
0.66900	4
0.67267	3
0.67633	2
0.68000	2
0.68367	4
0.68733	3
0.69100	2
0.69467	2
0.69833	1
0.70200	0
0.70567	1
0.70933	4
0.71300	3
0.71667	2
0.72033	2
0.72400	3
0.72767	2
0.73133	1
0.73500	1
0.73867	2
0.74233	3
0.74600	4
0.74967	4
0.75333	6
0.75700	7
0.76067	8
0.76433	10
0.76800	11
0.77167	11
0.77533	11
0.77900	9
0.78267	9
0.78633	8
0.79000	7
0.79367	7
0.79733	7
0.80100	6
0.80467	6
0.80833	7
0.81200	6
0.81567	4
0.81933	2
0.82300	1
0.82667	1
0.83033	4
0.83400	6
0.83767	6
0.84133	6
0.84500	5
0.84867	3
0.85233	1
0.85600	1
0.85967	3
0.86333	4
0.86700	2
0.87067	1
0.87433	0
0.87800	1
0.88167	4
0.88533	7
0.88900	7
0.89267	3
0.89633	0
0.90000	-2
0.90367	-3
0.90733	-4
0.91100	-3
0.91467	-2
0.91833	-1
0.92200	1
0.92567	0
0.92933	-2
0.93300	-2
0.93667	-0
0.94033	3
0.94400	5
0.94767	6
0.95133	6
0.95500	5
0.95867	2
0.96233	-1
0.96600	-2
0.96967	-2
0.97333	1
0.97700	4
0.98067	5
0.98433	6
0.98800	6
0.99167	4
0.99533	2
0.99900	2
1.00267	3
1.00633	5
1.01000	4
1.01367	2
1.01733	-1
1.02100	-1
1.02467	1
1.02833	2
1.03200	4
1.03567	5
1.03933	3
1.04300	-1
1.04667	-4
1.05033	-3
1.05400	-1
1.05767	-0
1.06133	1
1.06500	1
1.06867	0
1.07233	2
1.07600	3
1.07967	2
1.08333	2
1.08700	3
1.09067	3
1.09433	2
1.09800	3
1.10167	1
1.10533	-1
1.10900	-0
1.11267	3
1.11633	4
1.12000	3
1.12367	1
1.12733	-2
1.13100	-4
1.13467	-3
1.13833	-2
1.14200	-3
1.14567	-6
1.14933	-4
1.15300	-3
1.15667	-3
1.16033	-7
1.16400	-9
1.16767	-10
1.17133	-10
1.17500	-10
1.17867	-8
1.18233	-6
1.18600	-5
1.18967	-4
1.19333	-4
1.19700	-3
1.20067	-5
1.20433	-5
1.20800	-5
1.21167	-5
1.21533	-5
1.21900	-6
1.22267	-5
1.22633	-6
1.23000	-7
1.23367	-7
1.23733	-8
1.24100	-9
1.24467	-9
1.24833	-9
1.25200	-8
1.25567	-6
1.25933	-4
1.26300	-4
1.26667	-6
1.27033	-6
1.27400	-7
1.27767	-7
1.28133	-7
1.28500	-7
1.28867	-6
1.29233	-6
1.29600	-7
1.29967	-6
1.30333	-6
1.30700	-5
1.31067	-4
1.31433	-4
1.31800	-3
1.32167	-2
1.32533	-4
1.32900	-5
1.33267	-5
1.33633	-4
1.34000	-3
1.34367	-2
1.34733	-2
1.35100	-4
1.35467	-5
1.35833	-5
1.36200	-5
1.36567	-4
1.36933	-5
1.37300	-7
1.37667	-8
1.38033	-10
1.38400	-12
1.38767	-12
1.39133	-12
1.39500	-10
1.39867	-7
1.40233	-6
1.40600	-6
1.40967	-6
1.41333	-8
1.41700	-9
1.42067	-10
1.42433	-11
1.42800	-9
1.43167	-8
1.43533	-5
1.43900	-4
1.44267	-4
1.44633	-5
1.45000	-6
1.45367	-7
1.45733	-6
1.46100	-5
1.46467	-4
1.46833	-4
1.47200	-4
1.47567	-5
1.47933	-6
1.48300	-8
1.48667	-12
1.49033	-13
1.49400	-13
1.49767	-13
1.50133	-12
1.50500	-11
1.50867	-11
1.51233	-12
1.51600	-17
1.51967	-18
1.52333	-17
1.52700	-15
1.53067	-15
1.53433	-14
1.53800	-15
1.54167	-16
1.54533	-17
1.54900	-17
1.55267	-16
1.55633	-16
1.56000	-15
1.56367	-13
1.56733	-12
1.57100	-13
1.57467	-14
1.57833	-14
1.58200	-13
1.58567	-13
1.58933	-12
1.59300	-11
1.59667	-11
1.60033	-11
1.60400	-10
1.60767	-8
1.61133	-6
1.61500	-7
1.61867	-9
1.62233	-8
1.62600	-9
1.62967	-10
1.63333	-11
1.63700	-11
1.64067	-10
1.64433	-8
1.64800	-6
1.65167	-3
1.65533	-1
1.65900	-1
1.66267	-0
1.66633	-2
1.67000	-3
1.67367	-4
1.67733	-3
1.68100	-2
1.68467	-2
1.68833	-3
1.69200	-4
1.69567	-4
1.69933	-4
1.70300	-3
1.70667	-2
1.71033	-2
1.71400	-1
1.71767	0
1.72133	-0
1.72500	0
1.72867	1
1.73233	1
1.73600	3
1.73967	4
1.74333	4
1.74700	1
1.75067	0
1.75433	2
1.75800	3
1.76167	6
1.76533	10
1.76900	11
1.77267	12
1.77633	13
1.78000	13
1.78367	11
1.78733	13
1.79100	14
1.79467	15
1.79833	17
1.80200	19
1.80567	18
1.80933	17
1.81300	17
1.81667	19
1.82033	20
1.82400	23
1.82767	24
1.83133	21
1.83500	18
1.83867	16
1.84233	15
1.84600	16
1.84967	18
1.85333	19
1.85700	20
1.86067	19
1.86433	16
1.86800	17
1.87167	18
1.87533	17
1.87900	18
1.88267	20
1.88633	20
1.89000	20
1.89367	21
1.89733	20
1.90100	19
1.90467	20
1.90833	20
1.91200	20
1.91567	22
1.91933	22
1.92300	21
1.92667	21
1.93033	22
1.93400	22
1.93767	22
1.94133	22
1.94500	24
1.94867	26
1.95233	25
1.95600	24
1.95967	25
1.96333	26
1.96700	26
1.97067	26
1.97433	26
1.97800	26
1.98167	27
1.98533	28
1.98900	29
1.99267	31
1.99633	32
2.00000	32
2.00367	33
2.00733	34
2.01100	35
2.01467	34
2.01833	34
2.02200	35
2.02567	37
2.02933	40
2.03300	42
2.03667	44
2.04033	45
2.04400	45
2.04767	45
2.05133	46
2.05500	45
2.05867	46
2.06233	47
2.06600	47
2.06967	46
2.07333	48
2.07700	50
2.08067	52
2.08433	54
2.08800	56
2.09167	57
2.09533	57
2.09900	57
2.10267	59
2.10633	59
2.11000	60
2.11367	62
2.11733	66
2.12100	67
2.12467	67
2.12833	68
2.13200	66
2.13567	65
2.13933	66
2.14300	70
2.14667	74
2.15033	76
2.15400	78
2.15767	80
2.16133	80
2.16500	79
2.16867	80
2.17233	80
2.17600	79
2.17967	80
2.18333	82
2.18700	81
2.19067	80
2.19433	80
2.19800	81
2.20167	82
2.20533	84
2.20900	85
2.21267	86
2.21633	86
2.22000	85
2.22367	85
2.22733	85
2.23100	86
2.23467	90
2.23833	94
2.24200	98
2.24567	99
2.24933	100
2.25300	103
2.25667	106
2.26033	107
2.26400	106
2.26767	105
2.27133	102
2.27500	102
2.27867	102
2.28233	100
2.28600	98
2.28967	98
2.29333	100
2.29700	102
2.30067	104
2.30433	105
2.30800	106
2.31167	107
2.31533	109
2.31900	110
2.32267	113
2.32633	114
2.33000	115
2.33367	117
2.33733	118
2.34100	121
2.34467	122
2.34833	122
2.35200	121
2.35567	121
2.35933	121
2.36300	120
2.36667	121
2.37033	122
2.37400	124
2.37767	126
2.38133	126
2.38500	125
2.38867	123
2.39233	123
2.39600	122
2.39967	124
2.40333	125
2.40700	125
2.41067	127
2.41433	128
2.41800	129
2.42167	132
2.42533	135
2.42900	137
2.43267	138
2.43633	138
2.44000	138
2.44367	142
2.44733	156
2.45100	162
2.45467	156
2.45833	143
2.46200	130
2.46567	123
2.46933	124
2.47300	130
2.47667	139
2.48033	148
2.48400	157
2.48767	165
2.49133	171
2.49500	180
2.49867	191
2.50233	204
2.50600	218
2.50967	230
2.51333	242
2.51700	254
2.52067	265
2.52433	272
2.52800	279
2.53167	284
2.53533	287
2.53900	292
2.54267	297
2.54633	301
2.55000	305
2.55367	305
2.55733	305
2.56100	309
2.56467	315
2.56833	320
2.57200	323
2.57567	326
2.57933	328
2.58300	329
2.58667	330
2.59033	331
2.59400	332
2.59767	333
2.60133	330
2.60500	317
2.60867	298
2.61233	273
2.61600	244
2.61967	212
2.62333	181
2.62700	148
2.63067	118
2.63433	91
2.63800	71
2.64167	57
2.64533	45
2.64900	39
2.65267	38
2.65633	39
2.66000	41
2.66367	46
2.66733	55
2.67100	65
2.67467	73
2.67833	83
2.68200	90
2.68567	99
2.68933	107
2.69300	117
2.69667	126
2.70033	133
2.70400	141
2.70767	150
2.71133	159
2.71500	168
2.71867	173
2.72233	176
2.72600	181
2.72967	187
2.73333	192
2.73700	197
2.74067	203
2.74433	208
2.74800	211
2.75167	215
2.75533	219
2.75900	222
2.76267	225
2.76633	227
2.77000	229
2.77367	233
2.77733	235
2.78100	236
2.78467	237
2.78833	239
2.79200	241
2.79567	243
2.79933	244
2.80300	247
2.80667	249
2.81033	250
2.81400	253
2.81767	257
2.82133	261
2.82500	269
2.82867	292
2.83233	337
2.83600	428
2.83967	587
2.84333	834
2.84700	1187
2.85067	1646
2.85433	2201
2.85800	2817
2.86167	3453
2.86533	4061
2.86900	4589
2.87267	4995
2.87633	5256
2.88000	5362
2.88367	5324
2.88733	5162
2.89100	4907
2.89467	4589
2.89833	4233
2.90200	3860
2.90567	3491
2.90933	3138
2.91300	2804
2.91667	2498
2.92033	2219
2.92400	1967
2.92767	1745
2.93133	1549
2.93500	1377
2.93867	1225
2.94233	1091
2.94600	972
2.94967	870
2.95333	782
2.95700	707
2.96067	644
2.96433	589
2.96800	542
2.97167	501
2.97533	465
2.97900	435
2.98267	409
2.98633	385
2.99000	364
2.99367	343
2.99733	326
3.00100	311
3.00467	300
3.00833	291
3.01200	284
3.01567	275
3.01933	268
3.02300	261
3.02667	256
3.03033	252
3.03400	247
3.03767	242
3.04133	237
3.04500	233
3.04867	230
3.05233	227
3.05600	227
3.05967	227
3.06333	227
3.06700	226
3.07067	223
3.07433	219
3.07800	216
3.08167	212
3.08533	210
3.08900	209
3.09267	208
3.09633	207
3.10000	205
3.10367	200
3.10733	196
3.11100	194
3.11467	193
3.11833	192
3.12200	191
3.12567	192
3.12933	191
3.13300	186
3.13667	183
3.14033	183
3.14400	183
3.14767	181
3.15133	179
3.15500	177
3.15867	174
3.16233	172
3.16600	171
3.16967	174
3.17333	174
3.17700	172
3.18067	171
3.18433	171
3.18800	172
3.19167	172
3.19533	170
3.19900	169
3.20267	168
3.20633	168
3.21000	169
3.21367	169
3.21733	168
3.22100	166
3.22467	165
3.22833	164
3.23200	162
3.23567	161
3.23933	160
3.24300	160
3.24667	162
3.25033	161
3.25400	157
3.25767	153
3.26133	149
3.26500	148
3.26867	149
3.27233	148
3.27600	145
3.27967	144
3.28333	143
3.28700	142
3.29067	141
3.29433	142
3.29800	141
3.30167	138
3.30533	135
3.30900	133
3.31267	133
3.31633	133
3.32000	131
3.32367	129
3.32733	125
3.33100	119
3.33467	116
3.33833	114
3.34200	112
3.34567	111
3.34933	110
3.35300	109
3.35667	110
3.36033	110
3.36400	108
3.36767	106
3.37133	103
3.37500	101
3.37867	100
3.38233	98
3.38600	99
3.38967	98
3.39333	96
3.39700	96
3.40067	97
3.40433	95
3.40800	92
3.41167	91
3.41533	90
3.41900	89
3.42267	87
3.42633	84
3.43000	81
3.43367	76
3.43733	72
3.44100	70
3.44467	69
3.44833	68
3.45200	68
3.45567	70
3.45933	69
3.46300	68
3.46667	68
3.47033	65
3.47400	64
3.47767	63
3.48133	60
3.48500	56
3.48867	52
3.49233	49
3.49600	47
3.49967	47
3.50333	47
3.50700	49
3.51067	51
3.51433	52
3.51800	49
3.52167	45
3.52533	44
3.52900	45
3.53267	46
3.53633	44
3.54000	41
3.54367	39
3.54733	36
3.55100	34
3.55467	33
3.55833	34
3.56200	35
3.56567	33
3.56933	32
3.57300	34
3.57667	33
3.58033	30
3.58400	29
3.58767	29
3.59133	27
3.59500	25
3.59867	24
3.60233	23
3.60600	21
3.60967	21
3.61333	21
3.61700	19
3.62067	20
3.62433	20
3.62800	20
3.63167	20
3.63533	18
3.63900	16
3.64267	16
3.64633	15
3.65000	14
3.65367	13
3.65733	11
3.66100	11
3.66467	11
3.66833	10
3.67200	7
3.67567	5
3.67933	5
3.68300	5
3.68667	5
3.69033	5
3.69400	5
3.69767	3
3.70133	-1
3.70500	-3
3.70867	-1
3.71233	1
3.71600	2
3.71967	0
3.72333	-2
3.72700	-5
3.73067	-5
3.73433	-5
3.73800	-5
3.74167	-5
3.74533	-4
3.74900	-3
3.75267	-2
3.75633	-3
3.76000	-6
3.76367	-6
3.76733	-6
3.77100	-6
3.77467	-5
3.77833	-3
3.78200	-1
3.78567	-1
3.78933	-3
3.79300	-6
3.79667	-9
3.80033	-11
3.80400	-10
3.80767	-8
3.81133	-7
3.81500	-7
3.81867	-7
3.82233	-8
3.82600	-7
3.82967	-7
3.83333	-6
3.83700	-6
3.84067	-8
3.84433	-11
3.84800	-13
3.85167	-12
3.85533	-13
3.85900	-13
3.86267	-14
3.86633	-14
3.87000	-13
3.87367	-13
3.87733	-12
3.88100	-13
3.88467	-15
3.88833	-18
3.89200	-19
3.89567	-18
3.89933	-16
3.90300	-14
3.90667	-14
3.91033	-16
3.91400	-19
3.91767	-23
3.92133	-24
3.92500	-25
3.92867	-24
3.93233	-23
3.93600	-23
3.93967	-23
3.94333	-24
3.94700	-23
3.95067	-21
3.95433	-22
3.95800	-22
3.96167	-21
3.96533	-22
3.96900	-23
3.97267	-24
3.97633	-24
3.98000	-24
3.98367	-23
3.98733	-24
3.99100	-25
3.99467	-26
3.99833	-25

[Status Trace (Column Oven Temperature)]
Interval(msec)	1000
# of Points	240
Start Time(min)	0.011
End Time(min)	3.994
Intensity Units	
Intensity Multiplier	1
R.Time (min)	Intensity
0.01077	35.00
0.02743	35.01
0.04410	35.02
0.06077	35.03
0.07743	35.03
0.09410	35.03
0.11077	35.03
0.12743	35.03
0.14410	35.02
0.16077	35.00
0.17743	35.00
0.19410	34.99
0.21077	34.98
0.22743	34.98
0.24410	34.98
0.26077	34.97
0.27743	34.98
0.29410	34.98
0.31077	34.99
0.32743	35.00
0.34410	35.01
0.36077	35.02
0.37743	35.02
0.39410	35.03
0.41077	35.02
0.42743	35.02
0.44410	35.01
0.46077	34.99
0.47743	34.99
0.49410	34.99
0.51077	34.99
0.52743	34.98
0.54410	34.97
0.56077	34.97
0.57743	34.97
0.59410	34.97
0.61077	34.97
0.62743	34.97
0.64410	34.98
0.66077	35.00
0.67743	35.00
0.69410	35.00
0.71077	34.99
0.72743	34.98
0.74410	34.98
0.76077	34.99
0.77743	34.98
0.79410	34.98
0.81077	34.98
0.82743	34.98
0.84410	34.98
0.86077	34.98
0.87743	34.98
0.89410	35.00
0.91077	35.00
0.92743	35.01
0.94410	35.00
0.96077	35.00
0.97743	35.00
0.99410	34.99
1.01077	34.99
1.02743	34.99
1.04410	35.00
1.06077	35.00
1.07743	35.01
1.09410	35.01
1.11077	35.00
1.12743	35.00
1.14410	35.00
1.16077	34.99
1.17743	34.99
1.19410	34.99
1.21077	34.98
1.22743	34.99
1.24410	34.98
1.26077	34.99
1.27743	34.98
1.29410	34.99
1.31077	34.99
1.32743	34.99
1.34410	34.99
1.36077	34.99
1.37743	34.99
1.39410	34.99
1.41077	34.99
1.42743	34.99
1.44410	35.00
1.46077	35.00
1.47743	35.00
1.49410	35.02
1.51077	35.04
1.52743	35.04
1.54410	35.05
1.56077	35.04
1.57743	35.03
1.59410	35.04
1.61077	35.10
1.62743	35.21
1.64410	35.41
1.66077	35.66
1.67743	36.00
1.69410	36.37
1.71077	36.71
1.72743	37.06
1.74410	37.40
1.76077	37.74
1.77743	38.04
1.79410	38.36
1.81077	38.72
1.82743	39.04
1.84410	39.38
1.86077	39.72
1.87743	40.06
1.89410	40.38
1.91077	40.71
1.92743	41.05
1.94410	41.36
1.96077	41.69
1.97743	42.02
1.99410	42.35
2.01077	42.65
2.02743	43.00
2.04410	43.30
2.06077	43.64
2.07743	43.97
2.09410	44.28
2.11077	44.59
2.12743	44.91
2.14410	45.24
2.16077	45.58
2.17743	45.91
2.19410	46.23
2.21077	46.57
2.22743	46.89
2.24410	47.21
2.26077	47.54
2.27743	47.86
2.29410	48.27
2.31077	48.59
2.32743	48.90
2.34410	49.22
2.36077	49.48
2.37743	49.64
2.39410	49.67
2.41077	49.67
2.42743	49.68
2.44410	49.69
2.46077	49.69
2.47743	49.71
2.49410	49.71
2.51077	49.71
2.52743	49.73
2.54410	49.74
2.56077	49.75
2.57743	49.77
2.59410	49.77
2.61077	49.81
2.62743	49.83
2.64410	49.83
2.66077	49.84
2.67743	49.85
2.69410	49.88
2.71077	49.89
2.72743	49.88
2.74410	49.87
2.76077	49.86
2.77743	49.86
2.79410	49.86
2.81077	49.87
2.82743	49.87
2.84410	49.88
2.86077	49.89
2.87743	49.90
2.89410	49.91
2.91077	49.92
2.92743	49.95
2.94410	49.99
2.96077	50.01
2.97743	50.02
2.99410	50.02
3.01077	50.02
3.02743	50.02
3.04410	50.05
3.06077	50.07
3.07743	50.08
3.09410	50.09
3.11077	50.08
3.12743	50.10
3.14410	50.10
3.16077	50.11
3.17743	50.10
3.19410	50.09
3.21077	50.09
3.22743	50.08
3.24410	50.07
3.26077	50.05
3.27743	50.04
3.29410	50.03
3.31077	50.02
3.32743	50.02
3.34410	50.02
3.36077	50.02
3.37743	50.03
3.39410	50.04
3.41077	50.04
3.42743	50.05
3.44410	50.06
3.46077	50.07
3.47743	50.07
3.49410	50.06
3.51077	50.07
3.52743	50.08
3.54410	50.09
3.56077	50.10
3.57743	50.11
3.59410	50.11
3.61077	50.10
3.62743	50.08
3.64410	50.07
3.66077	50.05
3.67743	50.04
3.69410	50.03
3.71077	50.03
3.72743	50.03
3.74410	50.02
3.76077	50.03
3.77743	50.03
3.79410	50.02
3.81077	50.02
3.82743	50.02
3.84410	50.02
3.86077	50.02
3.87743	50.02
3.89410	50.03
3.91077	50.02
3.92743	50.02
3.94410	50.02
3.96077	50.02
3.97743	50.01
3.99410	50.02

[Status Trace (Injection Unit Temperature)]
Interval(msec)	1000
# of Points	240
Start Time(min)	0.011
End Time(min)	3.994
Intensity Units	
Intensity Multiplier	1
R.Time (min)	Intensity
0.01077	99.99
0.02743	99.99
0.04410	99.98
0.06077	99.99
0.07743	99.99
0.09410	99.99
0.11077	99.99
0.12743	99.99
0.14410	99.99
0.16077	99.99
0.17743	99.99
0.19410	99.99
0.21077	99.99
0.22743	99.99
0.24410	99.99
0.26077	99.99
0.27743	99.99
0.29410	99.99
0.31077	99.99
0.32743	99.99
0.34410	99.99
0.36077	99.99
0.37743	99.99
0.39410	99.99
0.41077	99.99
0.42743	99.99
0.44410	99.99
0.46077	99.99
0.47743	99.99
0.49410	99.99
0.51077	99.99
0.52743	99.99
0.54410	99.99
0.56077	99.99
0.57743	99.99
0.59410	99.99
0.61077	99.99
0.62743	99.99
0.64410	100.00
0.66077	99.99
0.67743	100.00
0.69410	99.99
0.71077	99.99
0.72743	100.00
0.74410	99.99
0.76077	99.99
0.77743	99.99
0.79410	99.99
0.81077	99.99
0.82743	99.99
0.84410	99.99
0.86077	99.99
0.87743	99.99
0.89410	99.99
0.91077	99.99
0.92743	99.99
0.94410	99.99
0.96077	99.99
0.97743	99.99
0.99410	99.99
1.01077	99.98
1.02743	99.99
1.04410	99.99
1.06077	99.99
1.07743	99.99
1.09410	99.99
1.11077	99.99
1.12743	99.99
1.14410	99.99
1.16077	99.99
1.17743	99.99
1.19410	99.99
1.21077	99.99
1.22743	99.99
1.24410	99.99
1.26077	99.99
1.27743	99.99
1.29410	99.99
1.31077	99.99
1.32743	99.99
1.34410	99.99
1.36077	99.99
1.37743	99.99
1.39410	99.99
1.41077	99.99
1.42743	99.99
1.44410	99.99
1.46077	99.99
1.47743	99.99
1.49410	99.99
1.51077	99.99
1.52743	100.00
1.54410	99.99
1.56077	99.99
1.57743	99.99
1.59410	99.99
1.61077	99.99
1.62743	99.99
1.64410	99.99
1.66077	99.99
1.67743	99.99
1.69410	99.99
1.71077	99.99
1.72743	99.99
1.74410	99.99
1.76077	99.99
1.77743	100.00
1.79410	99.99
1.81077	99.99
1.82743	99.99
1.84410	99.99
1.86077	99.99
1.87743	99.99
1.89410	99.98
1.91077	99.99
1.92743	99.99
1.94410	99.99
1.96077	99.99
1.97743	99.99
1.99410	99.99
2.01077	99.98
2.02743	99.99
2.04410	99.98
2.06077	99.98
2.07743	99.97
2.09410	99.98
2.11077	99.98
2.12743	99.98
2.14410	99.98
2.16077	99.98
2.17743	99.98
2.19410	99.98
2.21077	99.98
2.22743	99.98
2.24410	99.97
2.26077	99.98
2.27743	99.98
2.29410	99.98
2.31077	99.98
2.32743	99.98
2.34410	99.97
2.36077	99.98
2.37743	99.97
2.39410	99.98
2.41077	99.97
2.42743	99.97
2.44410	99.97
2.46077	99.98
2.47743	99.98
2.49410	99.97
2.51077	99.98
2.52743	99.98
2.54410	99.98
2.56077	99.98
2.57743	99.98
2.59410	99.98
2.61077	99.98
2.62743	99.98
2.64410	99.98
2.66077	99.98
2.67743	99.99
2.69410	99.99
2.71077	99.98
2.72743	99.99
2.74410	99.99
2.76077	99.99
2.77743	100.00
2.79410	100.00
2.81077	100.00
2.82743	100.00
2.84410	100.00
2.86077	100.00
2.87743	100.01
2.89410	100.00
2.91077	100.00
2.92743	100.01
2.94410	100.01
2.96077	100.01
2.97743	100.01
2.99410	100.01
3.01077	100.01
3.02743	100.01
3.04410	100.01
3.06077	100.02
3.07743	100.02
3.09410	100.02
3.11077	100.02
3.12743	100.03
3.14410	100.03
3.16077	100.03
3.17743	100.03
3.19410	100.03
3.21077	100.03
3.22743	100.03
3.24410	100.03
3.26077	100.04
3.27743	100.04
3.29410	100.04
3.31077	100.04
3.32743	100.04
3.34410	100.04
3.36077	100.04
3.37743	100.05
3.39410	100.04
3.41077	100.05
3.42743	100.05
3.44410	100.05
3.46077	100.05
3.47743	100.05
3.49410	100.05
3.51077	100.05
3.52743	100.06
3.54410	100.05
3.56077	100.06
3.57743	100.05
3.59410	100.05
3.61077	100.06
3.62743	100.06
3.64410	100.06
3.66077	100.06
3.67743	100.05
3.69410	100.05
3.71077	100.05
3.72743	100.05
3.74410	100.06
3.76077	100.05
3.77743	100.05
3.79410	100.06
3.81077	100.05
3.82743	100.05
3.84410	100.05
3.86077	100.05
3.87743	100.05
3.89410	100.06
3.91077	100.05
3.92743	100.05
3.94410	100.05
3.96077	100.05
3.97743	100.05
3.99410	100.05

[Status Trace (Carrier Gas Pressure)]
Interval(msec)	1000
# of Points	240
Start Time(min)	0.011
End Time(min)	3.994
Intensity Units	
Intensity Multiplier	1
R.Time (min)	Intensity
0.01077	58.00
0.02743	55.08
0.04410	57.43
0.06077	59.53
0.07743	59.26
0.09410	58.02
0.11077	57.98
0.12743	58.01
0.14410	58.01
0.16077	58.01
0.17743	58.00
0.19410	58.00
0.21077	58.00
0.22743	58.00
0.24410	58.00
0.26077	58.00
0.27743	58.00
0.29410	58.00
0.31077	58.00
0.32743	58.00
0.34410	58.00
0.36077	58.00
0.37743	58.00
0.39410	58.00
0.41077	58.00
0.42743	58.00
0.44410	58.00
0.46077	58.00
0.47743	58.00
0.49410	58.00
0.51077	58.00
0.52743	58.00
0.54410	58.00
0.56077	58.00
0.57743	58.00
0.59410	58.00
0.61077	58.00
0.62743	58.00
0.64410	58.00
0.66077	58.00
0.67743	58.00
0.69410	58.00
0.71077	58.00
0.72743	58.00
0.74410	58.00
0.76077	58.00
0.77743	58.00
0.79410	58.00
0.81077	58.00
0.82743	58.00
0.84410	58.00
0.86077	58.00
0.87743	58.00
0.89410	58.00
0.91077	58.00
0.92743	58.00
0.94410	58.00
0.96077	58.00
0.97743	58.00
0.99410	58.00
1.01077	58.00
1.02743	58.00
1.04410	58.00
1.06077	58.00
1.07743	58.00
1.09410	58.00
1.11077	58.00
1.12743	58.00
1.14410	58.00
1.16077	58.00
1.17743	58.00
1.19410	58.00
1.21077	58.00
1.22743	58.00
1.24410	58.00
1.26077	58.00
1.27743	58.00
1.29410	58.00
1.31077	58.00
1.32743	58.00
1.34410	58.00
1.36077	58.00
1.37743	58.00
1.39410	58.00
1.41077	58.00
1.42743	58.00
1.44410	58.00
1.46077	58.00
1.47743	58.00
1.49410	58.00
1.51077	58.00
1.52743	58.00
1.54410	58.00
1.56077	58.00
1.57743	58.00
1.59410	58.00
1.61077	58.00
1.62743	58.00
1.64410	58.01
1.66077	58.00
1.67743	58.01
1.69410	58.00
1.71077	58.00
1.72743	58.00
1.74410	58.00
1.76077	58.00
1.77743	58.00
1.79410	58.00
1.81077	58.00
1.82743	58.00
1.84410	58.00
1.86077	58.00
1.87743	58.00
1.89410	58.00
1.91077	58.00
1.92743	58.00
1.94410	58.00
1.96077	58.00
1.97743	58.00
1.99410	58.00
2.01077	58.00
2.02743	58.00
2.04410	58.00
2.06077	58.00
2.07743	58.00
2.09410	58.00
2.11077	58.00
2.12743	58.00
2.14410	58.00
2.16077	58.00
2.17743	58.00
2.19410	58.00
2.21077	58.00
2.22743	58.00
2.24410	58.00
2.26077	58.00
2.27743	58.00
2.29410	58.00
2.31077	58.00
2.32743	58.00
2.34410	58.00
2.36077	58.00
2.37743	58.00
2.39410	57.99
2.41077	57.99
2.42743	58.00
2.44410	58.00
2.46077	58.00
2.47743	58.00
2.49410	58.00
2.51077	57.99
2.52743	57.99
2.54410	58.00
2.56077	58.00
2.57743	58.00
2.59410	58.00
2.61077	58.00
2.62743	58.00
2.64410	58.00
2.66077	58.00
2.67743	58.00
2.69410	58.00
2.71077	58.00
2.72743	58.00
2.74410	58.00
2.76077	58.00
2.77743	58.00
2.79410	58.00
2.81077	58.00
2.82743	58.00
2.84410	58.00
2.86077	58.00
2.87743	58.00
2.89410	58.00
2.91077	58.00
2.92743	58.00
2.94410	58.00
2.96077	58.00
2.97743	58.00
2.99410	58.00
3.01077	58.00
3.02743	58.00
3.04410	58.00
3.06077	58.00
3.07743	58.00
3.09410	58.00
3.11077	58.00
3.12743	58.00
3.14410	58.00
3.16077	58.00
3.17743	58.00
3.19410	58.00
3.21077	58.00
3.22743	58.00
3.24410	58.00
3.26077	58.00
3.27743	58.00
3.29410	58.00
3.31077	58.00
3.32743	58.00
3.34410	58.00
3.36077	58.00
3.37743	58.00
3.39410	58.00
3.41077	58.00
3.42743	58.00
3.44410	58.00
3.46077	58.00
3.47743	58.00
3.49410	58.00
3.51077	58.00
3.52743	58.00
3.54410	58.00
3.56077	58.00
3.57743	58.00
3.59410	58.00
3.61077	58.00
3.62743	58.00
3.64410	58.00
3.66077	58.00
3.67743	58.00
3.69410	58.00
3.71077	58.00
3.72743	58.00
3.74410	58.00
3.76077	58.00
3.77743	58.00
3.79410	58.00
3.81077	58.00
3.82743	58.00
3.84410	58.00
3.86077	58.00
3.87743	58.00
3.89410	58.00
3.91077	58.00
3.92743	58.00
3.94410	58.00
3.96077	58.00
3.97743	58.00
3.99410	58.00

[Status Trace (Carrier Gas Flow)]
Interval(msec)	1000
# of Points	240
Start Time(min)	0.011
End Time(min)	3.994
Intensity Units	
Intensity Multiplier	1
R.Time (min)	Intensity
0.01077	34.52
0.02743	34.53
0.04410	34.54
0.06077	34.54
0.07743	34.49
0.09410	34.52
0.11077	34.52
0.12743	34.53
0.14410	34.52
0.16077	34.53
0.17743	34.52
0.19410	34.52
0.21077	34.52
0.22743	34.52
0.24410	34.52
0.26077	34.52
0.27743	34.52
0.29410	34.52
0.31077	34.52
0.32743	34.52
0.34410	34.52
0.36077	34.52
0.37743	34.52
0.39410	34.52
0.41077	34.52
0.42743	34.52
0.44410	34.52
0.46077	34.52
0.47743	34.52
0.49410	34.52
0.51077	34.52
0.52743	34.52
0.54410	34.52
0.56077	34.52
0.57743	34.52
0.59410	34.52
0.61077	34.52
0.62743	34.52
0.64410	34.51
0.66077	34.52
0.67743	34.52
0.69410	34.52
0.71077	34.52
0.72743	34.52
0.74410	34.52
0.76077	34.52
0.77743	34.52
0.79410	34.52
0.81077	34.52
0.82743	34.52
0.84410	34.52
0.86077	34.51
0.87743	34.52
0.89410	34.52
0.91077	34.52
0.92743	34.52
0.94410	34.52
0.96077	34.52
0.97743	34.52
0.99410	34.52
1.01077	34.52
1.02743	34.52
1.04410	34.52
1.06077	34.52
1.07743	34.52
1.09410	34.52
1.11077	34.52
1.12743	34.53
1.14410	34.52
1.16077	34.52
1.17743	34.52
1.19410	34.52
1.21077	34.52
1.22743	34.52
1.24410	34.52
1.26077	34.52
1.27743	34.52
1.29410	34.52
1.31077	34.52
1.32743	34.52
1.34410	34.52
1.36077	34.52
1.37743	34.52
1.39410	34.52
1.41077	34.51
1.42743	34.51
1.44410	34.52
1.46077	34.52
1.47743	34.52
1.49410	34.51
1.51077	34.52
1.52743	34.51
1.54410	34.52
1.56077	34.51
1.57743	34.52
1.59410	34.51
1.61077	34.52
1.62743	34.52
1.64410	34.52
1.66077	34.53
1.67743	34.52
1.69410	34.52
1.71077	34.51
1.72743	34.52
1.74410	34.51
1.76077	34.53
1.77743	34.53
1.79410	34.52
1.81077	34.51
1.82743	34.50
1.84410	34.52
1.86077	34.52
1.87743	34.51
1.89410	34.53
1.91077	34.52
1.92743	34.52
1.94410	34.51
1.96077	34.52
1.97743	34.52
1.99410	34.52
2.01077	34.51
2.02743	34.51
2.04410	34.52
2.06077	34.51
2.07743	34.53
2.09410	34.51
2.11077	34.53
2.12743	34.52
2.14410	34.52
2.16077	34.51
2.17743	34.52
2.19410	34.51
2.21077	34.52
2.22743	34.52
2.24410	34.51
2.26077	34.53
2.27743	34.52
2.29410	34.52
2.31077	34.51
2.32743	34.51
2.34410	34.52
2.36077	34.52
2.37743	34.52
2.39410	34.52
2.41077	34.52
2.42743	34.52
2.44410	34.52
2.46077	34.52
2.47743	34.52
2.49410	34.52
2.51077	34.51
2.52743	34.52
2.54410	34.52
2.56077	34.52
2.57743	34.52
2.59410	34.51
2.61077	34.52
2.62743	34.52
2.64410	34.52
2.66077	34.52
2.67743	34.52
2.69410	34.52
2.71077	34.52
2.72743	34.52
2.74410	34.52
2.76077	34.52
2.77743	34.52
2.79410	34.52
2.81077	34.52
2.82743	34.52
2.84410	34.52
2.86077	34.52
2.87743	34.52
2.89410	34.52
2.91077	34.52
2.92743	34.52
2.94410	34.52
2.96077	34.52
2.97743	34.52
2.99410	34.52
3.01077	34.52
3.02743	34.52
3.04410	34.52
3.06077	34.52
3.07743	34.52
3.09410	34.52
3.11077	34.52
3.12743	34.52
3.14410	34.52
3.16077	34.52
3.17743	34.52
3.19410	34.52
3.21077	34.52
3.22743	34.52
3.24410	34.52
3.26077	34.52
3.27743	34.52
3.29410	34.52
3.31077	34.52
3.32743	34.52
3.34410	34.52
3.36077	34.52
3.37743	34.52
3.39410	34.52
3.41077	34.52
3.42743	34.52
3.44410	34.52
3.46077	34.52
3.47743	34.52
3.49410	34.52
3.51077	34.52
3.52743	34.52
3.54410	34.52
3.56077	34.52
3.57743	34.52
3.59410	34.52
3.61077	34.52
3.62743	34.52
3.64410	34.52
3.66077	34.52
3.67743	34.52
3.69410	34.52
3.71077	34.52
3.72743	34.52
3.74410	34.52
3.76077	34.52
3.77743	34.52
3.79410	34.52
3.81077	34.52
3.82743	34.52
3.84410	34.52
3.86077	34.52
3.87743	34.52
3.89410	34.52
3.91077	34.53
3.92743	34.52
3.94410	34.52
3.96077	34.51
3.97743	34.52
3.99410	34.52

[Status Trace (Column Flow)]
Interval(msec)	1000
# of Points	240
Start Time(min)	0.011
End Time(min)	3.994
Intensity Units	
Intensity Multiplier	1
R.Time (min)	Intensity
0.01077	5.50
0.02743	5.17
0.04410	5.44
0.06077	5.68
0.07743	5.65
0.09410	5.51
0.11077	5.50
0.12743	5.50
0.14410	5.50
0.16077	5.51
0.17743	5.51
0.19410	5.51
0.21077	5.51
0.22743	5.51
0.24410	5.51
0.26077	5.51
0.27743	5.51
0.29410	5.51
0.31077	5.51
0.32743	5.50
0.34410	5.50
0.36077	5.50
0.37743	5.50
0.39410	5.50
0.41077	5.50
0.42743	5.50
0.44410	5.50
0.46077	5.50
0.47743	5.51
0.49410	5.51
0.51077	5.50
0.52743	5.51
0.54410	5.51
0.56077	5.51
0.57743	5.51
0.59410	5.51
0.61077	5.51
0.62743	5.51
0.64410	5.50
0.66077	5.50
0.67743	5.50
0.69410	5.50
0.71077	5.50
0.72743	5.50
0.74410	5.51
0.76077	5.50
0.77743	5.50
0.79410	5.51
0.81077	5.51
0.82743	5.50
0.84410	5.51
0.86077	5.51
0.87743	5.50
0.89410	5.50
0.91077	5.50
0.92743	5.50
0.94410	5.50
0.96077	5.50
0.97743	5.50
0.99410	5.50
1.01077	5.50
1.02743	5.50
1.04410	5.50
1.06077	5.50
1.07743	5.50
1.09410	5.50
1.11077	5.50
1.12743	5.50
1.14410	5.50
1.16077	5.50
1.17743	5.51
1.19410	5.51
1.21077	5.51
1.22743	5.51
1.24410	5.51
1.26077	5.51
1.27743	5.51
1.29410	5.51
1.31077	5.51
1.32743	5.50
1.34410	5.51
1.36077	5.50
1.37743	5.51
1.39410	5.51
1.41077	5.50
1.42743	5.50
1.44410	5.50
1.46077	5.50
1.47743	5.50
1.49410	5.50
1.51077	5.50
1.52743	5.50
1.54410	5.50
1.56077	5.50
1.57743	5.50
1.59410	5.50
1.61077	5.50
1.62743	5.50
1.64410	5.49
1.66077	5.48
1.67743	5.48
1.69410	5.46
1.71077	5.45
1.72743	5.44
1.74410	5.43
1.76077	5.42
1.77743	5.41
1.79410	5.40
1.81077	5.39
1.82743	5.38
1.84410	5.37
1.86077	5.36
1.87743	5.35
1.89410	5.34
1.91077	5.33
1.92743	5.32
1.94410	5.31
1.96077	5.30
1.97743	5.29
1.99410	5.28
2.01077	5.27
2.02743	5.26
2.04410	5.25
2.06077	5.24
2.07743	5.23
2.09410	5.22
2.11077	5.22
2.12743	5.21
2.14410	5.20
2.16077	5.19
2.17743	5.18
2.19410	5.17
2.21077	5.16
2.22743	5.15
2.24410	5.14
2.26077	5.13
2.27743	5.12
2.29410	5.11
2.31077	5.10
2.32743	5.09
2.34410	5.08
2.36077	5.08
2.37743	5.07
2.39410	5.07
2.41077	5.07
2.42743	5.07
2.44410	5.07
2.46077	5.07
2.47743	5.07
2.49410	5.07
2.51077	5.07
2.52743	5.07
2.54410	5.07
2.56077	5.07
2.57743	5.07
2.59410	5.07
2.61077	5.07
2.62743	5.07
2.64410	5.07
2.66077	5.07
2.67743	5.07
2.69410	5.07
2.71077	5.07
2.72743	5.07
2.74410	5.07
2.76077	5.07
2.77743	5.07
2.79410	5.07
2.81077	5.07
2.82743	5.07
2.84410	5.07
2.86077	5.07
2.87743	5.07
2.89410	5.07
2.91077	5.06
2.92743	5.06
2.94410	5.06
2.96077	5.06
2.97743	5.06
2.99410	5.06
3.01077	5.06
3.02743	5.06
3.04410	5.06
3.06077	5.06
3.07743	5.06
3.09410	5.06
3.11077	5.06
3.12743	5.06
3.14410	5.06
3.16077	5.06
3.17743	5.06
3.19410	5.06
3.21077	5.06
3.22743	5.06
3.24410	5.06
3.26077	5.06
3.27743	5.06
3.29410	5.06
3.31077	5.06
3.32743	5.06
3.34410	5.06
3.36077	5.06
3.37743	5.06
3.39410	5.06
3.41077	5.06
3.42743	5.06
3.44410	5.06
3.46077	5.06
3.47743	5.06
3.49410	5.06
3.51077	5.06
3.52743	5.06
3.54410	5.06
3.56077	5.06
3.57743	5.06
3.59410	5.06
3.61077	5.06
3.62743	5.06
3.64410	5.06
3.66077	5.06
3.67743	5.06
3.69410	5.06
3.71077	5.06
3.72743	5.06
3.74410	5.06
3.76077	5.06
3.77743	5.06
3.79410	5.06
3.81077	5.06
3.82743	5.06
3.84410	5.06
3.86077	5.06
3.87743	5.06
3.89410	5.06
3.91077	5.06
3.92743	5.06
3.94410	5.06
3.96077	5.06
3.97743	5.06
3.99410	5.06

[Status Trace (Linear Velocity)]
Interval(msec)	1000
# of Points	240
Start Time(min)	0.011
End Time(min)	3.994
Intensity Units	
Intensity Multiplier	1
R.Time (min)	Intensity
0.01077	39.01
0.02743	37.10
0.04410	38.64
0.06077	40.01
0.07743	39.83
0.09410	39.02
0.11077	39.00
0.12743	39.02
0.14410	39.02
0.16077	39.02
0.17743	39.02
0.19410	39.01
0.21077	39.02
0.22743	39.02
0.24410	39.02
0.26077	39.02
0.27743	39.02
0.29410	39.01
0.31077	39.02
0.32743	39.01
0.34410	39.01
0.36077	39.01
0.37743	39.01
0.39410	39.01
0.41077	39.01
0.42743	39.01
0.44410	39.01
0.46077	39.01
0.47743	39.01
0.49410	39.01
0.51077	39.01
0.52743	39.02
0.54410	39.02
0.56077	39.02
0.57743	39.02
0.59410	39.02
0.61077	39.02
0.62743	39.02
0.64410	39.01
0.66077	39.01
0.67743	39.01
0.69410	39.01
0.71077	39.01
0.72743	39.01
0.74410	39.01
0.76077	39.01
0.77743	39.01
0.79410	39.01
0.81077	39.01
0.82743	39.01
0.84410	39.01
0.86077	39.01
0.87743	39.01
0.89410	39.01
0.91077	39.01
0.92743	39.01
0.94410	39.01
0.96077	39.01
0.97743	39.01
0.99410	39.01
1.01077	39.01
1.02743	39.01
1.04410	39.01
1.06077	39.01
1.07743	39.01
1.09410	39.01
1.11077	39.01
1.12743	39.01
1.14410	39.01
1.16077	39.01
1.17743	39.01
1.19410	39.01
1.21077	39.01
1.22743	39.01
1.24410	39.01
1.26077	39.01
1.27743	39.01
1.29410	39.01
1.31077	39.01
1.32743	39.01
1.34410	39.01
1.36077	39.01
1.37743	39.01
1.39410	39.01
1.41077	39.01
1.42743	39.01
1.44410	39.01
1.46077	39.01
1.47743	39.01
1.49410	39.01
1.51077	39.01
1.52743	39.01
1.54410	39.01
1.56077	39.01
1.57743	39.01
1.59410	39.01
1.61077	39.00
1.62743	39.00
1.64410	38.98
1.66077	38.95
1.67743	38.92
1.69410	38.88
1.71077	38.85
1.72743	38.82
1.74410	38.78
1.76077	38.75
1.77743	38.72
1.79410	38.69
1.81077	38.66
1.82743	38.63
1.84410	38.60
1.86077	38.56
1.87743	38.54
1.89410	38.50
1.91077	38.47
1.92743	38.44
1.94410	38.41
1.96077	38.38
1.97743	38.35
1.99410	38.32
2.01077	38.29
2.02743	38.26
2.04410	38.23
2.06077	38.20
2.07743	38.17
2.09410	38.14
2.11077	38.11
2.12743	38.09
2.14410	38.06
2.16077	38.02
2.17743	38.00
2.19410	37.97
2.21077	37.94
2.22743	37.91
2.24410	37.88
2.26077	37.85
2.27743	37.82
2.29410	37.78
2.31077	37.75
2.32743	37.73
2.34410	37.70
2.36077	37.67
2.37743	37.66
2.39410	37.65
2.41077	37.65
2.42743	37.66
2.44410	37.66
2.46077	37.65
2.47743	37.65
2.49410	37.65
2.51077	37.65
2.52743	37.64
2.54410	37.65
2.56077	37.65
2.57743	37.65
2.59410	37.65
2.61077	37.65
2.62743	37.64
2.64410	37.64
2.66077	37.64
2.67743	37.64
2.69410	37.64
2.71077	37.64
2.72743	37.64
2.74410	37.64
2.76077	37.64
2.77743	37.64
2.79410	37.64
2.81077	37.64
2.82743	37.64
2.84410	37.64
2.86077	37.64
2.87743	37.64
2.89410	37.64
2.91077	37.64
2.92743	37.63
2.94410	37.63
2.96077	37.63
2.97743	37.63
2.99410	37.63
3.01077	37.63
3.02743	37.63
3.04410	37.63
3.06077	37.62
3.07743	37.62
3.09410	37.62
3.11077	37.62
3.12743	37.62
3.14410	37.62
3.16077	37.62
3.17743	37.62
3.19410	37.62
3.21077	37.62
3.22743	37.62
3.24410	37.62
3.26077	37.62
3.27743	37.62
3.29410	37.63
3.31077	37.63
3.32743	37.63
3.34410	37.63
3.36077	37.63
3.37743	37.63
3.39410	37.63
3.41077	37.62
3.42743	37.62
3.44410	37.62
3.46077	37.62
3.47743	37.62
3.49410	37.62
3.51077	37.62
3.52743	37.62
3.54410	37.62
3.56077	37.62
3.57743	37.62
3.59410	37.62
3.61077	37.62
3.62743	37.62
3.64410	37.62
3.66077	37.62
3.67743	37.62
3.69410	37.63
3.71077	37.63
3.72743	37.63
3.74410	37.63
3.76077	37.63
3.77743	37.63
3.79410	37.63
3.81077	37.63
3.82743	37.63
3.84410	37.63
3.86077	37.63
3.87743	37.63
3.89410	37.63
3.91077	37.63
3.92743	37.63
3.94410	37.63
3.96077	37.63
3.97743	37.63
3.99410	37.63

