[Header]
Application Name	LabSolutions
Version	5.110
Data File Name	C:\Users\User\Desktop\GC Analyses\Jack\UIC Prairie Sampling\8.12.22\220812_088.gcd
Output Date	10/14/2022
Output Time	2:33:55 PM

[File Information]
Type	Data File
Generated	10/13/2022 2:25:51 PM
Generated by	System Administrator
Modified	10/13/2022 2:30:08 PM
Modified by	System Administrator

[Sample Information]
Operator Name	System Administrator
Acquired	10/13/2022 2:26:08 PM
Sample Type	1:Standard
Level	1
Sample Name	220812_UICPrairie
Sample ID	220812_UICPrairie
ISTD Amount1	1
ISTD Amount2	1
ISTD Amount3	1
ISTD Amount4	1
ISTD Amount5	1
ISTD Amount6	1
ISTD Amount7	1
ISTD Amount8	1
ISTD Amount9	1
ISTD Amount10	1
ISTD Amount11	1
ISTD Amount12	1
ISTD Amount13	1
ISTD Amount14	1
ISTD Amount15	1
ISTD Amount16	1
ISTD Amount17	1
ISTD Amount18	1
ISTD Amount19	1
ISTD Amount20	1
ISTD Amount21	1
ISTD Amount22	1
ISTD Amount23	1
ISTD Amount24	1
ISTD Amount25	1
ISTD Amount26	1
ISTD Amount27	1
ISTD Amount28	1
ISTD Amount29	1
ISTD Amount30	1
ISTD Amount31	1
ISTD Amount32	1
Sample Amount	1
Dilution Factor	1
Vial#	1
Injection Volume	1
Injection Count	1
Bar Code	

[Original Files]
Data File	C:\Users\User\Desktop\GC Analyses\Jack\UIC Prairie Sampling\8.12.22\220812_088.gcd
Method File	C:\LabSolutions\Data\GHG_4min_2022\ghg3_togas_w_acet_4 min_new_int.gcm
Batch File	
Report Format File	c:\LabSolutions\System\DEFAULT.lsr

[File Description]


[Configuration]
Instrument Name	C0B7VH3-Instrument1
Instrument #	1
Line #	1
# of Detectors	3
Detector ID	DET#1	DET#2	DET#3
Detector Name	FID	PTCD	ECD
# of Channels	1	1	1

[Peak Table(Ch1)]
# of Peaks	3
Peak#	R.Time	I.Time	F.Time	Area	Height	A/H	Conc.	Mark	ID#	Name	k'	Plate #	Plate Ht.	Tailing	Resolution	Sep.Factor	Area Ratio	Height Ratio	Conc. %	Norm Conc.
1	1.472	1.439	1.534	4603	1653	2.785	100.000	   	1	CO	0.000	5992	25.035	1.507	0.000	0.000	0	0	16.667	16.667
2	1.571	1.534	1.648	20146	10201	1.975	100.000	 V 	2	CH4	0.067	11441	13.111	1.256	1.469	0.000	0	0	16.667	16.667
3	2.000	1.956	2.352	2071840	1011968	2.047	400.000	   	3	CO2	0.359	17650	8.499	1.258	7.212	5.333	0	0	66.667	66.667

[Peak Table(Ch2)]
# of Peaks	0

[Peak Table(Ch3)]
# of Peaks	3
Peak#	R.Time	I.Time	F.Time	Area	Height	A/H	Conc.	Mark	ID#	Name	k'	Plate #	Plate Ht.	Tailing	Resolution	Sep.Factor	Area Ratio	Height Ratio	Conc. %	Norm Conc.
1	2.458	1.498	2.499	8214	367	22.396	0.000	   			0.000	199	754.130	0.000	0.000	0.000	0	0	0.000	0.000
2	2.598	2.499	2.653	2693	362	7.430	0.000	 V 			0.057	309	485.703	0.000	0.216	0.000	0	0	0.000	0.000
3	2.887	2.667	3.294	64389	15756	4.087	1.000	   	1	N2O	0.175	12428	12.070	1.587	0.834	3.079	0	0	100.000	100.000

[Compound Results(Ch1)]
# of IDs	6
ID#	Name	R.Time	Area	Height	Conc.	Curve	3rd	2nd	1st	Constant	Area Ratio	Height Ratio	Conc. %	Norm Conc.
1	CO	1.472	4603	1653	100.000	Linear	0.000000e+00	0.000000e+00	4.603106e+001	0.000000e+00	0	0	16.667	16.667
2	CH4	1.571	20146	10201	100.000	Linear	0.000000e+00	0.000000e+00	2.014577e+002	0.000000e+00	0	0	16.667	16.667
3	CO2	2.000	2071840	1011968	400.000	Linear	0.000000e+00	0.000000e+00	5.179600e+003	0.000000e+00	0	0	66.667	66.667
4	Ethylene	0.000	0	0	0.000	Linear	0.000000e+00	0.000000e+00	0.000000e+00	0.000000e+00	0	0	0.000	0.000
5	Acetylene	0.000	0	0	0.000	Linear	0.000000e+00	0.000000e+00	0.000000e+00	0.000000e+00	0	0	0.000	0.000
6	Ethane	0.000	0	0	0.000	Linear	0.000000e+00	0.000000e+00	0.000000e+00	0.000000e+00	0	0	0.000	0.000

[Compound Results(Ch2)]
# of IDs	5
ID#	Name	R.Time	Area	Height	Conc.	Curve	3rd	2nd	1st	Constant	Area Ratio	Height Ratio	Conc. %	Norm Conc.
1	Hydrogen	0.000	0	0	0.000	Linear	0.000000e+00	0.000000e+00	0.000000e+00	0.000000e+00	0	0	0.000	0.000
2	Oxygen	0.000	0	0	0.000	Linear	0.000000e+00	0.000000e+00	0.000000e+00	0.000000e+00	0	0	0.000	0.000
3	Nitrogen	0.000	0	0	0.000	Linear	0.000000e+00	0.000000e+00	0.000000e+00	0.000000e+00	0	0	0.000	0.000
4	Methane	0.000	0	0	0.000	Linear	0.000000e+00	0.000000e+00	0.000000e+00	0.000000e+00	0	0	0.000	0.000
5	Carbon Monoxide	0.000	0	0	0.000	Linear	0.000000e+00	0.000000e+00	0.000000e+00	0.000000e+00	0	0	0.000	0.000

[Compound Results(Ch3)]
# of IDs	2
ID#	Name	R.Time	Area	Height	Conc.	Curve	3rd	2nd	1st	Constant	Area Ratio	Height Ratio	Conc. %	Norm Conc.
1	N2O	2.887	64389	15756	1.000	Linear	0.000000e+00	0.000000e+00	6.438870e+004	0.000000e+00	0	0	100.000	100.000
2	SF6	0.000	0	0	0.000	Linear	0.000000e+00	0.000000e+00	0.000000e+00	0.000000e+00	0	0	0.000	0.000

[Group Results(Ch1)]
# of Groups	0

[Group Results(Ch2)]
# of Groups	0

[Group Results(Ch3)]
# of Groups	0

[Chromatogram (Ch1)]
Interval(msec)	220
# of Points	1091
Start Time(min)	0.002
End Time(min)	3.998
R.Time (min)	Intensity
0.00167	-9
0.00533	-4
0.00900	5
0.01267	11
0.01633	11
0.02000	6
0.02367	0
0.02733	-3
0.03100	-4
0.03467	-4
0.03833	-2
0.04200	-1
0.04567	2
0.04933	6
0.05300	8
0.05667	5
0.06033	-2
0.06400	-11
0.06767	-21
0.07133	-27
0.07500	-28
0.07867	-25
0.08233	-20
0.08600	-14
0.08967	-8
0.09333	-1
0.09700	3
0.10067	4
0.10433	-0
0.10800	-6
0.11167	-13
0.11533	-18
0.11900	-20
0.12267	-19
0.12633	-16
0.13000	-12
0.13367	-11
0.13733	-11
0.14100	-11
0.14467	-11
0.14833	-14
0.15200	-14
0.15567	-11
0.15933	-5
0.16300	-3
0.16667	-3
0.17033	-6
0.17400	-8
0.17767	-5
0.18133	-3
0.18500	-2
0.18867	-2
0.19233	-5
0.19600	-7
0.19967	-7
0.20333	-9
0.20700	-13
0.21067	-18
0.21433	-23
0.21800	-22
0.22167	-17
0.22533	-13
0.22900	-13
0.23267	-16
0.23633	-18
0.24000	-15
0.24367	-9
0.24733	-5
0.25100	-2
0.25467	-1
0.25833	-0
0.26200	1
0.26567	3
0.26933	3
0.27300	-2
0.27667	-10
0.28033	-20
0.28400	-27
0.28767	-31
0.29133	-34
0.29500	-37
0.29867	-35
0.30233	-29
0.30600	-22
0.30967	-16
0.31333	-12
0.31700	-11
0.32067	-11
0.32433	-12
0.32800	-12
0.33167	-13
0.33533	-14
0.33900	-15
0.34267	-18
0.34633	-23
0.35000	-27
0.35367	-30
0.35733	-30
0.36100	-28
0.36467	-26
0.36833	-24
0.37200	-26
0.37567	-27
0.37933	-24
0.38300	-22
0.38667	-23
0.39033	-24
0.39400	-26
0.39767	-24
0.40133	-21
0.40500	-19
0.40867	-15
0.41233	-13
0.41600	-10
0.41967	-7
0.42333	-4
0.42700	-7
0.43067	-14
0.43433	-24
0.43800	-32
0.44167	-37
0.44533	-40
0.44900	-42
0.45267	-43
0.45633	-43
0.46000	-41
0.46367	-38
0.46733	-35
0.47100	-30
0.47467	-22
0.47833	-13
0.48200	-8
0.48567	-8
0.48933	-15
0.49300	-23
0.49667	-27
0.50033	-25
0.50400	-22
0.50767	-20
0.51133	-18
0.51500	-17
0.51867	-18
0.52233	-20
0.52600	-23
0.52967	-24
0.53333	-25
0.53700	-25
0.54067	-22
0.54433	-20
0.54800	-18
0.55167	-17
0.55533	-18
0.55900	-18
0.56267	-17
0.56633	-17
0.57000	-17
0.57367	-20
0.57733	-22
0.58100	-24
0.58467	-27
0.58833	-30
0.59200	-34
0.59567	-38
0.59933	-41
0.60300	-46
0.60667	-50
0.61033	-49
0.61400	-43
0.61767	-37
0.62133	-34
0.62500	-35
0.62867	-37
0.63233	-37
0.63600	-33
0.63967	-26
0.64333	-15
0.64700	-3
0.65067	1
0.65433	-3
0.65800	-11
0.66167	-19
0.66533	-25
0.66900	-27
0.67267	-27
0.67633	-27
0.68000	-25
0.68367	-25
0.68733	-26
0.69100	-28
0.69467	-34
0.69833	-39
0.70200	-41
0.70567	-37
0.70933	-31
0.71300	-28
0.71667	-27
0.72033	-29
0.72400	-32
0.72767	-32
0.73133	-32
0.73500	-33
0.73867	-34
0.74233	-33
0.74600	-32
0.74967	-30
0.75333	-26
0.75700	-21
0.76067	-14
0.76433	-11
0.76800	-9
0.77167	-6
0.77533	-5
0.77900	-11
0.78267	-16
0.78633	-20
0.79000	-23
0.79367	-27
0.79733	-32
0.80100	-39
0.80467	-42
0.80833	-39
0.81200	-31
0.81567	-25
0.81933	-25
0.82300	-30
0.82667	-34
0.83033	-39
0.83400	-44
0.83767	-48
0.84133	-48
0.84500	-45
0.84867	-42
0.85233	-38
0.85600	-34
0.85967	-29
0.86333	-21
0.86700	-14
0.87067	-10
0.87433	-11
0.87800	-14
0.88167	-19
0.88533	-25
0.88900	-31
0.89267	-35
0.89633	-38
0.90000	-38
0.90367	-37
0.90733	-35
0.91100	-32
0.91467	-30
0.91833	-27
0.92200	-23
0.92567	-20
0.92933	-18
0.93300	-21
0.93667	-30
0.94033	-39
0.94400	-44
0.94767	-47
0.95133	-48
0.95500	-49
0.95867	-48
0.96233	-43
0.96600	-36
0.96967	-30
0.97333	-26
0.97700	-22
0.98067	-20
0.98433	-20
0.98800	-22
0.99167	-25
0.99533	-27
0.99900	-28
1.00267	-29
1.00633	-27
1.01000	-23
1.01367	-21
1.01733	-21
1.02100	-21
1.02467	-19
1.02833	-17
1.03200	-15
1.03567	-15
1.03933	-13
1.04300	-10
1.04667	-9
1.05033	-12
1.05400	-16
1.05767	-17
1.06133	-17
1.06500	-16
1.06867	-13
1.07233	-7
1.07600	-7
1.07967	-12
1.08333	-21
1.08700	-27
1.09067	-29
1.09433	-25
1.09800	-21
1.10167	-20
1.10533	-19
1.10900	-20
1.11267	-24
1.11633	-27
1.12000	-28
1.12367	-27
1.12733	-28
1.13100	-29
1.13467	-27
1.13833	-23
1.14200	-17
1.14567	-10
1.14933	-3
1.15300	0
1.15667	-4
1.16033	-12
1.16400	-21
1.16767	-29
1.17133	-34
1.17500	-35
1.17867	-35
1.18233	-39
1.18600	-40
1.18967	-40
1.19333	-39
1.19700	-38
1.20067	-39
1.20433	-43
1.20800	-48
1.21167	-49
1.21533	-45
1.21900	-33
1.22267	-19
1.22633	-8
1.23000	-3
1.23367	-3
1.23733	-9
1.24100	-18
1.24467	-28
1.24833	-39
1.25200	-47
1.25567	-48
1.25933	-44
1.26300	-38
1.26667	-32
1.27033	-30
1.27400	-32
1.27767	-34
1.28133	-37
1.28500	-40
1.28867	-44
1.29233	-45
1.29600	-45
1.29967	-44
1.30333	-41
1.30700	-36
1.31067	-30
1.31433	-26
1.31800	-22
1.32167	-22
1.32533	-25
1.32900	-31
1.33267	-37
1.33633	-43
1.34000	-48
1.34367	-53
1.34733	-54
1.35100	-50
1.35467	-44
1.35833	-43
1.36200	-44
1.36567	-43
1.36933	-43
1.37300	-42
1.37667	-41
1.38033	-39
1.38400	-36
1.38767	-33
1.39133	-33
1.39500	-32
1.39867	-33
1.40233	-31
1.40600	-26
1.40967	-24
1.41333	-25
1.41700	-27
1.42067	-30
1.42433	-35
1.42800	-42
1.43167	-46
1.43533	-48
1.43900	-43
1.44267	-0
1.44633	158
1.45000	471
1.45367	844
1.45733	1168
1.46100	1399
1.46467	1539
1.46833	1603
1.47200	1608
1.47567	1567
1.47933	1496
1.48300	1400
1.48667	1275
1.49033	1124
1.49400	956
1.49767	786
1.50133	631
1.50500	497
1.50867	387
1.51233	296
1.51600	218
1.51967	152
1.52333	96
1.52700	51
1.53067	21
1.53433	4
1.53800	4
1.54167	83
1.54533	434
1.54900	1348
1.55267	2931
1.55633	4913
1.56000	6862
1.56367	8477
1.56733	9611
1.57100	10149
1.57467	9955
1.57833	9008
1.58200	7517
1.58567	5836
1.58933	4278
1.59300	3000
1.59667	2035
1.60033	1349
1.60400	882
1.60767	568
1.61133	358
1.61500	221
1.61867	131
1.62233	72
1.62600	34
1.62967	8
1.63333	-13
1.63700	-29
1.64067	-43
1.64433	-53
1.64800	-58
1.65167	-59
1.65533	-54
1.65900	-47
1.66267	-42
1.66633	-43
1.67000	-49
1.67367	-58
1.67733	-65
1.68100	-66
1.68467	-63
1.68833	-59
1.69200	-54
1.69567	-53
1.69933	-53
1.70300	-55
1.70667	-57
1.71033	-60
1.71400	-63
1.71767	-64
1.72133	-62
1.72500	-59
1.72867	-56
1.73233	-54
1.73600	-52
1.73967	-53
1.74333	-58
1.74700	-66
1.75067	-72
1.75433	-74
1.75800	-74
1.76167	-70
1.76533	-63
1.76900	-57
1.77267	-52
1.77633	-49
1.78000	-47
1.78367	-50
1.78733	-56
1.79100	-62
1.79467	-66
1.79833	-70
1.80200	-72
1.80567	-71
1.80933	-67
1.81300	-63
1.81667	-59
1.82033	-53
1.82400	-47
1.82767	-44
1.83133	-42
1.83500	-43
1.83867	-45
1.84233	-44
1.84600	-40
1.84967	-39
1.85333	-42
1.85700	-44
1.86067	-44
1.86433	-43
1.86800	-43
1.87167	-47
1.87533	-52
1.87900	-58
1.88267	-64
1.88633	-67
1.89000	-68
1.89367	-65
1.89733	-58
1.90100	-49
1.90467	-42
1.90833	-37
1.91200	-36
1.91567	-37
1.91933	-36
1.92300	-32
1.92667	-27
1.93033	-26
1.93400	-27
1.93767	-27
1.94133	-25
1.94500	-25
1.94867	-30
1.95233	-36
1.95600	-21
1.95967	137
1.96333	1111
1.96700	5663
1.97067	21668
1.97433	64684
1.97800	153941
1.98167	298160
1.98533	483445
1.98900	678035
1.99267	846911
1.99633	963501
2.00000	1011976
2.00367	987913
2.00733	899310
2.01100	765853
2.01467	613462
2.01833	466030
2.02200	339255
2.02567	239278
2.02933	165217
2.03300	112729
2.03667	76642
2.04033	52316
2.04400	36103
2.04767	25335
2.05133	18169
2.05500	13367
2.05867	10106
2.06233	7852
2.06600	6264
2.06967	5122
2.07333	4280
2.07700	3644
2.08067	3150
2.08433	2759
2.08800	2448
2.09167	2196
2.09533	1990
2.09900	1818
2.10267	1669
2.10633	1540
2.11000	1428
2.11367	1330
2.11733	1244
2.12100	1169
2.12467	1103
2.12833	1045
2.13200	994
2.13567	949
2.13933	908
2.14300	871
2.14667	838
2.15033	805
2.15400	772
2.15767	741
2.16133	712
2.16500	687
2.16867	666
2.17233	647
2.17600	624
2.17967	595
2.18333	565
2.18700	537
2.19067	511
2.19433	489
2.19800	471
2.20167	455
2.20533	443
2.20900	435
2.21267	429
2.21633	425
2.22000	422
2.22367	418
2.22733	414
2.23100	411
2.23467	405
2.23833	398
2.24200	392
2.24567	384
2.24933	374
2.25300	369
2.25667	365
2.26033	359
2.26400	347
2.26767	337
2.27133	331
2.27500	330
2.27867	323
2.28233	313
2.28600	303
2.28967	297
2.29333	295
2.29700	291
2.30067	287
2.30433	284
2.30800	284
2.31167	282
2.31533	276
2.31900	269
2.32267	264
2.32633	261
2.33000	260
2.33367	259
2.33733	257
2.34100	254
2.34467	250
2.34833	247
2.35200	247
2.35567	250
2.35933	253
2.36300	255
2.36667	254
2.37033	247
2.37400	238
2.37767	231
2.38133	229
2.38500	229
2.38867	232
2.39233	235
2.39600	240
2.39967	244
2.40333	248
2.40700	252
2.41067	250
2.41433	245
2.41800	241
2.42167	237
2.42533	234
2.42900	234
2.43267	234
2.43633	233
2.44000	231
2.44367	231
2.44733	234
2.45100	238
2.45467	238
2.45833	236
2.46200	230
2.46567	227
2.46933	226
2.47300	224
2.47667	225
2.48033	223
2.48400	218
2.48767	215
2.49133	215
2.49500	215
2.49867	211
2.50233	206
2.50600	203
2.50967	206
2.51333	213
2.51700	215
2.52067	214
2.52433	212
2.52800	211
2.53167	210
2.53533	205
2.53900	199
2.54267	194
2.54633	192
2.55000	195
2.55367	202
2.55733	206
2.56100	202
2.56467	195
2.56833	189
2.57200	186
2.57567	183
2.57933	178
2.58300	173
2.58667	171
2.59033	171
2.59400	172
2.59767	173
2.60133	171
2.60500	169
2.60867	171
2.61233	176
2.61600	177
2.61967	176
2.62333	175
2.62700	175
2.63067	172
2.63433	169
2.63800	167
2.64167	167
2.64533	169
2.64900	172
2.65267	176
2.65633	180
2.66000	184
2.66367	188
2.66733	192
2.67100	192
2.67467	188
2.67833	181
2.68200	174
2.68567	168
2.68933	161
2.69300	154
2.69667	150
2.70033	149
2.70400	150
2.70767	153
2.71133	160
2.71500	169
2.71867	177
2.72233	181
2.72600	179
2.72967	175
2.73333	173
2.73700	175
2.74067	176
2.74433	175
2.74800	173
2.75167	167
2.75533	156
2.75900	146
2.76267	143
2.76633	144
2.77000	146
2.77367	149
2.77733	153
2.78100	159
2.78467	166
2.78833	174
2.79200	178
2.79567	175
2.79933	169
2.80300	163
2.80667	155
2.81033	147
2.81400	143
2.81767	141
2.82133	138
2.82500	136
2.82867	138
2.83233	145
2.83600	156
2.83967	167
2.84333	173
2.84700	175
2.85067	173
2.85433	166
2.85800	158
2.86167	152
2.86533	149
2.86900	148
2.87267	149
2.87633	149
2.88000	148
2.88367	144
2.88733	142
2.89100	142
2.89467	142
2.89833	145
2.90200	150
2.90567	151
2.90933	152
2.91300	154
2.91667	157
2.92033	156
2.92400	152
2.92767	146
2.93133	141
2.93500	138
2.93867	138
2.94233	144
2.94600	153
2.94967	163
2.95333	170
2.95700	173
2.96067	172
2.96433	164
2.96800	159
2.97167	161
2.97533	164
2.97900	164
2.98267	163
2.98633	161
2.99000	159
2.99367	156
2.99733	152
3.00100	151
3.00467	152
3.00833	154
3.01200	157
3.01567	164
3.01933	169
3.02300	167
3.02667	162
3.03033	159
3.03400	157
3.03767	154
3.04133	151
3.04500	146
3.04867	142
3.05233	140
3.05600	141
3.05967	142
3.06333	143
3.06700	143
3.07067	145
3.07433	146
3.07800	147
3.08167	150
3.08533	152
3.08900	153
3.09267	151
3.09633	147
3.10000	144
3.10367	143
3.10733	145
3.11100	147
3.11467	151
3.11833	156
3.12200	160
3.12567	164
3.12933	164
3.13300	163
3.13667	159
3.14033	154
3.14400	150
3.14767	148
3.15133	147
3.15500	144
3.15867	143
3.16233	143
3.16600	144
3.16967	143
3.17333	140
3.17700	138
3.18067	140
3.18433	145
3.18800	150
3.19167	153
3.19533	155
3.19900	158
3.20267	160
3.20633	162
3.21000	171
3.21367	179
3.21733	180
3.22100	177
3.22467	173
3.22833	169
3.23200	163
3.23567	155
3.23933	151
3.24300	149
3.24667	151
3.25033	152
3.25400	150
3.25767	148
3.26133	147
3.26500	144
3.26867	142
3.27233	143
3.27600	144
3.27967	144
3.28333	144
3.28700	142
3.29067	141
3.29433	141
3.29800	141
3.30167	142
3.30533	141
3.30900	142
3.31267	144
3.31633	147
3.32000	146
3.32367	146
3.32733	146
3.33100	146
3.33467	146
3.33833	149
3.34200	151
3.34567	151
3.34933	152
3.35300	153
3.35667	151
3.36033	147
3.36400	141
3.36767	138
3.37133	138
3.37500	141
3.37867	147
3.38233	152
3.38600	152
3.38967	153
3.39333	154
3.39700	156
3.40067	157
3.40433	152
3.40800	148
3.41167	145
3.41533	145
3.41900	146
3.42267	146
3.42633	148
3.43000	149
3.43367	148
3.43733	147
3.44100	145
3.44467	145
3.44833	144
3.45200	141
3.45567	136
3.45933	132
3.46300	133
3.46667	136
3.47033	139
3.47400	140
3.47767	137
3.48133	135
3.48500	139
3.48867	148
3.49233	155
3.49600	157
3.49967	158
3.50333	159
3.50700	157
3.51067	154
3.51433	154
3.51800	154
3.52167	153
3.52533	150
3.52900	144
3.53267	141
3.53633	141
3.54000	143
3.54367	145
3.54733	144
3.55100	145
3.55467	149
3.55833	153
3.56200	153
3.56567	150
3.56933	148
3.57300	146
3.57667	149
3.58033	152
3.58400	156
3.58767	157
3.59133	155
3.59500	152
3.59867	148
3.60233	145
3.60600	144
3.60967	146
3.61333	146
3.61700	144
3.62067	143
3.62433	143
3.62800	144
3.63167	144
3.63533	144
3.63900	147
3.64267	153
3.64633	158
3.65000	159
3.65367	153
3.65733	144
3.66100	139
3.66467	134
3.66833	129
3.67200	125
3.67567	121
3.67933	117
3.68300	116
3.68667	119
3.69033	122
3.69400	124
3.69767	129
3.70133	137
3.70500	144
3.70867	149
3.71233	148
3.71600	142
3.71967	135
3.72333	129
3.72700	127
3.73067	127
3.73433	126
3.73800	127
3.74167	132
3.74533	137
3.74900	139
3.75267	139
3.75633	141
3.76000	143
3.76367	140
3.76733	134
3.77100	133
3.77467	138
3.77833	145
3.78200	150
3.78567	152
3.78933	155
3.79300	158
3.79667	160
3.80033	157
3.80400	152
3.80767	147
3.81133	145
3.81500	146
3.81867	146
3.82233	144
3.82600	140
3.82967	135
3.83333	129
3.83700	124
3.84067	120
3.84433	119
3.84800	121
3.85167	122
3.85533	123
3.85900	126
3.86267	130
3.86633	134
3.87000	139
3.87367	144
3.87733	147
3.88100	146
3.88467	143
3.88833	141
3.89200	141
3.89567	138
3.89933	133
3.90300	131
3.90667	131
3.91033	129
3.91400	127
3.91767	130
3.92133	133
3.92500	132
3.92867	129
3.93233	126
3.93600	124
3.93967	125
3.94333	128
3.94700	128
3.95067	122
3.95433	116
3.95800	114
3.96167	114
3.96533	118
3.96900	124
3.97267	130
3.97633	133
3.98000	133
3.98367	135
3.98733	140
3.99100	147
3.99467	152
3.99833	150

[Chromatogram (Ch2)]
Interval(msec)	220
# of Points	1091
Start Time(min)	0.002
End Time(min)	3.998
R.Time (min)	Intensity
0.00167	-1
0.00533	-1
0.00900	-1
0.01267	-2
0.01633	-3
0.02000	-3
0.02367	-3
0.02733	-3
0.03100	-3
0.03467	-3
0.03833	-3
0.04200	-3
0.04567	-3
0.04933	-3
0.05300	-2
0.05667	-1
0.06033	-1
0.06400	0
0.06767	1
0.07133	1
0.07500	1
0.07867	2
0.08233	2
0.08600	2
0.08967	2
0.09333	3
0.09700	3
0.10067	3
0.10433	3
0.10800	3
0.11167	3
0.11533	3
0.11900	3
0.12267	4
0.12633	4
0.13000	3
0.13367	3
0.13733	3
0.14100	3
0.14467	3
0.14833	3
0.15200	2
0.15567	2
0.15933	2
0.16300	2
0.16667	1
0.17033	1
0.17400	1
0.17767	1
0.18133	1
0.18500	1
0.18867	1
0.19233	1
0.19600	2
0.19967	2
0.20333	2
0.20700	2
0.21067	2
0.21433	1
0.21800	1
0.22167	0
0.22533	0
0.22900	0
0.23267	0
0.23633	0
0.24000	0
0.24367	1
0.24733	1
0.25100	1
0.25467	1
0.25833	1
0.26200	1
0.26567	1
0.26933	1
0.27300	1
0.27667	1
0.28033	1
0.28400	1
0.28767	2
0.29133	2
0.29500	2
0.29867	2
0.30233	2
0.30600	2
0.30967	2
0.31333	2
0.31700	2
0.32067	3
0.32433	3
0.32800	3
0.33167	3
0.33533	3
0.33900	3
0.34267	3
0.34633	3
0.35000	3
0.35367	3
0.35733	3
0.36100	3
0.36467	3
0.36833	4
0.37200	4
0.37567	4
0.37933	4
0.38300	4
0.38667	4
0.39033	4
0.39400	4
0.39767	3
0.40133	3
0.40500	3
0.40867	3
0.41233	3
0.41600	3
0.41967	3
0.42333	3
0.42700	3
0.43067	3
0.43433	3
0.43800	3
0.44167	2
0.44533	2
0.44900	2
0.45267	2
0.45633	2
0.46000	2
0.46367	1
0.46733	1
0.47100	0
0.47467	0
0.47833	-0
0.48200	-0
0.48567	0
0.48933	0
0.49300	0
0.49667	1
0.50033	1
0.50400	1
0.50767	1
0.51133	1
0.51500	1
0.51867	1
0.52233	1
0.52600	1
0.52967	1
0.53333	1
0.53700	1
0.54067	1
0.54433	0
0.54800	0
0.55167	-0
0.55533	-0
0.55900	-0
0.56267	-0
0.56633	-0
0.57000	-0
0.57367	-0
0.57733	-0
0.58100	-0
0.58467	-0
0.58833	-0
0.59200	-0
0.59567	-0
0.59933	-0
0.60300	0
0.60667	0
0.61033	0
0.61400	0
0.61767	0
0.62133	1
0.62500	1
0.62867	1
0.63233	1
0.63600	1
0.63967	1
0.64333	1
0.64700	1
0.65067	1
0.65433	1
0.65800	1
0.66167	1
0.66533	1
0.66900	1
0.67267	1
0.67633	1
0.68000	1
0.68367	2
0.68733	2
0.69100	2
0.69467	2
0.69833	2
0.70200	2
0.70567	2
0.70933	2
0.71300	1
0.71667	1
0.72033	1
0.72400	1
0.72767	0
0.73133	0
0.73500	-0
0.73867	-0
0.74233	-0
0.74600	0
0.74967	0
0.75333	0
0.75700	0
0.76067	0
0.76433	0
0.76800	0
0.77167	0
0.77533	0
0.77900	0
0.78267	1
0.78633	1
0.79000	2
0.79367	2
0.79733	2
0.80100	2
0.80467	3
0.80833	3
0.81200	4
0.81567	4
0.81933	4
0.82300	5
0.82667	5
0.83033	5
0.83400	5
0.83767	5
0.84133	5
0.84500	5
0.84867	5
0.85233	5
0.85600	5
0.85967	4
0.86333	4
0.86700	3
0.87067	3
0.87433	2
0.87800	1
0.88167	1
0.88533	0
0.88900	0
0.89267	-0
0.89633	-0
0.90000	-0
0.90367	-0
0.90733	-0
0.91100	-1
0.91467	-1
0.91833	-1
0.92200	-1
0.92567	-1
0.92933	-1
0.93300	-1
0.93667	-1
0.94033	-1
0.94400	-1
0.94767	-2
0.95133	-2
0.95500	-2
0.95867	-2
0.96233	-2
0.96600	-2
0.96967	-2
0.97333	-2
0.97700	-2
0.98067	-2
0.98433	-2
0.98800	-2
0.99167	-1
0.99533	-1
0.99900	-1
1.00267	-0
1.00633	-0
1.01000	0
1.01367	0
1.01733	1
1.02100	1
1.02467	1
1.02833	2
1.03200	2
1.03567	2
1.03933	2
1.04300	2
1.04667	2
1.05033	2
1.05400	2
1.05767	2
1.06133	3
1.06500	3
1.06867	3
1.07233	3
1.07600	3
1.07967	3
1.08333	2
1.08700	2
1.09067	1
1.09433	1
1.09800	0
1.10167	-0
1.10533	-1
1.10900	-1
1.11267	-2
1.11633	-2
1.12000	-3
1.12367	-3
1.12733	-4
1.13100	-4
1.13467	-4
1.13833	-3
1.14200	-3
1.14567	-3
1.14933	-3
1.15300	-2
1.15667	-2
1.16033	-1
1.16400	-1
1.16767	-0
1.17133	-0
1.17500	0
1.17867	0
1.18233	0
1.18600	0
1.18967	0
1.19333	1
1.19700	1
1.20067	2
1.20433	2
1.20800	3
1.21167	3
1.21533	3
1.21900	3
1.22267	3
1.22633	2
1.23000	2
1.23367	2
1.23733	2
1.24100	2
1.24467	2
1.24833	2
1.25200	2
1.25567	2
1.25933	1
1.26300	1
1.26667	1
1.27033	1
1.27400	0
1.27767	0
1.28133	0
1.28500	0
1.28867	0
1.29233	0
1.29600	0
1.29967	0
1.30333	0
1.30700	0
1.31067	1
1.31433	1
1.31800	1
1.32167	1
1.32533	1
1.32900	1
1.33267	1
1.33633	1
1.34000	0
1.34367	0
1.34733	-0
1.35100	-0
1.35467	-1
1.35833	-1
1.36200	-1
1.36567	-1
1.36933	-1
1.37300	-1
1.37667	-1
1.38033	-1
1.38400	-1
1.38767	-1
1.39133	-1
1.39500	-1
1.39867	-0
1.40233	-0
1.40600	0
1.40967	0
1.41333	0
1.41700	1
1.42067	1
1.42433	1
1.42800	2
1.43167	2
1.43533	2
1.43900	2
1.44267	2
1.44633	2
1.45000	2
1.45367	2
1.45733	2
1.46100	2
1.46467	2
1.46833	2
1.47200	2
1.47567	2
1.47933	1
1.48300	1
1.48667	1
1.49033	0
1.49400	0
1.49767	0
1.50133	0
1.50500	0
1.50867	-0
1.51233	-0
1.51600	-1
1.51967	-1
1.52333	-1
1.52700	-2
1.53067	-2
1.53433	-2
1.53800	-2
1.54167	-2
1.54533	-2
1.54900	-2
1.55267	-2
1.55633	-1
1.56000	-1
1.56367	-1
1.56733	-1
1.57100	-1
1.57467	-1
1.57833	-0
1.58200	-0
1.58567	-0
1.58933	-1
1.59300	-1
1.59667	-1
1.60033	-2
1.60400	-3
1.60767	-4
1.61133	-5
1.61500	-7
1.61867	-10
1.62233	-12
1.62600	-15
1.62967	-18
1.63333	-21
1.63700	-24
1.64067	-28
1.64433	-32
1.64800	-36
1.65167	-40
1.65533	-44
1.65900	-49
1.66267	-53
1.66633	-59
1.67000	-64
1.67367	-69
1.67733	-74
1.68100	-78
1.68467	-83
1.68833	-87
1.69200	-90
1.69567	-94
1.69933	-97
1.70300	-99
1.70667	-101
1.71033	-103
1.71400	-104
1.71767	-105
1.72133	-106
1.72500	-106
1.72867	-107
1.73233	-107
1.73600	-107
1.73967	-108
1.74333	-108
1.74700	-109
1.75067	-110
1.75433	-111
1.75800	-111
1.76167	-112
1.76533	-113
1.76900	-113
1.77267	-114
1.77633	-115
1.78000	-115
1.78367	-116
1.78733	-116
1.79100	-117
1.79467	-117
1.79833	-117
1.80200	-116
1.80567	-116
1.80933	-117
1.81300	-117
1.81667	-117
1.82033	-117
1.82400	-118
1.82767	-118
1.83133	-118
1.83500	-118
1.83867	-118
1.84233	-118
1.84600	-118
1.84967	-118
1.85333	-117
1.85700	-117
1.86067	-117
1.86433	-117
1.86800	-117
1.87167	-117
1.87533	-117
1.87900	-117
1.88267	-117
1.88633	-117
1.89000	-116
1.89367	-116
1.89733	-115
1.90100	-115
1.90467	-115
1.90833	-115
1.91200	-116
1.91567	-116
1.91933	-117
1.92300	-117
1.92667	-118
1.93033	-117
1.93400	-117
1.93767	-117
1.94133	-116
1.94500	-116
1.94867	-115
1.95233	-115
1.95600	-114
1.95967	-113
1.96333	-112
1.96700	-112
1.97067	-112
1.97433	-112
1.97800	-113
1.98167	-113
1.98533	-113
1.98900	-112
1.99267	-112
1.99633	-111
2.00000	-110
2.00367	-109
2.00733	-109
2.01100	-109
2.01467	-109
2.01833	-109
2.02200	-109
2.02567	-108
2.02933	-108
2.03300	-108
2.03667	-108
2.04033	-108
2.04400	-108
2.04767	-108
2.05133	-108
2.05500	-107
2.05867	-107
2.06233	-106
2.06600	-106
2.06967	-105
2.07333	-104
2.07700	-104
2.08067	-103
2.08433	-103
2.08800	-102
2.09167	-102
2.09533	-101
2.09900	-101
2.10267	-101
2.10633	-101
2.11000	-100
2.11367	-100
2.11733	-100
2.12100	-100
2.12467	-99
2.12833	-99
2.13200	-98
2.13567	-98
2.13933	-98
2.14300	-98
2.14667	-98
2.15033	-98
2.15400	-97
2.15767	-97
2.16133	-97
2.16500	-97
2.16867	-96
2.17233	-95
2.17600	-94
2.17967	-94
2.18333	-94
2.18700	-93
2.19067	-93
2.19433	-93
2.19800	-93
2.20167	-92
2.20533	-92
2.20900	-92
2.21267	-92
2.21633	-92
2.22000	-92
2.22367	-91
2.22733	-91
2.23100	-91
2.23467	-91
2.23833	-91
2.24200	-91
2.24567	-91
2.24933	-91
2.25300	-91
2.25667	-90
2.26033	-90
2.26400	-90
2.26767	-90
2.27133	-89
2.27500	-89
2.27867	-89
2.28233	-88
2.28600	-88
2.28967	-88
2.29333	-87
2.29700	-87
2.30067	-87
2.30433	-87
2.30800	-87
2.31167	-86
2.31533	-86
2.31900	-86
2.32267	-85
2.32633	-85
2.33000	-84
2.33367	-83
2.33733	-82
2.34100	-81
2.34467	-80
2.34833	-80
2.35200	-79
2.35567	-79
2.35933	-78
2.36300	-78
2.36667	-77
2.37033	-75
2.37400	-73
2.37767	-71
2.38133	-68
2.38500	-65
2.38867	-61
2.39233	-56
2.39600	-52
2.39967	-47
2.40333	-42
2.40700	-38
2.41067	-34
2.41433	-30
2.41800	-27
2.42167	-24
2.42533	-21
2.42900	-18
2.43267	-16
2.43633	-14
2.44000	-11
2.44367	-9
2.44733	-7
2.45100	-6
2.45467	-4
2.45833	-3
2.46200	-1
2.46567	-0
2.46933	1
2.47300	2
2.47667	4
2.48033	5
2.48400	6
2.48767	7
2.49133	8
2.49500	8
2.49867	9
2.50233	10
2.50600	10
2.50967	11
2.51333	12
2.51700	12
2.52067	12
2.52433	12
2.52800	12
2.53167	12
2.53533	12
2.53900	13
2.54267	13
2.54633	14
2.55000	15
2.55367	16
2.55733	16
2.56100	16
2.56467	16
2.56833	16
2.57200	16
2.57567	16
2.57933	16
2.58300	16
2.58667	17
2.59033	18
2.59400	19
2.59767	20
2.60133	21
2.60500	22
2.60867	22
2.61233	23
2.61600	24
2.61967	24
2.62333	24
2.62700	24
2.63067	24
2.63433	23
2.63800	23
2.64167	23
2.64533	23
2.64900	23
2.65267	24
2.65633	24
2.66000	24
2.66367	24
2.66733	24
2.67100	24
2.67467	24
2.67833	24
2.68200	25
2.68567	25
2.68933	25
2.69300	25
2.69667	25
2.70033	25
2.70400	26
2.70767	26
2.71133	27
2.71500	27
2.71867	27
2.72233	27
2.72600	26
2.72967	25
2.73333	25
2.73700	24
2.74067	23
2.74433	23
2.74800	23
2.75167	23
2.75533	23
2.75900	24
2.76267	24
2.76633	24
2.77000	25
2.77367	25
2.77733	26
2.78100	26
2.78467	27
2.78833	27
2.79200	27
2.79567	27
2.79933	28
2.80300	27
2.80667	28
2.81033	28
2.81400	28
2.81767	28
2.82133	28
2.82500	28
2.82867	29
2.83233	29
2.83600	29
2.83967	29
2.84333	29
2.84700	29
2.85067	27
2.85433	23
2.85800	18
2.86167	10
2.86533	-2
2.86900	-18
2.87267	-39
2.87633	-65
2.88000	-96
2.88367	-132
2.88733	-173
2.89100	-219
2.89467	-270
2.89833	-325
2.90200	-385
2.90567	-448
2.90933	-514
2.91300	-584
2.91667	-656
2.92033	-730
2.92400	-807
2.92767	-886
2.93133	-967
2.93500	-1049
2.93867	-1133
2.94233	-1218
2.94600	-1305
2.94967	-1388
2.95333	-1458
2.95700	-1502
2.96067	-1511
2.96433	-1486
2.96800	-1429
2.97167	-1349
2.97533	-1251
2.97900	-1145
2.98267	-1035
2.98633	-926
2.99000	-821
2.99367	-723
2.99733	-633
3.00100	-551
3.00467	-477
3.00833	-411
3.01200	-354
3.01567	-303
3.01933	-259
3.02300	-221
3.02667	-187
3.03033	-159
3.03400	-134
3.03767	-112
3.04133	-94
3.04500	-78
3.04867	-65
3.05233	-53
3.05600	-43
3.05967	-34
3.06333	-27
3.06700	-21
3.07067	-16
3.07433	-12
3.07800	-8
3.08167	-4
3.08533	-1
3.08900	1
3.09267	3
3.09633	5
3.10000	6
3.10367	8
3.10733	9
3.11100	10
3.11467	11
3.11833	12
3.12200	12
3.12567	13
3.12933	14
3.13300	14
3.13667	14
3.14033	15
3.14400	15
3.14767	16
3.15133	16
3.15500	17
3.15867	17
3.16233	18
3.16600	18
3.16967	19
3.17333	19
3.17700	19
3.18067	20
3.18433	20
3.18800	20
3.19167	20
3.19533	20
3.19900	20
3.20267	21
3.20633	21
3.21000	21
3.21367	21
3.21733	21
3.22100	22
3.22467	22
3.22833	22
3.23200	23
3.23567	23
3.23933	23
3.24300	23
3.24667	24
3.25033	24
3.25400	24
3.25767	24
3.26133	24
3.26500	24
3.26867	24
3.27233	25
3.27600	25
3.27967	25
3.28333	25
3.28700	26
3.29067	26
3.29433	27
3.29800	27
3.30167	28
3.30533	28
3.30900	28
3.31267	28
3.31633	28
3.32000	28
3.32367	28
3.32733	28
3.33100	29
3.33467	29
3.33833	29
3.34200	29
3.34567	29
3.34933	29
3.35300	29
3.35667	29
3.36033	29
3.36400	29
3.36767	30
3.37133	30
3.37500	30
3.37867	30
3.38233	30
3.38600	30
3.38967	30
3.39333	30
3.39700	30
3.40067	29
3.40433	29
3.40800	29
3.41167	29
3.41533	30
3.41900	30
3.42267	30
3.42633	30
3.43000	30
3.43367	30
3.43733	30
3.44100	30
3.44467	30
3.44833	30
3.45200	30
3.45567	30
3.45933	30
3.46300	30
3.46667	30
3.47033	30
3.47400	30
3.47767	30
3.48133	30
3.48500	30
3.48867	30
3.49233	31
3.49600	31
3.49967	31
3.50333	31
3.50700	31
3.51067	31
3.51433	31
3.51800	31
3.52167	30
3.52533	30
3.52900	30
3.53267	30
3.53633	30
3.54000	30
3.54367	30
3.54733	30
3.55100	31
3.55467	31
3.55833	31
3.56200	31
3.56567	31
3.56933	31
3.57300	31
3.57667	32
3.58033	32
3.58400	31
3.58767	31
3.59133	31
3.59500	31
3.59867	31
3.60233	31
3.60600	31
3.60967	31
3.61333	31
3.61700	31
3.62067	30
3.62433	30
3.62800	30
3.63167	30
3.63533	30
3.63900	30
3.64267	30
3.64633	30
3.65000	30
3.65367	30
3.65733	30
3.66100	30
3.66467	30
3.66833	30
3.67200	30
3.67567	30
3.67933	30
3.68300	30
3.68667	31
3.69033	31
3.69400	31
3.69767	31
3.70133	32
3.70500	32
3.70867	32
3.71233	32
3.71600	32
3.71967	32
3.72333	32
3.72700	32
3.73067	32
3.73433	32
3.73800	32
3.74167	32
3.74533	32
3.74900	32
3.75267	32
3.75633	32
3.76000	32
3.76367	32
3.76733	32
3.77100	33
3.77467	33
3.77833	33
3.78200	33
3.78567	33
3.78933	33
3.79300	33
3.79667	33
3.80033	33
3.80400	33
3.80767	33
3.81133	33
3.81500	33
3.81867	33
3.82233	33
3.82600	32
3.82967	32
3.83333	32
3.83700	32
3.84067	31
3.84433	31
3.84800	31
3.85167	31
3.85533	31
3.85900	31
3.86267	31
3.86633	32
3.87000	32
3.87367	32
3.87733	32
3.88100	32
3.88467	32
3.88833	32
3.89200	32
3.89567	31
3.89933	31
3.90300	31
3.90667	31
3.91033	31
3.91400	31
3.91767	31
3.92133	31
3.92500	31
3.92867	31
3.93233	31
3.93600	31
3.93967	31
3.94333	31
3.94700	31
3.95067	30
3.95433	30
3.95800	30
3.96167	30
3.96533	30
3.96900	30
3.97267	30
3.97633	30
3.98000	29
3.98367	29
3.98733	29
3.99100	29
3.99467	29
3.99833	29

[Chromatogram (Ch3)]
Interval(msec)	220
# of Points	1091
Start Time(min)	0.002
End Time(min)	3.998
R.Time (min)	Intensity
0.00167	2
0.00533	7
0.00900	8
0.01267	5
0.01633	5
0.02000	6
0.02367	5
0.02733	1
0.03100	-1
0.03467	1
0.03833	3
0.04200	3
0.04567	3
0.04933	3
0.05300	4
0.05667	5
0.06033	3
0.06400	3
0.06767	4
0.07133	4
0.07500	5
0.07867	5
0.08233	4
0.08600	2
0.08967	3
0.09333	2
0.09700	1
0.10067	0
0.10433	2
0.10800	2
0.11167	1
0.11533	0
0.11900	0
0.12267	0
0.12633	1
0.13000	0
0.13367	-2
0.13733	-1
0.14100	0
0.14467	2
0.14833	2
0.15200	-1
0.15567	-2
0.15933	-1
0.16300	3
0.16667	5
0.17033	5
0.17400	5
0.17767	4
0.18133	4
0.18500	4
0.18867	4
0.19233	4
0.19600	5
0.19967	6
0.20333	7
0.20700	9
0.21067	10
0.21433	10
0.21800	9
0.22167	9
0.22533	8
0.22900	6
0.23267	5
0.23633	5
0.24000	4
0.24367	3
0.24733	4
0.25100	5
0.25467	6
0.25833	6
0.26200	6
0.26567	5
0.26933	4
0.27300	3
0.27667	3
0.28033	3
0.28400	4
0.28767	4
0.29133	3
0.29500	4
0.29867	4
0.30233	5
0.30600	3
0.30967	2
0.31333	3
0.31700	3
0.32067	4
0.32433	4
0.32800	5
0.33167	7
0.33533	8
0.33900	8
0.34267	4
0.34633	1
0.35000	-0
0.35367	1
0.35733	3
0.36100	4
0.36467	5
0.36833	6
0.37200	6
0.37567	6
0.37933	3
0.38300	1
0.38667	0
0.39033	1
0.39400	2
0.39767	3
0.40133	4
0.40500	2
0.40867	3
0.41233	7
0.41600	9
0.41967	8
0.42333	4
0.42700	1
0.43067	1
0.43433	3
0.43800	3
0.44167	4
0.44533	4
0.44900	4
0.45267	4
0.45633	3
0.46000	1
0.46367	0
0.46733	-1
0.47100	-0
0.47467	1
0.47833	4
0.48200	5
0.48567	6
0.48933	5
0.49300	2
0.49667	0
0.50033	2
0.50400	2
0.50767	-0
0.51133	-1
0.51500	-1
0.51867	-2
0.52233	-0
0.52600	2
0.52967	4
0.53333	6
0.53700	7
0.54067	6
0.54433	7
0.54800	8
0.55167	10
0.55533	9
0.55900	6
0.56267	5
0.56633	5
0.57000	4
0.57367	2
0.57733	2
0.58100	2
0.58467	2
0.58833	2
0.59200	2
0.59567	2
0.59933	4
0.60300	4
0.60667	3
0.61033	4
0.61400	5
0.61767	4
0.62133	2
0.62500	3
0.62867	2
0.63233	2
0.63600	1
0.63967	0
0.64333	0
0.64700	2
0.65067	3
0.65433	2
0.65800	-2
0.66167	-1
0.66533	-0
0.66900	1
0.67267	3
0.67633	4
0.68000	3
0.68367	4
0.68733	6
0.69100	8
0.69467	9
0.69833	11
0.70200	10
0.70567	9
0.70933	8
0.71300	8
0.71667	7
0.72033	5
0.72400	4
0.72767	2
0.73133	-0
0.73500	-1
0.73867	1
0.74233	1
0.74600	4
0.74967	4
0.75333	2
0.75700	1
0.76067	3
0.76433	4
0.76800	4
0.77167	7
0.77533	8
0.77900	7
0.78267	6
0.78633	5
0.79000	7
0.79367	7
0.79733	4
0.80100	2
0.80467	2
0.80833	0
0.81200	-0
0.81567	2
0.81933	3
0.82300	4
0.82667	4
0.83033	3
0.83400	-1
0.83767	-4
0.84133	-4
0.84500	-2
0.84867	2
0.85233	5
0.85600	4
0.85967	2
0.86333	1
0.86700	1
0.87067	2
0.87433	4
0.87800	5
0.88167	6
0.88533	7
0.88900	8
0.89267	9
0.89633	8
0.90000	6
0.90367	6
0.90733	6
0.91100	3
0.91467	2
0.91833	0
0.92200	1
0.92567	2
0.92933	2
0.93300	2
0.93667	3
0.94033	4
0.94400	2
0.94767	1
0.95133	2
0.95500	2
0.95867	2
0.96233	0
0.96600	-0
0.96967	2
0.97333	5
0.97700	5
0.98067	5
0.98433	4
0.98800	4
0.99167	4
0.99533	3
0.99900	2
1.00267	4
1.00633	7
1.01000	9
1.01367	11
1.01733	12
1.02100	11
1.02467	10
1.02833	8
1.03200	6
1.03567	7
1.03933	10
1.04300	12
1.04667	11
1.05033	9
1.05400	7
1.05767	6
1.06133	6
1.06500	4
1.06867	-0
1.07233	-1
1.07600	2
1.07967	3
1.08333	2
1.08700	2
1.09067	2
1.09433	2
1.09800	2
1.10167	1
1.10533	2
1.10900	4
1.11267	4
1.11633	5
1.12000	6
1.12367	5
1.12733	4
1.13100	3
1.13467	1
1.13833	0
1.14200	-1
1.14567	-4
1.14933	-5
1.15300	-2
1.15667	1
1.16033	4
1.16400	3
1.16767	1
1.17133	1
1.17500	1
1.17867	2
1.18233	4
1.18600	3
1.18967	1
1.19333	-0
1.19700	1
1.20067	2
1.20433	3
1.20800	2
1.21167	2
1.21533	0
1.21900	1
1.22267	1
1.22633	-3
1.23000	-5
1.23367	-4
1.23733	-2
1.24100	-1
1.24467	-1
1.24833	-2
1.25200	-4
1.25567	-4
1.25933	-2
1.26300	-2
1.26667	-2
1.27033	-2
1.27400	-2
1.27767	-3
1.28133	-4
1.28500	-4
1.28867	-6
1.29233	-8
1.29600	-8
1.29967	-8
1.30333	-8
1.30700	-7
1.31067	-5
1.31433	-5
1.31800	-6
1.32167	-4
1.32533	-3
1.32900	-3
1.33267	-3
1.33633	-3
1.34000	-4
1.34367	-5
1.34733	-5
1.35100	-4
1.35467	-3
1.35833	-3
1.36200	-5
1.36567	-8
1.36933	-9
1.37300	-10
1.37667	-11
1.38033	-13
1.38400	-13
1.38767	-10
1.39133	-9
1.39500	-9
1.39867	-10
1.40233	-11
1.40600	-10
1.40967	-7
1.41333	-4
1.41700	-2
1.42067	0
1.42433	2
1.42800	2
1.43167	-1
1.43533	0
1.43900	1
1.44267	-2
1.44633	-5
1.45000	-5
1.45367	-5
1.45733	-3
1.46100	1
1.46467	2
1.46833	0
1.47200	-2
1.47567	-6
1.47933	-9
1.48300	-10
1.48667	-11
1.49033	-11
1.49400	-10
1.49767	-8
1.50133	-7
1.50500	-5
1.50867	-5
1.51233	-5
1.51600	-5
1.51967	-4
1.52333	-3
1.52700	-2
1.53067	-1
1.53433	-1
1.53800	-3
1.54167	-3
1.54533	-7
1.54900	-10
1.55267	-10
1.55633	-8
1.56000	-6
1.56367	-4
1.56733	-6
1.57100	-7
1.57467	-7
1.57833	-7
1.58200	-6
1.58567	-6
1.58933	-4
1.59300	-4
1.59667	-4
1.60033	-3
1.60400	-5
1.60767	-6
1.61133	-4
1.61500	-1
1.61867	-1
1.62233	-3
1.62600	-5
1.62967	-4
1.63333	-4
1.63700	-5
1.64067	-4
1.64433	-3
1.64800	-2
1.65167	0
1.65533	2
1.65900	1
1.66267	0
1.66633	0
1.67000	2
1.67367	5
1.67733	6
1.68100	5
1.68467	2
1.68833	2
1.69200	3
1.69567	3
1.69933	4
1.70300	7
1.70667	11
1.71033	11
1.71400	10
1.71767	11
1.72133	11
1.72500	10
1.72867	11
1.73233	11
1.73600	9
1.73967	8
1.74333	7
1.74700	7
1.75067	8
1.75433	10
1.75800	10
1.76167	11
1.76533	12
1.76900	14
1.77267	15
1.77633	16
1.78000	16
1.78367	17
1.78733	16
1.79100	16
1.79467	14
1.79833	14
1.80200	14
1.80567	16
1.80933	19
1.81300	18
1.81667	18
1.82033	20
1.82400	24
1.82767	26
1.83133	28
1.83500	30
1.83867	30
1.84233	29
1.84600	28
1.84967	26
1.85333	23
1.85700	22
1.86067	25
1.86433	26
1.86800	26
1.87167	26
1.87533	27
1.87900	29
1.88267	31
1.88633	32
1.89000	32
1.89367	34
1.89733	35
1.90100	36
1.90467	34
1.90833	33
1.91200	33
1.91567	34
1.91933	35
1.92300	38
1.92667	38
1.93033	36
1.93400	34
1.93767	34
1.94133	33
1.94500	32
1.94867	32
1.95233	36
1.95600	38
1.95967	38
1.96333	38
1.96700	37
1.97067	35
1.97433	35
1.97800	37
1.98167	41
1.98533	43
1.98900	45
1.99267	45
1.99633	45
2.00000	46
2.00367	48
2.00733	48
2.01100	47
2.01467	49
2.01833	51
2.02200	50
2.02567	49
2.02933	48
2.03300	47
2.03667	46
2.04033	47
2.04400	48
2.04767	49
2.05133	52
2.05500	55
2.05867	56
2.06233	57
2.06600	59
2.06967	59
2.07333	58
2.07700	57
2.08067	59
2.08433	60
2.08800	63
2.09167	66
2.09533	66
2.09900	67
2.10267	68
2.10633	69
2.11000	72
2.11367	72
2.11733	70
2.12100	70
2.12467	70
2.12833	71
2.13200	75
2.13567	79
2.13933	80
2.14300	82
2.14667	82
2.15033	83
2.15400	85
2.15767	86
2.16133	87
2.16500	88
2.16867	88
2.17233	88
2.17600	87
2.17967	90
2.18333	95
2.18700	98
2.19067	98
2.19433	97
2.19800	95
2.20167	95
2.20533	96
2.20900	98
2.21267	100
2.21633	102
2.22000	104
2.22367	104
2.22733	102
2.23100	101
2.23467	101
2.23833	100
2.24200	101
2.24567	101
2.24933	103
2.25300	107
2.25667	109
2.26033	111
2.26400	113
2.26767	115
2.27133	117
2.27500	120
2.27867	123
2.28233	124
2.28600	125
2.28967	126
2.29333	127
2.29700	127
2.30067	129
2.30433	130
2.30800	131
2.31167	131
2.31533	132
2.31900	135
2.32267	138
2.32633	140
2.33000	137
2.33367	137
2.33733	141
2.34100	143
2.34467	145
2.34833	147
2.35200	151
2.35567	153
2.35933	153
2.36300	154
2.36667	153
2.37033	153
2.37400	155
2.37767	156
2.38133	154
2.38500	150
2.38867	148
2.39233	146
2.39600	145
2.39967	145
2.40333	147
2.40700	151
2.41067	156
2.41433	160
2.41800	160
2.42167	162
2.42533	165
2.42900	166
2.43267	169
2.43633	172
2.44000	176
2.44367	182
2.44733	198
2.45100	216
2.45467	230
2.45833	235
2.46200	230
2.46567	221
2.46933	213
2.47300	208
2.47667	203
2.48033	199
2.48400	196
2.48767	194
2.49133	193
2.49500	190
2.49867	187
2.50233	188
2.50600	190
2.50967	191
2.51333	193
2.51700	196
2.52067	198
2.52433	200
2.52800	203
2.53167	205
2.53533	206
2.53900	206
2.54267	206
2.54633	207
2.55000	203
2.55367	202
2.55733	201
2.56100	203
2.56467	205
2.56833	206
2.57200	205
2.57567	203
2.57933	203
2.58300	204
2.58667	205
2.59033	210
2.59400	212
2.59767	213
2.60133	211
2.60500	205
2.60867	193
2.61233	174
2.61600	145
2.61967	109
2.62333	69
2.62700	29
2.63067	-12
2.63433	-49
2.63800	-82
2.64167	-110
2.64533	-132
2.64900	-148
2.65267	-157
2.65633	-159
2.66000	-158
2.66367	-155
2.66733	-150
2.67100	-144
2.67467	-135
2.67833	-123
2.68200	-113
2.68567	-103
2.68933	-93
2.69300	-82
2.69667	-71
2.70033	-59
2.70400	-48
2.70767	-38
2.71133	-29
2.71500	-22
2.71867	-15
2.72233	-9
2.72600	-1
2.72967	8
2.73333	17
2.73700	27
2.74067	35
2.74433	43
2.74800	50
2.75167	56
2.75533	62
2.75900	67
2.76267	70
2.76633	73
2.77000	75
2.77367	80
2.77733	84
2.78100	87
2.78467	91
2.78833	95
2.79200	98
2.79567	101
2.79933	103
2.80300	106
2.80667	107
2.81033	111
2.81400	113
2.81767	113
2.82133	115
2.82500	121
2.82867	140
2.83233	189
2.83600	290
2.83967	496
2.84333	873
2.84700	1487
2.85067	2391
2.85433	3608
2.85800	5122
2.86167	6872
2.86533	8755
2.86900	10632
2.87267	12357
2.87633	13801
2.88000	14867
2.88367	15499
2.88733	15696
2.89100	15490
2.89467	14949
2.89833	14158
2.90200	13200
2.90567	12147
2.90933	11059
2.91300	9984
2.91667	8947
2.92033	7973
2.92400	7077
2.92767	6260
2.93133	5522
2.93500	4858
2.93867	4265
2.94233	3738
2.94600	3274
2.94967	2864
2.95333	2504
2.95700	2190
2.96067	1918
2.96433	1678
2.96800	1466
2.97167	1283
2.97533	1126
2.97900	991
2.98267	873
2.98633	771
2.99000	681
2.99367	602
2.99733	537
3.00100	483
3.00467	435
3.00833	393
3.01200	358
3.01567	328
3.01933	302
3.02300	280
3.02667	260
3.03033	242
3.03400	225
3.03767	211
3.04133	198
3.04500	189
3.04867	182
3.05233	176
3.05600	171
3.05967	167
3.06333	163
3.06700	158
3.07067	153
3.07433	149
3.07800	148
3.08167	148
3.08533	145
3.08900	143
3.09267	141
3.09633	139
3.10000	138
3.10367	136
3.10733	133
3.11100	131
3.11467	130
3.11833	130
3.12200	130
3.12567	129
3.12933	128
3.13300	128
3.13667	126
3.14033	125
3.14400	126
3.14767	125
3.15133	124
3.15500	124
3.15867	125
3.16233	126
3.16600	126
3.16967	124
3.17333	121
3.17700	121
3.18067	121
3.18433	121
3.18800	121
3.19167	119
3.19533	121
3.19900	120
3.20267	121
3.20633	122
3.21000	124
3.21367	125
3.21733	125
3.22100	126
3.22467	128
3.22833	126
3.23200	125
3.23567	123
3.23933	121
3.24300	116
3.24667	113
3.25033	113
3.25400	114
3.25767	115
3.26133	116
3.26500	114
3.26867	112
3.27233	112
3.27600	113
3.27967	111
3.28333	109
3.28700	109
3.29067	109
3.29433	107
3.29800	108
3.30167	107
3.30533	106
3.30900	106
3.31267	105
3.31633	103
3.32000	101
3.32367	99
3.32733	98
3.33100	96
3.33467	98
3.33833	101
3.34200	100
3.34567	103
3.34933	104
3.35300	105
3.35667	105
3.36033	102
3.36400	98
3.36767	94
3.37133	94
3.37500	95
3.37867	96
3.38233	96
3.38600	94
3.38967	93
3.39333	91
3.39700	88
3.40067	88
3.40433	88
3.40800	87
3.41167	86
3.41533	84
3.41900	81
3.42267	80
3.42633	80
3.43000	81
3.43367	81
3.43733	81
3.44100	79
3.44467	77
3.44833	76
3.45200	75
3.45567	73
3.45933	73
3.46300	73
3.46667	73
3.47033	72
3.47400	70
3.47767	69
3.48133	67
3.48500	66
3.48867	67
3.49233	65
3.49600	63
3.49967	62
3.50333	62
3.50700	61
3.51067	61
3.51433	62
3.51800	65
3.52167	66
3.52533	66
3.52900	65
3.53267	63
3.53633	61
3.54000	58
3.54367	57
3.54733	57
3.55100	57
3.55467	59
3.55833	59
3.56200	58
3.56567	56
3.56933	54
3.57300	53
3.57667	52
3.58033	50
3.58400	49
3.58767	49
3.59133	51
3.59500	51
3.59867	50
3.60233	50
3.60600	49
3.60967	50
3.61333	51
3.61700	49
3.62067	48
3.62433	48
3.62800	49
3.63167	50
3.63533	49
3.63900	47
3.64267	43
3.64633	40
3.65000	39
3.65367	38
3.65733	38
3.66100	38
3.66467	37
3.66833	35
3.67200	35
3.67567	37
3.67933	39
3.68300	39
3.68667	39
3.69033	40
3.69400	40
3.69767	37
3.70133	35
3.70500	34
3.70867	34
3.71233	35
3.71600	34
3.71967	33
3.72333	32
3.72700	32
3.73067	31
3.73433	28
3.73800	28
3.74167	28
3.74533	28
3.74900	29
3.75267	29
3.75633	29
3.76000	29
3.76367	27
3.76733	27
3.77100	28
3.77467	27
3.77833	26
3.78200	22
3.78567	19
3.78933	17
3.79300	18
3.79667	17
3.80033	18
3.80400	20
3.80767	20
3.81133	20
3.81500	19
3.81867	17
3.82233	17
3.82600	17
3.82967	16
3.83333	15
3.83700	15
3.84067	16
3.84433	16
3.84800	15
3.85167	14
3.85533	13
3.85900	13
3.86267	13
3.86633	12
3.87000	12
3.87367	13
3.87733	14
3.88100	13
3.88467	12
3.88833	14
3.89200	16
3.89567	20
3.89933	21
3.90300	20
3.90667	17
3.91033	15
3.91400	12
3.91767	10
3.92133	8
3.92500	8
3.92867	10
3.93233	11
3.93600	12
3.93967	10
3.94333	7
3.94700	6
3.95067	7
3.95433	10
3.95800	11
3.96167	12
3.96533	10
3.96900	9
3.97267	8
3.97633	9
3.98000	11
3.98367	11
3.98733	11
3.99100	9
3.99467	8
3.99833	10

[Status Trace (Column Oven Temperature)]
Interval(msec)	1000
# of Points	240
Start Time(min)	0.010
End Time(min)	3.994
Intensity Units	
Intensity Multiplier	1
R.Time (min)	Intensity
0.01047	35.04
0.02713	35.05
0.04380	35.05
0.06047	35.04
0.07713	35.03
0.09380	35.02
0.11047	35.01
0.12713	35.01
0.14380	35.02
0.16047	35.03
0.17713	35.03
0.19380	35.02
0.21047	35.02
0.22713	35.02
0.24380	35.01
0.26047	35.02
0.27713	35.02
0.29380	35.01
0.31047	35.00
0.32713	34.99
0.34380	34.98
0.36047	34.98
0.37713	34.97
0.39380	34.96
0.41047	34.96
0.42713	34.96
0.44380	34.96
0.46047	34.97
0.47713	34.98
0.49380	34.99
0.51047	34.99
0.52713	34.99
0.54380	35.00
0.56047	35.01
0.57713	35.01
0.59380	35.01
0.61047	35.02
0.62713	35.02
0.64380	35.02
0.66047	35.02
0.67713	35.02
0.69380	35.02
0.71047	35.02
0.72713	35.03
0.74380	35.03
0.76047	35.02
0.77713	35.01
0.79380	35.00
0.81047	34.99
0.82713	34.97
0.84380	34.96
0.86047	34.96
0.87713	34.97
0.89380	34.98
0.91047	34.99
0.92713	35.00
0.94380	35.01
0.96047	35.01
0.97713	35.01
0.99380	35.01
1.01047	35.01
1.02713	35.00
1.04380	34.99
1.06047	34.97
1.07713	34.98
1.09380	34.98
1.11047	35.00
1.12713	35.01
1.14380	35.02
1.16047	35.02
1.17713	35.00
1.19380	35.00
1.21047	34.99
1.22713	34.98
1.24380	34.97
1.26047	34.97
1.27713	34.98
1.29380	34.98
1.31047	34.97
1.32713	34.97
1.34380	34.98
1.36047	34.99
1.37713	34.99
1.39380	34.99
1.41047	34.98
1.42713	34.97
1.44380	34.97
1.46047	34.97
1.47713	34.97
1.49380	34.96
1.51047	34.96
1.52713	34.97
1.54380	34.98
1.56047	34.98
1.57713	34.97
1.59380	34.99
1.61047	35.06
1.62713	35.19
1.64380	35.40
1.66047	35.69
1.67713	36.04
1.69380	36.41
1.71047	36.75
1.72713	37.07
1.74380	37.41
1.76047	37.74
1.77713	38.08
1.79380	38.40
1.81047	38.74
1.82713	39.07
1.84380	39.41
1.86047	39.71
1.87713	40.05
1.89380	40.37
1.91047	40.70
1.92713	41.04
1.94380	41.37
1.96047	41.68
1.97713	42.03
1.99380	42.34
2.01047	42.69
2.02713	43.00
2.04380	43.34
2.06047	43.67
2.07713	43.97
2.09380	44.30
2.11047	44.63
2.12713	44.97
2.14380	45.29
2.16047	45.61
2.17713	45.92
2.19380	46.25
2.21047	46.59
2.22713	46.91
2.24380	47.25
2.26047	47.58
2.27713	47.91
2.29380	48.23
2.31047	48.58
2.32713	48.91
2.34380	49.22
2.36047	49.50
2.37713	49.63
2.39380	49.66
2.41047	49.66
2.42713	49.68
2.44380	49.68
2.46047	49.72
2.47713	49.72
2.49380	49.75
2.51047	49.75
2.52713	49.80
2.54380	49.79
2.56047	49.82
2.57713	49.85
2.59380	49.84
2.61047	49.84
2.62713	49.86
2.64380	49.85
2.66047	49.85
2.67713	49.86
2.69380	49.85
2.71047	49.84
2.72713	49.89
2.74380	49.90
2.76047	49.91
2.77713	49.91
2.79380	49.91
2.81047	49.91
2.82713	49.92
2.84380	49.92
2.86047	49.93
2.87713	49.94
2.89380	49.95
2.91047	49.95
2.92713	49.96
2.94380	49.97
2.96047	49.99
2.97713	50.00
2.99380	50.01
3.01047	50.02
3.02713	50.02
3.04380	50.02
3.06047	50.01
3.07713	50.02
3.09380	50.03
3.11047	50.04
3.12713	50.04
3.14380	50.06
3.16047	50.06
3.17713	50.06
3.19380	50.08
3.21047	50.08
3.22713	50.09
3.24380	50.10
3.26047	50.10
3.27713	50.11
3.29380	50.10
3.31047	50.09
3.32713	50.09
3.34380	50.08
3.36047	50.07
3.37713	50.07
3.39380	50.08
3.41047	50.09
3.42713	50.09
3.44380	50.08
3.46047	50.08
3.47713	50.08
3.49380	50.08
3.51047	50.08
3.52713	50.09
3.54380	50.08
3.56047	50.08
3.57713	50.07
3.59380	50.07
3.61047	50.08
3.62713	50.09
3.64380	50.09
3.66047	50.09
3.67713	50.09
3.69380	50.08
3.71047	50.07
3.72713	50.07
3.74380	50.08
3.76047	50.06
3.77713	50.06
3.79380	50.05
3.81047	50.05
3.82713	50.05
3.84380	50.05
3.86047	50.05
3.87713	50.05
3.89380	50.04
3.91047	50.05
3.92713	50.06
3.94380	50.07
3.96047	50.08
3.97713	50.08
3.99380	50.10

[Status Trace (Injection Unit Temperature)]
Interval(msec)	1000
# of Points	240
Start Time(min)	0.010
End Time(min)	3.994
Intensity Units	
Intensity Multiplier	1
R.Time (min)	Intensity
0.01047	99.99
0.02713	99.99
0.04380	99.99
0.06047	99.99
0.07713	99.99
0.09380	100.00
0.11047	99.99
0.12713	100.00
0.14380	99.99
0.16047	99.99
0.17713	99.99
0.19380	99.99
0.21047	99.99
0.22713	99.99
0.24380	99.99
0.26047	99.99
0.27713	100.00
0.29380	99.99
0.31047	99.99
0.32713	99.99
0.34380	99.99
0.36047	99.99
0.37713	99.99
0.39380	99.99
0.41047	99.99
0.42713	99.99
0.44380	100.00
0.46047	100.00
0.47713	99.99
0.49380	99.99
0.51047	99.99
0.52713	99.99
0.54380	99.99
0.56047	99.99
0.57713	100.00
0.59380	99.99
0.61047	99.99
0.62713	100.00
0.64380	100.00
0.66047	99.99
0.67713	100.00
0.69380	99.99
0.71047	100.00
0.72713	99.99
0.74380	100.00
0.76047	100.00
0.77713	100.00
0.79380	99.99
0.81047	100.00
0.82713	100.00
0.84380	99.99
0.86047	100.00
0.87713	99.99
0.89380	100.00
0.91047	100.00
0.92713	99.99
0.94380	99.99
0.96047	99.99
0.97713	99.99
0.99380	99.99
1.01047	99.99
1.02713	100.00
1.04380	99.99
1.06047	99.99
1.07713	99.99
1.09380	100.00
1.11047	99.99
1.12713	100.00
1.14380	99.99
1.16047	99.99
1.17713	99.99
1.19380	100.00
1.21047	99.99
1.22713	100.00
1.24380	99.99
1.26047	99.99
1.27713	99.99
1.29380	99.99
1.31047	99.99
1.32713	99.99
1.34380	99.99
1.36047	99.99
1.37713	99.99
1.39380	99.99
1.41047	99.99
1.42713	99.99
1.44380	99.99
1.46047	99.99
1.47713	99.99
1.49380	99.99
1.51047	100.00
1.52713	99.99
1.54380	99.99
1.56047	99.99
1.57713	100.00
1.59380	99.99
1.61047	99.99
1.62713	100.00
1.64380	99.99
1.66047	100.00
1.67713	99.99
1.69380	99.99
1.71047	99.99
1.72713	99.99
1.74380	99.99
1.76047	99.99
1.77713	100.00
1.79380	100.00
1.81047	99.99
1.82713	99.99
1.84380	99.99
1.86047	99.99
1.87713	99.99
1.89380	99.99
1.91047	99.99
1.92713	99.99
1.94380	99.99
1.96047	99.99
1.97713	99.99
1.99380	99.99
2.01047	99.98
2.02713	99.98
2.04380	99.98
2.06047	99.98
2.07713	99.98
2.09380	99.98
2.11047	99.98
2.12713	99.98
2.14380	99.98
2.16047	99.98
2.17713	99.98
2.19380	99.98
2.21047	99.97
2.22713	99.98
2.24380	99.98
2.26047	99.97
2.27713	99.97
2.29380	99.98
2.31047	99.98
2.32713	99.98
2.34380	99.98
2.36047	99.97
2.37713	99.98
2.39380	99.98
2.41047	99.98
2.42713	99.98
2.44380	99.98
2.46047	99.98
2.47713	99.98
2.49380	99.98
2.51047	99.98
2.52713	99.98
2.54380	99.98
2.56047	99.98
2.57713	99.98
2.59380	99.99
2.61047	99.98
2.62713	99.99
2.64380	99.99
2.66047	99.99
2.67713	99.99
2.69380	99.99
2.71047	99.99
2.72713	99.99
2.74380	100.00
2.76047	99.99
2.77713	100.00
2.79380	100.00
2.81047	100.00
2.82713	100.00
2.84380	100.01
2.86047	100.01
2.87713	100.01
2.89380	100.00
2.91047	100.01
2.92713	100.01
2.94380	100.01
2.96047	100.01
2.97713	100.02
2.99380	100.02
3.01047	100.02
3.02713	100.02
3.04380	100.02
3.06047	100.02
3.07713	100.02
3.09380	100.02
3.11047	100.02
3.12713	100.02
3.14380	100.03
3.16047	100.02
3.17713	100.03
3.19380	100.03
3.21047	100.03
3.22713	100.03
3.24380	100.03
3.26047	100.03
3.27713	100.03
3.29380	100.04
3.31047	100.04
3.32713	100.04
3.34380	100.04
3.36047	100.03
3.37713	100.04
3.39380	100.04
3.41047	100.04
3.42713	100.04
3.44380	100.04
3.46047	100.04
3.47713	100.04
3.49380	100.04
3.51047	100.04
3.52713	100.04
3.54380	100.05
3.56047	100.05
3.57713	100.05
3.59380	100.04
3.61047	100.05
3.62713	100.05
3.64380	100.05
3.66047	100.05
3.67713	100.05
3.69380	100.05
3.71047	100.05
3.72713	100.05
3.74380	100.05
3.76047	100.05
3.77713	100.06
3.79380	100.05
3.81047	100.06
3.82713	100.06
3.84380	100.05
3.86047	100.06
3.87713	100.06
3.89380	100.05
3.91047	100.06
3.92713	100.06
3.94380	100.06
3.96047	100.06
3.97713	100.06
3.99380	100.05

[Status Trace (Carrier Gas Pressure)]
Interval(msec)	1000
# of Points	240
Start Time(min)	0.010
End Time(min)	3.994
Intensity Units	
Intensity Multiplier	1
R.Time (min)	Intensity
0.01047	58.00
0.02713	55.08
0.04380	57.48
0.06047	59.49
0.07713	59.13
0.09380	58.01
0.11047	57.99
0.12713	58.01
0.14380	58.01
0.16047	58.00
0.17713	58.00
0.19380	58.00
0.21047	58.00
0.22713	58.00
0.24380	58.00
0.26047	58.00
0.27713	58.00
0.29380	58.00
0.31047	58.00
0.32713	58.00
0.34380	58.00
0.36047	58.00
0.37713	58.00
0.39380	58.00
0.41047	58.00
0.42713	58.00
0.44380	58.00
0.46047	58.00
0.47713	58.00
0.49380	58.00
0.51047	58.00
0.52713	58.00
0.54380	58.00
0.56047	58.00
0.57713	58.00
0.59380	58.00
0.61047	58.00
0.62713	58.00
0.64380	58.00
0.66047	58.00
0.67713	58.00
0.69380	58.00
0.71047	58.00
0.72713	58.00
0.74380	58.00
0.76047	58.00
0.77713	58.00
0.79380	58.00
0.81047	58.00
0.82713	58.00
0.84380	58.00
0.86047	58.00
0.87713	58.00
0.89380	58.00
0.91047	58.00
0.92713	58.00
0.94380	58.00
0.96047	58.00
0.97713	58.00
0.99380	58.00
1.01047	58.00
1.02713	58.00
1.04380	58.00
1.06047	58.00
1.07713	58.00
1.09380	58.00
1.11047	58.00
1.12713	58.00
1.14380	58.00
1.16047	58.00
1.17713	58.00
1.19380	58.00
1.21047	58.00
1.22713	58.00
1.24380	58.00
1.26047	58.00
1.27713	58.00
1.29380	58.00
1.31047	58.00
1.32713	58.00
1.34380	58.00
1.36047	58.00
1.37713	58.00
1.39380	58.00
1.41047	58.00
1.42713	58.00
1.44380	58.00
1.46047	58.00
1.47713	58.00
1.49380	58.00
1.51047	58.00
1.52713	58.00
1.54380	58.00
1.56047	58.00
1.57713	58.00
1.59380	58.00
1.61047	58.00
1.62713	58.00
1.64380	58.01
1.66047	58.01
1.67713	58.01
1.69380	58.00
1.71047	58.00
1.72713	58.00
1.74380	58.00
1.76047	58.00
1.77713	58.00
1.79380	58.00
1.81047	58.00
1.82713	58.00
1.84380	58.00
1.86047	58.00
1.87713	58.00
1.89380	58.00
1.91047	58.00
1.92713	58.00
1.94380	58.00
1.96047	58.00
1.97713	58.00
1.99380	58.00
2.01047	58.00
2.02713	58.00
2.04380	58.00
2.06047	58.00
2.07713	58.00
2.09380	58.00
2.11047	58.00
2.12713	58.00
2.14380	58.00
2.16047	58.00
2.17713	58.00
2.19380	58.00
2.21047	58.00
2.22713	58.00
2.24380	58.00
2.26047	58.00
2.27713	58.00
2.29380	58.00
2.31047	58.00
2.32713	58.00
2.34380	58.00
2.36047	58.00
2.37713	57.99
2.39380	57.99
2.41047	58.00
2.42713	58.00
2.44380	58.00
2.46047	58.00
2.47713	58.00
2.49380	58.00
2.51047	57.99
2.52713	57.98
2.54380	58.00
2.56047	58.00
2.57713	58.00
2.59380	58.00
2.61047	58.00
2.62713	58.00
2.64380	58.00
2.66047	58.00
2.67713	58.00
2.69380	58.00
2.71047	58.00
2.72713	58.00
2.74380	58.00
2.76047	58.00
2.77713	58.00
2.79380	58.00
2.81047	58.00
2.82713	58.00
2.84380	58.00
2.86047	58.00
2.87713	58.00
2.89380	58.00
2.91047	58.00
2.92713	58.00
2.94380	58.00
2.96047	58.00
2.97713	58.00
2.99380	58.00
3.01047	58.00
3.02713	58.00
3.04380	58.00
3.06047	58.00
3.07713	58.00
3.09380	58.00
3.11047	58.00
3.12713	58.00
3.14380	58.00
3.16047	58.00
3.17713	58.00
3.19380	58.00
3.21047	58.00
3.22713	58.00
3.24380	58.00
3.26047	58.00
3.27713	58.00
3.29380	58.00
3.31047	58.00
3.32713	58.00
3.34380	58.00
3.36047	58.00
3.37713	58.00
3.39380	58.00
3.41047	58.00
3.42713	58.00
3.44380	58.00
3.46047	58.00
3.47713	58.00
3.49380	58.00
3.51047	58.00
3.52713	58.00
3.54380	58.00
3.56047	58.00
3.57713	58.00
3.59380	58.00
3.61047	58.00
3.62713	58.00
3.64380	58.00
3.66047	58.00
3.67713	58.00
3.69380	58.00
3.71047	58.00
3.72713	58.00
3.74380	58.00
3.76047	58.00
3.77713	58.00
3.79380	58.00
3.81047	58.00
3.82713	58.00
3.84380	58.00
3.86047	58.00
3.87713	58.00
3.89380	58.00
3.91047	58.00
3.92713	58.00
3.94380	58.00
3.96047	58.00
3.97713	58.00
3.99380	58.00

[Status Trace (Carrier Gas Flow)]
Interval(msec)	1000
# of Points	240
Start Time(min)	0.010
End Time(min)	3.994
Intensity Units	
Intensity Multiplier	1
R.Time (min)	Intensity
0.01047	34.52
0.02713	34.54
0.04380	34.54
0.06047	34.54
0.07713	34.50
0.09380	34.52
0.11047	34.52
0.12713	34.52
0.14380	34.52
0.16047	34.52
0.17713	34.52
0.19380	34.52
0.21047	34.52
0.22713	34.52
0.24380	34.52
0.26047	34.52
0.27713	34.52
0.29380	34.52
0.31047	34.52
0.32713	34.52
0.34380	34.52
0.36047	34.52
0.37713	34.52
0.39380	34.52
0.41047	34.52
0.42713	34.52
0.44380	34.52
0.46047	34.52
0.47713	34.52
0.49380	34.52
0.51047	34.52
0.52713	34.52
0.54380	34.52
0.56047	34.52
0.57713	34.52
0.59380	34.52
0.61047	34.52
0.62713	34.52
0.64380	34.52
0.66047	34.52
0.67713	34.52
0.69380	34.52
0.71047	34.52
0.72713	34.52
0.74380	34.52
0.76047	34.52
0.77713	34.52
0.79380	34.52
0.81047	34.52
0.82713	34.52
0.84380	34.52
0.86047	34.52
0.87713	34.52
0.89380	34.52
0.91047	34.52
0.92713	34.52
0.94380	34.52
0.96047	34.52
0.97713	34.52
0.99380	34.52
1.01047	34.52
1.02713	34.52
1.04380	34.52
1.06047	34.52
1.07713	34.52
1.09380	34.52
1.11047	34.52
1.12713	34.52
1.14380	34.52
1.16047	34.52
1.17713	34.52
1.19380	34.52
1.21047	34.52
1.22713	34.52
1.24380	34.52
1.26047	34.52
1.27713	34.52
1.29380	34.52
1.31047	34.52
1.32713	34.52
1.34380	34.52
1.36047	34.52
1.37713	34.52
1.39380	34.52
1.41047	34.52
1.42713	34.52
1.44380	34.52
1.46047	34.52
1.47713	34.52
1.49380	34.52
1.51047	34.52
1.52713	34.52
1.54380	34.52
1.56047	34.52
1.57713	34.52
1.59380	34.52
1.61047	34.52
1.62713	34.52
1.64380	34.52
1.66047	34.52
1.67713	34.52
1.69380	34.52
1.71047	34.52
1.72713	34.52
1.74380	34.52
1.76047	34.52
1.77713	34.52
1.79380	34.52
1.81047	34.52
1.82713	34.52
1.84380	34.52
1.86047	34.52
1.87713	34.52
1.89380	34.52
1.91047	34.52
1.92713	34.52
1.94380	34.52
1.96047	34.53
1.97713	34.52
1.99380	34.52
2.01047	34.52
2.02713	34.52
2.04380	34.52
2.06047	34.52
2.07713	34.52
2.09380	34.52
2.11047	34.52
2.12713	34.52
2.14380	34.52
2.16047	34.51
2.17713	34.54
2.19380	34.51
2.21047	34.51
2.22713	34.51
2.24380	34.51
2.26047	34.51
2.27713	34.52
2.29380	34.52
2.31047	34.51
2.32713	34.51
2.34380	34.52
2.36047	34.52
2.37713	34.50
2.39380	34.53
2.41047	34.51
2.42713	34.51
2.44380	34.52
2.46047	34.52
2.47713	34.53
2.49380	34.52
2.51047	34.52
2.52713	34.52
2.54380	34.52
2.56047	34.52
2.57713	34.52
2.59380	34.52
2.61047	34.52
2.62713	34.52
2.64380	34.52
2.66047	34.52
2.67713	34.52
2.69380	34.52
2.71047	34.52
2.72713	34.52
2.74380	34.52
2.76047	34.52
2.77713	34.52
2.79380	34.51
2.81047	34.52
2.82713	34.52
2.84380	34.52
2.86047	34.52
2.87713	34.52
2.89380	34.52
2.91047	34.52
2.92713	34.52
2.94380	34.52
2.96047	34.51
2.97713	34.50
2.99380	34.53
3.01047	34.53
3.02713	34.52
3.04380	34.53
3.06047	34.53
3.07713	34.54
3.09380	34.53
3.11047	34.53
3.12713	34.53
3.14380	34.53
3.16047	34.52
3.17713	34.51
3.19380	34.52
3.21047	34.52
3.22713	34.53
3.24380	34.50
3.26047	34.50
3.27713	34.51
3.29380	34.52
3.31047	34.52
3.32713	34.52
3.34380	34.50
3.36047	34.52
3.37713	34.51
3.39380	34.52
3.41047	34.52
3.42713	34.52
3.44380	34.52
3.46047	34.52
3.47713	34.52
3.49380	34.52
3.51047	34.52
3.52713	34.52
3.54380	34.52
3.56047	34.52
3.57713	34.52
3.59380	34.52
3.61047	34.52
3.62713	34.52
3.64380	34.52
3.66047	34.52
3.67713	34.52
3.69380	34.52
3.71047	34.52
3.72713	34.52
3.74380	34.52
3.76047	34.52
3.77713	34.52
3.79380	34.52
3.81047	34.52
3.82713	34.52
3.84380	34.52
3.86047	34.52
3.87713	34.52
3.89380	34.52
3.91047	34.52
3.92713	34.52
3.94380	34.52
3.96047	34.52
3.97713	34.52
3.99380	34.50

[Status Trace (Column Flow)]
Interval(msec)	1000
# of Points	240
Start Time(min)	0.010
End Time(min)	3.994
Intensity Units	
Intensity Multiplier	1
R.Time (min)	Intensity
0.01047	5.46
0.02713	5.12
0.04380	5.40
0.06047	5.63
0.07713	5.59
0.09380	5.46
0.11047	5.46
0.12713	5.46
0.14380	5.46
0.16047	5.46
0.17713	5.46
0.19380	5.46
0.21047	5.46
0.22713	5.46
0.24380	5.46
0.26047	5.46
0.27713	5.46
0.29380	5.46
0.31047	5.46
0.32713	5.46
0.34380	5.46
0.36047	5.46
0.37713	5.46
0.39380	5.46
0.41047	5.46
0.42713	5.46
0.44380	5.46
0.46047	5.46
0.47713	5.46
0.49380	5.46
0.51047	5.46
0.52713	5.46
0.54380	5.46
0.56047	5.46
0.57713	5.46
0.59380	5.46
0.61047	5.46
0.62713	5.46
0.64380	5.46
0.66047	5.46
0.67713	5.46
0.69380	5.46
0.71047	5.46
0.72713	5.46
0.74380	5.46
0.76047	5.46
0.77713	5.46
0.79380	5.46
0.81047	5.46
0.82713	5.46
0.84380	5.46
0.86047	5.46
0.87713	5.46
0.89380	5.46
0.91047	5.46
0.92713	5.46
0.94380	5.46
0.96047	5.46
0.97713	5.46
0.99380	5.46
1.01047	5.46
1.02713	5.46
1.04380	5.46
1.06047	5.46
1.07713	5.46
1.09380	5.46
1.11047	5.46
1.12713	5.46
1.14380	5.46
1.16047	5.46
1.17713	5.46
1.19380	5.46
1.21047	5.46
1.22713	5.46
1.24380	5.46
1.26047	5.46
1.27713	5.46
1.29380	5.46
1.31047	5.46
1.32713	5.46
1.34380	5.46
1.36047	5.46
1.37713	5.46
1.39380	5.46
1.41047	5.46
1.42713	5.46
1.44380	5.46
1.46047	5.46
1.47713	5.46
1.49380	5.46
1.51047	5.46
1.52713	5.46
1.54380	5.46
1.56047	5.46
1.57713	5.46
1.59380	5.46
1.61047	5.46
1.62713	5.45
1.64380	5.45
1.66047	5.44
1.67713	5.43
1.69380	5.41
1.71047	5.40
1.72713	5.39
1.74380	5.38
1.76047	5.37
1.77713	5.36
1.79380	5.35
1.81047	5.34
1.82713	5.33
1.84380	5.32
1.86047	5.31
1.87713	5.30
1.89380	5.29
1.91047	5.28
1.92713	5.27
1.94380	5.26
1.96047	5.26
1.97713	5.25
1.99380	5.24
2.01047	5.23
2.02713	5.22
2.04380	5.21
2.06047	5.20
2.07713	5.19
2.09380	5.18
2.11047	5.17
2.12713	5.16
2.14380	5.15
2.16047	5.14
2.17713	5.13
2.19380	5.12
2.21047	5.11
2.22713	5.11
2.24380	5.10
2.26047	5.09
2.27713	5.08
2.29380	5.07
2.31047	5.06
2.32713	5.05
2.34380	5.04
2.36047	5.03
2.37713	5.03
2.39380	5.03
2.41047	5.03
2.42713	5.03
2.44380	5.03
2.46047	5.03
2.47713	5.03
2.49380	5.03
2.51047	5.03
2.52713	5.02
2.54380	5.03
2.56047	5.03
2.57713	5.02
2.59380	5.02
2.61047	5.02
2.62713	5.02
2.64380	5.02
2.66047	5.02
2.67713	5.02
2.69380	5.02
2.71047	5.02
2.72713	5.02
2.74380	5.02
2.76047	5.02
2.77713	5.02
2.79380	5.02
2.81047	5.02
2.82713	5.02
2.84380	5.02
2.86047	5.02
2.87713	5.02
2.89380	5.02
2.91047	5.02
2.92713	5.02
2.94380	5.02
2.96047	5.02
2.97713	5.02
2.99380	5.02
3.01047	5.02
3.02713	5.02
3.04380	5.02
3.06047	5.02
3.07713	5.02
3.09380	5.02
3.11047	5.02
3.12713	5.02
3.14380	5.02
3.16047	5.02
3.17713	5.02
3.19380	5.02
3.21047	5.02
3.22713	5.02
3.24380	5.02
3.26047	5.02
3.27713	5.02
3.29380	5.02
3.31047	5.02
3.32713	5.02
3.34380	5.02
3.36047	5.02
3.37713	5.02
3.39380	5.02
3.41047	5.02
3.42713	5.02
3.44380	5.02
3.46047	5.02
3.47713	5.02
3.49380	5.02
3.51047	5.02
3.52713	5.02
3.54380	5.02
3.56047	5.02
3.57713	5.02
3.59380	5.02
3.61047	5.02
3.62713	5.02
3.64380	5.02
3.66047	5.02
3.67713	5.02
3.69380	5.02
3.71047	5.02
3.72713	5.02
3.74380	5.02
3.76047	5.02
3.77713	5.02
3.79380	5.02
3.81047	5.02
3.82713	5.02
3.84380	5.02
3.86047	5.02
3.87713	5.02
3.89380	5.02
3.91047	5.02
3.92713	5.02
3.94380	5.02
3.96047	5.02
3.97713	5.02
3.99380	5.02

[Status Trace (Linear Velocity)]
Interval(msec)	1000
# of Points	240
Start Time(min)	0.010
End Time(min)	3.994
Intensity Units	
Intensity Multiplier	1
R.Time (min)	Intensity
0.01047	39.00
0.02713	37.08
0.04380	38.66
0.06047	39.97
0.07713	39.74
0.09380	39.01
0.11047	38.99
0.12713	39.01
0.14380	39.00
0.16047	39.00
0.17713	39.00
0.19380	39.00
0.21047	39.00
0.22713	39.00
0.24380	39.00
0.26047	39.00
0.27713	39.00
0.29380	39.00
0.31047	39.00
0.32713	39.00
0.34380	39.00
0.36047	39.00
0.37713	39.00
0.39380	39.01
0.41047	39.01
0.42713	39.01
0.44380	39.00
0.46047	39.00
0.47713	39.00
0.49380	39.00
0.51047	39.00
0.52713	39.00
0.54380	39.00
0.56047	39.00
0.57713	39.00
0.59380	39.00
0.61047	39.00
0.62713	39.00
0.64380	39.00
0.66047	39.00
0.67713	39.00
0.69380	39.00
0.71047	39.00
0.72713	39.00
0.74380	39.00
0.76047	39.00
0.77713	39.00
0.79380	39.00
0.81047	39.00
0.82713	39.00
0.84380	39.01
0.86047	39.00
0.87713	39.00
0.89380	39.00
0.91047	39.00
0.92713	39.00
0.94380	39.00
0.96047	39.00
0.97713	39.00
0.99380	39.00
1.01047	39.00
1.02713	39.00
1.04380	39.00
1.06047	39.00
1.07713	39.00
1.09380	39.00
1.11047	39.00
1.12713	39.00
1.14380	39.00
1.16047	39.00
1.17713	39.00
1.19380	39.00
1.21047	39.00
1.22713	39.00
1.24380	39.00
1.26047	39.00
1.27713	39.00
1.29380	39.00
1.31047	39.00
1.32713	39.00
1.34380	39.00
1.36047	39.00
1.37713	39.00
1.39380	39.00
1.41047	39.00
1.42713	39.00
1.44380	39.00
1.46047	39.01
1.47713	39.00
1.49380	39.01
1.51047	39.01
1.52713	39.00
1.54380	39.00
1.56047	39.00
1.57713	39.00
1.59380	39.00
1.61047	39.00
1.62713	38.99
1.64380	38.97
1.66047	38.94
1.67713	38.91
1.69380	38.87
1.71047	38.84
1.72713	38.81
1.74380	38.77
1.76047	38.74
1.77713	38.71
1.79380	38.68
1.81047	38.65
1.82713	38.62
1.84380	38.58
1.86047	38.56
1.87713	38.53
1.89380	38.49
1.91047	38.46
1.92713	38.43
1.94380	38.40
1.96047	38.37
1.97713	38.34
1.99380	38.31
2.01047	38.28
2.02713	38.25
2.04380	38.22
2.06047	38.19
2.07713	38.16
2.09380	38.13
2.11047	38.10
2.12713	38.07
2.14380	38.04
2.16047	38.01
2.17713	37.99
2.19380	37.95
2.21047	37.92
2.22713	37.90
2.24380	37.86
2.26047	37.84
2.27713	37.81
2.29380	37.77
2.31047	37.75
2.32713	37.72
2.34380	37.69
2.36047	37.66
2.37713	37.65
2.39380	37.64
2.41047	37.65
2.42713	37.65
2.44380	37.65
2.46047	37.64
2.47713	37.64
2.49380	37.64
2.51047	37.64
2.52713	37.63
2.54380	37.64
2.56047	37.64
2.57713	37.63
2.59380	37.63
2.61047	37.63
2.62713	37.63
2.64380	37.63
2.66047	37.63
2.67713	37.63
2.69380	37.63
2.71047	37.63
2.72713	37.63
2.74380	37.63
2.76047	37.63
2.77713	37.63
2.79380	37.63
2.81047	37.63
2.82713	37.62
2.84380	37.63
2.86047	37.62
2.87713	37.62
2.89380	37.62
2.91047	37.62
2.92713	37.62
2.94380	37.62
2.96047	37.62
2.97713	37.62
2.99380	37.62
3.01047	37.62
3.02713	37.62
3.04380	37.62
3.06047	37.62
3.07713	37.62
3.09380	37.62
3.11047	37.61
3.12713	37.61
3.14380	37.61
3.16047	37.61
3.17713	37.61
3.19380	37.61
3.21047	37.61
3.22713	37.61
3.24380	37.61
3.26047	37.61
3.27713	37.61
3.29380	37.61
3.31047	37.61
3.32713	37.61
3.34380	37.61
3.36047	37.61
3.37713	37.61
3.39380	37.61
3.41047	37.61
3.42713	37.61
3.44380	37.61
3.46047	37.61
3.47713	37.61
3.49380	37.61
3.51047	37.61
3.52713	37.61
3.54380	37.61
3.56047	37.61
3.57713	37.61
3.59380	37.61
3.61047	37.61
3.62713	37.61
3.64380	37.61
3.66047	37.61
3.67713	37.61
3.69380	37.61
3.71047	37.61
3.72713	37.61
3.74380	37.61
3.76047	37.61
3.77713	37.61
3.79380	37.61
3.81047	37.61
3.82713	37.61
3.84380	37.61
3.86047	37.61
3.87713	37.61
3.89380	37.61
3.91047	37.61
3.92713	37.61
3.94380	37.61
3.96047	37.61
3.97713	37.61
3.99380	37.61

