[Header]
Application Name	LabSolutions
Version	5.110
Data File Name	C:\Users\User\Desktop\GC Analyses\Jack\UIC Prairie Sampling\8.12.22\220812_022.gcd
Output Date	10/14/2022
Output Time	2:33:51 PM

[File Information]
Type	Data File
Generated	10/6/2022 3:13:08 PM
Generated by	System Administrator
Modified	10/6/2022 3:17:36 PM
Modified by	System Administrator

[Sample Information]
Operator Name	System Administrator
Acquired	10/6/2022 3:13:35 PM
Sample Type	1:Standard
Level	1
Sample Name	220812_UICPrairie
Sample ID	220812_UICPrairie
ISTD Amount1	1
ISTD Amount2	1
ISTD Amount3	1
ISTD Amount4	1
ISTD Amount5	1
ISTD Amount6	1
ISTD Amount7	1
ISTD Amount8	1
ISTD Amount9	1
ISTD Amount10	1
ISTD Amount11	1
ISTD Amount12	1
ISTD Amount13	1
ISTD Amount14	1
ISTD Amount15	1
ISTD Amount16	1
ISTD Amount17	1
ISTD Amount18	1
ISTD Amount19	1
ISTD Amount20	1
ISTD Amount21	1
ISTD Amount22	1
ISTD Amount23	1
ISTD Amount24	1
ISTD Amount25	1
ISTD Amount26	1
ISTD Amount27	1
ISTD Amount28	1
ISTD Amount29	1
ISTD Amount30	1
ISTD Amount31	1
ISTD Amount32	1
Sample Amount	1
Dilution Factor	1
Vial#	1
Injection Volume	1
Injection Count	1
Bar Code	

[Original Files]
Data File	C:\Users\User\Desktop\GC Analyses\Jack\UIC Prairie Sampling\8.12.22\220812_022.gcd
Method File	C:\LabSolutions\Data\GHG_4min_2022\ghg3_togas_w_acet_4 min_new_int.gcm
Batch File	
Report Format File	c:\LabSolutions\System\DEFAULT.lsr

[File Description]


[Configuration]
Instrument Name	C0B7VH3-Instrument1
Instrument #	1
Line #	1
# of Detectors	3
Detector ID	DET#1	DET#2	DET#3
Detector Name	FID	PTCD	ECD
# of Channels	1	1	1

[Peak Table(Ch1)]
# of Peaks	3
Peak#	R.Time	I.Time	F.Time	Area	Height	A/H	Conc.	Mark	ID#	Name	k'	Plate #	Plate Ht.	Tailing	Resolution	Sep.Factor	Area Ratio	Height Ratio	Conc. %	Norm Conc.
1	1.472	1.432	1.534	4578	1650	2.775	100.000	   	1	CO	0.000	5901	25.420	1.464	0.000	0.000	0	0	16.667	16.667
2	1.571	1.534	1.637	20135	10238	1.967	100.000	 V 	2	CH4	0.067	11598	12.933	1.166	1.467	0.000	0	0	16.667	16.667
3	2.000	1.941	2.367	2121642	1030946	2.058	400.000	   	3	CO2	0.359	17798	8.428	1.168	7.252	5.333	0	0	66.667	66.667

[Peak Table(Ch2)]
# of Peaks	0

[Peak Table(Ch3)]
# of Peaks	3
Peak#	R.Time	I.Time	F.Time	Area	Height	A/H	Conc.	Mark	ID#	Name	k'	Plate #	Plate Ht.	Tailing	Resolution	Sep.Factor	Area Ratio	Height Ratio	Conc. %	Norm Conc.
1	2.458	1.047	2.645	20434	507	40.330	0.000	   			0.000	115	1307.252	0.570	0.000	0.000	0	0	0.000	0.000
2	2.785	2.660	2.807	1034	178	5.805	0.010	   	1	N2O	0.133	4771	31.442	0.000	0.605	0.000	0	0	1.045	1.045
3	2.880	2.807	3.995	97915	16563	5.912	0.990	 V 	1	N2O	0.172	11301	13.273	3.690	0.707	1.292	0	0	98.955	98.955

[Compound Results(Ch1)]
# of IDs	6
ID#	Name	R.Time	Area	Height	Conc.	Curve	3rd	2nd	1st	Constant	Area Ratio	Height Ratio	Conc. %	Norm Conc.
1	CO	1.472	4578	1650	100.000	Linear	0.000000e+00	0.000000e+00	4.577544e+001	0.000000e+00	0	0	16.667	16.667
2	CH4	1.571	20135	10238	100.000	Linear	0.000000e+00	0.000000e+00	2.013539e+002	0.000000e+00	0	0	16.667	16.667
3	CO2	2.000	2121642	1030946	400.000	Linear	0.000000e+00	0.000000e+00	5.304106e+003	0.000000e+00	0	0	66.667	66.667
4	Ethylene	0.000	0	0	0.000	Linear	0.000000e+00	0.000000e+00	0.000000e+00	0.000000e+00	0	0	0.000	0.000
5	Acetylene	0.000	0	0	0.000	Linear	0.000000e+00	0.000000e+00	0.000000e+00	0.000000e+00	0	0	0.000	0.000
6	Ethane	0.000	0	0	0.000	Linear	0.000000e+00	0.000000e+00	0.000000e+00	0.000000e+00	0	0	0.000	0.000

[Compound Results(Ch2)]
# of IDs	5
ID#	Name	R.Time	Area	Height	Conc.	Curve	3rd	2nd	1st	Constant	Area Ratio	Height Ratio	Conc. %	Norm Conc.
1	Hydrogen	0.000	0	0	0.000	Linear	0.000000e+00	0.000000e+00	0.000000e+00	0.000000e+00	0	0	0.000	0.000
2	Oxygen	0.000	0	0	0.000	Linear	0.000000e+00	0.000000e+00	0.000000e+00	0.000000e+00	0	0	0.000	0.000
3	Nitrogen	0.000	0	0	0.000	Linear	0.000000e+00	0.000000e+00	0.000000e+00	0.000000e+00	0	0	0.000	0.000
4	Methane	0.000	0	0	0.000	Linear	0.000000e+00	0.000000e+00	0.000000e+00	0.000000e+00	0	0	0.000	0.000
5	Carbon Monoxide	0.000	0	0	0.000	Linear	0.000000e+00	0.000000e+00	0.000000e+00	0.000000e+00	0	0	0.000	0.000

[Compound Results(Ch3)]
# of IDs	2
ID#	Name	R.Time	Area	Height	Conc.	Curve	3rd	2nd	1st	Constant	Area Ratio	Height Ratio	Conc. %	Norm Conc.
1	N2O	2.880	98949	16741	1.000	Linear	0.000000e+00	0.000000e+00	9.894933e+004	0.000000e+00	0	0	100.000	100.000
2	SF6	0.000	0	0	0.000	Linear	0.000000e+00	0.000000e+00	0.000000e+00	0.000000e+00	0	0	0.000	0.000

[Group Results(Ch1)]
# of Groups	0

[Group Results(Ch2)]
# of Groups	0

[Group Results(Ch3)]
# of Groups	0

[Chromatogram (Ch1)]
Interval(msec)	220
# of Points	1091
Start Time(min)	0.002
End Time(min)	3.998
R.Time (min)	Intensity
0.00167	32
0.00533	50
0.00900	67
0.01267	68
0.01633	57
0.02000	48
0.02367	47
0.02733	48
0.03100	49
0.03467	45
0.03833	38
0.04200	27
0.04567	17
0.04933	11
0.05300	10
0.05667	10
0.06033	5
0.06400	-8
0.06767	-30
0.07133	-54
0.07500	-73
0.07867	-80
0.08233	-76
0.08600	-61
0.08967	-47
0.09333	-42
0.09700	-44
0.10067	-47
0.10433	-48
0.10800	-50
0.11167	-55
0.11533	-60
0.11900	-63
0.12267	-58
0.12633	-49
0.13000	-40
0.13367	-35
0.13733	-31
0.14100	-29
0.14467	-32
0.14833	-35
0.15200	-37
0.15567	-41
0.15933	-45
0.16300	-46
0.16667	-42
0.17033	-34
0.17400	-24
0.17767	-18
0.18133	-15
0.18500	-16
0.18867	-22
0.19233	-27
0.19600	-31
0.19967	-37
0.20333	-46
0.20700	-52
0.21067	-50
0.21433	-42
0.21800	-33
0.22167	-25
0.22533	-19
0.22900	-15
0.23267	-12
0.23633	-15
0.24000	-19
0.24367	-19
0.24733	-18
0.25100	-20
0.25467	-24
0.25833	-30
0.26200	-35
0.26567	-36
0.26933	-28
0.27300	-19
0.27667	-20
0.28033	-28
0.28400	-34
0.28767	-37
0.29133	-36
0.29500	-34
0.29867	-31
0.30233	-33
0.30600	-36
0.30967	-35
0.31333	-34
0.31700	-28
0.32067	-27
0.32433	-33
0.32800	-42
0.33167	-46
0.33533	-48
0.33900	-48
0.34267	-44
0.34633	-41
0.35000	-39
0.35367	-39
0.35733	-40
0.36100	-44
0.36467	-48
0.36833	-42
0.37200	-31
0.37567	-24
0.37933	-22
0.38300	-20
0.38667	-24
0.39033	-28
0.39400	-32
0.39767	-36
0.40133	-35
0.40500	-27
0.40867	-18
0.41233	-15
0.41600	-19
0.41967	-29
0.42333	-38
0.42700	-46
0.43067	-54
0.43433	-60
0.43800	-66
0.44167	-69
0.44533	-66
0.44900	-62
0.45267	-55
0.45633	-51
0.46000	-53
0.46367	-52
0.46733	-43
0.47100	-34
0.47467	-29
0.47833	-27
0.48200	-24
0.48567	-22
0.48933	-27
0.49300	-40
0.49667	-55
0.50033	-63
0.50400	-64
0.50767	-60
0.51133	-57
0.51500	-57
0.51867	-58
0.52233	-57
0.52600	-57
0.52967	-61
0.53333	-68
0.53700	-71
0.54067	-69
0.54433	-65
0.54800	-60
0.55167	-59
0.55533	-59
0.55900	-63
0.56267	-63
0.56633	-61
0.57000	-60
0.57367	-61
0.57733	-62
0.58100	-59
0.58467	-58
0.58833	-55
0.59200	-47
0.59567	-40
0.59933	-35
0.60300	-40
0.60667	-47
0.61033	-52
0.61400	-54
0.61767	-53
0.62133	-51
0.62500	-47
0.62867	-40
0.63233	-34
0.63600	-37
0.63967	-42
0.64333	-46
0.64700	-53
0.65067	-56
0.65433	-59
0.65800	-60
0.66167	-55
0.66533	-52
0.66900	-55
0.67267	-62
0.67633	-63
0.68000	-58
0.68367	-49
0.68733	-46
0.69100	-51
0.69467	-56
0.69833	-57
0.70200	-50
0.70567	-40
0.70933	-40
0.71300	-46
0.71667	-58
0.72033	-66
0.72400	-72
0.72767	-72
0.73133	-64
0.73500	-60
0.73867	-58
0.74233	-57
0.74600	-54
0.74967	-51
0.75333	-51
0.75700	-53
0.76067	-59
0.76433	-67
0.76800	-74
0.77167	-76
0.77533	-76
0.77900	-78
0.78267	-80
0.78633	-79
0.79000	-76
0.79367	-73
0.79733	-68
0.80100	-64
0.80467	-63
0.80833	-65
0.81200	-71
0.81567	-77
0.81933	-83
0.82300	-86
0.82667	-87
0.83033	-84
0.83400	-81
0.83767	-80
0.84133	-82
0.84500	-86
0.84867	-86
0.85233	-82
0.85600	-74
0.85967	-69
0.86333	-68
0.86700	-69
0.87067	-69
0.87433	-71
0.87800	-72
0.88167	-73
0.88533	-74
0.88900	-74
0.89267	-72
0.89633	-70
0.90000	-67
0.90367	-65
0.90733	-63
0.91100	-62
0.91467	-65
0.91833	-68
0.92200	-66
0.92567	-60
0.92933	-54
0.93300	-52
0.93667	-55
0.94033	-58
0.94400	-62
0.94767	-65
0.95133	-67
0.95500	-68
0.95867	-70
0.96233	-73
0.96600	-78
0.96967	-83
0.97333	-86
0.97700	-89
0.98067	-90
0.98433	-92
0.98800	-92
0.99167	-92
0.99533	-90
0.99900	-89
1.00267	-88
1.00633	-85
1.01000	-78
1.01367	-78
1.01733	-74
1.02100	-77
1.02467	-80
1.02833	-79
1.03200	-74
1.03567	-69
1.03933	-67
1.04300	-67
1.04667	-71
1.05033	-77
1.05400	-85
1.05767	-87
1.06133	-88
1.06500	-85
1.06867	-79
1.07233	-73
1.07600	-71
1.07967	-71
1.08333	-74
1.08700	-81
1.09067	-88
1.09433	-94
1.09800	-95
1.10167	-96
1.10533	-95
1.10900	-96
1.11267	-95
1.11633	-95
1.12000	-98
1.12367	-100
1.12733	-99
1.13100	-96
1.13467	-92
1.13833	-89
1.14200	-90
1.14567	-95
1.14933	-99
1.15300	-101
1.15667	-102
1.16033	-101
1.16400	-96
1.16767	-85
1.17133	-80
1.17500	-78
1.17867	-75
1.18233	-77
1.18600	-84
1.18967	-87
1.19333	-89
1.19700	-94
1.20067	-102
1.20433	-105
1.20800	-100
1.21167	-96
1.21533	-96
1.21900	-97
1.22267	-92
1.22633	-85
1.23000	-80
1.23367	-79
1.23733	-83
1.24100	-93
1.24467	-105
1.24833	-115
1.25200	-118
1.25567	-114
1.25933	-106
1.26300	-102
1.26667	-102
1.27033	-108
1.27400	-113
1.27767	-116
1.28133	-118
1.28500	-116
1.28867	-109
1.29233	-107
1.29600	-103
1.29967	-99
1.30333	-96
1.30700	-98
1.31067	-102
1.31433	-108
1.31800	-111
1.32167	-115
1.32533	-119
1.32900	-117
1.33267	-108
1.33633	-101
1.34000	-98
1.34367	-101
1.34733	-105
1.35100	-107
1.35467	-107
1.35833	-102
1.36200	-99
1.36567	-100
1.36933	-97
1.37300	-94
1.37667	-95
1.38033	-100
1.38400	-104
1.38767	-109
1.39133	-114
1.39500	-119
1.39867	-122
1.40233	-121
1.40600	-117
1.40967	-112
1.41333	-113
1.41700	-118
1.42067	-118
1.42433	-114
1.42800	-109
1.43167	-107
1.43533	-106
1.43900	-95
1.44267	-27
1.44633	177
1.45000	508
1.45367	858
1.45733	1149
1.46100	1353
1.46467	1469
1.46833	1526
1.47200	1541
1.47567	1513
1.47933	1441
1.48300	1333
1.48667	1188
1.49033	1019
1.49400	840
1.49767	669
1.50133	516
1.50500	387
1.50867	277
1.51233	183
1.51600	109
1.51967	54
1.52333	11
1.52700	-21
1.53067	-41
1.53433	-54
1.53800	-39
1.54167	121
1.54533	684
1.54900	1898
1.55267	3707
1.55633	5729
1.56000	7563
1.56367	8983
1.56733	9881
1.57100	10125
1.57467	9603
1.57833	8388
1.58200	6771
1.58567	5109
1.58933	3653
1.59300	2503
1.59667	1661
1.60033	1071
1.60400	668
1.60767	394
1.61133	208
1.61500	83
1.61867	-0
1.62233	-53
1.62600	-85
1.62967	-104
1.63333	-111
1.63700	-117
1.64067	-124
1.64433	-129
1.64800	-133
1.65167	-133
1.65533	-134
1.65900	-137
1.66267	-140
1.66633	-141
1.67000	-142
1.67367	-144
1.67733	-143
1.68100	-138
1.68467	-131
1.68833	-127
1.69200	-130
1.69567	-137
1.69933	-143
1.70300	-148
1.70667	-150
1.71033	-149
1.71400	-149
1.71767	-148
1.72133	-145
1.72500	-145
1.72867	-145
1.73233	-145
1.73600	-145
1.73967	-146
1.74333	-146
1.74700	-144
1.75067	-143
1.75433	-139
1.75800	-136
1.76167	-137
1.76533	-143
1.76900	-151
1.77267	-158
1.77633	-160
1.78000	-160
1.78367	-157
1.78733	-150
1.79100	-144
1.79467	-138
1.79833	-137
1.80200	-139
1.80567	-141
1.80933	-139
1.81300	-130
1.81667	-119
1.82033	-108
1.82400	-108
1.82767	-113
1.83133	-119
1.83500	-126
1.83867	-138
1.84233	-151
1.84600	-159
1.84967	-163
1.85333	-165
1.85700	-166
1.86067	-163
1.86433	-160
1.86800	-159
1.87167	-160
1.87533	-160
1.87900	-158
1.88267	-152
1.88633	-146
1.89000	-143
1.89367	-142
1.89733	-140
1.90100	-139
1.90467	-138
1.90833	-136
1.91200	-134
1.91567	-133
1.91933	-135
1.92300	-140
1.92667	-143
1.93033	-141
1.93400	-135
1.93767	-132
1.94133	-129
1.94500	-121
1.94867	-114
1.95233	-101
1.95600	-22
1.95967	486
1.96333	3098
1.96700	13324
1.97067	43795
1.97433	113780
1.97800	238442
1.98167	413641
1.98533	612845
1.98900	800484
1.99267	945007
1.99633	1024957
2.00000	1030841
2.00367	965738
2.00733	845412
2.01100	694581
2.01467	539238
2.01833	399263
2.02200	284923
2.02567	198025
2.02933	135341
2.03300	91752
2.03667	62172
2.04033	42399
2.04400	29278
2.04767	20581
2.05133	14793
2.05500	10905
2.05867	8257
2.06233	6421
2.06600	5122
2.06967	4182
2.07333	3482
2.07700	2953
2.08067	2537
2.08433	2205
2.08800	1937
2.09167	1722
2.09533	1546
2.09900	1397
2.10267	1266
2.10633	1154
2.11000	1059
2.11367	979
2.11733	911
2.12100	852
2.12467	797
2.12833	747
2.13200	701
2.13567	662
2.13933	621
2.14300	585
2.14667	553
2.15033	523
2.15400	494
2.15767	465
2.16133	438
2.16500	415
2.16867	395
2.17233	378
2.17600	362
2.17967	348
2.18333	337
2.18700	327
2.19067	318
2.19433	308
2.19800	298
2.20167	288
2.20533	279
2.20900	274
2.21267	271
2.21633	263
2.22000	256
2.22367	243
2.22733	226
2.23100	210
2.23467	194
2.23833	181
2.24200	170
2.24567	164
2.24933	159
2.25300	156
2.25667	152
2.26033	150
2.26400	148
2.26767	146
2.27133	142
2.27500	138
2.27867	137
2.28233	134
2.28600	127
2.28967	122
2.29333	123
2.29700	123
2.30067	120
2.30433	108
2.30800	98
2.31167	91
2.31533	89
2.31900	88
2.32267	86
2.32633	88
2.33000	90
2.33367	89
2.33733	85
2.34100	79
2.34467	71
2.34833	67
2.35200	66
2.35567	64
2.35933	62
2.36300	58
2.36667	50
2.37033	43
2.37400	40
2.37767	40
2.38133	42
2.38500	43
2.38867	41
2.39233	40
2.39600	40
2.39967	43
2.40333	43
2.40700	41
2.41067	37
2.41433	34
2.41800	32
2.42167	29
2.42533	28
2.42900	28
2.43267	31
2.43633	35
2.44000	43
2.44367	47
2.44733	43
2.45100	42
2.45467	45
2.45833	49
2.46200	48
2.46567	44
2.46933	40
2.47300	37
2.47667	34
2.48033	28
2.48400	23
2.48767	15
2.49133	2
2.49500	-6
2.49867	-11
2.50233	-11
2.50600	-10
2.50967	-11
2.51333	-14
2.51700	-14
2.52067	-11
2.52433	-9
2.52800	-7
2.53167	-6
2.53533	-6
2.53900	-6
2.54267	-7
2.54633	-8
2.55000	-7
2.55367	-3
2.55733	1
2.56100	3
2.56467	5
2.56833	3
2.57200	-1
2.57567	-7
2.57933	-10
2.58300	-9
2.58667	-6
2.59033	-8
2.59400	-11
2.59767	-14
2.60133	-17
2.60500	-22
2.60867	-23
2.61233	-21
2.61600	-17
2.61967	-16
2.62333	-19
2.62700	-24
2.63067	-27
2.63433	-28
2.63800	-26
2.64167	-18
2.64533	-11
2.64900	-8
2.65267	-7
2.65633	-7
2.66000	-11
2.66367	-17
2.66733	-25
2.67100	-35
2.67467	-39
2.67833	-37
2.68200	-33
2.68567	-31
2.68933	-31
2.69300	-28
2.69667	-24
2.70033	-19
2.70400	-15
2.70767	-15
2.71133	-20
2.71500	-28
2.71867	-32
2.72233	-34
2.72600	-34
2.72967	-37
2.73333	-42
2.73700	-45
2.74067	-45
2.74433	-43
2.74800	-41
2.75167	-41
2.75533	-41
2.75900	-38
2.76267	-35
2.76633	-37
2.77000	-40
2.77367	-39
2.77733	-38
2.78100	-35
2.78467	-28
2.78833	-22
2.79200	-23
2.79567	-27
2.79933	-30
2.80300	-29
2.80667	-28
2.81033	-30
2.81400	-35
2.81767	-39
2.82133	-43
2.82500	-47
2.82867	-53
2.83233	-57
2.83600	-58
2.83967	-55
2.84333	-52
2.84700	-47
2.85067	-38
2.85433	-26
2.85800	-19
2.86167	-21
2.86533	-30
2.86900	-39
2.87267	-47
2.87633	-52
2.88000	-53
2.88367	-51
2.88733	-51
2.89100	-52
2.89467	-54
2.89833	-57
2.90200	-54
2.90567	-53
2.90933	-54
2.91300	-56
2.91667	-57
2.92033	-56
2.92400	-52
2.92767	-46
2.93133	-46
2.93500	-48
2.93867	-49
2.94233	-48
2.94600	-49
2.94967	-49
2.95333	-48
2.95700	-51
2.96067	-53
2.96433	-52
2.96800	-50
2.97167	-47
2.97533	-46
2.97900	-50
2.98267	-58
2.98633	-60
2.99000	-56
2.99367	-47
2.99733	-46
3.00100	-50
3.00467	-57
3.00833	-62
3.01200	-62
3.01567	-63
3.01933	-64
3.02300	-65
3.02667	-66
3.03033	-65
3.03400	-63
3.03767	-63
3.04133	-68
3.04500	-66
3.04867	-64
3.05233	-60
3.05600	-57
3.05967	-53
3.06333	-52
3.06700	-55
3.07067	-59
3.07433	-59
3.07800	-59
3.08167	-58
3.08533	-56
3.08900	-54
3.09267	-55
3.09633	-56
3.10000	-58
3.10367	-59
3.10733	-63
3.11100	-68
3.11467	-71
3.11833	-69
3.12200	-67
3.12567	-68
3.12933	-72
3.13300	-74
3.13667	-72
3.14033	-72
3.14400	-71
3.14767	-66
3.15133	-60
3.15500	-56
3.15867	-55
3.16233	-60
3.16600	-68
3.16967	-72
3.17333	-73
3.17700	-75
3.18067	-78
3.18433	-81
3.18800	-79
3.19167	-75
3.19533	-74
3.19900	-73
3.20267	-73
3.20633	-77
3.21000	-82
3.21367	-85
3.21733	-85
3.22100	-83
3.22467	-80
3.22833	-82
3.23200	-82
3.23567	-77
3.23933	-73
3.24300	-67
3.24667	-63
3.25033	-64
3.25400	-60
3.25767	-56
3.26133	-56
3.26500	-59
3.26867	-63
3.27233	-68
3.27600	-70
3.27967	-69
3.28333	-70
3.28700	-71
3.29067	-71
3.29433	-71
3.29800	-77
3.30167	-77
3.30533	-77
3.30900	-76
3.31267	-74
3.31633	-73
3.32000	-75
3.32367	-76
3.32733	-73
3.33100	-69
3.33467	-70
3.33833	-77
3.34200	-82
3.34567	-76
3.34933	-69
3.35300	-61
3.35667	-56
3.36033	-54
3.36400	-56
3.36767	-61
3.37133	-68
3.37500	-75
3.37867	-84
3.38233	-88
3.38600	-91
3.38967	-92
3.39333	-87
3.39700	-78
3.40067	-70
3.40433	-64
3.40800	-60
3.41167	-58
3.41533	-59
3.41900	-64
3.42267	-71
3.42633	-77
3.43000	-82
3.43367	-84
3.43733	-82
3.44100	-81
3.44467	-82
3.44833	-82
3.45200	-85
3.45567	-86
3.45933	-83
3.46300	-77
3.46667	-72
3.47033	-65
3.47400	-59
3.47767	-59
3.48133	-62
3.48500	-62
3.48867	-65
3.49233	-69
3.49600	-77
3.49967	-84
3.50333	-89
3.50700	-94
3.51067	-98
3.51433	-99
3.51800	-98
3.52167	-98
3.52533	-99
3.52900	-97
3.53267	-95
3.53633	-92
3.54000	-90
3.54367	-88
3.54733	-85
3.55100	-83
3.55467	-82
3.55833	-83
3.56200	-84
3.56567	-85
3.56933	-84
3.57300	-82
3.57667	-81
3.58033	-81
3.58400	-83
3.58767	-84
3.59133	-84
3.59500	-85
3.59867	-87
3.60233	-88
3.60600	-89
3.60967	-89
3.61333	-91
3.61700	-93
3.62067	-93
3.62433	-93
3.62800	-92
3.63167	-90
3.63533	-87
3.63900	-84
3.64267	-84
3.64633	-82
3.65000	-77
3.65367	-70
3.65733	-67
3.66100	-67
3.66467	-71
3.66833	-76
3.67200	-81
3.67567	-87
3.67933	-92
3.68300	-94
3.68667	-90
3.69033	-84
3.69400	-80
3.69767	-80
3.70133	-81
3.70500	-86
3.70867	-92
3.71233	-99
3.71600	-103
3.71967	-101
3.72333	-98
3.72700	-95
3.73067	-93
3.73433	-91
3.73800	-91
3.74167	-95
3.74533	-102
3.74900	-106
3.75267	-105
3.75633	-103
3.76000	-96
3.76367	-88
3.76733	-84
3.77100	-80
3.77467	-75
3.77833	-74
3.78200	-74
3.78567	-68
3.78933	-66
3.79300	-70
3.79667	-72
3.80033	-71
3.80400	-71
3.80767	-72
3.81133	-72
3.81500	-74
3.81867	-75
3.82233	-77
3.82600	-80
3.82967	-85
3.83333	-90
3.83700	-94
3.84067	-95
3.84433	-98
3.84800	-97
3.85167	-95
3.85533	-93
3.85900	-91
3.86267	-84
3.86633	-78
3.87000	-74
3.87367	-73
3.87733	-70
3.88100	-65
3.88467	-61
3.88833	-62
3.89200	-68
3.89567	-74
3.89933	-80
3.90300	-87
3.90667	-90
3.91033	-79
3.91400	-71
3.91767	-64
3.92133	-64
3.92500	-65
3.92867	-69
3.93233	-74
3.93600	-82
3.93967	-83
3.94333	-81
3.94700	-80
3.95067	-86
3.95433	-97
3.95800	-98
3.96167	-100
3.96533	-100
3.96900	-92
3.97267	-88
3.97633	-88
3.98000	-80
3.98367	-73
3.98733	-76
3.99100	-83
3.99467	-88
3.99833	-89

[Chromatogram (Ch2)]
Interval(msec)	220
# of Points	1091
Start Time(min)	0.002
End Time(min)	3.998
R.Time (min)	Intensity
0.00167	0
0.00533	1
0.00900	1
0.01267	1
0.01633	1
0.02000	1
0.02367	1
0.02733	1
0.03100	1
0.03467	1
0.03833	1
0.04200	0
0.04567	0
0.04933	0
0.05300	0
0.05667	-0
0.06033	0
0.06400	0
0.06767	0
0.07133	0
0.07500	0
0.07867	0
0.08233	0
0.08600	-0
0.08967	-0
0.09333	-0
0.09700	-0
0.10067	-0
0.10433	-0
0.10800	-0
0.11167	-0
0.11533	-0
0.11900	-0
0.12267	-0
0.12633	-0
0.13000	-0
0.13367	-0
0.13733	-1
0.14100	-1
0.14467	-1
0.14833	-1
0.15200	-1
0.15567	-1
0.15933	-1
0.16300	-1
0.16667	-2
0.17033	-2
0.17400	-2
0.17767	-2
0.18133	-3
0.18500	-3
0.18867	-3
0.19233	-4
0.19600	-4
0.19967	-4
0.20333	-4
0.20700	-5
0.21067	-5
0.21433	-6
0.21800	-6
0.22167	-7
0.22533	-7
0.22900	-7
0.23267	-7
0.23633	-7
0.24000	-7
0.24367	-6
0.24733	-6
0.25100	-6
0.25467	-5
0.25833	-5
0.26200	-4
0.26567	-4
0.26933	-4
0.27300	-4
0.27667	-4
0.28033	-3
0.28400	-3
0.28767	-3
0.29133	-3
0.29500	-3
0.29867	-3
0.30233	-3
0.30600	-3
0.30967	-3
0.31333	-3
0.31700	-3
0.32067	-3
0.32433	-3
0.32800	-3
0.33167	-3
0.33533	-3
0.33900	-3
0.34267	-4
0.34633	-4
0.35000	-5
0.35367	-5
0.35733	-5
0.36100	-6
0.36467	-6
0.36833	-6
0.37200	-6
0.37567	-6
0.37933	-6
0.38300	-6
0.38667	-5
0.39033	-5
0.39400	-5
0.39767	-5
0.40133	-5
0.40500	-6
0.40867	-6
0.41233	-5
0.41600	-5
0.41967	-5
0.42333	-5
0.42700	-5
0.43067	-4
0.43433	-4
0.43800	-4
0.44167	-3
0.44533	-3
0.44900	-3
0.45267	-3
0.45633	-3
0.46000	-3
0.46367	-2
0.46733	-2
0.47100	-2
0.47467	-2
0.47833	-2
0.48200	-2
0.48567	-1
0.48933	-1
0.49300	-1
0.49667	-1
0.50033	-1
0.50400	-1
0.50767	-2
0.51133	-2
0.51500	-2
0.51867	-2
0.52233	-2
0.52600	-2
0.52967	-3
0.53333	-3
0.53700	-3
0.54067	-3
0.54433	-3
0.54800	-4
0.55167	-4
0.55533	-4
0.55900	-5
0.56267	-5
0.56633	-5
0.57000	-5
0.57367	-4
0.57733	-4
0.58100	-4
0.58467	-5
0.58833	-5
0.59200	-5
0.59567	-5
0.59933	-5
0.60300	-5
0.60667	-5
0.61033	-5
0.61400	-5
0.61767	-4
0.62133	-4
0.62500	-4
0.62867	-4
0.63233	-3
0.63600	-3
0.63967	-3
0.64333	-3
0.64700	-3
0.65067	-3
0.65433	-2
0.65800	-2
0.66167	-2
0.66533	-1
0.66900	-1
0.67267	-1
0.67633	-1
0.68000	-2
0.68367	-2
0.68733	-2
0.69100	-2
0.69467	-2
0.69833	-2
0.70200	-2
0.70567	-3
0.70933	-3
0.71300	-3
0.71667	-3
0.72033	-3
0.72400	-3
0.72767	-3
0.73133	-3
0.73500	-3
0.73867	-3
0.74233	-3
0.74600	-2
0.74967	-2
0.75333	-2
0.75700	-1
0.76067	-1
0.76433	-1
0.76800	-0
0.77167	-0
0.77533	-0
0.77900	-1
0.78267	-1
0.78633	-2
0.79000	-2
0.79367	-3
0.79733	-3
0.80100	-4
0.80467	-5
0.80833	-5
0.81200	-5
0.81567	-6
0.81933	-6
0.82300	-5
0.82667	-5
0.83033	-4
0.83400	-4
0.83767	-3
0.84133	-3
0.84500	-3
0.84867	-3
0.85233	-3
0.85600	-3
0.85967	-2
0.86333	-2
0.86700	-2
0.87067	-2
0.87433	-2
0.87800	-2
0.88167	-2
0.88533	-2
0.88900	-2
0.89267	-3
0.89633	-3
0.90000	-3
0.90367	-3
0.90733	-3
0.91100	-4
0.91467	-4
0.91833	-4
0.92200	-4
0.92567	-4
0.92933	-4
0.93300	-4
0.93667	-4
0.94033	-4
0.94400	-4
0.94767	-4
0.95133	-4
0.95500	-4
0.95867	-3
0.96233	-3
0.96600	-3
0.96967	-2
0.97333	-2
0.97700	-2
0.98067	-1
0.98433	-1
0.98800	-1
0.99167	-1
0.99533	-2
0.99900	-2
1.00267	-3
1.00633	-3
1.01000	-3
1.01367	-3
1.01733	-4
1.02100	-4
1.02467	-4
1.02833	-5
1.03200	-5
1.03567	-5
1.03933	-5
1.04300	-5
1.04667	-5
1.05033	-4
1.05400	-4
1.05767	-4
1.06133	-4
1.06500	-4
1.06867	-4
1.07233	-4
1.07600	-4
1.07967	-4
1.08333	-3
1.08700	-3
1.09067	-3
1.09433	-3
1.09800	-3
1.10167	-3
1.10533	-3
1.10900	-3
1.11267	-3
1.11633	-3
1.12000	-3
1.12367	-3
1.12733	-3
1.13100	-3
1.13467	-3
1.13833	-3
1.14200	-3
1.14567	-3
1.14933	-3
1.15300	-3
1.15667	-3
1.16033	-3
1.16400	-3
1.16767	-3
1.17133	-3
1.17500	-3
1.17867	-4
1.18233	-4
1.18600	-4
1.18967	-4
1.19333	-4
1.19700	-4
1.20067	-4
1.20433	-4
1.20800	-4
1.21167	-4
1.21533	-4
1.21900	-4
1.22267	-4
1.22633	-4
1.23000	-5
1.23367	-5
1.23733	-5
1.24100	-5
1.24467	-5
1.24833	-5
1.25200	-5
1.25567	-4
1.25933	-4
1.26300	-5
1.26667	-5
1.27033	-5
1.27400	-5
1.27767	-5
1.28133	-5
1.28500	-5
1.28867	-5
1.29233	-5
1.29600	-5
1.29967	-5
1.30333	-5
1.30700	-5
1.31067	-5
1.31433	-5
1.31800	-5
1.32167	-5
1.32533	-5
1.32900	-5
1.33267	-5
1.33633	-4
1.34000	-4
1.34367	-4
1.34733	-4
1.35100	-4
1.35467	-4
1.35833	-4
1.36200	-4
1.36567	-4
1.36933	-5
1.37300	-5
1.37667	-5
1.38033	-5
1.38400	-5
1.38767	-5
1.39133	-5
1.39500	-5
1.39867	-5
1.40233	-5
1.40600	-5
1.40967	-4
1.41333	-4
1.41700	-5
1.42067	-5
1.42433	-5
1.42800	-5
1.43167	-5
1.43533	-5
1.43900	-5
1.44267	-4
1.44633	-4
1.45000	-4
1.45367	-4
1.45733	-4
1.46100	-4
1.46467	-4
1.46833	-4
1.47200	-4
1.47567	-5
1.47933	-5
1.48300	-5
1.48667	-5
1.49033	-5
1.49400	-5
1.49767	-5
1.50133	-5
1.50500	-6
1.50867	-6
1.51233	-6
1.51600	-6
1.51967	-6
1.52333	-6
1.52700	-7
1.53067	-7
1.53433	-7
1.53800	-7
1.54167	-7
1.54533	-7
1.54900	-7
1.55267	-6
1.55633	-6
1.56000	-6
1.56367	-6
1.56733	-6
1.57100	-6
1.57467	-6
1.57833	-6
1.58200	-6
1.58567	-6
1.58933	-6
1.59300	-6
1.59667	-7
1.60033	-7
1.60400	-8
1.60767	-10
1.61133	-11
1.61500	-13
1.61867	-15
1.62233	-18
1.62600	-21
1.62967	-24
1.63333	-27
1.63700	-31
1.64067	-34
1.64433	-38
1.64800	-42
1.65167	-46
1.65533	-50
1.65900	-54
1.66267	-58
1.66633	-62
1.67000	-66
1.67367	-71
1.67733	-75
1.68100	-80
1.68467	-85
1.68833	-89
1.69200	-93
1.69567	-97
1.69933	-100
1.70300	-102
1.70667	-104
1.71033	-106
1.71400	-108
1.71767	-109
1.72133	-110
1.72500	-111
1.72867	-112
1.73233	-113
1.73600	-114
1.73967	-115
1.74333	-115
1.74700	-116
1.75067	-116
1.75433	-116
1.75800	-116
1.76167	-116
1.76533	-116
1.76900	-116
1.77267	-117
1.77633	-117
1.78000	-118
1.78367	-119
1.78733	-120
1.79100	-121
1.79467	-121
1.79833	-122
1.80200	-122
1.80567	-123
1.80933	-123
1.81300	-123
1.81667	-123
1.82033	-123
1.82400	-123
1.82767	-123
1.83133	-124
1.83500	-123
1.83867	-123
1.84233	-123
1.84600	-123
1.84967	-123
1.85333	-123
1.85700	-123
1.86067	-123
1.86433	-124
1.86800	-124
1.87167	-124
1.87533	-124
1.87900	-124
1.88267	-124
1.88633	-124
1.89000	-124
1.89367	-124
1.89733	-124
1.90100	-123
1.90467	-123
1.90833	-122
1.91200	-122
1.91567	-121
1.91933	-121
1.92300	-121
1.92667	-122
1.93033	-122
1.93400	-122
1.93767	-122
1.94133	-122
1.94500	-122
1.94867	-122
1.95233	-122
1.95600	-122
1.95967	-121
1.96333	-121
1.96700	-120
1.97067	-120
1.97433	-119
1.97800	-118
1.98167	-118
1.98533	-117
1.98900	-117
1.99267	-117
1.99633	-117
2.00000	-117
2.00367	-117
2.00733	-117
2.01100	-117
2.01467	-116
2.01833	-115
2.02200	-115
2.02567	-114
2.02933	-114
2.03300	-114
2.03667	-113
2.04033	-113
2.04400	-113
2.04767	-112
2.05133	-112
2.05500	-112
2.05867	-112
2.06233	-112
2.06600	-112
2.06967	-111
2.07333	-111
2.07700	-111
2.08067	-111
2.08433	-110
2.08800	-110
2.09167	-110
2.09533	-110
2.09900	-109
2.10267	-109
2.10633	-109
2.11000	-109
2.11367	-109
2.11733	-109
2.12100	-108
2.12467	-108
2.12833	-107
2.13200	-106
2.13567	-106
2.13933	-105
2.14300	-104
2.14667	-104
2.15033	-103
2.15400	-103
2.15767	-103
2.16133	-103
2.16500	-103
2.16867	-103
2.17233	-103
2.17600	-103
2.17967	-102
2.18333	-102
2.18700	-101
2.19067	-101
2.19433	-101
2.19800	-101
2.20167	-101
2.20533	-101
2.20900	-101
2.21267	-100
2.21633	-100
2.22000	-99
2.22367	-98
2.22733	-98
2.23100	-98
2.23467	-97
2.23833	-97
2.24200	-96
2.24567	-96
2.24933	-95
2.25300	-95
2.25667	-95
2.26033	-95
2.26400	-95
2.26767	-95
2.27133	-95
2.27500	-94
2.27867	-94
2.28233	-94
2.28600	-94
2.28967	-93
2.29333	-93
2.29700	-93
2.30067	-93
2.30433	-93
2.30800	-93
2.31167	-93
2.31533	-93
2.31900	-92
2.32267	-92
2.32633	-92
2.33000	-91
2.33367	-91
2.33733	-90
2.34100	-90
2.34467	-90
2.34833	-89
2.35200	-89
2.35567	-88
2.35933	-87
2.36300	-86
2.36667	-86
2.37033	-85
2.37400	-83
2.37767	-81
2.38133	-79
2.38500	-75
2.38867	-72
2.39233	-68
2.39600	-63
2.39967	-59
2.40333	-54
2.40700	-49
2.41067	-44
2.41433	-39
2.41800	-35
2.42167	-32
2.42533	-29
2.42900	-26
2.43267	-23
2.43633	-21
2.44000	-19
2.44367	-17
2.44733	-14
2.45100	-12
2.45467	-10
2.45833	-8
2.46200	-6
2.46567	-5
2.46933	-3
2.47300	-1
2.47667	-0
2.48033	1
2.48400	2
2.48767	3
2.49133	4
2.49500	5
2.49867	5
2.50233	6
2.50600	6
2.50967	7
2.51333	8
2.51700	8
2.52067	9
2.52433	9
2.52800	9
2.53167	9
2.53533	9
2.53900	9
2.54267	9
2.54633	9
2.55000	10
2.55367	10
2.55733	10
2.56100	11
2.56467	11
2.56833	11
2.57200	12
2.57567	12
2.57933	12
2.58300	12
2.58667	13
2.59033	13
2.59400	14
2.59767	14
2.60133	15
2.60500	15
2.60867	16
2.61233	16
2.61600	17
2.61967	17
2.62333	18
2.62700	18
2.63067	18
2.63433	18
2.63800	18
2.64167	18
2.64533	17
2.64900	17
2.65267	17
2.65633	17
2.66000	18
2.66367	18
2.66733	18
2.67100	18
2.67467	18
2.67833	18
2.68200	17
2.68567	17
2.68933	17
2.69300	17
2.69667	17
2.70033	17
2.70400	17
2.70767	17
2.71133	18
2.71500	19
2.71867	19
2.72233	20
2.72600	21
2.72967	21
2.73333	22
2.73700	22
2.74067	23
2.74433	23
2.74800	23
2.75167	23
2.75533	23
2.75900	23
2.76267	22
2.76633	22
2.77000	21
2.77367	21
2.77733	21
2.78100	21
2.78467	21
2.78833	21
2.79200	21
2.79567	21
2.79933	21
2.80300	21
2.80667	21
2.81033	21
2.81400	22
2.81767	22
2.82133	22
2.82500	22
2.82867	22
2.83233	22
2.83600	22
2.83967	22
2.84333	21
2.84700	18
2.85067	14
2.85433	7
2.85800	-3
2.86167	-17
2.86533	-36
2.86900	-60
2.87267	-88
2.87633	-122
2.88000	-162
2.88367	-206
2.88733	-255
2.89100	-309
2.89467	-367
2.89833	-429
2.90200	-494
2.90567	-562
2.90933	-634
2.91300	-707
2.91667	-783
2.92033	-861
2.92400	-941
2.92767	-1023
2.93133	-1106
2.93500	-1191
2.93867	-1277
2.94233	-1364
2.94600	-1443
2.94967	-1504
2.95333	-1534
2.95700	-1529
2.96067	-1490
2.96433	-1422
2.96800	-1333
2.97167	-1231
2.97533	-1121
2.97900	-1011
2.98267	-902
2.98633	-799
2.99000	-703
2.99367	-615
2.99733	-535
3.00100	-464
3.00467	-400
3.00833	-344
3.01200	-296
3.01567	-253
3.01933	-217
3.02300	-185
3.02667	-158
3.03033	-134
3.03400	-114
3.03767	-97
3.04133	-82
3.04500	-69
3.04867	-58
3.05233	-49
3.05600	-41
3.05967	-35
3.06333	-29
3.06700	-24
3.07067	-20
3.07433	-16
3.07800	-13
3.08167	-10
3.08533	-8
3.08900	-6
3.09267	-4
3.09633	-3
3.10000	-1
3.10367	-0
3.10733	1
3.11100	2
3.11467	3
3.11833	4
3.12200	5
3.12567	6
3.12933	7
3.13300	8
3.13667	8
3.14033	9
3.14400	10
3.14767	10
3.15133	10
3.15500	11
3.15867	11
3.16233	11
3.16600	12
3.16967	12
3.17333	13
3.17700	13
3.18067	13
3.18433	14
3.18800	14
3.19167	15
3.19533	15
3.19900	15
3.20267	15
3.20633	16
3.21000	16
3.21367	16
3.21733	16
3.22100	16
3.22467	17
3.22833	16
3.23200	16
3.23567	17
3.23933	17
3.24300	17
3.24667	18
3.25033	18
3.25400	19
3.25767	19
3.26133	20
3.26500	20
3.26867	20
3.27233	21
3.27600	21
3.27967	21
3.28333	21
3.28700	22
3.29067	22
3.29433	22
3.29800	23
3.30167	23
3.30533	23
3.30900	23
3.31267	23
3.31633	23
3.32000	23
3.32367	23
3.32733	23
3.33100	23
3.33467	23
3.33833	22
3.34200	22
3.34567	23
3.34933	23
3.35300	23
3.35667	24
3.36033	24
3.36400	24
3.36767	24
3.37133	24
3.37500	24
3.37867	24
3.38233	24
3.38600	24
3.38967	24
3.39333	24
3.39700	24
3.40067	23
3.40433	23
3.40800	23
3.41167	23
3.41533	23
3.41900	23
3.42267	23
3.42633	23
3.43000	23
3.43367	23
3.43733	23
3.44100	23
3.44467	22
3.44833	23
3.45200	23
3.45567	23
3.45933	23
3.46300	23
3.46667	23
3.47033	23
3.47400	23
3.47767	23
3.48133	23
3.48500	23
3.48867	23
3.49233	23
3.49600	23
3.49967	23
3.50333	23
3.50700	23
3.51067	23
3.51433	24
3.51800	24
3.52167	24
3.52533	24
3.52900	24
3.53267	24
3.53633	24
3.54000	24
3.54367	23
3.54733	23
3.55100	23
3.55467	23
3.55833	23
3.56200	23
3.56567	23
3.56933	23
3.57300	23
3.57667	23
3.58033	23
3.58400	23
3.58767	23
3.59133	23
3.59500	23
3.59867	23
3.60233	24
3.60600	24
3.60967	24
3.61333	24
3.61700	24
3.62067	24
3.62433	24
3.62800	24
3.63167	24
3.63533	24
3.63900	24
3.64267	23
3.64633	23
3.65000	23
3.65367	22
3.65733	22
3.66100	22
3.66467	22
3.66833	22
3.67200	22
3.67567	22
3.67933	22
3.68300	22
3.68667	22
3.69033	22
3.69400	22
3.69767	22
3.70133	22
3.70500	22
3.70867	22
3.71233	22
3.71600	22
3.71967	22
3.72333	22
3.72700	23
3.73067	23
3.73433	23
3.73800	23
3.74167	24
3.74533	24
3.74900	24
3.75267	25
3.75633	25
3.76000	25
3.76367	25
3.76733	25
3.77100	25
3.77467	25
3.77833	25
3.78200	25
3.78567	25
3.78933	25
3.79300	25
3.79667	25
3.80033	25
3.80400	25
3.80767	25
3.81133	25
3.81500	25
3.81867	25
3.82233	25
3.82600	25
3.82967	25
3.83333	25
3.83700	25
3.84067	25
3.84433	25
3.84800	25
3.85167	25
3.85533	25
3.85900	25
3.86267	25
3.86633	25
3.87000	25
3.87367	25
3.87733	25
3.88100	25
3.88467	25
3.88833	25
3.89200	25
3.89567	25
3.89933	24
3.90300	24
3.90667	24
3.91033	24
3.91400	23
3.91767	23
3.92133	23
3.92500	23
3.92867	24
3.93233	24
3.93600	24
3.93967	24
3.94333	24
3.94700	24
3.95067	24
3.95433	24
3.95800	25
3.96167	25
3.96533	25
3.96900	25
3.97267	25
3.97633	25
3.98000	25
3.98367	25
3.98733	24
3.99100	24
3.99467	24
3.99833	24

[Chromatogram (Ch3)]
Interval(msec)	220
# of Points	1091
Start Time(min)	0.002
End Time(min)	3.998
R.Time (min)	Intensity
0.00167	-1
0.00533	-3
0.00900	-5
0.01267	-6
0.01633	-6
0.02000	-5
0.02367	-4
0.02733	-5
0.03100	-6
0.03467	-5
0.03833	-4
0.04200	-4
0.04567	-4
0.04933	-3
0.05300	-4
0.05667	-6
0.06033	-7
0.06400	-6
0.06767	-8
0.07133	-11
0.07500	-9
0.07867	-8
0.08233	-6
0.08600	-6
0.08967	-6
0.09333	-5
0.09700	-3
0.10067	-3
0.10433	-3
0.10800	-4
0.11167	-5
0.11533	-6
0.11900	-5
0.12267	-2
0.12633	1
0.13000	5
0.13367	5
0.13733	4
0.14100	5
0.14467	5
0.14833	6
0.15200	6
0.15567	6
0.15933	5
0.16300	5
0.16667	5
0.17033	7
0.17400	8
0.17767	9
0.18133	8
0.18500	7
0.18867	6
0.19233	5
0.19600	6
0.19967	7
0.20333	7
0.20700	7
0.21067	9
0.21433	10
0.21800	11
0.22167	13
0.22533	14
0.22900	13
0.23267	13
0.23633	11
0.24000	10
0.24367	9
0.24733	8
0.25100	5
0.25467	3
0.25833	2
0.26200	2
0.26567	3
0.26933	7
0.27300	7
0.27667	6
0.28033	4
0.28400	1
0.28767	2
0.29133	3
0.29500	4
0.29867	5
0.30233	7
0.30600	5
0.30967	6
0.31333	6
0.31700	5
0.32067	6
0.32433	6
0.32800	5
0.33167	4
0.33533	4
0.33900	5
0.34267	6
0.34633	6
0.35000	4
0.35367	2
0.35733	2
0.36100	2
0.36467	3
0.36833	5
0.37200	7
0.37567	6
0.37933	5
0.38300	5
0.38667	6
0.39033	7
0.39400	6
0.39767	4
0.40133	5
0.40500	6
0.40867	6
0.41233	7
0.41600	6
0.41967	6
0.42333	8
0.42700	9
0.43067	8
0.43433	7
0.43800	7
0.44167	7
0.44533	9
0.44900	9
0.45267	8
0.45633	6
0.46000	5
0.46367	4
0.46733	5
0.47100	8
0.47467	11
0.47833	12
0.48200	13
0.48567	13
0.48933	12
0.49300	12
0.49667	11
0.50033	11
0.50400	11
0.50767	11
0.51133	9
0.51500	8
0.51867	6
0.52233	8
0.52600	13
0.52967	16
0.53333	19
0.53700	18
0.54067	17
0.54433	18
0.54800	17
0.55167	15
0.55533	16
0.55900	17
0.56267	17
0.56633	18
0.57000	19
0.57367	21
0.57733	21
0.58100	20
0.58467	17
0.58833	16
0.59200	14
0.59567	12
0.59933	13
0.60300	16
0.60667	18
0.61033	18
0.61400	18
0.61767	20
0.62133	23
0.62500	22
0.62867	21
0.63233	21
0.63600	21
0.63967	20
0.64333	19
0.64700	20
0.65067	20
0.65433	22
0.65800	22
0.66167	21
0.66533	23
0.66900	23
0.67267	23
0.67633	24
0.68000	25
0.68367	27
0.68733	27
0.69100	28
0.69467	27
0.69833	24
0.70200	23
0.70567	21
0.70933	20
0.71300	21
0.71667	21
0.72033	22
0.72400	24
0.72767	27
0.73133	28
0.73500	27
0.73867	27
0.74233	27
0.74600	25
0.74967	21
0.75333	19
0.75700	17
0.76067	18
0.76433	21
0.76800	21
0.77167	21
0.77533	20
0.77900	21
0.78267	21
0.78633	21
0.79000	21
0.79367	22
0.79733	24
0.80100	25
0.80467	27
0.80833	30
0.81200	29
0.81567	27
0.81933	27
0.82300	28
0.82667	28
0.83033	30
0.83400	30
0.83767	30
0.84133	30
0.84500	32
0.84867	33
0.85233	34
0.85600	34
0.85967	34
0.86333	33
0.86700	36
0.87067	38
0.87433	40
0.87800	41
0.88167	42
0.88533	42
0.88900	41
0.89267	42
0.89633	43
0.90000	42
0.90367	41
0.90733	40
0.91100	39
0.91467	40
0.91833	41
0.92200	39
0.92567	38
0.92933	38
0.93300	40
0.93667	41
0.94033	41
0.94400	41
0.94767	39
0.95133	39
0.95500	39
0.95867	37
0.96233	36
0.96600	38
0.96967	40
0.97333	41
0.97700	40
0.98067	38
0.98433	37
0.98800	37
0.99167	39
0.99533	40
0.99900	38
1.00267	38
1.00633	39
1.01000	39
1.01367	39
1.01733	41
1.02100	42
1.02467	41
1.02833	40
1.03200	39
1.03567	38
1.03933	38
1.04300	39
1.04667	40
1.05033	40
1.05400	40
1.05767	40
1.06133	40
1.06500	41
1.06867	42
1.07233	44
1.07600	45
1.07967	45
1.08333	45
1.08700	46
1.09067	46
1.09433	46
1.09800	45
1.10167	43
1.10533	41
1.10900	40
1.11267	41
1.11633	43
1.12000	43
1.12367	45
1.12733	47
1.13100	48
1.13467	46
1.13833	43
1.14200	41
1.14567	40
1.14933	40
1.15300	40
1.15667	42
1.16033	43
1.16400	44
1.16767	45
1.17133	47
1.17500	48
1.17867	49
1.18233	48
1.18600	48
1.18967	48
1.19333	47
1.19700	48
1.20067	49
1.20433	50
1.20800	49
1.21167	47
1.21533	45
1.21900	47
1.22267	48
1.22633	50
1.23000	52
1.23367	53
1.23733	53
1.24100	50
1.24467	49
1.24833	49
1.25200	49
1.25567	48
1.25933	49
1.26300	53
1.26667	55
1.27033	55
1.27400	55
1.27767	54
1.28133	52
1.28500	49
1.28867	48
1.29233	48
1.29600	48
1.29967	49
1.30333	52
1.30700	54
1.31067	57
1.31433	58
1.31800	57
1.32167	57
1.32533	55
1.32900	53
1.33267	52
1.33633	51
1.34000	51
1.34367	51
1.34733	50
1.35100	50
1.35467	50
1.35833	53
1.36200	54
1.36567	54
1.36933	56
1.37300	59
1.37667	61
1.38033	61
1.38400	60
1.38767	60
1.39133	60
1.39500	59
1.39867	59
1.40233	60
1.40600	63
1.40967	63
1.41333	59
1.41700	56
1.42067	54
1.42433	56
1.42800	58
1.43167	60
1.43533	61
1.43900	62
1.44267	64
1.44633	62
1.45000	61
1.45367	60
1.45733	61
1.46100	60
1.46467	62
1.46833	65
1.47200	67
1.47567	69
1.47933	69
1.48300	69
1.48667	69
1.49033	66
1.49400	62
1.49767	60
1.50133	63
1.50500	66
1.50867	68
1.51233	68
1.51600	68
1.51967	67
1.52333	67
1.52700	68
1.53067	68
1.53433	68
1.53800	68
1.54167	67
1.54533	67
1.54900	67
1.55267	66
1.55633	66
1.56000	65
1.56367	64
1.56733	63
1.57100	63
1.57467	64
1.57833	64
1.58200	63
1.58567	64
1.58933	64
1.59300	64
1.59667	65
1.60033	67
1.60400	70
1.60767	72
1.61133	72
1.61500	71
1.61867	69
1.62233	69
1.62600	70
1.62967	73
1.63333	77
1.63700	79
1.64067	80
1.64433	79
1.64800	79
1.65167	80
1.65533	82
1.65900	82
1.66267	81
1.66633	80
1.67000	82
1.67367	85
1.67733	87
1.68100	89
1.68467	92
1.68833	95
1.69200	95
1.69567	96
1.69933	95
1.70300	91
1.70667	90
1.71033	91
1.71400	90
1.71767	91
1.72133	92
1.72500	94
1.72867	94
1.73233	96
1.73600	97
1.73967	99
1.74333	100
1.74700	101
1.75067	101
1.75433	100
1.75800	98
1.76167	98
1.76533	99
1.76900	100
1.77267	99
1.77633	101
1.78000	102
1.78367	105
1.78733	107
1.79100	108
1.79467	109
1.79833	111
1.80200	113
1.80567	115
1.80933	116
1.81300	116
1.81667	115
1.82033	117
1.82400	120
1.82767	123
1.83133	124
1.83500	123
1.83867	123
1.84233	124
1.84600	125
1.84967	123
1.85333	125
1.85700	128
1.86067	126
1.86433	124
1.86800	122
1.87167	120
1.87533	118
1.87900	119
1.88267	119
1.88633	119
1.89000	121
1.89367	122
1.89733	122
1.90100	122
1.90467	123
1.90833	125
1.91200	126
1.91567	127
1.91933	129
1.92300	131
1.92667	132
1.93033	134
1.93400	138
1.93767	138
1.94133	136
1.94500	133
1.94867	133
1.95233	134
1.95600	134
1.95967	136
1.96333	139
1.96700	141
1.97067	142
1.97433	144
1.97800	146
1.98167	145
1.98533	143
1.98900	143
1.99267	144
1.99633	147
2.00000	151
2.00367	154
2.00733	155
2.01100	157
2.01467	159
2.01833	159
2.02200	158
2.02567	158
2.02933	160
2.03300	163
2.03667	166
2.04033	168
2.04400	168
2.04767	169
2.05133	169
2.05500	171
2.05867	172
2.06233	173
2.06600	175
2.06967	177
2.07333	180
2.07700	182
2.08067	184
2.08433	184
2.08800	184
2.09167	185
2.09533	185
2.09900	187
2.10267	189
2.10633	190
2.11000	191
2.11367	193
2.11733	197
2.12100	200
2.12467	203
2.12833	204
2.13200	206
2.13567	209
2.13933	212
2.14300	215
2.14667	216
2.15033	217
2.15400	215
2.15767	214
2.16133	214
2.16500	216
2.16867	218
2.17233	220
2.17600	223
2.17967	226
2.18333	226
2.18700	224
2.19067	226
2.19433	227
2.19800	229
2.20167	231
2.20533	234
2.20900	235
2.21267	237
2.21633	239
2.22000	242
2.22367	243
2.22733	244
2.23100	243
2.23467	241
2.23833	242
2.24200	242
2.24567	243
2.24933	246
2.25300	249
2.25667	251
2.26033	252
2.26400	252
2.26767	253
2.27133	254
2.27500	256
2.27867	259
2.28233	262
2.28600	263
2.28967	263
2.29333	261
2.29700	261
2.30067	263
2.30433	265
2.30800	267
2.31167	269
2.31533	271
2.31900	271
2.32267	271
2.32633	270
2.33000	270
2.33367	271
2.33733	273
2.34100	277
2.34467	280
2.34833	281
2.35200	281
2.35567	281
2.35933	283
2.36300	287
2.36667	287
2.37033	288
2.37400	290
2.37767	290
2.38133	289
2.38500	289
2.38867	288
2.39233	287
2.39600	287
2.39967	288
2.40333	289
2.40700	288
2.41067	290
2.41433	293
2.41800	298
2.42167	304
2.42533	307
2.42900	308
2.43267	308
2.43633	308
2.44000	308
2.44367	308
2.44733	316
2.45100	331
2.45467	341
2.45833	342
2.46200	337
2.46567	330
2.46933	324
2.47300	320
2.47667	316
2.48033	311
2.48400	307
2.48767	301
2.49133	296
2.49500	290
2.49867	286
2.50233	285
2.50600	281
2.50967	276
2.51333	270
2.51700	265
2.52067	262
2.52433	259
2.52800	254
2.53167	250
2.53533	250
2.53900	250
2.54267	248
2.54633	245
2.55000	240
2.55367	235
2.55733	230
2.56100	227
2.56467	226
2.56833	224
2.57200	223
2.57567	221
2.57933	218
2.58300	216
2.58667	213
2.59033	210
2.59400	205
2.59767	196
2.60133	183
2.60500	160
2.60867	130
2.61233	93
2.61600	51
2.61967	5
2.62333	-39
2.62700	-81
2.63067	-115
2.63433	-142
2.63800	-164
2.64167	-181
2.64533	-192
2.64900	-198
2.65267	-198
2.65633	-196
2.66000	-190
2.66367	-183
2.66733	-176
2.67100	-167
2.67467	-157
2.67833	-147
2.68200	-136
2.68567	-127
2.68933	-118
2.69300	-107
2.69667	-96
2.70033	-87
2.70400	-79
2.70767	-72
2.71133	-65
2.71500	-57
2.71867	-47
2.72233	-40
2.72600	-35
2.72967	-30
2.73333	-25
2.73700	-21
2.74067	-14
2.74433	-5
2.74800	-0
2.75167	5
2.75533	9
2.75900	13
2.76267	18
2.76633	21
2.77000	25
2.77367	28
2.77733	31
2.78100	34
2.78467	36
2.78833	37
2.79200	37
2.79567	36
2.79933	15
2.80300	-17
2.80667	-23
2.81033	6
2.81400	60
2.81767	128
2.82133	198
2.82500	283
2.82867	414
2.83233	634
2.83600	1002
2.83967	1583
2.84333	2436
2.84700	3595
2.85067	5053
2.85433	6759
2.85800	8627
2.86167	10539
2.86533	12358
2.86900	13955
2.87267	15210
2.87633	16053
2.88000	16457
2.88367	16438
2.88733	16052
2.89100	15381
2.89467	14509
2.89833	13504
2.90200	12435
2.90567	11355
2.90933	10301
2.91300	9296
2.91667	8359
2.92033	7502
2.92400	6726
2.92767	6023
2.93133	5392
2.93500	4831
2.93867	4336
2.94233	3898
2.94600	3513
2.94967	3176
2.95333	2879
2.95700	2617
2.96067	2387
2.96433	2187
2.96800	2014
2.97167	1865
2.97533	1734
2.97900	1621
2.98267	1522
2.98633	1436
2.99000	1363
2.99367	1300
2.99733	1243
3.00100	1193
3.00467	1151
3.00833	1113
3.01200	1081
3.01567	1052
3.01933	1030
3.02300	1011
3.02667	993
3.03033	979
3.03400	966
3.03767	954
3.04133	947
3.04500	941
3.04867	935
3.05233	929
3.05600	922
3.05967	917
3.06333	911
3.06700	905
3.07067	902
3.07433	900
3.07800	898
3.08167	895
3.08533	891
3.08900	891
3.09267	890
3.09633	890
3.10000	890
3.10367	889
3.10733	887
3.11100	885
3.11467	883
3.11833	880
3.12200	878
3.12567	877
3.12933	874
3.13300	870
3.13667	868
3.14033	866
3.14400	866
3.14767	863
3.15133	859
3.15500	856
3.15867	853
3.16233	850
3.16600	850
3.16967	848
3.17333	844
3.17700	840
3.18067	837
3.18433	833
3.18800	829
3.19167	825
3.19533	823
3.19900	820
3.20267	817
3.20633	813
3.21000	806
3.21367	801
3.21733	800
3.22100	798
3.22467	797
3.22833	795
3.23200	793
3.23567	788
3.23933	783
3.24300	780
3.24667	776
3.25033	773
3.25400	771
3.25767	766
3.26133	762
3.26500	755
3.26867	749
3.27233	745
3.27600	742
3.27967	736
3.28333	731
3.28700	726
3.29067	722
3.29433	718
3.29800	714
3.30167	709
3.30533	706
3.30900	702
3.31267	701
3.31633	700
3.32000	697
3.32367	696
3.32733	693
3.33100	690
3.33467	687
3.33833	683
3.34200	680
3.34567	678
3.34933	676
3.35300	675
3.35667	670
3.36033	663
3.36400	657
3.36767	652
3.37133	648
3.37500	645
3.37867	640
3.38233	636
3.38600	632
3.38967	627
3.39333	624
3.39700	624
3.40067	621
3.40433	617
3.40800	611
3.41167	604
3.41533	599
3.41900	597
3.42267	597
3.42633	595
3.43000	594
3.43367	594
3.43733	591
3.44100	590
3.44467	588
3.44833	587
3.45200	585
3.45567	584
3.45933	582
3.46300	576
3.46667	572
3.47033	569
3.47400	564
3.47767	562
3.48133	561
3.48500	561
3.48867	558
3.49233	555
3.49600	551
3.49967	548
3.50333	547
3.50700	546
3.51067	546
3.51433	544
3.51800	544
3.52167	543
3.52533	540
3.52900	538
3.53267	536
3.53633	535
3.54000	532
3.54367	528
3.54733	524
3.55100	521
3.55467	517
3.55833	515
3.56200	512
3.56567	511
3.56933	509
3.57300	508
3.57667	509
3.58033	509
3.58400	508
3.58767	504
3.59133	500
3.59500	498
3.59867	499
3.60233	499
3.60600	497
3.60967	494
3.61333	492
3.61700	490
3.62067	488
3.62433	488
3.62800	487
3.63167	483
3.63533	479
3.63900	477
3.64267	474
3.64633	475
3.65000	475
3.65367	472
3.65733	468
3.66100	465
3.66467	463
3.66833	460
3.67200	459
3.67567	460
3.67933	458
3.68300	458
3.68667	457
3.69033	457
3.69400	456
3.69767	456
3.70133	454
3.70500	449
3.70867	445
3.71233	442
3.71600	440
3.71967	438
3.72333	436
3.72700	436
3.73067	434
3.73433	430
3.73800	427
3.74167	427
3.74533	426
3.74900	425
3.75267	423
3.75633	422
3.76000	419
3.76367	416
3.76733	413
3.77100	410
3.77467	410
3.77833	410
3.78200	410
3.78567	409
3.78933	408
3.79300	407
3.79667	406
3.80033	404
3.80400	402
3.80767	399
3.81133	395
3.81500	392
3.81867	389
3.82233	386
3.82600	384
3.82967	386
3.83333	385
3.83700	385
3.84067	384
3.84433	384
3.84800	384
3.85167	383
3.85533	380
3.85900	377
3.86267	375
3.86633	374
3.87000	372
3.87367	371
3.87733	371
3.88100	370
3.88467	367
3.88833	363
3.89200	362
3.89567	362
3.89933	361
3.90300	360
3.90667	359
3.91033	359
3.91400	359
3.91767	360
3.92133	360
3.92500	359
3.92867	356
3.93233	354
3.93600	351
3.93967	351
3.94333	351
3.94700	348
3.95067	345
3.95433	342
3.95800	340
3.96167	340
3.96533	338
3.96900	337
3.97267	333
3.97633	329
3.98000	328
3.98367	327
3.98733	325
3.99100	324
3.99467	322
3.99833	323

[Status Trace (Column Oven Temperature)]
Interval(msec)	1000
# of Points	240
Start Time(min)	0.001
End Time(min)	3.984
Intensity Units	
Intensity Multiplier	1
R.Time (min)	Intensity
0.00077	35.00
0.01743	34.98
0.03410	34.97
0.05077	34.97
0.06743	34.97
0.08410	34.97
0.10077	34.96
0.11743	34.96
0.13410	34.95
0.15077	34.95
0.16743	34.96
0.18410	34.97
0.20077	34.98
0.21743	35.01
0.23410	35.01
0.25077	35.01
0.26743	35.00
0.28410	34.99
0.30077	34.98
0.31743	34.98
0.33410	34.97
0.35077	34.99
0.36743	35.00
0.38410	35.00
0.40077	35.01
0.41743	35.01
0.43410	35.01
0.45077	34.99
0.46743	34.98
0.48410	34.98
0.50077	34.98
0.51743	34.98
0.53410	34.99
0.55077	35.00
0.56743	35.01
0.58410	35.01
0.60077	35.02
0.61743	35.03
0.63410	35.03
0.65077	35.02
0.66743	35.01
0.68410	35.01
0.70077	35.00
0.71743	35.00
0.73410	34.99
0.75077	34.99
0.76743	34.99
0.78410	35.00
0.80077	35.00
0.81743	35.01
0.83410	34.99
0.85077	34.99
0.86743	34.99
0.88410	34.98
0.90077	34.98
0.91743	35.00
0.93410	35.00
0.95077	34.99
0.96743	34.98
0.98410	34.97
1.00077	34.97
1.01743	34.97
1.03410	34.96
1.05077	34.97
1.06743	34.98
1.08410	34.97
1.10077	34.97
1.11743	34.97
1.13410	34.97
1.15077	34.97
1.16743	34.97
1.18410	34.98
1.20077	34.98
1.21743	34.98
1.23410	34.98
1.25077	34.98
1.26743	34.98
1.28410	34.98
1.30077	34.98
1.31743	34.98
1.33410	34.97
1.35077	34.97
1.36743	34.98
1.38410	34.98
1.40077	34.98
1.41743	34.98
1.43410	34.97
1.45077	34.97
1.46743	34.98
1.48410	34.98
1.50077	34.98
1.51743	34.99
1.53410	34.99
1.55077	34.99
1.56743	34.99
1.58410	35.00
1.60077	35.02
1.61743	35.12
1.63410	35.29
1.65077	35.52
1.66743	35.81
1.68410	36.17
1.70077	36.52
1.71743	36.86
1.73410	37.21
1.75077	37.52
1.76743	37.85
1.78410	38.18
1.80077	38.53
1.81743	38.85
1.83410	39.18
1.85077	39.52
1.86743	39.84
1.88410	40.18
1.90077	40.51
1.91743	40.83
1.93410	41.16
1.95077	41.50
1.96743	41.82
1.98410	42.13
2.00077	42.47
2.01743	42.79
2.03410	43.12
2.05077	43.44
2.06743	43.79
2.08410	44.11
2.10077	44.43
2.11743	44.75
2.13410	45.07
2.15077	45.41
2.16743	45.75
2.18410	46.07
2.20077	46.43
2.21743	46.75
2.23410	47.06
2.25077	47.39
2.26743	47.72
2.28410	48.05
2.30077	48.38
2.31743	48.70
2.33410	49.02
2.35077	49.32
2.36743	49.58
2.38410	49.70
2.40077	49.72
2.41743	49.71
2.43410	49.73
2.45077	49.73
2.46743	49.72
2.48410	49.74
2.50077	49.76
2.51743	49.76
2.53410	49.78
2.55077	49.79
2.56743	49.81
2.58410	49.81
2.60077	49.81
2.61743	49.81
2.63410	49.82
2.65077	49.83
2.66743	49.83
2.68410	49.85
2.70077	49.86
2.71743	49.86
2.73410	49.85
2.75077	49.86
2.76743	49.88
2.78410	49.89
2.80077	49.89
2.81743	49.89
2.83410	49.90
2.85077	49.91
2.86743	49.92
2.88410	49.94
2.90077	49.96
2.91743	49.96
2.93410	49.97
2.95077	49.97
2.96743	49.97
2.98410	49.98
3.00077	49.98
3.01743	50.00
3.03410	50.00
3.05077	50.00
3.06743	50.03
3.08410	50.04
3.10077	50.05
3.11743	50.06
3.13410	50.07
3.15077	50.08
3.16743	50.08
3.18410	50.08
3.20077	50.09
3.21743	50.10
3.23410	50.11
3.25077	50.11
3.26743	50.09
3.28410	50.07
3.30077	50.06
3.31743	50.05
3.33410	50.05
3.35077	50.05
3.36743	50.05
3.38410	50.05
3.40077	50.06
3.41743	50.06
3.43410	50.07
3.45077	50.07
3.46743	50.07
3.48410	50.07
3.50077	50.06
3.51743	50.06
3.53410	50.05
3.55077	50.05
3.56743	50.06
3.58410	50.05
3.60077	50.06
3.61743	50.06
3.63410	50.07
3.65077	50.08
3.66743	50.08
3.68410	50.09
3.70077	50.10
3.71743	50.10
3.73410	50.09
3.75077	50.07
3.76743	50.06
3.78410	50.06
3.80077	50.06
3.81743	50.05
3.83410	50.05
3.85077	50.04
3.86743	50.04
3.88410	50.04
3.90077	50.04
3.91743	50.04
3.93410	50.04
3.95077	50.04
3.96743	50.04
3.98410	50.04

[Status Trace (Injection Unit Temperature)]
Interval(msec)	1000
# of Points	240
Start Time(min)	0.001
End Time(min)	3.984
Intensity Units	
Intensity Multiplier	1
R.Time (min)	Intensity
0.00077	99.98
0.01743	99.98
0.03410	99.98
0.05077	99.98
0.06743	99.99
0.08410	99.99
0.10077	99.98
0.11743	99.98
0.13410	99.99
0.15077	99.98
0.16743	99.98
0.18410	99.98
0.20077	99.98
0.21743	99.98
0.23410	99.98
0.25077	99.98
0.26743	99.98
0.28410	99.98
0.30077	99.98
0.31743	99.98
0.33410	99.98
0.35077	99.98
0.36743	99.98
0.38410	99.98
0.40077	99.98
0.41743	99.98
0.43410	99.98
0.45077	99.98
0.46743	99.98
0.48410	99.98
0.50077	99.98
0.51743	99.98
0.53410	99.98
0.55077	99.98
0.56743	99.98
0.58410	99.98
0.60077	99.98
0.61743	99.98
0.63410	99.99
0.65077	99.98
0.66743	99.98
0.68410	99.98
0.70077	99.98
0.71743	99.98
0.73410	99.98
0.75077	99.99
0.76743	99.98
0.78410	99.99
0.80077	99.98
0.81743	99.98
0.83410	99.98
0.85077	99.98
0.86743	99.98
0.88410	99.98
0.90077	99.98
0.91743	99.98
0.93410	99.97
0.95077	99.98
0.96743	99.98
0.98410	99.97
1.00077	99.98
1.01743	99.98
1.03410	99.98
1.05077	99.98
1.06743	99.98
1.08410	99.98
1.10077	99.98
1.11743	99.97
1.13410	99.98
1.15077	99.98
1.16743	99.98
1.18410	99.98
1.20077	99.98
1.21743	99.98
1.23410	99.98
1.25077	99.98
1.26743	99.98
1.28410	99.98
1.30077	99.98
1.31743	99.98
1.33410	99.98
1.35077	99.98
1.36743	99.98
1.38410	99.97
1.40077	99.98
1.41743	99.98
1.43410	99.98
1.45077	99.98
1.46743	99.98
1.48410	99.98
1.50077	99.98
1.51743	99.98
1.53410	99.97
1.55077	99.98
1.56743	99.98
1.58410	99.98
1.60077	99.98
1.61743	99.98
1.63410	99.98
1.65077	99.98
1.66743	99.98
1.68410	99.98
1.70077	99.98
1.71743	99.99
1.73410	99.99
1.75077	99.99
1.76743	99.98
1.78410	99.99
1.80077	99.98
1.81743	99.99
1.83410	99.98
1.85077	99.98
1.86743	99.99
1.88410	99.98
1.90077	99.98
1.91743	99.99
1.93410	99.98
1.95077	99.98
1.96743	99.98
1.98410	99.98
2.00077	99.98
2.01743	99.98
2.03410	99.97
2.05077	99.98
2.06743	99.98
2.08410	99.98
2.10077	99.97
2.11743	99.98
2.13410	99.98
2.15077	99.98
2.16743	99.98
2.18410	99.97
2.20077	99.97
2.21743	99.97
2.23410	99.98
2.25077	99.97
2.26743	99.98
2.28410	99.97
2.30077	99.97
2.31743	99.98
2.33410	99.97
2.35077	99.97
2.36743	99.97
2.38410	99.97
2.40077	99.97
2.41743	99.97
2.43410	99.98
2.45077	99.97
2.46743	99.97
2.48410	99.97
2.50077	99.98
2.51743	99.97
2.53410	99.98
2.55077	99.97
2.56743	99.98
2.58410	99.97
2.60077	99.98
2.61743	99.98
2.63410	99.98
2.65077	99.98
2.66743	99.99
2.68410	99.99
2.70077	99.99
2.71743	99.99
2.73410	99.99
2.75077	99.99
2.76743	99.99
2.78410	99.99
2.80077	99.99
2.81743	100.00
2.83410	100.00
2.85077	100.00
2.86743	100.00
2.88410	100.00
2.90077	100.00
2.91743	100.00
2.93410	100.00
2.95077	100.01
2.96743	100.01
2.98410	100.01
3.00077	100.01
3.01743	100.01
3.03410	100.01
3.05077	100.01
3.06743	100.02
3.08410	100.02
3.10077	100.02
3.11743	100.02
3.13410	100.02
3.15077	100.02
3.16743	100.02
3.18410	100.01
3.20077	100.03
3.21743	100.03
3.23410	100.02
3.25077	100.03
3.26743	100.03
3.28410	100.03
3.30077	100.03
3.31743	100.03
3.33410	100.03
3.35077	100.04
3.36743	100.03
3.38410	100.04
3.40077	100.03
3.41743	100.04
3.43410	100.04
3.45077	100.04
3.46743	100.04
3.48410	100.04
3.50077	100.04
3.51743	100.05
3.53410	100.04
3.55077	100.04
3.56743	100.05
3.58410	100.04
3.60077	100.05
3.61743	100.05
3.63410	100.05
3.65077	100.05
3.66743	100.05
3.68410	100.06
3.70077	100.05
3.71743	100.05
3.73410	100.06
3.75077	100.05
3.76743	100.05
3.78410	100.05
3.80077	100.06
3.81743	100.05
3.83410	100.05
3.85077	100.06
3.86743	100.05
3.88410	100.06
3.90077	100.06
3.91743	100.05
3.93410	100.06
3.95077	100.06
3.96743	100.06
3.98410	100.06

[Status Trace (Carrier Gas Pressure)]
Interval(msec)	1000
# of Points	240
Start Time(min)	0.001
End Time(min)	3.984
Intensity Units	
Intensity Multiplier	1
R.Time (min)	Intensity
0.00077	58.00
0.01743	56.73
0.03410	55.99
0.05077	58.32
0.06743	59.92
0.08410	58.48
0.10077	57.97
0.11743	58.00
0.13410	58.01
0.15077	58.01
0.16743	58.00
0.18410	58.00
0.20077	58.00
0.21743	58.00
0.23410	58.00
0.25077	58.00
0.26743	58.00
0.28410	58.00
0.30077	58.00
0.31743	58.00
0.33410	58.00
0.35077	58.00
0.36743	58.00
0.38410	58.00
0.40077	58.00
0.41743	58.00
0.43410	58.00
0.45077	58.00
0.46743	58.00
0.48410	58.00
0.50077	58.00
0.51743	58.00
0.53410	58.00
0.55077	58.00
0.56743	58.00
0.58410	58.00
0.60077	58.00
0.61743	58.00
0.63410	58.00
0.65077	58.00
0.66743	58.00
0.68410	58.00
0.70077	58.00
0.71743	58.00
0.73410	58.00
0.75077	58.00
0.76743	58.00
0.78410	58.00
0.80077	58.00
0.81743	58.00
0.83410	58.00
0.85077	58.00
0.86743	58.00
0.88410	58.00
0.90077	58.00
0.91743	58.00
0.93410	58.00
0.95077	58.00
0.96743	58.00
0.98410	58.00
1.00077	58.00
1.01743	58.00
1.03410	58.00
1.05077	58.00
1.06743	58.00
1.08410	58.00
1.10077	58.00
1.11743	58.00
1.13410	58.00
1.15077	58.00
1.16743	58.00
1.18410	58.00
1.20077	58.00
1.21743	58.00
1.23410	58.00
1.25077	58.00
1.26743	58.00
1.28410	58.00
1.30077	58.00
1.31743	58.00
1.33410	58.00
1.35077	58.00
1.36743	58.00
1.38410	58.00
1.40077	58.00
1.41743	58.00
1.43410	58.00
1.45077	58.00
1.46743	58.00
1.48410	58.00
1.50077	58.00
1.51743	58.00
1.53410	58.00
1.55077	58.00
1.56743	58.00
1.58410	58.00
1.60077	58.00
1.61743	58.00
1.63410	58.00
1.65077	58.00
1.66743	58.01
1.68410	58.01
1.70077	58.00
1.71743	58.00
1.73410	58.00
1.75077	58.00
1.76743	58.00
1.78410	58.00
1.80077	58.00
1.81743	58.00
1.83410	58.00
1.85077	58.00
1.86743	58.00
1.88410	58.00
1.90077	58.00
1.91743	58.00
1.93410	58.00
1.95077	58.00
1.96743	58.00
1.98410	58.00
2.00077	58.00
2.01743	58.00
2.03410	58.00
2.05077	58.00
2.06743	58.00
2.08410	58.00
2.10077	58.00
2.11743	58.00
2.13410	58.00
2.15077	58.00
2.16743	58.00
2.18410	58.00
2.20077	58.00
2.21743	58.00
2.23410	58.00
2.25077	58.00
2.26743	58.00
2.28410	58.00
2.30077	58.00
2.31743	58.00
2.33410	58.00
2.35077	58.00
2.36743	58.00
2.38410	58.00
2.40077	57.99
2.41743	58.00
2.43410	58.00
2.45077	58.00
2.46743	58.00
2.48410	58.00
2.50077	58.00
2.51743	57.99
2.53410	57.99
2.55077	58.00
2.56743	58.00
2.58410	58.00
2.60077	58.00
2.61743	58.00
2.63410	58.00
2.65077	58.00
2.66743	58.00
2.68410	58.00
2.70077	58.00
2.71743	58.00
2.73410	58.00
2.75077	58.00
2.76743	58.00
2.78410	58.00
2.80077	58.00
2.81743	58.00
2.83410	58.00
2.85077	58.00
2.86743	58.00
2.88410	58.00
2.90077	58.00
2.91743	58.00
2.93410	58.00
2.95077	58.00
2.96743	58.00
2.98410	58.00
3.00077	58.00
3.01743	58.00
3.03410	58.00
3.05077	58.00
3.06743	58.00
3.08410	58.00
3.10077	58.00
3.11743	58.00
3.13410	58.00
3.15077	58.00
3.16743	58.00
3.18410	58.00
3.20077	58.00
3.21743	58.00
3.23410	58.00
3.25077	58.00
3.26743	58.00
3.28410	58.00
3.30077	58.00
3.31743	58.00
3.33410	58.00
3.35077	58.00
3.36743	58.00
3.38410	58.00
3.40077	58.00
3.41743	58.00
3.43410	58.00
3.45077	58.00
3.46743	58.00
3.48410	58.00
3.50077	58.00
3.51743	58.00
3.53410	58.00
3.55077	58.00
3.56743	58.00
3.58410	58.00
3.60077	58.00
3.61743	58.00
3.63410	58.00
3.65077	58.00
3.66743	58.00
3.68410	58.00
3.70077	58.00
3.71743	58.00
3.73410	58.00
3.75077	58.00
3.76743	58.00
3.78410	58.00
3.80077	58.00
3.81743	58.00
3.83410	58.00
3.85077	58.00
3.86743	58.00
3.88410	58.00
3.90077	58.00
3.91743	58.00
3.93410	58.00
3.95077	58.00
3.96743	58.00
3.98410	58.00

[Status Trace (Carrier Gas Flow)]
Interval(msec)	1000
# of Points	240
Start Time(min)	0.001
End Time(min)	3.984
Intensity Units	
Intensity Multiplier	1
R.Time (min)	Intensity
0.00077	34.52
0.01743	33.80
0.03410	34.54
0.05077	34.54
0.06743	34.51
0.08410	34.51
0.10077	34.52
0.11743	34.52
0.13410	34.52
0.15077	34.52
0.16743	34.52
0.18410	34.52
0.20077	34.52
0.21743	34.52
0.23410	34.52
0.25077	34.52
0.26743	34.52
0.28410	34.52
0.30077	34.52
0.31743	34.52
0.33410	34.52
0.35077	34.52
0.36743	34.52
0.38410	34.52
0.40077	34.52
0.41743	34.52
0.43410	34.52
0.45077	34.52
0.46743	34.52
0.48410	34.52
0.50077	34.52
0.51743	34.52
0.53410	34.52
0.55077	34.52
0.56743	34.52
0.58410	34.52
0.60077	34.52
0.61743	34.52
0.63410	34.52
0.65077	34.52
0.66743	34.52
0.68410	34.52
0.70077	34.51
0.71743	34.52
0.73410	34.52
0.75077	34.52
0.76743	34.52
0.78410	34.52
0.80077	34.52
0.81743	34.51
0.83410	34.52
0.85077	34.50
0.86743	34.52
0.88410	34.51
0.90077	34.52
0.91743	34.52
0.93410	34.52
0.95077	34.51
0.96743	34.52
0.98410	34.54
1.00077	34.51
1.01743	34.51
1.03410	34.52
1.05077	34.52
1.06743	34.53
1.08410	34.52
1.10077	34.54
1.11743	34.52
1.13410	34.53
1.15077	34.52
1.16743	34.53
1.18410	34.52
1.20077	34.52
1.21743	34.50
1.23410	34.52
1.25077	34.52
1.26743	34.52
1.28410	34.52
1.30077	34.52
1.31743	34.52
1.33410	34.52
1.35077	34.52
1.36743	34.52
1.38410	34.52
1.40077	34.52
1.41743	34.52
1.43410	34.52
1.45077	34.52
1.46743	34.52
1.48410	34.52
1.50077	34.52
1.51743	34.52
1.53410	34.52
1.55077	34.52
1.56743	34.52
1.58410	34.52
1.60077	34.52
1.61743	34.52
1.63410	34.52
1.65077	34.52
1.66743	34.52
1.68410	34.52
1.70077	34.52
1.71743	34.52
1.73410	34.52
1.75077	34.52
1.76743	34.52
1.78410	34.52
1.80077	34.52
1.81743	34.52
1.83410	34.52
1.85077	34.52
1.86743	34.52
1.88410	34.52
1.90077	34.52
1.91743	34.52
1.93410	34.52
1.95077	34.52
1.96743	34.52
1.98410	34.52
2.00077	34.52
2.01743	34.52
2.03410	34.52
2.05077	34.52
2.06743	34.52
2.08410	34.52
2.10077	34.52
2.11743	34.52
2.13410	34.52
2.15077	34.52
2.16743	34.52
2.18410	34.52
2.20077	34.52
2.21743	34.52
2.23410	34.52
2.25077	34.52
2.26743	34.52
2.28410	34.52
2.30077	34.52
2.31743	34.52
2.33410	34.52
2.35077	34.52
2.36743	34.52
2.38410	34.52
2.40077	34.52
2.41743	34.52
2.43410	34.52
2.45077	34.52
2.46743	34.52
2.48410	34.52
2.50077	34.52
2.51743	34.53
2.53410	34.53
2.55077	34.51
2.56743	34.50
2.58410	34.52
2.60077	34.52
2.61743	34.51
2.63410	34.52
2.65077	34.53
2.66743	34.52
2.68410	34.52
2.70077	34.51
2.71743	34.52
2.73410	34.53
2.75077	34.50
2.76743	34.52
2.78410	34.52
2.80077	34.52
2.81743	34.53
2.83410	34.52
2.85077	34.53
2.86743	34.51
2.88410	34.52
2.90077	34.52
2.91743	34.52
2.93410	34.51
2.95077	34.51
2.96743	34.52
2.98410	34.52
3.00077	34.52
3.01743	34.52
3.03410	34.52
3.05077	34.51
3.06743	34.52
3.08410	34.52
3.10077	34.52
3.11743	34.52
3.13410	34.52
3.15077	34.52
3.16743	34.52
3.18410	34.52
3.20077	34.52
3.21743	34.52
3.23410	34.52
3.25077	34.52
3.26743	34.52
3.28410	34.52
3.30077	34.52
3.31743	34.52
3.33410	34.52
3.35077	34.52
3.36743	34.52
3.38410	34.52
3.40077	34.52
3.41743	34.52
3.43410	34.52
3.45077	34.52
3.46743	34.52
3.48410	34.52
3.50077	34.52
3.51743	34.51
3.53410	34.52
3.55077	34.52
3.56743	34.52
3.58410	34.52
3.60077	34.52
3.61743	34.52
3.63410	34.52
3.65077	34.52
3.66743	34.52
3.68410	34.52
3.70077	34.52
3.71743	34.52
3.73410	34.52
3.75077	34.52
3.76743	34.52
3.78410	34.52
3.80077	34.52
3.81743	34.52
3.83410	34.52
3.85077	34.52
3.86743	34.52
3.88410	34.52
3.90077	34.52
3.91743	34.52
3.93410	34.52
3.95077	34.52
3.96743	34.52
3.98410	34.52

[Status Trace (Column Flow)]
Interval(msec)	1000
# of Points	240
Start Time(min)	0.001
End Time(min)	3.984
Intensity Units	
Intensity Multiplier	1
R.Time (min)	Intensity
0.00077	5.50
0.01743	5.36
0.03410	5.27
0.05077	5.54
0.06743	5.73
0.08410	5.56
0.10077	5.50
0.11743	5.51
0.13410	5.51
0.15077	5.51
0.16743	5.51
0.18410	5.51
0.20077	5.50
0.21743	5.50
0.23410	5.50
0.25077	5.50
0.26743	5.50
0.28410	5.50
0.30077	5.50
0.31743	5.50
0.33410	5.50
0.35077	5.50
0.36743	5.50
0.38410	5.50
0.40077	5.50
0.41743	5.50
0.43410	5.50
0.45077	5.50
0.46743	5.50
0.48410	5.50
0.50077	5.50
0.51743	5.50
0.53410	5.50
0.55077	5.50
0.56743	5.50
0.58410	5.50
0.60077	5.50
0.61743	5.50
0.63410	5.50
0.65077	5.50
0.66743	5.50
0.68410	5.50
0.70077	5.50
0.71743	5.50
0.73410	5.50
0.75077	5.50
0.76743	5.50
0.78410	5.50
0.80077	5.50
0.81743	5.50
0.83410	5.50
0.85077	5.50
0.86743	5.50
0.88410	5.50
0.90077	5.50
0.91743	5.50
0.93410	5.50
0.95077	5.50
0.96743	5.50
0.98410	5.50
1.00077	5.50
1.01743	5.50
1.03410	5.50
1.05077	5.50
1.06743	5.50
1.08410	5.50
1.10077	5.50
1.11743	5.50
1.13410	5.50
1.15077	5.50
1.16743	5.50
1.18410	5.50
1.20077	5.50
1.21743	5.50
1.23410	5.50
1.25077	5.50
1.26743	5.50
1.28410	5.50
1.30077	5.50
1.31743	5.50
1.33410	5.50
1.35077	5.50
1.36743	5.50
1.38410	5.50
1.40077	5.50
1.41743	5.50
1.43410	5.50
1.45077	5.50
1.46743	5.50
1.48410	5.50
1.50077	5.50
1.51743	5.50
1.53410	5.50
1.55077	5.50
1.56743	5.50
1.58410	5.50
1.60077	5.50
1.61743	5.50
1.63410	5.50
1.65077	5.49
1.66743	5.48
1.68410	5.47
1.70077	5.46
1.71743	5.45
1.73410	5.43
1.75077	5.43
1.76743	5.42
1.78410	5.41
1.80077	5.39
1.81743	5.39
1.83410	5.37
1.85077	5.36
1.86743	5.36
1.88410	5.34
1.90077	5.33
1.91743	5.33
1.93410	5.32
1.95077	5.31
1.96743	5.30
1.98410	5.29
2.00077	5.28
2.01743	5.27
2.03410	5.26
2.05077	5.25
2.06743	5.24
2.08410	5.23
2.10077	5.22
2.11743	5.21
2.13410	5.20
2.15077	5.19
2.16743	5.18
2.18410	5.17
2.20077	5.16
2.21743	5.15
2.23410	5.14
2.25077	5.13
2.26743	5.13
2.28410	5.12
2.30077	5.11
2.31743	5.10
2.33410	5.09
2.35077	5.08
2.36743	5.07
2.38410	5.07
2.40077	5.07
2.41743	5.07
2.43410	5.07
2.45077	5.07
2.46743	5.07
2.48410	5.07
2.50077	5.07
2.51743	5.07
2.53410	5.07
2.55077	5.07
2.56743	5.07
2.58410	5.07
2.60077	5.07
2.61743	5.07
2.63410	5.07
2.65077	5.07
2.66743	5.07
2.68410	5.07
2.70077	5.07
2.71743	5.07
2.73410	5.07
2.75077	5.07
2.76743	5.07
2.78410	5.06
2.80077	5.06
2.81743	5.06
2.83410	5.06
2.85077	5.06
2.86743	5.06
2.88410	5.06
2.90077	5.06
2.91743	5.06
2.93410	5.06
2.95077	5.06
2.96743	5.06
2.98410	5.06
3.00077	5.06
3.01743	5.06
3.03410	5.06
3.05077	5.06
3.06743	5.06
3.08410	5.06
3.10077	5.06
3.11743	5.06
3.13410	5.06
3.15077	5.06
3.16743	5.06
3.18410	5.06
3.20077	5.06
3.21743	5.06
3.23410	5.06
3.25077	5.06
3.26743	5.06
3.28410	5.06
3.30077	5.06
3.31743	5.06
3.33410	5.06
3.35077	5.06
3.36743	5.06
3.38410	5.06
3.40077	5.06
3.41743	5.06
3.43410	5.06
3.45077	5.06
3.46743	5.06
3.48410	5.06
3.50077	5.06
3.51743	5.06
3.53410	5.06
3.55077	5.06
3.56743	5.06
3.58410	5.06
3.60077	5.06
3.61743	5.06
3.63410	5.06
3.65077	5.06
3.66743	5.06
3.68410	5.06
3.70077	5.06
3.71743	5.06
3.73410	5.06
3.75077	5.06
3.76743	5.06
3.78410	5.06
3.80077	5.06
3.81743	5.06
3.83410	5.06
3.85077	5.06
3.86743	5.06
3.88410	5.06
3.90077	5.06
3.91743	5.06
3.93410	5.06
3.95077	5.06
3.96743	5.06
3.98410	5.06

[Status Trace (Linear Velocity)]
Interval(msec)	1000
# of Points	240
Start Time(min)	0.001
End Time(min)	3.984
Intensity Units	
Intensity Multiplier	1
R.Time (min)	Intensity
0.00077	39.01
0.01743	38.18
0.03410	37.70
0.05077	39.23
0.06743	40.27
0.08410	39.33
0.10077	39.00
0.11743	39.02
0.13410	39.02
0.15077	39.02
0.16743	39.02
0.18410	39.02
0.20077	39.02
0.21743	39.01
0.23410	39.01
0.25077	39.01
0.26743	39.01
0.28410	39.01
0.30077	39.02
0.31743	39.02
0.33410	39.02
0.35077	39.01
0.36743	39.01
0.38410	39.01
0.40077	39.01
0.41743	39.01
0.43410	39.01
0.45077	39.01
0.46743	39.01
0.48410	39.01
0.50077	39.01
0.51743	39.02
0.53410	39.01
0.55077	39.01
0.56743	39.01
0.58410	39.01
0.60077	39.01
0.61743	39.01
0.63410	39.01
0.65077	39.01
0.66743	39.01
0.68410	39.01
0.70077	39.01
0.71743	39.01
0.73410	39.01
0.75077	39.01
0.76743	39.01
0.78410	39.01
0.80077	39.01
0.81743	39.01
0.83410	39.01
0.85077	39.01
0.86743	39.01
0.88410	39.01
0.90077	39.01
0.91743	39.01
0.93410	39.01
0.95077	39.01
0.96743	39.01
0.98410	39.02
1.00077	39.02
1.01743	39.02
1.03410	39.02
1.05077	39.02
1.06743	39.01
1.08410	39.02
1.10077	39.02
1.11743	39.02
1.13410	39.02
1.15077	39.02
1.16743	39.02
1.18410	39.01
1.20077	39.02
1.21743	39.02
1.23410	39.01
1.25077	39.01
1.26743	39.02
1.28410	39.01
1.30077	39.01
1.31743	39.01
1.33410	39.01
1.35077	39.02
1.36743	39.02
1.38410	39.01
1.40077	39.01
1.41743	39.02
1.43410	39.01
1.45077	39.01
1.46743	39.02
1.48410	39.01
1.50077	39.01
1.51743	39.01
1.53410	39.01
1.55077	39.01
1.56743	39.01
1.58410	39.01
1.60077	39.01
1.61743	39.00
1.63410	38.99
1.65077	38.97
1.66743	38.94
1.68410	38.90
1.70077	38.87
1.71743	38.84
1.73410	38.80
1.75077	38.77
1.76743	38.74
1.78410	38.71
1.80077	38.68
1.81743	38.65
1.83410	38.62
1.85077	38.58
1.86743	38.56
1.88410	38.52
1.90077	38.49
1.91743	38.46
1.93410	38.43
1.95077	38.40
1.96743	38.37
1.98410	38.34
2.00077	38.31
2.01743	38.28
2.03410	38.25
2.05077	38.22
2.06743	38.19
2.08410	38.16
2.10077	38.13
2.11743	38.10
2.13410	38.07
2.15077	38.04
2.16743	38.01
2.18410	37.98
2.20077	37.95
2.21743	37.92
2.23410	37.89
2.25077	37.86
2.26743	37.83
2.28410	37.80
2.30077	37.77
2.31743	37.75
2.33410	37.72
2.35077	37.69
2.36743	37.67
2.38410	37.65
2.40077	37.65
2.41743	37.65
2.43410	37.65
2.45077	37.65
2.46743	37.65
2.48410	37.65
2.50077	37.65
2.51743	37.64
2.53410	37.64
2.55077	37.65
2.56743	37.65
2.58410	37.64
2.60077	37.64
2.61743	37.64
2.63410	37.64
2.65077	37.64
2.66743	37.64
2.68410	37.64
2.70077	37.64
2.71743	37.64
2.73410	37.64
2.75077	37.64
2.76743	37.64
2.78410	37.64
2.80077	37.64
2.81743	37.64
2.83410	37.64
2.85077	37.64
2.86743	37.64
2.88410	37.63
2.90077	37.63
2.91743	37.63
2.93410	37.63
2.95077	37.63
2.96743	37.63
2.98410	37.63
3.00077	37.63
3.01743	37.63
3.03410	37.63
3.05077	37.63
3.06743	37.63
3.08410	37.63
3.10077	37.62
3.11743	37.62
3.13410	37.62
3.15077	37.62
3.16743	37.62
3.18410	37.62
3.20077	37.62
3.21743	37.62
3.23410	37.62
3.25077	37.62
3.26743	37.62
3.28410	37.62
3.30077	37.62
3.31743	37.62
3.33410	37.62
3.35077	37.62
3.36743	37.62
3.38410	37.62
3.40077	37.62
3.41743	37.62
3.43410	37.62
3.45077	37.62
3.46743	37.62
3.48410	37.62
3.50077	37.62
3.51743	37.62
3.53410	37.62
3.55077	37.62
3.56743	37.62
3.58410	37.62
3.60077	37.62
3.61743	37.62
3.63410	37.62
3.65077	37.62
3.66743	37.62
3.68410	37.62
3.70077	37.62
3.71743	37.62
3.73410	37.62
3.75077	37.62
3.76743	37.62
3.78410	37.62
3.80077	37.62
3.81743	37.62
3.83410	37.62
3.85077	37.62
3.86743	37.62
3.88410	37.62
3.90077	37.63
3.91743	37.63
3.93410	37.62
3.95077	37.63
3.96743	37.63
3.98410	37.62

