[Header]
Application Name	LabSolutions
Version	5.110
Data File Name	C:\Users\User\Desktop\GC Analyses\Jack\UIC Prairie Sampling\8.12.22\220812_035.gcd
Output Date	10/14/2022
Output Time	2:33:52 PM

[File Information]
Type	Data File
Generated	10/10/2022 1:33:34 PM
Generated by	System Administrator
Modified	10/10/2022 1:38:02 PM
Modified by	System Administrator

[Sample Information]
Operator Name	System Administrator
Acquired	10/10/2022 1:34:00 PM
Sample Type	1:Standard
Level	1
Sample Name	220812_UICPrairie
Sample ID	220812_UICPrairie
ISTD Amount1	1
ISTD Amount2	1
ISTD Amount3	1
ISTD Amount4	1
ISTD Amount5	1
ISTD Amount6	1
ISTD Amount7	1
ISTD Amount8	1
ISTD Amount9	1
ISTD Amount10	1
ISTD Amount11	1
ISTD Amount12	1
ISTD Amount13	1
ISTD Amount14	1
ISTD Amount15	1
ISTD Amount16	1
ISTD Amount17	1
ISTD Amount18	1
ISTD Amount19	1
ISTD Amount20	1
ISTD Amount21	1
ISTD Amount22	1
ISTD Amount23	1
ISTD Amount24	1
ISTD Amount25	1
ISTD Amount26	1
ISTD Amount27	1
ISTD Amount28	1
ISTD Amount29	1
ISTD Amount30	1
ISTD Amount31	1
ISTD Amount32	1
Sample Amount	1
Dilution Factor	1
Vial#	1
Injection Volume	1
Injection Count	1
Bar Code	

[Original Files]
Data File	C:\Users\User\Desktop\GC Analyses\Jack\UIC Prairie Sampling\8.12.22\220812_035.gcd
Method File	C:\LabSolutions\Data\GHG_4min_2022\ghg3_togas_w_acet_4 min_new_int.gcm
Batch File	
Report Format File	c:\LabSolutions\System\DEFAULT.lsr

[File Description]


[Configuration]
Instrument Name	C0B7VH3-Instrument1
Instrument #	1
Line #	1
# of Detectors	3
Detector ID	DET#1	DET#2	DET#3
Detector Name	FID	PTCD	ECD
# of Channels	1	1	1

[Peak Table(Ch1)]
# of Peaks	4
Peak#	R.Time	I.Time	F.Time	Area	Height	A/H	Conc.	Mark	ID#	Name	k'	Plate #	Plate Ht.	Tailing	Resolution	Sep.Factor	Area Ratio	Height Ratio	Conc. %	Norm Conc.
1	1.479	1.439	1.538	12806	5605	2.285	100.000	   	1	CO	0.000	8006	18.736	1.187	0.000	0.000	0	0	14.286	14.286
2	1.571	1.538	1.630	4573	2282	2.004	100.000	 V 	2	CH4	0.062	11217	13.373	1.204	1.461	0.000	0	0	14.286	14.286
3	2.000	1.952	2.271	1922128	939146	2.047	400.000	   	3	CO2	0.352	17572	8.536	1.245	7.169	5.680	0	0	57.143	57.143
4	3.294	3.133	3.690	3745	213	17.555	100.000	   	6	Ethane	1.227	1473	101.799	1.847	6.413	3.486	0	0	14.286	14.286

[Peak Table(Ch2)]
# of Peaks	0

[Peak Table(Ch3)]
# of Peaks	4
Peak#	R.Time	I.Time	F.Time	Area	Height	A/H	Conc.	Mark	ID#	Name	k'	Plate #	Plate Ht.	Tailing	Resolution	Sep.Factor	Area Ratio	Height Ratio	Conc. %	Norm Conc.
1	2.451	0.574	2.587	23651	505	46.864	0.000	   			0.000	13	11172.178	0.000	0.000	0.000	0	0	0.000	0.000
2	2.590	2.587	2.649	712	327	2.178	0.000	 V 			0.057	228	659.149	0.000	0.083	0.000	0	0	0.000	0.000
3	2.884	2.660	3.800	26336	5044	5.221	1.000	S  	1	N2O	0.177	12586	11.918	1.696	0.743	3.105	0	0	50.000	50.000
4	3.309	3.214	3.426	155	18	8.405	1.000	T  	2	SF6	0.350	3730	40.213	1.117	2.662	1.983	0	0	50.000	50.000

[Compound Results(Ch1)]
# of IDs	6
ID#	Name	R.Time	Area	Height	Conc.	Curve	3rd	2nd	1st	Constant	Area Ratio	Height Ratio	Conc. %	Norm Conc.
1	CO	1.479	12806	5605	100.000	Linear	0.000000e+00	0.000000e+00	1.280588e+002	0.000000e+00	0	0	14.286	14.286
2	CH4	1.571	4573	2282	100.000	Linear	0.000000e+00	0.000000e+00	4.572985e+001	0.000000e+00	0	0	14.286	14.286
3	CO2	2.000	1922128	939146	400.000	Linear	0.000000e+00	0.000000e+00	4.805321e+003	0.000000e+00	0	0	57.143	57.143
4	Ethylene	0.000	0	0	0.000	Linear	0.000000e+00	0.000000e+00	0.000000e+00	0.000000e+00	0	0	0.000	0.000
5	Acetylene	0.000	0	0	0.000	Linear	0.000000e+00	0.000000e+00	0.000000e+00	0.000000e+00	0	0	0.000	0.000
6	Ethane	3.294	3745	213	100.000	Linear	0.000000e+00	0.000000e+00	3.744903e+001	0.000000e+00	0	0	14.286	14.286

[Compound Results(Ch2)]
# of IDs	5
ID#	Name	R.Time	Area	Height	Conc.	Curve	3rd	2nd	1st	Constant	Area Ratio	Height Ratio	Conc. %	Norm Conc.
1	Hydrogen	0.000	0	0	0.000	Linear	0.000000e+00	0.000000e+00	0.000000e+00	0.000000e+00	0	0	0.000	0.000
2	Oxygen	0.000	0	0	0.000	Linear	0.000000e+00	0.000000e+00	0.000000e+00	0.000000e+00	0	0	0.000	0.000
3	Nitrogen	0.000	0	0	0.000	Linear	0.000000e+00	0.000000e+00	0.000000e+00	0.000000e+00	0	0	0.000	0.000
4	Methane	0.000	0	0	0.000	Linear	0.000000e+00	0.000000e+00	0.000000e+00	0.000000e+00	0	0	0.000	0.000
5	Carbon Monoxide	0.000	0	0	0.000	Linear	0.000000e+00	0.000000e+00	0.000000e+00	0.000000e+00	0	0	0.000	0.000

[Compound Results(Ch3)]
# of IDs	2
ID#	Name	R.Time	Area	Height	Conc.	Curve	3rd	2nd	1st	Constant	Area Ratio	Height Ratio	Conc. %	Norm Conc.
1	N2O	2.884	26336	5044	1.000	Linear	0.000000e+00	0.000000e+00	2.633598e+004	0.000000e+00	0	0	50.000	50.000
2	SF6	3.309	155	18	1.000	Linear	0.000000e+00	0.000000e+00	1.552146e+002	0.000000e+00	0	0	50.000	50.000

[Group Results(Ch1)]
# of Groups	0

[Group Results(Ch2)]
# of Groups	0

[Group Results(Ch3)]
# of Groups	0

[Chromatogram (Ch1)]
Interval(msec)	220
# of Points	1091
Start Time(min)	0.002
End Time(min)	3.998
R.Time (min)	Intensity
0.00167	-10
0.00533	-8
0.00900	-6
0.01267	-2
0.01633	2
0.02000	3
0.02367	-1
0.02733	-8
0.03100	-18
0.03467	-26
0.03833	-30
0.04200	-28
0.04567	-19
0.04933	-10
0.05300	-3
0.05667	-1
0.06033	-3
0.06400	-9
0.06767	-14
0.07133	-15
0.07500	-14
0.07867	-14
0.08233	-13
0.08600	-8
0.08967	-1
0.09333	6
0.09700	10
0.10067	10
0.10433	6
0.10800	1
0.11167	-5
0.11533	-11
0.11900	-20
0.12267	-26
0.12633	-29
0.13000	-26
0.13367	-21
0.13733	-18
0.14100	-15
0.14467	-13
0.14833	-11
0.15200	-11
0.15567	-12
0.15933	-12
0.16300	-10
0.16667	-8
0.17033	-6
0.17400	-4
0.17767	-5
0.18133	-9
0.18500	-11
0.18867	-10
0.19233	-8
0.19600	-6
0.19967	-8
0.20333	-12
0.20700	-15
0.21067	-20
0.21433	-23
0.21800	-26
0.22167	-24
0.22533	-20
0.22900	-16
0.23267	-15
0.23633	-16
0.24000	-17
0.24367	-15
0.24733	-10
0.25100	-9
0.25467	-11
0.25833	-13
0.26200	-14
0.26567	-17
0.26933	-18
0.27300	-17
0.27667	-14
0.28033	-8
0.28400	-1
0.28767	5
0.29133	9
0.29500	8
0.29867	1
0.30233	-11
0.30600	-22
0.30967	-31
0.31333	-38
0.31700	-43
0.32067	-47
0.32433	-45
0.32800	-39
0.33167	-32
0.33533	-27
0.33900	-26
0.34267	-24
0.34633	-20
0.35000	-13
0.35367	-8
0.35733	-10
0.36100	-17
0.36467	-27
0.36833	-33
0.37200	-36
0.37567	-36
0.37933	-31
0.38300	-24
0.38667	-17
0.39033	-11
0.39400	-9
0.39767	-11
0.40133	-15
0.40500	-18
0.40867	-20
0.41233	-21
0.41600	-25
0.41967	-32
0.42333	-38
0.42700	-43
0.43067	-45
0.43433	-45
0.43800	-43
0.44167	-41
0.44533	-38
0.44900	-31
0.45267	-23
0.45633	-12
0.46000	-3
0.46367	1
0.46733	1
0.47100	-2
0.47467	-8
0.47833	-14
0.48200	-15
0.48567	-14
0.48933	-13
0.49300	-14
0.49667	-18
0.50033	-22
0.50400	-25
0.50767	-28
0.51133	-30
0.51500	-31
0.51867	-31
0.52233	-32
0.52600	-32
0.52967	-31
0.53333	-31
0.53700	-29
0.54067	-20
0.54433	-14
0.54800	-10
0.55167	-9
0.55533	-10
0.55900	-12
0.56267	-13
0.56633	-19
0.57000	-34
0.57367	-37
0.57733	-39
0.58100	-39
0.58467	-36
0.58833	-33
0.59200	-31
0.59567	-33
0.59933	-39
0.60300	-44
0.60667	-47
0.61033	-46
0.61400	-42
0.61767	-32
0.62133	-22
0.62500	-16
0.62867	-15
0.63233	-23
0.63600	-32
0.63967	-38
0.64333	-41
0.64700	-45
0.65067	-47
0.65433	-46
0.65800	-42
0.66167	-37
0.66533	-33
0.66900	-30
0.67267	-31
0.67633	-33
0.68000	-32
0.68367	-30
0.68733	-32
0.69100	-36
0.69467	-39
0.69833	-38
0.70200	-38
0.70567	-36
0.70933	-35
0.71300	-38
0.71667	-42
0.72033	-45
0.72400	-40
0.72767	-31
0.73133	-24
0.73500	-22
0.73867	-22
0.74233	-24
0.74600	-27
0.74967	-33
0.75333	-38
0.75700	-39
0.76067	-38
0.76433	-41
0.76800	-44
0.77167	-41
0.77533	-35
0.77900	-32
0.78267	-37
0.78633	-47
0.79000	-57
0.79367	-62
0.79733	-61
0.80100	-59
0.80467	-53
0.80833	-48
0.81200	-41
0.81567	-34
0.81933	-30
0.82300	-26
0.82667	-20
0.83033	-17
0.83400	-14
0.83767	-16
0.84133	-25
0.84500	-36
0.84867	-48
0.85233	-55
0.85600	-56
0.85967	-54
0.86333	-50
0.86700	-46
0.87067	-44
0.87433	-47
0.87800	-50
0.88167	-50
0.88533	-49
0.88900	-47
0.89267	-45
0.89633	-43
0.90000	-41
0.90367	-40
0.90733	-41
0.91100	-43
0.91467	-44
0.91833	-42
0.92200	-40
0.92567	-38
0.92933	-34
0.93300	-29
0.93667	-27
0.94033	-30
0.94400	-37
0.94767	-43
0.95133	-45
0.95500	-43
0.95867	-41
0.96233	-41
0.96600	-42
0.96967	-42
0.97333	-44
0.97700	-46
0.98067	-49
0.98433	-51
0.98800	-50
0.99167	-47
0.99533	-44
0.99900	-42
1.00267	-39
1.00633	-36
1.01000	-34
1.01367	-35
1.01733	-38
1.02100	-44
1.02467	-50
1.02833	-53
1.03200	-51
1.03567	-51
1.03933	-51
1.04300	-50
1.04667	-48
1.05033	-46
1.05400	-44
1.05767	-42
1.06133	-36
1.06500	-32
1.06867	-30
1.07233	-30
1.07600	-31
1.07967	-35
1.08333	-39
1.08700	-37
1.09067	-31
1.09433	-28
1.09800	-30
1.10167	-35
1.10533	-42
1.10900	-48
1.11267	-51
1.11633	-54
1.12000	-55
1.12367	-57
1.12733	-61
1.13100	-62
1.13467	-60
1.13833	-58
1.14200	-55
1.14567	-48
1.14933	-41
1.15300	-38
1.15667	-40
1.16033	-45
1.16400	-49
1.16767	-54
1.17133	-59
1.17500	-63
1.17867	-64
1.18233	-63
1.18600	-60
1.18967	-57
1.19333	-58
1.19700	-61
1.20067	-64
1.20433	-63
1.20800	-64
1.21167	-66
1.21533	-68
1.21900	-69
1.22267	-70
1.22633	-72
1.23000	-77
1.23367	-81
1.23733	-85
1.24100	-86
1.24467	-83
1.24833	-79
1.25200	-76
1.25567	-72
1.25933	-66
1.26300	-61
1.26667	-59
1.27033	-61
1.27400	-64
1.27767	-68
1.28133	-72
1.28500	-73
1.28867	-71
1.29233	-67
1.29600	-61
1.29967	-55
1.30333	-52
1.30700	-53
1.31067	-57
1.31433	-62
1.31800	-66
1.32167	-67
1.32533	-66
1.32900	-64
1.33267	-61
1.33633	-57
1.34000	-54
1.34367	-55
1.34733	-59
1.35100	-63
1.35467	-66
1.35833	-67
1.36200	-67
1.36567	-66
1.36933	-60
1.37300	-53
1.37667	-47
1.38033	-41
1.38400	-38
1.38767	-42
1.39133	-52
1.39500	-64
1.39867	-74
1.40233	-79
1.40600	-79
1.40967	-77
1.41333	-77
1.41700	-81
1.42067	-88
1.42433	-95
1.42800	-96
1.43167	-95
1.43533	-96
1.43900	-96
1.44267	-59
1.44633	102
1.45000	458
1.45367	1017
1.45733	1805
1.46100	2767
1.46467	3734
1.46833	4553
1.47200	5141
1.47567	5467
1.47933	5511
1.48300	5254
1.48667	4711
1.49033	3970
1.49400	3166
1.49767	2414
1.50133	1779
1.50500	1282
1.50867	910
1.51233	639
1.51600	443
1.51967	299
1.52333	193
1.52700	116
1.53067	59
1.53433	18
1.53800	-9
1.54167	-7
1.54533	60
1.54900	251
1.55267	589
1.55633	1019
1.56000	1449
1.56367	1809
1.56733	2064
1.57100	2193
1.57467	2164
1.57833	1966
1.58200	1644
1.58567	1270
1.58933	915
1.59300	619
1.59667	394
1.60033	233
1.60400	125
1.60767	55
1.61133	11
1.61500	-18
1.61867	-40
1.62233	-59
1.62600	-76
1.62967	-86
1.63333	-88
1.63700	-87
1.64067	-84
1.64433	-81
1.64800	-80
1.65167	-81
1.65533	-84
1.65900	-85
1.66267	-86
1.66633	-87
1.67000	-90
1.67367	-93
1.67733	-95
1.68100	-98
1.68467	-100
1.68833	-105
1.69200	-112
1.69567	-116
1.69933	-115
1.70300	-107
1.70667	-97
1.71033	-91
1.71400	-89
1.71767	-91
1.72133	-92
1.72500	-90
1.72867	-90
1.73233	-89
1.73600	-89
1.73967	-93
1.74333	-99
1.74700	-103
1.75067	-100
1.75433	-93
1.75800	-88
1.76167	-87
1.76533	-85
1.76900	-83
1.77267	-80
1.77633	-78
1.78000	-74
1.78367	-72
1.78733	-71
1.79100	-73
1.79467	-77
1.79833	-79
1.80200	-81
1.80567	-84
1.80933	-87
1.81300	-86
1.81667	-86
1.82033	-85
1.82400	-82
1.82767	-77
1.83133	-72
1.83500	-69
1.83867	-68
1.84233	-71
1.84600	-78
1.84967	-86
1.85333	-88
1.85700	-85
1.86067	-79
1.86433	-73
1.86800	-72
1.87167	-75
1.87533	-80
1.87900	-84
1.88267	-83
1.88633	-82
1.89000	-80
1.89367	-80
1.89733	-80
1.90100	-80
1.90467	-79
1.90833	-78
1.91200	-79
1.91567	-82
1.91933	-85
1.92300	-84
1.92667	-77
1.93033	-70
1.93400	-66
1.93767	-65
1.94133	-68
1.94500	-71
1.94867	-73
1.95233	-70
1.95600	-44
1.95967	144
1.96333	1213
1.96700	5974
1.97067	22127
1.97433	64276
1.97800	149547
1.98167	284760
1.98533	456369
1.98900	635184
1.99267	789697
1.99633	895960
2.00000	939124
2.00367	914777
2.00733	830897
2.01100	706085
2.01467	564555
2.01833	428251
2.02200	311353
2.02567	219312
2.02933	151210
2.03300	102999
2.03667	69887
2.04033	47588
2.04400	32736
2.04767	22889
2.05133	16348
2.05500	11969
2.05867	8998
2.06233	6946
2.06600	5499
2.06967	4458
2.07333	3694
2.07700	3122
2.08067	2684
2.08433	2342
2.08800	2067
2.09167	1843
2.09533	1661
2.09900	1510
2.10267	1381
2.10633	1269
2.11000	1171
2.11367	1086
2.11733	1007
2.12100	934
2.12467	872
2.12833	819
2.13200	775
2.13567	736
2.13933	701
2.14300	670
2.14667	643
2.15033	614
2.15400	584
2.15767	558
2.16133	538
2.16500	528
2.16867	521
2.17233	513
2.17600	498
2.17967	480
2.18333	462
2.18700	445
2.19067	426
2.19433	405
2.19800	385
2.20167	365
2.20533	348
2.20900	336
2.21267	328
2.21633	322
2.22000	318
2.22367	315
2.22733	315
2.23100	312
2.23467	306
2.23833	296
2.24200	286
2.24567	276
2.24933	266
2.25300	257
2.25667	251
2.26033	248
2.26400	248
2.26767	249
2.27133	250
2.27500	251
2.27867	252
2.28233	254
2.28600	256
2.28967	257
2.29333	255
2.29700	250
2.30067	242
2.30433	235
2.30800	230
2.31167	227
2.31533	221
2.31900	215
2.32267	214
2.32633	212
2.33000	209
2.33367	208
2.33733	208
2.34100	206
2.34467	202
2.34833	200
2.35200	201
2.35567	206
2.35933	211
2.36300	211
2.36667	206
2.37033	203
2.37400	199
2.37767	196
2.38133	193
2.38500	194
2.38867	195
2.39233	195
2.39600	195
2.39967	197
2.40333	196
2.40700	192
2.41067	190
2.41433	189
2.41800	188
2.42167	187
2.42533	187
2.42900	187
2.43267	188
2.43633	188
2.44000	188
2.44367	186
2.44733	184
2.45100	180
2.45467	177
2.45833	179
2.46200	181
2.46567	177
2.46933	173
2.47300	173
2.47667	178
2.48033	182
2.48400	178
2.48767	166
2.49133	152
2.49500	140
2.49867	133
2.50233	128
2.50600	122
2.50967	119
2.51333	122
2.51700	129
2.52067	134
2.52433	139
2.52800	142
2.53167	142
2.53533	139
2.53900	132
2.54267	126
2.54633	125
2.55000	126
2.55367	129
2.55733	136
2.56100	146
2.56467	155
2.56833	159
2.57200	158
2.57567	152
2.57933	142
2.58300	131
2.58667	123
2.59033	119
2.59400	119
2.59767	122
2.60133	125
2.60500	124
2.60867	118
2.61233	112
2.61600	112
2.61967	116
2.62333	119
2.62700	120
2.63067	123
2.63433	125
2.63800	129
2.64167	132
2.64533	136
2.64900	139
2.65267	145
2.65633	150
2.66000	155
2.66367	157
2.66733	153
2.67100	144
2.67467	136
2.67833	132
2.68200	130
2.68567	128
2.68933	127
2.69300	125
2.69667	122
2.70033	119
2.70400	115
2.70767	111
2.71133	107
2.71500	106
2.71867	108
2.72233	115
2.72600	123
2.72967	129
2.73333	133
2.73700	134
2.74067	131
2.74433	126
2.74800	121
2.75167	121
2.75533	124
2.75900	126
2.76267	126
2.76633	125
2.77000	125
2.77367	123
2.77733	121
2.78100	120
2.78467	122
2.78833	126
2.79200	131
2.79567	135
2.79933	136
2.80300	134
2.80667	132
2.81033	133
2.81400	135
2.81767	140
2.82133	147
2.82500	152
2.82867	155
2.83233	154
2.83600	148
2.83967	142
2.84333	135
2.84700	129
2.85067	123
2.85433	116
2.85800	110
2.86167	104
2.86533	102
2.86900	103
2.87267	106
2.87633	110
2.88000	113
2.88367	117
2.88733	121
2.89100	124
2.89467	126
2.89833	126
2.90200	126
2.90567	128
2.90933	131
2.91300	136
2.91667	142
2.92033	145
2.92400	146
2.92767	147
2.93133	146
2.93500	142
2.93867	135
2.94233	132
2.94600	132
2.94967	134
2.95333	137
2.95700	136
2.96067	136
2.96433	137
2.96800	137
2.97167	137
2.97533	133
2.97900	124
2.98267	115
2.98633	107
2.99000	105
2.99367	112
2.99733	124
3.00100	132
3.00467	135
3.00833	132
3.01200	126
3.01567	124
3.01933	125
3.02300	125
3.02667	124
3.03033	124
3.03400	126
3.03767	128
3.04133	127
3.04500	122
3.04867	118
3.05233	120
3.05600	126
3.05967	132
3.06333	134
3.06700	134
3.07067	132
3.07433	127
3.07800	123
3.08167	122
3.08533	122
3.08900	121
3.09267	119
3.09633	115
3.10000	113
3.10367	113
3.10733	112
3.11100	109
3.11467	105
3.11833	105
3.12200	106
3.12567	108
3.12933	110
3.13300	113
3.13667	119
3.14033	122
3.14400	123
3.14767	124
3.15133	129
3.15500	136
3.15867	140
3.16233	142
3.16600	143
3.16967	142
3.17333	140
3.17700	142
3.18067	145
3.18433	159
3.18800	203
3.19167	245
3.19533	273
3.19900	291
3.20267	304
3.20633	312
3.21000	316
3.21367	322
3.21733	329
3.22100	332
3.22467	333
3.22833	333
3.23200	336
3.23567	340
3.23933	343
3.24300	346
3.24667	349
3.25033	349
3.25400	348
3.25767	346
3.26133	342
3.26500	339
3.26867	338
3.27233	339
3.27600	340
3.27967	343
3.28333	349
3.28700	353
3.29067	355
3.29433	358
3.29800	359
3.30167	356
3.30533	349
3.30900	341
3.31267	337
3.31633	337
3.32000	337
3.32367	339
3.32733	345
3.33100	347
3.33467	346
3.33833	342
3.34200	335
3.34567	328
3.34933	323
3.35300	321
3.35667	318
3.36033	317
3.36400	318
3.36767	320
3.37133	321
3.37500	321
3.37867	320
3.38233	323
3.38600	327
3.38967	328
3.39333	323
3.39700	316
3.40067	308
3.40433	303
3.40800	305
3.41167	312
3.41533	318
3.41900	317
3.42267	313
3.42633	308
3.43000	302
3.43367	295
3.43733	290
3.44100	286
3.44467	283
3.44833	285
3.45200	290
3.45567	295
3.45933	299
3.46300	303
3.46667	303
3.47033	297
3.47400	291
3.47767	287
3.48133	284
3.48500	282
3.48867	282
3.49233	280
3.49600	277
3.49967	273
3.50333	271
3.50700	272
3.51067	276
3.51433	280
3.51800	284
3.52167	286
3.52533	284
3.52900	279
3.53267	275
3.53633	271
3.54000	266
3.54367	262
3.54733	259
3.55100	258
3.55467	260
3.55833	260
3.56200	258
3.56567	256
3.56933	254
3.57300	256
3.57667	262
3.58033	271
3.58400	272
3.58767	267
3.59133	261
3.59500	256
3.59867	252
3.60233	249
3.60600	249
3.60967	253
3.61333	254
3.61700	251
3.62067	250
3.62433	252
3.62800	258
3.63167	264
3.63533	265
3.63900	256
3.64267	246
3.64633	238
3.65000	234
3.65367	237
3.65733	241
3.66100	243
3.66467	243
3.66833	241
3.67200	239
3.67567	235
3.67933	233
3.68300	232
3.68667	227
3.69033	223
3.69400	220
3.69767	217
3.70133	212
3.70500	209
3.70867	213
3.71233	220
3.71600	222
3.71967	224
3.72333	227
3.72700	227
3.73067	226
3.73433	225
3.73800	227
3.74167	232
3.74533	240
3.74900	248
3.75267	252
3.75633	250
3.76000	242
3.76367	236
3.76733	233
3.77100	233
3.77467	231
3.77833	222
3.78200	216
3.78567	214
3.78933	214
3.79300	217
3.79667	221
3.80033	223
3.80400	222
3.80767	220
3.81133	217
3.81500	216
3.81867	218
3.82233	218
3.82600	215
3.82967	213
3.83333	214
3.83700	216
3.84067	219
3.84433	222
3.84800	222
3.85167	222
3.85533	221
3.85900	219
3.86267	217
3.86633	220
3.87000	226
3.87367	231
3.87733	230
3.88100	226
3.88467	222
3.88833	220
3.89200	216
3.89567	212
3.89933	208
3.90300	204
3.90667	198
3.91033	195
3.91400	197
3.91767	198
3.92133	199
3.92500	198
3.92867	195
3.93233	192
3.93600	188
3.93967	188
3.94333	189
3.94700	189
3.95067	189
3.95433	193
3.95800	195
3.96167	194
3.96533	194
3.96900	194
3.97267	195
3.97633	198
3.98000	201
3.98367	204
3.98733	207
3.99100	208
3.99467	209
3.99833	207

[Chromatogram (Ch2)]
Interval(msec)	220
# of Points	1091
Start Time(min)	0.002
End Time(min)	3.998
R.Time (min)	Intensity
0.00167	-1
0.00533	-1
0.00900	-1
0.01267	-2
0.01633	-2
0.02000	-3
0.02367	-3
0.02733	-3
0.03100	-3
0.03467	-3
0.03833	-2
0.04200	-2
0.04567	-2
0.04933	-2
0.05300	-2
0.05667	-2
0.06033	-2
0.06400	-2
0.06767	-2
0.07133	-2
0.07500	-2
0.07867	-2
0.08233	-2
0.08600	-2
0.08967	-2
0.09333	-2
0.09700	-2
0.10067	-2
0.10433	-2
0.10800	-1
0.11167	-1
0.11533	-1
0.11900	-0
0.12267	0
0.12633	0
0.13000	1
0.13367	1
0.13733	1
0.14100	1
0.14467	1
0.14833	1
0.15200	1
0.15567	1
0.15933	1
0.16300	1
0.16667	1
0.17033	1
0.17400	2
0.17767	2
0.18133	2
0.18500	2
0.18867	2
0.19233	2
0.19600	2
0.19967	3
0.20333	3
0.20700	3
0.21067	3
0.21433	3
0.21800	2
0.22167	2
0.22533	3
0.22900	3
0.23267	3
0.23633	3
0.24000	3
0.24367	3
0.24733	2
0.25100	2
0.25467	1
0.25833	1
0.26200	0
0.26567	0
0.26933	-0
0.27300	-0
0.27667	-0
0.28033	-0
0.28400	-0
0.28767	-1
0.29133	-1
0.29500	-1
0.29867	-1
0.30233	-1
0.30600	-1
0.30967	-1
0.31333	-1
0.31700	-1
0.32067	-1
0.32433	-2
0.32800	-2
0.33167	-2
0.33533	-2
0.33900	-2
0.34267	-2
0.34633	-2
0.35000	-2
0.35367	-2
0.35733	-2
0.36100	-2
0.36467	-2
0.36833	-2
0.37200	-2
0.37567	-2
0.37933	-2
0.38300	-2
0.38667	-2
0.39033	-2
0.39400	-2
0.39767	-2
0.40133	-2
0.40500	-2
0.40867	-2
0.41233	-2
0.41600	-2
0.41967	-2
0.42333	-2
0.42700	-2
0.43067	-2
0.43433	-2
0.43800	-2
0.44167	-2
0.44533	-1
0.44900	-1
0.45267	-1
0.45633	-1
0.46000	-1
0.46367	-0
0.46733	-0
0.47100	0
0.47467	0
0.47833	0
0.48200	0
0.48567	-0
0.48933	-0
0.49300	-0
0.49667	-0
0.50033	-0
0.50400	-0
0.50767	-0
0.51133	-1
0.51500	-1
0.51867	-1
0.52233	-1
0.52600	-1
0.52967	-1
0.53333	-1
0.53700	-1
0.54067	-1
0.54433	-2
0.54800	-2
0.55167	-2
0.55533	-2
0.55900	-2
0.56267	-2
0.56633	-2
0.57000	-3
0.57367	-3
0.57733	-3
0.58100	-3
0.58467	-3
0.58833	-4
0.59200	-4
0.59567	-4
0.59933	-4
0.60300	-4
0.60667	-3
0.61033	-3
0.61400	-3
0.61767	-3
0.62133	-3
0.62500	-3
0.62867	-3
0.63233	-3
0.63600	-3
0.63967	-3
0.64333	-3
0.64700	-2
0.65067	-2
0.65433	-2
0.65800	-2
0.66167	-2
0.66533	-2
0.66900	-2
0.67267	-2
0.67633	-2
0.68000	-2
0.68367	-2
0.68733	-2
0.69100	-2
0.69467	-2
0.69833	-3
0.70200	-3
0.70567	-3
0.70933	-3
0.71300	-3
0.71667	-3
0.72033	-3
0.72400	-3
0.72767	-3
0.73133	-3
0.73500	-3
0.73867	-2
0.74233	-2
0.74600	-2
0.74967	-2
0.75333	-2
0.75700	-2
0.76067	-2
0.76433	-2
0.76800	-2
0.77167	-2
0.77533	-2
0.77900	-2
0.78267	-2
0.78633	-2
0.79000	-3
0.79367	-3
0.79733	-3
0.80100	-3
0.80467	-4
0.80833	-4
0.81200	-4
0.81567	-4
0.81933	-4
0.82300	-4
0.82667	-4
0.83033	-5
0.83400	-5
0.83767	-5
0.84133	-5
0.84500	-5
0.84867	-5
0.85233	-5
0.85600	-5
0.85967	-5
0.86333	-5
0.86700	-4
0.87067	-4
0.87433	-4
0.87800	-3
0.88167	-3
0.88533	-2
0.88900	-2
0.89267	-2
0.89633	-2
0.90000	-2
0.90367	-2
0.90733	-2
0.91100	-2
0.91467	-2
0.91833	-2
0.92200	-2
0.92567	-2
0.92933	-2
0.93300	-2
0.93667	-2
0.94033	-2
0.94400	-2
0.94767	-2
0.95133	-2
0.95500	-2
0.95867	-2
0.96233	-2
0.96600	-2
0.96967	-2
0.97333	-2
0.97700	-2
0.98067	-2
0.98433	-2
0.98800	-2
0.99167	-2
0.99533	-2
0.99900	-2
1.00267	-2
1.00633	-2
1.01000	-2
1.01367	-2
1.01733	-2
1.02100	-2
1.02467	-2
1.02833	-2
1.03200	-2
1.03567	-2
1.03933	-2
1.04300	-3
1.04667	-3
1.05033	-3
1.05400	-3
1.05767	-3
1.06133	-3
1.06500	-3
1.06867	-3
1.07233	-3
1.07600	-3
1.07967	-3
1.08333	-3
1.08700	-2
1.09067	-2
1.09433	-2
1.09800	-2
1.10167	-2
1.10533	-2
1.10900	-2
1.11267	-2
1.11633	-1
1.12000	-2
1.12367	-2
1.12733	-2
1.13100	-1
1.13467	-1
1.13833	-1
1.14200	-1
1.14567	-1
1.14933	-1
1.15300	-1
1.15667	-1
1.16033	-1
1.16400	-1
1.16767	-1
1.17133	-1
1.17500	-1
1.17867	-1
1.18233	-1
1.18600	-2
1.18967	-2
1.19333	-2
1.19700	-2
1.20067	-2
1.20433	-3
1.20800	-3
1.21167	-3
1.21533	-3
1.21900	-3
1.22267	-3
1.22633	-4
1.23000	-4
1.23367	-4
1.23733	-4
1.24100	-4
1.24467	-4
1.24833	-4
1.25200	-4
1.25567	-4
1.25933	-3
1.26300	-3
1.26667	-3
1.27033	-3
1.27400	-2
1.27767	-2
1.28133	-2
1.28500	-2
1.28867	-2
1.29233	-3
1.29600	-3
1.29967	-3
1.30333	-3
1.30700	-3
1.31067	-3
1.31433	-3
1.31800	-3
1.32167	-3
1.32533	-3
1.32900	-3
1.33267	-3
1.33633	-3
1.34000	-3
1.34367	-3
1.34733	-3
1.35100	-3
1.35467	-3
1.35833	-3
1.36200	-3
1.36567	-3
1.36933	-3
1.37300	-3
1.37667	-4
1.38033	-4
1.38400	-4
1.38767	-5
1.39133	-5
1.39500	-5
1.39867	-5
1.40233	-5
1.40600	-4
1.40967	-4
1.41333	-4
1.41700	-4
1.42067	-4
1.42433	-4
1.42800	-4
1.43167	-4
1.43533	-4
1.43900	-4
1.44267	-5
1.44633	-4
1.45000	-4
1.45367	-4
1.45733	-4
1.46100	-4
1.46467	-4
1.46833	-4
1.47200	-5
1.47567	-5
1.47933	-5
1.48300	-5
1.48667	-5
1.49033	-5
1.49400	-5
1.49767	-5
1.50133	-5
1.50500	-5
1.50867	-5
1.51233	-4
1.51600	-4
1.51967	-4
1.52333	-4
1.52700	-3
1.53067	-3
1.53433	-3
1.53800	-3
1.54167	-3
1.54533	-3
1.54900	-3
1.55267	-2
1.55633	-2
1.56000	-2
1.56367	-1
1.56733	-1
1.57100	-1
1.57467	-1
1.57833	-1
1.58200	-1
1.58567	-1
1.58933	-2
1.59300	-2
1.59667	-3
1.60033	-4
1.60400	-5
1.60767	-6
1.61133	-8
1.61500	-10
1.61867	-13
1.62233	-15
1.62600	-18
1.62967	-22
1.63333	-25
1.63700	-28
1.64067	-31
1.64433	-35
1.64800	-38
1.65167	-42
1.65533	-45
1.65900	-49
1.66267	-53
1.66633	-57
1.67000	-62
1.67367	-67
1.67733	-72
1.68100	-77
1.68467	-82
1.68833	-87
1.69200	-91
1.69567	-95
1.69933	-98
1.70300	-101
1.70667	-103
1.71033	-105
1.71400	-107
1.71767	-108
1.72133	-110
1.72500	-111
1.72867	-112
1.73233	-113
1.73600	-114
1.73967	-115
1.74333	-116
1.74700	-117
1.75067	-118
1.75433	-119
1.75800	-120
1.76167	-121
1.76533	-121
1.76900	-122
1.77267	-122
1.77633	-122
1.78000	-122
1.78367	-122
1.78733	-122
1.79100	-122
1.79467	-122
1.79833	-122
1.80200	-122
1.80567	-122
1.80933	-123
1.81300	-123
1.81667	-123
1.82033	-123
1.82400	-123
1.82767	-123
1.83133	-123
1.83500	-123
1.83867	-123
1.84233	-123
1.84600	-123
1.84967	-123
1.85333	-124
1.85700	-124
1.86067	-124
1.86433	-124
1.86800	-124
1.87167	-124
1.87533	-124
1.87900	-124
1.88267	-124
1.88633	-124
1.89000	-124
1.89367	-124
1.89733	-123
1.90100	-123
1.90467	-122
1.90833	-122
1.91200	-121
1.91567	-121
1.91933	-120
1.92300	-120
1.92667	-120
1.93033	-120
1.93400	-120
1.93767	-120
1.94133	-120
1.94500	-120
1.94867	-119
1.95233	-119
1.95600	-119
1.95967	-118
1.96333	-118
1.96700	-118
1.97067	-118
1.97433	-118
1.97800	-118
1.98167	-118
1.98533	-117
1.98900	-118
1.99267	-118
1.99633	-118
2.00000	-118
2.00367	-117
2.00733	-117
2.01100	-116
2.01467	-116
2.01833	-116
2.02200	-115
2.02567	-115
2.02933	-115
2.03300	-114
2.03667	-113
2.04033	-112
2.04400	-112
2.04767	-111
2.05133	-110
2.05500	-109
2.05867	-109
2.06233	-109
2.06600	-110
2.06967	-110
2.07333	-110
2.07700	-109
2.08067	-109
2.08433	-108
2.08800	-108
2.09167	-108
2.09533	-108
2.09900	-108
2.10267	-107
2.10633	-107
2.11000	-106
2.11367	-105
2.11733	-105
2.12100	-105
2.12467	-105
2.12833	-105
2.13200	-105
2.13567	-105
2.13933	-105
2.14300	-104
2.14667	-103
2.15033	-103
2.15400	-102
2.15767	-102
2.16133	-102
2.16500	-102
2.16867	-102
2.17233	-103
2.17600	-102
2.17967	-102
2.18333	-102
2.18700	-101
2.19067	-101
2.19433	-100
2.19800	-99
2.20167	-99
2.20533	-98
2.20900	-98
2.21267	-98
2.21633	-98
2.22000	-98
2.22367	-98
2.22733	-98
2.23100	-99
2.23467	-99
2.23833	-99
2.24200	-98
2.24567	-97
2.24933	-96
2.25300	-96
2.25667	-95
2.26033	-95
2.26400	-95
2.26767	-95
2.27133	-95
2.27500	-95
2.27867	-95
2.28233	-94
2.28600	-94
2.28967	-94
2.29333	-94
2.29700	-94
2.30067	-94
2.30433	-94
2.30800	-94
2.31167	-93
2.31533	-92
2.31900	-91
2.32267	-90
2.32633	-89
2.33000	-89
2.33367	-88
2.33733	-87
2.34100	-87
2.34467	-86
2.34833	-85
2.35200	-85
2.35567	-85
2.35933	-85
2.36300	-85
2.36667	-85
2.37033	-85
2.37400	-84
2.37767	-83
2.38133	-81
2.38500	-78
2.38867	-75
2.39233	-71
2.39600	-67
2.39967	-62
2.40333	-57
2.40700	-52
2.41067	-47
2.41433	-42
2.41800	-37
2.42167	-33
2.42533	-29
2.42900	-25
2.43267	-22
2.43633	-20
2.44000	-18
2.44367	-16
2.44733	-14
2.45100	-13
2.45467	-12
2.45833	-10
2.46200	-9
2.46567	-7
2.46933	-6
2.47300	-4
2.47667	-3
2.48033	-2
2.48400	-1
2.48767	-0
2.49133	1
2.49500	1
2.49867	2
2.50233	3
2.50600	4
2.50967	5
2.51333	6
2.51700	7
2.52067	8
2.52433	9
2.52800	10
2.53167	10
2.53533	11
2.53900	11
2.54267	11
2.54633	12
2.55000	12
2.55367	13
2.55733	13
2.56100	13
2.56467	14
2.56833	14
2.57200	14
2.57567	15
2.57933	15
2.58300	15
2.58667	14
2.59033	14
2.59400	14
2.59767	13
2.60133	13
2.60500	13
2.60867	13
2.61233	13
2.61600	13
2.61967	14
2.62333	14
2.62700	15
2.63067	15
2.63433	16
2.63800	16
2.64167	17
2.64533	17
2.64900	17
2.65267	17
2.65633	17
2.66000	17
2.66367	17
2.66733	17
2.67100	17
2.67467	18
2.67833	18
2.68200	19
2.68567	19
2.68933	19
2.69300	19
2.69667	19
2.70033	19
2.70400	19
2.70767	19
2.71133	19
2.71500	19
2.71867	18
2.72233	18
2.72600	19
2.72967	19
2.73333	19
2.73700	20
2.74067	20
2.74433	20
2.74800	20
2.75167	21
2.75533	21
2.75900	21
2.76267	22
2.76633	22
2.77000	22
2.77367	23
2.77733	23
2.78100	23
2.78467	23
2.78833	24
2.79200	24
2.79567	24
2.79933	24
2.80300	24
2.80667	24
2.81033	24
2.81400	23
2.81767	23
2.82133	23
2.82500	22
2.82867	22
2.83233	22
2.83600	21
2.83967	21
2.84333	21
2.84700	20
2.85067	18
2.85433	15
2.85800	10
2.86167	3
2.86533	-8
2.86900	-22
2.87267	-40
2.87633	-62
2.88000	-89
2.88367	-119
2.88733	-153
2.89100	-191
2.89467	-231
2.89833	-274
2.90200	-320
2.90567	-367
2.90933	-416
2.91300	-466
2.91667	-517
2.92033	-567
2.92400	-617
2.92767	-667
2.93133	-716
2.93500	-765
2.93867	-814
2.94233	-866
2.94600	-924
2.94967	-986
2.95333	-1044
2.95700	-1085
2.96067	-1103
2.96433	-1093
2.96800	-1059
2.97167	-1005
2.97533	-937
2.97900	-861
2.98267	-780
2.98633	-700
2.99000	-622
2.99367	-548
2.99733	-480
3.00100	-418
3.00467	-362
3.00833	-313
3.01200	-269
3.01567	-230
3.01933	-196
3.02300	-167
3.02667	-141
3.03033	-119
3.03400	-100
3.03767	-84
3.04133	-70
3.04500	-58
3.04867	-47
3.05233	-39
3.05600	-31
3.05967	-25
3.06333	-20
3.06700	-16
3.07067	-12
3.07433	-8
3.07800	-6
3.08167	-3
3.08533	-1
3.08900	1
3.09267	2
3.09633	4
3.10000	5
3.10367	6
3.10733	7
3.11100	7
3.11467	8
3.11833	9
3.12200	9
3.12567	9
3.12933	10
3.13300	10
3.13667	11
3.14033	11
3.14400	11
3.14767	11
3.15133	12
3.15500	12
3.15867	12
3.16233	13
3.16600	14
3.16967	14
3.17333	15
3.17700	15
3.18067	16
3.18433	16
3.18800	16
3.19167	17
3.19533	17
3.19900	17
3.20267	17
3.20633	17
3.21000	17
3.21367	18
3.21733	18
3.22100	18
3.22467	18
3.22833	18
3.23200	18
3.23567	18
3.23933	18
3.24300	18
3.24667	18
3.25033	18
3.25400	19
3.25767	19
3.26133	19
3.26500	19
3.26867	19
3.27233	20
3.27600	20
3.27967	20
3.28333	21
3.28700	21
3.29067	22
3.29433	22
3.29800	23
3.30167	23
3.30533	23
3.30900	24
3.31267	24
3.31633	25
3.32000	25
3.32367	25
3.32733	26
3.33100	26
3.33467	26
3.33833	26
3.34200	27
3.34567	27
3.34933	27
3.35300	27
3.35667	28
3.36033	28
3.36400	28
3.36767	28
3.37133	28
3.37500	28
3.37867	28
3.38233	28
3.38600	28
3.38967	28
3.39333	27
3.39700	27
3.40067	27
3.40433	27
3.40800	27
3.41167	27
3.41533	27
3.41900	27
3.42267	27
3.42633	27
3.43000	26
3.43367	26
3.43733	26
3.44100	26
3.44467	25
3.44833	25
3.45200	25
3.45567	25
3.45933	25
3.46300	25
3.46667	25
3.47033	25
3.47400	24
3.47767	24
3.48133	24
3.48500	24
3.48867	24
3.49233	24
3.49600	24
3.49967	24
3.50333	24
3.50700	24
3.51067	24
3.51433	23
3.51800	23
3.52167	23
3.52533	23
3.52900	23
3.53267	23
3.53633	23
3.54000	23
3.54367	23
3.54733	23
3.55100	24
3.55467	24
3.55833	24
3.56200	24
3.56567	24
3.56933	24
3.57300	24
3.57667	24
3.58033	24
3.58400	24
3.58767	24
3.59133	24
3.59500	24
3.59867	24
3.60233	24
3.60600	24
3.60967	24
3.61333	24
3.61700	24
3.62067	24
3.62433	24
3.62800	24
3.63167	24
3.63533	24
3.63900	24
3.64267	24
3.64633	24
3.65000	24
3.65367	24
3.65733	24
3.66100	24
3.66467	24
3.66833	24
3.67200	24
3.67567	25
3.67933	25
3.68300	25
3.68667	25
3.69033	25
3.69400	25
3.69767	24
3.70133	24
3.70500	24
3.70867	24
3.71233	24
3.71600	24
3.71967	24
3.72333	23
3.72700	23
3.73067	23
3.73433	23
3.73800	23
3.74167	23
3.74533	23
3.74900	23
3.75267	23
3.75633	23
3.76000	23
3.76367	23
3.76733	23
3.77100	23
3.77467	23
3.77833	23
3.78200	23
3.78567	23
3.78933	23
3.79300	24
3.79667	24
3.80033	24
3.80400	24
3.80767	24
3.81133	24
3.81500	24
3.81867	24
3.82233	24
3.82600	24
3.82967	24
3.83333	24
3.83700	24
3.84067	24
3.84433	24
3.84800	24
3.85167	24
3.85533	24
3.85900	24
3.86267	24
3.86633	24
3.87000	24
3.87367	24
3.87733	24
3.88100	24
3.88467	24
3.88833	24
3.89200	24
3.89567	24
3.89933	24
3.90300	25
3.90667	25
3.91033	25
3.91400	25
3.91767	25
3.92133	25
3.92500	26
3.92867	26
3.93233	26
3.93600	26
3.93967	26
3.94333	26
3.94700	26
3.95067	26
3.95433	26
3.95800	26
3.96167	26
3.96533	26
3.96900	25
3.97267	25
3.97633	25
3.98000	24
3.98367	24
3.98733	24
3.99100	24
3.99467	24
3.99833	24

[Chromatogram (Ch3)]
Interval(msec)	220
# of Points	1091
Start Time(min)	0.002
End Time(min)	3.998
R.Time (min)	Intensity
0.00167	-1
0.00533	-2
0.00900	-4
0.01267	-5
0.01633	-3
0.02000	-3
0.02367	-5
0.02733	-5
0.03100	-4
0.03467	-3
0.03833	-4
0.04200	-8
0.04567	-11
0.04933	-12
0.05300	-9
0.05667	-8
0.06033	-8
0.06400	-7
0.06767	-8
0.07133	-7
0.07500	-4
0.07867	-2
0.08233	-1
0.08600	-2
0.08967	-0
0.09333	1
0.09700	2
0.10067	2
0.10433	1
0.10800	-1
0.11167	-1
0.11533	-0
0.11900	0
0.12267	-0
0.12633	-1
0.13000	-1
0.13367	-2
0.13733	-1
0.14100	0
0.14467	-0
0.14833	-0
0.15200	-1
0.15567	-2
0.15933	-3
0.16300	-4
0.16667	-2
0.17033	-1
0.17400	-1
0.17767	-1
0.18133	0
0.18500	2
0.18867	4
0.19233	5
0.19600	6
0.19967	4
0.20333	0
0.20700	-0
0.21067	-0
0.21433	-2
0.21800	-4
0.22167	-3
0.22533	-3
0.22900	-3
0.23267	-3
0.23633	-2
0.24000	-3
0.24367	-3
0.24733	-4
0.25100	-3
0.25467	-3
0.25833	-2
0.26200	-2
0.26567	-0
0.26933	0
0.27300	3
0.27667	4
0.28033	4
0.28400	1
0.28767	-1
0.29133	-0
0.29500	0
0.29867	1
0.30233	-0
0.30600	-3
0.30967	-3
0.31333	-4
0.31700	-5
0.32067	-5
0.32433	-4
0.32800	-2
0.33167	-1
0.33533	-2
0.33900	-2
0.34267	-1
0.34633	-1
0.35000	-3
0.35367	-2
0.35733	1
0.36100	3
0.36467	4
0.36833	3
0.37200	2
0.37567	1
0.37933	-0
0.38300	2
0.38667	3
0.39033	2
0.39400	1
0.39767	0
0.40133	-1
0.40500	-1
0.40867	1
0.41233	4
0.41600	4
0.41967	2
0.42333	1
0.42700	1
0.43067	-0
0.43433	0
0.43800	1
0.44167	1
0.44533	0
0.44900	2
0.45267	5
0.45633	6
0.46000	5
0.46367	3
0.46733	1
0.47100	2
0.47467	4
0.47833	6
0.48200	7
0.48567	9
0.48933	10
0.49300	9
0.49667	6
0.50033	4
0.50400	4
0.50767	4
0.51133	2
0.51500	1
0.51867	4
0.52233	5
0.52600	4
0.52967	3
0.53333	-1
0.53700	-2
0.54067	-2
0.54433	-3
0.54800	-3
0.55167	-2
0.55533	-1
0.55900	-0
0.56267	-1
0.56633	-3
0.57000	-3
0.57367	-0
0.57733	1
0.58100	2
0.58467	2
0.58833	2
0.59200	1
0.59567	3
0.59933	4
0.60300	2
0.60667	1
0.61033	2
0.61400	2
0.61767	0
0.62133	-1
0.62500	-1
0.62867	-1
0.63233	-3
0.63600	-5
0.63967	-5
0.64333	-3
0.64700	-1
0.65067	-0
0.65433	-1
0.65800	-0
0.66167	1
0.66533	1
0.66900	1
0.67267	1
0.67633	-1
0.68000	-3
0.68367	-4
0.68733	-4
0.69100	-4
0.69467	-4
0.69833	-5
0.70200	-7
0.70567	-7
0.70933	-4
0.71300	-1
0.71667	0
0.72033	-2
0.72400	-4
0.72767	-3
0.73133	-2
0.73500	-1
0.73867	-2
0.74233	-1
0.74600	1
0.74967	1
0.75333	1
0.75700	2
0.76067	4
0.76433	5
0.76800	4
0.77167	4
0.77533	4
0.77900	1
0.78267	-1
0.78633	0
0.79000	1
0.79367	1
0.79733	1
0.80100	2
0.80467	1
0.80833	-0
0.81200	-3
0.81567	-4
0.81933	-4
0.82300	-4
0.82667	-2
0.83033	-0
0.83400	1
0.83767	1
0.84133	3
0.84500	3
0.84867	2
0.85233	1
0.85600	3
0.85967	6
0.86333	7
0.86700	7
0.87067	8
0.87433	8
0.87800	9
0.88167	8
0.88533	5
0.88900	4
0.89267	4
0.89633	4
0.90000	5
0.90367	7
0.90733	6
0.91100	3
0.91467	1
0.91833	1
0.92200	0
0.92567	-0
0.92933	-0
0.93300	0
0.93667	-1
0.94033	-1
0.94400	-1
0.94767	-1
0.95133	-1
0.95500	-0
0.95867	-1
0.96233	1
0.96600	1
0.96967	-2
0.97333	-3
0.97700	-1
0.98067	3
0.98433	5
0.98800	4
0.99167	3
0.99533	3
0.99900	3
1.00267	2
1.00633	4
1.01000	5
1.01367	6
1.01733	6
1.02100	4
1.02467	4
1.02833	6
1.03200	8
1.03567	9
1.03933	9
1.04300	10
1.04667	6
1.05033	3
1.05400	3
1.05767	4
1.06133	6
1.06500	8
1.06867	10
1.07233	10
1.07600	9
1.07967	7
1.08333	5
1.08700	5
1.09067	7
1.09433	6
1.09800	5
1.10167	5
1.10533	5
1.10900	5
1.11267	3
1.11633	1
1.12000	2
1.12367	3
1.12733	4
1.13100	4
1.13467	5
1.13833	5
1.14200	4
1.14567	3
1.14933	2
1.15300	1
1.15667	4
1.16033	6
1.16400	7
1.16767	7
1.17133	6
1.17500	6
1.17867	6
1.18233	5
1.18600	4
1.18967	6
1.19333	8
1.19700	8
1.20067	8
1.20433	7
1.20800	7
1.21167	7
1.21533	8
1.21900	7
1.22267	8
1.22633	6
1.23000	4
1.23367	4
1.23733	5
1.24100	5
1.24467	5
1.24833	5
1.25200	6
1.25567	5
1.25933	6
1.26300	6
1.26667	8
1.27033	8
1.27400	6
1.27767	5
1.28133	6
1.28500	7
1.28867	6
1.29233	5
1.29600	5
1.29967	6
1.30333	8
1.30700	8
1.31067	8
1.31433	6
1.31800	4
1.32167	5
1.32533	7
1.32900	7
1.33267	6
1.33633	4
1.34000	4
1.34367	4
1.34733	5
1.35100	7
1.35467	9
1.35833	11
1.36200	10
1.36567	10
1.36933	11
1.37300	12
1.37667	11
1.38033	12
1.38400	10
1.38767	10
1.39133	13
1.39500	15
1.39867	17
1.40233	17
1.40600	16
1.40967	16
1.41333	13
1.41700	9
1.42067	7
1.42433	8
1.42800	12
1.43167	15
1.43533	15
1.43900	12
1.44267	12
1.44633	14
1.45000	16
1.45367	17
1.45733	19
1.46100	21
1.46467	22
1.46833	20
1.47200	19
1.47567	21
1.47933	20
1.48300	19
1.48667	21
1.49033	22
1.49400	22
1.49767	20
1.50133	16
1.50500	14
1.50867	13
1.51233	12
1.51600	13
1.51967	14
1.52333	13
1.52700	14
1.53067	18
1.53433	21
1.53800	19
1.54167	17
1.54533	16
1.54900	16
1.55267	13
1.55633	11
1.56000	9
1.56367	8
1.56733	8
1.57100	7
1.57467	8
1.57833	9
1.58200	11
1.58567	12
1.58933	11
1.59300	9
1.59667	9
1.60033	10
1.60400	12
1.60767	11
1.61133	11
1.61500	11
1.61867	12
1.62233	11
1.62600	12
1.62967	10
1.63333	8
1.63700	7
1.64067	9
1.64433	10
1.64800	10
1.65167	11
1.65533	14
1.65900	15
1.66267	14
1.66633	13
1.67000	14
1.67367	15
1.67733	13
1.68100	12
1.68467	12
1.68833	12
1.69200	12
1.69567	13
1.69933	14
1.70300	16
1.70667	17
1.71033	18
1.71400	19
1.71767	21
1.72133	23
1.72500	24
1.72867	24
1.73233	25
1.73600	24
1.73967	23
1.74333	22
1.74700	22
1.75067	23
1.75433	24
1.75800	25
1.76167	25
1.76533	24
1.76900	24
1.77267	25
1.77633	28
1.78000	29
1.78367	29
1.78733	30
1.79100	32
1.79467	34
1.79833	35
1.80200	32
1.80567	31
1.80933	32
1.81300	33
1.81667	33
1.82033	35
1.82400	36
1.82767	38
1.83133	39
1.83500	39
1.83867	40
1.84233	41
1.84600	43
1.84967	44
1.85333	45
1.85700	45
1.86067	46
1.86433	47
1.86800	47
1.87167	48
1.87533	49
1.87900	49
1.88267	48
1.88633	50
1.89000	51
1.89367	51
1.89733	50
1.90100	48
1.90467	49
1.90833	50
1.91200	52
1.91567	53
1.91933	55
1.92300	58
1.92667	58
1.93033	59
1.93400	60
1.93767	60
1.94133	61
1.94500	61
1.94867	63
1.95233	64
1.95600	65
1.95967	64
1.96333	64
1.96700	64
1.97067	64
1.97433	64
1.97800	64
1.98167	66
1.98533	70
1.98900	72
1.99267	72
1.99633	71
2.00000	73
2.00367	75
2.00733	74
2.01100	74
2.01467	75
2.01833	76
2.02200	77
2.02567	77
2.02933	77
2.03300	78
2.03667	80
2.04033	81
2.04400	82
2.04767	83
2.05133	84
2.05500	86
2.05867	88
2.06233	91
2.06600	93
2.06967	94
2.07333	95
2.07700	96
2.08067	95
2.08433	94
2.08800	96
2.09167	98
2.09533	100
2.09900	100
2.10267	101
2.10633	102
2.11000	102
2.11367	102
2.11733	104
2.12100	104
2.12467	104
2.12833	105
2.13200	107
2.13567	110
2.13933	111
2.14300	112
2.14667	114
2.15033	117
2.15400	116
2.15767	118
2.16133	122
2.16500	123
2.16867	123
2.17233	122
2.17600	124
2.17967	127
2.18333	128
2.18700	128
2.19067	129
2.19433	130
2.19800	131
2.20167	131
2.20533	133
2.20900	135
2.21267	139
2.21633	140
2.22000	143
2.22367	145
2.22733	145
2.23100	146
2.23467	146
2.23833	147
2.24200	147
2.24567	145
2.24933	147
2.25300	149
2.25667	152
2.26033	157
2.26400	158
2.26767	158
2.27133	158
2.27500	159
2.27867	158
2.28233	162
2.28600	165
2.28967	166
2.29333	167
2.29700	168
2.30067	170
2.30433	173
2.30800	176
2.31167	177
2.31533	175
2.31900	174
2.32267	175
2.32633	175
2.33000	178
2.33367	178
2.33733	178
2.34100	180
2.34467	182
2.34833	182
2.35200	183
2.35567	185
2.35933	189
2.36300	191
2.36667	192
2.37033	194
2.37400	198
2.37767	202
2.38133	203
2.38500	205
2.38867	206
2.39233	206
2.39600	205
2.39967	201
2.40333	197
2.40700	195
2.41067	197
2.41433	199
2.41800	203
2.42167	205
2.42533	207
2.42900	208
2.43267	210
2.43633	212
2.44000	214
2.44367	217
2.44733	224
2.45100	228
2.45467	227
2.45833	218
2.46200	202
2.46567	185
2.46933	168
2.47300	152
2.47667	137
2.48033	125
2.48400	114
2.48767	104
2.49133	95
2.49500	89
2.49867	84
2.50233	77
2.50600	71
2.50967	66
2.51333	61
2.51700	58
2.52067	58
2.52433	60
2.52800	60
2.53167	57
2.53533	52
2.53900	48
2.54267	44
2.54633	43
2.55000	42
2.55367	41
2.55733	39
2.56100	36
2.56467	33
2.56833	34
2.57200	34
2.57567	31
2.57933	29
2.58300	28
2.58667	29
2.59033	30
2.59400	29
2.59767	26
2.60133	20
2.60500	10
2.60867	-8
2.61233	-33
2.61600	-67
2.61967	-106
2.62333	-145
2.62700	-181
2.63067	-215
2.63433	-246
2.63800	-270
2.64167	-286
2.64533	-298
2.64900	-306
2.65267	-308
2.65633	-306
2.66000	-304
2.66367	-301
2.66733	-294
2.67100	-285
2.67467	-275
2.67833	-264
2.68200	-252
2.68567	-237
2.68933	-224
2.69300	-212
2.69667	-203
2.70033	-194
2.70400	-186
2.70767	-176
2.71133	-168
2.71500	-160
2.71867	-154
2.72233	-150
2.72600	-142
2.72967	-134
2.73333	-125
2.73700	-118
2.74067	-113
2.74433	-111
2.74800	-108
2.75167	-103
2.75533	-98
2.75900	-95
2.76267	-91
2.76633	-86
2.77000	-82
2.77367	-79
2.77733	-76
2.78100	-78
2.78467	-79
2.78833	-77
2.79200	-76
2.79567	-74
2.79933	-71
2.80300	-69
2.80667	-68
2.81033	-69
2.81400	-70
2.81767	-70
2.82133	-68
2.82500	-62
2.82867	-52
2.83233	-31
2.83600	17
2.83967	110
2.84333	271
2.84700	521
2.85067	874
2.85433	1327
2.85800	1865
2.86167	2457
2.86533	3063
2.86900	3629
2.87267	4110
2.87633	4473
2.88000	4697
2.88367	4774
2.88733	4719
2.89100	4550
2.89467	4294
2.89833	3983
2.90200	3640
2.90567	3283
2.90933	2932
2.91300	2600
2.91667	2288
2.92033	2002
2.92400	1741
2.92767	1508
2.93133	1301
2.93500	1118
2.93867	957
2.94233	820
2.94600	700
2.94967	595
2.95333	503
2.95700	423
2.96067	355
2.96433	298
2.96800	249
2.97167	206
2.97533	167
2.97900	135
2.98267	106
2.98633	81
2.99000	58
2.99367	40
2.99733	26
3.00100	14
3.00467	3
3.00833	-8
3.01200	-17
3.01567	-23
3.01933	-29
3.02300	-35
3.02667	-39
3.03033	-42
3.03400	-45
3.03767	-48
3.04133	-49
3.04500	-52
3.04867	-52
3.05233	-51
3.05600	-52
3.05967	-52
3.06333	-55
3.06700	-55
3.07067	-55
3.07433	-55
3.07800	-55
3.08167	-57
3.08533	-60
3.08900	-63
3.09267	-64
3.09633	-65
3.10000	-65
3.10367	-64
3.10733	-62
3.11100	-62
3.11467	-64
3.11833	-64
3.12200	-65
3.12567	-65
3.12933	-65
3.13300	-66
3.13667	-63
3.14033	-61
3.14400	-61
3.14767	-61
3.15133	-60
3.15500	-62
3.15867	-63
3.16233	-64
3.16600	-63
3.16967	-62
3.17333	-64
3.17700	-65
3.18067	-63
3.18433	-62
3.18800	-63
3.19167	-64
3.19533	-64
3.19900	-64
3.20267	-65
3.20633	-65
3.21000	-65
3.21367	-62
3.21733	-60
3.22100	-59
3.22467	-57
3.22833	-57
3.23200	-57
3.23567	-55
3.23933	-53
3.24300	-55
3.24667	-55
3.25033	-54
3.25400	-52
3.25767	-51
3.26133	-52
3.26500	-52
3.26867	-52
3.27233	-53
3.27600	-55
3.27967	-58
3.28333	-60
3.28700	-61
3.29067	-60
3.29433	-59
3.29800	-58
3.30167	-57
3.30533	-57
3.30900	-57
3.31267	-58
3.31633	-59
3.32000	-60
3.32367	-61
3.32733	-62
3.33100	-63
3.33467	-63
3.33833	-64
3.34200	-66
3.34567	-66
3.34933	-67
3.35300	-68
3.35667	-68
3.36033	-69
3.36400	-70
3.36767	-72
3.37133	-73
3.37500	-74
3.37867	-74
3.38233	-75
3.38600	-76
3.38967	-76
3.39333	-78
3.39700	-78
3.40067	-80
3.40433	-83
3.40800	-83
3.41167	-82
3.41533	-83
3.41900	-86
3.42267	-90
3.42633	-92
3.43000	-92
3.43367	-92
3.43733	-93
3.44100	-94
3.44467	-96
3.44833	-98
3.45200	-100
3.45567	-100
3.45933	-99
3.46300	-98
3.46667	-96
3.47033	-95
3.47400	-96
3.47767	-96
3.48133	-97
3.48500	-98
3.48867	-99
3.49233	-99
3.49600	-99
3.49967	-99
3.50333	-99
3.50700	-100
3.51067	-99
3.51433	-100
3.51800	-102
3.52167	-105
3.52533	-107
3.52900	-108
3.53267	-110
3.53633	-111
3.54000	-110
3.54367	-108
3.54733	-108
3.55100	-109
3.55467	-111
3.55833	-113
3.56200	-116
3.56567	-117
3.56933	-119
3.57300	-117
3.57667	-117
3.58033	-118
3.58400	-118
3.58767	-118
3.59133	-119
3.59500	-120
3.59867	-121
3.60233	-122
3.60600	-123
3.60967	-123
3.61333	-123
3.61700	-122
3.62067	-123
3.62433	-125
3.62800	-125
3.63167	-124
3.63533	-122
3.63900	-121
3.64267	-121
3.64633	-120
3.65000	-119
3.65367	-119
3.65733	-120
3.66100	-122
3.66467	-124
3.66833	-126
3.67200	-129
3.67567	-131
3.67933	-131
3.68300	-132
3.68667	-130
3.69033	-129
3.69400	-127
3.69767	-127
3.70133	-127
3.70500	-124
3.70867	-124
3.71233	-125
3.71600	-125
3.71967	-126
3.72333	-127
3.72700	-127
3.73067	-128
3.73433	-131
3.73800	-131
3.74167	-129
3.74533	-127
3.74900	-126
3.75267	-122
3.75633	-118
3.76000	-117
3.76367	-121
3.76733	-124
3.77100	-126
3.77467	-129
3.77833	-131
3.78200	-131
3.78567	-130
3.78933	-129
3.79300	-128
3.79667	-128
3.80033	-131
3.80400	-135
3.80767	-136
3.81133	-138
3.81500	-137
3.81867	-136
3.82233	-134
3.82600	-132
3.82967	-130
3.83333	-126
3.83700	-123
3.84067	-124
3.84433	-126
3.84800	-126
3.85167	-125
3.85533	-123
3.85900	-123
3.86267	-126
3.86633	-129
3.87000	-131
3.87367	-134
3.87733	-134
3.88100	-133
3.88467	-132
3.88833	-133
3.89200	-132
3.89567	-129
3.89933	-127
3.90300	-126
3.90667	-126
3.91033	-128
3.91400	-133
3.91767	-136
3.92133	-135
3.92500	-133
3.92867	-133
3.93233	-133
3.93600	-131
3.93967	-130
3.94333	-127
3.94700	-123
3.95067	-123
3.95433	-124
3.95800	-125
3.96167	-125
3.96533	-124
3.96900	-122
3.97267	-120
3.97633	-118
3.98000	-119
3.98367	-118
3.98733	-121
3.99100	-124
3.99467	-125
3.99833	-124

[Status Trace (Column Oven Temperature)]
Interval(msec)	1000
# of Points	240
Start Time(min)	0.008
End Time(min)	3.992
Intensity Units	
Intensity Multiplier	1
R.Time (min)	Intensity
0.00845	35.05
0.02512	35.05
0.04178	35.05
0.05845	35.06
0.07512	35.06
0.09178	35.07
0.10845	35.06
0.12512	35.05
0.14178	35.04
0.15845	35.03
0.17512	35.01
0.19178	35.00
0.20845	34.98
0.22512	34.98
0.24178	34.97
0.25845	34.97
0.27512	34.98
0.29178	34.98
0.30845	34.98
0.32512	34.99
0.34178	34.99
0.35845	34.98
0.37512	34.99
0.39178	34.99
0.40845	34.99
0.42512	34.98
0.44178	34.99
0.45845	34.98
0.47512	34.97
0.49178	34.96
0.50845	34.96
0.52512	34.96
0.54178	34.96
0.55845	34.96
0.57512	34.97
0.59178	34.97
0.60845	34.97
0.62512	34.96
0.64178	34.97
0.65845	34.97
0.67512	34.99
0.69178	34.99
0.70845	34.98
0.72512	34.98
0.74178	34.98
0.75845	34.98
0.77512	34.99
0.79178	35.00
0.80845	35.00
0.82512	35.01
0.84178	35.03
0.85845	35.04
0.87512	35.03
0.89178	35.02
0.90845	35.01
0.92512	35.01
0.94178	35.00
0.95845	35.00
0.97512	35.00
0.99178	34.99
1.00845	34.99
1.02512	34.99
1.04178	34.99
1.05845	35.00
1.07512	35.00
1.09178	35.00
1.10845	34.99
1.12512	34.99
1.14178	34.99
1.15845	34.99
1.17512	34.99
1.19178	34.99
1.20845	34.99
1.22512	34.99
1.24178	34.99
1.25845	34.99
1.27512	34.99
1.29178	34.99
1.30845	34.99
1.32512	34.99
1.34178	34.98
1.35845	34.99
1.37512	35.00
1.39178	35.00
1.40845	35.00
1.42512	35.00
1.44178	35.00
1.45845	35.01
1.47512	35.01
1.49178	35.01
1.50845	35.01
1.52512	35.01
1.54178	35.01
1.55845	35.00
1.57512	34.99
1.59178	35.00
1.60845	35.07
1.62512	35.20
1.64178	35.38
1.65845	35.61
1.67512	35.95
1.69178	36.32
1.70845	36.67
1.72512	37.01
1.74178	37.35
1.75845	37.68
1.77512	38.02
1.79178	38.35
1.80845	38.68
1.82512	39.02
1.84178	39.35
1.85845	39.67
1.87512	40.01
1.89178	40.35
1.90845	40.65
1.92512	40.98
1.94178	41.30
1.95845	41.63
1.97512	41.95
1.99178	42.29
2.00845	42.62
2.02512	42.95
2.04178	43.26
2.05845	43.58
2.07512	43.90
2.09178	44.23
2.10845	44.54
2.12512	44.88
2.14178	45.20
2.15845	45.52
2.17512	45.87
2.19178	46.18
2.20845	46.52
2.22512	46.86
2.24178	47.19
2.25845	47.53
2.27512	47.86
2.29178	48.18
2.30845	48.50
2.32512	48.83
2.34178	49.14
2.35845	49.46
2.37512	49.70
2.39178	49.79
2.40845	49.78
2.42512	49.76
2.44178	49.78
2.45845	49.79
2.47512	49.79
2.49178	49.80
2.50845	49.81
2.52512	49.81
2.54178	49.81
2.55845	49.82
2.57512	49.81
2.59178	49.82
2.60845	49.84
2.62512	49.84
2.64178	49.85
2.65845	49.86
2.67512	49.85
2.69178	49.84
2.70845	49.87
2.72512	49.87
2.74178	49.87
2.75845	49.86
2.77512	49.86
2.79178	49.86
2.80845	49.85
2.82512	49.87
2.84178	49.90
2.85845	49.91
2.87512	49.93
2.89178	49.94
2.90845	49.95
2.92512	49.96
2.94178	49.97
2.95845	49.98
2.97512	49.99
2.99178	49.99
3.00845	49.99
3.02512	49.99
3.04178	49.99
3.05845	50.01
3.07512	50.01
3.09178	50.02
3.10845	50.03
3.12512	50.05
3.14178	50.07
3.15845	50.08
3.17512	50.08
3.19178	50.09
3.20845	50.10
3.22512	50.10
3.24178	50.11
3.25845	50.12
3.27512	50.11
3.29178	50.10
3.30845	50.08
3.32512	50.05
3.34178	50.04
3.35845	50.02
3.37512	50.00
3.39178	49.99
3.40845	49.98
3.42512	49.97
3.44178	49.97
3.45845	49.97
3.47512	49.98
3.49178	49.98
3.50845	49.99
3.52512	50.00
3.54178	50.01
3.55845	50.02
3.57512	50.02
3.59178	50.02
3.60845	50.02
3.62512	50.02
3.64178	50.03
3.65845	50.03
3.67512	50.02
3.69178	50.02
3.70845	50.03
3.72512	50.04
3.74178	50.04
3.75845	50.05
3.77512	50.06
3.79178	50.06
3.80845	50.06
3.82512	50.07
3.84178	50.06
3.85845	50.06
3.87512	50.07
3.89178	50.06
3.90845	50.06
3.92512	50.05
3.94178	50.05
3.95845	50.05
3.97512	50.05
3.99178	50.05

[Status Trace (Injection Unit Temperature)]
Interval(msec)	1000
# of Points	240
Start Time(min)	0.008
End Time(min)	3.992
Intensity Units	
Intensity Multiplier	1
R.Time (min)	Intensity
0.00845	100.00
0.02512	100.01
0.04178	100.01
0.05845	100.00
0.07512	100.01
0.09178	100.01
0.10845	100.01
0.12512	100.00
0.14178	100.00
0.15845	100.00
0.17512	100.00
0.19178	100.01
0.20845	100.01
0.22512	100.01
0.24178	100.01
0.25845	100.00
0.27512	100.00
0.29178	100.01
0.30845	100.01
0.32512	100.00
0.34178	100.01
0.35845	100.00
0.37512	100.00
0.39178	100.01
0.40845	100.00
0.42512	100.00
0.44178	100.01
0.45845	100.00
0.47512	100.01
0.49178	100.00
0.50845	100.00
0.52512	100.00
0.54178	100.00
0.55845	100.00
0.57512	100.00
0.59178	100.00
0.60845	100.00
0.62512	100.00
0.64178	100.00
0.65845	100.00
0.67512	100.00
0.69178	100.00
0.70845	100.00
0.72512	100.00
0.74178	99.99
0.75845	100.00
0.77512	100.00
0.79178	100.00
0.80845	100.00
0.82512	100.00
0.84178	99.99
0.85845	99.99
0.87512	100.00
0.89178	100.00
0.90845	99.99
0.92512	99.99
0.94178	99.99
0.95845	99.99
0.97512	100.00
0.99178	99.99
1.00845	99.99
1.02512	99.99
1.04178	99.99
1.05845	100.00
1.07512	99.99
1.09178	99.99
1.10845	100.00
1.12512	99.99
1.14178	99.99
1.15845	99.99
1.17512	99.99
1.19178	99.99
1.20845	99.99
1.22512	99.99
1.24178	99.99
1.25845	99.99
1.27512	100.00
1.29178	99.99
1.30845	100.00
1.32512	99.99
1.34178	99.99
1.35845	99.99
1.37512	100.00
1.39178	100.00
1.40845	100.00
1.42512	99.99
1.44178	100.00
1.45845	99.99
1.47512	99.99
1.49178	99.99
1.50845	100.00
1.52512	99.99
1.54178	100.00
1.55845	99.99
1.57512	99.99
1.59178	99.99
1.60845	99.99
1.62512	99.99
1.64178	100.00
1.65845	99.99
1.67512	99.99
1.69178	99.99
1.70845	99.99
1.72512	99.99
1.74178	100.00
1.75845	99.99
1.77512	99.99
1.79178	99.99
1.80845	99.99
1.82512	99.99
1.84178	99.99
1.85845	99.99
1.87512	99.99
1.89178	99.99
1.90845	99.98
1.92512	99.99
1.94178	99.99
1.95845	99.99
1.97512	99.99
1.99178	99.98
2.00845	99.99
2.02512	99.98
2.04178	99.99
2.05845	99.98
2.07512	99.99
2.09178	99.99
2.10845	99.98
2.12512	99.98
2.14178	99.98
2.15845	99.98
2.17512	99.98
2.19178	99.98
2.20845	99.98
2.22512	99.98
2.24178	99.98
2.25845	99.97
2.27512	99.97
2.29178	99.98
2.30845	99.98
2.32512	99.97
2.34178	99.98
2.35845	99.97
2.37512	99.97
2.39178	99.97
2.40845	99.98
2.42512	99.98
2.44178	99.98
2.45845	99.98
2.47512	99.98
2.49178	99.97
2.50845	99.98
2.52512	99.98
2.54178	99.98
2.55845	99.98
2.57512	99.99
2.59178	99.98
2.60845	99.99
2.62512	99.99
2.64178	99.99
2.65845	99.99
2.67512	99.99
2.69178	100.00
2.70845	100.00
2.72512	100.00
2.74178	99.99
2.75845	99.99
2.77512	100.00
2.79178	100.01
2.80845	100.01
2.82512	100.00
2.84178	100.01
2.85845	100.00
2.87512	100.01
2.89178	100.01
2.90845	100.01
2.92512	100.01
2.94178	100.02
2.95845	100.02
2.97512	100.02
2.99178	100.02
3.00845	100.02
3.02512	100.02
3.04178	100.02
3.05845	100.02
3.07512	100.03
3.09178	100.02
3.10845	100.03
3.12512	100.03
3.14178	100.03
3.15845	100.03
3.17512	100.03
3.19178	100.03
3.20845	100.03
3.22512	100.04
3.24178	100.04
3.25845	100.03
3.27512	100.03
3.29178	100.04
3.30845	100.03
3.32512	100.04
3.34178	100.04
3.35845	100.04
3.37512	100.04
3.39178	100.04
3.40845	100.05
3.42512	100.05
3.44178	100.04
3.45845	100.05
3.47512	100.05
3.49178	100.05
3.50845	100.04
3.52512	100.05
3.54178	100.05
3.55845	100.05
3.57512	100.05
3.59178	100.05
3.60845	100.05
3.62512	100.05
3.64178	100.05
3.65845	100.05
3.67512	100.05
3.69178	100.06
3.70845	100.05
3.72512	100.06
3.74178	100.05
3.75845	100.05
3.77512	100.05
3.79178	100.06
3.80845	100.05
3.82512	100.06
3.84178	100.06
3.85845	100.06
3.87512	100.06
3.89178	100.05
3.90845	100.06
3.92512	100.05
3.94178	100.06
3.95845	100.05
3.97512	100.06
3.99178	100.05

[Status Trace (Carrier Gas Pressure)]
Interval(msec)	1000
# of Points	240
Start Time(min)	0.008
End Time(min)	3.992
Intensity Units	
Intensity Multiplier	1
R.Time (min)	Intensity
0.00845	58.00
0.02512	55.28
0.04178	57.09
0.05845	59.25
0.07512	59.41
0.09178	58.08
0.10845	57.98
0.12512	58.01
0.14178	58.01
0.15845	58.01
0.17512	58.00
0.19178	58.00
0.20845	58.00
0.22512	58.00
0.24178	58.00
0.25845	58.00
0.27512	58.00
0.29178	58.00
0.30845	58.00
0.32512	58.00
0.34178	58.00
0.35845	58.00
0.37512	58.00
0.39178	58.00
0.40845	58.00
0.42512	58.00
0.44178	58.00
0.45845	58.00
0.47512	58.00
0.49178	58.00
0.50845	58.00
0.52512	58.00
0.54178	58.00
0.55845	58.00
0.57512	58.00
0.59178	58.00
0.60845	58.00
0.62512	58.00
0.64178	58.00
0.65845	58.00
0.67512	58.00
0.69178	58.00
0.70845	58.00
0.72512	58.00
0.74178	58.00
0.75845	58.00
0.77512	58.00
0.79178	58.00
0.80845	58.00
0.82512	58.00
0.84178	58.00
0.85845	58.00
0.87512	58.00
0.89178	58.00
0.90845	58.00
0.92512	58.00
0.94178	58.00
0.95845	58.00
0.97512	58.00
0.99178	58.00
1.00845	58.00
1.02512	58.00
1.04178	58.00
1.05845	58.00
1.07512	58.00
1.09178	58.00
1.10845	58.00
1.12512	58.00
1.14178	58.00
1.15845	58.00
1.17512	58.00
1.19178	58.00
1.20845	58.00
1.22512	58.00
1.24178	58.00
1.25845	58.00
1.27512	58.00
1.29178	58.00
1.30845	58.00
1.32512	58.00
1.34178	58.00
1.35845	58.00
1.37512	58.00
1.39178	58.00
1.40845	58.00
1.42512	58.00
1.44178	58.00
1.45845	58.00
1.47512	58.00
1.49178	58.00
1.50845	58.00
1.52512	58.00
1.54178	58.00
1.55845	58.00
1.57512	58.00
1.59178	58.00
1.60845	58.00
1.62512	58.00
1.64178	58.00
1.65845	58.00
1.67512	58.01
1.69178	58.00
1.70845	58.00
1.72512	58.00
1.74178	58.00
1.75845	58.00
1.77512	58.00
1.79178	58.00
1.80845	58.00
1.82512	58.00
1.84178	58.00
1.85845	58.00
1.87512	58.00
1.89178	58.00
1.90845	58.00
1.92512	58.00
1.94178	58.00
1.95845	58.00
1.97512	58.00
1.99178	58.00
2.00845	58.00
2.02512	58.00
2.04178	58.00
2.05845	58.00
2.07512	58.00
2.09178	58.00
2.10845	58.00
2.12512	58.00
2.14178	58.00
2.15845	58.00
2.17512	58.00
2.19178	58.00
2.20845	58.00
2.22512	58.00
2.24178	58.00
2.25845	58.00
2.27512	58.00
2.29178	58.00
2.30845	58.00
2.32512	58.00
2.34178	58.00
2.35845	58.00
2.37512	58.00
2.39178	57.99
2.40845	57.99
2.42512	58.00
2.44178	58.00
2.45845	58.00
2.47512	58.00
2.49178	58.00
2.50845	58.00
2.52512	57.98
2.54178	58.00
2.55845	58.00
2.57512	58.00
2.59178	58.00
2.60845	58.00
2.62512	58.00
2.64178	58.00
2.65845	58.00
2.67512	58.00
2.69178	58.00
2.70845	58.00
2.72512	58.00
2.74178	58.00
2.75845	58.00
2.77512	58.00
2.79178	58.00
2.80845	58.00
2.82512	58.00
2.84178	58.00
2.85845	58.00
2.87512	58.00
2.89178	58.00
2.90845	58.00
2.92512	58.00
2.94178	58.00
2.95845	58.00
2.97512	58.00
2.99178	58.00
3.00845	58.00
3.02512	58.00
3.04178	58.00
3.05845	58.00
3.07512	58.00
3.09178	58.00
3.10845	58.00
3.12512	58.00
3.14178	58.00
3.15845	58.00
3.17512	58.00
3.19178	58.00
3.20845	58.00
3.22512	58.00
3.24178	58.00
3.25845	58.00
3.27512	58.00
3.29178	58.00
3.30845	58.00
3.32512	58.00
3.34178	58.00
3.35845	58.00
3.37512	58.00
3.39178	58.00
3.40845	58.00
3.42512	58.00
3.44178	58.00
3.45845	58.00
3.47512	58.00
3.49178	58.00
3.50845	58.00
3.52512	58.00
3.54178	58.00
3.55845	58.00
3.57512	58.00
3.59178	58.00
3.60845	58.00
3.62512	58.00
3.64178	58.00
3.65845	58.00
3.67512	58.00
3.69178	58.00
3.70845	58.00
3.72512	58.00
3.74178	58.00
3.75845	58.00
3.77512	58.00
3.79178	58.00
3.80845	58.00
3.82512	58.00
3.84178	58.00
3.85845	58.00
3.87512	58.00
3.89178	58.00
3.90845	58.00
3.92512	58.00
3.94178	58.00
3.95845	58.00
3.97512	58.00
3.99178	58.00

[Status Trace (Carrier Gas Flow)]
Interval(msec)	1000
# of Points	240
Start Time(min)	0.008
End Time(min)	3.992
Intensity Units	
Intensity Multiplier	1
R.Time (min)	Intensity
0.00845	34.52
0.02512	34.52
0.04178	34.54
0.05845	34.55
0.07512	34.49
0.09178	34.52
0.10845	34.52
0.12512	34.52
0.14178	34.52
0.15845	34.52
0.17512	34.52
0.19178	34.52
0.20845	34.52
0.22512	34.52
0.24178	34.52
0.25845	34.52
0.27512	34.52
0.29178	34.52
0.30845	34.52
0.32512	34.52
0.34178	34.52
0.35845	34.52
0.37512	34.52
0.39178	34.52
0.40845	34.52
0.42512	34.52
0.44178	34.52
0.45845	34.52
0.47512	34.52
0.49178	34.52
0.50845	34.52
0.52512	34.52
0.54178	34.52
0.55845	34.52
0.57512	34.52
0.59178	34.52
0.60845	34.52
0.62512	34.52
0.64178	34.52
0.65845	34.52
0.67512	34.52
0.69178	34.52
0.70845	34.52
0.72512	34.52
0.74178	34.52
0.75845	34.52
0.77512	34.52
0.79178	34.52
0.80845	34.52
0.82512	34.52
0.84178	34.52
0.85845	34.52
0.87512	34.52
0.89178	34.52
0.90845	34.52
0.92512	34.52
0.94178	34.52
0.95845	34.52
0.97512	34.52
0.99178	34.52
1.00845	34.52
1.02512	34.52
1.04178	34.52
1.05845	34.52
1.07512	34.52
1.09178	34.52
1.10845	34.52
1.12512	34.52
1.14178	34.52
1.15845	34.52
1.17512	34.52
1.19178	34.52
1.20845	34.52
1.22512	34.52
1.24178	34.52
1.25845	34.52
1.27512	34.52
1.29178	34.52
1.30845	34.52
1.32512	34.52
1.34178	34.52
1.35845	34.52
1.37512	34.52
1.39178	34.52
1.40845	34.52
1.42512	34.52
1.44178	34.52
1.45845	34.52
1.47512	34.52
1.49178	34.52
1.50845	34.52
1.52512	34.52
1.54178	34.52
1.55845	34.52
1.57512	34.52
1.59178	34.52
1.60845	34.52
1.62512	34.52
1.64178	34.52
1.65845	34.52
1.67512	34.52
1.69178	34.52
1.70845	34.52
1.72512	34.52
1.74178	34.52
1.75845	34.51
1.77512	34.53
1.79178	34.53
1.80845	34.53
1.82512	34.52
1.84178	34.51
1.85845	34.52
1.87512	34.52
1.89178	34.51
1.90845	34.52
1.92512	34.53
1.94178	34.51
1.95845	34.52
1.97512	34.51
1.99178	34.52
2.00845	34.52
2.02512	34.53
2.04178	34.52
2.05845	34.50
2.07512	34.52
2.09178	34.53
2.10845	34.52
2.12512	34.52
2.14178	34.52
2.15845	34.52
2.17512	34.53
2.19178	34.53
2.20845	34.54
2.22512	34.52
2.24178	34.52
2.25845	34.52
2.27512	34.52
2.29178	34.53
2.30845	34.52
2.32512	34.52
2.34178	34.52
2.35845	34.52
2.37512	34.52
2.39178	34.53
2.40845	34.52
2.42512	34.52
2.44178	34.52
2.45845	34.52
2.47512	34.52
2.49178	34.52
2.50845	34.46
2.52512	34.52
2.54178	34.52
2.55845	34.52
2.57512	34.52
2.59178	34.52
2.60845	34.52
2.62512	34.52
2.64178	34.52
2.65845	34.52
2.67512	34.52
2.69178	34.52
2.70845	34.52
2.72512	34.52
2.74178	34.52
2.75845	34.52
2.77512	34.52
2.79178	34.52
2.80845	34.52
2.82512	34.52
2.84178	34.52
2.85845	34.52
2.87512	34.52
2.89178	34.52
2.90845	34.52
2.92512	34.52
2.94178	34.52
2.95845	34.52
2.97512	34.52
2.99178	34.52
3.00845	34.52
3.02512	34.52
3.04178	34.54
3.05845	34.52
3.07512	34.53
3.09178	34.52
3.10845	34.52
3.12512	34.52
3.14178	34.51
3.15845	34.52
3.17512	34.52
3.19178	34.52
3.20845	34.52
3.22512	34.52
3.24178	34.52
3.25845	34.52
3.27512	34.52
3.29178	34.52
3.30845	34.52
3.32512	34.52
3.34178	34.52
3.35845	34.52
3.37512	34.52
3.39178	34.52
3.40845	34.52
3.42512	34.52
3.44178	34.52
3.45845	34.52
3.47512	34.52
3.49178	34.52
3.50845	34.52
3.52512	34.52
3.54178	34.52
3.55845	34.52
3.57512	34.52
3.59178	34.52
3.60845	34.52
3.62512	34.52
3.64178	34.52
3.65845	34.52
3.67512	34.52
3.69178	34.52
3.70845	34.52
3.72512	34.52
3.74178	34.52
3.75845	34.52
3.77512	34.52
3.79178	34.52
3.80845	34.52
3.82512	34.52
3.84178	34.52
3.85845	34.52
3.87512	34.52
3.89178	34.52
3.90845	34.52
3.92512	34.52
3.94178	34.52
3.95845	34.52
3.97512	34.52
3.99178	34.52

[Status Trace (Column Flow)]
Interval(msec)	1000
# of Points	240
Start Time(min)	0.008
End Time(min)	3.992
Intensity Units	
Intensity Multiplier	1
R.Time (min)	Intensity
0.00845	5.53
0.02512	5.21
0.04178	5.42
0.05845	5.67
0.07512	5.69
0.09178	5.54
0.10845	5.52
0.12512	5.53
0.14178	5.53
0.15845	5.53
0.17512	5.53
0.19178	5.53
0.20845	5.53
0.22512	5.53
0.24178	5.53
0.25845	5.53
0.27512	5.53
0.29178	5.53
0.30845	5.53
0.32512	5.53
0.34178	5.53
0.35845	5.53
0.37512	5.53
0.39178	5.53
0.40845	5.53
0.42512	5.53
0.44178	5.53
0.45845	5.53
0.47512	5.53
0.49178	5.53
0.50845	5.53
0.52512	5.53
0.54178	5.53
0.55845	5.53
0.57512	5.53
0.59178	5.53
0.60845	5.53
0.62512	5.53
0.64178	5.53
0.65845	5.53
0.67512	5.53
0.69178	5.53
0.70845	5.53
0.72512	5.53
0.74178	5.53
0.75845	5.53
0.77512	5.53
0.79178	5.53
0.80845	5.53
0.82512	5.53
0.84178	5.53
0.85845	5.53
0.87512	5.53
0.89178	5.53
0.90845	5.53
0.92512	5.53
0.94178	5.53
0.95845	5.53
0.97512	5.53
0.99178	5.53
1.00845	5.53
1.02512	5.53
1.04178	5.53
1.05845	5.53
1.07512	5.53
1.09178	5.53
1.10845	5.53
1.12512	5.53
1.14178	5.53
1.15845	5.53
1.17512	5.53
1.19178	5.53
1.20845	5.53
1.22512	5.53
1.24178	5.53
1.25845	5.53
1.27512	5.53
1.29178	5.53
1.30845	5.53
1.32512	5.53
1.34178	5.53
1.35845	5.53
1.37512	5.53
1.39178	5.53
1.40845	5.53
1.42512	5.53
1.44178	5.53
1.45845	5.53
1.47512	5.53
1.49178	5.53
1.50845	5.53
1.52512	5.53
1.54178	5.53
1.55845	5.53
1.57512	5.53
1.59178	5.53
1.60845	5.53
1.62512	5.52
1.64178	5.52
1.65845	5.51
1.67512	5.50
1.69178	5.49
1.70845	5.48
1.72512	5.47
1.74178	5.46
1.75845	5.45
1.77512	5.43
1.79178	5.43
1.80845	5.41
1.82512	5.40
1.84178	5.40
1.85845	5.38
1.87512	5.37
1.89178	5.36
1.90845	5.35
1.92512	5.34
1.94178	5.34
1.95845	5.33
1.97512	5.32
1.99178	5.31
2.00845	5.30
2.02512	5.29
2.04178	5.28
2.05845	5.27
2.07512	5.26
2.09178	5.25
2.10845	5.24
2.12512	5.23
2.14178	5.22
2.15845	5.21
2.17512	5.20
2.19178	5.19
2.20845	5.18
2.22512	5.17
2.24178	5.16
2.25845	5.15
2.27512	5.14
2.29178	5.14
2.30845	5.13
2.32512	5.12
2.34178	5.11
2.35845	5.10
2.37512	5.09
2.39178	5.09
2.40845	5.09
2.42512	5.09
2.44178	5.09
2.45845	5.09
2.47512	5.09
2.49178	5.09
2.50845	5.09
2.52512	5.09
2.54178	5.09
2.55845	5.09
2.57512	5.09
2.59178	5.09
2.60845	5.09
2.62512	5.09
2.64178	5.09
2.65845	5.09
2.67512	5.09
2.69178	5.09
2.70845	5.09
2.72512	5.09
2.74178	5.09
2.75845	5.09
2.77512	5.09
2.79178	5.09
2.80845	5.09
2.82512	5.09
2.84178	5.09
2.85845	5.09
2.87512	5.09
2.89178	5.09
2.90845	5.09
2.92512	5.09
2.94178	5.09
2.95845	5.09
2.97512	5.09
2.99178	5.09
3.00845	5.09
3.02512	5.09
3.04178	5.09
3.05845	5.08
3.07512	5.08
3.09178	5.08
3.10845	5.08
3.12512	5.08
3.14178	5.08
3.15845	5.08
3.17512	5.08
3.19178	5.08
3.20845	5.08
3.22512	5.08
3.24178	5.08
3.25845	5.08
3.27512	5.08
3.29178	5.08
3.30845	5.08
3.32512	5.08
3.34178	5.08
3.35845	5.08
3.37512	5.08
3.39178	5.09
3.40845	5.09
3.42512	5.09
3.44178	5.09
3.45845	5.09
3.47512	5.09
3.49178	5.09
3.50845	5.09
3.52512	5.08
3.54178	5.08
3.55845	5.08
3.57512	5.08
3.59178	5.08
3.60845	5.08
3.62512	5.08
3.64178	5.08
3.65845	5.08
3.67512	5.08
3.69178	5.08
3.70845	5.08
3.72512	5.08
3.74178	5.08
3.75845	5.08
3.77512	5.08
3.79178	5.08
3.80845	5.08
3.82512	5.08
3.84178	5.08
3.85845	5.08
3.87512	5.08
3.89178	5.08
3.90845	5.08
3.92512	5.08
3.94178	5.08
3.95845	5.08
3.97512	5.08
3.99178	5.08

[Status Trace (Linear Velocity)]
Interval(msec)	1000
# of Points	240
Start Time(min)	0.008
End Time(min)	3.992
Intensity Units	
Intensity Multiplier	1
R.Time (min)	Intensity
0.00845	39.01
0.02512	37.23
0.04178	38.42
0.05845	39.83
0.07512	39.94
0.09178	39.06
0.10845	39.00
0.12512	39.02
0.14178	39.02
0.15845	39.02
0.17512	39.02
0.19178	39.02
0.20845	39.02
0.22512	39.02
0.24178	39.02
0.25845	39.02
0.27512	39.02
0.29178	39.02
0.30845	39.02
0.32512	39.02
0.34178	39.02
0.35845	39.02
0.37512	39.02
0.39178	39.02
0.40845	39.02
0.42512	39.02
0.44178	39.02
0.45845	39.02
0.47512	39.02
0.49178	39.02
0.50845	39.02
0.52512	39.02
0.54178	39.02
0.55845	39.02
0.57512	39.02
0.59178	39.02
0.60845	39.02
0.62512	39.02
0.64178	39.02
0.65845	39.02
0.67512	39.02
0.69178	39.02
0.70845	39.02
0.72512	39.02
0.74178	39.02
0.75845	39.02
0.77512	39.02
0.79178	39.02
0.80845	39.02
0.82512	39.02
0.84178	39.02
0.85845	39.01
0.87512	39.02
0.89178	39.02
0.90845	39.02
0.92512	39.02
0.94178	39.02
0.95845	39.02
0.97512	39.02
0.99178	39.02
1.00845	39.02
1.02512	39.02
1.04178	39.02
1.05845	39.02
1.07512	39.02
1.09178	39.02
1.10845	39.02
1.12512	39.02
1.14178	39.02
1.15845	39.02
1.17512	39.02
1.19178	39.02
1.20845	39.02
1.22512	39.02
1.24178	39.02
1.25845	39.02
1.27512	39.02
1.29178	39.02
1.30845	39.02
1.32512	39.02
1.34178	39.02
1.35845	39.02
1.37512	39.02
1.39178	39.02
1.40845	39.02
1.42512	39.02
1.44178	39.02
1.45845	39.02
1.47512	39.02
1.49178	39.02
1.50845	39.02
1.52512	39.02
1.54178	39.02
1.55845	39.02
1.57512	39.02
1.59178	39.02
1.60845	39.01
1.62512	39.00
1.64178	38.99
1.65845	38.96
1.67512	38.93
1.69178	38.90
1.70845	38.86
1.72512	38.83
1.74178	38.80
1.75845	38.76
1.77512	38.73
1.79178	38.70
1.80845	38.67
1.82512	38.64
1.84178	38.61
1.85845	38.57
1.87512	38.54
1.89178	38.51
1.90845	38.48
1.92512	38.45
1.94178	38.43
1.95845	38.39
1.97512	38.36
1.99178	38.33
2.00845	38.30
2.02512	38.27
2.04178	38.24
2.05845	38.21
2.07512	38.18
2.09178	38.15
2.10845	38.12
2.12512	38.09
2.14178	38.07
2.15845	38.03
2.17512	38.00
2.19178	37.98
2.20845	37.95
2.22512	37.91
2.24178	37.89
2.25845	37.85
2.27512	37.82
2.29178	37.80
2.30845	37.77
2.32512	37.74
2.34178	37.71
2.35845	37.68
2.37512	37.66
2.39178	37.65
2.40845	37.65
2.42512	37.65
2.44178	37.65
2.45845	37.65
2.47512	37.65
2.49178	37.65
2.50845	37.65
2.52512	37.64
2.54178	37.65
2.55845	37.65
2.57512	37.65
2.59178	37.65
2.60845	37.65
2.62512	37.65
2.64178	37.65
2.65845	37.65
2.67512	37.65
2.69178	37.65
2.70845	37.65
2.72512	37.65
2.74178	37.65
2.75845	37.65
2.77512	37.65
2.79178	37.65
2.80845	37.65
2.82512	37.65
2.84178	37.64
2.85845	37.64
2.87512	37.64
2.89178	37.64
2.90845	37.64
2.92512	37.64
2.94178	37.64
2.95845	37.64
2.97512	37.64
2.99178	37.64
3.00845	37.64
3.02512	37.64
3.04178	37.63
3.05845	37.63
3.07512	37.63
3.09178	37.63
3.10845	37.63
3.12512	37.63
3.14178	37.63
3.15845	37.63
3.17512	37.63
3.19178	37.63
3.20845	37.63
3.22512	37.63
3.24178	37.62
3.25845	37.62
3.27512	37.62
3.29178	37.62
3.30845	37.63
3.32512	37.63
3.34178	37.63
3.35845	37.63
3.37512	37.63
3.39178	37.64
3.40845	37.64
3.42512	37.64
3.44178	37.64
3.45845	37.64
3.47512	37.64
3.49178	37.64
3.50845	37.64
3.52512	37.63
3.54178	37.63
3.55845	37.63
3.57512	37.63
3.59178	37.63
3.60845	37.63
3.62512	37.63
3.64178	37.63
3.65845	37.63
3.67512	37.63
3.69178	37.63
3.70845	37.63
3.72512	37.63
3.74178	37.63
3.75845	37.63
3.77512	37.63
3.79178	37.63
3.80845	37.63
3.82512	37.63
3.84178	37.63
3.85845	37.63
3.87512	37.63
3.89178	37.63
3.90845	37.63
3.92512	37.63
3.94178	37.63
3.95845	37.63
3.97512	37.63
3.99178	37.63

