[Header]
Application Name	LabSolutions
Version	5.110
Data File Name	C:\Users\User\Desktop\GC Analyses\Jack\UIC Prairie Sampling\8.12.22\220812_056.gcd
Output Date	10/14/2022
Output Time	2:33:53 PM

[File Information]
Type	Data File
Generated	10/11/2022 11:24:01 AM
Generated by	System Administrator
Modified	10/11/2022 11:28:27 AM
Modified by	System Administrator

[Sample Information]
Operator Name	System Administrator
Acquired	10/11/2022 11:24:27 AM
Sample Type	1:Standard
Level	1
Sample Name	220812_UICPrairie
Sample ID	220812_UICPrairie
ISTD Amount1	1
ISTD Amount2	1
ISTD Amount3	1
ISTD Amount4	1
ISTD Amount5	1
ISTD Amount6	1
ISTD Amount7	1
ISTD Amount8	1
ISTD Amount9	1
ISTD Amount10	1
ISTD Amount11	1
ISTD Amount12	1
ISTD Amount13	1
ISTD Amount14	1
ISTD Amount15	1
ISTD Amount16	1
ISTD Amount17	1
ISTD Amount18	1
ISTD Amount19	1
ISTD Amount20	1
ISTD Amount21	1
ISTD Amount22	1
ISTD Amount23	1
ISTD Amount24	1
ISTD Amount25	1
ISTD Amount26	1
ISTD Amount27	1
ISTD Amount28	1
ISTD Amount29	1
ISTD Amount30	1
ISTD Amount31	1
ISTD Amount32	1
Sample Amount	1
Dilution Factor	1
Vial#	1
Injection Volume	1
Injection Count	1
Bar Code	

[Original Files]
Data File	C:\Users\User\Desktop\GC Analyses\Jack\UIC Prairie Sampling\8.12.22\220812_056.gcd
Method File	C:\LabSolutions\Data\GHG_4min_2022\ghg3_togas_w_acet_4 min_new_int.gcm
Batch File	
Report Format File	c:\LabSolutions\System\DEFAULT.lsr

[File Description]


[Configuration]
Instrument Name	C0B7VH3-Instrument1
Instrument #	1
Line #	1
# of Detectors	3
Detector ID	DET#1	DET#2	DET#3
Detector Name	FID	PTCD	ECD
# of Channels	1	1	1

[Peak Table(Ch1)]
# of Peaks	3
Peak#	R.Time	I.Time	F.Time	Area	Height	A/H	Conc.	Mark	ID#	Name	k'	Plate #	Plate Ht.	Tailing	Resolution	Sep.Factor	Area Ratio	Height Ratio	Conc. %	Norm Conc.
1	1.476	1.421	1.538	12311	5415	2.274	100.000	   	1	CO	0.000	8225	18.236	1.245	0.000	0.000	0	0	16.667	16.667
2	1.571	1.538	1.630	4401	2184	2.015	100.000	 V 	2	CH4	0.065	11167	13.433	1.124	1.531	0.000	0	0	16.667	16.667
3	1.996	1.949	2.403	2214434	1073779	2.062	400.000	   	3	CO2	0.353	17722	8.464	1.320	7.122	5.462	0	0	66.667	66.667

[Peak Table(Ch2)]
# of Peaks	0

[Peak Table(Ch3)]
# of Peaks	2
Peak#	R.Time	I.Time	F.Time	Area	Height	A/H	Conc.	Mark	ID#	Name	k'	Plate #	Plate Ht.	Tailing	Resolution	Sep.Factor	Area Ratio	Height Ratio	Conc. %	Norm Conc.
1	2.455	2.242	2.642	5355	353	15.188	0.000	   			0.000	606	247.352	0.957	0.000	0.000	0	0	0.000	0.000
2	2.880	2.656	3.936	65187	6283	10.375	1.000	   	1	N2O	0.173	9175	16.348	3.720	1.639	0.000	0	0	100.000	100.000

[Compound Results(Ch1)]
# of IDs	6
ID#	Name	R.Time	Area	Height	Conc.	Curve	3rd	2nd	1st	Constant	Area Ratio	Height Ratio	Conc. %	Norm Conc.
1	CO	1.476	12311	5415	100.000	Linear	0.000000e+00	0.000000e+00	1.231145e+002	0.000000e+00	0	0	16.667	16.667
2	CH4	1.571	4401	2184	100.000	Linear	0.000000e+00	0.000000e+00	4.400747e+001	0.000000e+00	0	0	16.667	16.667
3	CO2	1.996	2214434	1073779	400.000	Linear	0.000000e+00	0.000000e+00	5.536084e+003	0.000000e+00	0	0	66.667	66.667
4	Ethylene	0.000	0	0	0.000	Linear	0.000000e+00	0.000000e+00	0.000000e+00	0.000000e+00	0	0	0.000	0.000
5	Acetylene	0.000	0	0	0.000	Linear	0.000000e+00	0.000000e+00	0.000000e+00	0.000000e+00	0	0	0.000	0.000
6	Ethane	0.000	0	0	0.000	Linear	0.000000e+00	0.000000e+00	0.000000e+00	0.000000e+00	0	0	0.000	0.000

[Compound Results(Ch2)]
# of IDs	5
ID#	Name	R.Time	Area	Height	Conc.	Curve	3rd	2nd	1st	Constant	Area Ratio	Height Ratio	Conc. %	Norm Conc.
1	Hydrogen	0.000	0	0	0.000	Linear	0.000000e+00	0.000000e+00	0.000000e+00	0.000000e+00	0	0	0.000	0.000
2	Oxygen	0.000	0	0	0.000	Linear	0.000000e+00	0.000000e+00	0.000000e+00	0.000000e+00	0	0	0.000	0.000
3	Nitrogen	0.000	0	0	0.000	Linear	0.000000e+00	0.000000e+00	0.000000e+00	0.000000e+00	0	0	0.000	0.000
4	Methane	0.000	0	0	0.000	Linear	0.000000e+00	0.000000e+00	0.000000e+00	0.000000e+00	0	0	0.000	0.000
5	Carbon Monoxide	0.000	0	0	0.000	Linear	0.000000e+00	0.000000e+00	0.000000e+00	0.000000e+00	0	0	0.000	0.000

[Compound Results(Ch3)]
# of IDs	2
ID#	Name	R.Time	Area	Height	Conc.	Curve	3rd	2nd	1st	Constant	Area Ratio	Height Ratio	Conc. %	Norm Conc.
1	N2O	2.880	65187	6283	1.000	Linear	0.000000e+00	0.000000e+00	6.518664e+004	0.000000e+00	0	0	100.000	100.000
2	SF6	0.000	0	0	0.000	Linear	0.000000e+00	0.000000e+00	0.000000e+00	0.000000e+00	0	0	0.000	0.000

[Group Results(Ch1)]
# of Groups	0

[Group Results(Ch2)]
# of Groups	0

[Group Results(Ch3)]
# of Groups	0

[Chromatogram (Ch1)]
Interval(msec)	220
# of Points	1091
Start Time(min)	0.002
End Time(min)	3.998
R.Time (min)	Intensity
0.00167	26
0.00533	28
0.00900	27
0.01267	24
0.01633	17
0.02000	7
0.02367	3
0.02733	5
0.03100	9
0.03467	11
0.03833	10
0.04200	11
0.04567	11
0.04933	13
0.05300	18
0.05667	22
0.06033	24
0.06400	23
0.06767	20
0.07133	18
0.07500	16
0.07867	17
0.08233	23
0.08600	31
0.08967	38
0.09333	38
0.09700	37
0.10067	37
0.10433	36
0.10800	33
0.11167	30
0.11533	28
0.11900	26
0.12267	25
0.12633	21
0.13000	15
0.13367	8
0.13733	3
0.14100	1
0.14467	-0
0.14833	-0
0.15200	3
0.15567	8
0.15933	11
0.16300	13
0.16667	15
0.17033	16
0.17400	15
0.17767	15
0.18133	14
0.18500	14
0.18867	13
0.19233	11
0.19600	9
0.19967	7
0.20333	7
0.20700	12
0.21067	17
0.21433	19
0.21800	15
0.22167	9
0.22533	5
0.22900	5
0.23267	4
0.23633	-1
0.24000	-7
0.24367	-9
0.24733	-10
0.25100	-8
0.25467	-2
0.25833	8
0.26200	17
0.26567	24
0.26933	27
0.27300	25
0.27667	16
0.28033	5
0.28400	-5
0.28767	-12
0.29133	-17
0.29500	-18
0.29867	-18
0.30233	-20
0.30600	-20
0.30967	-18
0.31333	-16
0.31700	-14
0.32067	-12
0.32433	-6
0.32800	1
0.33167	5
0.33533	4
0.33900	1
0.34267	-4
0.34633	-10
0.35000	-13
0.35367	-14
0.35733	-13
0.36100	-11
0.36467	-10
0.36833	-14
0.37200	-20
0.37567	-26
0.37933	-29
0.38300	-29
0.38667	-28
0.39033	-27
0.39400	-23
0.39767	-20
0.40133	-19
0.40500	-20
0.40867	-19
0.41233	-18
0.41600	-17
0.41967	-18
0.42333	-17
0.42700	-15
0.43067	-10
0.43433	-4
0.43800	-2
0.44167	-5
0.44533	-16
0.44900	-30
0.45267	-39
0.45633	-42
0.46000	-44
0.46367	-46
0.46733	-51
0.47100	-58
0.47467	-61
0.47833	-57
0.48200	-47
0.48567	-36
0.48933	-29
0.49300	-30
0.49667	-35
0.50033	-39
0.50400	-45
0.50767	-50
0.51133	-51
0.51500	-51
0.51867	-50
0.52233	-51
0.52600	-54
0.52967	-56
0.53333	-54
0.53700	-50
0.54067	-50
0.54433	-49
0.54800	-46
0.55167	-40
0.55533	-33
0.55900	-30
0.56267	-32
0.56633	-38
0.57000	-45
0.57367	-50
0.57733	-53
0.58100	-51
0.58467	-50
0.58833	-51
0.59200	-51
0.59567	-51
0.59933	-51
0.60300	-50
0.60667	-48
0.61033	-44
0.61400	-43
0.61767	-47
0.62133	-50
0.62500	-55
0.62867	-58
0.63233	-59
0.63600	-57
0.63967	-54
0.64333	-53
0.64700	-53
0.65067	-53
0.65433	-54
0.65800	-54
0.66167	-50
0.66533	-45
0.66900	-42
0.67267	-44
0.67633	-47
0.68000	-51
0.68367	-54
0.68733	-57
0.69100	-62
0.69467	-65
0.69833	-67
0.70200	-71
0.70567	-76
0.70933	-78
0.71300	-77
0.71667	-73
0.72033	-66
0.72400	-57
0.72767	-50
0.73133	-47
0.73500	-47
0.73867	-49
0.74233	-54
0.74600	-57
0.74967	-62
0.75333	-67
0.75700	-71
0.76067	-74
0.76433	-75
0.76800	-73
0.77167	-70
0.77533	-64
0.77900	-59
0.78267	-56
0.78633	-58
0.79000	-59
0.79367	-64
0.79733	-74
0.80100	-84
0.80467	-91
0.80833	-93
0.81200	-94
0.81567	-96
0.81933	-98
0.82300	-99
0.82667	-100
0.83033	-102
0.83400	-104
0.83767	-104
0.84133	-98
0.84500	-88
0.84867	-75
0.85233	-68
0.85600	-66
0.85967	-66
0.86333	-67
0.86700	-67
0.87067	-66
0.87433	-68
0.87800	-73
0.88167	-78
0.88533	-82
0.88900	-89
0.89267	-95
0.89633	-100
0.90000	-102
0.90367	-97
0.90733	-90
0.91100	-86
0.91467	-86
0.91833	-86
0.92200	-86
0.92567	-85
0.92933	-84
0.93300	-82
0.93667	-80
0.94033	-79
0.94400	-81
0.94767	-86
0.95133	-93
0.95500	-98
0.95867	-98
0.96233	-97
0.96600	-97
0.96967	-99
0.97333	-99
0.97700	-92
0.98067	-83
0.98433	-82
0.98800	-89
0.99167	-100
0.99533	-109
0.99900	-112
1.00267	-111
1.00633	-111
1.01000	-110
1.01367	-108
1.01733	-104
1.02100	-102
1.02467	-105
1.02833	-108
1.03200	-111
1.03567	-111
1.03933	-108
1.04300	-105
1.04667	-107
1.05033	-110
1.05400	-111
1.05767	-110
1.06133	-110
1.06500	-111
1.06867	-114
1.07233	-117
1.07600	-121
1.07967	-123
1.08333	-120
1.08700	-115
1.09067	-110
1.09433	-105
1.09800	-103
1.10167	-104
1.10533	-106
1.10900	-107
1.11267	-108
1.11633	-111
1.12000	-113
1.12367	-113
1.12733	-113
1.13100	-114
1.13467	-112
1.13833	-108
1.14200	-104
1.14567	-100
1.14933	-100
1.15300	-105
1.15667	-112
1.16033	-120
1.16400	-128
1.16767	-133
1.17133	-136
1.17500	-134
1.17867	-130
1.18233	-128
1.18600	-127
1.18967	-128
1.19333	-126
1.19700	-124
1.20067	-121
1.20433	-115
1.20800	-109
1.21167	-103
1.21533	-99
1.21900	-102
1.22267	-110
1.22633	-120
1.23000	-132
1.23367	-142
1.23733	-146
1.24100	-146
1.24467	-144
1.24833	-141
1.25200	-136
1.25567	-129
1.25933	-120
1.26300	-115
1.26667	-116
1.27033	-123
1.27400	-133
1.27767	-136
1.28133	-134
1.28500	-134
1.28867	-131
1.29233	-131
1.29600	-133
1.29967	-139
1.30333	-141
1.30700	-140
1.31067	-138
1.31433	-135
1.31800	-133
1.32167	-135
1.32533	-136
1.32900	-134
1.33267	-128
1.33633	-123
1.34000	-119
1.34367	-117
1.34733	-125
1.35100	-138
1.35467	-150
1.35833	-158
1.36200	-164
1.36567	-169
1.36933	-171
1.37300	-166
1.37667	-157
1.38033	-147
1.38400	-143
1.38767	-145
1.39133	-148
1.39500	-152
1.39867	-155
1.40233	-160
1.40600	-163
1.40967	-166
1.41333	-168
1.41700	-167
1.42067	-164
1.42433	-158
1.42800	-151
1.43167	-146
1.43533	-144
1.43900	-128
1.44267	-45
1.44633	182
1.45000	586
1.45367	1205
1.45733	2056
1.46100	3011
1.46467	3896
1.46833	4593
1.47200	5053
1.47567	5248
1.47933	5154
1.48300	4764
1.48667	4131
1.49033	3371
1.49400	2608
1.49767	1933
1.50133	1386
1.50500	964
1.50867	647
1.51233	418
1.51600	252
1.51967	137
1.52333	57
1.52700	-1
1.53067	-44
1.53433	-72
1.53800	-82
1.54167	-51
1.54533	71
1.54900	334
1.55267	716
1.55633	1133
1.56000	1508
1.56367	1797
1.56733	1973
1.57100	2013
1.57467	1893
1.57833	1628
1.58200	1282
1.58567	927
1.58933	623
1.59300	390
1.59667	222
1.60033	102
1.60400	15
1.60767	-48
1.61133	-92
1.61500	-121
1.61867	-140
1.62233	-153
1.62600	-165
1.62967	-173
1.63333	-174
1.63700	-171
1.64067	-166
1.64433	-166
1.64800	-167
1.65167	-170
1.65533	-172
1.65900	-172
1.66267	-172
1.66633	-172
1.67000	-175
1.67367	-177
1.67733	-178
1.68100	-177
1.68467	-176
1.68833	-176
1.69200	-174
1.69567	-172
1.69933	-172
1.70300	-173
1.70667	-172
1.71033	-171
1.71400	-173
1.71767	-177
1.72133	-182
1.72500	-184
1.72867	-183
1.73233	-180
1.73600	-175
1.73967	-172
1.74333	-167
1.74700	-162
1.75067	-162
1.75433	-167
1.75800	-173
1.76167	-180
1.76533	-182
1.76900	-181
1.77267	-179
1.77633	-174
1.78000	-164
1.78367	-153
1.78733	-143
1.79100	-140
1.79467	-146
1.79833	-158
1.80200	-170
1.80567	-175
1.80933	-175
1.81300	-175
1.81667	-175
1.82033	-174
1.82400	-173
1.82767	-171
1.83133	-169
1.83500	-165
1.83867	-163
1.84233	-166
1.84600	-171
1.84967	-175
1.85333	-179
1.85700	-181
1.86067	-178
1.86433	-171
1.86800	-164
1.87167	-161
1.87533	-162
1.87900	-162
1.88267	-161
1.88633	-159
1.89000	-157
1.89367	-155
1.89733	-154
1.90100	-154
1.90467	-154
1.90833	-155
1.91200	-155
1.91567	-156
1.91933	-158
1.92300	-161
1.92667	-168
1.93033	-177
1.93400	-187
1.93767	-195
1.94133	-201
1.94500	-202
1.94867	-196
1.95233	-174
1.95600	-64
1.95967	592
1.96333	3835
1.96700	16123
1.97067	51659
1.97433	130789
1.97800	267671
1.98167	455275
1.98533	663831
1.98900	855530
1.99267	999041
1.99633	1073606
2.00000	1070535
2.00367	994441
2.00733	863491
2.01100	704245
2.01467	543375
2.01833	400418
2.02200	284819
2.02567	197621
2.02933	135051
2.03300	91675
2.03667	62286
2.04033	42645
2.04400	29604
2.04767	20944
2.05133	15163
2.05500	11266
2.05867	8601
2.06233	6742
2.06600	5418
2.06967	4448
2.07333	3722
2.07700	3168
2.08067	2735
2.08433	2392
2.08800	2114
2.09167	1887
2.09533	1699
2.09900	1538
2.10267	1403
2.10633	1289
2.11000	1188
2.11367	1098
2.11733	1016
2.12100	941
2.12467	874
2.12833	813
2.13200	758
2.13567	709
2.13933	664
2.14300	626
2.14667	594
2.15033	567
2.15400	543
2.15767	520
2.16133	498
2.16500	480
2.16867	461
2.17233	441
2.17600	420
2.17967	403
2.18333	388
2.18700	371
2.19067	352
2.19433	332
2.19800	313
2.20167	294
2.20533	278
2.20900	266
2.21267	255
2.21633	245
2.22000	237
2.22367	231
2.22733	228
2.23100	223
2.23467	217
2.23833	209
2.24200	197
2.24567	182
2.24933	168
2.25300	157
2.25667	149
2.26033	143
2.26400	137
2.26767	134
2.27133	138
2.27500	143
2.27867	146
2.28233	148
2.28600	144
2.28967	137
2.29333	126
2.29700	114
2.30067	101
2.30433	91
2.30800	86
2.31167	84
2.31533	86
2.31900	88
2.32267	87
2.32633	86
2.33000	87
2.33367	88
2.33733	90
2.34100	90
2.34467	87
2.34833	83
2.35200	78
2.35567	72
2.35933	64
2.36300	60
2.36667	58
2.37033	54
2.37400	50
2.37767	48
2.38133	51
2.38500	52
2.38867	51
2.39233	46
2.39600	38
2.39967	29
2.40333	21
2.40700	18
2.41067	17
2.41433	20
2.41800	25
2.42167	29
2.42533	32
2.42900	32
2.43267	29
2.43633	26
2.44000	25
2.44367	26
2.44733	27
2.45100	29
2.45467	33
2.45833	35
2.46200	33
2.46567	30
2.46933	25
2.47300	20
2.47667	14
2.48033	9
2.48400	2
2.48767	-1
2.49133	-0
2.49500	3
2.49867	8
2.50233	9
2.50600	7
2.50967	3
2.51333	3
2.51700	6
2.52067	5
2.52433	1
2.52800	-0
2.53167	0
2.53533	2
2.53900	4
2.54267	1
2.54633	-6
2.55000	-11
2.55367	-11
2.55733	-12
2.56100	-11
2.56467	-13
2.56833	-19
2.57200	-26
2.57567	-31
2.57933	-31
2.58300	-33
2.58667	-34
2.59033	-32
2.59400	-31
2.59767	-34
2.60133	-41
2.60500	-40
2.60867	-37
2.61233	-33
2.61600	-33
2.61967	-33
2.62333	-33
2.62700	-33
2.63067	-34
2.63433	-41
2.63800	-45
2.64167	-42
2.64533	-35
2.64900	-34
2.65267	-38
2.65633	-45
2.66000	-51
2.66367	-57
2.66733	-59
2.67100	-58
2.67467	-55
2.67833	-51
2.68200	-50
2.68567	-52
2.68933	-57
2.69300	-64
2.69667	-67
2.70033	-67
2.70400	-66
2.70767	-64
2.71133	-64
2.71500	-64
2.71867	-62
2.72233	-58
2.72600	-56
2.72967	-59
2.73333	-62
2.73700	-60
2.74067	-57
2.74433	-60
2.74800	-68
2.75167	-74
2.75533	-71
2.75900	-64
2.76267	-54
2.76633	-51
2.77000	-52
2.77367	-58
2.77733	-66
2.78100	-72
2.78467	-74
2.78833	-73
2.79200	-68
2.79567	-62
2.79933	-58
2.80300	-58
2.80667	-60
2.81033	-62
2.81400	-61
2.81767	-58
2.82133	-54
2.82500	-55
2.82867	-62
2.83233	-70
2.83600	-77
2.83967	-83
2.84333	-84
2.84700	-82
2.85067	-79
2.85433	-77
2.85800	-74
2.86167	-73
2.86533	-75
2.86900	-78
2.87267	-82
2.87633	-84
2.88000	-84
2.88367	-83
2.88733	-80
2.89100	-76
2.89467	-71
2.89833	-68
2.90200	-67
2.90567	-68
2.90933	-70
2.91300	-74
2.91667	-78
2.92033	-81
2.92400	-82
2.92767	-81
2.93133	-80
2.93500	-78
2.93867	-77
2.94233	-77
2.94600	-78
2.94967	-78
2.95333	-78
2.95700	-75
2.96067	-74
2.96433	-73
2.96800	-73
2.97167	-74
2.97533	-76
2.97900	-77
2.98267	-80
2.98633	-83
2.99000	-89
2.99367	-95
2.99733	-94
3.00100	-86
3.00467	-79
3.00833	-77
3.01200	-73
3.01567	-67
3.01933	-61
3.02300	-59
3.02667	-62
3.03033	-69
3.03400	-75
3.03767	-81
3.04133	-84
3.04500	-87
3.04867	-89
3.05233	-89
3.05600	-87
3.05967	-86
3.06333	-90
3.06700	-95
3.07067	-95
3.07433	-92
3.07800	-88
3.08167	-88
3.08533	-90
3.08900	-93
3.09267	-94
3.09633	-94
3.10000	-95
3.10367	-95
3.10733	-94
3.11100	-94
3.11467	-96
3.11833	-97
3.12200	-95
3.12567	-95
3.12933	-95
3.13300	-91
3.13667	-86
3.14033	-84
3.14400	-84
3.14767	-88
3.15133	-92
3.15500	-92
3.15867	-90
3.16233	-89
3.16600	-92
3.16967	-96
3.17333	-101
3.17700	-102
3.18067	-103
3.18433	-103
3.18800	-100
3.19167	-99
3.19533	-97
3.19900	-94
3.20267	-90
3.20633	-82
3.21000	-78
3.21367	-76
3.21733	-76
3.22100	-80
3.22467	-85
3.22833	-91
3.23200	-94
3.23567	-93
3.23933	-92
3.24300	-94
3.24667	-92
3.25033	-89
3.25400	-89
3.25767	-92
3.26133	-96
3.26500	-99
3.26867	-101
3.27233	-99
3.27600	-101
3.27967	-102
3.28333	-103
3.28700	-102
3.29067	-98
3.29433	-98
3.29800	-97
3.30167	-92
3.30533	-82
3.30900	-74
3.31267	-75
3.31633	-85
3.32000	-99
3.32367	-111
3.32733	-118
3.33100	-122
3.33467	-125
3.33833	-125
3.34200	-127
3.34567	-128
3.34933	-125
3.35300	-118
3.35667	-112
3.36033	-107
3.36400	-102
3.36767	-96
3.37133	-89
3.37500	-84
3.37867	-82
3.38233	-82
3.38600	-85
3.38967	-90
3.39333	-97
3.39700	-106
3.40067	-117
3.40433	-125
3.40800	-126
3.41167	-124
3.41533	-121
3.41900	-117
3.42267	-111
3.42633	-106
3.43000	-99
3.43367	-92
3.43733	-90
3.44100	-94
3.44467	-103
3.44833	-112
3.45200	-118
3.45567	-120
3.45933	-117
3.46300	-112
3.46667	-108
3.47033	-105
3.47400	-105
3.47767	-107
3.48133	-109
3.48500	-110
3.48867	-108
3.49233	-104
3.49600	-100
3.49967	-97
3.50333	-97
3.50700	-94
3.51067	-88
3.51433	-85
3.51800	-87
3.52167	-94
3.52533	-102
3.52900	-110
3.53267	-117
3.53633	-120
3.54000	-119
3.54367	-115
3.54733	-110
3.55100	-104
3.55467	-98
3.55833	-96
3.56200	-94
3.56567	-95
3.56933	-97
3.57300	-100
3.57667	-103
3.58033	-107
3.58400	-113
3.58767	-115
3.59133	-114
3.59500	-115
3.59867	-119
3.60233	-120
3.60600	-117
3.60967	-116
3.61333	-115
3.61700	-111
3.62067	-105
3.62433	-101
3.62800	-98
3.63167	-98
3.63533	-102
3.63900	-104
3.64267	-105
3.64633	-105
3.65000	-109
3.65367	-114
3.65733	-119
3.66100	-123
3.66467	-125
3.66833	-124
3.67200	-120
3.67567	-115
3.67933	-109
3.68300	-104
3.68667	-105
3.69033	-110
3.69400	-115
3.69767	-120
3.70133	-122
3.70500	-123
3.70867	-125
3.71233	-127
3.71600	-126
3.71967	-122
3.72333	-115
3.72700	-108
3.73067	-103
3.73433	-104
3.73800	-110
3.74167	-120
3.74533	-126
3.74900	-125
3.75267	-118
3.75633	-110
3.76000	-108
3.76367	-109
3.76733	-106
3.77100	-103
3.77467	-105
3.77833	-109
3.78200	-110
3.78567	-108
3.78933	-108
3.79300	-113
3.79667	-119
3.80033	-123
3.80400	-123
3.80767	-125
3.81133	-127
3.81500	-126
3.81867	-122
3.82233	-118
3.82600	-115
3.82967	-110
3.83333	-107
3.83700	-107
3.84067	-108
3.84433	-107
3.84800	-107
3.85167	-108
3.85533	-110
3.85900	-112
3.86267	-113
3.86633	-110
3.87000	-105
3.87367	-101
3.87733	-99
3.88100	-99
3.88467	-102
3.88833	-108
3.89200	-114
3.89567	-117
3.89933	-118
3.90300	-116
3.90667	-115
3.91033	-117
3.91400	-117
3.91767	-117
3.92133	-117
3.92500	-117
3.92867	-116
3.93233	-118
3.93600	-125
3.93967	-134
3.94333	-141
3.94700	-144
3.95067	-145
3.95433	-145
3.95800	-143
3.96167	-140
3.96533	-135
3.96900	-133
3.97267	-130
3.97633	-128
3.98000	-127
3.98367	-129
3.98733	-124
3.99100	-119
3.99467	-119
3.99833	-117

[Chromatogram (Ch2)]
Interval(msec)	220
# of Points	1091
Start Time(min)	0.002
End Time(min)	3.998
R.Time (min)	Intensity
0.00167	1
0.00533	1
0.00900	2
0.01267	2
0.01633	2
0.02000	2
0.02367	2
0.02733	2
0.03100	2
0.03467	2
0.03833	3
0.04200	3
0.04567	3
0.04933	3
0.05300	4
0.05667	4
0.06033	4
0.06400	4
0.06767	5
0.07133	5
0.07500	6
0.07867	6
0.08233	7
0.08600	7
0.08967	7
0.09333	8
0.09700	8
0.10067	8
0.10433	8
0.10800	8
0.11167	7
0.11533	7
0.11900	6
0.12267	6
0.12633	5
0.13000	5
0.13367	5
0.13733	5
0.14100	5
0.14467	5
0.14833	5
0.15200	5
0.15567	5
0.15933	5
0.16300	5
0.16667	5
0.17033	5
0.17400	5
0.17767	4
0.18133	4
0.18500	4
0.18867	4
0.19233	4
0.19600	4
0.19967	4
0.20333	4
0.20700	3
0.21067	3
0.21433	3
0.21800	2
0.22167	2
0.22533	1
0.22900	1
0.23267	0
0.23633	0
0.24000	0
0.24367	0
0.24733	0
0.25100	0
0.25467	0
0.25833	0
0.26200	0
0.26567	1
0.26933	1
0.27300	1
0.27667	2
0.28033	2
0.28400	2
0.28767	3
0.29133	3
0.29500	4
0.29867	4
0.30233	4
0.30600	5
0.30967	5
0.31333	5
0.31700	5
0.32067	4
0.32433	4
0.32800	4
0.33167	3
0.33533	3
0.33900	3
0.34267	3
0.34633	3
0.35000	3
0.35367	3
0.35733	3
0.36100	3
0.36467	3
0.36833	3
0.37200	3
0.37567	3
0.37933	3
0.38300	3
0.38667	3
0.39033	3
0.39400	3
0.39767	3
0.40133	3
0.40500	3
0.40867	3
0.41233	3
0.41600	3
0.41967	4
0.42333	4
0.42700	4
0.43067	4
0.43433	3
0.43800	3
0.44167	3
0.44533	3
0.44900	3
0.45267	3
0.45633	3
0.46000	4
0.46367	4
0.46733	4
0.47100	4
0.47467	4
0.47833	4
0.48200	4
0.48567	3
0.48933	3
0.49300	3
0.49667	3
0.50033	3
0.50400	3
0.50767	2
0.51133	2
0.51500	2
0.51867	1
0.52233	1
0.52600	1
0.52967	1
0.53333	1
0.53700	0
0.54067	0
0.54433	0
0.54800	-0
0.55167	-0
0.55533	-1
0.55900	-1
0.56267	-1
0.56633	-1
0.57000	-2
0.57367	-2
0.57733	-2
0.58100	-2
0.58467	-2
0.58833	-2
0.59200	-2
0.59567	-2
0.59933	-2
0.60300	-2
0.60667	-2
0.61033	-2
0.61400	-1
0.61767	-1
0.62133	-0
0.62500	0
0.62867	1
0.63233	1
0.63600	1
0.63967	1
0.64333	1
0.64700	1
0.65067	1
0.65433	1
0.65800	1
0.66167	2
0.66533	2
0.66900	2
0.67267	2
0.67633	2
0.68000	2
0.68367	2
0.68733	1
0.69100	1
0.69467	1
0.69833	0
0.70200	0
0.70567	0
0.70933	0
0.71300	0
0.71667	0
0.72033	0
0.72400	1
0.72767	1
0.73133	1
0.73500	1
0.73867	1
0.74233	1
0.74600	1
0.74967	1
0.75333	1
0.75700	1
0.76067	1
0.76433	1
0.76800	0
0.77167	0
0.77533	0
0.77900	-0
0.78267	-1
0.78633	-1
0.79000	-1
0.79367	-1
0.79733	-1
0.80100	-1
0.80467	-2
0.80833	-2
0.81200	-2
0.81567	-2
0.81933	-2
0.82300	-2
0.82667	-2
0.83033	-2
0.83400	-2
0.83767	-2
0.84133	-2
0.84500	-2
0.84867	-2
0.85233	-2
0.85600	-2
0.85967	-2
0.86333	-2
0.86700	-2
0.87067	-2
0.87433	-2
0.87800	-2
0.88167	-2
0.88533	-2
0.88900	-2
0.89267	-2
0.89633	-2
0.90000	-1
0.90367	-1
0.90733	-1
0.91100	-1
0.91467	-0
0.91833	-0
0.92200	-0
0.92567	-0
0.92933	-0
0.93300	-0
0.93667	-0
0.94033	-1
0.94400	-1
0.94767	-1
0.95133	-1
0.95500	-1
0.95867	-2
0.96233	-2
0.96600	-2
0.96967	-2
0.97333	-2
0.97700	-1
0.98067	-1
0.98433	-1
0.98800	-1
0.99167	-1
0.99533	-1
0.99900	-1
1.00267	-1
1.00633	-1
1.01000	-1
1.01367	-0
1.01733	-0
1.02100	0
1.02467	0
1.02833	-0
1.03200	-0
1.03567	-0
1.03933	-0
1.04300	-0
1.04667	-0
1.05033	-0
1.05400	0
1.05767	0
1.06133	1
1.06500	1
1.06867	1
1.07233	1
1.07600	1
1.07967	1
1.08333	1
1.08700	1
1.09067	1
1.09433	1
1.09800	0
1.10167	0
1.10533	0
1.10900	-0
1.11267	-0
1.11633	-1
1.12000	-1
1.12367	-1
1.12733	-1
1.13100	-1
1.13467	-1
1.13833	-1
1.14200	-1
1.14567	-1
1.14933	-1
1.15300	-1
1.15667	-1
1.16033	-0
1.16400	-0
1.16767	-0
1.17133	0
1.17500	1
1.17867	1
1.18233	1
1.18600	1
1.18967	1
1.19333	1
1.19700	1
1.20067	1
1.20433	1
1.20800	1
1.21167	1
1.21533	1
1.21900	1
1.22267	2
1.22633	2
1.23000	2
1.23367	2
1.23733	1
1.24100	1
1.24467	1
1.24833	1
1.25200	1
1.25567	1
1.25933	1
1.26300	1
1.26667	1
1.27033	1
1.27400	0
1.27767	-0
1.28133	-1
1.28500	-1
1.28867	-1
1.29233	-2
1.29600	-2
1.29967	-2
1.30333	-2
1.30700	-2
1.31067	-2
1.31433	-2
1.31800	-2
1.32167	-2
1.32533	-2
1.32900	-2
1.33267	-3
1.33633	-3
1.34000	-3
1.34367	-3
1.34733	-4
1.35100	-4
1.35467	-4
1.35833	-4
1.36200	-4
1.36567	-4
1.36933	-4
1.37300	-3
1.37667	-3
1.38033	-3
1.38400	-3
1.38767	-3
1.39133	-3
1.39500	-4
1.39867	-4
1.40233	-4
1.40600	-4
1.40967	-4
1.41333	-4
1.41700	-3
1.42067	-3
1.42433	-3
1.42800	-3
1.43167	-2
1.43533	-2
1.43900	-2
1.44267	-2
1.44633	-2
1.45000	-1
1.45367	-1
1.45733	-1
1.46100	-1
1.46467	-1
1.46833	-1
1.47200	-2
1.47567	-2
1.47933	-2
1.48300	-2
1.48667	-2
1.49033	-2
1.49400	-2
1.49767	-2
1.50133	-1
1.50500	-1
1.50867	-1
1.51233	-1
1.51600	-1
1.51967	-1
1.52333	-1
1.52700	-2
1.53067	-2
1.53433	-3
1.53800	-3
1.54167	-3
1.54533	-4
1.54900	-4
1.55267	-4
1.55633	-4
1.56000	-4
1.56367	-4
1.56733	-4
1.57100	-4
1.57467	-5
1.57833	-5
1.58200	-5
1.58567	-5
1.58933	-6
1.59300	-6
1.59667	-6
1.60033	-7
1.60400	-8
1.60767	-10
1.61133	-11
1.61500	-13
1.61867	-15
1.62233	-18
1.62600	-20
1.62967	-23
1.63333	-26
1.63700	-29
1.64067	-32
1.64433	-35
1.64800	-38
1.65167	-41
1.65533	-44
1.65900	-47
1.66267	-50
1.66633	-53
1.67000	-57
1.67367	-61
1.67733	-65
1.68100	-70
1.68467	-75
1.68833	-80
1.69200	-85
1.69567	-89
1.69933	-93
1.70300	-96
1.70667	-98
1.71033	-101
1.71400	-103
1.71767	-104
1.72133	-106
1.72500	-107
1.72867	-108
1.73233	-109
1.73600	-110
1.73967	-111
1.74333	-112
1.74700	-113
1.75067	-113
1.75433	-114
1.75800	-115
1.76167	-115
1.76533	-116
1.76900	-116
1.77267	-117
1.77633	-118
1.78000	-118
1.78367	-119
1.78733	-119
1.79100	-119
1.79467	-119
1.79833	-119
1.80200	-120
1.80567	-120
1.80933	-120
1.81300	-120
1.81667	-120
1.82033	-120
1.82400	-120
1.82767	-120
1.83133	-120
1.83500	-120
1.83867	-120
1.84233	-120
1.84600	-120
1.84967	-120
1.85333	-120
1.85700	-120
1.86067	-120
1.86433	-121
1.86800	-121
1.87167	-121
1.87533	-121
1.87900	-120
1.88267	-120
1.88633	-120
1.89000	-119
1.89367	-119
1.89733	-119
1.90100	-119
1.90467	-119
1.90833	-118
1.91200	-118
1.91567	-117
1.91933	-117
1.92300	-117
1.92667	-117
1.93033	-117
1.93400	-116
1.93767	-116
1.94133	-116
1.94500	-116
1.94867	-116
1.95233	-117
1.95600	-117
1.95967	-118
1.96333	-118
1.96700	-118
1.97067	-118
1.97433	-118
1.97800	-118
1.98167	-117
1.98533	-116
1.98900	-115
1.99267	-115
1.99633	-114
2.00000	-114
2.00367	-114
2.00733	-113
2.01100	-113
2.01467	-112
2.01833	-112
2.02200	-112
2.02567	-111
2.02933	-111
2.03300	-110
2.03667	-110
2.04033	-109
2.04400	-108
2.04767	-108
2.05133	-108
2.05500	-108
2.05867	-108
2.06233	-108
2.06600	-108
2.06967	-108
2.07333	-108
2.07700	-108
2.08067	-108
2.08433	-108
2.08800	-107
2.09167	-107
2.09533	-107
2.09900	-107
2.10267	-107
2.10633	-107
2.11000	-106
2.11367	-106
2.11733	-106
2.12100	-105
2.12467	-105
2.12833	-105
2.13200	-105
2.13567	-105
2.13933	-105
2.14300	-104
2.14667	-104
2.15033	-103
2.15400	-103
2.15767	-102
2.16133	-101
2.16500	-101
2.16867	-100
2.17233	-99
2.17600	-99
2.17967	-98
2.18333	-98
2.18700	-98
2.19067	-98
2.19433	-98
2.19800	-98
2.20167	-98
2.20533	-98
2.20900	-97
2.21267	-96
2.21633	-96
2.22000	-96
2.22367	-95
2.22733	-96
2.23100	-96
2.23467	-96
2.23833	-96
2.24200	-97
2.24567	-97
2.24933	-97
2.25300	-97
2.25667	-97
2.26033	-96
2.26400	-96
2.26767	-95
2.27133	-94
2.27500	-94
2.27867	-94
2.28233	-94
2.28600	-94
2.28967	-94
2.29333	-95
2.29700	-95
2.30067	-94
2.30433	-93
2.30800	-93
2.31167	-92
2.31533	-91
2.31900	-90
2.32267	-89
2.32633	-89
2.33000	-88
2.33367	-88
2.33733	-87
2.34100	-87
2.34467	-86
2.34833	-85
2.35200	-85
2.35567	-84
2.35933	-84
2.36300	-83
2.36667	-82
2.37033	-82
2.37400	-81
2.37767	-79
2.38133	-77
2.38500	-73
2.38867	-69
2.39233	-65
2.39600	-61
2.39967	-56
2.40333	-51
2.40700	-47
2.41067	-42
2.41433	-39
2.41800	-35
2.42167	-32
2.42533	-29
2.42900	-26
2.43267	-23
2.43633	-20
2.44000	-17
2.44367	-15
2.44733	-13
2.45100	-11
2.45467	-10
2.45833	-8
2.46200	-6
2.46567	-5
2.46933	-3
2.47300	-2
2.47667	-0
2.48033	1
2.48400	2
2.48767	3
2.49133	4
2.49500	4
2.49867	5
2.50233	6
2.50600	7
2.50967	8
2.51333	8
2.51700	9
2.52067	10
2.52433	10
2.52800	11
2.53167	11
2.53533	12
2.53900	12
2.54267	13
2.54633	13
2.55000	13
2.55367	13
2.55733	13
2.56100	13
2.56467	14
2.56833	14
2.57200	15
2.57567	15
2.57933	15
2.58300	15
2.58667	15
2.59033	15
2.59400	15
2.59767	15
2.60133	15
2.60500	16
2.60867	17
2.61233	17
2.61600	17
2.61967	18
2.62333	18
2.62700	18
2.63067	18
2.63433	18
2.63800	18
2.64167	18
2.64533	18
2.64900	19
2.65267	20
2.65633	20
2.66000	21
2.66367	22
2.66733	22
2.67100	22
2.67467	22
2.67833	22
2.68200	22
2.68567	22
2.68933	21
2.69300	21
2.69667	22
2.70033	22
2.70400	22
2.70767	23
2.71133	23
2.71500	24
2.71867	24
2.72233	24
2.72600	25
2.72967	25
2.73333	25
2.73700	24
2.74067	24
2.74433	23
2.74800	23
2.75167	22
2.75533	22
2.75900	22
2.76267	22
2.76633	21
2.77000	21
2.77367	22
2.77733	22
2.78100	22
2.78467	22
2.78833	22
2.79200	23
2.79567	23
2.79933	23
2.80300	24
2.80667	24
2.81033	24
2.81400	24
2.81767	24
2.82133	24
2.82500	24
2.82867	24
2.83233	24
2.83600	25
2.83967	24
2.84333	23
2.84700	22
2.85067	18
2.85433	13
2.85800	5
2.86167	-6
2.86533	-20
2.86900	-39
2.87267	-61
2.87633	-87
2.88000	-118
2.88367	-152
2.88733	-189
2.89100	-230
2.89467	-273
2.89833	-318
2.90200	-365
2.90567	-414
2.90933	-464
2.91300	-514
2.91667	-564
2.92033	-614
2.92400	-664
2.92767	-714
2.93133	-762
2.93500	-811
2.93867	-863
2.94233	-921
2.94600	-984
2.94967	-1041
2.95333	-1084
2.95700	-1102
2.96067	-1093
2.96433	-1060
2.96800	-1006
2.97167	-938
2.97533	-862
2.97900	-781
2.98267	-701
2.98633	-623
2.99000	-549
2.99367	-481
2.99733	-418
3.00100	-362
3.00467	-312
3.00833	-268
3.01200	-229
3.01567	-195
3.01933	-166
3.02300	-140
3.02667	-118
3.03033	-99
3.03400	-83
3.03767	-69
3.04133	-57
3.04500	-46
3.04867	-37
3.05233	-29
3.05600	-23
3.05967	-17
3.06333	-12
3.06700	-8
3.07067	-5
3.07433	-2
3.07800	-0
3.08167	2
3.08533	4
3.08900	5
3.09267	6
3.09633	8
3.10000	8
3.10367	9
3.10733	10
3.11100	11
3.11467	12
3.11833	12
3.12200	13
3.12567	14
3.12933	14
3.13300	15
3.13667	15
3.14033	16
3.14400	16
3.14767	16
3.15133	17
3.15500	17
3.15867	17
3.16233	18
3.16600	18
3.16967	18
3.17333	19
3.17700	19
3.18067	19
3.18433	20
3.18800	20
3.19167	20
3.19533	20
3.19900	21
3.20267	21
3.20633	21
3.21000	21
3.21367	21
3.21733	21
3.22100	21
3.22467	22
3.22833	22
3.23200	22
3.23567	23
3.23933	23
3.24300	23
3.24667	23
3.25033	23
3.25400	23
3.25767	23
3.26133	23
3.26500	23
3.26867	23
3.27233	23
3.27600	23
3.27967	23
3.28333	23
3.28700	23
3.29067	23
3.29433	24
3.29800	24
3.30167	24
3.30533	25
3.30900	25
3.31267	25
3.31633	26
3.32000	26
3.32367	26
3.32733	27
3.33100	27
3.33467	27
3.33833	27
3.34200	28
3.34567	28
3.34933	28
3.35300	28
3.35667	28
3.36033	28
3.36400	28
3.36767	27
3.37133	27
3.37500	27
3.37867	27
3.38233	28
3.38600	28
3.38967	28
3.39333	28
3.39700	28
3.40067	28
3.40433	28
3.40800	28
3.41167	28
3.41533	28
3.41900	28
3.42267	27
3.42633	27
3.43000	27
3.43367	27
3.43733	27
3.44100	26
3.44467	27
3.44833	27
3.45200	27
3.45567	27
3.45933	27
3.46300	27
3.46667	27
3.47033	27
3.47400	27
3.47767	27
3.48133	27
3.48500	27
3.48867	27
3.49233	27
3.49600	27
3.49967	27
3.50333	27
3.50700	27
3.51067	27
3.51433	27
3.51800	27
3.52167	27
3.52533	27
3.52900	27
3.53267	27
3.53633	27
3.54000	27
3.54367	27
3.54733	27
3.55100	27
3.55467	27
3.55833	27
3.56200	27
3.56567	27
3.56933	27
3.57300	27
3.57667	27
3.58033	27
3.58400	27
3.58767	27
3.59133	27
3.59500	27
3.59867	27
3.60233	27
3.60600	27
3.60967	27
3.61333	27
3.61700	27
3.62067	27
3.62433	27
3.62800	27
3.63167	27
3.63533	26
3.63900	26
3.64267	26
3.64633	26
3.65000	26
3.65367	26
3.65733	26
3.66100	27
3.66467	27
3.66833	27
3.67200	27
3.67567	27
3.67933	27
3.68300	27
3.68667	27
3.69033	27
3.69400	27
3.69767	27
3.70133	27
3.70500	27
3.70867	26
3.71233	26
3.71600	26
3.71967	26
3.72333	26
3.72700	26
3.73067	25
3.73433	26
3.73800	26
3.74167	26
3.74533	26
3.74900	26
3.75267	26
3.75633	26
3.76000	26
3.76367	27
3.76733	27
3.77100	27
3.77467	27
3.77833	27
3.78200	27
3.78567	27
3.78933	27
3.79300	27
3.79667	27
3.80033	27
3.80400	27
3.80767	27
3.81133	27
3.81500	27
3.81867	26
3.82233	26
3.82600	26
3.82967	26
3.83333	26
3.83700	26
3.84067	26
3.84433	26
3.84800	27
3.85167	27
3.85533	27
3.85900	27
3.86267	27
3.86633	26
3.87000	26
3.87367	26
3.87733	26
3.88100	26
3.88467	26
3.88833	26
3.89200	26
3.89567	26
3.89933	26
3.90300	26
3.90667	27
3.91033	27
3.91400	27
3.91767	27
3.92133	26
3.92500	26
3.92867	26
3.93233	26
3.93600	26
3.93967	26
3.94333	26
3.94700	26
3.95067	27
3.95433	27
3.95800	27
3.96167	26
3.96533	26
3.96900	26
3.97267	26
3.97633	26
3.98000	26
3.98367	26
3.98733	26
3.99100	26
3.99467	26
3.99833	26

[Chromatogram (Ch3)]
Interval(msec)	220
# of Points	1091
Start Time(min)	0.002
End Time(min)	3.998
R.Time (min)	Intensity
0.00167	-0
0.00533	1
0.00900	4
0.01267	6
0.01633	3
0.02000	1
0.02367	2
0.02733	3
0.03100	2
0.03467	1
0.03833	1
0.04200	0
0.04567	-1
0.04933	0
0.05300	1
0.05667	1
0.06033	2
0.06400	4
0.06767	7
0.07133	9
0.07500	7
0.07867	5
0.08233	6
0.08600	9
0.08967	13
0.09333	14
0.09700	12
0.10067	7
0.10433	5
0.10800	5
0.11167	6
0.11533	8
0.11900	9
0.12267	10
0.12633	12
0.13000	11
0.13367	11
0.13733	10
0.14100	8
0.14467	7
0.14833	9
0.15200	11
0.15567	11
0.15933	11
0.16300	12
0.16667	13
0.17033	14
0.17400	12
0.17767	12
0.18133	13
0.18500	16
0.18867	16
0.19233	15
0.19600	14
0.19967	12
0.20333	10
0.20700	12
0.21067	13
0.21433	14
0.21800	14
0.22167	12
0.22533	11
0.22900	10
0.23267	9
0.23633	10
0.24000	10
0.24367	9
0.24733	11
0.25100	12
0.25467	14
0.25833	15
0.26200	17
0.26567	18
0.26933	17
0.27300	16
0.27667	16
0.28033	17
0.28400	17
0.28767	17
0.29133	18
0.29500	20
0.29867	20
0.30233	20
0.30600	19
0.30967	17
0.31333	17
0.31700	20
0.32067	22
0.32433	24
0.32800	25
0.33167	26
0.33533	25
0.33900	23
0.34267	22
0.34633	20
0.35000	20
0.35367	20
0.35733	20
0.36100	20
0.36467	21
0.36833	20
0.37200	20
0.37567	20
0.37933	21
0.38300	23
0.38667	24
0.39033	25
0.39400	25
0.39767	24
0.40133	21
0.40500	22
0.40867	23
0.41233	22
0.41600	22
0.41967	22
0.42333	23
0.42700	25
0.43067	26
0.43433	28
0.43800	29
0.44167	27
0.44533	27
0.44900	28
0.45267	29
0.45633	28
0.46000	26
0.46367	26
0.46733	27
0.47100	26
0.47467	26
0.47833	26
0.48200	28
0.48567	28
0.48933	28
0.49300	31
0.49667	33
0.50033	34
0.50400	33
0.50767	31
0.51133	32
0.51500	31
0.51867	31
0.52233	34
0.52600	34
0.52967	32
0.53333	31
0.53700	30
0.54067	30
0.54433	31
0.54800	33
0.55167	36
0.55533	37
0.55900	36
0.56267	36
0.56633	37
0.57000	37
0.57367	36
0.57733	33
0.58100	32
0.58467	31
0.58833	30
0.59200	32
0.59567	34
0.59933	35
0.60300	34
0.60667	33
0.61033	33
0.61400	34
0.61767	36
0.62133	35
0.62500	34
0.62867	34
0.63233	34
0.63600	33
0.63967	32
0.64333	32
0.64700	33
0.65067	32
0.65433	34
0.65800	36
0.66167	37
0.66533	39
0.66900	40
0.67267	41
0.67633	43
0.68000	44
0.68367	43
0.68733	41
0.69100	39
0.69467	38
0.69833	39
0.70200	39
0.70567	39
0.70933	40
0.71300	41
0.71667	43
0.72033	43
0.72400	42
0.72767	41
0.73133	41
0.73500	42
0.73867	40
0.74233	38
0.74600	37
0.74967	38
0.75333	39
0.75700	41
0.76067	39
0.76433	40
0.76800	41
0.77167	42
0.77533	43
0.77900	43
0.78267	42
0.78633	41
0.79000	42
0.79367	44
0.79733	46
0.80100	46
0.80467	45
0.80833	46
0.81200	46
0.81567	46
0.81933	47
0.82300	49
0.82667	50
0.83033	51
0.83400	50
0.83767	48
0.84133	48
0.84500	46
0.84867	45
0.85233	47
0.85600	49
0.85967	52
0.86333	51
0.86700	50
0.87067	49
0.87433	49
0.87800	49
0.88167	48
0.88533	49
0.88900	50
0.89267	50
0.89633	52
0.90000	55
0.90367	57
0.90733	56
0.91100	55
0.91467	55
0.91833	56
0.92200	58
0.92567	58
0.92933	56
0.93300	55
0.93667	54
0.94033	54
0.94400	53
0.94767	54
0.95133	55
0.95500	56
0.95867	55
0.96233	53
0.96600	53
0.96967	53
0.97333	53
0.97700	54
0.98067	56
0.98433	59
0.98800	62
0.99167	63
0.99533	62
0.99900	64
1.00267	65
1.00633	62
1.01000	59
1.01367	59
1.01733	57
1.02100	56
1.02467	59
1.02833	60
1.03200	59
1.03567	58
1.03933	57
1.04300	58
1.04667	57
1.05033	57
1.05400	58
1.05767	58
1.06133	57
1.06500	56
1.06867	55
1.07233	55
1.07600	57
1.07967	59
1.08333	60
1.08700	59
1.09067	57
1.09433	56
1.09800	58
1.10167	60
1.10533	60
1.10900	61
1.11267	63
1.11633	66
1.12000	68
1.12367	68
1.12733	67
1.13100	67
1.13467	67
1.13833	65
1.14200	66
1.14567	67
1.14933	67
1.15300	66
1.15667	67
1.16033	69
1.16400	73
1.16767	75
1.17133	75
1.17500	71
1.17867	69
1.18233	68
1.18600	68
1.18967	68
1.19333	68
1.19700	67
1.20067	67
1.20433	68
1.20800	69
1.21167	68
1.21533	68
1.21900	67
1.22267	67
1.22633	68
1.23000	67
1.23367	68
1.23733	69
1.24100	70
1.24467	70
1.24833	70
1.25200	69
1.25567	69
1.25933	67
1.26300	68
1.26667	69
1.27033	69
1.27400	69
1.27767	69
1.28133	67
1.28500	65
1.28867	62
1.29233	61
1.29600	62
1.29967	64
1.30333	66
1.30700	65
1.31067	67
1.31433	70
1.31800	72
1.32167	73
1.32533	74
1.32900	74
1.33267	73
1.33633	72
1.34000	72
1.34367	73
1.34733	73
1.35100	73
1.35467	74
1.35833	75
1.36200	73
1.36567	69
1.36933	68
1.37300	69
1.37667	69
1.38033	69
1.38400	70
1.38767	71
1.39133	71
1.39500	70
1.39867	71
1.40233	72
1.40600	72
1.40967	72
1.41333	73
1.41700	73
1.42067	76
1.42433	79
1.42800	79
1.43167	76
1.43533	73
1.43900	69
1.44267	68
1.44633	69
1.45000	73
1.45367	77
1.45733	77
1.46100	75
1.46467	74
1.46833	74
1.47200	72
1.47567	70
1.47933	71
1.48300	74
1.48667	73
1.49033	72
1.49400	72
1.49767	72
1.50133	70
1.50500	69
1.50867	67
1.51233	66
1.51600	66
1.51967	67
1.52333	69
1.52700	71
1.53067	72
1.53433	69
1.53800	67
1.54167	70
1.54533	73
1.54900	78
1.55267	80
1.55633	80
1.56000	79
1.56367	76
1.56733	74
1.57100	75
1.57467	73
1.57833	73
1.58200	75
1.58567	76
1.58933	75
1.59300	76
1.59667	75
1.60033	75
1.60400	77
1.60767	78
1.61133	78
1.61500	77
1.61867	78
1.62233	80
1.62600	80
1.62967	80
1.63333	79
1.63700	79
1.64067	80
1.64433	80
1.64800	78
1.65167	78
1.65533	79
1.65900	81
1.66267	85
1.66633	86
1.67000	88
1.67367	91
1.67733	91
1.68100	91
1.68467	89
1.68833	87
1.69200	89
1.69567	93
1.69933	97
1.70300	97
1.70667	96
1.71033	97
1.71400	99
1.71767	99
1.72133	99
1.72500	96
1.72867	94
1.73233	93
1.73600	94
1.73967	95
1.74333	99
1.74700	103
1.75067	105
1.75433	106
1.75800	104
1.76167	103
1.76533	104
1.76900	105
1.77267	105
1.77633	106
1.78000	108
1.78367	110
1.78733	112
1.79100	116
1.79467	117
1.79833	115
1.80200	115
1.80567	115
1.80933	117
1.81300	115
1.81667	112
1.82033	112
1.82400	113
1.82767	116
1.83133	118
1.83500	119
1.83867	119
1.84233	119
1.84600	119
1.84967	118
1.85333	118
1.85700	119
1.86067	121
1.86433	123
1.86800	123
1.87167	122
1.87533	121
1.87900	120
1.88267	118
1.88633	119
1.89000	118
1.89367	119
1.89733	122
1.90100	125
1.90467	127
1.90833	127
1.91200	125
1.91567	125
1.91933	125
1.92300	125
1.92667	124
1.93033	125
1.93400	125
1.93767	127
1.94133	130
1.94500	131
1.94867	131
1.95233	132
1.95600	131
1.95967	131
1.96333	133
1.96700	134
1.97067	133
1.97433	131
1.97800	131
1.98167	132
1.98533	135
1.98900	139
1.99267	143
1.99633	144
2.00000	144
2.00367	144
2.00733	141
2.01100	142
2.01467	145
2.01833	150
2.02200	153
2.02567	153
2.02933	153
2.03300	154
2.03667	153
2.04033	152
2.04400	153
2.04767	155
2.05133	160
2.05500	165
2.05867	165
2.06233	165
2.06600	163
2.06967	160
2.07333	162
2.07700	166
2.08067	167
2.08433	167
2.08800	170
2.09167	171
2.09533	171
2.09900	175
2.10267	179
2.10633	180
2.11000	180
2.11367	183
2.11733	185
2.12100	186
2.12467	185
2.12833	184
2.13200	183
2.13567	185
2.13933	189
2.14300	192
2.14667	196
2.15033	197
2.15400	199
2.15767	201
2.16133	201
2.16500	200
2.16867	201
2.17233	203
2.17600	204
2.17967	204
2.18333	203
2.18700	203
2.19067	204
2.19433	205
2.19800	208
2.20167	211
2.20533	212
2.20900	214
2.21267	215
2.21633	216
2.22000	216
2.22367	216
2.22733	217
2.23100	218
2.23467	217
2.23833	219
2.24200	219
2.24567	218
2.24933	215
2.25300	215
2.25667	218
2.26033	217
2.26400	217
2.26767	218
2.27133	219
2.27500	220
2.27867	220
2.28233	222
2.28600	224
2.28967	226
2.29333	228
2.29700	229
2.30067	231
2.30433	233
2.30800	233
2.31167	234
2.31533	234
2.31900	234
2.32267	234
2.32633	234
2.33000	234
2.33367	235
2.33733	237
2.34100	239
2.34467	242
2.34833	243
2.35200	243
2.35567	243
2.35933	244
2.36300	243
2.36667	244
2.37033	245
2.37400	246
2.37767	247
2.38133	246
2.38500	243
2.38867	242
2.39233	243
2.39600	244
2.39967	245
2.40333	244
2.40700	244
2.41067	246
2.41433	248
2.41800	249
2.42167	251
2.42533	250
2.42900	250
2.43267	253
2.43633	256
2.44000	258
2.44367	261
2.44733	269
2.45100	271
2.45467	268
2.45833	259
2.46200	247
2.46567	235
2.46933	224
2.47300	215
2.47667	208
2.48033	200
2.48400	193
2.48767	185
2.49133	178
2.49500	169
2.49867	160
2.50233	153
2.50600	147
2.50967	141
2.51333	135
2.51700	130
2.52067	126
2.52433	123
2.52800	119
2.53167	119
2.53533	119
2.53900	117
2.54267	113
2.54633	108
2.55000	101
2.55367	94
2.55733	89
2.56100	82
2.56467	76
2.56833	72
2.57200	66
2.57567	62
2.57933	59
2.58300	57
2.58667	54
2.59033	51
2.59400	48
2.59767	38
2.60133	24
2.60500	1
2.60867	-31
2.61233	-71
2.61600	-116
2.61967	-162
2.62333	-207
2.62700	-249
2.63067	-286
2.63433	-315
2.63800	-336
2.64167	-352
2.64533	-363
2.64900	-369
2.65267	-369
2.65633	-364
2.66000	-357
2.66367	-349
2.66733	-340
2.67100	-331
2.67467	-321
2.67833	-310
2.68200	-300
2.68567	-289
2.68933	-277
2.69300	-268
2.69667	-257
2.70033	-247
2.70400	-237
2.70767	-226
2.71133	-218
2.71500	-212
2.71867	-207
2.72233	-199
2.72600	-191
2.72967	-183
2.73333	-175
2.73700	-168
2.74067	-165
2.74433	-183
2.74800	-205
2.75167	-195
2.75533	-149
2.75900	-77
2.76267	9
2.76633	99
2.77000	187
2.77367	272
2.77733	351
2.78100	427
2.78467	496
2.78833	559
2.79200	618
2.79567	671
2.79933	717
2.80300	758
2.80667	794
2.81033	826
2.81400	855
2.81767	884
2.82133	910
2.82500	935
2.82867	970
2.83233	1029
2.83600	1134
2.83967	1305
2.84333	1565
2.84700	1925
2.85067	2387
2.85433	2941
2.85800	3555
2.86167	4185
2.86533	4782
2.86900	5296
2.87267	5690
2.87633	5941
2.88000	6040
2.88367	5996
2.88733	5830
2.89100	5571
2.89467	5248
2.89833	4893
2.90200	4523
2.90567	4156
2.90933	3805
2.91300	3476
2.91667	3173
2.92033	2896
2.92400	2645
2.92767	2423
2.93133	2226
2.93500	2053
2.93867	1902
2.94233	1771
2.94600	1657
2.94967	1556
2.95333	1466
2.95700	1390
2.96067	1327
2.96433	1273
2.96800	1227
2.97167	1187
2.97533	1151
2.97900	1121
2.98267	1094
2.98633	1070
2.99000	1049
2.99367	1028
2.99733	1012
3.00100	999
3.00467	990
3.00833	983
3.01200	976
3.01567	970
3.01933	964
3.02300	956
3.02667	952
3.03033	951
3.03400	950
3.03767	949
3.04133	945
3.04500	939
3.04867	938
3.05233	935
3.05600	933
3.05967	931
3.06333	927
3.06700	922
3.07067	917
3.07433	915
3.07800	913
3.08167	912
3.08533	910
3.08900	908
3.09267	905
3.09633	901
3.10000	897
3.10367	893
3.10733	887
3.11100	882
3.11467	878
3.11833	874
3.12200	869
3.12567	866
3.12933	867
3.13300	866
3.13667	863
3.14033	858
3.14400	856
3.14767	854
3.15133	849
3.15500	845
3.15867	840
3.16233	838
3.16600	835
3.16967	832
3.17333	831
3.17700	828
3.18067	825
3.18433	823
3.18800	823
3.19167	823
3.19533	822
3.19900	820
3.20267	819
3.20633	816
3.21000	815
3.21367	812
3.21733	809
3.22100	805
3.22467	803
3.22833	801
3.23200	800
3.23567	800
3.23933	797
3.24300	791
3.24667	789
3.25033	787
3.25400	785
3.25767	781
3.26133	777
3.26500	772
3.26867	766
3.27233	762
3.27600	759
3.27967	755
3.28333	751
3.28700	747
3.29067	742
3.29433	736
3.29800	733
3.30167	729
3.30533	726
3.30900	723
3.31267	722
3.31633	719
3.32000	714
3.32367	711
3.32733	707
3.33100	703
3.33467	697
3.33833	692
3.34200	688
3.34567	685
3.34933	680
3.35300	676
3.35667	672
3.36033	667
3.36400	665
3.36767	663
3.37133	661
3.37500	657
3.37867	653
3.38233	649
3.38600	646
3.38967	642
3.39333	640
3.39700	636
3.40067	633
3.40433	631
3.40800	630
3.41167	629
3.41533	626
3.41900	623
3.42267	620
3.42633	616
3.43000	614
3.43367	612
3.43733	610
3.44100	609
3.44467	606
3.44833	604
3.45200	600
3.45567	596
3.45933	590
3.46300	586
3.46667	584
3.47033	584
3.47400	584
3.47767	582
3.48133	581
3.48500	578
3.48867	571
3.49233	563
3.49600	557
3.49967	555
3.50333	557
3.50700	557
3.51067	556
3.51433	555
3.51800	553
3.52167	549
3.52533	546
3.52900	545
3.53267	540
3.53633	536
3.54000	533
3.54367	532
3.54733	529
3.55100	526
3.55467	524
3.55833	522
3.56200	520
3.56567	519
3.56933	516
3.57300	513
3.57667	511
3.58033	509
3.58400	509
3.58767	508
3.59133	506
3.59500	502
3.59867	500
3.60233	498
3.60600	497
3.60967	497
3.61333	494
3.61700	491
3.62067	489
3.62433	488
3.62800	488
3.63167	485
3.63533	482
3.63900	479
3.64267	476
3.64633	472
3.65000	471
3.65367	468
3.65733	465
3.66100	461
3.66467	458
3.66833	457
3.67200	458
3.67567	457
3.67933	454
3.68300	450
3.68667	445
3.69033	441
3.69400	437
3.69767	435
3.70133	434
3.70500	431
3.70867	430
3.71233	426
3.71600	423
3.71967	423
3.72333	423
3.72700	421
3.73067	419
3.73433	417
3.73800	414
3.74167	412
3.74533	408
3.74900	406
3.75267	405
3.75633	402
3.76000	400
3.76367	398
3.76733	396
3.77100	394
3.77467	392
3.77833	389
3.78200	388
3.78567	388
3.78933	386
3.79300	384
3.79667	385
3.80033	387
3.80400	385
3.80767	381
3.81133	378
3.81500	376
3.81867	375
3.82233	375
3.82600	373
3.82967	371
3.83333	371
3.83700	370
3.84067	366
3.84433	364
3.84800	364
3.85167	364
3.85533	363
3.85900	362
3.86267	362
3.86633	360
3.87000	360
3.87367	359
3.87733	356
3.88100	352
3.88467	351
3.88833	350
3.89200	348
3.89567	344
3.89933	343
3.90300	343
3.90667	340
3.91033	338
3.91400	338
3.91767	336
3.92133	336
3.92500	335
3.92867	333
3.93233	331
3.93600	330
3.93967	331
3.94333	331
3.94700	328
3.95067	325
3.95433	322
3.95800	318
3.96167	315
3.96533	312
3.96900	313
3.97267	314
3.97633	315
3.98000	315
3.98367	314
3.98733	312
3.99100	309
3.99467	308
3.99833	309

[Status Trace (Column Oven Temperature)]
Interval(msec)	1000
# of Points	240
Start Time(min)	0.009
End Time(min)	3.992
Intensity Units	
Intensity Multiplier	1
R.Time (min)	Intensity
0.00873	35.09
0.02540	35.09
0.04207	35.07
0.05873	35.06
0.07540	35.04
0.09207	35.02
0.10873	35.02
0.12540	35.02
0.14207	35.01
0.15873	35.00
0.17540	35.00
0.19207	35.01
0.20873	35.01
0.22540	35.02
0.24207	35.02
0.25873	35.03
0.27540	35.02
0.29207	35.00
0.30873	35.00
0.32540	35.00
0.34207	35.00
0.35873	34.99
0.37540	34.99
0.39207	34.98
0.40873	34.97
0.42540	34.97
0.44207	34.97
0.45873	34.96
0.47540	34.95
0.49207	34.94
0.50873	34.94
0.52540	34.95
0.54207	34.96
0.55873	34.97
0.57540	34.98
0.59207	34.99
0.60873	34.99
0.62540	34.98
0.64207	34.98
0.65873	34.98
0.67540	34.97
0.69207	34.97
0.70873	34.97
0.72540	34.96
0.74207	34.96
0.75873	34.96
0.77540	34.97
0.79207	34.98
0.80873	34.99
0.82540	34.99
0.84207	34.99
0.85873	34.99
0.87540	35.00
0.89207	35.00
0.90873	35.00
0.92540	35.00
0.94207	35.00
0.95873	35.00
0.97540	35.00
0.99207	35.00
1.00873	34.99
1.02540	34.99
1.04207	34.99
1.05873	34.99
1.07540	34.99
1.09207	34.99
1.10873	34.99
1.12540	34.99
1.14207	35.00
1.15873	34.98
1.17540	34.98
1.19207	34.97
1.20873	34.96
1.22540	34.95
1.24207	34.95
1.25873	34.95
1.27540	34.96
1.29207	34.96
1.30873	34.96
1.32540	34.96
1.34207	34.97
1.35873	34.98
1.37540	34.99
1.39207	35.00
1.40873	34.99
1.42540	34.99
1.44207	34.99
1.45873	34.99
1.47540	34.98
1.49207	34.97
1.50873	34.97
1.52540	34.98
1.54207	34.98
1.55873	35.00
1.57540	35.01
1.59207	35.04
1.60873	35.11
1.62540	35.24
1.64207	35.42
1.65873	35.64
1.67540	35.95
1.69207	36.30
1.70873	36.66
1.72540	37.00
1.74207	37.33
1.75873	37.67
1.77540	38.01
1.79207	38.34
1.80873	38.67
1.82540	38.99
1.84207	39.32
1.85873	39.67
1.87540	39.99
1.89207	40.32
1.90873	40.65
1.92540	40.97
1.94207	41.29
1.95873	41.63
1.97540	41.96
1.99207	42.28
2.00873	42.60
2.02540	42.93
2.04207	43.24
2.05873	43.57
2.07540	43.89
2.09207	44.21
2.10873	44.53
2.12540	44.85
2.14207	45.19
2.15873	45.52
2.17540	45.84
2.19207	46.18
2.20873	46.50
2.22540	46.83
2.24207	47.19
2.25873	47.50
2.27540	47.84
2.29207	48.21
2.30873	48.51
2.32540	48.86
2.34207	49.17
2.35873	49.46
2.37540	49.67
2.39207	49.72
2.40873	49.73
2.42540	49.74
2.44207	49.74
2.45873	49.75
2.47540	49.75
2.49207	49.77
2.50873	49.77
2.52540	49.78
2.54207	49.82
2.55873	49.82
2.57540	49.82
2.59207	49.83
2.60873	49.83
2.62540	49.84
2.64207	49.86
2.65873	49.85
2.67540	49.87
2.69207	49.86
2.70873	49.85
2.72540	49.84
2.74207	49.87
2.75873	49.89
2.77540	49.91
2.79207	49.91
2.80873	49.91
2.82540	49.91
2.84207	49.93
2.85873	49.93
2.87540	49.94
2.89207	49.95
2.90873	49.97
2.92540	49.98
2.94207	49.99
2.95873	50.01
2.97540	50.02
2.99207	50.03
3.00873	50.03
3.02540	50.04
3.04207	50.04
3.05873	50.04
3.07540	50.05
3.09207	50.06
3.10873	50.07
3.12540	50.08
3.14207	50.09
3.15873	50.09
3.17540	50.09
3.19207	50.09
3.20873	50.10
3.22540	50.10
3.24207	50.10
3.25873	50.10
3.27540	50.10
3.29207	50.10
3.30873	50.08
3.32540	50.07
3.34207	50.06
3.35873	50.05
3.37540	50.05
3.39207	50.04
3.40873	50.03
3.42540	50.03
3.44207	50.04
3.45873	50.04
3.47540	50.04
3.49207	50.04
3.50873	50.04
3.52540	50.04
3.54207	50.04
3.55873	50.04
3.57540	50.03
3.59207	50.03
3.60873	50.04
3.62540	50.04
3.64207	50.05
3.65873	50.04
3.67540	50.05
3.69207	50.06
3.70873	50.06
3.72540	50.07
3.74207	50.07
3.75873	50.07
3.77540	50.06
3.79207	50.06
3.80873	50.06
3.82540	50.06
3.84207	50.06
3.85873	50.06
3.87540	50.06
3.89207	50.06
3.90873	50.05
3.92540	50.06
3.94207	50.06
3.95873	50.06
3.97540	50.06
3.99207	50.05

[Status Trace (Injection Unit Temperature)]
Interval(msec)	1000
# of Points	240
Start Time(min)	0.009
End Time(min)	3.992
Intensity Units	
Intensity Multiplier	1
R.Time (min)	Intensity
0.00873	99.98
0.02540	99.98
0.04207	99.98
0.05873	99.98
0.07540	99.98
0.09207	99.98
0.10873	99.98
0.12540	99.98
0.14207	99.98
0.15873	99.98
0.17540	99.98
0.19207	99.98
0.20873	99.98
0.22540	99.98
0.24207	99.98
0.25873	99.98
0.27540	99.98
0.29207	99.98
0.30873	99.98
0.32540	99.98
0.34207	99.98
0.35873	99.98
0.37540	99.98
0.39207	99.98
0.40873	99.98
0.42540	99.98
0.44207	99.98
0.45873	99.98
0.47540	99.98
0.49207	99.98
0.50873	99.98
0.52540	99.98
0.54207	99.98
0.55873	99.98
0.57540	99.98
0.59207	99.98
0.60873	99.98
0.62540	99.98
0.64207	99.98
0.65873	99.98
0.67540	99.98
0.69207	99.98
0.70873	99.98
0.72540	99.98
0.74207	99.98
0.75873	99.98
0.77540	99.98
0.79207	99.98
0.80873	99.98
0.82540	99.98
0.84207	99.98
0.85873	99.98
0.87540	99.98
0.89207	99.98
0.90873	99.98
0.92540	99.98
0.94207	99.98
0.95873	99.97
0.97540	99.98
0.99207	99.98
1.00873	99.99
1.02540	99.98
1.04207	99.98
1.05873	99.98
1.07540	99.98
1.09207	99.98
1.10873	99.98
1.12540	99.98
1.14207	99.99
1.15873	99.98
1.17540	99.98
1.19207	99.99
1.20873	99.98
1.22540	99.98
1.24207	99.99
1.25873	99.99
1.27540	99.98
1.29207	99.98
1.30873	99.98
1.32540	99.98
1.34207	99.98
1.35873	99.98
1.37540	99.98
1.39207	99.98
1.40873	99.99
1.42540	99.99
1.44207	99.98
1.45873	99.99
1.47540	99.99
1.49207	99.98
1.50873	99.98
1.52540	99.99
1.54207	99.98
1.55873	99.98
1.57540	99.98
1.59207	99.99
1.60873	99.99
1.62540	99.99
1.64207	99.99
1.65873	99.98
1.67540	99.99
1.69207	99.98
1.70873	99.99
1.72540	99.99
1.74207	99.99
1.75873	99.98
1.77540	99.98
1.79207	99.99
1.80873	99.98
1.82540	99.99
1.84207	99.98
1.85873	99.99
1.87540	99.99
1.89207	99.98
1.90873	99.98
1.92540	99.99
1.94207	99.98
1.95873	99.98
1.97540	99.98
1.99207	99.98
2.00873	99.98
2.02540	99.98
2.04207	99.98
2.05873	99.98
2.07540	99.97
2.09207	99.97
2.10873	99.98
2.12540	99.98
2.14207	99.97
2.15873	99.97
2.17540	99.97
2.19207	99.97
2.20873	99.97
2.22540	99.97
2.24207	99.97
2.25873	99.97
2.27540	99.97
2.29207	99.97
2.30873	99.97
2.32540	99.97
2.34207	99.97
2.35873	99.96
2.37540	99.97
2.39207	99.97
2.40873	99.97
2.42540	99.97
2.44207	99.97
2.45873	99.97
2.47540	99.97
2.49207	99.97
2.50873	99.97
2.52540	99.97
2.54207	99.97
2.55873	99.97
2.57540	99.96
2.59207	99.97
2.60873	99.98
2.62540	99.97
2.64207	99.97
2.65873	99.97
2.67540	99.98
2.69207	99.97
2.70873	99.98
2.72540	99.98
2.74207	99.99
2.75873	99.98
2.77540	99.99
2.79207	99.99
2.80873	99.99
2.82540	99.99
2.84207	99.99
2.85873	99.99
2.87540	100.00
2.89207	100.00
2.90873	99.99
2.92540	100.00
2.94207	100.00
2.95873	100.00
2.97540	100.00
2.99207	100.01
3.00873	100.01
3.02540	100.01
3.04207	100.01
3.05873	100.01
3.07540	100.02
3.09207	100.02
3.10873	100.02
3.12540	100.02
3.14207	100.02
3.15873	100.02
3.17540	100.02
3.19207	100.02
3.20873	100.02
3.22540	100.03
3.24207	100.02
3.25873	100.03
3.27540	100.03
3.29207	100.03
3.30873	100.03
3.32540	100.03
3.34207	100.03
3.35873	100.03
3.37540	100.03
3.39207	100.03
3.40873	100.03
3.42540	100.03
3.44207	100.03
3.45873	100.04
3.47540	100.03
3.49207	100.03
3.50873	100.03
3.52540	100.04
3.54207	100.03
3.55873	100.03
3.57540	100.04
3.59207	100.04
3.60873	100.04
3.62540	100.04
3.64207	100.04
3.65873	100.04
3.67540	100.03
3.69207	100.04
3.70873	100.04
3.72540	100.04
3.74207	100.03
3.75873	100.04
3.77540	100.04
3.79207	100.04
3.80873	100.04
3.82540	100.04
3.84207	100.04
3.85873	100.05
3.87540	100.04
3.89207	100.04
3.90873	100.04
3.92540	100.05
3.94207	100.05
3.95873	100.04
3.97540	100.05
3.99207	100.05

[Status Trace (Carrier Gas Pressure)]
Interval(msec)	1000
# of Points	240
Start Time(min)	0.009
End Time(min)	3.992
Intensity Units	
Intensity Multiplier	1
R.Time (min)	Intensity
0.00873	58.00
0.02540	55.24
0.04207	57.10
0.05873	59.25
0.07540	59.43
0.09207	58.08
0.10873	57.98
0.12540	58.01
0.14207	58.01
0.15873	58.01
0.17540	58.00
0.19207	58.00
0.20873	58.00
0.22540	58.00
0.24207	58.00
0.25873	58.00
0.27540	58.00
0.29207	58.00
0.30873	58.00
0.32540	58.00
0.34207	58.00
0.35873	58.00
0.37540	58.00
0.39207	58.00
0.40873	58.00
0.42540	58.00
0.44207	58.00
0.45873	58.00
0.47540	58.00
0.49207	58.00
0.50873	58.00
0.52540	58.00
0.54207	58.00
0.55873	58.00
0.57540	58.00
0.59207	58.00
0.60873	58.00
0.62540	58.00
0.64207	58.00
0.65873	58.00
0.67540	58.00
0.69207	58.00
0.70873	58.00
0.72540	58.00
0.74207	58.00
0.75873	58.00
0.77540	58.00
0.79207	58.00
0.80873	58.00
0.82540	58.00
0.84207	58.00
0.85873	58.00
0.87540	58.00
0.89207	58.00
0.90873	58.00
0.92540	58.00
0.94207	58.00
0.95873	58.00
0.97540	58.00
0.99207	58.00
1.00873	58.00
1.02540	58.00
1.04207	58.00
1.05873	58.00
1.07540	58.00
1.09207	58.00
1.10873	58.00
1.12540	58.00
1.14207	58.00
1.15873	58.00
1.17540	58.00
1.19207	58.00
1.20873	58.00
1.22540	58.00
1.24207	58.00
1.25873	58.00
1.27540	58.00
1.29207	58.00
1.30873	58.00
1.32540	58.00
1.34207	58.00
1.35873	58.00
1.37540	58.00
1.39207	58.00
1.40873	58.00
1.42540	58.00
1.44207	58.00
1.45873	58.00
1.47540	58.00
1.49207	58.00
1.50873	58.00
1.52540	58.00
1.54207	58.00
1.55873	58.00
1.57540	58.00
1.59207	58.00
1.60873	58.00
1.62540	58.00
1.64207	58.00
1.65873	58.00
1.67540	58.01
1.69207	58.01
1.70873	58.00
1.72540	58.00
1.74207	58.00
1.75873	58.00
1.77540	58.00
1.79207	58.00
1.80873	58.00
1.82540	58.00
1.84207	58.00
1.85873	58.00
1.87540	58.00
1.89207	58.00
1.90873	58.00
1.92540	58.00
1.94207	58.00
1.95873	58.00
1.97540	58.00
1.99207	58.00
2.00873	58.00
2.02540	58.00
2.04207	58.00
2.05873	58.00
2.07540	58.00
2.09207	58.00
2.10873	58.00
2.12540	58.00
2.14207	58.00
2.15873	58.00
2.17540	58.00
2.19207	58.00
2.20873	58.00
2.22540	58.00
2.24207	58.00
2.25873	58.00
2.27540	58.00
2.29207	58.00
2.30873	58.00
2.32540	58.00
2.34207	58.00
2.35873	58.00
2.37540	58.00
2.39207	57.99
2.40873	57.99
2.42540	58.00
2.44207	58.00
2.45873	58.00
2.47540	58.00
2.49207	58.00
2.50873	58.00
2.52540	57.98
2.54207	58.00
2.55873	58.00
2.57540	58.00
2.59207	58.00
2.60873	58.00
2.62540	58.00
2.64207	58.00
2.65873	58.00
2.67540	58.00
2.69207	58.00
2.70873	58.00
2.72540	58.00
2.74207	58.00
2.75873	58.00
2.77540	58.00
2.79207	58.00
2.80873	58.00
2.82540	58.00
2.84207	58.00
2.85873	58.00
2.87540	58.00
2.89207	58.00
2.90873	58.00
2.92540	58.00
2.94207	58.00
2.95873	58.00
2.97540	58.00
2.99207	58.00
3.00873	58.00
3.02540	58.00
3.04207	58.00
3.05873	58.00
3.07540	58.00
3.09207	58.00
3.10873	58.00
3.12540	58.00
3.14207	58.00
3.15873	58.00
3.17540	58.00
3.19207	58.00
3.20873	58.00
3.22540	58.00
3.24207	58.00
3.25873	58.00
3.27540	58.00
3.29207	58.00
3.30873	58.00
3.32540	58.00
3.34207	58.00
3.35873	58.00
3.37540	58.00
3.39207	58.00
3.40873	58.00
3.42540	58.00
3.44207	58.00
3.45873	58.00
3.47540	58.00
3.49207	58.00
3.50873	58.00
3.52540	58.00
3.54207	58.00
3.55873	58.00
3.57540	58.00
3.59207	58.00
3.60873	58.00
3.62540	58.00
3.64207	58.00
3.65873	58.00
3.67540	58.00
3.69207	58.00
3.70873	58.00
3.72540	58.00
3.74207	58.00
3.75873	58.00
3.77540	58.00
3.79207	58.00
3.80873	58.00
3.82540	58.00
3.84207	58.00
3.85873	58.00
3.87540	58.00
3.89207	58.00
3.90873	58.00
3.92540	58.00
3.94207	58.00
3.95873	58.00
3.97540	58.00
3.99207	58.00

[Status Trace (Carrier Gas Flow)]
Interval(msec)	1000
# of Points	240
Start Time(min)	0.009
End Time(min)	3.992
Intensity Units	
Intensity Multiplier	1
R.Time (min)	Intensity
0.00873	34.52
0.02540	34.54
0.04207	34.55
0.05873	34.54
0.07540	34.50
0.09207	34.52
0.10873	34.52
0.12540	34.52
0.14207	34.52
0.15873	34.52
0.17540	34.52
0.19207	34.52
0.20873	34.52
0.22540	34.52
0.24207	34.52
0.25873	34.52
0.27540	34.52
0.29207	34.52
0.30873	34.52
0.32540	34.52
0.34207	34.52
0.35873	34.52
0.37540	34.52
0.39207	34.52
0.40873	34.52
0.42540	34.52
0.44207	34.52
0.45873	34.52
0.47540	34.52
0.49207	34.52
0.50873	34.52
0.52540	34.52
0.54207	34.52
0.55873	34.52
0.57540	34.52
0.59207	34.52
0.60873	34.52
0.62540	34.52
0.64207	34.52
0.65873	34.52
0.67540	34.52
0.69207	34.52
0.70873	34.52
0.72540	34.52
0.74207	34.52
0.75873	34.52
0.77540	34.52
0.79207	34.52
0.80873	34.52
0.82540	34.52
0.84207	34.52
0.85873	34.52
0.87540	34.52
0.89207	34.52
0.90873	34.52
0.92540	34.52
0.94207	34.52
0.95873	34.52
0.97540	34.52
0.99207	34.52
1.00873	34.52
1.02540	34.52
1.04207	34.52
1.05873	34.52
1.07540	34.52
1.09207	34.52
1.10873	34.52
1.12540	34.52
1.14207	34.52
1.15873	34.52
1.17540	34.52
1.19207	34.52
1.20873	34.52
1.22540	34.52
1.24207	34.52
1.25873	34.52
1.27540	34.52
1.29207	34.52
1.30873	34.52
1.32540	34.52
1.34207	34.52
1.35873	34.52
1.37540	34.52
1.39207	34.52
1.40873	34.52
1.42540	34.52
1.44207	34.52
1.45873	34.52
1.47540	34.52
1.49207	34.52
1.50873	34.52
1.52540	34.52
1.54207	34.52
1.55873	34.52
1.57540	34.52
1.59207	34.52
1.60873	34.52
1.62540	34.52
1.64207	34.52
1.65873	34.52
1.67540	34.52
1.69207	34.52
1.70873	34.52
1.72540	34.52
1.74207	34.52
1.75873	34.52
1.77540	34.52
1.79207	34.52
1.80873	34.52
1.82540	34.52
1.84207	34.52
1.85873	34.52
1.87540	34.52
1.89207	34.52
1.90873	34.52
1.92540	34.52
1.94207	34.52
1.95873	34.52
1.97540	34.52
1.99207	34.52
2.00873	34.52
2.02540	34.52
2.04207	34.52
2.05873	34.52
2.07540	34.52
2.09207	34.52
2.10873	34.52
2.12540	34.52
2.14207	34.52
2.15873	34.52
2.17540	34.52
2.19207	34.52
2.20873	34.52
2.22540	34.52
2.24207	34.52
2.25873	34.52
2.27540	34.52
2.29207	34.52
2.30873	34.52
2.32540	34.52
2.34207	34.52
2.35873	34.52
2.37540	34.52
2.39207	34.52
2.40873	34.52
2.42540	34.52
2.44207	34.52
2.45873	34.52
2.47540	34.52
2.49207	34.52
2.50873	34.46
2.52540	34.52
2.54207	34.52
2.55873	34.52
2.57540	34.52
2.59207	34.52
2.60873	34.52
2.62540	34.52
2.64207	34.52
2.65873	34.52
2.67540	34.52
2.69207	34.52
2.70873	34.51
2.72540	34.52
2.74207	34.53
2.75873	34.52
2.77540	34.52
2.79207	34.52
2.80873	34.52
2.82540	34.52
2.84207	34.52
2.85873	34.52
2.87540	34.52
2.89207	34.51
2.90873	34.52
2.92540	34.52
2.94207	34.52
2.95873	34.52
2.97540	34.52
2.99207	34.52
3.00873	34.52
3.02540	34.52
3.04207	34.52
3.05873	34.52
3.07540	34.52
3.09207	34.52
3.10873	34.52
3.12540	34.52
3.14207	34.52
3.15873	34.52
3.17540	34.52
3.19207	34.52
3.20873	34.52
3.22540	34.52
3.24207	34.52
3.25873	34.52
3.27540	34.52
3.29207	34.52
3.30873	34.52
3.32540	34.52
3.34207	34.52
3.35873	34.52
3.37540	34.52
3.39207	34.52
3.40873	34.52
3.42540	34.52
3.44207	34.52
3.45873	34.52
3.47540	34.52
3.49207	34.52
3.50873	34.52
3.52540	34.52
3.54207	34.52
3.55873	34.52
3.57540	34.52
3.59207	34.52
3.60873	34.52
3.62540	34.52
3.64207	34.52
3.65873	34.52
3.67540	34.52
3.69207	34.52
3.70873	34.52
3.72540	34.52
3.74207	34.52
3.75873	34.52
3.77540	34.52
3.79207	34.52
3.80873	34.52
3.82540	34.52
3.84207	34.52
3.85873	34.52
3.87540	34.52
3.89207	34.51
3.90873	34.51
3.92540	34.53
3.94207	34.51
3.95873	34.52
3.97540	34.52
3.99207	34.51

[Status Trace (Column Flow)]
Interval(msec)	1000
# of Points	240
Start Time(min)	0.009
End Time(min)	3.992
Intensity Units	
Intensity Multiplier	1
R.Time (min)	Intensity
0.00873	5.52
0.02540	5.20
0.04207	5.41
0.05873	5.66
0.07540	5.68
0.09207	5.53
0.10873	5.51
0.12540	5.52
0.14207	5.52
0.15873	5.52
0.17540	5.52
0.19207	5.52
0.20873	5.52
0.22540	5.52
0.24207	5.52
0.25873	5.52
0.27540	5.52
0.29207	5.52
0.30873	5.52
0.32540	5.52
0.34207	5.52
0.35873	5.52
0.37540	5.52
0.39207	5.52
0.40873	5.52
0.42540	5.52
0.44207	5.52
0.45873	5.52
0.47540	5.52
0.49207	5.52
0.50873	5.52
0.52540	5.52
0.54207	5.52
0.55873	5.52
0.57540	5.52
0.59207	5.52
0.60873	5.52
0.62540	5.52
0.64207	5.52
0.65873	5.52
0.67540	5.52
0.69207	5.52
0.70873	5.52
0.72540	5.52
0.74207	5.52
0.75873	5.52
0.77540	5.52
0.79207	5.52
0.80873	5.52
0.82540	5.52
0.84207	5.52
0.85873	5.52
0.87540	5.52
0.89207	5.52
0.90873	5.52
0.92540	5.52
0.94207	5.52
0.95873	5.52
0.97540	5.52
0.99207	5.52
1.00873	5.52
1.02540	5.52
1.04207	5.52
1.05873	5.52
1.07540	5.52
1.09207	5.52
1.10873	5.52
1.12540	5.52
1.14207	5.52
1.15873	5.52
1.17540	5.52
1.19207	5.52
1.20873	5.52
1.22540	5.52
1.24207	5.52
1.25873	5.52
1.27540	5.52
1.29207	5.52
1.30873	5.52
1.32540	5.52
1.34207	5.52
1.35873	5.52
1.37540	5.52
1.39207	5.52
1.40873	5.52
1.42540	5.52
1.44207	5.52
1.45873	5.52
1.47540	5.52
1.49207	5.52
1.50873	5.52
1.52540	5.52
1.54207	5.52
1.55873	5.52
1.57540	5.52
1.59207	5.52
1.60873	5.52
1.62540	5.51
1.64207	5.51
1.65873	5.50
1.67540	5.49
1.69207	5.48
1.70873	5.47
1.72540	5.46
1.74207	5.45
1.75873	5.44
1.77540	5.42
1.79207	5.42
1.80873	5.41
1.82540	5.39
1.84207	5.39
1.85873	5.38
1.87540	5.36
1.89207	5.36
1.90873	5.35
1.92540	5.33
1.94207	5.33
1.95873	5.32
1.97540	5.31
1.99207	5.30
2.00873	5.29
2.02540	5.28
2.04207	5.27
2.05873	5.26
2.07540	5.25
2.09207	5.24
2.10873	5.23
2.12540	5.22
2.14207	5.21
2.15873	5.20
2.17540	5.19
2.19207	5.18
2.20873	5.17
2.22540	5.16
2.24207	5.16
2.25873	5.15
2.27540	5.14
2.29207	5.13
2.30873	5.12
2.32540	5.11
2.34207	5.10
2.35873	5.09
2.37540	5.08
2.39207	5.08
2.40873	5.08
2.42540	5.08
2.44207	5.08
2.45873	5.08
2.47540	5.08
2.49207	5.08
2.50873	5.08
2.52540	5.08
2.54207	5.08
2.55873	5.08
2.57540	5.08
2.59207	5.08
2.60873	5.08
2.62540	5.08
2.64207	5.08
2.65873	5.08
2.67540	5.08
2.69207	5.08
2.70873	5.08
2.72540	5.08
2.74207	5.08
2.75873	5.08
2.77540	5.08
2.79207	5.08
2.80873	5.08
2.82540	5.08
2.84207	5.08
2.85873	5.08
2.87540	5.08
2.89207	5.08
2.90873	5.08
2.92540	5.08
2.94207	5.08
2.95873	5.07
2.97540	5.07
2.99207	5.07
3.00873	5.07
3.02540	5.07
3.04207	5.07
3.05873	5.07
3.07540	5.07
3.09207	5.07
3.10873	5.07
3.12540	5.07
3.14207	5.07
3.15873	5.07
3.17540	5.07
3.19207	5.07
3.20873	5.07
3.22540	5.07
3.24207	5.07
3.25873	5.07
3.27540	5.07
3.29207	5.07
3.30873	5.07
3.32540	5.07
3.34207	5.07
3.35873	5.07
3.37540	5.07
3.39207	5.07
3.40873	5.07
3.42540	5.07
3.44207	5.07
3.45873	5.07
3.47540	5.07
3.49207	5.07
3.50873	5.07
3.52540	5.07
3.54207	5.07
3.55873	5.07
3.57540	5.07
3.59207	5.07
3.60873	5.07
3.62540	5.07
3.64207	5.07
3.65873	5.07
3.67540	5.07
3.69207	5.07
3.70873	5.07
3.72540	5.07
3.74207	5.07
3.75873	5.07
3.77540	5.07
3.79207	5.07
3.80873	5.07
3.82540	5.07
3.84207	5.07
3.85873	5.07
3.87540	5.07
3.89207	5.07
3.90873	5.07
3.92540	5.07
3.94207	5.07
3.95873	5.07
3.97540	5.07
3.99207	5.07

[Status Trace (Linear Velocity)]
Interval(msec)	1000
# of Points	240
Start Time(min)	0.009
End Time(min)	3.992
Intensity Units	
Intensity Multiplier	1
R.Time (min)	Intensity
0.00873	39.01
0.02540	37.20
0.04207	38.42
0.05873	39.83
0.07540	39.95
0.09207	39.07
0.10873	39.00
0.12540	39.02
0.14207	39.02
0.15873	39.02
0.17540	39.02
0.19207	39.02
0.20873	39.02
0.22540	39.02
0.24207	39.01
0.25873	39.01
0.27540	39.01
0.29207	39.02
0.30873	39.02
0.32540	39.02
0.34207	39.02
0.35873	39.01
0.37540	39.02
0.39207	39.02
0.40873	39.02
0.42540	39.02
0.44207	39.02
0.45873	39.02
0.47540	39.02
0.49207	39.02
0.50873	39.02
0.52540	39.02
0.54207	39.02
0.55873	39.02
0.57540	39.02
0.59207	39.02
0.60873	39.02
0.62540	39.02
0.64207	39.02
0.65873	39.02
0.67540	39.02
0.69207	39.02
0.70873	39.02
0.72540	39.02
0.74207	39.02
0.75873	39.02
0.77540	39.02
0.79207	39.02
0.80873	39.02
0.82540	39.02
0.84207	39.02
0.85873	39.02
0.87540	39.02
0.89207	39.02
0.90873	39.02
0.92540	39.02
0.94207	39.02
0.95873	39.02
0.97540	39.02
0.99207	39.02
1.00873	39.02
1.02540	39.02
1.04207	39.02
1.05873	39.02
1.07540	39.02
1.09207	39.02
1.10873	39.02
1.12540	39.02
1.14207	39.02
1.15873	39.02
1.17540	39.02
1.19207	39.02
1.20873	39.02
1.22540	39.02
1.24207	39.02
1.25873	39.02
1.27540	39.02
1.29207	39.02
1.30873	39.02
1.32540	39.02
1.34207	39.02
1.35873	39.02
1.37540	39.02
1.39207	39.02
1.40873	39.02
1.42540	39.02
1.44207	39.02
1.45873	39.02
1.47540	39.02
1.49207	39.02
1.50873	39.02
1.52540	39.02
1.54207	39.02
1.55873	39.02
1.57540	39.02
1.59207	39.01
1.60873	39.01
1.62540	39.00
1.64207	38.98
1.65873	38.96
1.67540	38.93
1.69207	38.90
1.70873	38.86
1.72540	38.83
1.74207	38.80
1.75873	38.76
1.77540	38.73
1.79207	38.70
1.80873	38.67
1.82540	38.64
1.84207	38.61
1.85873	38.58
1.87540	38.54
1.89207	38.51
1.90873	38.48
1.92540	38.45
1.94207	38.42
1.95873	38.39
1.97540	38.36
1.99207	38.33
2.00873	38.30
2.02540	38.27
2.04207	38.24
2.05873	38.21
2.07540	38.18
2.09207	38.15
2.10873	38.12
2.12540	38.09
2.14207	38.07
2.15873	38.04
2.17540	38.00
2.19207	37.98
2.20873	37.95
2.22540	37.92
2.24207	37.89
2.25873	37.86
2.27540	37.82
2.29207	37.80
2.30873	37.77
2.32540	37.73
2.34207	37.71
2.35873	37.68
2.37540	37.66
2.39207	37.65
2.40873	37.65
2.42540	37.65
2.44207	37.65
2.45873	37.65
2.47540	37.65
2.49207	37.65
2.50873	37.65
2.52540	37.64
2.54207	37.65
2.55873	37.65
2.57540	37.65
2.59207	37.65
2.60873	37.65
2.62540	37.65
2.64207	37.64
2.65873	37.64
2.67540	37.64
2.69207	37.64
2.70873	37.64
2.72540	37.65
2.74207	37.65
2.75873	37.64
2.77540	37.64
2.79207	37.64
2.80873	37.64
2.82540	37.64
2.84207	37.64
2.85873	37.64
2.87540	37.64
2.89207	37.64
2.90873	37.63
2.92540	37.63
2.94207	37.63
2.95873	37.63
2.97540	37.63
2.99207	37.63
3.00873	37.63
3.02540	37.63
3.04207	37.63
3.05873	37.63
3.07540	37.63
3.09207	37.63
3.10873	37.63
3.12540	37.62
3.14207	37.62
3.15873	37.62
3.17540	37.62
3.19207	37.62
3.20873	37.62
3.22540	37.62
3.24207	37.62
3.25873	37.62
3.27540	37.62
3.29207	37.62
3.30873	37.62
3.32540	37.63
3.34207	37.63
3.35873	37.63
3.37540	37.63
3.39207	37.63
3.40873	37.63
3.42540	37.63
3.44207	37.63
3.45873	37.63
3.47540	37.63
3.49207	37.63
3.50873	37.63
3.52540	37.63
3.54207	37.63
3.55873	37.63
3.57540	37.63
3.59207	37.63
3.60873	37.63
3.62540	37.63
3.64207	37.63
3.65873	37.63
3.67540	37.63
3.69207	37.63
3.70873	37.63
3.72540	37.63
3.74207	37.62
3.75873	37.63
3.77540	37.63
3.79207	37.63
3.80873	37.63
3.82540	37.63
3.84207	37.63
3.85873	37.63
3.87540	37.63
3.89207	37.63
3.90873	37.63
3.92540	37.63
3.94207	37.63
3.95873	37.63
3.97540	37.63
3.99207	37.63

