[Header]
Application Name	LabSolutions
Version	5.110
Data File Name	C:\Users\User\Desktop\GC Analyses\Jack\UIC Prairie Sampling\8.12.22\220812_086.gcd
Output Date	10/14/2022
Output Time	2:33:55 PM

[File Information]
Type	Data File
Generated	10/13/2022 1:40:09 PM
Generated by	System Administrator
Modified	10/13/2022 1:44:32 PM
Modified by	System Administrator

[Sample Information]
Operator Name	System Administrator
Acquired	10/13/2022 1:40:31 PM
Sample Type	1:Standard
Level	1
Sample Name	220812_UICPrairie
Sample ID	220812_UICPrairie
ISTD Amount1	1
ISTD Amount2	1
ISTD Amount3	1
ISTD Amount4	1
ISTD Amount5	1
ISTD Amount6	1
ISTD Amount7	1
ISTD Amount8	1
ISTD Amount9	1
ISTD Amount10	1
ISTD Amount11	1
ISTD Amount12	1
ISTD Amount13	1
ISTD Amount14	1
ISTD Amount15	1
ISTD Amount16	1
ISTD Amount17	1
ISTD Amount18	1
ISTD Amount19	1
ISTD Amount20	1
ISTD Amount21	1
ISTD Amount22	1
ISTD Amount23	1
ISTD Amount24	1
ISTD Amount25	1
ISTD Amount26	1
ISTD Amount27	1
ISTD Amount28	1
ISTD Amount29	1
ISTD Amount30	1
ISTD Amount31	1
ISTD Amount32	1
Sample Amount	1
Dilution Factor	1
Vial#	1
Injection Volume	1
Injection Count	1
Bar Code	

[Original Files]
Data File	C:\Users\User\Desktop\GC Analyses\Jack\UIC Prairie Sampling\8.12.22\220812_086.gcd
Method File	C:\LabSolutions\Data\GHG_4min_2022\ghg3_togas_w_acet_4 min_new_int.gcm
Batch File	
Report Format File	c:\LabSolutions\System\DEFAULT.lsr

[File Description]


[Configuration]
Instrument Name	C0B7VH3-Instrument1
Instrument #	1
Line #	1
# of Detectors	3
Detector ID	DET#1	DET#2	DET#3
Detector Name	FID	PTCD	ECD
# of Channels	1	1	1

[Peak Table(Ch1)]
# of Peaks	3
Peak#	R.Time	I.Time	F.Time	Area	Height	A/H	Conc.	Mark	ID#	Name	k'	Plate #	Plate Ht.	Tailing	Resolution	Sep.Factor	Area Ratio	Height Ratio	Conc. %	Norm Conc.
1	1.472	1.439	1.534	4608	1687	2.732	100.000	   	1	CO	0.000	6224	24.100	1.509	0.000	0.000	0	0	16.667	16.667
2	1.571	1.534	1.637	19976	10190	1.960	100.000	 V 	2	CH4	0.067	11532	13.007	1.243	1.487	0.000	0	0	16.667	16.667
3	2.000	1.949	2.370	2091844	1022005	2.047	400.000	   	3	CO2	0.359	17719	8.466	1.268	7.233	5.333	0	0	66.667	66.667

[Peak Table(Ch2)]
# of Peaks	0

[Peak Table(Ch3)]
# of Peaks	3
Peak#	R.Time	I.Time	F.Time	Area	Height	A/H	Conc.	Mark	ID#	Name	k'	Plate #	Plate Ht.	Tailing	Resolution	Sep.Factor	Area Ratio	Height Ratio	Conc. %	Norm Conc.
1	2.484	2.220	2.653	5369	352	15.259	0.000	   			0.000	718	208.810	0.828	0.000	0.000	0	0	0.000	0.000
2	2.799	2.667	2.818	1121	181	6.202	0.013	   	1	N2O	0.127	125	1199.673	0.000	0.460	0.000	0	0	1.270	1.270
3	2.887	2.818	3.962	87142	15947	5.464	0.987	 V 	1	N2O	0.162	12436	12.062	2.076	0.159	1.279	0	0	98.730	98.730

[Compound Results(Ch1)]
# of IDs	6
ID#	Name	R.Time	Area	Height	Conc.	Curve	3rd	2nd	1st	Constant	Area Ratio	Height Ratio	Conc. %	Norm Conc.
1	CO	1.472	4608	1687	100.000	Linear	0.000000e+00	0.000000e+00	4.608376e+001	0.000000e+00	0	0	16.667	16.667
2	CH4	1.571	19976	10190	100.000	Linear	0.000000e+00	0.000000e+00	1.997574e+002	0.000000e+00	0	0	16.667	16.667
3	CO2	2.000	2091844	1022005	400.000	Linear	0.000000e+00	0.000000e+00	5.229610e+003	0.000000e+00	0	0	66.667	66.667
4	Ethylene	0.000	0	0	0.000	Linear	0.000000e+00	0.000000e+00	0.000000e+00	0.000000e+00	0	0	0.000	0.000
5	Acetylene	0.000	0	0	0.000	Linear	0.000000e+00	0.000000e+00	0.000000e+00	0.000000e+00	0	0	0.000	0.000
6	Ethane	0.000	0	0	0.000	Linear	0.000000e+00	0.000000e+00	0.000000e+00	0.000000e+00	0	0	0.000	0.000

[Compound Results(Ch2)]
# of IDs	5
ID#	Name	R.Time	Area	Height	Conc.	Curve	3rd	2nd	1st	Constant	Area Ratio	Height Ratio	Conc. %	Norm Conc.
1	Hydrogen	0.000	0	0	0.000	Linear	0.000000e+00	0.000000e+00	0.000000e+00	0.000000e+00	0	0	0.000	0.000
2	Oxygen	0.000	0	0	0.000	Linear	0.000000e+00	0.000000e+00	0.000000e+00	0.000000e+00	0	0	0.000	0.000
3	Nitrogen	0.000	0	0	0.000	Linear	0.000000e+00	0.000000e+00	0.000000e+00	0.000000e+00	0	0	0.000	0.000
4	Methane	0.000	0	0	0.000	Linear	0.000000e+00	0.000000e+00	0.000000e+00	0.000000e+00	0	0	0.000	0.000
5	Carbon Monoxide	0.000	0	0	0.000	Linear	0.000000e+00	0.000000e+00	0.000000e+00	0.000000e+00	0	0	0.000	0.000

[Compound Results(Ch3)]
# of IDs	2
ID#	Name	R.Time	Area	Height	Conc.	Curve	3rd	2nd	1st	Constant	Area Ratio	Height Ratio	Conc. %	Norm Conc.
1	N2O	2.887	88263	16128	1.000	Linear	0.000000e+00	0.000000e+00	8.826313e+004	0.000000e+00	0	0	100.000	100.000
2	SF6	0.000	0	0	0.000	Linear	0.000000e+00	0.000000e+00	0.000000e+00	0.000000e+00	0	0	0.000	0.000

[Group Results(Ch1)]
# of Groups	0

[Group Results(Ch2)]
# of Groups	0

[Group Results(Ch3)]
# of Groups	0

[Chromatogram (Ch1)]
Interval(msec)	220
# of Points	1091
Start Time(min)	0.002
End Time(min)	3.998
R.Time (min)	Intensity
0.00167	5
0.00533	4
0.00900	3
0.01267	-1
0.01633	-9
0.02000	-18
0.02367	-26
0.02733	-32
0.03100	-30
0.03467	-24
0.03833	-19
0.04200	-16
0.04567	-16
0.04933	-15
0.05300	-9
0.05667	-2
0.06033	3
0.06400	3
0.06767	1
0.07133	-3
0.07500	-10
0.07867	-14
0.08233	-14
0.08600	-12
0.08967	-12
0.09333	-14
0.09700	-17
0.10067	-18
0.10433	-16
0.10800	-13
0.11167	-12
0.11533	-11
0.11900	-7
0.12267	-6
0.12633	-10
0.13000	-14
0.13367	-13
0.13733	-10
0.14100	-6
0.14467	-6
0.14833	-7
0.15200	-9
0.15567	-13
0.15933	-18
0.16300	-22
0.16667	-22
0.17033	-22
0.17400	-22
0.17767	-21
0.18133	-21
0.18500	-18
0.18867	-14
0.19233	-11
0.19600	-9
0.19967	-8
0.20333	-8
0.20700	-9
0.21067	-12
0.21433	-15
0.21800	-20
0.22167	-22
0.22533	-22
0.22900	-19
0.23267	-16
0.23633	-15
0.24000	-16
0.24367	-14
0.24733	-9
0.25100	-5
0.25467	-2
0.25833	-3
0.26200	-4
0.26567	-2
0.26933	-3
0.27300	-8
0.27667	-17
0.28033	-28
0.28400	-38
0.28767	-42
0.29133	-45
0.29500	-44
0.29867	-37
0.30233	-30
0.30600	-24
0.30967	-18
0.31333	-13
0.31700	-9
0.32067	-7
0.32433	-14
0.32800	-23
0.33167	-27
0.33533	-30
0.33900	-35
0.34267	-42
0.34633	-44
0.35000	-43
0.35367	-42
0.35733	-41
0.36100	-42
0.36467	-41
0.36833	-40
0.37200	-37
0.37567	-33
0.37933	-27
0.38300	-22
0.38667	-18
0.39033	-16
0.39400	-15
0.39767	-18
0.40133	-21
0.40500	-23
0.40867	-26
0.41233	-33
0.41600	-42
0.41967	-48
0.42333	-48
0.42700	-48
0.43067	-47
0.43433	-46
0.43800	-46
0.44167	-43
0.44533	-42
0.44900	-39
0.45267	-36
0.45633	-32
0.46000	-30
0.46367	-29
0.46733	-30
0.47100	-31
0.47467	-31
0.47833	-30
0.48200	-31
0.48567	-34
0.48933	-36
0.49300	-35
0.49667	-34
0.50033	-37
0.50400	-38
0.50767	-37
0.51133	-36
0.51500	-36
0.51867	-34
0.52233	-28
0.52600	-23
0.52967	-21
0.53333	-21
0.53700	-24
0.54067	-26
0.54433	-29
0.54800	-34
0.55167	-41
0.55533	-50
0.55900	-55
0.56267	-54
0.56633	-48
0.57000	-39
0.57367	-30
0.57733	-21
0.58100	-12
0.58467	-7
0.58833	-8
0.59200	-16
0.59567	-26
0.59933	-33
0.60300	-36
0.60667	-38
0.61033	-40
0.61400	-46
0.61767	-56
0.62133	-67
0.62500	-74
0.62867	-78
0.63233	-80
0.63600	-84
0.63967	-85
0.64333	-86
0.64700	-86
0.65067	-86
0.65433	-80
0.65800	-73
0.66167	-67
0.66533	-61
0.66900	-54
0.67267	-49
0.67633	-48
0.68000	-47
0.68367	-48
0.68733	-46
0.69100	-42
0.69467	-39
0.69833	-38
0.70200	-37
0.70567	-37
0.70933	-38
0.71300	-40
0.71667	-44
0.72033	-50
0.72400	-55
0.72767	-55
0.73133	-51
0.73500	-45
0.73867	-44
0.74233	-48
0.74600	-54
0.74967	-59
0.75333	-64
0.75700	-65
0.76067	-62
0.76433	-57
0.76800	-49
0.77167	-42
0.77533	-40
0.77900	-43
0.78267	-45
0.78633	-41
0.79000	-36
0.79367	-32
0.79733	-31
0.80100	-33
0.80467	-33
0.80833	-32
0.81200	-33
0.81567	-38
0.81933	-45
0.82300	-55
0.82667	-64
0.83033	-68
0.83400	-62
0.83767	-54
0.84133	-49
0.84500	-46
0.84867	-46
0.85233	-48
0.85600	-48
0.85967	-48
0.86333	-46
0.86700	-44
0.87067	-44
0.87433	-48
0.87800	-55
0.88167	-64
0.88533	-69
0.88900	-69
0.89267	-66
0.89633	-61
0.90000	-55
0.90367	-52
0.90733	-48
0.91100	-44
0.91467	-44
0.91833	-43
0.92200	-42
0.92567	-43
0.92933	-42
0.93300	-39
0.93667	-38
0.94033	-42
0.94400	-52
0.94767	-62
0.95133	-70
0.95500	-75
0.95867	-73
0.96233	-68
0.96600	-67
0.96967	-64
0.97333	-57
0.97700	-51
0.98067	-47
0.98433	-45
0.98800	-46
0.99167	-47
0.99533	-47
0.99900	-44
1.00267	-42
1.00633	-46
1.01000	-50
1.01367	-52
1.01733	-53
1.02100	-51
1.02467	-44
1.02833	-36
1.03200	-32
1.03567	-36
1.03933	-43
1.04300	-50
1.04667	-54
1.05033	-52
1.05400	-49
1.05767	-44
1.06133	-41
1.06500	-40
1.06867	-45
1.07233	-54
1.07600	-60
1.07967	-64
1.08333	-65
1.08700	-63
1.09067	-63
1.09433	-66
1.09800	-73
1.10167	-76
1.10533	-71
1.10900	-63
1.11267	-56
1.11633	-51
1.12000	-46
1.12367	-39
1.12733	-36
1.13100	-44
1.13467	-60
1.13833	-74
1.14200	-83
1.14567	-86
1.14933	-87
1.15300	-87
1.15667	-85
1.16033	-85
1.16400	-85
1.16767	-82
1.17133	-80
1.17500	-77
1.17867	-77
1.18233	-81
1.18600	-84
1.18967	-83
1.19333	-79
1.19700	-75
1.20067	-73
1.20433	-73
1.20800	-71
1.21167	-70
1.21533	-70
1.21900	-72
1.22267	-75
1.22633	-77
1.23000	-74
1.23367	-70
1.23733	-64
1.24100	-60
1.24467	-56
1.24833	-55
1.25200	-61
1.25567	-68
1.25933	-73
1.26300	-77
1.26667	-81
1.27033	-86
1.27400	-92
1.27767	-95
1.28133	-96
1.28500	-92
1.28867	-89
1.29233	-87
1.29600	-89
1.29967	-91
1.30333	-88
1.30700	-81
1.31067	-72
1.31433	-67
1.31800	-69
1.32167	-74
1.32533	-81
1.32900	-87
1.33267	-86
1.33633	-82
1.34000	-79
1.34367	-79
1.34733	-82
1.35100	-85
1.35467	-89
1.35833	-92
1.36200	-91
1.36567	-90
1.36933	-89
1.37300	-89
1.37667	-91
1.38033	-96
1.38400	-102
1.38767	-105
1.39133	-105
1.39500	-103
1.39867	-97
1.40233	-89
1.40600	-82
1.40967	-78
1.41333	-75
1.41700	-74
1.42067	-76
1.42433	-81
1.42800	-84
1.43167	-84
1.43533	-84
1.43900	-82
1.44267	-47
1.44633	101
1.45000	402
1.45367	772
1.45733	1107
1.46100	1355
1.46467	1511
1.46833	1588
1.47200	1605
1.47567	1575
1.47933	1508
1.48300	1406
1.48667	1271
1.49033	1106
1.49400	927
1.49767	751
1.50133	591
1.50500	455
1.50867	340
1.51233	241
1.51600	160
1.51967	97
1.52333	49
1.52700	16
1.53067	-12
1.53433	-32
1.53800	-34
1.54167	43
1.54533	391
1.54900	1299
1.55267	2871
1.55633	4843
1.56000	6795
1.56367	8420
1.56733	9562
1.57100	10109
1.57467	9924
1.57833	8977
1.58200	7480
1.58567	5792
1.58933	4225
1.59300	2944
1.59667	1980
1.60033	1292
1.60400	817
1.60767	500
1.61133	291
1.61500	154
1.61867	63
1.62233	3
1.62600	-35
1.62967	-57
1.63333	-70
1.63700	-81
1.64067	-85
1.64433	-83
1.64800	-80
1.65167	-82
1.65533	-87
1.65900	-96
1.66267	-107
1.66633	-116
1.67000	-118
1.67367	-118
1.67733	-116
1.68100	-110
1.68467	-106
1.68833	-108
1.69200	-115
1.69567	-123
1.69933	-128
1.70300	-132
1.70667	-131
1.71033	-130
1.71400	-128
1.71767	-123
1.72133	-115
1.72500	-107
1.72867	-101
1.73233	-99
1.73600	-103
1.73967	-111
1.74333	-119
1.74700	-127
1.75067	-131
1.75433	-130
1.75800	-123
1.76167	-115
1.76533	-108
1.76900	-106
1.77267	-107
1.77633	-112
1.78000	-119
1.78367	-124
1.78733	-128
1.79100	-133
1.79467	-136
1.79833	-134
1.80200	-127
1.80567	-120
1.80933	-117
1.81300	-118
1.81667	-118
1.82033	-118
1.82400	-119
1.82767	-119
1.83133	-119
1.83500	-117
1.83867	-110
1.84233	-100
1.84600	-93
1.84967	-93
1.85333	-98
1.85700	-105
1.86067	-114
1.86433	-124
1.86800	-129
1.87167	-129
1.87533	-130
1.87900	-135
1.88267	-138
1.88633	-136
1.89000	-132
1.89367	-127
1.89733	-121
1.90100	-113
1.90467	-109
1.90833	-110
1.91200	-118
1.91567	-130
1.91933	-136
1.92300	-134
1.92667	-128
1.93033	-124
1.93400	-122
1.93767	-125
1.94133	-128
1.94500	-127
1.94867	-118
1.95233	-101
1.95600	-70
1.95967	84
1.96333	985
1.96700	5230
1.97067	20429
1.97433	61947
1.97800	149205
1.98167	292007
1.98533	477929
1.98900	675089
1.99267	848031
1.99633	969238
2.00000	1021919
2.00367	1000769
2.00733	913506
2.01100	779816
2.01467	626063
2.01833	476599
2.02200	347541
2.02567	245410
2.02933	169571
2.03300	115735
2.03667	78682
2.04033	53687
2.04400	37014
2.04767	25937
2.05133	18562
2.05500	13621
2.05867	10265
2.06233	7950
2.06600	6326
2.06967	5164
2.07333	4313
2.07700	3672
2.08067	3174
2.08433	2780
2.08800	2463
2.09167	2206
2.09533	1993
2.09900	1811
2.10267	1655
2.10633	1520
2.11000	1400
2.11367	1296
2.11733	1206
2.12100	1128
2.12467	1059
2.12833	1001
2.13200	946
2.13567	892
2.13933	838
2.14300	785
2.14667	739
2.15033	701
2.15400	667
2.15767	639
2.16133	618
2.16500	601
2.16867	581
2.17233	561
2.17600	537
2.17967	513
2.18333	495
2.18700	476
2.19067	454
2.19433	433
2.19800	416
2.20167	402
2.20533	391
2.20900	378
2.21267	364
2.21633	355
2.22000	349
2.22367	344
2.22733	340
2.23100	333
2.23467	322
2.23833	308
2.24200	299
2.24567	286
2.24933	274
2.25300	263
2.25667	258
2.26033	261
2.26400	267
2.26767	270
2.27133	268
2.27500	257
2.27867	240
2.28233	221
2.28600	205
2.28967	196
2.29333	192
2.29700	193
2.30067	194
2.30433	195
2.30800	197
2.31167	198
2.31533	200
2.31900	201
2.32267	202
2.32633	200
2.33000	193
2.33367	184
2.33733	172
2.34100	162
2.34467	157
2.34833	153
2.35200	149
2.35567	147
2.35933	146
2.36300	144
2.36667	145
2.37033	144
2.37400	139
2.37767	133
2.38133	129
2.38500	128
2.38867	125
2.39233	124
2.39600	124
2.39967	125
2.40333	126
2.40700	128
2.41067	130
2.41433	135
2.41800	141
2.42167	144
2.42533	143
2.42900	139
2.43267	134
2.43633	129
2.44000	123
2.44367	120
2.44733	120
2.45100	122
2.45467	125
2.45833	125
2.46200	123
2.46567	122
2.46933	123
2.47300	127
2.47667	130
2.48033	130
2.48400	127
2.48767	123
2.49133	115
2.49500	105
2.49867	97
2.50233	94
2.50600	91
2.50967	89
2.51333	90
2.51700	92
2.52067	94
2.52433	93
2.52800	89
2.53167	87
2.53533	85
2.53900	84
2.54267	83
2.54633	83
2.55000	90
2.55367	101
2.55733	108
2.56100	111
2.56467	111
2.56833	104
2.57200	92
2.57567	77
2.57933	66
2.58300	60
2.58667	59
2.59033	61
2.59400	63
2.59767	63
2.60133	59
2.60500	57
2.60867	56
2.61233	55
2.61600	53
2.61967	53
2.62333	58
2.62700	65
2.63067	70
2.63433	70
2.63800	69
2.64167	66
2.64533	66
2.64900	66
2.65267	64
2.65633	61
2.66000	59
2.66367	56
2.66733	52
2.67100	49
2.67467	47
2.67833	48
2.68200	52
2.68567	58
2.68933	60
2.69300	58
2.69667	54
2.70033	47
2.70400	44
2.70767	44
2.71133	45
2.71500	44
2.71867	44
2.72233	50
2.72600	58
2.72967	61
2.73333	59
2.73700	54
2.74067	48
2.74433	46
2.74800	49
2.75167	53
2.75533	50
2.75900	45
2.76267	40
2.76633	38
2.77000	37
2.77367	42
2.77733	49
2.78100	53
2.78467	53
2.78833	54
2.79200	57
2.79567	57
2.79933	56
2.80300	58
2.80667	59
2.81033	59
2.81400	57
2.81767	55
2.82133	51
2.82500	44
2.82867	39
2.83233	37
2.83600	37
2.83967	33
2.84333	30
2.84700	29
2.85067	30
2.85433	36
2.85800	41
2.86167	43
2.86533	44
2.86900	41
2.87267	37
2.87633	34
2.88000	30
2.88367	28
2.88733	25
2.89100	20
2.89467	18
2.89833	19
2.90200	21
2.90567	24
2.90933	30
2.91300	37
2.91667	44
2.92033	49
2.92400	52
2.92767	52
2.93133	54
2.93500	59
2.93867	59
2.94233	55
2.94600	52
2.94967	49
2.95333	46
2.95700	41
2.96067	37
2.96433	34
2.96800	34
2.97167	34
2.97533	36
2.97900	39
2.98267	42
2.98633	44
2.99000	46
2.99367	46
2.99733	44
3.00100	43
3.00467	41
3.00833	39
3.01200	39
3.01567	44
3.01933	51
3.02300	57
3.02667	62
3.03033	64
3.03400	60
3.03767	51
3.04133	43
3.04500	35
3.04867	29
3.05233	28
3.05600	29
3.05967	32
3.06333	39
3.06700	47
3.07067	49
3.07433	44
3.07800	39
3.08167	35
3.08533	33
3.08900	30
3.09267	27
3.09633	25
3.10000	25
3.10367	27
3.10733	31
3.11100	35
3.11467	39
3.11833	40
3.12200	43
3.12567	44
3.12933	44
3.13300	44
3.13667	47
3.14033	49
3.14400	49
3.14767	47
3.15133	45
3.15500	43
3.15867	39
3.16233	34
3.16600	29
3.16967	24
3.17333	25
3.17700	30
3.18067	35
3.18433	41
3.18800	48
3.19167	54
3.19533	53
3.19900	42
3.20267	31
3.20633	25
3.21000	21
3.21367	16
3.21733	12
3.22100	13
3.22467	16
3.22833	21
3.23200	30
3.23567	40
3.23933	49
3.24300	54
3.24667	57
3.25033	58
3.25400	58
3.25767	58
3.26133	58
3.26500	57
3.26867	55
3.27233	52
3.27600	46
3.27967	39
3.28333	34
3.28700	31
3.29067	30
3.29433	30
3.29800	32
3.30167	37
3.30533	40
3.30900	41
3.31267	41
3.31633	38
3.32000	35
3.32367	30
3.32733	22
3.33100	19
3.33467	22
3.33833	27
3.34200	31
3.34567	31
3.34933	29
3.35300	30
3.35667	33
3.36033	34
3.36400	34
3.36767	34
3.37133	33
3.37500	34
3.37867	38
3.38233	44
3.38600	48
3.38967	50
3.39333	49
3.39700	48
3.40067	43
3.40433	40
3.40800	37
3.41167	36
3.41533	39
3.41900	45
3.42267	51
3.42633	53
3.43000	52
3.43367	51
3.43733	54
3.44100	56
3.44467	54
3.44833	49
3.45200	43
3.45567	39
3.45933	40
3.46300	45
3.46667	47
3.47033	44
3.47400	40
3.47767	35
3.48133	29
3.48500	23
3.48867	20
3.49233	19
3.49600	21
3.49967	22
3.50333	20
3.50700	21
3.51067	24
3.51433	28
3.51800	34
3.52167	44
3.52533	55
3.52900	63
3.53267	63
3.53633	54
3.54000	45
3.54367	40
3.54733	37
3.55100	37
3.55467	37
3.55833	37
3.56200	39
3.56567	39
3.56933	35
3.57300	29
3.57667	23
3.58033	22
3.58400	27
3.58767	32
3.59133	33
3.59500	35
3.59867	38
3.60233	42
3.60600	44
3.60967	47
3.61333	49
3.61700	53
3.62067	55
3.62433	52
3.62800	46
3.63167	42
3.63533	43
3.63900	47
3.64267	51
3.64633	52
3.65000	49
3.65367	46
3.65733	42
3.66100	42
3.66467	42
3.66833	41
3.67200	39
3.67567	38
3.67933	37
3.68300	39
3.68667	42
3.69033	48
3.69400	55
3.69767	58
3.70133	55
3.70500	53
3.70867	52
3.71233	49
3.71600	43
3.71967	39
3.72333	40
3.72700	43
3.73067	44
3.73433	42
3.73800	39
3.74167	37
3.74533	35
3.74900	33
3.75267	34
3.75633	38
3.76000	42
3.76367	42
3.76733	38
3.77100	34
3.77467	31
3.77833	32
3.78200	35
3.78567	35
3.78933	34
3.79300	33
3.79667	34
3.80033	33
3.80400	32
3.80767	32
3.81133	36
3.81500	41
3.81867	45
3.82233	46
3.82600	45
3.82967	45
3.83333	45
3.83700	45
3.84067	44
3.84433	45
3.84800	48
3.85167	54
3.85533	59
3.85900	60
3.86267	58
3.86633	54
3.87000	52
3.87367	52
3.87733	56
3.88100	57
3.88467	56
3.88833	52
3.89200	45
3.89567	43
3.89933	46
3.90300	54
3.90667	61
3.91033	65
3.91400	67
3.91767	63
3.92133	55
3.92500	48
3.92867	44
3.93233	40
3.93600	41
3.93967	46
3.94333	50
3.94700	50
3.95067	48
3.95433	46
3.95800	46
3.96167	49
3.96533	54
3.96900	61
3.97267	69
3.97633	77
3.98000	82
3.98367	83
3.98733	82
3.99100	79
3.99467	78
3.99833	80

[Chromatogram (Ch2)]
Interval(msec)	220
# of Points	1091
Start Time(min)	0.002
End Time(min)	3.998
R.Time (min)	Intensity
0.00167	-1
0.00533	-1
0.00900	-1
0.01267	-2
0.01633	-2
0.02000	-2
0.02367	-2
0.02733	-2
0.03100	-2
0.03467	-2
0.03833	-2
0.04200	-2
0.04567	-2
0.04933	-2
0.05300	-1
0.05667	-1
0.06033	0
0.06400	1
0.06767	1
0.07133	1
0.07500	2
0.07867	2
0.08233	3
0.08600	3
0.08967	4
0.09333	4
0.09700	4
0.10067	4
0.10433	4
0.10800	4
0.11167	3
0.11533	3
0.11900	3
0.12267	3
0.12633	2
0.13000	2
0.13367	2
0.13733	2
0.14100	1
0.14467	1
0.14833	0
0.15200	-0
0.15567	-0
0.15933	-0
0.16300	-0
0.16667	-0
0.17033	0
0.17400	0
0.17767	1
0.18133	1
0.18500	1
0.18867	1
0.19233	2
0.19600	2
0.19967	2
0.20333	2
0.20700	2
0.21067	2
0.21433	2
0.21800	3
0.22167	3
0.22533	3
0.22900	3
0.23267	3
0.23633	3
0.24000	3
0.24367	3
0.24733	3
0.25100	3
0.25467	2
0.25833	2
0.26200	2
0.26567	2
0.26933	2
0.27300	1
0.27667	1
0.28033	1
0.28400	1
0.28767	0
0.29133	0
0.29500	-0
0.29867	-0
0.30233	-0
0.30600	-1
0.30967	-1
0.31333	-1
0.31700	-1
0.32067	-1
0.32433	-1
0.32800	-1
0.33167	-1
0.33533	-1
0.33900	-1
0.34267	-1
0.34633	-1
0.35000	-1
0.35367	-1
0.35733	-1
0.36100	-1
0.36467	-1
0.36833	-1
0.37200	-0
0.37567	-0
0.37933	-0
0.38300	-0
0.38667	-0
0.39033	0
0.39400	-0
0.39767	-0
0.40133	-0
0.40500	-0
0.40867	0
0.41233	0
0.41600	1
0.41967	1
0.42333	1
0.42700	1
0.43067	1
0.43433	1
0.43800	1
0.44167	1
0.44533	1
0.44900	1
0.45267	1
0.45633	1
0.46000	0
0.46367	0
0.46733	-0
0.47100	-1
0.47467	-1
0.47833	-2
0.48200	-3
0.48567	-3
0.48933	-3
0.49300	-3
0.49667	-3
0.50033	-3
0.50400	-3
0.50767	-3
0.51133	-4
0.51500	-4
0.51867	-4
0.52233	-4
0.52600	-4
0.52967	-3
0.53333	-3
0.53700	-3
0.54067	-3
0.54433	-3
0.54800	-2
0.55167	-2
0.55533	-2
0.55900	-2
0.56267	-1
0.56633	-1
0.57000	-0
0.57367	0
0.57733	0
0.58100	1
0.58467	1
0.58833	1
0.59200	2
0.59567	2
0.59933	1
0.60300	1
0.60667	1
0.61033	1
0.61400	1
0.61767	1
0.62133	1
0.62500	0
0.62867	0
0.63233	-0
0.63600	-0
0.63967	-0
0.64333	-0
0.64700	-0
0.65067	-0
0.65433	0
0.65800	0
0.66167	0
0.66533	0
0.66900	0
0.67267	0
0.67633	1
0.68000	1
0.68367	1
0.68733	1
0.69100	1
0.69467	1
0.69833	1
0.70200	1
0.70567	1
0.70933	1
0.71300	1
0.71667	1
0.72033	1
0.72400	1
0.72767	1
0.73133	1
0.73500	1
0.73867	1
0.74233	0
0.74600	0
0.74967	-0
0.75333	-0
0.75700	-0
0.76067	-1
0.76433	-1
0.76800	-1
0.77167	-1
0.77533	-1
0.77900	-1
0.78267	-1
0.78633	-1
0.79000	-1
0.79367	-2
0.79733	-2
0.80100	-2
0.80467	-3
0.80833	-3
0.81200	-3
0.81567	-3
0.81933	-3
0.82300	-3
0.82667	-3
0.83033	-3
0.83400	-3
0.83767	-3
0.84133	-2
0.84500	-2
0.84867	-2
0.85233	-2
0.85600	-1
0.85967	-1
0.86333	-1
0.86700	-1
0.87067	-1
0.87433	-1
0.87800	-1
0.88167	-1
0.88533	-1
0.88900	-1
0.89267	-2
0.89633	-2
0.90000	-2
0.90367	-2
0.90733	-2
0.91100	-2
0.91467	-3
0.91833	-3
0.92200	-3
0.92567	-3
0.92933	-4
0.93300	-4
0.93667	-4
0.94033	-4
0.94400	-4
0.94767	-4
0.95133	-4
0.95500	-5
0.95867	-5
0.96233	-5
0.96600	-5
0.96967	-5
0.97333	-5
0.97700	-5
0.98067	-4
0.98433	-4
0.98800	-4
0.99167	-4
0.99533	-4
0.99900	-4
1.00267	-3
1.00633	-3
1.01000	-3
1.01367	-2
1.01733	-2
1.02100	-2
1.02467	-2
1.02833	-2
1.03200	-2
1.03567	-2
1.03933	-2
1.04300	-2
1.04667	-2
1.05033	-1
1.05400	-1
1.05767	-1
1.06133	-1
1.06500	-1
1.06867	-1
1.07233	-1
1.07600	-1
1.07967	-1
1.08333	-1
1.08700	-2
1.09067	-2
1.09433	-2
1.09800	-2
1.10167	-3
1.10533	-3
1.10900	-3
1.11267	-3
1.11633	-4
1.12000	-4
1.12367	-4
1.12733	-4
1.13100	-5
1.13467	-5
1.13833	-5
1.14200	-5
1.14567	-5
1.14933	-5
1.15300	-4
1.15667	-4
1.16033	-4
1.16400	-4
1.16767	-4
1.17133	-4
1.17500	-3
1.17867	-3
1.18233	-3
1.18600	-3
1.18967	-3
1.19333	-3
1.19700	-3
1.20067	-3
1.20433	-3
1.20800	-3
1.21167	-3
1.21533	-2
1.21900	-2
1.22267	-2
1.22633	-2
1.23000	-2
1.23367	-1
1.23733	-1
1.24100	-1
1.24467	-1
1.24833	-1
1.25200	-1
1.25567	-0
1.25933	-0
1.26300	-0
1.26667	-0
1.27033	-1
1.27400	-1
1.27767	-1
1.28133	-1
1.28500	-0
1.28867	-1
1.29233	-0
1.29600	-0
1.29967	-0
1.30333	-1
1.30700	-1
1.31067	-1
1.31433	-2
1.31800	-2
1.32167	-2
1.32533	-2
1.32900	-2
1.33267	-2
1.33633	-2
1.34000	-2
1.34367	-2
1.34733	-2
1.35100	-1
1.35467	-1
1.35833	-1
1.36200	-1
1.36567	-1
1.36933	-2
1.37300	-2
1.37667	-2
1.38033	-2
1.38400	-2
1.38767	-2
1.39133	-3
1.39500	-3
1.39867	-3
1.40233	-3
1.40600	-3
1.40967	-3
1.41333	-3
1.41700	-2
1.42067	-2
1.42433	-2
1.42800	-2
1.43167	-2
1.43533	-2
1.43900	-2
1.44267	-2
1.44633	-2
1.45000	-2
1.45367	-1
1.45733	-1
1.46100	-1
1.46467	-1
1.46833	-1
1.47200	-1
1.47567	-1
1.47933	-1
1.48300	-1
1.48667	-1
1.49033	-1
1.49400	-1
1.49767	-2
1.50133	-2
1.50500	-2
1.50867	-2
1.51233	-3
1.51600	-3
1.51967	-3
1.52333	-3
1.52700	-3
1.53067	-3
1.53433	-3
1.53800	-3
1.54167	-2
1.54533	-2
1.54900	-2
1.55267	-2
1.55633	-2
1.56000	-1
1.56367	-1
1.56733	-1
1.57100	-1
1.57467	-1
1.57833	-1
1.58200	-1
1.58567	-2
1.58933	-2
1.59300	-3
1.59667	-3
1.60033	-4
1.60400	-5
1.60767	-6
1.61133	-8
1.61500	-9
1.61867	-12
1.62233	-14
1.62600	-17
1.62967	-20
1.63333	-23
1.63700	-27
1.64067	-31
1.64433	-35
1.64800	-39
1.65167	-43
1.65533	-47
1.65900	-51
1.66267	-55
1.66633	-60
1.67000	-65
1.67367	-69
1.67733	-74
1.68100	-79
1.68467	-84
1.68833	-88
1.69200	-92
1.69567	-96
1.69933	-99
1.70300	-102
1.70667	-104
1.71033	-105
1.71400	-107
1.71767	-108
1.72133	-108
1.72500	-109
1.72867	-110
1.73233	-111
1.73600	-111
1.73967	-112
1.74333	-112
1.74700	-112
1.75067	-112
1.75433	-113
1.75800	-113
1.76167	-114
1.76533	-114
1.76900	-115
1.77267	-116
1.77633	-117
1.78000	-118
1.78367	-119
1.78733	-120
1.79100	-121
1.79467	-121
1.79833	-121
1.80200	-121
1.80567	-121
1.80933	-121
1.81300	-120
1.81667	-120
1.82033	-120
1.82400	-120
1.82767	-120
1.83133	-120
1.83500	-120
1.83867	-121
1.84233	-121
1.84600	-121
1.84967	-121
1.85333	-121
1.85700	-121
1.86067	-121
1.86433	-120
1.86800	-120
1.87167	-119
1.87533	-119
1.87900	-119
1.88267	-119
1.88633	-119
1.89000	-120
1.89367	-120
1.89733	-120
1.90100	-120
1.90467	-120
1.90833	-120
1.91200	-120
1.91567	-120
1.91933	-120
1.92300	-120
1.92667	-120
1.93033	-119
1.93400	-119
1.93767	-119
1.94133	-118
1.94500	-118
1.94867	-117
1.95233	-116
1.95600	-116
1.95967	-115
1.96333	-115
1.96700	-115
1.97067	-115
1.97433	-115
1.97800	-114
1.98167	-114
1.98533	-113
1.98900	-113
1.99267	-113
1.99633	-112
2.00000	-112
2.00367	-113
2.00733	-113
2.01100	-113
2.01467	-113
2.01833	-113
2.02200	-113
2.02567	-112
2.02933	-112
2.03300	-112
2.03667	-112
2.04033	-112
2.04400	-112
2.04767	-112
2.05133	-111
2.05500	-110
2.05867	-109
2.06233	-107
2.06600	-107
2.06967	-106
2.07333	-106
2.07700	-107
2.08067	-107
2.08433	-107
2.08800	-107
2.09167	-107
2.09533	-107
2.09900	-107
2.10267	-106
2.10633	-106
2.11000	-105
2.11367	-104
2.11733	-104
2.12100	-103
2.12467	-103
2.12833	-102
2.13200	-102
2.13567	-102
2.13933	-101
2.14300	-101
2.14667	-101
2.15033	-101
2.15400	-101
2.15767	-100
2.16133	-100
2.16500	-100
2.16867	-100
2.17233	-100
2.17600	-100
2.17967	-99
2.18333	-98
2.18700	-97
2.19067	-97
2.19433	-96
2.19800	-96
2.20167	-96
2.20533	-96
2.20900	-96
2.21267	-96
2.21633	-96
2.22000	-96
2.22367	-96
2.22733	-96
2.23100	-96
2.23467	-96
2.23833	-96
2.24200	-96
2.24567	-96
2.24933	-95
2.25300	-95
2.25667	-94
2.26033	-94
2.26400	-94
2.26767	-94
2.27133	-94
2.27500	-94
2.27867	-94
2.28233	-93
2.28600	-93
2.28967	-93
2.29333	-92
2.29700	-92
2.30067	-91
2.30433	-91
2.30800	-91
2.31167	-91
2.31533	-91
2.31900	-91
2.32267	-91
2.32633	-91
2.33000	-90
2.33367	-89
2.33733	-88
2.34100	-88
2.34467	-87
2.34833	-87
2.35200	-87
2.35567	-87
2.35933	-86
2.36300	-86
2.36667	-86
2.37033	-85
2.37400	-84
2.37767	-82
2.38133	-80
2.38500	-77
2.38867	-73
2.39233	-69
2.39600	-65
2.39967	-61
2.40333	-56
2.40700	-51
2.41067	-46
2.41433	-42
2.41800	-37
2.42167	-33
2.42533	-30
2.42900	-26
2.43267	-24
2.43633	-21
2.44000	-19
2.44367	-17
2.44733	-15
2.45100	-13
2.45467	-11
2.45833	-9
2.46200	-7
2.46567	-6
2.46933	-4
2.47300	-3
2.47667	-2
2.48033	-1
2.48400	0
2.48767	1
2.49133	1
2.49500	1
2.49867	2
2.50233	2
2.50600	3
2.50967	3
2.51333	4
2.51700	5
2.52067	6
2.52433	7
2.52800	8
2.53167	9
2.53533	9
2.53900	10
2.54267	11
2.54633	12
2.55000	13
2.55367	13
2.55733	13
2.56100	13
2.56467	13
2.56833	13
2.57200	13
2.57567	13
2.57933	13
2.58300	13
2.58667	13
2.59033	13
2.59400	13
2.59767	13
2.60133	14
2.60500	14
2.60867	14
2.61233	15
2.61600	15
2.61967	16
2.62333	16
2.62700	16
2.63067	17
2.63433	17
2.63800	17
2.64167	18
2.64533	18
2.64900	18
2.65267	18
2.65633	18
2.66000	18
2.66367	19
2.66733	19
2.67100	19
2.67467	20
2.67833	20
2.68200	20
2.68567	20
2.68933	20
2.69300	20
2.69667	20
2.70033	20
2.70400	20
2.70767	20
2.71133	20
2.71500	20
2.71867	20
2.72233	20
2.72600	20
2.72967	20
2.73333	20
2.73700	20
2.74067	20
2.74433	20
2.74800	21
2.75167	21
2.75533	21
2.75900	21
2.76267	21
2.76633	21
2.77000	21
2.77367	21
2.77733	21
2.78100	21
2.78467	21
2.78833	21
2.79200	21
2.79567	21
2.79933	21
2.80300	21
2.80667	21
2.81033	21
2.81400	21
2.81767	21
2.82133	21
2.82500	21
2.82867	21
2.83233	21
2.83600	21
2.83967	21
2.84333	20
2.84700	19
2.85067	18
2.85433	14
2.85800	9
2.86167	1
2.86533	-11
2.86900	-28
2.87267	-49
2.87633	-75
2.88000	-106
2.88367	-143
2.88733	-185
2.89100	-232
2.89467	-283
2.89833	-339
2.90200	-399
2.90567	-463
2.90933	-530
2.91300	-601
2.91667	-674
2.92033	-749
2.92400	-826
2.92767	-906
2.93133	-987
2.93500	-1070
2.93867	-1154
2.94233	-1240
2.94600	-1327
2.94967	-1409
2.95333	-1476
2.95700	-1516
2.96067	-1521
2.96433	-1491
2.96800	-1431
2.97167	-1347
2.97533	-1248
2.97900	-1141
2.98267	-1030
2.98633	-922
2.99000	-817
2.99367	-720
2.99733	-630
3.00100	-548
3.00467	-475
3.00833	-410
3.01200	-353
3.01567	-303
3.01933	-260
3.02300	-222
3.02667	-189
3.03033	-161
3.03400	-137
3.03767	-116
3.04133	-98
3.04500	-83
3.04867	-70
3.05233	-59
3.05600	-50
3.05967	-41
3.06333	-34
3.06700	-29
3.07067	-24
3.07433	-19
3.07800	-16
3.08167	-13
3.08533	-10
3.08900	-8
3.09267	-6
3.09633	-4
3.10000	-2
3.10367	-1
3.10733	1
3.11100	2
3.11467	3
3.11833	4
3.12200	5
3.12567	6
3.12933	6
3.13300	7
3.13667	7
3.14033	8
3.14400	9
3.14767	9
3.15133	10
3.15500	10
3.15867	11
3.16233	11
3.16600	12
3.16967	13
3.17333	13
3.17700	14
3.18067	14
3.18433	15
3.18800	15
3.19167	16
3.19533	16
3.19900	17
3.20267	17
3.20633	17
3.21000	18
3.21367	18
3.21733	18
3.22100	18
3.22467	18
3.22833	18
3.23200	19
3.23567	19
3.23933	19
3.24300	19
3.24667	19
3.25033	20
3.25400	20
3.25767	20
3.26133	20
3.26500	21
3.26867	21
3.27233	21
3.27600	21
3.27967	21
3.28333	21
3.28700	21
3.29067	21
3.29433	21
3.29800	21
3.30167	21
3.30533	21
3.30900	21
3.31267	22
3.31633	22
3.32000	22
3.32367	22
3.32733	21
3.33100	21
3.33467	21
3.33833	21
3.34200	21
3.34567	21
3.34933	21
3.35300	22
3.35667	22
3.36033	22
3.36400	22
3.36767	21
3.37133	21
3.37500	21
3.37867	21
3.38233	22
3.38600	22
3.38967	22
3.39333	22
3.39700	23
3.40067	23
3.40433	23
3.40800	23
3.41167	23
3.41533	23
3.41900	23
3.42267	23
3.42633	23
3.43000	23
3.43367	23
3.43733	22
3.44100	22
3.44467	22
3.44833	22
3.45200	22
3.45567	22
3.45933	23
3.46300	23
3.46667	23
3.47033	23
3.47400	23
3.47767	23
3.48133	23
3.48500	24
3.48867	24
3.49233	24
3.49600	24
3.49967	24
3.50333	25
3.50700	25
3.51067	25
3.51433	25
3.51800	26
3.52167	26
3.52533	26
3.52900	26
3.53267	26
3.53633	26
3.54000	26
3.54367	26
3.54733	26
3.55100	26
3.55467	26
3.55833	26
3.56200	26
3.56567	26
3.56933	26
3.57300	26
3.57667	26
3.58033	26
3.58400	26
3.58767	26
3.59133	26
3.59500	26
3.59867	26
3.60233	26
3.60600	26
3.60967	26
3.61333	26
3.61700	26
3.62067	26
3.62433	26
3.62800	26
3.63167	26
3.63533	26
3.63900	25
3.64267	25
3.64633	25
3.65000	25
3.65367	25
3.65733	24
3.66100	24
3.66467	24
3.66833	24
3.67200	24
3.67567	24
3.67933	24
3.68300	24
3.68667	23
3.69033	23
3.69400	23
3.69767	23
3.70133	23
3.70500	23
3.70867	23
3.71233	23
3.71600	23
3.71967	23
3.72333	23
3.72700	22
3.73067	22
3.73433	22
3.73800	22
3.74167	23
3.74533	23
3.74900	23
3.75267	23
3.75633	24
3.76000	24
3.76367	24
3.76733	24
3.77100	25
3.77467	25
3.77833	25
3.78200	25
3.78567	25
3.78933	25
3.79300	25
3.79667	25
3.80033	26
3.80400	26
3.80767	26
3.81133	26
3.81500	26
3.81867	26
3.82233	26
3.82600	26
3.82967	26
3.83333	26
3.83700	25
3.84067	25
3.84433	25
3.84800	24
3.85167	24
3.85533	23
3.85900	23
3.86267	23
3.86633	23
3.87000	23
3.87367	22
3.87733	22
3.88100	22
3.88467	22
3.88833	22
3.89200	22
3.89567	22
3.89933	22
3.90300	23
3.90667	23
3.91033	23
3.91400	23
3.91767	24
3.92133	24
3.92500	24
3.92867	24
3.93233	25
3.93600	25
3.93967	25
3.94333	25
3.94700	25
3.95067	25
3.95433	25
3.95800	25
3.96167	25
3.96533	25
3.96900	25
3.97267	25
3.97633	25
3.98000	25
3.98367	25
3.98733	25
3.99100	25
3.99467	25
3.99833	26

[Chromatogram (Ch3)]
Interval(msec)	220
# of Points	1091
Start Time(min)	0.002
End Time(min)	3.998
R.Time (min)	Intensity
0.00167	-1
0.00533	-5
0.00900	-8
0.01267	-7
0.01633	-7
0.02000	-8
0.02367	-7
0.02733	-6
0.03100	-7
0.03467	-5
0.03833	-4
0.04200	-4
0.04567	-3
0.04933	-0
0.05300	-2
0.05667	-4
0.06033	-4
0.06400	-4
0.06767	-3
0.07133	-4
0.07500	-5
0.07867	-5
0.08233	-4
0.08600	-4
0.08967	-4
0.09333	-4
0.09700	-2
0.10067	-1
0.10433	1
0.10800	0
0.11167	-3
0.11533	-4
0.11900	-4
0.12267	-5
0.12633	-5
0.13000	-4
0.13367	-4
0.13733	-5
0.14100	-5
0.14467	-5
0.14833	-3
0.15200	-2
0.15567	-1
0.15933	-1
0.16300	-2
0.16667	-4
0.17033	-2
0.17400	-1
0.17767	-1
0.18133	-3
0.18500	-6
0.18867	-7
0.19233	-5
0.19600	1
0.19967	4
0.20333	5
0.20700	5
0.21067	5
0.21433	3
0.21800	1
0.22167	-1
0.22533	-2
0.22900	-3
0.23267	-3
0.23633	-2
0.24000	-1
0.24367	-1
0.24733	0
0.25100	1
0.25467	2
0.25833	3
0.26200	3
0.26567	2
0.26933	3
0.27300	1
0.27667	-2
0.28033	-5
0.28400	-4
0.28767	-1
0.29133	3
0.29500	5
0.29867	7
0.30233	8
0.30600	8
0.30967	6
0.31333	4
0.31700	4
0.32067	4
0.32433	2
0.32800	2
0.33167	3
0.33533	5
0.33900	7
0.34267	7
0.34633	6
0.35000	4
0.35367	4
0.35733	6
0.36100	6
0.36467	5
0.36833	6
0.37200	8
0.37567	8
0.37933	8
0.38300	8
0.38667	8
0.39033	7
0.39400	6
0.39767	5
0.40133	3
0.40500	4
0.40867	5
0.41233	5
0.41600	3
0.41967	0
0.42333	-1
0.42700	2
0.43067	5
0.43433	7
0.43800	7
0.44167	7
0.44533	6
0.44900	6
0.45267	5
0.45633	4
0.46000	5
0.46367	6
0.46733	7
0.47100	9
0.47467	11
0.47833	9
0.48200	8
0.48567	9
0.48933	8
0.49300	7
0.49667	5
0.50033	4
0.50400	4
0.50767	7
0.51133	8
0.51500	8
0.51867	8
0.52233	9
0.52600	11
0.52967	10
0.53333	10
0.53700	11
0.54067	12
0.54433	12
0.54800	12
0.55167	10
0.55533	9
0.55900	8
0.56267	10
0.56633	13
0.57000	15
0.57367	17
0.57733	16
0.58100	14
0.58467	13
0.58833	12
0.59200	13
0.59567	15
0.59933	16
0.60300	17
0.60667	18
0.61033	18
0.61400	19
0.61767	19
0.62133	19
0.62500	17
0.62867	16
0.63233	16
0.63600	15
0.63967	15
0.64333	13
0.64700	12
0.65067	12
0.65433	12
0.65800	12
0.66167	14
0.66533	15
0.66900	17
0.67267	17
0.67633	19
0.68000	20
0.68367	19
0.68733	18
0.69100	18
0.69467	19
0.69833	16
0.70200	16
0.70567	17
0.70933	19
0.71300	19
0.71667	16
0.72033	16
0.72400	17
0.72767	19
0.73133	21
0.73500	19
0.73867	18
0.74233	18
0.74600	17
0.74967	17
0.75333	16
0.75700	17
0.76067	19
0.76433	20
0.76800	19
0.77167	20
0.77533	19
0.77900	18
0.78267	17
0.78633	18
0.79000	20
0.79367	21
0.79733	21
0.80100	22
0.80467	22
0.80833	22
0.81200	22
0.81567	22
0.81933	23
0.82300	24
0.82667	24
0.83033	23
0.83400	25
0.83767	25
0.84133	24
0.84500	22
0.84867	20
0.85233	17
0.85600	16
0.85967	17
0.86333	17
0.86700	17
0.87067	18
0.87433	19
0.87800	18
0.88167	16
0.88533	15
0.88900	15
0.89267	15
0.89633	16
0.90000	18
0.90367	19
0.90733	19
0.91100	17
0.91467	17
0.91833	18
0.92200	17
0.92567	16
0.92933	17
0.93300	17
0.93667	17
0.94033	19
0.94400	19
0.94767	19
0.95133	21
0.95500	22
0.95867	21
0.96233	22
0.96600	20
0.96967	18
0.97333	18
0.97700	20
0.98067	22
0.98433	21
0.98800	19
0.99167	19
0.99533	20
0.99900	18
1.00267	16
1.00633	16
1.01000	16
1.01367	18
1.01733	19
1.02100	18
1.02467	18
1.02833	19
1.03200	20
1.03567	21
1.03933	22
1.04300	22
1.04667	23
1.05033	24
1.05400	24
1.05767	25
1.06133	24
1.06500	23
1.06867	24
1.07233	25
1.07600	26
1.07967	25
1.08333	27
1.08700	29
1.09067	30
1.09433	29
1.09800	28
1.10167	27
1.10533	27
1.10900	27
1.11267	29
1.11633	31
1.12000	32
1.12367	33
1.12733	33
1.13100	29
1.13467	26
1.13833	27
1.14200	29
1.14567	28
1.14933	27
1.15300	27
1.15667	26
1.16033	28
1.16400	29
1.16767	30
1.17133	31
1.17500	31
1.17867	30
1.18233	30
1.18600	30
1.18967	30
1.19333	29
1.19700	27
1.20067	26
1.20433	27
1.20800	28
1.21167	28
1.21533	28
1.21900	30
1.22267	30
1.22633	31
1.23000	31
1.23367	31
1.23733	31
1.24100	30
1.24467	30
1.24833	30
1.25200	31
1.25567	31
1.25933	30
1.26300	30
1.26667	30
1.27033	30
1.27400	30
1.27767	30
1.28133	31
1.28500	30
1.28867	28
1.29233	29
1.29600	29
1.29967	28
1.30333	27
1.30700	26
1.31067	27
1.31433	28
1.31800	30
1.32167	31
1.32533	33
1.32900	32
1.33267	32
1.33633	34
1.34000	34
1.34367	34
1.34733	35
1.35100	35
1.35467	34
1.35833	33
1.36200	32
1.36567	29
1.36933	27
1.37300	26
1.37667	27
1.38033	29
1.38400	31
1.38767	34
1.39133	34
1.39500	32
1.39867	30
1.40233	29
1.40600	28
1.40967	28
1.41333	29
1.41700	30
1.42067	33
1.42433	35
1.42800	35
1.43167	36
1.43533	34
1.43900	30
1.44267	30
1.44633	29
1.45000	27
1.45367	28
1.45733	29
1.46100	30
1.46467	31
1.46833	32
1.47200	32
1.47567	31
1.47933	29
1.48300	31
1.48667	32
1.49033	33
1.49400	32
1.49767	34
1.50133	34
1.50500	33
1.50867	33
1.51233	32
1.51600	31
1.51967	33
1.52333	35
1.52700	36
1.53067	37
1.53433	35
1.53800	34
1.54167	35
1.54533	32
1.54900	30
1.55267	29
1.55633	28
1.56000	29
1.56367	31
1.56733	32
1.57100	33
1.57467	34
1.57833	34
1.58200	33
1.58567	33
1.58933	34
1.59300	37
1.59667	36
1.60033	34
1.60400	34
1.60767	35
1.61133	38
1.61500	40
1.61867	39
1.62233	36
1.62600	33
1.62967	31
1.63333	32
1.63700	34
1.64067	36
1.64433	37
1.64800	38
1.65167	39
1.65533	38
1.65900	36
1.66267	36
1.66633	36
1.67000	36
1.67367	37
1.67733	37
1.68100	37
1.68467	37
1.68833	38
1.69200	42
1.69567	44
1.69933	43
1.70300	44
1.70667	45
1.71033	45
1.71400	45
1.71767	47
1.72133	48
1.72500	50
1.72867	51
1.73233	53
1.73600	54
1.73967	53
1.74333	52
1.74700	52
1.75067	53
1.75433	56
1.75800	55
1.76167	54
1.76533	52
1.76900	50
1.77267	52
1.77633	53
1.78000	52
1.78367	52
1.78733	53
1.79100	55
1.79467	56
1.79833	55
1.80200	55
1.80567	55
1.80933	56
1.81300	57
1.81667	58
1.82033	61
1.82400	62
1.82767	62
1.83133	62
1.83500	61
1.83867	61
1.84233	62
1.84600	63
1.84967	64
1.85333	65
1.85700	66
1.86067	68
1.86433	70
1.86800	69
1.87167	66
1.87533	65
1.87900	65
1.88267	67
1.88633	69
1.89000	70
1.89367	70
1.89733	70
1.90100	72
1.90467	73
1.90833	75
1.91200	75
1.91567	73
1.91933	71
1.92300	70
1.92667	70
1.93033	71
1.93400	72
1.93767	75
1.94133	77
1.94500	81
1.94867	84
1.95233	86
1.95600	85
1.95967	86
1.96333	87
1.96700	87
1.97067	87
1.97433	87
1.97800	86
1.98167	87
1.98533	85
1.98900	84
1.99267	84
1.99633	88
2.00000	93
2.00367	93
2.00733	94
2.01100	94
2.01467	93
2.01833	94
2.02200	96
2.02567	97
2.02933	98
2.03300	100
2.03667	101
2.04033	103
2.04400	106
2.04767	108
2.05133	107
2.05500	106
2.05867	106
2.06233	105
2.06600	103
2.06967	103
2.07333	106
2.07700	109
2.08067	111
2.08433	114
2.08800	117
2.09167	117
2.09533	117
2.09900	116
2.10267	115
2.10633	116
2.11000	117
2.11367	118
2.11733	119
2.12100	121
2.12467	121
2.12833	120
2.13200	122
2.13567	123
2.13933	124
2.14300	126
2.14667	127
2.15033	129
2.15400	131
2.15767	131
2.16133	130
2.16500	127
2.16867	128
2.17233	130
2.17600	132
2.17967	133
2.18333	133
2.18700	133
2.19067	134
2.19433	137
2.19800	140
2.20167	142
2.20533	142
2.20900	141
2.21267	141
2.21633	142
2.22000	144
2.22367	144
2.22733	143
2.23100	142
2.23467	143
2.23833	145
2.24200	147
2.24567	148
2.24933	147
2.25300	146
2.25667	147
2.26033	149
2.26400	152
2.26767	152
2.27133	152
2.27500	153
2.27867	152
2.28233	150
2.28600	151
2.28967	151
2.29333	152
2.29700	154
2.30067	157
2.30433	161
2.30800	161
2.31167	161
2.31533	161
2.31900	163
2.32267	167
2.32633	170
2.33000	172
2.33367	173
2.33733	174
2.34100	175
2.34467	176
2.34833	177
2.35200	177
2.35567	177
2.35933	178
2.36300	179
2.36667	180
2.37033	182
2.37400	183
2.37767	184
2.38133	185
2.38500	184
2.38867	183
2.39233	183
2.39600	182
2.39967	180
2.40333	182
2.40700	184
2.41067	187
2.41433	190
2.41800	190
2.42167	193
2.42533	194
2.42900	199
2.43267	203
2.43633	205
2.44000	203
2.44367	206
2.44733	224
2.45100	245
2.45467	261
2.45833	270
2.46200	271
2.46567	268
2.46933	264
2.47300	262
2.47667	261
2.48033	260
2.48400	258
2.48767	252
2.49133	244
2.49500	236
2.49867	229
2.50233	222
2.50600	216
2.50967	211
2.51333	207
2.51700	203
2.52067	203
2.52433	202
2.52800	200
2.53167	199
2.53533	196
2.53900	193
2.54267	187
2.54633	181
2.55000	177
2.55367	173
2.55733	169
2.56100	164
2.56467	160
2.56833	159
2.57200	158
2.57567	159
2.57933	159
2.58300	158
2.58667	158
2.59033	156
2.59400	152
2.59767	148
2.60133	143
2.60500	133
2.60867	114
2.61233	88
2.61600	57
2.61967	21
2.62333	-20
2.62700	-62
2.63067	-103
2.63433	-139
2.63800	-172
2.64167	-200
2.64533	-223
2.64900	-237
2.65267	-246
2.65633	-252
2.66000	-254
2.66367	-256
2.66733	-252
2.67100	-245
2.67467	-235
2.67833	-225
2.68200	-215
2.68567	-203
2.68933	-191
2.69300	-181
2.69667	-173
2.70033	-165
2.70400	-155
2.70767	-147
2.71133	-137
2.71500	-128
2.71867	-119
2.72233	-111
2.72600	-104
2.72967	-98
2.73333	-93
2.73700	-86
2.74067	-79
2.74433	-73
2.74800	-68
2.75167	-63
2.75533	-58
2.75900	-52
2.76267	-47
2.76633	-44
2.77000	-40
2.77367	-36
2.77733	-31
2.78100	-26
2.78467	-22
2.78833	-20
2.79200	-18
2.79567	-16
2.79933	-14
2.80300	-13
2.80667	-12
2.81033	-12
2.81400	-10
2.81767	-9
2.82133	-7
2.82500	-1
2.82867	18
2.83233	66
2.83600	172
2.83967	387
2.84333	774
2.84700	1403
2.85067	2328
2.85433	3567
2.85800	5102
2.86167	6875
2.86533	8782
2.86900	10678
2.87267	12420
2.87633	13883
2.88000	14962
2.88367	15600
2.88733	15790
2.89100	15574
2.89467	15022
2.89833	14216
2.90200	13243
2.90567	12174
2.90933	11075
2.91300	9989
2.91667	8948
2.92033	7965
2.92400	7052
2.92767	6209
2.93133	5440
2.93500	4759
2.93867	4170
2.94233	3662
2.94600	3225
2.94967	2848
2.95333	2519
2.95700	2236
2.96067	1994
2.96433	1786
2.96800	1605
2.97167	1450
2.97533	1318
2.97900	1205
2.98267	1109
2.98633	1029
2.99000	962
2.99367	907
2.99733	861
3.00100	823
3.00467	793
3.00833	770
3.01200	749
3.01567	732
3.01933	720
3.02300	713
3.02667	707
3.03033	702
3.03400	700
3.03767	697
3.04133	693
3.04500	690
3.04867	689
3.05233	693
3.05600	694
3.05967	692
3.06333	693
3.06700	692
3.07067	690
3.07433	688
3.07800	687
3.08167	689
3.08533	690
3.08900	689
3.09267	688
3.09633	685
3.10000	682
3.10367	681
3.10733	681
3.11100	682
3.11467	682
3.11833	681
3.12200	678
3.12567	675
3.12933	671
3.13300	668
3.13667	667
3.14033	667
3.14400	666
3.14767	666
3.15133	667
3.15500	666
3.15867	665
3.16233	666
3.16600	666
3.16967	664
3.17333	663
3.17700	662
3.18067	659
3.18433	656
3.18800	654
3.19167	652
3.19533	651
3.19900	651
3.20267	651
3.20633	652
3.21000	651
3.21367	649
3.21733	647
3.22100	645
3.22467	642
3.22833	642
3.23200	641
3.23567	641
3.23933	642
3.24300	642
3.24667	643
3.25033	642
3.25400	640
3.25767	639
3.26133	639
3.26500	638
3.26867	635
3.27233	631
3.27600	629
3.27967	628
3.28333	626
3.28700	622
3.29067	617
3.29433	613
3.29800	613
3.30167	613
3.30533	614
3.30900	615
3.31267	614
3.31633	612
3.32000	610
3.32367	609
3.32733	606
3.33100	602
3.33467	601
3.33833	600
3.34200	597
3.34567	597
3.34933	597
3.35300	596
3.35667	594
3.36033	591
3.36400	588
3.36767	583
3.37133	579
3.37500	576
3.37867	576
3.38233	576
3.38600	575
3.38967	573
3.39333	570
3.39700	567
3.40067	566
3.40433	566
3.40800	564
3.41167	563
3.41533	562
3.41900	561
3.42267	559
3.42633	559
3.43000	560
3.43367	557
3.43733	553
3.44100	549
3.44467	546
3.44833	543
3.45200	542
3.45567	539
3.45933	537
3.46300	535
3.46667	534
3.47033	533
3.47400	531
3.47767	529
3.48133	527
3.48500	523
3.48867	521
3.49233	521
3.49600	521
3.49967	518
3.50333	514
3.50700	512
3.51067	510
3.51433	508
3.51800	507
3.52167	506
3.52533	503
3.52900	497
3.53267	493
3.53633	491
3.54000	489
3.54367	485
3.54733	483
3.55100	484
3.55467	483
3.55833	482
3.56200	480
3.56567	480
3.56933	478
3.57300	475
3.57667	472
3.58033	469
3.58400	470
3.58767	471
3.59133	468
3.59500	466
3.59867	462
3.60233	459
3.60600	457
3.60967	457
3.61333	455
3.61700	453
3.62067	450
3.62433	448
3.62800	444
3.63167	442
3.63533	445
3.63900	445
3.64267	444
3.64633	440
3.65000	438
3.65367	436
3.65733	433
3.66100	432
3.66467	433
3.66833	435
3.67200	437
3.67567	436
3.67933	433
3.68300	430
3.68667	427
3.69033	426
3.69400	423
3.69767	421
3.70133	421
3.70500	421
3.70867	420
3.71233	416
3.71600	412
3.71967	410
3.72333	408
3.72700	405
3.73067	400
3.73433	396
3.73800	395
3.74167	393
3.74533	391
3.74900	390
3.75267	389
3.75633	387
3.76000	386
3.76367	386
3.76733	386
3.77100	384
3.77467	382
3.77833	381
3.78200	379
3.78567	379
3.78933	376
3.79300	370
3.79667	367
3.80033	365
3.80400	364
3.80767	363
3.81133	363
3.81500	364
3.81867	364
3.82233	365
3.82600	367
3.82967	367
3.83333	366
3.83700	363
3.84067	360
3.84433	358
3.84800	355
3.85167	351
3.85533	350
3.85900	352
3.86267	353
3.86633	354
3.87000	353
3.87367	350
3.87733	347
3.88100	346
3.88467	346
3.88833	345
3.89200	345
3.89567	343
3.89933	339
3.90300	335
3.90667	334
3.91033	333
3.91400	333
3.91767	331
3.92133	326
3.92500	323
3.92867	321
3.93233	317
3.93600	313
3.93967	311
3.94333	312
3.94700	311
3.95067	309
3.95433	308
3.95800	307
3.96167	305
3.96533	303
3.96900	302
3.97267	301
3.97633	301
3.98000	303
3.98367	300
3.98733	295
3.99100	292
3.99467	288
3.99833	288

[Status Trace (Column Oven Temperature)]
Interval(msec)	1000
# of Points	240
Start Time(min)	0.010
End Time(min)	3.993
Intensity Units	
Intensity Multiplier	1
R.Time (min)	Intensity
0.00980	35.04
0.02647	35.05
0.04313	35.06
0.05980	35.05
0.07647	35.03
0.09313	35.01
0.10980	35.00
0.12647	35.01
0.14313	35.02
0.15980	35.02
0.17647	35.02
0.19313	35.01
0.20980	34.99
0.22647	34.97
0.24313	34.96
0.25980	34.96
0.27647	34.96
0.29313	34.96
0.30980	34.97
0.32647	34.98
0.34313	34.98
0.35980	34.97
0.37647	34.97
0.39313	34.97
0.40980	34.97
0.42647	34.96
0.44313	34.95
0.45980	34.96
0.47647	34.97
0.49313	34.99
0.50980	35.00
0.52647	35.01
0.54313	35.01
0.55980	35.00
0.57647	34.99
0.59313	34.98
0.60980	34.98
0.62647	34.98
0.64313	34.98
0.65980	34.98
0.67647	34.98
0.69313	34.98
0.70980	34.97
0.72647	34.96
0.74313	34.95
0.75980	34.95
0.77647	34.96
0.79313	34.96
0.80980	34.97
0.82647	34.98
0.84313	34.97
0.85980	34.97
0.87647	34.97
0.89313	34.96
0.90980	34.98
0.92647	34.99
0.94313	35.01
0.95980	35.02
0.97647	35.02
0.99313	35.02
1.00980	35.01
1.02647	35.01
1.04313	35.01
1.05980	35.01
1.07647	34.99
1.09313	35.00
1.10980	35.01
1.12647	35.03
1.14313	35.03
1.15980	35.03
1.17647	35.03
1.19313	35.03
1.20980	35.03
1.22647	35.02
1.24313	35.02
1.25980	35.01
1.27647	34.99
1.29313	34.99
1.30980	35.00
1.32647	35.00
1.34313	35.01
1.35980	35.01
1.37647	35.00
1.39313	35.00
1.40980	35.01
1.42647	35.01
1.44313	35.00
1.45980	34.99
1.47647	35.00
1.49313	34.99
1.50980	35.00
1.52647	35.00
1.54313	34.98
1.55980	34.97
1.57647	34.97
1.59313	34.98
1.60980	35.04
1.62647	35.18
1.64313	35.39
1.65980	35.65
1.67647	36.01
1.69313	36.38
1.70980	36.73
1.72647	37.06
1.74313	37.38
1.75980	37.71
1.77647	38.05
1.79313	38.39
1.80980	38.70
1.82647	39.05
1.84313	39.38
1.85980	39.70
1.87647	40.03
1.89313	40.37
1.90980	40.69
1.92647	41.03
1.94313	41.33
1.95980	41.67
1.97647	41.99
1.99313	42.31
2.00980	42.64
2.02647	42.97
2.04313	43.30
2.05980	43.59
2.07647	43.92
2.09313	44.27
2.10980	44.58
2.12647	44.91
2.14313	45.23
2.15980	45.56
2.17647	45.89
2.19313	46.21
2.20980	46.55
2.22647	46.88
2.24313	47.20
2.25980	47.53
2.27647	47.86
2.29313	48.19
2.30980	48.54
2.32647	48.87
2.34313	49.18
2.35980	49.50
2.37647	49.70
2.39313	49.77
2.40980	49.76
2.42647	49.78
2.44313	49.79
2.45980	49.78
2.47647	49.79
2.49313	49.81
2.50980	49.81
2.52647	49.81
2.54313	49.80
2.55980	49.81
2.57647	49.83
2.59313	49.84
2.60980	49.84
2.62647	49.85
2.64313	49.85
2.65980	49.85
2.67647	49.85
2.69313	49.84
2.70980	49.86
2.72647	49.87
2.74313	49.87
2.75980	49.87
2.77647	49.87
2.79313	49.88
2.80980	49.90
2.82647	49.92
2.84313	49.93
2.85980	49.95
2.87647	49.97
2.89313	49.98
2.90980	49.99
2.92647	50.00
2.94313	50.00
2.95980	50.00
2.97647	50.00
2.99313	49.99
3.00980	49.99
3.02647	50.00
3.04313	50.01
3.05980	50.03
3.07647	50.04
3.09313	50.07
3.10980	50.08
3.12647	50.10
3.14313	50.10
3.15980	50.10
3.17647	50.10
3.19313	50.09
3.20980	50.09
3.22647	50.08
3.24313	50.07
3.25980	50.07
3.27647	50.07
3.29313	50.07
3.30980	50.07
3.32647	50.08
3.34313	50.09
3.35980	50.09
3.37647	50.09
3.39313	50.10
3.40980	50.10
3.42647	50.10
3.44313	50.10
3.45980	50.10
3.47647	50.10
3.49313	50.09
3.50980	50.08
3.52647	50.07
3.54313	50.06
3.55980	50.05
3.57647	50.04
3.59313	50.04
3.60980	50.03
3.62647	50.03
3.64313	50.03
3.65980	50.04
3.67647	50.04
3.69313	50.06
3.70980	50.07
3.72647	50.08
3.74313	50.07
3.75980	50.07
3.77647	50.07
3.79313	50.06
3.80980	50.06
3.82647	50.06
3.84313	50.07
3.85980	50.08
3.87647	50.09
3.89313	50.08
3.90980	50.09
3.92647	50.08
3.94313	50.08
3.95980	50.07
3.97647	50.07
3.99313	50.06

[Status Trace (Injection Unit Temperature)]
Interval(msec)	1000
# of Points	240
Start Time(min)	0.010
End Time(min)	3.993
Intensity Units	
Intensity Multiplier	1
R.Time (min)	Intensity
0.00980	99.99
0.02647	99.99
0.04313	99.99
0.05980	99.99
0.07647	99.98
0.09313	99.99
0.10980	99.99
0.12647	99.99
0.14313	99.98
0.15980	99.98
0.17647	99.99
0.19313	99.99
0.20980	99.99
0.22647	99.98
0.24313	99.98
0.25980	99.98
0.27647	99.98
0.29313	99.98
0.30980	99.99
0.32647	99.99
0.34313	99.99
0.35980	99.99
0.37647	99.98
0.39313	99.99
0.40980	99.98
0.42647	99.98
0.44313	99.99
0.45980	99.98
0.47647	99.98
0.49313	99.99
0.50980	99.98
0.52647	99.98
0.54313	99.98
0.55980	99.98
0.57647	99.98
0.59313	99.98
0.60980	99.99
0.62647	99.99
0.64313	99.99
0.65980	99.99
0.67647	99.98
0.69313	99.98
0.70980	99.99
0.72647	99.98
0.74313	99.98
0.75980	99.98
0.77647	99.99
0.79313	99.99
0.80980	99.98
0.82647	99.98
0.84313	99.99
0.85980	99.99
0.87647	99.99
0.89313	99.98
0.90980	99.98
0.92647	99.98
0.94313	99.98
0.95980	99.98
0.97647	99.98
0.99313	99.98
1.00980	99.98
1.02647	99.98
1.04313	99.98
1.05980	99.99
1.07647	99.98
1.09313	99.98
1.10980	99.98
1.12647	99.99
1.14313	99.99
1.15980	99.99
1.17647	99.98
1.19313	99.99
1.20980	99.99
1.22647	99.98
1.24313	99.98
1.25980	99.99
1.27647	99.99
1.29313	99.99
1.30980	99.99
1.32647	99.99
1.34313	99.99
1.35980	99.99
1.37647	99.99
1.39313	99.99
1.40980	99.99
1.42647	99.99
1.44313	99.99
1.45980	99.99
1.47647	99.99
1.49313	99.99
1.50980	99.99
1.52647	99.99
1.54313	99.99
1.55980	99.99
1.57647	99.98
1.59313	99.99
1.60980	99.99
1.62647	99.99
1.64313	99.98
1.65980	99.99
1.67647	99.99
1.69313	99.99
1.70980	99.99
1.72647	99.99
1.74313	99.99
1.75980	99.99
1.77647	99.99
1.79313	99.99
1.80980	99.99
1.82647	99.99
1.84313	99.99
1.85980	99.99
1.87647	99.99
1.89313	99.99
1.90980	99.99
1.92647	99.99
1.94313	99.99
1.95980	99.99
1.97647	99.99
1.99313	99.98
2.00980	99.99
2.02647	99.98
2.04313	99.98
2.05980	99.98
2.07647	99.98
2.09313	99.98
2.10980	99.98
2.12647	99.98
2.14313	99.98
2.15980	99.98
2.17647	99.98
2.19313	99.97
2.20980	99.97
2.22647	99.98
2.24313	99.97
2.25980	99.98
2.27647	99.97
2.29313	99.97
2.30980	99.97
2.32647	99.97
2.34313	99.97
2.35980	99.97
2.37647	99.97
2.39313	99.97
2.40980	99.97
2.42647	99.97
2.44313	99.97
2.45980	99.97
2.47647	99.97
2.49313	99.97
2.50980	99.97
2.52647	99.97
2.54313	99.98
2.55980	99.97
2.57647	99.98
2.59313	99.97
2.60980	99.98
2.62647	99.98
2.64313	99.98
2.65980	99.98
2.67647	99.98
2.69313	99.99
2.70980	99.99
2.72647	99.99
2.74313	99.99
2.75980	99.99
2.77647	99.99
2.79313	99.99
2.80980	100.00
2.82647	99.99
2.84313	100.00
2.85980	100.00
2.87647	100.01
2.89313	100.00
2.90980	100.01
2.92647	100.01
2.94313	100.01
2.95980	100.01
2.97647	100.01
2.99313	100.01
3.00980	100.02
3.02647	100.02
3.04313	100.02
3.05980	100.02
3.07647	100.03
3.09313	100.02
3.10980	100.03
3.12647	100.03
3.14313	100.03
3.15980	100.03
3.17647	100.03
3.19313	100.04
3.20980	100.04
3.22647	100.03
3.24313	100.04
3.25980	100.04
3.27647	100.04
3.29313	100.04
3.30980	100.04
3.32647	100.04
3.34313	100.05
3.35980	100.04
3.37647	100.04
3.39313	100.05
3.40980	100.05
3.42647	100.04
3.44313	100.05
3.45980	100.05
3.47647	100.05
3.49313	100.05
3.50980	100.05
3.52647	100.05
3.54313	100.05
3.55980	100.05
3.57647	100.05
3.59313	100.05
3.60980	100.05
3.62647	100.05
3.64313	100.06
3.65980	100.05
3.67647	100.05
3.69313	100.05
3.70980	100.05
3.72647	100.05
3.74313	100.06
3.75980	100.05
3.77647	100.05
3.79313	100.05
3.80980	100.05
3.82647	100.06
3.84313	100.05
3.85980	100.05
3.87647	100.05
3.89313	100.05
3.90980	100.05
3.92647	100.05
3.94313	100.05
3.95980	100.05
3.97647	100.05
3.99313	100.05

[Status Trace (Carrier Gas Pressure)]
Interval(msec)	1000
# of Points	240
Start Time(min)	0.010
End Time(min)	3.993
Intensity Units	
Intensity Multiplier	1
R.Time (min)	Intensity
0.00980	58.00
0.02647	55.20
0.04313	57.35
0.05980	59.49
0.07647	59.26
0.09313	58.03
0.10980	57.99
0.12647	58.01
0.14313	58.01
0.15980	58.00
0.17647	58.00
0.19313	58.00
0.20980	58.00
0.22647	58.00
0.24313	58.00
0.25980	58.00
0.27647	58.00
0.29313	58.00
0.30980	58.00
0.32647	58.00
0.34313	58.00
0.35980	58.00
0.37647	58.00
0.39313	58.00
0.40980	58.00
0.42647	58.00
0.44313	58.00
0.45980	58.00
0.47647	58.00
0.49313	58.00
0.50980	58.00
0.52647	58.00
0.54313	58.00
0.55980	58.00
0.57647	58.00
0.59313	58.00
0.60980	58.00
0.62647	58.00
0.64313	58.00
0.65980	58.00
0.67647	58.00
0.69313	58.00
0.70980	58.00
0.72647	58.00
0.74313	58.00
0.75980	58.00
0.77647	58.00
0.79313	58.00
0.80980	58.00
0.82647	58.00
0.84313	58.00
0.85980	58.00
0.87647	58.00
0.89313	58.00
0.90980	58.00
0.92647	58.00
0.94313	58.00
0.95980	58.00
0.97647	58.00
0.99313	58.00
1.00980	58.00
1.02647	58.00
1.04313	58.00
1.05980	58.00
1.07647	58.00
1.09313	58.00
1.10980	58.00
1.12647	58.00
1.14313	58.00
1.15980	58.00
1.17647	58.00
1.19313	58.00
1.20980	58.00
1.22647	58.00
1.24313	58.00
1.25980	58.00
1.27647	58.00
1.29313	58.00
1.30980	58.00
1.32647	58.00
1.34313	58.00
1.35980	58.00
1.37647	58.00
1.39313	58.00
1.40980	58.00
1.42647	58.00
1.44313	58.00
1.45980	58.00
1.47647	58.00
1.49313	58.00
1.50980	58.00
1.52647	58.00
1.54313	58.00
1.55980	58.00
1.57647	58.00
1.59313	58.00
1.60980	58.00
1.62647	58.00
1.64313	58.00
1.65980	58.00
1.67647	58.01
1.69313	58.00
1.70980	58.00
1.72647	58.00
1.74313	58.00
1.75980	58.00
1.77647	58.00
1.79313	58.00
1.80980	58.00
1.82647	58.00
1.84313	58.00
1.85980	58.00
1.87647	58.00
1.89313	58.00
1.90980	58.00
1.92647	58.00
1.94313	58.00
1.95980	58.00
1.97647	58.00
1.99313	58.00
2.00980	58.00
2.02647	58.00
2.04313	58.00
2.05980	58.00
2.07647	58.00
2.09313	58.00
2.10980	58.00
2.12647	58.00
2.14313	58.00
2.15980	58.00
2.17647	58.00
2.19313	58.00
2.20980	58.00
2.22647	58.00
2.24313	58.00
2.25980	58.00
2.27647	58.00
2.29313	58.00
2.30980	58.00
2.32647	58.00
2.34313	58.00
2.35980	58.00
2.37647	58.00
2.39313	57.99
2.40980	57.99
2.42647	58.00
2.44313	58.00
2.45980	58.00
2.47647	58.00
2.49313	58.00
2.50980	57.99
2.52647	57.98
2.54313	58.00
2.55980	58.00
2.57647	58.00
2.59313	58.00
2.60980	58.00
2.62647	58.00
2.64313	58.00
2.65980	58.00
2.67647	58.00
2.69313	58.00
2.70980	58.00
2.72647	58.00
2.74313	58.00
2.75980	58.00
2.77647	58.00
2.79313	58.00
2.80980	58.00
2.82647	58.00
2.84313	58.00
2.85980	58.00
2.87647	58.00
2.89313	58.00
2.90980	58.00
2.92647	58.00
2.94313	58.00
2.95980	58.00
2.97647	58.00
2.99313	58.00
3.00980	58.00
3.02647	58.00
3.04313	58.00
3.05980	58.00
3.07647	58.00
3.09313	58.00
3.10980	58.00
3.12647	58.00
3.14313	58.00
3.15980	58.00
3.17647	58.00
3.19313	58.00
3.20980	58.00
3.22647	58.00
3.24313	58.00
3.25980	58.00
3.27647	58.00
3.29313	58.00
3.30980	58.00
3.32647	58.00
3.34313	58.00
3.35980	58.00
3.37647	58.00
3.39313	58.00
3.40980	58.00
3.42647	58.00
3.44313	58.00
3.45980	58.00
3.47647	58.00
3.49313	58.00
3.50980	58.00
3.52647	58.00
3.54313	58.00
3.55980	58.00
3.57647	58.00
3.59313	58.00
3.60980	58.00
3.62647	58.00
3.64313	58.00
3.65980	58.00
3.67647	58.00
3.69313	58.00
3.70980	58.00
3.72647	58.00
3.74313	58.00
3.75980	58.00
3.77647	58.00
3.79313	58.00
3.80980	58.00
3.82647	58.00
3.84313	58.00
3.85980	58.00
3.87647	58.00
3.89313	58.00
3.90980	58.00
3.92647	58.00
3.94313	58.00
3.95980	58.00
3.97647	58.00
3.99313	58.00

[Status Trace (Carrier Gas Flow)]
Interval(msec)	1000
# of Points	240
Start Time(min)	0.010
End Time(min)	3.993
Intensity Units	
Intensity Multiplier	1
R.Time (min)	Intensity
0.00980	34.52
0.02647	34.53
0.04313	34.55
0.05980	34.55
0.07647	34.51
0.09313	34.52
0.10980	34.52
0.12647	34.51
0.14313	34.52
0.15980	34.52
0.17647	34.52
0.19313	34.52
0.20980	34.52
0.22647	34.52
0.24313	34.52
0.25980	34.52
0.27647	34.52
0.29313	34.52
0.30980	34.52
0.32647	34.52
0.34313	34.52
0.35980	34.52
0.37647	34.52
0.39313	34.52
0.40980	34.52
0.42647	34.52
0.44313	34.52
0.45980	34.52
0.47647	34.52
0.49313	34.52
0.50980	34.52
0.52647	34.52
0.54313	34.52
0.55980	34.52
0.57647	34.52
0.59313	34.52
0.60980	34.52
0.62647	34.52
0.64313	34.52
0.65980	34.52
0.67647	34.52
0.69313	34.52
0.70980	34.52
0.72647	34.53
0.74313	34.52
0.75980	34.51
0.77647	34.52
0.79313	34.54
0.80980	34.52
0.82647	34.52
0.84313	34.51
0.85980	34.52
0.87647	34.52
0.89313	34.52
0.90980	34.52
0.92647	34.52
0.94313	34.52
0.95980	34.52
0.97647	34.52
0.99313	34.53
1.00980	34.52
1.02647	34.51
1.04313	34.52
1.05980	34.52
1.07647	34.52
1.09313	34.51
1.10980	34.52
1.12647	34.52
1.14313	34.52
1.15980	34.52
1.17647	34.52
1.19313	34.52
1.20980	34.52
1.22647	34.53
1.24313	34.51
1.25980	34.52
1.27647	34.52
1.29313	34.52
1.30980	34.51
1.32647	34.52
1.34313	34.52
1.35980	34.52
1.37647	34.52
1.39313	34.52
1.40980	34.52
1.42647	34.53
1.44313	34.53
1.45980	34.51
1.47647	34.53
1.49313	34.52
1.50980	34.53
1.52647	34.53
1.54313	34.52
1.55980	34.53
1.57647	34.51
1.59313	34.52
1.60980	34.51
1.62647	34.52
1.64313	34.52
1.65980	34.54
1.67647	34.50
1.69313	34.52
1.70980	34.53
1.72647	34.54
1.74313	34.52
1.75980	34.51
1.77647	34.52
1.79313	34.50
1.80980	34.51
1.82647	34.52
1.84313	34.52
1.85980	34.51
1.87647	34.54
1.89313	34.52
1.90980	34.53
1.92647	34.53
1.94313	34.52
1.95980	34.52
1.97647	34.53
1.99313	34.52
2.00980	34.52
2.02647	34.52
2.04313	34.50
2.05980	34.52
2.07647	34.52
2.09313	34.52
2.10980	34.52
2.12647	34.50
2.14313	34.51
2.15980	34.52
2.17647	34.52
2.19313	34.51
2.20980	34.52
2.22647	34.52
2.24313	34.52
2.25980	34.52
2.27647	34.52
2.29313	34.52
2.30980	34.52
2.32647	34.52
2.34313	34.52
2.35980	34.52
2.37647	34.52
2.39313	34.52
2.40980	34.52
2.42647	34.52
2.44313	34.52
2.45980	34.52
2.47647	34.52
2.49313	34.52
2.50980	34.51
2.52647	34.53
2.54313	34.52
2.55980	34.52
2.57647	34.52
2.59313	34.53
2.60980	34.52
2.62647	34.51
2.64313	34.50
2.65980	34.54
2.67647	34.52
2.69313	34.52
2.70980	34.52
2.72647	34.52
2.74313	34.52
2.75980	34.52
2.77647	34.52
2.79313	34.51
2.80980	34.51
2.82647	34.53
2.84313	34.52
2.85980	34.51
2.87647	34.50
2.89313	34.53
2.90980	34.52
2.92647	34.52
2.94313	34.52
2.95980	34.52
2.97647	34.52
2.99313	34.52
3.00980	34.52
3.02647	34.52
3.04313	34.52
3.05980	34.52
3.07647	34.52
3.09313	34.52
3.10980	34.52
3.12647	34.52
3.14313	34.52
3.15980	34.52
3.17647	34.52
3.19313	34.52
3.20980	34.52
3.22647	34.52
3.24313	34.52
3.25980	34.52
3.27647	34.52
3.29313	34.52
3.30980	34.52
3.32647	34.52
3.34313	34.52
3.35980	34.52
3.37647	34.52
3.39313	34.52
3.40980	34.52
3.42647	34.52
3.44313	34.52
3.45980	34.52
3.47647	34.52
3.49313	34.52
3.50980	34.52
3.52647	34.52
3.54313	34.51
3.55980	34.52
3.57647	34.51
3.59313	34.52
3.60980	34.51
3.62647	34.52
3.64313	34.52
3.65980	34.52
3.67647	34.52
3.69313	34.52
3.70980	34.52
3.72647	34.52
3.74313	34.52
3.75980	34.52
3.77647	34.52
3.79313	34.52
3.80980	34.52
3.82647	34.52
3.84313	34.52
3.85980	34.52
3.87647	34.52
3.89313	34.52
3.90980	34.52
3.92647	34.52
3.94313	34.52
3.95980	34.52
3.97647	34.52
3.99313	34.52

[Status Trace (Column Flow)]
Interval(msec)	1000
# of Points	240
Start Time(min)	0.010
End Time(min)	3.993
Intensity Units	
Intensity Multiplier	1
R.Time (min)	Intensity
0.00980	5.45
0.02647	5.13
0.04313	5.38
0.05980	5.62
0.07647	5.60
0.09313	5.46
0.10980	5.45
0.12647	5.45
0.14313	5.45
0.15980	5.45
0.17647	5.45
0.19313	5.45
0.20980	5.45
0.22647	5.45
0.24313	5.45
0.25980	5.45
0.27647	5.45
0.29313	5.45
0.30980	5.45
0.32647	5.45
0.34313	5.45
0.35980	5.45
0.37647	5.45
0.39313	5.45
0.40980	5.45
0.42647	5.45
0.44313	5.45
0.45980	5.45
0.47647	5.45
0.49313	5.45
0.50980	5.45
0.52647	5.45
0.54313	5.45
0.55980	5.45
0.57647	5.45
0.59313	5.45
0.60980	5.45
0.62647	5.45
0.64313	5.45
0.65980	5.45
0.67647	5.45
0.69313	5.45
0.70980	5.45
0.72647	5.45
0.74313	5.46
0.75980	5.45
0.77647	5.45
0.79313	5.45
0.80980	5.45
0.82647	5.45
0.84313	5.45
0.85980	5.45
0.87647	5.45
0.89313	5.45
0.90980	5.45
0.92647	5.45
0.94313	5.45
0.95980	5.45
0.97647	5.45
0.99313	5.45
1.00980	5.45
1.02647	5.45
1.04313	5.45
1.05980	5.45
1.07647	5.45
1.09313	5.45
1.10980	5.45
1.12647	5.45
1.14313	5.45
1.15980	5.45
1.17647	5.45
1.19313	5.45
1.20980	5.45
1.22647	5.45
1.24313	5.45
1.25980	5.45
1.27647	5.45
1.29313	5.45
1.30980	5.45
1.32647	5.45
1.34313	5.45
1.35980	5.45
1.37647	5.45
1.39313	5.45
1.40980	5.45
1.42647	5.45
1.44313	5.45
1.45980	5.45
1.47647	5.45
1.49313	5.45
1.50980	5.45
1.52647	5.45
1.54313	5.45
1.55980	5.45
1.57647	5.45
1.59313	5.45
1.60980	5.45
1.62647	5.45
1.64313	5.44
1.65980	5.43
1.67647	5.42
1.69313	5.41
1.70980	5.40
1.72647	5.39
1.74313	5.38
1.75980	5.37
1.77647	5.36
1.79313	5.35
1.80980	5.34
1.82647	5.33
1.84313	5.32
1.85980	5.31
1.87647	5.30
1.89313	5.29
1.90980	5.28
1.92647	5.27
1.94313	5.26
1.95980	5.25
1.97647	5.24
1.99313	5.23
2.00980	5.22
2.02647	5.21
2.04313	5.20
2.05980	5.20
2.07647	5.19
2.09313	5.18
2.10980	5.17
2.12647	5.16
2.14313	5.15
2.15980	5.14
2.17647	5.13
2.19313	5.12
2.20980	5.11
2.22647	5.10
2.24313	5.09
2.25980	5.08
2.27647	5.08
2.29313	5.07
2.30980	5.06
2.32647	5.05
2.34313	5.04
2.35980	5.03
2.37647	5.02
2.39313	5.02
2.40980	5.02
2.42647	5.02
2.44313	5.02
2.45980	5.02
2.47647	5.02
2.49313	5.02
2.50980	5.02
2.52647	5.02
2.54313	5.02
2.55980	5.02
2.57647	5.02
2.59313	5.02
2.60980	5.02
2.62647	5.02
2.64313	5.02
2.65980	5.02
2.67647	5.02
2.69313	5.02
2.70980	5.02
2.72647	5.02
2.74313	5.02
2.75980	5.02
2.77647	5.02
2.79313	5.02
2.80980	5.02
2.82647	5.02
2.84313	5.02
2.85980	5.02
2.87647	5.02
2.89313	5.02
2.90980	5.02
2.92647	5.02
2.94313	5.02
2.95980	5.02
2.97647	5.02
2.99313	5.02
3.00980	5.02
3.02647	5.02
3.04313	5.02
3.05980	5.01
3.07647	5.01
3.09313	5.01
3.10980	5.01
3.12647	5.01
3.14313	5.01
3.15980	5.01
3.17647	5.01
3.19313	5.01
3.20980	5.01
3.22647	5.01
3.24313	5.01
3.25980	5.01
3.27647	5.01
3.29313	5.01
3.30980	5.01
3.32647	5.01
3.34313	5.01
3.35980	5.01
3.37647	5.01
3.39313	5.01
3.40980	5.01
3.42647	5.01
3.44313	5.01
3.45980	5.01
3.47647	5.01
3.49313	5.01
3.50980	5.01
3.52647	5.01
3.54313	5.01
3.55980	5.01
3.57647	5.01
3.59313	5.01
3.60980	5.01
3.62647	5.01
3.64313	5.01
3.65980	5.01
3.67647	5.01
3.69313	5.01
3.70980	5.01
3.72647	5.01
3.74313	5.01
3.75980	5.01
3.77647	5.01
3.79313	5.01
3.80980	5.01
3.82647	5.01
3.84313	5.01
3.85980	5.01
3.87647	5.01
3.89313	5.01
3.90980	5.01
3.92647	5.01
3.94313	5.01
3.95980	5.01
3.97647	5.01
3.99313	5.01

[Status Trace (Linear Velocity)]
Interval(msec)	1000
# of Points	240
Start Time(min)	0.010
End Time(min)	3.993
Intensity Units	
Intensity Multiplier	1
R.Time (min)	Intensity
0.00980	39.00
0.02647	37.16
0.04313	38.57
0.05980	39.97
0.07647	39.82
0.09313	39.02
0.10980	38.99
0.12647	39.01
0.14313	39.00
0.15980	39.00
0.17647	39.00
0.19313	39.00
0.20980	39.00
0.22647	39.00
0.24313	39.01
0.25980	39.01
0.27647	39.00
0.29313	39.00
0.30980	39.00
0.32647	39.00
0.34313	39.00
0.35980	39.00
0.37647	39.00
0.39313	39.00
0.40980	39.00
0.42647	39.00
0.44313	39.01
0.45980	39.00
0.47647	39.00
0.49313	39.00
0.50980	39.00
0.52647	39.00
0.54313	39.00
0.55980	39.00
0.57647	39.00
0.59313	39.00
0.60980	39.00
0.62647	39.00
0.64313	39.00
0.65980	39.00
0.67647	39.00
0.69313	39.00
0.70980	39.00
0.72647	39.00
0.74313	39.01
0.75980	39.01
0.77647	39.00
0.79313	39.00
0.80980	39.00
0.82647	39.00
0.84313	39.00
0.85980	39.00
0.87647	39.00
0.89313	39.00
0.90980	39.00
0.92647	39.00
0.94313	39.00
0.95980	39.00
0.97647	39.00
0.99313	39.00
1.00980	39.00
1.02647	39.00
1.04313	39.00
1.05980	39.00
1.07647	39.00
1.09313	39.00
1.10980	39.00
1.12647	39.00
1.14313	39.00
1.15980	39.00
1.17647	39.00
1.19313	39.00
1.20980	39.00
1.22647	39.00
1.24313	39.00
1.25980	39.00
1.27647	39.00
1.29313	39.00
1.30980	39.00
1.32647	39.00
1.34313	39.00
1.35980	39.00
1.37647	39.00
1.39313	39.00
1.40980	39.00
1.42647	39.00
1.44313	39.00
1.45980	39.00
1.47647	39.00
1.49313	39.00
1.50980	39.00
1.52647	39.00
1.54313	39.00
1.55980	39.00
1.57647	39.00
1.59313	39.00
1.60980	39.00
1.62647	38.99
1.64313	38.97
1.65980	38.94
1.67647	38.91
1.69313	38.87
1.70980	38.83
1.72647	38.81
1.74313	38.78
1.75980	38.74
1.77647	38.71
1.79313	38.68
1.80980	38.65
1.82647	38.62
1.84313	38.59
1.85980	38.55
1.87647	38.53
1.89313	38.49
1.90980	38.46
1.92647	38.43
1.94313	38.40
1.95980	38.37
1.97647	38.34
1.99313	38.31
2.00980	38.28
2.02647	38.25
2.04313	38.22
2.05980	38.19
2.07647	38.17
2.09313	38.13
2.10980	38.10
2.12647	38.08
2.14313	38.05
2.15980	38.01
2.17647	37.99
2.19313	37.96
2.20980	37.93
2.22647	37.90
2.24313	37.87
2.25980	37.84
2.27647	37.81
2.29313	37.78
2.30980	37.75
2.32647	37.72
2.34313	37.69
2.35980	37.66
2.37647	37.64
2.39313	37.63
2.40980	37.63
2.42647	37.64
2.44313	37.63
2.45980	37.64
2.47647	37.64
2.49313	37.63
2.50980	37.63
2.52647	37.62
2.54313	37.63
2.55980	37.63
2.57647	37.63
2.59313	37.63
2.60980	37.63
2.62647	37.63
2.64313	37.63
2.65980	37.63
2.67647	37.63
2.69313	37.63
2.70980	37.63
2.72647	37.63
2.74313	37.63
2.75980	37.63
2.77647	37.63
2.79313	37.63
2.80980	37.63
2.82647	37.62
2.84313	37.62
2.85980	37.62
2.87647	37.62
2.89313	37.62
2.90980	37.62
2.92647	37.62
2.94313	37.62
2.95980	37.62
2.97647	37.62
2.99313	37.62
3.00980	37.62
3.02647	37.62
3.04313	37.62
3.05980	37.61
3.07647	37.61
3.09313	37.61
3.10980	37.61
3.12647	37.61
3.14313	37.61
3.15980	37.61
3.17647	37.61
3.19313	37.61
3.20980	37.61
3.22647	37.61
3.24313	37.61
3.25980	37.61
3.27647	37.61
3.29313	37.61
3.30980	37.61
3.32647	37.61
3.34313	37.61
3.35980	37.61
3.37647	37.61
3.39313	37.61
3.40980	37.61
3.42647	37.61
3.44313	37.61
3.45980	37.61
3.47647	37.61
3.49313	37.61
3.50980	37.61
3.52647	37.61
3.54313	37.61
3.55980	37.61
3.57647	37.61
3.59313	37.61
3.60980	37.61
3.62647	37.61
3.64313	37.61
3.65980	37.61
3.67647	37.61
3.69313	37.61
3.70980	37.61
3.72647	37.61
3.74313	37.61
3.75980	37.61
3.77647	37.61
3.79313	37.61
3.80980	37.61
3.82647	37.61
3.84313	37.61
3.85980	37.61
3.87647	37.61
3.89313	37.61
3.90980	37.61
3.92647	37.61
3.94313	37.61
3.95980	37.61
3.97647	37.61
3.99313	37.61

