[Header]
Application Name	LabSolutions
Version	5.110
Data File Name	C:\Users\User\Desktop\GC Analyses\Jack\UIC Prairie Sampling\8.12.22\220812_013.gcd
Output Date	10/14/2022
Output Time	2:33:50 PM

[File Information]
Type	Data File
Generated	10/6/2022 2:00:52 PM
Generated by	System Administrator
Modified	10/6/2022 2:05:18 PM
Modified by	System Administrator

[Sample Information]
Operator Name	System Administrator
Acquired	10/6/2022 2:01:18 PM
Sample Type	1:Standard
Level	1
Sample Name	220812_UICPrairie
Sample ID	220812_UICPrairie
ISTD Amount1	1
ISTD Amount2	1
ISTD Amount3	1
ISTD Amount4	1
ISTD Amount5	1
ISTD Amount6	1
ISTD Amount7	1
ISTD Amount8	1
ISTD Amount9	1
ISTD Amount10	1
ISTD Amount11	1
ISTD Amount12	1
ISTD Amount13	1
ISTD Amount14	1
ISTD Amount15	1
ISTD Amount16	1
ISTD Amount17	1
ISTD Amount18	1
ISTD Amount19	1
ISTD Amount20	1
ISTD Amount21	1
ISTD Amount22	1
ISTD Amount23	1
ISTD Amount24	1
ISTD Amount25	1
ISTD Amount26	1
ISTD Amount27	1
ISTD Amount28	1
ISTD Amount29	1
ISTD Amount30	1
ISTD Amount31	1
ISTD Amount32	1
Sample Amount	1
Dilution Factor	1
Vial#	1
Injection Volume	1
Injection Count	1
Bar Code	

[Original Files]
Data File	C:\Users\User\Desktop\GC Analyses\Jack\UIC Prairie Sampling\8.12.22\220812_013.gcd
Method File	C:\LabSolutions\Data\GHG_4min_2022\ghg3_togas_w_acet_4 min_new_int.gcm
Batch File	
Report Format File	c:\LabSolutions\System\DEFAULT.lsr

[File Description]


[Configuration]
Instrument Name	C0B7VH3-Instrument1
Instrument #	1
Line #	1
# of Detectors	3
Detector ID	DET#1	DET#2	DET#3
Detector Name	FID	PTCD	ECD
# of Channels	1	1	1

[Peak Table(Ch1)]
# of Peaks	3
Peak#	R.Time	I.Time	F.Time	Area	Height	A/H	Conc.	Mark	ID#	Name	k'	Plate #	Plate Ht.	Tailing	Resolution	Sep.Factor	Area Ratio	Height Ratio	Conc. %	Norm Conc.
1	1.476	1.432	1.538	11073	4824	2.296	100.000	   	1	CO	0.000	8076	18.574	1.261	0.000	0.000	0	0	16.667	16.667
2	1.571	1.538	1.641	4656	2318	2.009	100.000	 V 	2	CH4	0.065	11370	13.193	1.161	1.530	0.000	0	0	16.667	16.667
3	2.000	1.952	2.282	1620723	792301	2.046	400.000	   	3	CO2	0.355	17917	8.372	1.173	7.228	5.500	0	0	66.667	66.667

[Peak Table(Ch2)]
# of Peaks	0

[Peak Table(Ch3)]
# of Peaks	3
Peak#	R.Time	I.Time	F.Time	Area	Height	A/H	Conc.	Mark	ID#	Name	k'	Plate #	Plate Ht.	Tailing	Resolution	Sep.Factor	Area Ratio	Height Ratio	Conc. %	Norm Conc.
1	2.455	0.005	2.645	32183	541	59.436	0.000	   			0.000	85	1772.002	0.541	0.000	0.000	0	0	0.000	0.000
2	2.880	2.660	3.089	22498	5250	4.285	1.000	   	1	N2O	0.173	12669	11.840	1.669	0.727	0.000	0	0	50.000	50.000
3	3.192	3.093	3.995	25521	905	28.207	1.000	   	2	SF6	0.300	260	575.945	4.568	0.698	1.733	0	0	50.000	50.000

[Compound Results(Ch1)]
# of IDs	6
ID#	Name	R.Time	Area	Height	Conc.	Curve	3rd	2nd	1st	Constant	Area Ratio	Height Ratio	Conc. %	Norm Conc.
1	CO	1.476	11073	4824	100.000	Linear	0.000000e+00	0.000000e+00	1.107341e+002	0.000000e+00	0	0	16.667	16.667
2	CH4	1.571	4656	2318	100.000	Linear	0.000000e+00	0.000000e+00	4.655707e+001	0.000000e+00	0	0	16.667	16.667
3	CO2	2.000	1620723	792301	400.000	Linear	0.000000e+00	0.000000e+00	4.051807e+003	0.000000e+00	0	0	66.667	66.667
4	Ethylene	0.000	0	0	0.000	Linear	0.000000e+00	0.000000e+00	0.000000e+00	0.000000e+00	0	0	0.000	0.000
5	Acetylene	0.000	0	0	0.000	Linear	0.000000e+00	0.000000e+00	0.000000e+00	0.000000e+00	0	0	0.000	0.000
6	Ethane	0.000	0	0	0.000	Linear	0.000000e+00	0.000000e+00	0.000000e+00	0.000000e+00	0	0	0.000	0.000

[Compound Results(Ch2)]
# of IDs	5
ID#	Name	R.Time	Area	Height	Conc.	Curve	3rd	2nd	1st	Constant	Area Ratio	Height Ratio	Conc. %	Norm Conc.
1	Hydrogen	0.000	0	0	0.000	Linear	0.000000e+00	0.000000e+00	0.000000e+00	0.000000e+00	0	0	0.000	0.000
2	Oxygen	0.000	0	0	0.000	Linear	0.000000e+00	0.000000e+00	0.000000e+00	0.000000e+00	0	0	0.000	0.000
3	Nitrogen	0.000	0	0	0.000	Linear	0.000000e+00	0.000000e+00	0.000000e+00	0.000000e+00	0	0	0.000	0.000
4	Methane	0.000	0	0	0.000	Linear	0.000000e+00	0.000000e+00	0.000000e+00	0.000000e+00	0	0	0.000	0.000
5	Carbon Monoxide	0.000	0	0	0.000	Linear	0.000000e+00	0.000000e+00	0.000000e+00	0.000000e+00	0	0	0.000	0.000

[Compound Results(Ch3)]
# of IDs	2
ID#	Name	R.Time	Area	Height	Conc.	Curve	3rd	2nd	1st	Constant	Area Ratio	Height Ratio	Conc. %	Norm Conc.
1	N2O	2.880	22498	5250	1.000	Linear	0.000000e+00	0.000000e+00	2.249818e+004	0.000000e+00	0	0	50.000	50.000
2	SF6	3.192	25521	905	1.000	Linear	0.000000e+00	0.000000e+00	2.552065e+004	0.000000e+00	0	0	50.000	50.000

[Group Results(Ch1)]
# of Groups	0

[Group Results(Ch2)]
# of Groups	0

[Group Results(Ch3)]
# of Groups	0

[Chromatogram (Ch1)]
Interval(msec)	220
# of Points	1091
Start Time(min)	0.002
End Time(min)	3.998
R.Time (min)	Intensity
0.00167	-2
0.00533	-6
0.00900	-9
0.01267	-9
0.01633	-6
0.02000	-9
0.02367	-9
0.02733	-10
0.03100	-12
0.03467	-14
0.03833	-15
0.04200	-14
0.04567	-9
0.04933	-5
0.05300	-5
0.05667	-4
0.06033	-3
0.06400	-7
0.06767	-11
0.07133	-16
0.07500	-16
0.07867	-16
0.08233	-15
0.08600	-10
0.08967	-2
0.09333	1
0.09700	-2
0.10067	-1
0.10433	1
0.10800	3
0.11167	3
0.11533	4
0.11900	4
0.12267	-1
0.12633	-3
0.13000	-4
0.13367	-5
0.13733	0
0.14100	2
0.14467	4
0.14833	0
0.15200	-3
0.15567	-10
0.15933	-17
0.16300	-21
0.16667	-26
0.17033	-25
0.17400	-16
0.17767	-4
0.18133	4
0.18500	6
0.18867	-1
0.19233	-6
0.19600	-10
0.19967	-13
0.20333	-17
0.20700	-22
0.21067	-29
0.21433	-32
0.21800	-30
0.22167	-21
0.22533	-9
0.22900	1
0.23267	12
0.23633	19
0.24000	27
0.24367	33
0.24733	30
0.25100	21
0.25467	10
0.25833	7
0.26200	10
0.26567	18
0.26933	25
0.27300	27
0.27667	28
0.28033	30
0.28400	32
0.28767	35
0.29133	31
0.29500	28
0.29867	28
0.30233	31
0.30600	32
0.30967	32
0.31333	38
0.31700	54
0.32067	67
0.32433	73
0.32800	73
0.33167	70
0.33533	68
0.33900	67
0.34267	65
0.34633	64
0.35000	61
0.35367	52
0.35733	48
0.36100	46
0.36467	52
0.36833	64
0.37200	68
0.37567	68
0.37933	68
0.38300	62
0.38667	63
0.39033	70
0.39400	79
0.39767	87
0.40133	97
0.40500	104
0.40867	106
0.41233	102
0.41600	96
0.41967	90
0.42333	92
0.42700	100
0.43067	105
0.43433	106
0.43800	103
0.44167	99
0.44533	97
0.44900	96
0.45267	95
0.45633	93
0.46000	92
0.46367	87
0.46733	87
0.47100	95
0.47467	105
0.47833	106
0.48200	97
0.48567	81
0.48933	65
0.49300	56
0.49667	53
0.50033	51
0.50400	45
0.50767	36
0.51133	28
0.51500	24
0.51867	25
0.52233	25
0.52600	30
0.52967	37
0.53333	44
0.53700	47
0.54067	44
0.54433	40
0.54800	39
0.55167	36
0.55533	32
0.55900	27
0.56267	22
0.56633	15
0.57000	15
0.57367	27
0.57733	49
0.58100	59
0.58467	55
0.58833	43
0.59200	31
0.59567	25
0.59933	23
0.60300	23
0.60667	24
0.61033	25
0.61400	25
0.61767	24
0.62133	24
0.62500	26
0.62867	29
0.63233	30
0.63600	30
0.63967	31
0.64333	35
0.64700	38
0.65067	36
0.65433	27
0.65800	21
0.66167	16
0.66533	12
0.66900	8
0.67267	4
0.67633	4
0.68000	8
0.68367	18
0.68733	22
0.69100	24
0.69467	26
0.69833	21
0.70200	16
0.70567	14
0.70933	10
0.71300	4
0.71667	1
0.72033	-7
0.72400	-21
0.72767	-20
0.73133	-8
0.73500	27
0.73867	27
0.74233	7
0.74600	-5
0.74967	-11
0.75333	-10
0.75700	-4
0.76067	-0
0.76433	0
0.76800	-0
0.77167	-1
0.77533	-3
0.77900	-4
0.78267	-5
0.78633	-8
0.79000	-11
0.79367	-14
0.79733	-16
0.80100	-14
0.80467	-13
0.80833	-15
0.81200	-13
0.81567	-11
0.81933	-15
0.82300	-23
0.82667	-28
0.83033	-28
0.83400	-25
0.83767	-26
0.84133	-24
0.84500	-24
0.84867	-25
0.85233	-27
0.85600	-27
0.85967	-26
0.86333	-27
0.86700	-27
0.87067	-31
0.87433	-31
0.87800	-22
0.88167	-14
0.88533	-12
0.88900	-8
0.89267	-7
0.89633	-2
0.90000	6
0.90367	14
0.90733	16
0.91100	11
0.91467	4
0.91833	-2
0.92200	-8
0.92567	-13
0.92933	-16
0.93300	-18
0.93667	-19
0.94033	-18
0.94400	-19
0.94767	-24
0.95133	-29
0.95500	-30
0.95867	-25
0.96233	-23
0.96600	-18
0.96967	-12
0.97333	-7
0.97700	-3
0.98067	0
0.98433	1
0.98800	-2
0.99167	-9
0.99533	-12
0.99900	-10
1.00267	0
1.00633	11
1.01000	16
1.01367	5
1.01733	-13
1.02100	-28
1.02467	-40
1.02833	-41
1.03200	-42
1.03567	-50
1.03933	-61
1.04300	-71
1.04667	-86
1.05033	-83
1.05400	-80
1.05767	-81
1.06133	-82
1.06500	-82
1.06867	-81
1.07233	-73
1.07600	-70
1.07967	-71
1.08333	-73
1.08700	-72
1.09067	-68
1.09433	-60
1.09800	-45
1.10167	-37
1.10533	-37
1.10900	-39
1.11267	-41
1.11633	-47
1.12000	-51
1.12367	-51
1.12733	-49
1.13100	-45
1.13467	-44
1.13833	-46
1.14200	-48
1.14567	-52
1.14933	-55
1.15300	-57
1.15667	-59
1.16033	-59
1.16400	-53
1.16767	-43
1.17133	-33
1.17500	-23
1.17867	-22
1.18233	-24
1.18600	-27
1.18967	-29
1.19333	-25
1.19700	-19
1.20067	-14
1.20433	-14
1.20800	-21
1.21167	-21
1.21533	-19
1.21900	-22
1.22267	-29
1.22633	-36
1.23000	-40
1.23367	-43
1.23733	-50
1.24100	-57
1.24467	-55
1.24833	-50
1.25200	-46
1.25567	-37
1.25933	-33
1.26300	-29
1.26667	-27
1.27033	-26
1.27400	-24
1.27767	-34
1.28133	-40
1.28500	-41
1.28867	-43
1.29233	-46
1.29600	-49
1.29967	-48
1.30333	-49
1.30700	-53
1.31067	-40
1.31433	-38
1.31800	-47
1.32167	-47
1.32533	-47
1.32900	-48
1.33267	-45
1.33633	-42
1.34000	-36
1.34367	-30
1.34733	-12
1.35100	-8
1.35467	-24
1.35833	-43
1.36200	-50
1.36567	-52
1.36933	-59
1.37300	-65
1.37667	-69
1.38033	-72
1.38400	-75
1.38767	-76
1.39133	-75
1.39500	-74
1.39867	-73
1.40233	-66
1.40600	-60
1.40967	-61
1.41333	-68
1.41700	-76
1.42067	-81
1.42433	-81
1.42800	-80
1.43167	-74
1.43533	-69
1.43900	-58
1.44267	15
1.44633	227
1.45000	612
1.45367	1180
1.45733	1933
1.46100	2783
1.46467	3565
1.46833	4175
1.47200	4577
1.47567	4744
1.47933	4662
1.48300	4321
1.48667	3773
1.49033	3105
1.49400	2435
1.49767	1840
1.50133	1349
1.50500	963
1.50867	678
1.51233	468
1.51600	313
1.51967	201
1.52333	128
1.52700	76
1.53067	33
1.53433	1
1.53800	-14
1.54167	8
1.54533	113
1.54900	365
1.55267	755
1.55633	1213
1.56000	1637
1.56367	1960
1.56733	2161
1.57100	2226
1.57467	2133
1.57833	1877
1.58200	1519
1.58567	1137
1.58933	787
1.59300	514
1.59667	318
1.60033	184
1.60400	92
1.60767	30
1.61133	-3
1.61500	-26
1.61867	-44
1.62233	-59
1.62600	-67
1.62967	-75
1.63333	-83
1.63700	-91
1.64067	-101
1.64433	-109
1.64800	-109
1.65167	-105
1.65533	-100
1.65900	-104
1.66267	-110
1.66633	-113
1.67000	-113
1.67367	-114
1.67733	-112
1.68100	-110
1.68467	-108
1.68833	-107
1.69200	-109
1.69567	-107
1.69933	-102
1.70300	-100
1.70667	-100
1.71033	-107
1.71400	-110
1.71767	-117
1.72133	-120
1.72500	-121
1.72867	-116
1.73233	-110
1.73600	-107
1.73967	-101
1.74333	-97
1.74700	-96
1.75067	-97
1.75433	-107
1.75800	-112
1.76167	-111
1.76533	-110
1.76900	-107
1.77267	-106
1.77633	-102
1.78000	-100
1.78367	-104
1.78733	-114
1.79100	-121
1.79467	-124
1.79833	-120
1.80200	-115
1.80567	-116
1.80933	-120
1.81300	-120
1.81667	-119
1.82033	-120
1.82400	-120
1.82767	-116
1.83133	-112
1.83500	-108
1.83867	-102
1.84233	-95
1.84600	-90
1.84967	-87
1.85333	-86
1.85700	-87
1.86067	-85
1.86433	-83
1.86800	-81
1.87167	-86
1.87533	-96
1.87900	-103
1.88267	-104
1.88633	-103
1.89000	-102
1.89367	-102
1.89733	-105
1.90100	-108
1.90467	-103
1.90833	-92
1.91200	-79
1.91567	-74
1.91933	-72
1.92300	-75
1.92667	-80
1.93033	-82
1.93400	-84
1.93767	-83
1.94133	-85
1.94500	-91
1.94867	-95
1.95233	-88
1.95600	-25
1.95967	351
1.96333	2255
1.96700	9701
1.97067	31899
1.97433	83043
1.97800	175137
1.98167	306460
1.98533	458131
1.98900	603297
1.99267	717439
1.99633	783269
2.00000	792241
2.00367	745312
2.00733	654028
2.01100	537892
2.01467	417664
2.01833	309167
2.02200	220551
2.02567	153263
2.02933	104771
2.03300	71073
2.03667	48219
2.04033	32952
2.04400	22826
2.04767	16108
2.05133	11629
2.05500	8609
2.05867	6544
2.06233	5106
2.06600	4083
2.06967	3337
2.07333	2782
2.07700	2358
2.08067	2030
2.08433	1768
2.08800	1555
2.09167	1382
2.09533	1243
2.09900	1129
2.10267	1033
2.10633	951
2.11000	875
2.11367	804
2.11733	743
2.12100	693
2.12467	647
2.12833	607
2.13200	571
2.13567	538
2.13933	507
2.14300	479
2.14667	452
2.15033	426
2.15400	400
2.15767	376
2.16133	355
2.16500	337
2.16867	322
2.17233	307
2.17600	293
2.17967	281
2.18333	270
2.18700	262
2.19067	255
2.19433	246
2.19800	235
2.20167	222
2.20533	211
2.20900	203
2.21267	197
2.21633	195
2.22000	193
2.22367	191
2.22733	187
2.23100	183
2.23467	177
2.23833	172
2.24200	168
2.24567	165
2.24933	161
2.25300	161
2.25667	158
2.26033	150
2.26400	142
2.26767	134
2.27133	126
2.27500	118
2.27867	111
2.28233	102
2.28600	99
2.28967	97
2.29333	98
2.29700	100
2.30067	104
2.30433	106
2.30800	103
2.31167	100
2.31533	98
2.31900	95
2.32267	87
2.32633	77
2.33000	69
2.33367	63
2.33733	58
2.34100	57
2.34467	55
2.34833	54
2.35200	54
2.35567	57
2.35933	65
2.36300	71
2.36667	75
2.37033	77
2.37400	77
2.37767	75
2.38133	67
2.38500	55
2.38867	45
2.39233	40
2.39600	39
2.39967	40
2.40333	43
2.40700	42
2.41067	40
2.41433	39
2.41800	40
2.42167	41
2.42533	40
2.42900	39
2.43267	34
2.43633	30
2.44000	28
2.44367	26
2.44733	31
2.45100	38
2.45467	44
2.45833	46
2.46200	46
2.46567	44
2.46933	39
2.47300	34
2.47667	33
2.48033	36
2.48400	33
2.48767	26
2.49133	19
2.49500	19
2.49867	21
2.50233	19
2.50600	18
2.50967	18
2.51333	19
2.51700	21
2.52067	22
2.52433	22
2.52800	26
2.53167	31
2.53533	34
2.53900	39
2.54267	42
2.54633	44
2.55000	41
2.55367	37
2.55733	31
2.56100	24
2.56467	17
2.56833	13
2.57200	5
2.57567	-4
2.57933	-12
2.58300	-22
2.58667	-28
2.59033	-27
2.59400	-22
2.59767	-15
2.60133	-9
2.60500	-8
2.60867	-3
2.61233	3
2.61600	12
2.61967	12
2.62333	5
2.62700	-3
2.63067	-9
2.63433	-10
2.63800	-12
2.64167	-12
2.64533	-11
2.64900	-11
2.65267	-10
2.65633	-8
2.66000	-6
2.66367	-4
2.66733	-5
2.67100	-4
2.67467	-5
2.67833	-5
2.68200	-5
2.68567	-7
2.68933	-10
2.69300	-15
2.69667	-22
2.70033	-25
2.70400	-22
2.70767	-17
2.71133	-10
2.71500	-7
2.71867	-10
2.72233	-15
2.72600	-16
2.72967	-15
2.73333	-6
2.73700	-1
2.74067	-6
2.74433	-17
2.74800	-29
2.75167	-42
2.75533	-50
2.75900	-51
2.76267	-48
2.76633	-44
2.77000	-43
2.77367	-43
2.77733	-44
2.78100	-45
2.78467	-46
2.78833	-48
2.79200	-44
2.79567	-37
2.79933	-31
2.80300	-31
2.80667	-34
2.81033	-40
2.81400	-46
2.81767	-49
2.82133	-52
2.82500	-57
2.82867	-61
2.83233	-64
2.83600	-65
2.83967	-60
2.84333	-52
2.84700	-44
2.85067	-46
2.85433	-50
2.85800	-48
2.86167	-45
2.86533	-43
2.86900	-45
2.87267	-49
2.87633	-56
2.88000	-58
2.88367	-59
2.88733	-58
2.89100	-55
2.89467	-52
2.89833	-46
2.90200	-40
2.90567	-39
2.90933	-39
2.91300	-37
2.91667	-32
2.92033	-24
2.92400	-20
2.92767	-24
2.93133	-39
2.93500	-55
2.93867	-70
2.94233	-89
2.94600	-97
2.94967	-98
2.95333	-95
2.95700	-88
2.96067	-82
2.96433	-79
2.96800	-80
2.97167	-80
2.97533	-79
2.97900	-77
2.98267	-77
2.98633	-78
2.99000	-76
2.99367	-67
2.99733	-61
3.00100	-56
3.00467	-50
3.00833	-52
3.01200	-51
3.01567	-46
3.01933	-38
3.02300	-35
3.02667	-38
3.03033	-42
3.03400	-45
3.03767	-48
3.04133	-50
3.04500	-56
3.04867	-61
3.05233	-62
3.05600	-62
3.05967	-63
3.06333	-63
3.06700	-62
3.07067	-61
3.07433	-61
3.07800	-58
3.08167	-56
3.08533	-56
3.08900	-56
3.09267	-53
3.09633	-51
3.10000	-50
3.10367	-50
3.10733	-50
3.11100	-52
3.11467	-52
3.11833	-52
3.12200	-55
3.12567	-54
3.12933	-51
3.13300	-51
3.13667	-54
3.14033	-56
3.14400	-54
3.14767	-56
3.15133	-60
3.15500	-60
3.15867	-58
3.16233	-58
3.16600	-61
3.16967	-65
3.17333	-71
3.17700	-75
3.18067	-76
3.18433	-72
3.18800	-67
3.19167	-64
3.19533	-62
3.19900	-58
3.20267	-58
3.20633	-62
3.21000	-70
3.21367	-73
3.21733	-70
3.22100	-66
3.22467	-66
3.22833	-66
3.23200	-65
3.23567	-67
3.23933	-68
3.24300	-72
3.24667	-76
3.25033	-78
3.25400	-79
3.25767	-82
3.26133	-81
3.26500	-74
3.26867	-63
3.27233	-51
3.27600	-43
3.27967	-43
3.28333	-50
3.28700	-55
3.29067	-57
3.29433	-54
3.29800	-56
3.30167	-64
3.30533	-71
3.30900	-73
3.31267	-74
3.31633	-76
3.32000	-78
3.32367	-79
3.32733	-79
3.33100	-81
3.33467	-81
3.33833	-81
3.34200	-80
3.34567	-73
3.34933	-70
3.35300	-72
3.35667	-68
3.36033	-67
3.36400	-67
3.36767	-64
3.37133	-61
3.37500	-57
3.37867	-52
3.38233	-50
3.38600	-55
3.38967	-62
3.39333	-66
3.39700	-71
3.40067	-74
3.40433	-77
3.40800	-79
3.41167	-82
3.41533	-83
3.41900	-79
3.42267	-76
3.42633	-72
3.43000	-66
3.43367	-64
3.43733	-65
3.44100	-66
3.44467	-65
3.44833	-66
3.45200	-67
3.45567	-64
3.45933	-58
3.46300	-51
3.46667	-50
3.47033	-53
3.47400	-61
3.47767	-76
3.48133	-92
3.48500	-107
3.48867	-118
3.49233	-126
3.49600	-125
3.49967	-121
3.50333	-119
3.50700	-120
3.51067	-118
3.51433	-114
3.51800	-107
3.52167	-103
3.52533	-100
3.52900	-94
3.53267	-84
3.53633	-70
3.54000	-62
3.54367	-58
3.54733	-59
3.55100	-64
3.55467	-70
3.55833	-80
3.56200	-93
3.56567	-102
3.56933	-105
3.57300	-103
3.57667	-102
3.58033	-101
3.58400	-97
3.58767	-92
3.59133	-87
3.59500	-86
3.59867	-86
3.60233	-84
3.60600	-82
3.60967	-82
3.61333	-80
3.61700	-73
3.62067	-66
3.62433	-61
3.62800	-56
3.63167	-49
3.63533	-48
3.63900	-54
3.64267	-62
3.64633	-69
3.65000	-71
3.65367	-72
3.65733	-73
3.66100	-76
3.66467	-79
3.66833	-80
3.67200	-78
3.67567	-73
3.67933	-68
3.68300	-66
3.68667	-64
3.69033	-64
3.69400	-66
3.69767	-72
3.70133	-78
3.70500	-79
3.70867	-76
3.71233	-69
3.71600	-63
3.71967	-60
3.72333	-59
3.72700	-58
3.73067	-59
3.73433	-64
3.73800	-72
3.74167	-82
3.74533	-92
3.74900	-100
3.75267	-105
3.75633	-103
3.76000	-95
3.76367	-86
3.76733	-80
3.77100	-77
3.77467	-74
3.77833	-71
3.78200	-71
3.78567	-76
3.78933	-81
3.79300	-86
3.79667	-89
3.80033	-89
3.80400	-89
3.80767	-89
3.81133	-88
3.81500	-85
3.81867	-83
3.82233	-79
3.82600	-76
3.82967	-74
3.83333	-75
3.83700	-78
3.84067	-79
3.84433	-76
3.84800	-71
3.85167	-68
3.85533	-66
3.85900	-64
3.86267	-64
3.86633	-65
3.87000	-65
3.87367	-63
3.87733	-61
3.88100	-63
3.88467	-65
3.88833	-61
3.89200	-55
3.89567	-48
3.89933	-45
3.90300	-48
3.90667	-56
3.91033	-64
3.91400	-73
3.91767	-78
3.92133	-76
3.92500	-77
3.92867	-79
3.93233	-80
3.93600	-79
3.93967	-73
3.94333	-70
3.94700	-68
3.95067	-63
3.95433	-55
3.95800	-47
3.96167	-42
3.96533	-39
3.96900	-38
3.97267	-40
3.97633	-43
3.98000	-44
3.98367	-49
3.98733	-55
3.99100	-61
3.99467	-67
3.99833	-68

[Chromatogram (Ch2)]
Interval(msec)	220
# of Points	1091
Start Time(min)	0.002
End Time(min)	3.998
R.Time (min)	Intensity
0.00167	1
0.00533	1
0.00900	1
0.01267	1
0.01633	1
0.02000	1
0.02367	1
0.02733	1
0.03100	1
0.03467	1
0.03833	1
0.04200	1
0.04567	1
0.04933	1
0.05300	1
0.05667	1
0.06033	1
0.06400	1
0.06767	1
0.07133	1
0.07500	1
0.07867	1
0.08233	1
0.08600	1
0.08967	1
0.09333	2
0.09700	2
0.10067	2
0.10433	2
0.10800	3
0.11167	3
0.11533	3
0.11900	3
0.12267	3
0.12633	3
0.13000	3
0.13367	3
0.13733	3
0.14100	3
0.14467	3
0.14833	3
0.15200	3
0.15567	3
0.15933	3
0.16300	3
0.16667	3
0.17033	3
0.17400	3
0.17767	3
0.18133	2
0.18500	2
0.18867	2
0.19233	2
0.19600	2
0.19967	1
0.20333	1
0.20700	1
0.21067	1
0.21433	1
0.21800	1
0.22167	1
0.22533	1
0.22900	1
0.23267	1
0.23633	1
0.24000	1
0.24367	0
0.24733	0
0.25100	-0
0.25467	-0
0.25833	-0
0.26200	-0
0.26567	-0
0.26933	-0
0.27300	-0
0.27667	-1
0.28033	-1
0.28400	-1
0.28767	-1
0.29133	-2
0.29500	-2
0.29867	-2
0.30233	-2
0.30600	-3
0.30967	-3
0.31333	-3
0.31700	-3
0.32067	-3
0.32433	-4
0.32800	-4
0.33167	-4
0.33533	-4
0.33900	-4
0.34267	-4
0.34633	-3
0.35000	-3
0.35367	-3
0.35733	-3
0.36100	-3
0.36467	-3
0.36833	-3
0.37200	-3
0.37567	-3
0.37933	-4
0.38300	-4
0.38667	-4
0.39033	-4
0.39400	-3
0.39767	-3
0.40133	-3
0.40500	-3
0.40867	-3
0.41233	-3
0.41600	-3
0.41967	-3
0.42333	-3
0.42700	-3
0.43067	-3
0.43433	-3
0.43800	-3
0.44167	-3
0.44533	-4
0.44900	-4
0.45267	-3
0.45633	-3
0.46000	-4
0.46367	-4
0.46733	-4
0.47100	-4
0.47467	-3
0.47833	-3
0.48200	-3
0.48567	-3
0.48933	-3
0.49300	-3
0.49667	-3
0.50033	-3
0.50400	-3
0.50767	-3
0.51133	-3
0.51500	-3
0.51867	-3
0.52233	-2
0.52600	-2
0.52967	-1
0.53333	-1
0.53700	-0
0.54067	0
0.54433	1
0.54800	1
0.55167	2
0.55533	2
0.55900	3
0.56267	3
0.56633	4
0.57000	4
0.57367	4
0.57733	4
0.58100	4
0.58467	4
0.58833	4
0.59200	3
0.59567	3
0.59933	2
0.60300	2
0.60667	1
0.61033	1
0.61400	0
0.61767	0
0.62133	-0
0.62500	-1
0.62867	-1
0.63233	-1
0.63600	-2
0.63967	-2
0.64333	-2
0.64700	-2
0.65067	-2
0.65433	-3
0.65800	-3
0.66167	-3
0.66533	-3
0.66900	-3
0.67267	-3
0.67633	-3
0.68000	-3
0.68367	-2
0.68733	-2
0.69100	-2
0.69467	-2
0.69833	-2
0.70200	-2
0.70567	-2
0.70933	-1
0.71300	-1
0.71667	-1
0.72033	-0
0.72400	0
0.72767	0
0.73133	1
0.73500	1
0.73867	1
0.74233	2
0.74600	2
0.74967	3
0.75333	4
0.75700	4
0.76067	5
0.76433	5
0.76800	6
0.77167	6
0.77533	6
0.77900	6
0.78267	5
0.78633	5
0.79000	4
0.79367	4
0.79733	4
0.80100	4
0.80467	3
0.80833	3
0.81200	3
0.81567	3
0.81933	3
0.82300	3
0.82667	3
0.83033	3
0.83400	3
0.83767	3
0.84133	3
0.84500	3
0.84867	2
0.85233	2
0.85600	2
0.85967	2
0.86333	2
0.86700	1
0.87067	1
0.87433	0
0.87800	0
0.88167	-0
0.88533	-0
0.88900	-1
0.89267	-1
0.89633	-1
0.90000	-1
0.90367	-0
0.90733	-0
0.91100	0
0.91467	0
0.91833	-0
0.92200	-0
0.92567	-0
0.92933	-1
0.93300	-1
0.93667	-1
0.94033	-1
0.94400	-1
0.94767	-1
0.95133	-2
0.95500	-2
0.95867	-2
0.96233	-2
0.96600	-1
0.96967	-1
0.97333	-1
0.97700	-1
0.98067	-1
0.98433	-1
0.98800	-0
0.99167	-0
0.99533	-0
0.99900	-0
1.00267	-1
1.00633	-1
1.01000	-1
1.01367	-2
1.01733	-2
1.02100	-2
1.02467	-2
1.02833	-2
1.03200	-2
1.03567	-2
1.03933	-2
1.04300	-2
1.04667	-1
1.05033	-1
1.05400	-1
1.05767	-0
1.06133	0
1.06500	1
1.06867	1
1.07233	1
1.07600	1
1.07967	1
1.08333	1
1.08700	1
1.09067	1
1.09433	1
1.09800	1
1.10167	1
1.10533	0
1.10900	0
1.11267	-0
1.11633	-1
1.12000	-1
1.12367	-1
1.12733	-2
1.13100	-2
1.13467	-2
1.13833	-2
1.14200	-2
1.14567	-2
1.14933	-2
1.15300	-2
1.15667	-2
1.16033	-2
1.16400	-2
1.16767	-2
1.17133	-2
1.17500	-2
1.17867	-2
1.18233	-2
1.18600	-3
1.18967	-3
1.19333	-3
1.19700	-3
1.20067	-4
1.20433	-4
1.20800	-4
1.21167	-4
1.21533	-4
1.21900	-4
1.22267	-4
1.22633	-3
1.23000	-3
1.23367	-3
1.23733	-2
1.24100	-2
1.24467	-1
1.24833	-1
1.25200	-1
1.25567	-1
1.25933	-0
1.26300	-0
1.26667	-0
1.27033	-0
1.27400	-0
1.27767	-0
1.28133	-0
1.28500	0
1.28867	0
1.29233	-0
1.29600	-0
1.29967	-0
1.30333	-1
1.30700	-1
1.31067	-1
1.31433	-1
1.31800	-1
1.32167	-1
1.32533	-1
1.32900	-1
1.33267	-2
1.33633	-2
1.34000	-2
1.34367	-2
1.34733	-3
1.35100	-3
1.35467	-3
1.35833	-4
1.36200	-4
1.36567	-4
1.36933	-5
1.37300	-5
1.37667	-5
1.38033	-5
1.38400	-5
1.38767	-4
1.39133	-4
1.39500	-4
1.39867	-4
1.40233	-3
1.40600	-3
1.40967	-3
1.41333	-3
1.41700	-3
1.42067	-3
1.42433	-3
1.42800	-3
1.43167	-3
1.43533	-3
1.43900	-3
1.44267	-3
1.44633	-3
1.45000	-3
1.45367	-3
1.45733	-2
1.46100	-2
1.46467	-1
1.46833	-1
1.47200	-0
1.47567	0
1.47933	0
1.48300	1
1.48667	1
1.49033	1
1.49400	1
1.49767	1
1.50133	2
1.50500	2
1.50867	2
1.51233	2
1.51600	1
1.51967	1
1.52333	1
1.52700	1
1.53067	1
1.53433	0
1.53800	-0
1.54167	-1
1.54533	-2
1.54900	-2
1.55267	-3
1.55633	-4
1.56000	-4
1.56367	-5
1.56733	-5
1.57100	-6
1.57467	-6
1.57833	-6
1.58200	-6
1.58567	-7
1.58933	-7
1.59300	-7
1.59667	-8
1.60033	-8
1.60400	-9
1.60767	-10
1.61133	-11
1.61500	-13
1.61867	-15
1.62233	-17
1.62600	-19
1.62967	-22
1.63333	-24
1.63700	-27
1.64067	-31
1.64433	-35
1.64800	-38
1.65167	-42
1.65533	-46
1.65900	-50
1.66267	-54
1.66633	-57
1.67000	-61
1.67367	-65
1.67733	-70
1.68100	-74
1.68467	-79
1.68833	-83
1.69200	-87
1.69567	-90
1.69933	-93
1.70300	-96
1.70667	-99
1.71033	-101
1.71400	-103
1.71767	-105
1.72133	-107
1.72500	-108
1.72867	-110
1.73233	-111
1.73600	-112
1.73967	-113
1.74333	-114
1.74700	-115
1.75067	-116
1.75433	-117
1.75800	-118
1.76167	-118
1.76533	-119
1.76900	-119
1.77267	-118
1.77633	-118
1.78000	-118
1.78367	-118
1.78733	-117
1.79100	-117
1.79467	-118
1.79833	-118
1.80200	-119
1.80567	-120
1.80933	-121
1.81300	-121
1.81667	-122
1.82033	-122
1.82400	-122
1.82767	-122
1.83133	-122
1.83500	-122
1.83867	-122
1.84233	-122
1.84600	-121
1.84967	-121
1.85333	-121
1.85700	-121
1.86067	-121
1.86433	-120
1.86800	-120
1.87167	-120
1.87533	-120
1.87900	-120
1.88267	-120
1.88633	-121
1.89000	-121
1.89367	-121
1.89733	-120
1.90100	-120
1.90467	-120
1.90833	-119
1.91200	-119
1.91567	-119
1.91933	-119
1.92300	-119
1.92667	-119
1.93033	-119
1.93400	-119
1.93767	-119
1.94133	-118
1.94500	-118
1.94867	-117
1.95233	-117
1.95600	-116
1.95967	-116
1.96333	-116
1.96700	-116
1.97067	-116
1.97433	-115
1.97800	-115
1.98167	-114
1.98533	-114
1.98900	-113
1.99267	-113
1.99633	-113
2.00000	-113
2.00367	-114
2.00733	-114
2.01100	-114
2.01467	-114
2.01833	-114
2.02200	-113
2.02567	-113
2.02933	-113
2.03300	-112
2.03667	-112
2.04033	-112
2.04400	-111
2.04767	-111
2.05133	-110
2.05500	-110
2.05867	-109
2.06233	-108
2.06600	-108
2.06967	-107
2.07333	-107
2.07700	-107
2.08067	-107
2.08433	-107
2.08800	-107
2.09167	-107
2.09533	-107
2.09900	-107
2.10267	-107
2.10633	-107
2.11000	-107
2.11367	-106
2.11733	-106
2.12100	-106
2.12467	-106
2.12833	-106
2.13200	-105
2.13567	-105
2.13933	-104
2.14300	-104
2.14667	-103
2.15033	-103
2.15400	-102
2.15767	-101
2.16133	-101
2.16500	-101
2.16867	-100
2.17233	-100
2.17600	-101
2.17967	-101
2.18333	-100
2.18700	-100
2.19067	-99
2.19433	-98
2.19800	-97
2.20167	-97
2.20533	-96
2.20900	-96
2.21267	-95
2.21633	-95
2.22000	-95
2.22367	-95
2.22733	-95
2.23100	-96
2.23467	-96
2.23833	-96
2.24200	-96
2.24567	-97
2.24933	-97
2.25300	-97
2.25667	-97
2.26033	-97
2.26400	-96
2.26767	-96
2.27133	-95
2.27500	-95
2.27867	-94
2.28233	-93
2.28600	-92
2.28967	-91
2.29333	-91
2.29700	-90
2.30067	-90
2.30433	-90
2.30800	-90
2.31167	-91
2.31533	-92
2.31900	-93
2.32267	-93
2.32633	-94
2.33000	-93
2.33367	-93
2.33733	-92
2.34100	-91
2.34467	-89
2.34833	-88
2.35200	-87
2.35567	-85
2.35933	-84
2.36300	-84
2.36667	-83
2.37033	-82
2.37400	-81
2.37767	-79
2.38133	-76
2.38500	-74
2.38867	-70
2.39233	-66
2.39600	-62
2.39967	-57
2.40333	-52
2.40700	-47
2.41067	-42
2.41433	-38
2.41800	-34
2.42167	-30
2.42533	-27
2.42900	-24
2.43267	-21
2.43633	-19
2.44000	-16
2.44367	-14
2.44733	-12
2.45100	-11
2.45467	-10
2.45833	-8
2.46200	-7
2.46567	-6
2.46933	-5
2.47300	-4
2.47667	-2
2.48033	-1
2.48400	0
2.48767	1
2.49133	2
2.49500	3
2.49867	3
2.50233	4
2.50600	5
2.50967	6
2.51333	7
2.51700	7
2.52067	7
2.52433	8
2.52800	8
2.53167	8
2.53533	9
2.53900	10
2.54267	10
2.54633	10
2.55000	11
2.55367	11
2.55733	11
2.56100	12
2.56467	12
2.56833	12
2.57200	13
2.57567	13
2.57933	13
2.58300	13
2.58667	12
2.59033	12
2.59400	11
2.59767	11
2.60133	10
2.60500	10
2.60867	10
2.61233	11
2.61600	11
2.61967	12
2.62333	13
2.62700	14
2.63067	15
2.63433	16
2.63800	17
2.64167	18
2.64533	19
2.64900	19
2.65267	19
2.65633	19
2.66000	19
2.66367	19
2.66733	19
2.67100	19
2.67467	19
2.67833	19
2.68200	19
2.68567	19
2.68933	19
2.69300	19
2.69667	20
2.70033	20
2.70400	21
2.70767	21
2.71133	21
2.71500	22
2.71867	22
2.72233	22
2.72600	23
2.72967	23
2.73333	23
2.73700	23
2.74067	22
2.74433	22
2.74800	21
2.75167	20
2.75533	20
2.75900	20
2.76267	19
2.76633	19
2.77000	19
2.77367	19
2.77733	20
2.78100	20
2.78467	20
2.78833	21
2.79200	21
2.79567	21
2.79933	22
2.80300	22
2.80667	22
2.81033	22
2.81400	22
2.81767	22
2.82133	23
2.82500	23
2.82867	24
2.83233	24
2.83600	24
2.83967	24
2.84333	24
2.84700	22
2.85067	19
2.85433	13
2.85800	5
2.86167	-6
2.86533	-21
2.86900	-40
2.87267	-63
2.87633	-90
2.88000	-120
2.88367	-155
2.88733	-193
2.89100	-234
2.89467	-277
2.89833	-323
2.90200	-371
2.90567	-420
2.90933	-470
2.91300	-520
2.91667	-570
2.92033	-620
2.92400	-670
2.92767	-719
2.93133	-767
2.93500	-816
2.93867	-868
2.94233	-926
2.94600	-988
2.94967	-1045
2.95333	-1086
2.95700	-1102
2.96067	-1092
2.96433	-1057
2.96800	-1003
2.97167	-935
2.97533	-858
2.97900	-777
2.98267	-697
2.98633	-619
2.99000	-546
2.99367	-478
2.99733	-416
3.00100	-360
3.00467	-311
3.00833	-267
3.01200	-229
3.01567	-195
3.01933	-166
3.02300	-141
3.02667	-120
3.03033	-101
3.03400	-85
3.03767	-71
3.04133	-59
3.04500	-49
3.04867	-40
3.05233	-33
3.05600	-26
3.05967	-21
3.06333	-16
3.06700	-13
3.07067	-9
3.07433	-7
3.07800	-4
3.08167	-2
3.08533	-0
3.08900	1
3.09267	3
3.09633	4
3.10000	5
3.10367	6
3.10733	7
3.11100	8
3.11467	9
3.11833	10
3.12200	11
3.12567	11
3.12933	12
3.13300	13
3.13667	13
3.14033	14
3.14400	15
3.14767	15
3.15133	16
3.15500	16
3.15867	17
3.16233	17
3.16600	18
3.16967	18
3.17333	18
3.17700	18
3.18067	19
3.18433	19
3.18800	19
3.19167	20
3.19533	20
3.19900	20
3.20267	20
3.20633	20
3.21000	20
3.21367	20
3.21733	20
3.22100	20
3.22467	20
3.22833	21
3.23200	21
3.23567	21
3.23933	21
3.24300	22
3.24667	22
3.25033	22
3.25400	23
3.25767	23
3.26133	23
3.26500	23
3.26867	23
3.27233	23
3.27600	23
3.27967	24
3.28333	24
3.28700	24
3.29067	24
3.29433	24
3.29800	24
3.30167	24
3.30533	24
3.30900	23
3.31267	23
3.31633	23
3.32000	23
3.32367	23
3.32733	23
3.33100	23
3.33467	23
3.33833	23
3.34200	23
3.34567	23
3.34933	23
3.35300	23
3.35667	23
3.36033	23
3.36400	23
3.36767	23
3.37133	23
3.37500	23
3.37867	23
3.38233	23
3.38600	23
3.38967	23
3.39333	23
3.39700	23
3.40067	23
3.40433	23
3.40800	23
3.41167	23
3.41533	23
3.41900	23
3.42267	23
3.42633	23
3.43000	23
3.43367	23
3.43733	23
3.44100	24
3.44467	24
3.44833	25
3.45200	25
3.45567	25
3.45933	25
3.46300	25
3.46667	25
3.47033	25
3.47400	25
3.47767	25
3.48133	25
3.48500	26
3.48867	26
3.49233	26
3.49600	26
3.49967	26
3.50333	26
3.50700	26
3.51067	26
3.51433	26
3.51800	26
3.52167	26
3.52533	26
3.52900	26
3.53267	26
3.53633	26
3.54000	25
3.54367	25
3.54733	25
3.55100	25
3.55467	25
3.55833	25
3.56200	24
3.56567	24
3.56933	24
3.57300	24
3.57667	24
3.58033	24
3.58400	24
3.58767	24
3.59133	24
3.59500	24
3.59867	25
3.60233	25
3.60600	25
3.60967	25
3.61333	25
3.61700	25
3.62067	25
3.62433	26
3.62800	26
3.63167	25
3.63533	26
3.63900	26
3.64267	26
3.64633	25
3.65000	25
3.65367	25
3.65733	25
3.66100	25
3.66467	25
3.66833	25
3.67200	25
3.67567	25
3.67933	26
3.68300	26
3.68667	26
3.69033	26
3.69400	26
3.69767	26
3.70133	26
3.70500	26
3.70867	26
3.71233	26
3.71600	27
3.71967	27
3.72333	27
3.72700	28
3.73067	28
3.73433	28
3.73800	28
3.74167	28
3.74533	28
3.74900	28
3.75267	28
3.75633	28
3.76000	28
3.76367	28
3.76733	28
3.77100	28
3.77467	28
3.77833	27
3.78200	27
3.78567	27
3.78933	27
3.79300	27
3.79667	27
3.80033	26
3.80400	26
3.80767	26
3.81133	26
3.81500	26
3.81867	26
3.82233	26
3.82600	26
3.82967	26
3.83333	25
3.83700	25
3.84067	25
3.84433	25
3.84800	25
3.85167	25
3.85533	25
3.85900	25
3.86267	25
3.86633	25
3.87000	25
3.87367	25
3.87733	25
3.88100	25
3.88467	26
3.88833	26
3.89200	26
3.89567	26
3.89933	26
3.90300	26
3.90667	26
3.91033	26
3.91400	26
3.91767	26
3.92133	25
3.92500	25
3.92867	25
3.93233	25
3.93600	25
3.93967	25
3.94333	24
3.94700	24
3.95067	24
3.95433	24
3.95800	24
3.96167	24
3.96533	24
3.96900	24
3.97267	24
3.97633	24
3.98000	24
3.98367	24
3.98733	24
3.99100	25
3.99467	25
3.99833	25

[Chromatogram (Ch3)]
Interval(msec)	220
# of Points	1091
Start Time(min)	0.002
End Time(min)	3.998
R.Time (min)	Intensity
0.00167	1
0.00533	2
0.00900	3
0.01267	4
0.01633	4
0.02000	5
0.02367	4
0.02733	1
0.03100	0
0.03467	1
0.03833	4
0.04200	5
0.04567	2
0.04933	1
0.05300	1
0.05667	2
0.06033	3
0.06400	5
0.06767	8
0.07133	9
0.07500	9
0.07867	10
0.08233	8
0.08600	6
0.08967	4
0.09333	4
0.09700	3
0.10067	3
0.10433	5
0.10800	5
0.11167	4
0.11533	5
0.11900	7
0.12267	6
0.12633	4
0.13000	4
0.13367	6
0.13733	8
0.14100	11
0.14467	10
0.14833	8
0.15200	7
0.15567	7
0.15933	6
0.16300	7
0.16667	8
0.17033	7
0.17400	6
0.17767	3
0.18133	3
0.18500	4
0.18867	6
0.19233	8
0.19600	8
0.19967	8
0.20333	9
0.20700	11
0.21067	12
0.21433	12
0.21800	12
0.22167	13
0.22533	11
0.22900	10
0.23267	7
0.23633	7
0.24000	7
0.24367	8
0.24733	9
0.25100	10
0.25467	10
0.25833	10
0.26200	10
0.26567	11
0.26933	12
0.27300	14
0.27667	13
0.28033	10
0.28400	10
0.28767	11
0.29133	13
0.29500	13
0.29867	13
0.30233	14
0.30600	14
0.30967	12
0.31333	13
0.31700	14
0.32067	13
0.32433	11
0.32800	9
0.33167	10
0.33533	12
0.33900	11
0.34267	12
0.34633	11
0.35000	14
0.35367	14
0.35733	13
0.36100	14
0.36467	17
0.36833	18
0.37200	19
0.37567	18
0.37933	19
0.38300	19
0.38667	18
0.39033	19
0.39400	19
0.39767	19
0.40133	19
0.40500	20
0.40867	20
0.41233	17
0.41600	16
0.41967	17
0.42333	19
0.42700	18
0.43067	17
0.43433	16
0.43800	16
0.44167	15
0.44533	14
0.44900	14
0.45267	15
0.45633	15
0.46000	14
0.46367	16
0.46733	17
0.47100	18
0.47467	21
0.47833	22
0.48200	21
0.48567	18
0.48933	17
0.49300	17
0.49667	17
0.50033	18
0.50400	19
0.50767	19
0.51133	20
0.51500	21
0.51867	21
0.52233	19
0.52600	20
0.52967	20
0.53333	20
0.53700	18
0.54067	17
0.54433	17
0.54800	20
0.55167	23
0.55533	24
0.55900	24
0.56267	25
0.56633	26
0.57000	26
0.57367	25
0.57733	24
0.58100	21
0.58467	19
0.58833	20
0.59200	21
0.59567	22
0.59933	24
0.60300	25
0.60667	24
0.61033	23
0.61400	23
0.61767	24
0.62133	22
0.62500	21
0.62867	21
0.63233	20
0.63600	19
0.63967	20
0.64333	21
0.64700	22
0.65067	24
0.65433	26
0.65800	28
0.66167	29
0.66533	29
0.66900	28
0.67267	27
0.67633	26
0.68000	27
0.68367	28
0.68733	29
0.69100	29
0.69467	30
0.69833	29
0.70200	29
0.70567	28
0.70933	26
0.71300	27
0.71667	27
0.72033	26
0.72400	25
0.72767	26
0.73133	28
0.73500	29
0.73867	29
0.74233	32
0.74600	32
0.74967	30
0.75333	31
0.75700	32
0.76067	32
0.76433	31
0.76800	32
0.77167	33
0.77533	33
0.77900	33
0.78267	33
0.78633	32
0.79000	30
0.79367	29
0.79733	28
0.80100	28
0.80467	31
0.80833	32
0.81200	32
0.81567	31
0.81933	33
0.82300	34
0.82667	34
0.83033	34
0.83400	35
0.83767	36
0.84133	35
0.84500	34
0.84867	33
0.85233	32
0.85600	33
0.85967	35
0.86333	35
0.86700	33
0.87067	33
0.87433	36
0.87800	38
0.88167	39
0.88533	40
0.88900	40
0.89267	40
0.89633	37
0.90000	35
0.90367	34
0.90733	35
0.91100	37
0.91467	39
0.91833	41
0.92200	41
0.92567	41
0.92933	41
0.93300	43
0.93667	44
0.94033	43
0.94400	44
0.94767	46
0.95133	44
0.95500	41
0.95867	42
0.96233	43
0.96600	42
0.96967	42
0.97333	43
0.97700	42
0.98067	44
0.98433	46
0.98800	46
0.99167	45
0.99533	46
0.99900	46
1.00267	45
1.00633	44
1.01000	42
1.01367	39
1.01733	37
1.02100	36
1.02467	38
1.02833	41
1.03200	44
1.03567	45
1.03933	46
1.04300	46
1.04667	46
1.05033	44
1.05400	43
1.05767	43
1.06133	45
1.06500	48
1.06867	48
1.07233	50
1.07600	51
1.07967	50
1.08333	51
1.08700	50
1.09067	49
1.09433	49
1.09800	48
1.10167	50
1.10533	51
1.10900	52
1.11267	54
1.11633	54
1.12000	51
1.12367	48
1.12733	48
1.13100	51
1.13467	50
1.13833	49
1.14200	50
1.14567	51
1.14933	53
1.15300	53
1.15667	51
1.16033	49
1.16400	50
1.16767	51
1.17133	50
1.17500	51
1.17867	53
1.18233	53
1.18600	52
1.18967	52
1.19333	51
1.19700	51
1.20067	54
1.20433	55
1.20800	54
1.21167	53
1.21533	52
1.21900	52
1.22267	52
1.22633	53
1.23000	53
1.23367	53
1.23733	53
1.24100	55
1.24467	57
1.24833	58
1.25200	57
1.25567	56
1.25933	54
1.26300	54
1.26667	55
1.27033	56
1.27400	56
1.27767	56
1.28133	56
1.28500	52
1.28867	53
1.29233	56
1.29600	58
1.29967	59
1.30333	61
1.30700	60
1.31067	60
1.31433	62
1.31800	62
1.32167	61
1.32533	60
1.32900	60
1.33267	59
1.33633	56
1.34000	55
1.34367	55
1.34733	57
1.35100	58
1.35467	58
1.35833	58
1.36200	59
1.36567	58
1.36933	57
1.37300	59
1.37667	61
1.38033	63
1.38400	63
1.38767	64
1.39133	64
1.39500	63
1.39867	65
1.40233	65
1.40600	64
1.40967	64
1.41333	63
1.41700	64
1.42067	66
1.42433	66
1.42800	65
1.43167	64
1.43533	64
1.43900	64
1.44267	63
1.44633	62
1.45000	63
1.45367	63
1.45733	64
1.46100	66
1.46467	66
1.46833	66
1.47200	67
1.47567	69
1.47933	70
1.48300	70
1.48667	70
1.49033	70
1.49400	70
1.49767	70
1.50133	69
1.50500	69
1.50867	69
1.51233	68
1.51600	68
1.51967	67
1.52333	67
1.52700	69
1.53067	70
1.53433	70
1.53800	70
1.54167	72
1.54533	74
1.54900	74
1.55267	73
1.55633	74
1.56000	74
1.56367	73
1.56733	74
1.57100	74
1.57467	75
1.57833	75
1.58200	73
1.58567	74
1.58933	74
1.59300	76
1.59667	77
1.60033	80
1.60400	81
1.60767	79
1.61133	79
1.61500	80
1.61867	80
1.62233	80
1.62600	79
1.62967	80
1.63333	81
1.63700	81
1.64067	84
1.64433	84
1.64800	83
1.65167	83
1.65533	83
1.65900	84
1.66267	85
1.66633	86
1.67000	88
1.67367	90
1.67733	91
1.68100	92
1.68467	94
1.68833	96
1.69200	96
1.69567	97
1.69933	97
1.70300	94
1.70667	93
1.71033	95
1.71400	98
1.71767	101
1.72133	104
1.72500	106
1.72867	107
1.73233	106
1.73600	106
1.73967	107
1.74333	107
1.74700	109
1.75067	110
1.75433	112
1.75800	111
1.76167	109
1.76533	110
1.76900	109
1.77267	110
1.77633	113
1.78000	114
1.78367	115
1.78733	115
1.79100	117
1.79467	116
1.79833	116
1.80200	119
1.80567	122
1.80933	123
1.81300	122
1.81667	122
1.82033	123
1.82400	124
1.82767	126
1.83133	128
1.83500	130
1.83867	129
1.84233	128
1.84600	128
1.84967	128
1.85333	128
1.85700	128
1.86067	128
1.86433	127
1.86800	127
1.87167	128
1.87533	129
1.87900	130
1.88267	130
1.88633	127
1.89000	124
1.89367	127
1.89733	130
1.90100	131
1.90467	132
1.90833	135
1.91200	137
1.91567	135
1.91933	132
1.92300	132
1.92667	132
1.93033	133
1.93400	134
1.93767	135
1.94133	136
1.94500	136
1.94867	135
1.95233	136
1.95600	138
1.95967	140
1.96333	142
1.96700	145
1.97067	146
1.97433	148
1.97800	147
1.98167	147
1.98533	148
1.98900	151
1.99267	153
1.99633	157
2.00000	161
2.00367	164
2.00733	164
2.01100	164
2.01467	165
2.01833	166
2.02200	167
2.02567	169
2.02933	168
2.03300	167
2.03667	168
2.04033	168
2.04400	169
2.04767	172
2.05133	174
2.05500	175
2.05867	177
2.06233	179
2.06600	183
2.06967	185
2.07333	185
2.07700	185
2.08067	185
2.08433	187
2.08800	189
2.09167	191
2.09533	194
2.09900	194
2.10267	194
2.10633	196
2.11000	195
2.11367	196
2.11733	198
2.12100	200
2.12467	201
2.12833	203
2.13200	204
2.13567	205
2.13933	207
2.14300	209
2.14667	210
2.15033	213
2.15400	215
2.15767	215
2.16133	216
2.16500	219
2.16867	221
2.17233	223
2.17600	224
2.17967	225
2.18333	224
2.18700	226
2.19067	227
2.19433	228
2.19800	228
2.20167	229
2.20533	229
2.20900	230
2.21267	230
2.21633	232
2.22000	234
2.22367	235
2.22733	235
2.23100	237
2.23467	239
2.23833	241
2.24200	242
2.24567	242
2.24933	242
2.25300	244
2.25667	246
2.26033	248
2.26400	247
2.26767	248
2.27133	249
2.27500	250
2.27867	253
2.28233	255
2.28600	256
2.28967	257
2.29333	258
2.29700	259
2.30067	261
2.30433	261
2.30800	261
2.31167	262
2.31533	265
2.31900	267
2.32267	267
2.32633	270
2.33000	272
2.33367	275
2.33733	276
2.34100	275
2.34467	276
2.34833	278
2.35200	280
2.35567	282
2.35933	281
2.36300	279
2.36667	280
2.37033	281
2.37400	280
2.37767	281
2.38133	282
2.38500	283
2.38867	282
2.39233	282
2.39600	282
2.39967	283
2.40333	283
2.40700	284
2.41067	286
2.41433	289
2.41800	290
2.42167	292
2.42533	297
2.42900	299
2.43267	300
2.43633	300
2.44000	300
2.44367	304
2.44733	316
2.45100	326
2.45467	327
2.45833	320
2.46200	310
2.46567	302
2.46933	294
2.47300	288
2.47667	283
2.48033	275
2.48400	266
2.48767	259
2.49133	254
2.49500	250
2.49867	243
2.50233	236
2.50600	229
2.50967	222
2.51333	212
2.51700	203
2.52067	194
2.52433	187
2.52800	183
2.53167	178
2.53533	174
2.53900	171
2.54267	170
2.54633	166
2.55000	160
2.55367	154
2.55733	148
2.56100	145
2.56467	142
2.56833	138
2.57200	133
2.57567	130
2.57933	127
2.58300	123
2.58667	120
2.59033	118
2.59400	115
2.59767	110
2.60133	99
2.60500	81
2.60867	58
2.61233	28
2.61600	-8
2.61967	-48
2.62333	-88
2.62700	-125
2.63067	-159
2.63433	-186
2.63800	-207
2.64167	-222
2.64533	-232
2.64900	-235
2.65267	-236
2.65633	-234
2.66000	-231
2.66367	-225
2.66733	-219
2.67100	-213
2.67467	-206
2.67833	-196
2.68200	-185
2.68567	-176
2.68933	-168
2.69300	-161
2.69667	-154
2.70033	-147
2.70400	-137
2.70767	-127
2.71133	-118
2.71500	-112
2.71867	-106
2.72233	-102
2.72600	-96
2.72967	-90
2.73333	-83
2.73700	-77
2.74067	-72
2.74433	-67
2.74800	-62
2.75167	-57
2.75533	-53
2.75900	-50
2.76267	-47
2.76633	-45
2.77000	-43
2.77367	-40
2.77733	-38
2.78100	-35
2.78467	-32
2.78833	-27
2.79200	-22
2.79567	-18
2.79933	-16
2.80300	-15
2.80667	-13
2.81033	-10
2.81400	-8
2.81767	-6
2.82133	-4
2.82500	3
2.82867	24
2.83233	73
2.83600	166
2.83967	323
2.84333	569
2.84700	920
2.85067	1380
2.85433	1932
2.85800	2544
2.86167	3177
2.86533	3780
2.86900	4303
2.87267	4705
2.87633	4964
2.88000	5072
2.88367	5038
2.88733	4883
2.89100	4634
2.89467	4317
2.89833	3960
2.90200	3589
2.90567	3223
2.90933	2871
2.91300	2540
2.91667	2234
2.92033	1956
2.92400	1706
2.92767	1484
2.93133	1286
2.93500	1111
2.93867	959
2.94233	829
2.94600	714
2.94967	613
2.95333	526
2.95700	452
2.96067	388
2.96433	332
2.96800	285
2.97167	243
2.97533	208
2.97900	180
2.98267	156
2.98633	135
2.99000	117
2.99367	101
2.99733	87
3.00100	75
3.00467	63
3.00833	52
3.01200	43
3.01567	34
3.01933	27
3.02300	22
3.02667	18
3.03033	16
3.03400	11
3.03767	7
3.04133	6
3.04500	4
3.04867	2
3.05233	1
3.05600	-2
3.05967	-5
3.06333	-7
3.06700	-10
3.07067	-12
3.07433	-14
3.07800	-15
3.08167	-26
3.08533	-78
3.08900	-128
3.09267	-134
3.09633	-100
3.10000	-39
3.10367	35
3.10733	110
3.11100	178
3.11467	240
3.11833	296
3.12200	351
3.12567	405
3.12933	457
3.13300	508
3.13667	557
3.14033	600
3.14400	640
3.14767	676
3.15133	707
3.15500	730
3.15867	750
3.16233	769
3.16600	784
3.16967	794
3.17333	801
3.17700	806
3.18067	813
3.18433	816
3.18800	817
3.19167	821
3.19533	823
3.19900	825
3.20267	823
3.20633	820
3.21000	818
3.21367	818
3.21733	820
3.22100	821
3.22467	818
3.22833	815
3.23200	813
3.23567	812
3.23933	811
3.24300	809
3.24667	806
3.25033	805
3.25400	803
3.25767	800
3.26133	797
3.26500	795
3.26867	794
3.27233	790
3.27600	788
3.27967	788
3.28333	787
3.28700	786
3.29067	786
3.29433	785
3.29800	781
3.30167	779
3.30533	778
3.30900	776
3.31267	773
3.31633	769
3.32000	764
3.32367	761
3.32733	757
3.33100	752
3.33467	749
3.33833	748
3.34200	747
3.34567	745
3.34933	743
3.35300	739
3.35667	735
3.36033	731
3.36400	728
3.36767	725
3.37133	722
3.37500	721
3.37867	721
3.38233	718
3.38600	716
3.38967	716
3.39333	714
3.39700	712
3.40067	708
3.40433	707
3.40800	706
3.41167	704
3.41533	701
3.41900	699
3.42267	694
3.42633	691
3.43000	687
3.43367	683
3.43733	680
3.44100	677
3.44467	672
3.44833	665
3.45200	661
3.45567	659
3.45933	657
3.46300	652
3.46667	647
3.47033	643
3.47400	640
3.47767	636
3.48133	634
3.48500	634
3.48867	632
3.49233	631
3.49600	632
3.49967	629
3.50333	624
3.50700	618
3.51067	613
3.51433	611
3.51800	610
3.52167	609
3.52533	604
3.52900	602
3.53267	602
3.53633	599
3.54000	595
3.54367	591
3.54733	588
3.55100	584
3.55467	580
3.55833	578
3.56200	577
3.56567	575
3.56933	572
3.57300	569
3.57667	566
3.58033	565
3.58400	563
3.58767	560
3.59133	557
3.59500	555
3.59867	551
3.60233	548
3.60600	548
3.60967	549
3.61333	548
3.61700	547
3.62067	545
3.62433	541
3.62800	537
3.63167	534
3.63533	530
3.63900	529
3.64267	528
3.64633	528
3.65000	529
3.65367	528
3.65733	525
3.66100	521
3.66467	518
3.66833	517
3.67200	515
3.67567	513
3.67933	511
3.68300	507
3.68667	504
3.69033	502
3.69400	500
3.69767	499
3.70133	499
3.70500	499
3.70867	499
3.71233	495
3.71600	493
3.71967	492
3.72333	489
3.72700	485
3.73067	482
3.73433	479
3.73800	477
3.74167	476
3.74533	474
3.74900	472
3.75267	468
3.75633	464
3.76000	465
3.76367	465
3.76733	465
3.77100	462
3.77467	460
3.77833	458
3.78200	457
3.78567	454
3.78933	453
3.79300	452
3.79667	449
3.80033	445
3.80400	443
3.80767	441
3.81133	440
3.81500	441
3.81867	439
3.82233	436
3.82600	432
3.82967	427
3.83333	424
3.83700	423
3.84067	422
3.84433	420
3.84800	419
3.85167	416
3.85533	413
3.85900	412
3.86267	410
3.86633	408
3.87000	406
3.87367	407
3.87733	407
3.88100	404
3.88467	401
3.88833	399
3.89200	396
3.89567	393
3.89933	391
3.90300	388
3.90667	387
3.91033	387
3.91400	385
3.91767	381
3.92133	379
3.92500	376
3.92867	374
3.93233	372
3.93600	372
3.93967	369
3.94333	367
3.94700	363
3.95067	362
3.95433	362
3.95800	361
3.96167	357
3.96533	354
3.96900	350
3.97267	347
3.97633	344
3.98000	342
3.98367	342
3.98733	340
3.99100	336
3.99467	330
3.99833	330

[Status Trace (Column Oven Temperature)]
Interval(msec)	1000
# of Points	240
Start Time(min)	0.008
End Time(min)	3.991
Intensity Units	
Intensity Multiplier	1
R.Time (min)	Intensity
0.00807	35.08
0.02473	35.06
0.04140	35.05
0.05807	35.05
0.07473	35.05
0.09140	35.04
0.10807	35.03
0.12473	35.03
0.14140	35.02
0.15807	35.01
0.17473	35.01
0.19140	35.00
0.20807	35.00
0.22473	35.00
0.24140	35.00
0.25807	34.99
0.27473	35.00
0.29140	35.01
0.30807	35.01
0.32473	35.02
0.34140	35.03
0.35807	35.03
0.37473	35.03
0.39140	35.04
0.40807	35.05
0.42473	35.06
0.44140	35.07
0.45807	35.07
0.47473	35.07
0.49140	35.06
0.50807	35.07
0.52473	35.05
0.54140	35.04
0.55807	35.01
0.57473	35.02
0.59140	35.01
0.60807	35.02
0.62473	35.03
0.64140	35.04
0.65807	35.06
0.67473	35.07
0.69140	35.08
0.70807	35.07
0.72473	35.06
0.74140	35.04
0.75807	35.02
0.77473	35.00
0.79140	34.99
0.80807	34.98
0.82473	34.96
0.84140	34.97
0.85807	34.97
0.87473	34.97
0.89140	34.98
0.90807	34.97
0.92473	34.97
0.94140	34.99
0.95807	34.98
0.97473	34.98
0.99140	34.99
1.00807	35.00
1.02473	35.00
1.04140	35.00
1.05807	34.97
1.07473	34.96
1.09140	34.96
1.10807	34.97
1.12473	34.97
1.14140	34.97
1.15807	34.98
1.17473	34.99
1.19140	34.99
1.20807	34.99
1.22473	35.00
1.24140	35.00
1.25807	34.99
1.27473	34.98
1.29140	34.98
1.30807	34.97
1.32473	34.97
1.34140	34.99
1.35807	35.00
1.37473	35.01
1.39140	35.01
1.40807	35.01
1.42473	35.01
1.44140	35.01
1.45807	35.00
1.47473	34.98
1.49140	34.97
1.50807	34.96
1.52473	34.95
1.54140	34.97
1.55807	34.99
1.57473	35.02
1.59140	35.04
1.60807	35.10
1.62473	35.21
1.64140	35.39
1.65807	35.63
1.67473	35.95
1.69140	36.31
1.70807	36.66
1.72473	37.00
1.74140	37.34
1.75807	37.68
1.77473	38.00
1.79140	38.33
1.80807	38.67
1.82473	39.00
1.84140	39.33
1.85807	39.66
1.87473	39.99
1.89140	40.31
1.90807	40.64
1.92473	40.98
1.94140	41.29
1.95807	41.63
1.97473	41.94
1.99140	42.27
2.00807	42.60
2.02473	42.92
2.04140	43.24
2.05807	43.55
2.07473	43.88
2.09140	44.21
2.10807	44.54
2.12473	44.88
2.14140	45.20
2.15807	45.51
2.17473	45.85
2.19140	46.16
2.20807	46.50
2.22473	46.82
2.24140	47.17
2.25807	47.49
2.27473	47.84
2.29140	48.14
2.30807	48.50
2.32473	48.86
2.34140	49.15
2.35807	49.43
2.37473	49.63
2.39140	49.69
2.40807	49.69
2.42473	49.68
2.44140	49.69
2.45807	49.72
2.47473	49.71
2.49140	49.74
2.50807	49.74
2.52473	49.77
2.54140	49.78
2.55807	49.78
2.57473	49.79
2.59140	49.84
2.60807	49.86
2.62473	49.84
2.64140	49.84
2.65807	49.85
2.67473	49.86
2.69140	49.86
2.70807	49.85
2.72473	49.84
2.74140	49.86
2.75807	49.89
2.77473	49.90
2.79140	49.91
2.80807	49.91
2.82473	49.91
2.84140	49.90
2.85807	49.91
2.87473	49.93
2.89140	49.95
2.90807	49.96
2.92473	49.97
2.94140	49.98
2.95807	49.99
2.97473	50.01
2.99140	50.03
3.00807	50.05
3.02473	50.07
3.04140	50.07
3.05807	50.09
3.07473	50.09
3.09140	50.10
3.10807	50.11
3.12473	50.10
3.14140	50.09
3.15807	50.09
3.17473	50.09
3.19140	50.08
3.20807	50.08
3.22473	50.09
3.24140	50.08
3.25807	50.07
3.27473	50.06
3.29140	50.05
3.30807	50.04
3.32473	50.05
3.34140	50.06
3.35807	50.06
3.37473	50.07
3.39140	50.07
3.40807	50.08
3.42473	50.08
3.44140	50.08
3.45807	50.08
3.47473	50.08
3.49140	50.08
3.50807	50.08
3.52473	50.07
3.54140	50.07
3.55807	50.09
3.57473	50.08
3.59140	50.09
3.60807	50.08
3.62473	50.09
3.64140	50.10
3.65807	50.10
3.67473	50.09
3.69140	50.09
3.70807	50.07
3.72473	50.06
3.74140	50.06
3.75807	50.06
3.77473	50.05
3.79140	50.05
3.80807	50.05
3.82473	50.05
3.84140	50.06
3.85807	50.06
3.87473	50.05
3.89140	50.05
3.90807	50.05
3.92473	50.06
3.94140	50.07
3.95807	50.08
3.97473	50.07
3.99140	50.07

[Status Trace (Injection Unit Temperature)]
Interval(msec)	1000
# of Points	240
Start Time(min)	0.008
End Time(min)	3.991
Intensity Units	
Intensity Multiplier	1
R.Time (min)	Intensity
0.00807	99.97
0.02473	99.98
0.04140	99.98
0.05807	99.98
0.07473	99.98
0.09140	99.98
0.10807	99.98
0.12473	99.97
0.14140	99.98
0.15807	99.98
0.17473	99.98
0.19140	99.98
0.20807	99.98
0.22473	99.98
0.24140	99.98
0.25807	99.97
0.27473	99.98
0.29140	99.98
0.30807	99.97
0.32473	99.98
0.34140	99.98
0.35807	99.98
0.37473	99.98
0.39140	99.98
0.40807	99.98
0.42473	99.98
0.44140	99.98
0.45807	99.98
0.47473	99.99
0.49140	99.98
0.50807	99.98
0.52473	99.98
0.54140	99.98
0.55807	99.98
0.57473	99.98
0.59140	99.98
0.60807	99.98
0.62473	99.98
0.64140	99.98
0.65807	99.98
0.67473	99.98
0.69140	99.98
0.70807	99.98
0.72473	99.98
0.74140	99.98
0.75807	99.99
0.77473	99.99
0.79140	99.99
0.80807	99.99
0.82473	99.98
0.84140	99.99
0.85807	99.99
0.87473	99.98
0.89140	99.99
0.90807	99.99
0.92473	99.99
0.94140	99.98
0.95807	99.98
0.97473	99.99
0.99140	99.99
1.00807	99.99
1.02473	99.99
1.04140	99.99
1.05807	99.99
1.07473	99.98
1.09140	99.99
1.10807	99.99
1.12473	99.99
1.14140	99.99
1.15807	99.98
1.17473	99.99
1.19140	99.99
1.20807	99.99
1.22473	99.98
1.24140	99.98
1.25807	99.99
1.27473	99.98
1.29140	99.98
1.30807	99.98
1.32473	99.98
1.34140	99.98
1.35807	99.98
1.37473	99.98
1.39140	99.98
1.40807	99.98
1.42473	99.98
1.44140	99.98
1.45807	99.98
1.47473	99.98
1.49140	99.98
1.50807	99.98
1.52473	99.98
1.54140	99.98
1.55807	99.98
1.57473	99.98
1.59140	99.98
1.60807	99.98
1.62473	99.98
1.64140	99.98
1.65807	99.98
1.67473	99.98
1.69140	99.98
1.70807	99.98
1.72473	99.98
1.74140	99.98
1.75807	99.98
1.77473	99.98
1.79140	99.98
1.80807	99.98
1.82473	99.98
1.84140	99.98
1.85807	99.98
1.87473	99.98
1.89140	99.98
1.90807	99.98
1.92473	99.98
1.94140	99.98
1.95807	99.97
1.97473	99.97
1.99140	99.97
2.00807	99.98
2.02473	99.97
2.04140	99.97
2.05807	99.97
2.07473	99.98
2.09140	99.97
2.10807	99.97
2.12473	99.97
2.14140	99.97
2.15807	99.97
2.17473	99.97
2.19140	99.97
2.20807	99.97
2.22473	99.97
2.24140	99.97
2.25807	99.97
2.27473	99.97
2.29140	99.97
2.30807	99.97
2.32473	99.97
2.34140	99.97
2.35807	99.97
2.37473	99.97
2.39140	99.97
2.40807	99.97
2.42473	99.97
2.44140	99.97
2.45807	99.97
2.47473	99.97
2.49140	99.98
2.50807	99.97
2.52473	99.97
2.54140	99.97
2.55807	99.97
2.57473	99.98
2.59140	99.97
2.60807	99.98
2.62473	99.97
2.64140	99.98
2.65807	99.98
2.67473	99.98
2.69140	99.98
2.70807	99.98
2.72473	99.98
2.74140	99.99
2.75807	99.98
2.77473	99.99
2.79140	99.99
2.80807	99.99
2.82473	99.99
2.84140	99.99
2.85807	99.99
2.87473	99.99
2.89140	99.99
2.90807	99.99
2.92473	100.00
2.94140	100.00
2.95807	99.99
2.97473	100.00
2.99140	100.00
3.00807	100.01
3.02473	100.01
3.04140	100.00
3.05807	100.01
3.07473	100.00
3.09140	100.00
3.10807	100.00
3.12473	100.01
3.14140	100.00
3.15807	100.01
3.17473	100.01
3.19140	100.01
3.20807	100.01
3.22473	100.02
3.24140	100.02
3.25807	100.02
3.27473	100.02
3.29140	100.02
3.30807	100.02
3.32473	100.02
3.34140	100.02
3.35807	100.02
3.37473	100.03
3.39140	100.02
3.40807	100.02
3.42473	100.03
3.44140	100.03
3.45807	100.03
3.47473	100.03
3.49140	100.03
3.50807	100.03
3.52473	100.03
3.54140	100.03
3.55807	100.03
3.57473	100.03
3.59140	100.03
3.60807	100.04
3.62473	100.04
3.64140	100.03
3.65807	100.03
3.67473	100.03
3.69140	100.04
3.70807	100.04
3.72473	100.04
3.74140	100.04
3.75807	100.04
3.77473	100.04
3.79140	100.04
3.80807	100.04
3.82473	100.04
3.84140	100.04
3.85807	100.05
3.87473	100.04
3.89140	100.04
3.90807	100.05
3.92473	100.04
3.94140	100.05
3.95807	100.05
3.97473	100.05
3.99140	100.05

[Status Trace (Carrier Gas Pressure)]
Interval(msec)	1000
# of Points	240
Start Time(min)	0.008
End Time(min)	3.991
Intensity Units	
Intensity Multiplier	1
R.Time (min)	Intensity
0.00807	58.00
0.02473	55.38
0.04140	57.09
0.05807	59.13
0.07473	59.54
0.09140	58.08
0.10807	57.98
0.12473	58.01
0.14140	58.01
0.15807	58.01
0.17473	58.00
0.19140	58.00
0.20807	58.00
0.22473	58.00
0.24140	58.00
0.25807	58.00
0.27473	58.00
0.29140	58.00
0.30807	58.00
0.32473	58.00
0.34140	58.00
0.35807	58.00
0.37473	58.00
0.39140	58.00
0.40807	58.00
0.42473	58.00
0.44140	58.00
0.45807	58.00
0.47473	58.00
0.49140	58.00
0.50807	58.00
0.52473	58.00
0.54140	58.00
0.55807	58.00
0.57473	58.00
0.59140	58.00
0.60807	58.00
0.62473	58.00
0.64140	58.00
0.65807	58.00
0.67473	58.00
0.69140	58.00
0.70807	58.00
0.72473	58.00
0.74140	58.00
0.75807	58.00
0.77473	58.00
0.79140	58.00
0.80807	58.00
0.82473	58.00
0.84140	58.00
0.85807	58.00
0.87473	58.00
0.89140	58.00
0.90807	58.00
0.92473	58.00
0.94140	58.00
0.95807	58.00
0.97473	58.00
0.99140	58.00
1.00807	58.00
1.02473	58.00
1.04140	58.00
1.05807	58.00
1.07473	58.00
1.09140	58.00
1.10807	58.00
1.12473	58.00
1.14140	58.00
1.15807	58.00
1.17473	58.00
1.19140	58.00
1.20807	58.00
1.22473	58.00
1.24140	58.00
1.25807	58.00
1.27473	58.00
1.29140	58.00
1.30807	58.00
1.32473	58.00
1.34140	58.00
1.35807	58.00
1.37473	58.00
1.39140	58.00
1.40807	58.00
1.42473	58.00
1.44140	58.00
1.45807	58.00
1.47473	58.00
1.49140	58.00
1.50807	58.00
1.52473	58.00
1.54140	58.00
1.55807	58.00
1.57473	58.00
1.59140	58.00
1.60807	58.00
1.62473	58.00
1.64140	58.00
1.65807	58.00
1.67473	58.00
1.69140	58.00
1.70807	58.00
1.72473	58.00
1.74140	58.00
1.75807	58.00
1.77473	58.00
1.79140	58.00
1.80807	58.00
1.82473	58.00
1.84140	58.00
1.85807	58.00
1.87473	58.00
1.89140	58.00
1.90807	58.00
1.92473	58.00
1.94140	58.00
1.95807	58.00
1.97473	58.00
1.99140	58.00
2.00807	58.00
2.02473	58.00
2.04140	58.00
2.05807	58.00
2.07473	58.00
2.09140	58.00
2.10807	58.00
2.12473	58.00
2.14140	58.00
2.15807	58.00
2.17473	58.00
2.19140	58.00
2.20807	58.00
2.22473	58.00
2.24140	58.00
2.25807	58.00
2.27473	58.00
2.29140	58.00
2.30807	58.00
2.32473	58.00
2.34140	58.00
2.35807	58.00
2.37473	58.00
2.39140	57.99
2.40807	57.99
2.42473	58.00
2.44140	58.00
2.45807	58.00
2.47473	58.00
2.49140	58.00
2.50807	58.00
2.52473	57.98
2.54140	58.00
2.55807	58.00
2.57473	58.00
2.59140	58.00
2.60807	58.00
2.62473	58.00
2.64140	58.00
2.65807	58.00
2.67473	58.00
2.69140	58.00
2.70807	58.00
2.72473	58.00
2.74140	58.00
2.75807	58.00
2.77473	58.00
2.79140	58.00
2.80807	58.00
2.82473	58.00
2.84140	58.00
2.85807	58.00
2.87473	58.00
2.89140	58.00
2.90807	58.00
2.92473	58.00
2.94140	58.00
2.95807	58.00
2.97473	58.00
2.99140	58.00
3.00807	58.00
3.02473	58.00
3.04140	58.00
3.05807	58.00
3.07473	58.00
3.09140	58.00
3.10807	58.00
3.12473	58.00
3.14140	58.00
3.15807	58.00
3.17473	58.00
3.19140	58.00
3.20807	58.00
3.22473	58.00
3.24140	58.00
3.25807	58.00
3.27473	58.00
3.29140	58.00
3.30807	58.00
3.32473	58.00
3.34140	58.00
3.35807	58.00
3.37473	58.00
3.39140	58.00
3.40807	58.00
3.42473	58.00
3.44140	58.00
3.45807	58.00
3.47473	58.00
3.49140	58.00
3.50807	58.00
3.52473	58.00
3.54140	58.00
3.55807	58.00
3.57473	58.00
3.59140	58.00
3.60807	58.00
3.62473	58.00
3.64140	58.00
3.65807	58.00
3.67473	58.00
3.69140	58.00
3.70807	58.00
3.72473	58.00
3.74140	58.00
3.75807	58.00
3.77473	58.00
3.79140	58.00
3.80807	58.00
3.82473	58.00
3.84140	58.00
3.85807	58.00
3.87473	58.00
3.89140	58.00
3.90807	58.00
3.92473	58.00
3.94140	58.00
3.95807	58.00
3.97473	58.00
3.99140	58.00

[Status Trace (Carrier Gas Flow)]
Interval(msec)	1000
# of Points	240
Start Time(min)	0.008
End Time(min)	3.991
Intensity Units	
Intensity Multiplier	1
R.Time (min)	Intensity
0.00807	34.52
0.02473	34.53
0.04140	34.54
0.05807	34.55
0.07473	34.49
0.09140	34.52
0.10807	34.52
0.12473	34.52
0.14140	34.52
0.15807	34.52
0.17473	34.52
0.19140	34.52
0.20807	34.52
0.22473	34.52
0.24140	34.52
0.25807	34.52
0.27473	34.52
0.29140	34.52
0.30807	34.52
0.32473	34.52
0.34140	34.52
0.35807	34.52
0.37473	34.52
0.39140	34.52
0.40807	34.52
0.42473	34.52
0.44140	34.52
0.45807	34.52
0.47473	34.52
0.49140	34.52
0.50807	34.52
0.52473	34.52
0.54140	34.51
0.55807	34.51
0.57473	34.52
0.59140	34.51
0.60807	34.52
0.62473	34.51
0.64140	34.51
0.65807	34.52
0.67473	34.52
0.69140	34.51
0.70807	34.51
0.72473	34.53
0.74140	34.52
0.75807	34.52
0.77473	34.52
0.79140	34.52
0.80807	34.52
0.82473	34.52
0.84140	34.52
0.85807	34.52
0.87473	34.52
0.89140	34.52
0.90807	34.52
0.92473	34.52
0.94140	34.52
0.95807	34.52
0.97473	34.52
0.99140	34.52
1.00807	34.52
1.02473	34.52
1.04140	34.52
1.05807	34.52
1.07473	34.52
1.09140	34.52
1.10807	34.52
1.12473	34.52
1.14140	34.52
1.15807	34.52
1.17473	34.52
1.19140	34.52
1.20807	34.52
1.22473	34.52
1.24140	34.52
1.25807	34.52
1.27473	34.52
1.29140	34.52
1.30807	34.52
1.32473	34.52
1.34140	34.52
1.35807	34.52
1.37473	34.52
1.39140	34.52
1.40807	34.52
1.42473	34.52
1.44140	34.52
1.45807	34.52
1.47473	34.52
1.49140	34.52
1.50807	34.52
1.52473	34.52
1.54140	34.52
1.55807	34.52
1.57473	34.52
1.59140	34.52
1.60807	34.52
1.62473	34.52
1.64140	34.52
1.65807	34.52
1.67473	34.52
1.69140	34.52
1.70807	34.52
1.72473	34.52
1.74140	34.52
1.75807	34.52
1.77473	34.52
1.79140	34.52
1.80807	34.52
1.82473	34.52
1.84140	34.52
1.85807	34.52
1.87473	34.52
1.89140	34.52
1.90807	34.52
1.92473	34.52
1.94140	34.52
1.95807	34.52
1.97473	34.52
1.99140	34.52
2.00807	34.52
2.02473	34.52
2.04140	34.52
2.05807	34.52
2.07473	34.52
2.09140	34.52
2.10807	34.52
2.12473	34.52
2.14140	34.52
2.15807	34.52
2.17473	34.52
2.19140	34.52
2.20807	34.52
2.22473	34.52
2.24140	34.52
2.25807	34.52
2.27473	34.52
2.29140	34.52
2.30807	34.52
2.32473	34.52
2.34140	34.52
2.35807	34.52
2.37473	34.52
2.39140	34.53
2.40807	34.52
2.42473	34.53
2.44140	34.52
2.45807	34.52
2.47473	34.53
2.49140	34.53
2.50807	34.35
2.52473	34.52
2.54140	34.52
2.55807	34.52
2.57473	34.52
2.59140	34.52
2.60807	34.52
2.62473	34.52
2.64140	34.52
2.65807	34.52
2.67473	34.52
2.69140	34.52
2.70807	34.52
2.72473	34.52
2.74140	34.52
2.75807	34.52
2.77473	34.52
2.79140	34.52
2.80807	34.52
2.82473	34.52
2.84140	34.52
2.85807	34.52
2.87473	34.52
2.89140	34.52
2.90807	34.52
2.92473	34.52
2.94140	34.52
2.95807	34.52
2.97473	34.52
2.99140	34.52
3.00807	34.52
3.02473	34.52
3.04140	34.52
3.05807	34.52
3.07473	34.52
3.09140	34.52
3.10807	34.52
3.12473	34.52
3.14140	34.52
3.15807	34.52
3.17473	34.52
3.19140	34.52
3.20807	34.52
3.22473	34.52
3.24140	34.52
3.25807	34.52
3.27473	34.52
3.29140	34.52
3.30807	34.52
3.32473	34.52
3.34140	34.52
3.35807	34.52
3.37473	34.52
3.39140	34.52
3.40807	34.52
3.42473	34.52
3.44140	34.52
3.45807	34.52
3.47473	34.52
3.49140	34.52
3.50807	34.52
3.52473	34.52
3.54140	34.52
3.55807	34.52
3.57473	34.52
3.59140	34.52
3.60807	34.52
3.62473	34.53
3.64140	34.51
3.65807	34.52
3.67473	34.52
3.69140	34.51
3.70807	34.52
3.72473	34.51
3.74140	34.52
3.75807	34.52
3.77473	34.52
3.79140	34.52
3.80807	34.52
3.82473	34.52
3.84140	34.52
3.85807	34.52
3.87473	34.52
3.89140	34.52
3.90807	34.52
3.92473	34.52
3.94140	34.52
3.95807	34.52
3.97473	34.52
3.99140	34.52

[Status Trace (Column Flow)]
Interval(msec)	1000
# of Points	240
Start Time(min)	0.008
End Time(min)	3.991
Intensity Units	
Intensity Multiplier	1
R.Time (min)	Intensity
0.00807	5.50
0.02473	5.20
0.04140	5.40
0.05807	5.63
0.07473	5.68
0.09140	5.51
0.10807	5.50
0.12473	5.50
0.14140	5.50
0.15807	5.50
0.17473	5.50
0.19140	5.50
0.20807	5.50
0.22473	5.50
0.24140	5.50
0.25807	5.50
0.27473	5.50
0.29140	5.50
0.30807	5.50
0.32473	5.50
0.34140	5.50
0.35807	5.50
0.37473	5.50
0.39140	5.50
0.40807	5.50
0.42473	5.50
0.44140	5.50
0.45807	5.50
0.47473	5.50
0.49140	5.50
0.50807	5.50
0.52473	5.50
0.54140	5.50
0.55807	5.50
0.57473	5.50
0.59140	5.50
0.60807	5.50
0.62473	5.50
0.64140	5.50
0.65807	5.50
0.67473	5.50
0.69140	5.50
0.70807	5.50
0.72473	5.50
0.74140	5.50
0.75807	5.50
0.77473	5.50
0.79140	5.50
0.80807	5.50
0.82473	5.51
0.84140	5.51
0.85807	5.51
0.87473	5.50
0.89140	5.50
0.90807	5.50
0.92473	5.50
0.94140	5.50
0.95807	5.50
0.97473	5.50
0.99140	5.50
1.00807	5.50
1.02473	5.50
1.04140	5.50
1.05807	5.50
1.07473	5.51
1.09140	5.51
1.10807	5.51
1.12473	5.50
1.14140	5.51
1.15807	5.50
1.17473	5.50
1.19140	5.50
1.20807	5.50
1.22473	5.50
1.24140	5.50
1.25807	5.50
1.27473	5.50
1.29140	5.50
1.30807	5.50
1.32473	5.50
1.34140	5.50
1.35807	5.50
1.37473	5.50
1.39140	5.50
1.40807	5.50
1.42473	5.50
1.44140	5.50
1.45807	5.50
1.47473	5.50
1.49140	5.50
1.50807	5.51
1.52473	5.51
1.54140	5.51
1.55807	5.50
1.57473	5.50
1.59140	5.50
1.60807	5.50
1.62473	5.50
1.64140	5.49
1.65807	5.49
1.67473	5.47
1.69140	5.46
1.70807	5.45
1.72473	5.44
1.74140	5.43
1.75807	5.42
1.77473	5.41
1.79140	5.40
1.80807	5.39
1.82473	5.38
1.84140	5.37
1.85807	5.36
1.87473	5.35
1.89140	5.34
1.90807	5.33
1.92473	5.32
1.94140	5.31
1.95807	5.30
1.97473	5.29
1.99140	5.28
2.00807	5.27
2.02473	5.26
2.04140	5.25
2.05807	5.25
2.07473	5.24
2.09140	5.23
2.10807	5.22
2.12473	5.21
2.14140	5.20
2.15807	5.19
2.17473	5.18
2.19140	5.17
2.20807	5.16
2.22473	5.15
2.24140	5.14
2.25807	5.13
2.27473	5.12
2.29140	5.11
2.30807	5.11
2.32473	5.09
2.34140	5.09
2.35807	5.08
2.37473	5.07
2.39140	5.07
2.40807	5.07
2.42473	5.07
2.44140	5.07
2.45807	5.07
2.47473	5.07
2.49140	5.07
2.50807	5.07
2.52473	5.07
2.54140	5.07
2.55807	5.07
2.57473	5.07
2.59140	5.07
2.60807	5.07
2.62473	5.07
2.64140	5.07
2.65807	5.07
2.67473	5.07
2.69140	5.07
2.70807	5.07
2.72473	5.07
2.74140	5.07
2.75807	5.07
2.77473	5.07
2.79140	5.07
2.80807	5.06
2.82473	5.07
2.84140	5.07
2.85807	5.07
2.87473	5.06
2.89140	5.06
2.90807	5.06
2.92473	5.06
2.94140	5.06
2.95807	5.06
2.97473	5.06
2.99140	5.06
3.00807	5.06
3.02473	5.06
3.04140	5.06
3.05807	5.06
3.07473	5.06
3.09140	5.06
3.10807	5.06
3.12473	5.06
3.14140	5.06
3.15807	5.06
3.17473	5.06
3.19140	5.06
3.20807	5.06
3.22473	5.06
3.24140	5.06
3.25807	5.06
3.27473	5.06
3.29140	5.06
3.30807	5.06
3.32473	5.06
3.34140	5.06
3.35807	5.06
3.37473	5.06
3.39140	5.06
3.40807	5.06
3.42473	5.06
3.44140	5.06
3.45807	5.06
3.47473	5.06
3.49140	5.06
3.50807	5.06
3.52473	5.06
3.54140	5.06
3.55807	5.06
3.57473	5.06
3.59140	5.06
3.60807	5.06
3.62473	5.06
3.64140	5.06
3.65807	5.06
3.67473	5.06
3.69140	5.06
3.70807	5.06
3.72473	5.06
3.74140	5.06
3.75807	5.06
3.77473	5.06
3.79140	5.06
3.80807	5.06
3.82473	5.06
3.84140	5.06
3.85807	5.06
3.87473	5.06
3.89140	5.06
3.90807	5.06
3.92473	5.06
3.94140	5.06
3.95807	5.06
3.97473	5.06
3.99140	5.06

[Status Trace (Linear Velocity)]
Interval(msec)	1000
# of Points	240
Start Time(min)	0.008
End Time(min)	3.991
Intensity Units	
Intensity Multiplier	1
R.Time (min)	Intensity
0.00807	39.01
0.02473	37.29
0.04140	38.41
0.05807	39.75
0.07473	40.02
0.09140	39.06
0.10807	38.99
0.12473	39.02
0.14140	39.02
0.15807	39.02
0.17473	39.01
0.19140	39.02
0.20807	39.01
0.22473	39.01
0.24140	39.01
0.25807	39.01
0.27473	39.01
0.29140	39.01
0.30807	39.01
0.32473	39.01
0.34140	39.01
0.35807	39.01
0.37473	39.01
0.39140	39.01
0.40807	39.01
0.42473	39.01
0.44140	39.01
0.45807	39.01
0.47473	39.01
0.49140	39.01
0.50807	39.01
0.52473	39.01
0.54140	39.01
0.55807	39.01
0.57473	39.01
0.59140	39.01
0.60807	39.01
0.62473	39.01
0.64140	39.01
0.65807	39.01
0.67473	39.01
0.69140	39.01
0.70807	39.01
0.72473	39.01
0.74140	39.01
0.75807	39.01
0.77473	39.01
0.79140	39.01
0.80807	39.01
0.82473	39.02
0.84140	39.02
0.85807	39.02
0.87473	39.02
0.89140	39.01
0.90807	39.01
0.92473	39.02
0.94140	39.01
0.95807	39.01
0.97473	39.01
0.99140	39.01
1.00807	39.01
1.02473	39.01
1.04140	39.01
1.05807	39.01
1.07473	39.02
1.09140	39.02
1.10807	39.02
1.12473	39.02
1.14140	39.02
1.15807	39.01
1.17473	39.01
1.19140	39.01
1.20807	39.01
1.22473	39.01
1.24140	39.01
1.25807	39.01
1.27473	39.01
1.29140	39.01
1.30807	39.02
1.32473	39.02
1.34140	39.01
1.35807	39.01
1.37473	39.01
1.39140	39.01
1.40807	39.01
1.42473	39.01
1.44140	39.01
1.45807	39.01
1.47473	39.01
1.49140	39.02
1.50807	39.02
1.52473	39.02
1.54140	39.02
1.55807	39.01
1.57473	39.01
1.59140	39.01
1.60807	39.00
1.62473	39.00
1.64140	38.98
1.65807	38.96
1.67473	38.92
1.69140	38.89
1.70807	38.86
1.72473	38.82
1.74140	38.79
1.75807	38.76
1.77473	38.73
1.79140	38.70
1.80807	38.67
1.82473	38.63
1.84140	38.60
1.85807	38.57
1.87473	38.54
1.89140	38.51
1.90807	38.48
1.92473	38.45
1.94140	38.42
1.95807	38.39
1.97473	38.36
1.99140	38.33
2.00807	38.30
2.02473	38.27
2.04140	38.24
2.05807	38.21
2.07473	38.18
2.09140	38.15
2.10807	38.12
2.12473	38.09
2.14140	38.06
2.15807	38.03
2.17473	38.00
2.19140	37.97
2.20807	37.94
2.22473	37.91
2.24140	37.88
2.25807	37.85
2.27473	37.82
2.29140	37.79
2.30807	37.77
2.32473	37.73
2.34140	37.70
2.35807	37.68
2.37473	37.66
2.39140	37.65
2.40807	37.65
2.42473	37.66
2.44140	37.66
2.45807	37.65
2.47473	37.65
2.49140	37.65
2.50807	37.65
2.52473	37.64
2.54140	37.65
2.55807	37.65
2.57473	37.65
2.59140	37.64
2.60807	37.64
2.62473	37.64
2.64140	37.64
2.65807	37.64
2.67473	37.64
2.69140	37.64
2.70807	37.64
2.72473	37.64
2.74140	37.64
2.75807	37.64
2.77473	37.64
2.79140	37.64
2.80807	37.64
2.82473	37.64
2.84140	37.64
2.85807	37.64
2.87473	37.64
2.89140	37.63
2.90807	37.63
2.92473	37.63
2.94140	37.63
2.95807	37.63
2.97473	37.63
2.99140	37.63
3.00807	37.62
3.02473	37.62
3.04140	37.62
3.05807	37.62
3.07473	37.62
3.09140	37.62
3.10807	37.62
3.12473	37.62
3.14140	37.62
3.15807	37.62
3.17473	37.62
3.19140	37.62
3.20807	37.62
3.22473	37.62
3.24140	37.62
3.25807	37.62
3.27473	37.62
3.29140	37.62
3.30807	37.62
3.32473	37.62
3.34140	37.62
3.35807	37.62
3.37473	37.62
3.39140	37.62
3.40807	37.62
3.42473	37.62
3.44140	37.62
3.45807	37.62
3.47473	37.62
3.49140	37.62
3.50807	37.62
3.52473	37.62
3.54140	37.62
3.55807	37.62
3.57473	37.62
3.59140	37.62
3.60807	37.62
3.62473	37.62
3.64140	37.62
3.65807	37.62
3.67473	37.62
3.69140	37.62
3.70807	37.62
3.72473	37.62
3.74140	37.62
3.75807	37.62
3.77473	37.62
3.79140	37.62
3.80807	37.62
3.82473	37.62
3.84140	37.62
3.85807	37.62
3.87473	37.62
3.89140	37.62
3.90807	37.62
3.92473	37.62
3.94140	37.62
3.95807	37.62
3.97473	37.62
3.99140	37.62

