[Header]
Application Name	LabSolutions
Version	5.110
Data File Name	C:\Users\User\Desktop\GC Analyses\Jack\UIC Prairie Sampling\8.12.22\220812_093.gcd
Output Date	10/14/2022
Output Time	2:33:56 PM

[File Information]
Type	Data File
Generated	10/13/2022 3:01:00 PM
Generated by	System Administrator
Modified	10/13/2022 3:05:18 PM
Modified by	System Administrator

[Sample Information]
Operator Name	System Administrator
Acquired	10/13/2022 3:01:16 PM
Sample Type	1:Standard
Level	1
Sample Name	220812_UICPrairie
Sample ID	220812_UICPrairie
ISTD Amount1	1
ISTD Amount2	1
ISTD Amount3	1
ISTD Amount4	1
ISTD Amount5	1
ISTD Amount6	1
ISTD Amount7	1
ISTD Amount8	1
ISTD Amount9	1
ISTD Amount10	1
ISTD Amount11	1
ISTD Amount12	1
ISTD Amount13	1
ISTD Amount14	1
ISTD Amount15	1
ISTD Amount16	1
ISTD Amount17	1
ISTD Amount18	1
ISTD Amount19	1
ISTD Amount20	1
ISTD Amount21	1
ISTD Amount22	1
ISTD Amount23	1
ISTD Amount24	1
ISTD Amount25	1
ISTD Amount26	1
ISTD Amount27	1
ISTD Amount28	1
ISTD Amount29	1
ISTD Amount30	1
ISTD Amount31	1
ISTD Amount32	1
Sample Amount	1
Dilution Factor	1
Vial#	1
Injection Volume	1
Injection Count	1
Bar Code	

[Original Files]
Data File	C:\Users\User\Desktop\GC Analyses\Jack\UIC Prairie Sampling\8.12.22\220812_093.gcd
Method File	C:\LabSolutions\Data\GHG_4min_2022\ghg3_togas_w_acet_4 min_new_int.gcm
Batch File	
Report Format File	c:\LabSolutions\System\DEFAULT.lsr

[File Description]


[Configuration]
Instrument Name	C0B7VH3-Instrument1
Instrument #	1
Line #	1
# of Detectors	3
Detector ID	DET#1	DET#2	DET#3
Detector Name	FID	PTCD	ECD
# of Channels	1	1	1

[Peak Table(Ch1)]
# of Peaks	3
Peak#	R.Time	I.Time	F.Time	Area	Height	A/H	Conc.	Mark	ID#	Name	k'	Plate #	Plate Ht.	Tailing	Resolution	Sep.Factor	Area Ratio	Height Ratio	Conc. %	Norm Conc.
1	1.479	1.432	1.542	11152	4844	2.302	100.000	   	1	CO	0.000	7982	18.793	1.211	0.000	0.000	0	0	16.667	16.667
2	1.571	1.542	1.630	4392	2217	1.981	100.000	 V 	2	CH4	0.062	11312	13.260	1.203	1.463	0.000	0	0	16.667	16.667
3	2.000	1.952	2.330	1952170	959880	2.034	400.000	   	3	CO2	0.352	17927	8.367	1.270	7.220	5.680	0	0	66.667	66.667

[Peak Table(Ch2)]
# of Peaks	0

[Peak Table(Ch3)]
# of Peaks	3
Peak#	R.Time	I.Time	F.Time	Area	Height	A/H	Conc.	Mark	ID#	Name	k'	Plate #	Plate Ht.	Tailing	Resolution	Sep.Factor	Area Ratio	Height Ratio	Conc. %	Norm Conc.
1	2.458	1.336	2.653	19263	550	35.031	0.000	   			0.000	120	1245.113	0.590	0.000	0.000	0	0	0.000	0.000
2	2.733	2.667	2.744	209	86	2.429	0.006	   	1	N2O	0.112	24028	6.243	0.589	0.569	0.000	0	0	0.607	0.607
3	2.887	2.748	3.239	34240	6011	5.696	0.994	   	1	N2O	0.175	10496	14.292	1.486	1.681	1.560	0	0	99.393	99.393

[Compound Results(Ch1)]
# of IDs	6
ID#	Name	R.Time	Area	Height	Conc.	Curve	3rd	2nd	1st	Constant	Area Ratio	Height Ratio	Conc. %	Norm Conc.
1	CO	1.479	11152	4844	100.000	Linear	0.000000e+00	0.000000e+00	1.115154e+002	0.000000e+00	0	0	16.667	16.667
2	CH4	1.571	4392	2217	100.000	Linear	0.000000e+00	0.000000e+00	4.392135e+001	0.000000e+00	0	0	16.667	16.667
3	CO2	2.000	1952170	959880	400.000	Linear	0.000000e+00	0.000000e+00	4.880426e+003	0.000000e+00	0	0	66.667	66.667
4	Ethylene	0.000	0	0	0.000	Linear	0.000000e+00	0.000000e+00	0.000000e+00	0.000000e+00	0	0	0.000	0.000
5	Acetylene	0.000	0	0	0.000	Linear	0.000000e+00	0.000000e+00	0.000000e+00	0.000000e+00	0	0	0.000	0.000
6	Ethane	0.000	0	0	0.000	Linear	0.000000e+00	0.000000e+00	0.000000e+00	0.000000e+00	0	0	0.000	0.000

[Compound Results(Ch2)]
# of IDs	5
ID#	Name	R.Time	Area	Height	Conc.	Curve	3rd	2nd	1st	Constant	Area Ratio	Height Ratio	Conc. %	Norm Conc.
1	Hydrogen	0.000	0	0	0.000	Linear	0.000000e+00	0.000000e+00	0.000000e+00	0.000000e+00	0	0	0.000	0.000
2	Oxygen	0.000	0	0	0.000	Linear	0.000000e+00	0.000000e+00	0.000000e+00	0.000000e+00	0	0	0.000	0.000
3	Nitrogen	0.000	0	0	0.000	Linear	0.000000e+00	0.000000e+00	0.000000e+00	0.000000e+00	0	0	0.000	0.000
4	Methane	0.000	0	0	0.000	Linear	0.000000e+00	0.000000e+00	0.000000e+00	0.000000e+00	0	0	0.000	0.000
5	Carbon Monoxide	0.000	0	0	0.000	Linear	0.000000e+00	0.000000e+00	0.000000e+00	0.000000e+00	0	0	0.000	0.000

[Compound Results(Ch3)]
# of IDs	2
ID#	Name	R.Time	Area	Height	Conc.	Curve	3rd	2nd	1st	Constant	Area Ratio	Height Ratio	Conc. %	Norm Conc.
1	N2O	2.887	34449	6097	1.000	Linear	0.000000e+00	0.000000e+00	3.444872e+004	0.000000e+00	0	0	100.000	100.000
2	SF6	0.000	0	0	0.000	Linear	0.000000e+00	0.000000e+00	0.000000e+00	0.000000e+00	0	0	0.000	0.000

[Group Results(Ch1)]
# of Groups	0

[Group Results(Ch2)]
# of Groups	0

[Group Results(Ch3)]
# of Groups	0

[Chromatogram (Ch1)]
Interval(msec)	220
# of Points	1091
Start Time(min)	0.002
End Time(min)	3.998
R.Time (min)	Intensity
0.00167	-42
0.00533	-53
0.00900	-60
0.01267	-61
0.01633	-55
0.02000	-46
0.02367	-39
0.02733	-37
0.03100	-39
0.03467	-45
0.03833	-51
0.04200	-53
0.04567	-54
0.04933	-55
0.05300	-56
0.05667	-57
0.06033	-56
0.06400	-53
0.06767	-50
0.07133	-47
0.07500	-48
0.07867	-51
0.08233	-55
0.08600	-56
0.08967	-54
0.09333	-50
0.09700	-47
0.10067	-46
0.10433	-47
0.10800	-48
0.11167	-50
0.11533	-52
0.11900	-55
0.12267	-57
0.12633	-59
0.13000	-58
0.13367	-56
0.13733	-54
0.14100	-54
0.14467	-57
0.14833	-58
0.15200	-58
0.15567	-59
0.15933	-58
0.16300	-55
0.16667	-55
0.17033	-56
0.17400	-60
0.17767	-62
0.18133	-60
0.18500	-55
0.18867	-50
0.19233	-46
0.19600	-42
0.19967	-37
0.20333	-34
0.20700	-38
0.21067	-45
0.21433	-51
0.21800	-52
0.22167	-51
0.22533	-49
0.22900	-47
0.23267	-43
0.23633	-40
0.24000	-41
0.24367	-46
0.24733	-52
0.25100	-58
0.25467	-66
0.25833	-71
0.26200	-71
0.26567	-67
0.26933	-63
0.27300	-57
0.27667	-52
0.28033	-48
0.28400	-53
0.28767	-62
0.29133	-70
0.29500	-73
0.29867	-71
0.30233	-65
0.30600	-59
0.30967	-55
0.31333	-56
0.31700	-59
0.32067	-61
0.32433	-60
0.32800	-56
0.33167	-51
0.33533	-48
0.33900	-47
0.34267	-51
0.34633	-60
0.35000	-71
0.35367	-80
0.35733	-86
0.36100	-88
0.36467	-90
0.36833	-93
0.37200	-92
0.37567	-89
0.37933	-86
0.38300	-82
0.38667	-78
0.39033	-74
0.39400	-69
0.39767	-64
0.40133	-62
0.40500	-65
0.40867	-66
0.41233	-67
0.41600	-68
0.41967	-67
0.42333	-62
0.42700	-59
0.43067	-62
0.43433	-69
0.43800	-77
0.44167	-82
0.44533	-85
0.44900	-87
0.45267	-89
0.45633	-90
0.46000	-91
0.46367	-87
0.46733	-82
0.47100	-78
0.47467	-77
0.47833	-74
0.48200	-68
0.48567	-62
0.48933	-59
0.49300	-60
0.49667	-65
0.50033	-70
0.50400	-74
0.50767	-80
0.51133	-83
0.51500	-87
0.51867	-91
0.52233	-93
0.52600	-95
0.52967	-97
0.53333	-94
0.53700	-88
0.54067	-83
0.54433	-83
0.54800	-86
0.55167	-86
0.55533	-85
0.55900	-90
0.56267	-97
0.56633	-104
0.57000	-108
0.57367	-109
0.57733	-108
0.58100	-106
0.58467	-105
0.58833	-104
0.59200	-101
0.59567	-98
0.59933	-94
0.60300	-89
0.60667	-83
0.61033	-81
0.61400	-82
0.61767	-86
0.62133	-90
0.62500	-92
0.62867	-95
0.63233	-98
0.63600	-102
0.63967	-107
0.64333	-110
0.64700	-113
0.65067	-115
0.65433	-112
0.65800	-109
0.66167	-107
0.66533	-107
0.66900	-107
0.67267	-104
0.67633	-103
0.68000	-104
0.68367	-106
0.68733	-108
0.69100	-111
0.69467	-115
0.69833	-122
0.70200	-126
0.70567	-129
0.70933	-128
0.71300	-125
0.71667	-122
0.72033	-119
0.72400	-117
0.72767	-114
0.73133	-112
0.73500	-108
0.73867	-101
0.74233	-94
0.74600	-92
0.74967	-95
0.75333	-103
0.75700	-111
0.76067	-118
0.76433	-124
0.76800	-129
0.77167	-133
0.77533	-132
0.77900	-128
0.78267	-123
0.78633	-120
0.79000	-120
0.79367	-121
0.79733	-120
0.80100	-115
0.80467	-105
0.80833	-93
0.81200	-83
0.81567	-84
0.81933	-99
0.82300	-118
0.82667	-133
0.83033	-140
0.83400	-141
0.83767	-137
0.84133	-133
0.84500	-134
0.84867	-137
0.85233	-138
0.85600	-140
0.85967	-139
0.86333	-136
0.86700	-133
0.87067	-131
0.87433	-131
0.87800	-134
0.88167	-135
0.88533	-134
0.88900	-133
0.89267	-132
0.89633	-129
0.90000	-125
0.90367	-124
0.90733	-126
0.91100	-131
0.91467	-140
0.91833	-146
0.92200	-148
0.92567	-148
0.92933	-147
0.93300	-146
0.93667	-145
0.94033	-144
0.94400	-143
0.94767	-144
0.95133	-144
0.95500	-142
0.95867	-140
0.96233	-134
0.96600	-125
0.96967	-121
0.97333	-121
0.97700	-121
0.98067	-121
0.98433	-121
0.98800	-126
0.99167	-133
0.99533	-139
0.99900	-141
1.00267	-140
1.00633	-135
1.01000	-130
1.01367	-127
1.01733	-126
1.02100	-130
1.02467	-136
1.02833	-137
1.03200	-135
1.03567	-136
1.03933	-139
1.04300	-138
1.04667	-135
1.05033	-132
1.05400	-131
1.05767	-136
1.06133	-143
1.06500	-149
1.06867	-152
1.07233	-151
1.07600	-149
1.07967	-145
1.08333	-141
1.08700	-135
1.09067	-129
1.09433	-126
1.09800	-125
1.10167	-123
1.10533	-122
1.10900	-127
1.11267	-135
1.11633	-142
1.12000	-146
1.12367	-147
1.12733	-150
1.13100	-154
1.13467	-155
1.13833	-153
1.14200	-151
1.14567	-154
1.14933	-157
1.15300	-154
1.15667	-146
1.16033	-141
1.16400	-141
1.16767	-144
1.17133	-147
1.17500	-150
1.17867	-153
1.18233	-155
1.18600	-157
1.18967	-158
1.19333	-156
1.19700	-155
1.20067	-157
1.20433	-159
1.20800	-160
1.21167	-161
1.21533	-160
1.21900	-161
1.22267	-166
1.22633	-173
1.23000	-178
1.23367	-176
1.23733	-174
1.24100	-170
1.24467	-166
1.24833	-167
1.25200	-173
1.25567	-177
1.25933	-177
1.26300	-172
1.26667	-165
1.27033	-158
1.27400	-158
1.27767	-166
1.28133	-174
1.28500	-177
1.28867	-175
1.29233	-173
1.29600	-174
1.29967	-179
1.30333	-185
1.30700	-188
1.31067	-187
1.31433	-185
1.31800	-181
1.32167	-175
1.32533	-169
1.32900	-167
1.33267	-167
1.33633	-167
1.34000	-166
1.34367	-165
1.34733	-164
1.35100	-161
1.35467	-159
1.35833	-156
1.36200	-154
1.36567	-156
1.36933	-162
1.37300	-167
1.37667	-169
1.38033	-169
1.38400	-168
1.38767	-166
1.39133	-166
1.39500	-170
1.39867	-177
1.40233	-186
1.40600	-195
1.40967	-199
1.41333	-201
1.41700	-201
1.42067	-200
1.42433	-199
1.42800	-196
1.43167	-193
1.43533	-190
1.43900	-183
1.44267	-145
1.44633	-4
1.45000	298
1.45367	776
1.45733	1447
1.46100	2270
1.46467	3106
1.46833	3815
1.47200	4328
1.47567	4613
1.47933	4649
1.48300	4423
1.48667	3951
1.49033	3313
1.49400	2622
1.49767	1975
1.50133	1430
1.50500	1004
1.50867	686
1.51233	453
1.51600	286
1.51967	166
1.52333	80
1.52700	17
1.53067	-32
1.53433	-71
1.53800	-99
1.54167	-108
1.54533	-60
1.54900	108
1.55267	426
1.55633	846
1.56000	1272
1.56367	1633
1.56733	1891
1.57100	2018
1.57467	1985
1.57833	1786
1.58200	1467
1.58567	1108
1.58933	773
1.59300	496
1.59667	284
1.60033	128
1.60400	17
1.60767	-59
1.61133	-108
1.61500	-140
1.61867	-161
1.62233	-176
1.62600	-189
1.62967	-201
1.63333	-204
1.63700	-204
1.64067	-203
1.64433	-202
1.64800	-202
1.65167	-201
1.65533	-201
1.65900	-201
1.66267	-199
1.66633	-198
1.67000	-201
1.67367	-205
1.67733	-210
1.68100	-213
1.68467	-213
1.68833	-212
1.69200	-208
1.69567	-203
1.69933	-198
1.70300	-195
1.70667	-194
1.71033	-194
1.71400	-197
1.71767	-202
1.72133	-204
1.72500	-203
1.72867	-201
1.73233	-201
1.73600	-201
1.73967	-201
1.74333	-202
1.74700	-207
1.75067	-214
1.75433	-215
1.75800	-212
1.76167	-210
1.76533	-213
1.76900	-216
1.77267	-217
1.77633	-216
1.78000	-216
1.78367	-221
1.78733	-225
1.79100	-226
1.79467	-222
1.79833	-215
1.80200	-208
1.80567	-205
1.80933	-204
1.81300	-205
1.81667	-206
1.82033	-205
1.82400	-207
1.82767	-209
1.83133	-205
1.83500	-198
1.83867	-191
1.84233	-192
1.84600	-197
1.84967	-201
1.85333	-200
1.85700	-197
1.86067	-193
1.86433	-191
1.86800	-191
1.87167	-193
1.87533	-196
1.87900	-197
1.88267	-195
1.88633	-193
1.89000	-189
1.89367	-182
1.89733	-176
1.90100	-175
1.90467	-177
1.90833	-181
1.91200	-183
1.91567	-184
1.91933	-186
1.92300	-187
1.92667	-182
1.93033	-174
1.93400	-171
1.93767	-175
1.94133	-182
1.94500	-186
1.94867	-185
1.95233	-183
1.95600	-165
1.95967	-30
1.96333	780
1.96700	4623
1.97067	18429
1.97433	56262
1.97800	136229
1.98167	268244
1.98533	441832
1.98900	627806
1.99267	792443
1.99633	908771
2.00000	959735
2.00367	939870
2.00733	856683
2.01100	729730
2.01467	584405
2.01833	443804
2.02200	322929
2.02567	227647
2.02933	157118
2.03300	107176
2.03667	72857
2.04033	49732
2.04400	34318
2.04767	24079
2.05133	17257
2.05500	12673
2.05867	9555
2.06233	7401
2.06600	5883
2.06967	4791
2.07333	3986
2.07700	3378
2.08067	2909
2.08433	2537
2.08800	2238
2.09167	1994
2.09533	1792
2.09900	1623
2.10267	1482
2.10633	1362
2.11000	1257
2.11367	1164
2.11733	1080
2.12100	1008
2.12467	946
2.12833	892
2.13200	842
2.13567	791
2.13933	743
2.14300	697
2.14667	656
2.15033	620
2.15400	592
2.15767	567
2.16133	538
2.16500	507
2.16867	480
2.17233	459
2.17600	441
2.17967	422
2.18333	401
2.18700	379
2.19067	361
2.19433	348
2.19800	341
2.20167	336
2.20533	328
2.20900	315
2.21267	303
2.21633	296
2.22000	290
2.22367	285
2.22733	280
2.23100	274
2.23467	264
2.23833	250
2.24200	236
2.24567	221
2.24933	206
2.25300	194
2.25667	189
2.26033	191
2.26400	194
2.26767	196
2.27133	193
2.27500	186
2.27867	178
2.28233	172
2.28600	166
2.28967	160
2.29333	153
2.29700	148
2.30067	146
2.30433	145
2.30800	144
2.31167	142
2.31533	137
2.31900	132
2.32267	128
2.32633	121
2.33000	114
2.33367	105
2.33733	100
2.34100	99
2.34467	105
2.34833	113
2.35200	118
2.35567	120
2.35933	122
2.36300	125
2.36667	125
2.37033	120
2.37400	111
2.37767	105
2.38133	103
2.38500	102
2.38867	98
2.39233	93
2.39600	90
2.39967	91
2.40333	95
2.40700	99
2.41067	99
2.41433	98
2.41800	102
2.42167	110
2.42533	121
2.42900	128
2.43267	125
2.43633	113
2.44000	101
2.44367	91
2.44733	82
2.45100	81
2.45467	87
2.45833	93
2.46200	95
2.46567	91
2.46933	84
2.47300	76
2.47667	69
2.48033	64
2.48400	63
2.48767	67
2.49133	74
2.49500	78
2.49867	81
2.50233	82
2.50600	83
2.50967	81
2.51333	77
2.51700	71
2.52067	67
2.52433	64
2.52800	58
2.53167	53
2.53533	53
2.53900	54
2.54267	59
2.54633	66
2.55000	72
2.55367	74
2.55733	73
2.56100	67
2.56467	60
2.56833	52
2.57200	44
2.57567	38
2.57933	33
2.58300	31
2.58667	33
2.59033	39
2.59400	47
2.59767	51
2.60133	52
2.60500	50
2.60867	48
2.61233	43
2.61600	40
2.61967	41
2.62333	45
2.62700	46
2.63067	46
2.63433	45
2.63800	42
2.64167	39
2.64533	38
2.64900	38
2.65267	39
2.65633	41
2.66000	43
2.66367	46
2.66733	46
2.67100	42
2.67467	37
2.67833	32
2.68200	32
2.68567	36
2.68933	40
2.69300	42
2.69667	41
2.70033	38
2.70400	35
2.70767	30
2.71133	21
2.71500	12
2.71867	6
2.72233	2
2.72600	1
2.72967	4
2.73333	7
2.73700	12
2.74067	15
2.74433	17
2.74800	17
2.75167	14
2.75533	13
2.75900	13
2.76267	11
2.76633	10
2.77000	8
2.77367	8
2.77733	9
2.78100	12
2.78467	13
2.78833	13
2.79200	12
2.79567	13
2.79933	15
2.80300	17
2.80667	17
2.81033	16
2.81400	7
2.81767	3
2.82133	3
2.82500	7
2.82867	9
2.83233	12
2.83600	19
2.83967	22
2.84333	24
2.84700	24
2.85067	22
2.85433	17
2.85800	8
2.86167	2
2.86533	-0
2.86900	-3
2.87267	-5
2.87633	-6
2.88000	-4
2.88367	-4
2.88733	-7
2.89100	-8
2.89467	-7
2.89833	-5
2.90200	-4
2.90567	-2
2.90933	-1
2.91300	-4
2.91667	-5
2.92033	-4
2.92400	-3
2.92767	1
2.93133	6
2.93500	6
2.93867	-1
2.94233	-8
2.94600	-15
2.94967	-19
2.95333	-19
2.95700	-16
2.96067	-11
2.96433	-12
2.96800	-17
2.97167	-23
2.97533	-27
2.97900	-27
2.98267	-22
2.98633	-16
2.99000	-14
2.99367	-14
2.99733	-15
3.00100	-14
3.00467	-11
3.00833	-10
3.01200	-11
3.01567	-13
3.01933	-14
3.02300	-13
3.02667	-13
3.03033	-18
3.03400	-28
3.03767	-37
3.04133	-45
3.04500	-48
3.04867	-46
3.05233	-41
3.05600	-34
3.05967	-29
3.06333	-29
3.06700	-28
3.07067	-25
3.07433	-24
3.07800	-24
3.08167	-21
3.08533	-19
3.08900	-19
3.09267	-23
3.09633	-30
3.10000	-35
3.10367	-37
3.10733	-41
3.11100	-43
3.11467	-44
3.11833	-46
3.12200	-48
3.12567	-49
3.12933	-42
3.13300	-33
3.13667	-30
3.14033	-32
3.14400	-38
3.14767	-41
3.15133	-42
3.15500	-44
3.15867	-46
3.16233	-48
3.16600	-50
3.16967	-51
3.17333	-52
3.17700	-52
3.18067	-48
3.18433	-42
3.18800	-42
3.19167	-47
3.19533	-54
3.19900	-60
3.20267	-66
3.20633	-69
3.21000	-72
3.21367	-71
3.21733	-66
3.22100	-57
3.22467	-49
3.22833	-48
3.23200	-53
3.23567	-59
3.23933	-65
3.24300	-69
3.24667	-70
3.25033	-74
3.25400	-77
3.25767	-77
3.26133	-77
3.26500	-75
3.26867	-70
3.27233	-60
3.27600	-48
3.27967	-41
3.28333	-44
3.28700	-51
3.29067	-57
3.29433	-61
3.29800	-70
3.30167	-80
3.30533	-89
3.30900	-91
3.31267	-89
3.31633	-85
3.32000	-82
3.32367	-82
3.32733	-81
3.33100	-80
3.33467	-80
3.33833	-82
3.34200	-81
3.34567	-79
3.34933	-76
3.35300	-71
3.35667	-62
3.36033	-53
3.36400	-48
3.36767	-50
3.37133	-61
3.37500	-72
3.37867	-82
3.38233	-89
3.38600	-94
3.38967	-101
3.39333	-106
3.39700	-105
3.40067	-100
3.40433	-90
3.40800	-81
3.41167	-78
3.41533	-77
3.41900	-74
3.42267	-71
3.42633	-70
3.43000	-73
3.43367	-79
3.43733	-87
3.44100	-94
3.44467	-97
3.44833	-96
3.45200	-94
3.45567	-92
3.45933	-92
3.46300	-96
3.46667	-99
3.47033	-99
3.47400	-96
3.47767	-91
3.48133	-89
3.48500	-88
3.48867	-85
3.49233	-86
3.49600	-90
3.49967	-93
3.50333	-96
3.50700	-99
3.51067	-104
3.51433	-109
3.51800	-112
3.52167	-113
3.52533	-112
3.52900	-109
3.53267	-106
3.53633	-104
3.54000	-104
3.54367	-108
3.54733	-113
3.55100	-116
3.55467	-117
3.55833	-117
3.56200	-116
3.56567	-115
3.56933	-111
3.57300	-104
3.57667	-99
3.58033	-99
3.58400	-103
3.58767	-108
3.59133	-110
3.59500	-111
3.59867	-107
3.60233	-102
3.60600	-101
3.60967	-106
3.61333	-111
3.61700	-115
3.62067	-116
3.62433	-114
3.62800	-109
3.63167	-101
3.63533	-94
3.63900	-92
3.64267	-95
3.64633	-101
3.65000	-107
3.65367	-113
3.65733	-117
3.66100	-117
3.66467	-113
3.66833	-113
3.67200	-116
3.67567	-116
3.67933	-112
3.68300	-110
3.68667	-112
3.69033	-113
3.69400	-117
3.69767	-124
3.70133	-131
3.70500	-135
3.70867	-135
3.71233	-132
3.71600	-127
3.71967	-125
3.72333	-122
3.72700	-117
3.73067	-114
3.73433	-114
3.73800	-118
3.74167	-122
3.74533	-124
3.74900	-123
3.75267	-123
3.75633	-124
3.76000	-124
3.76367	-123
3.76733	-122
3.77100	-121
3.77467	-121
3.77833	-119
3.78200	-120
3.78567	-121
3.78933	-119
3.79300	-115
3.79667	-111
3.80033	-111
3.80400	-112
3.80767	-114
3.81133	-114
3.81500	-114
3.81867	-116
3.82233	-119
3.82600	-118
3.82967	-117
3.83333	-116
3.83700	-118
3.84067	-124
3.84433	-131
3.84800	-137
3.85167	-141
3.85533	-144
3.85900	-145
3.86267	-145
3.86633	-144
3.87000	-142
3.87367	-140
3.87733	-137
3.88100	-133
3.88467	-128
3.88833	-126
3.89200	-127
3.89567	-128
3.89933	-130
3.90300	-132
3.90667	-135
3.91033	-135
3.91400	-132
3.91767	-129
3.92133	-129
3.92500	-133
3.92867	-137
3.93233	-138
3.93600	-140
3.93967	-144
3.94333	-145
3.94700	-144
3.95067	-143
3.95433	-138
3.95800	-132
3.96167	-128
3.96533	-125
3.96900	-122
3.97267	-118
3.97633	-113
3.98000	-111
3.98367	-116
3.98733	-125
3.99100	-130
3.99467	-134
3.99833	-134

[Chromatogram (Ch2)]
Interval(msec)	220
# of Points	1091
Start Time(min)	0.002
End Time(min)	3.998
R.Time (min)	Intensity
0.00167	-0
0.00533	-0
0.00900	-0
0.01267	-1
0.01633	-1
0.02000	-1
0.02367	-1
0.02733	-1
0.03100	-2
0.03467	-2
0.03833	-2
0.04200	-2
0.04567	-2
0.04933	-2
0.05300	-2
0.05667	-2
0.06033	-2
0.06400	-2
0.06767	-2
0.07133	-2
0.07500	-2
0.07867	-2
0.08233	-2
0.08600	-2
0.08967	-2
0.09333	-2
0.09700	-2
0.10067	-2
0.10433	-1
0.10800	-1
0.11167	-1
0.11533	-1
0.11900	-1
0.12267	-1
0.12633	-2
0.13000	-2
0.13367	-2
0.13733	-2
0.14100	-2
0.14467	-2
0.14833	-2
0.15200	-2
0.15567	-2
0.15933	-2
0.16300	-2
0.16667	-1
0.17033	-1
0.17400	-1
0.17767	-1
0.18133	-0
0.18500	0
0.18867	1
0.19233	1
0.19600	2
0.19967	2
0.20333	3
0.20700	3
0.21067	3
0.21433	4
0.21800	4
0.22167	4
0.22533	4
0.22900	4
0.23267	4
0.23633	4
0.24000	5
0.24367	5
0.24733	5
0.25100	5
0.25467	5
0.25833	5
0.26200	5
0.26567	5
0.26933	5
0.27300	5
0.27667	4
0.28033	4
0.28400	4
0.28767	4
0.29133	4
0.29500	4
0.29867	5
0.30233	5
0.30600	5
0.30967	5
0.31333	5
0.31700	5
0.32067	5
0.32433	5
0.32800	5
0.33167	5
0.33533	5
0.33900	5
0.34267	4
0.34633	4
0.35000	3
0.35367	3
0.35733	3
0.36100	2
0.36467	2
0.36833	2
0.37200	2
0.37567	2
0.37933	1
0.38300	1
0.38667	1
0.39033	1
0.39400	1
0.39767	1
0.40133	1
0.40500	1
0.40867	1
0.41233	1
0.41600	1
0.41967	1
0.42333	1
0.42700	1
0.43067	1
0.43433	1
0.43800	1
0.44167	1
0.44533	1
0.44900	0
0.45267	0
0.45633	0
0.46000	0
0.46367	0
0.46733	1
0.47100	1
0.47467	2
0.47833	2
0.48200	2
0.48567	2
0.48933	2
0.49300	2
0.49667	2
0.50033	2
0.50400	2
0.50767	2
0.51133	2
0.51500	2
0.51867	2
0.52233	2
0.52600	2
0.52967	2
0.53333	2
0.53700	2
0.54067	2
0.54433	2
0.54800	1
0.55167	1
0.55533	1
0.55900	1
0.56267	1
0.56633	0
0.57000	0
0.57367	-0
0.57733	-0
0.58100	-1
0.58467	-1
0.58833	-1
0.59200	-1
0.59567	-1
0.59933	-2
0.60300	-2
0.60667	-1
0.61033	-1
0.61400	-1
0.61767	-1
0.62133	-1
0.62500	-0
0.62867	-0
0.63233	0
0.63600	0
0.63967	0
0.64333	0
0.64700	1
0.65067	1
0.65433	1
0.65800	1
0.66167	1
0.66533	1
0.66900	1
0.67267	1
0.67633	1
0.68000	1
0.68367	1
0.68733	0
0.69100	0
0.69467	0
0.69833	1
0.70200	1
0.70567	0
0.70933	0
0.71300	0
0.71667	1
0.72033	1
0.72400	1
0.72767	1
0.73133	1
0.73500	1
0.73867	1
0.74233	0
0.74600	-0
0.74967	-1
0.75333	-2
0.75700	-2
0.76067	-3
0.76433	-3
0.76800	-4
0.77167	-4
0.77533	-4
0.77900	-4
0.78267	-4
0.78633	-3
0.79000	-3
0.79367	-3
0.79733	-3
0.80100	-3
0.80467	-3
0.80833	-3
0.81200	-3
0.81567	-2
0.81933	-2
0.82300	-2
0.82667	-1
0.83033	-1
0.83400	-1
0.83767	-1
0.84133	-2
0.84500	-2
0.84867	-2
0.85233	-2
0.85600	-3
0.85967	-3
0.86333	-3
0.86700	-3
0.87067	-3
0.87433	-3
0.87800	-3
0.88167	-3
0.88533	-3
0.88900	-3
0.89267	-2
0.89633	-2
0.90000	-2
0.90367	-2
0.90733	-2
0.91100	-2
0.91467	-2
0.91833	-1
0.92200	-1
0.92567	-1
0.92933	-0
0.93300	0
0.93667	0
0.94033	0
0.94400	1
0.94767	1
0.95133	1
0.95500	1
0.95867	1
0.96233	1
0.96600	1
0.96967	1
0.97333	1
0.97700	1
0.98067	1
0.98433	1
0.98800	1
0.99167	1
0.99533	1
0.99900	1
1.00267	1
1.00633	1
1.01000	1
1.01367	0
1.01733	0
1.02100	0
1.02467	-0
1.02833	-1
1.03200	-1
1.03567	-2
1.03933	-2
1.04300	-2
1.04667	-2
1.05033	-3
1.05400	-3
1.05767	-3
1.06133	-3
1.06500	-3
1.06867	-3
1.07233	-2
1.07600	-2
1.07967	-2
1.08333	-2
1.08700	-1
1.09067	-1
1.09433	-1
1.09800	-0
1.10167	-0
1.10533	-0
1.10900	-0
1.11267	0
1.11633	0
1.12000	0
1.12367	0
1.12733	0
1.13100	0
1.13467	0
1.13833	0
1.14200	1
1.14567	1
1.14933	1
1.15300	1
1.15667	1
1.16033	2
1.16400	2
1.16767	2
1.17133	2
1.17500	2
1.17867	2
1.18233	2
1.18600	2
1.18967	2
1.19333	2
1.19700	2
1.20067	2
1.20433	2
1.20800	2
1.21167	2
1.21533	2
1.21900	2
1.22267	2
1.22633	2
1.23000	2
1.23367	2
1.23733	2
1.24100	2
1.24467	2
1.24833	2
1.25200	1
1.25567	1
1.25933	1
1.26300	1
1.26667	1
1.27033	1
1.27400	1
1.27767	1
1.28133	1
1.28500	0
1.28867	0
1.29233	0
1.29600	-0
1.29967	-0
1.30333	-0
1.30700	-1
1.31067	-1
1.31433	-1
1.31800	-1
1.32167	-1
1.32533	-1
1.32900	-2
1.33267	-2
1.33633	-2
1.34000	-2
1.34367	-2
1.34733	-2
1.35100	-2
1.35467	-2
1.35833	-2
1.36200	-2
1.36567	-2
1.36933	-1
1.37300	-1
1.37667	-1
1.38033	-1
1.38400	-1
1.38767	-1
1.39133	-1
1.39500	-1
1.39867	-1
1.40233	-1
1.40600	-2
1.40967	-2
1.41333	-2
1.41700	-2
1.42067	-2
1.42433	-2
1.42800	-2
1.43167	-2
1.43533	-2
1.43900	-1
1.44267	-1
1.44633	-1
1.45000	-1
1.45367	-1
1.45733	-1
1.46100	-1
1.46467	-1
1.46833	-1
1.47200	-1
1.47567	-1
1.47933	-1
1.48300	-1
1.48667	-1
1.49033	-1
1.49400	-1
1.49767	-1
1.50133	-1
1.50500	-1
1.50867	-1
1.51233	-1
1.51600	-1
1.51967	-1
1.52333	-2
1.52700	-2
1.53067	-2
1.53433	-2
1.53800	-3
1.54167	-3
1.54533	-3
1.54900	-3
1.55267	-3
1.55633	-2
1.56000	-2
1.56367	-2
1.56733	-2
1.57100	-3
1.57467	-3
1.57833	-3
1.58200	-3
1.58567	-3
1.58933	-3
1.59300	-3
1.59667	-3
1.60033	-4
1.60400	-5
1.60767	-6
1.61133	-7
1.61500	-9
1.61867	-12
1.62233	-15
1.62600	-18
1.62967	-21
1.63333	-24
1.63700	-28
1.64067	-31
1.64433	-35
1.64800	-38
1.65167	-42
1.65533	-46
1.65900	-50
1.66267	-54
1.66633	-58
1.67000	-62
1.67367	-67
1.67733	-72
1.68100	-77
1.68467	-82
1.68833	-87
1.69200	-91
1.69567	-94
1.69933	-98
1.70300	-100
1.70667	-103
1.71033	-105
1.71400	-106
1.71767	-108
1.72133	-109
1.72500	-110
1.72867	-111
1.73233	-111
1.73600	-111
1.73967	-110
1.74333	-110
1.74700	-109
1.75067	-109
1.75433	-109
1.75800	-109
1.76167	-109
1.76533	-110
1.76900	-111
1.77267	-112
1.77633	-114
1.78000	-115
1.78367	-115
1.78733	-116
1.79100	-117
1.79467	-117
1.79833	-118
1.80200	-118
1.80567	-119
1.80933	-119
1.81300	-119
1.81667	-119
1.82033	-119
1.82400	-119
1.82767	-119
1.83133	-119
1.83500	-119
1.83867	-120
1.84233	-120
1.84600	-120
1.84967	-121
1.85333	-121
1.85700	-121
1.86067	-120
1.86433	-120
1.86800	-119
1.87167	-119
1.87533	-118
1.87900	-118
1.88267	-118
1.88633	-118
1.89000	-118
1.89367	-118
1.89733	-119
1.90100	-119
1.90467	-119
1.90833	-119
1.91200	-119
1.91567	-119
1.91933	-119
1.92300	-119
1.92667	-118
1.93033	-118
1.93400	-117
1.93767	-117
1.94133	-117
1.94500	-116
1.94867	-116
1.95233	-116
1.95600	-116
1.95967	-116
1.96333	-116
1.96700	-116
1.97067	-116
1.97433	-115
1.97800	-115
1.98167	-115
1.98533	-115
1.98900	-115
1.99267	-115
1.99633	-115
2.00000	-115
2.00367	-115
2.00733	-115
2.01100	-114
2.01467	-113
2.01833	-112
2.02200	-111
2.02567	-110
2.02933	-109
2.03300	-109
2.03667	-109
2.04033	-109
2.04400	-109
2.04767	-109
2.05133	-109
2.05500	-109
2.05867	-109
2.06233	-109
2.06600	-109
2.06967	-108
2.07333	-107
2.07700	-107
2.08067	-106
2.08433	-105
2.08800	-105
2.09167	-104
2.09533	-104
2.09900	-103
2.10267	-102
2.10633	-102
2.11000	-101
2.11367	-100
2.11733	-99
2.12100	-99
2.12467	-99
2.12833	-99
2.13200	-99
2.13567	-100
2.13933	-100
2.14300	-101
2.14667	-101
2.15033	-101
2.15400	-101
2.15767	-101
2.16133	-101
2.16500	-100
2.16867	-100
2.17233	-99
2.17600	-99
2.17967	-98
2.18333	-98
2.18700	-97
2.19067	-97
2.19433	-96
2.19800	-96
2.20167	-95
2.20533	-95
2.20900	-94
2.21267	-94
2.21633	-93
2.22000	-92
2.22367	-92
2.22733	-91
2.23100	-91
2.23467	-91
2.23833	-90
2.24200	-90
2.24567	-89
2.24933	-89
2.25300	-89
2.25667	-89
2.26033	-89
2.26400	-91
2.26767	-91
2.27133	-92
2.27500	-92
2.27867	-93
2.28233	-92
2.28600	-92
2.28967	-92
2.29333	-92
2.29700	-91
2.30067	-91
2.30433	-90
2.30800	-89
2.31167	-88
2.31533	-88
2.31900	-87
2.32267	-87
2.32633	-87
2.33000	-86
2.33367	-86
2.33733	-85
2.34100	-84
2.34467	-84
2.34833	-83
2.35200	-83
2.35567	-83
2.35933	-84
2.36300	-84
2.36667	-84
2.37033	-83
2.37400	-82
2.37767	-80
2.38133	-78
2.38500	-75
2.38867	-71
2.39233	-67
2.39600	-63
2.39967	-59
2.40333	-54
2.40700	-49
2.41067	-44
2.41433	-40
2.41800	-35
2.42167	-31
2.42533	-27
2.42900	-24
2.43267	-21
2.43633	-18
2.44000	-16
2.44367	-13
2.44733	-11
2.45100	-9
2.45467	-7
2.45833	-6
2.46200	-4
2.46567	-3
2.46933	-2
2.47300	-0
2.47667	1
2.48033	2
2.48400	3
2.48767	3
2.49133	4
2.49500	4
2.49867	5
2.50233	6
2.50600	7
2.50967	7
2.51333	8
2.51700	8
2.52067	8
2.52433	9
2.52800	10
2.53167	11
2.53533	11
2.53900	12
2.54267	13
2.54633	14
2.55000	14
2.55367	15
2.55733	15
2.56100	16
2.56467	16
2.56833	17
2.57200	17
2.57567	17
2.57933	17
2.58300	17
2.58667	17
2.59033	17
2.59400	16
2.59767	16
2.60133	16
2.60500	17
2.60867	17
2.61233	17
2.61600	18
2.61967	18
2.62333	19
2.62700	19
2.63067	19
2.63433	19
2.63800	20
2.64167	20
2.64533	19
2.64900	19
2.65267	19
2.65633	19
2.66000	19
2.66367	19
2.66733	19
2.67100	20
2.67467	20
2.67833	20
2.68200	20
2.68567	21
2.68933	21
2.69300	22
2.69667	22
2.70033	23
2.70400	23
2.70767	23
2.71133	24
2.71500	24
2.71867	25
2.72233	25
2.72600	24
2.72967	24
2.73333	23
2.73700	23
2.74067	22
2.74433	22
2.74800	22
2.75167	22
2.75533	22
2.75900	22
2.76267	23
2.76633	23
2.77000	23
2.77367	24
2.77733	24
2.78100	24
2.78467	24
2.78833	25
2.79200	25
2.79567	25
2.79933	25
2.80300	25
2.80667	25
2.81033	25
2.81400	25
2.81767	25
2.82133	25
2.82500	25
2.82867	25
2.83233	25
2.83600	25
2.83967	25
2.84333	25
2.84700	24
2.85067	23
2.85433	21
2.85800	17
2.86167	11
2.86533	1
2.86900	-11
2.87267	-28
2.87633	-48
2.88000	-73
2.88367	-102
2.88733	-134
2.89100	-170
2.89467	-209
2.89833	-251
2.90200	-296
2.90567	-342
2.90933	-390
2.91300	-440
2.91667	-490
2.92033	-540
2.92400	-590
2.92767	-640
2.93133	-689
2.93500	-738
2.93867	-786
2.94233	-837
2.94600	-893
2.94967	-954
2.95333	-1013
2.95700	-1059
2.96067	-1082
2.96433	-1079
2.96800	-1051
2.97167	-1002
2.97533	-937
2.97900	-863
2.98267	-784
2.98633	-704
2.99000	-626
2.99367	-553
2.99733	-484
3.00100	-422
3.00467	-365
3.00833	-315
3.01200	-270
3.01567	-231
3.01933	-197
3.02300	-167
3.02667	-141
3.03033	-119
3.03400	-100
3.03767	-83
3.04133	-69
3.04500	-56
3.04867	-46
3.05233	-37
3.05600	-30
3.05967	-23
3.06333	-18
3.06700	-13
3.07067	-9
3.07433	-6
3.07800	-3
3.08167	0
3.08533	2
3.08900	4
3.09267	6
3.09633	7
3.10000	8
3.10367	9
3.10733	10
3.11100	11
3.11467	11
3.11833	12
3.12200	13
3.12567	13
3.12933	14
3.13300	14
3.13667	15
3.14033	15
3.14400	15
3.14767	16
3.15133	16
3.15500	16
3.15867	17
3.16233	17
3.16600	18
3.16967	18
3.17333	19
3.17700	19
3.18067	20
3.18433	20
3.18800	21
3.19167	21
3.19533	21
3.19900	21
3.20267	21
3.20633	21
3.21000	22
3.21367	22
3.21733	22
3.22100	22
3.22467	22
3.22833	22
3.23200	23
3.23567	23
3.23933	23
3.24300	23
3.24667	23
3.25033	23
3.25400	24
3.25767	24
3.26133	24
3.26500	24
3.26867	24
3.27233	24
3.27600	24
3.27967	24
3.28333	24
3.28700	24
3.29067	24
3.29433	24
3.29800	24
3.30167	24
3.30533	24
3.30900	24
3.31267	24
3.31633	25
3.32000	25
3.32367	25
3.32733	25
3.33100	25
3.33467	25
3.33833	25
3.34200	25
3.34567	25
3.34933	25
3.35300	25
3.35667	25
3.36033	25
3.36400	25
3.36767	25
3.37133	25
3.37500	25
3.37867	25
3.38233	25
3.38600	25
3.38967	24
3.39333	24
3.39700	24
3.40067	24
3.40433	24
3.40800	24
3.41167	25
3.41533	25
3.41900	25
3.42267	25
3.42633	25
3.43000	25
3.43367	26
3.43733	26
3.44100	26
3.44467	26
3.44833	26
3.45200	26
3.45567	26
3.45933	27
3.46300	27
3.46667	27
3.47033	27
3.47400	27
3.47767	27
3.48133	26
3.48500	26
3.48867	26
3.49233	26
3.49600	26
3.49967	26
3.50333	26
3.50700	26
3.51067	26
3.51433	26
3.51800	26
3.52167	26
3.52533	26
3.52900	26
3.53267	26
3.53633	26
3.54000	26
3.54367	26
3.54733	26
3.55100	27
3.55467	27
3.55833	27
3.56200	27
3.56567	28
3.56933	28
3.57300	28
3.57667	28
3.58033	28
3.58400	28
3.58767	28
3.59133	28
3.59500	28
3.59867	28
3.60233	28
3.60600	28
3.60967	28
3.61333	28
3.61700	28
3.62067	28
3.62433	28
3.62800	28
3.63167	28
3.63533	28
3.63900	28
3.64267	28
3.64633	28
3.65000	28
3.65367	28
3.65733	28
3.66100	27
3.66467	27
3.66833	27
3.67200	27
3.67567	27
3.67933	27
3.68300	27
3.68667	27
3.69033	27
3.69400	27
3.69767	27
3.70133	27
3.70500	27
3.70867	27
3.71233	27
3.71600	27
3.71967	27
3.72333	27
3.72700	27
3.73067	27
3.73433	27
3.73800	27
3.74167	27
3.74533	27
3.74900	27
3.75267	27
3.75633	27
3.76000	27
3.76367	27
3.76733	26
3.77100	26
3.77467	26
3.77833	26
3.78200	26
3.78567	26
3.78933	26
3.79300	27
3.79667	27
3.80033	27
3.80400	27
3.80767	27
3.81133	27
3.81500	27
3.81867	28
3.82233	28
3.82600	28
3.82967	28
3.83333	28
3.83700	28
3.84067	28
3.84433	28
3.84800	28
3.85167	28
3.85533	28
3.85900	28
3.86267	28
3.86633	28
3.87000	27
3.87367	27
3.87733	27
3.88100	27
3.88467	26
3.88833	26
3.89200	26
3.89567	26
3.89933	26
3.90300	25
3.90667	25
3.91033	25
3.91400	25
3.91767	25
3.92133	24
3.92500	24
3.92867	25
3.93233	25
3.93600	25
3.93967	25
3.94333	25
3.94700	25
3.95067	26
3.95433	26
3.95800	26
3.96167	26
3.96533	26
3.96900	26
3.97267	26
3.97633	26
3.98000	27
3.98367	27
3.98733	27
3.99100	27
3.99467	27
3.99833	27

[Chromatogram (Ch3)]
Interval(msec)	220
# of Points	1091
Start Time(min)	0.002
End Time(min)	3.998
R.Time (min)	Intensity
0.00167	-0
0.00533	-0
0.00900	1
0.01267	2
0.01633	4
0.02000	6
0.02367	8
0.02733	9
0.03100	8
0.03467	7
0.03833	6
0.04200	5
0.04567	4
0.04933	3
0.05300	3
0.05667	4
0.06033	5
0.06400	3
0.06767	-0
0.07133	-3
0.07500	-4
0.07867	-5
0.08233	-3
0.08600	-2
0.08967	1
0.09333	4
0.09700	4
0.10067	3
0.10433	5
0.10800	7
0.11167	10
0.11533	14
0.11900	13
0.12267	9
0.12633	7
0.13000	5
0.13367	4
0.13733	6
0.14100	9
0.14467	9
0.14833	10
0.15200	11
0.15567	11
0.15933	10
0.16300	10
0.16667	11
0.17033	11
0.17400	12
0.17767	12
0.18133	12
0.18500	13
0.18867	13
0.19233	14
0.19600	15
0.19967	16
0.20333	15
0.20700	16
0.21067	15
0.21433	14
0.21800	14
0.22167	13
0.22533	13
0.22900	14
0.23267	13
0.23633	14
0.24000	15
0.24367	15
0.24733	16
0.25100	17
0.25467	18
0.25833	19
0.26200	20
0.26567	20
0.26933	20
0.27300	19
0.27667	23
0.28033	25
0.28400	26
0.28767	28
0.29133	28
0.29500	28
0.29867	26
0.30233	24
0.30600	24
0.30967	25
0.31333	25
0.31700	24
0.32067	21
0.32433	21
0.32800	22
0.33167	22
0.33533	24
0.33900	26
0.34267	25
0.34633	25
0.35000	26
0.35367	28
0.35733	28
0.36100	30
0.36467	31
0.36833	30
0.37200	32
0.37567	33
0.37933	32
0.38300	31
0.38667	31
0.39033	30
0.39400	28
0.39767	27
0.40133	29
0.40500	31
0.40867	30
0.41233	31
0.41600	34
0.41967	35
0.42333	35
0.42700	35
0.43067	36
0.43433	37
0.43800	38
0.44167	39
0.44533	40
0.44900	39
0.45267	38
0.45633	37
0.46000	36
0.46367	36
0.46733	36
0.47100	34
0.47467	33
0.47833	32
0.48200	31
0.48567	30
0.48933	29
0.49300	30
0.49667	31
0.50033	34
0.50400	37
0.50767	39
0.51133	41
0.51500	39
0.51867	35
0.52233	34
0.52600	36
0.52967	37
0.53333	37
0.53700	37
0.54067	35
0.54433	31
0.54800	31
0.55167	32
0.55533	35
0.55900	36
0.56267	37
0.56633	37
0.57000	36
0.57367	35
0.57733	34
0.58100	35
0.58467	37
0.58833	38
0.59200	39
0.59567	38
0.59933	38
0.60300	38
0.60667	39
0.61033	39
0.61400	40
0.61767	40
0.62133	43
0.62500	46
0.62867	47
0.63233	48
0.63600	48
0.63967	46
0.64333	43
0.64700	42
0.65067	42
0.65433	43
0.65800	43
0.66167	42
0.66533	44
0.66900	45
0.67267	42
0.67633	42
0.68000	44
0.68367	44
0.68733	44
0.69100	45
0.69467	46
0.69833	46
0.70200	48
0.70567	51
0.70933	50
0.71300	50
0.71667	50
0.72033	48
0.72400	46
0.72767	45
0.73133	44
0.73500	44
0.73867	44
0.74233	44
0.74600	42
0.74967	40
0.75333	41
0.75700	43
0.76067	45
0.76433	46
0.76800	46
0.77167	47
0.77533	47
0.77900	47
0.78267	45
0.78633	45
0.79000	48
0.79367	49
0.79733	51
0.80100	53
0.80467	53
0.80833	53
0.81200	52
0.81567	53
0.81933	52
0.82300	49
0.82667	49
0.83033	50
0.83400	51
0.83767	53
0.84133	54
0.84500	54
0.84867	54
0.85233	51
0.85600	50
0.85967	53
0.86333	55
0.86700	53
0.87067	51
0.87433	48
0.87800	48
0.88167	49
0.88533	51
0.88900	53
0.89267	54
0.89633	57
0.90000	58
0.90367	57
0.90733	57
0.91100	55
0.91467	53
0.91833	54
0.92200	55
0.92567	57
0.92933	60
0.93300	60
0.93667	58
0.94033	58
0.94400	60
0.94767	61
0.95133	60
0.95500	58
0.95867	56
0.96233	55
0.96600	54
0.96967	52
0.97333	51
0.97700	52
0.98067	54
0.98433	54
0.98800	53
0.99167	53
0.99533	50
0.99900	49
1.00267	53
1.00633	56
1.01000	58
1.01367	58
1.01733	56
1.02100	54
1.02467	54
1.02833	56
1.03200	58
1.03567	59
1.03933	60
1.04300	63
1.04667	61
1.05033	59
1.05400	59
1.05767	60
1.06133	60
1.06500	60
1.06867	60
1.07233	62
1.07600	62
1.07967	61
1.08333	59
1.08700	59
1.09067	63
1.09433	68
1.09800	72
1.10167	71
1.10533	69
1.10900	67
1.11267	67
1.11633	66
1.12000	66
1.12367	66
1.12733	67
1.13100	69
1.13467	70
1.13833	71
1.14200	73
1.14567	73
1.14933	73
1.15300	74
1.15667	74
1.16033	73
1.16400	72
1.16767	72
1.17133	72
1.17500	71
1.17867	70
1.18233	71
1.18600	71
1.18967	70
1.19333	69
1.19700	70
1.20067	71
1.20433	73
1.20800	75
1.21167	75
1.21533	73
1.21900	70
1.22267	68
1.22633	67
1.23000	67
1.23367	69
1.23733	68
1.24100	66
1.24467	64
1.24833	64
1.25200	66
1.25567	68
1.25933	71
1.26300	72
1.26667	73
1.27033	73
1.27400	75
1.27767	76
1.28133	76
1.28500	75
1.28867	76
1.29233	75
1.29600	76
1.29967	78
1.30333	78
1.30700	77
1.31067	76
1.31433	75
1.31800	73
1.32167	71
1.32533	70
1.32900	71
1.33267	70
1.33633	70
1.34000	72
1.34367	73
1.34733	73
1.35100	73
1.35467	72
1.35833	71
1.36200	72
1.36567	72
1.36933	72
1.37300	74
1.37667	74
1.38033	73
1.38400	74
1.38767	76
1.39133	77
1.39500	77
1.39867	78
1.40233	78
1.40600	79
1.40967	77
1.41333	76
1.41700	75
1.42067	73
1.42433	74
1.42800	77
1.43167	78
1.43533	78
1.43900	80
1.44267	82
1.44633	81
1.45000	82
1.45367	80
1.45733	79
1.46100	79
1.46467	78
1.46833	78
1.47200	78
1.47567	81
1.47933	82
1.48300	81
1.48667	80
1.49033	80
1.49400	80
1.49767	78
1.50133	78
1.50500	79
1.50867	79
1.51233	77
1.51600	76
1.51967	75
1.52333	76
1.52700	77
1.53067	75
1.53433	73
1.53800	74
1.54167	74
1.54533	74
1.54900	75
1.55267	75
1.55633	78
1.56000	82
1.56367	82
1.56733	80
1.57100	79
1.57467	79
1.57833	79
1.58200	78
1.58567	78
1.58933	80
1.59300	82
1.59667	82
1.60033	82
1.60400	79
1.60767	79
1.61133	79
1.61500	79
1.61867	80
1.62233	80
1.62600	79
1.62967	79
1.63333	81
1.63700	84
1.64067	87
1.64433	88
1.64800	88
1.65167	86
1.65533	83
1.65900	83
1.66267	82
1.66633	82
1.67000	85
1.67367	86
1.67733	88
1.68100	89
1.68467	93
1.68833	94
1.69200	94
1.69567	96
1.69933	96
1.70300	96
1.70667	95
1.71033	95
1.71400	97
1.71767	99
1.72133	100
1.72500	103
1.72867	107
1.73233	109
1.73600	108
1.73967	105
1.74333	103
1.74700	103
1.75067	104
1.75433	106
1.75800	106
1.76167	108
1.76533	110
1.76900	112
1.77267	112
1.77633	113
1.78000	116
1.78367	120
1.78733	121
1.79100	121
1.79467	120
1.79833	122
1.80200	124
1.80567	124
1.80933	122
1.81300	122
1.81667	122
1.82033	123
1.82400	123
1.82767	123
1.83133	123
1.83500	124
1.83867	124
1.84233	125
1.84600	127
1.84967	126
1.85333	126
1.85700	126
1.86067	127
1.86433	127
1.86800	129
1.87167	128
1.87533	125
1.87900	122
1.88267	119
1.88633	118
1.89000	118
1.89367	119
1.89733	121
1.90100	122
1.90467	124
1.90833	127
1.91200	129
1.91567	129
1.91933	130
1.92300	131
1.92667	133
1.93033	135
1.93400	137
1.93767	137
1.94133	134
1.94500	131
1.94867	131
1.95233	135
1.95600	139
1.95967	140
1.96333	141
1.96700	143
1.97067	144
1.97433	145
1.97800	147
1.98167	148
1.98533	149
1.98900	150
1.99267	152
1.99633	151
2.00000	151
2.00367	154
2.00733	158
2.01100	158
2.01467	158
2.01833	157
2.02200	159
2.02567	162
2.02933	162
2.03300	164
2.03667	167
2.04033	168
2.04400	168
2.04767	171
2.05133	174
2.05500	176
2.05867	177
2.06233	177
2.06600	176
2.06967	177
2.07333	179
2.07700	181
2.08067	183
2.08433	182
2.08800	181
2.09167	181
2.09533	182
2.09900	184
2.10267	186
2.10633	189
2.11000	190
2.11367	193
2.11733	197
2.12100	198
2.12467	200
2.12833	200
2.13200	201
2.13567	202
2.13933	204
2.14300	205
2.14667	204
2.15033	204
2.15400	204
2.15767	205
2.16133	207
2.16500	207
2.16867	206
2.17233	208
2.17600	210
2.17967	212
2.18333	214
2.18700	217
2.19067	218
2.19433	219
2.19800	217
2.20167	217
2.20533	217
2.20900	219
2.21267	220
2.21633	223
2.22000	226
2.22367	228
2.22733	227
2.23100	225
2.23467	223
2.23833	224
2.24200	224
2.24567	224
2.24933	225
2.25300	227
2.25667	229
2.26033	229
2.26400	228
2.26767	227
2.27133	228
2.27500	230
2.27867	232
2.28233	232
2.28600	232
2.28967	231
2.29333	230
2.29700	230
2.30067	230
2.30433	231
2.30800	234
2.31167	238
2.31533	242
2.31900	243
2.32267	244
2.32633	245
2.33000	244
2.33367	243
2.33733	243
2.34100	243
2.34467	244
2.34833	244
2.35200	245
2.35567	248
2.35933	249
2.36300	250
2.36667	250
2.37033	249
2.37400	248
2.37767	251
2.38133	252
2.38500	252
2.38867	252
2.39233	253
2.39600	252
2.39967	251
2.40333	251
2.40700	252
2.41067	251
2.41433	251
2.41800	251
2.42167	251
2.42533	252
2.42900	251
2.43267	252
2.43633	254
2.44000	257
2.44367	266
2.44733	285
2.45100	308
2.45467	325
2.45833	329
2.46200	322
2.46567	309
2.46933	296
2.47300	285
2.47667	276
2.48033	269
2.48400	261
2.48767	252
2.49133	240
2.49500	231
2.49867	222
2.50233	214
2.50600	208
2.50967	205
2.51333	203
2.51700	200
2.52067	195
2.52433	191
2.52800	187
2.53167	183
2.53533	180
2.53900	175
2.54267	169
2.54633	165
2.55000	160
2.55367	154
2.55733	149
2.56100	145
2.56467	141
2.56833	136
2.57200	135
2.57567	133
2.57933	128
2.58300	122
2.58667	118
2.59033	118
2.59400	116
2.59767	112
2.60133	106
2.60500	96
2.60867	80
2.61233	56
2.61600	25
2.61967	-11
2.62333	-54
2.62700	-96
2.63067	-135
2.63433	-172
2.63800	-204
2.64167	-231
2.64533	-251
2.64900	-264
2.65267	-271
2.65633	-275
2.66000	-274
2.66367	-270
2.66733	-264
2.67100	-258
2.67467	-253
2.67833	-247
2.68200	-238
2.68567	-228
2.68933	-220
2.69300	-211
2.69667	-202
2.70033	-193
2.70400	-183
2.70767	-173
2.71133	-164
2.71500	-156
2.71867	-151
2.72233	-146
2.72600	-141
2.72967	-134
2.73333	-124
2.73700	-122
2.74067	-159
2.74433	-201
2.74800	-205
2.75167	-168
2.75533	-106
2.75900	-31
2.76267	48
2.76633	125
2.77000	195
2.77367	258
2.77733	312
2.78100	366
2.78467	420
2.78833	474
2.79200	528
2.79567	578
2.79933	625
2.80300	665
2.80667	701
2.81033	732
2.81400	759
2.81767	784
2.82133	806
2.82500	827
2.82867	847
2.83233	871
2.83600	908
2.83967	975
2.84333	1095
2.84700	1288
2.85067	1576
2.85433	1973
2.85800	2481
2.86167	3075
2.86533	3717
2.86900	4362
2.87267	4957
2.87633	5456
2.88000	5817
2.88367	6021
2.88733	6073
2.89100	5982
2.89467	5778
2.89833	5491
2.90200	5153
2.90567	4787
2.90933	4413
2.91300	4042
2.91667	3684
2.92033	3353
2.92400	3055
2.92767	2784
2.93133	2544
2.93500	2328
2.93867	2136
2.94233	1969
2.94600	1821
2.94967	1692
2.95333	1580
2.95700	1484
2.96067	1402
2.96433	1329
2.96800	1266
2.97167	1210
2.97533	1161
2.97900	1118
2.98267	1083
2.98633	1054
2.99000	1026
2.99367	1004
2.99733	986
3.00100	970
3.00467	955
3.00833	944
3.01200	936
3.01567	928
3.01933	919
3.02300	909
3.02667	902
3.03033	899
3.03400	894
3.03767	888
3.04133	883
3.04500	880
3.04867	876
3.05233	874
3.05600	872
3.05967	868
3.06333	866
3.06700	863
3.07067	860
3.07433	857
3.07800	852
3.08167	845
3.08533	840
3.08900	836
3.09267	834
3.09633	834
3.10000	831
3.10367	826
3.10733	825
3.11100	825
3.11467	825
3.11833	823
3.12200	820
3.12567	818
3.12933	815
3.13300	812
3.13667	808
3.14033	803
3.14400	801
3.14767	799
3.15133	797
3.15500	797
3.15867	796
3.16233	793
3.16600	790
3.16967	787
3.17333	782
3.17700	778
3.18067	773
3.18433	771
3.18800	771
3.19167	770
3.19533	769
3.19900	768
3.20267	768
3.20633	767
3.21000	766
3.21367	764
3.21733	762
3.22100	757
3.22467	751
3.22833	747
3.23200	742
3.23567	739
3.23933	736
3.24300	733
3.24667	730
3.25033	726
3.25400	723
3.25767	719
3.26133	716
3.26500	714
3.26867	710
3.27233	707
3.27600	704
3.27967	701
3.28333	698
3.28700	694
3.29067	693
3.29433	689
3.29800	685
3.30167	680
3.30533	679
3.30900	677
3.31267	674
3.31633	671
3.32000	667
3.32367	665
3.32733	661
3.33100	658
3.33467	655
3.33833	650
3.34200	646
3.34567	643
3.34933	642
3.35300	643
3.35667	641
3.36033	637
3.36400	631
3.36767	626
3.37133	619
3.37500	614
3.37867	611
3.38233	609
3.38600	605
3.38967	602
3.39333	601
3.39700	599
3.40067	599
3.40433	597
3.40800	591
3.41167	583
3.41533	579
3.41900	576
3.42267	576
3.42633	574
3.43000	570
3.43367	564
3.43733	560
3.44100	558
3.44467	555
3.44833	553
3.45200	550
3.45567	547
3.45933	543
3.46300	541
3.46667	542
3.47033	541
3.47400	541
3.47767	540
3.48133	536
3.48500	532
3.48867	528
3.49233	525
3.49600	521
3.49967	519
3.50333	518
3.50700	520
3.51067	520
3.51433	518
3.51800	516
3.52167	511
3.52533	507
3.52900	505
3.53267	505
3.53633	502
3.54000	497
3.54367	495
3.54733	493
3.55100	490
3.55467	488
3.55833	484
3.56200	480
3.56567	477
3.56933	475
3.57300	473
3.57667	470
3.58033	469
3.58400	470
3.58767	469
3.59133	468
3.59500	466
3.59867	463
3.60233	461
3.60600	459
3.60967	456
3.61333	450
3.61700	447
3.62067	446
3.62433	443
3.62800	442
3.63167	440
3.63533	438
3.63900	435
3.64267	432
3.64633	431
3.65000	430
3.65367	430
3.65733	430
3.66100	431
3.66467	429
3.66833	425
3.67200	420
3.67567	416
3.67933	413
3.68300	410
3.68667	410
3.69033	412
3.69400	412
3.69767	409
3.70133	405
3.70500	400
3.70867	398
3.71233	398
3.71600	398
3.71967	396
3.72333	391
3.72700	389
3.73067	390
3.73433	390
3.73800	388
3.74167	387
3.74533	388
3.74900	388
3.75267	387
3.75633	384
3.76000	382
3.76367	381
3.76733	381
3.77100	380
3.77467	380
3.77833	380
3.78200	379
3.78567	377
3.78933	375
3.79300	371
3.79667	372
3.80033	374
3.80400	373
3.80767	369
3.81133	367
3.81500	363
3.81867	362
3.82233	362
3.82600	363
3.82967	362
3.83333	361
3.83700	356
3.84067	352
3.84433	349
3.84800	347
3.85167	345
3.85533	344
3.85900	342
3.86267	341
3.86633	338
3.87000	337
3.87367	338
3.87733	338
3.88100	339
3.88467	337
3.88833	335
3.89200	335
3.89567	335
3.89933	335
3.90300	330
3.90667	328
3.91033	327
3.91400	327
3.91767	327
3.92133	326
3.92500	326
3.92867	325
3.93233	322
3.93600	320
3.93967	317
3.94333	315
3.94700	313
3.95067	312
3.95433	311
3.95800	311
3.96167	311
3.96533	310
3.96900	310
3.97267	307
3.97633	306
3.98000	306
3.98367	306
3.98733	305
3.99100	303
3.99467	302
3.99833	302

[Status Trace (Column Oven Temperature)]
Interval(msec)	1000
# of Points	240
Start Time(min)	0.008
End Time(min)	3.992
Intensity Units	
Intensity Multiplier	1
R.Time (min)	Intensity
0.00847	35.02
0.02513	35.03
0.04180	35.04
0.05847	35.05
0.07513	35.05
0.09180	35.06
0.10847	35.07
0.12513	35.07
0.14180	35.09
0.15847	35.10
0.17513	35.09
0.19180	35.07
0.20847	35.06
0.22513	35.04
0.24180	35.02
0.25847	35.01
0.27513	35.00
0.29180	34.98
0.30847	34.97
0.32513	34.97
0.34180	34.98
0.35847	34.98
0.37513	34.98
0.39180	34.98
0.40847	34.98
0.42513	34.98
0.44180	34.98
0.45847	34.98
0.47513	34.97
0.49180	34.96
0.50847	34.96
0.52513	34.95
0.54180	34.96
0.55847	34.96
0.57513	34.98
0.59180	34.99
0.60847	34.99
0.62513	34.98
0.64180	34.97
0.65847	34.97
0.67513	34.97
0.69180	34.97
0.70847	34.97
0.72513	34.96
0.74180	34.98
0.75847	34.99
0.77513	34.98
0.79180	34.98
0.80847	34.99
0.82513	34.99
0.84180	35.00
0.85847	35.01
0.87513	35.01
0.89180	35.02
0.90847	35.02
0.92513	35.01
0.94180	35.01
0.95847	34.99
0.97513	34.99
0.99180	34.98
1.00847	34.99
1.02513	34.99
1.04180	35.01
1.05847	35.02
1.07513	35.02
1.09180	35.02
1.10847	35.02
1.12513	35.01
1.14180	35.00
1.15847	34.99
1.17513	34.98
1.19180	34.98
1.20847	34.97
1.22513	34.96
1.24180	34.96
1.25847	34.96
1.27513	34.96
1.29180	34.97
1.30847	34.97
1.32513	34.98
1.34180	34.99
1.35847	34.98
1.37513	34.98
1.39180	34.99
1.40847	34.99
1.42513	34.98
1.44180	34.98
1.45847	34.98
1.47513	34.98
1.49180	34.98
1.50847	34.97
1.52513	34.97
1.54180	34.97
1.55847	34.98
1.57513	34.98
1.59180	35.01
1.60847	35.06
1.62513	35.20
1.64180	35.40
1.65847	35.66
1.67513	36.00
1.69180	36.37
1.70847	36.72
1.72513	37.06
1.74180	37.35
1.75847	37.67
1.77513	38.02
1.79180	38.36
1.80847	38.70
1.82513	39.02
1.84180	39.37
1.85847	39.69
1.87513	40.00
1.89180	40.35
1.90847	40.67
1.92513	41.00
1.94180	41.33
1.95847	41.66
1.97513	41.98
1.99180	42.32
2.00847	42.63
2.02513	42.95
2.04180	43.27
2.05847	43.61
2.07513	43.93
2.09180	44.25
2.10847	44.56
2.12513	44.87
2.14180	45.22
2.15847	45.54
2.17513	45.86
2.19180	46.19
2.20847	46.52
2.22513	46.85
2.24180	47.17
2.25847	47.52
2.27513	47.86
2.29180	48.20
2.30847	48.51
2.32513	48.84
2.34180	49.14
2.35847	49.48
2.37513	49.69
2.39180	49.76
2.40847	49.76
2.42513	49.77
2.44180	49.77
2.45847	49.78
2.47513	49.78
2.49180	49.79
2.50847	49.79
2.52513	49.80
2.54180	49.80
2.55847	49.80
2.57513	49.81
2.59180	49.82
2.60847	49.82
2.62513	49.83
2.64180	49.84
2.65847	49.85
2.67513	49.86
2.69180	49.86
2.70847	49.84
2.72513	49.86
2.74180	49.89
2.75847	49.89
2.77513	49.89
2.79180	49.90
2.80847	49.89
2.82513	49.90
2.84180	49.92
2.85847	49.94
2.87513	49.96
2.89180	49.99
2.90847	50.00
2.92513	50.00
2.94180	50.01
2.95847	50.02
2.97513	50.03
2.99180	50.04
3.00847	50.05
3.02513	50.06
3.04180	50.06
3.05847	50.07
3.07513	50.07
3.09180	50.07
3.10847	50.09
3.12513	50.09
3.14180	50.10
3.15847	50.10
3.17513	50.09
3.19180	50.09
3.20847	50.10
3.22513	50.08
3.24180	50.08
3.25847	50.07
3.27513	50.07
3.29180	50.07
3.30847	50.08
3.32513	50.07
3.34180	50.07
3.35847	50.07
3.37513	50.08
3.39180	50.08
3.40847	50.08
3.42513	50.09
3.44180	50.09
3.45847	50.09
3.47513	50.09
3.49180	50.09
3.50847	50.09
3.52513	50.10
3.54180	50.10
3.55847	50.09
3.57513	50.09
3.59180	50.08
3.60847	50.07
3.62513	50.07
3.64180	50.07
3.65847	50.08
3.67513	50.08
3.69180	50.08
3.70847	50.08
3.72513	50.08
3.74180	50.08
3.75847	50.09
3.77513	50.10
3.79180	50.09
3.80847	50.08
3.82513	50.07
3.84180	50.06
3.85847	50.05
3.87513	50.05
3.89180	50.05
3.90847	50.06
3.92513	50.07
3.94180	50.07
3.95847	50.07
3.97513	50.06
3.99180	50.06

[Status Trace (Injection Unit Temperature)]
Interval(msec)	1000
# of Points	240
Start Time(min)	0.008
End Time(min)	3.992
Intensity Units	
Intensity Multiplier	1
R.Time (min)	Intensity
0.00847	99.97
0.02513	99.98
0.04180	99.98
0.05847	99.98
0.07513	99.98
0.09180	99.98
0.10847	99.98
0.12513	99.98
0.14180	99.98
0.15847	99.98
0.17513	99.97
0.19180	99.98
0.20847	99.98
0.22513	99.98
0.24180	99.98
0.25847	99.98
0.27513	99.98
0.29180	99.98
0.30847	99.98
0.32513	99.98
0.34180	99.98
0.35847	99.98
0.37513	99.98
0.39180	99.98
0.40847	99.98
0.42513	99.98
0.44180	99.97
0.45847	99.98
0.47513	99.98
0.49180	99.98
0.50847	99.98
0.52513	99.98
0.54180	99.98
0.55847	99.98
0.57513	99.98
0.59180	99.98
0.60847	99.98
0.62513	99.98
0.64180	99.98
0.65847	99.98
0.67513	99.98
0.69180	99.98
0.70847	99.98
0.72513	99.98
0.74180	99.98
0.75847	99.98
0.77513	99.98
0.79180	99.98
0.80847	99.98
0.82513	99.99
0.84180	99.98
0.85847	99.98
0.87513	99.98
0.89180	99.98
0.90847	99.98
0.92513	99.98
0.94180	99.98
0.95847	99.98
0.97513	99.99
0.99180	99.98
1.00847	99.98
1.02513	99.99
1.04180	99.98
1.05847	99.98
1.07513	99.99
1.09180	99.98
1.10847	99.98
1.12513	99.98
1.14180	99.98
1.15847	99.98
1.17513	99.98
1.19180	99.98
1.20847	99.98
1.22513	99.99
1.24180	99.98
1.25847	99.98
1.27513	99.99
1.29180	99.99
1.30847	99.99
1.32513	99.98
1.34180	99.99
1.35847	99.98
1.37513	99.98
1.39180	99.98
1.40847	99.99
1.42513	99.99
1.44180	99.99
1.45847	99.99
1.47513	99.98
1.49180	99.99
1.50847	99.98
1.52513	99.99
1.54180	99.98
1.55847	99.99
1.57513	99.99
1.59180	99.99
1.60847	99.99
1.62513	99.99
1.64180	99.98
1.65847	99.99
1.67513	99.99
1.69180	99.99
1.70847	99.99
1.72513	99.98
1.74180	99.99
1.75847	99.99
1.77513	99.99
1.79180	99.98
1.80847	99.99
1.82513	99.98
1.84180	99.98
1.85847	99.98
1.87513	99.98
1.89180	99.98
1.90847	99.98
1.92513	99.98
1.94180	99.98
1.95847	99.98
1.97513	99.98
1.99180	99.98
2.00847	99.98
2.02513	99.97
2.04180	99.98
2.05847	99.97
2.07513	99.97
2.09180	99.98
2.10847	99.97
2.12513	99.97
2.14180	99.97
2.15847	99.97
2.17513	99.97
2.19180	99.98
2.20847	99.97
2.22513	99.97
2.24180	99.97
2.25847	99.97
2.27513	99.97
2.29180	99.96
2.30847	99.97
2.32513	99.97
2.34180	99.97
2.35847	99.97
2.37513	99.97
2.39180	99.97
2.40847	99.97
2.42513	99.97
2.44180	99.97
2.45847	99.97
2.47513	99.97
2.49180	99.97
2.50847	99.97
2.52513	99.98
2.54180	99.98
2.55847	99.97
2.57513	99.97
2.59180	99.97
2.60847	99.98
2.62513	99.97
2.64180	99.98
2.65847	99.98
2.67513	99.98
2.69180	99.98
2.70847	99.98
2.72513	99.99
2.74180	99.99
2.75847	99.99
2.77513	99.99
2.79180	99.99
2.80847	99.99
2.82513	99.99
2.84180	99.99
2.85847	99.99
2.87513	99.99
2.89180	100.00
2.90847	100.00
2.92513	100.00
2.94180	100.00
2.95847	100.00
2.97513	100.00
2.99180	100.01
3.00847	100.01
3.02513	100.01
3.04180	100.01
3.05847	100.01
3.07513	100.01
3.09180	100.01
3.10847	100.01
3.12513	100.02
3.14180	100.02
3.15847	100.01
3.17513	100.02
3.19180	100.02
3.20847	100.02
3.22513	100.02
3.24180	100.02
3.25847	100.02
3.27513	100.02
3.29180	100.02
3.30847	100.02
3.32513	100.02
3.34180	100.03
3.35847	100.02
3.37513	100.03
3.39180	100.03
3.40847	100.03
3.42513	100.03
3.44180	100.03
3.45847	100.03
3.47513	100.03
3.49180	100.03
3.50847	100.03
3.52513	100.03
3.54180	100.03
3.55847	100.04
3.57513	100.03
3.59180	100.04
3.60847	100.03
3.62513	100.04
3.64180	100.04
3.65847	100.03
3.67513	100.04
3.69180	100.04
3.70847	100.04
3.72513	100.04
3.74180	100.04
3.75847	100.04
3.77513	100.04
3.79180	100.04
3.80847	100.04
3.82513	100.04
3.84180	100.04
3.85847	100.04
3.87513	100.04
3.89180	100.04
3.90847	100.04
3.92513	100.04
3.94180	100.04
3.95847	100.04
3.97513	100.04
3.99180	100.04

[Status Trace (Carrier Gas Pressure)]
Interval(msec)	1000
# of Points	240
Start Time(min)	0.008
End Time(min)	3.992
Intensity Units	
Intensity Multiplier	1
R.Time (min)	Intensity
0.00847	58.00
0.02513	55.36
0.04180	57.16
0.05847	59.33
0.07513	59.44
0.09180	58.06
0.10847	57.98
0.12513	58.01
0.14180	58.01
0.15847	58.00
0.17513	58.00
0.19180	58.00
0.20847	58.00
0.22513	58.00
0.24180	58.00
0.25847	58.00
0.27513	58.00
0.29180	58.00
0.30847	58.00
0.32513	58.00
0.34180	58.00
0.35847	58.00
0.37513	58.00
0.39180	58.00
0.40847	58.00
0.42513	58.00
0.44180	58.00
0.45847	58.00
0.47513	58.00
0.49180	58.00
0.50847	58.00
0.52513	58.00
0.54180	58.00
0.55847	58.00
0.57513	58.00
0.59180	58.00
0.60847	58.00
0.62513	58.00
0.64180	58.00
0.65847	58.00
0.67513	58.00
0.69180	58.00
0.70847	58.00
0.72513	58.00
0.74180	58.00
0.75847	58.00
0.77513	58.00
0.79180	58.00
0.80847	58.00
0.82513	58.00
0.84180	58.00
0.85847	58.00
0.87513	58.00
0.89180	58.00
0.90847	58.00
0.92513	58.00
0.94180	58.00
0.95847	58.00
0.97513	58.00
0.99180	58.00
1.00847	58.00
1.02513	58.00
1.04180	58.00
1.05847	58.00
1.07513	58.00
1.09180	58.00
1.10847	58.00
1.12513	58.00
1.14180	58.00
1.15847	58.00
1.17513	58.00
1.19180	58.00
1.20847	58.00
1.22513	58.00
1.24180	58.00
1.25847	58.00
1.27513	58.00
1.29180	58.00
1.30847	58.00
1.32513	58.00
1.34180	58.00
1.35847	58.00
1.37513	58.00
1.39180	58.00
1.40847	58.00
1.42513	58.00
1.44180	58.00
1.45847	58.00
1.47513	58.00
1.49180	58.00
1.50847	58.00
1.52513	58.00
1.54180	58.00
1.55847	58.00
1.57513	58.00
1.59180	58.00
1.60847	58.00
1.62513	58.00
1.64180	58.00
1.65847	58.00
1.67513	58.01
1.69180	58.00
1.70847	58.00
1.72513	58.00
1.74180	58.00
1.75847	58.00
1.77513	58.00
1.79180	58.00
1.80847	58.00
1.82513	58.00
1.84180	58.00
1.85847	58.00
1.87513	58.00
1.89180	58.00
1.90847	58.00
1.92513	58.00
1.94180	58.00
1.95847	58.00
1.97513	58.00
1.99180	58.00
2.00847	58.00
2.02513	58.00
2.04180	58.00
2.05847	58.00
2.07513	58.00
2.09180	58.00
2.10847	58.00
2.12513	58.00
2.14180	58.00
2.15847	58.00
2.17513	58.00
2.19180	58.00
2.20847	58.00
2.22513	58.00
2.24180	58.00
2.25847	58.00
2.27513	58.00
2.29180	58.00
2.30847	58.00
2.32513	58.00
2.34180	58.00
2.35847	58.00
2.37513	58.00
2.39180	57.99
2.40847	57.99
2.42513	58.00
2.44180	58.00
2.45847	58.00
2.47513	58.00
2.49180	58.00
2.50847	58.00
2.52513	57.98
2.54180	58.00
2.55847	58.00
2.57513	58.00
2.59180	58.00
2.60847	58.00
2.62513	58.00
2.64180	58.00
2.65847	58.00
2.67513	58.00
2.69180	58.00
2.70847	58.00
2.72513	58.00
2.74180	58.00
2.75847	58.00
2.77513	58.00
2.79180	58.00
2.80847	58.00
2.82513	58.00
2.84180	58.00
2.85847	58.00
2.87513	58.00
2.89180	58.00
2.90847	58.00
2.92513	58.00
2.94180	58.00
2.95847	58.00
2.97513	58.00
2.99180	58.00
3.00847	58.00
3.02513	58.00
3.04180	58.00
3.05847	58.00
3.07513	58.00
3.09180	58.00
3.10847	58.00
3.12513	58.00
3.14180	58.00
3.15847	58.00
3.17513	58.00
3.19180	58.00
3.20847	58.00
3.22513	58.00
3.24180	58.00
3.25847	58.00
3.27513	58.00
3.29180	58.00
3.30847	58.00
3.32513	58.00
3.34180	58.00
3.35847	58.00
3.37513	58.00
3.39180	58.00
3.40847	58.00
3.42513	58.00
3.44180	58.00
3.45847	58.00
3.47513	58.00
3.49180	58.00
3.50847	58.00
3.52513	58.00
3.54180	58.00
3.55847	58.00
3.57513	58.00
3.59180	58.00
3.60847	58.00
3.62513	58.00
3.64180	58.00
3.65847	58.00
3.67513	58.00
3.69180	58.00
3.70847	58.00
3.72513	58.00
3.74180	58.00
3.75847	58.00
3.77513	58.00
3.79180	58.00
3.80847	58.00
3.82513	58.00
3.84180	58.00
3.85847	58.00
3.87513	58.00
3.89180	58.00
3.90847	58.00
3.92513	58.00
3.94180	58.00
3.95847	58.00
3.97513	58.00
3.99180	58.00

[Status Trace (Carrier Gas Flow)]
Interval(msec)	1000
# of Points	240
Start Time(min)	0.008
End Time(min)	3.992
Intensity Units	
Intensity Multiplier	1
R.Time (min)	Intensity
0.00847	34.51
0.02513	34.53
0.04180	34.55
0.05847	34.55
0.07513	34.49
0.09180	34.52
0.10847	34.52
0.12513	34.52
0.14180	34.52
0.15847	34.52
0.17513	34.52
0.19180	34.52
0.20847	34.52
0.22513	34.52
0.24180	34.52
0.25847	34.52
0.27513	34.52
0.29180	34.52
0.30847	34.52
0.32513	34.52
0.34180	34.52
0.35847	34.52
0.37513	34.52
0.39180	34.52
0.40847	34.52
0.42513	34.52
0.44180	34.52
0.45847	34.52
0.47513	34.52
0.49180	34.52
0.50847	34.52
0.52513	34.52
0.54180	34.52
0.55847	34.52
0.57513	34.52
0.59180	34.52
0.60847	34.52
0.62513	34.52
0.64180	34.52
0.65847	34.52
0.67513	34.52
0.69180	34.52
0.70847	34.52
0.72513	34.52
0.74180	34.52
0.75847	34.52
0.77513	34.52
0.79180	34.52
0.80847	34.52
0.82513	34.52
0.84180	34.52
0.85847	34.52
0.87513	34.52
0.89180	34.52
0.90847	34.52
0.92513	34.52
0.94180	34.52
0.95847	34.52
0.97513	34.52
0.99180	34.52
1.00847	34.52
1.02513	34.52
1.04180	34.52
1.05847	34.52
1.07513	34.52
1.09180	34.52
1.10847	34.52
1.12513	34.52
1.14180	34.52
1.15847	34.52
1.17513	34.52
1.19180	34.52
1.20847	34.52
1.22513	34.52
1.24180	34.53
1.25847	34.52
1.27513	34.52
1.29180	34.52
1.30847	34.52
1.32513	34.52
1.34180	34.52
1.35847	34.52
1.37513	34.52
1.39180	34.52
1.40847	34.52
1.42513	34.51
1.44180	34.52
1.45847	34.52
1.47513	34.52
1.49180	34.51
1.50847	34.52
1.52513	34.52
1.54180	34.51
1.55847	34.52
1.57513	34.52
1.59180	34.52
1.60847	34.52
1.62513	34.52
1.64180	34.52
1.65847	34.52
1.67513	34.52
1.69180	34.52
1.70847	34.51
1.72513	34.52
1.74180	34.51
1.75847	34.51
1.77513	34.51
1.79180	34.52
1.80847	34.53
1.82513	34.51
1.84180	34.51
1.85847	34.52
1.87513	34.52
1.89180	34.52
1.90847	34.53
1.92513	34.52
1.94180	34.54
1.95847	34.52
1.97513	34.53
1.99180	34.53
2.00847	34.52
2.02513	34.52
2.04180	34.51
2.05847	34.52
2.07513	34.51
2.09180	34.51
2.10847	34.50
2.12513	34.52
2.14180	34.53
2.15847	34.52
2.17513	34.52
2.19180	34.52
2.20847	34.52
2.22513	34.52
2.24180	34.52
2.25847	34.53
2.27513	34.52
2.29180	34.51
2.30847	34.51
2.32513	34.52
2.34180	34.52
2.35847	34.51
2.37513	34.52
2.39180	34.54
2.40847	34.52
2.42513	34.52
2.44180	34.52
2.45847	34.52
2.47513	34.52
2.49180	34.52
2.50847	34.48
2.52513	34.52
2.54180	34.52
2.55847	34.52
2.57513	34.52
2.59180	34.52
2.60847	34.52
2.62513	34.52
2.64180	34.52
2.65847	34.52
2.67513	34.52
2.69180	34.52
2.70847	34.52
2.72513	34.52
2.74180	34.52
2.75847	34.52
2.77513	34.52
2.79180	34.52
2.80847	34.52
2.82513	34.52
2.84180	34.52
2.85847	34.52
2.87513	34.52
2.89180	34.52
2.90847	34.52
2.92513	34.52
2.94180	34.52
2.95847	34.52
2.97513	34.52
2.99180	34.52
3.00847	34.52
3.02513	34.52
3.04180	34.52
3.05847	34.52
3.07513	34.52
3.09180	34.52
3.10847	34.52
3.12513	34.52
3.14180	34.52
3.15847	34.52
3.17513	34.52
3.19180	34.52
3.20847	34.52
3.22513	34.52
3.24180	34.52
3.25847	34.52
3.27513	34.52
3.29180	34.52
3.30847	34.52
3.32513	34.52
3.34180	34.52
3.35847	34.52
3.37513	34.52
3.39180	34.51
3.40847	34.52
3.42513	34.51
3.44180	34.53
3.45847	34.53
3.47513	34.52
3.49180	34.51
3.50847	34.53
3.52513	34.51
3.54180	34.51
3.55847	34.52
3.57513	34.52
3.59180	34.52
3.60847	34.52
3.62513	34.52
3.64180	34.52
3.65847	34.52
3.67513	34.52
3.69180	34.52
3.70847	34.52
3.72513	34.52
3.74180	34.52
3.75847	34.52
3.77513	34.52
3.79180	34.52
3.80847	34.52
3.82513	34.52
3.84180	34.52
3.85847	34.51
3.87513	34.52
3.89180	34.52
3.90847	34.52
3.92513	34.52
3.94180	34.52
3.95847	34.52
3.97513	34.52
3.99180	34.52

[Status Trace (Column Flow)]
Interval(msec)	1000
# of Points	240
Start Time(min)	0.008
End Time(min)	3.992
Intensity Units	
Intensity Multiplier	1
R.Time (min)	Intensity
0.00847	5.46
0.02513	5.16
0.04180	5.36
0.05847	5.61
0.07513	5.62
0.09180	5.46
0.10847	5.45
0.12513	5.46
0.14180	5.46
0.15847	5.46
0.17513	5.46
0.19180	5.46
0.20847	5.46
0.22513	5.46
0.24180	5.46
0.25847	5.46
0.27513	5.46
0.29180	5.46
0.30847	5.46
0.32513	5.46
0.34180	5.46
0.35847	5.46
0.37513	5.46
0.39180	5.46
0.40847	5.46
0.42513	5.46
0.44180	5.46
0.45847	5.46
0.47513	5.46
0.49180	5.46
0.50847	5.46
0.52513	5.46
0.54180	5.46
0.55847	5.46
0.57513	5.46
0.59180	5.46
0.60847	5.46
0.62513	5.46
0.64180	5.46
0.65847	5.46
0.67513	5.46
0.69180	5.46
0.70847	5.46
0.72513	5.46
0.74180	5.46
0.75847	5.46
0.77513	5.46
0.79180	5.46
0.80847	5.46
0.82513	5.46
0.84180	5.46
0.85847	5.46
0.87513	5.46
0.89180	5.46
0.90847	5.46
0.92513	5.46
0.94180	5.46
0.95847	5.46
0.97513	5.46
0.99180	5.46
1.00847	5.46
1.02513	5.46
1.04180	5.46
1.05847	5.46
1.07513	5.46
1.09180	5.46
1.10847	5.46
1.12513	5.46
1.14180	5.46
1.15847	5.46
1.17513	5.46
1.19180	5.46
1.20847	5.46
1.22513	5.46
1.24180	5.46
1.25847	5.46
1.27513	5.46
1.29180	5.46
1.30847	5.46
1.32513	5.46
1.34180	5.46
1.35847	5.46
1.37513	5.46
1.39180	5.46
1.40847	5.46
1.42513	5.46
1.44180	5.46
1.45847	5.46
1.47513	5.46
1.49180	5.46
1.50847	5.46
1.52513	5.46
1.54180	5.46
1.55847	5.46
1.57513	5.46
1.59180	5.46
1.60847	5.46
1.62513	5.45
1.64180	5.45
1.65847	5.44
1.67513	5.43
1.69180	5.42
1.70847	5.41
1.72513	5.40
1.74180	5.39
1.75847	5.38
1.77513	5.37
1.79180	5.36
1.80847	5.34
1.82513	5.34
1.84180	5.33
1.85847	5.32
1.87513	5.31
1.89180	5.30
1.90847	5.29
1.92513	5.28
1.94180	5.27
1.95847	5.26
1.97513	5.25
1.99180	5.24
2.00847	5.23
2.02513	5.22
2.04180	5.21
2.05847	5.20
2.07513	5.19
2.09180	5.18
2.10847	5.17
2.12513	5.16
2.14180	5.15
2.15847	5.14
2.17513	5.14
2.19180	5.13
2.20847	5.12
2.22513	5.11
2.24180	5.10
2.25847	5.09
2.27513	5.08
2.29180	5.07
2.30847	5.06
2.32513	5.05
2.34180	5.04
2.35847	5.03
2.37513	5.03
2.39180	5.03
2.40847	5.03
2.42513	5.03
2.44180	5.03
2.45847	5.03
2.47513	5.03
2.49180	5.03
2.50847	5.03
2.52513	5.02
2.54180	5.03
2.55847	5.03
2.57513	5.03
2.59180	5.03
2.60847	5.03
2.62513	5.03
2.64180	5.02
2.65847	5.02
2.67513	5.02
2.69180	5.02
2.70847	5.02
2.72513	5.02
2.74180	5.02
2.75847	5.02
2.77513	5.02
2.79180	5.02
2.80847	5.02
2.82513	5.02
2.84180	5.02
2.85847	5.02
2.87513	5.02
2.89180	5.02
2.90847	5.02
2.92513	5.02
2.94180	5.02
2.95847	5.02
2.97513	5.02
2.99180	5.02
3.00847	5.02
3.02513	5.02
3.04180	5.02
3.05847	5.02
3.07513	5.02
3.09180	5.02
3.10847	5.02
3.12513	5.02
3.14180	5.02
3.15847	5.02
3.17513	5.02
3.19180	5.02
3.20847	5.02
3.22513	5.02
3.24180	5.02
3.25847	5.02
3.27513	5.02
3.29180	5.02
3.30847	5.02
3.32513	5.02
3.34180	5.02
3.35847	5.02
3.37513	5.02
3.39180	5.02
3.40847	5.02
3.42513	5.02
3.44180	5.02
3.45847	5.02
3.47513	5.02
3.49180	5.02
3.50847	5.02
3.52513	5.02
3.54180	5.02
3.55847	5.02
3.57513	5.02
3.59180	5.02
3.60847	5.02
3.62513	5.02
3.64180	5.02
3.65847	5.02
3.67513	5.02
3.69180	5.02
3.70847	5.02
3.72513	5.02
3.74180	5.02
3.75847	5.02
3.77513	5.02
3.79180	5.02
3.80847	5.02
3.82513	5.02
3.84180	5.02
3.85847	5.02
3.87513	5.02
3.89180	5.02
3.90847	5.02
3.92513	5.02
3.94180	5.02
3.95847	5.02
3.97513	5.02
3.99180	5.02

[Status Trace (Linear Velocity)]
Interval(msec)	1000
# of Points	240
Start Time(min)	0.008
End Time(min)	3.992
Intensity Units	
Intensity Multiplier	1
R.Time (min)	Intensity
0.00847	39.00
0.02513	37.27
0.04180	38.45
0.05847	39.87
0.07513	39.94
0.09180	39.03
0.10847	38.98
0.12513	39.00
0.14180	39.00
0.15847	39.00
0.17513	39.00
0.19180	39.00
0.20847	39.00
0.22513	39.00
0.24180	39.00
0.25847	39.00
0.27513	39.00
0.29180	39.00
0.30847	39.00
0.32513	39.01
0.34180	39.00
0.35847	39.00
0.37513	39.00
0.39180	39.00
0.40847	39.00
0.42513	39.00
0.44180	39.00
0.45847	39.00
0.47513	39.00
0.49180	39.01
0.50847	39.01
0.52513	39.01
0.54180	39.01
0.55847	39.01
0.57513	39.00
0.59180	39.00
0.60847	39.00
0.62513	39.00
0.64180	39.00
0.65847	39.00
0.67513	39.01
0.69180	39.00
0.70847	39.00
0.72513	39.00
0.74180	39.00
0.75847	39.00
0.77513	39.00
0.79180	39.00
0.80847	39.00
0.82513	39.00
0.84180	39.00
0.85847	39.00
0.87513	39.00
0.89180	39.00
0.90847	39.00
0.92513	39.00
0.94180	39.00
0.95847	39.00
0.97513	39.00
0.99180	39.00
1.00847	39.00
1.02513	39.00
1.04180	39.00
1.05847	39.00
1.07513	39.00
1.09180	39.00
1.10847	39.00
1.12513	39.00
1.14180	39.00
1.15847	39.00
1.17513	39.00
1.19180	39.00
1.20847	39.00
1.22513	39.01
1.24180	39.01
1.25847	39.01
1.27513	39.01
1.29180	39.01
1.30847	39.00
1.32513	39.00
1.34180	39.00
1.35847	39.00
1.37513	39.00
1.39180	39.00
1.40847	39.00
1.42513	39.00
1.44180	39.00
1.45847	39.00
1.47513	39.00
1.49180	39.00
1.50847	39.00
1.52513	39.00
1.54180	39.00
1.55847	39.00
1.57513	39.00
1.59180	39.00
1.60847	39.00
1.62513	38.99
1.64180	38.97
1.65847	38.94
1.67513	38.91
1.69180	38.88
1.70847	38.84
1.72513	38.81
1.74180	38.78
1.75847	38.75
1.77513	38.72
1.79180	38.69
1.80847	38.65
1.82513	38.62
1.84180	38.59
1.85847	38.56
1.87513	38.53
1.89180	38.50
1.90847	38.46
1.92513	38.44
1.94180	38.41
1.95847	38.37
1.97513	38.35
1.99180	38.32
2.00847	38.28
2.02513	38.26
2.04180	38.23
2.05847	38.19
2.07513	38.17
2.09180	38.14
2.10847	38.11
2.12513	38.08
2.14180	38.05
2.15847	38.02
2.17513	37.99
2.19180	37.96
2.20847	37.93
2.22513	37.90
2.24180	37.87
2.25847	37.84
2.27513	37.81
2.29180	37.78
2.30847	37.75
2.32513	37.72
2.34180	37.70
2.35847	37.66
2.37513	37.64
2.39180	37.63
2.40847	37.64
2.42513	37.64
2.44180	37.64
2.45847	37.64
2.47513	37.64
2.49180	37.64
2.50847	37.63
2.52513	37.62
2.54180	37.63
2.55847	37.64
2.57513	37.64
2.59180	37.63
2.60847	37.63
2.62513	37.63
2.64180	37.63
2.65847	37.63
2.67513	37.63
2.69180	37.63
2.70847	37.63
2.72513	37.63
2.74180	37.63
2.75847	37.63
2.77513	37.63
2.79180	37.63
2.80847	37.63
2.82513	37.63
2.84180	37.63
2.85847	37.62
2.87513	37.62
2.89180	37.62
2.90847	37.62
2.92513	37.62
2.94180	37.62
2.95847	37.62
2.97513	37.62
2.99180	37.61
3.00847	37.61
3.02513	37.61
3.04180	37.61
3.05847	37.61
3.07513	37.61
3.09180	37.61
3.10847	37.61
3.12513	37.61
3.14180	37.61
3.15847	37.61
3.17513	37.61
3.19180	37.61
3.20847	37.61
3.22513	37.61
3.24180	37.61
3.25847	37.61
3.27513	37.61
3.29180	37.61
3.30847	37.61
3.32513	37.61
3.34180	37.61
3.35847	37.61
3.37513	37.61
3.39180	37.61
3.40847	37.61
3.42513	37.61
3.44180	37.61
3.45847	37.61
3.47513	37.61
3.49180	37.61
3.50847	37.61
3.52513	37.61
3.54180	37.61
3.55847	37.61
3.57513	37.61
3.59180	37.61
3.60847	37.61
3.62513	37.61
3.64180	37.61
3.65847	37.61
3.67513	37.61
3.69180	37.61
3.70847	37.61
3.72513	37.61
3.74180	37.61
3.75847	37.61
3.77513	37.61
3.79180	37.61
3.80847	37.61
3.82513	37.61
3.84180	37.61
3.85847	37.61
3.87513	37.61
3.89180	37.61
3.90847	37.61
3.92513	37.61
3.94180	37.61
3.95847	37.61
3.97513	37.61
3.99180	37.61

