[Header]
Application Name	LabSolutions
Version	5.110
Data File Name	C:\Users\User\Desktop\GC Analyses\Jack\UIC Prairie Sampling\11.2.22\221102_021.gcd
Output Date	3/20/2023
Output Time	1:25:36 PM

[File Information]
Type	Data File
Generated	12/20/2022 2:05:43 PM
Generated by	System Administrator
Modified	12/20/2022 2:09:57 PM
Modified by	System Administrator

[Sample Information]
Operator Name	System Administrator
Acquired	12/20/2022 2:05:56 PM
Sample Type	1:Standard
Level	1
Sample Name	221102_UICPrairie
Sample ID	221102_UICPrairie
ISTD Amount1	1
ISTD Amount2	1
ISTD Amount3	1
ISTD Amount4	1
ISTD Amount5	1
ISTD Amount6	1
ISTD Amount7	1
ISTD Amount8	1
ISTD Amount9	1
ISTD Amount10	1
ISTD Amount11	1
ISTD Amount12	1
ISTD Amount13	1
ISTD Amount14	1
ISTD Amount15	1
ISTD Amount16	1
ISTD Amount17	1
ISTD Amount18	1
ISTD Amount19	1
ISTD Amount20	1
ISTD Amount21	1
ISTD Amount22	1
ISTD Amount23	1
ISTD Amount24	1
ISTD Amount25	1
ISTD Amount26	1
ISTD Amount27	1
ISTD Amount28	1
ISTD Amount29	1
ISTD Amount30	1
ISTD Amount31	1
ISTD Amount32	1
Sample Amount	1
Dilution Factor	1
Vial#	1
Injection Volume	1
Injection Count	1
Bar Code	

[Original Files]
Data File	C:\Users\User\Desktop\GC Analyses\Jack\UIC Prairie Sampling\11.2.22\221102_021.gcd
Method File	C:\LabSolutions\Data\GHG_4min_2022\ghg3_togas_w_acet_4 min_new_int.gcm
Batch File	
Report Format File	c:\LabSolutions\System\DEFAULT.lsr

[File Description]


[Configuration]
Instrument Name	C0B7VH3-Instrument1
Instrument #	1
Line #	1
# of Detectors	3
Detector ID	DET#1	DET#2	DET#3
Detector Name	FID	PTCD	ECD
# of Channels	1	1	1

[Peak Table(Ch1)]
# of Peaks	3
Peak#	R.Time	I.Time	F.Time	Area	Height	A/H	Conc.	Mark	ID#	Name	k'	Plate #	Plate Ht.	Tailing	Resolution	Sep.Factor	Area Ratio	Height Ratio	Conc. %	Norm Conc.
1	1.476	1.439	1.538	8527	3613	2.360	100.000	   	1	CO	0.000	7867	19.067	1.377	0.000	0.000	0	0	16.667	16.667
2	1.571	1.538	1.630	5159	2587	1.994	100.000	 V 	2	CH4	0.065	11274	13.305	1.049	1.516	0.000	0	0	16.667	16.667
3	2.000	1.952	2.620	1516539	699756	2.167	400.000	   	3	CO2	0.355	17200	8.721	1.216	7.139	5.500	0	0	66.667	66.667

[Peak Table(Ch2)]
# of Peaks	0

[Peak Table(Ch3)]
# of Peaks	5
Peak#	R.Time	I.Time	F.Time	Area	Height	A/H	Conc.	Mark	ID#	Name	k'	Plate #	Plate Ht.	Tailing	Resolution	Sep.Factor	Area Ratio	Height Ratio	Conc. %	Norm Conc.
1	2.466	2.440	2.499	902	363	2.482	0.000	   			0.000	15599	9.616	0.000	0.000	0.000	0	0	0.000	0.000
2	2.513	2.499	2.565	569	218	2.605	0.000	 V 			0.019	5747	26.102	0.000	0.451	0.000	0	0	0.000	0.000
3	2.605	2.565	2.638	404	153	2.640	0.000	 V 			0.057	14389	10.425	0.000	0.835	2.923	0	0	0.000	0.000
4	2.763	2.645	2.821	5179	676	7.663	0.118	   	1	N2O	0.120	586	255.899	0.000	0.580	2.132	0	0	11.798	11.798
5	2.884	2.821	3.811	38717	6026	6.425	0.882	 V 	1	N2O	0.170	11424	13.130	0.000	0.429	1.407	0	0	88.202	88.202

[Compound Results(Ch1)]
# of IDs	6
ID#	Name	R.Time	Area	Height	Conc.	Curve	3rd	2nd	1st	Constant	Area Ratio	Height Ratio	Conc. %	Norm Conc.
1	CO	1.476	8527	3613	100.000	Linear	0.000000e+00	0.000000e+00	8.526551e+001	0.000000e+00	0	0	16.667	16.667
2	CH4	1.571	5159	2587	100.000	Linear	0.000000e+00	0.000000e+00	5.158762e+001	0.000000e+00	0	0	16.667	16.667
3	CO2	2.000	1516539	699756	400.000	Linear	0.000000e+00	0.000000e+00	3.791347e+003	0.000000e+00	0	0	66.667	66.667
4	Ethylene	0.000	0	0	0.000	Linear	0.000000e+00	0.000000e+00	0.000000e+00	0.000000e+00	0	0	0.000	0.000
5	Acetylene	0.000	0	0	0.000	Linear	0.000000e+00	0.000000e+00	0.000000e+00	0.000000e+00	0	0	0.000	0.000
6	Ethane	0.000	0	0	0.000	Linear	0.000000e+00	0.000000e+00	0.000000e+00	0.000000e+00	0	0	0.000	0.000

[Compound Results(Ch2)]
# of IDs	5
ID#	Name	R.Time	Area	Height	Conc.	Curve	3rd	2nd	1st	Constant	Area Ratio	Height Ratio	Conc. %	Norm Conc.
1	Hydrogen	0.000	0	0	0.000	Linear	0.000000e+00	0.000000e+00	0.000000e+00	0.000000e+00	0	0	0.000	0.000
2	Oxygen	0.000	0	0	0.000	Linear	0.000000e+00	0.000000e+00	0.000000e+00	0.000000e+00	0	0	0.000	0.000
3	Nitrogen	0.000	0	0	0.000	Linear	0.000000e+00	0.000000e+00	0.000000e+00	0.000000e+00	0	0	0.000	0.000
4	Methane	0.000	0	0	0.000	Linear	0.000000e+00	0.000000e+00	0.000000e+00	0.000000e+00	0	0	0.000	0.000
5	Carbon Monoxide	0.000	0	0	0.000	Linear	0.000000e+00	0.000000e+00	0.000000e+00	0.000000e+00	0	0	0.000	0.000

[Compound Results(Ch3)]
# of IDs	2
ID#	Name	R.Time	Area	Height	Conc.	Curve	3rd	2nd	1st	Constant	Area Ratio	Height Ratio	Conc. %	Norm Conc.
1	N2O	2.884	43896	6701	1.000	Linear	0.000000e+00	0.000000e+00	4.389569e+004	0.000000e+00	0	0	100.000	100.000
2	SF6	0.000	0	0	0.000	Linear	0.000000e+00	0.000000e+00	0.000000e+00	0.000000e+00	0	0	0.000	0.000

[Group Results(Ch1)]
# of Groups	0

[Group Results(Ch2)]
# of Groups	0

[Group Results(Ch3)]
# of Groups	0

[Chromatogram (Ch1)]
Interval(msec)	220
# of Points	1091
Start Time(min)	0.002
End Time(min)	3.998
R.Time (min)	Intensity
0.00167	-1
0.00533	-2
0.00900	-6
0.01267	-8
0.01633	-9
0.02000	-7
0.02367	-4
0.02733	-2
0.03100	0
0.03467	4
0.03833	8
0.04200	9
0.04567	11
0.04933	13
0.05300	11
0.05667	4
0.06033	-7
0.06400	-16
0.06767	-25
0.07133	-37
0.07500	-46
0.07867	-51
0.08233	-54
0.08600	-53
0.08967	-48
0.09333	-39
0.09700	-29
0.10067	-20
0.10433	-11
0.10800	-2
0.11167	4
0.11533	7
0.11900	4
0.12267	-3
0.12633	-13
0.13000	-24
0.13367	-33
0.13733	-38
0.14100	-42
0.14467	-43
0.14833	-41
0.15200	-39
0.15567	-40
0.15933	-44
0.16300	-49
0.16667	-51
0.17033	-48
0.17400	-42
0.17767	-39
0.18133	-37
0.18500	-35
0.18867	-30
0.19233	-23
0.19600	-19
0.19967	-21
0.20333	-26
0.20700	-32
0.21067	-37
0.21433	-37
0.21800	-34
0.22167	-28
0.22533	-19
0.22900	-13
0.23267	-11
0.23633	-14
0.24000	-19
0.24367	-27
0.24733	-34
0.25100	-38
0.25467	-39
0.25833	-37
0.26200	-31
0.26567	-22
0.26933	-14
0.27300	-15
0.27667	-18
0.28033	-22
0.28400	-28
0.28767	-36
0.29133	-43
0.29500	-51
0.29867	-54
0.30233	-54
0.30600	-51
0.30967	-46
0.31333	-39
0.31700	-36
0.32067	-38
0.32433	-43
0.32800	-48
0.33167	-53
0.33533	-57
0.33900	-59
0.34267	-58
0.34633	-56
0.35000	-54
0.35367	-50
0.35733	-44
0.36100	-37
0.36467	-34
0.36833	-35
0.37200	-41
0.37567	-50
0.37933	-60
0.38300	-66
0.38667	-66
0.39033	-64
0.39400	-65
0.39767	-66
0.40133	-66
0.40500	-63
0.40867	-59
0.41233	-52
0.41600	-41
0.41967	-31
0.42333	-26
0.42700	-26
0.43067	-30
0.43433	-36
0.43800	-38
0.44167	-36
0.44533	-36
0.44900	-44
0.45267	-56
0.45633	-63
0.46000	-68
0.46367	-70
0.46733	-67
0.47100	-62
0.47467	-59
0.47833	-55
0.48200	-55
0.48567	-58
0.48933	-60
0.49300	-59
0.49667	-54
0.50033	-50
0.50400	-52
0.50767	-62
0.51133	-74
0.51500	-82
0.51867	-83
0.52233	-79
0.52600	-73
0.52967	-68
0.53333	-64
0.53700	-61
0.54067	-61
0.54433	-61
0.54800	-60
0.55167	-54
0.55533	-47
0.55900	-41
0.56267	-41
0.56633	-46
0.57000	-49
0.57367	-51
0.57733	-56
0.58100	-59
0.58467	-63
0.58833	-65
0.59200	-63
0.59567	-59
0.59933	-57
0.60300	-58
0.60667	-62
0.61033	-67
0.61400	-70
0.61767	-72
0.62133	-74
0.62500	-76
0.62867	-77
0.63233	-75
0.63600	-71
0.63967	-66
0.64333	-61
0.64700	-57
0.65067	-56
0.65433	-60
0.65800	-66
0.66167	-72
0.66533	-74
0.66900	-74
0.67267	-75
0.67633	-77
0.68000	-74
0.68367	-66
0.68733	-60
0.69100	-59
0.69467	-63
0.69833	-74
0.70200	-87
0.70567	-95
0.70933	-96
0.71300	-90
0.71667	-83
0.72033	-78
0.72400	-74
0.72767	-72
0.73133	-72
0.73500	-73
0.73867	-76
0.74233	-77
0.74600	-75
0.74967	-73
0.75333	-73
0.75700	-74
0.76067	-74
0.76433	-74
0.76800	-72
0.77167	-69
0.77533	-68
0.77900	-69
0.78267	-67
0.78633	-68
0.79000	-68
0.79367	-67
0.79733	-65
0.80100	-62
0.80467	-62
0.80833	-65
0.81200	-70
0.81567	-74
0.81933	-77
0.82300	-80
0.82667	-83
0.83033	-85
0.83400	-82
0.83767	-74
0.84133	-67
0.84500	-65
0.84867	-66
0.85233	-70
0.85600	-74
0.85967	-78
0.86333	-81
0.86700	-78
0.87067	-72
0.87433	-69
0.87800	-67
0.88167	-67
0.88533	-66
0.88900	-64
0.89267	-63
0.89633	-68
0.90000	-79
0.90367	-89
0.90733	-99
0.91100	-108
0.91467	-113
0.91833	-116
0.92200	-115
0.92567	-109
0.92933	-100
0.93300	-91
0.93667	-84
0.94033	-81
0.94400	-80
0.94767	-81
0.95133	-82
0.95500	-85
0.95867	-90
0.96233	-98
0.96600	-107
0.96967	-111
0.97333	-113
0.97700	-112
0.98067	-110
0.98433	-107
0.98800	-106
0.99167	-103
0.99533	-97
0.99900	-92
1.00267	-90
1.00633	-90
1.01000	-90
1.01367	-89
1.01733	-89
1.02100	-91
1.02467	-94
1.02833	-98
1.03200	-99
1.03567	-96
1.03933	-94
1.04300	-96
1.04667	-101
1.05033	-106
1.05400	-111
1.05767	-111
1.06133	-110
1.06500	-109
1.06867	-108
1.07233	-107
1.07600	-103
1.07967	-98
1.08333	-96
1.08700	-97
1.09067	-100
1.09433	-101
1.09800	-100
1.10167	-100
1.10533	-100
1.10900	-102
1.11267	-105
1.11633	-107
1.12000	-109
1.12367	-110
1.12733	-112
1.13100	-114
1.13467	-115
1.13833	-113
1.14200	-109
1.14567	-105
1.14933	-103
1.15300	-99
1.15667	-97
1.16033	-101
1.16400	-107
1.16767	-112
1.17133	-113
1.17500	-113
1.17867	-111
1.18233	-111
1.18600	-108
1.18967	-103
1.19333	-98
1.19700	-98
1.20067	-98
1.20433	-99
1.20800	-103
1.21167	-109
1.21533	-116
1.21900	-122
1.22267	-122
1.22633	-117
1.23000	-114
1.23367	-113
1.23733	-115
1.24100	-118
1.24467	-118
1.24833	-115
1.25200	-113
1.25567	-112
1.25933	-113
1.26300	-111
1.26667	-106
1.27033	-99
1.27400	-92
1.27767	-90
1.28133	-92
1.28500	-96
1.28867	-101
1.29233	-105
1.29600	-109
1.29967	-113
1.30333	-115
1.30700	-112
1.31067	-105
1.31433	-98
1.31800	-93
1.32167	-92
1.32533	-98
1.32900	-109
1.33267	-120
1.33633	-126
1.34000	-131
1.34367	-133
1.34733	-131
1.35100	-126
1.35467	-122
1.35833	-122
1.36200	-125
1.36567	-129
1.36933	-128
1.37300	-126
1.37667	-122
1.38033	-116
1.38400	-110
1.38767	-106
1.39133	-107
1.39500	-111
1.39867	-114
1.40233	-114
1.40600	-112
1.40967	-110
1.41333	-107
1.41700	-104
1.42067	-102
1.42433	-103
1.42800	-109
1.43167	-116
1.43533	-121
1.43900	-108
1.44267	-36
1.44633	138
1.45000	400
1.45367	774
1.45733	1296
1.46100	1904
1.46467	2487
1.46833	2969
1.47200	3315
1.47567	3506
1.47933	3506
1.48300	3294
1.48667	2901
1.49033	2406
1.49400	1900
1.49767	1449
1.50133	1082
1.50500	796
1.50867	576
1.51233	413
1.51600	295
1.51967	212
1.52333	152
1.52700	105
1.53067	63
1.53433	29
1.53800	11
1.54167	49
1.54533	210
1.54900	542
1.55267	1007
1.55633	1502
1.56000	1939
1.56367	2266
1.56733	2459
1.57100	2484
1.57467	2318
1.57833	1986
1.58200	1567
1.58567	1152
1.58933	794
1.59300	513
1.59667	306
1.60033	158
1.60400	59
1.60767	-6
1.61133	-46
1.61500	-69
1.61867	-80
1.62233	-87
1.62600	-94
1.62967	-101
1.63333	-105
1.63700	-107
1.64067	-109
1.64433	-114
1.64800	-117
1.65167	-117
1.65533	-111
1.65900	-106
1.66267	-106
1.66633	-114
1.67000	-123
1.67367	-134
1.67733	-144
1.68100	-146
1.68467	-142
1.68833	-139
1.69200	-140
1.69567	-140
1.69933	-140
1.70300	-142
1.70667	-147
1.71033	-150
1.71400	-148
1.71767	-145
1.72133	-144
1.72500	-145
1.72867	-148
1.73233	-150
1.73600	-150
1.73967	-145
1.74333	-139
1.74700	-134
1.75067	-130
1.75433	-130
1.75800	-133
1.76167	-138
1.76533	-143
1.76900	-144
1.77267	-143
1.77633	-144
1.78000	-146
1.78367	-146
1.78733	-145
1.79100	-143
1.79467	-138
1.79833	-132
1.80200	-128
1.80567	-125
1.80933	-120
1.81300	-113
1.81667	-107
1.82033	-102
1.82400	-102
1.82767	-105
1.83133	-113
1.83500	-127
1.83867	-140
1.84233	-152
1.84600	-161
1.84967	-165
1.85333	-161
1.85700	-157
1.86067	-154
1.86433	-150
1.86800	-146
1.87167	-145
1.87533	-142
1.87900	-138
1.88267	-134
1.88633	-130
1.89000	-130
1.89367	-136
1.89733	-146
1.90100	-153
1.90467	-153
1.90833	-148
1.91200	-144
1.91567	-143
1.91933	-142
1.92300	-143
1.92667	-144
1.93033	-143
1.93400	-143
1.93767	-142
1.94133	-139
1.94500	-133
1.94867	-129
1.95233	-121
1.95600	-46
1.95967	425
1.96333	2698
1.96700	11057
1.97067	34505
1.97433	85525
1.97800	172590
1.98167	291360
1.98533	424223
1.98900	548193
1.99267	643376
1.99633	696148
2.00000	699670
2.00367	655684
2.00733	574930
2.01100	474306
2.01467	371291
2.01833	278797
2.02200	203218
2.02567	145510
2.02933	103490
2.03300	73850
2.03667	53340
2.04033	39280
2.04400	29650
2.04767	23015
2.05133	18390
2.05500	15108
2.05867	12725
2.06233	10954
2.06600	9608
2.06967	8559
2.07333	7724
2.07700	7041
2.08067	6468
2.08433	5980
2.08800	5558
2.09167	5194
2.09533	4879
2.09900	4602
2.10267	4354
2.10633	4128
2.11000	3919
2.11367	3728
2.11733	3552
2.12100	3387
2.12467	3236
2.12833	3097
2.13200	2969
2.13567	2854
2.13933	2753
2.14300	2661
2.14667	2572
2.15033	2485
2.15400	2401
2.15767	2324
2.16133	2249
2.16500	2180
2.16867	2114
2.17233	2051
2.17600	1989
2.17967	1931
2.18333	1874
2.18700	1816
2.19067	1762
2.19433	1713
2.19800	1670
2.20167	1637
2.20533	1605
2.20900	1570
2.21267	1533
2.21633	1497
2.22000	1461
2.22367	1429
2.22733	1399
2.23100	1367
2.23467	1335
2.23833	1305
2.24200	1274
2.24567	1242
2.24933	1213
2.25300	1189
2.25667	1169
2.26033	1152
2.26400	1137
2.26767	1125
2.27133	1112
2.27500	1091
2.27867	1065
2.28233	1038
2.28600	1015
2.28967	997
2.29333	981
2.29700	963
2.30067	944
2.30433	926
2.30800	910
2.31167	897
2.31533	883
2.31900	868
2.32267	852
2.32633	839
2.33000	826
2.33367	813
2.33733	801
2.34100	791
2.34467	781
2.34833	770
2.35200	757
2.35567	747
2.35933	738
2.36300	731
2.36667	724
2.37033	722
2.37400	723
2.37767	722
2.38133	715
2.38500	702
2.38867	688
2.39233	676
2.39600	665
2.39967	655
2.40333	645
2.40700	635
2.41067	627
2.41433	620
2.41800	610
2.42167	603
2.42533	600
2.42900	602
2.43267	601
2.43633	596
2.44000	587
2.44367	580
2.44733	574
2.45100	569
2.45467	564
2.45833	559
2.46200	556
2.46567	553
2.46933	549
2.47300	545
2.47667	539
2.48033	531
2.48400	525
2.48767	525
2.49133	523
2.49500	514
2.49867	504
2.50233	495
2.50600	489
2.50967	484
2.51333	479
2.51700	474
2.52067	472
2.52433	472
2.52800	474
2.53167	474
2.53533	473
2.53900	468
2.54267	457
2.54633	447
2.55000	436
2.55367	426
2.55733	420
2.56100	421
2.56467	425
2.56833	429
2.57200	431
2.57567	431
2.57933	429
2.58300	426
2.58667	419
2.59033	413
2.59400	410
2.59767	408
2.60133	405
2.60500	398
2.60867	389
2.61233	380
2.61600	373
2.61967	369
2.62333	369
2.62700	371
2.63067	377
2.63433	382
2.63800	383
2.64167	383
2.64533	386
2.64900	388
2.65267	384
2.65633	378
2.66000	375
2.66367	374
2.66733	374
2.67100	376
2.67467	381
2.67833	387
2.68200	390
2.68567	388
2.68933	383
2.69300	378
2.69667	373
2.70033	366
2.70400	360
2.70767	355
2.71133	351
2.71500	346
2.71867	344
2.72233	344
2.72600	344
2.72967	344
2.73333	342
2.73700	339
2.74067	338
2.74433	339
2.74800	338
2.75167	334
2.75533	331
2.75900	329
2.76267	329
2.76633	331
2.77000	333
2.77367	336
2.77733	341
2.78100	348
2.78467	353
2.78833	356
2.79200	354
2.79567	348
2.79933	342
2.80300	337
2.80667	332
2.81033	327
2.81400	321
2.81767	316
2.82133	315
2.82500	317
2.82867	322
2.83233	331
2.83600	335
2.83967	336
2.84333	333
2.84700	328
2.85067	323
2.85433	320
2.85800	321
2.86167	323
2.86533	324
2.86900	327
2.87267	331
2.87633	332
2.88000	331
2.88367	328
2.88733	327
2.89100	325
2.89467	319
2.89833	310
2.90200	302
2.90567	296
2.90933	295
2.91300	300
2.91667	306
2.92033	311
2.92400	317
2.92767	319
2.93133	316
2.93500	312
2.93867	309
2.94233	308
2.94600	307
2.94967	306
2.95333	302
2.95700	300
2.96067	301
2.96433	303
2.96800	302
2.97167	302
2.97533	304
2.97900	307
2.98267	310
2.98633	313
2.99000	315
2.99367	316
2.99733	312
3.00100	307
3.00467	304
3.00833	305
3.01200	308
3.01567	312
3.01933	315
3.02300	314
3.02667	309
3.03033	307
3.03400	307
3.03767	309
3.04133	308
3.04500	307
3.04867	306
3.05233	305
3.05600	300
3.05967	296
3.06333	292
3.06700	288
3.07067	284
3.07433	279
3.07800	275
3.08167	271
3.08533	270
3.08900	267
3.09267	265
3.09633	266
3.10000	265
3.10367	268
3.10733	276
3.11100	280
3.11467	280
3.11833	279
3.12200	281
3.12567	285
3.12933	289
3.13300	292
3.13667	292
3.14033	287
3.14400	279
3.14767	274
3.15133	273
3.15500	276
3.15867	279
3.16233	283
3.16600	284
3.16967	279
3.17333	271
3.17700	263
3.18067	260
3.18433	261
3.18800	268
3.19167	274
3.19533	275
3.19900	275
3.20267	274
3.20633	272
3.21000	274
3.21367	277
3.21733	279
3.22100	278
3.22467	274
3.22833	271
3.23200	268
3.23567	265
3.23933	261
3.24300	254
3.24667	250
3.25033	250
3.25400	254
3.25767	261
3.26133	265
3.26500	263
3.26867	260
3.27233	257
3.27600	255
3.27967	254
3.28333	254
3.28700	252
3.29067	251
3.29433	252
3.29800	251
3.30167	250
3.30533	250
3.30900	253
3.31267	256
3.31633	259
3.32000	258
3.32367	252
3.32733	246
3.33100	243
3.33467	241
3.33833	238
3.34200	239
3.34567	242
3.34933	248
3.35300	251
3.35667	252
3.36033	253
3.36400	255
3.36767	254
3.37133	250
3.37500	246
3.37867	243
3.38233	241
3.38600	243
3.38967	244
3.39333	243
3.39700	243
3.40067	246
3.40433	253
3.40800	256
3.41167	255
3.41533	251
3.41900	246
3.42267	241
3.42633	237
3.43000	233
3.43367	230
3.43733	225
3.44100	218
3.44467	209
3.44833	202
3.45200	199
3.45567	199
3.45933	203
3.46300	209
3.46667	211
3.47033	211
3.47400	210
3.47767	211
3.48133	211
3.48500	209
3.48867	208
3.49233	207
3.49600	208
3.49967	209
3.50333	209
3.50700	207
3.51067	204
3.51433	202
3.51800	201
3.52167	201
3.52533	203
3.52900	207
3.53267	209
3.53633	207
3.54000	207
3.54367	206
3.54733	202
3.55100	196
3.55467	193
3.55833	193
3.56200	193
3.56567	192
3.56933	192
3.57300	187
3.57667	181
3.58033	175
3.58400	173
3.58767	177
3.59133	183
3.59500	188
3.59867	193
3.60233	196
3.60600	195
3.60967	191
3.61333	184
3.61700	177
3.62067	173
3.62433	172
3.62800	175
3.63167	175
3.63533	172
3.63900	170
3.64267	167
3.64633	165
3.65000	165
3.65367	168
3.65733	174
3.66100	180
3.66467	182
3.66833	182
3.67200	179
3.67567	177
3.67933	175
3.68300	170
3.68667	167
3.69033	163
3.69400	158
3.69767	154
3.70133	152
3.70500	155
3.70867	159
3.71233	161
3.71600	160
3.71967	156
3.72333	154
3.72700	155
3.73067	161
3.73433	164
3.73800	157
3.74167	145
3.74533	137
3.74900	132
3.75267	130
3.75633	129
3.76000	132
3.76367	135
3.76733	141
3.77100	148
3.77467	154
3.77833	155
3.78200	150
3.78567	143
3.78933	138
3.79300	135
3.79667	133
3.80033	129
3.80400	123
3.80767	118
3.81133	121
3.81500	127
3.81867	133
3.82233	139
3.82600	145
3.82967	147
3.83333	146
3.83700	141
3.84067	133
3.84433	130
3.84800	133
3.85167	136
3.85533	135
3.85900	130
3.86267	127
3.86633	127
3.87000	127
3.87367	124
3.87733	123
3.88100	122
3.88467	119
3.88833	115
3.89200	114
3.89567	116
3.89933	117
3.90300	116
3.90667	114
3.91033	114
3.91400	114
3.91767	116
3.92133	121
3.92500	122
3.92867	122
3.93233	122
3.93600	119
3.93967	113
3.94333	109
3.94700	108
3.95067	109
3.95433	113
3.95800	117
3.96167	116
3.96533	111
3.96900	105
3.97267	103
3.97633	106
3.98000	114
3.98367	123
3.98733	124
3.99100	115
3.99467	105
3.99833	99

[Chromatogram (Ch2)]
Interval(msec)	220
# of Points	1091
Start Time(min)	0.002
End Time(min)	3.998
R.Time (min)	Intensity
0.00167	0
0.00533	1
0.00900	1
0.01267	1
0.01633	0
0.02000	0
0.02367	0
0.02733	-0
0.03100	-0
0.03467	-0
0.03833	-0
0.04200	-0
0.04567	-0
0.04933	-0
0.05300	0
0.05667	0
0.06033	0
0.06400	0
0.06767	1
0.07133	1
0.07500	1
0.07867	1
0.08233	1
0.08600	1
0.08967	1
0.09333	1
0.09700	1
0.10067	1
0.10433	1
0.10800	1
0.11167	1
0.11533	1
0.11900	1
0.12267	0
0.12633	0
0.13000	0
0.13367	0
0.13733	0
0.14100	-0
0.14467	-0
0.14833	-1
0.15200	-1
0.15567	-1
0.15933	-1
0.16300	-1
0.16667	-1
0.17033	-1
0.17400	-1
0.17767	-0
0.18133	-0
0.18500	0
0.18867	0
0.19233	0
0.19600	1
0.19967	1
0.20333	1
0.20700	1
0.21067	1
0.21433	2
0.21800	2
0.22167	2
0.22533	2
0.22900	2
0.23267	2
0.23633	2
0.24000	2
0.24367	2
0.24733	2
0.25100	2
0.25467	2
0.25833	2
0.26200	2
0.26567	2
0.26933	2
0.27300	2
0.27667	2
0.28033	2
0.28400	1
0.28767	1
0.29133	1
0.29500	1
0.29867	1
0.30233	0
0.30600	0
0.30967	0
0.31333	0
0.31700	0
0.32067	0
0.32433	0
0.32800	0
0.33167	0
0.33533	0
0.33900	1
0.34267	1
0.34633	1
0.35000	0
0.35367	0
0.35733	1
0.36100	1
0.36467	1
0.36833	1
0.37200	1
0.37567	1
0.37933	1
0.38300	1
0.38667	0
0.39033	0
0.39400	-0
0.39767	-0
0.40133	-0
0.40500	-1
0.40867	-1
0.41233	-1
0.41600	-1
0.41967	-1
0.42333	-1
0.42700	-1
0.43067	-1
0.43433	-1
0.43800	-1
0.44167	-1
0.44533	-1
0.44900	-1
0.45267	-1
0.45633	-1
0.46000	-1
0.46367	-1
0.46733	-1
0.47100	-1
0.47467	-0
0.47833	-0
0.48200	0
0.48567	0
0.48933	0
0.49300	-0
0.49667	-0
0.50033	-0
0.50400	-0
0.50767	-0
0.51133	-0
0.51500	-0
0.51867	-0
0.52233	0
0.52600	0
0.52967	0
0.53333	0
0.53700	0
0.54067	0
0.54433	1
0.54800	1
0.55167	1
0.55533	1
0.55900	1
0.56267	1
0.56633	1
0.57000	1
0.57367	0
0.57733	0
0.58100	-0
0.58467	-0
0.58833	-1
0.59200	-1
0.59567	-1
0.59933	-1
0.60300	-1
0.60667	-1
0.61033	-1
0.61400	-1
0.61767	-1
0.62133	-1
0.62500	-1
0.62867	-1
0.63233	-1
0.63600	-1
0.63967	-1
0.64333	-1
0.64700	-1
0.65067	-2
0.65433	-2
0.65800	-2
0.66167	-2
0.66533	-2
0.66900	-2
0.67267	-2
0.67633	-2
0.68000	-2
0.68367	-2
0.68733	-2
0.69100	-2
0.69467	-2
0.69833	-2
0.70200	-2
0.70567	-2
0.70933	-2
0.71300	-2
0.71667	-2
0.72033	-2
0.72400	-2
0.72767	-2
0.73133	-2
0.73500	-2
0.73867	-2
0.74233	-2
0.74600	-2
0.74967	-1
0.75333	-1
0.75700	-1
0.76067	-1
0.76433	-1
0.76800	-1
0.77167	-1
0.77533	-1
0.77900	-1
0.78267	-1
0.78633	-1
0.79000	-1
0.79367	-1
0.79733	-1
0.80100	-1
0.80467	-1
0.80833	-1
0.81200	-2
0.81567	-2
0.81933	-2
0.82300	-1
0.82667	-1
0.83033	-1
0.83400	-1
0.83767	-1
0.84133	-1
0.84500	-1
0.84867	-1
0.85233	-1
0.85600	-1
0.85967	-1
0.86333	-1
0.86700	-1
0.87067	-1
0.87433	-1
0.87800	-1
0.88167	-1
0.88533	-1
0.88900	-1
0.89267	-1
0.89633	-1
0.90000	-1
0.90367	-1
0.90733	-1
0.91100	-1
0.91467	-1
0.91833	-1
0.92200	-1
0.92567	-2
0.92933	-2
0.93300	-2
0.93667	-2
0.94033	-2
0.94400	-2
0.94767	-2
0.95133	-2
0.95500	-2
0.95867	-2
0.96233	-2
0.96600	-2
0.96967	-2
0.97333	-2
0.97700	-2
0.98067	-2
0.98433	-2
0.98800	-2
0.99167	-2
0.99533	-2
0.99900	-2
1.00267	-2
1.00633	-2
1.01000	-2
1.01367	-2
1.01733	-3
1.02100	-3
1.02467	-3
1.02833	-3
1.03200	-3
1.03567	-3
1.03933	-3
1.04300	-3
1.04667	-3
1.05033	-3
1.05400	-3
1.05767	-3
1.06133	-3
1.06500	-3
1.06867	-3
1.07233	-3
1.07600	-4
1.07967	-4
1.08333	-4
1.08700	-4
1.09067	-3
1.09433	-3
1.09800	-3
1.10167	-3
1.10533	-3
1.10900	-3
1.11267	-3
1.11633	-3
1.12000	-2
1.12367	-3
1.12733	-3
1.13100	-3
1.13467	-3
1.13833	-3
1.14200	-3
1.14567	-3
1.14933	-3
1.15300	-3
1.15667	-3
1.16033	-3
1.16400	-3
1.16767	-3
1.17133	-2
1.17500	-2
1.17867	-2
1.18233	-2
1.18600	-2
1.18967	-2
1.19333	-2
1.19700	-2
1.20067	-2
1.20433	-1
1.20800	-1
1.21167	-1
1.21533	-1
1.21900	-1
1.22267	-1
1.22633	-1
1.23000	-1
1.23367	-2
1.23733	-2
1.24100	-2
1.24467	-2
1.24833	-2
1.25200	-3
1.25567	-3
1.25933	-3
1.26300	-3
1.26667	-4
1.27033	-4
1.27400	-4
1.27767	-3
1.28133	-3
1.28500	-3
1.28867	-3
1.29233	-3
1.29600	-2
1.29967	-2
1.30333	-2
1.30700	-2
1.31067	-2
1.31433	-3
1.31800	-3
1.32167	-3
1.32533	-3
1.32900	-3
1.33267	-3
1.33633	-3
1.34000	-3
1.34367	-3
1.34733	-3
1.35100	-3
1.35467	-3
1.35833	-3
1.36200	-4
1.36567	-4
1.36933	-4
1.37300	-4
1.37667	-4
1.38033	-4
1.38400	-4
1.38767	-4
1.39133	-4
1.39500	-4
1.39867	-4
1.40233	-4
1.40600	-4
1.40967	-4
1.41333	-4
1.41700	-4
1.42067	-4
1.42433	-4
1.42800	-4
1.43167	-4
1.43533	-4
1.43900	-4
1.44267	-4
1.44633	-3
1.45000	-3
1.45367	-3
1.45733	-3
1.46100	-3
1.46467	-3
1.46833	-3
1.47200	-3
1.47567	-3
1.47933	-3
1.48300	-3
1.48667	-3
1.49033	-3
1.49400	-3
1.49767	-3
1.50133	-3
1.50500	-3
1.50867	-3
1.51233	-3
1.51600	-3
1.51967	-3
1.52333	-3
1.52700	-3
1.53067	-3
1.53433	-3
1.53800	-3
1.54167	-3
1.54533	-3
1.54900	-3
1.55267	-3
1.55633	-3
1.56000	-3
1.56367	-3
1.56733	-3
1.57100	-2
1.57467	-2
1.57833	-2
1.58200	-2
1.58567	-2
1.58933	-2
1.59300	-2
1.59667	-3
1.60033	-4
1.60400	-5
1.60767	-6
1.61133	-8
1.61500	-10
1.61867	-13
1.62233	-15
1.62600	-19
1.62967	-22
1.63333	-25
1.63700	-29
1.64067	-33
1.64433	-36
1.64800	-40
1.65167	-44
1.65533	-47
1.65900	-51
1.66267	-55
1.66633	-59
1.67000	-64
1.67367	-68
1.67733	-73
1.68100	-79
1.68467	-84
1.68833	-88
1.69200	-92
1.69567	-96
1.69933	-99
1.70300	-101
1.70667	-103
1.71033	-105
1.71400	-107
1.71767	-108
1.72133	-109
1.72500	-110
1.72867	-111
1.73233	-111
1.73600	-112
1.73967	-112
1.74333	-112
1.74700	-113
1.75067	-113
1.75433	-112
1.75800	-113
1.76167	-113
1.76533	-113
1.76900	-114
1.77267	-115
1.77633	-116
1.78000	-117
1.78367	-118
1.78733	-119
1.79100	-120
1.79467	-120
1.79833	-120
1.80200	-121
1.80567	-121
1.80933	-121
1.81300	-121
1.81667	-121
1.82033	-121
1.82400	-121
1.82767	-121
1.83133	-121
1.83500	-121
1.83867	-120
1.84233	-120
1.84600	-119
1.84967	-119
1.85333	-119
1.85700	-119
1.86067	-119
1.86433	-119
1.86800	-119
1.87167	-119
1.87533	-119
1.87900	-119
1.88267	-118
1.88633	-118
1.89000	-118
1.89367	-119
1.89733	-119
1.90100	-119
1.90467	-118
1.90833	-118
1.91200	-118
1.91567	-119
1.91933	-119
1.92300	-119
1.92667	-119
1.93033	-119
1.93400	-118
1.93767	-118
1.94133	-117
1.94500	-117
1.94867	-116
1.95233	-115
1.95600	-115
1.95967	-115
1.96333	-115
1.96700	-115
1.97067	-115
1.97433	-114
1.97800	-115
1.98167	-115
1.98533	-115
1.98900	-115
1.99267	-114
1.99633	-114
2.00000	-114
2.00367	-113
2.00733	-113
2.01100	-112
2.01467	-112
2.01833	-111
2.02200	-110
2.02567	-110
2.02933	-109
2.03300	-109
2.03667	-108
2.04033	-108
2.04400	-107
2.04767	-107
2.05133	-107
2.05500	-107
2.05867	-107
2.06233	-107
2.06600	-107
2.06967	-107
2.07333	-107
2.07700	-107
2.08067	-107
2.08433	-107
2.08800	-107
2.09167	-107
2.09533	-106
2.09900	-106
2.10267	-105
2.10633	-105
2.11000	-105
2.11367	-105
2.11733	-105
2.12100	-105
2.12467	-104
2.12833	-104
2.13200	-103
2.13567	-103
2.13933	-102
2.14300	-102
2.14667	-102
2.15033	-102
2.15400	-102
2.15767	-102
2.16133	-102
2.16500	-102
2.16867	-102
2.17233	-101
2.17600	-101
2.17967	-101
2.18333	-100
2.18700	-100
2.19067	-100
2.19433	-99
2.19800	-99
2.20167	-98
2.20533	-98
2.20900	-97
2.21267	-96
2.21633	-96
2.22000	-95
2.22367	-95
2.22733	-95
2.23100	-94
2.23467	-94
2.23833	-93
2.24200	-94
2.24567	-94
2.24933	-94
2.25300	-95
2.25667	-96
2.26033	-96
2.26400	-96
2.26767	-95
2.27133	-95
2.27500	-94
2.27867	-93
2.28233	-93
2.28600	-92
2.28967	-92
2.29333	-91
2.29700	-90
2.30067	-89
2.30433	-89
2.30800	-88
2.31167	-87
2.31533	-87
2.31900	-87
2.32267	-87
2.32633	-87
2.33000	-87
2.33367	-87
2.33733	-86
2.34100	-86
2.34467	-85
2.34833	-84
2.35200	-83
2.35567	-82
2.35933	-81
2.36300	-80
2.36667	-79
2.37033	-77
2.37400	-75
2.37767	-72
2.38133	-69
2.38500	-66
2.38867	-62
2.39233	-59
2.39600	-55
2.39967	-51
2.40333	-47
2.40700	-43
2.41067	-39
2.41433	-35
2.41800	-32
2.42167	-29
2.42533	-26
2.42900	-24
2.43267	-21
2.43633	-18
2.44000	-15
2.44367	-13
2.44733	-10
2.45100	-8
2.45467	-7
2.45833	-6
2.46200	-5
2.46567	-4
2.46933	-3
2.47300	-1
2.47667	0
2.48033	1
2.48400	3
2.48767	4
2.49133	5
2.49500	6
2.49867	6
2.50233	7
2.50600	8
2.50967	8
2.51333	9
2.51700	10
2.52067	11
2.52433	11
2.52800	12
2.53167	12
2.53533	13
2.53900	13
2.54267	14
2.54633	14
2.55000	15
2.55367	15
2.55733	15
2.56100	15
2.56467	15
2.56833	15
2.57200	15
2.57567	15
2.57933	15
2.58300	15
2.58667	15
2.59033	14
2.59400	14
2.59767	14
2.60133	14
2.60500	14
2.60867	14
2.61233	14
2.61600	14
2.61967	15
2.62333	15
2.62700	16
2.63067	16
2.63433	17
2.63800	18
2.64167	18
2.64533	19
2.64900	19
2.65267	19
2.65633	19
2.66000	20
2.66367	20
2.66733	20
2.67100	21
2.67467	21
2.67833	22
2.68200	22
2.68567	22
2.68933	22
2.69300	22
2.69667	23
2.70033	23
2.70400	23
2.70767	23
2.71133	23
2.71500	24
2.71867	24
2.72233	24
2.72600	24
2.72967	24
2.73333	24
2.73700	24
2.74067	25
2.74433	25
2.74800	26
2.75167	26
2.75533	26
2.75900	27
2.76267	27
2.76633	27
2.77000	27
2.77367	27
2.77733	27
2.78100	26
2.78467	26
2.78833	26
2.79200	26
2.79567	26
2.79933	25
2.80300	25
2.80667	25
2.81033	25
2.81400	26
2.81767	26
2.82133	26
2.82500	26
2.82867	26
2.83233	26
2.83600	26
2.83967	26
2.84333	27
2.84700	27
2.85067	26
2.85433	25
2.85800	23
2.86167	19
2.86533	13
2.86900	4
2.87267	-8
2.87633	-24
2.88000	-43
2.88367	-67
2.88733	-95
2.89100	-127
2.89467	-163
2.89833	-202
2.90200	-244
2.90567	-289
2.90933	-336
2.91300	-385
2.91667	-435
2.92033	-486
2.92400	-538
2.92767	-590
2.93133	-642
2.93500	-693
2.93867	-744
2.94233	-793
2.94600	-844
2.94967	-898
2.95333	-957
2.95700	-1017
2.96067	-1068
2.96433	-1100
2.96800	-1106
2.97167	-1086
2.97533	-1043
2.97900	-983
2.98267	-911
2.98633	-833
2.99000	-752
2.99367	-672
2.99733	-596
3.00100	-524
3.00467	-458
3.00833	-398
3.01200	-344
3.01567	-296
3.01933	-254
3.02300	-217
3.02667	-185
3.03033	-157
3.03400	-133
3.03767	-112
3.04133	-94
3.04500	-79
3.04867	-66
3.05233	-54
3.05600	-44
3.05967	-36
3.06333	-29
3.06700	-23
3.07067	-18
3.07433	-14
3.07800	-10
3.08167	-7
3.08533	-4
3.08900	-1
3.09267	1
3.09633	3
3.10000	5
3.10367	7
3.10733	8
3.11100	9
3.11467	10
3.11833	11
3.12200	11
3.12567	12
3.12933	12
3.13300	13
3.13667	13
3.14033	13
3.14400	14
3.14767	14
3.15133	14
3.15500	14
3.15867	15
3.16233	15
3.16600	15
3.16967	16
3.17333	16
3.17700	17
3.18067	17
3.18433	17
3.18800	17
3.19167	17
3.19533	17
3.19900	17
3.20267	18
3.20633	18
3.21000	18
3.21367	19
3.21733	19
3.22100	20
3.22467	20
3.22833	20
3.23200	21
3.23567	21
3.23933	21
3.24300	22
3.24667	22
3.25033	22
3.25400	22
3.25767	22
3.26133	23
3.26500	23
3.26867	23
3.27233	23
3.27600	23
3.27967	23
3.28333	23
3.28700	23
3.29067	23
3.29433	23
3.29800	23
3.30167	23
3.30533	23
3.30900	23
3.31267	23
3.31633	23
3.32000	24
3.32367	24
3.32733	24
3.33100	24
3.33467	24
3.33833	24
3.34200	24
3.34567	24
3.34933	24
3.35300	24
3.35667	24
3.36033	24
3.36400	25
3.36767	25
3.37133	25
3.37500	25
3.37867	25
3.38233	25
3.38600	25
3.38967	25
3.39333	25
3.39700	25
3.40067	25
3.40433	26
3.40800	26
3.41167	26
3.41533	26
3.41900	26
3.42267	26
3.42633	26
3.43000	27
3.43367	27
3.43733	26
3.44100	26
3.44467	26
3.44833	26
3.45200	26
3.45567	26
3.45933	25
3.46300	25
3.46667	25
3.47033	25
3.47400	26
3.47767	26
3.48133	26
3.48500	26
3.48867	26
3.49233	27
3.49600	27
3.49967	27
3.50333	27
3.50700	27
3.51067	27
3.51433	27
3.51800	27
3.52167	27
3.52533	27
3.52900	27
3.53267	27
3.53633	27
3.54000	27
3.54367	27
3.54733	26
3.55100	26
3.55467	26
3.55833	26
3.56200	26
3.56567	26
3.56933	26
3.57300	26
3.57667	26
3.58033	26
3.58400	26
3.58767	26
3.59133	26
3.59500	26
3.59867	26
3.60233	26
3.60600	26
3.60967	25
3.61333	25
3.61700	25
3.62067	25
3.62433	25
3.62800	25
3.63167	25
3.63533	25
3.63900	25
3.64267	25
3.64633	25
3.65000	25
3.65367	26
3.65733	26
3.66100	26
3.66467	26
3.66833	27
3.67200	27
3.67567	27
3.67933	27
3.68300	28
3.68667	28
3.69033	28
3.69400	28
3.69767	28
3.70133	28
3.70500	28
3.70867	28
3.71233	27
3.71600	27
3.71967	27
3.72333	27
3.72700	26
3.73067	26
3.73433	26
3.73800	26
3.74167	26
3.74533	26
3.74900	26
3.75267	26
3.75633	26
3.76000	26
3.76367	26
3.76733	26
3.77100	26
3.77467	26
3.77833	26
3.78200	26
3.78567	26
3.78933	26
3.79300	26
3.79667	26
3.80033	26
3.80400	26
3.80767	26
3.81133	26
3.81500	26
3.81867	25
3.82233	25
3.82600	25
3.82967	25
3.83333	25
3.83700	25
3.84067	25
3.84433	25
3.84800	25
3.85167	25
3.85533	25
3.85900	25
3.86267	25
3.86633	25
3.87000	26
3.87367	26
3.87733	26
3.88100	26
3.88467	26
3.88833	26
3.89200	26
3.89567	26
3.89933	26
3.90300	26
3.90667	26
3.91033	26
3.91400	26
3.91767	26
3.92133	26
3.92500	27
3.92867	27
3.93233	27
3.93600	27
3.93967	26
3.94333	26
3.94700	26
3.95067	26
3.95433	26
3.95800	27
3.96167	27
3.96533	27
3.96900	27
3.97267	28
3.97633	28
3.98000	28
3.98367	28
3.98733	28
3.99100	28
3.99467	28
3.99833	27

[Chromatogram (Ch3)]
Interval(msec)	220
# of Points	1091
Start Time(min)	0.002
End Time(min)	3.998
R.Time (min)	Intensity
0.00167	1
0.00533	-0
0.00900	-1
0.01267	-2
0.01633	-2
0.02000	-4
0.02367	-5
0.02733	-4
0.03100	-4
0.03467	-4
0.03833	-4
0.04200	-4
0.04567	-6
0.04933	-4
0.05300	-4
0.05667	-2
0.06033	-0
0.06400	1
0.06767	3
0.07133	4
0.07500	1
0.07867	0
0.08233	1
0.08600	1
0.08967	4
0.09333	6
0.09700	7
0.10067	6
0.10433	4
0.10800	4
0.11167	4
0.11533	4
0.11900	4
0.12267	3
0.12633	2
0.13000	1
0.13367	-0
0.13733	-3
0.14100	-3
0.14467	-1
0.14833	-0
0.15200	0
0.15567	1
0.15933	2
0.16300	3
0.16667	4
0.17033	3
0.17400	3
0.17767	4
0.18133	4
0.18500	4
0.18867	3
0.19233	2
0.19600	2
0.19967	3
0.20333	2
0.20700	3
0.21067	5
0.21433	7
0.21800	5
0.22167	3
0.22533	1
0.22900	1
0.23267	4
0.23633	7
0.24000	9
0.24367	6
0.24733	3
0.25100	2
0.25467	-0
0.25833	-2
0.26200	0
0.26567	4
0.26933	7
0.27300	6
0.27667	5
0.28033	2
0.28400	-0
0.28767	-1
0.29133	-1
0.29500	1
0.29867	3
0.30233	5
0.30600	4
0.30967	2
0.31333	1
0.31700	3
0.32067	5
0.32433	5
0.32800	7
0.33167	7
0.33533	7
0.33900	7
0.34267	7
0.34633	7
0.35000	6
0.35367	7
0.35733	5
0.36100	5
0.36467	3
0.36833	2
0.37200	4
0.37567	8
0.37933	9
0.38300	8
0.38667	7
0.39033	6
0.39400	5
0.39767	7
0.40133	8
0.40500	9
0.40867	9
0.41233	7
0.41600	5
0.41967	5
0.42333	5
0.42700	4
0.43067	2
0.43433	1
0.43800	2
0.44167	4
0.44533	5
0.44900	5
0.45267	7
0.45633	9
0.46000	9
0.46367	10
0.46733	12
0.47100	11
0.47467	5
0.47833	1
0.48200	2
0.48567	6
0.48933	8
0.49300	9
0.49667	9
0.50033	9
0.50400	8
0.50767	7
0.51133	5
0.51500	4
0.51867	4
0.52233	5
0.52600	4
0.52967	4
0.53333	5
0.53700	4
0.54067	3
0.54433	1
0.54800	2
0.55167	2
0.55533	1
0.55900	1
0.56267	1
0.56633	2
0.57000	2
0.57367	3
0.57733	4
0.58100	5
0.58467	7
0.58833	8
0.59200	7
0.59567	7
0.59933	6
0.60300	3
0.60667	3
0.61033	4
0.61400	5
0.61767	4
0.62133	2
0.62500	1
0.62867	3
0.63233	4
0.63600	6
0.63967	7
0.64333	7
0.64700	7
0.65067	7
0.65433	6
0.65800	6
0.66167	7
0.66533	10
0.66900	11
0.67267	12
0.67633	14
0.68000	14
0.68367	13
0.68733	11
0.69100	11
0.69467	12
0.69833	11
0.70200	11
0.70567	11
0.70933	11
0.71300	11
0.71667	10
0.72033	7
0.72400	5
0.72767	6
0.73133	7
0.73500	8
0.73867	8
0.74233	6
0.74600	5
0.74967	6
0.75333	8
0.75700	10
0.76067	11
0.76433	9
0.76800	6
0.77167	1
0.77533	-3
0.77900	-5
0.78267	-3
0.78633	-2
0.79000	-1
0.79367	-1
0.79733	2
0.80100	3
0.80467	2
0.80833	1
0.81200	2
0.81567	3
0.81933	4
0.82300	5
0.82667	5
0.83033	5
0.83400	7
0.83767	6
0.84133	5
0.84500	4
0.84867	4
0.85233	3
0.85600	4
0.85967	4
0.86333	5
0.86700	5
0.87067	4
0.87433	3
0.87800	4
0.88167	3
0.88533	3
0.88900	2
0.89267	2
0.89633	2
0.90000	1
0.90367	2
0.90733	2
0.91100	2
0.91467	3
0.91833	3
0.92200	7
0.92567	8
0.92933	9
0.93300	8
0.93667	8
0.94033	9
0.94400	8
0.94767	7
0.95133	6
0.95500	6
0.95867	6
0.96233	5
0.96600	3
0.96967	3
0.97333	3
0.97700	2
0.98067	3
0.98433	4
0.98800	2
0.99167	0
0.99533	2
0.99900	4
1.00267	3
1.00633	3
1.01000	3
1.01367	3
1.01733	2
1.02100	1
1.02467	1
1.02833	0
1.03200	1
1.03567	3
1.03933	4
1.04300	5
1.04667	7
1.05033	5
1.05400	3
1.05767	1
1.06133	-1
1.06500	-2
1.06867	-3
1.07233	-5
1.07600	-5
1.07967	-2
1.08333	-1
1.08700	0
1.09067	2
1.09433	2
1.09800	4
1.10167	5
1.10533	4
1.10900	0
1.11267	-2
1.11633	-0
1.12000	3
1.12367	3
1.12733	-1
1.13100	-4
1.13467	-3
1.13833	-2
1.14200	-0
1.14567	0
1.14933	-0
1.15300	-1
1.15667	-0
1.16033	-0
1.16400	-2
1.16767	-5
1.17133	-4
1.17500	-3
1.17867	-4
1.18233	-5
1.18600	-3
1.18967	-2
1.19333	-2
1.19700	-2
1.20067	-2
1.20433	-4
1.20800	-5
1.21167	-4
1.21533	-2
1.21900	-0
1.22267	-2
1.22633	-0
1.23000	0
1.23367	0
1.23733	1
1.24100	2
1.24467	1
1.24833	-0
1.25200	-2
1.25567	-1
1.25933	0
1.26300	-1
1.26667	-1
1.27033	0
1.27400	0
1.27767	0
1.28133	-0
1.28500	-1
1.28867	-2
1.29233	-4
1.29600	-4
1.29967	-3
1.30333	-4
1.30700	-4
1.31067	-3
1.31433	-3
1.31800	-4
1.32167	-4
1.32533	-4
1.32900	-6
1.33267	-7
1.33633	-7
1.34000	-8
1.34367	-9
1.34733	-7
1.35100	-6
1.35467	-5
1.35833	-6
1.36200	-5
1.36567	-3
1.36933	-2
1.37300	-1
1.37667	-2
1.38033	-2
1.38400	-2
1.38767	-3
1.39133	-2
1.39500	-3
1.39867	-4
1.40233	-2
1.40600	-1
1.40967	-3
1.41333	-4
1.41700	-5
1.42067	-6
1.42433	-6
1.42800	-6
1.43167	-6
1.43533	-7
1.43900	-7
1.44267	-7
1.44633	-6
1.45000	-7
1.45367	-6
1.45733	-4
1.46100	-5
1.46467	-6
1.46833	-5
1.47200	-4
1.47567	-3
1.47933	-4
1.48300	-6
1.48667	-8
1.49033	-10
1.49400	-10
1.49767	-9
1.50133	-6
1.50500	-4
1.50867	-5
1.51233	-5
1.51600	-4
1.51967	-2
1.52333	-3
1.52700	-3
1.53067	-4
1.53433	-5
1.53800	-6
1.54167	-6
1.54533	-5
1.54900	-6
1.55267	-8
1.55633	-8
1.56000	-8
1.56367	-5
1.56733	-4
1.57100	-4
1.57467	-4
1.57833	-3
1.58200	-3
1.58567	-3
1.58933	-2
1.59300	-1
1.59667	1
1.60033	1
1.60400	-0
1.60767	-0
1.61133	-1
1.61500	-1
1.61867	-2
1.62233	-2
1.62600	-3
1.62967	-3
1.63333	-0
1.63700	0
1.64067	-1
1.64433	-1
1.64800	-2
1.65167	-4
1.65533	-5
1.65900	-3
1.66267	-1
1.66633	1
1.67000	2
1.67367	2
1.67733	2
1.68100	3
1.68467	3
1.68833	2
1.69200	2
1.69567	2
1.69933	1
1.70300	-0
1.70667	-0
1.71033	-1
1.71400	-1
1.71767	0
1.72133	3
1.72500	5
1.72867	7
1.73233	8
1.73600	9
1.73967	10
1.74333	10
1.74700	10
1.75067	10
1.75433	9
1.75800	10
1.76167	12
1.76533	11
1.76900	8
1.77267	7
1.77633	8
1.78000	10
1.78367	12
1.78733	14
1.79100	18
1.79467	20
1.79833	19
1.80200	18
1.80567	16
1.80933	15
1.81300	14
1.81667	15
1.82033	18
1.82400	21
1.82767	23
1.83133	24
1.83500	24
1.83867	25
1.84233	23
1.84600	23
1.84967	23
1.85333	21
1.85700	20
1.86067	20
1.86433	21
1.86800	22
1.87167	21
1.87533	22
1.87900	22
1.88267	21
1.88633	22
1.89000	23
1.89367	25
1.89733	28
1.90100	30
1.90467	29
1.90833	30
1.91200	30
1.91567	31
1.91933	31
1.92300	32
1.92667	32
1.93033	33
1.93400	35
1.93767	35
1.94133	35
1.94500	34
1.94867	34
1.95233	35
1.95600	34
1.95967	37
1.96333	39
1.96700	40
1.97067	42
1.97433	45
1.97800	48
1.98167	49
1.98533	46
1.98900	43
1.99267	42
1.99633	41
2.00000	43
2.00367	45
2.00733	47
2.01100	47
2.01467	44
2.01833	43
2.02200	45
2.02567	46
2.02933	47
2.03300	47
2.03667	46
2.04033	45
2.04400	48
2.04767	51
2.05133	54
2.05500	58
2.05867	60
2.06233	61
2.06600	62
2.06967	61
2.07333	62
2.07700	63
2.08067	63
2.08433	64
2.08800	67
2.09167	67
2.09533	67
2.09900	67
2.10267	66
2.10633	68
2.11000	72
2.11367	73
2.11733	73
2.12100	72
2.12467	72
2.12833	72
2.13200	73
2.13567	76
2.13933	79
2.14300	80
2.14667	80
2.15033	79
2.15400	79
2.15767	79
2.16133	79
2.16500	79
2.16867	82
2.17233	86
2.17600	88
2.17967	87
2.18333	89
2.18700	92
2.19067	93
2.19433	95
2.19800	96
2.20167	96
2.20533	95
2.20900	94
2.21267	93
2.21633	92
2.22000	95
2.22367	98
2.22733	100
2.23100	102
2.23467	104
2.23833	104
2.24200	105
2.24567	107
2.24933	112
2.25300	113
2.25667	111
2.26033	110
2.26400	110
2.26767	108
2.27133	108
2.27500	110
2.27867	110
2.28233	112
2.28600	114
2.28967	117
2.29333	121
2.29700	122
2.30067	122
2.30433	122
2.30800	123
2.31167	123
2.31533	122
2.31900	121
2.32267	122
2.32633	123
2.33000	124
2.33367	126
2.33733	129
2.34100	131
2.34467	131
2.34833	133
2.35200	134
2.35567	135
2.35933	136
2.36300	138
2.36667	140
2.37033	141
2.37400	139
2.37767	138
2.38133	139
2.38500	140
2.38867	139
2.39233	139
2.39600	140
2.39967	144
2.40333	147
2.40700	150
2.41067	152
2.41433	155
2.41800	156
2.42167	158
2.42533	161
2.42900	160
2.43267	160
2.43633	160
2.44000	164
2.44367	201
2.44733	294
2.45100	399
2.45467	481
2.45833	518
2.46200	523
2.46567	523
2.46933	522
2.47300	511
2.47667	486
2.48033	452
2.48400	414
2.48767	380
2.49133	355
2.49500	342
2.49867	338
2.50233	343
2.50600	353
2.50967	365
2.51333	372
2.51700	369
2.52067	356
2.52433	337
2.52800	315
2.53167	294
2.53533	275
2.53900	256
2.54267	242
2.54633	236
2.55000	230
2.55367	227
2.55733	226
2.56100	223
2.56467	222
2.56833	221
2.57200	223
2.57567	226
2.57933	231
2.58300	240
2.58667	251
2.59033	263
2.59400	273
2.59767	284
2.60133	293
2.60500	293
2.60867	285
2.61233	266
2.61600	236
2.61967	208
2.62333	188
2.62700	175
2.63067	165
2.63433	152
2.63800	135
2.64167	125
2.64533	127
2.64900	145
2.65267	173
2.65633	208
2.66000	247
2.66367	285
2.66733	324
2.67100	363
2.67467	398
2.67833	429
2.68200	456
2.68567	481
2.68933	506
2.69300	530
2.69667	553
2.70033	577
2.70400	600
2.70767	622
2.71133	643
2.71500	663
2.71867	681
2.72233	697
2.72600	714
2.72967	732
2.73333	749
2.73700	767
2.74067	780
2.74433	791
2.74800	802
2.75167	812
2.75533	819
2.75900	824
2.76267	825
2.76633	823
2.77000	820
2.77367	817
2.77733	815
2.78100	810
2.78467	803
2.78833	795
2.79200	788
2.79567	781
2.79933	775
2.80300	768
2.80667	762
2.81033	755
2.81400	750
2.81767	747
2.82133	744
2.82500	748
2.82867	762
2.83233	796
2.83600	865
2.83967	993
2.84333	1212
2.84700	1542
2.85067	1990
2.85433	2548
2.85800	3192
2.86167	3877
2.86533	4552
2.86900	5165
2.87267	5661
2.87633	6006
2.88000	6183
2.88367	6198
2.88733	6070
2.89100	5831
2.89467	5512
2.89833	5144
2.90200	4750
2.90567	4351
2.90933	3962
2.91300	3596
2.91667	3255
2.92033	2944
2.92400	2666
2.92767	2420
2.93133	2201
2.93500	2009
2.93867	1842
2.94233	1695
2.94600	1568
2.94967	1456
2.95333	1358
2.95700	1274
2.96067	1203
2.96433	1142
2.96800	1088
2.97167	1040
2.97533	1003
2.97900	971
2.98267	945
2.98633	920
2.99000	899
2.99367	882
2.99733	867
3.00100	854
3.00467	842
3.00833	835
3.01200	828
3.01567	823
3.01933	818
3.02300	812
3.02667	807
3.03033	803
3.03400	799
3.03767	797
3.04133	796
3.04500	796
3.04867	796
3.05233	794
3.05600	792
3.05967	789
3.06333	787
3.06700	784
3.07067	784
3.07433	782
3.07800	779
3.08167	775
3.08533	771
3.08900	767
3.09267	766
3.09633	765
3.10000	764
3.10367	762
3.10733	759
3.11100	757
3.11467	753
3.11833	749
3.12200	746
3.12567	740
3.12933	733
3.13300	728
3.13667	723
3.14033	719
3.14400	713
3.14767	711
3.15133	708
3.15500	705
3.15867	701
3.16233	698
3.16600	692
3.16967	687
3.17333	684
3.17700	680
3.18067	677
3.18433	674
3.18800	670
3.19167	665
3.19533	660
3.19900	654
3.20267	650
3.20633	645
3.21000	643
3.21367	640
3.21733	638
3.22100	636
3.22467	633
3.22833	632
3.23200	629
3.23567	623
3.23933	618
3.24300	613
3.24667	610
3.25033	608
3.25400	605
3.25767	602
3.26133	599
3.26500	596
3.26867	596
3.27233	596
3.27600	594
3.27967	589
3.28333	584
3.28700	580
3.29067	578
3.29433	577
3.29800	576
3.30167	572
3.30533	566
3.30900	560
3.31267	554
3.31633	550
3.32000	548
3.32367	543
3.32733	538
3.33100	533
3.33467	530
3.33833	530
3.34200	528
3.34567	525
3.34933	522
3.35300	519
3.35667	517
3.36033	516
3.36400	515
3.36767	515
3.37133	514
3.37500	512
3.37867	509
3.38233	506
3.38600	503
3.38967	499
3.39333	497
3.39700	495
3.40067	492
3.40433	488
3.40800	483
3.41167	479
3.41533	476
3.41900	473
3.42267	470
3.42633	468
3.43000	465
3.43367	464
3.43733	464
3.44100	463
3.44467	460
3.44833	458
3.45200	454
3.45567	450
3.45933	446
3.46300	444
3.46667	444
3.47033	443
3.47400	443
3.47767	442
3.48133	441
3.48500	440
3.48867	437
3.49233	435
3.49600	432
3.49967	429
3.50333	426
3.50700	424
3.51067	423
3.51433	421
3.51800	419
3.52167	415
3.52533	413
3.52900	413
3.53267	412
3.53633	411
3.54000	411
3.54367	410
3.54733	409
3.55100	406
3.55467	404
3.55833	406
3.56200	407
3.56567	408
3.56933	408
3.57300	407
3.57667	405
3.58033	403
3.58400	400
3.58767	397
3.59133	397
3.59500	395
3.59867	393
3.60233	392
3.60600	392
3.60967	390
3.61333	386
3.61700	384
3.62067	383
3.62433	384
3.62800	383
3.63167	382
3.63533	380
3.63900	378
3.64267	379
3.64633	381
3.65000	382
3.65367	382
3.65733	381
3.66100	379
3.66467	378
3.66833	377
3.67200	377
3.67567	377
3.67933	377
3.68300	378
3.68667	376
3.69033	372
3.69400	369
3.69767	369
3.70133	367
3.70500	367
3.70867	365
3.71233	364
3.71600	364
3.71967	364
3.72333	364
3.72700	363
3.73067	365
3.73433	364
3.73800	362
3.74167	362
3.74533	363
3.74900	360
3.75267	358
3.75633	359
3.76000	357
3.76367	356
3.76733	356
3.77100	356
3.77467	355
3.77833	355
3.78200	354
3.78567	354
3.78933	356
3.79300	358
3.79667	357
3.80033	354
3.80400	352
3.80767	352
3.81133	349
3.81500	347
3.81867	347
3.82233	347
3.82600	348
3.82967	348
3.83333	345
3.83700	345
3.84067	347
3.84433	347
3.84800	346
3.85167	344
3.85533	343
3.85900	342
3.86267	341
3.86633	339
3.87000	339
3.87367	340
3.87733	340
3.88100	340
3.88467	342
3.88833	343
3.89200	340
3.89567	339
3.89933	339
3.90300	339
3.90667	338
3.91033	334
3.91400	330
3.91767	327
3.92133	327
3.92500	327
3.92867	329
3.93233	328
3.93600	326
3.93967	326
3.94333	326
3.94700	326
3.95067	327
3.95433	326
3.95800	327
3.96167	325
3.96533	322
3.96900	319
3.97267	319
3.97633	319
3.98000	320
3.98367	319
3.98733	320
3.99100	317
3.99467	312
3.99833	307

[Status Trace (Column Oven Temperature)]
Interval(msec)	1000
# of Points	240
Start Time(min)	0.009
End Time(min)	3.992
Intensity Units	
Intensity Multiplier	1
R.Time (min)	Intensity
0.00863	35.00
0.02530	35.01
0.04197	35.01
0.05863	35.00
0.07530	35.01
0.09197	35.01
0.10863	35.02
0.12530	35.02
0.14197	35.03
0.15863	35.04
0.17530	35.04
0.19197	35.03
0.20863	35.03
0.22530	35.02
0.24197	35.01
0.25863	35.00
0.27530	35.00
0.29197	35.00
0.30863	34.99
0.32530	34.99
0.34197	34.99
0.35863	34.99
0.37530	34.99
0.39197	34.99
0.40863	34.99
0.42530	34.99
0.44197	35.00
0.45863	35.01
0.47530	35.00
0.49197	35.00
0.50863	35.00
0.52530	34.99
0.54197	34.99
0.55863	34.99
0.57530	34.99
0.59197	34.99
0.60863	34.99
0.62530	34.99
0.64197	34.99
0.65863	35.00
0.67530	34.99
0.69197	34.99
0.70863	35.00
0.72530	35.01
0.74197	35.01
0.75863	35.00
0.77530	35.00
0.79197	34.99
0.80863	34.99
0.82530	34.99
0.84197	34.99
0.85863	34.98
0.87530	34.98
0.89197	34.98
0.90863	34.98
0.92530	34.98
0.94197	34.98
0.95863	34.98
0.97530	34.98
0.99197	34.98
1.00863	34.98
1.02530	35.00
1.04197	35.00
1.05863	35.00
1.07530	35.00
1.09197	35.00
1.10863	35.00
1.12530	35.00
1.14197	35.00
1.15863	34.99
1.17530	34.99
1.19197	34.99
1.20863	34.99
1.22530	34.98
1.24197	34.99
1.25863	34.99
1.27530	35.00
1.29197	35.00
1.30863	35.00
1.32530	34.99
1.34197	34.99
1.35863	34.99
1.37530	34.99
1.39197	34.99
1.40863	35.00
1.42530	35.01
1.44197	35.00
1.45863	35.00
1.47530	35.01
1.49197	35.00
1.50863	35.00
1.52530	34.99
1.54197	34.99
1.55863	34.99
1.57530	34.99
1.59197	35.01
1.60863	35.07
1.62530	35.20
1.64197	35.38
1.65863	35.63
1.67530	35.97
1.69197	36.33
1.70863	36.68
1.72530	37.02
1.74197	37.35
1.75863	37.66
1.77530	38.01
1.79197	38.34
1.80863	38.67
1.82530	39.01
1.84197	39.32
1.85863	39.66
1.87530	39.98
1.89197	40.31
1.90863	40.63
1.92530	40.97
1.94197	41.28
1.95863	41.61
1.97530	41.94
1.99197	42.27
2.00863	42.60
2.02530	42.89
2.04197	43.22
2.05863	43.55
2.07530	43.87
2.09197	44.19
2.10863	44.53
2.12530	44.86
2.14197	45.18
2.15863	45.51
2.17530	45.84
2.19197	46.18
2.20863	46.50
2.22530	46.81
2.24197	47.17
2.25863	47.52
2.27530	47.83
2.29197	48.17
2.30863	48.48
2.32530	48.84
2.34197	49.15
2.35863	49.44
2.37530	49.64
2.39197	49.71
2.40863	49.70
2.42530	49.71
2.44197	49.69
2.45863	49.73
2.47530	49.73
2.49197	49.75
2.50863	49.75
2.52530	49.76
2.54197	49.77
2.55863	49.79
2.57530	49.79
2.59197	49.83
2.60863	49.84
2.62530	49.85
2.64197	49.84
2.65863	49.85
2.67530	49.84
2.69197	49.85
2.70863	49.85
2.72530	49.85
2.74197	49.85
2.75863	49.85
2.77530	49.86
2.79197	49.87
2.80863	49.88
2.82530	49.87
2.84197	49.86
2.85863	49.87
2.87530	49.88
2.89197	49.89
2.90863	49.90
2.92530	49.91
2.94197	49.93
2.95863	49.95
2.97530	49.95
2.99197	49.96
3.00863	49.96
3.02530	49.97
3.04197	49.98
3.05863	49.99
3.07530	50.00
3.09197	50.00
3.10863	50.00
3.12530	50.02
3.14197	50.03
3.15863	50.04
3.17530	50.05
3.19197	50.06
3.20863	50.06
3.22530	50.07
3.24197	50.07
3.25863	50.08
3.27530	50.08
3.29197	50.08
3.30863	50.09
3.32530	50.09
3.34197	50.10
3.35863	50.10
3.37530	50.10
3.39197	50.10
3.40863	50.09
3.42530	50.09
3.44197	50.09
3.45863	50.10
3.47530	50.09
3.49197	50.08
3.50863	50.08
3.52530	50.08
3.54197	50.08
3.55863	50.08
3.57530	50.07
3.59197	50.08
3.60863	50.08
3.62530	50.08
3.64197	50.08
3.65863	50.08
3.67530	50.08
3.69197	50.08
3.70863	50.08
3.72530	50.07
3.74197	50.07
3.75863	50.07
3.77530	50.07
3.79197	50.07
3.80863	50.07
3.82530	50.08
3.84197	50.07
3.85863	50.07
3.87530	50.08
3.89197	50.08
3.90863	50.08
3.92530	50.08
3.94197	50.07
3.95863	50.06
3.97530	50.06
3.99197	50.07

[Status Trace (Injection Unit Temperature)]
Interval(msec)	1000
# of Points	240
Start Time(min)	0.009
End Time(min)	3.992
Intensity Units	
Intensity Multiplier	1
R.Time (min)	Intensity
0.00863	99.98
0.02530	99.98
0.04197	99.98
0.05863	99.99
0.07530	99.98
0.09197	99.98
0.10863	99.98
0.12530	99.99
0.14197	99.99
0.15863	99.98
0.17530	99.98
0.19197	99.98
0.20863	99.99
0.22530	99.99
0.24197	99.99
0.25863	99.98
0.27530	99.99
0.29197	99.99
0.30863	99.99
0.32530	99.99
0.34197	99.99
0.35863	99.99
0.37530	99.99
0.39197	99.98
0.40863	99.98
0.42530	99.98
0.44197	99.99
0.45863	99.99
0.47530	99.99
0.49197	99.99
0.50863	99.99
0.52530	99.99
0.54197	99.99
0.55863	99.99
0.57530	99.99
0.59197	99.99
0.60863	99.99
0.62530	99.99
0.64197	99.99
0.65863	99.99
0.67530	99.99
0.69197	99.99
0.70863	99.99
0.72530	99.99
0.74197	99.99
0.75863	99.99
0.77530	99.99
0.79197	99.99
0.80863	99.99
0.82530	99.99
0.84197	99.99
0.85863	99.99
0.87530	99.99
0.89197	99.99
0.90863	99.99
0.92530	99.99
0.94197	99.99
0.95863	99.98
0.97530	99.98
0.99197	99.99
1.00863	99.98
1.02530	99.98
1.04197	99.99
1.05863	99.99
1.07530	99.98
1.09197	99.99
1.10863	99.99
1.12530	99.99
1.14197	99.98
1.15863	99.99
1.17530	99.99
1.19197	99.99
1.20863	99.99
1.22530	99.99
1.24197	99.99
1.25863	99.98
1.27530	99.99
1.29197	99.98
1.30863	99.99
1.32530	99.99
1.34197	99.98
1.35863	99.98
1.37530	99.99
1.39197	99.98
1.40863	99.99
1.42530	99.99
1.44197	99.98
1.45863	99.97
1.47530	99.98
1.49197	99.99
1.50863	99.98
1.52530	99.99
1.54197	99.99
1.55863	99.98
1.57530	99.99
1.59197	99.99
1.60863	99.98
1.62530	99.99
1.64197	99.99
1.65863	99.98
1.67530	99.99
1.69197	99.99
1.70863	99.99
1.72530	99.99
1.74197	99.99
1.75863	99.99
1.77530	99.99
1.79197	99.99
1.80863	99.98
1.82530	99.98
1.84197	99.98
1.85863	99.98
1.87530	99.98
1.89197	99.98
1.90863	99.98
1.92530	99.98
1.94197	99.98
1.95863	99.98
1.97530	99.98
1.99197	99.98
2.00863	99.98
2.02530	99.98
2.04197	99.97
2.05863	99.97
2.07530	99.97
2.09197	99.97
2.10863	99.97
2.12530	99.97
2.14197	99.97
2.15863	99.97
2.17530	99.97
2.19197	99.97
2.20863	99.97
2.22530	99.97
2.24197	99.97
2.25863	99.97
2.27530	99.97
2.29197	99.97
2.30863	99.97
2.32530	99.97
2.34197	99.97
2.35863	99.97
2.37530	99.97
2.39197	99.97
2.40863	99.97
2.42530	99.97
2.44197	99.97
2.45863	99.97
2.47530	99.97
2.49197	99.97
2.50863	99.97
2.52530	99.97
2.54197	99.97
2.55863	99.98
2.57530	99.98
2.59197	99.98
2.60863	99.98
2.62530	99.98
2.64197	99.98
2.65863	99.98
2.67530	99.98
2.69197	99.99
2.70863	99.98
2.72530	99.99
2.74197	99.98
2.75863	99.99
2.77530	99.99
2.79197	99.99
2.80863	99.99
2.82530	100.00
2.84197	100.00
2.85863	100.00
2.87530	100.00
2.89197	100.00
2.90863	100.00
2.92530	100.00
2.94197	100.01
2.95863	100.00
2.97530	100.01
2.99197	100.01
3.00863	100.01
3.02530	100.01
3.04197	100.01
3.05863	100.01
3.07530	100.02
3.09197	100.02
3.10863	100.01
3.12530	100.02
3.14197	100.02
3.15863	100.02
3.17530	100.02
3.19197	100.02
3.20863	100.02
3.22530	100.02
3.24197	100.03
3.25863	100.02
3.27530	100.03
3.29197	100.03
3.30863	100.03
3.32530	100.03
3.34197	100.03
3.35863	100.03
3.37530	100.03
3.39197	100.03
3.40863	100.04
3.42530	100.04
3.44197	100.04
3.45863	100.04
3.47530	100.04
3.49197	100.04
3.50863	100.04
3.52530	100.04
3.54197	100.04
3.55863	100.04
3.57530	100.04
3.59197	100.04
3.60863	100.05
3.62530	100.05
3.64197	100.05
3.65863	100.05
3.67530	100.05
3.69197	100.05
3.70863	100.05
3.72530	100.05
3.74197	100.05
3.75863	100.05
3.77530	100.05
3.79197	100.05
3.80863	100.05
3.82530	100.05
3.84197	100.05
3.85863	100.05
3.87530	100.05
3.89197	100.05
3.90863	100.05
3.92530	100.05
3.94197	100.05
3.95863	100.05
3.97530	100.05
3.99197	100.05

[Status Trace (Carrier Gas Pressure)]
Interval(msec)	1000
# of Points	240
Start Time(min)	0.009
End Time(min)	3.992
Intensity Units	
Intensity Multiplier	1
R.Time (min)	Intensity
0.00863	58.00
0.02530	55.38
0.04197	57.19
0.05863	59.35
0.07530	59.40
0.09197	58.05
0.10863	57.98
0.12530	58.01
0.14197	58.01
0.15863	58.01
0.17530	58.00
0.19197	58.00
0.20863	58.00
0.22530	58.00
0.24197	58.00
0.25863	58.00
0.27530	58.00
0.29197	58.00
0.30863	58.00
0.32530	58.00
0.34197	58.00
0.35863	58.00
0.37530	58.00
0.39197	58.00
0.40863	58.00
0.42530	58.00
0.44197	58.00
0.45863	58.00
0.47530	58.00
0.49197	58.00
0.50863	58.00
0.52530	58.00
0.54197	58.00
0.55863	58.00
0.57530	58.00
0.59197	58.00
0.60863	58.00
0.62530	58.00
0.64197	58.00
0.65863	58.00
0.67530	58.00
0.69197	58.00
0.70863	58.00
0.72530	58.00
0.74197	58.00
0.75863	58.00
0.77530	58.00
0.79197	58.00
0.80863	58.00
0.82530	58.00
0.84197	58.00
0.85863	58.00
0.87530	58.00
0.89197	58.00
0.90863	58.00
0.92530	58.00
0.94197	58.00
0.95863	58.00
0.97530	58.00
0.99197	58.00
1.00863	58.00
1.02530	58.00
1.04197	58.00
1.05863	58.00
1.07530	58.00
1.09197	58.00
1.10863	58.00
1.12530	58.00
1.14197	58.00
1.15863	58.00
1.17530	58.00
1.19197	58.00
1.20863	58.00
1.22530	58.00
1.24197	58.00
1.25863	58.00
1.27530	58.00
1.29197	58.00
1.30863	58.00
1.32530	58.00
1.34197	58.00
1.35863	58.00
1.37530	58.00
1.39197	58.00
1.40863	58.00
1.42530	58.00
1.44197	58.00
1.45863	58.00
1.47530	58.00
1.49197	58.00
1.50863	58.00
1.52530	58.00
1.54197	58.00
1.55863	58.00
1.57530	58.00
1.59197	58.00
1.60863	58.00
1.62530	58.00
1.64197	58.00
1.65863	58.00
1.67530	58.01
1.69197	58.00
1.70863	58.00
1.72530	58.00
1.74197	58.00
1.75863	58.00
1.77530	58.00
1.79197	58.00
1.80863	58.00
1.82530	58.00
1.84197	58.00
1.85863	58.00
1.87530	58.00
1.89197	58.00
1.90863	58.00
1.92530	58.00
1.94197	58.00
1.95863	58.00
1.97530	58.00
1.99197	58.00
2.00863	58.00
2.02530	58.00
2.04197	58.00
2.05863	58.00
2.07530	58.00
2.09197	58.00
2.10863	58.00
2.12530	58.00
2.14197	58.00
2.15863	58.00
2.17530	58.00
2.19197	58.00
2.20863	58.00
2.22530	58.00
2.24197	58.00
2.25863	58.00
2.27530	58.00
2.29197	58.00
2.30863	58.00
2.32530	58.00
2.34197	58.00
2.35863	58.00
2.37530	58.00
2.39197	57.99
2.40863	57.99
2.42530	58.00
2.44197	58.00
2.45863	58.00
2.47530	58.00
2.49197	58.00
2.50863	58.00
2.52530	57.98
2.54197	58.00
2.55863	58.00
2.57530	58.00
2.59197	58.00
2.60863	58.00
2.62530	58.00
2.64197	58.00
2.65863	58.00
2.67530	58.00
2.69197	58.00
2.70863	58.00
2.72530	58.00
2.74197	58.00
2.75863	58.00
2.77530	58.00
2.79197	58.00
2.80863	58.00
2.82530	58.00
2.84197	58.00
2.85863	58.00
2.87530	58.00
2.89197	58.00
2.90863	58.00
2.92530	58.00
2.94197	58.00
2.95863	58.00
2.97530	58.00
2.99197	58.00
3.00863	58.00
3.02530	58.00
3.04197	58.00
3.05863	58.00
3.07530	58.00
3.09197	58.00
3.10863	58.00
3.12530	58.00
3.14197	58.00
3.15863	58.00
3.17530	58.00
3.19197	58.00
3.20863	58.00
3.22530	58.00
3.24197	58.00
3.25863	58.00
3.27530	58.00
3.29197	58.00
3.30863	58.00
3.32530	58.00
3.34197	58.00
3.35863	58.00
3.37530	58.00
3.39197	58.00
3.40863	58.00
3.42530	58.00
3.44197	58.00
3.45863	58.00
3.47530	58.00
3.49197	58.00
3.50863	58.00
3.52530	58.00
3.54197	58.00
3.55863	58.00
3.57530	58.00
3.59197	58.00
3.60863	58.00
3.62530	58.00
3.64197	58.00
3.65863	58.00
3.67530	58.00
3.69197	58.00
3.70863	58.00
3.72530	58.00
3.74197	58.00
3.75863	58.00
3.77530	58.00
3.79197	58.00
3.80863	58.00
3.82530	58.00
3.84197	58.00
3.85863	58.00
3.87530	58.00
3.89197	58.00
3.90863	58.00
3.92530	58.00
3.94197	58.00
3.95863	58.00
3.97530	58.00
3.99197	58.00

[Status Trace (Carrier Gas Flow)]
Interval(msec)	1000
# of Points	240
Start Time(min)	0.009
End Time(min)	3.992
Intensity Units	
Intensity Multiplier	1
R.Time (min)	Intensity
0.00863	34.52
0.02530	34.54
0.04197	34.55
0.05863	34.55
0.07530	34.51
0.09197	34.50
0.10863	34.52
0.12530	34.52
0.14197	34.52
0.15863	34.52
0.17530	34.52
0.19197	34.52
0.20863	34.52
0.22530	34.52
0.24197	34.52
0.25863	34.52
0.27530	34.52
0.29197	34.52
0.30863	34.52
0.32530	34.52
0.34197	34.52
0.35863	34.52
0.37530	34.52
0.39197	34.52
0.40863	34.52
0.42530	34.52
0.44197	34.52
0.45863	34.52
0.47530	34.52
0.49197	34.52
0.50863	34.52
0.52530	34.52
0.54197	34.52
0.55863	34.52
0.57530	34.52
0.59197	34.52
0.60863	34.52
0.62530	34.52
0.64197	34.52
0.65863	34.52
0.67530	34.52
0.69197	34.52
0.70863	34.52
0.72530	34.52
0.74197	34.52
0.75863	34.52
0.77530	34.52
0.79197	34.52
0.80863	34.52
0.82530	34.52
0.84197	34.52
0.85863	34.52
0.87530	34.52
0.89197	34.52
0.90863	34.52
0.92530	34.52
0.94197	34.52
0.95863	34.52
0.97530	34.52
0.99197	34.52
1.00863	34.52
1.02530	34.52
1.04197	34.52
1.05863	34.52
1.07530	34.52
1.09197	34.52
1.10863	34.52
1.12530	34.52
1.14197	34.52
1.15863	34.52
1.17530	34.52
1.19197	34.52
1.20863	34.52
1.22530	34.52
1.24197	34.52
1.25863	34.52
1.27530	34.52
1.29197	34.52
1.30863	34.52
1.32530	34.52
1.34197	34.52
1.35863	34.52
1.37530	34.52
1.39197	34.52
1.40863	34.52
1.42530	34.52
1.44197	34.52
1.45863	34.52
1.47530	34.52
1.49197	34.52
1.50863	34.52
1.52530	34.52
1.54197	34.52
1.55863	34.52
1.57530	34.52
1.59197	34.52
1.60863	34.52
1.62530	34.52
1.64197	34.52
1.65863	34.52
1.67530	34.52
1.69197	34.52
1.70863	34.52
1.72530	34.52
1.74197	34.52
1.75863	34.52
1.77530	34.52
1.79197	34.52
1.80863	34.52
1.82530	34.52
1.84197	34.52
1.85863	34.52
1.87530	34.52
1.89197	34.52
1.90863	34.52
1.92530	34.52
1.94197	34.52
1.95863	34.52
1.97530	34.52
1.99197	34.52
2.00863	34.52
2.02530	34.52
2.04197	34.52
2.05863	34.52
2.07530	34.52
2.09197	34.52
2.10863	34.52
2.12530	34.52
2.14197	34.52
2.15863	34.52
2.17530	34.52
2.19197	34.52
2.20863	34.52
2.22530	34.52
2.24197	34.52
2.25863	34.52
2.27530	34.52
2.29197	34.52
2.30863	34.52
2.32530	34.52
2.34197	34.52
2.35863	34.52
2.37530	34.52
2.39197	34.52
2.40863	34.52
2.42530	34.52
2.44197	34.52
2.45863	34.52
2.47530	34.52
2.49197	34.52
2.50863	34.49
2.52530	34.52
2.54197	34.52
2.55863	34.52
2.57530	34.52
2.59197	34.52
2.60863	34.52
2.62530	34.52
2.64197	34.52
2.65863	34.52
2.67530	34.52
2.69197	34.52
2.70863	34.54
2.72530	34.53
2.74197	34.51
2.75863	34.53
2.77530	34.52
2.79197	34.52
2.80863	34.51
2.82530	34.52
2.84197	34.52
2.85863	34.52
2.87530	34.52
2.89197	34.52
2.90863	34.52
2.92530	34.52
2.94197	34.52
2.95863	34.51
2.97530	34.52
2.99197	34.52
3.00863	34.52
3.02530	34.52
3.04197	34.52
3.05863	34.52
3.07530	34.52
3.09197	34.51
3.10863	34.53
3.12530	34.52
3.14197	34.52
3.15863	34.52
3.17530	34.52
3.19197	34.52
3.20863	34.52
3.22530	34.52
3.24197	34.52
3.25863	34.52
3.27530	34.52
3.29197	34.52
3.30863	34.52
3.32530	34.52
3.34197	34.52
3.35863	34.52
3.37530	34.52
3.39197	34.52
3.40863	34.52
3.42530	34.52
3.44197	34.52
3.45863	34.52
3.47530	34.52
3.49197	34.52
3.50863	34.52
3.52530	34.52
3.54197	34.52
3.55863	34.52
3.57530	34.52
3.59197	34.52
3.60863	34.52
3.62530	34.52
3.64197	34.52
3.65863	34.52
3.67530	34.52
3.69197	34.52
3.70863	34.52
3.72530	34.52
3.74197	34.52
3.75863	34.52
3.77530	34.52
3.79197	34.52
3.80863	34.52
3.82530	34.52
3.84197	34.52
3.85863	34.52
3.87530	34.52
3.89197	34.52
3.90863	34.52
3.92530	34.52
3.94197	34.52
3.95863	34.52
3.97530	34.52
3.99197	34.52

[Status Trace (Column Flow)]
Interval(msec)	1000
# of Points	240
Start Time(min)	0.009
End Time(min)	3.992
Intensity Units	
Intensity Multiplier	1
R.Time (min)	Intensity
0.00863	5.57
0.02530	5.26
0.04197	5.47
0.05863	5.73
0.07530	5.73
0.09197	5.57
0.10863	5.56
0.12530	5.57
0.14197	5.57
0.15863	5.57
0.17530	5.57
0.19197	5.57
0.20863	5.57
0.22530	5.57
0.24197	5.57
0.25863	5.57
0.27530	5.57
0.29197	5.57
0.30863	5.57
0.32530	5.57
0.34197	5.57
0.35863	5.57
0.37530	5.57
0.39197	5.57
0.40863	5.57
0.42530	5.57
0.44197	5.57
0.45863	5.57
0.47530	5.57
0.49197	5.57
0.50863	5.57
0.52530	5.57
0.54197	5.57
0.55863	5.57
0.57530	5.57
0.59197	5.57
0.60863	5.57
0.62530	5.57
0.64197	5.57
0.65863	5.57
0.67530	5.57
0.69197	5.57
0.70863	5.57
0.72530	5.57
0.74197	5.57
0.75863	5.57
0.77530	5.57
0.79197	5.57
0.80863	5.57
0.82530	5.57
0.84197	5.57
0.85863	5.57
0.87530	5.57
0.89197	5.57
0.90863	5.57
0.92530	5.57
0.94197	5.57
0.95863	5.57
0.97530	5.57
0.99197	5.57
1.00863	5.57
1.02530	5.57
1.04197	5.57
1.05863	5.57
1.07530	5.57
1.09197	5.57
1.10863	5.57
1.12530	5.57
1.14197	5.57
1.15863	5.57
1.17530	5.57
1.19197	5.57
1.20863	5.57
1.22530	5.57
1.24197	5.57
1.25863	5.57
1.27530	5.57
1.29197	5.57
1.30863	5.57
1.32530	5.57
1.34197	5.57
1.35863	5.57
1.37530	5.57
1.39197	5.57
1.40863	5.57
1.42530	5.57
1.44197	5.57
1.45863	5.57
1.47530	5.57
1.49197	5.57
1.50863	5.57
1.52530	5.57
1.54197	5.57
1.55863	5.57
1.57530	5.57
1.59197	5.57
1.60863	5.56
1.62530	5.56
1.64197	5.56
1.65863	5.55
1.67530	5.54
1.69197	5.53
1.70863	5.51
1.72530	5.50
1.74197	5.49
1.75863	5.48
1.77530	5.47
1.79197	5.46
1.80863	5.45
1.82530	5.44
1.84197	5.43
1.85863	5.42
1.87530	5.41
1.89197	5.40
1.90863	5.39
1.92530	5.38
1.94197	5.37
1.95863	5.36
1.97530	5.35
1.99197	5.34
2.00863	5.33
2.02530	5.32
2.04197	5.31
2.05863	5.31
2.07530	5.30
2.09197	5.29
2.10863	5.28
2.12530	5.27
2.14197	5.26
2.15863	5.25
2.17530	5.24
2.19197	5.23
2.20863	5.22
2.22530	5.21
2.24197	5.20
2.25863	5.19
2.27530	5.18
2.29197	5.17
2.30863	5.16
2.32530	5.15
2.34197	5.14
2.35863	5.14
2.37530	5.13
2.39197	5.13
2.40863	5.13
2.42530	5.13
2.44197	5.13
2.45863	5.13
2.47530	5.13
2.49197	5.13
2.50863	5.13
2.52530	5.12
2.54197	5.13
2.55863	5.13
2.57530	5.13
2.59197	5.12
2.60863	5.12
2.62530	5.12
2.64197	5.12
2.65863	5.12
2.67530	5.12
2.69197	5.12
2.70863	5.12
2.72530	5.12
2.74197	5.12
2.75863	5.12
2.77530	5.12
2.79197	5.12
2.80863	5.12
2.82530	5.12
2.84197	5.12
2.85863	5.12
2.87530	5.12
2.89197	5.12
2.90863	5.12
2.92530	5.12
2.94197	5.12
2.95863	5.12
2.97530	5.12
2.99197	5.12
3.00863	5.12
3.02530	5.12
3.04197	5.12
3.05863	5.12
3.07530	5.12
3.09197	5.12
3.10863	5.12
3.12530	5.12
3.14197	5.12
3.15863	5.12
3.17530	5.12
3.19197	5.12
3.20863	5.12
3.22530	5.12
3.24197	5.12
3.25863	5.12
3.27530	5.12
3.29197	5.12
3.30863	5.12
3.32530	5.12
3.34197	5.12
3.35863	5.12
3.37530	5.12
3.39197	5.12
3.40863	5.12
3.42530	5.12
3.44197	5.12
3.45863	5.12
3.47530	5.12
3.49197	5.12
3.50863	5.12
3.52530	5.12
3.54197	5.12
3.55863	5.12
3.57530	5.12
3.59197	5.12
3.60863	5.12
3.62530	5.12
3.64197	5.12
3.65863	5.12
3.67530	5.12
3.69197	5.12
3.70863	5.12
3.72530	5.12
3.74197	5.12
3.75863	5.12
3.77530	5.12
3.79197	5.12
3.80863	5.12
3.82530	5.12
3.84197	5.12
3.85863	5.12
3.87530	5.12
3.89197	5.12
3.90863	5.12
3.92530	5.12
3.94197	5.12
3.95863	5.12
3.97530	5.12
3.99197	5.12

[Status Trace (Linear Velocity)]
Interval(msec)	1000
# of Points	240
Start Time(min)	0.009
End Time(min)	3.992
Intensity Units	
Intensity Multiplier	1
R.Time (min)	Intensity
0.00863	39.03
0.02530	37.30
0.04197	38.49
0.05863	39.91
0.07530	39.94
0.09197	39.06
0.10863	39.01
0.12530	39.03
0.14197	39.03
0.15863	39.03
0.17530	39.03
0.19197	39.03
0.20863	39.03
0.22530	39.03
0.24197	39.03
0.25863	39.03
0.27530	39.03
0.29197	39.03
0.30863	39.03
0.32530	39.03
0.34197	39.03
0.35863	39.03
0.37530	39.03
0.39197	39.03
0.40863	39.03
0.42530	39.03
0.44197	39.03
0.45863	39.03
0.47530	39.03
0.49197	39.03
0.50863	39.03
0.52530	39.03
0.54197	39.03
0.55863	39.03
0.57530	39.03
0.59197	39.03
0.60863	39.03
0.62530	39.03
0.64197	39.03
0.65863	39.03
0.67530	39.03
0.69197	39.03
0.70863	39.03
0.72530	39.03
0.74197	39.03
0.75863	39.03
0.77530	39.03
0.79197	39.03
0.80863	39.03
0.82530	39.03
0.84197	39.03
0.85863	39.03
0.87530	39.03
0.89197	39.03
0.90863	39.03
0.92530	39.03
0.94197	39.03
0.95863	39.03
0.97530	39.03
0.99197	39.03
1.00863	39.03
1.02530	39.03
1.04197	39.03
1.05863	39.03
1.07530	39.03
1.09197	39.03
1.10863	39.03
1.12530	39.03
1.14197	39.03
1.15863	39.03
1.17530	39.03
1.19197	39.03
1.20863	39.03
1.22530	39.03
1.24197	39.03
1.25863	39.03
1.27530	39.03
1.29197	39.03
1.30863	39.03
1.32530	39.03
1.34197	39.03
1.35863	39.03
1.37530	39.03
1.39197	39.03
1.40863	39.03
1.42530	39.03
1.44197	39.03
1.45863	39.03
1.47530	39.03
1.49197	39.03
1.50863	39.03
1.52530	39.03
1.54197	39.03
1.55863	39.03
1.57530	39.03
1.59197	39.03
1.60863	39.02
1.62530	39.01
1.64197	38.99
1.65863	38.97
1.67530	38.94
1.69197	38.90
1.70863	38.87
1.72530	38.83
1.74197	38.80
1.75863	38.77
1.77530	38.74
1.79197	38.71
1.80863	38.68
1.82530	38.65
1.84197	38.62
1.85863	38.59
1.87530	38.55
1.89197	38.52
1.90863	38.49
1.92530	38.46
1.94197	38.43
1.95863	38.40
1.97530	38.37
1.99197	38.34
2.00863	38.31
2.02530	38.28
2.04197	38.25
2.05863	38.22
2.07530	38.19
2.09197	38.16
2.10863	38.13
2.12530	38.10
2.14197	38.07
2.15863	38.04
2.17530	38.01
2.19197	37.98
2.20863	37.96
2.22530	37.93
2.24197	37.90
2.25863	37.86
2.27530	37.83
2.29197	37.81
2.30863	37.78
2.32530	37.75
2.34197	37.72
2.35863	37.69
2.37530	37.67
2.39197	37.66
2.40863	37.67
2.42530	37.67
2.44197	37.67
2.45863	37.67
2.47530	37.66
2.49197	37.66
2.50863	37.66
2.52530	37.65
2.54197	37.66
2.55863	37.66
2.57530	37.66
2.59197	37.66
2.60863	37.66
2.62530	37.66
2.64197	37.66
2.65863	37.66
2.67530	37.66
2.69197	37.66
2.70863	37.66
2.72530	37.66
2.74197	37.66
2.75863	37.66
2.77530	37.66
2.79197	37.65
2.80863	37.65
2.82530	37.65
2.84197	37.65
2.85863	37.65
2.87530	37.65
2.89197	37.65
2.90863	37.65
2.92530	37.65
2.94197	37.65
2.95863	37.65
2.97530	37.65
2.99197	37.65
3.00863	37.65
3.02530	37.65
3.04197	37.64
3.05863	37.64
3.07530	37.64
3.09197	37.64
3.10863	37.64
3.12530	37.64
3.14197	37.64
3.15863	37.64
3.17530	37.64
3.19197	37.64
3.20863	37.64
3.22530	37.64
3.24197	37.64
3.25863	37.64
3.27530	37.64
3.29197	37.64
3.30863	37.64
3.32530	37.64
3.34197	37.63
3.35863	37.63
3.37530	37.63
3.39197	37.63
3.40863	37.63
3.42530	37.63
3.44197	37.63
3.45863	37.63
3.47530	37.63
3.49197	37.64
3.50863	37.64
3.52530	37.64
3.54197	37.64
3.55863	37.64
3.57530	37.64
3.59197	37.64
3.60863	37.64
3.62530	37.64
3.64197	37.64
3.65863	37.64
3.67530	37.64
3.69197	37.64
3.70863	37.64
3.72530	37.64
3.74197	37.64
3.75863	37.64
3.77530	37.64
3.79197	37.64
3.80863	37.64
3.82530	37.64
3.84197	37.64
3.85863	37.64
3.87530	37.64
3.89197	37.64
3.90863	37.64
3.92530	37.64
3.94197	37.64
3.95863	37.64
3.97530	37.64
3.99197	37.64

