[Header]
Application Name	LabSolutions
Version	5.110
Data File Name	C:\Users\User\Desktop\GC Analyses\Jack\UIC Prairie Sampling\11.2.22\221102_029.gcd
Output Date	3/20/2023
Output Time	1:25:37 PM

[File Information]
Type	Data File
Generated	12/20/2022 3:14:08 PM
Generated by	System Administrator
Modified	12/20/2022 3:19:17 PM
Modified by	System Administrator

[Sample Information]
Operator Name	System Administrator
Acquired	12/20/2022 3:15:16 PM
Sample Type	1:Standard
Level	1
Sample Name	221102_UICPrairie
Sample ID	221102_UICPrairie
ISTD Amount1	1
ISTD Amount2	1
ISTD Amount3	1
ISTD Amount4	1
ISTD Amount5	1
ISTD Amount6	1
ISTD Amount7	1
ISTD Amount8	1
ISTD Amount9	1
ISTD Amount10	1
ISTD Amount11	1
ISTD Amount12	1
ISTD Amount13	1
ISTD Amount14	1
ISTD Amount15	1
ISTD Amount16	1
ISTD Amount17	1
ISTD Amount18	1
ISTD Amount19	1
ISTD Amount20	1
ISTD Amount21	1
ISTD Amount22	1
ISTD Amount23	1
ISTD Amount24	1
ISTD Amount25	1
ISTD Amount26	1
ISTD Amount27	1
ISTD Amount28	1
ISTD Amount29	1
ISTD Amount30	1
ISTD Amount31	1
ISTD Amount32	1
Sample Amount	1
Dilution Factor	1
Vial#	1
Injection Volume	1
Injection Count	1
Bar Code	

[Original Files]
Data File	C:\Users\User\Desktop\GC Analyses\Jack\UIC Prairie Sampling\11.2.22\221102_029.gcd
Method File	C:\LabSolutions\Data\GHG_4min_2022\ghg3_togas_w_acet_4 min_new_int.gcm
Batch File	
Report Format File	c:\LabSolutions\System\DEFAULT.lsr

[File Description]


[Configuration]
Instrument Name	C0B7VH3-Instrument1
Instrument #	1
Line #	1
# of Detectors	3
Detector ID	DET#1	DET#2	DET#3
Detector Name	FID	PTCD	ECD
# of Channels	1	1	1

[Peak Table(Ch1)]
# of Peaks	3
Peak#	R.Time	I.Time	F.Time	Area	Height	A/H	Conc.	Mark	ID#	Name	k'	Plate #	Plate Ht.	Tailing	Resolution	Sep.Factor	Area Ratio	Height Ratio	Conc. %	Norm Conc.
1	1.479	1.435	1.538	9873	4206	2.348	100.000	   	1	CO	0.000	7982	18.793	1.207	0.000	0.000	0	0	16.667	16.667
2	1.571	1.538	1.633	5290	2595	2.039	100.000	 V 	2	CH4	0.062	11049	13.576	1.070	1.455	0.000	0	0	16.667	16.667
3	2.000	1.952	2.594	1230116	568388	2.164	400.000	   	3	CO2	0.352	17228	8.707	1.209	7.107	5.680	0	0	66.667	66.667

[Peak Table(Ch2)]
# of Peaks	0

[Peak Table(Ch3)]
# of Peaks	5
Peak#	R.Time	I.Time	F.Time	Area	Height	A/H	Conc.	Mark	ID#	Name	k'	Plate #	Plate Ht.	Tailing	Resolution	Sep.Factor	Area Ratio	Height Ratio	Conc. %	Norm Conc.
1	2.469	2.429	2.495	1024	415	2.466	0.000	   			0.000	11037	13.590	0.000	0.000	0.000	0	0	0.000	0.000
2	2.513	2.495	2.546	862	326	2.642	0.000	 V 			0.018	3079	48.720	0.000	0.320	0.000	0	0	0.000	0.000
3	2.601	2.546	2.649	1444	358	4.035	0.000	 V 			0.053	5678	26.416	0.000	0.551	3.000	0	0	0.000	0.000
4	2.884	2.660	3.089	25313	5587	4.531	1.000	   	1	N2O	0.168	12594	11.910	1.143	2.344	3.139	0	0	50.000	50.000
5	3.140	3.089	3.734	4899	247	19.848	1.000	 V 	2	SF6	0.272	227	660.595	0.000	0.548	1.619	0	0	50.000	50.000

[Compound Results(Ch1)]
# of IDs	6
ID#	Name	R.Time	Area	Height	Conc.	Curve	3rd	2nd	1st	Constant	Area Ratio	Height Ratio	Conc. %	Norm Conc.
1	CO	1.479	9873	4206	100.000	Linear	0.000000e+00	0.000000e+00	9.873310e+001	0.000000e+00	0	0	16.667	16.667
2	CH4	1.571	5290	2595	100.000	Linear	0.000000e+00	0.000000e+00	5.289516e+001	0.000000e+00	0	0	16.667	16.667
3	CO2	2.000	1230116	568388	400.000	Linear	0.000000e+00	0.000000e+00	3.075291e+003	0.000000e+00	0	0	66.667	66.667
4	Ethylene	0.000	0	0	0.000	Linear	0.000000e+00	0.000000e+00	0.000000e+00	0.000000e+00	0	0	0.000	0.000
5	Acetylene	0.000	0	0	0.000	Linear	0.000000e+00	0.000000e+00	0.000000e+00	0.000000e+00	0	0	0.000	0.000
6	Ethane	0.000	0	0	0.000	Linear	0.000000e+00	0.000000e+00	0.000000e+00	0.000000e+00	0	0	0.000	0.000

[Compound Results(Ch2)]
# of IDs	5
ID#	Name	R.Time	Area	Height	Conc.	Curve	3rd	2nd	1st	Constant	Area Ratio	Height Ratio	Conc. %	Norm Conc.
1	Hydrogen	0.000	0	0	0.000	Linear	0.000000e+00	0.000000e+00	0.000000e+00	0.000000e+00	0	0	0.000	0.000
2	Oxygen	0.000	0	0	0.000	Linear	0.000000e+00	0.000000e+00	0.000000e+00	0.000000e+00	0	0	0.000	0.000
3	Nitrogen	0.000	0	0	0.000	Linear	0.000000e+00	0.000000e+00	0.000000e+00	0.000000e+00	0	0	0.000	0.000
4	Methane	0.000	0	0	0.000	Linear	0.000000e+00	0.000000e+00	0.000000e+00	0.000000e+00	0	0	0.000	0.000
5	Carbon Monoxide	0.000	0	0	0.000	Linear	0.000000e+00	0.000000e+00	0.000000e+00	0.000000e+00	0	0	0.000	0.000

[Compound Results(Ch3)]
# of IDs	2
ID#	Name	R.Time	Area	Height	Conc.	Curve	3rd	2nd	1st	Constant	Area Ratio	Height Ratio	Conc. %	Norm Conc.
1	N2O	2.884	25313	5587	1.000	Linear	0.000000e+00	0.000000e+00	2.531309e+004	0.000000e+00	0	0	50.000	50.000
2	SF6	3.140	4899	247	1.000	Linear	0.000000e+00	0.000000e+00	4.899384e+003	0.000000e+00	0	0	50.000	50.000

[Group Results(Ch1)]
# of Groups	0

[Group Results(Ch2)]
# of Groups	0

[Group Results(Ch3)]
# of Groups	0

[Chromatogram (Ch1)]
Interval(msec)	220
# of Points	1091
Start Time(min)	0.002
End Time(min)	3.998
R.Time (min)	Intensity
0.00167	-25
0.00533	-27
0.00900	-29
0.01267	-29
0.01633	-27
0.02000	-24
0.02367	-21
0.02733	-16
0.03100	-14
0.03467	-16
0.03833	-20
0.04200	-22
0.04567	-18
0.04933	-13
0.05300	-9
0.05667	-6
0.06033	-9
0.06400	-13
0.06767	-15
0.07133	-15
0.07500	-17
0.07867	-20
0.08233	-22
0.08600	-23
0.08967	-21
0.09333	-16
0.09700	-11
0.10067	-6
0.10433	-0
0.10800	3
0.11167	2
0.11533	1
0.11900	0
0.12267	-1
0.12633	-1
0.13000	-0
0.13367	-2
0.13733	-6
0.14100	-14
0.14467	-21
0.14833	-24
0.15200	-23
0.15567	-22
0.15933	-21
0.16300	-19
0.16667	-14
0.17033	-9
0.17400	-2
0.17767	5
0.18133	6
0.18500	1
0.18867	-6
0.19233	-12
0.19600	-17
0.19967	-23
0.20333	-30
0.20700	-32
0.21067	-30
0.21433	-26
0.21800	-19
0.22167	-11
0.22533	-10
0.22900	-13
0.23267	-19
0.23633	-22
0.24000	-19
0.24367	-13
0.24733	-9
0.25100	-13
0.25467	-23
0.25833	-33
0.26200	-38
0.26567	-38
0.26933	-33
0.27300	-26
0.27667	-23
0.28033	-21
0.28400	-21
0.28767	-20
0.29133	-20
0.29500	-20
0.29867	-22
0.30233	-24
0.30600	-28
0.30967	-33
0.31333	-37
0.31700	-39
0.32067	-39
0.32433	-36
0.32800	-32
0.33167	-31
0.33533	-33
0.33900	-34
0.34267	-33
0.34633	-33
0.35000	-39
0.35367	-43
0.35733	-45
0.36100	-44
0.36467	-40
0.36833	-36
0.37200	-34
0.37567	-33
0.37933	-32
0.38300	-29
0.38667	-27
0.39033	-28
0.39400	-29
0.39767	-29
0.40133	-29
0.40500	-28
0.40867	-26
0.41233	-24
0.41600	-21
0.41967	-19
0.42333	-17
0.42700	-19
0.43067	-29
0.43433	-40
0.43800	-46
0.44167	-46
0.44533	-44
0.44900	-40
0.45267	-34
0.45633	-29
0.46000	-25
0.46367	-22
0.46733	-23
0.47100	-25
0.47467	-25
0.47833	-23
0.48200	-23
0.48567	-23
0.48933	-24
0.49300	-26
0.49667	-31
0.50033	-38
0.50400	-44
0.50767	-46
0.51133	-44
0.51500	-42
0.51867	-40
0.52233	-36
0.52600	-28
0.52967	-18
0.53333	-14
0.53700	-15
0.54067	-17
0.54433	-20
0.54800	-24
0.55167	-28
0.55533	-30
0.55900	-33
0.56267	-39
0.56633	-42
0.57000	-42
0.57367	-42
0.57733	-39
0.58100	-31
0.58467	-27
0.58833	-25
0.59200	-25
0.59567	-25
0.59933	-26
0.60300	-27
0.60667	-30
0.61033	-31
0.61400	-30
0.61767	-26
0.62133	-26
0.62500	-29
0.62867	-35
0.63233	-38
0.63600	-41
0.63967	-40
0.64333	-39
0.64700	-39
0.65067	-35
0.65433	-32
0.65800	-30
0.66167	-31
0.66533	-36
0.66900	-38
0.67267	-34
0.67633	-27
0.68000	-19
0.68367	-15
0.68733	-17
0.69100	-22
0.69467	-33
0.69833	-45
0.70200	-52
0.70567	-53
0.70933	-54
0.71300	-54
0.71667	-55
0.72033	-56
0.72400	-59
0.72767	-61
0.73133	-64
0.73500	-66
0.73867	-65
0.74233	-59
0.74600	-50
0.74967	-44
0.75333	-41
0.75700	-38
0.76067	-32
0.76433	-27
0.76800	-28
0.77167	-33
0.77533	-40
0.77900	-45
0.78267	-49
0.78633	-51
0.79000	-53
0.79367	-55
0.79733	-54
0.80100	-49
0.80467	-40
0.80833	-36
0.81200	-38
0.81567	-43
0.81933	-46
0.82300	-46
0.82667	-45
0.83033	-44
0.83400	-44
0.83767	-46
0.84133	-48
0.84500	-49
0.84867	-49
0.85233	-46
0.85600	-41
0.85967	-39
0.86333	-43
0.86700	-53
0.87067	-61
0.87433	-63
0.87800	-62
0.88167	-58
0.88533	-52
0.88900	-44
0.89267	-35
0.89633	-33
0.90000	-35
0.90367	-39
0.90733	-44
0.91100	-49
0.91467	-53
0.91833	-52
0.92200	-50
0.92567	-50
0.92933	-52
0.93300	-52
0.93667	-54
0.94033	-56
0.94400	-53
0.94767	-48
0.95133	-47
0.95500	-46
0.95867	-45
0.96233	-44
0.96600	-46
0.96967	-51
0.97333	-53
0.97700	-53
0.98067	-51
0.98433	-50
0.98800	-49
0.99167	-48
0.99533	-49
0.99900	-49
1.00267	-51
1.00633	-51
1.01000	-51
1.01367	-53
1.01733	-55
1.02100	-55
1.02467	-54
1.02833	-50
1.03200	-44
1.03567	-38
1.03933	-33
1.04300	-30
1.04667	-27
1.05033	-24
1.05400	-23
1.05767	-27
1.06133	-37
1.06500	-49
1.06867	-59
1.07233	-65
1.07600	-66
1.07967	-65
1.08333	-65
1.08700	-64
1.09067	-61
1.09433	-58
1.09800	-57
1.10167	-57
1.10533	-56
1.10900	-54
1.11267	-50
1.11633	-47
1.12000	-44
1.12367	-42
1.12733	-42
1.13100	-44
1.13467	-45
1.13833	-45
1.14200	-46
1.14567	-46
1.14933	-44
1.15300	-44
1.15667	-45
1.16033	-47
1.16400	-47
1.16767	-44
1.17133	-40
1.17500	-36
1.17867	-35
1.18233	-36
1.18600	-39
1.18967	-40
1.19333	-38
1.19700	-37
1.20067	-36
1.20433	-39
1.20800	-44
1.21167	-49
1.21533	-54
1.21900	-58
1.22267	-58
1.22633	-56
1.23000	-53
1.23367	-49
1.23733	-48
1.24100	-53
1.24467	-61
1.24833	-65
1.25200	-67
1.25567	-62
1.25933	-53
1.26300	-47
1.26667	-48
1.27033	-53
1.27400	-56
1.27767	-56
1.28133	-54
1.28500	-52
1.28867	-51
1.29233	-51
1.29600	-51
1.29967	-47
1.30333	-39
1.30700	-30
1.31067	-29
1.31433	-36
1.31800	-49
1.32167	-60
1.32533	-65
1.32900	-71
1.33267	-78
1.33633	-81
1.34000	-81
1.34367	-79
1.34733	-74
1.35100	-69
1.35467	-66
1.35833	-62
1.36200	-58
1.36567	-54
1.36933	-48
1.37300	-44
1.37667	-40
1.38033	-36
1.38400	-33
1.38767	-31
1.39133	-31
1.39500	-35
1.39867	-43
1.40233	-51
1.40600	-55
1.40967	-56
1.41333	-56
1.41700	-56
1.42067	-59
1.42433	-60
1.42800	-61
1.43167	-57
1.43533	-50
1.43900	-31
1.44267	51
1.44633	246
1.45000	538
1.45367	963
1.45733	1567
1.46100	2275
1.46467	2956
1.46833	3520
1.47200	3931
1.47567	4158
1.47933	4162
1.48300	3918
1.48667	3461
1.49033	2882
1.49400	2284
1.49767	1750
1.50133	1313
1.50500	978
1.50867	734
1.51233	557
1.51600	426
1.51967	326
1.52333	248
1.52700	188
1.53067	141
1.53433	104
1.53800	92
1.54167	140
1.54533	311
1.54900	652
1.55267	1123
1.55633	1618
1.56000	2048
1.56367	2368
1.56733	2549
1.57100	2562
1.57467	2386
1.57833	2046
1.58200	1627
1.58567	1218
1.58933	871
1.59300	601
1.59667	405
1.60033	267
1.60400	173
1.60767	111
1.61133	73
1.61500	48
1.61867	28
1.62233	10
1.62600	-4
1.62967	-15
1.63333	-24
1.63700	-29
1.64067	-31
1.64433	-34
1.64800	-39
1.65167	-47
1.65533	-55
1.65900	-63
1.66267	-66
1.66633	-66
1.67000	-65
1.67367	-64
1.67733	-63
1.68100	-62
1.68467	-60
1.68833	-58
1.69200	-56
1.69567	-53
1.69933	-52
1.70300	-51
1.70667	-49
1.71033	-47
1.71400	-47
1.71767	-50
1.72133	-51
1.72500	-50
1.72867	-51
1.73233	-57
1.73600	-63
1.73967	-66
1.74333	-69
1.74700	-72
1.75067	-77
1.75433	-81
1.75800	-83
1.76167	-84
1.76533	-80
1.76900	-75
1.77267	-67
1.77633	-59
1.78000	-50
1.78367	-43
1.78733	-40
1.79100	-39
1.79467	-42
1.79833	-50
1.80200	-59
1.80567	-62
1.80933	-62
1.81300	-57
1.81667	-51
1.82033	-52
1.82400	-60
1.82767	-68
1.83133	-73
1.83500	-70
1.83867	-65
1.84233	-60
1.84600	-58
1.84967	-56
1.85333	-54
1.85700	-52
1.86067	-55
1.86433	-62
1.86800	-70
1.87167	-75
1.87533	-76
1.87900	-71
1.88267	-63
1.88633	-56
1.89000	-51
1.89367	-52
1.89733	-54
1.90100	-53
1.90467	-53
1.90833	-56
1.91200	-59
1.91567	-59
1.91933	-60
1.92300	-62
1.92667	-65
1.93033	-68
1.93400	-67
1.93767	-63
1.94133	-59
1.94500	-56
1.94867	-53
1.95233	-40
1.95600	35
1.95967	463
1.96333	2460
1.96700	9623
1.97067	29289
1.97433	71388
1.97800	142485
1.98167	238798
1.98533	346145
1.98900	446422
1.99267	523459
1.99633	566000
2.00000	568387
2.00367	531968
2.00733	465646
2.01100	383377
2.01467	299481
2.01833	224452
2.02200	163378
2.02567	116888
2.02933	83113
2.03300	59326
2.03667	42883
2.04033	31617
2.04400	23903
2.04767	18590
2.05133	14884
2.05500	12252
2.05867	10346
2.06233	8933
2.06600	7854
2.06967	7010
2.07333	6331
2.07700	5774
2.08067	5305
2.08433	4907
2.08800	4569
2.09167	4278
2.09533	4021
2.09900	3791
2.10267	3584
2.10633	3401
2.11000	3236
2.11367	3088
2.11733	2953
2.12100	2827
2.12467	2710
2.12833	2600
2.13200	2499
2.13567	2409
2.13933	2325
2.14300	2243
2.14667	2166
2.15033	2096
2.15400	2032
2.15767	1973
2.16133	1917
2.16500	1864
2.16867	1813
2.17233	1762
2.17600	1709
2.17967	1659
2.18333	1609
2.18700	1565
2.19067	1528
2.19433	1494
2.19800	1462
2.20167	1429
2.20533	1394
2.20900	1359
2.21267	1327
2.21633	1297
2.22000	1269
2.22367	1241
2.22733	1214
2.23100	1190
2.23467	1166
2.23833	1142
2.24200	1116
2.24567	1093
2.24933	1076
2.25300	1063
2.25667	1056
2.26033	1048
2.26400	1036
2.26767	1018
2.27133	996
2.27500	971
2.27867	946
2.28233	926
2.28600	911
2.28967	899
2.29333	885
2.29700	871
2.30067	856
2.30433	845
2.30800	834
2.31167	824
2.31533	814
2.31900	805
2.32267	797
2.32633	792
2.33000	786
2.33367	781
2.33733	773
2.34100	763
2.34467	750
2.34833	737
2.35200	725
2.35567	715
2.35933	709
2.36300	703
2.36667	696
2.37033	685
2.37400	675
2.37767	664
2.38133	655
2.38500	650
2.38867	648
2.39233	645
2.39600	642
2.39967	641
2.40333	640
2.40700	639
2.41067	638
2.41433	636
2.41800	633
2.42167	632
2.42533	633
2.42900	632
2.43267	629
2.43633	625
2.44000	621
2.44367	616
2.44733	610
2.45100	603
2.45467	598
2.45833	595
2.46200	592
2.46567	589
2.46933	585
2.47300	582
2.47667	578
2.48033	575
2.48400	571
2.48767	564
2.49133	558
2.49500	556
2.49867	552
2.50233	545
2.50600	537
2.50967	532
2.51333	528
2.51700	527
2.52067	527
2.52433	527
2.52800	526
2.53167	526
2.53533	524
2.53900	526
2.54267	531
2.54633	537
2.55000	538
2.55367	535
2.55733	530
2.56100	523
2.56467	518
2.56833	515
2.57200	514
2.57567	514
2.57933	514
2.58300	511
2.58667	503
2.59033	494
2.59400	487
2.59767	484
2.60133	482
2.60500	481
2.60867	480
2.61233	480
2.61600	482
2.61967	489
2.62333	498
2.62700	508
2.63067	514
2.63433	513
2.63800	505
2.64167	490
2.64533	474
2.64900	463
2.65267	455
2.65633	449
2.66000	447
2.66367	450
2.66733	456
2.67100	463
2.67467	471
2.67833	480
2.68200	490
2.68567	495
2.68933	493
2.69300	488
2.69667	484
2.70033	482
2.70400	484
2.70767	484
2.71133	479
2.71500	474
2.71867	472
2.72233	472
2.72600	473
2.72967	473
2.73333	475
2.73700	479
2.74067	486
2.74433	492
2.74800	493
2.75167	490
2.75533	489
2.75900	490
2.76267	493
2.76633	497
2.77000	498
2.77367	495
2.77733	494
2.78100	492
2.78467	486
2.78833	480
2.79200	474
2.79567	467
2.79933	459
2.80300	454
2.80667	455
2.81033	459
2.81400	464
2.81767	466
2.82133	466
2.82500	469
2.82867	474
2.83233	483
2.83600	491
2.83967	497
2.84333	497
2.84700	489
2.85067	478
2.85433	468
2.85800	463
2.86167	463
2.86533	467
2.86900	473
2.87267	478
2.87633	478
2.88000	475
2.88367	475
2.88733	477
2.89100	480
2.89467	481
2.89833	479
2.90200	479
2.90567	478
2.90933	474
2.91300	473
2.91667	473
2.92033	474
2.92400	475
2.92767	475
2.93133	476
2.93500	478
2.93867	477
2.94233	477
2.94600	480
2.94967	487
2.95333	495
2.95700	503
2.96067	510
2.96433	514
2.96800	514
2.97167	511
2.97533	502
2.97900	494
2.98267	487
2.98633	483
2.99000	484
2.99367	489
2.99733	494
3.00100	499
3.00467	504
3.00833	506
3.01200	506
3.01567	507
3.01933	509
3.02300	508
3.02667	504
3.03033	498
3.03400	490
3.03767	481
3.04133	473
3.04500	467
3.04867	463
3.05233	459
3.05600	454
3.05967	452
3.06333	453
3.06700	456
3.07067	458
3.07433	458
3.07800	460
3.08167	466
3.08533	478
3.08900	486
3.09267	488
3.09633	485
3.10000	480
3.10367	476
3.10733	472
3.11100	468
3.11467	467
3.11833	464
3.12200	465
3.12567	467
3.12933	472
3.13300	477
3.13667	477
3.14033	476
3.14400	474
3.14767	471
3.15133	471
3.15500	475
3.15867	477
3.16233	477
3.16600	478
3.16967	475
3.17333	469
3.17700	465
3.18067	465
3.18433	464
3.18800	461
3.19167	460
3.19533	461
3.19900	466
3.20267	471
3.20633	476
3.21000	480
3.21367	481
3.21733	475
3.22100	468
3.22467	461
3.22833	453
3.23200	450
3.23567	451
3.23933	455
3.24300	457
3.24667	457
3.25033	458
3.25400	456
3.25767	453
3.26133	451
3.26500	449
3.26867	448
3.27233	446
3.27600	442
3.27967	438
3.28333	433
3.28700	429
3.29067	428
3.29433	429
3.29800	434
3.30167	442
3.30533	450
3.30900	454
3.31267	457
3.31633	458
3.32000	457
3.32367	454
3.32733	454
3.33100	459
3.33467	466
3.33833	466
3.34200	463
3.34567	458
3.34933	452
3.35300	448
3.35667	445
3.36033	442
3.36400	440
3.36767	440
3.37133	440
3.37500	442
3.37867	445
3.38233	448
3.38600	447
3.38967	448
3.39333	453
3.39700	456
3.40067	456
3.40433	453
3.40800	449
3.41167	445
3.41533	442
3.41900	437
3.42267	434
3.42633	433
3.43000	433
3.43367	432
3.43733	431
3.44100	433
3.44467	437
3.44833	441
3.45200	444
3.45567	448
3.45933	447
3.46300	443
3.46667	438
3.47033	434
3.47400	431
3.47767	431
3.48133	434
3.48500	440
3.48867	449
3.49233	471
3.49600	503
3.49967	526
3.50333	537
3.50700	540
3.51067	541
3.51433	543
3.51800	545
3.52167	546
3.52533	547
3.52900	549
3.53267	554
3.53633	560
3.54000	565
3.54367	568
3.54733	565
3.55100	561
3.55467	559
3.55833	558
3.56200	554
3.56567	544
3.56933	534
3.57300	529
3.57667	527
3.58033	527
3.58400	530
3.58767	535
3.59133	537
3.59500	534
3.59867	533
3.60233	533
3.60600	529
3.60967	523
3.61333	518
3.61700	517
3.62067	520
3.62433	525
3.62800	532
3.63167	540
3.63533	550
3.63900	555
3.64267	555
3.64633	549
3.65000	540
3.65367	530
3.65733	521
3.66100	513
3.66467	510
3.66833	509
3.67200	508
3.67567	505
3.67933	502
3.68300	498
3.68667	496
3.69033	501
3.69400	507
3.69767	511
3.70133	512
3.70500	509
3.70867	504
3.71233	499
3.71600	497
3.71967	496
3.72333	495
3.72700	493
3.73067	487
3.73433	481
3.73800	480
3.74167	479
3.74533	476
3.74900	470
3.75267	464
3.75633	464
3.76000	468
3.76367	476
3.76733	481
3.77100	481
3.77467	478
3.77833	476
3.78200	478
3.78567	483
3.78933	485
3.79300	482
3.79667	476
3.80033	471
3.80400	469
3.80767	468
3.81133	466
3.81500	464
3.81867	461
3.82233	460
3.82600	458
3.82967	457
3.83333	459
3.83700	462
3.84067	462
3.84433	461
3.84800	459
3.85167	457
3.85533	456
3.85900	453
3.86267	450
3.86633	448
3.87000	448
3.87367	451
3.87733	454
3.88100	453
3.88467	449
3.88833	445
3.89200	444
3.89567	442
3.89933	439
3.90300	436
3.90667	435
3.91033	437
3.91400	439
3.91767	439
3.92133	440
3.92500	442
3.92867	444
3.93233	442
3.93600	435
3.93967	427
3.94333	421
3.94700	417
3.95067	416
3.95433	417
3.95800	419
3.96167	419
3.96533	418
3.96900	420
3.97267	425
3.97633	430
3.98000	431
3.98367	428
3.98733	424
3.99100	422
3.99467	423
3.99833	428

[Chromatogram (Ch2)]
Interval(msec)	220
# of Points	1091
Start Time(min)	0.002
End Time(min)	3.998
R.Time (min)	Intensity
0.00167	-0
0.00533	-0
0.00900	-1
0.01267	-1
0.01633	-1
0.02000	-1
0.02367	-1
0.02733	-1
0.03100	-1
0.03467	-1
0.03833	-1
0.04200	-0
0.04567	-0
0.04933	0
0.05300	0
0.05667	0
0.06033	1
0.06400	1
0.06767	1
0.07133	1
0.07500	1
0.07867	0
0.08233	0
0.08600	0
0.08967	0
0.09333	-0
0.09700	-0
0.10067	-1
0.10433	-1
0.10800	-1
0.11167	-1
0.11533	-1
0.11900	-1
0.12267	-1
0.12633	-1
0.13000	-1
0.13367	-1
0.13733	-1
0.14100	-1
0.14467	-1
0.14833	-1
0.15200	-2
0.15567	-2
0.15933	-1
0.16300	-1
0.16667	-1
0.17033	-1
0.17400	-1
0.17767	-0
0.18133	-0
0.18500	-0
0.18867	-0
0.19233	-0
0.19600	0
0.19967	0
0.20333	1
0.20700	1
0.21067	1
0.21433	1
0.21800	1
0.22167	1
0.22533	1
0.22900	1
0.23267	1
0.23633	1
0.24000	2
0.24367	2
0.24733	2
0.25100	2
0.25467	2
0.25833	2
0.26200	2
0.26567	2
0.26933	2
0.27300	2
0.27667	2
0.28033	2
0.28400	1
0.28767	1
0.29133	1
0.29500	1
0.29867	1
0.30233	1
0.30600	1
0.30967	1
0.31333	1
0.31700	1
0.32067	1
0.32433	0
0.32800	0
0.33167	0
0.33533	0
0.33900	-0
0.34267	-0
0.34633	-0
0.35000	-0
0.35367	-0
0.35733	-0
0.36100	-1
0.36467	-1
0.36833	-0
0.37200	-0
0.37567	-0
0.37933	-0
0.38300	-0
0.38667	-0
0.39033	-1
0.39400	-1
0.39767	-1
0.40133	-1
0.40500	-1
0.40867	-1
0.41233	-1
0.41600	-1
0.41967	-1
0.42333	-1
0.42700	-1
0.43067	-1
0.43433	-1
0.43800	-1
0.44167	-0
0.44533	-0
0.44900	0
0.45267	0
0.45633	1
0.46000	1
0.46367	1
0.46733	1
0.47100	0
0.47467	0
0.47833	0
0.48200	0
0.48567	-0
0.48933	-0
0.49300	-0
0.49667	-0
0.50033	-0
0.50400	-0
0.50767	0
0.51133	0
0.51500	0
0.51867	0
0.52233	0
0.52600	1
0.52967	1
0.53333	1
0.53700	1
0.54067	1
0.54433	1
0.54800	1
0.55167	0
0.55533	0
0.55900	0
0.56267	-0
0.56633	-0
0.57000	-0
0.57367	-1
0.57733	-1
0.58100	-1
0.58467	-0
0.58833	-0
0.59200	-0
0.59567	-0
0.59933	-0
0.60300	-0
0.60667	-0
0.61033	-0
0.61400	-0
0.61767	-0
0.62133	-0
0.62500	-0
0.62867	-1
0.63233	-1
0.63600	-1
0.63967	-1
0.64333	-0
0.64700	-0
0.65067	-0
0.65433	-0
0.65800	-0
0.66167	0
0.66533	0
0.66900	0
0.67267	0
0.67633	0
0.68000	0
0.68367	0
0.68733	0
0.69100	0
0.69467	0
0.69833	-0
0.70200	-0
0.70567	-0
0.70933	-0
0.71300	-0
0.71667	-1
0.72033	-1
0.72400	-1
0.72767	-1
0.73133	-0
0.73500	-1
0.73867	-1
0.74233	-1
0.74600	-1
0.74967	-1
0.75333	-1
0.75700	-1
0.76067	-1
0.76433	-1
0.76800	-0
0.77167	-0
0.77533	-1
0.77900	-0
0.78267	-0
0.78633	-0
0.79000	0
0.79367	0
0.79733	0
0.80100	0
0.80467	-0
0.80833	-0
0.81200	-1
0.81567	-1
0.81933	-1
0.82300	-0
0.82667	-0
0.83033	-0
0.83400	-0
0.83767	-1
0.84133	-1
0.84500	-1
0.84867	-1
0.85233	-1
0.85600	-1
0.85967	-2
0.86333	-2
0.86700	-2
0.87067	-2
0.87433	-2
0.87800	-2
0.88167	-2
0.88533	-2
0.88900	-2
0.89267	-2
0.89633	-2
0.90000	-2
0.90367	-2
0.90733	-2
0.91100	-2
0.91467	-2
0.91833	-2
0.92200	-2
0.92567	-2
0.92933	-2
0.93300	-2
0.93667	-2
0.94033	-2
0.94400	-1
0.94767	-1
0.95133	-1
0.95500	-1
0.95867	-2
0.96233	-2
0.96600	-2
0.96967	-2
0.97333	-1
0.97700	-1
0.98067	-1
0.98433	-1
0.98800	-0
0.99167	-0
0.99533	-0
0.99900	-0
1.00267	-0
1.00633	0
1.01000	0
1.01367	0
1.01733	1
1.02100	0
1.02467	0
1.02833	0
1.03200	0
1.03567	0
1.03933	0
1.04300	0
1.04667	-0
1.05033	-0
1.05400	-1
1.05767	-1
1.06133	-1
1.06500	-2
1.06867	-2
1.07233	-2
1.07600	-2
1.07967	-2
1.08333	-2
1.08700	-2
1.09067	-2
1.09433	-2
1.09800	-2
1.10167	-1
1.10533	-1
1.10900	-1
1.11267	-1
1.11633	-1
1.12000	-1
1.12367	-0
1.12733	-0
1.13100	-0
1.13467	-0
1.13833	-0
1.14200	-0
1.14567	-0
1.14933	-0
1.15300	-0
1.15667	-0
1.16033	-0
1.16400	-1
1.16767	-1
1.17133	-1
1.17500	-1
1.17867	-1
1.18233	-1
1.18600	-1
1.18967	-1
1.19333	-1
1.19700	-1
1.20067	-1
1.20433	-1
1.20800	-1
1.21167	-1
1.21533	-2
1.21900	-2
1.22267	-2
1.22633	-2
1.23000	-2
1.23367	-2
1.23733	-1
1.24100	-1
1.24467	-1
1.24833	-1
1.25200	-1
1.25567	-1
1.25933	-1
1.26300	-1
1.26667	-1
1.27033	-1
1.27400	-2
1.27767	-2
1.28133	-1
1.28500	-1
1.28867	-2
1.29233	-2
1.29600	-2
1.29967	-2
1.30333	-2
1.30700	-2
1.31067	-1
1.31433	-1
1.31800	-1
1.32167	-1
1.32533	-1
1.32900	-1
1.33267	-1
1.33633	-2
1.34000	-2
1.34367	-2
1.34733	-2
1.35100	-2
1.35467	-2
1.35833	-2
1.36200	-2
1.36567	-2
1.36933	-2
1.37300	-2
1.37667	-2
1.38033	-2
1.38400	-2
1.38767	-2
1.39133	-2
1.39500	-2
1.39867	-1
1.40233	-1
1.40600	-1
1.40967	-1
1.41333	-1
1.41700	-1
1.42067	-1
1.42433	-1
1.42800	-1
1.43167	-1
1.43533	-1
1.43900	-1
1.44267	-1
1.44633	-1
1.45000	-1
1.45367	-1
1.45733	-1
1.46100	-1
1.46467	-0
1.46833	-0
1.47200	-0
1.47567	-0
1.47933	-0
1.48300	-0
1.48667	-0
1.49033	-0
1.49400	-1
1.49767	-1
1.50133	-1
1.50500	-1
1.50867	-1
1.51233	-1
1.51600	-1
1.51967	-1
1.52333	-1
1.52700	-1
1.53067	-1
1.53433	-1
1.53800	-1
1.54167	-1
1.54533	-1
1.54900	-1
1.55267	-1
1.55633	-2
1.56000	-2
1.56367	-2
1.56733	-2
1.57100	-2
1.57467	-2
1.57833	-2
1.58200	-2
1.58567	-3
1.58933	-3
1.59300	-4
1.59667	-4
1.60033	-5
1.60400	-6
1.60767	-7
1.61133	-8
1.61500	-10
1.61867	-12
1.62233	-14
1.62600	-17
1.62967	-20
1.63333	-23
1.63700	-27
1.64067	-30
1.64433	-34
1.64800	-38
1.65167	-41
1.65533	-45
1.65900	-49
1.66267	-52
1.66633	-56
1.67000	-60
1.67367	-65
1.67733	-69
1.68100	-75
1.68467	-79
1.68833	-84
1.69200	-88
1.69567	-92
1.69933	-95
1.70300	-98
1.70667	-100
1.71033	-102
1.71400	-104
1.71767	-106
1.72133	-108
1.72500	-109
1.72867	-110
1.73233	-111
1.73600	-112
1.73967	-112
1.74333	-112
1.74700	-113
1.75067	-113
1.75433	-114
1.75800	-114
1.76167	-115
1.76533	-115
1.76900	-116
1.77267	-116
1.77633	-116
1.78000	-116
1.78367	-115
1.78733	-115
1.79100	-115
1.79467	-115
1.79833	-115
1.80200	-115
1.80567	-115
1.80933	-116
1.81300	-116
1.81667	-116
1.82033	-116
1.82400	-117
1.82767	-117
1.83133	-117
1.83500	-117
1.83867	-117
1.84233	-117
1.84600	-118
1.84967	-118
1.85333	-118
1.85700	-119
1.86067	-119
1.86433	-119
1.86800	-120
1.87167	-120
1.87533	-120
1.87900	-120
1.88267	-121
1.88633	-121
1.89000	-120
1.89367	-120
1.89733	-120
1.90100	-120
1.90467	-120
1.90833	-119
1.91200	-119
1.91567	-118
1.91933	-118
1.92300	-117
1.92667	-117
1.93033	-117
1.93400	-117
1.93767	-117
1.94133	-116
1.94500	-116
1.94867	-114
1.95233	-113
1.95600	-112
1.95967	-112
1.96333	-111
1.96700	-111
1.97067	-111
1.97433	-111
1.97800	-111
1.98167	-110
1.98533	-111
1.98900	-111
1.99267	-110
1.99633	-110
2.00000	-110
2.00367	-110
2.00733	-110
2.01100	-110
2.01467	-110
2.01833	-110
2.02200	-109
2.02567	-109
2.02933	-108
2.03300	-108
2.03667	-107
2.04033	-106
2.04400	-106
2.04767	-105
2.05133	-105
2.05500	-104
2.05867	-104
2.06233	-104
2.06600	-104
2.06967	-104
2.07333	-104
2.07700	-104
2.08067	-103
2.08433	-103
2.08800	-103
2.09167	-104
2.09533	-104
2.09900	-104
2.10267	-104
2.10633	-104
2.11000	-103
2.11367	-102
2.11733	-101
2.12100	-101
2.12467	-100
2.12833	-100
2.13200	-99
2.13567	-99
2.13933	-100
2.14300	-100
2.14667	-101
2.15033	-101
2.15400	-100
2.15767	-100
2.16133	-99
2.16500	-99
2.16867	-98
2.17233	-97
2.17600	-97
2.17967	-96
2.18333	-96
2.18700	-96
2.19067	-96
2.19433	-96
2.19800	-96
2.20167	-95
2.20533	-95
2.20900	-95
2.21267	-95
2.21633	-94
2.22000	-94
2.22367	-93
2.22733	-92
2.23100	-91
2.23467	-90
2.23833	-90
2.24200	-90
2.24567	-90
2.24933	-90
2.25300	-90
2.25667	-90
2.26033	-90
2.26400	-89
2.26767	-89
2.27133	-89
2.27500	-89
2.27867	-89
2.28233	-88
2.28600	-87
2.28967	-86
2.29333	-85
2.29700	-84
2.30067	-84
2.30433	-84
2.30800	-85
2.31167	-85
2.31533	-86
2.31900	-86
2.32267	-86
2.32633	-86
2.33000	-85
2.33367	-84
2.33733	-84
2.34100	-83
2.34467	-83
2.34833	-82
2.35200	-80
2.35567	-79
2.35933	-78
2.36300	-76
2.36667	-74
2.37033	-72
2.37400	-69
2.37767	-67
2.38133	-64
2.38500	-61
2.38867	-58
2.39233	-54
2.39600	-51
2.39967	-47
2.40333	-43
2.40700	-39
2.41067	-36
2.41433	-32
2.41800	-29
2.42167	-26
2.42533	-23
2.42900	-21
2.43267	-19
2.43633	-17
2.44000	-14
2.44367	-12
2.44733	-10
2.45100	-8
2.45467	-7
2.45833	-5
2.46200	-4
2.46567	-2
2.46933	-0
2.47300	2
2.47667	3
2.48033	5
2.48400	6
2.48767	6
2.49133	7
2.49500	7
2.49867	8
2.50233	9
2.50600	9
2.50967	11
2.51333	12
2.51700	13
2.52067	14
2.52433	15
2.52800	16
2.53167	16
2.53533	17
2.53900	17
2.54267	17
2.54633	18
2.55000	18
2.55367	19
2.55733	19
2.56100	19
2.56467	19
2.56833	19
2.57200	19
2.57567	19
2.57933	19
2.58300	18
2.58667	18
2.59033	18
2.59400	18
2.59767	18
2.60133	18
2.60500	18
2.60867	19
2.61233	20
2.61600	20
2.61967	21
2.62333	21
2.62700	22
2.63067	22
2.63433	22
2.63800	22
2.64167	22
2.64533	22
2.64900	22
2.65267	23
2.65633	23
2.66000	23
2.66367	23
2.66733	23
2.67100	23
2.67467	23
2.67833	23
2.68200	23
2.68567	24
2.68933	24
2.69300	24
2.69667	24
2.70033	25
2.70400	25
2.70767	25
2.71133	25
2.71500	26
2.71867	26
2.72233	26
2.72600	26
2.72967	26
2.73333	27
2.73700	27
2.74067	27
2.74433	27
2.74800	27
2.75167	28
2.75533	28
2.75900	28
2.76267	28
2.76633	28
2.77000	28
2.77367	28
2.77733	28
2.78100	28
2.78467	28
2.78833	28
2.79200	28
2.79567	29
2.79933	29
2.80300	29
2.80667	29
2.81033	29
2.81400	29
2.81767	29
2.82133	29
2.82500	29
2.82867	29
2.83233	30
2.83600	30
2.83967	30
2.84333	30
2.84700	30
2.85067	30
2.85433	29
2.85800	26
2.86167	22
2.86533	16
2.86900	7
2.87267	-5
2.87633	-21
2.88000	-41
2.88367	-65
2.88733	-93
2.89100	-126
2.89467	-162
2.89833	-201
2.90200	-244
2.90567	-289
2.90933	-336
2.91300	-386
2.91667	-437
2.92033	-488
2.92400	-541
2.92767	-593
2.93133	-645
2.93500	-696
2.93867	-747
2.94233	-797
2.94600	-847
2.94967	-901
2.95333	-960
2.95700	-1020
2.96067	-1070
2.96433	-1100
2.96800	-1104
2.97167	-1083
2.97533	-1040
2.97900	-979
2.98267	-906
2.98633	-828
2.99000	-747
2.99367	-667
2.99733	-591
3.00100	-519
3.00467	-454
3.00833	-394
3.01200	-340
3.01567	-293
3.01933	-251
3.02300	-214
3.02667	-182
3.03033	-154
3.03400	-130
3.03767	-109
3.04133	-91
3.04500	-75
3.04867	-62
3.05233	-51
3.05600	-41
3.05967	-33
3.06333	-26
3.06700	-19
3.07067	-14
3.07433	-10
3.07800	-6
3.08167	-2
3.08533	1
3.08900	3
3.09267	5
3.09633	7
3.10000	8
3.10367	10
3.10733	11
3.11100	12
3.11467	13
3.11833	13
3.12200	14
3.12567	14
3.12933	15
3.13300	15
3.13667	16
3.14033	16
3.14400	17
3.14767	17
3.15133	18
3.15500	18
3.15867	19
3.16233	19
3.16600	19
3.16967	19
3.17333	20
3.17700	20
3.18067	20
3.18433	20
3.18800	20
3.19167	21
3.19533	21
3.19900	21
3.20267	21
3.20633	22
3.21000	22
3.21367	22
3.21733	23
3.22100	23
3.22467	24
3.22833	24
3.23200	24
3.23567	24
3.23933	24
3.24300	25
3.24667	25
3.25033	25
3.25400	24
3.25767	24
3.26133	24
3.26500	24
3.26867	24
3.27233	24
3.27600	25
3.27967	25
3.28333	25
3.28700	25
3.29067	25
3.29433	26
3.29800	26
3.30167	26
3.30533	26
3.30900	26
3.31267	26
3.31633	27
3.32000	27
3.32367	28
3.32733	28
3.33100	29
3.33467	29
3.33833	29
3.34200	29
3.34567	30
3.34933	30
3.35300	30
3.35667	30
3.36033	30
3.36400	30
3.36767	30
3.37133	30
3.37500	30
3.37867	30
3.38233	30
3.38600	30
3.38967	30
3.39333	30
3.39700	30
3.40067	30
3.40433	30
3.40800	30
3.41167	31
3.41533	31
3.41900	31
3.42267	31
3.42633	31
3.43000	31
3.43367	31
3.43733	31
3.44100	31
3.44467	31
3.44833	31
3.45200	31
3.45567	31
3.45933	32
3.46300	32
3.46667	32
3.47033	32
3.47400	32
3.47767	32
3.48133	32
3.48500	32
3.48867	32
3.49233	31
3.49600	31
3.49967	31
3.50333	30
3.50700	30
3.51067	30
3.51433	30
3.51800	30
3.52167	30
3.52533	30
3.52900	30
3.53267	30
3.53633	30
3.54000	30
3.54367	30
3.54733	30
3.55100	31
3.55467	31
3.55833	31
3.56200	31
3.56567	31
3.56933	31
3.57300	31
3.57667	30
3.58033	30
3.58400	30
3.58767	30
3.59133	30
3.59500	30
3.59867	30
3.60233	30
3.60600	30
3.60967	30
3.61333	30
3.61700	30
3.62067	30
3.62433	30
3.62800	30
3.63167	30
3.63533	30
3.63900	30
3.64267	30
3.64633	30
3.65000	30
3.65367	29
3.65733	29
3.66100	29
3.66467	29
3.66833	29
3.67200	30
3.67567	30
3.67933	30
3.68300	30
3.68667	30
3.69033	30
3.69400	30
3.69767	30
3.70133	30
3.70500	30
3.70867	30
3.71233	30
3.71600	30
3.71967	30
3.72333	30
3.72700	30
3.73067	30
3.73433	30
3.73800	30
3.74167	30
3.74533	30
3.74900	31
3.75267	31
3.75633	31
3.76000	31
3.76367	30
3.76733	30
3.77100	31
3.77467	31
3.77833	31
3.78200	31
3.78567	31
3.78933	32
3.79300	32
3.79667	32
3.80033	32
3.80400	32
3.80767	31
3.81133	31
3.81500	31
3.81867	31
3.82233	31
3.82600	31
3.82967	31
3.83333	31
3.83700	31
3.84067	31
3.84433	31
3.84800	31
3.85167	31
3.85533	31
3.85900	31
3.86267	31
3.86633	31
3.87000	31
3.87367	31
3.87733	31
3.88100	32
3.88467	32
3.88833	32
3.89200	32
3.89567	31
3.89933	31
3.90300	31
3.90667	31
3.91033	31
3.91400	31
3.91767	31
3.92133	31
3.92500	31
3.92867	31
3.93233	31
3.93600	31
3.93967	32
3.94333	32
3.94700	32
3.95067	32
3.95433	32
3.95800	32
3.96167	32
3.96533	32
3.96900	32
3.97267	31
3.97633	31
3.98000	31
3.98367	31
3.98733	31
3.99100	31
3.99467	31
3.99833	31

[Chromatogram (Ch3)]
Interval(msec)	220
# of Points	1091
Start Time(min)	0.002
End Time(min)	3.998
R.Time (min)	Intensity
0.00167	0
0.00533	-1
0.00900	-2
0.01267	-3
0.01633	-1
0.02000	2
0.02367	2
0.02733	-2
0.03100	-3
0.03467	-4
0.03833	-5
0.04200	-5
0.04567	-4
0.04933	-3
0.05300	-2
0.05667	-3
0.06033	-5
0.06400	-2
0.06767	-0
0.07133	1
0.07500	2
0.07867	2
0.08233	0
0.08600	-1
0.08967	2
0.09333	4
0.09700	5
0.10067	5
0.10433	4
0.10800	2
0.11167	1
0.11533	0
0.11900	-3
0.12267	-6
0.12633	-6
0.13000	-6
0.13367	-6
0.13733	-5
0.14100	-2
0.14467	-1
0.14833	-2
0.15200	-3
0.15567	-3
0.15933	-2
0.16300	-3
0.16667	-5
0.17033	-3
0.17400	-2
0.17767	-1
0.18133	-1
0.18500	0
0.18867	1
0.19233	2
0.19600	2
0.19967	1
0.20333	1
0.20700	0
0.21067	-0
0.21433	-0
0.21800	0
0.22167	-1
0.22533	-1
0.22900	0
0.23267	1
0.23633	-0
0.24000	-1
0.24367	-0
0.24733	1
0.25100	1
0.25467	-1
0.25833	-1
0.26200	0
0.26567	1
0.26933	1
0.27300	0
0.27667	2
0.28033	4
0.28400	4
0.28767	3
0.29133	2
0.29500	1
0.29867	3
0.30233	1
0.30600	0
0.30967	1
0.31333	1
0.31700	2
0.32067	2
0.32433	1
0.32800	1
0.33167	2
0.33533	3
0.33900	4
0.34267	3
0.34633	2
0.35000	2
0.35367	2
0.35733	2
0.36100	2
0.36467	0
0.36833	0
0.37200	1
0.37567	3
0.37933	4
0.38300	3
0.38667	1
0.39033	0
0.39400	-1
0.39767	-2
0.40133	-2
0.40500	-3
0.40867	-3
0.41233	-1
0.41600	1
0.41967	1
0.42333	3
0.42700	5
0.43067	4
0.43433	2
0.43800	1
0.44167	2
0.44533	2
0.44900	2
0.45267	1
0.45633	2
0.46000	3
0.46367	4
0.46733	4
0.47100	5
0.47467	5
0.47833	6
0.48200	5
0.48567	4
0.48933	3
0.49300	3
0.49667	4
0.50033	3
0.50400	5
0.50767	6
0.51133	6
0.51500	5
0.51867	5
0.52233	4
0.52600	5
0.52967	6
0.53333	6
0.53700	5
0.54067	5
0.54433	4
0.54800	3
0.55167	3
0.55533	3
0.55900	3
0.56267	1
0.56633	2
0.57000	4
0.57367	2
0.57733	-0
0.58100	-1
0.58467	-1
0.58833	0
0.59200	0
0.59567	3
0.59933	6
0.60300	5
0.60667	3
0.61033	2
0.61400	4
0.61767	7
0.62133	10
0.62500	10
0.62867	9
0.63233	7
0.63600	5
0.63967	4
0.64333	4
0.64700	4
0.65067	6
0.65433	7
0.65800	5
0.66167	5
0.66533	6
0.66900	7
0.67267	6
0.67633	6
0.68000	5
0.68367	5
0.68733	6
0.69100	7
0.69467	8
0.69833	8
0.70200	8
0.70567	6
0.70933	6
0.71300	7
0.71667	6
0.72033	5
0.72400	4
0.72767	3
0.73133	1
0.73500	-1
0.73867	-2
0.74233	0
0.74600	2
0.74967	3
0.75333	3
0.75700	4
0.76067	5
0.76433	5
0.76800	5
0.77167	5
0.77533	4
0.77900	2
0.78267	1
0.78633	1
0.79000	2
0.79367	3
0.79733	3
0.80100	2
0.80467	4
0.80833	6
0.81200	7
0.81567	5
0.81933	2
0.82300	1
0.82667	1
0.83033	1
0.83400	4
0.83767	5
0.84133	5
0.84500	6
0.84867	7
0.85233	5
0.85600	3
0.85967	3
0.86333	4
0.86700	6
0.87067	7
0.87433	6
0.87800	4
0.88167	2
0.88533	2
0.88900	3
0.89267	5
0.89633	8
0.90000	10
0.90367	10
0.90733	9
0.91100	7
0.91467	6
0.91833	6
0.92200	6
0.92567	6
0.92933	5
0.93300	5
0.93667	5
0.94033	6
0.94400	5
0.94767	3
0.95133	5
0.95500	6
0.95867	6
0.96233	5
0.96600	5
0.96967	6
0.97333	5
0.97700	4
0.98067	4
0.98433	3
0.98800	5
0.99167	7
0.99533	7
0.99900	6
1.00267	5
1.00633	2
1.01000	0
1.01367	1
1.01733	4
1.02100	5
1.02467	4
1.02833	2
1.03200	2
1.03567	2
1.03933	3
1.04300	3
1.04667	4
1.05033	4
1.05400	7
1.05767	8
1.06133	7
1.06500	6
1.06867	6
1.07233	6
1.07600	6
1.07967	5
1.08333	5
1.08700	3
1.09067	3
1.09433	3
1.09800	3
1.10167	2
1.10533	2
1.10900	4
1.11267	4
1.11633	4
1.12000	3
1.12367	2
1.12733	1
1.13100	-0
1.13467	-1
1.13833	-1
1.14200	2
1.14567	5
1.14933	9
1.15300	13
1.15667	11
1.16033	10
1.16400	9
1.16767	7
1.17133	7
1.17500	7
1.17867	8
1.18233	6
1.18600	5
1.18967	6
1.19333	7
1.19700	7
1.20067	4
1.20433	3
1.20800	5
1.21167	6
1.21533	6
1.21900	5
1.22267	5
1.22633	2
1.23000	-1
1.23367	-2
1.23733	-0
1.24100	1
1.24467	4
1.24833	6
1.25200	7
1.25567	8
1.25933	7
1.26300	7
1.26667	8
1.27033	8
1.27400	7
1.27767	8
1.28133	7
1.28500	7
1.28867	7
1.29233	6
1.29600	7
1.29967	8
1.30333	8
1.30700	8
1.31067	10
1.31433	11
1.31800	11
1.32167	10
1.32533	9
1.32900	7
1.33267	4
1.33633	3
1.34000	4
1.34367	7
1.34733	10
1.35100	11
1.35467	10
1.35833	8
1.36200	8
1.36567	7
1.36933	8
1.37300	11
1.37667	12
1.38033	13
1.38400	12
1.38767	10
1.39133	7
1.39500	5
1.39867	6
1.40233	8
1.40600	8
1.40967	7
1.41333	7
1.41700	8
1.42067	7
1.42433	8
1.42800	8
1.43167	7
1.43533	6
1.43900	5
1.44267	5
1.44633	4
1.45000	6
1.45367	8
1.45733	11
1.46100	13
1.46467	13
1.46833	11
1.47200	10
1.47567	10
1.47933	11
1.48300	12
1.48667	13
1.49033	13
1.49400	14
1.49767	13
1.50133	12
1.50500	11
1.50867	12
1.51233	11
1.51600	10
1.51967	11
1.52333	12
1.52700	11
1.53067	11
1.53433	11
1.53800	11
1.54167	10
1.54533	10
1.54900	9
1.55267	8
1.55633	5
1.56000	3
1.56367	3
1.56733	6
1.57100	6
1.57467	5
1.57833	4
1.58200	5
1.58567	5
1.58933	7
1.59300	9
1.59667	11
1.60033	13
1.60400	13
1.60767	13
1.61133	12
1.61500	10
1.61867	8
1.62233	8
1.62600	8
1.62967	11
1.63333	13
1.63700	16
1.64067	18
1.64433	18
1.64800	18
1.65167	17
1.65533	15
1.65900	14
1.66267	14
1.66633	14
1.67000	16
1.67367	18
1.67733	21
1.68100	20
1.68467	19
1.68833	18
1.69200	19
1.69567	18
1.69933	17
1.70300	17
1.70667	17
1.71033	17
1.71400	16
1.71767	15
1.72133	17
1.72500	18
1.72867	18
1.73233	17
1.73600	17
1.73967	20
1.74333	22
1.74700	23
1.75067	21
1.75433	20
1.75800	20
1.76167	19
1.76533	20
1.76900	19
1.77267	19
1.77633	18
1.78000	17
1.78367	19
1.78733	20
1.79100	20
1.79467	22
1.79833	24
1.80200	28
1.80567	30
1.80933	30
1.81300	31
1.81667	30
1.82033	32
1.82400	34
1.82767	31
1.83133	29
1.83500	29
1.83867	28
1.84233	28
1.84600	28
1.84967	27
1.85333	28
1.85700	29
1.86067	31
1.86433	33
1.86800	35
1.87167	35
1.87533	35
1.87900	37
1.88267	40
1.88633	41
1.89000	41
1.89367	42
1.89733	42
1.90100	42
1.90467	42
1.90833	43
1.91200	42
1.91567	40
1.91933	42
1.92300	44
1.92667	45
1.93033	48
1.93400	51
1.93767	53
1.94133	52
1.94500	49
1.94867	49
1.95233	48
1.95600	47
1.95967	49
1.96333	52
1.96700	54
1.97067	53
1.97433	52
1.97800	54
1.98167	56
1.98533	57
1.98900	58
1.99267	60
1.99633	63
2.00000	62
2.00367	59
2.00733	59
2.01100	57
2.01467	57
2.01833	59
2.02200	61
2.02567	62
2.02933	62
2.03300	64
2.03667	67
2.04033	68
2.04400	68
2.04767	69
2.05133	69
2.05500	68
2.05867	67
2.06233	68
2.06600	70
2.06967	70
2.07333	70
2.07700	67
2.08067	67
2.08433	69
2.08800	72
2.09167	72
2.09533	71
2.09900	73
2.10267	76
2.10633	79
2.11000	82
2.11367	85
2.11733	86
2.12100	85
2.12467	87
2.12833	90
2.13200	92
2.13567	92
2.13933	91
2.14300	90
2.14667	90
2.15033	89
2.15400	89
2.15767	90
2.16133	89
2.16500	89
2.16867	87
2.17233	88
2.17600	89
2.17967	91
2.18333	94
2.18700	96
2.19067	99
2.19433	101
2.19800	103
2.20167	105
2.20533	107
2.20900	106
2.21267	106
2.21633	108
2.22000	110
2.22367	113
2.22733	115
2.23100	115
2.23467	114
2.23833	114
2.24200	115
2.24567	118
2.24933	120
2.25300	123
2.25667	128
2.26033	131
2.26400	130
2.26767	129
2.27133	128
2.27500	129
2.27867	130
2.28233	130
2.28600	130
2.28967	131
2.29333	131
2.29700	133
2.30067	135
2.30433	136
2.30800	138
2.31167	139
2.31533	141
2.31900	144
2.32267	147
2.32633	149
2.33000	151
2.33367	153
2.33733	157
2.34100	159
2.34467	162
2.34833	162
2.35200	162
2.35567	165
2.35933	164
2.36300	164
2.36667	165
2.37033	166
2.37400	166
2.37767	166
2.38133	168
2.38500	170
2.38867	170
2.39233	171
2.39600	174
2.39967	180
2.40333	185
2.40700	187
2.41067	187
2.41433	189
2.41800	192
2.42167	195
2.42533	197
2.42900	199
2.43267	200
2.43633	201
2.44000	205
2.44367	244
2.44733	341
2.45100	454
2.45467	544
2.45833	586
2.46200	594
2.46567	598
2.46933	602
2.47300	597
2.47667	576
2.48033	543
2.48400	509
2.48767	479
2.49133	460
2.49500	454
2.49867	458
2.50233	470
2.50600	486
2.50967	497
2.51333	500
2.51700	495
2.52067	480
2.52433	461
2.52800	443
2.53167	425
2.53533	407
2.53900	392
2.54267	382
2.54633	377
2.55000	377
2.55367	379
2.55733	384
2.56100	391
2.56467	398
2.56833	409
2.57200	421
2.57567	433
2.57933	446
2.58300	462
2.58667	477
2.59033	491
2.59400	499
2.59767	503
2.60133	504
2.60500	497
2.60867	483
2.61233	458
2.61600	425
2.61967	385
2.62333	343
2.62700	299
2.63067	256
2.63433	216
2.63800	183
2.64167	160
2.64533	143
2.64900	131
2.65267	125
2.65633	125
2.66000	127
2.66367	131
2.66733	136
2.67100	144
2.67467	152
2.67833	162
2.68200	171
2.68567	180
2.68933	189
2.69300	199
2.69667	209
2.70033	217
2.70400	225
2.70767	235
2.71133	244
2.71500	254
2.71867	264
2.72233	271
2.72600	279
2.72967	291
2.73333	303
2.73700	315
2.74067	323
2.74433	330
2.74800	340
2.75167	349
2.75533	359
2.75900	370
2.76267	378
2.76633	385
2.77000	392
2.77367	399
2.77733	406
2.78100	414
2.78467	421
2.78833	425
2.79200	427
2.79567	430
2.79933	432
2.80300	433
2.80667	433
2.81033	431
2.81400	429
2.81767	429
2.82133	430
2.82500	431
2.82867	443
2.83233	472
2.83600	539
2.83967	666
2.84333	876
2.84700	1195
2.85067	1632
2.85433	2180
2.85800	2809
2.86167	3479
2.86533	4135
2.86900	4724
2.87267	5204
2.87633	5539
2.88000	5713
2.88367	5729
2.88733	5604
2.89100	5367
2.89467	5051
2.89833	4685
2.90200	4297
2.90567	3905
2.90933	3523
2.91300	3166
2.91667	2835
2.92033	2531
2.92400	2258
2.92767	2014
2.93133	1796
2.93500	1603
2.93867	1434
2.94233	1287
2.94600	1161
2.94967	1052
2.95333	958
2.95700	875
2.96067	804
2.96433	745
2.96800	694
2.97167	649
2.97533	610
2.97900	578
2.98267	553
2.98633	530
2.99000	510
2.99367	492
2.99733	477
3.00100	464
3.00467	451
3.00833	442
3.01200	435
3.01567	429
3.01933	423
3.02300	417
3.02667	414
3.03033	410
3.03400	406
3.03767	406
3.04133	404
3.04500	401
3.04867	396
3.05233	392
3.05600	392
3.05967	390
3.06333	388
3.06700	387
3.07067	387
3.07433	387
3.07800	388
3.08167	386
3.08533	385
3.08900	384
3.09267	383
3.09633	386
3.10000	388
3.10367	392
3.10733	393
3.11100	391
3.11467	391
3.11833	390
3.12200	390
3.12567	392
3.12933	396
3.13300	400
3.13667	405
3.14033	405
3.14400	403
3.14767	402
3.15133	400
3.15500	401
3.15867	401
3.16233	402
3.16600	404
3.16967	406
3.17333	407
3.17700	406
3.18067	406
3.18433	406
3.18800	405
3.19167	405
3.19533	405
3.19900	405
3.20267	407
3.20633	409
3.21000	410
3.21367	409
3.21733	408
3.22100	408
3.22467	408
3.22833	408
3.23200	408
3.23567	407
3.23933	406
3.24300	405
3.24667	403
3.25033	399
3.25400	398
3.25767	399
3.26133	399
3.26500	398
3.26867	398
3.27233	397
3.27600	395
3.27967	393
3.28333	390
3.28700	386
3.29067	381
3.29433	378
3.29800	375
3.30167	372
3.30533	368
3.30900	364
3.31267	361
3.31633	359
3.32000	356
3.32367	355
3.32733	350
3.33100	346
3.33467	343
3.33833	340
3.34200	335
3.34567	330
3.34933	327
3.35300	323
3.35667	320
3.36033	317
3.36400	314
3.36767	313
3.37133	309
3.37500	306
3.37867	305
3.38233	302
3.38600	300
3.38967	299
3.39333	295
3.39700	291
3.40067	287
3.40433	286
3.40800	286
3.41167	286
3.41533	284
3.41900	283
3.42267	280
3.42633	274
3.43000	271
3.43367	271
3.43733	270
3.44100	267
3.44467	264
3.44833	260
3.45200	258
3.45567	256
3.45933	255
3.46300	254
3.46667	253
3.47033	249
3.47400	247
3.47767	245
3.48133	245
3.48500	246
3.48867	246
3.49233	245
3.49600	242
3.49967	243
3.50333	244
3.50700	240
3.51067	238
3.51433	236
3.51800	235
3.52167	237
3.52533	237
3.52900	238
3.53267	240
3.53633	238
3.54000	238
3.54367	238
3.54733	239
3.55100	238
3.55467	237
3.55833	236
3.56200	236
3.56567	235
3.56933	233
3.57300	230
3.57667	229
3.58033	229
3.58400	227
3.58767	227
3.59133	227
3.59500	224
3.59867	221
3.60233	218
3.60600	216
3.60967	213
3.61333	211
3.61700	210
3.62067	209
3.62433	211
3.62800	216
3.63167	221
3.63533	222
3.63900	221
3.64267	219
3.64633	215
3.65000	213
3.65367	211
3.65733	210
3.66100	213
3.66467	215
3.66833	216
3.67200	213
3.67567	211
3.67933	209
3.68300	208
3.68667	208
3.69033	207
3.69400	207
3.69767	206
3.70133	205
3.70500	205
3.70867	208
3.71233	209
3.71600	209
3.71967	206
3.72333	202
3.72700	200
3.73067	198
3.73433	197
3.73800	196
3.74167	196
3.74533	195
3.74900	193
3.75267	192
3.75633	195
3.76000	197
3.76367	198
3.76733	200
3.77100	200
3.77467	201
3.77833	201
3.78200	201
3.78567	203
3.78933	203
3.79300	202
3.79667	201
3.80033	200
3.80400	197
3.80767	198
3.81133	200
3.81500	201
3.81867	203
3.82233	202
3.82600	200
3.82967	200
3.83333	200
3.83700	198
3.84067	195
3.84433	194
3.84800	194
3.85167	196
3.85533	198
3.85900	200
3.86267	200
3.86633	196
3.87000	192
3.87367	190
3.87733	190
3.88100	190
3.88467	192
3.88833	193
3.89200	192
3.89567	189
3.89933	188
3.90300	186
3.90667	187
3.91033	188
3.91400	190
3.91767	191
3.92133	190
3.92500	189
3.92867	190
3.93233	190
3.93600	191
3.93967	191
3.94333	191
3.94700	191
3.95067	193
3.95433	193
3.95800	192
3.96167	191
3.96533	190
3.96900	188
3.97267	188
3.97633	189
3.98000	191
3.98367	191
3.98733	191
3.99100	191
3.99467	189
3.99833	186

[Status Trace (Column Oven Temperature)]
Interval(msec)	1000
# of Points	240
Start Time(min)	0.009
End Time(min)	3.992
Intensity Units	
Intensity Multiplier	1
R.Time (min)	Intensity
0.00897	35.00
0.02563	35.00
0.04230	35.00
0.05897	35.00
0.07563	35.00
0.09230	35.00
0.10897	35.01
0.12563	35.02
0.14230	35.03
0.15897	35.02
0.17563	35.02
0.19230	35.02
0.20897	35.02
0.22563	35.01
0.24230	35.01
0.25897	35.00
0.27563	34.99
0.29230	34.99
0.30897	34.99
0.32563	35.00
0.34230	35.00
0.35897	35.00
0.37563	34.99
0.39230	34.99
0.40897	34.99
0.42563	34.99
0.44230	34.99
0.45897	35.00
0.47563	35.00
0.49230	35.00
0.50897	34.99
0.52563	34.99
0.54230	34.99
0.55897	34.99
0.57563	34.99
0.59230	34.99
0.60897	35.00
0.62563	34.99
0.64230	34.99
0.65897	34.99
0.67563	34.99
0.69230	34.99
0.70897	35.00
0.72563	35.00
0.74230	35.00
0.75897	35.00
0.77563	34.99
0.79230	34.99
0.80897	34.99
0.82563	34.98
0.84230	34.98
0.85897	35.00
0.87563	35.00
0.89230	35.00
0.90897	35.01
0.92563	35.01
0.94230	35.01
0.95897	35.01
0.97563	35.01
0.99230	35.00
1.00897	34.99
1.02563	34.99
1.04230	34.99
1.05897	34.99
1.07563	35.00
1.09230	35.00
1.10897	35.00
1.12563	34.99
1.14230	34.99
1.15897	34.99
1.17563	34.99
1.19230	34.98
1.20897	34.98
1.22563	34.99
1.24230	34.99
1.25897	34.99
1.27563	34.98
1.29230	34.99
1.30897	34.99
1.32563	34.99
1.34230	34.99
1.35897	35.00
1.37563	35.00
1.39230	35.01
1.40897	35.00
1.42563	35.00
1.44230	35.00
1.45897	34.99
1.47563	34.99
1.49230	34.99
1.50897	34.99
1.52563	34.99
1.54230	34.99
1.55897	35.00
1.57563	35.00
1.59230	35.02
1.60897	35.08
1.62563	35.21
1.64230	35.39
1.65897	35.64
1.67563	35.97
1.69230	36.32
1.70897	36.67
1.72563	37.03
1.74230	37.35
1.75897	37.70
1.77563	38.02
1.79230	38.35
1.80897	38.68
1.82563	39.00
1.84230	39.33
1.85897	39.67
1.87563	40.01
1.89230	40.35
1.90897	40.67
1.92563	41.01
1.94230	41.34
1.95897	41.65
1.97563	41.96
1.99230	42.28
2.00897	42.63
2.02563	42.94
2.04230	43.25
2.05897	43.57
2.07563	43.89
2.09230	44.24
2.10897	44.55
2.12563	44.86
2.14230	45.21
2.15897	45.53
2.17563	45.84
2.19230	46.19
2.20897	46.52
2.22563	46.82
2.24230	47.17
2.25897	47.51
2.27563	47.86
2.29230	48.15
2.30897	48.52
2.32563	48.85
2.34230	49.17
2.35897	49.43
2.37563	49.60
2.39230	49.67
2.40897	49.66
2.42563	49.68
2.44230	49.68
2.45897	49.70
2.47563	49.70
2.49230	49.73
2.50897	49.75
2.52563	49.74
2.54230	49.77
2.55897	49.76
2.57563	49.78
2.59230	49.81
2.60897	49.80
2.62563	49.81
2.64230	49.81
2.65897	49.82
2.67563	49.83
2.69230	49.84
2.70897	49.85
2.72563	49.86
2.74230	49.85
2.75897	49.85
2.77563	49.86
2.79230	49.86
2.80897	49.87
2.82563	49.86
2.84230	49.85
2.85897	49.86
2.87563	49.88
2.89230	49.91
2.90897	49.92
2.92563	49.93
2.94230	49.94
2.95897	49.94
2.97563	49.95
2.99230	49.97
3.00897	49.97
3.02563	49.98
3.04230	49.99
3.05897	50.00
3.07563	50.00
3.09230	50.01
3.10897	50.03
3.12563	50.04
3.14230	50.04
3.15897	50.05
3.17563	50.06
3.19230	50.07
3.20897	50.07
3.22563	50.07
3.24230	50.08
3.25897	50.09
3.27563	50.10
3.29230	50.10
3.30897	50.11
3.32563	50.09
3.34230	50.08
3.35897	50.06
3.37563	50.06
3.39230	50.06
3.40897	50.06
3.42563	50.05
3.44230	50.05
3.45897	50.04
3.47563	50.04
3.49230	50.05
3.50897	50.05
3.52563	50.06
3.54230	50.05
3.55897	50.05
3.57563	50.06
3.59230	50.07
3.60897	50.08
3.62563	50.08
3.64230	50.08
3.65897	50.08
3.67563	50.08
3.69230	50.08
3.70897	50.09
3.72563	50.08
3.74230	50.08
3.75897	50.08
3.77563	50.08
3.79230	50.08
3.80897	50.08
3.82563	50.07
3.84230	50.07
3.85897	50.06
3.87563	50.07
3.89230	50.07
3.90897	50.07
3.92563	50.07
3.94230	50.06
3.95897	50.06
3.97563	50.07
3.99230	50.07

[Status Trace (Injection Unit Temperature)]
Interval(msec)	1000
# of Points	240
Start Time(min)	0.009
End Time(min)	3.992
Intensity Units	
Intensity Multiplier	1
R.Time (min)	Intensity
0.00897	100.00
0.02563	100.00
0.04230	99.99
0.05897	100.00
0.07563	100.00
0.09230	100.00
0.10897	100.00
0.12563	100.00
0.14230	99.99
0.15897	100.00
0.17563	100.00
0.19230	100.00
0.20897	99.99
0.22563	100.00
0.24230	100.00
0.25897	99.99
0.27563	100.00
0.29230	100.00
0.30897	100.00
0.32563	100.00
0.34230	99.99
0.35897	100.00
0.37563	99.99
0.39230	100.00
0.40897	100.00
0.42563	99.99
0.44230	99.99
0.45897	100.00
0.47563	99.99
0.49230	100.00
0.50897	100.00
0.52563	100.00
0.54230	100.00
0.55897	99.99
0.57563	100.00
0.59230	99.99
0.60897	100.00
0.62563	99.99
0.64230	99.99
0.65897	100.00
0.67563	100.00
0.69230	100.00
0.70897	100.00
0.72563	100.00
0.74230	100.00
0.75897	100.00
0.77563	100.00
0.79230	100.00
0.80897	100.00
0.82563	99.99
0.84230	100.00
0.85897	100.00
0.87563	99.99
0.89230	100.00
0.90897	100.00
0.92563	100.00
0.94230	100.00
0.95897	100.00
0.97563	100.00
0.99230	100.00
1.00897	100.00
1.02563	100.00
1.04230	99.99
1.05897	100.00
1.07563	100.00
1.09230	100.00
1.10897	99.99
1.12563	100.00
1.14230	100.00
1.15897	100.00
1.17563	100.00
1.19230	100.00
1.20897	100.00
1.22563	99.99
1.24230	100.00
1.25897	100.00
1.27563	99.99
1.29230	100.00
1.30897	100.00
1.32563	100.00
1.34230	100.00
1.35897	100.00
1.37563	100.00
1.39230	100.00
1.40897	99.99
1.42563	100.00
1.44230	99.99
1.45897	100.00
1.47563	99.99
1.49230	100.00
1.50897	100.00
1.52563	99.99
1.54230	100.00
1.55897	99.99
1.57563	99.99
1.59230	100.00
1.60897	99.99
1.62563	100.00
1.64230	100.00
1.65897	100.00
1.67563	99.99
1.69230	100.00
1.70897	100.00
1.72563	100.00
1.74230	99.99
1.75897	99.99
1.77563	100.00
1.79230	99.99
1.80897	99.99
1.82563	99.99
1.84230	99.99
1.85897	99.99
1.87563	99.99
1.89230	99.99
1.90897	99.99
1.92563	99.99
1.94230	99.99
1.95897	99.99
1.97563	99.99
1.99230	99.99
2.00897	99.99
2.02563	99.99
2.04230	99.99
2.05897	99.99
2.07563	99.98
2.09230	99.98
2.10897	99.98
2.12563	99.98
2.14230	99.98
2.15897	99.98
2.17563	99.98
2.19230	99.98
2.20897	99.98
2.22563	99.98
2.24230	99.98
2.25897	99.98
2.27563	99.98
2.29230	99.98
2.30897	99.97
2.32563	99.97
2.34230	99.97
2.35897	99.97
2.37563	99.97
2.39230	99.97
2.40897	99.97
2.42563	99.97
2.44230	99.97
2.45897	99.97
2.47563	99.97
2.49230	99.97
2.50897	99.97
2.52563	99.97
2.54230	99.97
2.55897	99.98
2.57563	99.98
2.59230	99.98
2.60897	99.98
2.62563	99.98
2.64230	99.98
2.65897	99.98
2.67563	99.98
2.69230	99.99
2.70897	99.99
2.72563	99.99
2.74230	99.99
2.75897	99.99
2.77563	100.00
2.79230	99.99
2.80897	100.00
2.82563	100.00
2.84230	100.00
2.85897	100.00
2.87563	100.01
2.89230	100.01
2.90897	100.01
2.92563	100.01
2.94230	100.02
2.95897	100.02
2.97563	100.01
2.99230	100.01
3.00897	100.02
3.02563	100.02
3.04230	100.03
3.05897	100.02
3.07563	100.03
3.09230	100.03
3.10897	100.03
3.12563	100.03
3.14230	100.03
3.15897	100.03
3.17563	100.03
3.19230	100.03
3.20897	100.04
3.22563	100.04
3.24230	100.04
3.25897	100.04
3.27563	100.04
3.29230	100.04
3.30897	100.04
3.32563	100.04
3.34230	100.04
3.35897	100.04
3.37563	100.05
3.39230	100.04
3.40897	100.05
3.42563	100.04
3.44230	100.05
3.45897	100.05
3.47563	100.05
3.49230	100.05
3.50897	100.05
3.52563	100.05
3.54230	100.05
3.55897	100.05
3.57563	100.05
3.59230	100.05
3.60897	100.05
3.62563	100.05
3.64230	100.05
3.65897	100.05
3.67563	100.05
3.69230	100.05
3.70897	100.05
3.72563	100.05
3.74230	100.05
3.75897	100.05
3.77563	100.05
3.79230	100.05
3.80897	100.05
3.82563	100.05
3.84230	100.05
3.85897	100.05
3.87563	100.05
3.89230	100.05
3.90897	100.05
3.92563	100.05
3.94230	100.05
3.95897	100.05
3.97563	100.05
3.99230	100.05

[Status Trace (Carrier Gas Pressure)]
Interval(msec)	1000
# of Points	240
Start Time(min)	0.009
End Time(min)	3.992
Intensity Units	
Intensity Multiplier	1
R.Time (min)	Intensity
0.00897	58.00
0.02563	55.25
0.04230	57.18
0.05897	59.35
0.07563	59.29
0.09230	58.05
0.10897	57.98
0.12563	58.01
0.14230	58.01
0.15897	58.01
0.17563	58.00
0.19230	58.00
0.20897	58.00
0.22563	58.00
0.24230	58.00
0.25897	58.00
0.27563	58.00
0.29230	58.00
0.30897	58.00
0.32563	58.00
0.34230	58.00
0.35897	58.00
0.37563	58.00
0.39230	58.00
0.40897	58.00
0.42563	58.00
0.44230	58.00
0.45897	58.00
0.47563	58.00
0.49230	58.00
0.50897	58.00
0.52563	58.00
0.54230	58.00
0.55897	58.00
0.57563	58.00
0.59230	58.00
0.60897	58.00
0.62563	58.00
0.64230	58.00
0.65897	58.00
0.67563	58.00
0.69230	58.00
0.70897	58.00
0.72563	58.00
0.74230	58.00
0.75897	58.00
0.77563	58.00
0.79230	58.00
0.80897	58.00
0.82563	58.00
0.84230	58.00
0.85897	58.00
0.87563	58.00
0.89230	58.00
0.90897	58.00
0.92563	58.00
0.94230	58.00
0.95897	58.00
0.97563	58.00
0.99230	58.00
1.00897	58.00
1.02563	58.00
1.04230	58.00
1.05897	58.00
1.07563	58.00
1.09230	58.00
1.10897	58.00
1.12563	58.00
1.14230	58.00
1.15897	58.00
1.17563	58.00
1.19230	58.00
1.20897	58.00
1.22563	58.00
1.24230	58.00
1.25897	58.00
1.27563	58.00
1.29230	58.00
1.30897	58.00
1.32563	58.00
1.34230	58.00
1.35897	58.00
1.37563	58.00
1.39230	58.00
1.40897	58.00
1.42563	58.00
1.44230	58.00
1.45897	58.00
1.47563	58.00
1.49230	58.00
1.50897	58.00
1.52563	58.00
1.54230	58.00
1.55897	58.00
1.57563	58.00
1.59230	58.00
1.60897	58.00
1.62563	58.00
1.64230	58.01
1.65897	58.00
1.67563	58.01
1.69230	58.01
1.70897	58.00
1.72563	58.00
1.74230	58.00
1.75897	58.00
1.77563	58.00
1.79230	58.00
1.80897	58.00
1.82563	58.00
1.84230	58.00
1.85897	58.00
1.87563	58.00
1.89230	58.00
1.90897	58.00
1.92563	58.00
1.94230	58.00
1.95897	58.00
1.97563	58.00
1.99230	58.00
2.00897	58.00
2.02563	58.00
2.04230	58.00
2.05897	58.00
2.07563	58.00
2.09230	58.00
2.10897	58.00
2.12563	58.00
2.14230	58.00
2.15897	58.00
2.17563	58.00
2.19230	58.00
2.20897	58.00
2.22563	58.00
2.24230	58.00
2.25897	58.00
2.27563	58.00
2.29230	58.00
2.30897	58.00
2.32563	58.00
2.34230	58.00
2.35897	58.00
2.37563	58.00
2.39230	57.99
2.40897	57.99
2.42563	58.00
2.44230	58.00
2.45897	58.00
2.47563	58.00
2.49230	58.00
2.50897	57.99
2.52563	57.98
2.54230	58.00
2.55897	58.00
2.57563	58.00
2.59230	58.00
2.60897	58.00
2.62563	58.00
2.64230	58.00
2.65897	58.00
2.67563	58.00
2.69230	58.00
2.70897	58.00
2.72563	58.00
2.74230	58.00
2.75897	58.00
2.77563	58.00
2.79230	58.00
2.80897	58.00
2.82563	58.00
2.84230	58.00
2.85897	58.00
2.87563	58.00
2.89230	58.00
2.90897	58.00
2.92563	58.00
2.94230	58.00
2.95897	58.00
2.97563	58.00
2.99230	58.00
3.00897	58.00
3.02563	58.00
3.04230	58.00
3.05897	58.00
3.07563	58.00
3.09230	58.00
3.10897	58.00
3.12563	58.00
3.14230	58.00
3.15897	58.00
3.17563	58.00
3.19230	58.00
3.20897	58.00
3.22563	58.00
3.24230	58.00
3.25897	58.00
3.27563	58.00
3.29230	58.00
3.30897	58.00
3.32563	58.00
3.34230	58.00
3.35897	58.00
3.37563	58.00
3.39230	58.00
3.40897	58.00
3.42563	58.00
3.44230	58.00
3.45897	58.00
3.47563	58.00
3.49230	58.00
3.50897	58.00
3.52563	58.00
3.54230	58.00
3.55897	58.00
3.57563	58.00
3.59230	58.00
3.60897	58.00
3.62563	58.00
3.64230	58.00
3.65897	58.00
3.67563	58.00
3.69230	58.00
3.70897	58.00
3.72563	58.00
3.74230	58.00
3.75897	58.00
3.77563	58.00
3.79230	58.00
3.80897	58.00
3.82563	58.00
3.84230	58.00
3.85897	58.00
3.87563	58.00
3.89230	58.00
3.90897	58.00
3.92563	58.00
3.94230	58.00
3.95897	58.00
3.97563	58.00
3.99230	58.00

[Status Trace (Carrier Gas Flow)]
Interval(msec)	1000
# of Points	240
Start Time(min)	0.009
End Time(min)	3.992
Intensity Units	
Intensity Multiplier	1
R.Time (min)	Intensity
0.00897	34.51
0.02563	34.53
0.04230	34.54
0.05897	34.54
0.07563	34.50
0.09230	34.52
0.10897	34.52
0.12563	34.52
0.14230	34.52
0.15897	34.52
0.17563	34.52
0.19230	34.52
0.20897	34.52
0.22563	34.52
0.24230	34.52
0.25897	34.52
0.27563	34.52
0.29230	34.52
0.30897	34.52
0.32563	34.51
0.34230	34.52
0.35897	34.51
0.37563	34.52
0.39230	34.52
0.40897	34.51
0.42563	34.51
0.44230	34.52
0.45897	34.52
0.47563	34.52
0.49230	34.52
0.50897	34.52
0.52563	34.52
0.54230	34.52
0.55897	34.52
0.57563	34.52
0.59230	34.52
0.60897	34.52
0.62563	34.52
0.64230	34.52
0.65897	34.52
0.67563	34.52
0.69230	34.52
0.70897	34.52
0.72563	34.52
0.74230	34.52
0.75897	34.52
0.77563	34.52
0.79230	34.52
0.80897	34.52
0.82563	34.52
0.84230	34.52
0.85897	34.52
0.87563	34.52
0.89230	34.52
0.90897	34.52
0.92563	34.52
0.94230	34.52
0.95897	34.52
0.97563	34.52
0.99230	34.52
1.00897	34.52
1.02563	34.52
1.04230	34.52
1.05897	34.52
1.07563	34.52
1.09230	34.51
1.10897	34.52
1.12563	34.52
1.14230	34.52
1.15897	34.52
1.17563	34.52
1.19230	34.52
1.20897	34.52
1.22563	34.52
1.24230	34.52
1.25897	34.52
1.27563	34.52
1.29230	34.52
1.30897	34.52
1.32563	34.52
1.34230	34.52
1.35897	34.52
1.37563	34.51
1.39230	34.52
1.40897	34.52
1.42563	34.52
1.44230	34.52
1.45897	34.52
1.47563	34.52
1.49230	34.52
1.50897	34.52
1.52563	34.53
1.54230	34.51
1.55897	34.53
1.57563	34.51
1.59230	34.52
1.60897	34.52
1.62563	34.52
1.64230	34.52
1.65897	34.52
1.67563	34.52
1.69230	34.52
1.70897	34.52
1.72563	34.53
1.74230	34.51
1.75897	34.51
1.77563	34.53
1.79230	34.52
1.80897	34.52
1.82563	34.52
1.84230	34.51
1.85897	34.52
1.87563	34.52
1.89230	34.53
1.90897	34.51
1.92563	34.51
1.94230	34.53
1.95897	34.52
1.97563	34.51
1.99230	34.52
2.00897	34.51
2.02563	34.52
2.04230	34.52
2.05897	34.51
2.07563	34.52
2.09230	34.52
2.10897	34.51
2.12563	34.53
2.14230	34.52
2.15897	34.53
2.17563	34.52
2.19230	34.52
2.20897	34.53
2.22563	34.52
2.24230	34.53
2.25897	34.53
2.27563	34.53
2.29230	34.52
2.30897	34.52
2.32563	34.51
2.34230	34.53
2.35897	34.52
2.37563	34.52
2.39230	34.52
2.40897	34.52
2.42563	34.52
2.44230	34.52
2.45897	34.52
2.47563	34.52
2.49230	34.52
2.50897	34.47
2.52563	34.52
2.54230	34.52
2.55897	34.52
2.57563	34.52
2.59230	34.52
2.60897	34.52
2.62563	34.52
2.64230	34.52
2.65897	34.52
2.67563	34.52
2.69230	34.52
2.70897	34.52
2.72563	34.52
2.74230	34.52
2.75897	34.52
2.77563	34.52
2.79230	34.52
2.80897	34.52
2.82563	34.52
2.84230	34.52
2.85897	34.52
2.87563	34.52
2.89230	34.52
2.90897	34.52
2.92563	34.52
2.94230	34.52
2.95897	34.52
2.97563	34.52
2.99230	34.52
3.00897	34.52
3.02563	34.52
3.04230	34.52
3.05897	34.52
3.07563	34.52
3.09230	34.52
3.10897	34.52
3.12563	34.52
3.14230	34.52
3.15897	34.52
3.17563	34.52
3.19230	34.52
3.20897	34.52
3.22563	34.52
3.24230	34.52
3.25897	34.52
3.27563	34.52
3.29230	34.52
3.30897	34.52
3.32563	34.52
3.34230	34.52
3.35897	34.52
3.37563	34.52
3.39230	34.52
3.40897	34.52
3.42563	34.52
3.44230	34.52
3.45897	34.52
3.47563	34.52
3.49230	34.52
3.50897	34.52
3.52563	34.52
3.54230	34.52
3.55897	34.52
3.57563	34.52
3.59230	34.52
3.60897	34.52
3.62563	34.52
3.64230	34.52
3.65897	34.52
3.67563	34.52
3.69230	34.52
3.70897	34.52
3.72563	34.52
3.74230	34.52
3.75897	34.52
3.77563	34.52
3.79230	34.52
3.80897	34.52
3.82563	34.52
3.84230	34.52
3.85897	34.52
3.87563	34.52
3.89230	34.52
3.90897	34.52
3.92563	34.52
3.94230	34.52
3.95897	34.52
3.97563	34.52
3.99230	34.52

[Status Trace (Column Flow)]
Interval(msec)	1000
# of Points	240
Start Time(min)	0.009
End Time(min)	3.992
Intensity Units	
Intensity Multiplier	1
R.Time (min)	Intensity
0.00897	5.57
0.02563	5.25
0.04230	5.47
0.05897	5.73
0.07563	5.72
0.09230	5.57
0.10897	5.57
0.12563	5.57
0.14230	5.57
0.15897	5.57
0.17563	5.57
0.19230	5.57
0.20897	5.57
0.22563	5.57
0.24230	5.57
0.25897	5.57
0.27563	5.57
0.29230	5.57
0.30897	5.57
0.32563	5.57
0.34230	5.57
0.35897	5.57
0.37563	5.57
0.39230	5.57
0.40897	5.57
0.42563	5.57
0.44230	5.57
0.45897	5.57
0.47563	5.57
0.49230	5.57
0.50897	5.57
0.52563	5.57
0.54230	5.57
0.55897	5.57
0.57563	5.57
0.59230	5.57
0.60897	5.57
0.62563	5.57
0.64230	5.57
0.65897	5.57
0.67563	5.57
0.69230	5.57
0.70897	5.57
0.72563	5.57
0.74230	5.57
0.75897	5.57
0.77563	5.57
0.79230	5.57
0.80897	5.57
0.82563	5.57
0.84230	5.57
0.85897	5.57
0.87563	5.57
0.89230	5.57
0.90897	5.57
0.92563	5.57
0.94230	5.57
0.95897	5.57
0.97563	5.57
0.99230	5.57
1.00897	5.57
1.02563	5.57
1.04230	5.57
1.05897	5.57
1.07563	5.57
1.09230	5.57
1.10897	5.57
1.12563	5.57
1.14230	5.57
1.15897	5.57
1.17563	5.57
1.19230	5.57
1.20897	5.57
1.22563	5.57
1.24230	5.57
1.25897	5.57
1.27563	5.57
1.29230	5.57
1.30897	5.57
1.32563	5.57
1.34230	5.57
1.35897	5.57
1.37563	5.57
1.39230	5.57
1.40897	5.57
1.42563	5.57
1.44230	5.57
1.45897	5.57
1.47563	5.57
1.49230	5.57
1.50897	5.57
1.52563	5.57
1.54230	5.57
1.55897	5.57
1.57563	5.57
1.59230	5.57
1.60897	5.57
1.62563	5.56
1.64230	5.56
1.65897	5.55
1.67563	5.54
1.69230	5.53
1.70897	5.52
1.72563	5.50
1.74230	5.49
1.75897	5.48
1.77563	5.47
1.79230	5.46
1.80897	5.45
1.82563	5.44
1.84230	5.43
1.85897	5.42
1.87563	5.41
1.89230	5.40
1.90897	5.39
1.92563	5.38
1.94230	5.37
1.95897	5.36
1.97563	5.35
1.99230	5.34
2.00897	5.33
2.02563	5.32
2.04230	5.31
2.05897	5.31
2.07563	5.30
2.09230	5.29
2.10897	5.28
2.12563	5.27
2.14230	5.26
2.15897	5.25
2.17563	5.24
2.19230	5.23
2.20897	5.22
2.22563	5.21
2.24230	5.20
2.25897	5.19
2.27563	5.18
2.29230	5.17
2.30897	5.16
2.32563	5.15
2.34230	5.14
2.35897	5.14
2.37563	5.13
2.39230	5.13
2.40897	5.13
2.42563	5.13
2.44230	5.13
2.45897	5.13
2.47563	5.13
2.49230	5.13
2.50897	5.13
2.52563	5.13
2.54230	5.13
2.55897	5.13
2.57563	5.13
2.59230	5.13
2.60897	5.13
2.62563	5.13
2.64230	5.13
2.65897	5.13
2.67563	5.13
2.69230	5.13
2.70897	5.13
2.72563	5.13
2.74230	5.13
2.75897	5.13
2.77563	5.13
2.79230	5.13
2.80897	5.12
2.82563	5.13
2.84230	5.13
2.85897	5.13
2.87563	5.12
2.89230	5.12
2.90897	5.12
2.92563	5.12
2.94230	5.12
2.95897	5.12
2.97563	5.12
2.99230	5.12
3.00897	5.12
3.02563	5.12
3.04230	5.12
3.05897	5.12
3.07563	5.12
3.09230	5.12
3.10897	5.12
3.12563	5.12
3.14230	5.12
3.15897	5.12
3.17563	5.12
3.19230	5.12
3.20897	5.12
3.22563	5.12
3.24230	5.12
3.25897	5.12
3.27563	5.12
3.29230	5.12
3.30897	5.12
3.32563	5.12
3.34230	5.12
3.35897	5.12
3.37563	5.12
3.39230	5.12
3.40897	5.12
3.42563	5.12
3.44230	5.12
3.45897	5.12
3.47563	5.12
3.49230	5.12
3.50897	5.12
3.52563	5.12
3.54230	5.12
3.55897	5.12
3.57563	5.12
3.59230	5.12
3.60897	5.12
3.62563	5.12
3.64230	5.12
3.65897	5.12
3.67563	5.12
3.69230	5.12
3.70897	5.12
3.72563	5.12
3.74230	5.12
3.75897	5.12
3.77563	5.12
3.79230	5.12
3.80897	5.12
3.82563	5.12
3.84230	5.12
3.85897	5.12
3.87563	5.12
3.89230	5.12
3.90897	5.12
3.92563	5.12
3.94230	5.12
3.95897	5.12
3.97563	5.12
3.99230	5.12

[Status Trace (Linear Velocity)]
Interval(msec)	1000
# of Points	240
Start Time(min)	0.009
End Time(min)	3.992
Intensity Units	
Intensity Multiplier	1
R.Time (min)	Intensity
0.00897	39.03
0.02563	37.22
0.04230	38.49
0.05897	39.91
0.07563	39.87
0.09230	39.06
0.10897	39.02
0.12563	39.03
0.14230	39.03
0.15897	39.03
0.17563	39.03
0.19230	39.03
0.20897	39.03
0.22563	39.03
0.24230	39.03
0.25897	39.03
0.27563	39.03
0.29230	39.03
0.30897	39.03
0.32563	39.03
0.34230	39.03
0.35897	39.03
0.37563	39.03
0.39230	39.03
0.40897	39.03
0.42563	39.03
0.44230	39.03
0.45897	39.03
0.47563	39.03
0.49230	39.03
0.50897	39.03
0.52563	39.03
0.54230	39.03
0.55897	39.03
0.57563	39.03
0.59230	39.03
0.60897	39.03
0.62563	39.03
0.64230	39.03
0.65897	39.03
0.67563	39.03
0.69230	39.03
0.70897	39.03
0.72563	39.03
0.74230	39.03
0.75897	39.03
0.77563	39.03
0.79230	39.03
0.80897	39.03
0.82563	39.03
0.84230	39.03
0.85897	39.03
0.87563	39.03
0.89230	39.03
0.90897	39.03
0.92563	39.03
0.94230	39.03
0.95897	39.03
0.97563	39.03
0.99230	39.03
1.00897	39.03
1.02563	39.03
1.04230	39.03
1.05897	39.03
1.07563	39.03
1.09230	39.03
1.10897	39.03
1.12563	39.03
1.14230	39.03
1.15897	39.03
1.17563	39.03
1.19230	39.03
1.20897	39.03
1.22563	39.03
1.24230	39.03
1.25897	39.03
1.27563	39.03
1.29230	39.03
1.30897	39.03
1.32563	39.03
1.34230	39.03
1.35897	39.03
1.37563	39.03
1.39230	39.03
1.40897	39.03
1.42563	39.03
1.44230	39.03
1.45897	39.03
1.47563	39.03
1.49230	39.03
1.50897	39.03
1.52563	39.03
1.54230	39.03
1.55897	39.03
1.57563	39.03
1.59230	39.03
1.60897	39.02
1.62563	39.01
1.64230	38.99
1.65897	38.97
1.67563	38.94
1.69230	38.90
1.70897	38.87
1.72563	38.83
1.74230	38.80
1.75897	38.77
1.77563	38.74
1.79230	38.71
1.80897	38.68
1.82563	38.65
1.84230	38.62
1.85897	38.58
1.87563	38.55
1.89230	38.52
1.90897	38.49
1.92563	38.46
1.94230	38.43
1.95897	38.40
1.97563	38.37
1.99230	38.34
2.00897	38.31
2.02563	38.28
2.04230	38.25
2.05897	38.22
2.07563	38.19
2.09230	38.16
2.10897	38.13
2.12563	38.10
2.14230	38.07
2.15897	38.04
2.17563	38.01
2.19230	37.98
2.20897	37.95
2.22563	37.93
2.24230	37.90
2.25897	37.87
2.27563	37.83
2.29230	37.81
2.30897	37.78
2.32563	37.74
2.34230	37.72
2.35897	37.69
2.37563	37.68
2.39230	37.67
2.40897	37.67
2.42563	37.67
2.44230	37.67
2.45897	37.67
2.47563	37.67
2.49230	37.67
2.50897	37.66
2.52563	37.65
2.54230	37.66
2.55897	37.66
2.57563	37.66
2.59230	37.66
2.60897	37.66
2.62563	37.66
2.64230	37.66
2.65897	37.66
2.67563	37.66
2.69230	37.66
2.70897	37.66
2.72563	37.66
2.74230	37.66
2.75897	37.66
2.77563	37.66
2.79230	37.65
2.80897	37.65
2.82563	37.66
2.84230	37.66
2.85897	37.66
2.87563	37.65
2.89230	37.65
2.90897	37.65
2.92563	37.65
2.94230	37.65
2.95897	37.65
2.97563	37.65
2.99230	37.65
3.00897	37.65
3.02563	37.64
3.04230	37.64
3.05897	37.64
3.07563	37.64
3.09230	37.64
3.10897	37.64
3.12563	37.64
3.14230	37.64
3.15897	37.64
3.17563	37.64
3.19230	37.64
3.20897	37.64
3.22563	37.64
3.24230	37.64
3.25897	37.63
3.27563	37.63
3.29230	37.63
3.30897	37.63
3.32563	37.63
3.34230	37.64
3.35897	37.64
3.37563	37.64
3.39230	37.64
3.40897	37.64
3.42563	37.64
3.44230	37.64
3.45897	37.64
3.47563	37.64
3.49230	37.64
3.50897	37.64
3.52563	37.64
3.54230	37.64
3.55897	37.64
3.57563	37.64
3.59230	37.64
3.60897	37.64
3.62563	37.64
3.64230	37.64
3.65897	37.64
3.67563	37.64
3.69230	37.64
3.70897	37.64
3.72563	37.64
3.74230	37.64
3.75897	37.64
3.77563	37.64
3.79230	37.64
3.80897	37.64
3.82563	37.64
3.84230	37.64
3.85897	37.64
3.87563	37.64
3.89230	37.64
3.90897	37.64
3.92563	37.64
3.94230	37.64
3.95897	37.64
3.97563	37.64
3.99230	37.64

