[Header]
Application Name	LabSolutions
Version	5.110
Data File Name	C:\Users\User\Desktop\GC Analyses\Jack\UIC Prairie Sampling\11.2.22\221102_084.gcd
Output Date	3/20/2023
Output Time	1:25:41 PM

[File Information]
Type	Data File
Generated	1/3/2023 1:40:39 PM
Generated by	System Administrator
Modified	1/3/2023 1:45:01 PM
Modified by	System Administrator

[Sample Information]
Operator Name	System Administrator
Acquired	1/3/2023 1:40:59 PM
Sample Type	1:Standard
Level	1
Sample Name	221102_UICPrairie
Sample ID	221102_UICPrairie
ISTD Amount1	1
ISTD Amount2	1
ISTD Amount3	1
ISTD Amount4	1
ISTD Amount5	1
ISTD Amount6	1
ISTD Amount7	1
ISTD Amount8	1
ISTD Amount9	1
ISTD Amount10	1
ISTD Amount11	1
ISTD Amount12	1
ISTD Amount13	1
ISTD Amount14	1
ISTD Amount15	1
ISTD Amount16	1
ISTD Amount17	1
ISTD Amount18	1
ISTD Amount19	1
ISTD Amount20	1
ISTD Amount21	1
ISTD Amount22	1
ISTD Amount23	1
ISTD Amount24	1
ISTD Amount25	1
ISTD Amount26	1
ISTD Amount27	1
ISTD Amount28	1
ISTD Amount29	1
ISTD Amount30	1
ISTD Amount31	1
ISTD Amount32	1
Sample Amount	1
Dilution Factor	1
Vial#	1
Injection Volume	1
Injection Count	1
Bar Code	

[Original Files]
Data File	C:\Users\User\Desktop\GC Analyses\Jack\UIC Prairie Sampling\11.2.22\221102_084.gcd
Method File	C:\LabSolutions\Data\GHG_4min_2022\ghg3_togas_w_acet_4 min_new_int.gcm
Batch File	
Report Format File	c:\LabSolutions\System\DEFAULT.lsr

[File Description]


[Configuration]
Instrument Name	C0B7VH3-Instrument1
Instrument #	1
Line #	1
# of Detectors	3
Detector ID	DET#1	DET#2	DET#3
Detector Name	FID	PTCD	ECD
# of Channels	1	1	1

[Peak Table(Ch1)]
# of Peaks	3
Peak#	R.Time	I.Time	F.Time	Area	Height	A/H	Conc.	Mark	ID#	Name	k'	Plate #	Plate Ht.	Tailing	Resolution	Sep.Factor	Area Ratio	Height Ratio	Conc. %	Norm Conc.
1	1.476	1.439	1.538	14700	6752	2.177	100.000	   	1	CO	0.000	8764	17.115	1.343	0.000	0.000	0	0	16.667	16.667
2	1.567	1.538	1.641	5254	2602	2.019	100.000	 V 	2	CH4	0.062	11228	13.360	0.000	1.500	0.000	0	0	16.667	16.667
3	2.000	1.952	2.521	1390077	658774	2.110	400.000	   	3	CO2	0.355	17817	8.419	1.198	7.266	5.720	0	0	66.667	66.667

[Peak Table(Ch2)]
# of Peaks	0

[Peak Table(Ch3)]
# of Peaks	5
Peak#	R.Time	I.Time	F.Time	Area	Height	A/H	Conc.	Mark	ID#	Name	k'	Plate #	Plate Ht.	Tailing	Resolution	Sep.Factor	Area Ratio	Height Ratio	Conc. %	Norm Conc.
1	2.458	2.348	2.502	1021	320	3.191	0.000	   			0.000	12712	11.800	0.000	0.000	0.000	0	0	0.000	0.000
2	2.524	2.502	2.594	586	162	3.620	0.000	 V 			0.027	3836	39.105	0.000	0.527	0.000	0	0	0.000	0.000
3	2.605	2.594	2.623	108	79	1.371	0.000	 V 			0.060	3866	38.799	0.000	0.488	2.222	0	0	0.000	0.000
4	2.763	2.631	2.829	5049	559	9.030	0.186	   	1	N2O	0.124	885	169.540	0.000	0.585	2.075	0	0	18.559	18.559
5	2.884	2.829	3.214	22155	5229	4.237	0.814	 V 	1	N2O	0.173	12606	11.899	0.000	0.510	1.398	0	0	81.441	81.441

[Compound Results(Ch1)]
# of IDs	6
ID#	Name	R.Time	Area	Height	Conc.	Curve	3rd	2nd	1st	Constant	Area Ratio	Height Ratio	Conc. %	Norm Conc.
1	CO	1.476	14700	6752	100.000	Linear	0.000000e+00	0.000000e+00	1.469956e+002	0.000000e+00	0	0	16.667	16.667
2	CH4	1.567	5254	2602	100.000	Linear	0.000000e+00	0.000000e+00	5.254433e+001	0.000000e+00	0	0	16.667	16.667
3	CO2	2.000	1390077	658774	400.000	Linear	0.000000e+00	0.000000e+00	3.475191e+003	0.000000e+00	0	0	66.667	66.667
4	Ethylene	0.000	0	0	0.000	Linear	0.000000e+00	0.000000e+00	0.000000e+00	0.000000e+00	0	0	0.000	0.000
5	Acetylene	0.000	0	0	0.000	Linear	0.000000e+00	0.000000e+00	0.000000e+00	0.000000e+00	0	0	0.000	0.000
6	Ethane	0.000	0	0	0.000	Linear	0.000000e+00	0.000000e+00	0.000000e+00	0.000000e+00	0	0	0.000	0.000

[Compound Results(Ch2)]
# of IDs	5
ID#	Name	R.Time	Area	Height	Conc.	Curve	3rd	2nd	1st	Constant	Area Ratio	Height Ratio	Conc. %	Norm Conc.
1	Hydrogen	0.000	0	0	0.000	Linear	0.000000e+00	0.000000e+00	0.000000e+00	0.000000e+00	0	0	0.000	0.000
2	Oxygen	0.000	0	0	0.000	Linear	0.000000e+00	0.000000e+00	0.000000e+00	0.000000e+00	0	0	0.000	0.000
3	Nitrogen	0.000	0	0	0.000	Linear	0.000000e+00	0.000000e+00	0.000000e+00	0.000000e+00	0	0	0.000	0.000
4	Methane	0.000	0	0	0.000	Linear	0.000000e+00	0.000000e+00	0.000000e+00	0.000000e+00	0	0	0.000	0.000
5	Carbon Monoxide	0.000	0	0	0.000	Linear	0.000000e+00	0.000000e+00	0.000000e+00	0.000000e+00	0	0	0.000	0.000

[Compound Results(Ch3)]
# of IDs	2
ID#	Name	R.Time	Area	Height	Conc.	Curve	3rd	2nd	1st	Constant	Area Ratio	Height Ratio	Conc. %	Norm Conc.
1	N2O	2.884	27204	5788	1.000	Linear	0.000000e+00	0.000000e+00	2.720400e+004	0.000000e+00	0	0	100.000	100.000
2	SF6	0.000	0	0	0.000	Linear	0.000000e+00	0.000000e+00	0.000000e+00	0.000000e+00	0	0	0.000	0.000

[Group Results(Ch1)]
# of Groups	0

[Group Results(Ch2)]
# of Groups	0

[Group Results(Ch3)]
# of Groups	0

[Chromatogram (Ch1)]
Interval(msec)	220
# of Points	1091
Start Time(min)	0.002
End Time(min)	3.998
R.Time (min)	Intensity
0.00167	-18
0.00533	-8
0.00900	-4
0.01267	-6
0.01633	-10
0.02000	-24
0.02367	-34
0.02733	-36
0.03100	-39
0.03467	-40
0.03833	-32
0.04200	-23
0.04567	-18
0.04933	-14
0.05300	-7
0.05667	-2
0.06033	-4
0.06400	-14
0.06767	-27
0.07133	-34
0.07500	-31
0.07867	-27
0.08233	-25
0.08600	-24
0.08967	-23
0.09333	-18
0.09700	-9
0.10067	-1
0.10433	-5
0.10800	-13
0.11167	-21
0.11533	-27
0.11900	-35
0.12267	-40
0.12633	-44
0.13000	-50
0.13367	-51
0.13733	-50
0.14100	-42
0.14467	-36
0.14833	-32
0.15200	-23
0.15567	-17
0.15933	-15
0.16300	-11
0.16667	-10
0.17033	-8
0.17400	-7
0.17767	-6
0.18133	-6
0.18500	-10
0.18867	-13
0.19233	-17
0.19600	-22
0.19967	-27
0.20333	-29
0.20700	-29
0.21067	-40
0.21433	-48
0.21800	-51
0.22167	-54
0.22533	-54
0.22900	-47
0.23267	-35
0.23633	-31
0.24000	-34
0.24367	-30
0.24733	-33
0.25100	-40
0.25467	-46
0.25833	-48
0.26200	-47
0.26567	-47
0.26933	-44
0.27300	-41
0.27667	-39
0.28033	-41
0.28400	-43
0.28767	-43
0.29133	-41
0.29500	-36
0.29867	-33
0.30233	-30
0.30600	-28
0.30967	-27
0.31333	-29
0.31700	-32
0.32067	-35
0.32433	-34
0.32800	-30
0.33167	-32
0.33533	-34
0.33900	-32
0.34267	-27
0.34633	-24
0.35000	-27
0.35367	-32
0.35733	-37
0.36100	-39
0.36467	-42
0.36833	-46
0.37200	-54
0.37567	-62
0.37933	-66
0.38300	-64
0.38667	-60
0.39033	-53
0.39400	-49
0.39767	-48
0.40133	-48
0.40500	-48
0.40867	-48
0.41233	-45
0.41600	-40
0.41967	-43
0.42333	-51
0.42700	-60
0.43067	-66
0.43433	-69
0.43800	-71
0.44167	-71
0.44533	-70
0.44900	-64
0.45267	-55
0.45633	-49
0.46000	-47
0.46367	-48
0.46733	-50
0.47100	-50
0.47467	-52
0.47833	-51
0.48200	-51
0.48567	-53
0.48933	-56
0.49300	-63
0.49667	-66
0.50033	-66
0.50400	-65
0.50767	-62
0.51133	-57
0.51500	-51
0.51867	-46
0.52233	-43
0.52600	-43
0.52967	-46
0.53333	-50
0.53700	-54
0.54067	-57
0.54433	-60
0.54800	-61
0.55167	-61
0.55533	-61
0.55900	-58
0.56267	-53
0.56633	-51
0.57000	-51
0.57367	-52
0.57733	-55
0.58100	-60
0.58467	-68
0.58833	-77
0.59200	-84
0.59567	-88
0.59933	-91
0.60300	-91
0.60667	-90
0.61033	-84
0.61400	-74
0.61767	-65
0.62133	-57
0.62500	-52
0.62867	-51
0.63233	-49
0.63600	-45
0.63967	-47
0.64333	-51
0.64700	-56
0.65067	-63
0.65433	-70
0.65800	-77
0.66167	-82
0.66533	-88
0.66900	-92
0.67267	-95
0.67633	-94
0.68000	-88
0.68367	-80
0.68733	-77
0.69100	-78
0.69467	-81
0.69833	-83
0.70200	-86
0.70567	-91
0.70933	-97
0.71300	-101
0.71667	-100
0.72033	-96
0.72400	-88
0.72767	-78
0.73133	-69
0.73500	-63
0.73867	-59
0.74233	-59
0.74600	-62
0.74967	-63
0.75333	-63
0.75700	-65
0.76067	-70
0.76433	-76
0.76800	-81
0.77167	-83
0.77533	-87
0.77900	-90
0.78267	-92
0.78633	-89
0.79000	-84
0.79367	-80
0.79733	-77
0.80100	-73
0.80467	-71
0.80833	-69
0.81200	-68
0.81567	-65
0.81933	-63
0.82300	-59
0.82667	-60
0.83033	-67
0.83400	-76
0.83767	-83
0.84133	-88
0.84500	-87
0.84867	-84
0.85233	-85
0.85600	-87
0.85967	-89
0.86333	-90
0.86700	-87
0.87067	-82
0.87433	-80
0.87800	-80
0.88167	-80
0.88533	-86
0.88900	-90
0.89267	-92
0.89633	-90
0.90000	-86
0.90367	-82
0.90733	-79
0.91100	-78
0.91467	-81
0.91833	-87
0.92200	-95
0.92567	-101
0.92933	-104
0.93300	-105
0.93667	-106
0.94033	-103
0.94400	-98
0.94767	-92
0.95133	-86
0.95500	-81
0.95867	-75
0.96233	-72
0.96600	-72
0.96967	-74
0.97333	-72
0.97700	-72
0.98067	-77
0.98433	-82
0.98800	-86
0.99167	-90
0.99533	-95
0.99900	-98
1.00267	-103
1.00633	-110
1.01000	-119
1.01367	-124
1.01733	-123
1.02100	-119
1.02467	-112
1.02833	-107
1.03200	-105
1.03567	-104
1.03933	-105
1.04300	-106
1.04667	-109
1.05033	-110
1.05400	-108
1.05767	-106
1.06133	-107
1.06500	-110
1.06867	-112
1.07233	-112
1.07600	-112
1.07967	-111
1.08333	-112
1.08700	-109
1.09067	-106
1.09433	-104
1.09800	-105
1.10167	-106
1.10533	-110
1.10900	-114
1.11267	-113
1.11633	-112
1.12000	-111
1.12367	-113
1.12733	-118
1.13100	-122
1.13467	-123
1.13833	-123
1.14200	-121
1.14567	-116
1.14933	-113
1.15300	-110
1.15667	-109
1.16033	-112
1.16400	-116
1.16767	-122
1.17133	-122
1.17500	-119
1.17867	-115
1.18233	-111
1.18600	-108
1.18967	-106
1.19333	-106
1.19700	-106
1.20067	-107
1.20433	-108
1.20800	-109
1.21167	-111
1.21533	-113
1.21900	-116
1.22267	-119
1.22633	-122
1.23000	-126
1.23367	-127
1.23733	-126
1.24100	-123
1.24467	-122
1.24833	-122
1.25200	-122
1.25567	-121
1.25933	-119
1.26300	-114
1.26667	-109
1.27033	-102
1.27400	-94
1.27767	-89
1.28133	-88
1.28500	-90
1.28867	-95
1.29233	-104
1.29600	-115
1.29967	-124
1.30333	-128
1.30700	-127
1.31067	-124
1.31433	-123
1.31800	-122
1.32167	-119
1.32533	-117
1.32900	-117
1.33267	-122
1.33633	-126
1.34000	-130
1.34367	-130
1.34733	-128
1.35100	-128
1.35467	-129
1.35833	-132
1.36200	-135
1.36567	-136
1.36933	-135
1.37300	-133
1.37667	-132
1.38033	-129
1.38400	-125
1.38767	-121
1.39133	-119
1.39500	-118
1.39867	-119
1.40233	-124
1.40600	-131
1.40967	-136
1.41333	-139
1.41700	-138
1.42067	-136
1.42433	-136
1.42800	-137
1.43167	-137
1.43533	-135
1.43900	-120
1.44267	-49
1.44633	134
1.45000	471
1.45367	1097
1.45733	2104
1.46100	3343
1.46467	4556
1.46833	5562
1.47200	6278
1.47567	6631
1.47933	6554
1.48300	6042
1.48667	5197
1.49033	4202
1.49400	3234
1.49767	2404
1.50133	1746
1.50500	1250
1.50867	889
1.51233	629
1.51600	444
1.51967	313
1.52333	220
1.52700	151
1.53067	97
1.53433	58
1.53800	42
1.54167	81
1.54533	240
1.54900	570
1.55267	1035
1.55633	1533
1.56000	1970
1.56367	2296
1.56733	2477
1.57100	2475
1.57467	2274
1.57833	1914
1.58200	1484
1.58567	1072
1.58933	727
1.59300	466
1.59667	278
1.60033	146
1.60400	56
1.60767	-3
1.61133	-39
1.61500	-62
1.61867	-78
1.62233	-90
1.62600	-96
1.62967	-101
1.63333	-109
1.63700	-119
1.64067	-128
1.64433	-132
1.64800	-132
1.65167	-132
1.65533	-135
1.65900	-137
1.66267	-138
1.66633	-135
1.67000	-133
1.67367	-134
1.67733	-136
1.68100	-137
1.68467	-137
1.68833	-137
1.69200	-138
1.69567	-141
1.69933	-144
1.70300	-146
1.70667	-146
1.71033	-147
1.71400	-148
1.71767	-146
1.72133	-146
1.72500	-145
1.72867	-142
1.73233	-138
1.73600	-134
1.73967	-134
1.74333	-137
1.74700	-142
1.75067	-144
1.75433	-144
1.75800	-145
1.76167	-144
1.76533	-142
1.76900	-142
1.77267	-140
1.77633	-135
1.78000	-129
1.78367	-120
1.78733	-114
1.79100	-112
1.79467	-113
1.79833	-115
1.80200	-117
1.80567	-123
1.80933	-129
1.81300	-136
1.81667	-143
1.82033	-147
1.82400	-150
1.82767	-150
1.83133	-145
1.83500	-136
1.83867	-131
1.84233	-131
1.84600	-133
1.84967	-134
1.85333	-131
1.85700	-128
1.86067	-123
1.86433	-120
1.86800	-121
1.87167	-126
1.87533	-131
1.87900	-136
1.88267	-139
1.88633	-138
1.89000	-133
1.89367	-130
1.89733	-131
1.90100	-133
1.90467	-135
1.90833	-136
1.91200	-139
1.91567	-142
1.91933	-145
1.92300	-147
1.92667	-146
1.93033	-144
1.93400	-141
1.93767	-136
1.94133	-132
1.94500	-128
1.94867	-125
1.95233	-116
1.95600	-55
1.95967	318
1.96333	2188
1.96700	9289
1.97067	29813
1.97433	75662
1.97800	155794
1.98167	267606
1.98533	394944
1.98900	515147
1.99267	607514
1.99633	657624
2.00000	658695
2.00367	613260
2.00733	533173
2.01100	435704
2.01467	337785
2.01833	251263
2.02200	181516
2.02567	128856
2.02933	90858
2.03300	64251
2.03667	45958
2.04033	33492
2.04400	25006
2.04767	19193
2.05133	15166
2.05500	12325
2.05867	10280
2.06233	8771
2.06600	7629
2.06967	6744
2.07333	6039
2.07700	5465
2.08067	4991
2.08433	4589
2.08800	4245
2.09167	3951
2.09533	3694
2.09900	3464
2.10267	3256
2.10633	3067
2.11000	2895
2.11367	2739
2.11733	2599
2.12100	2472
2.12467	2359
2.12833	2259
2.13200	2167
2.13567	2078
2.13933	1993
2.14300	1915
2.14667	1843
2.15033	1777
2.15400	1716
2.15767	1658
2.16133	1603
2.16500	1549
2.16867	1495
2.17233	1449
2.17600	1409
2.17967	1370
2.18333	1330
2.18700	1291
2.19067	1250
2.19433	1206
2.19800	1166
2.20167	1131
2.20533	1102
2.20900	1078
2.21267	1054
2.21633	1030
2.22000	1004
2.22367	976
2.22733	946
2.23100	919
2.23467	892
2.23833	869
2.24200	851
2.24567	835
2.24933	823
2.25300	810
2.25667	793
2.26033	776
2.26400	760
2.26767	742
2.27133	725
2.27500	710
2.27867	698
2.28233	684
2.28600	670
2.28967	658
2.29333	643
2.29700	630
2.30067	621
2.30433	616
2.30800	612
2.31167	608
2.31533	601
2.31900	591
2.32267	578
2.32633	566
2.33000	555
2.33367	545
2.33733	536
2.34100	532
2.34467	530
2.34833	526
2.35200	525
2.35567	524
2.35933	519
2.36300	513
2.36667	502
2.37033	487
2.37400	472
2.37767	458
2.38133	446
2.38500	441
2.38867	442
2.39233	442
2.39600	439
2.39967	433
2.40333	426
2.40700	419
2.41067	412
2.41433	408
2.41800	405
2.42167	403
2.42533	401
2.42900	397
2.43267	393
2.43633	389
2.44000	388
2.44367	388
2.44733	388
2.45100	388
2.45467	386
2.45833	386
2.46200	389
2.46567	392
2.46933	391
2.47300	385
2.47667	377
2.48033	369
2.48400	362
2.48767	359
2.49133	356
2.49500	350
2.49867	343
2.50233	337
2.50600	331
2.50967	325
2.51333	320
2.51700	315
2.52067	312
2.52433	312
2.52800	314
2.53167	318
2.53533	321
2.53900	326
2.54267	330
2.54633	333
2.55000	332
2.55367	325
2.55733	317
2.56100	311
2.56467	306
2.56833	298
2.57200	292
2.57567	289
2.57933	287
2.58300	287
2.58667	290
2.59033	296
2.59400	302
2.59767	308
2.60133	309
2.60500	307
2.60867	303
2.61233	298
2.61600	291
2.61967	283
2.62333	280
2.62700	278
2.63067	276
2.63433	277
2.63800	277
2.64167	277
2.64533	272
2.64900	264
2.65267	258
2.65633	256
2.66000	256
2.66367	258
2.66733	260
2.67100	264
2.67467	271
2.67833	282
2.68200	291
2.68567	298
2.68933	303
2.69300	301
2.69667	297
2.70033	293
2.70400	287
2.70767	278
2.71133	269
2.71500	259
2.71867	252
2.72233	251
2.72600	254
2.72967	257
2.73333	258
2.73700	261
2.74067	268
2.74433	273
2.74800	276
2.75167	277
2.75533	275
2.75900	271
2.76267	263
2.76633	256
2.77000	253
2.77367	250
2.77733	250
2.78100	251
2.78467	254
2.78833	255
2.79200	254
2.79567	253
2.79933	254
2.80300	255
2.80667	256
2.81033	257
2.81400	260
2.81767	263
2.82133	267
2.82500	272
2.82867	275
2.83233	273
2.83600	269
2.83967	264
2.84333	260
2.84700	264
2.85067	273
2.85433	282
2.85800	287
2.86167	289
2.86533	288
2.86900	287
2.87267	285
2.87633	278
2.88000	269
2.88367	264
2.88733	261
2.89100	260
2.89467	260
2.89833	260
2.90200	258
2.90567	256
2.90933	255
2.91300	251
2.91667	247
2.92033	246
2.92400	248
2.92767	251
2.93133	253
2.93500	255
2.93867	258
2.94233	263
2.94600	265
2.94967	266
2.95333	266
2.95700	267
2.96067	265
2.96433	262
2.96800	261
2.97167	263
2.97533	265
2.97900	267
2.98267	270
2.98633	274
2.99000	277
2.99367	279
2.99733	281
3.00100	284
3.00467	288
3.00833	292
3.01200	291
3.01567	287
3.01933	280
3.02300	272
3.02667	267
3.03033	263
3.03400	264
3.03767	266
3.04133	270
3.04500	270
3.04867	266
3.05233	262
3.05600	259
3.05967	256
3.06333	251
3.06700	244
3.07067	237
3.07433	230
3.07800	229
3.08167	230
3.08533	232
3.08900	234
3.09267	234
3.09633	235
3.10000	238
3.10367	242
3.10733	247
3.11100	248
3.11467	247
3.11833	249
3.12200	252
3.12567	254
3.12933	255
3.13300	257
3.13667	256
3.14033	253
3.14400	254
3.14767	258
3.15133	261
3.15500	263
3.15867	260
3.16233	254
3.16600	246
3.16967	239
3.17333	234
3.17700	231
3.18067	228
3.18433	227
3.18800	231
3.19167	237
3.19533	238
3.19900	239
3.20267	239
3.20633	240
3.21000	239
3.21367	235
3.21733	233
3.22100	233
3.22467	235
3.22833	238
3.23200	242
3.23567	241
3.23933	236
3.24300	231
3.24667	224
3.25033	218
3.25400	214
3.25767	215
3.26133	219
3.26500	225
3.26867	230
3.27233	231
3.27600	227
3.27967	222
3.28333	220
3.28700	218
3.29067	219
3.29433	224
3.29800	229
3.30167	229
3.30533	223
3.30900	216
3.31267	214
3.31633	213
3.32000	213
3.32367	211
3.32733	206
3.33100	203
3.33467	202
3.33833	200
3.34200	199
3.34567	201
3.34933	204
3.35300	210
3.35667	219
3.36033	226
3.36400	226
3.36767	221
3.37133	215
3.37500	211
3.37867	206
3.38233	204
3.38600	204
3.38967	204
3.39333	204
3.39700	204
3.40067	202
3.40433	199
3.40800	193
3.41167	187
3.41533	183
3.41900	180
3.42267	179
3.42633	180
3.43000	184
3.43367	190
3.43733	192
3.44100	191
3.44467	192
3.44833	192
3.45200	191
3.45567	190
3.45933	187
3.46300	186
3.46667	188
3.47033	190
3.47400	189
3.47767	185
3.48133	182
3.48500	181
3.48867	181
3.49233	180
3.49600	179
3.49967	174
3.50333	171
3.50700	171
3.51067	174
3.51433	177
3.51800	180
3.52167	180
3.52533	179
3.52900	179
3.53267	180
3.53633	179
3.54000	178
3.54367	174
3.54733	170
3.55100	167
3.55467	167
3.55833	164
3.56200	160
3.56567	155
3.56933	154
3.57300	159
3.57667	169
3.58033	176
3.58400	179
3.58767	179
3.59133	179
3.59500	180
3.59867	179
3.60233	175
3.60600	171
3.60967	172
3.61333	174
3.61700	175
3.62067	173
3.62433	166
3.62800	152
3.63167	135
3.63533	122
3.63900	115
3.64267	115
3.64633	117
3.65000	120
3.65367	121
3.65733	124
3.66100	131
3.66467	134
3.66833	134
3.67200	132
3.67567	131
3.67933	134
3.68300	137
3.68667	140
3.69033	143
3.69400	146
3.69767	147
3.70133	147
3.70500	147
3.70867	143
3.71233	137
3.71600	130
3.71967	125
3.72333	123
3.72700	125
3.73067	131
3.73433	139
3.73800	143
3.74167	146
3.74533	145
3.74900	141
3.75267	136
3.75633	132
3.76000	133
3.76367	135
3.76733	136
3.77100	136
3.77467	136
3.77833	137
3.78200	139
3.78567	139
3.78933	139
3.79300	137
3.79667	132
3.80033	126
3.80400	122
3.80767	122
3.81133	125
3.81500	128
3.81867	126
3.82233	121
3.82600	116
3.82967	114
3.83333	120
3.83700	131
3.84067	142
3.84433	147
3.84800	144
3.85167	138
3.85533	134
3.85900	129
3.86267	125
3.86633	121
3.87000	117
3.87367	119
3.87733	125
3.88100	133
3.88467	138
3.88833	136
3.89200	132
3.89567	130
3.89933	131
3.90300	130
3.90667	127
3.91033	124
3.91400	119
3.91767	115
3.92133	115
3.92500	116
3.92867	117
3.93233	113
3.93600	109
3.93967	103
3.94333	97
3.94700	92
3.95067	90
3.95433	91
3.95800	92
3.96167	96
3.96533	101
3.96900	107
3.97267	112
3.97633	114
3.98000	111
3.98367	106
3.98733	105
3.99100	107
3.99467	110
3.99833	110

[Chromatogram (Ch2)]
Interval(msec)	220
# of Points	1091
Start Time(min)	0.002
End Time(min)	3.998
R.Time (min)	Intensity
0.00167	-0
0.00533	-0
0.00900	-0
0.01267	-0
0.01633	0
0.02000	0
0.02367	1
0.02733	1
0.03100	0
0.03467	0
0.03833	-0
0.04200	-0
0.04567	-0
0.04933	-1
0.05300	-1
0.05667	-1
0.06033	-1
0.06400	-1
0.06767	-1
0.07133	-1
0.07500	-1
0.07867	-2
0.08233	-2
0.08600	-2
0.08967	-2
0.09333	-2
0.09700	-2
0.10067	-2
0.10433	-2
0.10800	-2
0.11167	-1
0.11533	-1
0.11900	-1
0.12267	-1
0.12633	-0
0.13000	-0
0.13367	0
0.13733	0
0.14100	0
0.14467	0
0.14833	-0
0.15200	-0
0.15567	-0
0.15933	-0
0.16300	-0
0.16667	-0
0.17033	-0
0.17400	-0
0.17767	-0
0.18133	-0
0.18500	-0
0.18867	-0
0.19233	0
0.19600	0
0.19967	-0
0.20333	-0
0.20700	-1
0.21067	-1
0.21433	-1
0.21800	-1
0.22167	-2
0.22533	-2
0.22900	-2
0.23267	-2
0.23633	-2
0.24000	-2
0.24367	-2
0.24733	-2
0.25100	-3
0.25467	-3
0.25833	-3
0.26200	-3
0.26567	-3
0.26933	-3
0.27300	-4
0.27667	-4
0.28033	-4
0.28400	-4
0.28767	-4
0.29133	-4
0.29500	-4
0.29867	-4
0.30233	-5
0.30600	-5
0.30967	-5
0.31333	-5
0.31700	-5
0.32067	-5
0.32433	-4
0.32800	-3
0.33167	-3
0.33533	-2
0.33900	-2
0.34267	-2
0.34633	-1
0.35000	-1
0.35367	-1
0.35733	-1
0.36100	-1
0.36467	-1
0.36833	-1
0.37200	-1
0.37567	-0
0.37933	-0
0.38300	0
0.38667	1
0.39033	1
0.39400	1
0.39767	1
0.40133	1
0.40500	1
0.40867	1
0.41233	1
0.41600	1
0.41967	1
0.42333	1
0.42700	0
0.43067	0
0.43433	0
0.43800	-0
0.44167	-0
0.44533	-0
0.44900	-0
0.45267	-0
0.45633	-0
0.46000	-0
0.46367	-0
0.46733	-0
0.47100	-0
0.47467	-0
0.47833	-1
0.48200	-1
0.48567	-1
0.48933	-1
0.49300	-1
0.49667	-1
0.50033	-1
0.50400	-1
0.50767	-1
0.51133	-1
0.51500	-1
0.51867	-2
0.52233	-2
0.52600	-2
0.52967	-2
0.53333	-2
0.53700	-3
0.54067	-3
0.54433	-3
0.54800	-3
0.55167	-3
0.55533	-3
0.55900	-3
0.56267	-3
0.56633	-2
0.57000	-2
0.57367	-2
0.57733	-2
0.58100	-2
0.58467	-2
0.58833	-2
0.59200	-2
0.59567	-2
0.59933	-2
0.60300	-2
0.60667	-2
0.61033	-2
0.61400	-2
0.61767	-2
0.62133	-2
0.62500	-2
0.62867	-2
0.63233	-2
0.63600	-2
0.63967	-2
0.64333	-2
0.64700	-2
0.65067	-2
0.65433	-3
0.65800	-3
0.66167	-3
0.66533	-3
0.66900	-3
0.67267	-3
0.67633	-3
0.68000	-3
0.68367	-3
0.68733	-3
0.69100	-3
0.69467	-3
0.69833	-3
0.70200	-3
0.70567	-3
0.70933	-3
0.71300	-3
0.71667	-3
0.72033	-3
0.72400	-3
0.72767	-3
0.73133	-3
0.73500	-3
0.73867	-3
0.74233	-3
0.74600	-3
0.74967	-3
0.75333	-3
0.75700	-2
0.76067	-2
0.76433	-2
0.76800	-2
0.77167	-2
0.77533	-3
0.77900	-3
0.78267	-2
0.78633	-2
0.79000	-2
0.79367	-2
0.79733	-2
0.80100	-2
0.80467	-2
0.80833	-2
0.81200	-2
0.81567	-2
0.81933	-2
0.82300	-3
0.82667	-3
0.83033	-3
0.83400	-3
0.83767	-3
0.84133	-3
0.84500	-3
0.84867	-3
0.85233	-3
0.85600	-3
0.85967	-3
0.86333	-3
0.86700	-3
0.87067	-2
0.87433	-2
0.87800	-2
0.88167	-2
0.88533	-2
0.88900	-1
0.89267	-1
0.89633	-1
0.90000	-1
0.90367	-1
0.90733	-1
0.91100	-1
0.91467	-1
0.91833	-1
0.92200	-1
0.92567	-1
0.92933	-1
0.93300	-1
0.93667	-2
0.94033	-2
0.94400	-2
0.94767	-2
0.95133	-2
0.95500	-2
0.95867	-2
0.96233	-2
0.96600	-2
0.96967	-2
0.97333	-2
0.97700	-2
0.98067	-2
0.98433	-2
0.98800	-2
0.99167	-2
0.99533	-2
0.99900	-2
1.00267	-2
1.00633	-3
1.01000	-3
1.01367	-3
1.01733	-3
1.02100	-3
1.02467	-3
1.02833	-3
1.03200	-3
1.03567	-3
1.03933	-3
1.04300	-3
1.04667	-3
1.05033	-3
1.05400	-2
1.05767	-2
1.06133	-2
1.06500	-2
1.06867	-2
1.07233	-2
1.07600	-2
1.07967	-2
1.08333	-2
1.08700	-2
1.09067	-2
1.09433	-2
1.09800	-1
1.10167	-1
1.10533	-1
1.10900	-1
1.11267	-1
1.11633	-1
1.12000	-1
1.12367	-1
1.12733	-1
1.13100	-2
1.13467	-2
1.13833	-2
1.14200	-2
1.14567	-2
1.14933	-2
1.15300	-2
1.15667	-2
1.16033	-2
1.16400	-2
1.16767	-2
1.17133	-3
1.17500	-3
1.17867	-3
1.18233	-4
1.18600	-4
1.18967	-4
1.19333	-4
1.19700	-4
1.20067	-4
1.20433	-4
1.20800	-4
1.21167	-4
1.21533	-4
1.21900	-4
1.22267	-5
1.22633	-5
1.23000	-5
1.23367	-4
1.23733	-4
1.24100	-4
1.24467	-4
1.24833	-4
1.25200	-3
1.25567	-3
1.25933	-3
1.26300	-3
1.26667	-3
1.27033	-3
1.27400	-3
1.27767	-3
1.28133	-3
1.28500	-3
1.28867	-3
1.29233	-3
1.29600	-3
1.29967	-3
1.30333	-3
1.30700	-3
1.31067	-3
1.31433	-3
1.31800	-3
1.32167	-3
1.32533	-4
1.32900	-4
1.33267	-4
1.33633	-4
1.34000	-5
1.34367	-5
1.34733	-5
1.35100	-5
1.35467	-5
1.35833	-5
1.36200	-5
1.36567	-5
1.36933	-5
1.37300	-5
1.37667	-5
1.38033	-4
1.38400	-4
1.38767	-4
1.39133	-3
1.39500	-3
1.39867	-3
1.40233	-3
1.40600	-3
1.40967	-3
1.41333	-3
1.41700	-3
1.42067	-3
1.42433	-3
1.42800	-3
1.43167	-3
1.43533	-2
1.43900	-2
1.44267	-2
1.44633	-3
1.45000	-3
1.45367	-3
1.45733	-3
1.46100	-3
1.46467	-3
1.46833	-4
1.47200	-4
1.47567	-4
1.47933	-4
1.48300	-4
1.48667	-4
1.49033	-4
1.49400	-4
1.49767	-4
1.50133	-4
1.50500	-4
1.50867	-4
1.51233	-3
1.51600	-3
1.51967	-3
1.52333	-4
1.52700	-4
1.53067	-4
1.53433	-4
1.53800	-4
1.54167	-4
1.54533	-4
1.54900	-4
1.55267	-4
1.55633	-4
1.56000	-4
1.56367	-4
1.56733	-4
1.57100	-4
1.57467	-4
1.57833	-4
1.58200	-4
1.58567	-4
1.58933	-4
1.59300	-4
1.59667	-5
1.60033	-5
1.60400	-7
1.60767	-8
1.61133	-10
1.61500	-12
1.61867	-15
1.62233	-17
1.62600	-20
1.62967	-23
1.63333	-26
1.63700	-29
1.64067	-33
1.64433	-36
1.64800	-39
1.65167	-43
1.65533	-46
1.65900	-49
1.66267	-53
1.66633	-57
1.67000	-61
1.67367	-65
1.67733	-69
1.68100	-74
1.68467	-79
1.68833	-83
1.69200	-87
1.69567	-91
1.69933	-94
1.70300	-97
1.70667	-99
1.71033	-101
1.71400	-102
1.71767	-103
1.72133	-104
1.72500	-105
1.72867	-106
1.73233	-107
1.73600	-108
1.73967	-108
1.74333	-109
1.74700	-110
1.75067	-110
1.75433	-110
1.75800	-110
1.76167	-110
1.76533	-110
1.76900	-109
1.77267	-109
1.77633	-109
1.78000	-110
1.78367	-110
1.78733	-111
1.79100	-112
1.79467	-113
1.79833	-113
1.80200	-114
1.80567	-115
1.80933	-116
1.81300	-116
1.81667	-117
1.82033	-117
1.82400	-117
1.82767	-117
1.83133	-117
1.83500	-117
1.83867	-116
1.84233	-116
1.84600	-117
1.84967	-117
1.85333	-117
1.85700	-117
1.86067	-117
1.86433	-117
1.86800	-117
1.87167	-116
1.87533	-116
1.87900	-115
1.88267	-115
1.88633	-115
1.89000	-115
1.89367	-115
1.89733	-115
1.90100	-115
1.90467	-115
1.90833	-116
1.91200	-116
1.91567	-116
1.91933	-117
1.92300	-117
1.92667	-117
1.93033	-116
1.93400	-116
1.93767	-116
1.94133	-115
1.94500	-115
1.94867	-114
1.95233	-114
1.95600	-113
1.95967	-113
1.96333	-113
1.96700	-113
1.97067	-113
1.97433	-113
1.97800	-113
1.98167	-112
1.98533	-112
1.98900	-112
1.99267	-111
1.99633	-111
2.00000	-111
2.00367	-110
2.00733	-110
2.01100	-109
2.01467	-109
2.01833	-109
2.02200	-109
2.02567	-109
2.02933	-108
2.03300	-108
2.03667	-108
2.04033	-107
2.04400	-106
2.04767	-106
2.05133	-106
2.05500	-106
2.05867	-106
2.06233	-105
2.06600	-105
2.06967	-105
2.07333	-105
2.07700	-105
2.08067	-105
2.08433	-104
2.08800	-104
2.09167	-103
2.09533	-103
2.09900	-102
2.10267	-102
2.10633	-102
2.11000	-102
2.11367	-101
2.11733	-101
2.12100	-101
2.12467	-100
2.12833	-100
2.13200	-100
2.13567	-99
2.13933	-99
2.14300	-100
2.14667	-100
2.15033	-100
2.15400	-100
2.15767	-100
2.16133	-99
2.16500	-98
2.16867	-97
2.17233	-97
2.17600	-96
2.17967	-96
2.18333	-95
2.18700	-95
2.19067	-95
2.19433	-95
2.19800	-94
2.20167	-94
2.20533	-93
2.20900	-92
2.21267	-92
2.21633	-91
2.22000	-91
2.22367	-90
2.22733	-89
2.23100	-89
2.23467	-89
2.23833	-89
2.24200	-90
2.24567	-91
2.24933	-91
2.25300	-91
2.25667	-91
2.26033	-91
2.26400	-91
2.26767	-91
2.27133	-91
2.27500	-91
2.27867	-91
2.28233	-92
2.28600	-92
2.28967	-91
2.29333	-90
2.29700	-89
2.30067	-88
2.30433	-88
2.30800	-87
2.31167	-86
2.31533	-85
2.31900	-84
2.32267	-84
2.32633	-83
2.33000	-83
2.33367	-83
2.33733	-84
2.34100	-84
2.34467	-84
2.34833	-84
2.35200	-83
2.35567	-82
2.35933	-80
2.36300	-78
2.36667	-76
2.37033	-73
2.37400	-70
2.37767	-67
2.38133	-64
2.38500	-60
2.38867	-56
2.39233	-52
2.39600	-48
2.39967	-44
2.40333	-41
2.40700	-38
2.41067	-35
2.41433	-32
2.41800	-29
2.42167	-26
2.42533	-24
2.42900	-22
2.43267	-20
2.43633	-18
2.44000	-16
2.44367	-15
2.44733	-13
2.45100	-11
2.45467	-9
2.45833	-8
2.46200	-6
2.46567	-5
2.46933	-4
2.47300	-3
2.47667	-2
2.48033	-1
2.48400	-0
2.48767	1
2.49133	2
2.49500	3
2.49867	4
2.50233	5
2.50600	6
2.50967	7
2.51333	8
2.51700	8
2.52067	9
2.52433	10
2.52800	10
2.53167	11
2.53533	11
2.53900	12
2.54267	12
2.54633	12
2.55000	12
2.55367	12
2.55733	13
2.56100	13
2.56467	13
2.56833	13
2.57200	13
2.57567	13
2.57933	13
2.58300	13
2.58667	13
2.59033	13
2.59400	13
2.59767	13
2.60133	14
2.60500	14
2.60867	14
2.61233	14
2.61600	14
2.61967	14
2.62333	15
2.62700	15
2.63067	15
2.63433	16
2.63800	16
2.64167	16
2.64533	17
2.64900	17
2.65267	17
2.65633	17
2.66000	17
2.66367	18
2.66733	18
2.67100	18
2.67467	18
2.67833	18
2.68200	18
2.68567	19
2.68933	19
2.69300	19
2.69667	19
2.70033	20
2.70400	20
2.70767	20
2.71133	21
2.71500	21
2.71867	21
2.72233	21
2.72600	20
2.72967	20
2.73333	20
2.73700	20
2.74067	21
2.74433	21
2.74800	21
2.75167	21
2.75533	21
2.75900	22
2.76267	22
2.76633	23
2.77000	23
2.77367	23
2.77733	24
2.78100	24
2.78467	24
2.78833	24
2.79200	24
2.79567	24
2.79933	24
2.80300	23
2.80667	22
2.81033	22
2.81400	21
2.81767	21
2.82133	20
2.82500	20
2.82867	20
2.83233	20
2.83600	21
2.83967	21
2.84333	21
2.84700	21
2.85067	20
2.85433	18
2.85800	14
2.86167	8
2.86533	-1
2.86900	-13
2.87267	-29
2.87633	-49
2.88000	-73
2.88367	-101
2.88733	-133
2.89100	-168
2.89467	-207
2.89833	-250
2.90200	-295
2.90567	-342
2.90933	-391
2.91300	-441
2.91667	-492
2.92033	-543
2.92400	-595
2.92767	-647
2.93133	-698
2.93500	-748
2.93867	-798
2.94233	-850
2.94600	-906
2.94967	-966
2.95333	-1023
2.95700	-1065
2.96067	-1085
2.96433	-1079
2.96800	-1048
2.97167	-997
2.97533	-931
2.97900	-856
2.98267	-777
2.98633	-698
2.99000	-620
2.99367	-547
2.99733	-479
3.00100	-417
3.00467	-362
3.00833	-312
3.01200	-268
3.01567	-229
3.01933	-196
3.02300	-166
3.02667	-141
3.03033	-119
3.03400	-100
3.03767	-84
3.04133	-70
3.04500	-58
3.04867	-48
3.05233	-39
3.05600	-31
3.05967	-25
3.06333	-19
3.06700	-15
3.07067	-11
3.07433	-7
3.07800	-5
3.08167	-3
3.08533	-1
3.08900	1
3.09267	2
3.09633	4
3.10000	5
3.10367	6
3.10733	7
3.11100	8
3.11467	9
3.11833	10
3.12200	11
3.12567	11
3.12933	12
3.13300	13
3.13667	13
3.14033	13
3.14400	14
3.14767	14
3.15133	14
3.15500	15
3.15867	15
3.16233	15
3.16600	16
3.16967	16
3.17333	16
3.17700	16
3.18067	16
3.18433	16
3.18800	16
3.19167	16
3.19533	16
3.19900	16
3.20267	16
3.20633	16
3.21000	16
3.21367	17
3.21733	17
3.22100	17
3.22467	18
3.22833	18
3.23200	18
3.23567	18
3.23933	18
3.24300	18
3.24667	18
3.25033	18
3.25400	18
3.25767	18
3.26133	18
3.26500	18
3.26867	18
3.27233	19
3.27600	19
3.27967	19
3.28333	19
3.28700	19
3.29067	20
3.29433	20
3.29800	20
3.30167	20
3.30533	20
3.30900	20
3.31267	20
3.31633	20
3.32000	20
3.32367	20
3.32733	20
3.33100	20
3.33467	20
3.33833	20
3.34200	20
3.34567	20
3.34933	20
3.35300	20
3.35667	20
3.36033	20
3.36400	20
3.36767	21
3.37133	21
3.37500	21
3.37867	22
3.38233	22
3.38600	22
3.38967	22
3.39333	22
3.39700	23
3.40067	23
3.40433	23
3.40800	23
3.41167	23
3.41533	23
3.41900	23
3.42267	23
3.42633	24
3.43000	24
3.43367	24
3.43733	24
3.44100	24
3.44467	24
3.44833	24
3.45200	24
3.45567	24
3.45933	24
3.46300	24
3.46667	24
3.47033	24
3.47400	24
3.47767	24
3.48133	24
3.48500	24
3.48867	23
3.49233	23
3.49600	23
3.49967	23
3.50333	23
3.50700	23
3.51067	24
3.51433	24
3.51800	24
3.52167	24
3.52533	24
3.52900	24
3.53267	25
3.53633	25
3.54000	25
3.54367	25
3.54733	25
3.55100	24
3.55467	24
3.55833	24
3.56200	24
3.56567	24
3.56933	25
3.57300	25
3.57667	25
3.58033	25
3.58400	24
3.58767	24
3.59133	25
3.59500	25
3.59867	25
3.60233	25
3.60600	25
3.60967	25
3.61333	25
3.61700	24
3.62067	24
3.62433	24
3.62800	24
3.63167	24
3.63533	24
3.63900	23
3.64267	23
3.64633	23
3.65000	23
3.65367	23
3.65733	22
3.66100	22
3.66467	23
3.66833	23
3.67200	23
3.67567	24
3.67933	24
3.68300	24
3.68667	24
3.69033	24
3.69400	24
3.69767	24
3.70133	24
3.70500	24
3.70867	24
3.71233	24
3.71600	24
3.71967	24
3.72333	24
3.72700	24
3.73067	24
3.73433	23
3.73800	24
3.74167	24
3.74533	23
3.74900	23
3.75267	23
3.75633	23
3.76000	23
3.76367	23
3.76733	23
3.77100	23
3.77467	23
3.77833	24
3.78200	24
3.78567	24
3.78933	24
3.79300	24
3.79667	24
3.80033	24
3.80400	24
3.80767	24
3.81133	24
3.81500	24
3.81867	24
3.82233	24
3.82600	24
3.82967	24
3.83333	24
3.83700	24
3.84067	24
3.84433	24
3.84800	24
3.85167	24
3.85533	24
3.85900	23
3.86267	23
3.86633	23
3.87000	24
3.87367	24
3.87733	24
3.88100	24
3.88467	24
3.88833	23
3.89200	23
3.89567	24
3.89933	24
3.90300	24
3.90667	24
3.91033	24
3.91400	24
3.91767	24
3.92133	24
3.92500	24
3.92867	24
3.93233	24
3.93600	24
3.93967	24
3.94333	24
3.94700	23
3.95067	23
3.95433	23
3.95800	23
3.96167	23
3.96533	23
3.96900	23
3.97267	23
3.97633	23
3.98000	23
3.98367	23
3.98733	23
3.99100	23
3.99467	23
3.99833	23

[Chromatogram (Ch3)]
Interval(msec)	220
# of Points	1091
Start Time(min)	0.002
End Time(min)	3.998
R.Time (min)	Intensity
0.00167	0
0.00533	0
0.00900	0
0.01267	2
0.01633	3
0.02000	1
0.02367	-0
0.02733	1
0.03100	0
0.03467	2
0.03833	3
0.04200	1
0.04567	-1
0.04933	-1
0.05300	0
0.05667	0
0.06033	1
0.06400	4
0.06767	4
0.07133	6
0.07500	8
0.07867	9
0.08233	12
0.08600	13
0.08967	11
0.09333	8
0.09700	4
0.10067	3
0.10433	3
0.10800	6
0.11167	7
0.11533	6
0.11900	5
0.12267	8
0.12633	12
0.13000	10
0.13367	7
0.13733	3
0.14100	2
0.14467	2
0.14833	4
0.15200	10
0.15567	12
0.15933	11
0.16300	8
0.16667	7
0.17033	8
0.17400	9
0.17767	11
0.18133	9
0.18500	6
0.18867	5
0.19233	6
0.19600	7
0.19967	5
0.20333	6
0.20700	7
0.21067	7
0.21433	8
0.21800	6
0.22167	4
0.22533	1
0.22900	1
0.23267	2
0.23633	2
0.24000	4
0.24367	4
0.24733	3
0.25100	4
0.25467	7
0.25833	9
0.26200	8
0.26567	8
0.26933	9
0.27300	9
0.27667	10
0.28033	8
0.28400	7
0.28767	10
0.29133	13
0.29500	12
0.29867	12
0.30233	12
0.30600	11
0.30967	9
0.31333	7
0.31700	4
0.32067	4
0.32433	6
0.32800	4
0.33167	2
0.33533	4
0.33900	9
0.34267	12
0.34633	14
0.35000	15
0.35367	15
0.35733	14
0.36100	13
0.36467	14
0.36833	14
0.37200	12
0.37567	10
0.37933	7
0.38300	3
0.38667	1
0.39033	0
0.39400	1
0.39767	5
0.40133	10
0.40500	13
0.40867	14
0.41233	16
0.41600	17
0.41967	16
0.42333	14
0.42700	12
0.43067	10
0.43433	10
0.43800	11
0.44167	13
0.44533	12
0.44900	14
0.45267	16
0.45633	18
0.46000	18
0.46367	16
0.46733	13
0.47100	12
0.47467	10
0.47833	10
0.48200	9
0.48567	10
0.48933	12
0.49300	13
0.49667	12
0.50033	13
0.50400	15
0.50767	15
0.51133	16
0.51500	16
0.51867	17
0.52233	17
0.52600	15
0.52967	11
0.53333	12
0.53700	12
0.54067	13
0.54433	13
0.54800	13
0.55167	12
0.55533	12
0.55900	12
0.56267	13
0.56633	16
0.57000	17
0.57367	19
0.57733	19
0.58100	17
0.58467	18
0.58833	18
0.59200	17
0.59567	14
0.59933	14
0.60300	16
0.60667	17
0.61033	19
0.61400	19
0.61767	19
0.62133	20
0.62500	19
0.62867	18
0.63233	20
0.63600	20
0.63967	19
0.64333	19
0.64700	17
0.65067	16
0.65433	18
0.65800	17
0.66167	18
0.66533	19
0.66900	21
0.67267	22
0.67633	22
0.68000	21
0.68367	19
0.68733	18
0.69100	18
0.69467	18
0.69833	17
0.70200	17
0.70567	17
0.70933	13
0.71300	11
0.71667	13
0.72033	17
0.72400	18
0.72767	19
0.73133	21
0.73500	20
0.73867	17
0.74233	16
0.74600	19
0.74967	22
0.75333	22
0.75700	22
0.76067	22
0.76433	24
0.76800	26
0.77167	27
0.77533	27
0.77900	28
0.78267	27
0.78633	23
0.79000	19
0.79367	18
0.79733	18
0.80100	21
0.80467	21
0.80833	20
0.81200	21
0.81567	23
0.81933	23
0.82300	23
0.82667	21
0.83033	19
0.83400	22
0.83767	19
0.84133	18
0.84500	19
0.84867	21
0.85233	25
0.85600	28
0.85967	29
0.86333	30
0.86700	27
0.87067	25
0.87433	24
0.87800	23
0.88167	23
0.88533	24
0.88900	24
0.89267	23
0.89633	24
0.90000	25
0.90367	26
0.90733	27
0.91100	27
0.91467	28
0.91833	26
0.92200	25
0.92567	25
0.92933	24
0.93300	23
0.93667	23
0.94033	22
0.94400	24
0.94767	27
0.95133	29
0.95500	30
0.95867	29
0.96233	28
0.96600	25
0.96967	23
0.97333	23
0.97700	27
0.98067	28
0.98433	27
0.98800	24
0.99167	23
0.99533	24
0.99900	25
1.00267	25
1.00633	26
1.01000	26
1.01367	26
1.01733	26
1.02100	26
1.02467	26
1.02833	28
1.03200	29
1.03567	28
1.03933	26
1.04300	25
1.04667	23
1.05033	25
1.05400	24
1.05767	25
1.06133	24
1.06500	22
1.06867	21
1.07233	24
1.07600	25
1.07967	26
1.08333	25
1.08700	24
1.09067	22
1.09433	21
1.09800	21
1.10167	24
1.10533	26
1.10900	27
1.11267	25
1.11633	26
1.12000	26
1.12367	28
1.12733	29
1.13100	29
1.13467	30
1.13833	28
1.14200	28
1.14567	27
1.14933	27
1.15300	29
1.15667	28
1.16033	28
1.16400	29
1.16767	28
1.17133	29
1.17500	30
1.17867	29
1.18233	26
1.18600	24
1.18967	25
1.19333	27
1.19700	30
1.20067	32
1.20433	33
1.20800	33
1.21167	32
1.21533	34
1.21900	34
1.22267	34
1.22633	33
1.23000	33
1.23367	32
1.23733	29
1.24100	28
1.24467	28
1.24833	29
1.25200	30
1.25567	31
1.25933	32
1.26300	30
1.26667	29
1.27033	29
1.27400	30
1.27767	29
1.28133	29
1.28500	29
1.28867	30
1.29233	28
1.29600	25
1.29967	26
1.30333	27
1.30700	27
1.31067	26
1.31433	24
1.31800	22
1.32167	22
1.32533	25
1.32900	28
1.33267	29
1.33633	27
1.34000	27
1.34367	28
1.34733	26
1.35100	26
1.35467	27
1.35833	27
1.36200	27
1.36567	28
1.36933	29
1.37300	27
1.37667	24
1.38033	22
1.38400	20
1.38767	19
1.39133	20
1.39500	20
1.39867	22
1.40233	24
1.40600	25
1.40967	24
1.41333	26
1.41700	27
1.42067	26
1.42433	27
1.42800	28
1.43167	28
1.43533	29
1.43900	28
1.44267	29
1.44633	28
1.45000	26
1.45367	25
1.45733	27
1.46100	28
1.46467	28
1.46833	26
1.47200	28
1.47567	28
1.47933	29
1.48300	29
1.48667	30
1.49033	33
1.49400	35
1.49767	33
1.50133	28
1.50500	28
1.50867	27
1.51233	26
1.51600	25
1.51967	24
1.52333	22
1.52700	20
1.53067	20
1.53433	21
1.53800	23
1.54167	24
1.54533	25
1.54900	28
1.55267	29
1.55633	29
1.56000	27
1.56367	26
1.56733	27
1.57100	28
1.57467	28
1.57833	26
1.58200	25
1.58567	26
1.58933	27
1.59300	28
1.59667	27
1.60033	25
1.60400	24
1.60767	25
1.61133	24
1.61500	26
1.61867	27
1.62233	28
1.62600	28
1.62967	28
1.63333	27
1.63700	26
1.64067	29
1.64433	32
1.64800	33
1.65167	34
1.65533	33
1.65900	32
1.66267	31
1.66633	33
1.67000	34
1.67367	36
1.67733	35
1.68100	33
1.68467	32
1.68833	33
1.69200	35
1.69567	37
1.69933	39
1.70300	40
1.70667	40
1.71033	38
1.71400	37
1.71767	38
1.72133	41
1.72500	42
1.72867	43
1.73233	42
1.73600	45
1.73967	46
1.74333	44
1.74700	43
1.75067	42
1.75433	42
1.75800	43
1.76167	45
1.76533	48
1.76900	48
1.77267	48
1.77633	48
1.78000	48
1.78367	49
1.78733	48
1.79100	49
1.79467	52
1.79833	52
1.80200	50
1.80567	52
1.80933	54
1.81300	55
1.81667	57
1.82033	60
1.82400	61
1.82767	59
1.83133	56
1.83500	53
1.83867	52
1.84233	51
1.84600	52
1.84967	53
1.85333	54
1.85700	58
1.86067	62
1.86433	62
1.86800	61
1.87167	60
1.87533	60
1.87900	59
1.88267	59
1.88633	59
1.89000	60
1.89367	59
1.89733	61
1.90100	62
1.90467	65
1.90833	65
1.91200	64
1.91567	64
1.91933	63
1.92300	63
1.92667	65
1.93033	66
1.93400	67
1.93767	67
1.94133	66
1.94500	67
1.94867	69
1.95233	71
1.95600	74
1.95967	76
1.96333	77
1.96700	76
1.97067	75
1.97433	76
1.97800	76
1.98167	78
1.98533	82
1.98900	81
1.99267	77
1.99633	78
2.00000	80
2.00367	82
2.00733	84
2.01100	86
2.01467	88
2.01833	89
2.02200	91
2.02567	94
2.02933	97
2.03300	97
2.03667	98
2.04033	97
2.04400	95
2.04767	95
2.05133	98
2.05500	100
2.05867	102
2.06233	103
2.06600	103
2.06967	102
2.07333	103
2.07700	103
2.08067	103
2.08433	105
2.08800	109
2.09167	113
2.09533	112
2.09900	113
2.10267	115
2.10633	116
2.11000	118
2.11367	119
2.11733	120
2.12100	121
2.12467	121
2.12833	120
2.13200	121
2.13567	121
2.13933	119
2.14300	121
2.14667	124
2.15033	127
2.15400	128
2.15767	127
2.16133	126
2.16500	127
2.16867	128
2.17233	128
2.17600	129
2.17967	130
2.18333	131
2.18700	131
2.19067	133
2.19433	135
2.19800	138
2.20167	140
2.20533	142
2.20900	142
2.21267	143
2.21633	145
2.22000	145
2.22367	143
2.22733	143
2.23100	143
2.23467	142
2.23833	143
2.24200	146
2.24567	148
2.24933	152
2.25300	155
2.25667	157
2.26033	158
2.26400	160
2.26767	162
2.27133	165
2.27500	167
2.27867	168
2.28233	168
2.28600	167
2.28967	168
2.29333	171
2.29700	172
2.30067	173
2.30433	172
2.30800	173
2.31167	175
2.31533	176
2.31900	175
2.32267	178
2.32633	181
2.33000	184
2.33367	185
2.33733	184
2.34100	182
2.34467	179
2.34833	176
2.35200	178
2.35567	184
2.35933	189
2.36300	189
2.36667	190
2.37033	189
2.37400	192
2.37767	196
2.38133	196
2.38500	196
2.38867	195
2.39233	194
2.39600	194
2.39967	194
2.40333	192
2.40700	190
2.41067	191
2.41433	192
2.41800	192
2.42167	194
2.42533	197
2.42900	197
2.43267	198
2.43633	200
2.44000	204
2.44367	237
2.44733	309
2.45100	382
2.45467	438
2.45833	456
2.46200	450
2.46567	438
2.46933	428
2.47300	417
2.47667	398
2.48033	373
2.48400	346
2.48767	318
2.49133	295
2.49500	278
2.49867	265
2.50233	257
2.50600	258
2.50967	263
2.51333	269
2.51700	272
2.52067	275
2.52433	274
2.52800	269
2.53167	257
2.53533	243
2.53900	227
2.54267	212
2.54633	200
2.55000	188
2.55367	180
2.55733	175
2.56100	174
2.56467	172
2.56833	171
2.57200	169
2.57567	164
2.57933	160
2.58300	160
2.58667	160
2.59033	160
2.59400	161
2.59767	162
2.60133	162
2.60500	162
2.60867	160
2.61233	150
2.61600	130
2.61967	103
2.62333	77
2.62700	63
2.63067	69
2.63433	93
2.63800	125
2.64167	157
2.64533	184
2.64900	213
2.65267	242
2.65633	272
2.66000	305
2.66367	341
2.66733	375
2.67100	405
2.67467	431
2.67833	456
2.68200	479
2.68567	500
2.68933	522
2.69300	543
2.69667	559
2.70033	576
2.70400	592
2.70767	609
2.71133	625
2.71500	637
2.71867	648
2.72233	658
2.72600	668
2.72967	678
2.73333	688
2.73700	698
2.74067	708
2.74433	715
2.74800	720
2.75167	724
2.75533	728
2.75900	731
2.76267	734
2.76633	737
2.77000	739
2.77367	740
2.77733	741
2.78100	740
2.78467	739
2.78833	737
2.79200	734
2.79567	727
2.79933	723
2.80300	720
2.80667	715
2.81033	709
2.81400	702
2.81767	694
2.82133	687
2.82500	681
2.82867	679
2.83233	690
2.83600	726
2.83967	810
2.84333	965
2.84700	1209
2.85067	1557
2.85433	2018
2.85800	2572
2.86167	3184
2.86533	3807
2.86900	4388
2.87267	4876
2.87633	5234
2.88000	5444
2.88367	5501
2.88733	5416
2.89100	5217
2.89467	4937
2.89833	4605
2.90200	4246
2.90567	3878
2.90933	3518
2.91300	3182
2.91667	2869
2.92033	2580
2.92400	2321
2.92767	2092
2.93133	1889
2.93500	1709
2.93867	1553
2.94233	1416
2.94600	1294
2.94967	1191
2.95333	1107
2.95700	1031
2.96067	964
2.96433	904
2.96800	852
2.97167	808
2.97533	772
2.97900	743
2.98267	720
2.98633	702
2.99000	683
2.99367	668
2.99733	653
3.00100	635
3.00467	623
3.00833	613
3.01200	604
3.01567	600
3.01933	594
3.02300	590
3.02667	586
3.03033	581
3.03400	582
3.03767	581
3.04133	580
3.04500	578
3.04867	577
3.05233	575
3.05600	573
3.05967	572
3.06333	571
3.06700	570
3.07067	569
3.07433	569
3.07800	570
3.08167	569
3.08533	567
3.08900	566
3.09267	566
3.09633	568
3.10000	569
3.10367	570
3.10733	570
3.11100	569
3.11467	569
3.11833	567
3.12200	564
3.12567	562
3.12933	562
3.13300	565
3.13667	565
3.14033	563
3.14400	559
3.14767	554
3.15133	551
3.15500	547
3.15867	544
3.16233	544
3.16600	545
3.16967	543
3.17333	540
3.17700	539
3.18067	538
3.18433	536
3.18800	533
3.19167	531
3.19533	532
3.19900	533
3.20267	534
3.20633	534
3.21000	536
3.21367	537
3.21733	538
3.22100	539
3.22467	537
3.22833	534
3.23200	533
3.23567	531
3.23933	529
3.24300	528
3.24667	528
3.25033	530
3.25400	530
3.25767	527
3.26133	524
3.26500	523
3.26867	522
3.27233	522
3.27600	519
3.27967	513
3.28333	509
3.28700	506
3.29067	506
3.29433	507
3.29800	505
3.30167	505
3.30533	503
3.30900	500
3.31267	499
3.31633	496
3.32000	496
3.32367	496
3.32733	496
3.33100	495
3.33467	493
3.33833	492
3.34200	492
3.34567	491
3.34933	489
3.35300	485
3.35667	483
3.36033	480
3.36400	478
3.36767	479
3.37133	478
3.37500	478
3.37867	478
3.38233	478
3.38600	478
3.38967	476
3.39333	476
3.39700	473
3.40067	467
3.40433	462
3.40800	459
3.41167	456
3.41533	452
3.41900	451
3.42267	450
3.42633	451
3.43000	451
3.43367	449
3.43733	449
3.44100	450
3.44467	450
3.44833	447
3.45200	446
3.45567	446
3.45933	446
3.46300	447
3.46667	445
3.47033	442
3.47400	439
3.47767	439
3.48133	437
3.48500	435
3.48867	432
3.49233	431
3.49600	430
3.49967	428
3.50333	426
3.50700	426
3.51067	427
3.51433	427
3.51800	424
3.52167	422
3.52533	419
3.52900	416
3.53267	414
3.53633	412
3.54000	411
3.54367	410
3.54733	411
3.55100	411
3.55467	411
3.55833	409
3.56200	410
3.56567	410
3.56933	410
3.57300	409
3.57667	406
3.58033	403
3.58400	403
3.58767	405
3.59133	403
3.59500	401
3.59867	398
3.60233	392
3.60600	386
3.60967	384
3.61333	387
3.61700	388
3.62067	389
3.62433	389
3.62800	386
3.63167	384
3.63533	384
3.63900	383
3.64267	382
3.64633	381
3.65000	379
3.65367	378
3.65733	380
3.66100	381
3.66467	380
3.66833	380
3.67200	382
3.67567	384
3.67933	386
3.68300	383
3.68667	379
3.69033	376
3.69400	373
3.69767	370
3.70133	368
3.70500	367
3.70867	366
3.71233	366
3.71600	366
3.71967	369
3.72333	371
3.72700	370
3.73067	366
3.73433	365
3.73800	366
3.74167	366
3.74533	364
3.74900	361
3.75267	359
3.75633	355
3.76000	351
3.76367	347
3.76733	342
3.77100	341
3.77467	343
3.77833	342
3.78200	340
3.78567	341
3.78933	341
3.79300	339
3.79667	338
3.80033	337
3.80400	338
3.80767	340
3.81133	341
3.81500	342
3.81867	342
3.82233	340
3.82600	338
3.82967	335
3.83333	335
3.83700	335
3.84067	335
3.84433	337
3.84800	336
3.85167	333
3.85533	331
3.85900	330
3.86267	331
3.86633	331
3.87000	331
3.87367	332
3.87733	332
3.88100	331
3.88467	330
3.88833	328
3.89200	327
3.89567	328
3.89933	329
3.90300	328
3.90667	326
3.91033	326
3.91400	325
3.91767	325
3.92133	323
3.92500	322
3.92867	325
3.93233	323
3.93600	320
3.93967	320
3.94333	320
3.94700	320
3.95067	322
3.95433	323
3.95800	322
3.96167	321
3.96533	320
3.96900	318
3.97267	316
3.97633	314
3.98000	311
3.98367	310
3.98733	311
3.99100	313
3.99467	312
3.99833	307

[Status Trace (Column Oven Temperature)]
Interval(msec)	1000
# of Points	240
Start Time(min)	0.002
End Time(min)	3.986
Intensity Units	
Intensity Multiplier	1
R.Time (min)	Intensity
0.00248	35.01
0.01915	35.01
0.03582	35.02
0.05248	35.02
0.06915	35.02
0.08582	35.02
0.10248	35.02
0.11915	35.01
0.13582	35.01
0.15248	35.01
0.16915	35.01
0.18582	35.01
0.20248	35.01
0.21915	35.01
0.23582	35.01
0.25248	35.02
0.26915	35.02
0.28582	35.03
0.30248	35.05
0.31915	35.05
0.33582	35.04
0.35248	35.03
0.36915	35.02
0.38582	35.00
0.40248	35.00
0.41915	35.00
0.43582	34.99
0.45248	34.99
0.46915	34.99
0.48582	34.99
0.50248	35.00
0.51915	35.01
0.53582	35.01
0.55248	35.00
0.56915	34.99
0.58582	34.99
0.60248	34.99
0.61915	34.98
0.63582	34.99
0.65248	34.99
0.66915	34.99
0.68582	34.99
0.70248	34.99
0.71915	34.99
0.73582	34.99
0.75248	34.99
0.76915	34.98
0.78582	34.99
0.80248	34.98
0.81915	34.98
0.83582	34.99
0.85248	35.00
0.86915	35.00
0.88582	34.99
0.90248	34.99
0.91915	34.99
0.93582	34.99
0.95248	35.00
0.96915	35.00
0.98582	34.99
1.00248	34.99
1.01915	35.00
1.03582	35.00
1.05248	35.00
1.06915	34.99
1.08582	34.98
1.10248	34.98
1.11915	34.98
1.13582	34.99
1.15248	34.99
1.16915	34.99
1.18582	34.99
1.20248	35.00
1.21915	35.01
1.23582	35.01
1.25248	35.00
1.26915	35.00
1.28582	34.99
1.30248	34.98
1.31915	34.99
1.33582	35.01
1.35248	35.01
1.36915	35.02
1.38582	35.02
1.40248	35.01
1.41915	35.00
1.43582	34.99
1.45248	34.99
1.46915	34.99
1.48582	34.99
1.50248	34.99
1.51915	34.99
1.53582	34.99
1.55248	34.98
1.56915	34.98
1.58582	34.98
1.60248	35.02
1.61915	35.14
1.63582	35.31
1.65248	35.53
1.66915	35.83
1.68582	36.20
1.70248	36.56
1.71915	36.90
1.73582	37.24
1.75248	37.57
1.76915	37.88
1.78582	38.20
1.80248	38.55
1.81915	38.87
1.83582	39.21
1.85248	39.55
1.86915	39.87
1.88582	40.19
1.90248	40.51
1.91915	40.86
1.93582	41.18
1.95248	41.50
1.96915	41.83
1.98582	42.15
2.00248	42.48
2.01915	42.81
2.03582	43.13
2.05248	43.47
2.06915	43.80
2.08582	44.12
2.10248	44.44
2.11915	44.76
2.13582	45.09
2.15248	45.42
2.16915	45.74
2.18582	46.08
2.20248	46.40
2.21915	46.71
2.23582	47.04
2.25248	47.37
2.26915	47.72
2.28582	48.07
2.30248	48.37
2.31915	48.69
2.33582	49.05
2.35248	49.36
2.36915	49.56
2.38582	49.63
2.40248	49.64
2.41915	49.63
2.43582	49.65
2.45248	49.66
2.46915	49.68
2.48582	49.69
2.50248	49.70
2.51915	49.70
2.53582	49.71
2.55248	49.73
2.56915	49.75
2.58582	49.78
2.60248	49.79
2.61915	49.80
2.63582	49.80
2.65248	49.82
2.66915	49.83
2.68582	49.85
2.70248	49.84
2.71915	49.86
2.73582	49.87
2.75248	49.87
2.76915	49.85
2.78582	49.84
2.80248	49.87
2.81915	49.90
2.83582	49.92
2.85248	49.93
2.86915	49.92
2.88582	49.91
2.90248	49.91
2.91915	49.92
2.93582	49.94
2.95248	49.95
2.96915	49.96
2.98582	49.96
3.00248	49.96
3.01915	49.98
3.03582	49.98
3.05248	49.99
3.06915	50.00
3.08582	50.02
3.10248	50.02
3.11915	50.02
3.13582	50.02
3.15248	50.02
3.16915	50.02
3.18582	50.03
3.20248	50.04
3.21915	50.05
3.23582	50.05
3.25248	50.06
3.26915	50.06
3.28582	50.07
3.30248	50.07
3.31915	50.09
3.33582	50.10
3.35248	50.11
3.36915	50.10
3.38582	50.10
3.40248	50.10
3.41915	50.09
3.43582	50.07
3.45248	50.07
3.46915	50.06
3.48582	50.06
3.50248	50.06
3.51915	50.05
3.53582	50.05
3.55248	50.04
3.56915	50.05
3.58582	50.05
3.60248	50.06
3.61915	50.06
3.63582	50.07
3.65248	50.07
3.66915	50.07
3.68582	50.07
3.70248	50.07
3.71915	50.07
3.73582	50.08
3.75248	50.08
3.76915	50.08
3.78582	50.08
3.80248	50.07
3.81915	50.06
3.83582	50.06
3.85248	50.05
3.86915	50.05
3.88582	50.05
3.90248	50.05
3.91915	50.04
3.93582	50.04
3.95248	50.04
3.96915	50.05
3.98582	50.06

[Status Trace (Injection Unit Temperature)]
Interval(msec)	1000
# of Points	240
Start Time(min)	0.002
End Time(min)	3.986
Intensity Units	
Intensity Multiplier	1
R.Time (min)	Intensity
0.00248	99.99
0.01915	99.99
0.03582	99.99
0.05248	99.99
0.06915	99.99
0.08582	99.99
0.10248	99.99
0.11915	99.99
0.13582	99.99
0.15248	99.99
0.16915	99.99
0.18582	99.99
0.20248	99.99
0.21915	99.99
0.23582	99.99
0.25248	99.99
0.26915	99.98
0.28582	99.99
0.30248	99.99
0.31915	99.99
0.33582	99.99
0.35248	99.99
0.36915	99.98
0.38582	99.98
0.40248	99.99
0.41915	99.99
0.43582	99.98
0.45248	99.98
0.46915	99.98
0.48582	99.98
0.50248	99.98
0.51915	99.98
0.53582	99.98
0.55248	99.98
0.56915	99.98
0.58582	99.98
0.60248	99.98
0.61915	99.98
0.63582	99.99
0.65248	99.99
0.66915	99.99
0.68582	99.98
0.70248	99.99
0.71915	99.99
0.73582	99.99
0.75248	99.99
0.76915	99.99
0.78582	99.98
0.80248	99.99
0.81915	99.99
0.83582	99.99
0.85248	99.99
0.86915	99.99
0.88582	99.99
0.90248	99.98
0.91915	99.99
0.93582	99.99
0.95248	99.99
0.96915	99.99
0.98582	99.99
1.00248	99.99
1.01915	99.99
1.03582	99.99
1.05248	99.99
1.06915	99.99
1.08582	99.99
1.10248	99.99
1.11915	99.99
1.13582	99.99
1.15248	99.99
1.16915	99.99
1.18582	99.99
1.20248	99.99
1.21915	99.99
1.23582	99.99
1.25248	99.99
1.26915	99.99
1.28582	99.99
1.30248	99.99
1.31915	99.99
1.33582	99.99
1.35248	99.98
1.36915	99.98
1.38582	99.99
1.40248	99.99
1.41915	99.99
1.43582	99.98
1.45248	99.98
1.46915	99.98
1.48582	99.98
1.50248	99.99
1.51915	99.98
1.53582	99.99
1.55248	99.99
1.56915	99.99
1.58582	99.99
1.60248	99.98
1.61915	99.99
1.63582	99.99
1.65248	99.99
1.66915	99.98
1.68582	99.99
1.70248	99.99
1.71915	99.99
1.73582	99.98
1.75248	99.98
1.76915	99.99
1.78582	99.98
1.80248	99.98
1.81915	99.98
1.83582	99.98
1.85248	99.98
1.86915	99.98
1.88582	99.98
1.90248	99.98
1.91915	99.98
1.93582	99.98
1.95248	99.98
1.96915	99.98
1.98582	99.98
2.00248	99.98
2.01915	99.98
2.03582	99.98
2.05248	99.97
2.06915	99.98
2.08582	99.98
2.10248	99.98
2.11915	99.98
2.13582	99.98
2.15248	99.98
2.16915	99.98
2.18582	99.98
2.20248	99.97
2.21915	99.98
2.23582	99.98
2.25248	99.97
2.26915	99.98
2.28582	99.98
2.30248	99.97
2.31915	99.97
2.33582	99.98
2.35248	99.97
2.36915	99.98
2.38582	99.98
2.40248	99.97
2.41915	99.98
2.43582	99.97
2.45248	99.97
2.46915	99.97
2.48582	99.98
2.50248	99.98
2.51915	99.97
2.53582	99.98
2.55248	99.98
2.56915	99.98
2.58582	99.98
2.60248	99.98
2.61915	99.98
2.63582	99.98
2.65248	99.98
2.66915	99.99
2.68582	99.99
2.70248	99.99
2.71915	99.99
2.73582	99.99
2.75248	99.99
2.76915	99.99
2.78582	99.99
2.80248	99.99
2.81915	100.00
2.83582	100.00
2.85248	100.00
2.86915	100.00
2.88582	100.00
2.90248	100.00
2.91915	100.00
2.93582	100.00
2.95248	100.01
2.96915	100.00
2.98582	100.01
3.00248	100.01
3.01915	100.01
3.03582	100.01
3.05248	100.01
3.06915	100.01
3.08582	100.01
3.10248	100.01
3.11915	100.01
3.13582	100.01
3.15248	100.02
3.16915	100.02
3.18582	100.02
3.20248	100.02
3.21915	100.02
3.23582	100.02
3.25248	100.02
3.26915	100.02
3.28582	100.03
3.30248	100.03
3.31915	100.03
3.33582	100.03
3.35248	100.03
3.36915	100.03
3.38582	100.03
3.40248	100.03
3.41915	100.03
3.43582	100.03
3.45248	100.03
3.46915	100.04
3.48582	100.04
3.50248	100.04
3.51915	100.04
3.53582	100.04
3.55248	100.04
3.56915	100.04
3.58582	100.04
3.60248	100.04
3.61915	100.04
3.63582	100.04
3.65248	100.04
3.66915	100.04
3.68582	100.04
3.70248	100.04
3.71915	100.04
3.73582	100.05
3.75248	100.05
3.76915	100.05
3.78582	100.05
3.80248	100.05
3.81915	100.05
3.83582	100.05
3.85248	100.05
3.86915	100.05
3.88582	100.05
3.90248	100.05
3.91915	100.05
3.93582	100.05
3.95248	100.05
3.96915	100.05
3.98582	100.05

[Status Trace (Carrier Gas Pressure)]
Interval(msec)	1000
# of Points	240
Start Time(min)	0.002
End Time(min)	3.986
Intensity Units	
Intensity Multiplier	1
R.Time (min)	Intensity
0.00248	58.00
0.01915	56.27
0.03582	56.38
0.05248	58.44
0.06915	59.84
0.08582	58.24
0.10248	57.97
0.11915	58.01
0.13582	58.01
0.15248	58.01
0.16915	58.00
0.18582	58.00
0.20248	58.00
0.21915	58.00
0.23582	58.00
0.25248	58.00
0.26915	58.00
0.28582	58.00
0.30248	58.00
0.31915	58.00
0.33582	58.00
0.35248	58.00
0.36915	58.00
0.38582	58.00
0.40248	58.00
0.41915	58.00
0.43582	58.00
0.45248	58.00
0.46915	58.00
0.48582	58.00
0.50248	58.00
0.51915	58.00
0.53582	58.00
0.55248	58.00
0.56915	58.00
0.58582	58.00
0.60248	58.00
0.61915	58.00
0.63582	58.00
0.65248	58.00
0.66915	58.00
0.68582	58.00
0.70248	58.00
0.71915	58.00
0.73582	58.00
0.75248	58.00
0.76915	58.00
0.78582	58.00
0.80248	58.00
0.81915	58.00
0.83582	58.00
0.85248	58.00
0.86915	58.00
0.88582	58.00
0.90248	58.00
0.91915	58.00
0.93582	58.00
0.95248	58.00
0.96915	58.00
0.98582	58.00
1.00248	58.00
1.01915	58.00
1.03582	58.00
1.05248	58.00
1.06915	58.00
1.08582	58.00
1.10248	58.00
1.11915	58.00
1.13582	58.00
1.15248	58.00
1.16915	58.00
1.18582	58.00
1.20248	58.00
1.21915	58.00
1.23582	58.00
1.25248	58.00
1.26915	58.00
1.28582	58.00
1.30248	58.00
1.31915	58.00
1.33582	58.00
1.35248	58.00
1.36915	58.00
1.38582	58.00
1.40248	58.00
1.41915	58.00
1.43582	58.00
1.45248	58.00
1.46915	58.00
1.48582	58.00
1.50248	58.00
1.51915	58.00
1.53582	58.00
1.55248	58.00
1.56915	58.00
1.58582	58.00
1.60248	58.00
1.61915	58.00
1.63582	58.00
1.65248	58.00
1.66915	58.01
1.68582	58.01
1.70248	58.00
1.71915	58.00
1.73582	58.00
1.75248	58.00
1.76915	58.00
1.78582	58.00
1.80248	58.00
1.81915	58.00
1.83582	58.00
1.85248	58.00
1.86915	58.00
1.88582	58.00
1.90248	58.00
1.91915	58.00
1.93582	58.00
1.95248	58.00
1.96915	58.00
1.98582	58.00
2.00248	58.00
2.01915	58.00
2.03582	58.00
2.05248	58.00
2.06915	58.00
2.08582	58.00
2.10248	58.00
2.11915	58.00
2.13582	58.00
2.15248	58.00
2.16915	58.00
2.18582	58.00
2.20248	58.00
2.21915	58.00
2.23582	58.00
2.25248	58.00
2.26915	58.00
2.28582	58.00
2.30248	58.00
2.31915	58.00
2.33582	58.00
2.35248	58.00
2.36915	58.00
2.38582	57.99
2.40248	57.99
2.41915	58.00
2.43582	58.00
2.45248	58.00
2.46915	58.00
2.48582	58.00
2.50248	57.99
2.51915	58.03
2.53582	57.99
2.55248	58.00
2.56915	58.00
2.58582	58.00
2.60248	58.00
2.61915	58.00
2.63582	58.00
2.65248	58.00
2.66915	58.00
2.68582	58.00
2.70248	58.00
2.71915	58.00
2.73582	58.00
2.75248	58.00
2.76915	58.00
2.78582	58.00
2.80248	58.00
2.81915	58.00
2.83582	58.00
2.85248	58.00
2.86915	58.00
2.88582	58.00
2.90248	58.00
2.91915	58.00
2.93582	58.00
2.95248	58.00
2.96915	58.00
2.98582	58.00
3.00248	58.00
3.01915	58.00
3.03582	58.00
3.05248	58.00
3.06915	58.00
3.08582	58.00
3.10248	58.00
3.11915	58.00
3.13582	58.00
3.15248	58.00
3.16915	58.00
3.18582	58.00
3.20248	58.00
3.21915	58.00
3.23582	58.00
3.25248	58.00
3.26915	58.00
3.28582	58.00
3.30248	58.00
3.31915	58.00
3.33582	58.00
3.35248	58.00
3.36915	58.00
3.38582	58.00
3.40248	58.00
3.41915	58.00
3.43582	58.00
3.45248	58.00
3.46915	58.00
3.48582	58.00
3.50248	58.00
3.51915	58.00
3.53582	58.00
3.55248	58.00
3.56915	58.00
3.58582	58.00
3.60248	58.00
3.61915	58.00
3.63582	58.00
3.65248	58.00
3.66915	58.00
3.68582	58.00
3.70248	58.00
3.71915	58.00
3.73582	58.00
3.75248	58.00
3.76915	58.00
3.78582	58.00
3.80248	58.00
3.81915	58.00
3.83582	58.00
3.85248	58.00
3.86915	58.00
3.88582	58.00
3.90248	58.00
3.91915	58.00
3.93582	58.00
3.95248	58.00
3.96915	58.00
3.98582	58.00

[Status Trace (Carrier Gas Flow)]
Interval(msec)	1000
# of Points	240
Start Time(min)	0.002
End Time(min)	3.986
Intensity Units	
Intensity Multiplier	1
R.Time (min)	Intensity
0.00248	34.52
0.01915	34.57
0.03582	34.54
0.05248	34.55
0.06915	34.49
0.08582	34.52
0.10248	34.52
0.11915	34.52
0.13582	34.52
0.15248	34.52
0.16915	34.52
0.18582	34.52
0.20248	34.52
0.21915	34.52
0.23582	34.52
0.25248	34.52
0.26915	34.52
0.28582	34.52
0.30248	34.52
0.31915	34.52
0.33582	34.52
0.35248	34.52
0.36915	34.52
0.38582	34.52
0.40248	34.52
0.41915	34.52
0.43582	34.52
0.45248	34.52
0.46915	34.52
0.48582	34.52
0.50248	34.52
0.51915	34.52
0.53582	34.52
0.55248	34.52
0.56915	34.52
0.58582	34.52
0.60248	34.52
0.61915	34.52
0.63582	34.52
0.65248	34.52
0.66915	34.52
0.68582	34.52
0.70248	34.52
0.71915	34.52
0.73582	34.52
0.75248	34.52
0.76915	34.52
0.78582	34.52
0.80248	34.52
0.81915	34.52
0.83582	34.52
0.85248	34.52
0.86915	34.52
0.88582	34.52
0.90248	34.52
0.91915	34.52
0.93582	34.52
0.95248	34.52
0.96915	34.52
0.98582	34.52
1.00248	34.52
1.01915	34.52
1.03582	34.52
1.05248	34.52
1.06915	34.52
1.08582	34.52
1.10248	34.52
1.11915	34.52
1.13582	34.52
1.15248	34.52
1.16915	34.52
1.18582	34.52
1.20248	34.52
1.21915	34.52
1.23582	34.52
1.25248	34.52
1.26915	34.52
1.28582	34.52
1.30248	34.52
1.31915	34.52
1.33582	34.52
1.35248	34.52
1.36915	34.52
1.38582	34.52
1.40248	34.52
1.41915	34.52
1.43582	34.52
1.45248	34.52
1.46915	34.52
1.48582	34.52
1.50248	34.52
1.51915	34.52
1.53582	34.52
1.55248	34.52
1.56915	34.52
1.58582	34.52
1.60248	34.52
1.61915	34.52
1.63582	34.52
1.65248	34.52
1.66915	34.52
1.68582	34.52
1.70248	34.52
1.71915	34.52
1.73582	34.52
1.75248	34.52
1.76915	34.52
1.78582	34.52
1.80248	34.52
1.81915	34.52
1.83582	34.52
1.85248	34.52
1.86915	34.52
1.88582	34.52
1.90248	34.52
1.91915	34.52
1.93582	34.52
1.95248	34.52
1.96915	34.52
1.98582	34.52
2.00248	34.52
2.01915	34.52
2.03582	34.52
2.05248	34.52
2.06915	34.52
2.08582	34.52
2.10248	34.52
2.11915	34.52
2.13582	34.52
2.15248	34.52
2.16915	34.52
2.18582	34.52
2.20248	34.52
2.21915	34.52
2.23582	34.52
2.25248	34.52
2.26915	34.52
2.28582	34.52
2.30248	34.52
2.31915	34.52
2.33582	34.52
2.35248	34.52
2.36915	34.52
2.38582	34.52
2.40248	34.52
2.41915	34.52
2.43582	34.52
2.45248	34.52
2.46915	34.52
2.48582	34.52
2.50248	34.55
2.51915	34.52
2.53582	34.52
2.55248	34.52
2.56915	34.52
2.58582	34.52
2.60248	34.52
2.61915	34.52
2.63582	34.52
2.65248	34.52
2.66915	34.52
2.68582	34.52
2.70248	34.52
2.71915	34.52
2.73582	34.52
2.75248	34.52
2.76915	34.52
2.78582	34.52
2.80248	34.52
2.81915	34.52
2.83582	34.52
2.85248	34.52
2.86915	34.52
2.88582	34.52
2.90248	34.52
2.91915	34.52
2.93582	34.52
2.95248	34.52
2.96915	34.52
2.98582	34.52
3.00248	34.52
3.01915	34.52
3.03582	34.52
3.05248	34.52
3.06915	34.52
3.08582	34.52
3.10248	34.52
3.11915	34.52
3.13582	34.52
3.15248	34.52
3.16915	34.52
3.18582	34.52
3.20248	34.52
3.21915	34.52
3.23582	34.52
3.25248	34.52
3.26915	34.52
3.28582	34.52
3.30248	34.52
3.31915	34.52
3.33582	34.52
3.35248	34.52
3.36915	34.52
3.38582	34.52
3.40248	34.52
3.41915	34.52
3.43582	34.52
3.45248	34.52
3.46915	34.52
3.48582	34.52
3.50248	34.52
3.51915	34.52
3.53582	34.52
3.55248	34.52
3.56915	34.52
3.58582	34.52
3.60248	34.52
3.61915	34.52
3.63582	34.52
3.65248	34.52
3.66915	34.52
3.68582	34.52
3.70248	34.52
3.71915	34.52
3.73582	34.52
3.75248	34.52
3.76915	34.52
3.78582	34.52
3.80248	34.52
3.81915	34.52
3.83582	34.52
3.85248	34.52
3.86915	34.52
3.88582	34.52
3.90248	34.52
3.91915	34.52
3.93582	34.52
3.95248	34.52
3.96915	34.52
3.98582	34.52

[Status Trace (Column Flow)]
Interval(msec)	1000
# of Points	240
Start Time(min)	0.002
End Time(min)	3.986
Intensity Units	
Intensity Multiplier	1
R.Time (min)	Intensity
0.00248	5.44
0.01915	5.24
0.03582	5.26
0.05248	5.49
0.06915	5.66
0.08582	5.47
0.10248	5.44
0.11915	5.44
0.13582	5.44
0.15248	5.44
0.16915	5.44
0.18582	5.44
0.20248	5.44
0.21915	5.44
0.23582	5.44
0.25248	5.44
0.26915	5.44
0.28582	5.44
0.30248	5.44
0.31915	5.44
0.33582	5.44
0.35248	5.44
0.36915	5.44
0.38582	5.44
0.40248	5.44
0.41915	5.44
0.43582	5.44
0.45248	5.44
0.46915	5.44
0.48582	5.44
0.50248	5.44
0.51915	5.44
0.53582	5.44
0.55248	5.44
0.56915	5.44
0.58582	5.44
0.60248	5.44
0.61915	5.44
0.63582	5.44
0.65248	5.44
0.66915	5.44
0.68582	5.44
0.70248	5.44
0.71915	5.44
0.73582	5.44
0.75248	5.44
0.76915	5.44
0.78582	5.44
0.80248	5.44
0.81915	5.44
0.83582	5.44
0.85248	5.44
0.86915	5.44
0.88582	5.44
0.90248	5.44
0.91915	5.44
0.93582	5.44
0.95248	5.44
0.96915	5.44
0.98582	5.44
1.00248	5.44
1.01915	5.44
1.03582	5.44
1.05248	5.44
1.06915	5.44
1.08582	5.44
1.10248	5.44
1.11915	5.44
1.13582	5.44
1.15248	5.44
1.16915	5.44
1.18582	5.44
1.20248	5.44
1.21915	5.44
1.23582	5.44
1.25248	5.44
1.26915	5.44
1.28582	5.44
1.30248	5.44
1.31915	5.44
1.33582	5.44
1.35248	5.44
1.36915	5.44
1.38582	5.44
1.40248	5.44
1.41915	5.44
1.43582	5.44
1.45248	5.44
1.46915	5.44
1.48582	5.44
1.50248	5.44
1.51915	5.44
1.53582	5.44
1.55248	5.44
1.56915	5.44
1.58582	5.44
1.60248	5.44
1.61915	5.44
1.63582	5.43
1.65248	5.43
1.66915	5.42
1.68582	5.41
1.70248	5.40
1.71915	5.38
1.73582	5.37
1.75248	5.36
1.76915	5.36
1.78582	5.35
1.80248	5.34
1.81915	5.32
1.83582	5.32
1.85248	5.30
1.86915	5.30
1.88582	5.29
1.90248	5.28
1.91915	5.27
1.93582	5.26
1.95248	5.25
1.96915	5.24
1.98582	5.23
2.00248	5.22
2.01915	5.21
2.03582	5.20
2.05248	5.19
2.06915	5.18
2.08582	5.17
2.10248	5.16
2.11915	5.15
2.13582	5.14
2.15248	5.13
2.16915	5.12
2.18582	5.12
2.20248	5.11
2.21915	5.10
2.23582	5.09
2.25248	5.08
2.26915	5.07
2.28582	5.06
2.30248	5.05
2.31915	5.04
2.33582	5.03
2.35248	5.02
2.36915	5.02
2.38582	5.02
2.40248	5.02
2.41915	5.02
2.43582	5.02
2.45248	5.02
2.46915	5.02
2.48582	5.01
2.50248	5.01
2.51915	5.02
2.53582	5.01
2.55248	5.01
2.56915	5.01
2.58582	5.01
2.60248	5.01
2.61915	5.01
2.63582	5.01
2.65248	5.01
2.66915	5.01
2.68582	5.01
2.70248	5.01
2.71915	5.01
2.73582	5.01
2.75248	5.01
2.76915	5.01
2.78582	5.01
2.80248	5.01
2.81915	5.01
2.83582	5.01
2.85248	5.01
2.86915	5.01
2.88582	5.01
2.90248	5.01
2.91915	5.01
2.93582	5.01
2.95248	5.01
2.96915	5.01
2.98582	5.01
3.00248	5.01
3.01915	5.01
3.03582	5.01
3.05248	5.01
3.06915	5.01
3.08582	5.01
3.10248	5.01
3.11915	5.01
3.13582	5.01
3.15248	5.01
3.16915	5.01
3.18582	5.01
3.20248	5.01
3.21915	5.00
3.23582	5.00
3.25248	5.00
3.26915	5.00
3.28582	5.00
3.30248	5.00
3.31915	5.00
3.33582	5.00
3.35248	5.00
3.36915	5.00
3.38582	5.00
3.40248	5.00
3.41915	5.00
3.43582	5.00
3.45248	5.00
3.46915	5.00
3.48582	5.00
3.50248	5.00
3.51915	5.00
3.53582	5.01
3.55248	5.01
3.56915	5.01
3.58582	5.01
3.60248	5.00
3.61915	5.00
3.63582	5.00
3.65248	5.00
3.66915	5.00
3.68582	5.00
3.70248	5.00
3.71915	5.00
3.73582	5.00
3.75248	5.00
3.76915	5.00
3.78582	5.00
3.80248	5.00
3.81915	5.00
3.83582	5.00
3.85248	5.00
3.86915	5.01
3.88582	5.01
3.90248	5.01
3.91915	5.01
3.93582	5.01
3.95248	5.01
3.96915	5.01
3.98582	5.00

[Status Trace (Linear Velocity)]
Interval(msec)	1000
# of Points	240
Start Time(min)	0.002
End Time(min)	3.986
Intensity Units	
Intensity Multiplier	1
R.Time (min)	Intensity
0.00248	39.00
0.01915	37.86
0.03582	37.93
0.05248	39.29
0.06915	40.20
0.08582	39.15
0.10248	38.97
0.11915	39.00
0.13582	39.00
0.15248	39.00
0.16915	39.00
0.18582	39.00
0.20248	39.00
0.21915	39.00
0.23582	39.00
0.25248	39.00
0.26915	39.00
0.28582	39.00
0.30248	38.99
0.31915	38.99
0.33582	38.99
0.35248	38.99
0.36915	39.00
0.38582	39.00
0.40248	39.00
0.41915	39.00
0.43582	39.00
0.45248	39.00
0.46915	39.00
0.48582	39.00
0.50248	39.00
0.51915	39.00
0.53582	39.00
0.55248	39.00
0.56915	39.00
0.58582	39.00
0.60248	39.00
0.61915	39.00
0.63582	39.00
0.65248	39.00
0.66915	39.00
0.68582	39.00
0.70248	39.00
0.71915	39.00
0.73582	39.00
0.75248	39.00
0.76915	39.00
0.78582	39.00
0.80248	39.00
0.81915	39.00
0.83582	39.00
0.85248	39.00
0.86915	39.00
0.88582	39.00
0.90248	39.00
0.91915	39.00
0.93582	39.00
0.95248	39.00
0.96915	39.00
0.98582	39.00
1.00248	39.00
1.01915	39.00
1.03582	39.00
1.05248	39.00
1.06915	39.00
1.08582	39.00
1.10248	39.00
1.11915	39.00
1.13582	39.00
1.15248	39.00
1.16915	39.00
1.18582	39.00
1.20248	39.00
1.21915	39.00
1.23582	39.00
1.25248	39.00
1.26915	39.00
1.28582	39.00
1.30248	39.00
1.31915	39.00
1.33582	39.00
1.35248	39.00
1.36915	39.00
1.38582	39.00
1.40248	39.00
1.41915	39.00
1.43582	39.00
1.45248	39.00
1.46915	39.00
1.48582	39.00
1.50248	39.00
1.51915	39.00
1.53582	39.00
1.55248	39.00
1.56915	39.00
1.58582	39.00
1.60248	39.00
1.61915	38.99
1.63582	38.97
1.65248	38.95
1.66915	38.92
1.68582	38.89
1.70248	38.85
1.71915	38.82
1.73582	38.78
1.75248	38.75
1.76915	38.72
1.78582	38.69
1.80248	38.66
1.81915	38.63
1.83582	38.60
1.85248	38.57
1.86915	38.54
1.88582	38.51
1.90248	38.48
1.91915	38.44
1.93582	38.41
1.95248	38.38
1.96915	38.35
1.98582	38.32
2.00248	38.29
2.01915	38.26
2.03582	38.23
2.05248	38.20
2.06915	38.17
2.08582	38.14
2.10248	38.11
2.11915	38.08
2.13582	38.05
2.15248	38.02
2.16915	37.99
2.18582	37.97
2.20248	37.94
2.21915	37.91
2.23582	37.88
2.25248	37.85
2.26915	37.82
2.28582	37.79
2.30248	37.76
2.31915	37.73
2.33582	37.70
2.35248	37.67
2.36915	37.65
2.38582	37.64
2.40248	37.64
2.41915	37.65
2.43582	37.64
2.45248	37.64
2.46915	37.64
2.48582	37.64
2.50248	37.63
2.51915	37.66
2.53582	37.64
2.55248	37.64
2.56915	37.64
2.58582	37.63
2.60248	37.63
2.61915	37.63
2.63582	37.63
2.65248	37.63
2.66915	37.63
2.68582	37.63
2.70248	37.63
2.71915	37.63
2.73582	37.63
2.75248	37.63
2.76915	37.63
2.78582	37.63
2.80248	37.63
2.81915	37.62
2.83582	37.62
2.85248	37.62
2.86915	37.62
2.88582	37.62
2.90248	37.62
2.91915	37.62
2.93582	37.62
2.95248	37.62
2.96915	37.62
2.98582	37.62
3.00248	37.62
3.01915	37.62
3.03582	37.62
3.05248	37.62
3.06915	37.61
3.08582	37.61
3.10248	37.61
3.11915	37.61
3.13582	37.61
3.15248	37.61
3.16915	37.61
3.18582	37.61
3.20248	37.61
3.21915	37.61
3.23582	37.61
3.25248	37.61
3.26915	37.61
3.28582	37.61
3.30248	37.61
3.31915	37.61
3.33582	37.61
3.35248	37.60
3.36915	37.61
3.38582	37.61
3.40248	37.61
3.41915	37.61
3.43582	37.61
3.45248	37.61
3.46915	37.61
3.48582	37.61
3.50248	37.61
3.51915	37.61
3.53582	37.61
3.55248	37.61
3.56915	37.61
3.58582	37.61
3.60248	37.61
3.61915	37.61
3.63582	37.61
3.65248	37.61
3.66915	37.61
3.68582	37.61
3.70248	37.61
3.71915	37.61
3.73582	37.61
3.75248	37.61
3.76915	37.61
3.78582	37.61
3.80248	37.61
3.81915	37.61
3.83582	37.61
3.85248	37.61
3.86915	37.61
3.88582	37.61
3.90248	37.61
3.91915	37.61
3.93582	37.61
3.95248	37.61
3.96915	37.61
3.98582	37.61

