[Header]
Application Name	LabSolutions
Version	5.110
Data File Name	C:\Users\User\Desktop\GC Analyses\Jack\UIC Prairie Sampling\11.2.22\221102_095.gcd
Output Date	3/20/2023
Output Time	1:25:42 PM

[File Information]
Type	Data File
Generated	1/4/2023 10:36:12 AM
Generated by	System Administrator
Modified	1/4/2023 10:40:36 AM
Modified by	System Administrator

[Sample Information]
Operator Name	System Administrator
Acquired	1/4/2023 10:36:35 AM
Sample Type	1:Standard
Level	1
Sample Name	221102_UICPrairie
Sample ID	221102_UICPrairie
ISTD Amount1	1
ISTD Amount2	1
ISTD Amount3	1
ISTD Amount4	1
ISTD Amount5	1
ISTD Amount6	1
ISTD Amount7	1
ISTD Amount8	1
ISTD Amount9	1
ISTD Amount10	1
ISTD Amount11	1
ISTD Amount12	1
ISTD Amount13	1
ISTD Amount14	1
ISTD Amount15	1
ISTD Amount16	1
ISTD Amount17	1
ISTD Amount18	1
ISTD Amount19	1
ISTD Amount20	1
ISTD Amount21	1
ISTD Amount22	1
ISTD Amount23	1
ISTD Amount24	1
ISTD Amount25	1
ISTD Amount26	1
ISTD Amount27	1
ISTD Amount28	1
ISTD Amount29	1
ISTD Amount30	1
ISTD Amount31	1
ISTD Amount32	1
Sample Amount	1
Dilution Factor	1
Vial#	1
Injection Volume	1
Injection Count	1
Bar Code	

[Original Files]
Data File	C:\Users\User\Desktop\GC Analyses\Jack\UIC Prairie Sampling\11.2.22\221102_095.gcd
Method File	C:\LabSolutions\Data\GHG_4min_2022\ghg3_togas_w_acet_4 min_new_int.gcm
Batch File	
Report Format File	c:\LabSolutions\System\DEFAULT.lsr

[File Description]


[Configuration]
Instrument Name	C0B7VH3-Instrument1
Instrument #	1
Line #	1
# of Detectors	3
Detector ID	DET#1	DET#2	DET#3
Detector Name	FID	PTCD	ECD
# of Channels	1	1	1

[Peak Table(Ch1)]
# of Peaks	3
Peak#	R.Time	I.Time	F.Time	Area	Height	A/H	Conc.	Mark	ID#	Name	k'	Plate #	Plate Ht.	Tailing	Resolution	Sep.Factor	Area Ratio	Height Ratio	Conc. %	Norm Conc.
1	1.465	1.439	1.531	2646	849	3.117	100.000	   	1	CO	0.000	5544	27.056	0.000	0.000	0.000	0	0	16.667	16.667
2	1.567	1.531	1.637	20255	10320	1.963	100.000	 V 	2	CH4	0.070	11505	13.038	1.250	1.497	0.000	0	0	16.667	16.667
3	1.996	1.949	2.686	2027551	946884	2.141	400.000	   	3	CO2	0.363	17155	8.744	1.319	7.185	5.179	0	0	66.667	66.667

[Peak Table(Ch2)]
# of Peaks	0

[Peak Table(Ch3)]
# of Peaks	5
Peak#	R.Time	I.Time	F.Time	Area	Height	A/H	Conc.	Mark	ID#	Name	k'	Plate #	Plate Ht.	Tailing	Resolution	Sep.Factor	Area Ratio	Height Ratio	Conc. %	Norm Conc.
1	2.458	2.337	2.502	1587	400	3.967	0.000	   			0.000	9876	15.189	0.000	0.000	0.000	0	0	0.000	0.000
2	2.517	2.502	2.554	590	223	2.647	0.000	 V 			0.024	2564	58.504	0.000	0.394	0.000	0	0	0.000	0.000
3	2.605	2.554	2.649	940	249	3.767	0.000	 V 			0.060	5122	29.287	0.000	0.511	2.500	0	0	0.000	0.000
4	2.884	2.667	3.122	65885	16671	3.952	1.000	   	1	N2O	0.173	12780	11.737	1.527	2.251	2.900	0	0	50.000	50.000
5	3.269	3.129	3.936	12236	530	23.074	1.000	   	2	SF6	0.330	401	373.701	2.857	1.020	1.905	0	0	50.000	50.000

[Compound Results(Ch1)]
# of IDs	6
ID#	Name	R.Time	Area	Height	Conc.	Curve	3rd	2nd	1st	Constant	Area Ratio	Height Ratio	Conc. %	Norm Conc.
1	CO	1.465	2646	849	100.000	Linear	0.000000e+00	0.000000e+00	2.646335e+001	0.000000e+00	0	0	16.667	16.667
2	CH4	1.567	20255	10320	100.000	Linear	0.000000e+00	0.000000e+00	2.025466e+002	0.000000e+00	0	0	16.667	16.667
3	CO2	1.996	2027551	946884	400.000	Linear	0.000000e+00	0.000000e+00	5.068878e+003	0.000000e+00	0	0	66.667	66.667
4	Ethylene	0.000	0	0	0.000	Linear	0.000000e+00	0.000000e+00	0.000000e+00	0.000000e+00	0	0	0.000	0.000
5	Acetylene	0.000	0	0	0.000	Linear	0.000000e+00	0.000000e+00	0.000000e+00	0.000000e+00	0	0	0.000	0.000
6	Ethane	0.000	0	0	0.000	Linear	0.000000e+00	0.000000e+00	0.000000e+00	0.000000e+00	0	0	0.000	0.000

[Compound Results(Ch2)]
# of IDs	5
ID#	Name	R.Time	Area	Height	Conc.	Curve	3rd	2nd	1st	Constant	Area Ratio	Height Ratio	Conc. %	Norm Conc.
1	Hydrogen	0.000	0	0	0.000	Linear	0.000000e+00	0.000000e+00	0.000000e+00	0.000000e+00	0	0	0.000	0.000
2	Oxygen	0.000	0	0	0.000	Linear	0.000000e+00	0.000000e+00	0.000000e+00	0.000000e+00	0	0	0.000	0.000
3	Nitrogen	0.000	0	0	0.000	Linear	0.000000e+00	0.000000e+00	0.000000e+00	0.000000e+00	0	0	0.000	0.000
4	Methane	0.000	0	0	0.000	Linear	0.000000e+00	0.000000e+00	0.000000e+00	0.000000e+00	0	0	0.000	0.000
5	Carbon Monoxide	0.000	0	0	0.000	Linear	0.000000e+00	0.000000e+00	0.000000e+00	0.000000e+00	0	0	0.000	0.000

[Compound Results(Ch3)]
# of IDs	2
ID#	Name	R.Time	Area	Height	Conc.	Curve	3rd	2nd	1st	Constant	Area Ratio	Height Ratio	Conc. %	Norm Conc.
1	N2O	2.884	65885	16671	1.000	Linear	0.000000e+00	0.000000e+00	6.588531e+004	0.000000e+00	0	0	50.000	50.000
2	SF6	3.269	12236	530	1.000	Linear	0.000000e+00	0.000000e+00	1.223611e+004	0.000000e+00	0	0	50.000	50.000

[Group Results(Ch1)]
# of Groups	0

[Group Results(Ch2)]
# of Groups	0

[Group Results(Ch3)]
# of Groups	0

[Chromatogram (Ch1)]
Interval(msec)	220
# of Points	1091
Start Time(min)	0.002
End Time(min)	3.998
R.Time (min)	Intensity
0.00167	8
0.00533	8
0.00900	9
0.01267	12
0.01633	15
0.02000	18
0.02367	23
0.02733	29
0.03100	23
0.03467	20
0.03833	23
0.04200	24
0.04567	17
0.04933	13
0.05300	13
0.05667	13
0.06033	13
0.06400	13
0.06767	14
0.07133	15
0.07500	19
0.07867	14
0.08233	10
0.08600	14
0.08967	26
0.09333	38
0.09700	44
0.10067	43
0.10433	31
0.10800	18
0.11167	8
0.11533	2
0.11900	-8
0.12267	-9
0.12633	0
0.13000	6
0.13367	5
0.13733	0
0.14100	-7
0.14467	0
0.14833	-3
0.15200	1
0.15567	-2
0.15933	-5
0.16300	-7
0.16667	-7
0.17033	-3
0.17400	2
0.17767	5
0.18133	-1
0.18500	-3
0.18867	-4
0.19233	-2
0.19600	-3
0.19967	-4
0.20333	-3
0.20700	-3
0.21067	-8
0.21433	-4
0.21800	2
0.22167	1
0.22533	1
0.22900	-2
0.23267	-3
0.23633	3
0.24000	14
0.24367	22
0.24733	30
0.25100	30
0.25467	15
0.25833	-4
0.26200	-13
0.26567	-20
0.26933	-24
0.27300	-26
0.27667	-19
0.28033	-9
0.28400	-3
0.28767	-5
0.29133	-7
0.29500	-5
0.29867	2
0.30233	12
0.30600	16
0.30967	15
0.31333	11
0.31700	7
0.32067	1
0.32433	-8
0.32800	-10
0.33167	-9
0.33533	-5
0.33900	1
0.34267	6
0.34633	6
0.35000	2
0.35367	-4
0.35733	-7
0.36100	-7
0.36467	-6
0.36833	-3
0.37200	3
0.37567	8
0.37933	10
0.38300	9
0.38667	0
0.39033	-8
0.39400	-12
0.39767	-17
0.40133	-12
0.40500	-1
0.40867	4
0.41233	-1
0.41600	-8
0.41967	-8
0.42333	-8
0.42700	-3
0.43067	-3
0.43433	-8
0.43800	-13
0.44167	-20
0.44533	-10
0.44900	-5
0.45267	2
0.45633	-8
0.46000	-14
0.46367	-4
0.46733	1
0.47100	-10
0.47467	-16
0.47833	-26
0.48200	-32
0.48567	-31
0.48933	-27
0.49300	-16
0.49667	-3
0.50033	-6
0.50400	-21
0.50767	-26
0.51133	-15
0.51500	-9
0.51867	-17
0.52233	-29
0.52600	-34
0.52967	-32
0.53333	-31
0.53700	-16
0.54067	-2
0.54433	-4
0.54800	-13
0.55167	-25
0.55533	-33
0.55900	-37
0.56267	-39
0.56633	-37
0.57000	-34
0.57367	-30
0.57733	-31
0.58100	-24
0.58467	-16
0.58833	-17
0.59200	-8
0.59567	-6
0.59933	-7
0.60300	-8
0.60667	-12
0.61033	-23
0.61400	-30
0.61767	-32
0.62133	-29
0.62500	-29
0.62867	-31
0.63233	-25
0.63600	-22
0.63967	-22
0.64333	-24
0.64700	-26
0.65067	-25
0.65433	-22
0.65800	-22
0.66167	-19
0.66533	-16
0.66900	-14
0.67267	-14
0.67633	-16
0.68000	-19
0.68367	-29
0.68733	-39
0.69100	-46
0.69467	-43
0.69833	-49
0.70200	-44
0.70567	-35
0.70933	-30
0.71300	-34
0.71667	-36
0.72033	-28
0.72400	-11
0.72767	-3
0.73133	0
0.73500	0
0.73867	-9
0.74233	-17
0.74600	-27
0.74967	-31
0.75333	-27
0.75700	-26
0.76067	-30
0.76433	-34
0.76800	-36
0.77167	-37
0.77533	-38
0.77900	-42
0.78267	-41
0.78633	-38
0.79000	-35
0.79367	-31
0.79733	-25
0.80100	-25
0.80467	-25
0.80833	-26
0.81200	-23
0.81567	-21
0.81933	-25
0.82300	-33
0.82667	-37
0.83033	-53
0.83400	-50
0.83767	-48
0.84133	-47
0.84500	-46
0.84867	-48
0.85233	-43
0.85600	-32
0.85967	-26
0.86333	-27
0.86700	-33
0.87067	-42
0.87433	-50
0.87800	-41
0.88167	-33
0.88533	-31
0.88900	-29
0.89267	-24
0.89633	-26
0.90000	-23
0.90367	-20
0.90733	-20
0.91100	-23
0.91467	-29
0.91833	-36
0.92200	-45
0.92567	-52
0.92933	-53
0.93300	-50
0.93667	-48
0.94033	-49
0.94400	-44
0.94767	-32
0.95133	-26
0.95500	-26
0.95867	-34
0.96233	-41
0.96600	-43
0.96967	-51
0.97333	-53
0.97700	-54
0.98067	-54
0.98433	-51
0.98800	-47
0.99167	-50
0.99533	-45
0.99900	-33
1.00267	-24
1.00633	-22
1.01000	-23
1.01367	-26
1.01733	-31
1.02100	-31
1.02467	-31
1.02833	-36
1.03200	-42
1.03567	-35
1.03933	-36
1.04300	-38
1.04667	-34
1.05033	-28
1.05400	-26
1.05767	-30
1.06133	-45
1.06500	-44
1.06867	-38
1.07233	-35
1.07600	-35
1.07967	-34
1.08333	-45
1.08700	-57
1.09067	-60
1.09433	-59
1.09800	-58
1.10167	-60
1.10533	-63
1.10900	-62
1.11267	-59
1.11633	-52
1.12000	-42
1.12367	-33
1.12733	-35
1.13100	-33
1.13467	-40
1.13833	-58
1.14200	-65
1.14567	-57
1.14933	-55
1.15300	-51
1.15667	-49
1.16033	-46
1.16400	-42
1.16767	-38
1.17133	-30
1.17500	-20
1.17867	-28
1.18233	-32
1.18600	-33
1.18967	-36
1.19333	-44
1.19700	-50
1.20067	-54
1.20433	-61
1.20800	-65
1.21167	-59
1.21533	-61
1.21900	-66
1.22267	-68
1.22633	-62
1.23000	-58
1.23367	-54
1.23733	-49
1.24100	-48
1.24467	-48
1.24833	-50
1.25200	-59
1.25567	-63
1.25933	-62
1.26300	-50
1.26667	-39
1.27033	-35
1.27400	-37
1.27767	-44
1.28133	-43
1.28500	-35
1.28867	-34
1.29233	-38
1.29600	-43
1.29967	-47
1.30333	-56
1.30700	-61
1.31067	-63
1.31433	-66
1.31800	-66
1.32167	-62
1.32533	-50
1.32900	-46
1.33267	-48
1.33633	-49
1.34000	-49
1.34367	-48
1.34733	-49
1.35100	-55
1.35467	-53
1.35833	-50
1.36200	-43
1.36567	-41
1.36933	-41
1.37300	-42
1.37667	-48
1.38033	-48
1.38400	-47
1.38767	-51
1.39133	-51
1.39500	-46
1.39867	-44
1.40233	-41
1.40600	-38
1.40967	-44
1.41333	-52
1.41700	-60
1.42067	-57
1.42433	-46
1.42800	-41
1.43167	-41
1.43533	-48
1.43900	-41
1.44267	43
1.44633	227
1.45000	452
1.45367	628
1.45733	743
1.46100	797
1.46467	810
1.46833	807
1.47200	798
1.47567	786
1.47933	769
1.48300	732
1.48667	674
1.49033	594
1.49400	502
1.49767	410
1.50133	328
1.50500	260
1.50867	209
1.51233	167
1.51600	134
1.51967	104
1.52333	73
1.52700	59
1.53067	44
1.53433	48
1.53800	117
1.54167	450
1.54533	1344
1.54900	2921
1.55267	4919
1.55633	6901
1.56000	8558
1.56367	9732
1.56733	10290
1.57100	10097
1.57467	9127
1.57833	7613
1.58200	5903
1.58567	4319
1.58933	3028
1.59300	2061
1.59667	1374
1.60033	901
1.60400	583
1.60767	371
1.61133	232
1.61500	147
1.61867	95
1.62233	61
1.62600	35
1.62967	12
1.63333	-11
1.63700	-24
1.64067	-23
1.64433	-24
1.64800	-25
1.65167	-29
1.65533	-31
1.65900	-33
1.66267	-34
1.66633	-34
1.67000	-30
1.67367	-29
1.67733	-32
1.68100	-37
1.68467	-40
1.68833	-41
1.69200	-41
1.69567	-41
1.69933	-44
1.70300	-44
1.70667	-44
1.71033	-50
1.71400	-52
1.71767	-48
1.72133	-43
1.72500	-38
1.72867	-39
1.73233	-43
1.73600	-46
1.73967	-47
1.74333	-56
1.74700	-55
1.75067	-53
1.75433	-51
1.75800	-51
1.76167	-49
1.76533	-46
1.76900	-44
1.77267	-42
1.77633	-41
1.78000	-43
1.78367	-45
1.78733	-48
1.79100	-48
1.79467	-40
1.79833	-34
1.80200	-34
1.80567	-37
1.80933	-37
1.81300	-37
1.81667	-41
1.82033	-45
1.82400	-56
1.82767	-55
1.83133	-47
1.83500	-39
1.83867	-31
1.84233	-28
1.84600	-28
1.84967	-30
1.85333	-32
1.85700	-33
1.86067	-33
1.86433	-33
1.86800	-34
1.87167	-36
1.87533	-33
1.87900	-30
1.88267	-28
1.88633	-27
1.89000	-28
1.89367	-29
1.89733	-33
1.90100	-38
1.90467	-40
1.90833	-43
1.91200	-46
1.91567	-43
1.91933	-37
1.92300	-32
1.92667	-28
1.93033	-23
1.93400	-20
1.93767	-19
1.94133	-18
1.94500	-17
1.94867	-14
1.95233	5
1.95600	160
1.95967	1092
1.96333	5392
1.96700	20414
1.97067	60613
1.97433	143568
1.97800	277287
1.98167	449315
1.98533	630500
1.98900	788753
1.99267	899341
1.99633	946911
2.00000	926984
2.00367	847132
2.00733	725774
2.01100	586807
2.01467	451914
2.01833	335263
2.02200	242488
2.02567	172986
2.02933	123026
2.03300	88052
2.03667	63943
2.04033	47439
2.04400	36123
2.04767	28291
2.05133	22782
2.05500	18852
2.05867	15980
2.06233	13833
2.06600	12176
2.06967	10864
2.07333	9801
2.07700	8934
2.08067	8215
2.08433	7599
2.08800	7069
2.09167	6613
2.09533	6214
2.09900	5861
2.10267	5541
2.10633	5249
2.11000	4984
2.11367	4743
2.11733	4522
2.12100	4322
2.12467	4140
2.12833	3972
2.13200	3815
2.13567	3664
2.13933	3524
2.14300	3394
2.14667	3267
2.15033	3155
2.15400	3046
2.15767	2938
2.16133	2840
2.16500	2756
2.16867	2664
2.17233	2579
2.17600	2516
2.17967	2454
2.18333	2388
2.18700	2321
2.19067	2265
2.19433	2209
2.19800	2151
2.20167	2098
2.20533	2054
2.20900	2011
2.21267	1967
2.21633	1924
2.22000	1879
2.22367	1835
2.22733	1800
2.23100	1767
2.23467	1735
2.23833	1701
2.24200	1666
2.24567	1631
2.24933	1600
2.25300	1576
2.25667	1548
2.26033	1526
2.26400	1498
2.26767	1468
2.27133	1439
2.27500	1411
2.27867	1377
2.28233	1351
2.28600	1337
2.28967	1321
2.29333	1303
2.29700	1282
2.30067	1262
2.30433	1241
2.30800	1222
2.31167	1203
2.31533	1184
2.31900	1170
2.32267	1159
2.32633	1150
2.33000	1141
2.33367	1129
2.33733	1113
2.34100	1098
2.34467	1085
2.34833	1073
2.35200	1065
2.35567	1055
2.35933	1044
2.36300	1026
2.36667	997
2.37033	984
2.37400	973
2.37767	957
2.38133	944
2.38500	944
2.38867	945
2.39233	941
2.39600	942
2.39967	935
2.40333	932
2.40700	921
2.41067	906
2.41433	886
2.41800	877
2.42167	876
2.42533	877
2.42900	879
2.43267	876
2.43633	873
2.44000	872
2.44367	875
2.44733	880
2.45100	874
2.45467	859
2.45833	845
2.46200	830
2.46567	816
2.46933	806
2.47300	802
2.47667	802
2.48033	801
2.48400	801
2.48767	798
2.49133	790
2.49500	782
2.49867	778
2.50233	774
2.50600	766
2.50967	755
2.51333	743
2.51700	733
2.52067	725
2.52433	720
2.52800	718
2.53167	721
2.53533	722
2.53900	718
2.54267	715
2.54633	713
2.55000	715
2.55367	721
2.55733	723
2.56100	716
2.56467	706
2.56833	700
2.57200	693
2.57567	691
2.57933	693
2.58300	692
2.58667	693
2.59033	687
2.59400	685
2.59767	681
2.60133	675
2.60500	670
2.60867	669
2.61233	667
2.61600	661
2.61967	655
2.62333	651
2.62700	650
2.63067	648
2.63433	652
2.63800	652
2.64167	648
2.64533	642
2.64900	629
2.65267	623
2.65633	623
2.66000	624
2.66367	621
2.66733	619
2.67100	618
2.67467	616
2.67833	621
2.68200	624
2.68567	621
2.68933	617
2.69300	614
2.69667	614
2.70033	613
2.70400	612
2.70767	612
2.71133	615
2.71500	621
2.71867	623
2.72233	619
2.72600	617
2.72967	615
2.73333	613
2.73700	613
2.74067	615
2.74433	616
2.74800	615
2.75167	615
2.75533	613
2.75900	607
2.76267	600
2.76633	593
2.77000	591
2.77367	590
2.77733	591
2.78100	592
2.78467	593
2.78833	593
2.79200	592
2.79567	596
2.79933	599
2.80300	602
2.80667	601
2.81033	599
2.81400	596
2.81767	591
2.82133	585
2.82500	576
2.82867	578
2.83233	581
2.83600	584
2.83967	584
2.84333	573
2.84700	570
2.85067	569
2.85433	572
2.85800	573
2.86167	582
2.86533	590
2.86900	593
2.87267	590
2.87633	584
2.88000	585
2.88367	587
2.88733	582
2.89100	586
2.89467	582
2.89833	571
2.90200	563
2.90567	559
2.90933	565
2.91300	566
2.91667	562
2.92033	555
2.92400	548
2.92767	547
2.93133	544
2.93500	545
2.93867	550
2.94233	556
2.94600	559
2.94967	561
2.95333	564
2.95700	562
2.96067	561
2.96433	557
2.96800	553
2.97167	552
2.97533	550
2.97900	544
2.98267	537
2.98633	528
2.99000	527
2.99367	532
2.99733	537
3.00100	543
3.00467	550
3.00833	554
3.01200	559
3.01567	561
3.01933	560
3.02300	553
3.02667	542
3.03033	537
3.03400	537
3.03767	537
3.04133	535
3.04500	533
3.04867	534
3.05233	535
3.05600	536
3.05967	533
3.06333	531
3.06700	528
3.07067	530
3.07433	540
3.07800	547
3.08167	550
3.08533	553
3.08900	551
3.09267	546
3.09633	540
3.10000	531
3.10367	525
3.10733	518
3.11100	517
3.11467	517
3.11833	518
3.12200	518
3.12567	514
3.12933	516
3.13300	520
3.13667	522
3.14033	524
3.14400	527
3.14767	528
3.15133	525
3.15500	522
3.15867	521
3.16233	528
3.16600	534
3.16967	534
3.17333	526
3.17700	512
3.18067	498
3.18433	482
3.18800	477
3.19167	473
3.19533	471
3.19900	472
3.20267	477
3.20633	479
3.21000	484
3.21367	489
3.21733	491
3.22100	497
3.22467	506
3.22833	512
3.23200	509
3.23567	499
3.23933	492
3.24300	485
3.24667	483
3.25033	482
3.25400	481
3.25767	477
3.26133	479
3.26500	486
3.26867	490
3.27233	486
3.27600	488
3.27967	495
3.28333	496
3.28700	499
3.29067	494
3.29433	489
3.29800	485
3.30167	484
3.30533	490
3.30900	498
3.31267	508
3.31633	513
3.32000	509
3.32367	496
3.32733	485
3.33100	484
3.33467	487
3.33833	489
3.34200	497
3.34567	497
3.34933	490
3.35300	489
3.35667	490
3.36033	488
3.36400	487
3.36767	484
3.37133	487
3.37500	491
3.37867	488
3.38233	487
3.38600	490
3.38967	488
3.39333	480
3.39700	477
3.40067	478
3.40433	480
3.40800	471
3.41167	464
3.41533	459
3.41900	463
3.42267	465
3.42633	463
3.43000	454
3.43367	447
3.43733	448
3.44100	455
3.44467	458
3.44833	459
3.45200	463
3.45567	467
3.45933	470
3.46300	473
3.46667	474
3.47033	472
3.47400	467
3.47767	459
3.48133	453
3.48500	452
3.48867	450
3.49233	450
3.49600	451
3.49967	452
3.50333	454
3.50700	456
3.51067	454
3.51433	452
3.51800	450
3.52167	447
3.52533	442
3.52900	439
3.53267	430
3.53633	429
3.54000	435
3.54367	440
3.54733	441
3.55100	438
3.55467	434
3.55833	427
3.56200	423
3.56567	426
3.56933	432
3.57300	440
3.57667	442
3.58033	439
3.58400	431
3.58767	424
3.59133	422
3.59500	418
3.59867	419
3.60233	426
3.60600	431
3.60967	440
3.61333	444
3.61700	443
3.62067	433
3.62433	418
3.62800	408
3.63167	406
3.63533	406
3.63900	405
3.64267	407
3.64633	411
3.65000	416
3.65367	420
3.65733	421
3.66100	420
3.66467	417
3.66833	410
3.67200	407
3.67567	410
3.67933	417
3.68300	424
3.68667	425
3.69033	421
3.69400	415
3.69767	407
3.70133	402
3.70500	404
3.70867	403
3.71233	401
3.71600	393
3.71967	380
3.72333	376
3.72700	381
3.73067	377
3.73433	376
3.73800	380
3.74167	384
3.74533	387
3.74900	387
3.75267	385
3.75633	384
3.76000	386
3.76367	388
3.76733	385
3.77100	377
3.77467	369
3.77833	362
3.78200	365
3.78567	371
3.78933	378
3.79300	385
3.79667	388
3.80033	381
3.80400	372
3.80767	368
3.81133	366
3.81500	366
3.81867	367
3.82233	369
3.82600	369
3.82967	369
3.83333	370
3.83700	368
3.84067	363
3.84433	361
3.84800	362
3.85167	364
3.85533	367
3.85900	368
3.86267	369
3.86633	367
3.87000	364
3.87367	359
3.87733	357
3.88100	356
3.88467	356
3.88833	355
3.89200	356
3.89567	358
3.89933	359
3.90300	360
3.90667	364
3.91033	369
3.91400	368
3.91767	364
3.92133	361
3.92500	362
3.92867	363
3.93233	362
3.93600	359
3.93967	353
3.94333	351
3.94700	350
3.95067	347
3.95433	344
3.95800	344
3.96167	341
3.96533	338
3.96900	336
3.97267	337
3.97633	343
3.98000	349
3.98367	351
3.98733	353
3.99100	358
3.99467	358
3.99833	354

[Chromatogram (Ch2)]
Interval(msec)	220
# of Points	1091
Start Time(min)	0.002
End Time(min)	3.998
R.Time (min)	Intensity
0.00167	-1
0.00533	-1
0.00900	-1
0.01267	-1
0.01633	-1
0.02000	-1
0.02367	-0
0.02733	-0
0.03100	0
0.03467	0
0.03833	0
0.04200	0
0.04567	0
0.04933	0
0.05300	0
0.05667	0
0.06033	1
0.06400	1
0.06767	1
0.07133	1
0.07500	1
0.07867	1
0.08233	2
0.08600	2
0.08967	2
0.09333	2
0.09700	2
0.10067	2
0.10433	2
0.10800	2
0.11167	2
0.11533	2
0.11900	2
0.12267	2
0.12633	2
0.13000	2
0.13367	2
0.13733	2
0.14100	1
0.14467	1
0.14833	1
0.15200	1
0.15567	1
0.15933	1
0.16300	1
0.16667	1
0.17033	1
0.17400	1
0.17767	1
0.18133	1
0.18500	1
0.18867	1
0.19233	1
0.19600	0
0.19967	0
0.20333	0
0.20700	0
0.21067	0
0.21433	0
0.21800	0
0.22167	0
0.22533	0
0.22900	0
0.23267	1
0.23633	1
0.24000	1
0.24367	1
0.24733	0
0.25100	0
0.25467	-0
0.25833	-1
0.26200	-1
0.26567	-1
0.26933	-1
0.27300	-1
0.27667	-1
0.28033	-1
0.28400	-1
0.28767	-1
0.29133	-1
0.29500	-2
0.29867	-2
0.30233	-2
0.30600	-2
0.30967	-2
0.31333	-2
0.31700	-2
0.32067	-3
0.32433	-2
0.32800	-2
0.33167	-2
0.33533	-3
0.33900	-3
0.34267	-3
0.34633	-3
0.35000	-3
0.35367	-3
0.35733	-3
0.36100	-3
0.36467	-3
0.36833	-2
0.37200	-2
0.37567	-2
0.37933	-2
0.38300	-2
0.38667	-2
0.39033	-2
0.39400	-2
0.39767	-1
0.40133	-1
0.40500	-1
0.40867	-1
0.41233	-1
0.41600	-1
0.41967	-1
0.42333	-0
0.42700	-0
0.43067	-0
0.43433	0
0.43800	0
0.44167	1
0.44533	1
0.44900	1
0.45267	1
0.45633	0
0.46000	0
0.46367	0
0.46733	0
0.47100	1
0.47467	1
0.47833	1
0.48200	1
0.48567	1
0.48933	1
0.49300	1
0.49667	1
0.50033	1
0.50400	1
0.50767	1
0.51133	1
0.51500	1
0.51867	1
0.52233	1
0.52600	1
0.52967	1
0.53333	0
0.53700	0
0.54067	0
0.54433	0
0.54800	0
0.55167	1
0.55533	0
0.55900	0
0.56267	-0
0.56633	-1
0.57000	-1
0.57367	-1
0.57733	-2
0.58100	-2
0.58467	-2
0.58833	-2
0.59200	-2
0.59567	-2
0.59933	-2
0.60300	-2
0.60667	-2
0.61033	-2
0.61400	-2
0.61767	-2
0.62133	-2
0.62500	-1
0.62867	-1
0.63233	-1
0.63600	-1
0.63967	-1
0.64333	-1
0.64700	-1
0.65067	-1
0.65433	-1
0.65800	-1
0.66167	-1
0.66533	-1
0.66900	-1
0.67267	-1
0.67633	-1
0.68000	-2
0.68367	-2
0.68733	-2
0.69100	-2
0.69467	-2
0.69833	-2
0.70200	-2
0.70567	-2
0.70933	-3
0.71300	-3
0.71667	-3
0.72033	-3
0.72400	-3
0.72767	-3
0.73133	-3
0.73500	-3
0.73867	-2
0.74233	-2
0.74600	-3
0.74967	-3
0.75333	-3
0.75700	-3
0.76067	-3
0.76433	-3
0.76800	-3
0.77167	-2
0.77533	-2
0.77900	-2
0.78267	-1
0.78633	-1
0.79000	-1
0.79367	-1
0.79733	-1
0.80100	-1
0.80467	-1
0.80833	-1
0.81200	-1
0.81567	-1
0.81933	-1
0.82300	-1
0.82667	-1
0.83033	-1
0.83400	-1
0.83767	-1
0.84133	-1
0.84500	-1
0.84867	-1
0.85233	-1
0.85600	-1
0.85967	-1
0.86333	-1
0.86700	-1
0.87067	-1
0.87433	-1
0.87800	-1
0.88167	-1
0.88533	-1
0.88900	-1
0.89267	-1
0.89633	-1
0.90000	-1
0.90367	-1
0.90733	-1
0.91100	-1
0.91467	-1
0.91833	-1
0.92200	-1
0.92567	-1
0.92933	-1
0.93300	-1
0.93667	-2
0.94033	-2
0.94400	-2
0.94767	-2
0.95133	-2
0.95500	-2
0.95867	-3
0.96233	-3
0.96600	-3
0.96967	-3
0.97333	-4
0.97700	-4
0.98067	-4
0.98433	-3
0.98800	-3
0.99167	-3
0.99533	-3
0.99900	-4
1.00267	-4
1.00633	-4
1.01000	-4
1.01367	-4
1.01733	-4
1.02100	-4
1.02467	-4
1.02833	-4
1.03200	-4
1.03567	-3
1.03933	-3
1.04300	-3
1.04667	-3
1.05033	-3
1.05400	-3
1.05767	-3
1.06133	-2
1.06500	-2
1.06867	-2
1.07233	-2
1.07600	-2
1.07967	-2
1.08333	-2
1.08700	-2
1.09067	-2
1.09433	-2
1.09800	-2
1.10167	-1
1.10533	-1
1.10900	-1
1.11267	-1
1.11633	-1
1.12000	-1
1.12367	-1
1.12733	-2
1.13100	-2
1.13467	-2
1.13833	-2
1.14200	-2
1.14567	-2
1.14933	-2
1.15300	-2
1.15667	-2
1.16033	-2
1.16400	-2
1.16767	-2
1.17133	-2
1.17500	-2
1.17867	-2
1.18233	-2
1.18600	-2
1.18967	-1
1.19333	-1
1.19700	-1
1.20067	-2
1.20433	-2
1.20800	-2
1.21167	-2
1.21533	-2
1.21900	-2
1.22267	-2
1.22633	-2
1.23000	-1
1.23367	-1
1.23733	-1
1.24100	-1
1.24467	-1
1.24833	-2
1.25200	-2
1.25567	-2
1.25933	-2
1.26300	-2
1.26667	-2
1.27033	-2
1.27400	-2
1.27767	-2
1.28133	-2
1.28500	-2
1.28867	-2
1.29233	-2
1.29600	-2
1.29967	-2
1.30333	-2
1.30700	-2
1.31067	-2
1.31433	-2
1.31800	-2
1.32167	-3
1.32533	-3
1.32900	-3
1.33267	-3
1.33633	-3
1.34000	-3
1.34367	-3
1.34733	-4
1.35100	-4
1.35467	-4
1.35833	-4
1.36200	-4
1.36567	-3
1.36933	-3
1.37300	-3
1.37667	-3
1.38033	-3
1.38400	-3
1.38767	-3
1.39133	-3
1.39500	-3
1.39867	-3
1.40233	-3
1.40600	-3
1.40967	-3
1.41333	-3
1.41700	-3
1.42067	-3
1.42433	-3
1.42800	-4
1.43167	-4
1.43533	-3
1.43900	-3
1.44267	-3
1.44633	-4
1.45000	-4
1.45367	-4
1.45733	-3
1.46100	-3
1.46467	-4
1.46833	-4
1.47200	-4
1.47567	-4
1.47933	-4
1.48300	-4
1.48667	-4
1.49033	-4
1.49400	-4
1.49767	-4
1.50133	-5
1.50500	-5
1.50867	-5
1.51233	-5
1.51600	-5
1.51967	-5
1.52333	-5
1.52700	-5
1.53067	-6
1.53433	-6
1.53800	-6
1.54167	-6
1.54533	-7
1.54900	-7
1.55267	-7
1.55633	-7
1.56000	-7
1.56367	-7
1.56733	-7
1.57100	-7
1.57467	-7
1.57833	-6
1.58200	-6
1.58567	-6
1.58933	-6
1.59300	-6
1.59667	-6
1.60033	-6
1.60400	-7
1.60767	-8
1.61133	-9
1.61500	-10
1.61867	-13
1.62233	-15
1.62600	-18
1.62967	-20
1.63333	-23
1.63700	-27
1.64067	-30
1.64433	-33
1.64800	-37
1.65167	-40
1.65533	-44
1.65900	-47
1.66267	-51
1.66633	-55
1.67000	-59
1.67367	-63
1.67733	-68
1.68100	-73
1.68467	-78
1.68833	-82
1.69200	-86
1.69567	-90
1.69933	-93
1.70300	-96
1.70667	-99
1.71033	-101
1.71400	-103
1.71767	-104
1.72133	-105
1.72500	-107
1.72867	-108
1.73233	-109
1.73600	-110
1.73967	-110
1.74333	-110
1.74700	-111
1.75067	-111
1.75433	-112
1.75800	-112
1.76167	-113
1.76533	-113
1.76900	-114
1.77267	-114
1.77633	-114
1.78000	-114
1.78367	-114
1.78733	-114
1.79100	-115
1.79467	-115
1.79833	-115
1.80200	-115
1.80567	-115
1.80933	-115
1.81300	-115
1.81667	-115
1.82033	-116
1.82400	-116
1.82767	-116
1.83133	-116
1.83500	-116
1.83867	-116
1.84233	-116
1.84600	-116
1.84967	-116
1.85333	-116
1.85700	-116
1.86067	-116
1.86433	-116
1.86800	-116
1.87167	-116
1.87533	-116
1.87900	-116
1.88267	-116
1.88633	-115
1.89000	-115
1.89367	-115
1.89733	-115
1.90100	-114
1.90467	-114
1.90833	-115
1.91200	-115
1.91567	-115
1.91933	-115
1.92300	-115
1.92667	-115
1.93033	-114
1.93400	-114
1.93767	-114
1.94133	-114
1.94500	-113
1.94867	-112
1.95233	-112
1.95600	-111
1.95967	-111
1.96333	-111
1.96700	-111
1.97067	-110
1.97433	-110
1.97800	-110
1.98167	-109
1.98533	-109
1.98900	-108
1.99267	-108
1.99633	-108
2.00000	-108
2.00367	-108
2.00733	-108
2.01100	-108
2.01467	-108
2.01833	-107
2.02200	-107
2.02567	-106
2.02933	-106
2.03300	-107
2.03667	-107
2.04033	-107
2.04400	-107
2.04767	-107
2.05133	-107
2.05500	-107
2.05867	-106
2.06233	-106
2.06600	-106
2.06967	-105
2.07333	-105
2.07700	-104
2.08067	-104
2.08433	-103
2.08800	-103
2.09167	-103
2.09533	-102
2.09900	-102
2.10267	-101
2.10633	-100
2.11000	-99
2.11367	-99
2.11733	-98
2.12100	-98
2.12467	-98
2.12833	-98
2.13200	-98
2.13567	-98
2.13933	-98
2.14300	-97
2.14667	-97
2.15033	-97
2.15400	-97
2.15767	-97
2.16133	-97
2.16500	-97
2.16867	-97
2.17233	-97
2.17600	-96
2.17967	-96
2.18333	-96
2.18700	-95
2.19067	-95
2.19433	-95
2.19800	-96
2.20167	-96
2.20533	-97
2.20900	-97
2.21267	-97
2.21633	-97
2.22000	-96
2.22367	-95
2.22733	-94
2.23100	-93
2.23467	-92
2.23833	-91
2.24200	-91
2.24567	-90
2.24933	-90
2.25300	-89
2.25667	-89
2.26033	-89
2.26400	-89
2.26767	-89
2.27133	-89
2.27500	-89
2.27867	-89
2.28233	-89
2.28600	-89
2.28967	-89
2.29333	-88
2.29700	-87
2.30067	-86
2.30433	-85
2.30800	-85
2.31167	-85
2.31533	-86
2.31900	-87
2.32267	-88
2.32633	-88
2.33000	-88
2.33367	-87
2.33733	-86
2.34100	-85
2.34467	-84
2.34833	-82
2.35200	-81
2.35567	-80
2.35933	-78
2.36300	-77
2.36667	-76
2.37033	-75
2.37400	-74
2.37767	-72
2.38133	-69
2.38500	-66
2.38867	-63
2.39233	-60
2.39600	-56
2.39967	-53
2.40333	-49
2.40700	-45
2.41067	-41
2.41433	-38
2.41800	-34
2.42167	-31
2.42533	-28
2.42900	-25
2.43267	-22
2.43633	-19
2.44000	-17
2.44367	-15
2.44733	-12
2.45100	-10
2.45467	-8
2.45833	-6
2.46200	-4
2.46567	-3
2.46933	-2
2.47300	-1
2.47667	-0
2.48033	1
2.48400	2
2.48767	3
2.49133	4
2.49500	5
2.49867	5
2.50233	6
2.50600	6
2.50967	7
2.51333	7
2.51700	8
2.52067	8
2.52433	9
2.52800	10
2.53167	11
2.53533	11
2.53900	12
2.54267	12
2.54633	13
2.55000	14
2.55367	14
2.55733	15
2.56100	15
2.56467	16
2.56833	16
2.57200	16
2.57567	16
2.57933	16
2.58300	16
2.58667	16
2.59033	16
2.59400	17
2.59767	17
2.60133	17
2.60500	17
2.60867	17
2.61233	18
2.61600	18
2.61967	18
2.62333	18
2.62700	19
2.63067	19
2.63433	19
2.63800	19
2.64167	19
2.64533	20
2.64900	20
2.65267	20
2.65633	20
2.66000	20
2.66367	21
2.66733	21
2.67100	21
2.67467	21
2.67833	21
2.68200	21
2.68567	21
2.68933	21
2.69300	21
2.69667	21
2.70033	21
2.70400	21
2.70767	21
2.71133	21
2.71500	21
2.71867	20
2.72233	20
2.72600	20
2.72967	20
2.73333	21
2.73700	21
2.74067	21
2.74433	22
2.74800	22
2.75167	23
2.75533	23
2.75900	23
2.76267	24
2.76633	24
2.77000	25
2.77367	25
2.77733	25
2.78100	24
2.78467	24
2.78833	23
2.79200	23
2.79567	23
2.79933	22
2.80300	22
2.80667	22
2.81033	22
2.81400	22
2.81767	22
2.82133	22
2.82500	23
2.82867	23
2.83233	23
2.83600	23
2.83967	23
2.84333	23
2.84700	22
2.85067	20
2.85433	17
2.85800	10
2.86167	1
2.86533	-12
2.86900	-29
2.87267	-50
2.87633	-76
2.88000	-108
2.88367	-145
2.88733	-187
2.89100	-235
2.89467	-287
2.89833	-344
2.90200	-405
2.90567	-470
2.90933	-539
2.91300	-611
2.91667	-686
2.92033	-763
2.92400	-844
2.92767	-926
2.93133	-1011
2.93500	-1098
2.93867	-1186
2.94233	-1277
2.94600	-1366
2.94967	-1447
2.95333	-1506
2.95700	-1533
2.96067	-1525
2.96433	-1482
2.96800	-1411
2.97167	-1320
2.97533	-1216
2.97900	-1106
2.98267	-995
2.98633	-887
2.99000	-785
2.99367	-690
2.99733	-604
3.00100	-525
3.00467	-456
3.00833	-394
3.01200	-340
3.01567	-292
3.01933	-250
3.02300	-214
3.02667	-183
3.03033	-156
3.03400	-133
3.03767	-113
3.04133	-96
3.04500	-82
3.04867	-69
3.05233	-59
3.05600	-49
3.05967	-42
3.06333	-35
3.06700	-29
3.07067	-24
3.07433	-20
3.07800	-16
3.08167	-12
3.08533	-10
3.08900	-7
3.09267	-5
3.09633	-3
3.10000	-2
3.10367	-0
3.10733	1
3.11100	2
3.11467	3
3.11833	4
3.12200	4
3.12567	5
3.12933	6
3.13300	6
3.13667	6
3.14033	7
3.14400	7
3.14767	8
3.15133	9
3.15500	9
3.15867	10
3.16233	11
3.16600	11
3.16967	12
3.17333	12
3.17700	12
3.18067	12
3.18433	13
3.18800	13
3.19167	13
3.19533	13
3.19900	14
3.20267	14
3.20633	14
3.21000	14
3.21367	15
3.21733	15
3.22100	15
3.22467	15
3.22833	16
3.23200	16
3.23567	16
3.23933	16
3.24300	16
3.24667	16
3.25033	16
3.25400	16
3.25767	16
3.26133	17
3.26500	17
3.26867	17
3.27233	18
3.27600	18
3.27967	18
3.28333	18
3.28700	18
3.29067	18
3.29433	18
3.29800	18
3.30167	19
3.30533	19
3.30900	19
3.31267	19
3.31633	19
3.32000	19
3.32367	19
3.32733	19
3.33100	19
3.33467	19
3.33833	19
3.34200	19
3.34567	19
3.34933	19
3.35300	20
3.35667	20
3.36033	20
3.36400	20
3.36767	20
3.37133	20
3.37500	20
3.37867	20
3.38233	20
3.38600	20
3.38967	20
3.39333	20
3.39700	20
3.40067	20
3.40433	20
3.40800	21
3.41167	21
3.41533	21
3.41900	21
3.42267	21
3.42633	22
3.43000	22
3.43367	22
3.43733	23
3.44100	23
3.44467	23
3.44833	23
3.45200	23
3.45567	23
3.45933	23
3.46300	24
3.46667	24
3.47033	23
3.47400	23
3.47767	23
3.48133	23
3.48500	23
3.48867	23
3.49233	23
3.49600	23
3.49967	23
3.50333	23
3.50700	23
3.51067	23
3.51433	23
3.51800	23
3.52167	23
3.52533	22
3.52900	22
3.53267	22
3.53633	22
3.54000	22
3.54367	22
3.54733	22
3.55100	22
3.55467	21
3.55833	21
3.56200	21
3.56567	21
3.56933	21
3.57300	21
3.57667	21
3.58033	22
3.58400	22
3.58767	22
3.59133	22
3.59500	22
3.59867	22
3.60233	22
3.60600	22
3.60967	22
3.61333	22
3.61700	22
3.62067	22
3.62433	22
3.62800	22
3.63167	22
3.63533	22
3.63900	22
3.64267	22
3.64633	22
3.65000	22
3.65367	22
3.65733	22
3.66100	22
3.66467	22
3.66833	22
3.67200	22
3.67567	22
3.67933	22
3.68300	22
3.68667	22
3.69033	22
3.69400	22
3.69767	23
3.70133	23
3.70500	23
3.70867	23
3.71233	23
3.71600	23
3.71967	23
3.72333	23
3.72700	23
3.73067	23
3.73433	23
3.73800	23
3.74167	23
3.74533	23
3.74900	23
3.75267	23
3.75633	23
3.76000	23
3.76367	23
3.76733	23
3.77100	23
3.77467	23
3.77833	23
3.78200	23
3.78567	23
3.78933	22
3.79300	22
3.79667	22
3.80033	22
3.80400	22
3.80767	22
3.81133	22
3.81500	22
3.81867	22
3.82233	21
3.82600	21
3.82967	21
3.83333	21
3.83700	21
3.84067	21
3.84433	21
3.84800	21
3.85167	21
3.85533	21
3.85900	21
3.86267	21
3.86633	21
3.87000	22
3.87367	22
3.87733	22
3.88100	22
3.88467	22
3.88833	22
3.89200	22
3.89567	22
3.89933	22
3.90300	22
3.90667	22
3.91033	22
3.91400	22
3.91767	23
3.92133	23
3.92500	23
3.92867	23
3.93233	23
3.93600	23
3.93967	22
3.94333	22
3.94700	22
3.95067	22
3.95433	22
3.95800	22
3.96167	23
3.96533	23
3.96900	23
3.97267	23
3.97633	23
3.98000	23
3.98367	22
3.98733	22
3.99100	23
3.99467	23
3.99833	23

[Chromatogram (Ch3)]
Interval(msec)	220
# of Points	1091
Start Time(min)	0.002
End Time(min)	3.998
R.Time (min)	Intensity
0.00167	-0
0.00533	1
0.00900	2
0.01267	2
0.01633	3
0.02000	1
0.02367	0
0.02733	-0
0.03100	1
0.03467	1
0.03833	1
0.04200	3
0.04567	4
0.04933	5
0.05300	5
0.05667	2
0.06033	3
0.06400	4
0.06767	5
0.07133	6
0.07500	6
0.07867	4
0.08233	3
0.08600	3
0.08967	2
0.09333	3
0.09700	5
0.10067	6
0.10433	4
0.10800	3
0.11167	3
0.11533	1
0.11900	-0
0.12267	-0
0.12633	1
0.13000	2
0.13367	1
0.13733	1
0.14100	2
0.14467	2
0.14833	2
0.15200	3
0.15567	5
0.15933	5
0.16300	7
0.16667	10
0.17033	9
0.17400	8
0.17767	5
0.18133	3
0.18500	5
0.18867	6
0.19233	5
0.19600	5
0.19967	4
0.20333	4
0.20700	3
0.21067	1
0.21433	1
0.21800	2
0.22167	3
0.22533	3
0.22900	4
0.23267	6
0.23633	9
0.24000	10
0.24367	12
0.24733	13
0.25100	11
0.25467	9
0.25833	7
0.26200	5
0.26567	5
0.26933	4
0.27300	1
0.27667	-2
0.28033	-2
0.28400	1
0.28767	5
0.29133	8
0.29500	8
0.29867	9
0.30233	7
0.30600	5
0.30967	5
0.31333	4
0.31700	4
0.32067	5
0.32433	6
0.32800	9
0.33167	11
0.33533	11
0.33900	9
0.34267	7
0.34633	7
0.35000	7
0.35367	7
0.35733	6
0.36100	7
0.36467	10
0.36833	10
0.37200	9
0.37567	8
0.37933	8
0.38300	8
0.38667	10
0.39033	11
0.39400	9
0.39767	6
0.40133	4
0.40500	2
0.40867	3
0.41233	3
0.41600	3
0.41967	2
0.42333	4
0.42700	6
0.43067	8
0.43433	9
0.43800	9
0.44167	8
0.44533	6
0.44900	4
0.45267	4
0.45633	4
0.46000	4
0.46367	3
0.46733	2
0.47100	2
0.47467	1
0.47833	1
0.48200	1
0.48567	1
0.48933	2
0.49300	3
0.49667	3
0.50033	4
0.50400	4
0.50767	6
0.51133	5
0.51500	1
0.51867	-2
0.52233	-3
0.52600	-4
0.52967	-2
0.53333	2
0.53700	3
0.54067	4
0.54433	8
0.54800	10
0.55167	9
0.55533	5
0.55900	3
0.56267	4
0.56633	6
0.57000	7
0.57367	8
0.57733	6
0.58100	5
0.58467	4
0.58833	4
0.59200	4
0.59567	3
0.59933	2
0.60300	3
0.60667	4
0.61033	3
0.61400	5
0.61767	3
0.62133	2
0.62500	3
0.62867	3
0.63233	5
0.63600	5
0.63967	3
0.64333	1
0.64700	-0
0.65067	0
0.65433	1
0.65800	1
0.66167	0
0.66533	-1
0.66900	-1
0.67267	-1
0.67633	0
0.68000	1
0.68367	1
0.68733	2
0.69100	3
0.69467	4
0.69833	4
0.70200	5
0.70567	5
0.70933	3
0.71300	2
0.71667	1
0.72033	2
0.72400	1
0.72767	0
0.73133	-0
0.73500	3
0.73867	5
0.74233	5
0.74600	4
0.74967	2
0.75333	1
0.75700	3
0.76067	4
0.76433	4
0.76800	4
0.77167	5
0.77533	6
0.77900	7
0.78267	8
0.78633	9
0.79000	9
0.79367	9
0.79733	10
0.80100	11
0.80467	10
0.80833	8
0.81200	8
0.81567	8
0.81933	7
0.82300	6
0.82667	6
0.83033	6
0.83400	4
0.83767	4
0.84133	5
0.84500	5
0.84867	3
0.85233	2
0.85600	2
0.85967	2
0.86333	1
0.86700	0
0.87067	2
0.87433	2
0.87800	2
0.88167	1
0.88533	2
0.88900	2
0.89267	3
0.89633	6
0.90000	6
0.90367	6
0.90733	7
0.91100	7
0.91467	6
0.91833	7
0.92200	7
0.92567	7
0.92933	8
0.93300	8
0.93667	5
0.94033	5
0.94400	5
0.94767	4
0.95133	1
0.95500	1
0.95867	1
0.96233	1
0.96600	5
0.96967	6
0.97333	4
0.97700	2
0.98067	-0
0.98433	0
0.98800	0
0.99167	1
0.99533	1
0.99900	0
1.00267	-1
1.00633	1
1.01000	3
1.01367	5
1.01733	6
1.02100	5
1.02467	4
1.02833	3
1.03200	4
1.03567	2
1.03933	1
1.04300	-1
1.04667	-4
1.05033	-4
1.05400	-3
1.05767	-3
1.06133	-3
1.06500	-3
1.06867	-2
1.07233	-2
1.07600	-1
1.07967	2
1.08333	3
1.08700	2
1.09067	0
1.09433	-2
1.09800	-3
1.10167	-1
1.10533	1
1.10900	3
1.11267	2
1.11633	1
1.12000	4
1.12367	4
1.12733	3
1.13100	2
1.13467	3
1.13833	3
1.14200	2
1.14567	0
1.14933	1
1.15300	3
1.15667	3
1.16033	4
1.16400	5
1.16767	5
1.17133	6
1.17500	6
1.17867	5
1.18233	5
1.18600	3
1.18967	1
1.19333	-3
1.19700	-6
1.20067	-6
1.20433	-6
1.20800	-4
1.21167	-3
1.21533	-2
1.21900	0
1.22267	1
1.22633	2
1.23000	3
1.23367	1
1.23733	0
1.24100	-0
1.24467	-2
1.24833	-0
1.25200	0
1.25567	-1
1.25933	-0
1.26300	1
1.26667	1
1.27033	1
1.27400	-1
1.27767	-4
1.28133	-3
1.28500	-2
1.28867	-2
1.29233	-3
1.29600	-4
1.29967	-3
1.30333	-2
1.30700	-3
1.31067	-4
1.31433	-3
1.31800	-1
1.32167	-2
1.32533	-5
1.32900	-7
1.33267	-7
1.33633	-6
1.34000	-6
1.34367	-6
1.34733	-6
1.35100	-5
1.35467	-5
1.35833	-6
1.36200	-6
1.36567	-6
1.36933	-6
1.37300	-4
1.37667	-2
1.38033	-3
1.38400	-4
1.38767	-4
1.39133	-3
1.39500	-3
1.39867	-1
1.40233	-0
1.40600	0
1.40967	1
1.41333	2
1.41700	1
1.42067	-1
1.42433	-2
1.42800	-0
1.43167	2
1.43533	2
1.43900	-1
1.44267	-2
1.44633	-4
1.45000	-6
1.45367	-6
1.45733	-8
1.46100	-8
1.46467	-9
1.46833	-10
1.47200	-10
1.47567	-9
1.47933	-9
1.48300	-9
1.48667	-7
1.49033	-5
1.49400	-2
1.49767	-3
1.50133	-5
1.50500	-6
1.50867	-7
1.51233	-6
1.51600	-4
1.51967	-6
1.52333	-7
1.52700	-9
1.53067	-9
1.53433	-8
1.53800	-8
1.54167	-10
1.54533	-10
1.54900	-9
1.55267	-7
1.55633	-5
1.56000	-3
1.56367	-1
1.56733	-2
1.57100	-6
1.57467	-8
1.57833	-8
1.58200	-5
1.58567	-4
1.58933	-5
1.59300	-6
1.59667	-6
1.60033	-5
1.60400	-4
1.60767	-3
1.61133	-2
1.61500	-4
1.61867	-6
1.62233	-6
1.62600	-6
1.62967	-7
1.63333	-7
1.63700	-8
1.64067	-9
1.64433	-9
1.64800	-8
1.65167	-6
1.65533	-4
1.65900	-3
1.66267	-2
1.66633	0
1.67000	4
1.67367	4
1.67733	5
1.68100	6
1.68467	6
1.68833	4
1.69200	2
1.69567	1
1.69933	0
1.70300	1
1.70667	2
1.71033	1
1.71400	2
1.71767	3
1.72133	5
1.72500	4
1.72867	4
1.73233	2
1.73600	4
1.73967	5
1.74333	5
1.74700	3
1.75067	4
1.75433	5
1.75800	6
1.76167	9
1.76533	11
1.76900	12
1.77267	13
1.77633	15
1.78000	17
1.78367	18
1.78733	17
1.79100	15
1.79467	16
1.79833	18
1.80200	22
1.80567	22
1.80933	21
1.81300	21
1.81667	21
1.82033	22
1.82400	21
1.82767	22
1.83133	23
1.83500	23
1.83867	24
1.84233	25
1.84600	22
1.84967	20
1.85333	20
1.85700	21
1.86067	22
1.86433	23
1.86800	23
1.87167	23
1.87533	23
1.87900	24
1.88267	26
1.88633	28
1.89000	31
1.89367	32
1.89733	33
1.90100	34
1.90467	37
1.90833	41
1.91200	43
1.91567	42
1.91933	41
1.92300	39
1.92667	40
1.93033	41
1.93400	42
1.93767	43
1.94133	43
1.94500	42
1.94867	44
1.95233	47
1.95600	47
1.95967	49
1.96333	50
1.96700	49
1.97067	47
1.97433	45
1.97800	46
1.98167	47
1.98533	49
1.98900	49
1.99267	48
1.99633	46
2.00000	45
2.00367	47
2.00733	48
2.01100	49
2.01467	49
2.01833	51
2.02200	53
2.02567	54
2.02933	56
2.03300	58
2.03667	61
2.04033	64
2.04400	65
2.04767	65
2.05133	64
2.05500	64
2.05867	66
2.06233	66
2.06600	65
2.06967	66
2.07333	67
2.07700	70
2.08067	71
2.08433	71
2.08800	71
2.09167	72
2.09533	73
2.09900	73
2.10267	73
2.10633	72
2.11000	71
2.11367	72
2.11733	74
2.12100	75
2.12467	75
2.12833	77
2.13200	80
2.13567	82
2.13933	83
2.14300	82
2.14667	82
2.15033	84
2.15400	87
2.15767	91
2.16133	94
2.16500	95
2.16867	96
2.17233	96
2.17600	94
2.17967	96
2.18333	100
2.18700	102
2.19067	103
2.19433	105
2.19800	108
2.20167	109
2.20533	109
2.20900	109
2.21267	110
2.21633	110
2.22000	112
2.22367	113
2.22733	112
2.23100	112
2.23467	114
2.23833	116
2.24200	116
2.24567	115
2.24933	115
2.25300	115
2.25667	115
2.26033	118
2.26400	121
2.26767	122
2.27133	123
2.27500	124
2.27867	126
2.28233	126
2.28600	126
2.28967	127
2.29333	128
2.29700	129
2.30067	130
2.30433	134
2.30800	137
2.31167	140
2.31533	140
2.31900	141
2.32267	142
2.32633	145
2.33000	147
2.33367	147
2.33733	148
2.34100	148
2.34467	148
2.34833	150
2.35200	154
2.35567	158
2.35933	161
2.36300	160
2.36667	160
2.37033	159
2.37400	159
2.37767	160
2.38133	158
2.38500	158
2.38867	158
2.39233	161
2.39600	166
2.39967	169
2.40333	171
2.40700	175
2.41067	178
2.41433	179
2.41800	180
2.42167	181
2.42533	180
2.42900	179
2.43267	178
2.43633	178
2.44000	182
2.44367	214
2.44733	282
2.45100	353
2.45467	394
2.45833	399
2.46200	384
2.46567	366
2.46933	348
2.47300	325
2.47667	294
2.48033	260
2.48400	226
2.48767	197
2.49133	173
2.49500	155
2.49867	144
2.50233	139
2.50600	142
2.50967	149
2.51333	151
2.51700	150
2.52067	141
2.52433	128
2.52800	113
2.53167	97
2.53533	81
2.53900	68
2.54267	59
2.54633	52
2.55000	45
2.55367	40
2.55733	38
2.56100	36
2.56467	34
2.56833	35
2.57200	36
2.57567	38
2.57933	43
2.58300	48
2.58667	53
2.59033	56
2.59400	60
2.59767	65
2.60133	69
2.60500	68
2.60867	59
2.61233	41
2.61600	17
2.61967	-14
2.62333	-48
2.62700	-84
2.63067	-121
2.63433	-154
2.63800	-182
2.64167	-205
2.64533	-224
2.64900	-236
2.65267	-244
2.65633	-248
2.66000	-249
2.66367	-248
2.66733	-241
2.67100	-233
2.67467	-223
2.67833	-214
2.68200	-204
2.68567	-194
2.68933	-185
2.69300	-175
2.69667	-166
2.70033	-159
2.70400	-154
2.70767	-148
2.71133	-140
2.71500	-133
2.71867	-125
2.72233	-119
2.72600	-114
2.72967	-110
2.73333	-104
2.73700	-98
2.74067	-92
2.74433	-88
2.74800	-85
2.75167	-81
2.75533	-81
2.75900	-80
2.76267	-74
2.76633	-67
2.77000	-62
2.77367	-58
2.77733	-54
2.78100	-48
2.78467	-42
2.78833	-34
2.79200	-27
2.79567	-23
2.79933	-20
2.80300	-18
2.80667	-15
2.81033	-13
2.81400	-10
2.81767	-7
2.82133	1
2.82500	22
2.82867	77
2.83233	203
2.83600	455
2.83967	904
2.84333	1625
2.84700	2679
2.85067	4082
2.85433	5798
2.85800	7740
2.86167	9779
2.86533	11766
2.86900	13544
2.87267	14976
2.87633	15968
2.88000	16474
2.88367	16512
2.88733	16142
2.89100	15444
2.89467	14507
2.89833	13425
2.90200	12273
2.90567	11104
2.90933	9963
2.91300	8877
2.91667	7863
2.92033	6934
2.92400	6093
2.92767	5338
2.93133	4663
2.93500	4063
2.93867	3532
2.94233	3065
2.94600	2653
2.94967	2296
2.95333	1985
2.95700	1713
2.96067	1476
2.96433	1270
2.96800	1090
2.97167	934
2.97533	800
2.97900	683
2.98267	583
2.98633	498
2.99000	426
2.99367	365
2.99733	312
3.00100	265
3.00467	227
3.00833	195
3.01200	167
3.01567	140
3.01933	114
3.02300	95
3.02667	79
3.03033	67
3.03400	57
3.03767	47
3.04133	41
3.04500	35
3.04867	30
3.05233	27
3.05600	22
3.05967	15
3.06333	10
3.06700	5
3.07067	1
3.07433	-2
3.07800	-3
3.08167	-1
3.08533	-2
3.08900	-6
3.09267	-9
3.09633	-11
3.10000	-10
3.10367	-13
3.10733	-17
3.11100	-22
3.11467	-34
3.11833	-54
3.12200	-70
3.12567	-77
3.12933	-72
3.13300	-57
3.13667	-35
3.14033	-6
3.14400	26
3.14767	59
3.15133	90
3.15500	121
3.15867	150
3.16233	180
3.16600	209
3.16967	236
3.17333	262
3.17700	286
3.18067	309
3.18433	333
3.18800	355
3.19167	377
3.19533	394
3.19900	409
3.20267	423
3.20633	436
3.21000	447
3.21367	456
3.21733	462
3.22100	470
3.22467	477
3.22833	483
3.23200	489
3.23567	494
3.23933	498
3.24300	498
3.24667	498
3.25033	500
3.25400	504
3.25767	509
3.26133	514
3.26500	516
3.26867	518
3.27233	519
3.27600	518
3.27967	517
3.28333	518
3.28700	518
3.29067	514
3.29433	512
3.29800	511
3.30167	512
3.30533	512
3.30900	513
3.31267	513
3.31633	510
3.32000	505
3.32367	500
3.32733	493
3.33100	488
3.33467	486
3.33833	485
3.34200	482
3.34567	481
3.34933	480
3.35300	477
3.35667	475
3.36033	472
3.36400	470
3.36767	467
3.37133	464
3.37500	462
3.37867	457
3.38233	452
3.38600	449
3.38967	446
3.39333	445
3.39700	444
3.40067	441
3.40433	439
3.40800	438
3.41167	435
3.41533	433
3.41900	431
3.42267	427
3.42633	423
3.43000	421
3.43367	418
3.43733	417
3.44100	414
3.44467	409
3.44833	407
3.45200	404
3.45567	404
3.45933	404
3.46300	402
3.46667	399
3.47033	396
3.47400	394
3.47767	393
3.48133	392
3.48500	389
3.48867	386
3.49233	384
3.49600	382
3.49967	380
3.50333	378
3.50700	375
3.51067	373
3.51433	372
3.51800	370
3.52167	369
3.52533	366
3.52900	364
3.53267	362
3.53633	358
3.54000	356
3.54367	354
3.54733	354
3.55100	351
3.55467	349
3.55833	349
3.56200	347
3.56567	344
3.56933	343
3.57300	341
3.57667	338
3.58033	338
3.58400	340
3.58767	339
3.59133	336
3.59500	335
3.59867	333
3.60233	329
3.60600	327
3.60967	326
3.61333	325
3.61700	325
3.62067	322
3.62433	318
3.62800	314
3.63167	316
3.63533	317
3.63900	317
3.64267	317
3.64633	317
3.65000	316
3.65367	318
3.65733	319
3.66100	316
3.66467	314
3.66833	315
3.67200	317
3.67567	317
3.67933	315
3.68300	313
3.68667	309
3.69033	305
3.69400	304
3.69767	304
3.70133	305
3.70500	305
3.70867	305
3.71233	305
3.71600	304
3.71967	303
3.72333	302
3.72700	300
3.73067	299
3.73433	298
3.73800	296
3.74167	293
3.74533	291
3.74900	290
3.75267	289
3.75633	289
3.76000	288
3.76367	288
3.76733	288
3.77100	287
3.77467	286
3.77833	284
3.78200	281
3.78567	280
3.78933	280
3.79300	281
3.79667	283
3.80033	284
3.80400	285
3.80767	286
3.81133	284
3.81500	282
3.81867	284
3.82233	287
3.82600	287
3.82967	285
3.83333	286
3.83700	285
3.84067	283
3.84433	282
3.84800	284
3.85167	285
3.85533	283
3.85900	283
3.86267	281
3.86633	280
3.87000	280
3.87367	280
3.87733	282
3.88100	285
3.88467	285
3.88833	285
3.89200	285
3.89567	285
3.89933	285
3.90300	285
3.90667	285
3.91033	284
3.91400	281
3.91767	281
3.92133	278
3.92500	275
3.92867	276
3.93233	276
3.93600	275
3.93967	273
3.94333	272
3.94700	273
3.95067	276
3.95433	278
3.95800	280
3.96167	280
3.96533	279
3.96900	278
3.97267	277
3.97633	275
3.98000	274
3.98367	272
3.98733	270
3.99100	270
3.99467	270
3.99833	268

[Status Trace (Column Oven Temperature)]
Interval(msec)	1000
# of Points	240
Start Time(min)	0.009
End Time(min)	3.992
Intensity Units	
Intensity Multiplier	1
R.Time (min)	Intensity
0.00863	35.03
0.02530	35.04
0.04197	35.03
0.05863	35.02
0.07530	35.01
0.09197	35.00
0.10863	35.00
0.12530	35.01
0.14197	35.00
0.15863	34.99
0.17530	34.99
0.19197	34.98
0.20863	34.98
0.22530	34.98
0.24197	34.99
0.25863	34.99
0.27530	34.99
0.29197	35.00
0.30863	35.00
0.32530	35.01
0.34197	35.01
0.35863	35.01
0.37530	35.01
0.39197	35.02
0.40863	35.01
0.42530	35.00
0.44197	34.99
0.45863	34.99
0.47530	34.99
0.49197	34.99
0.50863	34.98
0.52530	34.97
0.54197	34.98
0.55863	34.99
0.57530	34.99
0.59197	35.00
0.60863	34.99
0.62530	34.99
0.64197	34.99
0.65863	34.99
0.67530	34.98
0.69197	34.98
0.70863	34.99
0.72530	34.99
0.74197	35.00
0.75863	35.01
0.77530	35.00
0.79197	35.00
0.80863	35.00
0.82530	35.01
0.84197	35.00
0.85863	35.00
0.87530	35.00
0.89197	34.99
0.90863	34.98
0.92530	34.98
0.94197	34.99
0.95863	34.99
0.97530	35.00
0.99197	35.00
1.00863	35.00
1.02530	35.01
1.04197	35.01
1.05863	35.01
1.07530	35.00
1.09197	35.00
1.10863	35.00
1.12530	34.99
1.14197	34.99
1.15863	34.99
1.17530	35.00
1.19197	35.00
1.20863	35.00
1.22530	34.99
1.24197	34.99
1.25863	34.98
1.27530	34.97
1.29197	34.97
1.30863	34.98
1.32530	34.98
1.34197	34.99
1.35863	34.99
1.37530	34.99
1.39197	34.99
1.40863	34.99
1.42530	34.99
1.44197	34.99
1.45863	34.99
1.47530	34.99
1.49197	35.00
1.50863	35.00
1.52530	35.01
1.54197	35.02
1.55863	35.03
1.57530	35.03
1.59197	35.05
1.60863	35.10
1.62530	35.22
1.64197	35.40
1.65863	35.64
1.67530	35.97
1.69197	36.33
1.70863	36.68
1.72530	37.03
1.74197	37.36
1.75863	37.70
1.77530	38.03
1.79197	38.37
1.80863	38.69
1.82530	39.02
1.84197	39.34
1.85863	39.68
1.87530	40.01
1.89197	40.33
1.90863	40.65
1.92530	40.98
1.94197	41.30
1.95863	41.62
1.97530	41.95
1.99197	42.26
2.00863	42.59
2.02530	42.91
2.04197	43.24
2.05863	43.58
2.07530	43.90
2.09197	44.24
2.10863	44.53
2.12530	44.86
2.14197	45.18
2.15863	45.52
2.17530	45.83
2.19197	46.18
2.20863	46.53
2.22530	46.86
2.24197	47.18
2.25863	47.51
2.27530	47.85
2.29197	48.17
2.30863	48.51
2.32530	48.87
2.34197	49.16
2.35863	49.46
2.37530	49.67
2.39197	49.75
2.40863	49.75
2.42530	49.76
2.44197	49.75
2.45863	49.76
2.47530	49.77
2.49197	49.77
2.50863	49.80
2.52530	49.80
2.54197	49.81
2.55863	49.80
2.57530	49.81
2.59197	49.81
2.60863	49.82
2.62530	49.82
2.64197	49.83
2.65863	49.84
2.67530	49.84
2.69197	49.84
2.70863	49.85
2.72530	49.87
2.74197	49.87
2.75863	49.84
2.77530	49.85
2.79197	49.87
2.80863	49.88
2.82530	49.89
2.84197	49.89
2.85863	49.89
2.87530	49.89
2.89197	49.90
2.90863	49.90
2.92530	49.92
2.94197	49.94
2.95863	49.94
2.97530	49.95
2.99197	49.97
3.00863	49.98
3.02530	49.99
3.04197	50.01
3.05863	50.02
3.07530	50.01
3.09197	50.02
3.10863	50.02
3.12530	50.04
3.14197	50.04
3.15863	50.05
3.17530	50.05
3.19197	50.05
3.20863	50.05
3.22530	50.06
3.24197	50.06
3.25863	50.07
3.27530	50.08
3.29197	50.09
3.30863	50.09
3.32530	50.10
3.34197	50.10
3.35863	50.10
3.37530	50.10
3.39197	50.11
3.40863	50.11
3.42530	50.09
3.44197	50.09
3.45863	50.08
3.47530	50.08
3.49197	50.07
3.50863	50.06
3.52530	50.06
3.54197	50.06
3.55863	50.06
3.57530	50.06
3.59197	50.06
3.60863	50.07
3.62530	50.07
3.64197	50.06
3.65863	50.07
3.67530	50.07
3.69197	50.06
3.70863	50.06
3.72530	50.06
3.74197	50.06
3.75863	50.06
3.77530	50.06
3.79197	50.06
3.80863	50.06
3.82530	50.07
3.84197	50.07
3.85863	50.07
3.87530	50.07
3.89197	50.06
3.90863	50.07
3.92530	50.06
3.94197	50.06
3.95863	50.06
3.97530	50.07
3.99197	50.07

[Status Trace (Injection Unit Temperature)]
Interval(msec)	1000
# of Points	240
Start Time(min)	0.009
End Time(min)	3.992
Intensity Units	
Intensity Multiplier	1
R.Time (min)	Intensity
0.00863	99.99
0.02530	99.98
0.04197	99.98
0.05863	99.99
0.07530	99.99
0.09197	99.99
0.10863	99.98
0.12530	99.99
0.14197	99.99
0.15863	99.99
0.17530	99.99
0.19197	99.98
0.20863	99.99
0.22530	99.99
0.24197	99.99
0.25863	99.99
0.27530	99.99
0.29197	99.98
0.30863	99.99
0.32530	99.99
0.34197	99.99
0.35863	99.99
0.37530	99.99
0.39197	99.98
0.40863	99.99
0.42530	99.99
0.44197	99.98
0.45863	99.99
0.47530	99.99
0.49197	99.99
0.50863	99.99
0.52530	99.99
0.54197	99.99
0.55863	99.99
0.57530	99.99
0.59197	99.98
0.60863	99.98
0.62530	99.98
0.64197	99.98
0.65863	99.98
0.67530	99.98
0.69197	99.98
0.70863	99.98
0.72530	99.98
0.74197	99.98
0.75863	99.98
0.77530	99.99
0.79197	99.98
0.80863	99.98
0.82530	99.98
0.84197	99.98
0.85863	99.98
0.87530	99.98
0.89197	99.98
0.90863	99.98
0.92530	99.98
0.94197	99.98
0.95863	99.98
0.97530	99.98
0.99197	99.98
1.00863	99.98
1.02530	99.98
1.04197	99.98
1.05863	99.99
1.07530	99.98
1.09197	99.98
1.10863	99.98
1.12530	99.98
1.14197	99.98
1.15863	99.98
1.17530	99.99
1.19197	99.98
1.20863	99.98
1.22530	99.98
1.24197	99.99
1.25863	99.98
1.27530	99.98
1.29197	99.99
1.30863	99.99
1.32530	99.98
1.34197	99.99
1.35863	99.99
1.37530	99.99
1.39197	99.99
1.40863	99.98
1.42530	99.99
1.44197	99.98
1.45863	99.99
1.47530	99.99
1.49197	99.99
1.50863	99.99
1.52530	99.99
1.54197	99.99
1.55863	99.99
1.57530	99.99
1.59197	99.99
1.60863	99.99
1.62530	99.99
1.64197	99.99
1.65863	99.99
1.67530	99.99
1.69197	99.99
1.70863	99.98
1.72530	99.99
1.74197	99.99
1.75863	99.99
1.77530	99.99
1.79197	99.98
1.80863	99.98
1.82530	99.98
1.84197	99.98
1.85863	99.98
1.87530	99.98
1.89197	99.98
1.90863	99.98
1.92530	99.98
1.94197	99.98
1.95863	99.98
1.97530	99.98
1.99197	99.98
2.00863	99.98
2.02530	99.98
2.04197	99.98
2.05863	99.97
2.07530	99.98
2.09197	99.98
2.10863	99.98
2.12530	99.98
2.14197	99.98
2.15863	99.97
2.17530	99.97
2.19197	99.97
2.20863	99.97
2.22530	99.97
2.24197	99.97
2.25863	99.97
2.27530	99.97
2.29197	99.97
2.30863	99.97
2.32530	99.97
2.34197	99.97
2.35863	99.97
2.37530	99.97
2.39197	99.97
2.40863	99.96
2.42530	99.97
2.44197	99.97
2.45863	99.97
2.47530	99.97
2.49197	99.97
2.50863	99.97
2.52530	99.97
2.54197	99.97
2.55863	99.97
2.57530	99.97
2.59197	99.98
2.60863	99.98
2.62530	99.98
2.64197	99.98
2.65863	99.98
2.67530	99.98
2.69197	99.98
2.70863	99.99
2.72530	99.99
2.74197	99.99
2.75863	99.99
2.77530	99.99
2.79197	99.99
2.80863	99.99
2.82530	100.00
2.84197	99.99
2.85863	100.00
2.87530	100.00
2.89197	100.00
2.90863	100.00
2.92530	100.00
2.94197	100.01
2.95863	100.01
2.97530	100.01
2.99197	100.01
3.00863	100.01
3.02530	100.01
3.04197	100.01
3.05863	100.01
3.07530	100.02
3.09197	100.01
3.10863	100.01
3.12530	100.02
3.14197	100.02
3.15863	100.02
3.17530	100.03
3.19197	100.02
3.20863	100.02
3.22530	100.03
3.24197	100.03
3.25863	100.03
3.27530	100.03
3.29197	100.03
3.30863	100.03
3.32530	100.03
3.34197	100.03
3.35863	100.03
3.37530	100.03
3.39197	100.03
3.40863	100.03
3.42530	100.03
3.44197	100.03
3.45863	100.04
3.47530	100.04
3.49197	100.04
3.50863	100.04
3.52530	100.04
3.54197	100.04
3.55863	100.04
3.57530	100.04
3.59197	100.04
3.60863	100.05
3.62530	100.05
3.64197	100.05
3.65863	100.05
3.67530	100.05
3.69197	100.04
3.70863	100.05
3.72530	100.05
3.74197	100.04
3.75863	100.04
3.77530	100.05
3.79197	100.05
3.80863	100.05
3.82530	100.05
3.84197	100.05
3.85863	100.05
3.87530	100.05
3.89197	100.05
3.90863	100.05
3.92530	100.05
3.94197	100.05
3.95863	100.05
3.97530	100.05
3.99197	100.05

[Status Trace (Carrier Gas Pressure)]
Interval(msec)	1000
# of Points	240
Start Time(min)	0.009
End Time(min)	3.992
Intensity Units	
Intensity Multiplier	1
R.Time (min)	Intensity
0.00863	58.00
0.02530	55.31
0.04197	57.27
0.05863	59.34
0.07530	59.27
0.09197	58.03
0.10863	57.99
0.12530	58.01
0.14197	58.01
0.15863	58.00
0.17530	58.00
0.19197	58.00
0.20863	58.00
0.22530	58.00
0.24197	58.00
0.25863	58.00
0.27530	58.00
0.29197	58.00
0.30863	58.00
0.32530	58.00
0.34197	58.00
0.35863	58.00
0.37530	58.00
0.39197	58.00
0.40863	58.00
0.42530	58.00
0.44197	58.00
0.45863	58.00
0.47530	58.00
0.49197	58.00
0.50863	58.00
0.52530	58.00
0.54197	58.00
0.55863	58.00
0.57530	58.00
0.59197	58.00
0.60863	58.00
0.62530	58.00
0.64197	58.00
0.65863	58.00
0.67530	58.00
0.69197	58.00
0.70863	58.00
0.72530	58.00
0.74197	58.00
0.75863	58.00
0.77530	58.00
0.79197	58.00
0.80863	58.00
0.82530	58.00
0.84197	58.00
0.85863	58.00
0.87530	58.00
0.89197	58.00
0.90863	58.00
0.92530	58.00
0.94197	58.00
0.95863	58.00
0.97530	58.00
0.99197	58.00
1.00863	58.00
1.02530	58.00
1.04197	58.00
1.05863	58.00
1.07530	58.00
1.09197	58.00
1.10863	58.00
1.12530	58.00
1.14197	58.00
1.15863	58.00
1.17530	58.00
1.19197	58.00
1.20863	58.00
1.22530	58.00
1.24197	58.00
1.25863	58.00
1.27530	58.00
1.29197	58.00
1.30863	58.00
1.32530	58.00
1.34197	58.00
1.35863	58.00
1.37530	58.00
1.39197	58.00
1.40863	58.00
1.42530	58.00
1.44197	58.00
1.45863	58.00
1.47530	58.00
1.49197	58.00
1.50863	58.00
1.52530	58.00
1.54197	58.00
1.55863	58.00
1.57530	58.00
1.59197	58.00
1.60863	58.00
1.62530	58.00
1.64197	58.00
1.65863	58.00
1.67530	58.01
1.69197	58.00
1.70863	58.00
1.72530	58.00
1.74197	58.00
1.75863	58.00
1.77530	58.00
1.79197	58.00
1.80863	58.00
1.82530	58.00
1.84197	58.00
1.85863	58.00
1.87530	58.00
1.89197	58.00
1.90863	58.00
1.92530	58.00
1.94197	58.00
1.95863	58.00
1.97530	58.00
1.99197	58.00
2.00863	58.00
2.02530	58.00
2.04197	58.00
2.05863	58.00
2.07530	58.00
2.09197	58.00
2.10863	58.00
2.12530	58.00
2.14197	58.00
2.15863	58.00
2.17530	58.00
2.19197	58.00
2.20863	58.00
2.22530	58.00
2.24197	58.00
2.25863	58.00
2.27530	58.00
2.29197	58.00
2.30863	58.00
2.32530	58.00
2.34197	58.00
2.35863	58.00
2.37530	58.00
2.39197	57.99
2.40863	57.99
2.42530	58.00
2.44197	58.00
2.45863	58.00
2.47530	58.00
2.49197	58.00
2.50863	58.00
2.52530	57.97
2.54197	58.00
2.55863	58.00
2.57530	58.00
2.59197	58.00
2.60863	58.00
2.62530	58.00
2.64197	58.00
2.65863	58.00
2.67530	58.00
2.69197	58.00
2.70863	58.00
2.72530	58.00
2.74197	58.00
2.75863	58.00
2.77530	58.00
2.79197	58.00
2.80863	58.00
2.82530	58.00
2.84197	58.00
2.85863	58.00
2.87530	58.00
2.89197	58.00
2.90863	58.00
2.92530	58.00
2.94197	58.00
2.95863	58.00
2.97530	58.00
2.99197	58.00
3.00863	58.00
3.02530	58.00
3.04197	58.00
3.05863	58.00
3.07530	58.00
3.09197	58.00
3.10863	58.00
3.12530	58.00
3.14197	58.00
3.15863	58.00
3.17530	58.00
3.19197	58.00
3.20863	58.00
3.22530	58.00
3.24197	58.00
3.25863	58.00
3.27530	58.00
3.29197	58.00
3.30863	58.00
3.32530	58.00
3.34197	58.00
3.35863	58.00
3.37530	58.00
3.39197	58.00
3.40863	58.00
3.42530	58.00
3.44197	58.00
3.45863	58.00
3.47530	58.00
3.49197	58.00
3.50863	58.00
3.52530	58.00
3.54197	58.00
3.55863	58.00
3.57530	58.00
3.59197	58.00
3.60863	58.00
3.62530	58.00
3.64197	58.00
3.65863	58.00
3.67530	58.00
3.69197	58.00
3.70863	58.00
3.72530	58.00
3.74197	58.00
3.75863	58.00
3.77530	58.00
3.79197	58.00
3.80863	58.00
3.82530	58.00
3.84197	58.00
3.85863	58.00
3.87530	58.00
3.89197	58.00
3.90863	58.00
3.92530	58.00
3.94197	58.00
3.95863	58.00
3.97530	58.00
3.99197	58.00

[Status Trace (Carrier Gas Flow)]
Interval(msec)	1000
# of Points	240
Start Time(min)	0.009
End Time(min)	3.992
Intensity Units	
Intensity Multiplier	1
R.Time (min)	Intensity
0.00863	34.52
0.02530	34.54
0.04197	34.55
0.05863	34.55
0.07530	34.51
0.09197	34.52
0.10863	34.52
0.12530	34.52
0.14197	34.52
0.15863	34.52
0.17530	34.52
0.19197	34.52
0.20863	34.52
0.22530	34.52
0.24197	34.52
0.25863	34.52
0.27530	34.52
0.29197	34.52
0.30863	34.52
0.32530	34.52
0.34197	34.52
0.35863	34.52
0.37530	34.52
0.39197	34.52
0.40863	34.52
0.42530	34.52
0.44197	34.52
0.45863	34.52
0.47530	34.52
0.49197	34.52
0.50863	34.52
0.52530	34.52
0.54197	34.52
0.55863	34.52
0.57530	34.52
0.59197	34.52
0.60863	34.52
0.62530	34.52
0.64197	34.52
0.65863	34.52
0.67530	34.52
0.69197	34.52
0.70863	34.52
0.72530	34.52
0.74197	34.52
0.75863	34.51
0.77530	34.52
0.79197	34.52
0.80863	34.52
0.82530	34.52
0.84197	34.52
0.85863	34.52
0.87530	34.52
0.89197	34.52
0.90863	34.52
0.92530	34.52
0.94197	34.52
0.95863	34.52
0.97530	34.52
0.99197	34.52
1.00863	34.52
1.02530	34.52
1.04197	34.52
1.05863	34.52
1.07530	34.52
1.09197	34.52
1.10863	34.52
1.12530	34.52
1.14197	34.52
1.15863	34.52
1.17530	34.52
1.19197	34.52
1.20863	34.52
1.22530	34.52
1.24197	34.52
1.25863	34.52
1.27530	34.52
1.29197	34.52
1.30863	34.52
1.32530	34.52
1.34197	34.52
1.35863	34.52
1.37530	34.52
1.39197	34.52
1.40863	34.52
1.42530	34.52
1.44197	34.52
1.45863	34.52
1.47530	34.52
1.49197	34.52
1.50863	34.52
1.52530	34.52
1.54197	34.52
1.55863	34.52
1.57530	34.52
1.59197	34.52
1.60863	34.52
1.62530	34.52
1.64197	34.52
1.65863	34.52
1.67530	34.52
1.69197	34.52
1.70863	34.52
1.72530	34.52
1.74197	34.52
1.75863	34.52
1.77530	34.52
1.79197	34.52
1.80863	34.52
1.82530	34.52
1.84197	34.52
1.85863	34.52
1.87530	34.52
1.89197	34.52
1.90863	34.52
1.92530	34.52
1.94197	34.52
1.95863	34.52
1.97530	34.52
1.99197	34.52
2.00863	34.52
2.02530	34.52
2.04197	34.52
2.05863	34.52
2.07530	34.52
2.09197	34.52
2.10863	34.52
2.12530	34.52
2.14197	34.52
2.15863	34.52
2.17530	34.52
2.19197	34.52
2.20863	34.52
2.22530	34.52
2.24197	34.52
2.25863	34.52
2.27530	34.52
2.29197	34.52
2.30863	34.52
2.32530	34.52
2.34197	34.52
2.35863	34.52
2.37530	34.52
2.39197	34.52
2.40863	34.52
2.42530	34.52
2.44197	34.52
2.45863	34.52
2.47530	34.52
2.49197	34.52
2.50863	34.43
2.52530	34.52
2.54197	34.52
2.55863	34.52
2.57530	34.52
2.59197	34.52
2.60863	34.52
2.62530	34.52
2.64197	34.52
2.65863	34.52
2.67530	34.52
2.69197	34.52
2.70863	34.52
2.72530	34.52
2.74197	34.52
2.75863	34.52
2.77530	34.52
2.79197	34.52
2.80863	34.52
2.82530	34.52
2.84197	34.52
2.85863	34.52
2.87530	34.52
2.89197	34.52
2.90863	34.52
2.92530	34.52
2.94197	34.52
2.95863	34.52
2.97530	34.52
2.99197	34.52
3.00863	34.52
3.02530	34.52
3.04197	34.52
3.05863	34.52
3.07530	34.52
3.09197	34.52
3.10863	34.52
3.12530	34.52
3.14197	34.52
3.15863	34.52
3.17530	34.52
3.19197	34.52
3.20863	34.52
3.22530	34.52
3.24197	34.52
3.25863	34.52
3.27530	34.52
3.29197	34.52
3.30863	34.52
3.32530	34.52
3.34197	34.52
3.35863	34.52
3.37530	34.52
3.39197	34.52
3.40863	34.52
3.42530	34.52
3.44197	34.52
3.45863	34.52
3.47530	34.52
3.49197	34.52
3.50863	34.52
3.52530	34.52
3.54197	34.52
3.55863	34.52
3.57530	34.52
3.59197	34.52
3.60863	34.52
3.62530	34.52
3.64197	34.52
3.65863	34.52
3.67530	34.52
3.69197	34.52
3.70863	34.52
3.72530	34.52
3.74197	34.52
3.75863	34.52
3.77530	34.52
3.79197	34.51
3.80863	34.52
3.82530	34.52
3.84197	34.52
3.85863	34.52
3.87530	34.52
3.89197	34.52
3.90863	34.52
3.92530	34.52
3.94197	34.52
3.95863	34.52
3.97530	34.52
3.99197	34.52

[Status Trace (Column Flow)]
Interval(msec)	1000
# of Points	240
Start Time(min)	0.009
End Time(min)	3.992
Intensity Units	
Intensity Multiplier	1
R.Time (min)	Intensity
0.00863	5.46
0.02530	5.15
0.04197	5.38
0.05863	5.62
0.07530	5.61
0.09197	5.47
0.10863	5.46
0.12530	5.47
0.14197	5.46
0.15863	5.46
0.17530	5.46
0.19197	5.46
0.20863	5.46
0.22530	5.46
0.24197	5.46
0.25863	5.46
0.27530	5.46
0.29197	5.46
0.30863	5.46
0.32530	5.46
0.34197	5.46
0.35863	5.46
0.37530	5.46
0.39197	5.46
0.40863	5.46
0.42530	5.46
0.44197	5.46
0.45863	5.46
0.47530	5.46
0.49197	5.46
0.50863	5.46
0.52530	5.46
0.54197	5.46
0.55863	5.46
0.57530	5.46
0.59197	5.46
0.60863	5.46
0.62530	5.46
0.64197	5.46
0.65863	5.46
0.67530	5.46
0.69197	5.46
0.70863	5.46
0.72530	5.46
0.74197	5.46
0.75863	5.46
0.77530	5.46
0.79197	5.46
0.80863	5.46
0.82530	5.46
0.84197	5.46
0.85863	5.46
0.87530	5.46
0.89197	5.46
0.90863	5.46
0.92530	5.46
0.94197	5.46
0.95863	5.46
0.97530	5.46
0.99197	5.46
1.00863	5.46
1.02530	5.46
1.04197	5.46
1.05863	5.46
1.07530	5.46
1.09197	5.46
1.10863	5.46
1.12530	5.46
1.14197	5.46
1.15863	5.46
1.17530	5.46
1.19197	5.46
1.20863	5.46
1.22530	5.46
1.24197	5.46
1.25863	5.46
1.27530	5.46
1.29197	5.46
1.30863	5.46
1.32530	5.46
1.34197	5.46
1.35863	5.46
1.37530	5.46
1.39197	5.46
1.40863	5.46
1.42530	5.46
1.44197	5.46
1.45863	5.46
1.47530	5.46
1.49197	5.46
1.50863	5.46
1.52530	5.46
1.54197	5.46
1.55863	5.46
1.57530	5.46
1.59197	5.46
1.60863	5.46
1.62530	5.46
1.64197	5.45
1.65863	5.45
1.67530	5.44
1.69197	5.42
1.70863	5.41
1.72530	5.40
1.74197	5.39
1.75863	5.38
1.77530	5.37
1.79197	5.36
1.80863	5.35
1.82530	5.34
1.84197	5.33
1.85863	5.32
1.87530	5.31
1.89197	5.30
1.90863	5.29
1.92530	5.28
1.94197	5.27
1.95863	5.26
1.97530	5.25
1.99197	5.24
2.00863	5.24
2.02530	5.23
2.04197	5.22
2.05863	5.21
2.07530	5.20
2.09197	5.19
2.10863	5.18
2.12530	5.17
2.14197	5.16
2.15863	5.15
2.17530	5.14
2.19197	5.13
2.20863	5.12
2.22530	5.11
2.24197	5.10
2.25863	5.10
2.27530	5.09
2.29197	5.08
2.30863	5.07
2.32530	5.06
2.34197	5.05
2.35863	5.04
2.37530	5.03
2.39197	5.03
2.40863	5.03
2.42530	5.03
2.44197	5.03
2.45863	5.03
2.47530	5.03
2.49197	5.03
2.50863	5.03
2.52530	5.03
2.54197	5.03
2.55863	5.03
2.57530	5.03
2.59197	5.03
2.60863	5.03
2.62530	5.03
2.64197	5.03
2.65863	5.03
2.67530	5.03
2.69197	5.03
2.70863	5.03
2.72530	5.03
2.74197	5.03
2.75863	5.03
2.77530	5.03
2.79197	5.03
2.80863	5.03
2.82530	5.03
2.84197	5.03
2.85863	5.03
2.87530	5.03
2.89197	5.03
2.90863	5.03
2.92530	5.03
2.94197	5.03
2.95863	5.03
2.97530	5.03
2.99197	5.03
3.00863	5.03
3.02530	5.03
3.04197	5.02
3.05863	5.02
3.07530	5.02
3.09197	5.02
3.10863	5.02
3.12530	5.02
3.14197	5.02
3.15863	5.02
3.17530	5.02
3.19197	5.02
3.20863	5.02
3.22530	5.02
3.24197	5.02
3.25863	5.02
3.27530	5.02
3.29197	5.02
3.30863	5.02
3.32530	5.02
3.34197	5.02
3.35863	5.02
3.37530	5.02
3.39197	5.02
3.40863	5.02
3.42530	5.02
3.44197	5.02
3.45863	5.02
3.47530	5.02
3.49197	5.02
3.50863	5.02
3.52530	5.02
3.54197	5.02
3.55863	5.02
3.57530	5.02
3.59197	5.02
3.60863	5.02
3.62530	5.02
3.64197	5.02
3.65863	5.02
3.67530	5.02
3.69197	5.02
3.70863	5.02
3.72530	5.02
3.74197	5.02
3.75863	5.02
3.77530	5.02
3.79197	5.02
3.80863	5.02
3.82530	5.02
3.84197	5.02
3.85863	5.02
3.87530	5.02
3.89197	5.02
3.90863	5.02
3.92530	5.02
3.94197	5.02
3.95863	5.02
3.97530	5.02
3.99197	5.02

[Status Trace (Linear Velocity)]
Interval(msec)	1000
# of Points	240
Start Time(min)	0.009
End Time(min)	3.992
Intensity Units	
Intensity Multiplier	1
R.Time (min)	Intensity
0.00863	39.00
0.02530	37.23
0.04197	38.52
0.05863	39.88
0.07530	39.83
0.09197	39.02
0.10863	38.99
0.12530	39.01
0.14197	39.01
0.15863	39.01
0.17530	39.01
0.19197	39.01
0.20863	39.01
0.22530	39.01
0.24197	39.01
0.25863	39.01
0.27530	39.00
0.29197	39.00
0.30863	39.00
0.32530	39.00
0.34197	39.00
0.35863	39.00
0.37530	39.00
0.39197	39.00
0.40863	39.00
0.42530	39.00
0.44197	39.00
0.45863	39.00
0.47530	39.00
0.49197	39.00
0.50863	39.01
0.52530	39.01
0.54197	39.01
0.55863	39.00
0.57530	39.00
0.59197	39.00
0.60863	39.00
0.62530	39.00
0.64197	39.00
0.65863	39.00
0.67530	39.01
0.69197	39.00
0.70863	39.00
0.72530	39.00
0.74197	39.00
0.75863	39.00
0.77530	39.00
0.79197	39.00
0.80863	39.00
0.82530	39.00
0.84197	39.00
0.85863	39.00
0.87530	39.00
0.89197	39.00
0.90863	39.00
0.92530	39.01
0.94197	39.00
0.95863	39.00
0.97530	39.00
0.99197	39.00
1.00863	39.00
1.02530	39.00
1.04197	39.00
1.05863	39.00
1.07530	39.00
1.09197	39.00
1.10863	39.00
1.12530	39.00
1.14197	39.00
1.15863	39.00
1.17530	39.00
1.19197	39.00
1.20863	39.00
1.22530	39.00
1.24197	39.00
1.25863	39.01
1.27530	39.01
1.29197	39.01
1.30863	39.01
1.32530	39.00
1.34197	39.00
1.35863	39.00
1.37530	39.00
1.39197	39.00
1.40863	39.00
1.42530	39.00
1.44197	39.00
1.45863	39.00
1.47530	39.00
1.49197	39.00
1.50863	39.00
1.52530	39.00
1.54197	39.00
1.55863	39.00
1.57530	39.00
1.59197	39.00
1.60863	39.00
1.62530	38.99
1.64197	38.97
1.65863	38.95
1.67530	38.92
1.69197	38.88
1.70863	38.85
1.72530	38.81
1.74197	38.78
1.75863	38.75
1.77530	38.72
1.79197	38.68
1.80863	38.65
1.82530	38.62
1.84197	38.59
1.85863	38.56
1.87530	38.53
1.89197	38.50
1.90863	38.47
1.92530	38.44
1.94197	38.41
1.95863	38.38
1.97530	38.35
1.99197	38.32
2.00863	38.29
2.02530	38.26
2.04197	38.23
2.05863	38.20
2.07530	38.17
2.09197	38.14
2.10863	38.11
2.12530	38.08
2.14197	38.05
2.15863	38.02
2.17530	37.99
2.19197	37.96
2.20863	37.93
2.22530	37.90
2.24197	37.87
2.25863	37.84
2.27530	37.81
2.29197	37.78
2.30863	37.75
2.32530	37.72
2.34197	37.69
2.35863	37.67
2.37530	37.65
2.39197	37.64
2.40863	37.64
2.42530	37.64
2.44197	37.64
2.45863	37.64
2.47530	37.64
2.49197	37.64
2.50863	37.63
2.52530	37.62
2.54197	37.64
2.55863	37.64
2.57530	37.64
2.59197	37.64
2.60863	37.64
2.62530	37.64
2.64197	37.63
2.65863	37.63
2.67530	37.63
2.69197	37.63
2.70863	37.63
2.72530	37.63
2.74197	37.63
2.75863	37.63
2.77530	37.63
2.79197	37.63
2.80863	37.63
2.82530	37.63
2.84197	37.63
2.85863	37.63
2.87530	37.63
2.89197	37.63
2.90863	37.63
2.92530	37.63
2.94197	37.63
2.95863	37.62
2.97530	37.62
2.99197	37.62
3.00863	37.62
3.02530	37.62
3.04197	37.62
3.05863	37.62
3.07530	37.62
3.09197	37.62
3.10863	37.62
3.12530	37.62
3.14197	37.61
3.15863	37.62
3.17530	37.62
3.19197	37.62
3.20863	37.61
3.22530	37.61
3.24197	37.61
3.25863	37.61
3.27530	37.61
3.29197	37.61
3.30863	37.61
3.32530	37.61
3.34197	37.61
3.35863	37.61
3.37530	37.61
3.39197	37.61
3.40863	37.61
3.42530	37.61
3.44197	37.61
3.45863	37.61
3.47530	37.61
3.49197	37.61
3.50863	37.61
3.52530	37.61
3.54197	37.61
3.55863	37.61
3.57530	37.61
3.59197	37.61
3.60863	37.61
3.62530	37.61
3.64197	37.61
3.65863	37.61
3.67530	37.61
3.69197	37.61
3.70863	37.61
3.72530	37.61
3.74197	37.61
3.75863	37.61
3.77530	37.61
3.79197	37.61
3.80863	37.61
3.82530	37.61
3.84197	37.61
3.85863	37.61
3.87530	37.61
3.89197	37.61
3.90863	37.61
3.92530	37.61
3.94197	37.61
3.95863	37.61
3.97530	37.61
3.99197	37.61

