[Header]
Application Name	LabSolutions
Version	5.110
Data File Name	C:\Users\User\Desktop\GC Analyses\Jack\UIC Prairie Sampling\11.2.22\221102_078.gcd
Output Date	3/20/2023
Output Time	1:25:40 PM

[File Information]
Type	Data File
Generated	1/3/2023 12:53:28 PM
Generated by	System Administrator
Modified	1/3/2023 12:57:52 PM
Modified by	System Administrator

[Sample Information]
Operator Name	System Administrator
Acquired	1/3/2023 12:53:50 PM
Sample Type	1:Standard
Level	1
Sample Name	221102_UICPrairie
Sample ID	221102_UICPrairie
ISTD Amount1	1
ISTD Amount2	1
ISTD Amount3	1
ISTD Amount4	1
ISTD Amount5	1
ISTD Amount6	1
ISTD Amount7	1
ISTD Amount8	1
ISTD Amount9	1
ISTD Amount10	1
ISTD Amount11	1
ISTD Amount12	1
ISTD Amount13	1
ISTD Amount14	1
ISTD Amount15	1
ISTD Amount16	1
ISTD Amount17	1
ISTD Amount18	1
ISTD Amount19	1
ISTD Amount20	1
ISTD Amount21	1
ISTD Amount22	1
ISTD Amount23	1
ISTD Amount24	1
ISTD Amount25	1
ISTD Amount26	1
ISTD Amount27	1
ISTD Amount28	1
ISTD Amount29	1
ISTD Amount30	1
ISTD Amount31	1
ISTD Amount32	1
Sample Amount	1
Dilution Factor	1
Vial#	1
Injection Volume	1
Injection Count	1
Bar Code	

[Original Files]
Data File	C:\Users\User\Desktop\GC Analyses\Jack\UIC Prairie Sampling\11.2.22\221102_078.gcd
Method File	C:\LabSolutions\Data\GHG_4min_2022\ghg3_togas_w_acet_4 min_new_int.gcm
Batch File	
Report Format File	c:\LabSolutions\System\DEFAULT.lsr

[File Description]


[Configuration]
Instrument Name	C0B7VH3-Instrument1
Instrument #	1
Line #	1
# of Detectors	3
Detector ID	DET#1	DET#2	DET#3
Detector Name	FID	PTCD	ECD
# of Channels	1	1	1

[Peak Table(Ch1)]
# of Peaks	3
Peak#	R.Time	I.Time	F.Time	Area	Height	A/H	Conc.	Mark	ID#	Name	k'	Plate #	Plate Ht.	Tailing	Resolution	Sep.Factor	Area Ratio	Height Ratio	Conc. %	Norm Conc.
1	1.476	1.439	1.538	12253	5559	2.204	100.000	   	1	CO	0.000	8755	17.133	1.310	0.000	0.000	0	0	16.667	16.667
2	1.567	1.538	1.626	4982	2487	2.003	100.000	 V 	2	CH4	0.062	11115	13.496	1.150	1.496	0.000	0	0	16.667	16.667
3	2.000	1.952	2.543	1229946	583121	2.109	400.000	   	3	CO2	0.355	17798	8.428	1.204	7.245	5.720	0	0	66.667	66.667

[Peak Table(Ch2)]
# of Peaks	0

[Peak Table(Ch3)]
# of Peaks	5
Peak#	R.Time	I.Time	F.Time	Area	Height	A/H	Conc.	Mark	ID#	Name	k'	Plate #	Plate Ht.	Tailing	Resolution	Sep.Factor	Area Ratio	Height Ratio	Conc. %	Norm Conc.
1	2.458	2.279	2.510	1501	336	4.462	0.000	   			0.000	11228	13.359	0.000	0.000	0.000	0	0	0.000	0.000
2	2.521	2.510	2.587	393	137	2.862	0.000	 V 			0.025	3555	42.192	0.000	0.476	0.000	0	0	0.000	0.000
3	2.598	2.587	2.609	54	56	0.952	0.000	 V 			0.057	10580	14.177	0.000	0.570	2.235	0	0	0.000	0.000
4	2.737	2.612	2.825	5600	571	9.800	0.204	   	1	N2O	0.113	816	183.881	0.000	0.575	2.000	0	0	20.371	20.371
5	2.884	2.825	3.199	21891	5159	4.244	0.796	 V 	1	N2O	0.173	12656	11.853	0.000	0.604	1.526	0	0	79.629	79.629

[Compound Results(Ch1)]
# of IDs	6
ID#	Name	R.Time	Area	Height	Conc.	Curve	3rd	2nd	1st	Constant	Area Ratio	Height Ratio	Conc. %	Norm Conc.
1	CO	1.476	12253	5559	100.000	Linear	0.000000e+00	0.000000e+00	1.225306e+002	0.000000e+00	0	0	16.667	16.667
2	CH4	1.567	4982	2487	100.000	Linear	0.000000e+00	0.000000e+00	4.981903e+001	0.000000e+00	0	0	16.667	16.667
3	CO2	2.000	1229946	583121	400.000	Linear	0.000000e+00	0.000000e+00	3.074864e+003	0.000000e+00	0	0	66.667	66.667
4	Ethylene	0.000	0	0	0.000	Linear	0.000000e+00	0.000000e+00	0.000000e+00	0.000000e+00	0	0	0.000	0.000
5	Acetylene	0.000	0	0	0.000	Linear	0.000000e+00	0.000000e+00	0.000000e+00	0.000000e+00	0	0	0.000	0.000
6	Ethane	0.000	0	0	0.000	Linear	0.000000e+00	0.000000e+00	0.000000e+00	0.000000e+00	0	0	0.000	0.000

[Compound Results(Ch2)]
# of IDs	5
ID#	Name	R.Time	Area	Height	Conc.	Curve	3rd	2nd	1st	Constant	Area Ratio	Height Ratio	Conc. %	Norm Conc.
1	Hydrogen	0.000	0	0	0.000	Linear	0.000000e+00	0.000000e+00	0.000000e+00	0.000000e+00	0	0	0.000	0.000
2	Oxygen	0.000	0	0	0.000	Linear	0.000000e+00	0.000000e+00	0.000000e+00	0.000000e+00	0	0	0.000	0.000
3	Nitrogen	0.000	0	0	0.000	Linear	0.000000e+00	0.000000e+00	0.000000e+00	0.000000e+00	0	0	0.000	0.000
4	Methane	0.000	0	0	0.000	Linear	0.000000e+00	0.000000e+00	0.000000e+00	0.000000e+00	0	0	0.000	0.000
5	Carbon Monoxide	0.000	0	0	0.000	Linear	0.000000e+00	0.000000e+00	0.000000e+00	0.000000e+00	0	0	0.000	0.000

[Compound Results(Ch3)]
# of IDs	2
ID#	Name	R.Time	Area	Height	Conc.	Curve	3rd	2nd	1st	Constant	Area Ratio	Height Ratio	Conc. %	Norm Conc.
1	N2O	2.884	27492	5730	1.000	Linear	0.000000e+00	0.000000e+00	2.749160e+004	0.000000e+00	0	0	100.000	100.000
2	SF6	0.000	0	0	0.000	Linear	0.000000e+00	0.000000e+00	0.000000e+00	0.000000e+00	0	0	0.000	0.000

[Group Results(Ch1)]
# of Groups	0

[Group Results(Ch2)]
# of Groups	0

[Group Results(Ch3)]
# of Groups	0

[Chromatogram (Ch1)]
Interval(msec)	220
# of Points	1091
Start Time(min)	0.002
End Time(min)	3.998
R.Time (min)	Intensity
0.00167	1
0.00533	4
0.00900	5
0.01267	5
0.01633	4
0.02000	1
0.02367	-5
0.02733	-10
0.03100	-14
0.03467	-16
0.03833	-17
0.04200	-16
0.04567	-14
0.04933	-12
0.05300	-10
0.05667	-8
0.06033	-7
0.06400	-8
0.06767	-8
0.07133	-9
0.07500	-8
0.07867	-10
0.08233	-15
0.08600	-17
0.08967	-17
0.09333	-15
0.09700	-17
0.10067	-23
0.10433	-28
0.10800	-31
0.11167	-32
0.11533	-34
0.11900	-34
0.12267	-33
0.12633	-28
0.13000	-20
0.13367	-13
0.13733	-8
0.14100	-6
0.14467	-8
0.14833	-14
0.15200	-21
0.15567	-25
0.15933	-25
0.16300	-25
0.16667	-28
0.17033	-27
0.17400	-23
0.17767	-21
0.18133	-21
0.18500	-20
0.18867	-17
0.19233	-16
0.19600	-20
0.19967	-25
0.20333	-30
0.20700	-34
0.21067	-34
0.21433	-30
0.21800	-27
0.22167	-22
0.22533	-17
0.22900	-13
0.23267	-13
0.23633	-18
0.24000	-25
0.24367	-32
0.24733	-40
0.25100	-44
0.25467	-38
0.25833	-27
0.26200	-15
0.26567	-12
0.26933	-15
0.27300	-17
0.27667	-19
0.28033	-24
0.28400	-33
0.28767	-44
0.29133	-48
0.29500	-43
0.29867	-37
0.30233	-27
0.30600	-19
0.30967	-16
0.31333	-22
0.31700	-32
0.32067	-40
0.32433	-46
0.32800	-49
0.33167	-47
0.33533	-42
0.33900	-36
0.34267	-36
0.34633	-35
0.35000	-30
0.35367	-25
0.35733	-28
0.36100	-37
0.36467	-44
0.36833	-48
0.37200	-49
0.37567	-49
0.37933	-48
0.38300	-52
0.38667	-50
0.39033	-47
0.39400	-48
0.39767	-45
0.40133	-34
0.40500	-23
0.40867	-23
0.41233	-28
0.41600	-28
0.41967	-22
0.42333	-23
0.42700	-30
0.43067	-39
0.43433	-47
0.43800	-50
0.44167	-48
0.44533	-45
0.44900	-44
0.45267	-44
0.45633	-45
0.46000	-46
0.46367	-46
0.46733	-49
0.47100	-53
0.47467	-56
0.47833	-57
0.48200	-55
0.48567	-53
0.48933	-53
0.49300	-54
0.49667	-58
0.50033	-62
0.50400	-62
0.50767	-60
0.51133	-57
0.51500	-56
0.51867	-56
0.52233	-58
0.52600	-60
0.52967	-63
0.53333	-65
0.53700	-65
0.54067	-63
0.54433	-62
0.54800	-64
0.55167	-60
0.55533	-53
0.55900	-46
0.56267	-38
0.56633	-33
0.57000	-32
0.57367	-31
0.57733	-34
0.58100	-42
0.58467	-50
0.58833	-61
0.59200	-71
0.59567	-78
0.59933	-82
0.60300	-84
0.60667	-87
0.61033	-87
0.61400	-82
0.61767	-72
0.62133	-64
0.62500	-60
0.62867	-60
0.63233	-62
0.63600	-64
0.63967	-68
0.64333	-73
0.64700	-76
0.65067	-80
0.65433	-83
0.65800	-84
0.66167	-82
0.66533	-82
0.66900	-82
0.67267	-79
0.67633	-77
0.68000	-75
0.68367	-72
0.68733	-71
0.69100	-71
0.69467	-74
0.69833	-75
0.70200	-73
0.70567	-67
0.70933	-63
0.71300	-61
0.71667	-59
0.72033	-62
0.72400	-65
0.72767	-67
0.73133	-69
0.73500	-70
0.73867	-72
0.74233	-69
0.74600	-70
0.74967	-73
0.75333	-80
0.75700	-84
0.76067	-89
0.76433	-95
0.76800	-97
0.77167	-95
0.77533	-94
0.77900	-90
0.78267	-88
0.78633	-89
0.79000	-91
0.79367	-89
0.79733	-81
0.80100	-72
0.80467	-66
0.80833	-65
0.81200	-67
0.81567	-69
0.81933	-70
0.82300	-72
0.82667	-76
0.83033	-80
0.83400	-83
0.83767	-83
0.84133	-79
0.84500	-72
0.84867	-69
0.85233	-77
0.85600	-88
0.85967	-98
0.86333	-106
0.86700	-111
0.87067	-115
0.87433	-115
0.87800	-114
0.88167	-109
0.88533	-102
0.88900	-95
0.89267	-91
0.89633	-89
0.90000	-87
0.90367	-87
0.90733	-90
0.91100	-95
0.91467	-100
0.91833	-103
0.92200	-102
0.92567	-99
0.92933	-95
0.93300	-94
0.93667	-95
0.94033	-99
0.94400	-97
0.94767	-93
0.95133	-91
0.95500	-92
0.95867	-92
0.96233	-89
0.96600	-84
0.96967	-79
0.97333	-82
0.97700	-87
0.98067	-92
0.98433	-92
0.98800	-94
0.99167	-100
0.99533	-107
0.99900	-114
1.00267	-119
1.00633	-118
1.01000	-115
1.01367	-111
1.01733	-106
1.02100	-99
1.02467	-94
1.02833	-89
1.03200	-89
1.03567	-93
1.03933	-97
1.04300	-101
1.04667	-103
1.05033	-104
1.05400	-100
1.05767	-98
1.06133	-98
1.06500	-99
1.06867	-101
1.07233	-103
1.07600	-106
1.07967	-110
1.08333	-114
1.08700	-119
1.09067	-120
1.09433	-116
1.09800	-107
1.10167	-101
1.10533	-103
1.10900	-108
1.11267	-111
1.11633	-116
1.12000	-123
1.12367	-128
1.12733	-127
1.13100	-125
1.13467	-126
1.13833	-129
1.14200	-127
1.14567	-124
1.14933	-124
1.15300	-122
1.15667	-115
1.16033	-108
1.16400	-107
1.16767	-110
1.17133	-111
1.17500	-108
1.17867	-107
1.18233	-111
1.18600	-118
1.18967	-124
1.19333	-130
1.19700	-131
1.20067	-129
1.20433	-127
1.20800	-127
1.21167	-127
1.21533	-131
1.21900	-135
1.22267	-136
1.22633	-137
1.23000	-142
1.23367	-145
1.23733	-145
1.24100	-142
1.24467	-139
1.24833	-138
1.25200	-136
1.25567	-130
1.25933	-124
1.26300	-123
1.26667	-124
1.27033	-127
1.27400	-133
1.27767	-130
1.28133	-126
1.28500	-125
1.28867	-129
1.29233	-133
1.29600	-135
1.29967	-135
1.30333	-131
1.30700	-129
1.31067	-127
1.31433	-129
1.31800	-132
1.32167	-136
1.32533	-138
1.32900	-137
1.33267	-139
1.33633	-140
1.34000	-143
1.34367	-144
1.34733	-139
1.35100	-136
1.35467	-132
1.35833	-127
1.36200	-125
1.36567	-130
1.36933	-141
1.37300	-150
1.37667	-155
1.38033	-158
1.38400	-158
1.38767	-158
1.39133	-159
1.39500	-157
1.39867	-154
1.40233	-153
1.40600	-152
1.40967	-153
1.41333	-152
1.41700	-149
1.42067	-143
1.42433	-140
1.42800	-139
1.43167	-144
1.43533	-148
1.43900	-137
1.44267	-59
1.44633	126
1.45000	441
1.45367	977
1.45733	1803
1.46100	2803
1.46467	3774
1.46833	4575
1.47200	5142
1.47567	5423
1.47933	5361
1.48300	4952
1.48667	4270
1.49033	3462
1.49400	2671
1.49767	1984
1.50133	1431
1.50500	1008
1.50867	699
1.51233	482
1.51600	328
1.51967	216
1.52333	132
1.52700	70
1.53067	26
1.53433	-4
1.53800	-13
1.54167	35
1.54533	204
1.54900	536
1.55267	990
1.55633	1469
1.56000	1881
1.56367	2184
1.56733	2352
1.57100	2351
1.57467	2162
1.57833	1830
1.58200	1426
1.58567	1037
1.58933	707
1.59300	448
1.59667	254
1.60033	114
1.60400	14
1.60767	-54
1.61133	-95
1.61500	-115
1.61867	-121
1.62233	-126
1.62600	-134
1.62967	-138
1.63333	-135
1.63700	-127
1.64067	-123
1.64433	-124
1.64800	-130
1.65167	-135
1.65533	-140
1.65900	-144
1.66267	-153
1.66633	-155
1.67000	-153
1.67367	-157
1.67733	-162
1.68100	-167
1.68467	-168
1.68833	-166
1.69200	-164
1.69567	-162
1.69933	-163
1.70300	-164
1.70667	-164
1.71033	-165
1.71400	-165
1.71767	-168
1.72133	-170
1.72500	-170
1.72867	-173
1.73233	-173
1.73600	-172
1.73967	-171
1.74333	-174
1.74700	-178
1.75067	-172
1.75433	-168
1.75800	-165
1.76167	-162
1.76533	-159
1.76900	-153
1.77267	-144
1.77633	-140
1.78000	-140
1.78367	-144
1.78733	-151
1.79100	-158
1.79467	-165
1.79833	-168
1.80200	-165
1.80567	-156
1.80933	-147
1.81300	-144
1.81667	-147
1.82033	-151
1.82400	-155
1.82767	-159
1.83133	-162
1.83500	-163
1.83867	-165
1.84233	-165
1.84600	-162
1.84967	-159
1.85333	-153
1.85700	-140
1.86067	-122
1.86433	-113
1.86800	-112
1.87167	-118
1.87533	-126
1.87900	-136
1.88267	-148
1.88633	-159
1.89000	-167
1.89367	-171
1.89733	-170
1.90100	-168
1.90467	-165
1.90833	-163
1.91200	-164
1.91567	-167
1.91933	-169
1.92300	-171
1.92667	-172
1.93033	-169
1.93400	-162
1.93767	-154
1.94133	-146
1.94500	-144
1.94867	-142
1.95233	-136
1.95600	-88
1.95967	228
1.96333	1825
1.96700	7918
1.97067	25582
1.97433	65165
1.97800	134719
1.98167	232376
1.98533	344345
1.98900	450901
1.99267	533751
1.99633	579911
2.00000	583018
2.00367	544698
2.00733	474936
2.01100	389006
2.01467	302135
2.01833	225083
2.02200	162805
2.02567	115684
2.02933	81636
2.03300	57767
2.03667	41341
2.04033	30133
2.04400	22494
2.04767	17259
2.05133	13627
2.05500	11065
2.05867	9218
2.06233	7854
2.06600	6820
2.06967	6021
2.07333	5392
2.07700	4884
2.08067	4459
2.08433	4096
2.08800	3784
2.09167	3514
2.09533	3277
2.09900	3066
2.10267	2878
2.10633	2710
2.11000	2563
2.11367	2432
2.11733	2312
2.12100	2202
2.12467	2103
2.12833	2013
2.13200	1930
2.13567	1849
2.13933	1770
2.14300	1693
2.14667	1617
2.15033	1544
2.15400	1478
2.15767	1422
2.16133	1372
2.16500	1328
2.16867	1286
2.17233	1247
2.17600	1210
2.17967	1173
2.18333	1136
2.18700	1099
2.19067	1068
2.19433	1039
2.19800	1012
2.20167	985
2.20533	957
2.20900	931
2.21267	907
2.21633	883
2.22000	859
2.22367	837
2.22733	817
2.23100	801
2.23467	786
2.23833	771
2.24200	752
2.24567	731
2.24933	709
2.25300	690
2.25667	676
2.26033	666
2.26400	656
2.26767	642
2.27133	630
2.27500	618
2.27867	605
2.28233	591
2.28600	582
2.28967	576
2.29333	567
2.29700	556
2.30067	541
2.30433	525
2.30800	508
2.31167	488
2.31533	469
2.31900	456
2.32267	448
2.32633	443
2.33000	435
2.33367	431
2.33733	432
2.34100	435
2.34467	433
2.34833	428
2.35200	422
2.35567	415
2.35933	409
2.36300	402
2.36667	395
2.37033	390
2.37400	385
2.37767	381
2.38133	375
2.38500	365
2.38867	358
2.39233	352
2.39600	352
2.39967	358
2.40333	366
2.40700	374
2.41067	379
2.41433	379
2.41800	372
2.42167	364
2.42533	355
2.42900	347
2.43267	338
2.43633	328
2.44000	319
2.44367	312
2.44733	308
2.45100	307
2.45467	306
2.45833	304
2.46200	301
2.46567	297
2.46933	292
2.47300	289
2.47667	286
2.48033	287
2.48400	286
2.48767	283
2.49133	281
2.49500	282
2.49867	285
2.50233	285
2.50600	280
2.50967	274
2.51333	270
2.51700	267
2.52067	266
2.52433	265
2.52800	263
2.53167	261
2.53533	257
2.53900	256
2.54267	257
2.54633	262
2.55000	268
2.55367	271
2.55733	269
2.56100	263
2.56467	254
2.56833	248
2.57200	246
2.57567	248
2.57933	250
2.58300	246
2.58667	240
2.59033	236
2.59400	235
2.59767	236
2.60133	239
2.60500	242
2.60867	244
2.61233	247
2.61600	246
2.61967	240
2.62333	237
2.62700	231
2.63067	234
2.63433	233
2.63800	231
2.64167	227
2.64533	225
2.64900	225
2.65267	226
2.65633	224
2.66000	222
2.66367	217
2.66733	214
2.67100	210
2.67467	208
2.67833	207
2.68200	206
2.68567	206
2.68933	204
2.69300	205
2.69667	203
2.70033	199
2.70400	196
2.70767	196
2.71133	199
2.71500	207
2.71867	215
2.72233	218
2.72600	219
2.72967	219
2.73333	219
2.73700	215
2.74067	206
2.74433	209
2.74800	212
2.75167	214
2.75533	216
2.75900	217
2.76267	215
2.76633	212
2.77000	210
2.77367	209
2.77733	211
2.78100	214
2.78467	219
2.78833	221
2.79200	222
2.79567	218
2.79933	212
2.80300	206
2.80667	200
2.81033	197
2.81400	199
2.81767	206
2.82133	214
2.82500	222
2.82867	228
2.83233	230
2.83600	229
2.83967	225
2.84333	222
2.84700	218
2.85067	214
2.85433	208
2.85800	204
2.86167	204
2.86533	206
2.86900	204
2.87267	200
2.87633	198
2.88000	201
2.88367	205
2.88733	205
2.89100	202
2.89467	198
2.89833	197
2.90200	198
2.90567	196
2.90933	195
2.91300	194
2.91667	198
2.92033	203
2.92400	207
2.92767	212
2.93133	215
2.93500	216
2.93867	217
2.94233	220
2.94600	223
2.94967	222
2.95333	219
2.95700	216
2.96067	216
2.96433	216
2.96800	218
2.97167	216
2.97533	212
2.97900	207
2.98267	205
2.98633	204
2.99000	206
2.99367	214
2.99733	223
3.00100	230
3.00467	233
3.00833	232
3.01200	231
3.01567	229
3.01933	225
3.02300	219
3.02667	212
3.03033	206
3.03400	204
3.03767	204
3.04133	203
3.04500	202
3.04867	200
3.05233	200
3.05600	199
3.05967	197
3.06333	195
3.06700	190
3.07067	184
3.07433	180
3.07800	178
3.08167	179
3.08533	184
3.08900	189
3.09267	194
3.09633	199
3.10000	200
3.10367	197
3.10733	192
3.11100	187
3.11467	185
3.11833	185
3.12200	186
3.12567	187
3.12933	185
3.13300	179
3.13667	177
3.14033	171
3.14400	170
3.14767	175
3.15133	180
3.15500	186
3.15867	192
3.16233	193
3.16600	194
3.16967	194
3.17333	189
3.17700	183
3.18067	175
3.18433	168
3.18800	165
3.19167	166
3.19533	168
3.19900	170
3.20267	172
3.20633	172
3.21000	172
3.21367	173
3.21733	176
3.22100	181
3.22467	186
3.22833	185
3.23200	182
3.23567	175
3.23933	171
3.24300	167
3.24667	168
3.25033	169
3.25400	171
3.25767	175
3.26133	175
3.26500	170
3.26867	162
3.27233	157
3.27600	158
3.27967	161
3.28333	162
3.28700	161
3.29067	157
3.29433	152
3.29800	149
3.30167	145
3.30533	142
3.30900	138
3.31267	134
3.31633	133
3.32000	137
3.32367	141
3.32733	144
3.33100	145
3.33467	142
3.33833	134
3.34200	126
3.34567	124
3.34933	128
3.35300	132
3.35667	136
3.36033	136
3.36400	135
3.36767	128
3.37133	128
3.37500	131
3.37867	133
3.38233	137
3.38600	136
3.38967	134
3.39333	129
3.39700	129
3.40067	139
3.40433	151
3.40800	159
3.41167	161
3.41533	162
3.41900	162
3.42267	155
3.42633	146
3.43000	134
3.43367	123
3.43733	119
3.44100	112
3.44467	106
3.44833	111
3.45200	125
3.45567	135
3.45933	140
3.46300	138
3.46667	135
3.47033	128
3.47400	118
3.47767	112
3.48133	109
3.48500	102
3.48867	101
3.49233	109
3.49600	114
3.49967	117
3.50333	117
3.50700	116
3.51067	116
3.51433	117
3.51800	117
3.52167	117
3.52533	117
3.52900	121
3.53267	123
3.53633	121
3.54000	119
3.54367	113
3.54733	108
3.55100	104
3.55467	101
3.55833	102
3.56200	105
3.56567	109
3.56933	113
3.57300	113
3.57667	110
3.58033	108
3.58400	110
3.58767	113
3.59133	115
3.59500	114
3.59867	108
3.60233	98
3.60600	89
3.60967	85
3.61333	84
3.61700	86
3.62067	91
3.62433	95
3.62800	100
3.63167	104
3.63533	105
3.63900	105
3.64267	106
3.64633	109
3.65000	112
3.65367	113
3.65733	111
3.66100	107
3.66467	105
3.66833	101
3.67200	96
3.67567	91
3.67933	89
3.68300	88
3.68667	88
3.69033	91
3.69400	96
3.69767	101
3.70133	103
3.70500	104
3.70867	104
3.71233	101
3.71600	91
3.71967	82
3.72333	73
3.72700	71
3.73067	77
3.73433	84
3.73800	88
3.74167	90
3.74533	89
3.74900	89
3.75267	89
3.75633	86
3.76000	81
3.76367	75
3.76733	70
3.77100	69
3.77467	68
3.77833	68
3.78200	67
3.78567	64
3.78933	61
3.79300	62
3.79667	65
3.80033	65
3.80400	65
3.80767	68
3.81133	72
3.81500	75
3.81867	76
3.82233	75
3.82600	72
3.82967	70
3.83333	67
3.83700	65
3.84067	66
3.84433	70
3.84800	76
3.85167	79
3.85533	81
3.85900	80
3.86267	79
3.86633	77
3.87000	76
3.87367	75
3.87733	74
3.88100	70
3.88467	64
3.88833	56
3.89200	50
3.89567	50
3.89933	53
3.90300	56
3.90667	60
3.91033	66
3.91400	69
3.91767	66
3.92133	60
3.92500	59
3.92867	59
3.93233	61
3.93600	64
3.93967	65
3.94333	63
3.94700	62
3.95067	63
3.95433	64
3.95800	62
3.96167	56
3.96533	50
3.96900	48
3.97267	48
3.97633	48
3.98000	49
3.98367	51
3.98733	54
3.99100	57
3.99467	62
3.99833	63

[Chromatogram (Ch2)]
Interval(msec)	220
# of Points	1091
Start Time(min)	0.002
End Time(min)	3.998
R.Time (min)	Intensity
0.00167	-0
0.00533	-0
0.00900	-0
0.01267	-0
0.01633	-1
0.02000	-0
0.02367	-0
0.02733	-0
0.03100	-0
0.03467	-0
0.03833	0
0.04200	0
0.04567	1
0.04933	1
0.05300	1
0.05667	1
0.06033	1
0.06400	1
0.06767	1
0.07133	1
0.07500	1
0.07867	1
0.08233	1
0.08600	1
0.08967	2
0.09333	2
0.09700	2
0.10067	2
0.10433	2
0.10800	3
0.11167	3
0.11533	3
0.11900	3
0.12267	3
0.12633	4
0.13000	4
0.13367	4
0.13733	4
0.14100	4
0.14467	4
0.14833	4
0.15200	4
0.15567	4
0.15933	3
0.16300	3
0.16667	3
0.17033	3
0.17400	3
0.17767	3
0.18133	3
0.18500	3
0.18867	3
0.19233	3
0.19600	3
0.19967	3
0.20333	3
0.20700	3
0.21067	3
0.21433	3
0.21800	3
0.22167	3
0.22533	3
0.22900	3
0.23267	4
0.23633	4
0.24000	4
0.24367	4
0.24733	4
0.25100	4
0.25467	4
0.25833	4
0.26200	3
0.26567	3
0.26933	3
0.27300	3
0.27667	3
0.28033	3
0.28400	3
0.28767	3
0.29133	3
0.29500	2
0.29867	2
0.30233	2
0.30600	2
0.30967	2
0.31333	2
0.31700	1
0.32067	1
0.32433	1
0.32800	0
0.33167	0
0.33533	0
0.33900	0
0.34267	0
0.34633	0
0.35000	0
0.35367	1
0.35733	1
0.36100	1
0.36467	1
0.36833	1
0.37200	1
0.37567	1
0.37933	1
0.38300	1
0.38667	1
0.39033	1
0.39400	1
0.39767	1
0.40133	1
0.40500	1
0.40867	1
0.41233	2
0.41600	1
0.41967	1
0.42333	1
0.42700	1
0.43067	0
0.43433	0
0.43800	0
0.44167	-0
0.44533	-0
0.44900	-0
0.45267	-0
0.45633	-0
0.46000	-0
0.46367	-0
0.46733	-0
0.47100	-0
0.47467	-0
0.47833	-0
0.48200	-0
0.48567	-0
0.48933	0
0.49300	0
0.49667	0
0.50033	0
0.50400	0
0.50767	0
0.51133	0
0.51500	0
0.51867	0
0.52233	0
0.52600	0
0.52967	1
0.53333	1
0.53700	1
0.54067	1
0.54433	1
0.54800	1
0.55167	1
0.55533	0
0.55900	0
0.56267	0
0.56633	-0
0.57000	-0
0.57367	-0
0.57733	0
0.58100	0
0.58467	0
0.58833	0
0.59200	0
0.59567	0
0.59933	0
0.60300	1
0.60667	1
0.61033	1
0.61400	1
0.61767	1
0.62133	1
0.62500	0
0.62867	0
0.63233	0
0.63600	-0
0.63967	-0
0.64333	-0
0.64700	-1
0.65067	-1
0.65433	-1
0.65800	-1
0.66167	-1
0.66533	-1
0.66900	-1
0.67267	-1
0.67633	-1
0.68000	-1
0.68367	-1
0.68733	-2
0.69100	-2
0.69467	-2
0.69833	-2
0.70200	-2
0.70567	-2
0.70933	-2
0.71300	-2
0.71667	-2
0.72033	-2
0.72400	-2
0.72767	-3
0.73133	-2
0.73500	-2
0.73867	-2
0.74233	-2
0.74600	-2
0.74967	-1
0.75333	-1
0.75700	-2
0.76067	-1
0.76433	-2
0.76800	-2
0.77167	-2
0.77533	-2
0.77900	-2
0.78267	-3
0.78633	-3
0.79000	-3
0.79367	-3
0.79733	-3
0.80100	-2
0.80467	-2
0.80833	-2
0.81200	-1
0.81567	-1
0.81933	-1
0.82300	-0
0.82667	-0
0.83033	-0
0.83400	-0
0.83767	-0
0.84133	-0
0.84500	0
0.84867	0
0.85233	0
0.85600	1
0.85967	0
0.86333	0
0.86700	0
0.87067	0
0.87433	-0
0.87800	-1
0.88167	-1
0.88533	-1
0.88900	-1
0.89267	-1
0.89633	-1
0.90000	-1
0.90367	-1
0.90733	-1
0.91100	-1
0.91467	-0
0.91833	-0
0.92200	-0
0.92567	-0
0.92933	-0
0.93300	0
0.93667	1
0.94033	1
0.94400	1
0.94767	1
0.95133	1
0.95500	1
0.95867	2
0.96233	2
0.96600	2
0.96967	1
0.97333	1
0.97700	1
0.98067	1
0.98433	1
0.98800	0
0.99167	0
0.99533	0
0.99900	0
1.00267	0
1.00633	-0
1.01000	-0
1.01367	-0
1.01733	0
1.02100	-0
1.02467	-0
1.02833	-0
1.03200	-0
1.03567	-0
1.03933	-0
1.04300	-0
1.04667	-1
1.05033	-1
1.05400	-1
1.05767	-1
1.06133	-2
1.06500	-2
1.06867	-2
1.07233	-2
1.07600	-2
1.07967	-2
1.08333	-2
1.08700	-3
1.09067	-3
1.09433	-3
1.09800	-2
1.10167	-2
1.10533	-2
1.10900	-2
1.11267	-1
1.11633	-1
1.12000	-1
1.12367	-1
1.12733	-1
1.13100	-0
1.13467	-0
1.13833	-0
1.14200	-0
1.14567	0
1.14933	0
1.15300	0
1.15667	0
1.16033	0
1.16400	0
1.16767	0
1.17133	0
1.17500	-0
1.17867	-0
1.18233	-0
1.18600	-0
1.18967	-0
1.19333	-0
1.19700	-0
1.20067	-0
1.20433	-1
1.20800	-1
1.21167	-1
1.21533	-1
1.21900	-1
1.22267	-1
1.22633	-1
1.23000	-1
1.23367	-1
1.23733	-1
1.24100	-1
1.24467	-1
1.24833	-1
1.25200	-1
1.25567	-1
1.25933	-1
1.26300	-2
1.26667	-2
1.27033	-2
1.27400	-2
1.27767	-2
1.28133	-2
1.28500	-2
1.28867	-2
1.29233	-2
1.29600	-2
1.29967	-2
1.30333	-2
1.30700	-2
1.31067	-2
1.31433	-2
1.31800	-2
1.32167	-2
1.32533	-2
1.32900	-2
1.33267	-2
1.33633	-2
1.34000	-2
1.34367	-2
1.34733	-2
1.35100	-2
1.35467	-2
1.35833	-2
1.36200	-2
1.36567	-2
1.36933	-1
1.37300	-1
1.37667	-1
1.38033	-1
1.38400	-1
1.38767	-1
1.39133	-1
1.39500	-1
1.39867	-1
1.40233	-1
1.40600	-1
1.40967	-1
1.41333	-1
1.41700	-1
1.42067	-1
1.42433	-1
1.42800	-1
1.43167	-1
1.43533	-1
1.43900	-1
1.44267	-0
1.44633	-0
1.45000	-0
1.45367	-0
1.45733	-0
1.46100	-0
1.46467	-0
1.46833	-0
1.47200	-1
1.47567	-1
1.47933	-1
1.48300	-1
1.48667	-1
1.49033	-1
1.49400	-1
1.49767	-1
1.50133	-1
1.50500	-1
1.50867	-1
1.51233	-2
1.51600	-2
1.51967	-2
1.52333	-2
1.52700	-2
1.53067	-2
1.53433	-2
1.53800	-2
1.54167	-2
1.54533	-2
1.54900	-2
1.55267	-1
1.55633	-1
1.56000	-1
1.56367	-1
1.56733	-2
1.57100	-2
1.57467	-2
1.57833	-2
1.58200	-2
1.58567	-2
1.58933	-2
1.59300	-3
1.59667	-3
1.60033	-4
1.60400	-5
1.60767	-6
1.61133	-8
1.61500	-10
1.61867	-12
1.62233	-14
1.62600	-17
1.62967	-20
1.63333	-23
1.63700	-26
1.64067	-30
1.64433	-33
1.64800	-37
1.65167	-40
1.65533	-43
1.65900	-47
1.66267	-51
1.66633	-55
1.67000	-59
1.67367	-63
1.67733	-68
1.68100	-73
1.68467	-78
1.68833	-82
1.69200	-87
1.69567	-90
1.69933	-94
1.70300	-97
1.70667	-99
1.71033	-101
1.71400	-102
1.71767	-104
1.72133	-105
1.72500	-106
1.72867	-106
1.73233	-107
1.73600	-107
1.73967	-108
1.74333	-108
1.74700	-108
1.75067	-109
1.75433	-109
1.75800	-110
1.76167	-110
1.76533	-110
1.76900	-110
1.77267	-110
1.77633	-110
1.78000	-110
1.78367	-110
1.78733	-111
1.79100	-112
1.79467	-112
1.79833	-112
1.80200	-113
1.80567	-113
1.80933	-113
1.81300	-113
1.81667	-114
1.82033	-114
1.82400	-114
1.82767	-115
1.83133	-115
1.83500	-115
1.83867	-115
1.84233	-116
1.84600	-116
1.84967	-116
1.85333	-116
1.85700	-116
1.86067	-116
1.86433	-116
1.86800	-115
1.87167	-115
1.87533	-114
1.87900	-114
1.88267	-114
1.88633	-113
1.89000	-113
1.89367	-113
1.89733	-112
1.90100	-112
1.90467	-112
1.90833	-112
1.91200	-112
1.91567	-111
1.91933	-111
1.92300	-111
1.92667	-111
1.93033	-111
1.93400	-111
1.93767	-111
1.94133	-111
1.94500	-110
1.94867	-109
1.95233	-109
1.95600	-108
1.95967	-108
1.96333	-108
1.96700	-108
1.97067	-108
1.97433	-108
1.97800	-108
1.98167	-108
1.98533	-108
1.98900	-109
1.99267	-108
1.99633	-108
2.00000	-108
2.00367	-108
2.00733	-108
2.01100	-108
2.01467	-107
2.01833	-107
2.02200	-107
2.02567	-107
2.02933	-107
2.03300	-107
2.03667	-107
2.04033	-106
2.04400	-105
2.04767	-105
2.05133	-105
2.05500	-105
2.05867	-104
2.06233	-104
2.06600	-104
2.06967	-103
2.07333	-102
2.07700	-102
2.08067	-102
2.08433	-101
2.08800	-101
2.09167	-101
2.09533	-101
2.09900	-101
2.10267	-100
2.10633	-100
2.11000	-99
2.11367	-99
2.11733	-98
2.12100	-98
2.12467	-98
2.12833	-98
2.13200	-97
2.13567	-97
2.13933	-96
2.14300	-96
2.14667	-96
2.15033	-96
2.15400	-95
2.15767	-95
2.16133	-95
2.16500	-95
2.16867	-94
2.17233	-94
2.17600	-94
2.17967	-93
2.18333	-93
2.18700	-92
2.19067	-91
2.19433	-91
2.19800	-90
2.20167	-89
2.20533	-89
2.20900	-89
2.21267	-89
2.21633	-89
2.22000	-90
2.22367	-91
2.22733	-91
2.23100	-92
2.23467	-92
2.23833	-92
2.24200	-92
2.24567	-92
2.24933	-91
2.25300	-91
2.25667	-90
2.26033	-89
2.26400	-88
2.26767	-88
2.27133	-87
2.27500	-87
2.27867	-86
2.28233	-86
2.28600	-85
2.28967	-85
2.29333	-84
2.29700	-84
2.30067	-83
2.30433	-83
2.30800	-83
2.31167	-82
2.31533	-82
2.31900	-81
2.32267	-80
2.32633	-80
2.33000	-79
2.33367	-78
2.33733	-78
2.34100	-78
2.34467	-79
2.34833	-80
2.35200	-80
2.35567	-80
2.35933	-79
2.36300	-78
2.36667	-76
2.37033	-74
2.37400	-71
2.37767	-68
2.38133	-65
2.38500	-61
2.38867	-58
2.39233	-54
2.39600	-50
2.39967	-46
2.40333	-42
2.40700	-39
2.41067	-35
2.41433	-32
2.41800	-28
2.42167	-26
2.42533	-23
2.42900	-21
2.43267	-19
2.43633	-17
2.44000	-15
2.44367	-14
2.44733	-12
2.45100	-10
2.45467	-9
2.45833	-7
2.46200	-6
2.46567	-4
2.46933	-3
2.47300	-2
2.47667	-1
2.48033	-0
2.48400	1
2.48767	2
2.49133	3
2.49500	4
2.49867	5
2.50233	6
2.50600	7
2.50967	7
2.51333	8
2.51700	8
2.52067	9
2.52433	10
2.52800	11
2.53167	12
2.53533	13
2.53900	14
2.54267	14
2.54633	15
2.55000	15
2.55367	15
2.55733	15
2.56100	16
2.56467	16
2.56833	16
2.57200	16
2.57567	16
2.57933	16
2.58300	16
2.58667	16
2.59033	16
2.59400	16
2.59767	16
2.60133	16
2.60500	16
2.60867	16
2.61233	16
2.61600	16
2.61967	16
2.62333	17
2.62700	17
2.63067	18
2.63433	18
2.63800	19
2.64167	19
2.64533	19
2.64900	19
2.65267	19
2.65633	19
2.66000	19
2.66367	19
2.66733	19
2.67100	20
2.67467	20
2.67833	20
2.68200	20
2.68567	20
2.68933	20
2.69300	20
2.69667	21
2.70033	21
2.70400	21
2.70767	22
2.71133	22
2.71500	22
2.71867	23
2.72233	23
2.72600	24
2.72967	24
2.73333	24
2.73700	24
2.74067	24
2.74433	24
2.74800	24
2.75167	24
2.75533	24
2.75900	24
2.76267	24
2.76633	24
2.77000	25
2.77367	25
2.77733	25
2.78100	26
2.78467	26
2.78833	27
2.79200	27
2.79567	27
2.79933	27
2.80300	27
2.80667	27
2.81033	27
2.81400	27
2.81767	27
2.82133	27
2.82500	27
2.82867	27
2.83233	27
2.83600	26
2.83967	26
2.84333	26
2.84700	26
2.85067	25
2.85433	23
2.85800	19
2.86167	13
2.86533	4
2.86900	-8
2.87267	-23
2.87633	-43
2.88000	-66
2.88367	-94
2.88733	-126
2.89100	-161
2.89467	-200
2.89833	-243
2.90200	-287
2.90567	-335
2.90933	-384
2.91300	-435
2.91667	-486
2.92033	-538
2.92400	-591
2.92767	-643
2.93133	-694
2.93500	-745
2.93867	-795
2.94233	-846
2.94600	-902
2.94967	-962
2.95333	-1020
2.95700	-1064
2.96067	-1086
2.96433	-1082
2.96800	-1053
2.97167	-1003
2.97533	-938
2.97900	-863
2.98267	-784
2.98633	-705
2.99000	-627
2.99367	-553
2.99733	-485
3.00100	-422
3.00467	-365
3.00833	-315
3.01200	-270
3.01567	-231
3.01933	-197
3.02300	-167
3.02667	-141
3.03033	-119
3.03400	-100
3.03767	-83
3.04133	-69
3.04500	-57
3.04867	-46
3.05233	-38
3.05600	-30
3.05967	-24
3.06333	-18
3.06700	-14
3.07067	-10
3.07433	-6
3.07800	-3
3.08167	-0
3.08533	2
3.08900	4
3.09267	5
3.09633	7
3.10000	8
3.10367	9
3.10733	10
3.11100	11
3.11467	12
3.11833	13
3.12200	13
3.12567	14
3.12933	14
3.13300	15
3.13667	15
3.14033	16
3.14400	16
3.14767	16
3.15133	17
3.15500	17
3.15867	17
3.16233	17
3.16600	17
3.16967	17
3.17333	17
3.17700	18
3.18067	18
3.18433	18
3.18800	19
3.19167	19
3.19533	19
3.19900	19
3.20267	19
3.20633	20
3.21000	20
3.21367	20
3.21733	20
3.22100	20
3.22467	21
3.22833	21
3.23200	21
3.23567	21
3.23933	21
3.24300	22
3.24667	22
3.25033	22
3.25400	23
3.25767	23
3.26133	23
3.26500	24
3.26867	24
3.27233	24
3.27600	25
3.27967	25
3.28333	25
3.28700	26
3.29067	26
3.29433	26
3.29800	26
3.30167	26
3.30533	26
3.30900	26
3.31267	26
3.31633	26
3.32000	26
3.32367	26
3.32733	26
3.33100	26
3.33467	26
3.33833	26
3.34200	26
3.34567	26
3.34933	26
3.35300	26
3.35667	26
3.36033	26
3.36400	26
3.36767	26
3.37133	26
3.37500	26
3.37867	26
3.38233	26
3.38600	26
3.38967	26
3.39333	26
3.39700	25
3.40067	25
3.40433	25
3.40800	25
3.41167	25
3.41533	26
3.41900	25
3.42267	25
3.42633	26
3.43000	26
3.43367	26
3.43733	26
3.44100	26
3.44467	26
3.44833	27
3.45200	27
3.45567	27
3.45933	27
3.46300	26
3.46667	26
3.47033	26
3.47400	26
3.47767	26
3.48133	26
3.48500	26
3.48867	26
3.49233	26
3.49600	26
3.49967	27
3.50333	27
3.50700	27
3.51067	27
3.51433	27
3.51800	27
3.52167	27
3.52533	27
3.52900	27
3.53267	27
3.53633	28
3.54000	28
3.54367	28
3.54733	28
3.55100	28
3.55467	28
3.55833	28
3.56200	28
3.56567	27
3.56933	27
3.57300	27
3.57667	27
3.58033	27
3.58400	27
3.58767	27
3.59133	27
3.59500	27
3.59867	26
3.60233	26
3.60600	26
3.60967	26
3.61333	26
3.61700	26
3.62067	25
3.62433	25
3.62800	25
3.63167	25
3.63533	25
3.63900	25
3.64267	25
3.64633	25
3.65000	24
3.65367	24
3.65733	24
3.66100	25
3.66467	25
3.66833	25
3.67200	25
3.67567	25
3.67933	25
3.68300	25
3.68667	26
3.69033	26
3.69400	26
3.69767	26
3.70133	26
3.70500	27
3.70867	27
3.71233	27
3.71600	27
3.71967	26
3.72333	26
3.72700	26
3.73067	26
3.73433	26
3.73800	26
3.74167	26
3.74533	26
3.74900	26
3.75267	26
3.75633	26
3.76000	26
3.76367	26
3.76733	26
3.77100	26
3.77467	26
3.77833	26
3.78200	26
3.78567	26
3.78933	26
3.79300	26
3.79667	27
3.80033	27
3.80400	27
3.80767	27
3.81133	26
3.81500	26
3.81867	26
3.82233	26
3.82600	26
3.82967	26
3.83333	26
3.83700	26
3.84067	26
3.84433	26
3.84800	26
3.85167	26
3.85533	25
3.85900	25
3.86267	25
3.86633	25
3.87000	26
3.87367	26
3.87733	26
3.88100	26
3.88467	26
3.88833	26
3.89200	26
3.89567	26
3.89933	26
3.90300	26
3.90667	26
3.91033	26
3.91400	26
3.91767	26
3.92133	26
3.92500	26
3.92867	25
3.93233	25
3.93600	25
3.93967	25
3.94333	25
3.94700	25
3.95067	25
3.95433	25
3.95800	25
3.96167	25
3.96533	26
3.96900	26
3.97267	26
3.97633	26
3.98000	26
3.98367	26
3.98733	26
3.99100	26
3.99467	26
3.99833	26

[Chromatogram (Ch3)]
Interval(msec)	220
# of Points	1091
Start Time(min)	0.002
End Time(min)	3.998
R.Time (min)	Intensity
0.00167	1
0.00533	1
0.00900	2
0.01267	4
0.01633	4
0.02000	5
0.02367	8
0.02733	11
0.03100	11
0.03467	7
0.03833	3
0.04200	0
0.04567	1
0.04933	4
0.05300	3
0.05667	2
0.06033	2
0.06400	3
0.06767	4
0.07133	2
0.07500	0
0.07867	-1
0.08233	-1
0.08600	-1
0.08967	1
0.09333	2
0.09700	3
0.10067	3
0.10433	3
0.10800	2
0.11167	1
0.11533	1
0.11900	3
0.12267	6
0.12633	7
0.13000	9
0.13367	12
0.13733	13
0.14100	11
0.14467	7
0.14833	4
0.15200	2
0.15567	-1
0.15933	1
0.16300	3
0.16667	3
0.17033	4
0.17400	7
0.17767	8
0.18133	8
0.18500	6
0.18867	3
0.19233	5
0.19600	9
0.19967	12
0.20333	11
0.20700	10
0.21067	10
0.21433	12
0.21800	15
0.22167	17
0.22533	16
0.22900	13
0.23267	10
0.23633	9
0.24000	10
0.24367	13
0.24733	16
0.25100	17
0.25467	16
0.25833	14
0.26200	12
0.26567	14
0.26933	15
0.27300	14
0.27667	13
0.28033	12
0.28400	13
0.28767	10
0.29133	10
0.29500	10
0.29867	10
0.30233	9
0.30600	8
0.30967	9
0.31333	10
0.31700	11
0.32067	13
0.32433	13
0.32800	12
0.33167	13
0.33533	11
0.33900	9
0.34267	10
0.34633	10
0.35000	11
0.35367	11
0.35733	13
0.36100	15
0.36467	17
0.36833	15
0.37200	13
0.37567	12
0.37933	12
0.38300	13
0.38667	13
0.39033	13
0.39400	11
0.39767	8
0.40133	7
0.40500	9
0.40867	9
0.41233	12
0.41600	16
0.41967	18
0.42333	15
0.42700	13
0.43067	14
0.43433	15
0.43800	15
0.44167	16
0.44533	14
0.44900	12
0.45267	13
0.45633	14
0.46000	14
0.46367	13
0.46733	11
0.47100	11
0.47467	14
0.47833	16
0.48200	16
0.48567	16
0.48933	14
0.49300	15
0.49667	17
0.50033	17
0.50400	16
0.50767	14
0.51133	13
0.51500	13
0.51867	14
0.52233	16
0.52600	18
0.52967	19
0.53333	21
0.53700	21
0.54067	19
0.54433	16
0.54800	13
0.55167	14
0.55533	17
0.55900	15
0.56267	13
0.56633	14
0.57000	15
0.57367	14
0.57733	11
0.58100	9
0.58467	9
0.58833	9
0.59200	8
0.59567	9
0.59933	13
0.60300	16
0.60667	18
0.61033	17
0.61400	16
0.61767	14
0.62133	14
0.62500	15
0.62867	16
0.63233	15
0.63600	17
0.63967	17
0.64333	15
0.64700	13
0.65067	12
0.65433	11
0.65800	13
0.66167	17
0.66533	18
0.66900	17
0.67267	13
0.67633	11
0.68000	10
0.68367	11
0.68733	15
0.69100	15
0.69467	15
0.69833	14
0.70200	16
0.70567	18
0.70933	18
0.71300	18
0.71667	19
0.72033	17
0.72400	16
0.72767	15
0.73133	15
0.73500	14
0.73867	13
0.74233	12
0.74600	12
0.74967	12
0.75333	13
0.75700	16
0.76067	17
0.76433	19
0.76800	20
0.77167	23
0.77533	25
0.77900	23
0.78267	18
0.78633	17
0.79000	17
0.79367	16
0.79733	17
0.80100	19
0.80467	20
0.80833	19
0.81200	19
0.81567	21
0.81933	22
0.82300	22
0.82667	21
0.83033	19
0.83400	17
0.83767	18
0.84133	21
0.84500	24
0.84867	24
0.85233	22
0.85600	21
0.85967	21
0.86333	19
0.86700	16
0.87067	15
0.87433	15
0.87800	15
0.88167	14
0.88533	13
0.88900	13
0.89267	12
0.89633	15
0.90000	19
0.90367	20
0.90733	20
0.91100	21
0.91467	21
0.91833	19
0.92200	18
0.92567	16
0.92933	16
0.93300	16
0.93667	16
0.94033	18
0.94400	20
0.94767	22
0.95133	24
0.95500	26
0.95867	25
0.96233	25
0.96600	24
0.96967	23
0.97333	23
0.97700	21
0.98067	19
0.98433	20
0.98800	19
0.99167	17
0.99533	13
0.99900	13
1.00267	10
1.00633	12
1.01000	14
1.01367	14
1.01733	13
1.02100	14
1.02467	14
1.02833	16
1.03200	17
1.03567	16
1.03933	15
1.04300	14
1.04667	13
1.05033	15
1.05400	15
1.05767	13
1.06133	12
1.06500	13
1.06867	14
1.07233	16
1.07600	19
1.07967	21
1.08333	21
1.08700	20
1.09067	20
1.09433	19
1.09800	21
1.10167	22
1.10533	22
1.10900	24
1.11267	25
1.11633	25
1.12000	25
1.12367	25
1.12733	26
1.13100	27
1.13467	27
1.13833	24
1.14200	21
1.14567	19
1.14933	19
1.15300	20
1.15667	20
1.16033	20
1.16400	22
1.16767	23
1.17133	21
1.17500	20
1.17867	21
1.18233	22
1.18600	23
1.18967	22
1.19333	25
1.19700	24
1.20067	23
1.20433	22
1.20800	20
1.21167	21
1.21533	21
1.21900	19
1.22267	16
1.22633	16
1.23000	18
1.23367	20
1.23733	19
1.24100	19
1.24467	18
1.24833	19
1.25200	21
1.25567	21
1.25933	22
1.26300	24
1.26667	25
1.27033	25
1.27400	24
1.27767	20
1.28133	21
1.28500	23
1.28867	25
1.29233	25
1.29600	26
1.29967	26
1.30333	25
1.30700	25
1.31067	23
1.31433	22
1.31800	23
1.32167	24
1.32533	28
1.32900	33
1.33267	34
1.33633	32
1.34000	29
1.34367	27
1.34733	25
1.35100	26
1.35467	26
1.35833	25
1.36200	23
1.36567	20
1.36933	20
1.37300	21
1.37667	22
1.38033	24
1.38400	25
1.38767	23
1.39133	21
1.39500	23
1.39867	23
1.40233	24
1.40600	25
1.40967	24
1.41333	22
1.41700	22
1.42067	25
1.42433	25
1.42800	25
1.43167	24
1.43533	24
1.43900	25
1.44267	25
1.44633	26
1.45000	25
1.45367	23
1.45733	24
1.46100	25
1.46467	22
1.46833	21
1.47200	23
1.47567	24
1.47933	23
1.48300	23
1.48667	23
1.49033	21
1.49400	21
1.49767	21
1.50133	20
1.50500	20
1.50867	20
1.51233	19
1.51600	19
1.51967	22
1.52333	23
1.52700	22
1.53067	23
1.53433	24
1.53800	24
1.54167	24
1.54533	22
1.54900	20
1.55267	20
1.55633	21
1.56000	23
1.56367	24
1.56733	26
1.57100	25
1.57467	25
1.57833	24
1.58200	25
1.58567	27
1.58933	26
1.59300	24
1.59667	23
1.60033	26
1.60400	26
1.60767	27
1.61133	27
1.61500	29
1.61867	27
1.62233	26
1.62600	26
1.62967	25
1.63333	23
1.63700	23
1.64067	26
1.64433	29
1.64800	29
1.65167	29
1.65533	29
1.65900	26
1.66267	26
1.66633	27
1.67000	29
1.67367	31
1.67733	32
1.68100	33
1.68467	32
1.68833	31
1.69200	32
1.69567	32
1.69933	34
1.70300	36
1.70667	37
1.71033	37
1.71400	39
1.71767	39
1.72133	41
1.72500	44
1.72867	44
1.73233	44
1.73600	44
1.73967	44
1.74333	43
1.74700	46
1.75067	47
1.75433	47
1.75800	46
1.76167	47
1.76533	47
1.76900	46
1.77267	47
1.77633	47
1.78000	48
1.78367	51
1.78733	54
1.79100	56
1.79467	57
1.79833	56
1.80200	57
1.80567	55
1.80933	54
1.81300	52
1.81667	50
1.82033	50
1.82400	51
1.82767	51
1.83133	54
1.83500	56
1.83867	58
1.84233	60
1.84600	60
1.84967	62
1.85333	64
1.85700	63
1.86067	63
1.86433	63
1.86800	62
1.87167	64
1.87533	64
1.87900	66
1.88267	68
1.88633	69
1.89000	71
1.89367	71
1.89733	71
1.90100	71
1.90467	72
1.90833	73
1.91200	77
1.91567	79
1.91933	77
1.92300	75
1.92667	75
1.93033	75
1.93400	78
1.93767	80
1.94133	81
1.94500	80
1.94867	79
1.95233	77
1.95600	76
1.95967	78
1.96333	81
1.96700	83
1.97067	85
1.97433	86
1.97800	87
1.98167	88
1.98533	86
1.98900	85
1.99267	89
1.99633	92
2.00000	94
2.00367	95
2.00733	98
2.01100	99
2.01467	99
2.01833	101
2.02200	103
2.02567	102
2.02933	100
2.03300	99
2.03667	99
2.04033	100
2.04400	103
2.04767	102
2.05133	104
2.05500	103
2.05867	104
2.06233	104
2.06600	106
2.06967	110
2.07333	112
2.07700	114
2.08067	114
2.08433	114
2.08800	114
2.09167	115
2.09533	115
2.09900	116
2.10267	115
2.10633	116
2.11000	118
2.11367	118
2.11733	120
2.12100	123
2.12467	126
2.12833	129
2.13200	131
2.13567	130
2.13933	132
2.14300	134
2.14667	135
2.15033	135
2.15400	134
2.15767	133
2.16133	132
2.16500	132
2.16867	134
2.17233	137
2.17600	140
2.17967	143
2.18333	147
2.18700	147
2.19067	149
2.19433	148
2.19800	146
2.20167	147
2.20533	149
2.20900	149
2.21267	150
2.21633	151
2.22000	151
2.22367	152
2.22733	153
2.23100	155
2.23467	156
2.23833	156
2.24200	155
2.24567	155
2.24933	156
2.25300	160
2.25667	164
2.26033	166
2.26400	166
2.26767	166
2.27133	169
2.27500	172
2.27867	171
2.28233	170
2.28600	170
2.28967	171
2.29333	171
2.29700	171
2.30067	171
2.30433	173
2.30800	175
2.31167	175
2.31533	176
2.31900	177
2.32267	178
2.32633	178
2.33000	179
2.33367	181
2.33733	186
2.34100	190
2.34467	191
2.34833	189
2.35200	189
2.35567	193
2.35933	195
2.36300	195
2.36667	197
2.37033	199
2.37400	203
2.37767	203
2.38133	201
2.38500	201
2.38867	201
2.39233	200
2.39600	200
2.39967	203
2.40333	204
2.40700	204
2.41067	206
2.41433	205
2.41800	202
2.42167	202
2.42533	205
2.42900	209
2.43267	210
2.43633	213
2.44000	219
2.44367	246
2.44733	307
2.45100	369
2.45467	413
2.45833	424
2.46200	410
2.46567	392
2.46933	380
2.47300	367
2.47667	349
2.48033	324
2.48400	296
2.48767	269
2.49133	243
2.49500	220
2.49867	206
2.50233	197
2.50600	193
2.50967	191
2.51333	194
2.51700	198
2.52067	196
2.52433	192
2.52800	188
2.53167	178
2.53533	165
2.53900	152
2.54267	139
2.54633	125
2.55000	114
2.55367	104
2.55733	97
2.56100	91
2.56467	85
2.56833	84
2.57200	83
2.57567	81
2.57933	79
2.58300	76
2.58667	77
2.59033	77
2.59400	79
2.59767	80
2.60133	64
2.60500	36
2.60867	18
2.61233	17
2.61600	37
2.61967	75
2.62333	119
2.62700	164
2.63067	204
2.63433	240
2.63800	269
2.64167	296
2.64533	319
2.64900	343
2.65267	367
2.65633	391
2.66000	417
2.66367	442
2.66733	462
2.67100	484
2.67467	504
2.67833	522
2.68200	537
2.68567	552
2.68933	566
2.69300	581
2.69667	595
2.70033	608
2.70400	622
2.70767	636
2.71133	648
2.71500	659
2.71867	669
2.72233	679
2.72600	689
2.72967	696
2.73333	699
2.73700	703
2.74067	706
2.74433	710
2.74800	713
2.75167	714
2.75533	714
2.75900	714
2.76267	712
2.76633	713
2.77000	715
2.77367	715
2.77733	713
2.78100	711
2.78467	706
2.78833	703
2.79200	698
2.79567	689
2.79933	680
2.80300	674
2.80667	669
2.81033	664
2.81400	659
2.81767	652
2.82133	646
2.82500	642
2.82867	645
2.83233	660
2.83600	697
2.83967	778
2.84333	927
2.84700	1167
2.85067	1514
2.85433	1967
2.85800	2510
2.86167	3117
2.86533	3736
2.86900	4313
2.87267	4800
2.87633	5157
2.88000	5365
2.88367	5425
2.88733	5347
2.89100	5158
2.89467	4883
2.89833	4555
2.90200	4199
2.90567	3835
2.90933	3478
2.91300	3147
2.91667	2840
2.92033	2557
2.92400	2303
2.92767	2075
2.93133	1873
2.93500	1696
2.93867	1542
2.94233	1408
2.94600	1291
2.94967	1190
2.95333	1101
2.95700	1022
2.96067	956
2.96433	899
2.96800	852
2.97167	814
2.97533	781
2.97900	751
2.98267	725
2.98633	702
2.99000	681
2.99367	664
2.99733	652
3.00100	640
3.00467	629
3.00833	622
3.01200	617
3.01567	610
3.01933	605
3.02300	599
3.02667	593
3.03033	587
3.03400	585
3.03767	583
3.04133	581
3.04500	580
3.04867	579
3.05233	580
3.05600	583
3.05967	585
3.06333	585
3.06700	584
3.07067	585
3.07433	584
3.07800	584
3.08167	582
3.08533	581
3.08900	581
3.09267	583
3.09633	586
3.10000	588
3.10367	586
3.10733	584
3.11100	578
3.11467	575
3.11833	575
3.12200	575
3.12567	575
3.12933	575
3.13300	573
3.13667	570
3.14033	568
3.14400	565
3.14767	563
3.15133	562
3.15500	563
3.15867	562
3.16233	561
3.16600	560
3.16967	559
3.17333	561
3.17700	562
3.18067	563
3.18433	565
3.18800	564
3.19167	560
3.19533	557
3.19900	556
3.20267	555
3.20633	556
3.21000	555
3.21367	553
3.21733	550
3.22100	546
3.22467	546
3.22833	547
3.23200	547
3.23567	549
3.23933	548
3.24300	545
3.24667	544
3.25033	542
3.25400	541
3.25767	541
3.26133	541
3.26500	539
3.26867	538
3.27233	533
3.27600	529
3.27967	528
3.28333	529
3.28700	528
3.29067	526
3.29433	523
3.29800	523
3.30167	523
3.30533	522
3.30900	522
3.31267	522
3.31633	520
3.32000	515
3.32367	514
3.32733	512
3.33100	508
3.33467	508
3.33833	506
3.34200	502
3.34567	501
3.34933	498
3.35300	499
3.35667	499
3.36033	499
3.36400	498
3.36767	495
3.37133	493
3.37500	491
3.37867	491
3.38233	489
3.38600	489
3.38967	486
3.39333	484
3.39700	483
3.40067	481
3.40433	479
3.40800	478
3.41167	477
3.41533	474
3.41900	470
3.42267	469
3.42633	468
3.43000	466
3.43367	465
3.43733	465
3.44100	462
3.44467	460
3.44833	459
3.45200	459
3.45567	457
3.45933	455
3.46300	453
3.46667	451
3.47033	452
3.47400	453
3.47767	453
3.48133	451
3.48500	450
3.48867	451
3.49233	450
3.49600	449
3.49967	449
3.50333	449
3.50700	448
3.51067	446
3.51433	442
3.51800	441
3.52167	440
3.52533	439
3.52900	438
3.53267	437
3.53633	435
3.54000	435
3.54367	434
3.54733	432
3.55100	431
3.55467	430
3.55833	429
3.56200	428
3.56567	428
3.56933	426
3.57300	425
3.57667	422
3.58033	419
3.58400	417
3.58767	414
3.59133	412
3.59500	411
3.59867	410
3.60233	412
3.60600	413
3.60967	415
3.61333	416
3.61700	414
3.62067	412
3.62433	411
3.62800	409
3.63167	407
3.63533	406
3.63900	405
3.64267	407
3.64633	410
3.65000	411
3.65367	409
3.65733	409
3.66100	407
3.66467	402
3.66833	400
3.67200	399
3.67567	399
3.67933	400
3.68300	399
3.68667	398
3.69033	396
3.69400	397
3.69767	399
3.70133	399
3.70500	397
3.70867	394
3.71233	389
3.71600	385
3.71967	384
3.72333	384
3.72700	385
3.73067	389
3.73433	391
3.73800	389
3.74167	388
3.74533	386
3.74900	384
3.75267	384
3.75633	385
3.76000	384
3.76367	383
3.76733	382
3.77100	382
3.77467	379
3.77833	377
3.78200	373
3.78567	373
3.78933	374
3.79300	377
3.79667	377
3.80033	375
3.80400	376
3.80767	375
3.81133	372
3.81500	370
3.81867	370
3.82233	370
3.82600	370
3.82967	372
3.83333	372
3.83700	372
3.84067	369
3.84433	365
3.84800	362
3.85167	359
3.85533	360
3.85900	361
3.86267	363
3.86633	364
3.87000	363
3.87367	362
3.87733	361
3.88100	360
3.88467	359
3.88833	358
3.89200	359
3.89567	360
3.89933	362
3.90300	361
3.90667	355
3.91033	350
3.91400	349
3.91767	350
3.92133	351
3.92500	353
3.92867	353
3.93233	351
3.93600	349
3.93967	349
3.94333	349
3.94700	349
3.95067	349
3.95433	348
3.95800	349
3.96167	350
3.96533	349
3.96900	347
3.97267	343
3.97633	338
3.98000	338
3.98367	338
3.98733	339
3.99100	340
3.99467	340
3.99833	338

[Status Trace (Column Oven Temperature)]
Interval(msec)	1000
# of Points	240
Start Time(min)	0.013
End Time(min)	3.996
Intensity Units	
Intensity Multiplier	1
R.Time (min)	Intensity
0.01255	35.04
0.02922	35.04
0.04588	35.04
0.06255	35.04
0.07922	35.04
0.09588	35.04
0.11255	35.03
0.12922	35.02
0.14588	35.01
0.16255	35.02
0.17922	35.02
0.19588	35.01
0.21255	35.00
0.22922	34.99
0.24588	34.98
0.26255	34.98
0.27922	34.97
0.29588	34.98
0.31255	34.98
0.32922	34.98
0.34588	34.98
0.36255	34.99
0.37922	35.00
0.39588	34.99
0.41255	34.99
0.42922	35.00
0.44588	34.99
0.46255	35.00
0.47922	34.99
0.49588	34.99
0.51255	34.99
0.52922	34.99
0.54588	35.00
0.56255	34.99
0.57922	34.99
0.59588	34.98
0.61255	34.98
0.62922	34.98
0.64588	34.98
0.66255	34.98
0.67922	34.99
0.69588	35.00
0.71255	35.00
0.72922	35.01
0.74588	35.02
0.76255	35.02
0.77922	35.03
0.79588	35.03
0.81255	35.03
0.82922	35.02
0.84588	35.01
0.86255	35.01
0.87922	35.02
0.89588	35.01
0.91255	35.01
0.92922	35.01
0.94588	35.00
0.96255	35.00
0.97922	34.98
0.99588	34.98
1.01255	34.98
1.02922	34.99
1.04588	34.98
1.06255	34.99
1.07922	35.00
1.09588	35.00
1.11255	35.00
1.12922	34.99
1.14588	34.99
1.16255	34.99
1.17922	34.98
1.19588	34.99
1.21255	34.99
1.22922	34.98
1.24588	34.99
1.26255	34.99
1.27922	34.99
1.29588	35.00
1.31255	35.01
1.32922	35.01
1.34588	35.00
1.36255	35.00
1.37922	35.00
1.39588	35.00
1.41255	35.00
1.42922	35.00
1.44588	34.99
1.46255	34.98
1.47922	34.99
1.49588	34.98
1.51255	34.99
1.52922	34.99
1.54588	34.98
1.56255	34.98
1.57922	34.99
1.59588	35.01
1.61255	35.09
1.62922	35.23
1.64588	35.43
1.66255	35.69
1.67922	36.03
1.69588	36.41
1.71255	36.76
1.72922	37.10
1.74588	37.43
1.76255	37.76
1.77922	38.09
1.79588	38.42
1.81255	38.76
1.82922	39.10
1.84588	39.41
1.86255	39.74
1.87922	40.07
1.89588	40.41
1.91255	40.73
1.92922	41.06
1.94588	41.38
1.96255	41.70
1.97922	42.02
1.99588	42.34
2.01255	42.66
2.02922	42.99
2.04588	43.32
2.06255	43.64
2.07922	43.96
2.09588	44.31
2.11255	44.63
2.12922	44.94
2.14588	45.26
2.16255	45.59
2.17922	45.93
2.19588	46.24
2.21255	46.57
2.22922	46.94
2.24588	47.25
2.26255	47.58
2.27922	47.91
2.29588	48.24
2.31255	48.57
2.32922	48.87
2.34588	49.24
2.36255	49.52
2.37922	49.66
2.39588	49.70
2.41255	49.68
2.42922	49.70
2.44588	49.70
2.46255	49.72
2.47922	49.74
2.49588	49.74
2.51255	49.77
2.52922	49.76
2.54588	49.79
2.56255	49.79
2.57922	49.80
2.59588	49.81
2.61255	49.82
2.62922	49.81
2.64588	49.82
2.66255	49.84
2.67922	49.85
2.69588	49.86
2.71255	49.85
2.72922	49.85
2.74588	49.85
2.76255	49.86
2.77922	49.86
2.79588	49.86
2.81255	49.86
2.82922	49.86
2.84588	49.86
2.86255	49.86
2.87922	49.87
2.89588	49.90
2.91255	49.91
2.92922	49.92
2.94588	49.94
2.96255	49.97
2.97922	49.98
2.99588	49.99
3.01255	49.99
3.02922	50.01
3.04588	50.01
3.06255	50.02
3.07922	50.02
3.09588	50.03
3.11255	50.04
3.12922	50.05
3.14588	50.06
3.16255	50.07
3.17922	50.08
3.19588	50.09
3.21255	50.10
3.22922	50.11
3.24588	50.11
3.26255	50.09
3.27922	50.07
3.29588	50.06
3.31255	50.05
3.32922	50.05
3.34588	50.05
3.36255	50.05
3.37922	50.06
3.39588	50.06
3.41255	50.06
3.42922	50.06
3.44588	50.06
3.46255	50.06
3.47922	50.06
3.49588	50.06
3.51255	50.05
3.52922	50.05
3.54588	50.06
3.56255	50.06
3.57922	50.05
3.59588	50.06
3.61255	50.07
3.62922	50.08
3.64588	50.09
3.66255	50.09
3.67922	50.08
3.69588	50.08
3.71255	50.08
3.72922	50.08
3.74588	50.08
3.76255	50.07
3.77922	50.07
3.79588	50.06
3.81255	50.06
3.82922	50.06
3.84588	50.07
3.86255	50.06
3.87922	50.06
3.89588	50.07
3.91255	50.07
3.92922	50.07
3.94588	50.07
3.96255	50.07
3.97922	50.06
3.99588	50.05

[Status Trace (Injection Unit Temperature)]
Interval(msec)	1000
# of Points	240
Start Time(min)	0.013
End Time(min)	3.996
Intensity Units	
Intensity Multiplier	1
R.Time (min)	Intensity
0.01255	99.98
0.02922	99.98
0.04588	99.98
0.06255	99.98
0.07922	99.99
0.09588	99.98
0.11255	99.99
0.12922	99.99
0.14588	99.99
0.16255	99.99
0.17922	99.99
0.19588	99.99
0.21255	99.99
0.22922	99.99
0.24588	99.99
0.26255	99.98
0.27922	99.99
0.29588	99.99
0.31255	99.98
0.32922	99.99
0.34588	99.99
0.36255	99.99
0.37922	99.99
0.39588	99.99
0.41255	99.99
0.42922	99.99
0.44588	99.98
0.46255	99.99
0.47922	99.99
0.49588	99.98
0.51255	99.99
0.52922	99.98
0.54588	99.99
0.56255	99.98
0.57922	99.98
0.59588	99.99
0.61255	99.99
0.62922	99.98
0.64588	99.98
0.66255	99.99
0.67922	99.98
0.69588	99.98
0.71255	99.98
0.72922	99.98
0.74588	99.98
0.76255	99.98
0.77922	99.98
0.79588	99.98
0.81255	99.98
0.82922	99.98
0.84588	99.98
0.86255	99.98
0.87922	99.98
0.89588	99.99
0.91255	99.98
0.92922	99.98
0.94588	99.98
0.96255	99.98
0.97922	99.98
0.99588	99.99
1.01255	99.98
1.02922	99.99
1.04588	99.98
1.06255	99.98
1.07922	99.98
1.09588	99.98
1.11255	99.98
1.12922	99.98
1.14588	99.99
1.16255	99.98
1.17922	99.99
1.19588	99.98
1.21255	99.99
1.22922	99.98
1.24588	99.98
1.26255	99.98
1.27922	99.99
1.29588	99.98
1.31255	99.99
1.32922	99.99
1.34588	99.99
1.36255	99.99
1.37922	99.99
1.39588	99.99
1.41255	99.99
1.42922	99.98
1.44588	99.99
1.46255	99.99
1.47922	99.98
1.49588	99.99
1.51255	99.99
1.52922	99.99
1.54588	99.99
1.56255	99.99
1.57922	99.99
1.59588	99.99
1.61255	99.99
1.62922	99.99
1.64588	99.99
1.66255	99.99
1.67922	99.99
1.69588	99.99
1.71255	99.99
1.72922	99.98
1.74588	99.99
1.76255	99.99
1.77922	99.99
1.79588	99.99
1.81255	99.99
1.82922	99.98
1.84588	99.98
1.86255	99.98
1.87922	99.98
1.89588	99.98
1.91255	99.98
1.92922	99.98
1.94588	99.98
1.96255	99.98
1.97922	99.98
1.99588	99.98
2.01255	99.98
2.02922	99.98
2.04588	99.98
2.06255	99.97
2.07922	99.97
2.09588	99.97
2.11255	99.97
2.12922	99.97
2.14588	99.97
2.16255	99.97
2.17922	99.97
2.19588	99.97
2.21255	99.97
2.22922	99.97
2.24588	99.97
2.26255	99.96
2.27922	99.97
2.29588	99.97
2.31255	99.96
2.32922	99.97
2.34588	99.96
2.36255	99.96
2.37922	99.96
2.39588	99.96
2.41255	99.97
2.42922	99.97
2.44588	99.97
2.46255	99.97
2.47922	99.96
2.49588	99.97
2.51255	99.97
2.52922	99.97
2.54588	99.97
2.56255	99.97
2.57922	99.97
2.59588	99.97
2.61255	99.97
2.62922	99.97
2.64588	99.97
2.66255	99.97
2.67922	99.97
2.69588	99.98
2.71255	99.98
2.72922	99.98
2.74588	99.98
2.76255	99.98
2.77922	99.98
2.79588	99.99
2.81255	99.99
2.82922	99.99
2.84588	99.99
2.86255	100.00
2.87922	99.99
2.89588	100.00
2.91255	100.00
2.92922	100.00
2.94588	100.00
2.96255	100.00
2.97922	100.01
2.99588	100.01
3.01255	100.01
3.02922	100.01
3.04588	100.01
3.06255	100.01
3.07922	100.02
3.09588	100.02
3.11255	100.02
3.12922	100.02
3.14588	100.02
3.16255	100.02
3.17922	100.03
3.19588	100.03
3.21255	100.03
3.22922	100.03
3.24588	100.03
3.26255	100.03
3.27922	100.03
3.29588	100.03
3.31255	100.03
3.32922	100.04
3.34588	100.04
3.36255	100.03
3.37922	100.04
3.39588	100.04
3.41255	100.04
3.42922	100.04
3.44588	100.04
3.46255	100.04
3.47922	100.04
3.49588	100.04
3.51255	100.04
3.52922	100.04
3.54588	100.04
3.56255	100.05
3.57922	100.04
3.59588	100.04
3.61255	100.05
3.62922	100.05
3.64588	100.04
3.66255	100.05
3.67922	100.05
3.69588	100.04
3.71255	100.05
3.72922	100.05
3.74588	100.05
3.76255	100.05
3.77922	100.05
3.79588	100.05
3.81255	100.05
3.82922	100.05
3.84588	100.05
3.86255	100.05
3.87922	100.05
3.89588	100.05
3.91255	100.05
3.92922	100.05
3.94588	100.05
3.96255	100.05
3.97922	100.05
3.99588	100.06

[Status Trace (Carrier Gas Pressure)]
Interval(msec)	1000
# of Points	240
Start Time(min)	0.013
End Time(min)	3.996
Intensity Units	
Intensity Multiplier	1
R.Time (min)	Intensity
0.01255	57.98
0.02922	55.06
0.04588	57.72
0.06255	59.76
0.07922	58.77
0.09588	57.98
0.11255	57.99
0.12922	58.01
0.14588	58.01
0.16255	58.00
0.17922	58.00
0.19588	58.00
0.21255	58.00
0.22922	58.00
0.24588	58.00
0.26255	58.00
0.27922	58.00
0.29588	58.00
0.31255	58.00
0.32922	58.00
0.34588	58.00
0.36255	58.00
0.37922	58.00
0.39588	58.00
0.41255	58.00
0.42922	58.00
0.44588	58.00
0.46255	58.00
0.47922	58.00
0.49588	58.00
0.51255	58.00
0.52922	58.00
0.54588	58.00
0.56255	58.00
0.57922	58.00
0.59588	58.00
0.61255	58.00
0.62922	58.00
0.64588	58.00
0.66255	58.00
0.67922	58.00
0.69588	58.00
0.71255	58.00
0.72922	58.00
0.74588	58.00
0.76255	58.00
0.77922	58.00
0.79588	58.00
0.81255	58.00
0.82922	58.00
0.84588	58.00
0.86255	58.00
0.87922	58.00
0.89588	58.00
0.91255	58.00
0.92922	58.00
0.94588	58.00
0.96255	58.00
0.97922	58.00
0.99588	58.00
1.01255	58.00
1.02922	58.00
1.04588	58.00
1.06255	58.00
1.07922	58.00
1.09588	58.00
1.11255	58.00
1.12922	58.00
1.14588	58.00
1.16255	58.00
1.17922	58.00
1.19588	58.00
1.21255	58.00
1.22922	58.00
1.24588	58.00
1.26255	58.00
1.27922	58.00
1.29588	58.00
1.31255	58.00
1.32922	58.00
1.34588	58.00
1.36255	58.00
1.37922	58.00
1.39588	58.00
1.41255	58.00
1.42922	58.00
1.44588	58.00
1.46255	58.00
1.47922	58.00
1.49588	58.00
1.51255	58.00
1.52922	58.00
1.54588	58.00
1.56255	58.00
1.57922	58.00
1.59588	58.00
1.61255	58.00
1.62922	58.00
1.64588	58.00
1.66255	58.01
1.67922	58.01
1.69588	58.00
1.71255	58.00
1.72922	58.00
1.74588	58.00
1.76255	58.00
1.77922	58.00
1.79588	58.00
1.81255	58.00
1.82922	58.00
1.84588	58.00
1.86255	58.00
1.87922	58.00
1.89588	58.00
1.91255	58.00
1.92922	58.00
1.94588	58.00
1.96255	58.00
1.97922	58.00
1.99588	58.00
2.01255	58.00
2.02922	58.00
2.04588	58.00
2.06255	58.00
2.07922	58.00
2.09588	58.00
2.11255	58.00
2.12922	58.00
2.14588	58.00
2.16255	58.00
2.17922	58.00
2.19588	58.00
2.21255	58.00
2.22922	58.00
2.24588	58.00
2.26255	58.00
2.27922	58.00
2.29588	58.00
2.31255	58.00
2.32922	58.00
2.34588	58.00
2.36255	58.00
2.37922	57.99
2.39588	57.99
2.41255	58.00
2.42922	58.00
2.44588	58.00
2.46255	58.00
2.47922	58.00
2.49588	58.00
2.51255	57.99
2.52922	57.98
2.54588	58.00
2.56255	58.00
2.57922	58.00
2.59588	58.00
2.61255	58.00
2.62922	58.00
2.64588	58.00
2.66255	58.00
2.67922	58.00
2.69588	58.00
2.71255	58.00
2.72922	58.00
2.74588	58.00
2.76255	58.00
2.77922	58.00
2.79588	58.00
2.81255	58.00
2.82922	58.00
2.84588	58.00
2.86255	58.00
2.87922	58.00
2.89588	58.00
2.91255	58.00
2.92922	58.00
2.94588	58.00
2.96255	58.00
2.97922	58.00
2.99588	58.00
3.01255	58.00
3.02922	58.00
3.04588	58.00
3.06255	58.00
3.07922	58.00
3.09588	58.00
3.11255	58.00
3.12922	58.00
3.14588	58.00
3.16255	58.00
3.17922	58.00
3.19588	58.00
3.21255	58.00
3.22922	58.00
3.24588	58.00
3.26255	58.00
3.27922	58.00
3.29588	58.00
3.31255	58.00
3.32922	58.00
3.34588	58.00
3.36255	58.00
3.37922	58.00
3.39588	58.00
3.41255	58.00
3.42922	58.00
3.44588	58.00
3.46255	58.00
3.47922	58.00
3.49588	58.00
3.51255	58.00
3.52922	58.00
3.54588	58.00
3.56255	58.00
3.57922	58.00
3.59588	58.00
3.61255	58.00
3.62922	58.00
3.64588	58.00
3.66255	58.00
3.67922	58.00
3.69588	58.00
3.71255	58.00
3.72922	58.00
3.74588	58.00
3.76255	58.00
3.77922	58.00
3.79588	58.00
3.81255	58.00
3.82922	58.00
3.84588	58.00
3.86255	58.00
3.87922	58.00
3.89588	58.00
3.91255	58.00
3.92922	58.00
3.94588	58.00
3.96255	58.00
3.97922	58.00
3.99588	58.00

[Status Trace (Carrier Gas Flow)]
Interval(msec)	1000
# of Points	240
Start Time(min)	0.013
End Time(min)	3.996
Intensity Units	
Intensity Multiplier	1
R.Time (min)	Intensity
0.01255	34.59
0.02922	34.54
0.04588	34.55
0.06255	34.52
0.07922	34.50
0.09588	34.52
0.11255	34.52
0.12922	34.52
0.14588	34.52
0.16255	34.52
0.17922	34.52
0.19588	34.52
0.21255	34.52
0.22922	34.52
0.24588	34.52
0.26255	34.52
0.27922	34.52
0.29588	34.52
0.31255	34.52
0.32922	34.52
0.34588	34.52
0.36255	34.52
0.37922	34.52
0.39588	34.52
0.41255	34.52
0.42922	34.52
0.44588	34.52
0.46255	34.52
0.47922	34.52
0.49588	34.52
0.51255	34.52
0.52922	34.52
0.54588	34.52
0.56255	34.52
0.57922	34.52
0.59588	34.52
0.61255	34.52
0.62922	34.52
0.64588	34.52
0.66255	34.52
0.67922	34.52
0.69588	34.52
0.71255	34.52
0.72922	34.52
0.74588	34.52
0.76255	34.52
0.77922	34.52
0.79588	34.52
0.81255	34.52
0.82922	34.52
0.84588	34.52
0.86255	34.52
0.87922	34.52
0.89588	34.52
0.91255	34.52
0.92922	34.52
0.94588	34.52
0.96255	34.52
0.97922	34.52
0.99588	34.52
1.01255	34.52
1.02922	34.52
1.04588	34.52
1.06255	34.52
1.07922	34.52
1.09588	34.52
1.11255	34.52
1.12922	34.52
1.14588	34.52
1.16255	34.52
1.17922	34.52
1.19588	34.52
1.21255	34.52
1.22922	34.52
1.24588	34.52
1.26255	34.52
1.27922	34.52
1.29588	34.52
1.31255	34.52
1.32922	34.52
1.34588	34.52
1.36255	34.52
1.37922	34.52
1.39588	34.52
1.41255	34.52
1.42922	34.52
1.44588	34.52
1.46255	34.52
1.47922	34.52
1.49588	34.52
1.51255	34.52
1.52922	34.52
1.54588	34.52
1.56255	34.52
1.57922	34.52
1.59588	34.52
1.61255	34.52
1.62922	34.52
1.64588	34.52
1.66255	34.52
1.67922	34.52
1.69588	34.52
1.71255	34.52
1.72922	34.52
1.74588	34.52
1.76255	34.52
1.77922	34.52
1.79588	34.52
1.81255	34.52
1.82922	34.52
1.84588	34.52
1.86255	34.52
1.87922	34.52
1.89588	34.52
1.91255	34.52
1.92922	34.52
1.94588	34.52
1.96255	34.52
1.97922	34.52
1.99588	34.52
2.01255	34.52
2.02922	34.52
2.04588	34.52
2.06255	34.52
2.07922	34.52
2.09588	34.52
2.11255	34.52
2.12922	34.52
2.14588	34.52
2.16255	34.52
2.17922	34.52
2.19588	34.52
2.21255	34.52
2.22922	34.52
2.24588	34.52
2.26255	34.52
2.27922	34.52
2.29588	34.52
2.31255	34.52
2.32922	34.52
2.34588	34.52
2.36255	34.52
2.37922	34.52
2.39588	34.52
2.41255	34.52
2.42922	34.52
2.44588	34.52
2.46255	34.52
2.47922	34.51
2.49588	34.52
2.51255	34.52
2.52922	34.52
2.54588	34.52
2.56255	34.52
2.57922	34.52
2.59588	34.52
2.61255	34.52
2.62922	34.52
2.64588	34.52
2.66255	34.52
2.67922	34.52
2.69588	34.52
2.71255	34.52
2.72922	34.52
2.74588	34.52
2.76255	34.52
2.77922	34.52
2.79588	34.52
2.81255	34.52
2.82922	34.52
2.84588	34.52
2.86255	34.52
2.87922	34.52
2.89588	34.52
2.91255	34.52
2.92922	34.52
2.94588	34.52
2.96255	34.52
2.97922	34.52
2.99588	34.52
3.01255	34.52
3.02922	34.52
3.04588	34.52
3.06255	34.52
3.07922	34.52
3.09588	34.52
3.11255	34.52
3.12922	34.52
3.14588	34.52
3.16255	34.52
3.17922	34.52
3.19588	34.52
3.21255	34.52
3.22922	34.52
3.24588	34.52
3.26255	34.52
3.27922	34.52
3.29588	34.52
3.31255	34.52
3.32922	34.52
3.34588	34.52
3.36255	34.52
3.37922	34.52
3.39588	34.52
3.41255	34.52
3.42922	34.52
3.44588	34.52
3.46255	34.52
3.47922	34.52
3.49588	34.52
3.51255	34.52
3.52922	34.52
3.54588	34.52
3.56255	34.52
3.57922	34.52
3.59588	34.52
3.61255	34.52
3.62922	34.52
3.64588	34.52
3.66255	34.52
3.67922	34.52
3.69588	34.52
3.71255	34.52
3.72922	34.52
3.74588	34.52
3.76255	34.52
3.77922	34.52
3.79588	34.52
3.81255	34.52
3.82922	34.52
3.84588	34.52
3.86255	34.52
3.87922	34.52
3.89588	34.52
3.91255	34.52
3.92922	34.52
3.94588	34.52
3.96255	34.52
3.97922	34.52
3.99588	34.52

[Status Trace (Column Flow)]
Interval(msec)	1000
# of Points	240
Start Time(min)	0.013
End Time(min)	3.996
Intensity Units	
Intensity Multiplier	1
R.Time (min)	Intensity
0.01255	5.44
0.02922	5.11
0.04588	5.41
0.06255	5.65
0.07922	5.53
0.09588	5.44
0.11255	5.44
0.12922	5.45
0.14588	5.44
0.16255	5.44
0.17922	5.44
0.19588	5.44
0.21255	5.44
0.22922	5.45
0.24588	5.45
0.26255	5.45
0.27922	5.45
0.29588	5.45
0.31255	5.45
0.32922	5.45
0.34588	5.45
0.36255	5.45
0.37922	5.44
0.39588	5.45
0.41255	5.45
0.42922	5.44
0.44588	5.44
0.46255	5.44
0.47922	5.45
0.49588	5.45
0.51255	5.44
0.52922	5.45
0.54588	5.44
0.56255	5.44
0.57922	5.44
0.59588	5.45
0.61255	5.45
0.62922	5.45
0.64588	5.45
0.66255	5.45
0.67922	5.44
0.69588	5.44
0.71255	5.44
0.72922	5.44
0.74588	5.44
0.76255	5.44
0.77922	5.44
0.79588	5.44
0.81255	5.44
0.82922	5.44
0.84588	5.44
0.86255	5.44
0.87922	5.44
0.89588	5.44
0.91255	5.44
0.92922	5.44
0.94588	5.44
0.96255	5.44
0.97922	5.45
0.99588	5.45
1.01255	5.45
1.02922	5.45
1.04588	5.45
1.06255	5.44
1.07922	5.44
1.09588	5.44
1.11255	5.44
1.12922	5.44
1.14588	5.44
1.16255	5.45
1.17922	5.45
1.19588	5.45
1.21255	5.44
1.22922	5.45
1.24588	5.44
1.26255	5.45
1.27922	5.44
1.29588	5.44
1.31255	5.44
1.32922	5.44
1.34588	5.44
1.36255	5.44
1.37922	5.44
1.39588	5.44
1.41255	5.44
1.42922	5.44
1.44588	5.44
1.46255	5.44
1.47922	5.44
1.49588	5.45
1.51255	5.44
1.52922	5.44
1.54588	5.45
1.56255	5.45
1.57922	5.45
1.59588	5.44
1.61255	5.44
1.62922	5.44
1.64588	5.43
1.66255	5.42
1.67922	5.41
1.69588	5.40
1.71255	5.39
1.72922	5.38
1.74588	5.37
1.76255	5.36
1.77922	5.35
1.79588	5.34
1.81255	5.33
1.82922	5.32
1.84588	5.31
1.86255	5.30
1.87922	5.29
1.89588	5.28
1.91255	5.27
1.92922	5.26
1.94588	5.25
1.96255	5.24
1.97922	5.23
1.99588	5.22
2.01255	5.21
2.02922	5.20
2.04588	5.20
2.06255	5.19
2.07922	5.18
2.09588	5.17
2.11255	5.16
2.12922	5.15
2.14588	5.14
2.16255	5.13
2.17922	5.12
2.19588	5.11
2.21255	5.10
2.22922	5.09
2.24588	5.08
2.26255	5.07
2.27922	5.07
2.29588	5.06
2.31255	5.05
2.32922	5.04
2.34588	5.03
2.36255	5.02
2.37922	5.02
2.39588	5.02
2.41255	5.02
2.42922	5.02
2.44588	5.02
2.46255	5.02
2.47922	5.01
2.49588	5.01
2.51255	5.01
2.52922	5.01
2.54588	5.01
2.56255	5.01
2.57922	5.01
2.59588	5.01
2.61255	5.01
2.62922	5.01
2.64588	5.01
2.66255	5.01
2.67922	5.01
2.69588	5.01
2.71255	5.01
2.72922	5.01
2.74588	5.01
2.76255	5.01
2.77922	5.01
2.79588	5.01
2.81255	5.01
2.82922	5.01
2.84588	5.01
2.86255	5.01
2.87922	5.01
2.89588	5.01
2.91255	5.01
2.92922	5.01
2.94588	5.01
2.96255	5.01
2.97922	5.01
2.99588	5.01
3.01255	5.01
3.02922	5.01
3.04588	5.01
3.06255	5.01
3.07922	5.01
3.09588	5.01
3.11255	5.01
3.12922	5.01
3.14588	5.01
3.16255	5.01
3.17922	5.01
3.19588	5.00
3.21255	5.00
3.22922	5.00
3.24588	5.00
3.26255	5.00
3.27922	5.01
3.29588	5.01
3.31255	5.01
3.32922	5.01
3.34588	5.01
3.36255	5.01
3.37922	5.01
3.39588	5.01
3.41255	5.01
3.42922	5.01
3.44588	5.01
3.46255	5.01
3.47922	5.01
3.49588	5.01
3.51255	5.01
3.52922	5.01
3.54588	5.01
3.56255	5.01
3.57922	5.01
3.59588	5.01
3.61255	5.01
3.62922	5.01
3.64588	5.01
3.66255	5.01
3.67922	5.01
3.69588	5.01
3.71255	5.01
3.72922	5.01
3.74588	5.01
3.76255	5.01
3.77922	5.01
3.79588	5.01
3.81255	5.01
3.82922	5.01
3.84588	5.01
3.86255	5.01
3.87922	5.01
3.89588	5.01
3.91255	5.01
3.92922	5.01
3.94588	5.01
3.96255	5.01
3.97922	5.01
3.99588	5.01

[Status Trace (Linear Velocity)]
Interval(msec)	1000
# of Points	240
Start Time(min)	0.013
End Time(min)	3.996
Intensity Units	
Intensity Multiplier	1
R.Time (min)	Intensity
0.01255	38.98
0.02922	37.07
0.04588	38.81
0.06255	40.15
0.07922	39.50
0.09588	38.98
0.11255	38.99
0.12922	39.01
0.14588	39.00
0.16255	39.00
0.17922	39.00
0.19588	39.00
0.21255	39.00
0.22922	39.00
0.24588	39.00
0.26255	39.00
0.27922	39.00
0.29588	39.00
0.31255	39.00
0.32922	39.00
0.34588	39.00
0.36255	39.00
0.37922	39.00
0.39588	39.00
0.41255	39.00
0.42922	39.00
0.44588	39.00
0.46255	39.00
0.47922	39.00
0.49588	39.00
0.51255	39.00
0.52922	39.00
0.54588	39.00
0.56255	39.00
0.57922	39.00
0.59588	39.00
0.61255	39.00
0.62922	39.00
0.64588	39.00
0.66255	39.00
0.67922	39.00
0.69588	39.00
0.71255	39.00
0.72922	39.00
0.74588	39.00
0.76255	39.00
0.77922	39.00
0.79588	39.00
0.81255	39.00
0.82922	39.00
0.84588	39.00
0.86255	39.00
0.87922	39.00
0.89588	39.00
0.91255	39.00
0.92922	39.00
0.94588	39.00
0.96255	39.00
0.97922	39.00
0.99588	39.00
1.01255	39.00
1.02922	39.00
1.04588	39.00
1.06255	39.00
1.07922	39.00
1.09588	39.00
1.11255	39.00
1.12922	39.00
1.14588	39.00
1.16255	39.00
1.17922	39.00
1.19588	39.00
1.21255	39.00
1.22922	39.00
1.24588	39.00
1.26255	39.00
1.27922	39.00
1.29588	39.00
1.31255	39.00
1.32922	39.00
1.34588	39.00
1.36255	39.00
1.37922	39.00
1.39588	39.00
1.41255	39.00
1.42922	39.00
1.44588	39.00
1.46255	39.00
1.47922	39.00
1.49588	39.00
1.51255	39.00
1.52922	39.00
1.54588	39.00
1.56255	39.00
1.57922	39.00
1.59588	39.00
1.61255	38.99
1.62922	38.98
1.64588	38.96
1.66255	38.94
1.67922	38.90
1.69588	38.87
1.71255	38.83
1.72922	38.80
1.74588	38.77
1.76255	38.74
1.77922	38.70
1.79588	38.67
1.81255	38.64
1.82922	38.61
1.84588	38.58
1.86255	38.55
1.87922	38.52
1.89588	38.49
1.91255	38.46
1.92922	38.42
1.94588	38.39
1.96255	38.37
1.97922	38.34
1.99588	38.31
2.01255	38.28
2.02922	38.25
2.04588	38.22
2.06255	38.19
2.07922	38.16
2.09588	38.13
2.11255	38.10
2.12922	38.07
2.14588	38.04
2.16255	38.01
2.17922	37.98
2.19588	37.95
2.21255	37.92
2.22922	37.89
2.24588	37.86
2.26255	37.83
2.27922	37.80
2.29588	37.77
2.31255	37.74
2.32922	37.71
2.34588	37.68
2.36255	37.66
2.37922	37.64
2.39588	37.64
2.41255	37.64
2.42922	37.64
2.44588	37.64
2.46255	37.64
2.47922	37.64
2.49588	37.64
2.51255	37.63
2.52922	37.63
2.54588	37.63
2.56255	37.63
2.57922	37.63
2.59588	37.63
2.61255	37.63
2.62922	37.63
2.64588	37.63
2.66255	37.63
2.67922	37.63
2.69588	37.63
2.71255	37.63
2.72922	37.63
2.74588	37.63
2.76255	37.63
2.77922	37.63
2.79588	37.63
2.81255	37.63
2.82922	37.63
2.84588	37.63
2.86255	37.63
2.87922	37.63
2.89588	37.62
2.91255	37.62
2.92922	37.62
2.94588	37.62
2.96255	37.62
2.97922	37.62
2.99588	37.62
3.01255	37.62
3.02922	37.61
3.04588	37.61
3.06255	37.61
3.07922	37.61
3.09588	37.61
3.11255	37.61
3.12922	37.61
3.14588	37.61
3.16255	37.61
3.17922	37.61
3.19588	37.61
3.21255	37.61
3.22922	37.61
3.24588	37.61
3.26255	37.61
3.27922	37.61
3.29588	37.61
3.31255	37.61
3.32922	37.61
3.34588	37.61
3.36255	37.61
3.37922	37.61
3.39588	37.61
3.41255	37.61
3.42922	37.61
3.44588	37.61
3.46255	37.61
3.47922	37.61
3.49588	37.61
3.51255	37.61
3.52922	37.61
3.54588	37.61
3.56255	37.61
3.57922	37.61
3.59588	37.61
3.61255	37.61
3.62922	37.61
3.64588	37.61
3.66255	37.61
3.67922	37.61
3.69588	37.61
3.71255	37.61
3.72922	37.61
3.74588	37.61
3.76255	37.61
3.77922	37.61
3.79588	37.61
3.81255	37.61
3.82922	37.61
3.84588	37.61
3.86255	37.61
3.87922	37.61
3.89588	37.61
3.91255	37.61
3.92922	37.61
3.94588	37.61
3.96255	37.61
3.97922	37.61
3.99588	37.61

