[Header]
Application Name	LabSolutions
Version	5.110
Data File Name	C:\Users\User\Desktop\GC Analyses\Jack\UIC Prairie Sampling\11.2.22\221102_051.gcd
Output Date	3/20/2023
Output Time	1:25:39 PM

[File Information]
Type	Data File
Generated	12/21/2022 1:25:02 PM
Generated by	System Administrator
Modified	12/21/2022 1:29:29 PM
Modified by	System Administrator

[Sample Information]
Operator Name	System Administrator
Acquired	12/21/2022 1:25:29 PM
Sample Type	1:Standard
Level	1
Sample Name	221102_UICPrairie
Sample ID	221102_UICPrairie
ISTD Amount1	1
ISTD Amount2	1
ISTD Amount3	1
ISTD Amount4	1
ISTD Amount5	1
ISTD Amount6	1
ISTD Amount7	1
ISTD Amount8	1
ISTD Amount9	1
ISTD Amount10	1
ISTD Amount11	1
ISTD Amount12	1
ISTD Amount13	1
ISTD Amount14	1
ISTD Amount15	1
ISTD Amount16	1
ISTD Amount17	1
ISTD Amount18	1
ISTD Amount19	1
ISTD Amount20	1
ISTD Amount21	1
ISTD Amount22	1
ISTD Amount23	1
ISTD Amount24	1
ISTD Amount25	1
ISTD Amount26	1
ISTD Amount27	1
ISTD Amount28	1
ISTD Amount29	1
ISTD Amount30	1
ISTD Amount31	1
ISTD Amount32	1
Sample Amount	1
Dilution Factor	1
Vial#	1
Injection Volume	1
Injection Count	1
Bar Code	

[Original Files]
Data File	C:\Users\User\Desktop\GC Analyses\Jack\UIC Prairie Sampling\11.2.22\221102_051.gcd
Method File	C:\LabSolutions\Data\GHG_4min_2022\ghg3_togas_w_acet_4 min_new_int.gcm
Batch File	
Report Format File	c:\LabSolutions\System\DEFAULT.lsr

[File Description]


[Configuration]
Instrument Name	C0B7VH3-Instrument1
Instrument #	1
Line #	1
# of Detectors	3
Detector ID	DET#1	DET#2	DET#3
Detector Name	FID	PTCD	ECD
# of Channels	1	1	1

[Peak Table(Ch1)]
# of Peaks	3
Peak#	R.Time	I.Time	F.Time	Area	Height	A/H	Conc.	Mark	ID#	Name	k'	Plate #	Plate Ht.	Tailing	Resolution	Sep.Factor	Area Ratio	Height Ratio	Conc. %	Norm Conc.
1	1.479	1.439	1.538	10627	4627	2.297	100.000	   	1	CO	0.000	8071	18.585	1.210	0.000	0.000	0	0	16.667	16.667
2	1.571	1.538	1.637	5348	2614	2.046	100.000	 V 	2	CH4	0.062	10933	13.720	0.000	1.455	0.000	0	0	16.667	16.667
3	2.000	1.952	2.576	1264051	584807	2.161	400.000	   	3	CO2	0.352	17247	8.697	1.225	7.090	5.680	0	0	66.667	66.667

[Peak Table(Ch2)]
# of Peaks	0

[Peak Table(Ch3)]
# of Peaks	6
Peak#	R.Time	I.Time	F.Time	Area	Height	A/H	Conc.	Mark	ID#	Name	k'	Plate #	Plate Ht.	Tailing	Resolution	Sep.Factor	Area Ratio	Height Ratio	Conc. %	Norm Conc.
1	0.445	0.247	0.654	185	17	11.012	0.000	   			0.000	214	702.438	1.031	0.000	0.000	0	0	0.000	0.000
2	2.462	2.330	2.499	1846	555	3.325	0.000	   			4.528	8672	17.296	0.000	17.717	0.000	0	0	0.000	0.000
3	2.517	2.499	2.565	1257	400	3.140	0.000	 V 			4.652	2786	53.834	0.000	0.371	1.027	0	0	0.000	0.000
4	2.609	2.565	2.656	1227	355	3.460	0.000	 V 			4.858	5847	25.656	0.000	0.560	1.044	0	0	0.000	0.000
5	2.884	2.803	3.019	26682	5957	4.479	1.000	   	1	N2O	5.475	11396	13.162	0.000	2.249	1.127	0	0	50.000	50.000
6	3.144	3.019	3.932	22411	753	29.767	1.000	 V 	2	SF6	6.060	11	13376.833	0.000	0.135	1.107	0	0	50.000	50.000

[Compound Results(Ch1)]
# of IDs	6
ID#	Name	R.Time	Area	Height	Conc.	Curve	3rd	2nd	1st	Constant	Area Ratio	Height Ratio	Conc. %	Norm Conc.
1	CO	1.479	10627	4627	100.000	Linear	0.000000e+00	0.000000e+00	1.062724e+002	0.000000e+00	0	0	16.667	16.667
2	CH4	1.571	5348	2614	100.000	Linear	0.000000e+00	0.000000e+00	5.348052e+001	0.000000e+00	0	0	16.667	16.667
3	CO2	2.000	1264051	584807	400.000	Linear	0.000000e+00	0.000000e+00	3.160128e+003	0.000000e+00	0	0	66.667	66.667
4	Ethylene	0.000	0	0	0.000	Linear	0.000000e+00	0.000000e+00	0.000000e+00	0.000000e+00	0	0	0.000	0.000
5	Acetylene	0.000	0	0	0.000	Linear	0.000000e+00	0.000000e+00	0.000000e+00	0.000000e+00	0	0	0.000	0.000
6	Ethane	0.000	0	0	0.000	Linear	0.000000e+00	0.000000e+00	0.000000e+00	0.000000e+00	0	0	0.000	0.000

[Compound Results(Ch2)]
# of IDs	5
ID#	Name	R.Time	Area	Height	Conc.	Curve	3rd	2nd	1st	Constant	Area Ratio	Height Ratio	Conc. %	Norm Conc.
1	Hydrogen	0.000	0	0	0.000	Linear	0.000000e+00	0.000000e+00	0.000000e+00	0.000000e+00	0	0	0.000	0.000
2	Oxygen	0.000	0	0	0.000	Linear	0.000000e+00	0.000000e+00	0.000000e+00	0.000000e+00	0	0	0.000	0.000
3	Nitrogen	0.000	0	0	0.000	Linear	0.000000e+00	0.000000e+00	0.000000e+00	0.000000e+00	0	0	0.000	0.000
4	Methane	0.000	0	0	0.000	Linear	0.000000e+00	0.000000e+00	0.000000e+00	0.000000e+00	0	0	0.000	0.000
5	Carbon Monoxide	0.000	0	0	0.000	Linear	0.000000e+00	0.000000e+00	0.000000e+00	0.000000e+00	0	0	0.000	0.000

[Compound Results(Ch3)]
# of IDs	2
ID#	Name	R.Time	Area	Height	Conc.	Curve	3rd	2nd	1st	Constant	Area Ratio	Height Ratio	Conc. %	Norm Conc.
1	N2O	2.884	26682	5957	1.000	Linear	0.000000e+00	0.000000e+00	2.668177e+004	0.000000e+00	0	0	50.000	50.000
2	SF6	3.144	22411	753	1.000	Linear	0.000000e+00	0.000000e+00	2.241131e+004	0.000000e+00	0	0	50.000	50.000

[Group Results(Ch1)]
# of Groups	0

[Group Results(Ch2)]
# of Groups	0

[Group Results(Ch3)]
# of Groups	0

[Chromatogram (Ch1)]
Interval(msec)	220
# of Points	1091
Start Time(min)	0.002
End Time(min)	3.998
R.Time (min)	Intensity
0.00167	13
0.00533	18
0.00900	25
0.01267	29
0.01633	28
0.02000	23
0.02367	16
0.02733	10
0.03100	8
0.03467	11
0.03833	11
0.04200	6
0.04567	5
0.04933	5
0.05300	2
0.05667	0
0.06033	-1
0.06400	-5
0.06767	-10
0.07133	-13
0.07500	-14
0.07867	-13
0.08233	-10
0.08600	-7
0.08967	-3
0.09333	0
0.09700	3
0.10067	0
0.10433	-10
0.10800	-22
0.11167	-32
0.11533	-39
0.11900	-42
0.12267	-41
0.12633	-35
0.13000	-28
0.13367	-24
0.13733	-22
0.14100	-18
0.14467	-14
0.14833	-11
0.15200	-11
0.15567	-10
0.15933	-8
0.16300	-5
0.16667	-2
0.17033	-2
0.17400	-3
0.17767	-4
0.18133	-6
0.18500	-11
0.18867	-12
0.19233	-9
0.19600	-7
0.19967	-7
0.20333	-9
0.20700	-8
0.21067	-5
0.21433	-4
0.21800	-6
0.22167	-12
0.22533	-18
0.22900	-22
0.23267	-22
0.23633	-22
0.24000	-23
0.24367	-20
0.24733	-14
0.25100	-13
0.25467	-13
0.25833	-11
0.26200	-9
0.26567	-9
0.26933	-13
0.27300	-16
0.27667	-19
0.28033	-23
0.28400	-25
0.28767	-27
0.29133	-26
0.29500	-24
0.29867	-23
0.30233	-26
0.30600	-29
0.30967	-30
0.31333	-30
0.31700	-31
0.32067	-30
0.32433	-26
0.32800	-21
0.33167	-17
0.33533	-18
0.33900	-21
0.34267	-24
0.34633	-25
0.35000	-23
0.35367	-24
0.35733	-29
0.36100	-36
0.36467	-44
0.36833	-49
0.37200	-47
0.37567	-40
0.37933	-31
0.38300	-24
0.38667	-22
0.39033	-25
0.39400	-32
0.39767	-37
0.40133	-40
0.40500	-43
0.40867	-45
0.41233	-47
0.41600	-49
0.41967	-48
0.42333	-46
0.42700	-43
0.43067	-40
0.43433	-36
0.43800	-32
0.44167	-26
0.44533	-23
0.44900	-21
0.45267	-22
0.45633	-23
0.46000	-26
0.46367	-29
0.46733	-30
0.47100	-30
0.47467	-31
0.47833	-31
0.48200	-29
0.48567	-27
0.48933	-27
0.49300	-28
0.49667	-28
0.50033	-30
0.50400	-30
0.50767	-33
0.51133	-37
0.51500	-39
0.51867	-40
0.52233	-40
0.52600	-38
0.52967	-39
0.53333	-40
0.53700	-39
0.54067	-33
0.54433	-28
0.54800	-26
0.55167	-28
0.55533	-34
0.55900	-40
0.56267	-43
0.56633	-47
0.57000	-52
0.57367	-56
0.57733	-59
0.58100	-61
0.58467	-63
0.58833	-66
0.59200	-69
0.59567	-73
0.59933	-76
0.60300	-73
0.60667	-66
0.61033	-57
0.61400	-47
0.61767	-40
0.62133	-40
0.62500	-44
0.62867	-49
0.63233	-54
0.63600	-56
0.63967	-56
0.64333	-56
0.64700	-56
0.65067	-53
0.65433	-51
0.65800	-51
0.66167	-52
0.66533	-51
0.66900	-49
0.67267	-49
0.67633	-50
0.68000	-49
0.68367	-46
0.68733	-42
0.69100	-38
0.69467	-36
0.69833	-37
0.70200	-43
0.70567	-49
0.70933	-54
0.71300	-62
0.71667	-73
0.72033	-83
0.72400	-87
0.72767	-86
0.73133	-83
0.73500	-81
0.73867	-79
0.74233	-76
0.74600	-74
0.74967	-74
0.75333	-79
0.75700	-85
0.76067	-87
0.76433	-83
0.76800	-76
0.77167	-70
0.77533	-65
0.77900	-61
0.78267	-60
0.78633	-61
0.79000	-63
0.79367	-62
0.79733	-59
0.80100	-53
0.80467	-48
0.80833	-46
0.81200	-49
0.81567	-55
0.81933	-61
0.82300	-67
0.82667	-76
0.83033	-84
0.83400	-88
0.83767	-89
0.84133	-87
0.84500	-82
0.84867	-73
0.85233	-63
0.85600	-56
0.85967	-51
0.86333	-48
0.86700	-49
0.87067	-50
0.87433	-55
0.87800	-61
0.88167	-68
0.88533	-71
0.88900	-68
0.89267	-66
0.89633	-65
0.90000	-64
0.90367	-67
0.90733	-76
0.91100	-86
0.91467	-94
0.91833	-101
0.92200	-105
0.92567	-105
0.92933	-102
0.93300	-99
0.93667	-95
0.94033	-93
0.94400	-91
0.94767	-90
0.95133	-88
0.95500	-83
0.95867	-76
0.96233	-74
0.96600	-74
0.96967	-75
0.97333	-73
0.97700	-74
0.98067	-74
0.98433	-71
0.98800	-70
0.99167	-71
0.99533	-77
0.99900	-83
1.00267	-89
1.00633	-92
1.01000	-94
1.01367	-94
1.01733	-90
1.02100	-86
1.02467	-84
1.02833	-85
1.03200	-86
1.03567	-86
1.03933	-86
1.04300	-87
1.04667	-87
1.05033	-86
1.05400	-93
1.05767	-87
1.06133	-77
1.06500	-74
1.06867	-75
1.07233	-82
1.07600	-90
1.07967	-98
1.08333	-102
1.08700	-105
1.09067	-108
1.09433	-107
1.09800	-102
1.10167	-98
1.10533	-93
1.10900	-89
1.11267	-88
1.11633	-88
1.12000	-87
1.12367	-86
1.12733	-87
1.13100	-90
1.13467	-90
1.13833	-90
1.14200	-91
1.14567	-95
1.14933	-98
1.15300	-99
1.15667	-101
1.16033	-103
1.16400	-101
1.16767	-101
1.17133	-105
1.17500	-113
1.17867	-119
1.18233	-120
1.18600	-115
1.18967	-108
1.19333	-103
1.19700	-101
1.20067	-100
1.20433	-101
1.20800	-106
1.21167	-113
1.21533	-117
1.21900	-118
1.22267	-117
1.22633	-114
1.23000	-108
1.23367	-102
1.23733	-98
1.24100	-97
1.24467	-103
1.24833	-110
1.25200	-113
1.25567	-112
1.25933	-111
1.26300	-111
1.26667	-113
1.27033	-116
1.27400	-116
1.27767	-115
1.28133	-116
1.28500	-121
1.28867	-123
1.29233	-124
1.29600	-124
1.29967	-121
1.30333	-118
1.30700	-118
1.31067	-119
1.31433	-120
1.31800	-120
1.32167	-118
1.32533	-115
1.32900	-113
1.33267	-115
1.33633	-120
1.34000	-126
1.34367	-129
1.34733	-131
1.35100	-129
1.35467	-126
1.35833	-123
1.36200	-119
1.36567	-116
1.36933	-115
1.37300	-117
1.37667	-120
1.38033	-121
1.38400	-121
1.38767	-121
1.39133	-123
1.39500	-127
1.39867	-133
1.40233	-135
1.40600	-130
1.40967	-124
1.41333	-119
1.41700	-117
1.42067	-117
1.42433	-120
1.42800	-126
1.43167	-132
1.43533	-135
1.43900	-122
1.44267	-49
1.44633	122
1.45000	395
1.45367	834
1.45733	1504
1.46100	2317
1.46467	3109
1.46833	3768
1.47200	4245
1.47567	4506
1.47933	4507
1.48300	4233
1.48667	3726
1.49033	3087
1.49400	2433
1.49767	1847
1.50133	1367
1.50500	993
1.50867	713
1.51233	506
1.51600	353
1.51967	244
1.52333	165
1.52700	108
1.53067	68
1.53433	42
1.53800	33
1.54167	75
1.54533	240
1.54900	574
1.55267	1040
1.55633	1533
1.56000	1965
1.56367	2289
1.56733	2478
1.57100	2500
1.57467	2330
1.57833	1997
1.58200	1580
1.58567	1167
1.58933	815
1.59300	541
1.59667	338
1.60033	192
1.60400	92
1.60767	24
1.61133	-18
1.61500	-42
1.61867	-57
1.62233	-69
1.62600	-81
1.62967	-94
1.63333	-105
1.63700	-110
1.64067	-114
1.64433	-116
1.64800	-115
1.65167	-114
1.65533	-115
1.65900	-116
1.66267	-122
1.66633	-131
1.67000	-140
1.67367	-144
1.67733	-145
1.68100	-144
1.68467	-144
1.68833	-143
1.69200	-139
1.69567	-132
1.69933	-128
1.70300	-127
1.70667	-128
1.71033	-129
1.71400	-129
1.71767	-129
1.72133	-130
1.72500	-132
1.72867	-136
1.73233	-137
1.73600	-138
1.73967	-141
1.74333	-145
1.74700	-150
1.75067	-155
1.75433	-155
1.75800	-154
1.76167	-151
1.76533	-145
1.76900	-140
1.77267	-141
1.77633	-143
1.78000	-145
1.78367	-146
1.78733	-143
1.79100	-142
1.79467	-143
1.79833	-146
1.80200	-152
1.80567	-155
1.80933	-155
1.81300	-150
1.81667	-144
1.82033	-140
1.82400	-139
1.82767	-141
1.83133	-143
1.83500	-144
1.83867	-144
1.84233	-143
1.84600	-142
1.84967	-141
1.85333	-139
1.85700	-141
1.86067	-142
1.86433	-141
1.86800	-137
1.87167	-132
1.87533	-128
1.87900	-128
1.88267	-133
1.88633	-139
1.89000	-142
1.89367	-141
1.89733	-139
1.90100	-136
1.90467	-135
1.90833	-136
1.91200	-140
1.91567	-143
1.91933	-140
1.92300	-136
1.92667	-133
1.93033	-130
1.93400	-125
1.93767	-122
1.94133	-122
1.94500	-127
1.94867	-133
1.95233	-128
1.95600	-67
1.95967	290
1.96333	2019
1.96700	8462
1.97067	26800
1.97433	67206
1.97800	137332
1.98167	234692
1.98533	345219
1.98900	449734
1.99267	531385
1.99633	578466
2.00000	584725
2.00367	550664
2.00733	484804
2.01100	401270
2.01467	314894
2.01833	236830
2.02200	172775
2.02567	123747
2.02933	88010
2.03300	62794
2.03667	45353
2.04033	33408
2.04400	25239
2.04767	19620
2.05133	15705
2.05500	12929
2.05867	10918
2.06233	9425
2.06600	8286
2.06967	7393
2.07333	6678
2.07700	6094
2.08067	5609
2.08433	5199
2.08800	4849
2.09167	4549
2.09533	4285
2.09900	4048
2.10267	3833
2.10633	3635
2.11000	3455
2.11367	3289
2.11733	3141
2.12100	3009
2.12467	2887
2.12833	2772
2.13200	2660
2.13567	2555
2.13933	2459
2.14300	2369
2.14667	2287
2.15033	2213
2.15400	2143
2.15767	2074
2.16133	2009
2.16500	1947
2.16867	1889
2.17233	1836
2.17600	1789
2.17967	1745
2.18333	1701
2.18700	1660
2.19067	1617
2.19433	1575
2.19800	1537
2.20167	1502
2.20533	1466
2.20900	1429
2.21267	1394
2.21633	1360
2.22000	1327
2.22367	1295
2.22733	1265
2.23100	1238
2.23467	1216
2.23833	1196
2.24200	1179
2.24567	1163
2.24933	1148
2.25300	1132
2.25667	1113
2.26033	1093
2.26400	1069
2.26767	1041
2.27133	1013
2.27500	990
2.27867	971
2.28233	953
2.28600	939
2.28967	928
2.29333	918
2.29700	903
2.30067	885
2.30433	867
2.30800	855
2.31167	847
2.31533	839
2.31900	829
2.32267	818
2.32633	808
2.33000	803
2.33367	797
2.33733	789
2.34100	781
2.34467	771
2.34833	761
2.35200	752
2.35567	742
2.35933	732
2.36300	722
2.36667	713
2.37033	705
2.37400	697
2.37767	686
2.38133	674
2.38500	664
2.38867	656
2.39233	650
2.39600	648
2.39967	652
2.40333	657
2.40700	659
2.41067	660
2.41433	658
2.41800	652
2.42167	644
2.42533	632
2.42900	616
2.43267	602
2.43633	592
2.44000	586
2.44367	580
2.44733	577
2.45100	580
2.45467	584
2.45833	586
2.46200	586
2.46567	582
2.46933	576
2.47300	567
2.47667	561
2.48033	558
2.48400	554
2.48767	544
2.49133	533
2.49500	525
2.49867	521
2.50233	520
2.50600	519
2.50967	520
2.51333	521
2.51700	520
2.52067	518
2.52433	515
2.52800	511
2.53167	508
2.53533	504
2.53900	500
2.54267	498
2.54633	498
2.55000	498
2.55367	497
2.55733	494
2.56100	487
2.56467	477
2.56833	470
2.57200	466
2.57567	464
2.57933	466
2.58300	468
2.58667	468
2.59033	467
2.59400	465
2.59767	465
2.60133	467
2.60500	469
2.60867	470
2.61233	469
2.61600	469
2.61967	471
2.62333	475
2.62700	483
2.63067	487
2.63433	484
2.63800	481
2.64167	479
2.64533	475
2.64900	466
2.65267	459
2.65633	453
2.66000	449
2.66367	448
2.66733	450
2.67100	454
2.67467	458
2.67833	459
2.68200	455
2.68567	449
2.68933	445
2.69300	442
2.69667	440
2.70033	435
2.70400	429
2.70767	423
2.71133	422
2.71500	427
2.71867	435
2.72233	445
2.72600	455
2.72967	461
2.73333	463
2.73700	460
2.74067	451
2.74433	439
2.74800	428
2.75167	422
2.75533	420
2.75900	421
2.76267	420
2.76633	418
2.77000	419
2.77367	425
2.77733	436
2.78100	448
2.78467	457
2.78833	459
2.79200	453
2.79567	444
2.79933	435
2.80300	426
2.80667	420
2.81033	417
2.81400	416
2.81767	417
2.82133	418
2.82500	420
2.82867	419
2.83233	417
2.83600	421
2.83967	427
2.84333	429
2.84700	424
2.85067	417
2.85433	414
2.85800	415
2.86167	421
2.86533	431
2.86900	443
2.87267	448
2.87633	446
2.88000	438
2.88367	429
2.88733	420
2.89100	412
2.89467	410
2.89833	411
2.90200	412
2.90567	415
2.90933	417
2.91300	418
2.91667	418
2.92033	417
2.92400	418
2.92767	420
2.93133	422
2.93500	424
2.93867	426
2.94233	428
2.94600	427
2.94967	425
2.95333	421
2.95700	416
2.96067	412
2.96433	412
2.96800	414
2.97167	417
2.97533	418
2.97900	419
2.98267	421
2.98633	425
2.99000	431
2.99367	437
2.99733	443
3.00100	444
3.00467	440
3.00833	439
3.01200	440
3.01567	441
3.01933	442
3.02300	442
3.02667	440
3.03033	434
3.03400	427
3.03767	419
3.04133	412
3.04500	406
3.04867	405
3.05233	408
3.05600	410
3.05967	404
3.06333	392
3.06700	380
3.07067	374
3.07433	375
3.07800	377
3.08167	379
3.08533	382
3.08900	385
3.09267	387
3.09633	387
3.10000	385
3.10367	384
3.10733	385
3.11100	387
3.11467	393
3.11833	395
3.12200	393
3.12567	391
3.12933	388
3.13300	384
3.13667	382
3.14033	382
3.14400	384
3.14767	387
3.15133	389
3.15500	389
3.15867	385
3.16233	377
3.16600	370
3.16967	366
3.17333	367
3.17700	372
3.18067	378
3.18433	384
3.18800	388
3.19167	387
3.19533	383
3.19900	381
3.20267	383
3.20633	385
3.21000	386
3.21367	384
3.21733	380
3.22100	374
3.22467	369
3.22833	366
3.23200	363
3.23567	363
3.23933	361
3.24300	357
3.24667	355
3.25033	356
3.25400	361
3.25767	366
3.26133	370
3.26500	371
3.26867	370
3.27233	368
3.27600	370
3.27967	372
3.28333	374
3.28700	373
3.29067	372
3.29433	369
3.29800	362
3.30167	354
3.30533	348
3.30900	347
3.31267	349
3.31633	352
3.32000	354
3.32367	360
3.32733	365
3.33100	367
3.33467	365
3.33833	360
3.34200	354
3.34567	350
3.34933	352
3.35300	360
3.35667	367
3.36033	374
3.36400	380
3.36767	380
3.37133	375
3.37500	362
3.37867	347
3.38233	335
3.38600	331
3.38967	331
3.39333	331
3.39700	330
3.40067	329
3.40433	328
3.40800	328
3.41167	330
3.41533	335
3.41900	339
3.42267	339
3.42633	336
3.43000	334
3.43367	333
3.43733	332
3.44100	332
3.44467	331
3.44833	331
3.45200	330
3.45567	327
3.45933	321
3.46300	315
3.46667	312
3.47033	311
3.47400	310
3.47767	314
3.48133	326
3.48500	336
3.48867	335
3.49233	327
3.49600	315
3.49967	309
3.50333	305
3.50700	301
3.51067	298
3.51433	299
3.51800	303
3.52167	306
3.52533	306
3.52900	305
3.53267	304
3.53633	304
3.54000	305
3.54367	309
3.54733	313
3.55100	318
3.55467	320
3.55833	319
3.56200	318
3.56567	316
3.56933	312
3.57300	307
3.57667	302
3.58033	297
3.58400	292
3.58767	291
3.59133	291
3.59500	293
3.59867	293
3.60233	293
3.60600	291
3.60967	290
3.61333	290
3.61700	292
3.62067	295
3.62433	294
3.62800	291
3.63167	290
3.63533	290
3.63900	289
3.64267	285
3.64633	282
3.65000	279
3.65367	277
3.65733	274
3.66100	267
3.66467	257
3.66833	248
3.67200	240
3.67567	234
3.67933	229
3.68300	228
3.68667	232
3.69033	238
3.69400	244
3.69767	249
3.70133	253
3.70500	258
3.70867	260
3.71233	262
3.71600	264
3.71967	264
3.72333	263
3.72700	263
3.73067	262
3.73433	262
3.73800	263
3.74167	266
3.74533	272
3.74900	278
3.75267	281
3.75633	279
3.76000	273
3.76367	267
3.76733	261
3.77100	258
3.77467	258
3.77833	260
3.78200	260
3.78567	258
3.78933	256
3.79300	255
3.79667	253
3.80033	251
3.80400	252
3.80767	256
3.81133	259
3.81500	259
3.81867	255
3.82233	249
3.82600	246
3.82967	245
3.83333	246
3.83700	245
3.84067	243
3.84433	239
3.84800	237
3.85167	234
3.85533	231
3.85900	229
3.86267	230
3.86633	232
3.87000	231
3.87367	232
3.87733	237
3.88100	239
3.88467	238
3.88833	235
3.89200	231
3.89567	228
3.89933	230
3.90300	233
3.90667	236
3.91033	238
3.91400	236
3.91767	234
3.92133	231
3.92500	229
3.92867	232
3.93233	234
3.93600	232
3.93967	230
3.94333	229
3.94700	228
3.95067	225
3.95433	220
3.95800	216
3.96167	213
3.96533	211
3.96900	209
3.97267	208
3.97633	206
3.98000	200
3.98367	193
3.98733	189
3.99100	187
3.99467	189
3.99833	196

[Chromatogram (Ch2)]
Interval(msec)	220
# of Points	1091
Start Time(min)	0.002
End Time(min)	3.998
R.Time (min)	Intensity
0.00167	-0
0.00533	-0
0.00900	-1
0.01267	-0
0.01633	-0
0.02000	-0
0.02367	0
0.02733	0
0.03100	0
0.03467	0
0.03833	0
0.04200	0
0.04567	0
0.04933	0
0.05300	0
0.05667	0
0.06033	0
0.06400	0
0.06767	0
0.07133	0
0.07500	0
0.07867	0
0.08233	1
0.08600	1
0.08967	1
0.09333	1
0.09700	2
0.10067	2
0.10433	2
0.10800	2
0.11167	2
0.11533	3
0.11900	3
0.12267	3
0.12633	3
0.13000	3
0.13367	3
0.13733	3
0.14100	3
0.14467	3
0.14833	2
0.15200	2
0.15567	2
0.15933	2
0.16300	2
0.16667	2
0.17033	2
0.17400	2
0.17767	2
0.18133	2
0.18500	1
0.18867	1
0.19233	1
0.19600	1
0.19967	0
0.20333	-0
0.20700	-0
0.21067	-0
0.21433	-1
0.21800	-1
0.22167	-0
0.22533	-0
0.22900	-0
0.23267	-0
0.23633	0
0.24000	0
0.24367	-0
0.24733	0
0.25100	0
0.25467	-0
0.25833	-0
0.26200	-1
0.26567	-1
0.26933	-1
0.27300	-1
0.27667	-1
0.28033	-1
0.28400	-1
0.28767	-1
0.29133	-1
0.29500	-0
0.29867	-0
0.30233	-0
0.30600	0
0.30967	0
0.31333	0
0.31700	1
0.32067	1
0.32433	1
0.32800	1
0.33167	1
0.33533	1
0.33900	0
0.34267	0
0.34633	0
0.35000	0
0.35367	-0
0.35733	-0
0.36100	-1
0.36467	-1
0.36833	-1
0.37200	-0
0.37567	-0
0.37933	-0
0.38300	-0
0.38667	-0
0.39033	-0
0.39400	-0
0.39767	-1
0.40133	-1
0.40500	-1
0.40867	-1
0.41233	-1
0.41600	-1
0.41967	-1
0.42333	-1
0.42700	-1
0.43067	-1
0.43433	-2
0.43800	-2
0.44167	-2
0.44533	-2
0.44900	-2
0.45267	-2
0.45633	-2
0.46000	-1
0.46367	-1
0.46733	-1
0.47100	-0
0.47467	-0
0.47833	0
0.48200	0
0.48567	0
0.48933	0
0.49300	-0
0.49667	-0
0.50033	-0
0.50400	-0
0.50767	-0
0.51133	-1
0.51500	-1
0.51867	-1
0.52233	-1
0.52600	-1
0.52967	-1
0.53333	-1
0.53700	-1
0.54067	-1
0.54433	-0
0.54800	-1
0.55167	-1
0.55533	-1
0.55900	-1
0.56267	-1
0.56633	-1
0.57000	-1
0.57367	-1
0.57733	-1
0.58100	-1
0.58467	-1
0.58833	-1
0.59200	-1
0.59567	-1
0.59933	-1
0.60300	-1
0.60667	-1
0.61033	-1
0.61400	-1
0.61767	-1
0.62133	-0
0.62500	-0
0.62867	0
0.63233	0
0.63600	1
0.63967	1
0.64333	1
0.64700	1
0.65067	1
0.65433	1
0.65800	1
0.66167	1
0.66533	1
0.66900	1
0.67267	0
0.67633	0
0.68000	0
0.68367	-0
0.68733	-0
0.69100	-1
0.69467	-1
0.69833	-1
0.70200	-1
0.70567	-1
0.70933	-1
0.71300	-1
0.71667	-1
0.72033	-1
0.72400	-1
0.72767	-1
0.73133	-1
0.73500	-1
0.73867	-1
0.74233	-1
0.74600	-1
0.74967	-1
0.75333	-1
0.75700	-1
0.76067	-1
0.76433	-1
0.76800	-0
0.77167	-0
0.77533	-0
0.77900	-0
0.78267	-0
0.78633	-0
0.79000	-0
0.79367	-0
0.79733	-0
0.80100	-0
0.80467	-0
0.80833	-0
0.81200	-1
0.81567	-1
0.81933	-1
0.82300	-1
0.82667	-1
0.83033	-1
0.83400	-1
0.83767	-1
0.84133	-1
0.84500	-1
0.84867	-1
0.85233	-1
0.85600	-1
0.85967	-1
0.86333	-1
0.86700	-1
0.87067	-1
0.87433	-1
0.87800	-1
0.88167	-1
0.88533	-1
0.88900	-1
0.89267	-1
0.89633	-1
0.90000	-1
0.90367	-1
0.90733	-1
0.91100	-1
0.91467	-1
0.91833	-1
0.92200	-1
0.92567	-2
0.92933	-2
0.93300	-1
0.93667	-1
0.94033	-1
0.94400	-2
0.94767	-2
0.95133	-2
0.95500	-2
0.95867	-2
0.96233	-2
0.96600	-2
0.96967	-2
0.97333	-2
0.97700	-2
0.98067	-2
0.98433	-2
0.98800	-2
0.99167	-2
0.99533	-2
0.99900	-2
1.00267	-2
1.00633	-1
1.01000	-1
1.01367	-1
1.01733	-1
1.02100	-1
1.02467	-1
1.02833	-1
1.03200	-1
1.03567	-1
1.03933	-1
1.04300	-1
1.04667	-1
1.05033	-1
1.05400	-1
1.05767	-1
1.06133	-1
1.06500	-1
1.06867	-1
1.07233	-1
1.07600	-2
1.07967	-2
1.08333	-2
1.08700	-2
1.09067	-2
1.09433	-2
1.09800	-2
1.10167	-3
1.10533	-3
1.10900	-3
1.11267	-3
1.11633	-3
1.12000	-3
1.12367	-3
1.12733	-3
1.13100	-3
1.13467	-3
1.13833	-3
1.14200	-3
1.14567	-3
1.14933	-3
1.15300	-3
1.15667	-3
1.16033	-3
1.16400	-3
1.16767	-3
1.17133	-3
1.17500	-3
1.17867	-3
1.18233	-2
1.18600	-2
1.18967	-2
1.19333	-2
1.19700	-2
1.20067	-2
1.20433	-2
1.20800	-2
1.21167	-2
1.21533	-2
1.21900	-2
1.22267	-2
1.22633	-2
1.23000	-2
1.23367	-2
1.23733	-2
1.24100	-2
1.24467	-3
1.24833	-2
1.25200	-2
1.25567	-2
1.25933	-2
1.26300	-2
1.26667	-1
1.27033	-1
1.27400	-1
1.27767	-1
1.28133	-2
1.28500	-2
1.28867	-2
1.29233	-2
1.29600	-2
1.29967	-2
1.30333	-2
1.30700	-2
1.31067	-2
1.31433	-3
1.31800	-3
1.32167	-3
1.32533	-3
1.32900	-3
1.33267	-3
1.33633	-3
1.34000	-3
1.34367	-3
1.34733	-3
1.35100	-3
1.35467	-3
1.35833	-3
1.36200	-3
1.36567	-3
1.36933	-3
1.37300	-3
1.37667	-3
1.38033	-3
1.38400	-3
1.38767	-3
1.39133	-3
1.39500	-3
1.39867	-3
1.40233	-3
1.40600	-3
1.40967	-3
1.41333	-3
1.41700	-3
1.42067	-3
1.42433	-3
1.42800	-3
1.43167	-3
1.43533	-3
1.43900	-2
1.44267	-2
1.44633	-2
1.45000	-2
1.45367	-2
1.45733	-2
1.46100	-2
1.46467	-2
1.46833	-2
1.47200	-2
1.47567	-2
1.47933	-2
1.48300	-2
1.48667	-2
1.49033	-2
1.49400	-2
1.49767	-2
1.50133	-2
1.50500	-2
1.50867	-2
1.51233	-2
1.51600	-1
1.51967	-1
1.52333	-1
1.52700	-0
1.53067	0
1.53433	1
1.53800	1
1.54167	1
1.54533	1
1.54900	1
1.55267	1
1.55633	1
1.56000	1
1.56367	1
1.56733	1
1.57100	1
1.57467	0
1.57833	0
1.58200	0
1.58567	-0
1.58933	-1
1.59300	-1
1.59667	-2
1.60033	-3
1.60400	-4
1.60767	-6
1.61133	-8
1.61500	-10
1.61867	-13
1.62233	-16
1.62600	-18
1.62967	-21
1.63333	-24
1.63700	-28
1.64067	-31
1.64433	-35
1.64800	-38
1.65167	-42
1.65533	-46
1.65900	-50
1.66267	-54
1.66633	-59
1.67000	-63
1.67367	-68
1.67733	-73
1.68100	-78
1.68467	-83
1.68833	-87
1.69200	-90
1.69567	-94
1.69933	-97
1.70300	-99
1.70667	-101
1.71033	-103
1.71400	-105
1.71767	-106
1.72133	-108
1.72500	-109
1.72867	-110
1.73233	-111
1.73600	-112
1.73967	-112
1.74333	-113
1.74700	-113
1.75067	-113
1.75433	-112
1.75800	-112
1.76167	-112
1.76533	-112
1.76900	-113
1.77267	-113
1.77633	-114
1.78000	-115
1.78367	-116
1.78733	-117
1.79100	-117
1.79467	-118
1.79833	-119
1.80200	-119
1.80567	-119
1.80933	-119
1.81300	-119
1.81667	-119
1.82033	-119
1.82400	-119
1.82767	-119
1.83133	-119
1.83500	-119
1.83867	-119
1.84233	-119
1.84600	-119
1.84967	-119
1.85333	-118
1.85700	-118
1.86067	-118
1.86433	-119
1.86800	-119
1.87167	-120
1.87533	-120
1.87900	-120
1.88267	-121
1.88633	-121
1.89000	-121
1.89367	-121
1.89733	-121
1.90100	-121
1.90467	-120
1.90833	-120
1.91200	-119
1.91567	-119
1.91933	-118
1.92300	-117
1.92667	-116
1.93033	-115
1.93400	-115
1.93767	-115
1.94133	-115
1.94500	-115
1.94867	-115
1.95233	-115
1.95600	-114
1.95967	-114
1.96333	-114
1.96700	-113
1.97067	-113
1.97433	-112
1.97800	-112
1.98167	-111
1.98533	-111
1.98900	-111
1.99267	-110
1.99633	-111
2.00000	-111
2.00367	-111
2.00733	-111
2.01100	-110
2.01467	-110
2.01833	-109
2.02200	-109
2.02567	-109
2.02933	-108
2.03300	-107
2.03667	-107
2.04033	-106
2.04400	-105
2.04767	-105
2.05133	-105
2.05500	-105
2.05867	-105
2.06233	-105
2.06600	-105
2.06967	-105
2.07333	-105
2.07700	-105
2.08067	-104
2.08433	-104
2.08800	-105
2.09167	-105
2.09533	-105
2.09900	-105
2.10267	-105
2.10633	-104
2.11000	-104
2.11367	-103
2.11733	-102
2.12100	-101
2.12467	-101
2.12833	-101
2.13200	-100
2.13567	-100
2.13933	-100
2.14300	-100
2.14667	-99
2.15033	-99
2.15400	-99
2.15767	-98
2.16133	-98
2.16500	-97
2.16867	-97
2.17233	-97
2.17600	-97
2.17967	-97
2.18333	-97
2.18700	-97
2.19067	-97
2.19433	-97
2.19800	-96
2.20167	-96
2.20533	-96
2.20900	-95
2.21267	-94
2.21633	-94
2.22000	-93
2.22367	-93
2.22733	-92
2.23100	-91
2.23467	-91
2.23833	-91
2.24200	-91
2.24567	-92
2.24933	-92
2.25300	-92
2.25667	-91
2.26033	-91
2.26400	-91
2.26767	-91
2.27133	-91
2.27500	-90
2.27867	-90
2.28233	-89
2.28600	-89
2.28967	-89
2.29333	-90
2.29700	-91
2.30067	-91
2.30433	-92
2.30800	-92
2.31167	-92
2.31533	-91
2.31900	-91
2.32267	-90
2.32633	-89
2.33000	-88
2.33367	-87
2.33733	-85
2.34100	-84
2.34467	-83
2.34833	-82
2.35200	-80
2.35567	-78
2.35933	-77
2.36300	-75
2.36667	-73
2.37033	-71
2.37400	-68
2.37767	-65
2.38133	-61
2.38500	-58
2.38867	-54
2.39233	-51
2.39600	-47
2.39967	-43
2.40333	-40
2.40700	-37
2.41067	-33
2.41433	-30
2.41800	-28
2.42167	-25
2.42533	-23
2.42900	-21
2.43267	-19
2.43633	-17
2.44000	-15
2.44367	-13
2.44733	-11
2.45100	-9
2.45467	-7
2.45833	-6
2.46200	-4
2.46567	-3
2.46933	-2
2.47300	-1
2.47667	0
2.48033	1
2.48400	2
2.48767	4
2.49133	5
2.49500	6
2.49867	7
2.50233	8
2.50600	9
2.50967	10
2.51333	11
2.51700	11
2.52067	12
2.52433	12
2.52800	12
2.53167	12
2.53533	12
2.53900	12
2.54267	12
2.54633	12
2.55000	13
2.55367	14
2.55733	15
2.56100	15
2.56467	16
2.56833	16
2.57200	17
2.57567	17
2.57933	17
2.58300	17
2.58667	17
2.59033	17
2.59400	17
2.59767	17
2.60133	17
2.60500	17
2.60867	17
2.61233	17
2.61600	18
2.61967	18
2.62333	19
2.62700	19
2.63067	20
2.63433	20
2.63800	20
2.64167	20
2.64533	20
2.64900	19
2.65267	19
2.65633	19
2.66000	19
2.66367	19
2.66733	19
2.67100	19
2.67467	19
2.67833	19
2.68200	20
2.68567	20
2.68933	20
2.69300	20
2.69667	21
2.70033	22
2.70400	22
2.70767	23
2.71133	24
2.71500	24
2.71867	25
2.72233	25
2.72600	26
2.72967	26
2.73333	26
2.73700	25
2.74067	25
2.74433	25
2.74800	25
2.75167	25
2.75533	25
2.75900	25
2.76267	25
2.76633	26
2.77000	27
2.77367	27
2.77733	28
2.78100	29
2.78467	29
2.78833	29
2.79200	30
2.79567	30
2.79933	30
2.80300	29
2.80667	29
2.81033	29
2.81400	29
2.81767	28
2.82133	28
2.82500	28
2.82867	28
2.83233	28
2.83600	29
2.83967	29
2.84333	29
2.84700	29
2.85067	28
2.85433	27
2.85800	24
2.86167	19
2.86533	13
2.86900	3
2.87267	-10
2.87633	-27
2.88000	-48
2.88367	-73
2.88733	-101
2.89100	-134
2.89467	-171
2.89833	-211
2.90200	-254
2.90567	-300
2.90933	-348
2.91300	-397
2.91667	-448
2.92033	-500
2.92400	-552
2.92767	-605
2.93133	-657
2.93500	-709
2.93867	-760
2.94233	-810
2.94600	-861
2.94967	-917
2.95333	-977
2.95700	-1036
2.96067	-1082
2.96433	-1106
2.96800	-1103
2.97167	-1075
2.97533	-1026
2.97900	-962
2.98267	-887
2.98633	-807
2.99000	-726
2.99367	-646
2.99733	-571
3.00100	-501
3.00467	-437
3.00833	-379
3.01200	-327
3.01567	-281
3.01933	-241
3.02300	-205
3.02667	-175
3.03033	-147
3.03400	-124
3.03767	-104
3.04133	-87
3.04500	-72
3.04867	-59
3.05233	-48
3.05600	-39
3.05967	-31
3.06333	-24
3.06700	-18
3.07067	-13
3.07433	-9
3.07800	-5
3.08167	-1
3.08533	1
3.08900	4
3.09267	6
3.09633	8
3.10000	9
3.10367	11
3.10733	12
3.11100	13
3.11467	14
3.11833	14
3.12200	15
3.12567	16
3.12933	16
3.13300	16
3.13667	17
3.14033	17
3.14400	17
3.14767	17
3.15133	18
3.15500	18
3.15867	18
3.16233	19
3.16600	19
3.16967	19
3.17333	19
3.17700	19
3.18067	19
3.18433	19
3.18800	19
3.19167	19
3.19533	19
3.19900	20
3.20267	20
3.20633	20
3.21000	21
3.21367	21
3.21733	21
3.22100	22
3.22467	22
3.22833	22
3.23200	22
3.23567	22
3.23933	22
3.24300	23
3.24667	23
3.25033	23
3.25400	22
3.25767	22
3.26133	22
3.26500	22
3.26867	22
3.27233	22
3.27600	22
3.27967	22
3.28333	23
3.28700	23
3.29067	23
3.29433	23
3.29800	24
3.30167	24
3.30533	25
3.30900	25
3.31267	25
3.31633	25
3.32000	25
3.32367	25
3.32733	25
3.33100	25
3.33467	25
3.33833	25
3.34200	25
3.34567	26
3.34933	26
3.35300	26
3.35667	26
3.36033	26
3.36400	26
3.36767	26
3.37133	26
3.37500	26
3.37867	27
3.38233	27
3.38600	27
3.38967	27
3.39333	27
3.39700	26
3.40067	26
3.40433	26
3.40800	26
3.41167	26
3.41533	26
3.41900	26
3.42267	26
3.42633	26
3.43000	26
3.43367	26
3.43733	26
3.44100	26
3.44467	26
3.44833	26
3.45200	26
3.45567	26
3.45933	26
3.46300	26
3.46667	26
3.47033	26
3.47400	26
3.47767	27
3.48133	27
3.48500	27
3.48867	27
3.49233	27
3.49600	27
3.49967	27
3.50333	27
3.50700	27
3.51067	27
3.51433	27
3.51800	27
3.52167	28
3.52533	28
3.52900	29
3.53267	29
3.53633	29
3.54000	30
3.54367	30
3.54733	30
3.55100	30
3.55467	30
3.55833	30
3.56200	29
3.56567	29
3.56933	29
3.57300	29
3.57667	29
3.58033	29
3.58400	29
3.58767	29
3.59133	29
3.59500	29
3.59867	29
3.60233	29
3.60600	29
3.60967	29
3.61333	29
3.61700	29
3.62067	29
3.62433	29
3.62800	29
3.63167	29
3.63533	28
3.63900	28
3.64267	28
3.64633	28
3.65000	28
3.65367	28
3.65733	28
3.66100	28
3.66467	28
3.66833	28
3.67200	28
3.67567	28
3.67933	28
3.68300	28
3.68667	28
3.69033	28
3.69400	28
3.69767	28
3.70133	28
3.70500	28
3.70867	28
3.71233	28
3.71600	28
3.71967	28
3.72333	28
3.72700	28
3.73067	28
3.73433	28
3.73800	28
3.74167	28
3.74533	28
3.74900	28
3.75267	28
3.75633	28
3.76000	28
3.76367	28
3.76733	28
3.77100	27
3.77467	27
3.77833	27
3.78200	27
3.78567	27
3.78933	27
3.79300	27
3.79667	27
3.80033	27
3.80400	27
3.80767	27
3.81133	27
3.81500	27
3.81867	27
3.82233	27
3.82600	27
3.82967	27
3.83333	27
3.83700	27
3.84067	27
3.84433	27
3.84800	27
3.85167	28
3.85533	28
3.85900	28
3.86267	28
3.86633	28
3.87000	28
3.87367	28
3.87733	28
3.88100	28
3.88467	28
3.88833	28
3.89200	28
3.89567	28
3.89933	28
3.90300	28
3.90667	28
3.91033	28
3.91400	27
3.91767	27
3.92133	27
3.92500	26
3.92867	26
3.93233	26
3.93600	26
3.93967	26
3.94333	26
3.94700	26
3.95067	26
3.95433	26
3.95800	26
3.96167	26
3.96533	26
3.96900	26
3.97267	26
3.97633	26
3.98000	26
3.98367	26
3.98733	26
3.99100	26
3.99467	26
3.99833	27

[Chromatogram (Ch3)]
Interval(msec)	220
# of Points	1091
Start Time(min)	0.002
End Time(min)	3.998
R.Time (min)	Intensity
0.00167	0
0.00533	1
0.00900	2
0.01267	2
0.01633	2
0.02000	2
0.02367	1
0.02733	1
0.03100	1
0.03467	2
0.03833	4
0.04200	3
0.04567	1
0.04933	-0
0.05300	-2
0.05667	-2
0.06033	-1
0.06400	3
0.06767	7
0.07133	10
0.07500	9
0.07867	8
0.08233	6
0.08600	5
0.08967	3
0.09333	2
0.09700	5
0.10067	9
0.10433	12
0.10800	11
0.11167	9
0.11533	8
0.11900	8
0.12267	7
0.12633	5
0.13000	4
0.13367	4
0.13733	3
0.14100	3
0.14467	4
0.14833	6
0.15200	8
0.15567	9
0.15933	9
0.16300	9
0.16667	12
0.17033	14
0.17400	13
0.17767	11
0.18133	7
0.18500	5
0.18867	4
0.19233	2
0.19600	1
0.19967	3
0.20333	4
0.20700	5
0.21067	6
0.21433	6
0.21800	5
0.22167	6
0.22533	8
0.22900	6
0.23267	5
0.23633	4
0.24000	2
0.24367	3
0.24733	5
0.25100	7
0.25467	7
0.25833	7
0.26200	8
0.26567	8
0.26933	9
0.27300	9
0.27667	11
0.28033	12
0.28400	11
0.28767	8
0.29133	8
0.29500	8
0.29867	9
0.30233	10
0.30600	13
0.30967	16
0.31333	16
0.31700	17
0.32067	16
0.32433	16
0.32800	14
0.33167	13
0.33533	12
0.33900	11
0.34267	12
0.34633	14
0.35000	16
0.35367	16
0.35733	17
0.36100	18
0.36467	19
0.36833	19
0.37200	20
0.37567	19
0.37933	17
0.38300	15
0.38667	16
0.39033	17
0.39400	17
0.39767	16
0.40133	18
0.40500	18
0.40867	17
0.41233	17
0.41600	17
0.41967	15
0.42333	17
0.42700	18
0.43067	20
0.43433	23
0.43800	24
0.44167	27
0.44533	27
0.44900	25
0.45267	23
0.45633	22
0.46000	22
0.46367	21
0.46733	21
0.47100	21
0.47467	23
0.47833	24
0.48200	23
0.48567	23
0.48933	22
0.49300	22
0.49667	20
0.50033	18
0.50400	17
0.50767	18
0.51133	19
0.51500	21
0.51867	23
0.52233	23
0.52600	21
0.52967	19
0.53333	18
0.53700	15
0.54067	15
0.54433	16
0.54800	19
0.55167	21
0.55533	25
0.55900	24
0.56267	24
0.56633	22
0.57000	23
0.57367	23
0.57733	21
0.58100	18
0.58467	19
0.58833	23
0.59200	26
0.59567	26
0.59933	26
0.60300	27
0.60667	29
0.61033	29
0.61400	28
0.61767	26
0.62133	23
0.62500	22
0.62867	22
0.63233	21
0.63600	20
0.63967	20
0.64333	20
0.64700	20
0.65067	19
0.65433	16
0.65800	14
0.66167	14
0.66533	17
0.66900	20
0.67267	23
0.67633	25
0.68000	25
0.68367	24
0.68733	24
0.69100	25
0.69467	27
0.69833	28
0.70200	27
0.70567	27
0.70933	27
0.71300	26
0.71667	24
0.72033	23
0.72400	24
0.72767	25
0.73133	24
0.73500	23
0.73867	23
0.74233	24
0.74600	24
0.74967	25
0.75333	26
0.75700	26
0.76067	26
0.76433	27
0.76800	28
0.77167	29
0.77533	30
0.77900	28
0.78267	27
0.78633	26
0.79000	27
0.79367	27
0.79733	24
0.80100	25
0.80467	26
0.80833	24
0.81200	23
0.81567	21
0.81933	20
0.82300	20
0.82667	20
0.83033	20
0.83400	19
0.83767	19
0.84133	19
0.84500	19
0.84867	18
0.85233	17
0.85600	19
0.85967	22
0.86333	24
0.86700	26
0.87067	26
0.87433	26
0.87800	25
0.88167	22
0.88533	20
0.88900	17
0.89267	15
0.89633	17
0.90000	19
0.90367	20
0.90733	22
0.91100	24
0.91467	25
0.91833	25
0.92200	26
0.92567	26
0.92933	27
0.93300	29
0.93667	32
0.94033	31
0.94400	28
0.94767	25
0.95133	26
0.95500	28
0.95867	26
0.96233	26
0.96600	27
0.96967	25
0.97333	25
0.97700	24
0.98067	22
0.98433	21
0.98800	21
0.99167	21
0.99533	22
0.99900	20
1.00267	20
1.00633	19
1.01000	20
1.01367	20
1.01733	21
1.02100	23
1.02467	24
1.02833	25
1.03200	27
1.03567	27
1.03933	27
1.04300	28
1.04667	29
1.05033	27
1.05400	25
1.05767	24
1.06133	23
1.06500	22
1.06867	21
1.07233	20
1.07600	20
1.07967	20
1.08333	19
1.08700	21
1.09067	24
1.09433	26
1.09800	26
1.10167	27
1.10533	27
1.10900	24
1.11267	22
1.11633	22
1.12000	23
1.12367	25
1.12733	25
1.13100	25
1.13467	25
1.13833	24
1.14200	23
1.14567	23
1.14933	22
1.15300	19
1.15667	16
1.16033	17
1.16400	21
1.16767	23
1.17133	23
1.17500	23
1.17867	23
1.18233	21
1.18600	21
1.18967	23
1.19333	22
1.19700	20
1.20067	19
1.20433	17
1.20800	18
1.21167	18
1.21533	18
1.21900	19
1.22267	21
1.22633	23
1.23000	24
1.23367	24
1.23733	24
1.24100	23
1.24467	22
1.24833	21
1.25200	21
1.25567	21
1.25933	21
1.26300	19
1.26667	20
1.27033	21
1.27400	21
1.27767	20
1.28133	19
1.28500	21
1.28867	23
1.29233	22
1.29600	22
1.29967	21
1.30333	19
1.30700	16
1.31067	13
1.31433	14
1.31800	15
1.32167	17
1.32533	19
1.32900	18
1.33267	17
1.33633	18
1.34000	20
1.34367	21
1.34733	20
1.35100	20
1.35467	21
1.35833	23
1.36200	24
1.36567	23
1.36933	20
1.37300	17
1.37667	17
1.38033	17
1.38400	18
1.38767	22
1.39133	26
1.39500	27
1.39867	26
1.40233	24
1.40600	21
1.40967	18
1.41333	18
1.41700	19
1.42067	17
1.42433	16
1.42800	16
1.43167	17
1.43533	18
1.43900	17
1.44267	15
1.44633	14
1.45000	14
1.45367	16
1.45733	16
1.46100	15
1.46467	15
1.46833	17
1.47200	16
1.47567	17
1.47933	20
1.48300	21
1.48667	20
1.49033	21
1.49400	17
1.49767	13
1.50133	13
1.50500	14
1.50867	15
1.51233	14
1.51600	13
1.51967	14
1.52333	15
1.52700	16
1.53067	17
1.53433	17
1.53800	17
1.54167	15
1.54533	12
1.54900	13
1.55267	14
1.55633	15
1.56000	14
1.56367	15
1.56733	15
1.57100	12
1.57467	10
1.57833	11
1.58200	12
1.58567	14
1.58933	14
1.59300	13
1.59667	14
1.60033	15
1.60400	15
1.60767	15
1.61133	15
1.61500	15
1.61867	16
1.62233	17
1.62600	17
1.62967	16
1.63333	15
1.63700	15
1.64067	15
1.64433	16
1.64800	15
1.65167	17
1.65533	19
1.65900	21
1.66267	23
1.66633	23
1.67000	23
1.67367	22
1.67733	21
1.68100	22
1.68467	25
1.68833	25
1.69200	25
1.69567	25
1.69933	23
1.70300	22
1.70667	22
1.71033	22
1.71400	23
1.71767	25
1.72133	26
1.72500	24
1.72867	25
1.73233	28
1.73600	29
1.73967	29
1.74333	29
1.74700	27
1.75067	28
1.75433	29
1.75800	30
1.76167	30
1.76533	27
1.76900	27
1.77267	29
1.77633	29
1.78000	31
1.78367	32
1.78733	33
1.79100	34
1.79467	33
1.79833	32
1.80200	33
1.80567	34
1.80933	35
1.81300	34
1.81667	33
1.82033	33
1.82400	34
1.82767	35
1.83133	34
1.83500	34
1.83867	35
1.84233	36
1.84600	36
1.84967	39
1.85333	43
1.85700	44
1.86067	43
1.86433	42
1.86800	40
1.87167	39
1.87533	40
1.87900	40
1.88267	39
1.88633	38
1.89000	38
1.89367	37
1.89733	38
1.90100	40
1.90467	43
1.90833	46
1.91200	47
1.91567	48
1.91933	47
1.92300	47
1.92667	47
1.93033	48
1.93400	51
1.93767	52
1.94133	53
1.94500	53
1.94867	54
1.95233	54
1.95600	53
1.95967	54
1.96333	55
1.96700	54
1.97067	53
1.97433	54
1.97800	55
1.98167	55
1.98533	56
1.98900	59
1.99267	59
1.99633	59
2.00000	60
2.00367	60
2.00733	62
2.01100	63
2.01467	63
2.01833	64
2.02200	65
2.02567	67
2.02933	71
2.03300	74
2.03667	75
2.04033	73
2.04400	73
2.04767	72
2.05133	71
2.05500	71
2.05867	70
2.06233	73
2.06600	77
2.06967	76
2.07333	75
2.07700	75
2.08067	73
2.08433	76
2.08800	80
2.09167	83
2.09533	86
2.09900	88
2.10267	88
2.10633	85
2.11000	83
2.11367	84
2.11733	85
2.12100	85
2.12467	85
2.12833	86
2.13200	86
2.13567	86
2.13933	87
2.14300	86
2.14667	88
2.15033	89
2.15400	89
2.15767	90
2.16133	92
2.16500	91
2.16867	92
2.17233	93
2.17600	94
2.17967	96
2.18333	98
2.18700	99
2.19067	100
2.19433	101
2.19800	102
2.20167	103
2.20533	104
2.20900	105
2.21267	106
2.21633	108
2.22000	110
2.22367	111
2.22733	111
2.23100	114
2.23467	115
2.23833	119
2.24200	122
2.24567	124
2.24933	122
2.25300	120
2.25667	118
2.26033	118
2.26400	120
2.26767	122
2.27133	124
2.27500	124
2.27867	125
2.28233	128
2.28600	131
2.28967	135
2.29333	137
2.29700	138
2.30067	137
2.30433	137
2.30800	138
2.31167	138
2.31533	139
2.31900	141
2.32267	143
2.32633	140
2.33000	136
2.33367	136
2.33733	139
2.34100	142
2.34467	146
2.34833	149
2.35200	153
2.35567	155
2.35933	156
2.36300	153
2.36667	151
2.37033	152
2.37400	153
2.37767	154
2.38133	153
2.38500	151
2.38867	150
2.39233	150
2.39600	153
2.39967	158
2.40333	165
2.40700	167
2.41067	169
2.41433	172
2.41800	174
2.42167	176
2.42533	178
2.42900	180
2.43267	182
2.43633	182
2.44000	184
2.44367	226
2.44733	340
2.45100	471
2.45467	577
2.45833	623
2.46200	626
2.46567	620
2.46933	620
2.47300	612
2.47667	588
2.48033	551
2.48400	506
2.48767	463
2.49133	431
2.49500	411
2.49867	401
2.50233	401
2.50600	413
2.50967	430
2.51333	441
2.51700	443
2.52067	434
2.52433	416
2.52800	391
2.53167	366
2.53533	339
2.53900	316
2.54267	297
2.54633	282
2.55000	273
2.55367	266
2.55733	260
2.56100	257
2.56467	254
2.56833	255
2.57200	257
2.57567	262
2.57933	270
2.58300	281
2.58667	293
2.59033	308
2.59400	321
2.59767	334
2.60133	345
2.60500	353
2.60867	352
2.61233	340
2.61600	316
2.61967	280
2.62333	239
2.62700	195
2.63067	150
2.63433	107
2.63800	71
2.64167	42
2.64533	19
2.64900	-2
2.65267	-17
2.65633	-27
2.66000	-32
2.66367	-33
2.66733	-33
2.67100	-30
2.67467	-24
2.67833	-17
2.68200	-10
2.68567	-2
2.68933	5
2.69300	14
2.69667	23
2.70033	30
2.70400	36
2.70767	44
2.71133	51
2.71500	57
2.71867	63
2.72233	69
2.72600	77
2.72967	85
2.73333	94
2.73700	101
2.74067	107
2.74433	114
2.74800	120
2.75167	128
2.75533	136
2.75900	142
2.76267	147
2.76633	155
2.77000	162
2.77367	168
2.77733	173
2.78100	180
2.78467	186
2.78833	194
2.79200	198
2.79567	189
2.79933	175
2.80300	165
2.80667	175
2.81033	197
2.81400	223
2.81767	252
2.82133	289
2.82500	337
2.82867	402
2.83233	490
2.83600	612
2.83967	789
2.84333	1047
2.84700	1402
2.85067	1867
2.85433	2441
2.85800	3095
2.86167	3786
2.86533	4462
2.86900	5071
2.87267	5568
2.87633	5919
2.88000	6106
2.88367	6131
2.88733	6015
2.89100	5789
2.89467	5478
2.89833	5118
2.90200	4734
2.90567	4344
2.90933	3965
2.91300	3607
2.91667	3276
2.92033	2975
2.92400	2702
2.92767	2458
2.93133	2245
2.93500	2057
2.93867	1890
2.94233	1745
2.94600	1619
2.94967	1511
2.95333	1418
2.95700	1335
2.96067	1265
2.96433	1207
2.96800	1156
2.97167	1108
2.97533	1070
2.97900	1038
2.98267	1010
2.98633	988
2.99000	969
2.99367	951
2.99733	936
3.00100	924
3.00467	911
3.00833	901
3.01200	891
3.01567	882
3.01933	880
3.02300	880
3.02667	882
3.03033	882
3.03400	883
3.03767	883
3.04133	883
3.04500	884
3.04867	887
3.05233	891
3.05600	893
3.05967	896
3.06333	898
3.06700	900
3.07067	905
3.07433	909
3.07800	913
3.08167	916
3.08533	919
3.08900	923
3.09267	926
3.09633	929
3.10000	932
3.10367	931
3.10733	931
3.11100	933
3.11467	936
3.11833	939
3.12200	944
3.12567	947
3.12933	949
3.13300	950
3.13667	949
3.14033	951
3.14400	952
3.14767	952
3.15133	951
3.15500	949
3.15867	949
3.16233	948
3.16600	947
3.16967	946
3.17333	945
3.17700	942
3.18067	937
3.18433	935
3.18800	933
3.19167	930
3.19533	927
3.19900	925
3.20267	921
3.20633	918
3.21000	915
3.21367	912
3.21733	907
3.22100	901
3.22467	896
3.22833	893
3.23200	890
3.23567	885
3.23933	880
3.24300	875
3.24667	872
3.25033	868
3.25400	864
3.25767	857
3.26133	851
3.26500	846
3.26867	842
3.27233	837
3.27600	833
3.27967	831
3.28333	829
3.28700	827
3.29067	826
3.29433	821
3.29800	815
3.30167	811
3.30533	810
3.30900	807
3.31267	802
3.31633	797
3.32000	792
3.32367	787
3.32733	781
3.33100	774
3.33467	771
3.33833	770
3.34200	767
3.34567	761
3.34933	755
3.35300	750
3.35667	744
3.36033	740
3.36400	735
3.36767	731
3.37133	729
3.37500	726
3.37867	723
3.38233	719
3.38600	715
3.38967	711
3.39333	707
3.39700	702
3.40067	695
3.40433	692
3.40800	688
3.41167	684
3.41533	680
3.41900	676
3.42267	672
3.42633	668
3.43000	666
3.43367	665
3.43733	663
3.44100	660
3.44467	657
3.44833	655
3.45200	650
3.45567	645
3.45933	641
3.46300	636
3.46667	630
3.47033	625
3.47400	622
3.47767	621
3.48133	622
3.48500	621
3.48867	619
3.49233	618
3.49600	617
3.49967	614
3.50333	609
3.50700	605
3.51067	602
3.51433	600
3.51800	596
3.52167	592
3.52533	588
3.52900	585
3.53267	583
3.53633	578
3.54000	576
3.54367	573
3.54733	571
3.55100	567
3.55467	564
3.55833	560
3.56200	555
3.56567	552
3.56933	549
3.57300	547
3.57667	543
3.58033	539
3.58400	537
3.58767	536
3.59133	534
3.59500	533
3.59867	532
3.60233	531
3.60600	526
3.60967	522
3.61333	521
3.61700	517
3.62067	514
3.62433	512
3.62800	507
3.63167	501
3.63533	499
3.63900	499
3.64267	498
3.64633	496
3.65000	493
3.65367	490
3.65733	486
3.66100	485
3.66467	485
3.66833	482
3.67200	476
3.67567	474
3.67933	470
3.68300	467
3.68667	465
3.69033	464
3.69400	462
3.69767	459
3.70133	457
3.70500	455
3.70867	452
3.71233	451
3.71600	450
3.71967	446
3.72333	441
3.72700	437
3.73067	433
3.73433	432
3.73800	428
3.74167	425
3.74533	423
3.74900	420
3.75267	417
3.75633	415
3.76000	411
3.76367	405
3.76733	400
3.77100	398
3.77467	398
3.77833	395
3.78200	391
3.78567	388
3.78933	382
3.79300	381
3.79667	380
3.80033	377
3.80400	373
3.80767	370
3.81133	367
3.81500	364
3.81867	359
3.82233	356
3.82600	354
3.82967	353
3.83333	351
3.83700	349
3.84067	348
3.84433	344
3.84800	340
3.85167	334
3.85533	330
3.85900	326
3.86267	325
3.86633	322
3.87000	321
3.87367	322
3.87733	320
3.88100	318
3.88467	317
3.88833	314
3.89200	314
3.89567	313
3.89933	310
3.90300	306
3.90667	299
3.91033	295
3.91400	291
3.91767	289
3.92133	289
3.92500	287
3.92867	282
3.93233	277
3.93600	274
3.93967	274
3.94333	272
3.94700	269
3.95067	267
3.95433	266
3.95800	265
3.96167	265
3.96533	264
3.96900	261
3.97267	259
3.97633	257
3.98000	255
3.98367	253
3.98733	252
3.99100	252
3.99467	251
3.99833	249

[Status Trace (Column Oven Temperature)]
Interval(msec)	1000
# of Points	240
Start Time(min)	0.003
End Time(min)	3.987
Intensity Units	
Intensity Multiplier	1
R.Time (min)	Intensity
0.00340	35.07
0.02007	35.05
0.03673	35.04
0.05340	35.04
0.07007	35.03
0.08673	35.03
0.10340	35.02
0.12007	35.01
0.13673	35.00
0.15340	34.99
0.17007	35.00
0.18673	35.00
0.20340	34.99
0.22007	35.00
0.23673	34.99
0.25340	35.00
0.27007	35.00
0.28673	35.00
0.30340	35.00
0.32007	34.98
0.33673	34.99
0.35340	34.98
0.37007	34.99
0.38673	34.99
0.40340	34.99
0.42007	35.00
0.43673	35.00
0.45340	35.00
0.47007	34.99
0.48673	34.99
0.50340	34.99
0.52007	34.98
0.53673	34.98
0.55340	35.00
0.57007	35.00
0.58673	35.00
0.60340	35.01
0.62007	35.00
0.63673	35.00
0.65340	35.00
0.67007	34.98
0.68673	34.98
0.70340	34.98
0.72007	35.00
0.73673	34.99
0.75340	35.00
0.77007	34.99
0.78673	34.99
0.80340	34.98
0.82007	35.00
0.83673	34.99
0.85340	34.99
0.87007	34.99
0.88673	34.99
0.90340	34.99
0.92007	34.99
0.93673	35.00
0.95340	35.00
0.97007	35.00
0.98673	35.00
1.00340	35.01
1.02007	35.01
1.03673	35.00
1.05340	35.00
1.07007	35.00
1.08673	35.00
1.10340	34.99
1.12007	34.99
1.13673	35.00
1.15340	35.00
1.17007	35.00
1.18673	34.99
1.20340	35.00
1.22007	34.99
1.23673	34.99
1.25340	34.98
1.27007	34.99
1.28673	34.99
1.30340	35.00
1.32007	34.99
1.33673	35.00
1.35340	35.01
1.37007	35.01
1.38673	35.01
1.40340	35.02
1.42007	35.02
1.43673	35.02
1.45340	35.02
1.47007	35.01
1.48673	35.01
1.50340	35.01
1.52007	35.00
1.53673	35.00
1.55340	34.99
1.57007	34.98
1.58673	34.99
1.60340	35.03
1.62007	35.14
1.63673	35.31
1.65340	35.55
1.67007	35.86
1.68673	36.23
1.70340	36.58
1.72007	36.93
1.73673	37.26
1.75340	37.58
1.77007	37.91
1.78673	38.24
1.80340	38.58
1.82007	38.91
1.83673	39.25
1.85340	39.56
1.87007	39.91
1.88673	40.25
1.90340	40.57
1.92007	40.89
1.93673	41.22
1.95340	41.54
1.97007	41.86
1.98673	42.18
2.00340	42.51
2.02007	42.83
2.03673	43.15
2.05340	43.47
2.07007	43.80
2.08673	44.12
2.10340	44.46
2.12007	44.76
2.13673	45.09
2.15340	45.41
2.17007	45.74
2.18673	46.08
2.20340	46.40
2.22007	46.73
2.23673	47.06
2.25340	47.40
2.27007	47.73
2.28673	48.09
2.30340	48.44
2.32007	48.79
2.33673	49.10
2.35340	49.38
2.37007	49.58
2.38673	49.65
2.40340	49.64
2.42007	49.63
2.43673	49.67
2.45340	49.66
2.47007	49.68
2.48673	49.69
2.50340	49.69
2.52007	49.70
2.53673	49.73
2.55340	49.74
2.57007	49.74
2.58673	49.76
2.60340	49.76
2.62007	49.78
2.63673	49.79
2.65340	49.81
2.67007	49.83
2.68673	49.85
2.70340	49.85
2.72007	49.84
2.73673	49.88
2.75340	49.88
2.77007	49.87
2.78673	49.85
2.80340	49.86
2.82007	49.86
2.83673	49.86
2.85340	49.86
2.87007	49.86
2.88673	49.87
2.90340	49.89
2.92007	49.91
2.93673	49.91
2.95340	49.93
2.97007	49.95
2.98673	49.96
3.00340	49.96
3.02007	49.97
3.03673	49.98
3.05340	49.98
3.07007	49.99
3.08673	49.99
3.10340	49.99
3.12007	49.99
3.13673	50.00
3.15340	50.00
3.17007	50.01
3.18673	50.03
3.20340	50.03
3.22007	50.04
3.23673	50.04
3.25340	50.05
3.27007	50.06
3.28673	50.07
3.30340	50.08
3.32007	50.09
3.33673	50.09
3.35340	50.09
3.37007	50.09
3.38673	50.09
3.40340	50.09
3.42007	50.10
3.43673	50.10
3.45340	50.10
3.47007	50.10
3.48673	50.10
3.50340	50.10
3.52007	50.10
3.53673	50.08
3.55340	50.08
3.57007	50.07
3.58673	50.07
3.60340	50.07
3.62007	50.07
3.63673	50.07
3.65340	50.07
3.67007	50.06
3.68673	50.05
3.70340	50.06
3.72007	50.05
3.73673	50.05
3.75340	50.06
3.77007	50.05
3.78673	50.05
3.80340	50.06
3.82007	50.06
3.83673	50.05
3.85340	50.05
3.87007	50.05
3.88673	50.05
3.90340	50.05
3.92007	50.05
3.93673	50.06
3.95340	50.07
3.97007	50.07
3.98673	50.07

[Status Trace (Injection Unit Temperature)]
Interval(msec)	1000
# of Points	240
Start Time(min)	0.003
End Time(min)	3.987
Intensity Units	
Intensity Multiplier	1
R.Time (min)	Intensity
0.00340	99.99
0.02007	99.99
0.03673	99.99
0.05340	99.99
0.07007	99.99
0.08673	99.98
0.10340	99.99
0.12007	99.99
0.13673	99.99
0.15340	99.99
0.17007	99.99
0.18673	99.99
0.20340	99.99
0.22007	99.99
0.23673	99.99
0.25340	99.99
0.27007	99.99
0.28673	99.99
0.30340	99.99
0.32007	99.99
0.33673	99.99
0.35340	99.99
0.37007	99.99
0.38673	99.99
0.40340	99.99
0.42007	99.99
0.43673	99.98
0.45340	99.99
0.47007	99.99
0.48673	99.99
0.50340	99.99
0.52007	99.99
0.53673	99.99
0.55340	99.98
0.57007	99.99
0.58673	99.98
0.60340	99.98
0.62007	99.99
0.63673	99.98
0.65340	99.99
0.67007	99.98
0.68673	99.98
0.70340	99.99
0.72007	99.98
0.73673	99.98
0.75340	99.99
0.77007	99.98
0.78673	99.98
0.80340	99.98
0.82007	99.98
0.83673	99.98
0.85340	99.98
0.87007	99.98
0.88673	99.98
0.90340	99.98
0.92007	99.98
0.93673	99.98
0.95340	99.98
0.97007	99.98
0.98673	99.98
1.00340	99.98
1.02007	99.98
1.03673	99.98
1.05340	99.98
1.07007	99.98
1.08673	99.98
1.10340	99.98
1.12007	99.98
1.13673	99.98
1.15340	99.98
1.17007	99.98
1.18673	99.98
1.20340	99.98
1.22007	99.98
1.23673	99.98
1.25340	99.98
1.27007	99.98
1.28673	99.98
1.30340	99.99
1.32007	99.98
1.33673	99.98
1.35340	99.98
1.37007	99.98
1.38673	99.98
1.40340	99.98
1.42007	99.99
1.43673	99.98
1.45340	99.99
1.47007	99.98
1.48673	99.98
1.50340	99.98
1.52007	99.98
1.53673	99.98
1.55340	99.99
1.57007	99.99
1.58673	99.98
1.60340	99.99
1.62007	99.98
1.63673	99.99
1.65340	99.99
1.67007	99.99
1.68673	99.99
1.70340	99.99
1.72007	99.99
1.73673	99.99
1.75340	99.99
1.77007	99.99
1.78673	99.99
1.80340	99.99
1.82007	99.99
1.83673	99.99
1.85340	99.98
1.87007	99.99
1.88673	99.99
1.90340	99.98
1.92007	99.98
1.93673	99.98
1.95340	99.98
1.97007	99.98
1.98673	99.98
2.00340	99.98
2.02007	99.97
2.03673	99.98
2.05340	99.98
2.07007	99.98
2.08673	99.98
2.10340	99.98
2.12007	99.97
2.13673	99.98
2.15340	99.97
2.17007	99.98
2.18673	99.98
2.20340	99.97
2.22007	99.97
2.23673	99.97
2.25340	99.97
2.27007	99.97
2.28673	99.97
2.30340	99.97
2.32007	99.98
2.33673	99.97
2.35340	99.97
2.37007	99.97
2.38673	99.97
2.40340	99.97
2.42007	99.97
2.43673	99.97
2.45340	99.97
2.47007	99.98
2.48673	99.98
2.50340	99.97
2.52007	99.97
2.53673	99.98
2.55340	99.97
2.57007	99.97
2.58673	99.98
2.60340	99.98
2.62007	99.98
2.63673	99.98
2.65340	99.98
2.67007	99.98
2.68673	99.98
2.70340	99.98
2.72007	99.98
2.73673	99.98
2.75340	99.98
2.77007	99.99
2.78673	99.99
2.80340	99.99
2.82007	99.99
2.83673	99.99
2.85340	99.99
2.87007	99.99
2.88673	100.00
2.90340	100.00
2.92007	100.00
2.93673	100.00
2.95340	100.00
2.97007	100.00
2.98673	100.01
3.00340	100.01
3.02007	100.01
3.03673	100.01
3.05340	100.01
3.07007	100.01
3.08673	100.01
3.10340	100.02
3.12007	100.02
3.13673	100.02
3.15340	100.02
3.17007	100.02
3.18673	100.02
3.20340	100.02
3.22007	100.02
3.23673	100.02
3.25340	100.02
3.27007	100.03
3.28673	100.03
3.30340	100.02
3.32007	100.03
3.33673	100.03
3.35340	100.03
3.37007	100.03
3.38673	100.03
3.40340	100.03
3.42007	100.03
3.43673	100.03
3.45340	100.03
3.47007	100.03
3.48673	100.03
3.50340	100.03
3.52007	100.03
3.53673	100.03
3.55340	100.03
3.57007	100.03
3.58673	100.04
3.60340	100.03
3.62007	100.04
3.63673	100.03
3.65340	100.04
3.67007	100.04
3.68673	100.04
3.70340	100.04
3.72007	100.03
3.73673	100.04
3.75340	100.04
3.77007	100.04
3.78673	100.04
3.80340	100.04
3.82007	100.04
3.83673	100.04
3.85340	100.04
3.87007	100.04
3.88673	100.04
3.90340	100.04
3.92007	100.04
3.93673	100.04
3.95340	100.04
3.97007	100.04
3.98673	100.04

[Status Trace (Carrier Gas Pressure)]
Interval(msec)	1000
# of Points	240
Start Time(min)	0.003
End Time(min)	3.987
Intensity Units	
Intensity Multiplier	1
R.Time (min)	Intensity
0.00340	58.00
0.02007	56.04
0.03673	56.42
0.05340	58.71
0.07007	59.79
0.08673	58.24
0.10340	57.97
0.12007	58.01
0.13673	58.01
0.15340	58.01
0.17007	58.00
0.18673	58.00
0.20340	58.00
0.22007	58.00
0.23673	58.00
0.25340	58.00
0.27007	58.00
0.28673	58.00
0.30340	58.00
0.32007	58.00
0.33673	58.00
0.35340	58.00
0.37007	58.00
0.38673	58.00
0.40340	58.00
0.42007	58.00
0.43673	58.00
0.45340	58.00
0.47007	58.00
0.48673	58.00
0.50340	58.00
0.52007	58.00
0.53673	58.00
0.55340	58.00
0.57007	58.00
0.58673	58.00
0.60340	58.00
0.62007	58.00
0.63673	58.00
0.65340	58.00
0.67007	58.00
0.68673	58.00
0.70340	58.00
0.72007	58.00
0.73673	58.00
0.75340	58.00
0.77007	58.00
0.78673	58.00
0.80340	58.00
0.82007	58.00
0.83673	58.00
0.85340	58.00
0.87007	58.00
0.88673	58.00
0.90340	58.00
0.92007	58.00
0.93673	58.00
0.95340	58.00
0.97007	58.00
0.98673	58.00
1.00340	58.00
1.02007	58.00
1.03673	58.00
1.05340	58.00
1.07007	58.00
1.08673	58.00
1.10340	58.00
1.12007	58.00
1.13673	58.00
1.15340	58.00
1.17007	58.00
1.18673	58.00
1.20340	58.00
1.22007	58.00
1.23673	58.00
1.25340	58.00
1.27007	58.00
1.28673	58.00
1.30340	58.00
1.32007	58.00
1.33673	58.00
1.35340	58.00
1.37007	58.00
1.38673	58.00
1.40340	58.00
1.42007	58.00
1.43673	58.00
1.45340	58.00
1.47007	58.00
1.48673	58.00
1.50340	58.00
1.52007	58.00
1.53673	58.00
1.55340	58.00
1.57007	58.00
1.58673	58.00
1.60340	58.00
1.62007	58.00
1.63673	58.00
1.65340	58.00
1.67007	58.01
1.68673	58.01
1.70340	58.00
1.72007	58.00
1.73673	58.00
1.75340	58.00
1.77007	58.00
1.78673	58.00
1.80340	58.00
1.82007	58.00
1.83673	58.00
1.85340	58.00
1.87007	58.00
1.88673	58.00
1.90340	58.00
1.92007	58.00
1.93673	58.00
1.95340	58.00
1.97007	58.00
1.98673	58.00
2.00340	58.00
2.02007	58.00
2.03673	58.00
2.05340	58.00
2.07007	58.00
2.08673	58.00
2.10340	58.00
2.12007	58.00
2.13673	58.00
2.15340	58.00
2.17007	58.00
2.18673	58.00
2.20340	58.00
2.22007	58.00
2.23673	58.00
2.25340	58.00
2.27007	58.00
2.28673	58.00
2.30340	58.00
2.32007	58.00
2.33673	58.00
2.35340	58.00
2.37007	58.00
2.38673	57.99
2.40340	57.99
2.42007	58.00
2.43673	58.00
2.45340	58.00
2.47007	58.00
2.48673	58.00
2.50340	57.97
2.52007	58.00
2.53673	57.99
2.55340	58.00
2.57007	58.00
2.58673	58.00
2.60340	58.00
2.62007	58.00
2.63673	58.00
2.65340	58.00
2.67007	58.00
2.68673	58.00
2.70340	58.00
2.72007	58.00
2.73673	58.00
2.75340	58.00
2.77007	58.00
2.78673	58.00
2.80340	58.00
2.82007	58.00
2.83673	58.00
2.85340	58.00
2.87007	58.00
2.88673	58.00
2.90340	58.00
2.92007	58.00
2.93673	58.00
2.95340	58.00
2.97007	58.00
2.98673	58.00
3.00340	58.00
3.02007	58.00
3.03673	58.00
3.05340	58.00
3.07007	58.00
3.08673	58.00
3.10340	58.00
3.12007	58.00
3.13673	58.00
3.15340	58.00
3.17007	58.00
3.18673	58.00
3.20340	58.00
3.22007	58.00
3.23673	58.00
3.25340	58.00
3.27007	58.00
3.28673	58.00
3.30340	58.00
3.32007	58.00
3.33673	58.00
3.35340	58.00
3.37007	58.00
3.38673	58.00
3.40340	58.00
3.42007	58.00
3.43673	58.00
3.45340	58.00
3.47007	58.00
3.48673	58.00
3.50340	58.00
3.52007	58.00
3.53673	58.00
3.55340	58.00
3.57007	58.00
3.58673	58.00
3.60340	58.00
3.62007	58.00
3.63673	58.00
3.65340	58.00
3.67007	58.00
3.68673	58.00
3.70340	58.00
3.72007	58.00
3.73673	58.00
3.75340	58.00
3.77007	58.00
3.78673	58.00
3.80340	58.00
3.82007	58.00
3.83673	58.00
3.85340	58.00
3.87007	58.00
3.88673	58.00
3.90340	58.00
3.92007	58.00
3.93673	58.00
3.95340	58.00
3.97007	58.00
3.98673	58.00

[Status Trace (Carrier Gas Flow)]
Interval(msec)	1000
# of Points	240
Start Time(min)	0.003
End Time(min)	3.987
Intensity Units	
Intensity Multiplier	1
R.Time (min)	Intensity
0.00340	34.52
0.02007	34.58
0.03673	34.54
0.05340	34.55
0.07007	34.49
0.08673	34.52
0.10340	34.52
0.12007	34.52
0.13673	34.52
0.15340	34.52
0.17007	34.52
0.18673	34.52
0.20340	34.52
0.22007	34.52
0.23673	34.52
0.25340	34.52
0.27007	34.52
0.28673	34.52
0.30340	34.52
0.32007	34.52
0.33673	34.52
0.35340	34.52
0.37007	34.52
0.38673	34.52
0.40340	34.52
0.42007	34.52
0.43673	34.52
0.45340	34.52
0.47007	34.52
0.48673	34.52
0.50340	34.52
0.52007	34.52
0.53673	34.52
0.55340	34.52
0.57007	34.52
0.58673	34.52
0.60340	34.52
0.62007	34.52
0.63673	34.52
0.65340	34.52
0.67007	34.52
0.68673	34.52
0.70340	34.52
0.72007	34.52
0.73673	34.52
0.75340	34.52
0.77007	34.52
0.78673	34.52
0.80340	34.52
0.82007	34.52
0.83673	34.52
0.85340	34.52
0.87007	34.52
0.88673	34.52
0.90340	34.52
0.92007	34.52
0.93673	34.52
0.95340	34.52
0.97007	34.52
0.98673	34.52
1.00340	34.52
1.02007	34.52
1.03673	34.52
1.05340	34.52
1.07007	34.52
1.08673	34.52
1.10340	34.52
1.12007	34.52
1.13673	34.52
1.15340	34.52
1.17007	34.52
1.18673	34.52
1.20340	34.52
1.22007	34.51
1.23673	34.51
1.25340	34.52
1.27007	34.52
1.28673	34.51
1.30340	34.53
1.32007	34.51
1.33673	34.52
1.35340	34.51
1.37007	34.51
1.38673	34.51
1.40340	34.50
1.42007	34.51
1.43673	34.53
1.45340	34.52
1.47007	34.52
1.48673	34.51
1.50340	34.51
1.52007	34.52
1.53673	34.52
1.55340	34.53
1.57007	34.52
1.58673	34.52
1.60340	34.51
1.62007	34.52
1.63673	34.53
1.65340	34.52
1.67007	34.52
1.68673	34.51
1.70340	34.52
1.72007	34.54
1.73673	34.52
1.75340	34.52
1.77007	34.52
1.78673	34.52
1.80340	34.51
1.82007	34.52
1.83673	34.52
1.85340	34.51
1.87007	34.51
1.88673	34.52
1.90340	34.53
1.92007	34.52
1.93673	34.51
1.95340	34.53
1.97007	34.52
1.98673	34.52
2.00340	34.51
2.02007	34.51
2.03673	34.53
2.05340	34.50
2.07007	34.51
2.08673	34.51
2.10340	34.51
2.12007	34.51
2.13673	34.51
2.15340	34.52
2.17007	34.53
2.18673	34.53
2.20340	34.53
2.22007	34.52
2.23673	34.51
2.25340	34.52
2.27007	34.52
2.28673	34.52
2.30340	34.52
2.32007	34.52
2.33673	34.52
2.35340	34.51
2.37007	34.51
2.38673	34.53
2.40340	34.51
2.42007	34.53
2.43673	34.52
2.45340	34.52
2.47007	34.52
2.48673	34.52
2.50340	34.69
2.52007	34.52
2.53673	34.52
2.55340	34.52
2.57007	34.52
2.58673	34.52
2.60340	34.52
2.62007	34.52
2.63673	34.52
2.65340	34.52
2.67007	34.52
2.68673	34.52
2.70340	34.52
2.72007	34.52
2.73673	34.52
2.75340	34.52
2.77007	34.52
2.78673	34.52
2.80340	34.52
2.82007	34.52
2.83673	34.52
2.85340	34.52
2.87007	34.52
2.88673	34.52
2.90340	34.52
2.92007	34.52
2.93673	34.52
2.95340	34.52
2.97007	34.52
2.98673	34.52
3.00340	34.52
3.02007	34.52
3.03673	34.52
3.05340	34.52
3.07007	34.52
3.08673	34.52
3.10340	34.52
3.12007	34.52
3.13673	34.52
3.15340	34.52
3.17007	34.52
3.18673	34.52
3.20340	34.52
3.22007	34.52
3.23673	34.52
3.25340	34.52
3.27007	34.52
3.28673	34.52
3.30340	34.52
3.32007	34.52
3.33673	34.52
3.35340	34.52
3.37007	34.52
3.38673	34.52
3.40340	34.52
3.42007	34.52
3.43673	34.52
3.45340	34.52
3.47007	34.52
3.48673	34.52
3.50340	34.52
3.52007	34.52
3.53673	34.52
3.55340	34.52
3.57007	34.52
3.58673	34.52
3.60340	34.52
3.62007	34.52
3.63673	34.52
3.65340	34.52
3.67007	34.52
3.68673	34.52
3.70340	34.52
3.72007	34.52
3.73673	34.52
3.75340	34.52
3.77007	34.52
3.78673	34.52
3.80340	34.52
3.82007	34.52
3.83673	34.52
3.85340	34.52
3.87007	34.52
3.88673	34.52
3.90340	34.52
3.92007	34.52
3.93673	34.52
3.95340	34.52
3.97007	34.52
3.98673	34.52

[Status Trace (Column Flow)]
Interval(msec)	1000
# of Points	240
Start Time(min)	0.003
End Time(min)	3.987
Intensity Units	
Intensity Multiplier	1
R.Time (min)	Intensity
0.00340	5.55
0.02007	5.32
0.03673	5.36
0.05340	5.63
0.07007	5.76
0.08673	5.58
0.10340	5.55
0.12007	5.55
0.13673	5.55
0.15340	5.55
0.17007	5.55
0.18673	5.55
0.20340	5.55
0.22007	5.55
0.23673	5.55
0.25340	5.55
0.27007	5.55
0.28673	5.55
0.30340	5.55
0.32007	5.55
0.33673	5.55
0.35340	5.55
0.37007	5.55
0.38673	5.55
0.40340	5.55
0.42007	5.55
0.43673	5.55
0.45340	5.55
0.47007	5.55
0.48673	5.55
0.50340	5.55
0.52007	5.55
0.53673	5.55
0.55340	5.55
0.57007	5.55
0.58673	5.55
0.60340	5.55
0.62007	5.55
0.63673	5.55
0.65340	5.55
0.67007	5.55
0.68673	5.55
0.70340	5.55
0.72007	5.55
0.73673	5.55
0.75340	5.55
0.77007	5.55
0.78673	5.55
0.80340	5.55
0.82007	5.55
0.83673	5.55
0.85340	5.55
0.87007	5.55
0.88673	5.55
0.90340	5.55
0.92007	5.55
0.93673	5.55
0.95340	5.55
0.97007	5.55
0.98673	5.55
1.00340	5.55
1.02007	5.55
1.03673	5.55
1.05340	5.55
1.07007	5.55
1.08673	5.55
1.10340	5.55
1.12007	5.55
1.13673	5.55
1.15340	5.55
1.17007	5.55
1.18673	5.55
1.20340	5.55
1.22007	5.55
1.23673	5.55
1.25340	5.55
1.27007	5.55
1.28673	5.55
1.30340	5.55
1.32007	5.55
1.33673	5.55
1.35340	5.55
1.37007	5.55
1.38673	5.55
1.40340	5.55
1.42007	5.55
1.43673	5.55
1.45340	5.55
1.47007	5.55
1.48673	5.55
1.50340	5.55
1.52007	5.55
1.53673	5.55
1.55340	5.55
1.57007	5.55
1.58673	5.55
1.60340	5.55
1.62007	5.55
1.63673	5.54
1.65340	5.53
1.67007	5.52
1.68673	5.51
1.70340	5.50
1.72007	5.49
1.73673	5.48
1.75340	5.47
1.77007	5.46
1.78673	5.45
1.80340	5.44
1.82007	5.43
1.83673	5.42
1.85340	5.41
1.87007	5.40
1.88673	5.39
1.90340	5.38
1.92007	5.37
1.93673	5.36
1.95340	5.35
1.97007	5.34
1.98673	5.33
2.00340	5.32
2.02007	5.31
2.03673	5.30
2.05340	5.29
2.07007	5.28
2.08673	5.27
2.10340	5.26
2.12007	5.25
2.13673	5.24
2.15340	5.23
2.17007	5.22
2.18673	5.22
2.20340	5.21
2.22007	5.20
2.23673	5.19
2.25340	5.18
2.27007	5.17
2.28673	5.16
2.30340	5.15
2.32007	5.14
2.33673	5.13
2.35340	5.12
2.37007	5.12
2.38673	5.11
2.40340	5.11
2.42007	5.11
2.43673	5.11
2.45340	5.11
2.47007	5.11
2.48673	5.11
2.50340	5.11
2.52007	5.11
2.53673	5.11
2.55340	5.11
2.57007	5.11
2.58673	5.11
2.60340	5.11
2.62007	5.11
2.63673	5.11
2.65340	5.11
2.67007	5.11
2.68673	5.11
2.70340	5.11
2.72007	5.11
2.73673	5.11
2.75340	5.11
2.77007	5.11
2.78673	5.11
2.80340	5.11
2.82007	5.11
2.83673	5.11
2.85340	5.11
2.87007	5.11
2.88673	5.11
2.90340	5.11
2.92007	5.11
2.93673	5.11
2.95340	5.11
2.97007	5.11
2.98673	5.11
3.00340	5.10
3.02007	5.10
3.03673	5.10
3.05340	5.10
3.07007	5.10
3.08673	5.10
3.10340	5.10
3.12007	5.10
3.13673	5.10
3.15340	5.10
3.17007	5.10
3.18673	5.10
3.20340	5.10
3.22007	5.10
3.23673	5.10
3.25340	5.10
3.27007	5.10
3.28673	5.10
3.30340	5.10
3.32007	5.10
3.33673	5.10
3.35340	5.10
3.37007	5.10
3.38673	5.10
3.40340	5.10
3.42007	5.10
3.43673	5.10
3.45340	5.10
3.47007	5.10
3.48673	5.10
3.50340	5.10
3.52007	5.10
3.53673	5.10
3.55340	5.10
3.57007	5.10
3.58673	5.10
3.60340	5.10
3.62007	5.10
3.63673	5.10
3.65340	5.10
3.67007	5.10
3.68673	5.10
3.70340	5.10
3.72007	5.10
3.73673	5.10
3.75340	5.10
3.77007	5.10
3.78673	5.10
3.80340	5.10
3.82007	5.10
3.83673	5.10
3.85340	5.10
3.87007	5.10
3.88673	5.10
3.90340	5.10
3.92007	5.10
3.93673	5.10
3.95340	5.10
3.97007	5.10
3.98673	5.10

[Status Trace (Linear Velocity)]
Interval(msec)	1000
# of Points	240
Start Time(min)	0.003
End Time(min)	3.987
Intensity Units	
Intensity Multiplier	1
R.Time (min)	Intensity
0.00340	39.02
0.02007	37.73
0.03673	37.98
0.05340	39.49
0.07007	40.19
0.08673	39.18
0.10340	39.00
0.12007	39.03
0.13673	39.03
0.15340	39.03
0.17007	39.03
0.18673	39.03
0.20340	39.03
0.22007	39.02
0.23673	39.02
0.25340	39.02
0.27007	39.02
0.28673	39.02
0.30340	39.02
0.32007	39.03
0.33673	39.03
0.35340	39.02
0.37007	39.02
0.38673	39.02
0.40340	39.02
0.42007	39.02
0.43673	39.02
0.45340	39.02
0.47007	39.02
0.48673	39.02
0.50340	39.02
0.52007	39.03
0.53673	39.02
0.55340	39.02
0.57007	39.02
0.58673	39.02
0.60340	39.02
0.62007	39.02
0.63673	39.02
0.65340	39.02
0.67007	39.02
0.68673	39.03
0.70340	39.02
0.72007	39.02
0.73673	39.02
0.75340	39.02
0.77007	39.02
0.78673	39.02
0.80340	39.03
0.82007	39.02
0.83673	39.02
0.85340	39.02
0.87007	39.02
0.88673	39.02
0.90340	39.02
0.92007	39.02
0.93673	39.02
0.95340	39.02
0.97007	39.02
0.98673	39.02
1.00340	39.02
1.02007	39.02
1.03673	39.02
1.05340	39.02
1.07007	39.02
1.08673	39.02
1.10340	39.02
1.12007	39.02
1.13673	39.02
1.15340	39.02
1.17007	39.02
1.18673	39.02
1.20340	39.02
1.22007	39.02
1.23673	39.02
1.25340	39.02
1.27007	39.02
1.28673	39.02
1.30340	39.02
1.32007	39.02
1.33673	39.02
1.35340	39.02
1.37007	39.02
1.38673	39.02
1.40340	39.02
1.42007	39.02
1.43673	39.02
1.45340	39.02
1.47007	39.02
1.48673	39.02
1.50340	39.02
1.52007	39.02
1.53673	39.02
1.55340	39.02
1.57007	39.02
1.58673	39.02
1.60340	39.02
1.62007	39.01
1.63673	39.00
1.65340	38.97
1.67007	38.94
1.68673	38.91
1.70340	38.87
1.72007	38.84
1.73673	38.81
1.75340	38.78
1.77007	38.75
1.78673	38.71
1.80340	38.68
1.82007	38.65
1.83673	38.62
1.85340	38.59
1.87007	38.56
1.88673	38.53
1.90340	38.49
1.92007	38.46
1.93673	38.43
1.95340	38.41
1.97007	38.38
1.98673	38.35
2.00340	38.32
2.02007	38.29
2.03673	38.26
2.05340	38.23
2.07007	38.20
2.08673	38.17
2.10340	38.14
2.12007	38.11
2.13673	38.08
2.15340	38.05
2.17007	38.02
2.18673	37.99
2.20340	37.96
2.22007	37.93
2.23673	37.90
2.25340	37.87
2.27007	37.84
2.28673	37.81
2.30340	37.78
2.32007	37.75
2.33673	37.72
2.35340	37.69
2.37007	37.67
2.38673	37.67
2.40340	37.67
2.42007	37.67
2.43673	37.67
2.45340	37.67
2.47007	37.67
2.48673	37.66
2.50340	37.65
2.52007	37.66
2.53673	37.66
2.55340	37.66
2.57007	37.66
2.58673	37.66
2.60340	37.66
2.62007	37.66
2.63673	37.66
2.65340	37.66
2.67007	37.65
2.68673	37.65
2.70340	37.65
2.72007	37.65
2.73673	37.65
2.75340	37.65
2.77007	37.65
2.78673	37.65
2.80340	37.65
2.82007	37.65
2.83673	37.65
2.85340	37.65
2.87007	37.65
2.88673	37.65
2.90340	37.65
2.92007	37.65
2.93673	37.65
2.95340	37.64
2.97007	37.64
2.98673	37.64
3.00340	37.64
3.02007	37.64
3.03673	37.64
3.05340	37.64
3.07007	37.64
3.08673	37.64
3.10340	37.64
3.12007	37.64
3.13673	37.64
3.15340	37.64
3.17007	37.64
3.18673	37.64
3.20340	37.64
3.22007	37.63
3.23673	37.63
3.25340	37.63
3.27007	37.63
3.28673	37.63
3.30340	37.63
3.32007	37.63
3.33673	37.63
3.35340	37.63
3.37007	37.63
3.38673	37.63
3.40340	37.63
3.42007	37.63
3.43673	37.63
3.45340	37.63
3.47007	37.63
3.48673	37.63
3.50340	37.63
3.52007	37.63
3.53673	37.63
3.55340	37.63
3.57007	37.63
3.58673	37.63
3.60340	37.63
3.62007	37.63
3.63673	37.63
3.65340	37.63
3.67007	37.63
3.68673	37.63
3.70340	37.63
3.72007	37.63
3.73673	37.63
3.75340	37.63
3.77007	37.63
3.78673	37.63
3.80340	37.63
3.82007	37.63
3.83673	37.63
3.85340	37.63
3.87007	37.63
3.88673	37.63
3.90340	37.63
3.92007	37.63
3.93673	37.63
3.95340	37.63
3.97007	37.63
3.98673	37.63

