[Header]
Application Name	LabSolutions
Version	5.110
Data File Name	C:\Users\User\Desktop\GC Analyses\Jack\UIC Prairie Sampling\11.2.22\221102_041.gcd
Output Date	3/20/2023
Output Time	1:25:38 PM

[File Information]
Type	Data File
Generated	12/21/2022 12:10:05 PM
Generated by	System Administrator
Modified	12/21/2022 12:14:30 PM
Modified by	System Administrator

[Sample Information]
Operator Name	System Administrator
Acquired	12/21/2022 12:10:30 PM
Sample Type	1:Standard
Level	1
Sample Name	221102_UICPrairie
Sample ID	221102_UICPrairie
ISTD Amount1	1
ISTD Amount2	1
ISTD Amount3	1
ISTD Amount4	1
ISTD Amount5	1
ISTD Amount6	1
ISTD Amount7	1
ISTD Amount8	1
ISTD Amount9	1
ISTD Amount10	1
ISTD Amount11	1
ISTD Amount12	1
ISTD Amount13	1
ISTD Amount14	1
ISTD Amount15	1
ISTD Amount16	1
ISTD Amount17	1
ISTD Amount18	1
ISTD Amount19	1
ISTD Amount20	1
ISTD Amount21	1
ISTD Amount22	1
ISTD Amount23	1
ISTD Amount24	1
ISTD Amount25	1
ISTD Amount26	1
ISTD Amount27	1
ISTD Amount28	1
ISTD Amount29	1
ISTD Amount30	1
ISTD Amount31	1
ISTD Amount32	1
Sample Amount	1
Dilution Factor	1
Vial#	1
Injection Volume	1
Injection Count	1
Bar Code	

[Original Files]
Data File	C:\Users\User\Desktop\GC Analyses\Jack\UIC Prairie Sampling\11.2.22\221102_041.gcd
Method File	C:\LabSolutions\Data\GHG_4min_2022\ghg3_togas_w_acet_4 min_new_int.gcm
Batch File	
Report Format File	c:\LabSolutions\System\DEFAULT.lsr

[File Description]


[Configuration]
Instrument Name	C0B7VH3-Instrument1
Instrument #	1
Line #	1
# of Detectors	3
Detector ID	DET#1	DET#2	DET#3
Detector Name	FID	PTCD	ECD
# of Channels	1	1	1

[Peak Table(Ch1)]
# of Peaks	3
Peak#	R.Time	I.Time	F.Time	Area	Height	A/H	Conc.	Mark	ID#	Name	k'	Plate #	Plate Ht.	Tailing	Resolution	Sep.Factor	Area Ratio	Height Ratio	Conc. %	Norm Conc.
1	1.479	1.432	1.538	10397	4471	2.326	100.000	   	1	CO	0.000	8120	18.473	1.211	0.000	0.000	0	0	16.667	16.667
2	1.571	1.538	1.630	5333	2625	2.032	100.000	 V 	2	CH4	0.062	11018	13.614	0.000	1.460	0.000	0	0	16.667	16.667
3	2.000	1.952	2.660	1413518	650834	2.172	400.000	   	3	CO2	0.352	17181	8.731	1.225	7.097	5.680	0	0	66.667	66.667

[Peak Table(Ch2)]
# of Peaks	0

[Peak Table(Ch3)]
# of Peaks	5
Peak#	R.Time	I.Time	F.Time	Area	Height	A/H	Conc.	Mark	ID#	Name	k'	Plate #	Plate Ht.	Tailing	Resolution	Sep.Factor	Area Ratio	Height Ratio	Conc. %	Norm Conc.
1	2.469	2.381	2.499	1434	486	2.950	0.000	   			0.000	9090	16.502	0.000	0.000	0.000	0	0	0.000	0.000
2	2.517	2.499	2.554	990	364	2.718	0.000	 V 			0.019	3356	44.700	0.000	0.344	0.000	0	0	0.000	0.000
3	2.605	2.554	2.653	1345	359	3.751	0.000	 V 			0.055	6268	23.932	0.000	0.576	2.846	0	0	0.000	0.000
4	2.807	2.667	2.825	4126	917	4.501	0.076	   	1	N2O	0.137	96	1559.819	0.000	0.316	2.486	0	0	7.590	7.590
5	2.884	2.825	3.877	50230	6182	8.125	0.924	 V 	1	N2O	0.168	10500	14.286	0.000	0.122	1.228	0	0	92.410	92.410

[Compound Results(Ch1)]
# of IDs	6
ID#	Name	R.Time	Area	Height	Conc.	Curve	3rd	2nd	1st	Constant	Area Ratio	Height Ratio	Conc. %	Norm Conc.
1	CO	1.479	10397	4471	100.000	Linear	0.000000e+00	0.000000e+00	1.039673e+002	0.000000e+00	0	0	16.667	16.667
2	CH4	1.571	5333	2625	100.000	Linear	0.000000e+00	0.000000e+00	5.333416e+001	0.000000e+00	0	0	16.667	16.667
3	CO2	2.000	1413518	650834	400.000	Linear	0.000000e+00	0.000000e+00	3.533796e+003	0.000000e+00	0	0	66.667	66.667
4	Ethylene	0.000	0	0	0.000	Linear	0.000000e+00	0.000000e+00	0.000000e+00	0.000000e+00	0	0	0.000	0.000
5	Acetylene	0.000	0	0	0.000	Linear	0.000000e+00	0.000000e+00	0.000000e+00	0.000000e+00	0	0	0.000	0.000
6	Ethane	0.000	0	0	0.000	Linear	0.000000e+00	0.000000e+00	0.000000e+00	0.000000e+00	0	0	0.000	0.000

[Compound Results(Ch2)]
# of IDs	5
ID#	Name	R.Time	Area	Height	Conc.	Curve	3rd	2nd	1st	Constant	Area Ratio	Height Ratio	Conc. %	Norm Conc.
1	Hydrogen	0.000	0	0	0.000	Linear	0.000000e+00	0.000000e+00	0.000000e+00	0.000000e+00	0	0	0.000	0.000
2	Oxygen	0.000	0	0	0.000	Linear	0.000000e+00	0.000000e+00	0.000000e+00	0.000000e+00	0	0	0.000	0.000
3	Nitrogen	0.000	0	0	0.000	Linear	0.000000e+00	0.000000e+00	0.000000e+00	0.000000e+00	0	0	0.000	0.000
4	Methane	0.000	0	0	0.000	Linear	0.000000e+00	0.000000e+00	0.000000e+00	0.000000e+00	0	0	0.000	0.000
5	Carbon Monoxide	0.000	0	0	0.000	Linear	0.000000e+00	0.000000e+00	0.000000e+00	0.000000e+00	0	0	0.000	0.000

[Compound Results(Ch3)]
# of IDs	2
ID#	Name	R.Time	Area	Height	Conc.	Curve	3rd	2nd	1st	Constant	Area Ratio	Height Ratio	Conc. %	Norm Conc.
1	N2O	2.884	54355	7098	1.000	Linear	0.000000e+00	0.000000e+00	5.435544e+004	0.000000e+00	0	0	100.000	100.000
2	SF6	0.000	0	0	0.000	Linear	0.000000e+00	0.000000e+00	0.000000e+00	0.000000e+00	0	0	0.000	0.000

[Group Results(Ch1)]
# of Groups	0

[Group Results(Ch2)]
# of Groups	0

[Group Results(Ch3)]
# of Groups	0

[Chromatogram (Ch1)]
Interval(msec)	220
# of Points	1091
Start Time(min)	0.002
End Time(min)	3.998
R.Time (min)	Intensity
0.00167	17
0.00533	16
0.00900	14
0.01267	17
0.01633	22
0.02000	27
0.02367	30
0.02733	32
0.03100	32
0.03467	30
0.03833	26
0.04200	22
0.04567	17
0.04933	13
0.05300	9
0.05667	7
0.06033	6
0.06400	6
0.06767	9
0.07133	11
0.07500	15
0.07867	19
0.08233	19
0.08600	20
0.08967	22
0.09333	26
0.09700	26
0.10067	24
0.10433	19
0.10800	13
0.11167	10
0.11533	7
0.11900	3
0.12267	-0
0.12633	-3
0.13000	-4
0.13367	-1
0.13733	1
0.14100	2
0.14467	0
0.14833	-2
0.15200	-3
0.15567	-3
0.15933	1
0.16300	2
0.16667	1
0.17033	1
0.17400	5
0.17767	9
0.18133	8
0.18500	4
0.18867	-1
0.19233	-6
0.19600	-8
0.19967	-9
0.20333	-7
0.20700	-6
0.21067	-10
0.21433	-17
0.21800	-18
0.22167	-14
0.22533	-10
0.22900	-8
0.23267	-8
0.23633	-8
0.24000	-7
0.24367	-5
0.24733	-3
0.25100	-3
0.25467	-5
0.25833	-10
0.26200	-16
0.26567	-19
0.26933	-20
0.27300	-18
0.27667	-15
0.28033	-11
0.28400	-6
0.28767	-2
0.29133	-1
0.29500	-0
0.29867	-3
0.30233	-7
0.30600	-9
0.30967	-8
0.31333	-6
0.31700	-7
0.32067	-10
0.32433	-12
0.32800	-10
0.33167	-6
0.33533	1
0.33900	8
0.34267	11
0.34633	6
0.35000	-2
0.35367	-10
0.35733	-15
0.36100	-19
0.36467	-22
0.36833	-25
0.37200	-28
0.37567	-29
0.37933	-30
0.38300	-30
0.38667	-29
0.39033	-29
0.39400	-29
0.39767	-29
0.40133	-26
0.40500	-24
0.40867	-23
0.41233	-22
0.41600	-21
0.41967	-22
0.42333	-27
0.42700	-28
0.43067	-28
0.43433	-30
0.43800	-32
0.44167	-33
0.44533	-36
0.44900	-39
0.45267	-35
0.45633	-28
0.46000	-27
0.46367	-31
0.46733	-37
0.47100	-43
0.47467	-46
0.47833	-44
0.48200	-43
0.48567	-43
0.48933	-42
0.49300	-39
0.49667	-38
0.50033	-37
0.50400	-36
0.50767	-36
0.51133	-36
0.51500	-35
0.51867	-33
0.52233	-32
0.52600	-32
0.52967	-31
0.53333	-31
0.53700	-30
0.54067	-28
0.54433	-24
0.54800	-19
0.55167	-17
0.55533	-19
0.55900	-19
0.56267	-20
0.56633	-20
0.57000	-24
0.57367	-28
0.57733	-32
0.58100	-33
0.58467	-32
0.58833	-31
0.59200	-31
0.59567	-32
0.59933	-33
0.60300	-36
0.60667	-43
0.61033	-48
0.61400	-50
0.61767	-47
0.62133	-40
0.62500	-33
0.62867	-30
0.63233	-29
0.63600	-28
0.63967	-26
0.64333	-26
0.64700	-30
0.65067	-32
0.65433	-33
0.65800	-35
0.66167	-35
0.66533	-34
0.66900	-35
0.67267	-40
0.67633	-46
0.68000	-51
0.68367	-51
0.68733	-49
0.69100	-47
0.69467	-43
0.69833	-39
0.70200	-37
0.70567	-38
0.70933	-41
0.71300	-45
0.71667	-48
0.72033	-49
0.72400	-49
0.72767	-52
0.73133	-53
0.73500	-52
0.73867	-47
0.74233	-41
0.74600	-39
0.74967	-39
0.75333	-40
0.75700	-40
0.76067	-42
0.76433	-46
0.76800	-49
0.77167	-54
0.77533	-61
0.77900	-68
0.78267	-75
0.78633	-80
0.79000	-79
0.79367	-75
0.79733	-71
0.80100	-67
0.80467	-64
0.80833	-64
0.81200	-69
0.81567	-72
0.81933	-72
0.82300	-74
0.82667	-78
0.83033	-84
0.83400	-88
0.83767	-85
0.84133	-80
0.84500	-74
0.84867	-68
0.85233	-63
0.85600	-58
0.85967	-54
0.86333	-57
0.86700	-65
0.87067	-66
0.87433	-64
0.87800	-60
0.88167	-54
0.88533	-50
0.88900	-48
0.89267	-50
0.89633	-54
0.90000	-58
0.90367	-59
0.90733	-59
0.91100	-62
0.91467	-66
0.91833	-70
0.92200	-75
0.92567	-82
0.92933	-86
0.93300	-88
0.93667	-90
0.94033	-90
0.94400	-88
0.94767	-86
0.95133	-87
0.95500	-86
0.95867	-81
0.96233	-76
0.96600	-71
0.96967	-68
0.97333	-70
0.97700	-74
0.98067	-80
0.98433	-85
0.98800	-85
0.99167	-84
0.99533	-81
0.99900	-77
1.00267	-74
1.00633	-73
1.01000	-76
1.01367	-79
1.01733	-82
1.02100	-83
1.02467	-77
1.02833	-69
1.03200	-64
1.03567	-61
1.03933	-60
1.04300	-63
1.04667	-69
1.05033	-70
1.05400	-69
1.05767	-68
1.06133	-69
1.06500	-73
1.06867	-78
1.07233	-84
1.07600	-87
1.07967	-88
1.08333	-86
1.08700	-85
1.09067	-83
1.09433	-81
1.09800	-76
1.10167	-68
1.10533	-61
1.10900	-59
1.11267	-64
1.11633	-71
1.12000	-77
1.12367	-80
1.12733	-82
1.13100	-84
1.13467	-88
1.13833	-91
1.14200	-94
1.14567	-95
1.14933	-94
1.15300	-90
1.15667	-83
1.16033	-81
1.16400	-84
1.16767	-86
1.17133	-86
1.17500	-84
1.17867	-82
1.18233	-81
1.18600	-79
1.18967	-76
1.19333	-77
1.19700	-82
1.20067	-89
1.20433	-96
1.20800	-99
1.21167	-98
1.21533	-97
1.21900	-97
1.22267	-98
1.22633	-100
1.23000	-100
1.23367	-99
1.23733	-96
1.24100	-89
1.24467	-80
1.24833	-75
1.25200	-75
1.25567	-78
1.25933	-86
1.26300	-92
1.26667	-96
1.27033	-95
1.27400	-92
1.27767	-91
1.28133	-95
1.28500	-101
1.28867	-101
1.29233	-97
1.29600	-93
1.29967	-92
1.30333	-91
1.30700	-90
1.31067	-90
1.31433	-92
1.31800	-95
1.32167	-96
1.32533	-95
1.32900	-95
1.33267	-93
1.33633	-89
1.34000	-90
1.34367	-94
1.34733	-94
1.35100	-94
1.35467	-98
1.35833	-107
1.36200	-116
1.36567	-122
1.36933	-127
1.37300	-132
1.37667	-133
1.38033	-128
1.38400	-121
1.38767	-113
1.39133	-106
1.39500	-104
1.39867	-105
1.40233	-103
1.40600	-104
1.40967	-108
1.41333	-111
1.41700	-114
1.42067	-116
1.42433	-115
1.42800	-113
1.43167	-108
1.43533	-101
1.43900	-80
1.44267	1
1.44633	185
1.45000	465
1.45367	900
1.45733	1545
1.46100	2310
1.46467	3046
1.46833	3660
1.47200	4111
1.47567	4361
1.47933	4367
1.48300	4105
1.48667	3615
1.49033	2994
1.49400	2356
1.49767	1787
1.50133	1326
1.50500	973
1.50867	708
1.51233	512
1.51600	370
1.51967	269
1.52333	194
1.52700	138
1.53067	97
1.53433	72
1.53800	63
1.54167	105
1.54533	269
1.54900	605
1.55267	1070
1.55633	1561
1.56000	1990
1.56367	2314
1.56733	2507
1.57100	2530
1.57467	2355
1.57833	2014
1.58200	1588
1.58567	1166
1.58933	806
1.59300	532
1.59667	338
1.60033	206
1.60400	118
1.60767	56
1.61133	9
1.61500	-28
1.61867	-54
1.62233	-72
1.62600	-84
1.62967	-90
1.63333	-92
1.63700	-92
1.64067	-96
1.64433	-102
1.64800	-108
1.65167	-112
1.65533	-116
1.65900	-119
1.66267	-120
1.66633	-121
1.67000	-119
1.67367	-115
1.67733	-113
1.68100	-111
1.68467	-108
1.68833	-106
1.69200	-105
1.69567	-108
1.69933	-114
1.70300	-118
1.70667	-119
1.71033	-120
1.71400	-120
1.71767	-122
1.72133	-128
1.72500	-132
1.72867	-134
1.73233	-133
1.73600	-129
1.73967	-121
1.74333	-111
1.74700	-104
1.75067	-102
1.75433	-102
1.75800	-104
1.76167	-109
1.76533	-116
1.76900	-124
1.77267	-130
1.77633	-134
1.78000	-133
1.78367	-132
1.78733	-133
1.79100	-134
1.79467	-134
1.79833	-130
1.80200	-124
1.80567	-117
1.80933	-109
1.81300	-104
1.81667	-102
1.82033	-104
1.82400	-109
1.82767	-118
1.83133	-126
1.83500	-129
1.83867	-130
1.84233	-131
1.84600	-129
1.84967	-125
1.85333	-121
1.85700	-119
1.86067	-116
1.86433	-112
1.86800	-111
1.87167	-111
1.87533	-114
1.87900	-120
1.88267	-128
1.88633	-134
1.89000	-139
1.89367	-141
1.89733	-142
1.90100	-142
1.90467	-141
1.90833	-136
1.91200	-126
1.91567	-116
1.91933	-110
1.92300	-107
1.92667	-105
1.93033	-103
1.93400	-100
1.93767	-96
1.94133	-95
1.94500	-98
1.94867	-100
1.95233	-92
1.95600	-27
1.95967	387
1.96333	2400
1.96700	9840
1.97067	30881
1.97433	76931
1.97800	155965
1.98167	264568
1.98533	387133
1.98900	502762
1.99267	592962
1.99633	644631
2.00000	650778
2.00367	612212
2.00733	538587
2.01100	445598
2.01467	349656
2.01833	263070
2.02200	192075
2.02567	137748
2.02933	98129
2.03300	70149
2.03667	50770
2.04033	37475
2.04400	28368
2.04767	22095
2.05133	17722
2.05500	14619
2.05867	12370
2.06233	10697
2.06600	9420
2.06967	8420
2.07333	7619
2.07700	6961
2.08067	6415
2.08433	5950
2.08800	5550
2.09167	5202
2.09533	4897
2.09900	4623
2.10267	4373
2.10633	4147
2.11000	3941
2.11367	3756
2.11733	3590
2.12100	3438
2.12467	3296
2.12833	3166
2.13200	3048
2.13567	2936
2.13933	2830
2.14300	2727
2.14667	2630
2.15033	2542
2.15400	2463
2.15767	2392
2.16133	2326
2.16500	2260
2.16867	2193
2.17233	2127
2.17600	2063
2.17967	2003
2.18333	1950
2.18700	1902
2.19067	1852
2.19433	1802
2.19800	1752
2.20167	1706
2.20533	1666
2.20900	1633
2.21267	1605
2.21633	1579
2.22000	1547
2.22367	1510
2.22733	1475
2.23100	1441
2.23467	1411
2.23833	1384
2.24200	1358
2.24567	1337
2.24933	1320
2.25300	1306
2.25667	1288
2.26033	1262
2.26400	1232
2.26767	1203
2.27133	1178
2.27500	1156
2.27867	1137
2.28233	1114
2.28600	1092
2.28967	1073
2.29333	1059
2.29700	1044
2.30067	1025
2.30433	1007
2.30800	993
2.31167	980
2.31533	962
2.31900	945
2.32267	928
2.32633	913
2.33000	903
2.33367	897
2.33733	890
2.34100	884
2.34467	879
2.34833	869
2.35200	855
2.35567	840
2.35933	827
2.36300	817
2.36667	805
2.37033	788
2.37400	773
2.37767	763
2.38133	756
2.38500	751
2.38867	747
2.39233	743
2.39600	737
2.39967	731
2.40333	728
2.40700	730
2.41067	730
2.41433	723
2.41800	712
2.42167	703
2.42533	696
2.42900	689
2.43267	682
2.43633	676
2.44000	670
2.44367	664
2.44733	656
2.45100	649
2.45467	642
2.45833	636
2.46200	632
2.46567	624
2.46933	615
2.47300	607
2.47667	599
2.48033	588
2.48400	580
2.48767	574
2.49133	570
2.49500	568
2.49867	566
2.50233	567
2.50600	568
2.50967	568
2.51333	565
2.51700	557
2.52067	549
2.52433	543
2.52800	542
2.53167	543
2.53533	548
2.53900	554
2.54267	561
2.54633	562
2.55000	558
2.55367	552
2.55733	547
2.56100	537
2.56467	525
2.56833	516
2.57200	507
2.57567	499
2.57933	495
2.58300	496
2.58667	499
2.59033	499
2.59400	499
2.59767	502
2.60133	505
2.60500	504
2.60867	498
2.61233	490
2.61600	482
2.61967	478
2.62333	478
2.62700	479
2.63067	479
2.63433	476
2.63800	474
2.64167	472
2.64533	467
2.64900	463
2.65267	458
2.65633	451
2.66000	444
2.66367	439
2.66733	438
2.67100	441
2.67467	444
2.67833	447
2.68200	449
2.68567	449
2.68933	450
2.69300	455
2.69667	463
2.70033	467
2.70400	462
2.70767	450
2.71133	436
2.71500	425
2.71867	421
2.72233	427
2.72600	436
2.72967	443
2.73333	443
2.73700	439
2.74067	433
2.74433	431
2.74800	430
2.75167	430
2.75533	430
2.75900	430
2.76267	430
2.76633	428
2.77000	423
2.77367	419
2.77733	417
2.78100	419
2.78467	423
2.78833	424
2.79200	423
2.79567	421
2.79933	420
2.80300	420
2.80667	418
2.81033	414
2.81400	415
2.81767	418
2.82133	418
2.82500	413
2.82867	406
2.83233	403
2.83600	405
2.83967	410
2.84333	412
2.84700	412
2.85067	412
2.85433	410
2.85800	406
2.86167	405
2.86533	407
2.86900	411
2.87267	415
2.87633	416
2.88000	408
2.88367	393
2.88733	379
2.89100	370
2.89467	366
2.89833	365
2.90200	365
2.90567	367
2.90933	370
2.91300	373
2.91667	378
2.92033	381
2.92400	381
2.92767	380
2.93133	379
2.93500	379
2.93867	381
2.94233	383
2.94600	386
2.94967	393
2.95333	396
2.95700	398
2.96067	397
2.96433	395
2.96800	393
2.97167	388
2.97533	381
2.97900	374
2.98267	369
2.98633	370
2.99000	376
2.99367	385
2.99733	397
3.00100	407
3.00467	411
3.00833	412
3.01200	412
3.01567	412
3.01933	410
3.02300	406
3.02667	400
3.03033	393
3.03400	387
3.03767	383
3.04133	379
3.04500	374
3.04867	370
3.05233	368
3.05600	364
3.05967	358
3.06333	354
3.06700	354
3.07067	355
3.07433	357
3.07800	360
3.08167	361
3.08533	362
3.08900	361
3.09267	356
3.09633	350
3.10000	345
3.10367	344
3.10733	344
3.11100	346
3.11467	347
3.11833	346
3.12200	344
3.12567	341
3.12933	341
3.13300	346
3.13667	351
3.14033	352
3.14400	347
3.14767	343
3.15133	339
3.15500	335
3.15867	334
3.16233	341
3.16600	348
3.16967	354
3.17333	357
3.17700	352
3.18067	345
3.18433	342
3.18800	343
3.19167	342
3.19533	339
3.19900	334
3.20267	331
3.20633	330
3.21000	330
3.21367	331
3.21733	332
3.22100	332
3.22467	332
3.22833	331
3.23200	326
3.23567	318
3.23933	311
3.24300	308
3.24667	303
3.25033	298
3.25400	298
3.25767	301
3.26133	305
3.26500	305
3.26867	304
3.27233	304
3.27600	305
3.27967	305
3.28333	307
3.28700	309
3.29067	307
3.29433	306
3.29800	308
3.30167	313
3.30533	318
3.30900	319
3.31267	313
3.31633	307
3.32000	301
3.32367	299
3.32733	301
3.33100	305
3.33467	307
3.33833	302
3.34200	294
3.34567	290
3.34933	289
3.35300	292
3.35667	297
3.36033	302
3.36400	305
3.36767	306
3.37133	306
3.37500	304
3.37867	301
3.38233	295
3.38600	288
3.38967	282
3.39333	277
3.39700	271
3.40067	265
3.40433	261
3.40800	262
3.41167	267
3.41533	271
3.41900	277
3.42267	284
3.42633	287
3.43000	286
3.43367	284
3.43733	284
3.44100	286
3.44467	288
3.44833	288
3.45200	287
3.45567	287
3.45933	286
3.46300	281
3.46667	277
3.47033	274
3.47400	268
3.47767	258
3.48133	250
3.48500	244
3.48867	242
3.49233	240
3.49600	241
3.49967	246
3.50333	250
3.50700	252
3.51067	252
3.51433	252
3.51800	255
3.52167	257
3.52533	260
3.52900	264
3.53267	264
3.53633	261
3.54000	258
3.54367	254
3.54733	251
3.55100	249
3.55467	248
3.55833	248
3.56200	252
3.56567	255
3.56933	261
3.57300	267
3.57667	269
3.58033	264
3.58400	255
3.58767	248
3.59133	244
3.59500	243
3.59867	242
3.60233	242
3.60600	245
3.60967	247
3.61333	246
3.61700	242
3.62067	236
3.62433	230
3.62800	228
3.63167	226
3.63533	225
3.63900	226
3.64267	227
3.64633	225
3.65000	224
3.65367	226
3.65733	232
3.66100	239
3.66467	240
3.66833	235
3.67200	229
3.67567	224
3.67933	222
3.68300	222
3.68667	220
3.69033	215
3.69400	210
3.69767	208
3.70133	208
3.70500	211
3.70867	215
3.71233	221
3.71600	230
3.71967	235
3.72333	235
3.72700	233
3.73067	231
3.73433	232
3.73800	230
3.74167	224
3.74533	217
3.74900	210
3.75267	207
3.75633	206
3.76000	205
3.76367	206
3.76733	209
3.77100	213
3.77467	213
3.77833	210
3.78200	208
3.78567	208
3.78933	211
3.79300	213
3.79667	213
3.80033	212
3.80400	209
3.80767	209
3.81133	211
3.81500	212
3.81867	213
3.82233	212
3.82600	213
3.82967	214
3.83333	212
3.83700	209
3.84067	208
3.84433	208
3.84800	213
3.85167	220
3.85533	226
3.85900	226
3.86267	223
3.86633	221
3.87000	219
3.87367	216
3.87733	211
3.88100	204
3.88467	196
3.88833	191
3.89200	193
3.89567	195
3.89933	197
3.90300	201
3.90667	205
3.91033	210
3.91400	217
3.91767	222
3.92133	222
3.92500	214
3.92867	207
3.93233	203
3.93600	198
3.93967	193
3.94333	191
3.94700	188
3.95067	186
3.95433	186
3.95800	190
3.96167	199
3.96533	205
3.96900	207
3.97267	207
3.97633	206
3.98000	203
3.98367	200
3.98733	201
3.99100	201
3.99467	201
3.99833	203

[Chromatogram (Ch2)]
Interval(msec)	220
# of Points	1091
Start Time(min)	0.002
End Time(min)	3.998
R.Time (min)	Intensity
0.00167	0
0.00533	0
0.00900	0
0.01267	1
0.01633	1
0.02000	2
0.02367	2
0.02733	3
0.03100	3
0.03467	3
0.03833	3
0.04200	3
0.04567	4
0.04933	4
0.05300	4
0.05667	4
0.06033	4
0.06400	5
0.06767	5
0.07133	6
0.07500	6
0.07867	6
0.08233	7
0.08600	7
0.08967	7
0.09333	7
0.09700	8
0.10067	8
0.10433	8
0.10800	9
0.11167	9
0.11533	10
0.11900	10
0.12267	9
0.12633	9
0.13000	10
0.13367	10
0.13733	10
0.14100	10
0.14467	10
0.14833	9
0.15200	9
0.15567	9
0.15933	8
0.16300	8
0.16667	8
0.17033	8
0.17400	7
0.17767	7
0.18133	7
0.18500	7
0.18867	7
0.19233	6
0.19600	6
0.19967	6
0.20333	5
0.20700	5
0.21067	4
0.21433	4
0.21800	4
0.22167	3
0.22533	3
0.22900	4
0.23267	4
0.23633	4
0.24000	5
0.24367	5
0.24733	5
0.25100	5
0.25467	4
0.25833	4
0.26200	4
0.26567	4
0.26933	4
0.27300	4
0.27667	4
0.28033	4
0.28400	4
0.28767	4
0.29133	4
0.29500	4
0.29867	4
0.30233	4
0.30600	4
0.30967	4
0.31333	4
0.31700	4
0.32067	4
0.32433	4
0.32800	4
0.33167	4
0.33533	4
0.33900	3
0.34267	3
0.34633	3
0.35000	3
0.35367	3
0.35733	3
0.36100	3
0.36467	3
0.36833	3
0.37200	3
0.37567	3
0.37933	3
0.38300	3
0.38667	3
0.39033	3
0.39400	2
0.39767	2
0.40133	2
0.40500	2
0.40867	3
0.41233	3
0.41600	2
0.41967	2
0.42333	2
0.42700	2
0.43067	2
0.43433	2
0.43800	2
0.44167	2
0.44533	2
0.44900	2
0.45267	2
0.45633	2
0.46000	2
0.46367	2
0.46733	2
0.47100	2
0.47467	2
0.47833	2
0.48200	3
0.48567	3
0.48933	3
0.49300	4
0.49667	4
0.50033	4
0.50400	4
0.50767	4
0.51133	4
0.51500	4
0.51867	4
0.52233	4
0.52600	4
0.52967	5
0.53333	5
0.53700	5
0.54067	5
0.54433	5
0.54800	5
0.55167	4
0.55533	4
0.55900	4
0.56267	4
0.56633	4
0.57000	4
0.57367	4
0.57733	4
0.58100	3
0.58467	3
0.58833	3
0.59200	3
0.59567	3
0.59933	3
0.60300	3
0.60667	3
0.61033	3
0.61400	3
0.61767	3
0.62133	3
0.62500	3
0.62867	3
0.63233	3
0.63600	2
0.63967	2
0.64333	2
0.64700	2
0.65067	1
0.65433	1
0.65800	1
0.66167	1
0.66533	1
0.66900	1
0.67267	1
0.67633	1
0.68000	1
0.68367	1
0.68733	2
0.69100	1
0.69467	2
0.69833	2
0.70200	2
0.70567	2
0.70933	2
0.71300	2
0.71667	3
0.72033	3
0.72400	3
0.72767	2
0.73133	2
0.73500	2
0.73867	2
0.74233	1
0.74600	1
0.74967	1
0.75333	1
0.75700	0
0.76067	0
0.76433	1
0.76800	1
0.77167	1
0.77533	1
0.77900	1
0.78267	1
0.78633	2
0.79000	2
0.79367	2
0.79733	2
0.80100	2
0.80467	3
0.80833	3
0.81200	3
0.81567	3
0.81933	3
0.82300	3
0.82667	3
0.83033	3
0.83400	3
0.83767	3
0.84133	3
0.84500	3
0.84867	3
0.85233	3
0.85600	3
0.85967	3
0.86333	4
0.86700	4
0.87067	4
0.87433	3
0.87800	3
0.88167	3
0.88533	3
0.88900	3
0.89267	3
0.89633	2
0.90000	2
0.90367	2
0.90733	2
0.91100	2
0.91467	2
0.91833	2
0.92200	2
0.92567	2
0.92933	2
0.93300	2
0.93667	2
0.94033	2
0.94400	2
0.94767	2
0.95133	2
0.95500	2
0.95867	2
0.96233	3
0.96600	2
0.96967	2
0.97333	2
0.97700	2
0.98067	2
0.98433	2
0.98800	2
0.99167	1
0.99533	1
0.99900	1
1.00267	1
1.00633	2
1.01000	2
1.01367	1
1.01733	1
1.02100	1
1.02467	1
1.02833	1
1.03200	1
1.03567	0
1.03933	0
1.04300	-0
1.04667	-0
1.05033	-0
1.05400	-0
1.05767	-0
1.06133	0
1.06500	0
1.06867	1
1.07233	1
1.07600	1
1.07967	1
1.08333	2
1.08700	3
1.09067	3
1.09433	3
1.09800	3
1.10167	3
1.10533	3
1.10900	3
1.11267	3
1.11633	3
1.12000	3
1.12367	3
1.12733	2
1.13100	2
1.13467	2
1.13833	2
1.14200	2
1.14567	2
1.14933	2
1.15300	2
1.15667	2
1.16033	2
1.16400	2
1.16767	2
1.17133	2
1.17500	2
1.17867	2
1.18233	2
1.18600	2
1.18967	2
1.19333	2
1.19700	2
1.20067	2
1.20433	2
1.20800	2
1.21167	2
1.21533	1
1.21900	1
1.22267	1
1.22633	0
1.23000	0
1.23367	0
1.23733	0
1.24100	0
1.24467	0
1.24833	0
1.25200	1
1.25567	1
1.25933	1
1.26300	1
1.26667	2
1.27033	2
1.27400	2
1.27767	2
1.28133	2
1.28500	1
1.28867	1
1.29233	1
1.29600	1
1.29967	1
1.30333	1
1.30700	1
1.31067	1
1.31433	1
1.31800	1
1.32167	1
1.32533	1
1.32900	1
1.33267	1
1.33633	1
1.34000	1
1.34367	1
1.34733	1
1.35100	0
1.35467	0
1.35833	-0
1.36200	-0
1.36567	-0
1.36933	-0
1.37300	-0
1.37667	-0
1.38033	-0
1.38400	-1
1.38767	-1
1.39133	-1
1.39500	-0
1.39867	-0
1.40233	0
1.40600	1
1.40967	1
1.41333	1
1.41700	1
1.42067	1
1.42433	1
1.42800	1
1.43167	2
1.43533	2
1.43900	2
1.44267	2
1.44633	2
1.45000	2
1.45367	2
1.45733	2
1.46100	1
1.46467	1
1.46833	1
1.47200	1
1.47567	1
1.47933	1
1.48300	1
1.48667	1
1.49033	1
1.49400	2
1.49767	2
1.50133	2
1.50500	2
1.50867	2
1.51233	2
1.51600	2
1.51967	2
1.52333	2
1.52700	2
1.53067	2
1.53433	2
1.53800	1
1.54167	1
1.54533	1
1.54900	1
1.55267	1
1.55633	1
1.56000	1
1.56367	0
1.56733	0
1.57100	0
1.57467	0
1.57833	0
1.58200	0
1.58567	-0
1.58933	-0
1.59300	-1
1.59667	-1
1.60033	-2
1.60400	-2
1.60767	-4
1.61133	-5
1.61500	-7
1.61867	-9
1.62233	-12
1.62600	-15
1.62967	-18
1.63333	-21
1.63700	-24
1.64067	-28
1.64433	-31
1.64800	-35
1.65167	-39
1.65533	-42
1.65900	-46
1.66267	-50
1.66633	-55
1.67000	-59
1.67367	-64
1.67733	-69
1.68100	-74
1.68467	-79
1.68833	-84
1.69200	-88
1.69567	-91
1.69933	-94
1.70300	-97
1.70667	-99
1.71033	-101
1.71400	-103
1.71767	-104
1.72133	-105
1.72500	-106
1.72867	-107
1.73233	-107
1.73600	-108
1.73967	-108
1.74333	-108
1.74700	-108
1.75067	-109
1.75433	-109
1.75800	-110
1.76167	-111
1.76533	-112
1.76900	-112
1.77267	-113
1.77633	-114
1.78000	-114
1.78367	-115
1.78733	-116
1.79100	-116
1.79467	-117
1.79833	-118
1.80200	-118
1.80567	-118
1.80933	-118
1.81300	-118
1.81667	-118
1.82033	-117
1.82400	-117
1.82767	-117
1.83133	-116
1.83500	-116
1.83867	-116
1.84233	-116
1.84600	-116
1.84967	-116
1.85333	-116
1.85700	-116
1.86067	-116
1.86433	-116
1.86800	-116
1.87167	-115
1.87533	-115
1.87900	-115
1.88267	-115
1.88633	-115
1.89000	-114
1.89367	-114
1.89733	-114
1.90100	-114
1.90467	-114
1.90833	-114
1.91200	-113
1.91567	-114
1.91933	-114
1.92300	-114
1.92667	-114
1.93033	-114
1.93400	-114
1.93767	-114
1.94133	-115
1.94500	-115
1.94867	-114
1.95233	-114
1.95600	-113
1.95967	-113
1.96333	-112
1.96700	-112
1.97067	-112
1.97433	-111
1.97800	-111
1.98167	-110
1.98533	-110
1.98900	-110
1.99267	-109
1.99633	-109
2.00000	-108
2.00367	-107
2.00733	-107
2.01100	-107
2.01467	-107
2.01833	-107
2.02200	-107
2.02567	-107
2.02933	-107
2.03300	-107
2.03667	-107
2.04033	-106
2.04400	-106
2.04767	-105
2.05133	-105
2.05500	-104
2.05867	-104
2.06233	-104
2.06600	-103
2.06967	-103
2.07333	-102
2.07700	-102
2.08067	-102
2.08433	-102
2.08800	-101
2.09167	-101
2.09533	-101
2.09900	-101
2.10267	-100
2.10633	-100
2.11000	-100
2.11367	-100
2.11733	-100
2.12100	-100
2.12467	-99
2.12833	-99
2.13200	-99
2.13567	-99
2.13933	-99
2.14300	-98
2.14667	-98
2.15033	-98
2.15400	-98
2.15767	-98
2.16133	-98
2.16500	-98
2.16867	-98
2.17233	-98
2.17600	-97
2.17967	-97
2.18333	-97
2.18700	-96
2.19067	-96
2.19433	-96
2.19800	-95
2.20167	-95
2.20533	-94
2.20900	-94
2.21267	-93
2.21633	-92
2.22000	-92
2.22367	-92
2.22733	-92
2.23100	-92
2.23467	-92
2.23833	-93
2.24200	-92
2.24567	-91
2.24933	-91
2.25300	-90
2.25667	-90
2.26033	-89
2.26400	-89
2.26767	-88
2.27133	-88
2.27500	-87
2.27867	-87
2.28233	-88
2.28600	-88
2.28967	-88
2.29333	-89
2.29700	-89
2.30067	-88
2.30433	-87
2.30800	-86
2.31167	-85
2.31533	-84
2.31900	-83
2.32267	-81
2.32633	-80
2.33000	-79
2.33367	-79
2.33733	-78
2.34100	-78
2.34467	-78
2.34833	-78
2.35200	-78
2.35567	-77
2.35933	-77
2.36300	-76
2.36667	-75
2.37033	-73
2.37400	-71
2.37767	-69
2.38133	-66
2.38500	-63
2.38867	-60
2.39233	-56
2.39600	-52
2.39967	-48
2.40333	-44
2.40700	-40
2.41067	-37
2.41433	-33
2.41800	-30
2.42167	-26
2.42533	-23
2.42900	-20
2.43267	-17
2.43633	-15
2.44000	-13
2.44367	-11
2.44733	-9
2.45100	-8
2.45467	-6
2.45833	-4
2.46200	-3
2.46567	-2
2.46933	-0
2.47300	1
2.47667	2
2.48033	4
2.48400	5
2.48767	7
2.49133	9
2.49500	10
2.49867	11
2.50233	12
2.50600	13
2.50967	13
2.51333	13
2.51700	13
2.52067	13
2.52433	13
2.52800	14
2.53167	14
2.53533	15
2.53900	16
2.54267	16
2.54633	17
2.55000	17
2.55367	17
2.55733	18
2.56100	18
2.56467	19
2.56833	19
2.57200	20
2.57567	20
2.57933	20
2.58300	20
2.58667	20
2.59033	20
2.59400	19
2.59767	19
2.60133	18
2.60500	18
2.60867	18
2.61233	18
2.61600	18
2.61967	19
2.62333	19
2.62700	20
2.63067	20
2.63433	21
2.63800	22
2.64167	22
2.64533	23
2.64900	24
2.65267	24
2.65633	25
2.66000	25
2.66367	25
2.66733	26
2.67100	26
2.67467	26
2.67833	25
2.68200	25
2.68567	24
2.68933	24
2.69300	24
2.69667	24
2.70033	25
2.70400	25
2.70767	26
2.71133	27
2.71500	27
2.71867	28
2.72233	29
2.72600	29
2.72967	30
2.73333	31
2.73700	31
2.74067	31
2.74433	31
2.74800	30
2.75167	29
2.75533	29
2.75900	28
2.76267	28
2.76633	27
2.77000	27
2.77367	27
2.77733	26
2.78100	26
2.78467	26
2.78833	27
2.79200	27
2.79567	27
2.79933	27
2.80300	27
2.80667	27
2.81033	28
2.81400	28
2.81767	28
2.82133	29
2.82500	29
2.82867	30
2.83233	30
2.83600	30
2.83967	31
2.84333	31
2.84700	30
2.85067	30
2.85433	28
2.85800	26
2.86167	21
2.86533	14
2.86900	4
2.87267	-9
2.87633	-27
2.88000	-48
2.88367	-73
2.88733	-102
2.89100	-135
2.89467	-172
2.89833	-212
2.90200	-256
2.90567	-302
2.90933	-350
2.91300	-400
2.91667	-451
2.92033	-503
2.92400	-555
2.92767	-607
2.93133	-659
2.93500	-711
2.93867	-761
2.94233	-811
2.94600	-862
2.94967	-918
2.95333	-979
2.95700	-1036
2.96067	-1080
2.96433	-1102
2.96800	-1097
2.97167	-1068
2.97533	-1017
2.97900	-952
2.98267	-877
2.98633	-797
2.99000	-716
2.99367	-637
2.99733	-562
3.00100	-493
3.00467	-429
3.00833	-372
3.01200	-320
3.01567	-275
3.01933	-235
3.02300	-200
3.02667	-170
3.03033	-143
3.03400	-120
3.03767	-101
3.04133	-84
3.04500	-69
3.04867	-57
3.05233	-46
3.05600	-37
3.05967	-29
3.06333	-23
3.06700	-17
3.07067	-12
3.07433	-8
3.07800	-4
3.08167	-1
3.08533	1
3.08900	3
3.09267	5
3.09633	7
3.10000	8
3.10367	10
3.10733	11
3.11100	12
3.11467	13
3.11833	14
3.12200	15
3.12567	16
3.12933	16
3.13300	17
3.13667	18
3.14033	19
3.14400	19
3.14767	20
3.15133	20
3.15500	21
3.15867	21
3.16233	21
3.16600	21
3.16967	22
3.17333	22
3.17700	22
3.18067	22
3.18433	22
3.18800	23
3.19167	23
3.19533	23
3.19900	23
3.20267	23
3.20633	23
3.21000	24
3.21367	24
3.21733	24
3.22100	24
3.22467	24
3.22833	24
3.23200	24
3.23567	24
3.23933	24
3.24300	24
3.24667	24
3.25033	25
3.25400	25
3.25767	25
3.26133	25
3.26500	25
3.26867	25
3.27233	25
3.27600	25
3.27967	25
3.28333	25
3.28700	25
3.29067	25
3.29433	25
3.29800	25
3.30167	25
3.30533	25
3.30900	25
3.31267	25
3.31633	26
3.32000	26
3.32367	27
3.32733	27
3.33100	28
3.33467	28
3.33833	28
3.34200	29
3.34567	29
3.34933	29
3.35300	29
3.35667	29
3.36033	29
3.36400	29
3.36767	29
3.37133	29
3.37500	29
3.37867	29
3.38233	30
3.38600	30
3.38967	30
3.39333	30
3.39700	30
3.40067	30
3.40433	30
3.40800	30
3.41167	30
3.41533	30
3.41900	30
3.42267	30
3.42633	31
3.43000	31
3.43367	31
3.43733	31
3.44100	32
3.44467	32
3.44833	32
3.45200	32
3.45567	32
3.45933	32
3.46300	32
3.46667	32
3.47033	32
3.47400	31
3.47767	31
3.48133	31
3.48500	31
3.48867	31
3.49233	31
3.49600	31
3.49967	31
3.50333	31
3.50700	31
3.51067	31
3.51433	31
3.51800	31
3.52167	30
3.52533	30
3.52900	30
3.53267	30
3.53633	30
3.54000	30
3.54367	30
3.54733	30
3.55100	29
3.55467	29
3.55833	29
3.56200	29
3.56567	30
3.56933	30
3.57300	30
3.57667	30
3.58033	30
3.58400	30
3.58767	30
3.59133	30
3.59500	30
3.59867	30
3.60233	31
3.60600	31
3.60967	31
3.61333	30
3.61700	30
3.62067	30
3.62433	30
3.62800	30
3.63167	29
3.63533	29
3.63900	29
3.64267	29
3.64633	29
3.65000	29
3.65367	30
3.65733	30
3.66100	30
3.66467	29
3.66833	29
3.67200	29
3.67567	29
3.67933	29
3.68300	29
3.68667	29
3.69033	29
3.69400	29
3.69767	30
3.70133	30
3.70500	30
3.70867	30
3.71233	30
3.71600	30
3.71967	30
3.72333	29
3.72700	29
3.73067	29
3.73433	29
3.73800	29
3.74167	29
3.74533	29
3.74900	30
3.75267	30
3.75633	30
3.76000	30
3.76367	30
3.76733	30
3.77100	30
3.77467	30
3.77833	30
3.78200	29
3.78567	29
3.78933	29
3.79300	29
3.79667	29
3.80033	29
3.80400	29
3.80767	28
3.81133	28
3.81500	28
3.81867	28
3.82233	28
3.82600	28
3.82967	28
3.83333	29
3.83700	29
3.84067	28
3.84433	28
3.84800	28
3.85167	28
3.85533	28
3.85900	28
3.86267	28
3.86633	28
3.87000	28
3.87367	28
3.87733	28
3.88100	28
3.88467	29
3.88833	29
3.89200	29
3.89567	29
3.89933	29
3.90300	29
3.90667	29
3.91033	29
3.91400	29
3.91767	29
3.92133	29
3.92500	29
3.92867	29
3.93233	29
3.93600	29
3.93967	29
3.94333	29
3.94700	29
3.95067	29
3.95433	29
3.95800	29
3.96167	29
3.96533	29
3.96900	29
3.97267	29
3.97633	29
3.98000	29
3.98367	29
3.98733	29
3.99100	29
3.99467	29
3.99833	29

[Chromatogram (Ch3)]
Interval(msec)	220
# of Points	1091
Start Time(min)	0.002
End Time(min)	3.998
R.Time (min)	Intensity
0.00167	0
0.00533	1
0.00900	-0
0.01267	1
0.01633	2
0.02000	2
0.02367	2
0.02733	3
0.03100	5
0.03467	6
0.03833	7
0.04200	7
0.04567	6
0.04933	5
0.05300	3
0.05667	2
0.06033	2
0.06400	2
0.06767	3
0.07133	4
0.07500	2
0.07867	-0
0.08233	0
0.08600	2
0.08967	3
0.09333	2
0.09700	0
0.10067	-0
0.10433	0
0.10800	0
0.11167	-1
0.11533	-0
0.11900	-1
0.12267	1
0.12633	4
0.13000	6
0.13367	7
0.13733	6
0.14100	4
0.14467	2
0.14833	2
0.15200	2
0.15567	3
0.15933	4
0.16300	3
0.16667	3
0.17033	3
0.17400	3
0.17767	6
0.18133	8
0.18500	7
0.18867	6
0.19233	5
0.19600	5
0.19967	4
0.20333	7
0.20700	8
0.21067	8
0.21433	9
0.21800	11
0.22167	11
0.22533	10
0.22900	9
0.23267	9
0.23633	10
0.24000	10
0.24367	7
0.24733	4
0.25100	4
0.25467	4
0.25833	4
0.26200	6
0.26567	10
0.26933	9
0.27300	8
0.27667	8
0.28033	8
0.28400	9
0.28767	9
0.29133	10
0.29500	11
0.29867	11
0.30233	8
0.30600	6
0.30967	6
0.31333	4
0.31700	2
0.32067	3
0.32433	2
0.32800	2
0.33167	6
0.33533	7
0.33900	7
0.34267	8
0.34633	8
0.35000	7
0.35367	8
0.35733	8
0.36100	6
0.36467	6
0.36833	5
0.37200	7
0.37567	8
0.37933	7
0.38300	8
0.38667	7
0.39033	6
0.39400	6
0.39767	9
0.40133	13
0.40500	13
0.40867	13
0.41233	13
0.41600	13
0.41967	12
0.42333	13
0.42700	14
0.43067	12
0.43433	9
0.43800	8
0.44167	9
0.44533	10
0.44900	8
0.45267	7
0.45633	7
0.46000	7
0.46367	5
0.46733	4
0.47100	2
0.47467	3
0.47833	5
0.48200	5
0.48567	5
0.48933	6
0.49300	6
0.49667	5
0.50033	6
0.50400	7
0.50767	8
0.51133	7
0.51500	6
0.51867	7
0.52233	7
0.52600	6
0.52967	5
0.53333	6
0.53700	10
0.54067	13
0.54433	14
0.54800	13
0.55167	14
0.55533	13
0.55900	12
0.56267	11
0.56633	12
0.57000	13
0.57367	13
0.57733	14
0.58100	12
0.58467	8
0.58833	6
0.59200	4
0.59567	4
0.59933	4
0.60300	6
0.60667	8
0.61033	11
0.61400	12
0.61767	12
0.62133	10
0.62500	10
0.62867	9
0.63233	7
0.63600	4
0.63967	3
0.64333	5
0.64700	6
0.65067	7
0.65433	10
0.65800	11
0.66167	10
0.66533	10
0.66900	11
0.67267	12
0.67633	14
0.68000	15
0.68367	14
0.68733	15
0.69100	16
0.69467	15
0.69833	15
0.70200	14
0.70567	12
0.70933	10
0.71300	9
0.71667	7
0.72033	7
0.72400	8
0.72767	9
0.73133	9
0.73500	10
0.73867	10
0.74233	11
0.74600	10
0.74967	9
0.75333	7
0.75700	9
0.76067	9
0.76433	8
0.76800	8
0.77167	8
0.77533	8
0.77900	9
0.78267	9
0.78633	7
0.79000	7
0.79367	6
0.79733	7
0.80100	6
0.80467	7
0.80833	6
0.81200	4
0.81567	4
0.81933	5
0.82300	7
0.82667	9
0.83033	12
0.83400	12
0.83767	9
0.84133	8
0.84500	7
0.84867	6
0.85233	4
0.85600	3
0.85967	3
0.86333	4
0.86700	5
0.87067	5
0.87433	5
0.87800	5
0.88167	4
0.88533	6
0.88900	6
0.89267	7
0.89633	6
0.90000	7
0.90367	5
0.90733	5
0.91100	6
0.91467	7
0.91833	7
0.92200	6
0.92567	5
0.92933	4
0.93300	5
0.93667	7
0.94033	7
0.94400	7
0.94767	5
0.95133	6
0.95500	5
0.95867	4
0.96233	4
0.96600	4
0.96967	4
0.97333	4
0.97700	5
0.98067	6
0.98433	7
0.98800	7
0.99167	6
0.99533	6
0.99900	7
1.00267	8
1.00633	8
1.01000	4
1.01367	2
1.01733	0
1.02100	-0
1.02467	2
1.02833	6
1.03200	6
1.03567	5
1.03933	3
1.04300	2
1.04667	3
1.05033	3
1.05400	4
1.05767	5
1.06133	7
1.06500	7
1.06867	8
1.07233	10
1.07600	9
1.07967	4
1.08333	2
1.08700	2
1.09067	3
1.09433	2
1.09800	1
1.10167	3
1.10533	3
1.10900	5
1.11267	8
1.11633	10
1.12000	9
1.12367	7
1.12733	6
1.13100	5
1.13467	4
1.13833	2
1.14200	-0
1.14567	-2
1.14933	-1
1.15300	0
1.15667	0
1.16033	-1
1.16400	-1
1.16767	2
1.17133	3
1.17500	4
1.17867	7
1.18233	6
1.18600	1
1.18967	-2
1.19333	-3
1.19700	-1
1.20067	1
1.20433	3
1.20800	5
1.21167	4
1.21533	1
1.21900	-4
1.22267	-7
1.22633	-8
1.23000	-5
1.23367	-1
1.23733	-1
1.24100	-0
1.24467	1
1.24833	2
1.25200	5
1.25567	6
1.25933	4
1.26300	3
1.26667	-0
1.27033	-1
1.27400	-0
1.27767	-1
1.28133	-1
1.28500	2
1.28867	3
1.29233	3
1.29600	3
1.29967	3
1.30333	4
1.30700	3
1.31067	2
1.31433	2
1.31800	3
1.32167	5
1.32533	6
1.32900	9
1.33267	10
1.33633	9
1.34000	7
1.34367	4
1.34733	2
1.35100	3
1.35467	5
1.35833	4
1.36200	3
1.36567	3
1.36933	3
1.37300	2
1.37667	0
1.38033	-1
1.38400	-2
1.38767	-1
1.39133	-0
1.39500	1
1.39867	2
1.40233	-1
1.40600	-3
1.40967	-3
1.41333	-4
1.41700	-6
1.42067	-6
1.42433	-5
1.42800	-5
1.43167	-3
1.43533	-2
1.43900	-5
1.44267	-7
1.44633	-6
1.45000	-4
1.45367	-4
1.45733	-3
1.46100	-1
1.46467	-2
1.46833	-3
1.47200	-4
1.47567	-4
1.47933	-4
1.48300	-2
1.48667	1
1.49033	2
1.49400	4
1.49767	6
1.50133	5
1.50500	6
1.50867	6
1.51233	5
1.51600	4
1.51967	3
1.52333	5
1.52700	5
1.53067	4
1.53433	0
1.53800	-2
1.54167	-1
1.54533	1
1.54900	3
1.55267	3
1.55633	1
1.56000	0
1.56367	1
1.56733	0
1.57100	-2
1.57467	-3
1.57833	-3
1.58200	-3
1.58567	-2
1.58933	-2
1.59300	-1
1.59667	-1
1.60033	-1
1.60400	-1
1.60767	-2
1.61133	-4
1.61500	-4
1.61867	-4
1.62233	-4
1.62600	-2
1.62967	-0
1.63333	2
1.63700	2
1.64067	3
1.64433	4
1.64800	3
1.65167	0
1.65533	1
1.65900	5
1.66267	6
1.66633	5
1.67000	4
1.67367	4
1.67733	3
1.68100	3
1.68467	4
1.68833	4
1.69200	6
1.69567	6
1.69933	6
1.70300	7
1.70667	9
1.71033	12
1.71400	16
1.71767	17
1.72133	13
1.72500	11
1.72867	10
1.73233	10
1.73600	9
1.73967	8
1.74333	7
1.74700	9
1.75067	11
1.75433	13
1.75800	15
1.76167	15
1.76533	16
1.76900	20
1.77267	21
1.77633	21
1.78000	22
1.78367	21
1.78733	23
1.79100	24
1.79467	24
1.79833	23
1.80200	20
1.80567	18
1.80933	18
1.81300	20
1.81667	22
1.82033	22
1.82400	20
1.82767	19
1.83133	19
1.83500	20
1.83867	22
1.84233	23
1.84600	23
1.84967	23
1.85333	22
1.85700	23
1.86067	26
1.86433	28
1.86800	30
1.87167	32
1.87533	31
1.87900	30
1.88267	31
1.88633	34
1.89000	34
1.89367	33
1.89733	33
1.90100	34
1.90467	34
1.90833	35
1.91200	34
1.91567	33
1.91933	33
1.92300	34
1.92667	35
1.93033	37
1.93400	37
1.93767	38
1.94133	40
1.94500	41
1.94867	44
1.95233	45
1.95600	47
1.95967	48
1.96333	46
1.96700	44
1.97067	44
1.97433	44
1.97800	44
1.98167	45
1.98533	46
1.98900	47
1.99267	49
1.99633	52
2.00000	53
2.00367	54
2.00733	55
2.01100	57
2.01467	54
2.01833	55
2.02200	56
2.02567	54
2.02933	50
2.03300	48
2.03667	50
2.04033	52
2.04400	53
2.04767	53
2.05133	53
2.05500	54
2.05867	55
2.06233	55
2.06600	56
2.06967	60
2.07333	63
2.07700	64
2.08067	66
2.08433	65
2.08800	63
2.09167	61
2.09533	61
2.09900	62
2.10267	62
2.10633	64
2.11000	66
2.11367	68
2.11733	71
2.12100	71
2.12467	72
2.12833	72
2.13200	72
2.13567	75
2.13933	78
2.14300	80
2.14667	79
2.15033	78
2.15400	78
2.15767	80
2.16133	83
2.16500	82
2.16867	83
2.17233	84
2.17600	86
2.17967	87
2.18333	88
2.18700	89
2.19067	91
2.19433	93
2.19800	94
2.20167	93
2.20533	93
2.20900	94
2.21267	92
2.21633	92
2.22000	91
2.22367	92
2.22733	94
2.23100	95
2.23467	97
2.23833	99
2.24200	102
2.24567	103
2.24933	104
2.25300	104
2.25667	106
2.26033	110
2.26400	111
2.26767	110
2.27133	110
2.27500	110
2.27867	110
2.28233	111
2.28600	112
2.28967	110
2.29333	109
2.29700	111
2.30067	113
2.30433	115
2.30800	118
2.31167	120
2.31533	120
2.31900	120
2.32267	122
2.32633	125
2.33000	126
2.33367	127
2.33733	130
2.34100	132
2.34467	131
2.34833	130
2.35200	129
2.35567	129
2.35933	131
2.36300	131
2.36667	132
2.37033	131
2.37400	131
2.37767	133
2.38133	134
2.38500	135
2.38867	135
2.39233	134
2.39600	134
2.39967	137
2.40333	141
2.40700	145
2.41067	149
2.41433	151
2.41800	150
2.42167	153
2.42533	156
2.42900	158
2.43267	158
2.43633	159
2.44000	162
2.44367	201
2.44733	302
2.45100	418
2.45467	508
2.45833	548
2.46200	552
2.46567	549
2.46933	548
2.47300	535
2.47667	505
2.48033	465
2.48400	426
2.48767	392
2.49133	367
2.49500	351
2.49867	346
2.50233	352
2.50600	366
2.50967	379
2.51333	387
2.51700	387
2.52067	372
2.52433	349
2.52800	322
2.53167	298
2.53533	276
2.53900	258
2.54267	244
2.54633	232
2.55000	222
2.55367	218
2.55733	219
2.56100	218
2.56467	219
2.56833	221
2.57200	224
2.57567	229
2.57933	237
2.58300	247
2.58667	258
2.59033	272
2.59400	288
2.59767	303
2.60133	311
2.60500	309
2.60867	298
2.61233	276
2.61600	242
2.61967	201
2.62333	158
2.62700	112
2.63067	68
2.63433	26
2.63800	-11
2.64167	-41
2.64533	-62
2.64900	-76
2.65267	-89
2.65633	-95
2.66000	-96
2.66367	-94
2.66733	-89
2.67100	-83
2.67467	-79
2.67833	-73
2.68200	-63
2.68567	-52
2.68933	-40
2.69300	-30
2.69667	-21
2.70033	-14
2.70400	-3
2.70767	6
2.71133	11
2.71500	10
2.71867	11
2.72233	27
2.72600	56
2.72967	91
2.73333	132
2.73700	177
2.74067	226
2.74433	282
2.74800	342
2.75167	400
2.75533	458
2.75900	517
2.76267	574
2.76633	626
2.77000	675
2.77367	718
2.77733	755
2.78100	786
2.78467	811
2.78833	833
2.79200	851
2.79567	864
2.79933	874
2.80300	882
2.80667	886
2.81033	887
2.81400	887
2.81767	884
2.82133	881
2.82500	881
2.82867	890
2.83233	921
2.83600	990
2.83967	1122
2.84333	1339
2.84700	1664
2.85067	2105
2.85433	2654
2.85800	3290
2.86167	3964
2.86533	4621
2.86900	5211
2.87267	5685
2.87633	6011
2.88000	6175
2.88367	6183
2.88733	6055
2.89100	5817
2.89467	5499
2.89833	5134
2.90200	4744
2.90567	4353
2.90933	3974
2.91300	3617
2.91667	3287
2.92033	2987
2.92400	2716
2.92767	2476
2.93133	2263
2.93500	2074
2.93867	1909
2.94233	1766
2.94600	1642
2.94967	1535
2.95333	1443
2.95700	1364
2.96067	1297
2.96433	1238
2.96800	1188
2.97167	1145
2.97533	1108
2.97900	1078
2.98267	1054
2.98633	1034
2.99000	1017
2.99367	1002
2.99733	987
3.00100	976
3.00467	968
3.00833	962
3.01200	957
3.01567	953
3.01933	949
3.02300	947
3.02667	945
3.03033	942
3.03400	940
3.03767	938
3.04133	936
3.04500	938
3.04867	940
3.05233	942
3.05600	944
3.05967	945
3.06333	945
3.06700	947
3.07067	950
3.07433	950
3.07800	950
3.08167	947
3.08533	945
3.08900	943
3.09267	939
3.09633	935
3.10000	933
3.10367	933
3.10733	933
3.11100	930
3.11467	926
3.11833	924
3.12200	920
3.12567	916
3.12933	912
3.13300	911
3.13667	907
3.14033	902
3.14400	898
3.14767	893
3.15133	887
3.15500	883
3.15867	881
3.16233	876
3.16600	872
3.16967	869
3.17333	864
3.17700	857
3.18067	851
3.18433	846
3.18800	843
3.19167	840
3.19533	840
3.19900	839
3.20267	837
3.20633	833
3.21000	827
3.21367	820
3.21733	815
3.22100	810
3.22467	807
3.22833	803
3.23200	800
3.23567	795
3.23933	790
3.24300	785
3.24667	782
3.25033	778
3.25400	772
3.25767	767
3.26133	765
3.26500	764
3.26867	759
3.27233	752
3.27600	748
3.27967	744
3.28333	740
3.28700	735
3.29067	732
3.29433	729
3.29800	725
3.30167	722
3.30533	718
3.30900	711
3.31267	707
3.31633	704
3.32000	699
3.32367	695
3.32733	689
3.33100	683
3.33467	679
3.33833	674
3.34200	670
3.34567	667
3.34933	664
3.35300	661
3.35667	658
3.36033	655
3.36400	653
3.36767	652
3.37133	649
3.37500	646
3.37867	641
3.38233	637
3.38600	636
3.38967	635
3.39333	635
3.39700	632
3.40067	629
3.40433	624
3.40800	620
3.41167	616
3.41533	611
3.41900	608
3.42267	606
3.42633	605
3.43000	603
3.43367	601
3.43733	597
3.44100	592
3.44467	588
3.44833	585
3.45200	581
3.45567	577
3.45933	575
3.46300	574
3.46667	572
3.47033	567
3.47400	563
3.47767	561
3.48133	559
3.48500	558
3.48867	556
3.49233	556
3.49600	555
3.49967	554
3.50333	553
3.50700	551
3.51067	549
3.51433	548
3.51800	545
3.52167	544
3.52533	541
3.52900	538
3.53267	536
3.53633	536
3.54000	534
3.54367	532
3.54733	529
3.55100	527
3.55467	524
3.55833	520
3.56200	518
3.56567	516
3.56933	514
3.57300	511
3.57667	510
3.58033	506
3.58400	504
3.58767	504
3.59133	503
3.59500	503
3.59867	500
3.60233	496
3.60600	497
3.60967	499
3.61333	498
3.61700	496
3.62067	495
3.62433	493
3.62800	491
3.63167	492
3.63533	492
3.63900	490
3.64267	489
3.64633	489
3.65000	487
3.65367	485
3.65733	482
3.66100	480
3.66467	479
3.66833	482
3.67200	480
3.67567	477
3.67933	474
3.68300	471
3.68667	469
3.69033	466
3.69400	461
3.69767	457
3.70133	457
3.70500	459
3.70867	460
3.71233	460
3.71600	459
3.71967	457
3.72333	455
3.72700	456
3.73067	457
3.73433	457
3.73800	458
3.74167	456
3.74533	454
3.74900	450
3.75267	447
3.75633	446
3.76000	446
3.76367	447
3.76733	447
3.77100	445
3.77467	444
3.77833	445
3.78200	443
3.78567	440
3.78933	437
3.79300	436
3.79667	439
3.80033	440
3.80400	439
3.80767	437
3.81133	436
3.81500	435
3.81867	434
3.82233	432
3.82600	433
3.82967	435
3.83333	432
3.83700	429
3.84067	426
3.84433	424
3.84800	422
3.85167	420
3.85533	420
3.85900	420
3.86267	419
3.86633	416
3.87000	414
3.87367	414
3.87733	415
3.88100	415
3.88467	414
3.88833	412
3.89200	410
3.89567	410
3.89933	411
3.90300	411
3.90667	411
3.91033	408
3.91400	405
3.91767	404
3.92133	402
3.92500	397
3.92867	395
3.93233	395
3.93600	394
3.93967	392
3.94333	393
3.94700	393
3.95067	389
3.95433	388
3.95800	385
3.96167	387
3.96533	388
3.96900	388
3.97267	386
3.97633	384
3.98000	383
3.98367	381
3.98733	379
3.99100	378
3.99467	377
3.99833	373

[Status Trace (Column Oven Temperature)]
Interval(msec)	1000
# of Points	240
Start Time(min)	0.008
End Time(min)	3.991
Intensity Units	
Intensity Multiplier	1
R.Time (min)	Intensity
0.00758	35.08
0.02425	35.08
0.04092	35.08
0.05758	35.06
0.07425	35.05
0.09092	35.03
0.10758	35.01
0.12425	35.00
0.14092	34.99
0.15758	34.98
0.17425	34.98
0.19092	34.98
0.20758	34.98
0.22425	34.97
0.24092	34.97
0.25758	34.98
0.27425	34.97
0.29092	34.98
0.30758	34.98
0.32425	34.98
0.34092	34.99
0.35758	34.99
0.37425	34.99
0.39092	34.99
0.40758	35.00
0.42425	35.00
0.44092	35.00
0.45758	35.01
0.47425	35.01
0.49092	35.00
0.50758	34.99
0.52425	34.98
0.54092	34.97
0.55758	34.97
0.57425	34.97
0.59092	34.97
0.60758	34.98
0.62425	34.98
0.64092	34.98
0.65758	34.98
0.67425	34.99
0.69092	34.98
0.70758	34.98
0.72425	34.99
0.74092	35.00
0.75758	35.00
0.77425	35.00
0.79092	35.00
0.80758	35.00
0.82425	35.01
0.84092	35.01
0.85758	35.00
0.87425	34.99
0.89092	34.98
0.90758	34.97
0.92425	34.98
0.94092	34.98
0.95758	34.97
0.97425	34.98
0.99092	34.98
1.00758	34.98
1.02425	34.98
1.04092	34.99
1.05758	34.99
1.07425	35.00
1.09092	34.99
1.10758	34.99
1.12425	34.99
1.14092	34.99
1.15758	34.99
1.17425	34.99
1.19092	34.99
1.20758	34.99
1.22425	34.99
1.24092	34.99
1.25758	34.99
1.27425	34.98
1.29092	34.98
1.30758	34.98
1.32425	34.99
1.34092	35.00
1.35758	35.00
1.37425	35.01
1.39092	35.01
1.40758	35.01
1.42425	35.00
1.44092	35.00
1.45758	34.99
1.47425	34.99
1.49092	34.98
1.50758	34.98
1.52425	34.98
1.54092	34.99
1.55758	34.99
1.57425	34.99
1.59092	34.99
1.60758	35.05
1.62425	35.17
1.64092	35.35
1.65758	35.61
1.67425	35.94
1.69092	36.31
1.70758	36.67
1.72425	37.00
1.74092	37.33
1.75758	37.66
1.77425	37.99
1.79092	38.32
1.80758	38.66
1.82425	38.98
1.84092	39.32
1.85758	39.65
1.87425	39.97
1.89092	40.29
1.90758	40.62
1.92425	40.95
1.94092	41.28
1.95758	41.60
1.97425	41.93
1.99092	42.25
2.00758	42.57
2.02425	42.90
2.04092	43.23
2.05758	43.56
2.07425	43.88
2.09092	44.21
2.10758	44.53
2.12425	44.86
2.14092	45.18
2.15758	45.51
2.17425	45.83
2.19092	46.17
2.20758	46.47
2.22425	46.81
2.24092	47.14
2.25758	47.47
2.27425	47.81
2.29092	48.17
2.30758	48.50
2.32425	48.80
2.34092	49.13
2.35758	49.43
2.37425	49.64
2.39092	49.72
2.40758	49.72
2.42425	49.72
2.44092	49.74
2.45758	49.74
2.47425	49.75
2.49092	49.74
2.50758	49.77
2.52425	49.79
2.54092	49.80
2.55758	49.80
2.57425	49.80
2.59092	49.82
2.60758	49.84
2.62425	49.83
2.64092	49.84
2.65758	49.84
2.67425	49.85
2.69092	49.87
2.70758	49.86
2.72425	49.85
2.74092	49.84
2.75758	49.88
2.77425	49.90
2.79092	49.91
2.80758	49.90
2.82425	49.89
2.84092	49.88
2.85758	49.88
2.87425	49.89
2.89092	49.91
2.90758	49.92
2.92425	49.94
2.94092	49.94
2.95758	49.95
2.97425	49.96
2.99092	49.96
3.00758	49.97
3.02425	49.98
3.04092	49.98
3.05758	49.99
3.07425	50.00
3.09092	50.01
3.10758	50.02
3.12425	50.03
3.14092	50.03
3.15758	50.04
3.17425	50.04
3.19092	50.05
3.20758	50.06
3.22425	50.07
3.24092	50.07
3.25758	50.09
3.27425	50.10
3.29092	50.10
3.30758	50.11
3.32425	50.11
3.34092	50.09
3.35758	50.09
3.37425	50.08
3.39092	50.07
3.40758	50.07
3.42425	50.06
3.44092	50.06
3.45758	50.05
3.47425	50.04
3.49092	50.04
3.50758	50.04
3.52425	50.04
3.54092	50.05
3.55758	50.05
3.57425	50.05
3.59092	50.05
3.60758	50.06
3.62425	50.07
3.64092	50.06
3.65758	50.06
3.67425	50.06
3.69092	50.06
3.70758	50.05
3.72425	50.05
3.74092	50.04
3.75758	50.03
3.77425	50.04
3.79092	50.05
3.80758	50.06
3.82425	50.06
3.84092	50.06
3.85758	50.07
3.87425	50.07
3.89092	50.07
3.90758	50.07
3.92425	50.07
3.94092	50.06
3.95758	50.07
3.97425	50.07
3.99092	50.08

[Status Trace (Injection Unit Temperature)]
Interval(msec)	1000
# of Points	240
Start Time(min)	0.008
End Time(min)	3.991
Intensity Units	
Intensity Multiplier	1
R.Time (min)	Intensity
0.00758	99.99
0.02425	99.98
0.04092	99.99
0.05758	99.99
0.07425	99.99
0.09092	99.99
0.10758	99.99
0.12425	99.98
0.14092	99.99
0.15758	99.99
0.17425	99.99
0.19092	99.99
0.20758	99.98
0.22425	99.98
0.24092	99.98
0.25758	99.99
0.27425	99.98
0.29092	99.98
0.30758	99.98
0.32425	99.99
0.34092	99.98
0.35758	99.98
0.37425	99.98
0.39092	99.98
0.40758	99.98
0.42425	99.98
0.44092	99.98
0.45758	99.98
0.47425	99.98
0.49092	99.98
0.50758	99.98
0.52425	99.98
0.54092	99.98
0.55758	99.99
0.57425	99.98
0.59092	99.98
0.60758	99.98
0.62425	99.98
0.64092	99.98
0.65758	99.99
0.67425	99.99
0.69092	99.98
0.70758	99.98
0.72425	99.99
0.74092	99.98
0.75758	99.98
0.77425	99.98
0.79092	99.98
0.80758	99.98
0.82425	99.99
0.84092	99.99
0.85758	99.99
0.87425	99.99
0.89092	99.99
0.90758	99.99
0.92425	99.98
0.94092	99.99
0.95758	99.99
0.97425	99.99
0.99092	99.99
1.00758	99.99
1.02425	99.99
1.04092	99.99
1.05758	99.99
1.07425	99.99
1.09092	99.98
1.10758	99.99
1.12425	99.99
1.14092	99.99
1.15758	99.99
1.17425	99.99
1.19092	99.98
1.20758	99.99
1.22425	99.99
1.24092	99.99
1.25758	99.99
1.27425	99.99
1.29092	99.99
1.30758	99.99
1.32425	99.99
1.34092	99.98
1.35758	99.99
1.37425	99.99
1.39092	99.99
1.40758	99.99
1.42425	99.99
1.44092	99.99
1.45758	99.99
1.47425	99.99
1.49092	99.98
1.50758	99.99
1.52425	99.99
1.54092	99.99
1.55758	99.99
1.57425	99.99
1.59092	99.99
1.60758	99.99
1.62425	99.99
1.64092	99.99
1.65758	99.99
1.67425	99.99
1.69092	99.99
1.70758	99.99
1.72425	99.99
1.74092	99.99
1.75758	99.99
1.77425	99.99
1.79092	99.99
1.80758	99.99
1.82425	99.99
1.84092	99.99
1.85758	99.98
1.87425	99.98
1.89092	99.99
1.90758	99.99
1.92425	99.98
1.94092	99.98
1.95758	99.98
1.97425	99.98
1.99092	99.98
2.00758	99.98
2.02425	99.98
2.04092	99.98
2.05758	99.98
2.07425	99.97
2.09092	99.97
2.10758	99.97
2.12425	99.97
2.14092	99.97
2.15758	99.97
2.17425	99.97
2.19092	99.97
2.20758	99.97
2.22425	99.96
2.24092	99.97
2.25758	99.97
2.27425	99.97
2.29092	99.97
2.30758	99.96
2.32425	99.96
2.34092	99.97
2.35758	99.97
2.37425	99.97
2.39092	99.97
2.40758	99.97
2.42425	99.97
2.44092	99.96
2.45758	99.97
2.47425	99.97
2.49092	99.97
2.50758	99.97
2.52425	99.97
2.54092	99.97
2.55758	99.97
2.57425	99.98
2.59092	99.98
2.60758	99.98
2.62425	99.98
2.64092	99.98
2.65758	99.98
2.67425	99.98
2.69092	99.98
2.70758	99.99
2.72425	99.99
2.74092	99.98
2.75758	99.99
2.77425	99.99
2.79092	100.00
2.80758	100.00
2.82425	100.00
2.84092	100.00
2.85758	99.99
2.87425	100.00
2.89092	100.00
2.90758	100.00
2.92425	100.00
2.94092	100.01
2.95758	100.01
2.97425	100.01
2.99092	100.01
3.00758	100.01
3.02425	100.02
3.04092	100.02
3.05758	100.02
3.07425	100.02
3.09092	100.02
3.10758	100.02
3.12425	100.02
3.14092	100.02
3.15758	100.02
3.17425	100.02
3.19092	100.03
3.20758	100.03
3.22425	100.03
3.24092	100.03
3.25758	100.03
3.27425	100.03
3.29092	100.03
3.30758	100.03
3.32425	100.04
3.34092	100.03
3.35758	100.04
3.37425	100.03
3.39092	100.03
3.40758	100.04
3.42425	100.04
3.44092	100.04
3.45758	100.04
3.47425	100.04
3.49092	100.04
3.50758	100.04
3.52425	100.04
3.54092	100.04
3.55758	100.04
3.57425	100.04
3.59092	100.04
3.60758	100.05
3.62425	100.04
3.64092	100.04
3.65758	100.05
3.67425	100.05
3.69092	100.04
3.70758	100.05
3.72425	100.04
3.74092	100.04
3.75758	100.04
3.77425	100.04
3.79092	100.05
3.80758	100.05
3.82425	100.05
3.84092	100.05
3.85758	100.05
3.87425	100.04
3.89092	100.05
3.90758	100.05
3.92425	100.05
3.94092	100.05
3.95758	100.05
3.97425	100.05
3.99092	100.05

[Status Trace (Carrier Gas Pressure)]
Interval(msec)	1000
# of Points	240
Start Time(min)	0.008
End Time(min)	3.991
Intensity Units	
Intensity Multiplier	1
R.Time (min)	Intensity
0.00758	58.00
0.02425	55.44
0.04092	57.13
0.05758	59.19
0.07425	59.43
0.09092	58.06
0.10758	57.98
0.12425	58.01
0.14092	58.01
0.15758	58.01
0.17425	58.00
0.19092	58.00
0.20758	58.00
0.22425	58.00
0.24092	58.00
0.25758	58.00
0.27425	58.00
0.29092	58.00
0.30758	58.00
0.32425	58.00
0.34092	58.00
0.35758	58.00
0.37425	58.00
0.39092	58.00
0.40758	58.00
0.42425	58.00
0.44092	58.00
0.45758	58.00
0.47425	58.00
0.49092	58.00
0.50758	58.00
0.52425	58.00
0.54092	58.00
0.55758	58.00
0.57425	58.00
0.59092	58.00
0.60758	58.00
0.62425	58.00
0.64092	58.00
0.65758	58.00
0.67425	58.00
0.69092	58.00
0.70758	58.00
0.72425	58.00
0.74092	58.00
0.75758	58.00
0.77425	58.00
0.79092	58.00
0.80758	58.00
0.82425	58.00
0.84092	58.00
0.85758	58.00
0.87425	58.00
0.89092	58.00
0.90758	58.00
0.92425	58.00
0.94092	58.00
0.95758	58.00
0.97425	58.00
0.99092	58.00
1.00758	58.00
1.02425	58.00
1.04092	58.00
1.05758	58.00
1.07425	58.00
1.09092	58.00
1.10758	58.00
1.12425	58.00
1.14092	58.00
1.15758	58.00
1.17425	58.00
1.19092	58.00
1.20758	58.00
1.22425	58.00
1.24092	58.00
1.25758	58.00
1.27425	58.00
1.29092	58.00
1.30758	58.00
1.32425	58.00
1.34092	58.00
1.35758	58.00
1.37425	58.00
1.39092	58.00
1.40758	58.00
1.42425	58.00
1.44092	58.00
1.45758	58.00
1.47425	58.00
1.49092	58.00
1.50758	58.00
1.52425	58.00
1.54092	58.00
1.55758	58.00
1.57425	58.00
1.59092	58.00
1.60758	58.00
1.62425	58.00
1.64092	58.00
1.65758	58.00
1.67425	58.01
1.69092	58.00
1.70758	58.00
1.72425	58.00
1.74092	58.00
1.75758	58.00
1.77425	58.00
1.79092	58.00
1.80758	58.00
1.82425	58.00
1.84092	58.00
1.85758	58.00
1.87425	58.00
1.89092	58.00
1.90758	58.00
1.92425	58.00
1.94092	58.00
1.95758	58.00
1.97425	58.00
1.99092	58.00
2.00758	58.00
2.02425	58.00
2.04092	58.00
2.05758	58.00
2.07425	58.00
2.09092	58.00
2.10758	58.00
2.12425	58.00
2.14092	58.00
2.15758	58.00
2.17425	58.00
2.19092	58.00
2.20758	58.00
2.22425	58.00
2.24092	58.00
2.25758	58.00
2.27425	58.00
2.29092	58.00
2.30758	58.00
2.32425	58.00
2.34092	58.00
2.35758	58.00
2.37425	58.00
2.39092	57.99
2.40758	57.99
2.42425	58.00
2.44092	58.00
2.45758	58.00
2.47425	58.00
2.49092	58.00
2.50758	58.00
2.52425	57.98
2.54092	58.00
2.55758	58.00
2.57425	58.00
2.59092	58.00
2.60758	58.00
2.62425	58.00
2.64092	58.00
2.65758	58.00
2.67425	58.00
2.69092	58.00
2.70758	58.00
2.72425	58.00
2.74092	58.00
2.75758	58.00
2.77425	58.00
2.79092	58.00
2.80758	58.00
2.82425	58.00
2.84092	58.00
2.85758	58.00
2.87425	58.00
2.89092	58.00
2.90758	58.00
2.92425	58.00
2.94092	58.00
2.95758	58.00
2.97425	58.00
2.99092	58.00
3.00758	58.00
3.02425	58.00
3.04092	58.00
3.05758	58.00
3.07425	58.00
3.09092	58.00
3.10758	58.00
3.12425	58.00
3.14092	58.00
3.15758	58.00
3.17425	58.00
3.19092	58.00
3.20758	58.00
3.22425	58.00
3.24092	58.00
3.25758	58.00
3.27425	58.00
3.29092	58.00
3.30758	58.00
3.32425	58.00
3.34092	58.00
3.35758	58.00
3.37425	58.00
3.39092	58.00
3.40758	58.00
3.42425	58.00
3.44092	58.00
3.45758	58.00
3.47425	58.00
3.49092	58.00
3.50758	58.00
3.52425	58.00
3.54092	58.00
3.55758	58.00
3.57425	58.00
3.59092	58.00
3.60758	58.00
3.62425	58.00
3.64092	58.00
3.65758	58.00
3.67425	58.00
3.69092	58.00
3.70758	58.00
3.72425	58.00
3.74092	58.00
3.75758	58.00
3.77425	58.00
3.79092	58.00
3.80758	58.00
3.82425	58.00
3.84092	58.00
3.85758	58.00
3.87425	58.00
3.89092	58.00
3.90758	58.00
3.92425	58.00
3.94092	58.00
3.95758	58.00
3.97425	58.00
3.99092	58.00

[Status Trace (Carrier Gas Flow)]
Interval(msec)	1000
# of Points	240
Start Time(min)	0.008
End Time(min)	3.991
Intensity Units	
Intensity Multiplier	1
R.Time (min)	Intensity
0.00758	34.52
0.02425	34.54
0.04092	34.55
0.05758	34.54
0.07425	34.49
0.09092	34.52
0.10758	34.52
0.12425	34.52
0.14092	34.52
0.15758	34.52
0.17425	34.52
0.19092	34.52
0.20758	34.52
0.22425	34.52
0.24092	34.52
0.25758	34.52
0.27425	34.52
0.29092	34.52
0.30758	34.52
0.32425	34.52
0.34092	34.52
0.35758	34.51
0.37425	34.52
0.39092	34.52
0.40758	34.52
0.42425	34.52
0.44092	34.52
0.45758	34.52
0.47425	34.51
0.49092	34.52
0.50758	34.52
0.52425	34.52
0.54092	34.52
0.55758	34.52
0.57425	34.51
0.59092	34.52
0.60758	34.52
0.62425	34.52
0.64092	34.52
0.65758	34.52
0.67425	34.52
0.69092	34.52
0.70758	34.52
0.72425	34.52
0.74092	34.52
0.75758	34.52
0.77425	34.52
0.79092	34.52
0.80758	34.52
0.82425	34.52
0.84092	34.51
0.85758	34.52
0.87425	34.52
0.89092	34.52
0.90758	34.52
0.92425	34.52
0.94092	34.52
0.95758	34.52
0.97425	34.52
0.99092	34.52
1.00758	34.52
1.02425	34.52
1.04092	34.52
1.05758	34.52
1.07425	34.52
1.09092	34.52
1.10758	34.52
1.12425	34.52
1.14092	34.52
1.15758	34.52
1.17425	34.52
1.19092	34.52
1.20758	34.52
1.22425	34.52
1.24092	34.52
1.25758	34.52
1.27425	34.52
1.29092	34.52
1.30758	34.52
1.32425	34.52
1.34092	34.52
1.35758	34.52
1.37425	34.52
1.39092	34.52
1.40758	34.52
1.42425	34.52
1.44092	34.52
1.45758	34.52
1.47425	34.52
1.49092	34.52
1.50758	34.51
1.52425	34.52
1.54092	34.52
1.55758	34.52
1.57425	34.52
1.59092	34.52
1.60758	34.52
1.62425	34.52
1.64092	34.52
1.65758	34.52
1.67425	34.52
1.69092	34.52
1.70758	34.52
1.72425	34.52
1.74092	34.52
1.75758	34.52
1.77425	34.51
1.79092	34.52
1.80758	34.52
1.82425	34.52
1.84092	34.52
1.85758	34.52
1.87425	34.52
1.89092	34.52
1.90758	34.52
1.92425	34.52
1.94092	34.52
1.95758	34.52
1.97425	34.51
1.99092	34.52
2.00758	34.52
2.02425	34.52
2.04092	34.52
2.05758	34.52
2.07425	34.52
2.09092	34.52
2.10758	34.52
2.12425	34.52
2.14092	34.52
2.15758	34.52
2.17425	34.52
2.19092	34.52
2.20758	34.52
2.22425	34.52
2.24092	34.52
2.25758	34.52
2.27425	34.52
2.29092	34.52
2.30758	34.52
2.32425	34.52
2.34092	34.52
2.35758	34.52
2.37425	34.52
2.39092	34.52
2.40758	34.52
2.42425	34.52
2.44092	34.52
2.45758	34.52
2.47425	34.52
2.49092	34.52
2.50758	34.33
2.52425	34.52
2.54092	34.53
2.55758	34.53
2.57425	34.52
2.59092	34.53
2.60758	34.53
2.62425	34.52
2.64092	34.52
2.65758	34.51
2.67425	34.51
2.69092	34.52
2.70758	34.51
2.72425	34.52
2.74092	34.52
2.75758	34.52
2.77425	34.52
2.79092	34.52
2.80758	34.52
2.82425	34.52
2.84092	34.52
2.85758	34.52
2.87425	34.52
2.89092	34.52
2.90758	34.52
2.92425	34.52
2.94092	34.52
2.95758	34.52
2.97425	34.52
2.99092	34.52
3.00758	34.52
3.02425	34.52
3.04092	34.52
3.05758	34.52
3.07425	34.52
3.09092	34.52
3.10758	34.52
3.12425	34.52
3.14092	34.52
3.15758	34.52
3.17425	34.52
3.19092	34.52
3.20758	34.52
3.22425	34.52
3.24092	34.52
3.25758	34.52
3.27425	34.52
3.29092	34.52
3.30758	34.52
3.32425	34.52
3.34092	34.52
3.35758	34.52
3.37425	34.52
3.39092	34.52
3.40758	34.52
3.42425	34.52
3.44092	34.52
3.45758	34.52
3.47425	34.52
3.49092	34.52
3.50758	34.52
3.52425	34.52
3.54092	34.52
3.55758	34.52
3.57425	34.52
3.59092	34.52
3.60758	34.52
3.62425	34.52
3.64092	34.52
3.65758	34.52
3.67425	34.52
3.69092	34.52
3.70758	34.52
3.72425	34.52
3.74092	34.52
3.75758	34.52
3.77425	34.52
3.79092	34.52
3.80758	34.52
3.82425	34.52
3.84092	34.52
3.85758	34.52
3.87425	34.52
3.89092	34.52
3.90758	34.52
3.92425	34.52
3.94092	34.52
3.95758	34.52
3.97425	34.52
3.99092	34.52

[Status Trace (Column Flow)]
Interval(msec)	1000
# of Points	240
Start Time(min)	0.008
End Time(min)	3.991
Intensity Units	
Intensity Multiplier	1
R.Time (min)	Intensity
0.00758	5.55
0.02425	5.26
0.04092	5.45
0.05758	5.70
0.07425	5.72
0.09092	5.56
0.10758	5.55
0.12425	5.56
0.14092	5.56
0.15758	5.56
0.17425	5.56
0.19092	5.56
0.20758	5.56
0.22425	5.56
0.24092	5.56
0.25758	5.56
0.27425	5.56
0.29092	5.56
0.30758	5.56
0.32425	5.56
0.34092	5.56
0.35758	5.56
0.37425	5.56
0.39092	5.56
0.40758	5.56
0.42425	5.56
0.44092	5.56
0.45758	5.56
0.47425	5.56
0.49092	5.56
0.50758	5.56
0.52425	5.56
0.54092	5.56
0.55758	5.56
0.57425	5.56
0.59092	5.56
0.60758	5.56
0.62425	5.56
0.64092	5.56
0.65758	5.56
0.67425	5.56
0.69092	5.56
0.70758	5.56
0.72425	5.56
0.74092	5.56
0.75758	5.56
0.77425	5.56
0.79092	5.56
0.80758	5.56
0.82425	5.56
0.84092	5.56
0.85758	5.56
0.87425	5.56
0.89092	5.56
0.90758	5.56
0.92425	5.56
0.94092	5.56
0.95758	5.56
0.97425	5.56
0.99092	5.56
1.00758	5.56
1.02425	5.56
1.04092	5.56
1.05758	5.56
1.07425	5.56
1.09092	5.56
1.10758	5.56
1.12425	5.56
1.14092	5.56
1.15758	5.56
1.17425	5.56
1.19092	5.56
1.20758	5.56
1.22425	5.56
1.24092	5.56
1.25758	5.56
1.27425	5.56
1.29092	5.56
1.30758	5.56
1.32425	5.56
1.34092	5.56
1.35758	5.56
1.37425	5.56
1.39092	5.56
1.40758	5.56
1.42425	5.56
1.44092	5.56
1.45758	5.56
1.47425	5.56
1.49092	5.56
1.50758	5.56
1.52425	5.56
1.54092	5.56
1.55758	5.56
1.57425	5.56
1.59092	5.56
1.60758	5.56
1.62425	5.55
1.64092	5.55
1.65758	5.54
1.67425	5.53
1.69092	5.52
1.70758	5.50
1.72425	5.49
1.74092	5.48
1.75758	5.47
1.77425	5.46
1.79092	5.45
1.80758	5.44
1.82425	5.43
1.84092	5.42
1.85758	5.41
1.87425	5.40
1.89092	5.39
1.90758	5.38
1.92425	5.37
1.94092	5.36
1.95758	5.35
1.97425	5.34
1.99092	5.33
2.00758	5.32
2.02425	5.31
2.04092	5.30
2.05758	5.30
2.07425	5.29
2.09092	5.28
2.10758	5.27
2.12425	5.26
2.14092	5.25
2.15758	5.24
2.17425	5.23
2.19092	5.22
2.20758	5.21
2.22425	5.20
2.24092	5.19
2.25758	5.18
2.27425	5.17
2.29092	5.16
2.30758	5.15
2.32425	5.14
2.34092	5.14
2.35758	5.13
2.37425	5.12
2.39092	5.12
2.40758	5.12
2.42425	5.12
2.44092	5.12
2.45758	5.12
2.47425	5.12
2.49092	5.12
2.50758	5.12
2.52425	5.11
2.54092	5.12
2.55758	5.12
2.57425	5.12
2.59092	5.12
2.60758	5.12
2.62425	5.12
2.64092	5.12
2.65758	5.12
2.67425	5.12
2.69092	5.11
2.70758	5.11
2.72425	5.12
2.74092	5.12
2.75758	5.11
2.77425	5.11
2.79092	5.11
2.80758	5.11
2.82425	5.11
2.84092	5.11
2.85758	5.11
2.87425	5.11
2.89092	5.11
2.90758	5.11
2.92425	5.11
2.94092	5.11
2.95758	5.11
2.97425	5.11
2.99092	5.11
3.00758	5.11
3.02425	5.11
3.04092	5.11
3.05758	5.11
3.07425	5.11
3.09092	5.11
3.10758	5.11
3.12425	5.11
3.14092	5.11
3.15758	5.11
3.17425	5.11
3.19092	5.11
3.20758	5.11
3.22425	5.11
3.24092	5.11
3.25758	5.11
3.27425	5.11
3.29092	5.11
3.30758	5.11
3.32425	5.11
3.34092	5.11
3.35758	5.11
3.37425	5.11
3.39092	5.11
3.40758	5.11
3.42425	5.11
3.44092	5.11
3.45758	5.11
3.47425	5.11
3.49092	5.11
3.50758	5.11
3.52425	5.11
3.54092	5.11
3.55758	5.11
3.57425	5.11
3.59092	5.11
3.60758	5.11
3.62425	5.11
3.64092	5.11
3.65758	5.11
3.67425	5.11
3.69092	5.11
3.70758	5.11
3.72425	5.11
3.74092	5.11
3.75758	5.11
3.77425	5.11
3.79092	5.11
3.80758	5.11
3.82425	5.11
3.84092	5.11
3.85758	5.11
3.87425	5.11
3.89092	5.11
3.90758	5.11
3.92425	5.11
3.94092	5.11
3.95758	5.11
3.97425	5.11
3.99092	5.11

[Status Trace (Linear Velocity)]
Interval(msec)	1000
# of Points	240
Start Time(min)	0.008
End Time(min)	3.991
Intensity Units	
Intensity Multiplier	1
R.Time (min)	Intensity
0.00758	39.02
0.02425	37.34
0.04092	38.44
0.05758	39.80
0.07425	39.96
0.09092	39.06
0.10758	39.01
0.12425	39.03
0.14092	39.03
0.15758	39.03
0.17425	39.03
0.19092	39.03
0.20758	39.03
0.22425	39.03
0.24092	39.03
0.25758	39.03
0.27425	39.03
0.29092	39.03
0.30758	39.03
0.32425	39.03
0.34092	39.03
0.35758	39.02
0.37425	39.03
0.39092	39.03
0.40758	39.03
0.42425	39.03
0.44092	39.02
0.45758	39.02
0.47425	39.02
0.49092	39.02
0.50758	39.03
0.52425	39.03
0.54092	39.03
0.55758	39.03
0.57425	39.03
0.59092	39.03
0.60758	39.03
0.62425	39.03
0.64092	39.03
0.65758	39.03
0.67425	39.03
0.69092	39.03
0.70758	39.03
0.72425	39.03
0.74092	39.02
0.75758	39.02
0.77425	39.02
0.79092	39.03
0.80758	39.03
0.82425	39.02
0.84092	39.02
0.85758	39.03
0.87425	39.03
0.89092	39.03
0.90758	39.03
0.92425	39.03
0.94092	39.03
0.95758	39.03
0.97425	39.03
0.99092	39.03
1.00758	39.03
1.02425	39.03
1.04092	39.03
1.05758	39.03
1.07425	39.03
1.09092	39.03
1.10758	39.03
1.12425	39.03
1.14092	39.03
1.15758	39.03
1.17425	39.03
1.19092	39.03
1.20758	39.03
1.22425	39.03
1.24092	39.03
1.25758	39.03
1.27425	39.03
1.29092	39.03
1.30758	39.03
1.32425	39.03
1.34092	39.03
1.35758	39.02
1.37425	39.02
1.39092	39.02
1.40758	39.02
1.42425	39.02
1.44092	39.03
1.45758	39.03
1.47425	39.03
1.49092	39.03
1.50758	39.03
1.52425	39.03
1.54092	39.03
1.55758	39.03
1.57425	39.03
1.59092	39.03
1.60758	39.02
1.62425	39.01
1.64092	38.99
1.65758	38.97
1.67425	38.94
1.69092	38.90
1.70758	38.87
1.72425	38.83
1.74092	38.80
1.75758	38.77
1.77425	38.74
1.79092	38.71
1.80758	38.68
1.82425	38.65
1.84092	38.61
1.85758	38.58
1.87425	38.55
1.89092	38.52
1.90758	38.49
1.92425	38.46
1.94092	38.43
1.95758	38.40
1.97425	38.37
1.99092	38.34
2.00758	38.31
2.02425	38.28
2.04092	38.25
2.05758	38.22
2.07425	38.19
2.09092	38.16
2.10758	38.13
2.12425	38.10
2.14092	38.07
2.15758	38.04
2.17425	38.01
2.19092	37.98
2.20758	37.95
2.22425	37.93
2.24092	37.90
2.25758	37.87
2.27425	37.84
2.29092	37.80
2.30758	37.77
2.32425	37.75
2.34092	37.72
2.35758	37.69
2.37425	37.67
2.39092	37.66
2.40758	37.66
2.42425	37.66
2.44092	37.66
2.45758	37.66
2.47425	37.66
2.49092	37.66
2.50758	37.66
2.52425	37.65
2.54092	37.66
2.55758	37.66
2.57425	37.66
2.59092	37.66
2.60758	37.66
2.62425	37.65
2.64092	37.65
2.65758	37.65
2.67425	37.65
2.69092	37.65
2.70758	37.65
2.72425	37.65
2.74092	37.66
2.75758	37.65
2.77425	37.65
2.79092	37.65
2.80758	37.65
2.82425	37.65
2.84092	37.65
2.85758	37.65
2.87425	37.65
2.89092	37.65
2.90758	37.65
2.92425	37.65
2.94092	37.65
2.95758	37.65
2.97425	37.64
2.99092	37.64
3.00758	37.64
3.02425	37.64
3.04092	37.64
3.05758	37.64
3.07425	37.64
3.09092	37.64
3.10758	37.64
3.12425	37.64
3.14092	37.64
3.15758	37.64
3.17425	37.64
3.19092	37.64
3.20758	37.64
3.22425	37.64
3.24092	37.63
3.25758	37.63
3.27425	37.63
3.29092	37.63
3.30758	37.63
3.32425	37.63
3.34092	37.63
3.35758	37.63
3.37425	37.63
3.39092	37.63
3.40758	37.63
3.42425	37.63
3.44092	37.64
3.45758	37.64
3.47425	37.64
3.49092	37.64
3.50758	37.64
3.52425	37.64
3.54092	37.64
3.55758	37.64
3.57425	37.64
3.59092	37.64
3.60758	37.64
3.62425	37.63
3.64092	37.63
3.65758	37.64
3.67425	37.64
3.69092	37.64
3.70758	37.64
3.72425	37.64
3.74092	37.64
3.75758	37.64
3.77425	37.64
3.79092	37.64
3.80758	37.64
3.82425	37.64
3.84092	37.64
3.85758	37.63
3.87425	37.63
3.89092	37.63
3.90758	37.63
3.92425	37.63
3.94092	37.64
3.95758	37.63
3.97425	37.63
3.99092	37.63

